# TOPAS Version: 3.1.p3
# Parameter File: batch_inserts_1.txt
# Results for scorer Readout_Adipose
# Scored in component: MyBox
# X in 1 bin  of 1.5 cm
# Y in 512 bins of 0.0783984 cm
# Z in 64 bins of 0.15625 cm
# EnergyDeposit ( MeV ) : Sum   
0, 0, 0, 33.54653930664062
0, 0, 1, 35.38313674926758
0, 0, 2, 29.35747718811035
0, 0, 3, 31.5276985168457
0, 0, 4, 39.79623794555664
0, 0, 5, 25.94056510925293
0, 0, 6, 32.13461303710938
0, 0, 7, 35.76741027832031
0, 0, 8, 31.15999603271484
0, 0, 9, 32.56871032714844
0, 0, 10, 31.71217155456543
0, 0, 11, 33.48968124389648
0, 0, 12, 32.39996719360352
0, 0, 13, 27.57720947265625
0, 0, 14, 32.23125839233398
0, 0, 15, 33.79343032836914
0, 0, 16, 32.44209671020508
0, 0, 17, 35.35221481323242
0, 0, 18, 29.60466766357422
0, 0, 19, 36.08900451660156
0, 0, 20, 45.55126190185547
0, 0, 21, 40.6038703918457
0, 0, 22, 42.35747909545898
0, 0, 23, 31.68455696105957
0, 0, 24, 37.27198791503906
0, 0, 25, 38.22599411010742
0, 0, 26, 33.12046051025391
0, 0, 27, 36.09562301635742
0, 0, 28, 33.04381561279297
0, 0, 29, 29.17400360107422
0, 0, 30, 37.84894561767578
0, 0, 31, 31.05069732666016
0, 0, 32, 32.03421783447266
0, 0, 33, 36.41820907592773
0, 0, 34, 27.55409240722656
0, 0, 35, 38.76836013793945
0, 0, 36, 32.59708786010742
0, 0, 37, 28.76695251464844
0, 0, 38, 33.90238952636719
0, 0, 39, 39.43716430664062
0, 0, 40, 25.41899681091309
0, 0, 41, 35.130615234375
0, 0, 42, 31.20679664611816
0, 0, 43, 35.59271240234375
0, 0, 44, 32.60080718994141
0, 0, 45, 36.79751968383789
0, 0, 46, 32.93938827514648
0, 0, 47, 31.76373481750488
0, 0, 48, 34.42577743530273
0, 0, 49, 30.40777587890625
0, 0, 50, 36.64207458496094
0, 0, 51, 45.72605895996094
0, 0, 52, 35.07117080688477
0, 0, 53, 29.55960273742676
0, 0, 54, 29.94574928283691
0, 0, 55, 27.99625015258789
0, 0, 56, 33.17362213134766
0, 0, 57, 32.70241928100586
0, 0, 58, 29.44554901123047
0, 0, 59, 32.83539581298828
0, 0, 60, 32.77386856079102
0, 0, 61, 28.60302352905273
0, 0, 62, 36.51214218139648
0, 0, 63, 29.92720222473145
0, 1, 0, 35.11824798583984
0, 1, 1, 37.92922592163086
0, 1, 2, 35.06017684936523
0, 1, 3, 34.39608001708984
0, 1, 4, 33.81350326538086
0, 1, 5, 39.66892623901367
0, 1, 6, 32.48711776733398
0, 1, 7, 36.37813186645508
0, 1, 8, 38.99008941650391
0, 1, 9, 42.21191024780273
0, 1, 10, 28.86392593383789
0, 1, 11, 39.54702377319336
0, 1, 12, 31.57438468933105
0, 1, 13, 32.83513259887695
0, 1, 14, 34.45766830444336
0, 1, 15, 33.57376480102539
0, 1, 16, 31.02031135559082
0, 1, 17, 31.33732032775879
0, 1, 18, 31.47206687927246
0, 1, 19, 30.628662109375
0, 1, 20, 39.3007926940918
0, 1, 21, 36.9655647277832
0, 1, 22, 39.52880477905273
0, 1, 23, 47.63458633422852
0, 1, 24, 37.22782135009766
0, 1, 25, 46.23946762084961
0, 1, 26, 43.10192489624023
0, 1, 27, 43.9104118347168
0, 1, 28, 40.72545623779297
0, 1, 29, 45.26203536987305
0, 1, 30, 49.07472991943359
0, 1, 31, 39.43238830566406
0, 1, 32, 36.17373657226562
0, 1, 33, 43.9130973815918
0, 1, 34, 28.63500213623047
0, 1, 35, 37.23543930053711
0, 1, 36, 41.23434066772461
0, 1, 37, 39.90128707885742
0, 1, 38, 38.68289184570312
0, 1, 39, 41.81681060791016
0, 1, 40, 36.61020660400391
0, 1, 41, 32.87776947021484
0, 1, 42, 37.38400650024414
0, 1, 43, 43.64009857177734
0, 1, 44, 35.69450378417969
0, 1, 45, 40.00379180908203
0, 1, 46, 38.4078369140625
0, 1, 47, 33.31792068481445
0, 1, 48, 41.46262741088867
0, 1, 49, 33.04486083984375
0, 1, 50, 37.82000732421875
0, 1, 51, 30.36219787597656
0, 1, 52, 27.35635757446289
0, 1, 53, 44.24361419677734
0, 1, 54, 33.48804092407227
0, 1, 55, 28.70920753479004
0, 1, 56, 41.02010345458984
0, 1, 57, 43.37228393554688
0, 1, 58, 38.95428085327148
0, 1, 59, 39.27505493164062
0, 1, 60, 35.59844207763672
0, 1, 61, 40.97000503540039
0, 1, 62, 40.32190704345703
0, 1, 63, 30.07223510742188
0, 2, 0, 32.50836181640625
0, 2, 1, 45.76629638671875
0, 2, 2, 34.42025756835938
0, 2, 3, 39.97951889038086
0, 2, 4, 40.60044860839844
0, 2, 5, 35.46871185302734
0, 2, 6, 45.71443939208984
0, 2, 7, 42.77373123168945
0, 2, 8, 31.57810211181641
0, 2, 9, 36.5416145324707
0, 2, 10, 34.099609375
0, 2, 11, 29.25978469848633
0, 2, 12, 42.77164459228516
0, 2, 13, 30.16003799438477
0, 2, 14, 40.26631164550781
0, 2, 15, 32.1414680480957
0, 2, 16, 29.93247604370117
0, 2, 17, 34.56009292602539
0, 2, 18, 44.88688278198242
0, 2, 19, 35.82065200805664
0, 2, 20, 39.78952407836914
0, 2, 21, 30.5017147064209
0, 2, 22, 29.72835350036621
0, 2, 23, 40.73951721191406
0, 2, 24, 42.24530029296875
0, 2, 25, 36.4256706237793
0, 2, 26, 42.06026458740234
0, 2, 27, 44.70414733886719
0, 2, 28, 32.20018005371094
0, 2, 29, 41.62100219726562
0, 2, 30, 31.46379661560059
0, 2, 31, 45.98969268798828
0, 2, 32, 41.50466537475586
0, 2, 33, 36.16647720336914
0, 2, 34, 42.33902740478516
0, 2, 35, 38.97896194458008
0, 2, 36, 33.41902923583984
0, 2, 37, 39.58880615234375
0, 2, 38, 38.68962478637695
0, 2, 39, 42.17201995849609
0, 2, 40, 39.96991729736328
0, 2, 41, 41.73225784301758
0, 2, 42, 36.48051834106445
0, 2, 43, 43.85861206054688
0, 2, 44, 44.6497802734375
0, 2, 45, 42.60993957519531
0, 2, 46, 44.11397933959961
0, 2, 47, 29.51138877868652
0, 2, 48, 39.00431442260742
0, 2, 49, 42.29435348510742
0, 2, 50, 41.37450408935547
0, 2, 51, 31.5357780456543
0, 2, 52, 31.260498046875
0, 2, 53, 38.38529586791992
0, 2, 54, 34.2841911315918
0, 2, 55, 35.40774154663086
0, 2, 56, 33.90462493896484
0, 2, 57, 33.38314437866211
0, 2, 58, 31.21026229858398
0, 2, 59, 36.04195785522461
0, 2, 60, 27.0246410369873
0, 2, 61, 36.95546340942383
0, 2, 62, 33.59893035888672
0, 2, 63, 35.80942535400391
0, 3, 0, 34.21306610107422
0, 3, 1, 40.66630172729492
0, 3, 2, 41.24030303955078
0, 3, 3, 39.43766021728516
0, 3, 4, 39.92424774169922
0, 3, 5, 34.20148849487305
0, 3, 6, 43.00097274780273
0, 3, 7, 31.95201683044434
0, 3, 8, 33.39736175537109
0, 3, 9, 34.80421447753906
0, 3, 10, 32.44236755371094
0, 3, 11, 35.04749298095703
0, 3, 12, 35.46918106079102
0, 3, 13, 37.06285095214844
0, 3, 14, 33.5471076965332
0, 3, 15, 31.3021240234375
0, 3, 16, 32.84859085083008
0, 3, 17, 35.74774169921875
0, 3, 18, 35.80288696289062
0, 3, 19, 36.44154739379883
0, 3, 20, 40.28630828857422
0, 3, 21, 42.78652191162109
0, 3, 22, 44.110107421875
0, 3, 23, 40.69196319580078
0, 3, 24, 34.39167785644531
0, 3, 25, 43.42710113525391
0, 3, 26, 39.75638961791992
0, 3, 27, 33.27777099609375
0, 3, 28, 34.36322784423828
0, 3, 29, 35.38586807250977
0, 3, 30, 32.05528259277344
0, 3, 31, 35.47414779663086
0, 3, 32, 31.93368721008301
0, 3, 33, 40.81069183349609
0, 3, 34, 41.45218658447266
0, 3, 35, 40.22283935546875
0, 3, 36, 44.07017517089844
0, 3, 37, 38.32260894775391
0, 3, 38, 30.96413421630859
0, 3, 39, 26.28619766235352
0, 3, 40, 42.39960098266602
0, 3, 41, 35.65244674682617
0, 3, 42, 39.25862121582031
0, 3, 43, 29.46945571899414
0, 3, 44, 35.99079513549805
0, 3, 45, 41.74202728271484
0, 3, 46, 39.80142974853516
0, 3, 47, 30.38988494873047
0, 3, 48, 39.79983139038086
0, 3, 49, 41.29858779907227
0, 3, 50, 41.05171966552734
0, 3, 51, 34.9455451965332
0, 3, 52, 38.39689254760742
0, 3, 53, 39.11450576782227
0, 3, 54, 41.82342910766602
0, 3, 55, 41.17795944213867
0, 3, 56, 40.68794631958008
0, 3, 57, 47.22246932983398
0, 3, 58, 34.94724655151367
0, 3, 59, 39.51158142089844
0, 3, 60, 27.84687995910645
0, 3, 61, 33.94584274291992
0, 3, 62, 31.30608367919922
0, 3, 63, 33.96197509765625
0, 4, 0, 35.45195388793945
0, 4, 1, 43.53016662597656
0, 4, 2, 29.99750328063965
0, 4, 3, 42.26229858398438
0, 4, 4, 39.50066375732422
0, 4, 5, 37.66777801513672
0, 4, 6, 46.38774871826172
0, 4, 7, 31.90613746643066
0, 4, 8, 43.72438049316406
0, 4, 9, 32.03351593017578
0, 4, 10, 36.16340255737305
0, 4, 11, 35.49711608886719
0, 4, 12, 38.05238723754883
0, 4, 13, 42.81204605102539
0, 4, 14, 32.80000686645508
0, 4, 15, 42.34658050537109
0, 4, 16, 40.21057891845703
0, 4, 17, 43.99362945556641
0, 4, 18, 34.37673568725586
0, 4, 19, 39.84258270263672
0, 4, 20, 42.86392211914062
0, 4, 21, 37.79313659667969
0, 4, 22, 42.68350601196289
0, 4, 23, 35.03873062133789
0, 4, 24, 52.25259780883789
0, 4, 25, 43.32172775268555
0, 4, 26, 34.54351806640625
0, 4, 27, 42.80487060546875
0, 4, 28, 36.23284530639648
0, 4, 29, 30.95854949951172
0, 4, 30, 60.13560104370117
0, 4, 31, 43.31779479980469
0, 4, 32, 47.31124877929688
0, 4, 33, 45.22734069824219
0, 4, 34, 39.7097282409668
0, 4, 35, 37.60032272338867
0, 4, 36, 31.52222442626953
0, 4, 37, 44.28135299682617
0, 4, 38, 31.51935005187988
0, 4, 39, 37.2253532409668
0, 4, 40, 45.84934997558594
0, 4, 41, 32.44555282592773
0, 4, 42, 37.92517852783203
0, 4, 43, 38.37077713012695
0, 4, 44, 44.56647491455078
0, 4, 45, 32.30072784423828
0, 4, 46, 44.17613220214844
0, 4, 47, 46.28091049194336
0, 4, 48, 38.70018005371094
0, 4, 49, 37.62570190429688
0, 4, 50, 35.92172622680664
0, 4, 51, 31.29292106628418
0, 4, 52, 37.36730575561523
0, 4, 53, 39.94844436645508
0, 4, 54, 33.21643447875977
0, 4, 55, 48.80309677124023
0, 4, 56, 42.1996955871582
0, 4, 57, 40.78969192504883
0, 4, 58, 40.74905776977539
0, 4, 59, 47.98745346069336
0, 4, 60, 40.54181289672852
0, 4, 61, 35.95217514038086
0, 4, 62, 38.13801956176758
0, 4, 63, 31.58122634887695
0, 5, 0, 40.08392715454102
0, 5, 1, 38.23644256591797
0, 5, 2, 42.40320205688477
0, 5, 3, 38.55435180664062
0, 5, 4, 40.13097763061523
0, 5, 5, 42.99588012695312
0, 5, 6, 42.02290725708008
0, 5, 7, 42.84205627441406
0, 5, 8, 33.32746887207031
0, 5, 9, 39.66481781005859
0, 5, 10, 37.93220901489258
0, 5, 11, 35.59918212890625
0, 5, 12, 36.41886520385742
0, 5, 13, 43.21346664428711
0, 5, 14, 44.38933944702148
0, 5, 15, 43.04506301879883
0, 5, 16, 48.96082305908203
0, 5, 17, 35.09574508666992
0, 5, 18, 38.25561141967773
0, 5, 19, 36.81829452514648
0, 5, 20, 44.73711776733398
0, 5, 21, 36.60306930541992
0, 5, 22, 38.34369659423828
0, 5, 23, 34.48175430297852
0, 5, 24, 39.44491195678711
0, 5, 25, 32.45461654663086
0, 5, 26, 34.91461944580078
0, 5, 27, 39.32812118530273
0, 5, 28, 37.63969802856445
0, 5, 29, 39.26749801635742
0, 5, 30, 37.97853469848633
0, 5, 31, 39.71196365356445
0, 5, 32, 42.81119155883789
0, 5, 33, 44.58463668823242
0, 5, 34, 39.39989471435547
0, 5, 35, 43.04263305664062
0, 5, 36, 36.96833801269531
0, 5, 37, 40.96121215820312
0, 5, 38, 37.22647857666016
0, 5, 39, 37.60536956787109
0, 5, 40, 40.13682174682617
0, 5, 41, 36.82722473144531
0, 5, 42, 35.34091567993164
0, 5, 43, 33.26737594604492
0, 5, 44, 35.83201217651367
0, 5, 45, 40.17232131958008
0, 5, 46, 47.86272811889648
0, 5, 47, 34.40264129638672
0, 5, 48, 43.31283569335938
0, 5, 49, 44.2585563659668
0, 5, 50, 38.99440383911133
0, 5, 51, 33.32721710205078
0, 5, 52, 43.54162979125977
0, 5, 53, 40.76865386962891
0, 5, 54, 32.00856018066406
0, 5, 55, 36.98789978027344
0, 5, 56, 33.489501953125
0, 5, 57, 41.47055816650391
0, 5, 58, 33.24818801879883
0, 5, 59, 38.7803840637207
0, 5, 60, 38.9761848449707
0, 5, 61, 43.60386276245117
0, 5, 62, 34.98931503295898
0, 5, 63, 40.93725204467773
0, 6, 0, 29.6795711517334
0, 6, 1, 31.47286605834961
0, 6, 2, 35.1213493347168
0, 6, 3, 43.37046432495117
0, 6, 4, 36.97029876708984
0, 6, 5, 49.76093292236328
0, 6, 6, 38.45845794677734
0, 6, 7, 37.46753311157227
0, 6, 8, 44.18983840942383
0, 6, 9, 34.74642944335938
0, 6, 10, 39.77782821655273
0, 6, 11, 45.75695419311523
0, 6, 12, 30.94019889831543
0, 6, 13, 35.04960250854492
0, 6, 14, 43.55357360839844
0, 6, 15, 54.40150451660156
0, 6, 16, 43.27168273925781
0, 6, 17, 47.27010726928711
0, 6, 18, 50.76169967651367
0, 6, 19, 43.61689758300781
0, 6, 20, 37.63167190551758
0, 6, 21, 33.35569381713867
0, 6, 22, 41.28109741210938
0, 6, 23, 37.16422653198242
0, 6, 24, 41.97383880615234
0, 6, 25, 36.59935760498047
0, 6, 26, 44.75754928588867
0, 6, 27, 37.63492202758789
0, 6, 28, 34.07810974121094
0, 6, 29, 28.7754020690918
0, 6, 30, 44.51461410522461
0, 6, 31, 29.95073509216309
0, 6, 32, 47.1810417175293
0, 6, 33, 46.77824401855469
0, 6, 34, 39.28936386108398
0, 6, 35, 39.50144195556641
0, 6, 36, 42.45534896850586
0, 6, 37, 33.87126159667969
0, 6, 38, 44.26787948608398
0, 6, 39, 42.5398063659668
0, 6, 40, 39.23615264892578
0, 6, 41, 44.46205520629883
0, 6, 42, 47.48502349853516
0, 6, 43, 36.04203414916992
0, 6, 44, 37.89387512207031
0, 6, 45, 38.41281127929688
0, 6, 46, 34.72003173828125
0, 6, 47, 28.13666725158691
0, 6, 48, 35.94512176513672
0, 6, 49, 42.07650756835938
0, 6, 50, 33.34389495849609
0, 6, 51, 35.74331283569336
0, 6, 52, 42.11199188232422
0, 6, 53, 39.58420562744141
0, 6, 54, 42.37200927734375
0, 6, 55, 43.89431762695312
0, 6, 56, 42.41336059570312
0, 6, 57, 38.09273147583008
0, 6, 58, 32.20409774780273
0, 6, 59, 38.84830093383789
0, 6, 60, 28.76655387878418
0, 6, 61, 46.95010375976562
0, 6, 62, 35.19566345214844
0, 6, 63, 37.03836059570312
0, 7, 0, 36.19630813598633
0, 7, 1, 32.77713012695312
0, 7, 2, 37.33787536621094
0, 7, 3, 29.76591682434082
0, 7, 4, 37.5427360534668
0, 7, 5, 37.88925552368164
0, 7, 6, 37.86874389648438
0, 7, 7, 28.38569831848145
0, 7, 8, 39.47592926025391
0, 7, 9, 43.27179336547852
0, 7, 10, 44.65378952026367
0, 7, 11, 47.59905242919922
0, 7, 12, 30.58583068847656
0, 7, 13, 34.05722808837891
0, 7, 14, 37.74066162109375
0, 7, 15, 40.42498016357422
0, 7, 16, 34.13304901123047
0, 7, 17, 31.08750343322754
0, 7, 18, 32.56863403320312
0, 7, 19, 40.43202972412109
0, 7, 20, 38.29793930053711
0, 7, 21, 48.23703765869141
0, 7, 22, 40.05432891845703
0, 7, 23, 52.04640960693359
0, 7, 24, 35.90179443359375
0, 7, 25, 45.34450912475586
0, 7, 26, 37.80808258056641
0, 7, 27, 39.86711883544922
0, 7, 28, 31.3066234588623
0, 7, 29, 43.69065093994141
0, 7, 30, 39.07012557983398
0, 7, 31, 28.84585189819336
0, 7, 32, 41.08513259887695
0, 7, 33, 40.43157577514648
0, 7, 34, 37.29941177368164
0, 7, 35, 41.62975311279297
0, 7, 36, 38.78906631469727
0, 7, 37, 49.19286346435547
0, 7, 38, 44.87347412109375
0, 7, 39, 33.58709716796875
0, 7, 40, 43.52472686767578
0, 7, 41, 41.41983032226562
0, 7, 42, 39.82835006713867
0, 7, 43, 41.56579208374023
0, 7, 44, 39.33954238891602
0, 7, 45, 38.39139175415039
0, 7, 46, 36.49500274658203
0, 7, 47, 36.96121978759766
0, 7, 48, 42.74691390991211
0, 7, 49, 42.09090805053711
0, 7, 50, 47.37747192382812
0, 7, 51, 41.47468566894531
0, 7, 52, 41.17121887207031
0, 7, 53, 36.49489212036133
0, 7, 54, 46.31824111938477
0, 7, 55, 38.67584991455078
0, 7, 56, 37.14299011230469
0, 7, 57, 42.38298416137695
0, 7, 58, 40.12595367431641
0, 7, 59, 29.59011840820312
0, 7, 60, 33.15467834472656
0, 7, 61, 40.38272476196289
0, 7, 62, 32.20266342163086
0, 7, 63, 27.96916007995605
0, 8, 0, 38.55113983154297
0, 8, 1, 38.10750579833984
0, 8, 2, 30.08200263977051
0, 8, 3, 36.96501922607422
0, 8, 4, 31.09566116333008
0, 8, 5, 35.83407974243164
0, 8, 6, 43.72698974609375
0, 8, 7, 46.61244964599609
0, 8, 8, 38.74037933349609
0, 8, 9, 46.33301544189453
0, 8, 10, 43.52378082275391
0, 8, 11, 36.51520538330078
0, 8, 12, 39.73591232299805
0, 8, 13, 32.744873046875
0, 8, 14, 37.79762649536133
0, 8, 15, 30.66915702819824
0, 8, 16, 37.56315994262695
0, 8, 17, 29.87453079223633
0, 8, 18, 37.92205810546875
0, 8, 19, 36.88204574584961
0, 8, 20, 46.2869873046875
0, 8, 21, 35.17728042602539
0, 8, 22, 41.72497177124023
0, 8, 23, 52.84651947021484
0, 8, 24, 40.20383834838867
0, 8, 25, 45.76898574829102
0, 8, 26, 40.55880737304688
0, 8, 27, 38.64371109008789
0, 8, 28, 40.86741638183594
0, 8, 29, 36.47684478759766
0, 8, 30, 37.94587707519531
0, 8, 31, 35.27893447875977
0, 8, 32, 41.07514190673828
0, 8, 33, 42.55694961547852
0, 8, 34, 34.43632507324219
0, 8, 35, 51.50972366333008
0, 8, 36, 36.37700653076172
0, 8, 37, 43.30825424194336
0, 8, 38, 43.08066940307617
0, 8, 39, 38.16240310668945
0, 8, 40, 46.79582214355469
0, 8, 41, 34.99064254760742
0, 8, 42, 40.23421478271484
0, 8, 43, 42.9495735168457
0, 8, 44, 42.6423454284668
0, 8, 45, 40.323974609375
0, 8, 46, 41.53605651855469
0, 8, 47, 41.17132186889648
0, 8, 48, 37.49336624145508
0, 8, 49, 36.77323532104492
0, 8, 50, 47.72505187988281
0, 8, 51, 42.55999374389648
0, 8, 52, 40.34918975830078
0, 8, 53, 34.61779022216797
0, 8, 54, 38.74087142944336
0, 8, 55, 37.89273071289062
0, 8, 56, 38.19390869140625
0, 8, 57, 36.44406890869141
0, 8, 58, 42.5698356628418
0, 8, 59, 38.54394149780273
0, 8, 60, 36.27141571044922
0, 8, 61, 44.23357009887695
0, 8, 62, 28.56078147888184
0, 8, 63, 39.80484771728516
0, 9, 0, 29.80575180053711
0, 9, 1, 37.31380462646484
0, 9, 2, 28.93389511108398
0, 9, 3, 32.49233627319336
0, 9, 4, 33.28558731079102
0, 9, 5, 40.35163879394531
0, 9, 6, 42.13794326782227
0, 9, 7, 39.29201126098633
0, 9, 8, 45.76407241821289
0, 9, 9, 36.14911270141602
0, 9, 10, 38.9154167175293
0, 9, 11, 39.14469146728516
0, 9, 12, 37.71170043945312
0, 9, 13, 38.89971923828125
0, 9, 14, 40.60575866699219
0, 9, 15, 38.29969024658203
0, 9, 16, 30.80704116821289
0, 9, 17, 40.9710807800293
0, 9, 18, 38.1860237121582
0, 9, 19, 30.93346405029297
0, 9, 20, 43.6598014831543
0, 9, 21, 40.69206237792969
0, 9, 22, 39.13416290283203
0, 9, 23, 48.90584945678711
0, 9, 24, 41.92848587036133
0, 9, 25, 39.07566833496094
0, 9, 26, 46.45583343505859
0, 9, 27, 35.41120529174805
0, 9, 28, 51.86550521850586
0, 9, 29, 49.67106628417969
0, 9, 30, 42.2530403137207
0, 9, 31, 38.82489776611328
0, 9, 32, 35.28761672973633
0, 9, 33, 30.98042678833008
0, 9, 34, 38.56549453735352
0, 9, 35, 32.94143676757812
0, 9, 36, 39.51853561401367
0, 9, 37, 35.76671981811523
0, 9, 38, 32.26275253295898
0, 9, 39, 35.15215682983398
0, 9, 40, 36.10637283325195
0, 9, 41, 34.09331512451172
0, 9, 42, 36.22872161865234
0, 9, 43, 41.47933197021484
0, 9, 44, 35.29999160766602
0, 9, 45, 48.00964736938477
0, 9, 46, 37.36646270751953
0, 9, 47, 47.68595886230469
0, 9, 48, 35.1320915222168
0, 9, 49, 41.41694259643555
0, 9, 50, 48.92696380615234
0, 9, 51, 35.3321647644043
0, 9, 52, 38.31877517700195
0, 9, 53, 35.77414321899414
0, 9, 54, 38.98258209228516
0, 9, 55, 42.46274185180664
0, 9, 56, 37.29715728759766
0, 9, 57, 40.62481689453125
0, 9, 58, 42.70877838134766
0, 9, 59, 41.50394439697266
0, 9, 60, 40.07546234130859
0, 9, 61, 44.20970153808594
0, 9, 62, 47.48487091064453
0, 9, 63, 37.03396224975586
0, 10, 0, 29.10849761962891
0, 10, 1, 42.99028778076172
0, 10, 2, 36.45858001708984
0, 10, 3, 37.46886825561523
0, 10, 4, 43.87897872924805
0, 10, 5, 32.80517196655273
0, 10, 6, 32.5386962890625
0, 10, 7, 39.82898712158203
0, 10, 8, 46.55086517333984
0, 10, 9, 38.21989059448242
0, 10, 10, 33.25431442260742
0, 10, 11, 37.15910720825195
0, 10, 12, 35.36362838745117
0, 10, 13, 32.24295806884766
0, 10, 14, 36.51269149780273
0, 10, 15, 39.97962188720703
0, 10, 16, 36.49150085449219
0, 10, 17, 45.08895874023438
0, 10, 18, 37.69868469238281
0, 10, 19, 34.35197830200195
0, 10, 20, 32.94332504272461
0, 10, 21, 38.71197128295898
0, 10, 22, 39.92405319213867
0, 10, 23, 38.45834350585938
0, 10, 24, 32.57836151123047
0, 10, 25, 40.13864898681641
0, 10, 26, 41.38188171386719
0, 10, 27, 44.10853576660156
0, 10, 28, 42.24230194091797
0, 10, 29, 42.69276809692383
0, 10, 30, 52.61521530151367
0, 10, 31, 38.56125640869141
0, 10, 32, 41.33439636230469
0, 10, 33, 33.38295364379883
0, 10, 34, 34.53548431396484
0, 10, 35, 40.24149703979492
0, 10, 36, 38.10769653320312
0, 10, 37, 42.06852722167969
0, 10, 38, 34.50046539306641
0, 10, 39, 53.08869171142578
0, 10, 40, 34.71643829345703
0, 10, 41, 34.72290802001953
0, 10, 42, 40.31103515625
0, 10, 43, 43.1541862487793
0, 10, 44, 42.79569244384766
0, 10, 45, 40.71477508544922
0, 10, 46, 34.08773040771484
0, 10, 47, 40.94148254394531
0, 10, 48, 35.4366340637207
0, 10, 49, 43.00253677368164
0, 10, 50, 33.47733306884766
0, 10, 51, 33.62239837646484
0, 10, 52, 35.24784851074219
0, 10, 53, 47.35289001464844
0, 10, 54, 41.47976303100586
0, 10, 55, 47.52577590942383
0, 10, 56, 34.48407745361328
0, 10, 57, 39.51334762573242
0, 10, 58, 45.19267654418945
0, 10, 59, 39.14625549316406
0, 10, 60, 33.17049789428711
0, 10, 61, 36.06962966918945
0, 10, 62, 37.17846298217773
0, 10, 63, 31.14085388183594
0, 11, 0, 39.77223205566406
0, 11, 1, 40.2369384765625
0, 11, 2, 32.84322357177734
0, 11, 3, 38.230224609375
0, 11, 4, 36.07608032226562
0, 11, 5, 38.58958053588867
0, 11, 6, 37.37260055541992
0, 11, 7, 42.45499420166016
0, 11, 8, 34.62368392944336
0, 11, 9, 38.34114837646484
0, 11, 10, 35.60055923461914
0, 11, 11, 41.90901565551758
0, 11, 12, 37.21585464477539
0, 11, 13, 36.1519889831543
0, 11, 14, 41.54650497436523
0, 11, 15, 41.91742706298828
0, 11, 16, 35.96273422241211
0, 11, 17, 40.10308074951172
0, 11, 18, 36.90653610229492
0, 11, 19, 49.07216644287109
0, 11, 20, 38.37421417236328
0, 11, 21, 36.93878936767578
0, 11, 22, 45.12395858764648
0, 11, 23, 49.18014144897461
0, 11, 24, 40.02019119262695
0, 11, 25, 38.58547210693359
0, 11, 26, 41.28949737548828
0, 11, 27, 40.15052032470703
0, 11, 28, 41.61717987060547
0, 11, 29, 34.84446716308594
0, 11, 30, 38.99491882324219
0, 11, 31, 41.23573684692383
0, 11, 32, 37.52291870117188
0, 11, 33, 31.57185745239258
0, 11, 34, 44.76780700683594
0, 11, 35, 34.90774536132812
0, 11, 36, 43.68117523193359
0, 11, 37, 45.77404022216797
0, 11, 38, 37.39665222167969
0, 11, 39, 35.38657760620117
0, 11, 40, 40.65517425537109
0, 11, 41, 36.95011901855469
0, 11, 42, 43.5306510925293
0, 11, 43, 36.81252670288086
0, 11, 44, 38.66044235229492
0, 11, 45, 39.80431747436523
0, 11, 46, 36.47823333740234
0, 11, 47, 40.99304580688477
0, 11, 48, 40.26375198364258
0, 11, 49, 41.35727310180664
0, 11, 50, 38.84903335571289
0, 11, 51, 43.70647430419922
0, 11, 52, 36.38041687011719
0, 11, 53, 39.16061401367188
0, 11, 54, 36.2342643737793
0, 11, 55, 38.39569473266602
0, 11, 56, 40.9156608581543
0, 11, 57, 34.91373443603516
0, 11, 58, 33.06072235107422
0, 11, 59, 44.2583122253418
0, 11, 60, 44.68653106689453
0, 11, 61, 33.10275650024414
0, 11, 62, 38.99417114257812
0, 11, 63, 33.90401840209961
0, 12, 0, 47.53939819335938
0, 12, 1, 45.26332473754883
0, 12, 2, 42.57837295532227
0, 12, 3, 38.57384490966797
0, 12, 4, 34.28691101074219
0, 12, 5, 45.33835983276367
0, 12, 6, 40.95066833496094
0, 12, 7, 39.96113967895508
0, 12, 8, 44.31309509277344
0, 12, 9, 49.58164978027344
0, 12, 10, 40.04552841186523
0, 12, 11, 40.30058670043945
0, 12, 12, 38.28533935546875
0, 12, 13, 39.05361938476562
0, 12, 14, 41.25901794433594
0, 12, 15, 35.62317657470703
0, 12, 16, 53.0848503112793
0, 12, 17, 38.42108154296875
0, 12, 18, 34.94515991210938
0, 12, 19, 38.6779899597168
0, 12, 20, 36.31940460205078
0, 12, 21, 37.97337341308594
0, 12, 22, 37.81912612915039
0, 12, 23, 34.04477691650391
0, 12, 24, 42.62280654907227
0, 12, 25, 35.40655899047852
0, 12, 26, 37.28945922851562
0, 12, 27, 45.16322326660156
0, 12, 28, 38.61093902587891
0, 12, 29, 42.16031646728516
0, 12, 30, 40.26547241210938
0, 12, 31, 28.51460075378418
0, 12, 32, 36.48518753051758
0, 12, 33, 45.00820159912109
0, 12, 34, 47.7131462097168
0, 12, 35, 46.74417114257812
0, 12, 36, 43.5902099609375
0, 12, 37, 37.75068283081055
0, 12, 38, 48.48880386352539
0, 12, 39, 39.92952728271484
0, 12, 40, 40.54629898071289
0, 12, 41, 41.68732452392578
0, 12, 42, 35.47765731811523
0, 12, 43, 45.77670669555664
0, 12, 44, 40.68366622924805
0, 12, 45, 44.71884155273438
0, 12, 46, 40.1573600769043
0, 12, 47, 42.45656204223633
0, 12, 48, 40.0710563659668
0, 12, 49, 41.41251754760742
0, 12, 50, 44.86716842651367
0, 12, 51, 45.28752517700195
0, 12, 52, 40.03213500976562
0, 12, 53, 52.7896614074707
0, 12, 54, 38.29668426513672
0, 12, 55, 44.82613754272461
0, 12, 56, 29.52778244018555
0, 12, 57, 40.65520858764648
0, 12, 58, 47.88738250732422
0, 12, 59, 45.40186309814453
0, 12, 60, 42.78311920166016
0, 12, 61, 46.41864776611328
0, 12, 62, 29.47772407531738
0, 12, 63, 40.98003005981445
0, 13, 0, 38.12295913696289
0, 13, 1, 39.48625183105469
0, 13, 2, 40.6629638671875
0, 13, 3, 36.61037445068359
0, 13, 4, 41.66023254394531
0, 13, 5, 33.18779373168945
0, 13, 6, 36.09379959106445
0, 13, 7, 42.39676284790039
0, 13, 8, 37.08703231811523
0, 13, 9, 35.22985076904297
0, 13, 10, 39.98259353637695
0, 13, 11, 37.111083984375
0, 13, 12, 45.41018676757812
0, 13, 13, 37.60278701782227
0, 13, 14, 43.46364212036133
0, 13, 15, 49.02298355102539
0, 13, 16, 36.4307746887207
0, 13, 17, 43.75925064086914
0, 13, 18, 40.90567398071289
0, 13, 19, 41.50173950195312
0, 13, 20, 48.22639083862305
0, 13, 21, 40.21612930297852
0, 13, 22, 43.71746826171875
0, 13, 23, 46.66208267211914
0, 13, 24, 40.52117156982422
0, 13, 25, 48.21731567382812
0, 13, 26, 35.23997116088867
0, 13, 27, 38.43207168579102
0, 13, 28, 37.05860137939453
0, 13, 29, 37.70361709594727
0, 13, 30, 39.25952911376953
0, 13, 31, 43.29604721069336
0, 13, 32, 45.59513854980469
0, 13, 33, 45.19844055175781
0, 13, 34, 42.49275207519531
0, 13, 35, 38.60245895385742
0, 13, 36, 43.02710342407227
0, 13, 37, 34.76312637329102
0, 13, 38, 43.93445205688477
0, 13, 39, 38.93645477294922
0, 13, 40, 41.9250373840332
0, 13, 41, 42.44998550415039
0, 13, 42, 43.22294235229492
0, 13, 43, 38.63323593139648
0, 13, 44, 36.55153656005859
0, 13, 45, 42.37083435058594
0, 13, 46, 31.31610488891602
0, 13, 47, 47.09392166137695
0, 13, 48, 45.31847381591797
0, 13, 49, 38.90689086914062
0, 13, 50, 38.79316329956055
0, 13, 51, 35.92154693603516
0, 13, 52, 30.22790908813477
0, 13, 53, 45.04798889160156
0, 13, 54, 38.74625396728516
0, 13, 55, 49.3337287902832
0, 13, 56, 35.38555145263672
0, 13, 57, 47.37990570068359
0, 13, 58, 37.55886459350586
0, 13, 59, 42.06392669677734
0, 13, 60, 41.07809829711914
0, 13, 61, 34.72365188598633
0, 13, 62, 37.19321060180664
0, 13, 63, 33.2325553894043
0, 14, 0, 36.17169952392578
0, 14, 1, 40.97364044189453
0, 14, 2, 39.08498764038086
0, 14, 3, 29.91718673706055
0, 14, 4, 50.04136276245117
0, 14, 5, 44.18692398071289
0, 14, 6, 36.28781127929688
0, 14, 7, 42.31892395019531
0, 14, 8, 43.44545745849609
0, 14, 9, 44.93016815185547
0, 14, 10, 38.35858154296875
0, 14, 11, 36.23092651367188
0, 14, 12, 40.64443588256836
0, 14, 13, 52.58502578735352
0, 14, 14, 45.88715362548828
0, 14, 15, 53.45333480834961
0, 14, 16, 36.01818466186523
0, 14, 17, 42.16828536987305
0, 14, 18, 36.71006774902344
0, 14, 19, 38.04438400268555
0, 14, 20, 42.85303115844727
0, 14, 21, 38.27865600585938
0, 14, 22, 46.7387580871582
0, 14, 23, 44.47387313842773
0, 14, 24, 49.01888275146484
0, 14, 25, 46.80461120605469
0, 14, 26, 40.64057159423828
0, 14, 27, 37.92736434936523
0, 14, 28, 27.6379222869873
0, 14, 29, 39.44208145141602
0, 14, 30, 49.28750228881836
0, 14, 31, 40.77148818969727
0, 14, 32, 43.70346069335938
0, 14, 33, 42.06469345092773
0, 14, 34, 37.8786735534668
0, 14, 35, 43.86510467529297
0, 14, 36, 54.96380615234375
0, 14, 37, 37.2369499206543
0, 14, 38, 42.51100158691406
0, 14, 39, 48.00002670288086
0, 14, 40, 39.39709854125977
0, 14, 41, 41.83280181884766
0, 14, 42, 40.56634902954102
0, 14, 43, 40.46596527099609
0, 14, 44, 39.80762100219727
0, 14, 45, 44.49543380737305
0, 14, 46, 48.21126174926758
0, 14, 47, 40.75890731811523
0, 14, 48, 43.8647575378418
0, 14, 49, 41.52070617675781
0, 14, 50, 37.69716262817383
0, 14, 51, 32.08867263793945
0, 14, 52, 42.73293304443359
0, 14, 53, 40.93474960327148
0, 14, 54, 46.31351852416992
0, 14, 55, 31.97676086425781
0, 14, 56, 42.04648971557617
0, 14, 57, 39.14273834228516
0, 14, 58, 36.13020706176758
0, 14, 59, 42.80525970458984
0, 14, 60, 49.20598220825195
0, 14, 61, 37.4750862121582
0, 14, 62, 33.84369659423828
0, 14, 63, 49.04188919067383
0, 15, 0, 37.98675918579102
0, 15, 1, 34.90268325805664
0, 15, 2, 40.24448013305664
0, 15, 3, 35.66336822509766
0, 15, 4, 43.83415985107422
0, 15, 5, 37.90950775146484
0, 15, 6, 39.38541793823242
0, 15, 7, 35.11887359619141
0, 15, 8, 41.70379257202148
0, 15, 9, 33.54374694824219
0, 15, 10, 48.30006790161133
0, 15, 11, 42.23706817626953
0, 15, 12, 39.02841186523438
0, 15, 13, 43.76597213745117
0, 15, 14, 36.47563552856445
0, 15, 15, 46.54713439941406
0, 15, 16, 42.36286926269531
0, 15, 17, 40.01495361328125
0, 15, 18, 48.21467590332031
0, 15, 19, 36.36464691162109
0, 15, 20, 45.70391464233398
0, 15, 21, 57.87420272827148
0, 15, 22, 42.3405647277832
0, 15, 23, 44.03566741943359
0, 15, 24, 46.25393676757812
0, 15, 25, 40.91904830932617
0, 15, 26, 39.08088302612305
0, 15, 27, 49.54743576049805
0, 15, 28, 43.80006408691406
0, 15, 29, 36.75624465942383
0, 15, 30, 50.28426361083984
0, 15, 31, 42.50690460205078
0, 15, 32, 44.82428741455078
0, 15, 33, 44.44713592529297
0, 15, 34, 45.09075927734375
0, 15, 35, 38.50512313842773
0, 15, 36, 43.42380142211914
0, 15, 37, 37.89655685424805
0, 15, 38, 42.29908752441406
0, 15, 39, 39.84263229370117
0, 15, 40, 37.59001541137695
0, 15, 41, 37.36157989501953
0, 15, 42, 37.02528381347656
0, 15, 43, 42.51277923583984
0, 15, 44, 36.52082824707031
0, 15, 45, 36.41735458374023
0, 15, 46, 52.42543792724609
0, 15, 47, 37.08467864990234
0, 15, 48, 44.65829467773438
0, 15, 49, 44.79437637329102
0, 15, 50, 57.07071304321289
0, 15, 51, 43.91123962402344
0, 15, 52, 36.21613311767578
0, 15, 53, 38.71162033081055
0, 15, 54, 46.00302124023438
0, 15, 55, 37.62522888183594
0, 15, 56, 31.61847686767578
0, 15, 57, 41.61639022827148
0, 15, 58, 39.89334869384766
0, 15, 59, 33.75338363647461
0, 15, 60, 39.75809860229492
0, 15, 61, 37.20660018920898
0, 15, 62, 43.49182891845703
0, 15, 63, 32.1356201171875
0, 16, 0, 44.94563674926758
0, 16, 1, 34.38025665283203
0, 16, 2, 31.68718147277832
0, 16, 3, 31.75755310058594
0, 16, 4, 38.03533172607422
0, 16, 5, 36.0782356262207
0, 16, 6, 42.15313339233398
0, 16, 7, 48.21671295166016
0, 16, 8, 37.27384948730469
0, 16, 9, 35.92277908325195
0, 16, 10, 43.49568176269531
0, 16, 11, 37.3720703125
0, 16, 12, 48.81345367431641
0, 16, 13, 46.99232482910156
0, 16, 14, 43.92442321777344
0, 16, 15, 42.66159820556641
0, 16, 16, 38.28646850585938
0, 16, 17, 36.34470748901367
0, 16, 18, 47.20991897583008
0, 16, 19, 43.74132537841797
0, 16, 20, 53.34485244750977
0, 16, 21, 51.95524215698242
0, 16, 22, 33.30004119873047
0, 16, 23, 41.61107635498047
0, 16, 24, 45.46204376220703
0, 16, 25, 35.78483200073242
0, 16, 26, 38.90792083740234
0, 16, 27, 38.0759162902832
0, 16, 28, 48.7498893737793
0, 16, 29, 40.73891830444336
0, 16, 30, 41.27186584472656
0, 16, 31, 45.10794067382812
0, 16, 32, 47.25559997558594
