# TOPAS Version: 3.1.p3
# Parameter File: batch_inserts_1.txt
# Results for scorer Readout_Adipose
# Scored in component: MyBox
# X in 1 bin  of 1.5 cm
# Y in 512 bins of 0.0783984 cm
# Z in 128 bins of 0.078125 cm
# EnergyDeposit ( MeV ) : Sum   
0, 0, 0, 4.570962905883789
0, 0, 1, 5.53418493270874
0, 0, 2, 2.725319862365723
0, 0, 3, 5.205203533172607
0, 0, 4, 4.803112983703613
0, 0, 5, 3.992578983306885
0, 0, 6, 7.639467239379883
0, 0, 7, 7.130849838256836
0, 0, 8, 5.969430446624756
0, 0, 9, 5.918824195861816
0, 0, 10, 7.103283405303955
0, 0, 11, 6.825487613677979
0, 0, 12, 13.66877555847168
0, 0, 13, 11.73070335388184
0, 0, 14, 13.2599401473999
0, 0, 15, 12.59563064575195
0, 0, 16, 12.66427135467529
0, 0, 17, 17.6657829284668
0, 0, 18, 22.07888793945312
0, 0, 19, 52.25005340576172
0, 0, 20, 142.3093109130859
0, 0, 21, 279.6053161621094
0, 0, 22, 284.4926452636719
0, 0, 23, 304.1730346679688
0, 0, 24, 310.3999938964844
0, 0, 25, 309.3697204589844
0, 0, 26, 295.0987243652344
0, 0, 27, 305.7669067382812
0, 0, 28, 321.1518859863281
0, 0, 29, 321.9171752929688
0, 0, 30, 293.5528869628906
0, 0, 31, 327.6280517578125
0, 0, 32, 333.3458251953125
0, 0, 33, 308.4958801269531
0, 0, 34, 299.7101745605469
0, 0, 35, 315.83837890625
0, 0, 36, 304.7448425292969
0, 0, 37, 316.7080383300781
0, 0, 38, 310.1541442871094
0, 0, 39, 300.5119018554688
0, 0, 40, 298.5239868164062
0, 0, 41, 324.1786499023438
0, 0, 42, 327.2033081054688
0, 0, 43, 296.4546203613281
0, 0, 44, 320.10888671875
0, 0, 45, 314.7866821289062
0, 0, 46, 319.9571838378906
0, 0, 47, 298.1707153320312
0, 0, 48, 314.2365112304688
0, 0, 49, 305.2294921875
0, 0, 50, 298.159423828125
0, 0, 51, 314.7998657226562
0, 0, 52, 294.7915649414062
0, 0, 53, 315.4297180175781
0, 0, 54, 295.3253479003906
0, 0, 55, 296.2051391601562
0, 0, 56, 310.0848693847656
0, 0, 57, 300.4632263183594
0, 0, 58, 307.6514282226562
0, 0, 59, 292.7362060546875
0, 0, 60, 288.4931640625
0, 0, 61, 298.4029235839844
0, 0, 62, 317.543212890625
0, 0, 63, 301.5466918945312
0, 0, 64, 292.0476379394531
0, 0, 65, 315.8686218261719
0, 0, 66, 312.7257995605469
0, 0, 67, 307.5579223632812
0, 0, 68, 313.6460571289062
0, 0, 69, 293.9686584472656
0, 0, 70, 292.9719848632812
0, 0, 71, 332.7903137207031
0, 0, 72, 285.1958312988281
0, 0, 73, 325.5669250488281
0, 0, 74, 302.00732421875
0, 0, 75, 292.2933044433594
0, 0, 76, 325.6758117675781
0, 0, 77, 323.7208862304688
0, 0, 78, 309.3028564453125
0, 0, 79, 315.1630554199219
0, 0, 80, 283.6813049316406
0, 0, 81, 305.632568359375
0, 0, 82, 285.2242126464844
0, 0, 83, 297.96923828125
0, 0, 84, 301.2456970214844
0, 0, 85, 311.9353637695312
0, 0, 86, 309.635009765625
0, 0, 87, 319.569580078125
0, 0, 88, 293.3904418945312
0, 0, 89, 311.7947387695312
0, 0, 90, 304.8099670410156
0, 0, 91, 335.6864318847656
0, 0, 92, 300.3041687011719
0, 0, 93, 308.2427673339844
0, 0, 94, 308.0718383789062
0, 0, 95, 322.7984619140625
0, 0, 96, 278.9420776367188
0, 0, 97, 280.6388854980469
0, 0, 98, 295.2164611816406
0, 0, 99, 310.2478332519531
0, 0, 100, 301.5150451660156
0, 0, 101, 283.5912780761719
0, 0, 102, 309.6178588867188
0, 0, 103, 317.2402954101562
0, 0, 104, 287.5715942382812
0, 0, 105, 269.5357055664062
0, 0, 106, 262.7341918945312
0, 0, 107, 150.4745483398438
0, 0, 108, 43.66822052001953
0, 0, 109, 17.54766845703125
0, 0, 110, 16.36550521850586
0, 0, 111, 17.19537925720215
0, 0, 112, 14.77290630340576
0, 0, 113, 10.22965335845947
0, 0, 114, 10.18420886993408
0, 0, 115, 7.340692520141602
0, 0, 116, 3.774380445480347
0, 0, 117, 6.409476280212402
0, 0, 118, 5.441070079803467
0, 0, 119, 7.382319450378418
0, 0, 120, 9.407365798950195
0, 0, 121, 9.61259651184082
0, 0, 122, 5.879300117492676
0, 0, 123, 4.679911136627197
0, 0, 124, 4.017874240875244
0, 0, 125, 4.307035446166992
0, 0, 126, 3.165520668029785
0, 0, 127, 5.460308074951172
0, 1, 0, 2.257081270217896
0, 1, 1, 3.670915126800537
0, 1, 2, 5.121511459350586
0, 1, 3, 5.104807376861572
0, 1, 4, 6.495624542236328
0, 1, 5, 5.72645092010498
0, 1, 6, 5.262423992156982
0, 1, 7, 5.667169094085693
0, 1, 8, 5.278392314910889
0, 1, 9, 4.980721473693848
0, 1, 10, 7.468302249908447
0, 1, 11, 10.91639423370361
0, 1, 12, 12.68529319763184
0, 1, 13, 12.17068767547607
0, 1, 14, 13.11651706695557
0, 1, 15, 15.73862266540527
0, 1, 16, 18.63395881652832
0, 1, 17, 24.61032295227051
0, 1, 18, 32.90497589111328
0, 1, 19, 87.90768432617188
0, 1, 20, 235.474853515625
0, 1, 21, 318.6619262695312
0, 1, 22, 317.0753784179688
0, 1, 23, 331.0632629394531
0, 1, 24, 311.0426025390625
0, 1, 25, 338.3052978515625
0, 1, 26, 342.8291015625
0, 1, 27, 342.6061096191406
0, 1, 28, 380.0765380859375
0, 1, 29, 341.3315124511719
0, 1, 30, 344.1982421875
0, 1, 31, 349.1731567382812
0, 1, 32, 362.9205017089844
0, 1, 33, 346.9280395507812
0, 1, 34, 362.6241760253906
0, 1, 35, 362.4851989746094
0, 1, 36, 336.3430786132812
0, 1, 37, 330.9561157226562
0, 1, 38, 331.8432922363281
0, 1, 39, 345.9048767089844
0, 1, 40, 337.3121337890625
0, 1, 41, 334.4005126953125
0, 1, 42, 310.480712890625
0, 1, 43, 348.7712707519531
0, 1, 44, 359.2535705566406
0, 1, 45, 338.9825134277344
0, 1, 46, 355.1727294921875
0, 1, 47, 322.7207336425781
0, 1, 48, 362.3937072753906
0, 1, 49, 345.3032531738281
0, 1, 50, 359.1201782226562
0, 1, 51, 341.9095764160156
0, 1, 52, 346.9973754882812
0, 1, 53, 353.8428344726562
0, 1, 54, 342.6529235839844
0, 1, 55, 347.5828857421875
0, 1, 56, 365.7982788085938
0, 1, 57, 367.2088317871094
0, 1, 58, 337.7013244628906
0, 1, 59, 362.9966735839844
0, 1, 60, 340.5633544921875
0, 1, 61, 338.2052307128906
0, 1, 62, 340.2789001464844
0, 1, 63, 338.7626037597656
0, 1, 64, 359.473876953125
0, 1, 65, 348.2439880371094
0, 1, 66, 364.8667907714844
0, 1, 67, 342.9750366210938
0, 1, 68, 329.1747741699219
0, 1, 69, 346.3070983886719
0, 1, 70, 335.6229553222656
0, 1, 71, 320.5806884765625
0, 1, 72, 326.6841125488281
0, 1, 73, 339.5221557617188
0, 1, 74, 365.0907287597656
0, 1, 75, 350.8902587890625
0, 1, 76, 349.9228210449219
0, 1, 77, 340.7350158691406
0, 1, 78, 359.4589538574219
0, 1, 79, 345.2476501464844
0, 1, 80, 327.3951110839844
0, 1, 81, 317.064697265625
0, 1, 82, 349.2486267089844
0, 1, 83, 357.8104248046875
0, 1, 84, 334.6055603027344
0, 1, 85, 318.904541015625
0, 1, 86, 337.2415771484375
0, 1, 87, 339.12109375
0, 1, 88, 349.9300231933594
0, 1, 89, 356.8347473144531
0, 1, 90, 341.6794128417969
0, 1, 91, 336.5098571777344
0, 1, 92, 335.0299987792969
0, 1, 93, 322.830322265625
0, 1, 94, 345.9102783203125
0, 1, 95, 349.9076232910156
0, 1, 96, 351.9237060546875
0, 1, 97, 344.7380676269531
0, 1, 98, 342.8020324707031
0, 1, 99, 337.0081176757812
0, 1, 100, 349.6098327636719
0, 1, 101, 328.8477478027344
0, 1, 102, 357.297607421875
0, 1, 103, 358.5788269042969
0, 1, 104, 337.0998840332031
0, 1, 105, 355.3477172851562
0, 1, 106, 301.0520324707031
0, 1, 107, 215.7698669433594
0, 1, 108, 73.04576873779297
0, 1, 109, 24.05155372619629
0, 1, 110, 22.09942245483398
0, 1, 111, 16.3127498626709
0, 1, 112, 13.80370903015137
0, 1, 113, 12.37345409393311
0, 1, 114, 10.33009052276611
0, 1, 115, 12.20570850372314
0, 1, 116, 9.840329170227051
0, 1, 117, 8.573355674743652
0, 1, 118, 8.536417961120605
0, 1, 119, 10.72800731658936
0, 1, 120, 6.865610599517822
0, 1, 121, 8.233304023742676
0, 1, 122, 9.116206169128418
0, 1, 123, 7.341996669769287
0, 1, 124, 4.345962524414062
0, 1, 125, 3.704416036605835
0, 1, 126, 5.475014686584473
0, 1, 127, 3.629313230514526
0, 2, 0, 5.258378028869629
0, 2, 1, 7.114021778106689
0, 2, 2, 6.985621452331543
0, 2, 3, 5.05627965927124
0, 2, 4, 6.114830017089844
0, 2, 5, 4.597484111785889
0, 2, 6, 7.017879009246826
0, 2, 7, 6.178790092468262
0, 2, 8, 6.016393184661865
0, 2, 9, 9.155317306518555
0, 2, 10, 9.183979988098145
0, 2, 11, 9.559946060180664
0, 2, 12, 10.24689197540283
0, 2, 13, 13.25253677368164
0, 2, 14, 15.1550407409668
0, 2, 15, 15.55957412719727
0, 2, 16, 19.85537528991699
0, 2, 17, 25.63543128967285
0, 2, 18, 48.90482330322266
0, 2, 19, 125.1975250244141
0, 2, 20, 250.6214294433594
0, 2, 21, 324.0885009765625
0, 2, 22, 344.0333862304688
0, 2, 23, 349.1278381347656
0, 2, 24, 331.43798828125
0, 2, 25, 346.1315307617188
0, 2, 26, 336.0939025878906
0, 2, 27, 348.1155395507812
0, 2, 28, 338.2240295410156
0, 2, 29, 350.2890930175781
0, 2, 30, 368.5811157226562
0, 2, 31, 344.5817565917969
0, 2, 32, 329.8498840332031
0, 2, 33, 349.9292297363281
0, 2, 34, 355.7315979003906
0, 2, 35, 341.3680725097656
0, 2, 36, 389.7417907714844
0, 2, 37, 338.473388671875
0, 2, 38, 340.8574523925781
0, 2, 39, 339.8128967285156
0, 2, 40, 360.376953125
0, 2, 41, 346.297607421875
0, 2, 42, 351.3055725097656
0, 2, 43, 363.0933227539062
0, 2, 44, 350.17041015625
0, 2, 45, 337.8843994140625
0, 2, 46, 345.6950988769531
0, 2, 47, 362.6690063476562
0, 2, 48, 338.5574035644531
0, 2, 49, 369.5384826660156
0, 2, 50, 336.1394958496094
0, 2, 51, 321.4388122558594
0, 2, 52, 355.3414306640625
0, 2, 53, 364.3603515625
0, 2, 54, 335.9075317382812
0, 2, 55, 335.4516906738281
0, 2, 56, 342.9739685058594
0, 2, 57, 342.0176696777344
0, 2, 58, 358.35595703125
0, 2, 59, 337.0252380371094
0, 2, 60, 358.3818054199219
0, 2, 61, 352.4687194824219
0, 2, 62, 378.9445495605469
0, 2, 63, 347.1828918457031
0, 2, 64, 363.9858093261719
0, 2, 65, 343.8917236328125
0, 2, 66, 366.2673950195312
0, 2, 67, 333.9902648925781
0, 2, 68, 345.8365173339844
0, 2, 69, 331.4298400878906
0, 2, 70, 358.8038635253906
0, 2, 71, 337.6980285644531
0, 2, 72, 352.3768615722656
0, 2, 73, 329.767578125
0, 2, 74, 345.9028930664062
0, 2, 75, 330.8993835449219
0, 2, 76, 334.4388427734375
0, 2, 77, 360.8868103027344
0, 2, 78, 347.9114990234375
0, 2, 79, 367.7284240722656
0, 2, 80, 330.9569396972656
0, 2, 81, 338.156005859375
0, 2, 82, 379.163818359375
0, 2, 83, 365.2248229980469
0, 2, 84, 341.4717712402344
0, 2, 85, 328.9090270996094
0, 2, 86, 326.7167053222656
0, 2, 87, 343.0079650878906
0, 2, 88, 331.270751953125
0, 2, 89, 338.9936218261719
0, 2, 90, 375.8869323730469
0, 2, 91, 343.66552734375
0, 2, 92, 362.6561279296875
0, 2, 93, 349.5082092285156
0, 2, 94, 366.4820251464844
0, 2, 95, 345.8619079589844
0, 2, 96, 355.7035827636719
0, 2, 97, 329.9827575683594
0, 2, 98, 326.72998046875
0, 2, 99, 351.2425537109375
0, 2, 100, 342.8954467773438
0, 2, 101, 355.2668762207031
0, 2, 102, 350.2540893554688
0, 2, 103, 315.9678649902344
0, 2, 104, 340.9945678710938
0, 2, 105, 352.9134216308594
0, 2, 106, 354.1975402832031
0, 2, 107, 267.3873291015625
0, 2, 108, 141.0395355224609
0, 2, 109, 44.10295486450195
0, 2, 110, 23.14175415039062
0, 2, 111, 17.71335601806641
0, 2, 112, 22.63438034057617
0, 2, 113, 14.4168119430542
0, 2, 114, 12.87178993225098
0, 2, 115, 9.950717926025391
0, 2, 116, 7.655654907226562
0, 2, 117, 12.44599628448486
0, 2, 118, 7.794361114501953
0, 2, 119, 7.503155708312988
0, 2, 120, 6.925908088684082
0, 2, 121, 9.469876289367676
0, 2, 122, 5.240928173065186
0, 2, 123, 7.576348781585693
0, 2, 124, 7.794154644012451
0, 2, 125, 6.49232006072998
0, 2, 126, 6.44267463684082
0, 2, 127, 3.783419847488403
0, 3, 0, 5.308539867401123
0, 3, 1, 4.619434833526611
0, 3, 2, 6.936413288116455
0, 3, 3, 5.482563495635986
0, 3, 4, 6.012459754943848
0, 3, 5, 4.263818740844727
0, 3, 6, 5.730369567871094
0, 3, 7, 5.634958744049072
0, 3, 8, 6.367444515228271
0, 3, 9, 4.929245948791504
0, 3, 10, 9.905261993408203
0, 3, 11, 10.78315830230713
0, 3, 12, 11.85092639923096
0, 3, 13, 12.49165344238281
0, 3, 14, 16.1833610534668
0, 3, 15, 12.42083930969238
0, 3, 16, 25.52626609802246
0, 3, 17, 26.97174263000488
0, 3, 18, 70.46309661865234
0, 3, 19, 196.1404876708984
0, 3, 20, 312.1898803710938
0, 3, 21, 351.5169067382812
0, 3, 22, 339.7184448242188
0, 3, 23, 356.204345703125
0, 3, 24, 345.370361328125
0, 3, 25, 340.7523498535156
0, 3, 26, 345.0007934570312
0, 3, 27, 345.2503662109375
0, 3, 28, 348.0574951171875
0, 3, 29, 358.6480102539062
0, 3, 30, 383.3148193359375
0, 3, 31, 333.5032653808594
0, 3, 32, 357.6001892089844
0, 3, 33, 381.2667541503906
0, 3, 34, 339.2676086425781
0, 3, 35, 358.0886535644531
0, 3, 36, 357.3257751464844
0, 3, 37, 370.1130981445312
0, 3, 38, 377.1936950683594
0, 3, 39, 342.6496887207031
0, 3, 40, 336.9854431152344
0, 3, 41, 344.815185546875
0, 3, 42, 354.8474426269531
0, 3, 43, 344.9642333984375
0, 3, 44, 375.4953308105469
0, 3, 45, 372.6325378417969
0, 3, 46, 376.9044189453125
0, 3, 47, 361.6217651367188
0, 3, 48, 349.7365417480469
0, 3, 49, 331.7326965332031
0, 3, 50, 338.6116333007812
0, 3, 51, 353.3579711914062
0, 3, 52, 337.4416809082031
0, 3, 53, 339.033447265625
0, 3, 54, 356.7168884277344
0, 3, 55, 344.1838989257812
0, 3, 56, 346.0911560058594
0, 3, 57, 361.3776550292969
0, 3, 58, 329.1988220214844
0, 3, 59, 374.0038452148438
0, 3, 60, 366.8288879394531
0, 3, 61, 361.271240234375
0, 3, 62, 348.8639221191406
0, 3, 63, 334.17822265625
0, 3, 64, 375.4294738769531
0, 3, 65, 355.9820251464844
0, 3, 66, 367.9681091308594
0, 3, 67, 356.5291442871094
0, 3, 68, 363.1661376953125
0, 3, 69, 382.2870178222656
0, 3, 70, 363.3386535644531
0, 3, 71, 336.2288818359375
0, 3, 72, 338.7532348632812
0, 3, 73, 367.4947814941406
0, 3, 74, 350.2010192871094
0, 3, 75, 377.353271484375
0, 3, 76, 356.7159423828125
0, 3, 77, 353.2409973144531
0, 3, 78, 368.494384765625
0, 3, 79, 325.1094665527344
0, 3, 80, 342.1558227539062
0, 3, 81, 356.7040100097656
0, 3, 82, 354.9428405761719
0, 3, 83, 374.8088684082031
0, 3, 84, 355.9843444824219
0, 3, 85, 351.2648315429688
0, 3, 86, 359.3742065429688
0, 3, 87, 351.2840881347656
0, 3, 88, 336.85888671875
0, 3, 89, 353.6781616210938
0, 3, 90, 331.4078369140625
0, 3, 91, 343.5195617675781
0, 3, 92, 375.1888122558594
0, 3, 93, 364.4138793945312
0, 3, 94, 350.1096801757812
0, 3, 95, 356.001708984375
0, 3, 96, 349.4322204589844
0, 3, 97, 325.1918029785156
0, 3, 98, 325.2503356933594
0, 3, 99, 342.3816223144531
0, 3, 100, 344.930419921875
0, 3, 101, 353.0274658203125
0, 3, 102, 327.3021545410156
0, 3, 103, 375.0924682617188
0, 3, 104, 357.1528015136719
0, 3, 105, 345.4039611816406
0, 3, 106, 314.7982482910156
0, 3, 107, 298.4021301269531
0, 3, 108, 187.7049865722656
0, 3, 109, 65.23907470703125
0, 3, 110, 29.21715354919434
0, 3, 111, 21.67634391784668
0, 3, 112, 16.92899322509766
0, 3, 113, 19.68371391296387
0, 3, 114, 16.46116638183594
0, 3, 115, 8.124454498291016
0, 3, 116, 13.59752559661865
0, 3, 117, 10.76580142974854
0, 3, 118, 8.675117492675781
0, 3, 119, 8.219148635864258
0, 3, 120, 7.372704982757568
0, 3, 121, 8.666543006896973
0, 3, 122, 7.752211093902588
0, 3, 123, 5.805149555206299
0, 3, 124, 5.269880294799805
0, 3, 125, 4.83076000213623
0, 3, 126, 5.084624290466309
0, 3, 127, 4.235928535461426
0, 4, 0, 8.119946479797363
0, 4, 1, 5.4364013671875
0, 4, 2, 5.370638847351074
0, 4, 3, 4.063462734222412
0, 4, 4, 5.741193294525146
0, 4, 5, 4.297770500183105
0, 4, 6, 5.321197986602783
0, 4, 7, 8.050498962402344
0, 4, 8, 8.987567901611328
0, 4, 9, 10.41273498535156
0, 4, 10, 7.750916957855225
0, 4, 11, 9.769389152526855
0, 4, 12, 10.34822750091553
0, 4, 13, 12.17806243896484
0, 4, 14, 16.37328338623047
0, 4, 15, 27.12861633300781
0, 4, 16, 22.14687156677246
0, 4, 17, 29.24773979187012
0, 4, 18, 103.8819808959961
0, 4, 19, 251.3938293457031
0, 4, 20, 346.9495239257812
0, 4, 21, 344.7957458496094
0, 4, 22, 334.871826171875
0, 4, 23, 345.3033752441406
0, 4, 24, 335.3464660644531
0, 4, 25, 327.2243041992188
0, 4, 26, 319.0351257324219
0, 4, 27, 331.9600219726562
0, 4, 28, 354.298583984375
0, 4, 29, 371.98046875
0, 4, 30, 354.4205017089844
0, 4, 31, 360.7444763183594
0, 4, 32, 365.6624145507812
0, 4, 33, 365.7368469238281
0, 4, 34, 364.8695068359375
0, 4, 35, 355.9061279296875
0, 4, 36, 329.7289123535156
0, 4, 37, 381.3009338378906
0, 4, 38, 373.6220703125
0, 4, 39, 364.9701843261719
0, 4, 40, 328.9821166992188
0, 4, 41, 342.3163757324219
0, 4, 42, 343.9276123046875
0, 4, 43, 359.2033081054688
0, 4, 44, 371.7787170410156
0, 4, 45, 375.6803894042969
0, 4, 46, 367.3490600585938
0, 4, 47, 348.5714721679688
0, 4, 48, 369.790771484375
0, 4, 49, 389.9591674804688
0, 4, 50, 386.5130615234375
0, 4, 51, 351.591796875
0, 4, 52, 356.3161926269531
0, 4, 53, 347.759521484375
0, 4, 54, 349.4780578613281
0, 4, 55, 340.2777099609375
0, 4, 56, 376.4101257324219
0, 4, 57, 344.9756469726562
0, 4, 58, 359.9877014160156
0, 4, 59, 344.9462585449219
0, 4, 60, 355.7325134277344
0, 4, 61, 362.6756286621094
0, 4, 62, 367.0633544921875
0, 4, 63, 351.4537353515625
0, 4, 64, 364.448486328125
0, 4, 65, 344.0074462890625
0, 4, 66, 337.4732055664062
0, 4, 67, 374.0799865722656
0, 4, 68, 389.3415222167969
0, 4, 69, 344.9039916992188
0, 4, 70, 354.863525390625
0, 4, 71, 380.529541015625
0, 4, 72, 348.4362182617188
0, 4, 73, 371.9105834960938
0, 4, 74, 312.5025024414062
0, 4, 75, 354.0452270507812
0, 4, 76, 353.202392578125
0, 4, 77, 354.8941650390625
0, 4, 78, 359.6647033691406
0, 4, 79, 357.5184936523438
0, 4, 80, 358.1661376953125
0, 4, 81, 363.2066955566406
0, 4, 82, 336.9919738769531
0, 4, 83, 361.1946105957031
0, 4, 84, 358.5167236328125
0, 4, 85, 359.2945861816406
0, 4, 86, 354.9978332519531
0, 4, 87, 381.2280883789062
0, 4, 88, 355.8768310546875
0, 4, 89, 368.3065490722656
0, 4, 90, 346.5371398925781
0, 4, 91, 328.5477294921875
0, 4, 92, 366.293701171875
0, 4, 93, 356.3679809570312
0, 4, 94, 347.0691223144531
0, 4, 95, 361.4609069824219
0, 4, 96, 377.2401428222656
0, 4, 97, 337.8587341308594
0, 4, 98, 352.9854431152344
0, 4, 99, 327.4656066894531
0, 4, 100, 345.62548828125
0, 4, 101, 355.9946899414062
0, 4, 102, 371.9345092773438
0, 4, 103, 352.6398010253906
0, 4, 104, 352.56396484375
0, 4, 105, 335.7159423828125
0, 4, 106, 337.9549255371094
0, 4, 107, 326.6419982910156
0, 4, 108, 239.4451751708984
0, 4, 109, 101.6342391967773
0, 4, 110, 40.77809143066406
0, 4, 111, 20.36264801025391
0, 4, 112, 19.37978553771973
0, 4, 113, 15.11006259918213
0, 4, 114, 14.2644214630127
0, 4, 115, 13.67923641204834
0, 4, 116, 9.972525596618652
0, 4, 117, 13.13520526885986
0, 4, 118, 9.904695510864258
0, 4, 119, 7.015022754669189
0, 4, 120, 9.321324348449707
0, 4, 121, 3.16065788269043
0, 4, 122, 4.268714904785156
0, 4, 123, 9.506722450256348
0, 4, 124, 7.212520599365234
0, 4, 125, 7.890666961669922
0, 4, 126, 4.796072006225586
0, 4, 127, 3.805922985076904
0, 5, 0, 4.256312847137451
0, 5, 1, 3.339530229568481
0, 5, 2, 6.497181415557861
0, 5, 3, 6.999924182891846
0, 5, 4, 5.338790893554688
0, 5, 5, 10.86144065856934
0, 5, 6, 6.434049129486084
0, 5, 7, 7.132852077484131
0, 5, 8, 8.843533515930176
0, 5, 9, 9.564493179321289
0, 5, 10, 11.29001617431641
0, 5, 11, 12.47770881652832
0, 5, 12, 11.70104503631592
0, 5, 13, 14.10916328430176
0, 5, 14, 16.20476341247559
0, 5, 15, 25.18048477172852
0, 5, 16, 27.36231994628906
0, 5, 17, 55.23692321777344
0, 5, 18, 136.8027648925781
0, 5, 19, 302.010498046875
0, 5, 20, 329.8939819335938
0, 5, 21, 314.6965026855469
0, 5, 22, 369.128662109375
0, 5, 23, 366.943359375
0, 5, 24, 356.4923706054688
0, 5, 25, 359.9125671386719
0, 5, 26, 352.7547302246094
0, 5, 27, 377.2093505859375
0, 5, 28, 357.2856750488281
0, 5, 29, 371.8480529785156
0, 5, 30, 361.0039367675781
0, 5, 31, 356.177001953125
0, 5, 32, 348.4130859375
0, 5, 33, 362.9646606445312
0, 5, 34, 359.0108947753906
0, 5, 35, 396.0818481445312
0, 5, 36, 339.4949951171875
0, 5, 37, 358.7104187011719
0, 5, 38, 333.7353820800781
0, 5, 39, 381.3070983886719
0, 5, 40, 360.4586486816406
0, 5, 41, 351.3118286132812
0, 5, 42, 390.8375549316406
0, 5, 43, 351.9087829589844
0, 5, 44, 360.07958984375
0, 5, 45, 338.1144409179688
0, 5, 46, 346.9822387695312
0, 5, 47, 347.0599365234375
0, 5, 48, 364.9273681640625
0, 5, 49, 346.8097229003906
0, 5, 50, 345.5838623046875
0, 5, 51, 384.9246520996094
0, 5, 52, 361.1227722167969
0, 5, 53, 385.0824890136719
0, 5, 54, 366.0684204101562
0, 5, 55, 360.2284851074219
0, 5, 56, 379.3806762695312
0, 5, 57, 350.1668090820312
0, 5, 58, 362.715087890625
0, 5, 59, 350.095703125
0, 5, 60, 374.3553771972656
0, 5, 61, 363.1878356933594
0, 5, 62, 336.3656616210938
0, 5, 63, 333.8047790527344
0, 5, 64, 396.6793212890625
0, 5, 65, 370.12109375
0, 5, 66, 343.4122924804688
0, 5, 67, 355.8221130371094
0, 5, 68, 329.6836242675781
0, 5, 69, 377.8397521972656
0, 5, 70, 401.40869140625
0, 5, 71, 375.4667053222656
0, 5, 72, 380.6887512207031
0, 5, 73, 359.3801879882812
0, 5, 74, 363.5709838867188
0, 5, 75, 357.0895080566406
0, 5, 76, 340.4696655273438
0, 5, 77, 336.1542663574219
0, 5, 78, 376.6953125
0, 5, 79, 374.7951354980469
0, 5, 80, 388.4057312011719
0, 5, 81, 382.6233520507812
0, 5, 82, 357.2706604003906
0, 5, 83, 335.4589538574219
0, 5, 84, 372.66455078125
0, 5, 85, 335.233642578125
0, 5, 86, 348.2153015136719
0, 5, 87, 373.3562316894531
0, 5, 88, 356.903076171875
0, 5, 89, 395.29052734375
0, 5, 90, 392.1598510742188
0, 5, 91, 379.6678161621094
0, 5, 92, 368.1455383300781
0, 5, 93, 380.5285034179688
0, 5, 94, 354.3838500976562
0, 5, 95, 336.3467407226562
0, 5, 96, 379.1817016601562
0, 5, 97, 335.6285095214844
0, 5, 98, 360.6232299804688
0, 5, 99, 357.2696533203125
0, 5, 100, 338.0151672363281
0, 5, 101, 341.9161987304688
0, 5, 102, 326.4744567871094
0, 5, 103, 352.5623474121094
0, 5, 104, 371.6952514648438
0, 5, 105, 347.0765075683594
0, 5, 106, 365.0262451171875
0, 5, 107, 360.8454895019531
0, 5, 108, 302.5527954101562
0, 5, 109, 146.1825714111328
0, 5, 110, 54.94538879394531
0, 5, 111, 28.42843437194824
0, 5, 112, 21.98403167724609
0, 5, 113, 21.56318092346191
0, 5, 114, 14.02786922454834
0, 5, 115, 11.63912105560303
0, 5, 116, 11.45219898223877
0, 5, 117, 11.92861557006836
0, 5, 118, 13.00275707244873
0, 5, 119, 10.33557891845703
0, 5, 120, 7.607357025146484
0, 5, 121, 3.936679124832153
0, 5, 122, 9.138870239257812
0, 5, 123, 8.657386779785156
0, 5, 124, 6.816727638244629
0, 5, 125, 6.060455799102783
0, 5, 126, 7.02544641494751
0, 5, 127, 5.458983898162842
0, 6, 0, 4.143869400024414
0, 6, 1, 5.90644645690918
0, 6, 2, 8.766343116760254
0, 6, 3, 6.303275585174561
0, 6, 4, 6.4585862159729
0, 6, 5, 7.162391185760498
0, 6, 6, 7.76755952835083
0, 6, 7, 6.829880714416504
0, 6, 8, 9.380764007568359
0, 6, 9, 9.746017456054688
0, 6, 10, 9.007425308227539
0, 6, 11, 15.25016403198242
0, 6, 12, 13.5041389465332
0, 6, 13, 14.42481517791748
0, 6, 14, 18.85846328735352
0, 6, 15, 20.3658561706543
0, 6, 16, 23.11124992370605
0, 6, 17, 66.58382415771484
0, 6, 18, 176.8321685791016
0, 6, 19, 316.6915893554688
0, 6, 20, 345.7640075683594
0, 6, 21, 362.0277099609375
0, 6, 22, 317.3836364746094
0, 6, 23, 366.2446594238281
0, 6, 24, 362.6213684082031
0, 6, 25, 380.1081237792969
0, 6, 26, 348.8286437988281
0, 6, 27, 375.7698059082031
0, 6, 28, 363.7192077636719
0, 6, 29, 386.8641357421875
0, 6, 30, 335.510009765625
0, 6, 31, 351.169677734375
0, 6, 32, 361.8143005371094
0, 6, 33, 319.1701049804688
0, 6, 34, 365.5578308105469
0, 6, 35, 375.3485107421875
0, 6, 36, 342.1266784667969
0, 6, 37, 344.0319519042969
0, 6, 38, 351.524169921875
0, 6, 39, 375.876953125
0, 6, 40, 353.4529418945312
0, 6, 41, 345.2381286621094
0, 6, 42, 341.3025207519531
0, 6, 43, 343.9597778320312
0, 6, 44, 376.23095703125
0, 6, 45, 339.99365234375
0, 6, 46, 343.853759765625
0, 6, 47, 365.3046875
0, 6, 48, 346.7232666015625
0, 6, 49, 320.8621826171875
0, 6, 50, 359.1995239257812
0, 6, 51, 344.3487548828125
0, 6, 52, 326.9918823242188
0, 6, 53, 376.9316711425781
0, 6, 54, 355.3288269042969
0, 6, 55, 392.28466796875
0, 6, 56, 361.9652404785156
0, 6, 57, 364.5164184570312
0, 6, 58, 359.1731262207031
0, 6, 59, 350.5694885253906
0, 6, 60, 390.8643798828125
0, 6, 61, 377.0454406738281
0, 6, 62, 357.6581115722656
0, 6, 63, 332.7291870117188
0, 6, 64, 357.7427978515625
0, 6, 65, 367.438720703125
0, 6, 66, 360.6732177734375
0, 6, 67, 402.3986511230469
0, 6, 68, 362.1427001953125
0, 6, 69, 340.2559204101562
0, 6, 70, 350.1219482421875
0, 6, 71, 359.2084045410156
0, 6, 72, 342.2468872070312
0, 6, 73, 357.0996704101562
0, 6, 74, 349.8664245605469
0, 6, 75, 373.9623718261719
0, 6, 76, 351.9228515625
0, 6, 77, 334.0835876464844
0, 6, 78, 360.1709594726562
0, 6, 79, 339.2702331542969
0, 6, 80, 354.9127197265625
0, 6, 81, 366.9346618652344
0, 6, 82, 369.2953186035156
0, 6, 83, 370.0349426269531
0, 6, 84, 368.1483764648438
0, 6, 85, 317.98779296875
0, 6, 86, 396.0215454101562
0, 6, 87, 340.6415710449219
0, 6, 88, 360.5737915039062
0, 6, 89, 380.1375732421875
0, 6, 90, 357.9273376464844
0, 6, 91, 361.0193176269531
0, 6, 92, 350.5140075683594
0, 6, 93, 351.4258117675781
0, 6, 94, 378.5300903320312
0, 6, 95, 344.3432312011719
0, 6, 96, 387.8266906738281
0, 6, 97, 379.298828125
0, 6, 98, 343.3561706542969
0, 6, 99, 386.3103332519531
0, 6, 100, 374.1881408691406
0, 6, 101, 357.7410888671875
0, 6, 102, 375.1444396972656
0, 6, 103, 334.6239624023438
0, 6, 104, 340.6582336425781
0, 6, 105, 363.44873046875
0, 6, 106, 347.7449340820312
0, 6, 107, 325.8176879882812
0, 6, 108, 329.287841796875
0, 6, 109, 217.7830810546875
0, 6, 110, 69.86557769775391
0, 6, 111, 26.46360397338867
0, 6, 112, 26.78527069091797
0, 6, 113, 18.68950271606445
0, 6, 114, 17.58198356628418
0, 6, 115, 15.98444747924805
0, 6, 116, 14.7134428024292
0, 6, 117, 11.07190704345703
0, 6, 118, 10.34105110168457
0, 6, 119, 7.756487369537354
0, 6, 120, 8.468095779418945
0, 6, 121, 6.921147346496582
0, 6, 122, 8.003127098083496
0, 6, 123, 7.597816944122314
0, 6, 124, 7.502339839935303
0, 6, 125, 5.251609802246094
0, 6, 126, 5.196560859680176
0, 6, 127, 3.398452520370483
0, 7, 0, 6.405388355255127
0, 7, 1, 6.674997329711914
0, 7, 2, 6.262142658233643
0, 7, 3, 6.347849369049072
0, 7, 4, 5.3469557762146
0, 7, 5, 5.797818660736084
0, 7, 6, 8.407959938049316
0, 7, 7, 9.144479751586914
0, 7, 8, 11.83621406555176
0, 7, 9, 10.98733997344971
0, 7, 10, 11.85458278656006
0, 7, 11, 14.04861354827881
0, 7, 12, 13.27384853363037
0, 7, 13, 22.50722885131836
0, 7, 14, 17.9842472076416
0, 7, 15, 27.05319976806641
0, 7, 16, 35.91941070556641
0, 7, 17, 94.85015106201172
0, 7, 18, 232.4345092773438
0, 7, 19, 370.5207824707031
0, 7, 20, 362.190673828125
0, 7, 21, 333.5681457519531
0, 7, 22, 362.6300048828125
0, 7, 23, 342.26416015625
0, 7, 24, 354.3900146484375
0, 7, 25, 380.333251953125
0, 7, 26, 358.5650634765625
0, 7, 27, 364.7601928710938
0, 7, 28, 370.3340148925781
0, 7, 29, 377.3204650878906
0, 7, 30, 360.3846435546875
0, 7, 31, 350.28271484375
0, 7, 32, 357.1294250488281
0, 7, 33, 353.8424682617188
0, 7, 34, 361.223388671875
0, 7, 35, 330.21826171875
0, 7, 36, 350.838623046875
0, 7, 37, 371.5421142578125
0, 7, 38, 361.0845031738281
0, 7, 39, 348.8344421386719
0, 7, 40, 334.4833374023438
0, 7, 41, 369.5195922851562
0, 7, 42, 341.5469055175781
0, 7, 43, 350.3765869140625
0, 7, 44, 361.4317016601562
0, 7, 45, 362.8825378417969
0, 7, 46, 341.5049133300781
0, 7, 47, 389.6362609863281
0, 7, 48, 338.3139953613281
0, 7, 49, 355.01806640625
0, 7, 50, 351.0064086914062
0, 7, 51, 355.8666687011719
0, 7, 52, 356.4519958496094
0, 7, 53, 373.6413879394531
0, 7, 54, 330.616943359375
0, 7, 55, 353.537841796875
0, 7, 56, 341.22314453125
0, 7, 57, 353.6305541992188
0, 7, 58, 354.6442565917969
0, 7, 59, 352.0277404785156
0, 7, 60, 369.8514099121094
0, 7, 61, 348.8896179199219
0, 7, 62, 389.4354248046875
0, 7, 63, 351.0250549316406
0, 7, 64, 339.5527038574219
0, 7, 65, 387.0603332519531
0, 7, 66, 380.869873046875
0, 7, 67, 383.5187683105469
0, 7, 68, 360.7197265625
0, 7, 69, 339.1427917480469
0, 7, 70, 368.2306213378906
0, 7, 71, 346.7610473632812
0, 7, 72, 351.1948852539062
0, 7, 73, 351.550048828125
0, 7, 74, 382.435302734375
0, 7, 75, 405.4519653320312
0, 7, 76, 387.3538208007812
0, 7, 77, 362.6197204589844
0, 7, 78, 329.7232055664062
0, 7, 79, 362.3179321289062
0, 7, 80, 359.9492797851562
0, 7, 81, 376.2380981445312
0, 7, 82, 350.4855651855469
0, 7, 83, 373.153564453125
0, 7, 84, 358.677978515625
0, 7, 85, 337.7243347167969
0, 7, 86, 358.2408447265625
0, 7, 87, 340.2159118652344
0, 7, 88, 379.7740173339844
0, 7, 89, 357.8242492675781
0, 7, 90, 412.9895629882812
0, 7, 91, 366.9845581054688
0, 7, 92, 337.0436096191406
0, 7, 93, 388.25244140625
0, 7, 94, 354.2887268066406
0, 7, 95, 339.7764282226562
0, 7, 96, 379.3650207519531
0, 7, 97, 367.9531860351562
0, 7, 98, 384.5671691894531
0, 7, 99, 362.4176635742188
0, 7, 100, 347.6420288085938
0, 7, 101, 351.6295166015625
0, 7, 102, 373.5329895019531
0, 7, 103, 351.3474426269531
0, 7, 104, 339.3233337402344
0, 7, 105, 355.9579772949219
0, 7, 106, 347.2059020996094
0, 7, 107, 340.3369445800781
0, 7, 108, 328.466796875
0, 7, 109, 240.9778442382812
0, 7, 110, 110.5818252563477
0, 7, 111, 33.50989532470703
0, 7, 112, 27.60153770446777
0, 7, 113, 21.67705345153809
0, 7, 114, 20.95963859558105
0, 7, 115, 14.20339965820312
0, 7, 116, 14.67673587799072
0, 7, 117, 16.15488433837891
0, 7, 118, 11.87667083740234
0, 7, 119, 9.044398307800293
0, 7, 120, 7.146927356719971
0, 7, 121, 9.509474754333496
0, 7, 122, 11.97631359100342
0, 7, 123, 5.112110137939453
0, 7, 124, 6.334870338439941
0, 7, 125, 7.627563953399658
0, 7, 126, 5.115642547607422
0, 7, 127, 4.727085590362549
0, 8, 0, 6.11836576461792
0, 8, 1, 5.57421875
0, 8, 2, 10.36904335021973
0, 8, 3, 7.481210231781006
0, 8, 4, 8.999433517456055
0, 8, 5, 8.209124565124512
0, 8, 6, 10.25663566589355
0, 8, 7, 8.590828895568848
0, 8, 8, 8.764598846435547
0, 8, 9, 13.3671875
0, 8, 10, 12.36234474182129
0, 8, 11, 12.42190170288086
0, 8, 12, 14.33241176605225
0, 8, 13, 15.7540111541748
0, 8, 14, 22.89431762695312
0, 8, 15, 25.93947601318359
0, 8, 16, 48.91868209838867
0, 8, 17, 142.2301940917969
0, 8, 18, 276.3071899414062
0, 8, 19, 331.43896484375
0, 8, 20, 344.49755859375
0, 8, 21, 341.4460144042969
0, 8, 22, 363.3512573242188
0, 8, 23, 340.6625366210938
0, 8, 24, 347.2696838378906
0, 8, 25, 353.0197143554688
0, 8, 26, 343.1910400390625
0, 8, 27, 362.7534790039062
0, 8, 28, 356.9934387207031
0, 8, 29, 381.1756591796875
0, 8, 30, 365.8080749511719
0, 8, 31, 337.5519714355469
0, 8, 32, 384.4277038574219
0, 8, 33, 336.0192565917969
0, 8, 34, 371.222900390625
0, 8, 35, 366.1328430175781
0, 8, 36, 346.3250427246094
0, 8, 37, 380.365478515625
0, 8, 38, 385.2312927246094
0, 8, 39, 345.7835998535156
0, 8, 40, 359.6687622070312
0, 8, 41, 363.8575744628906
