# TOPAS Version: 3.1.p3
# Parameter File: batch_inserts_162.txt
# Results for scorer Readout_Adipose
# Scored in component: MyBox
# X in 1 bin  of 0.65 cm
# Y in 512 bins of 0.0783984 cm
# Z in 128 bins of 0.078125 cm
# EnergyDeposit ( MeV ) : Sum   
0, 0, 0, 2.685981035232544
0, 0, 1, 6.316330432891846
0, 0, 2, 1.095404863357544
0, 0, 3, 0.5430304408073425
0, 0, 4, 0.967198371887207
0, 0, 5, 1.01905882358551
0, 0, 6, 1.45395815372467
0, 0, 7, 1.849935531616211
0, 0, 8, 2.181299686431885
0, 0, 9, 3.99039626121521
0, 0, 10, 2.967340707778931
0, 0, 11, 3.805180788040161
0, 0, 12, 3.847029685974121
0, 0, 13, 2.461551427841187
0, 0, 14, 5.785513877868652
0, 0, 15, 5.871370792388916
0, 0, 16, 4.139002799987793
0, 0, 17, 7.13223123550415
0, 0, 18, 7.575170516967773
0, 0, 19, 24.14416122436523
0, 0, 20, 94.05463409423828
0, 0, 21, 152.0478210449219
0, 0, 22, 155.5741271972656
0, 0, 23, 144.9995880126953
0, 0, 24, 159.8965301513672
0, 0, 25, 167.2692718505859
0, 0, 26, 166.6651916503906
0, 0, 27, 173.9215087890625
0, 0, 28, 177.7498474121094
0, 0, 29, 175.900146484375
0, 0, 30, 173.0321044921875
0, 0, 31, 167.1436004638672
0, 0, 32, 165.2095794677734
0, 0, 33, 167.5448913574219
0, 0, 34, 177.0245666503906
0, 0, 35, 173.4315948486328
0, 0, 36, 158.9919586181641
0, 0, 37, 162.0626831054688
0, 0, 38, 167.3167877197266
0, 0, 39, 159.6854095458984
0, 0, 40, 165.0071563720703
0, 0, 41, 165.5966644287109
0, 0, 42, 143.4897613525391
0, 0, 43, 167.6468200683594
0, 0, 44, 177.2434692382812
0, 0, 45, 172.7966918945312
0, 0, 46, 165.4637451171875
0, 0, 47, 167.7629089355469
0, 0, 48, 168.7590942382812
0, 0, 49, 182.7371826171875
0, 0, 50, 169.6980438232422
0, 0, 51, 162.7878723144531
0, 0, 52, 162.1103515625
0, 0, 53, 171.6090240478516
0, 0, 54, 160.7490539550781
0, 0, 55, 166.3905181884766
0, 0, 56, 189.9849548339844
0, 0, 57, 171.5062255859375
0, 0, 58, 160.9842376708984
0, 0, 59, 172.7126922607422
0, 0, 60, 169.4907836914062
0, 0, 61, 171.2861480712891
0, 0, 62, 183.0853424072266
0, 0, 63, 166.4618835449219
0, 0, 64, 163.6348724365234
0, 0, 65, 174.5940856933594
0, 0, 66, 177.4985198974609
0, 0, 67, 163.7141265869141
0, 0, 68, 158.8229217529297
0, 0, 69, 159.1798858642578
0, 0, 70, 170.179443359375
0, 0, 71, 158.1278991699219
0, 0, 72, 161.8190460205078
0, 0, 73, 171.9363403320312
0, 0, 74, 162.9144744873047
0, 0, 75, 164.2919464111328
0, 0, 76, 162.8777313232422
0, 0, 77, 171.9751892089844
0, 0, 78, 183.0245361328125
0, 0, 79, 175.7165679931641
0, 0, 80, 159.6869659423828
0, 0, 81, 160.2071990966797
0, 0, 82, 182.2168579101562
0, 0, 83, 173.6669158935547
0, 0, 84, 159.6977691650391
0, 0, 85, 180.6032257080078
0, 0, 86, 158.367919921875
0, 0, 87, 176.83935546875
0, 0, 88, 175.9983673095703
0, 0, 89, 174.1189117431641
0, 0, 90, 161.9676818847656
0, 0, 91, 187.667236328125
0, 0, 92, 164.3649444580078
0, 0, 93, 155.4528350830078
0, 0, 94, 170.1562957763672
0, 0, 95, 173.5812072753906
0, 0, 96, 183.5189361572266
0, 0, 97, 183.6337585449219
0, 0, 98, 185.3712005615234
0, 0, 99, 171.8046417236328
0, 0, 100, 157.9093017578125
0, 0, 101, 166.3404388427734
0, 0, 102, 171.0736083984375
0, 0, 103, 170.3763580322266
0, 0, 104, 168.3573455810547
0, 0, 105, 178.2461700439453
0, 0, 106, 158.8276672363281
0, 0, 107, 86.39789581298828
0, 0, 108, 22.13171768188477
0, 0, 109, 10.64128017425537
0, 0, 110, 6.465873718261719
0, 0, 111, 6.085770130157471
0, 0, 112, 4.014324188232422
0, 0, 113, 2.668601989746094
0, 0, 114, 2.506717443466187
0, 0, 115, 3.689429998397827
0, 0, 116, 2.368661880493164
0, 0, 117, 3.983027696609497
0, 0, 118, 4.772273063659668
0, 0, 119, 2.441749334335327
0, 0, 120, 1.762845277786255
0, 0, 121, 3.935434818267822
0, 0, 122, 4.093807220458984
0, 0, 123, 3.306061506271362
0, 0, 124, 2.112611055374146
0, 0, 125, 2.981968402862549
0, 0, 126, 4.020514011383057
0, 0, 127, 1.797492623329163
0, 1, 0, 1.37756884098053
0, 1, 1, 4.127369403839111
0, 1, 2, 3.993278503417969
0, 1, 3, 1.812273263931274
0, 1, 4, 0.4856585562229156
0, 1, 5, 1.306076407432556
0, 1, 6, 1.695966362953186
0, 1, 7, 2.253408908843994
0, 1, 8, 1.23760449886322
0, 1, 9, 1.656266331672668
0, 1, 10, 3.591589450836182
0, 1, 11, 4.138357639312744
0, 1, 12, 3.095827579498291
0, 1, 13, 4.362746238708496
0, 1, 14, 6.954988956451416
0, 1, 15, 6.589310646057129
0, 1, 16, 8.354988098144531
0, 1, 17, 4.846859455108643
0, 1, 18, 10.48826885223389
0, 1, 19, 39.38223648071289
0, 1, 20, 126.2587051391602
0, 1, 21, 177.9190368652344
0, 1, 22, 192.5987091064453
0, 1, 23, 187.0949401855469
0, 1, 24, 179.6085662841797
0, 1, 25, 191.5397186279297
0, 1, 26, 197.606689453125
0, 1, 27, 186.3590087890625
0, 1, 28, 188.7156372070312
0, 1, 29, 183.9211730957031
0, 1, 30, 180.0489654541016
0, 1, 31, 181.7528839111328
0, 1, 32, 188.1656951904297
0, 1, 33, 190.3705749511719
0, 1, 34, 185.8456573486328
0, 1, 35, 194.8857269287109
0, 1, 36, 206.4903869628906
0, 1, 37, 183.6549072265625
0, 1, 38, 165.6102142333984
0, 1, 39, 171.3079833984375
0, 1, 40, 178.5935363769531
0, 1, 41, 185.1921234130859
0, 1, 42, 181.9922637939453
0, 1, 43, 185.4104461669922
0, 1, 44, 167.4566802978516
0, 1, 45, 186.6770172119141
0, 1, 46, 171.1097717285156
0, 1, 47, 186.8549499511719
0, 1, 48, 187.2027130126953
0, 1, 49, 186.1565704345703
0, 1, 50, 178.8320159912109
0, 1, 51, 190.2377777099609
0, 1, 52, 197.023193359375
0, 1, 53, 196.0548400878906
0, 1, 54, 184.8302154541016
0, 1, 55, 166.1341552734375
0, 1, 56, 179.2520904541016
0, 1, 57, 177.8986511230469
0, 1, 58, 188.5428771972656
0, 1, 59, 193.1448669433594
0, 1, 60, 187.7445068359375
0, 1, 61, 177.8009948730469
0, 1, 62, 206.6127166748047
0, 1, 63, 173.9971923828125
0, 1, 64, 172.1701049804688
0, 1, 65, 184.7766571044922
0, 1, 66, 204.2828521728516
0, 1, 67, 182.369873046875
0, 1, 68, 186.7757415771484
0, 1, 69, 188.8217163085938
0, 1, 70, 185.30322265625
0, 1, 71, 171.5701141357422
0, 1, 72, 189.8352661132812
0, 1, 73, 190.7224426269531
0, 1, 74, 202.2858276367188
0, 1, 75, 185.6618957519531
0, 1, 76, 175.9310607910156
0, 1, 77, 191.4970092773438
0, 1, 78, 187.922119140625
0, 1, 79, 202.2848968505859
0, 1, 80, 187.8044586181641
0, 1, 81, 175.1344146728516
0, 1, 82, 210.6539916992188
0, 1, 83, 212.0583953857422
0, 1, 84, 180.5507659912109
0, 1, 85, 170.2704467773438
0, 1, 86, 168.5052337646484
0, 1, 87, 184.9740295410156
0, 1, 88, 176.1345520019531
0, 1, 89, 187.5029144287109
0, 1, 90, 212.1734466552734
0, 1, 91, 181.4606323242188
0, 1, 92, 184.8751831054688
0, 1, 93, 180.4423675537109
0, 1, 94, 184.9268341064453
0, 1, 95, 184.4248504638672
0, 1, 96, 196.045166015625
0, 1, 97, 183.0232696533203
0, 1, 98, 188.1790771484375
0, 1, 99, 175.7729187011719
0, 1, 100, 170.8609771728516
0, 1, 101, 177.9660339355469
0, 1, 102, 181.6098327636719
0, 1, 103, 173.4132232666016
0, 1, 104, 189.2965850830078
0, 1, 105, 180.7757415771484
0, 1, 106, 162.9713592529297
0, 1, 107, 123.5355224609375
0, 1, 108, 46.75647735595703
0, 1, 109, 10.24951362609863
0, 1, 110, 6.841701030731201
0, 1, 111, 6.691703796386719
0, 1, 112, 6.524962902069092
0, 1, 113, 6.843916893005371
0, 1, 114, 8.963857650756836
0, 1, 115, 4.266009330749512
0, 1, 116, 4.170182228088379
0, 1, 117, 3.610418558120728
0, 1, 118, 3.688130140304565
0, 1, 119, 1.422876954078674
0, 1, 120, 3.409423112869263
0, 1, 121, 3.223034858703613
0, 1, 122, 3.016630887985229
0, 1, 123, 2.300779342651367
0, 1, 124, 2.8914794921875
0, 1, 125, 2.881068706512451
0, 1, 126, 1.547919154167175
0, 1, 127, 2.732759475708008
0, 2, 0, 1.486869931221008
0, 2, 1, 2.499663591384888
0, 2, 2, 3.575305223464966
0, 2, 3, 1.646041870117188
0, 2, 4, 2.039420366287231
0, 2, 5, 1.595866799354553
0, 2, 6, 2.864624500274658
0, 2, 7, 1.810930967330933
0, 2, 8, 0.9613897800445557
0, 2, 9, 2.382106781005859
0, 2, 10, 5.239307403564453
0, 2, 11, 4.051175117492676
0, 2, 12, 4.236976623535156
0, 2, 13, 5.097240447998047
0, 2, 14, 3.993594884872437
0, 2, 15, 5.225333690643311
0, 2, 16, 4.953205585479736
0, 2, 17, 9.260512351989746
0, 2, 18, 15.28547191619873
0, 2, 19, 76.97487640380859
0, 2, 20, 161.4476776123047
0, 2, 21, 183.4762420654297
0, 2, 22, 193.922607421875
0, 2, 23, 183.696533203125
0, 2, 24, 172.8988647460938
0, 2, 25, 183.8347015380859
0, 2, 26, 179.1571807861328
0, 2, 27, 190.4453125
0, 2, 28, 171.2850799560547
0, 2, 29, 169.9553070068359
0, 2, 30, 186.9443206787109
0, 2, 31, 182.7851257324219
0, 2, 32, 183.3748168945312
0, 2, 33, 190.4034271240234
0, 2, 34, 198.3784484863281
0, 2, 35, 183.9877166748047
0, 2, 36, 186.4212799072266
0, 2, 37, 180.9969787597656
0, 2, 38, 184.0704498291016
0, 2, 39, 165.7216949462891
0, 2, 40, 184.5703887939453
0, 2, 41, 185.1099243164062
0, 2, 42, 190.8658905029297
0, 2, 43, 196.5000915527344
0, 2, 44, 191.1656646728516
0, 2, 45, 189.3451995849609
0, 2, 46, 195.9441223144531
0, 2, 47, 190.3574371337891
0, 2, 48, 177.0125274658203
0, 2, 49, 198.7173614501953
0, 2, 50, 167.7127990722656
0, 2, 51, 185.7876129150391
0, 2, 52, 186.6558685302734
0, 2, 53, 195.4670867919922
0, 2, 54, 177.5168762207031
0, 2, 55, 173.6067657470703
0, 2, 56, 181.5195007324219
0, 2, 57, 199.41796875
0, 2, 58, 185.9900665283203
0, 2, 59, 189.0157623291016
0, 2, 60, 196.0498962402344
0, 2, 61, 192.9089965820312
0, 2, 62, 189.6656951904297
0, 2, 63, 169.19580078125
0, 2, 64, 189.901611328125
0, 2, 65, 202.2798767089844
0, 2, 66, 195.4754943847656
0, 2, 67, 185.7022247314453
0, 2, 68, 182.5335388183594
0, 2, 69, 187.0408020019531
0, 2, 70, 203.5269012451172
0, 2, 71, 174.8494262695312
0, 2, 72, 188.2445983886719
0, 2, 73, 178.7667541503906
0, 2, 74, 181.3317565917969
0, 2, 75, 196.5945129394531
0, 2, 76, 183.1923522949219
0, 2, 77, 177.3963470458984
0, 2, 78, 197.4803924560547
0, 2, 79, 177.45849609375
0, 2, 80, 187.1846618652344
0, 2, 81, 187.0535736083984
0, 2, 82, 205.3281860351562
0, 2, 83, 205.4915161132812
0, 2, 84, 188.4301300048828
0, 2, 85, 170.6838531494141
0, 2, 86, 195.2392578125
0, 2, 87, 171.0588684082031
0, 2, 88, 176.9970397949219
0, 2, 89, 184.7416687011719
0, 2, 90, 177.7221527099609
0, 2, 91, 172.9927978515625
0, 2, 92, 196.9461517333984
0, 2, 93, 196.3687591552734
0, 2, 94, 200.8496398925781
0, 2, 95, 192.6866760253906
0, 2, 96, 186.2245330810547
0, 2, 97, 172.0876922607422
0, 2, 98, 175.0522613525391
0, 2, 99, 163.5106048583984
0, 2, 100, 187.8599395751953
0, 2, 101, 196.5826568603516
0, 2, 102, 176.3157806396484
0, 2, 103, 200.3101348876953
0, 2, 104, 187.5800018310547
0, 2, 105, 200.8744659423828
0, 2, 106, 194.8207244873047
0, 2, 107, 149.5466766357422
0, 2, 108, 79.26413726806641
0, 2, 109, 17.74689292907715
0, 2, 110, 8.614060401916504
0, 2, 111, 5.168769359588623
0, 2, 112, 3.256281614303589
0, 2, 113, 5.241395950317383
0, 2, 114, 7.636171817779541
0, 2, 115, 5.346940517425537
0, 2, 116, 4.055619716644287
0, 2, 117, 1.774178147315979
0, 2, 118, 3.952646732330322
0, 2, 119, 3.173485279083252
0, 2, 120, 1.61487352848053
0, 2, 121, 3.343726873397827
0, 2, 122, 1.703341603279114
0, 2, 123, 2.427349805831909
0, 2, 124, 2.600725650787354
0, 2, 125, 2.056576490402222
0, 2, 126, 3.654288053512573
0, 2, 127, 1.584660291671753
0, 3, 0, 1.795366883277893
0, 3, 1, 2.172449827194214
0, 3, 2, 1.46000063419342
0, 3, 3, 2.419587850570679
0, 3, 4, 5.458035945892334
0, 3, 5, 1.718008995056152
0, 3, 6, 0.891126275062561
0, 3, 7, 1.180042505264282
0, 3, 8, 1.684488773345947
0, 3, 9, 1.755833625793457
0, 3, 10, 1.869716644287109
0, 3, 11, 4.921103477478027
0, 3, 12, 3.327182054519653
0, 3, 13, 4.148394107818604
0, 3, 14, 4.002693653106689
0, 3, 15, 9.564510345458984
0, 3, 16, 7.236007213592529
0, 3, 17, 8.030049324035645
0, 3, 18, 33.34057998657227
0, 3, 19, 114.1077499389648
0, 3, 20, 180.6363830566406
0, 3, 21, 174.0110931396484
0, 3, 22, 177.9345855712891
0, 3, 23, 188.6635131835938
0, 3, 24, 176.9945068359375
0, 3, 25, 169.1288604736328
0, 3, 26, 180.7780609130859
0, 3, 27, 189.3780059814453
0, 3, 28, 183.6828460693359
0, 3, 29, 197.6949005126953
0, 3, 30, 186.9728088378906
0, 3, 31, 193.5162200927734
0, 3, 32, 206.2120971679688
0, 3, 33, 196.2889556884766
0, 3, 34, 188.6814727783203
0, 3, 35, 174.4720916748047
0, 3, 36, 186.7801361083984
0, 3, 37, 199.8153228759766
0, 3, 38, 190.7165985107422
0, 3, 39, 183.9511108398438
0, 3, 40, 165.6962127685547
0, 3, 41, 174.62548828125
0, 3, 42, 185.9574279785156
0, 3, 43, 181.8900299072266
0, 3, 44, 202.2305297851562
0, 3, 45, 207.2616577148438
0, 3, 46, 198.939453125
0, 3, 47, 193.6682281494141
0, 3, 48, 195.0288543701172
0, 3, 49, 182.4100952148438
0, 3, 50, 186.6981506347656
0, 3, 51, 174.4469146728516
0, 3, 52, 187.464111328125
0, 3, 53, 176.5138092041016
0, 3, 54, 178.7930908203125
0, 3, 55, 177.025390625
0, 3, 56, 182.1539306640625
0, 3, 57, 174.6758880615234
0, 3, 58, 202.4618835449219
0, 3, 59, 196.4899291992188
0, 3, 60, 186.9397888183594
0, 3, 61, 181.2045440673828
0, 3, 62, 182.1539916992188
0, 3, 63, 185.0842590332031
0, 3, 64, 191.0670013427734
0, 3, 65, 186.9845428466797
0, 3, 66, 175.1037292480469
0, 3, 67, 191.2053985595703
0, 3, 68, 211.6694641113281
0, 3, 69, 189.1315155029297
0, 3, 70, 185.1235046386719
0, 3, 71, 196.5657501220703
0, 3, 72, 185.4724426269531
0, 3, 73, 186.3431701660156
0, 3, 74, 192.3319702148438
0, 3, 75, 192.7807006835938
0, 3, 76, 190.8234100341797
0, 3, 77, 198.8409271240234
0, 3, 78, 188.0737152099609
0, 3, 79, 185.1923522949219
0, 3, 80, 189.6210174560547
0, 3, 81, 184.358642578125
0, 3, 82, 180.3451080322266
0, 3, 83, 196.3342590332031
0, 3, 84, 199.0439453125
0, 3, 85, 192.3977813720703
0, 3, 86, 204.7265625
0, 3, 87, 197.8083190917969
0, 3, 88, 191.9653930664062
0, 3, 89, 193.1841125488281
0, 3, 90, 174.0231323242188
0, 3, 91, 156.3068237304688
0, 3, 92, 206.3659820556641
0, 3, 93, 196.0573883056641
0, 3, 94, 193.6047973632812
0, 3, 95, 210.3676910400391
0, 3, 96, 208.0301208496094
0, 3, 97, 167.5428619384766
0, 3, 98, 167.0688171386719
0, 3, 99, 180.1193084716797
0, 3, 100, 176.6002502441406
0, 3, 101, 197.9445495605469
0, 3, 102, 194.8419799804688
0, 3, 103, 193.4561004638672
0, 3, 104, 202.5221405029297
0, 3, 105, 176.0123291015625
0, 3, 106, 181.0252227783203
0, 3, 107, 170.6103515625
0, 3, 108, 107.5898742675781
0, 3, 109, 27.96044158935547
0, 3, 110, 7.887273788452148
0, 3, 111, 6.736878395080566
0, 3, 112, 3.084266424179077
0, 3, 113, 7.390419006347656
0, 3, 114, 4.594592571258545
0, 3, 115, 4.445973873138428
0, 3, 116, 4.41850757598877
0, 3, 117, 4.367771148681641
0, 3, 118, 1.670632600784302
0, 3, 119, 3.591056823730469
0, 3, 120, 3.733750343322754
0, 3, 121, 3.373668193817139
0, 3, 122, 3.317443609237671
0, 3, 123, 2.611438989639282
0, 3, 124, 1.759682893753052
0, 3, 125, 1.564673781394958
0, 3, 126, 1.546474695205688
0, 3, 127, 1.274198770523071
0, 4, 0, 1.567192554473877
0, 4, 1, 0.4789697527885437
0, 4, 2, 2.255030870437622
0, 4, 3, 4.895278453826904
0, 4, 4, 2.759176254272461
0, 4, 5, 0.8330166339874268
0, 4, 6, 2.440673351287842
0, 4, 7, 2.699000120162964
0, 4, 8, 1.732633829116821
0, 4, 9, 3.116134643554688
0, 4, 10, 2.987707614898682
0, 4, 11, 3.870560169219971
0, 4, 12, 4.787554740905762
0, 4, 13, 4.442563056945801
0, 4, 14, 4.226974010467529
0, 4, 15, 9.942270278930664
0, 4, 16, 5.918190956115723
0, 4, 17, 12.13106727600098
0, 4, 18, 53.71454238891602
0, 4, 19, 152.2845916748047
0, 4, 20, 194.5131378173828
0, 4, 21, 171.2354278564453
0, 4, 22, 187.0262298583984
0, 4, 23, 195.2299346923828
0, 4, 24, 192.8589630126953
0, 4, 25, 199.6243438720703
0, 4, 26, 183.9171752929688
0, 4, 27, 191.5356292724609
0, 4, 28, 177.666748046875
0, 4, 29, 205.0338287353516
0, 4, 30, 194.9964141845703
0, 4, 31, 192.7028198242188
0, 4, 32, 210.2854766845703
0, 4, 33, 190.5888366699219
0, 4, 34, 193.0148773193359
0, 4, 35, 211.5192413330078
0, 4, 36, 194.4856719970703
0, 4, 37, 177.3338623046875
0, 4, 38, 193.9579010009766
0, 4, 39, 189.1837615966797
0, 4, 40, 188.2025299072266
0, 4, 41, 189.4822692871094
0, 4, 42, 206.5172882080078
0, 4, 43, 173.5125274658203
0, 4, 44, 183.7980499267578
0, 4, 45, 195.7164459228516
0, 4, 46, 186.9036865234375
0, 4, 47, 181.2656860351562
0, 4, 48, 186.9150238037109
0, 4, 49, 174.0818176269531
0, 4, 50, 185.3341064453125
0, 4, 51, 198.037109375
0, 4, 52, 223.456787109375
0, 4, 53, 206.8179321289062
0, 4, 54, 189.6829681396484
0, 4, 55, 176.67041015625
0, 4, 56, 190.3829956054688
0, 4, 57, 192.3533935546875
0, 4, 58, 187.8764038085938
0, 4, 59, 190.1531982421875
0, 4, 60, 196.0989685058594
0, 4, 61, 194.7135925292969
0, 4, 62, 190.8615417480469
0, 4, 63, 179.2651519775391
0, 4, 64, 213.2249755859375
0, 4, 65, 190.4832611083984
0, 4, 66, 201.2931518554688
0, 4, 67, 199.0511932373047
0, 4, 68, 201.9151000976562
0, 4, 69, 199.6205902099609
0, 4, 70, 204.7564544677734
0, 4, 71, 206.8721160888672
0, 4, 72, 216.2740478515625
0, 4, 73, 187.3545379638672
0, 4, 74, 180.6764831542969
0, 4, 75, 183.9456939697266
0, 4, 76, 190.7582092285156
0, 4, 77, 185.5372619628906
0, 4, 78, 195.0801696777344
0, 4, 79, 204.5959625244141
0, 4, 80, 211.4014129638672
0, 4, 81, 199.0284729003906
0, 4, 82, 182.3933410644531
0, 4, 83, 170.3298950195312
0, 4, 84, 192.6529846191406
0, 4, 85, 196.8446197509766
0, 4, 86, 180.5927124023438
0, 4, 87, 182.8787384033203
0, 4, 88, 203.6366882324219
0, 4, 89, 187.414794921875
0, 4, 90, 213.7187042236328
0, 4, 91, 189.7437591552734
0, 4, 92, 196.2408142089844
0, 4, 93, 197.5908813476562
0, 4, 94, 184.3232574462891
0, 4, 95, 174.1766815185547
0, 4, 96, 189.7034301757812
0, 4, 97, 196.0384368896484
0, 4, 98, 200.5617828369141
0, 4, 99, 184.816650390625
0, 4, 100, 183.1812591552734
0, 4, 101, 177.6221923828125
0, 4, 102, 172.9094390869141
0, 4, 103, 185.2472381591797
0, 4, 104, 210.4683990478516
0, 4, 105, 189.4328765869141
0, 4, 106, 180.1297149658203
0, 4, 107, 180.8261413574219
0, 4, 108, 152.4692840576172
0, 4, 109, 49.33566284179688
0, 4, 110, 10.62205219268799
0, 4, 111, 9.046951293945312
0, 4, 112, 5.929256439208984
0, 4, 113, 5.396279811859131
0, 4, 114, 5.002463340759277
0, 4, 115, 3.261440277099609
0, 4, 116, 5.220390796661377
0, 4, 117, 3.059271097183228
0, 4, 118, 3.458687782287598
0, 4, 119, 3.75849723815918
0, 4, 120, 1.73751163482666
0, 4, 121, 2.423539161682129
0, 4, 122, 2.488205432891846
0, 4, 123, 1.528985023498535
0, 4, 124, 3.847336292266846
0, 4, 125, 3.728883743286133
0, 4, 126, 1.406816720962524
0, 4, 127, 1.854693174362183
0, 5, 0, 1.617404699325562
0, 5, 1, 3.283634424209595
0, 5, 2, 5.332666397094727
0, 5, 3, 4.481898784637451
0, 5, 4, 3.219630718231201
0, 5, 5, 1.078686833381653
0, 5, 6, 2.412521600723267
0, 5, 7, 2.656615257263184
0, 5, 8, 2.740800142288208
0, 5, 9, 2.138558626174927
0, 5, 10, 3.288266897201538
0, 5, 11, 3.773918151855469
0, 5, 12, 7.088560581207275
0, 5, 13, 3.663258075714111
0, 5, 14, 5.162269592285156
0, 5, 15, 9.358468055725098
0, 5, 16, 8.099411010742188
0, 5, 17, 21.55734062194824
0, 5, 18, 84.19671630859375
0, 5, 19, 163.5511016845703
0, 5, 20, 183.6931304931641
0, 5, 21, 178.5584106445312
0, 5, 22, 169.9132995605469
0, 5, 23, 202.2372283935547
0, 5, 24, 186.8659515380859
0, 5, 25, 207.640380859375
0, 5, 26, 182.8130950927734
0, 5, 27, 194.8612518310547
0, 5, 28, 189.2972106933594
0, 5, 29, 195.2602691650391
0, 5, 30, 176.9859619140625
0, 5, 31, 179.6697845458984
0, 5, 32, 186.9359130859375
0, 5, 33, 168.4006805419922
0, 5, 34, 195.364990234375
0, 5, 35, 197.0829772949219
0, 5, 36, 167.8494720458984
0, 5, 37, 197.4866943359375
0, 5, 38, 179.84619140625
0, 5, 39, 186.2459259033203
0, 5, 40, 196.2338104248047
0, 5, 41, 177.097412109375
0, 5, 42, 186.9112854003906
0, 5, 43, 193.1902313232422
0, 5, 44, 199.8935546875
0, 5, 45, 186.29931640625
0, 5, 46, 192.8693695068359
0, 5, 47, 180.4928436279297
0, 5, 48, 178.4629974365234
0, 5, 49, 178.5296630859375
0, 5, 50, 186.5372314453125
0, 5, 51, 172.1017150878906
0, 5, 52, 168.0939636230469
0, 5, 53, 180.7946014404297
0, 5, 54, 171.6795959472656
0, 5, 55, 215.0154266357422
0, 5, 56, 181.6629028320312
0, 5, 57, 207.1184997558594
0, 5, 58, 181.5155639648438
0, 5, 59, 180.2780914306641
0, 5, 60, 218.3079071044922
0, 5, 61, 184.8804321289062
0, 5, 62, 179.3423461914062
0, 5, 63, 182.9998931884766
0, 5, 64, 196.3902893066406
0, 5, 65, 210.5305023193359
0, 5, 66, 192.5121154785156
0, 5, 67, 199.2527618408203
0, 5, 68, 186.8007659912109
0, 5, 69, 184.8724822998047
0, 5, 70, 185.4917755126953
0, 5, 71, 192.7219085693359
0, 5, 72, 197.0692749023438
0, 5, 73, 200.9190673828125
0, 5, 74, 178.6881408691406
0, 5, 75, 202.53076171875
0, 5, 76, 214.7466125488281
0, 5, 77, 182.5676879882812
0, 5, 78, 194.2688598632812
0, 5, 79, 190.220947265625
0, 5, 80, 197.5174713134766
0, 5, 81, 202.9425354003906
0, 5, 82, 201.1062316894531
0, 5, 83, 189.1185760498047
0, 5, 84, 205.8256072998047
0, 5, 85, 176.2455596923828
0, 5, 86, 194.8470001220703
0, 5, 87, 188.1893463134766
0, 5, 88, 176.9075164794922
0, 5, 89, 194.6376800537109
0, 5, 90, 199.1492919921875
0, 5, 91, 193.5989074707031
0, 5, 92, 190.2502899169922
0, 5, 93, 189.2836151123047
0, 5, 94, 207.0836791992188
0, 5, 95, 176.2869262695312
0, 5, 96, 183.0767669677734
0, 5, 97, 190.8465728759766
0, 5, 98, 188.5076293945312
0, 5, 99, 195.3049621582031
0, 5, 100, 187.782958984375
0, 5, 101, 195.8260498046875
0, 5, 102, 181.2485046386719
0, 5, 103, 176.2851409912109
0, 5, 104, 190.0298919677734
0, 5, 105, 190.1828002929688
0, 5, 106, 177.2872467041016
0, 5, 107, 181.6391296386719
0, 5, 108, 177.4597473144531
0, 5, 109, 90.32635498046875
0, 5, 110, 30.0505313873291
0, 5, 111, 10.16945743560791
0, 5, 112, 6.832208156585693
0, 5, 113, 5.34722375869751
0, 5, 114, 6.301087856292725
0, 5, 115, 8.358777046203613
0, 5, 116, 4.957757949829102
0, 5, 117, 2.657041072845459
0, 5, 118, 3.310060739517212
0, 5, 119, 3.180109262466431
0, 5, 120, 1.154967188835144
0, 5, 121, 1.588831186294556
0, 5, 122, 2.804418087005615
0, 5, 123, 3.26223349571228
0, 5, 124, 3.35970664024353
0, 5, 125, 1.124712586402893
0, 5, 126, 3.172632217407227
0, 5, 127, 3.775054454803467
0, 6, 0, 3.910276889801025
0, 6, 1, 2.816156387329102
0, 6, 2, 3.860729932785034
0, 6, 3, 2.10509467124939
0, 6, 4, 3.66257119178772
0, 6, 5, 2.820208549499512
0, 6, 6, 2.563848257064819
0, 6, 7, 3.885749578475952
0, 6, 8, 3.699865579605103
0, 6, 9, 3.038013696670532
0, 6, 10, 5.48982048034668
0, 6, 11, 4.255371570587158
0, 6, 12, 4.515350818634033
0, 6, 13, 5.794507503509521
0, 6, 14, 5.053376197814941
0, 6, 15, 6.1141357421875
0, 6, 16, 13.74124336242676
0, 6, 17, 28.45766639709473
0, 6, 18, 111.6552124023438
0, 6, 19, 192.1622314453125
0, 6, 20, 195.7403717041016
0, 6, 21, 198.1199645996094
0, 6, 22, 192.0061492919922
0, 6, 23, 191.6561584472656
0, 6, 24, 200.3625183105469
0, 6, 25, 182.6089477539062
0, 6, 26, 186.9719696044922
0, 6, 27, 192.4670562744141
0, 6, 28, 189.1785430908203
0, 6, 29, 212.0790710449219
0, 6, 30, 190.3966369628906
0, 6, 31, 192.8055572509766
0, 6, 32, 206.6018371582031
0, 6, 33, 182.9822998046875
0, 6, 34, 196.5518341064453
0, 6, 35, 187.4562683105469
0, 6, 36, 180.2103271484375
0, 6, 37, 182.4261627197266
0, 6, 38, 186.5736389160156
0, 6, 39, 195.0225067138672
0, 6, 40, 174.6629333496094
0, 6, 41, 185.2084655761719
0, 6, 42, 173.7884674072266
0, 6, 43, 208.6136627197266
0, 6, 44, 209.4601745605469
0, 6, 45, 193.1062774658203
0, 6, 46, 188.2438354492188
0, 6, 47, 204.7587738037109
0, 6, 48, 189.0277252197266
0, 6, 49, 178.9136962890625
0, 6, 50, 182.9524688720703
0, 6, 51, 196.3443908691406
0, 6, 52, 197.3284759521484
0, 6, 53, 185.3866577148438
0, 6, 54, 174.9740753173828
0, 6, 55, 194.2325286865234
0, 6, 56, 204.2917785644531
0, 6, 57, 191.0663299560547
0, 6, 58, 177.5715789794922
0, 6, 59, 191.7385406494141
0, 6, 60, 183.9102630615234
0, 6, 61, 193.7007141113281
0, 6, 62, 196.5779571533203
0, 6, 63, 187.1100769042969
0, 6, 64, 169.9322662353516
0, 6, 65, 186.6565093994141
0, 6, 66, 198.2844390869141
0, 6, 67, 213.9021301269531
0, 6, 68, 181.7079467773438
0, 6, 69, 170.4471282958984
0, 6, 70, 186.8636932373047
0, 6, 71, 170.8485107421875
0, 6, 72, 176.0309753417969
0, 6, 73, 177.0295257568359
0, 6, 74, 210.2776184082031
0, 6, 75, 227.8821716308594
0, 6, 76, 185.0604095458984
0, 6, 77, 171.7411651611328
0, 6, 78, 176.2020721435547
0, 6, 79, 187.7086486816406
0, 6, 80, 187.9135589599609
0, 6, 81, 209.0117492675781
0, 6, 82, 195.0041351318359
0, 6, 83, 194.3501586914062
0, 6, 84, 198.5868377685547
0, 6, 85, 183.1935119628906
0, 6, 86, 200.9860382080078
0, 6, 87, 183.2880859375
0, 6, 88, 191.4363861083984
0, 6, 89, 189.2145843505859
0, 6, 90, 205.6482849121094
0, 6, 91, 202.120849609375
0, 6, 92, 172.5209350585938
0, 6, 93, 193.6902160644531
0, 6, 94, 190.1972351074219
0, 6, 95, 186.0039367675781
0, 6, 96, 188.5419464111328
0, 6, 97, 193.2727203369141
0, 6, 98, 182.8339080810547
0, 6, 99, 176.2235412597656
0, 6, 100, 202.9839630126953
0, 6, 101, 169.6857757568359
0, 6, 102, 201.7119598388672
0, 6, 103, 197.6156158447266
0, 6, 104, 183.4754333496094
0, 6, 105, 193.8586730957031
0, 6, 106, 177.3231964111328
0, 6, 107, 195.7874908447266
0, 6, 108, 171.0211181640625
0, 6, 109, 116.5063400268555
0, 6, 110, 34.39976501464844
0, 6, 111, 10.87073516845703
0, 6, 112, 9.978935241699219
0, 6, 113, 4.800912857055664
0, 6, 114, 5.487678050994873
0, 6, 115, 5.847880363464355
0, 6, 116, 6.479596138000488
0, 6, 117, 4.380810737609863
0, 6, 118, 3.694374084472656
0, 6, 119, 5.453923225402832
0, 6, 120, 2.237149715423584
0, 6, 121, 3.848101139068604
0, 6, 122, 3.406286001205444
0, 6, 123, 3.210771322250366
0, 6, 124, 2.911493301391602
0, 6, 125, 2.990616798400879
0, 6, 126, 1.327182292938232
0, 6, 127, 2.213414907455444
0, 7, 0, 3.571905612945557
0, 7, 1, 1.404171586036682
0, 7, 2, 3.759281873703003
0, 7, 3, 2.722102880477905
0, 7, 4, 0.9226644039154053
0, 7, 5, 1.537659049034119
0, 7, 6, 2.267684936523438
0, 7, 7, 5.036572933197021
0, 7, 8, 2.60541033744812
0, 7, 9, 3.505420684814453
0, 7, 10, 4.987174034118652
0, 7, 11, 3.500030040740967
0, 7, 12, 4.194263935089111
0, 7, 13, 5.762256622314453
0, 7, 14, 6.33265495300293
0, 7, 15, 7.508070945739746
0, 7, 16, 15.59145927429199
0, 7, 17, 49.6810188293457
0, 7, 18, 162.343017578125
0, 7, 19, 181.3630523681641
0, 7, 20, 179.1243438720703
0, 7, 21, 180.7656402587891
0, 7, 22, 191.5915832519531
0, 7, 23, 201.7977600097656
0, 7, 24, 177.5159912109375
0, 7, 25, 213.1498718261719
0, 7, 26, 189.4030914306641
0, 7, 27, 182.1920928955078
0, 7, 28, 182.5572509765625
0, 7, 29, 209.1203765869141
0, 7, 30, 193.6298065185547
0, 7, 31, 179.3306732177734
0, 7, 32, 192.5826568603516
0, 7, 33, 181.6847534179688
0, 7, 34, 193.4203491210938
0, 7, 35, 197.5333709716797
0, 7, 36, 186.8721771240234
0, 7, 37, 213.3284149169922
0, 7, 38, 191.7542724609375
0, 7, 39, 172.9847564697266
0, 7, 40, 183.8051452636719
0, 7, 41, 185.0713958740234
0, 7, 42, 177.72119140625
0, 7, 43, 177.551513671875
0, 7, 44, 179.0369720458984
0, 7, 45, 175.2523956298828
0, 7, 46, 187.5199127197266
0, 7, 47, 197.3057098388672
0, 7, 48, 184.6150360107422
0, 7, 49, 199.9920806884766
0, 7, 50, 187.8843231201172
0, 7, 51, 205.0502319335938
0, 7, 52, 203.5660247802734
0, 7, 53, 191.4480743408203
0, 7, 54, 193.4672698974609
0, 7, 55, 203.1552124023438
0, 7, 56, 184.1542205810547
0, 7, 57, 184.0462799072266
0, 7, 58, 193.3330841064453
0, 7, 59, 186.5203704833984
0, 7, 60, 203.9869842529297
0, 7, 61, 171.7235412597656
0, 7, 62, 202.9780426025391
0, 7, 63, 188.3883514404297
0, 7, 64, 199.2358245849609
0, 7, 65, 194.3925170898438
0, 7, 66, 205.0013732910156
0, 7, 67, 222.4482116699219
0, 7, 68, 164.3408203125
0, 7, 69, 194.5790100097656
0, 7, 70, 216.8382415771484
0, 7, 71, 185.3833160400391
0, 7, 72, 181.1545715332031
0, 7, 73, 176.4710693359375
0, 7, 74, 208.5403594970703
0, 7, 75, 205.3917999267578
0, 7, 76, 214.8795776367188
0, 7, 77, 175.4337921142578
0, 7, 78, 177.7426147460938
0, 7, 79, 191.6971130371094
0, 7, 80, 195.2834777832031
0, 7, 81, 215.0045928955078
0, 7, 82, 183.7571716308594
0, 7, 83, 205.1550445556641
0, 7, 84, 192.2698669433594
0, 7, 85, 187.0563354492188
0, 7, 86, 200.1881256103516
0, 7, 87, 225.5765075683594
0, 7, 88, 195.2054595947266
0, 7, 89, 176.2244110107422
0, 7, 90, 182.2309722900391
0, 7, 91, 196.0260314941406
0, 7, 92, 193.3242797851562
0, 7, 93, 197.9814453125
0, 7, 94, 178.7470855712891
0, 7, 95, 198.8118896484375
0, 7, 96, 207.8813781738281
0, 7, 97, 189.8805236816406
0, 7, 98, 176.0364837646484
0, 7, 99, 197.3588409423828
0, 7, 100, 181.2447509765625
0, 7, 101, 202.0623626708984
0, 7, 102, 185.0192413330078
0, 7, 103, 180.8714752197266
0, 7, 104, 175.9958343505859
0, 7, 105, 195.2558288574219
0, 7, 106, 205.6784820556641
0, 7, 107, 176.1459808349609
0, 7, 108, 179.2527160644531
0, 7, 109, 136.9793243408203
0, 7, 110, 53.68862152099609
0, 7, 111, 8.690627098083496
0, 7, 112, 7.623419761657715
0, 7, 113, 8.981472015380859
0, 7, 114, 7.832135677337646
0, 7, 115, 5.668275356292725
0, 7, 116, 4.182464599609375
0, 7, 117, 2.615263223648071
0, 7, 118, 3.017271280288696
0, 7, 119, 3.666775465011597
0, 7, 120, 4.71388578414917
0, 7, 121, 1.645424842834473
0, 7, 122, 2.521294355392456
0, 7, 123, 1.587871074676514
0, 7, 124, 1.968690395355225
0, 7, 125, 2.08315110206604
0, 7, 126, 2.928946018218994
0, 7, 127, 1.512644052505493
0, 8, 0, 4.808508396148682
0, 8, 1, 3.333393573760986
0, 8, 2, 3.111956119537354
0, 8, 3, 2.230432510375977
0, 8, 4, 1.212374806404114
0, 8, 5, 3.177583456039429
0, 8, 6, 2.214572906494141
0, 8, 7, 2.35516881942749
0, 8, 8, 4.129306316375732
0, 8, 9, 4.261696338653564
0, 8, 10, 3.028873205184937
0, 8, 11, 3.744900941848755
0, 8, 12, 3.618471622467041
0, 8, 13, 4.745599746704102
0, 8, 14, 5.460407257080078
0, 8, 15, 9.481822967529297
0, 8, 16, 19.47548294067383
0, 8, 17, 75.79841613769531
0, 8, 18, 142.3718566894531
0, 8, 19, 180.4124145507812
0, 8, 20, 191.1532287597656
0, 8, 21, 192.2646331787109
0, 8, 22, 179.9072570800781
0, 8, 23, 174.8875427246094
0, 8, 24, 192.2960052490234
0, 8, 25, 187.2944183349609
0, 8, 26, 192.9270935058594
0, 8, 27, 187.9411315917969
0, 8, 28, 186.6796112060547
0, 8, 29, 207.8069915771484
0, 8, 30, 198.1166076660156
0, 8, 31, 183.7436676025391
0, 8, 32, 198.3942565917969
0, 8, 33, 207.5884094238281
0, 8, 34, 202.9640655517578
0, 8, 35, 184.3563232421875
0, 8, 36, 182.1848602294922
0, 8, 37, 198.4480590820312
