# TOPAS Version: 3.1.p3
# Parameter File: batch_inserts_204.txt
# Results for scorer Readout_Adipose
# Scored in component: MyBox
# X in 1 bin  of 0.65 cm
# Y in 512 bins of 0.0783984 cm
# Z in 128 bins of 0.078125 cm
# EnergyDeposit ( MeV ) : Sum   
0, 0, 0, 2.311662912368774
0, 0, 1, 4.805068016052246
0, 0, 2, 1.318979501724243
0, 0, 3, 1.777127981185913
0, 0, 4, 0.9136688113212585
0, 0, 5, 1.423227906227112
0, 0, 6, 1.270069718360901
0, 0, 7, 2.675585508346558
0, 0, 8, 1.675027966499329
0, 0, 9, 5.9396071434021
0, 0, 10, 4.163402080535889
0, 0, 11, 3.863651275634766
0, 0, 12, 3.595823049545288
0, 0, 13, 2.161768913269043
0, 0, 14, 5.699676036834717
0, 0, 15, 5.770663261413574
0, 0, 16, 6.658549785614014
0, 0, 17, 6.116736888885498
0, 0, 18, 7.15031623840332
0, 0, 19, 24.49193572998047
0, 0, 20, 93.93231201171875
0, 0, 21, 152.0914306640625
0, 0, 22, 155.7891540527344
0, 0, 23, 144.1239471435547
0, 0, 24, 160.1506805419922
0, 0, 25, 166.5370635986328
0, 0, 26, 167.450927734375
0, 0, 27, 174.9535217285156
0, 0, 28, 177.6974945068359
0, 0, 29, 174.9242401123047
0, 0, 30, 171.9963684082031
0, 0, 31, 166.3748016357422
0, 0, 32, 164.9690551757812
0, 0, 33, 167.4409637451172
0, 0, 34, 177.6709594726562
0, 0, 35, 174.4567413330078
0, 0, 36, 159.1194000244141
0, 0, 37, 162.2083587646484
0, 0, 38, 166.2903900146484
0, 0, 39, 158.88818359375
0, 0, 40, 164.6593017578125
0, 0, 41, 165.7023620605469
0, 0, 42, 143.0823059082031
0, 0, 43, 167.8219909667969
0, 0, 44, 177.4564514160156
0, 0, 45, 173.9117889404297
0, 0, 46, 165.7440948486328
0, 0, 47, 167.2754211425781
0, 0, 48, 171.4371948242188
0, 0, 49, 183.1009368896484
0, 0, 50, 169.1021270751953
0, 0, 51, 161.8904876708984
0, 0, 52, 162.7093353271484
0, 0, 53, 172.1961517333984
0, 0, 54, 160.4105529785156
0, 0, 55, 166.0038299560547
0, 0, 56, 190.3051452636719
0, 0, 57, 169.9161987304688
0, 0, 58, 161.2436676025391
0, 0, 59, 172.0387725830078
0, 0, 60, 169.3135986328125
0, 0, 61, 170.069580078125
0, 0, 62, 183.0142211914062
0, 0, 63, 167.2512817382812
0, 0, 64, 163.7376251220703
0, 0, 65, 178.3685913085938
0, 0, 66, 177.7085266113281
0, 0, 67, 163.6819915771484
0, 0, 68, 158.0928344726562
0, 0, 69, 158.4483642578125
0, 0, 70, 169.2338714599609
0, 0, 71, 158.8644409179688
0, 0, 72, 163.5121765136719
0, 0, 73, 172.5624084472656
0, 0, 74, 162.2201690673828
0, 0, 75, 162.7212371826172
0, 0, 76, 163.1149597167969
0, 0, 77, 171.9331665039062
0, 0, 78, 181.4475708007812
0, 0, 79, 175.1207122802734
0, 0, 80, 159.3564147949219
0, 0, 81, 160.0795745849609
0, 0, 82, 184.0313720703125
0, 0, 83, 174.5621185302734
0, 0, 84, 160.2879180908203
0, 0, 85, 181.4874420166016
0, 0, 86, 159.4322662353516
0, 0, 87, 177.0705261230469
0, 0, 88, 176.2924499511719
0, 0, 89, 176.3331451416016
0, 0, 90, 161.1812744140625
0, 0, 91, 186.6455993652344
0, 0, 92, 164.4586486816406
0, 0, 93, 156.8251800537109
0, 0, 94, 168.3316497802734
0, 0, 95, 173.9629821777344
0, 0, 96, 185.7339782714844
0, 0, 97, 183.9206695556641
0, 0, 98, 185.8289794921875
0, 0, 99, 171.7543334960938
0, 0, 100, 158.4158172607422
0, 0, 101, 166.8354339599609
0, 0, 102, 172.5082550048828
0, 0, 103, 170.5802764892578
0, 0, 104, 168.0038909912109
0, 0, 105, 176.8527221679688
0, 0, 106, 158.3763732910156
0, 0, 107, 86.36520385742188
0, 0, 108, 21.61283302307129
0, 0, 109, 10.279052734375
0, 0, 110, 5.647763252258301
0, 0, 111, 6.440863132476807
0, 0, 112, 3.689836740493774
0, 0, 113, 2.903155565261841
0, 0, 114, 1.723432898521423
0, 0, 115, 3.281065940856934
0, 0, 116, 3.005138397216797
0, 0, 117, 4.001233100891113
0, 0, 118, 4.154235363006592
0, 0, 119, 2.184120178222656
0, 0, 120, 1.768980026245117
0, 0, 121, 4.034329414367676
0, 0, 122, 4.656233787536621
0, 0, 123, 4.326801776885986
0, 0, 124, 1.088565468788147
0, 0, 125, 2.817702054977417
0, 0, 126, 3.332434415817261
0, 0, 127, 1.518223881721497
0, 1, 0, 0.6462068557739258
0, 1, 1, 4.203775405883789
0, 1, 2, 3.503219604492188
0, 1, 3, 1.740251302719116
0, 1, 4, 1.796576261520386
0, 1, 5, 1.289960622787476
0, 1, 6, 3.249638795852661
0, 1, 7, 1.950337052345276
0, 1, 8, 2.032949447631836
0, 1, 9, 1.961011052131653
0, 1, 10, 2.970448970794678
0, 1, 11, 4.727795600891113
0, 1, 12, 2.618593215942383
0, 1, 13, 6.245438098907471
0, 1, 14, 5.581737041473389
0, 1, 15, 6.814713954925537
0, 1, 16, 7.008278846740723
0, 1, 17, 5.445226669311523
0, 1, 18, 10.55988311767578
0, 1, 19, 39.93789672851562
0, 1, 20, 125.4434661865234
0, 1, 21, 178.1197509765625
0, 1, 22, 194.2192077636719
0, 1, 23, 185.6399993896484
0, 1, 24, 179.63916015625
0, 1, 25, 191.9418334960938
0, 1, 26, 198.2724914550781
0, 1, 27, 187.4593200683594
0, 1, 28, 188.1501922607422
0, 1, 29, 183.3474578857422
0, 1, 30, 179.9037017822266
0, 1, 31, 182.9140777587891
0, 1, 32, 188.4048004150391
0, 1, 33, 191.1140441894531
0, 1, 34, 184.3584442138672
0, 1, 35, 193.9620971679688
0, 1, 36, 205.5737152099609
0, 1, 37, 184.7536468505859
0, 1, 38, 165.1656036376953
0, 1, 39, 171.4360809326172
0, 1, 40, 179.4213562011719
0, 1, 41, 185.1166534423828
0, 1, 42, 182.9280853271484
0, 1, 43, 187.6333465576172
0, 1, 44, 168.0910797119141
0, 1, 45, 188.2376861572266
0, 1, 46, 170.8535308837891
0, 1, 47, 184.0098876953125
0, 1, 48, 186.5397491455078
0, 1, 49, 186.8379821777344
0, 1, 50, 178.3386840820312
0, 1, 51, 191.364013671875
0, 1, 52, 194.9592742919922
0, 1, 53, 195.4583282470703
0, 1, 54, 184.5847320556641
0, 1, 55, 165.5666351318359
0, 1, 56, 178.4488067626953
0, 1, 57, 177.5399169921875
0, 1, 58, 189.1588592529297
0, 1, 59, 193.3135223388672
0, 1, 60, 189.5458526611328
0, 1, 61, 177.4965515136719
0, 1, 62, 205.1705169677734
0, 1, 63, 173.8118438720703
0, 1, 64, 174.4686431884766
0, 1, 65, 184.2742004394531
0, 1, 66, 203.7214202880859
0, 1, 67, 182.9987030029297
0, 1, 68, 186.2532348632812
0, 1, 69, 188.8169708251953
0, 1, 70, 185.8076324462891
0, 1, 71, 171.4898834228516
0, 1, 72, 187.9792327880859
0, 1, 73, 190.7400512695312
0, 1, 74, 201.3157043457031
0, 1, 75, 184.6710357666016
0, 1, 76, 174.7910919189453
0, 1, 77, 191.39306640625
0, 1, 78, 188.7362518310547
0, 1, 79, 202.4038696289062
0, 1, 80, 185.6707305908203
0, 1, 81, 174.5855255126953
0, 1, 82, 206.7608337402344
0, 1, 83, 211.2264099121094
0, 1, 84, 180.6555786132812
0, 1, 85, 169.6535797119141
0, 1, 86, 169.3249816894531
0, 1, 87, 184.43310546875
0, 1, 88, 174.6727752685547
0, 1, 89, 188.1110992431641
0, 1, 90, 212.7154388427734
0, 1, 91, 182.0128021240234
0, 1, 92, 184.7252349853516
0, 1, 93, 182.0454864501953
0, 1, 94, 187.0009460449219
0, 1, 95, 184.5536499023438
0, 1, 96, 196.9398651123047
0, 1, 97, 182.6369476318359
0, 1, 98, 186.7365112304688
0, 1, 99, 175.2702026367188
0, 1, 100, 173.0994262695312
0, 1, 101, 178.0730743408203
0, 1, 102, 181.6454772949219
0, 1, 103, 172.9391937255859
0, 1, 104, 190.0706939697266
0, 1, 105, 183.4777679443359
0, 1, 106, 164.0444793701172
0, 1, 107, 123.1670913696289
0, 1, 108, 47.13032150268555
0, 1, 109, 9.394081115722656
0, 1, 110, 7.547435760498047
0, 1, 111, 7.452901840209961
0, 1, 112, 7.096187114715576
0, 1, 113, 8.123592376708984
0, 1, 114, 5.105929374694824
0, 1, 115, 5.898074626922607
0, 1, 116, 3.605545997619629
0, 1, 117, 2.828130960464478
0, 1, 118, 2.871969699859619
0, 1, 119, 0.697263777256012
0, 1, 120, 2.848157644271851
0, 1, 121, 4.803337574005127
0, 1, 122, 1.865875840187073
0, 1, 123, 4.777077198028564
0, 1, 124, 3.24291729927063
0, 1, 125, 2.295289993286133
0, 1, 126, 1.891156315803528
0, 1, 127, 2.14091968536377
0, 2, 0, 1.201051592826843
0, 2, 1, 2.14845871925354
0, 2, 2, 3.579803228378296
0, 2, 3, 1.233821630477905
0, 2, 4, 1.401860594749451
0, 2, 5, 1.715812206268311
0, 2, 6, 2.739615201950073
0, 2, 7, 2.7736496925354
0, 2, 8, 0.5909691452980042
0, 2, 9, 2.390652656555176
0, 2, 10, 5.383298873901367
0, 2, 11, 4.024433612823486
0, 2, 12, 3.617804527282715
0, 2, 13, 4.796158313751221
0, 2, 14, 5.322412014007568
0, 2, 15, 6.374022006988525
0, 2, 16, 4.324516773223877
0, 2, 17, 9.579092025756836
0, 2, 18, 14.00328063964844
0, 2, 19, 76.48990631103516
0, 2, 20, 160.9659729003906
0, 2, 21, 184.7706146240234
0, 2, 22, 195.2176208496094
0, 2, 23, 185.8132476806641
0, 2, 24, 173.8481903076172
0, 2, 25, 183.3650817871094
0, 2, 26, 178.9995727539062
0, 2, 27, 190.4093017578125
0, 2, 28, 171.1874847412109
0, 2, 29, 169.5324554443359
0, 2, 30, 187.5374908447266
0, 2, 31, 182.5307922363281
0, 2, 32, 183.2549743652344
0, 2, 33, 189.6849517822266
0, 2, 34, 199.1015625
0, 2, 35, 183.4496612548828
0, 2, 36, 186.6926116943359
0, 2, 37, 181.1510162353516
0, 2, 38, 185.5280303955078
0, 2, 39, 165.8891754150391
0, 2, 40, 183.2150726318359
0, 2, 41, 184.7918548583984
0, 2, 42, 190.2749176025391
0, 2, 43, 193.6943817138672
0, 2, 44, 190.9521942138672
0, 2, 45, 190.7668762207031
0, 2, 46, 195.8484039306641
0, 2, 47, 189.7543640136719
0, 2, 48, 176.4134368896484
0, 2, 49, 197.7211456298828
0, 2, 50, 167.2626342773438
0, 2, 51, 187.0532073974609
0, 2, 52, 186.6844635009766
0, 2, 53, 195.4454345703125
0, 2, 54, 175.2622680664062
0, 2, 55, 173.2604064941406
0, 2, 56, 181.44140625
0, 2, 57, 200.2462158203125
0, 2, 58, 186.1481018066406
0, 2, 59, 189.1972503662109
0, 2, 60, 196.9617309570312
0, 2, 61, 194.3945465087891
0, 2, 62, 190.0878448486328
0, 2, 63, 169.1143951416016
0, 2, 64, 189.302978515625
0, 2, 65, 203.2480773925781
0, 2, 66, 195.9521331787109
0, 2, 67, 184.5283203125
0, 2, 68, 182.1536407470703
0, 2, 69, 186.7892608642578
0, 2, 70, 202.8098754882812
0, 2, 71, 175.7640533447266
0, 2, 72, 186.5096893310547
0, 2, 73, 178.6863250732422
0, 2, 74, 180.7134857177734
0, 2, 75, 196.4497375488281
0, 2, 76, 183.5350646972656
0, 2, 77, 178.2509307861328
0, 2, 78, 197.4866943359375
0, 2, 79, 177.5629577636719
0, 2, 80, 187.1873931884766
0, 2, 81, 186.7521667480469
0, 2, 82, 205.3108520507812
0, 2, 83, 203.7191162109375
0, 2, 84, 188.050537109375
0, 2, 85, 169.7121887207031
0, 2, 86, 194.6968078613281
0, 2, 87, 171.9723358154297
0, 2, 88, 178.8930816650391
0, 2, 89, 185.5627746582031
0, 2, 90, 177.8609771728516
0, 2, 91, 176.9294891357422
0, 2, 92, 197.4488830566406
0, 2, 93, 194.3821411132812
0, 2, 94, 199.3675994873047
0, 2, 95, 192.4442596435547
0, 2, 96, 186.1604919433594
0, 2, 97, 171.7427978515625
0, 2, 98, 173.6415100097656
0, 2, 99, 163.0110626220703
0, 2, 100, 188.3333740234375
0, 2, 101, 196.3345336914062
0, 2, 102, 177.1318206787109
0, 2, 103, 199.7203216552734
0, 2, 104, 188.1227264404297
0, 2, 105, 201.2790222167969
0, 2, 106, 194.9902954101562
0, 2, 107, 149.018310546875
0, 2, 108, 78.85623168945312
0, 2, 109, 17.4029655456543
0, 2, 110, 10.52364540100098
0, 2, 111, 5.488180160522461
0, 2, 112, 4.178061962127686
0, 2, 113, 4.254528999328613
0, 2, 114, 8.78378963470459
0, 2, 115, 4.30134105682373
0, 2, 116, 3.398140430450439
0, 2, 117, 1.878058195114136
0, 2, 118, 2.353672742843628
0, 2, 119, 3.531734704971313
0, 2, 120, 3.301011323928833
0, 2, 121, 4.780252933502197
0, 2, 122, 1.416095852851868
0, 2, 123, 4.214489936828613
0, 2, 124, 1.795205593109131
0, 2, 125, 2.387492418289185
0, 2, 126, 3.006085872650146
0, 2, 127, 0.9215512275695801
0, 3, 0, 2.068735837936401
0, 3, 1, 1.862889170646667
0, 3, 2, 1.00727379322052
0, 3, 3, 2.775942325592041
0, 3, 4, 3.816098690032959
0, 3, 5, 2.061631679534912
0, 3, 6, 1.266660451889038
0, 3, 7, 1.245604038238525
0, 3, 8, 2.021483182907104
0, 3, 9, 1.540885210037231
0, 3, 10, 2.831622123718262
0, 3, 11, 3.589337348937988
0, 3, 12, 4.755683898925781
0, 3, 13, 3.248721837997437
0, 3, 14, 3.939990282058716
0, 3, 15, 7.436648368835449
0, 3, 16, 6.863613128662109
0, 3, 17, 6.576615810394287
0, 3, 18, 32.21124649047852
0, 3, 19, 116.8437881469727
0, 3, 20, 180.3123168945312
0, 3, 21, 173.7315979003906
0, 3, 22, 177.6162414550781
0, 3, 23, 188.1069793701172
0, 3, 24, 177.4972076416016
0, 3, 25, 168.3501434326172
0, 3, 26, 180.721923828125
0, 3, 27, 188.5847320556641
0, 3, 28, 181.4879608154297
0, 3, 29, 197.0812530517578
0, 3, 30, 184.9383087158203
0, 3, 31, 194.4599609375
0, 3, 32, 205.8900604248047
0, 3, 33, 197.1082000732422
0, 3, 34, 187.3399353027344
0, 3, 35, 175.1815032958984
0, 3, 36, 185.2642059326172
0, 3, 37, 200.30859375
0, 3, 38, 191.1655731201172
0, 3, 39, 186.2055969238281
0, 3, 40, 166.4121551513672
0, 3, 41, 174.2402801513672
0, 3, 42, 185.0687713623047
0, 3, 43, 182.3179168701172
0, 3, 44, 203.0105285644531
0, 3, 45, 207.7553253173828
0, 3, 46, 198.5592041015625
0, 3, 47, 194.67431640625
0, 3, 48, 195.7798919677734
0, 3, 49, 180.4165344238281
0, 3, 50, 186.1699981689453
0, 3, 51, 174.1833343505859
0, 3, 52, 186.8424682617188
0, 3, 53, 178.3560333251953
0, 3, 54, 178.7177276611328
0, 3, 55, 177.7219085693359
0, 3, 56, 182.6903991699219
0, 3, 57, 175.2972564697266
0, 3, 58, 202.3478088378906
0, 3, 59, 196.8289337158203
0, 3, 60, 185.6286163330078
0, 3, 61, 181.3014984130859
0, 3, 62, 183.1806793212891
0, 3, 63, 184.9063262939453
0, 3, 64, 189.1469116210938
0, 3, 65, 189.5982513427734
0, 3, 66, 175.337158203125
0, 3, 67, 189.5847320556641
0, 3, 68, 211.8795928955078
0, 3, 69, 191.9020385742188
0, 3, 70, 185.6591949462891
0, 3, 71, 196.6649932861328
0, 3, 72, 186.2960510253906
0, 3, 73, 187.3979339599609
0, 3, 74, 192.4776916503906
0, 3, 75, 192.1409454345703
0, 3, 76, 190.4043731689453
0, 3, 77, 200.5953826904297
0, 3, 78, 187.9283905029297
0, 3, 79, 185.7435150146484
0, 3, 80, 191.2694244384766
0, 3, 81, 183.5073699951172
0, 3, 82, 180.1309661865234
0, 3, 83, 194.2776336669922
0, 3, 84, 199.5413970947266
0, 3, 85, 193.5
0, 3, 86, 204.1555023193359
0, 3, 87, 198.4880828857422
0, 3, 88, 192.2462463378906
0, 3, 89, 193.0543670654297
0, 3, 90, 173.5774230957031
0, 3, 91, 155.6231079101562
0, 3, 92, 206.8934173583984
0, 3, 93, 198.2060394287109
0, 3, 94, 194.4079132080078
0, 3, 95, 212.8057098388672
0, 3, 96, 210.0143280029297
0, 3, 97, 167.0826416015625
0, 3, 98, 166.6862640380859
0, 3, 99, 180.5594024658203
0, 3, 100, 176.7010192871094
0, 3, 101, 196.9978179931641
0, 3, 102, 194.9995727539062
0, 3, 103, 193.7475891113281
0, 3, 104, 202.6399688720703
0, 3, 105, 176.5082244873047
0, 3, 106, 181.2279510498047
0, 3, 107, 170.5365753173828
0, 3, 108, 109.0890045166016
0, 3, 109, 29.36665153503418
0, 3, 110, 7.31833553314209
0, 3, 111, 6.523523330688477
0, 3, 112, 2.926621437072754
0, 3, 113, 7.215362071990967
0, 3, 114, 4.371535301208496
0, 3, 115, 5.722479343414307
0, 3, 116, 6.853572845458984
0, 3, 117, 4.86421012878418
0, 3, 118, 2.715906858444214
0, 3, 119, 2.87732982635498
0, 3, 120, 3.819316148757935
0, 3, 121, 1.660454988479614
0, 3, 122, 5.296932220458984
0, 3, 123, 1.395072937011719
0, 3, 124, 1.837118983268738
0, 3, 125, 1.157020688056946
0, 3, 126, 1.480210661888123
0, 3, 127, 1.177739381790161
0, 4, 0, 2.734203815460205
0, 4, 1, 0.3741246461868286
0, 4, 2, 2.675816774368286
0, 4, 3, 5.013399600982666
0, 4, 4, 2.447267770767212
0, 4, 5, 1.012067079544067
0, 4, 6, 2.377290010452271
0, 4, 7, 2.476307153701782
0, 4, 8, 2.12884259223938
0, 4, 9, 5.076945304870605
0, 4, 10, 3.082236766815186
0, 4, 11, 3.644284725189209
0, 4, 12, 4.111923217773438
0, 4, 13, 5.070799827575684
0, 4, 14, 3.872227191925049
0, 4, 15, 8.791323661804199
0, 4, 16, 7.042593955993652
0, 4, 17, 12.53060340881348
0, 4, 18, 55.25960922241211
0, 4, 19, 151.3574676513672
0, 4, 20, 193.8503723144531
0, 4, 21, 172.3359222412109
0, 4, 22, 187.2614135742188
0, 4, 23, 195.5189361572266
0, 4, 24, 193.0435180664062
0, 4, 25, 200.5229949951172
0, 4, 26, 183.6054382324219
0, 4, 27, 190.6245727539062
0, 4, 28, 180.3569183349609
0, 4, 29, 206.8154296875
0, 4, 30, 195.9476165771484
0, 4, 31, 191.9785461425781
0, 4, 32, 210.1132202148438
0, 4, 33, 191.2506866455078
0, 4, 34, 192.8427124023438
0, 4, 35, 212.8382568359375
0, 4, 36, 193.4823913574219
0, 4, 37, 177.6807098388672
0, 4, 38, 193.6714630126953
0, 4, 39, 188.6756744384766
0, 4, 40, 185.9992065429688
0, 4, 41, 190.0249481201172
0, 4, 42, 205.5072784423828
0, 4, 43, 174.4009704589844
0, 4, 44, 183.6241607666016
0, 4, 45, 195.6812744140625
0, 4, 46, 185.4814605712891
0, 4, 47, 179.5702972412109
0, 4, 48, 184.9587707519531
0, 4, 49, 174.0937805175781
0, 4, 50, 186.1653137207031
0, 4, 51, 198.698974609375
0, 4, 52, 222.8535766601562
0, 4, 53, 207.0585479736328
0, 4, 54, 189.5156097412109
0, 4, 55, 174.496337890625
0, 4, 56, 190.8086090087891
0, 4, 57, 192.5110321044922
0, 4, 58, 187.8278503417969
0, 4, 59, 189.5425415039062
0, 4, 60, 195.0182952880859
0, 4, 61, 193.0376129150391
0, 4, 62, 189.2592163085938
0, 4, 63, 178.5508728027344
0, 4, 64, 211.0553588867188
0, 4, 65, 191.1243133544922
0, 4, 66, 200.9007568359375
0, 4, 67, 200.1497039794922
0, 4, 68, 200.8096466064453
0, 4, 69, 198.0229339599609
0, 4, 70, 205.9990081787109
0, 4, 71, 206.5920104980469
0, 4, 72, 215.9123687744141
0, 4, 73, 185.4729919433594
0, 4, 74, 181.0624389648438
0, 4, 75, 184.6949768066406
0, 4, 76, 190.0177459716797
0, 4, 77, 182.5669860839844
0, 4, 78, 194.8992004394531
0, 4, 79, 205.1037750244141
0, 4, 80, 211.0757598876953
0, 4, 81, 198.5580902099609
0, 4, 82, 181.1916809082031
0, 4, 83, 171.3084869384766
0, 4, 84, 192.5389404296875
0, 4, 85, 197.9801177978516
0, 4, 86, 180.4109954833984
0, 4, 87, 182.6773986816406
0, 4, 88, 204.5708923339844
0, 4, 89, 188.0272979736328
0, 4, 90, 211.6529693603516
0, 4, 91, 189.5461273193359
0, 4, 92, 196.0362396240234
0, 4, 93, 196.9899139404297
0, 4, 94, 182.7293090820312
0, 4, 95, 174.0394592285156
0, 4, 96, 189.9564361572266
0, 4, 97, 193.2246856689453
0, 4, 98, 200.9336090087891
0, 4, 99, 183.8538970947266
0, 4, 100, 182.3681335449219
0, 4, 101, 177.054931640625
0, 4, 102, 171.7399444580078
0, 4, 103, 185.0569763183594
0, 4, 104, 211.0137481689453
0, 4, 105, 189.4795379638672
0, 4, 106, 180.3816070556641
0, 4, 107, 181.4208374023438
0, 4, 108, 151.648193359375
0, 4, 109, 50.51202011108398
0, 4, 110, 10.73257350921631
0, 4, 111, 8.046479225158691
0, 4, 112, 7.219371318817139
0, 4, 113, 6.776814937591553
0, 4, 114, 5.076924800872803
0, 4, 115, 3.132760524749756
0, 4, 116, 4.686483860015869
0, 4, 117, 3.993787288665771
0, 4, 118, 3.492400169372559
0, 4, 119, 3.410557985305786
0, 4, 120, 2.265426397323608
0, 4, 121, 1.612018227577209
0, 4, 122, 2.361713886260986
0, 4, 123, 3.27030873298645
0, 4, 124, 5.12715482711792
0, 4, 125, 2.658714532852173
0, 4, 126, 2.023608684539795
0, 4, 127, 1.693631529808044
0, 5, 0, 1.937225222587585
0, 5, 1, 4.306039333343506
0, 5, 2, 5.162459850311279
0, 5, 3, 4.74681282043457
0, 5, 4, 3.292442321777344
0, 5, 5, 1.655685782432556
0, 5, 6, 3.463135480880737
0, 5, 7, 3.480934381484985
0, 5, 8, 1.761488437652588
0, 5, 9, 2.043434143066406
0, 5, 10, 3.207305669784546
0, 5, 11, 3.477077960968018
0, 5, 12, 5.855311393737793
0, 5, 13, 4.567544460296631
0, 5, 14, 5.407086849212646
0, 5, 15, 9.168371200561523
0, 5, 16, 8.519926071166992
0, 5, 17, 21.46679878234863
0, 5, 18, 84.79221343994141
0, 5, 19, 163.9924774169922
0, 5, 20, 183.4516754150391
0, 5, 21, 178.9185180664062
0, 5, 22, 170.1153717041016
0, 5, 23, 201.1949005126953
0, 5, 24, 186.7880859375
0, 5, 25, 208.000732421875
0, 5, 26, 183.1420288085938
0, 5, 27, 193.54248046875
0, 5, 28, 188.9606018066406
0, 5, 29, 195.5215301513672
0, 5, 30, 177.4658660888672
0, 5, 31, 180.5134887695312
0, 5, 32, 186.5206146240234
0, 5, 33, 168.3297119140625
0, 5, 34, 196.0545959472656
0, 5, 35, 196.4884643554688
0, 5, 36, 168.1916198730469
0, 5, 37, 197.5220031738281
0, 5, 38, 180.2992248535156
0, 5, 39, 185.7933807373047
0, 5, 40, 196.3858489990234
0, 5, 41, 176.9087829589844
0, 5, 42, 186.72998046875
0, 5, 43, 192.3993988037109
0, 5, 44, 199.4498596191406
0, 5, 45, 186.4601440429688
0, 5, 46, 192.7201690673828
0, 5, 47, 179.6473236083984
0, 5, 48, 177.7028503417969
0, 5, 49, 177.5629577636719
0, 5, 50, 186.2400360107422
0, 5, 51, 172.07421875
0, 5, 52, 168.6307525634766
0, 5, 53, 183.0193328857422
0, 5, 54, 172.2762451171875
0, 5, 55, 215.4087219238281
0, 5, 56, 182.4183502197266
0, 5, 57, 207.8863830566406
0, 5, 58, 181.1128845214844
0, 5, 59, 180.3324737548828
0, 5, 60, 218.4574584960938
0, 5, 61, 184.9212646484375
0, 5, 62, 179.5310974121094
0, 5, 63, 180.5376892089844
0, 5, 64, 195.6568603515625
0, 5, 65, 209.7213287353516
0, 5, 66, 191.9060363769531
0, 5, 67, 199.8941040039062
0, 5, 68, 188.6676940917969
0, 5, 69, 186.0422821044922
0, 5, 70, 185.1437072753906
0, 5, 71, 193.1190643310547
0, 5, 72, 197.3035278320312
0, 5, 73, 202.0942993164062
0, 5, 74, 178.8736724853516
0, 5, 75, 203.6607513427734
0, 5, 76, 214.0443115234375
0, 5, 77, 181.8376617431641
0, 5, 78, 195.7579803466797
0, 5, 79, 190.2572479248047
0, 5, 80, 197.7877502441406
0, 5, 81, 202.1349487304688
0, 5, 82, 201.3018493652344
0, 5, 83, 188.5126190185547
0, 5, 84, 206.6369171142578
0, 5, 85, 175.7667541503906
0, 5, 86, 194.8501434326172
0, 5, 87, 188.8376007080078
0, 5, 88, 177.2285614013672
0, 5, 89, 194.3427124023438
0, 5, 90, 200.1494598388672
0, 5, 91, 194.0260620117188
0, 5, 92, 190.9808502197266
0, 5, 93, 191.2542114257812
0, 5, 94, 207.5317840576172
0, 5, 95, 176.6992797851562
0, 5, 96, 182.3196411132812
0, 5, 97, 192.2388305664062
0, 5, 98, 188.4376068115234
0, 5, 99, 194.5822448730469
0, 5, 100, 185.7241973876953
0, 5, 101, 195.9128265380859
0, 5, 102, 180.9601745605469
0, 5, 103, 176.0400390625
0, 5, 104, 189.8242034912109
0, 5, 105, 189.8174285888672
0, 5, 106, 176.8952026367188
0, 5, 107, 181.5942077636719
0, 5, 108, 175.5977783203125
0, 5, 109, 88.12272644042969
0, 5, 110, 30.79540634155273
0, 5, 111, 9.859786987304688
0, 5, 112, 6.833643913269043
0, 5, 113, 5.977439880371094
0, 5, 114, 7.327304840087891
0, 5, 115, 6.571825504302979
0, 5, 116, 3.613174200057983
0, 5, 117, 3.241937398910522
0, 5, 118, 3.213881254196167
0, 5, 119, 2.710948467254639
0, 5, 120, 2.263582468032837
0, 5, 121, 1.356018662452698
0, 5, 122, 2.172865629196167
0, 5, 123, 3.506848812103271
0, 5, 124, 2.808607578277588
0, 5, 125, 1.188764572143555
0, 5, 126, 3.824690818786621
0, 5, 127, 2.173385620117188
0, 6, 0, 3.691863059997559
0, 6, 1, 3.583486318588257
0, 6, 2, 3.922505617141724
0, 6, 3, 1.658456683158875
0, 6, 4, 4.18193244934082
0, 6, 5, 5.295086860656738
0, 6, 6, 2.731631278991699
0, 6, 7, 3.563305616378784
0, 6, 8, 3.59328556060791
0, 6, 9, 3.125356197357178
0, 6, 10, 5.419571399688721
0, 6, 11, 3.617674350738525
0, 6, 12, 4.973894119262695
0, 6, 13, 5.517874240875244
0, 6, 14, 5.859009265899658
0, 6, 15, 6.291087627410889
0, 6, 16, 13.91825485229492
0, 6, 17, 28.14249992370605
0, 6, 18, 111.7288665771484
0, 6, 19, 191.8491516113281
0, 6, 20, 195.0686645507812
0, 6, 21, 197.9695434570312
0, 6, 22, 190.6017150878906
0, 6, 23, 191.1590728759766
0, 6, 24, 202.0444641113281
0, 6, 25, 183.9599914550781
0, 6, 26, 187.9641418457031
0, 6, 27, 193.1698760986328
0, 6, 28, 189.0826721191406
0, 6, 29, 210.3796997070312
0, 6, 30, 189.3659820556641
0, 6, 31, 193.9528198242188
0, 6, 32, 206.6825256347656
0, 6, 33, 184.28125
0, 6, 34, 196.4448089599609
0, 6, 35, 187.1407928466797
0, 6, 36, 180.1804504394531
0, 6, 37, 182.4728088378906
0, 6, 38, 187.411865234375
0, 6, 39, 196.1904907226562
0, 6, 40, 174.9273071289062
0, 6, 41, 184.9411315917969
0, 6, 42, 175.6071014404297
0, 6, 43, 208.6981964111328
0, 6, 44, 209.4911041259766
0, 6, 45, 193.2429656982422
0, 6, 46, 188.0363922119141
0, 6, 47, 204.017822265625
0, 6, 48, 190.0944671630859
0, 6, 49, 179.4463653564453
0, 6, 50, 182.4569702148438
0, 6, 51, 196.6115875244141
0, 6, 52, 197.3645324707031
0, 6, 53, 184.4318542480469
0, 6, 54, 175.4313507080078
0, 6, 55, 194.0323944091797
0, 6, 56, 202.6840362548828
0, 6, 57, 191.8400573730469
0, 6, 58, 177.9006500244141
0, 6, 59, 191.5811004638672
0, 6, 60, 184.2436065673828
0, 6, 61, 193.9197235107422
0, 6, 62, 196.4719085693359
0, 6, 63, 186.7346954345703
0, 6, 64, 169.0156555175781
0, 6, 65, 185.6241455078125
0, 6, 66, 197.0731353759766
0, 6, 67, 214.8655700683594
0, 6, 68, 180.5831909179688
0, 6, 69, 170.5407257080078
0, 6, 70, 188.7247619628906
0, 6, 71, 170.5170135498047
0, 6, 72, 175.344970703125
0, 6, 73, 176.2641143798828
0, 6, 74, 211.0110626220703
0, 6, 75, 228.4172973632812
0, 6, 76, 184.3427734375
0, 6, 77, 173.4588012695312
0, 6, 78, 175.3633422851562
0, 6, 79, 186.8567962646484
0, 6, 80, 188.0675811767578
0, 6, 81, 209.7170257568359
0, 6, 82, 196.9755096435547
0, 6, 83, 194.3663787841797
0, 6, 84, 198.1477661132812
0, 6, 85, 183.4550628662109
0, 6, 86, 201.3318481445312
0, 6, 87, 183.5239562988281
0, 6, 88, 191.4226226806641
0, 6, 89, 188.9697265625
0, 6, 90, 205.8875885009766
0, 6, 91, 199.7082977294922
0, 6, 92, 173.1862945556641
0, 6, 93, 192.2904510498047
0, 6, 94, 190.2002410888672
0, 6, 95, 185.7303161621094
0, 6, 96, 190.3950347900391
0, 6, 97, 192.7064208984375
0, 6, 98, 182.9466094970703
0, 6, 99, 174.5506134033203
0, 6, 100, 201.9839630126953
0, 6, 101, 169.5845489501953
0, 6, 102, 201.5918426513672
0, 6, 103, 197.2634429931641
0, 6, 104, 184.7978973388672
0, 6, 105, 194.2736968994141
0, 6, 106, 177.1454010009766
0, 6, 107, 194.2509765625
0, 6, 108, 170.7697906494141
0, 6, 109, 114.3884429931641
0, 6, 110, 33.06630706787109
0, 6, 111, 8.927685737609863
0, 6, 112, 8.58802604675293
0, 6, 113, 5.240498065948486
0, 6, 114, 6.233574390411377
0, 6, 115, 6.301796913146973
0, 6, 116, 5.372534275054932
0, 6, 117, 3.831473827362061
0, 6, 118, 3.477482795715332
0, 6, 119, 4.670571804046631
0, 6, 120, 2.739309549331665
0, 6, 121, 6.184623718261719
0, 6, 122, 2.933384656906128
0, 6, 123, 4.425115585327148
0, 6, 124, 1.564269542694092
0, 6, 125, 2.579664707183838
0, 6, 126, 2.181081533432007
0, 6, 127, 2.022318124771118
0, 7, 0, 2.409911870956421
0, 7, 1, 1.314957976341248
0, 7, 2, 3.042330265045166
0, 7, 3, 1.921404957771301
0, 7, 4, 1.762118935585022
0, 7, 5, 1.666150331497192
0, 7, 6, 3.606713771820068
0, 7, 7, 1.137060523033142
0, 7, 8, 3.232406616210938
0, 7, 9, 3.582333326339722
0, 7, 10, 5.382245540618896
0, 7, 11, 2.962337255477905
0, 7, 12, 4.018943309783936
0, 7, 13, 6.008136749267578
0, 7, 14, 6.505534172058105
0, 7, 15, 7.455334663391113
0, 7, 16, 14.51242733001709
0, 7, 17, 50.46627426147461
0, 7, 18, 161.3160705566406
0, 7, 19, 181.8477172851562
0, 7, 20, 178.2306365966797
0, 7, 21, 180.9536590576172
0, 7, 22, 192.3827209472656
0, 7, 23, 201.6513366699219
0, 7, 24, 178.5924224853516
0, 7, 25, 214.2000732421875
0, 7, 26, 189.0816345214844
0, 7, 27, 182.410888671875
0, 7, 28, 182.5459899902344
0, 7, 29, 209.8549041748047
0, 7, 30, 192.9098815917969
0, 7, 31, 176.3439331054688
0, 7, 32, 190.6458435058594
0, 7, 33, 183.2650451660156
0, 7, 34, 192.6671295166016
0, 7, 35, 197.910888671875
0, 7, 36, 188.7053985595703
0, 7, 37, 215.8189239501953
0, 7, 38, 191.3176116943359
0, 7, 39, 173.6519317626953
0, 7, 40, 183.236572265625
0, 7, 41, 184.7669219970703
0, 7, 42, 178.3153381347656
0, 7, 43, 177.2796325683594
0, 7, 44, 178.6266937255859
0, 7, 45, 174.123779296875
0, 7, 46, 187.911865234375
0, 7, 47, 196.7753295898438
0, 7, 48, 186.0254516601562
0, 7, 49, 199.3928985595703
0, 7, 50, 188.422607421875
0, 7, 51, 204.0364532470703
0, 7, 52, 203.7701263427734
0, 7, 53, 191.8639373779297
0, 7, 54, 194.6996459960938
0, 7, 55, 203.0841369628906
0, 7, 56, 183.4454956054688
0, 7, 57, 183.7192077636719
0, 7, 58, 194.6076507568359
0, 7, 59, 186.8331909179688
0, 7, 60, 204.5716400146484
0, 7, 61, 170.9852447509766
0, 7, 62, 204.4052429199219
0, 7, 63, 190.4335174560547
0, 7, 64, 200.1060333251953
0, 7, 65, 197.9860687255859
0, 7, 66, 207.5047149658203
0, 7, 67, 222.7702178955078
0, 7, 68, 163.4584808349609
0, 7, 69, 194.651123046875
0, 7, 70, 217.6591186523438
0, 7, 71, 184.5791931152344
0, 7, 72, 180.2148742675781
0, 7, 73, 176.5478363037109
0, 7, 74, 207.8138580322266
0, 7, 75, 206.3203125
0, 7, 76, 214.3450775146484
0, 7, 77, 172.9585723876953
0, 7, 78, 176.90283203125
0, 7, 79, 192.9003753662109
0, 7, 80, 195.5006256103516
0, 7, 81, 217.1456909179688
0, 7, 82, 186.7355651855469
0, 7, 83, 205.5848083496094
0, 7, 84, 193.3754425048828
0, 7, 85, 185.9163513183594
0, 7, 86, 199.8133239746094
0, 7, 87, 226.7971954345703
0, 7, 88, 195.4692687988281
0, 7, 89, 178.9915771484375
0, 7, 90, 183.1152801513672
0, 7, 91, 194.2476043701172
0, 7, 92, 194.487060546875
0, 7, 93, 197.6817169189453
0, 7, 94, 178.574951171875
0, 7, 95, 196.9506530761719
0, 7, 96, 208.2037658691406
0, 7, 97, 190.0260009765625
0, 7, 98, 176.8218078613281
0, 7, 99, 198.670166015625
0, 7, 100, 182.2208557128906
0, 7, 101, 199.6618194580078
0, 7, 102, 185.5287780761719
0, 7, 103, 180.4542541503906
0, 7, 104, 174.2119140625
0, 7, 105, 195.11669921875
0, 7, 106, 205.6714019775391
0, 7, 107, 174.2328796386719
0, 7, 108, 178.1731262207031
0, 7, 109, 137.7411651611328
0, 7, 110, 53.80791473388672
0, 7, 111, 8.562836647033691
0, 7, 112, 8.158306121826172
0, 7, 113, 9.331986427307129
0, 7, 114, 7.037620067596436
0, 7, 115, 5.509639739990234
0, 7, 116, 5.48097562789917
0, 7, 117, 3.414756536483765
0, 7, 118, 3.43335747718811
0, 7, 119, 2.884681224822998
0, 7, 120, 4.087948799133301
0, 7, 121, 1.928295493125916
0, 7, 122, 3.186303853988647
0, 7, 123, 0.9942494034767151
0, 7, 124, 1.793275475502014
0, 7, 125, 2.06039023399353
0, 7, 126, 1.981014370918274
0, 7, 127, 1.100001692771912
0, 8, 0, 4.176299095153809
0, 8, 1, 3.091348171234131
0, 8, 2, 3.313226938247681
0, 8, 3, 2.188833475112915
0, 8, 4, 2.148856163024902
0, 8, 5, 2.780392169952393
0, 8, 6, 1.832036137580872
0, 8, 7, 2.73451566696167
0, 8, 8, 4.532018184661865
0, 8, 9, 4.285387516021729
0, 8, 10, 1.747201085090637
0, 8, 11, 3.600662231445312
0, 8, 12, 3.878541231155396
0, 8, 13, 5.277137756347656
0, 8, 14, 5.712449073791504
0, 8, 15, 8.314630508422852
0, 8, 16, 20.53929901123047
0, 8, 17, 75.58275604248047
0, 8, 18, 142.62353515625
0, 8, 19, 179.0437622070312
0, 8, 20, 192.0744781494141
0, 8, 21, 193.7659759521484
0, 8, 22, 179.4436645507812
0, 8, 23, 174.3008575439453
0, 8, 24, 191.7407379150391
0, 8, 25, 185.423828125
0, 8, 26, 192.8930206298828
0, 8, 27, 187.2032775878906
0, 8, 28, 185.5971069335938
0, 8, 29, 206.7476196289062
0, 8, 30, 197.6490631103516
0, 8, 31, 182.8193359375
0, 8, 32, 197.6855163574219
0, 8, 33, 206.2819519042969
0, 8, 34, 202.7435607910156
0, 8, 35, 185.9229431152344
0, 8, 36, 181.9223327636719
0, 8, 37, 199.6992492675781
0, 8, 38, 197.4056091308594
