# TOPAS Version: 3.1.p3
# Parameter File: batch_inserts_250.txt
# Results for scorer Readout_Adipose
# Scored in component: MyBox
# X in 1 bin  of 0.65 cm
# Y in 512 bins of 0.0783984 cm
# Z in 128 bins of 0.078125 cm
# EnergyDeposit ( MeV ) : Sum   
0, 0, 0, 1.811918020248413
0, 0, 1, 3.209269285202026
0, 0, 2, 0.7717241048812866
0, 0, 3, 0.980834424495697
0, 0, 4, 1.810304999351501
0, 0, 5, 0.5013653635978699
0, 0, 6, 1.911521315574646
0, 0, 7, 2.083224773406982
0, 0, 8, 1.460702776908875
0, 0, 9, 2.869705438613892
0, 0, 10, 1.46932590007782
0, 0, 11, 3.131829738616943
0, 0, 12, 4.656723022460938
0, 0, 13, 2.073189496994019
0, 0, 14, 4.923636436462402
0, 0, 15, 5.480579853057861
0, 0, 16, 4.07916784286499
0, 0, 17, 6.319279670715332
0, 0, 18, 6.538585186004639
0, 0, 19, 24.70767402648926
0, 0, 20, 93.49407196044922
0, 0, 21, 152.8868255615234
0, 0, 22, 155.3929595947266
0, 0, 23, 144.2420501708984
0, 0, 24, 159.5476531982422
0, 0, 25, 167.0188598632812
0, 0, 26, 167.6900939941406
0, 0, 27, 174.0973815917969
0, 0, 28, 177.6327514648438
0, 0, 29, 174.8334197998047
0, 0, 30, 174.1525421142578
0, 0, 31, 167.3047943115234
0, 0, 32, 165.9484405517578
0, 0, 33, 167.509033203125
0, 0, 34, 178.2120819091797
0, 0, 35, 176.5150604248047
0, 0, 36, 158.6340637207031
0, 0, 37, 161.0903015136719
0, 0, 38, 166.3052062988281
0, 0, 39, 161.0009918212891
0, 0, 40, 164.1842498779297
0, 0, 41, 165.7120971679688
0, 0, 42, 143.1815643310547
0, 0, 43, 170.3250427246094
0, 0, 44, 178.0089721679688
0, 0, 45, 172.9011993408203
0, 0, 46, 166.1470184326172
0, 0, 47, 166.8742370605469
0, 0, 48, 168.9624786376953
0, 0, 49, 183.0538177490234
0, 0, 50, 169.1215515136719
0, 0, 51, 161.1731414794922
0, 0, 52, 163.9849395751953
0, 0, 53, 171.9614715576172
0, 0, 54, 159.5824737548828
0, 0, 55, 164.8880004882812
0, 0, 56, 188.7197265625
0, 0, 57, 170.5555114746094
0, 0, 58, 161.5286865234375
0, 0, 59, 171.9028015136719
0, 0, 60, 169.6205139160156
0, 0, 61, 171.6668395996094
0, 0, 62, 182.5461273193359
0, 0, 63, 168.7197723388672
0, 0, 64, 163.8998718261719
0, 0, 65, 174.9118041992188
0, 0, 66, 178.0313262939453
0, 0, 67, 164.7866516113281
0, 0, 68, 158.3411407470703
0, 0, 69, 158.6070861816406
0, 0, 70, 169.8278350830078
0, 0, 71, 158.5546112060547
0, 0, 72, 160.8748321533203
0, 0, 73, 171.857421875
0, 0, 74, 162.9553375244141
0, 0, 75, 163.5052490234375
0, 0, 76, 163.0659332275391
0, 0, 77, 171.9550170898438
0, 0, 78, 181.3771362304688
0, 0, 79, 175.0908050537109
0, 0, 80, 160.3337097167969
0, 0, 81, 160.8178863525391
0, 0, 82, 184.0208740234375
0, 0, 83, 173.3332672119141
0, 0, 84, 160.3683471679688
0, 0, 85, 181.0310974121094
0, 0, 86, 158.70751953125
0, 0, 87, 176.5992584228516
0, 0, 88, 175.6444244384766
0, 0, 89, 178.058837890625
0, 0, 90, 161.7179718017578
0, 0, 91, 184.9112091064453
0, 0, 92, 164.57421875
0, 0, 93, 155.8828887939453
0, 0, 94, 168.9850311279297
0, 0, 95, 174.4138488769531
0, 0, 96, 184.8251647949219
0, 0, 97, 183.7466888427734
0, 0, 98, 185.5092468261719
0, 0, 99, 170.7155456542969
0, 0, 100, 159.4365539550781
0, 0, 101, 166.5746612548828
0, 0, 102, 171.2251129150391
0, 0, 103, 171.4313201904297
0, 0, 104, 169.8418884277344
0, 0, 105, 177.7844696044922
0, 0, 106, 159.4312591552734
0, 0, 107, 86.14839935302734
0, 0, 108, 21.7149829864502
0, 0, 109, 9.966642379760742
0, 0, 110, 5.83549976348877
0, 0, 111, 6.398998737335205
0, 0, 112, 3.835544347763062
0, 0, 113, 3.22676682472229
0, 0, 114, 3.387277841567993
0, 0, 115, 1.776813983917236
0, 0, 116, 2.334217071533203
0, 0, 117, 3.080130577087402
0, 0, 118, 3.499558448791504
0, 0, 119, 3.518138885498047
0, 0, 120, 1.929581522941589
0, 0, 121, 4.543553829193115
0, 0, 122, 3.690922975540161
0, 0, 123, 3.468229293823242
0, 0, 124, 1.117583990097046
0, 0, 125, 2.628283500671387
0, 0, 126, 1.036680698394775
0, 0, 127, 2.479556083679199
0, 1, 0, 0.9550294876098633
0, 1, 1, 4.358933448791504
0, 1, 2, 3.800664186477661
0, 1, 3, 1.376239418983459
0, 1, 4, 1.240533590316772
0, 1, 5, 2.043813943862915
0, 1, 6, 1.372960209846497
0, 1, 7, 2.954826593399048
0, 1, 8, 2.630696058273315
0, 1, 9, 1.141886949539185
0, 1, 10, 1.744996786117554
0, 1, 11, 4.628368854522705
0, 1, 12, 3.006963014602661
0, 1, 13, 5.299186229705811
0, 1, 14, 4.883975505828857
0, 1, 15, 6.524709701538086
0, 1, 16, 7.516498565673828
0, 1, 17, 5.977976322174072
0, 1, 18, 12.11624145507812
0, 1, 19, 41.03174591064453
0, 1, 20, 126.6600036621094
0, 1, 21, 176.9229583740234
0, 1, 22, 193.5003051757812
0, 1, 23, 185.4933776855469
0, 1, 24, 181.2207946777344
0, 1, 25, 193.1540832519531
0, 1, 26, 197.4601135253906
0, 1, 27, 186.0352325439453
0, 1, 28, 188.5046539306641
0, 1, 29, 184.3696441650391
0, 1, 30, 178.9025421142578
0, 1, 31, 181.0885009765625
0, 1, 32, 189.5062561035156
0, 1, 33, 190.9037475585938
0, 1, 34, 184.3368072509766
0, 1, 35, 192.6934204101562
0, 1, 36, 205.9894561767578
0, 1, 37, 184.8824157714844
0, 1, 38, 164.95849609375
0, 1, 39, 172.6153259277344
0, 1, 40, 179.1703643798828
0, 1, 41, 184.9874267578125
0, 1, 42, 182.3751373291016
0, 1, 43, 185.4515686035156
0, 1, 44, 167.9234619140625
0, 1, 45, 187.6932220458984
0, 1, 46, 170.3029632568359
0, 1, 47, 185.3333435058594
0, 1, 48, 186.1171875
0, 1, 49, 186.67431640625
0, 1, 50, 177.8122100830078
0, 1, 51, 191.6695098876953
0, 1, 52, 195.3656616210938
0, 1, 53, 195.9701690673828
0, 1, 54, 185.2009735107422
0, 1, 55, 164.5695953369141
0, 1, 56, 178.8467407226562
0, 1, 57, 178.4043579101562
0, 1, 58, 189.0039825439453
0, 1, 59, 193.4031219482422
0, 1, 60, 190.1484985351562
0, 1, 61, 178.0460968017578
0, 1, 62, 205.0500335693359
0, 1, 63, 174.9220428466797
0, 1, 64, 173.7846069335938
0, 1, 65, 185.0302429199219
0, 1, 66, 203.5619049072266
0, 1, 67, 185.2279052734375
0, 1, 68, 187.3315582275391
0, 1, 69, 189.2666015625
0, 1, 70, 186.3492126464844
0, 1, 71, 171.3234558105469
0, 1, 72, 188.2264556884766
0, 1, 73, 191.0754089355469
0, 1, 74, 201.1347045898438
0, 1, 75, 184.5122985839844
0, 1, 76, 174.9278411865234
0, 1, 77, 193.2909240722656
0, 1, 78, 189.7417449951172
0, 1, 79, 202.0704345703125
0, 1, 80, 186.7324523925781
0, 1, 81, 176.0958862304688
0, 1, 82, 207.2906646728516
0, 1, 83, 212.3698577880859
0, 1, 84, 180.5985260009766
0, 1, 85, 169.9328308105469
0, 1, 86, 168.5293884277344
0, 1, 87, 184.5258178710938
0, 1, 88, 175.0124816894531
0, 1, 89, 186.4424438476562
0, 1, 90, 212.7992248535156
0, 1, 91, 182.4458923339844
0, 1, 92, 185.0380706787109
0, 1, 93, 180.5245513916016
0, 1, 94, 185.1079254150391
0, 1, 95, 184.1381530761719
0, 1, 96, 196.3342895507812
0, 1, 97, 182.5882568359375
0, 1, 98, 186.3334045410156
0, 1, 99, 175.4332733154297
0, 1, 100, 170.9150085449219
0, 1, 101, 177.5503234863281
0, 1, 102, 182.2543029785156
0, 1, 103, 172.6222381591797
0, 1, 104, 190.3074188232422
0, 1, 105, 182.0728302001953
0, 1, 106, 164.411376953125
0, 1, 107, 123.3362274169922
0, 1, 108, 47.24392700195312
0, 1, 109, 10.23645305633545
0, 1, 110, 8.99889087677002
0, 1, 111, 6.58189868927002
0, 1, 112, 7.319061279296875
0, 1, 113, 6.674020767211914
0, 1, 114, 4.65582799911499
0, 1, 115, 2.967451095581055
0, 1, 116, 3.533356666564941
0, 1, 117, 3.11298131942749
0, 1, 118, 3.443516969680786
0, 1, 119, 1.461965560913086
0, 1, 120, 4.567421436309814
0, 1, 121, 3.562518358230591
0, 1, 122, 2.458762645721436
0, 1, 123, 2.926426887512207
0, 1, 124, 2.014945030212402
0, 1, 125, 2.85147500038147
0, 1, 126, 1.63068687915802
0, 1, 127, 1.80964732170105
0, 2, 0, 0.6980399489402771
0, 2, 1, 2.096093893051147
0, 2, 2, 2.406885862350464
0, 2, 3, 2.401778936386108
0, 2, 4, 2.268526077270508
0, 2, 5, 1.370266795158386
0, 2, 6, 3.122162818908691
0, 2, 7, 1.666089773178101
0, 2, 8, 1.030102729797363
0, 2, 9, 2.092235326766968
0, 2, 10, 6.479344367980957
0, 2, 11, 3.531992673873901
0, 2, 12, 4.012652397155762
0, 2, 13, 3.166368722915649
0, 2, 14, 4.753793716430664
0, 2, 15, 4.819492340087891
0, 2, 16, 5.994361877441406
0, 2, 17, 9.938687324523926
0, 2, 18, 14.3009147644043
0, 2, 19, 77.21382141113281
0, 2, 20, 162.0162200927734
0, 2, 21, 184.1963348388672
0, 2, 22, 194.2633056640625
0, 2, 23, 183.1689300537109
0, 2, 24, 173.9620361328125
0, 2, 25, 184.1407470703125
0, 2, 26, 178.6746215820312
0, 2, 27, 189.2987518310547
0, 2, 28, 171.59228515625
0, 2, 29, 168.4736633300781
0, 2, 30, 185.8108673095703
0, 2, 31, 182.8669738769531
0, 2, 32, 184.0075836181641
0, 2, 33, 189.9014282226562
0, 2, 34, 197.6414031982422
0, 2, 35, 181.4206237792969
0, 2, 36, 186.0323028564453
0, 2, 37, 181.0414428710938
0, 2, 38, 186.3878936767578
0, 2, 39, 166.4869689941406
0, 2, 40, 183.6874542236328
0, 2, 41, 184.6899719238281
0, 2, 42, 191.0603942871094
0, 2, 43, 193.6145629882812
0, 2, 44, 190.8926696777344
0, 2, 45, 190.2571563720703
0, 2, 46, 195.8477935791016
0, 2, 47, 189.5704803466797
0, 2, 48, 176.8356781005859
0, 2, 49, 197.8252716064453
0, 2, 50, 168.0868682861328
0, 2, 51, 184.9532165527344
0, 2, 52, 186.3208160400391
0, 2, 53, 195.5010681152344
0, 2, 54, 175.2671051025391
0, 2, 55, 173.5583190917969
0, 2, 56, 181.7395324707031
0, 2, 57, 199.6857757568359
0, 2, 58, 187.0339965820312
0, 2, 59, 190.3523712158203
0, 2, 60, 196.4228668212891
0, 2, 61, 193.4193267822266
0, 2, 62, 190.2556304931641
0, 2, 63, 169.4423522949219
0, 2, 64, 188.9675140380859
0, 2, 65, 202.3010559082031
0, 2, 66, 196.1675567626953
0, 2, 67, 184.2423706054688
0, 2, 68, 182.3970184326172
0, 2, 69, 187.9387817382812
0, 2, 70, 203.2951965332031
0, 2, 71, 174.4182281494141
0, 2, 72, 186.4069671630859
0, 2, 73, 177.4471588134766
0, 2, 74, 180.2880401611328
0, 2, 75, 196.2018127441406
0, 2, 76, 184.4251861572266
0, 2, 77, 178.3790588378906
0, 2, 78, 197.3231811523438
0, 2, 79, 179.4279479980469
0, 2, 80, 186.7456512451172
0, 2, 81, 186.5736694335938
0, 2, 82, 205.3714599609375
0, 2, 83, 205.7838134765625
0, 2, 84, 188.6006011962891
0, 2, 85, 171.3617553710938
0, 2, 86, 195.1047058105469
0, 2, 87, 173.6008148193359
0, 2, 88, 178.4878234863281
0, 2, 89, 185.6660919189453
0, 2, 90, 177.8969421386719
0, 2, 91, 173.0264282226562
0, 2, 92, 196.2568969726562
0, 2, 93, 194.062255859375
0, 2, 94, 201.1258392333984
0, 2, 95, 193.0244750976562
0, 2, 96, 186.9959411621094
0, 2, 97, 172.4636688232422
0, 2, 98, 173.8231353759766
0, 2, 99, 164.3410339355469
0, 2, 100, 187.7190399169922
0, 2, 101, 195.7967071533203
0, 2, 102, 175.9412689208984
0, 2, 103, 199.8361358642578
0, 2, 104, 187.4584350585938
0, 2, 105, 202.3293304443359
0, 2, 106, 193.9017333984375
0, 2, 107, 151.4270172119141
0, 2, 108, 80.93174743652344
0, 2, 109, 17.68001556396484
0, 2, 110, 8.815667152404785
0, 2, 111, 6.268574714660645
0, 2, 112, 5.766594886779785
0, 2, 113, 4.779825210571289
0, 2, 114, 6.956003665924072
0, 2, 115, 4.485311508178711
0, 2, 116, 1.994373679161072
0, 2, 117, 1.52999472618103
0, 2, 118, 2.576453447341919
0, 2, 119, 2.118320465087891
0, 2, 120, 2.067106485366821
0, 2, 121, 4.830322265625
0, 2, 122, 0.8603102564811707
0, 2, 123, 3.223973512649536
0, 2, 124, 2.054950714111328
0, 2, 125, 1.669420480728149
0, 2, 126, 3.673181772232056
0, 2, 127, 0.8073809146881104
0, 3, 0, 1.606307506561279
0, 3, 1, 1.499192595481873
0, 3, 2, 1.219745397567749
0, 3, 3, 1.200191617012024
0, 3, 4, 4.290871143341064
0, 3, 5, 2.011189699172974
0, 3, 6, 3.810537338256836
0, 3, 7, 1.754104375839233
0, 3, 8, 1.734953284263611
0, 3, 9, 1.418457984924316
0, 3, 10, 2.491486310958862
0, 3, 11, 3.831703186035156
0, 3, 12, 4.528778553009033
0, 3, 13, 3.666111469268799
0, 3, 14, 3.479074001312256
0, 3, 15, 9.114087104797363
0, 3, 16, 7.353393077850342
0, 3, 17, 5.922891139984131
0, 3, 18, 31.8013801574707
0, 3, 19, 116.1398010253906
0, 3, 20, 179.7203521728516
0, 3, 21, 173.6894836425781
0, 3, 22, 177.9814453125
0, 3, 23, 187.8884887695312
0, 3, 24, 177.7754058837891
0, 3, 25, 168.3609924316406
0, 3, 26, 180.6727752685547
0, 3, 27, 189.8863220214844
0, 3, 28, 183.3772888183594
0, 3, 29, 198.7775268554688
0, 3, 30, 185.2180328369141
0, 3, 31, 194.0996398925781
0, 3, 32, 206.8122100830078
0, 3, 33, 195.8716888427734
0, 3, 34, 189.4753112792969
0, 3, 35, 173.3285827636719
0, 3, 36, 185.7001190185547
0, 3, 37, 200.4410552978516
0, 3, 38, 191.2568359375
0, 3, 39, 185.8584594726562
0, 3, 40, 166.40966796875
0, 3, 41, 175.2994537353516
0, 3, 42, 184.6866607666016
0, 3, 43, 181.3561859130859
0, 3, 44, 202.8079376220703
0, 3, 45, 209.0875701904297
0, 3, 46, 199.1510772705078
0, 3, 47, 194.8421936035156
0, 3, 48, 195.0117950439453
0, 3, 49, 179.7940521240234
0, 3, 50, 186.75146484375
0, 3, 51, 173.8356018066406
0, 3, 52, 189.0315246582031
0, 3, 53, 178.3521270751953
0, 3, 54, 178.7307586669922
0, 3, 55, 176.2929992675781
0, 3, 56, 182.2745361328125
0, 3, 57, 175.5992584228516
0, 3, 58, 202.0439300537109
0, 3, 59, 195.4780120849609
0, 3, 60, 186.6711120605469
0, 3, 61, 181.2361907958984
0, 3, 62, 183.7791748046875
0, 3, 63, 185.9263305664062
0, 3, 64, 191.8849182128906
0, 3, 65, 188.2921447753906
0, 3, 66, 175.1577758789062
0, 3, 67, 190.6725006103516
0, 3, 68, 211.3656921386719
0, 3, 69, 190.1708374023438
0, 3, 70, 186.0248870849609
0, 3, 71, 197.4153289794922
0, 3, 72, 186.6325988769531
0, 3, 73, 187.5157928466797
0, 3, 74, 192.8786468505859
0, 3, 75, 192.1471710205078
0, 3, 76, 190.3761444091797
0, 3, 77, 197.6442260742188
0, 3, 78, 188.5911102294922
0, 3, 79, 185.9433135986328
0, 3, 80, 189.2154693603516
0, 3, 81, 183.5026397705078
0, 3, 82, 179.2631530761719
0, 3, 83, 194.4978485107422
0, 3, 84, 199.7322235107422
0, 3, 85, 193.5206756591797
0, 3, 86, 203.9035186767578
0, 3, 87, 197.2130889892578
0, 3, 88, 192.9787445068359
0, 3, 89, 194.1192932128906
0, 3, 90, 173.5010375976562
0, 3, 91, 156.3533477783203
0, 3, 92, 206.1111602783203
0, 3, 93, 196.51220703125
0, 3, 94, 195.5288696289062
0, 3, 95, 211.2966613769531
0, 3, 96, 207.9054718017578
0, 3, 97, 167.8888092041016
0, 3, 98, 166.8379669189453
0, 3, 99, 179.8422393798828
0, 3, 100, 177.7105560302734
0, 3, 101, 197.4368133544922
0, 3, 102, 195.5949859619141
0, 3, 103, 192.8269653320312
0, 3, 104, 202.9889984130859
0, 3, 105, 174.9746856689453
0, 3, 106, 183.0551452636719
0, 3, 107, 169.9583587646484
0, 3, 108, 108.3740615844727
0, 3, 109, 27.9908332824707
0, 3, 110, 7.657912254333496
0, 3, 111, 7.225123882293701
0, 3, 112, 3.387088060379028
0, 3, 113, 7.410940170288086
0, 3, 114, 4.544600963592529
0, 3, 115, 5.175520420074463
0, 3, 116, 6.167515754699707
0, 3, 117, 3.899131774902344
0, 3, 118, 3.060856342315674
0, 3, 119, 3.204528093338013
0, 3, 120, 4.341559410095215
0, 3, 121, 2.325263977050781
0, 3, 122, 2.214431762695312
0, 3, 123, 2.640218019485474
0, 3, 124, 2.546693563461304
0, 3, 125, 2.330791473388672
0, 3, 126, 2.950868844985962
0, 3, 127, 1.603501677513123
0, 4, 0, 1.974565863609314
0, 4, 1, 0.7459308505058289
0, 4, 2, 1.854177355766296
0, 4, 3, 3.417364358901978
0, 4, 4, 1.549023985862732
0, 4, 5, 1.33578884601593
0, 4, 6, 2.426090717315674
0, 4, 7, 2.730432271957397
0, 4, 8, 1.566097259521484
0, 4, 9, 1.512747764587402
0, 4, 10, 3.605706453323364
0, 4, 11, 3.553477048873901
0, 4, 12, 3.555402994155884
0, 4, 13, 6.334144592285156
0, 4, 14, 4.177234172821045
0, 4, 15, 8.664533615112305
0, 4, 16, 6.080499172210693
0, 4, 17, 11.15478801727295
0, 4, 18, 55.67023849487305
0, 4, 19, 151.6899261474609
0, 4, 20, 193.2274932861328
0, 4, 21, 169.6043548583984
0, 4, 22, 187.3280487060547
0, 4, 23, 195.9886322021484
0, 4, 24, 192.5377197265625
0, 4, 25, 199.6854553222656
0, 4, 26, 182.8544769287109
0, 4, 27, 190.1418914794922
0, 4, 28, 180.0799865722656
0, 4, 29, 205.3126678466797
0, 4, 30, 195.3942565917969
0, 4, 31, 193.0228576660156
0, 4, 32, 209.0890045166016
0, 4, 33, 190.0817108154297
0, 4, 34, 192.7633514404297
0, 4, 35, 213.8372192382812
0, 4, 36, 192.6243286132812
0, 4, 37, 176.5584411621094
0, 4, 38, 193.6196594238281
0, 4, 39, 189.6864166259766
0, 4, 40, 185.0846862792969
0, 4, 41, 189.6005706787109
0, 4, 42, 205.3561553955078
0, 4, 43, 173.4194793701172
0, 4, 44, 183.36669921875
0, 4, 45, 196.0387115478516
0, 4, 46, 185.5275573730469
0, 4, 47, 179.0890655517578
0, 4, 48, 184.9974822998047
0, 4, 49, 175.70458984375
0, 4, 50, 186.7945251464844
0, 4, 51, 198.1821594238281
0, 4, 52, 222.78564453125
0, 4, 53, 205.9090576171875
0, 4, 54, 189.5417633056641
0, 4, 55, 176.1025085449219
0, 4, 56, 190.8219604492188
0, 4, 57, 190.7182464599609
0, 4, 58, 188.2162628173828
0, 4, 59, 189.1834716796875
0, 4, 60, 195.9978637695312
0, 4, 61, 193.3893585205078
0, 4, 62, 189.8090209960938
0, 4, 63, 179.2521820068359
0, 4, 64, 210.8557891845703
0, 4, 65, 191.0902404785156
0, 4, 66, 200.1362609863281
0, 4, 67, 198.7981109619141
0, 4, 68, 203.1359405517578
0, 4, 69, 200.6195831298828
0, 4, 70, 204.467529296875
0, 4, 71, 206.4462432861328
0, 4, 72, 215.8591003417969
0, 4, 73, 186.7560272216797
0, 4, 74, 180.9228363037109
0, 4, 75, 184.4699554443359
0, 4, 76, 190.9726715087891
0, 4, 77, 183.4098663330078
0, 4, 78, 194.9790496826172
0, 4, 79, 203.8695220947266
0, 4, 80, 211.7715301513672
0, 4, 81, 199.3389282226562
0, 4, 82, 182.1796875
0, 4, 83, 169.7565155029297
0, 4, 84, 192.6737365722656
0, 4, 85, 196.2378997802734
0, 4, 86, 181.0697021484375
0, 4, 87, 183.1862030029297
0, 4, 88, 204.657470703125
0, 4, 89, 187.4596557617188
0, 4, 90, 211.8090515136719
0, 4, 91, 189.3325805664062
0, 4, 92, 197.6554412841797
0, 4, 93, 198.3240814208984
0, 4, 94, 182.8641662597656
0, 4, 95, 175.4072418212891
0, 4, 96, 191.2804870605469
0, 4, 97, 194.4530639648438
0, 4, 98, 200.5415649414062
0, 4, 99, 183.7216186523438
0, 4, 100, 181.9723358154297
0, 4, 101, 178.4251861572266
0, 4, 102, 174.1390533447266
0, 4, 103, 185.3398132324219
0, 4, 104, 209.6930999755859
0, 4, 105, 190.1256866455078
0, 4, 106, 180.1441040039062
0, 4, 107, 181.4946136474609
0, 4, 108, 151.6091003417969
0, 4, 109, 49.90379333496094
0, 4, 110, 10.93204212188721
0, 4, 111, 7.852405548095703
0, 4, 112, 5.911708831787109
0, 4, 113, 5.911868572235107
0, 4, 114, 5.077522277832031
0, 4, 115, 3.868054389953613
0, 4, 116, 4.291215419769287
0, 4, 117, 2.959390640258789
0, 4, 118, 3.043163299560547
0, 4, 119, 5.172759056091309
0, 4, 120, 2.861258745193481
0, 4, 121, 1.29234790802002
0, 4, 122, 1.921117186546326
0, 4, 123, 1.490166544914246
0, 4, 124, 3.8667311668396
0, 4, 125, 3.499631643295288
0, 4, 126, 1.788956165313721
0, 4, 127, 3.023990631103516
0, 5, 0, 1.947899460792542
0, 5, 1, 3.3053297996521
0, 5, 2, 5.302754402160645
0, 5, 3, 3.854994535446167
0, 5, 4, 2.530981063842773
0, 5, 5, 2.101203203201294
0, 5, 6, 2.799981355667114
0, 5, 7, 2.544861555099487
0, 5, 8, 1.771524786949158
0, 5, 9, 2.374720096588135
0, 5, 10, 4.798862934112549
0, 5, 11, 3.228002309799194
0, 5, 12, 5.83317232131958
0, 5, 13, 3.396962404251099
0, 5, 14, 4.673449993133545
0, 5, 15, 9.600828170776367
0, 5, 16, 7.273630619049072
0, 5, 17, 21.61859321594238
0, 5, 18, 82.76588439941406
0, 5, 19, 163.5926208496094
0, 5, 20, 183.4905853271484
0, 5, 21, 177.2284698486328
0, 5, 22, 171.2086029052734
0, 5, 23, 201.0325775146484
0, 5, 24, 186.6800537109375
0, 5, 25, 206.7454223632812
0, 5, 26, 183.5666351318359
0, 5, 27, 194.6551361083984
0, 5, 28, 189.5579681396484
0, 5, 29, 195.6447448730469
0, 5, 30, 177.9168853759766
0, 5, 31, 179.9809112548828
0, 5, 32, 187.0023193359375
0, 5, 33, 169.2762451171875
0, 5, 34, 194.4195251464844
0, 5, 35, 197.5199890136719
0, 5, 36, 167.8022003173828
0, 5, 37, 197.0087890625
0, 5, 38, 180.7440338134766
0, 5, 39, 187.9303588867188
0, 5, 40, 196.9480438232422
0, 5, 41, 177.5223541259766
0, 5, 42, 187.2128448486328
0, 5, 43, 192.2658386230469
0, 5, 44, 199.8316040039062
0, 5, 45, 185.9451751708984
0, 5, 46, 192.7113189697266
0, 5, 47, 181.7290954589844
0, 5, 48, 178.9882659912109
0, 5, 49, 177.6869812011719
0, 5, 50, 187.8777770996094
0, 5, 51, 171.5861968994141
0, 5, 52, 167.6530609130859
0, 5, 53, 182.4285278320312
0, 5, 54, 172.9987945556641
0, 5, 55, 215.5825958251953
0, 5, 56, 181.5333251953125
0, 5, 57, 208.4996032714844
0, 5, 58, 180.8240509033203
0, 5, 59, 180.6788177490234
0, 5, 60, 218.5905151367188
0, 5, 61, 184.2854614257812
0, 5, 62, 179.1460113525391
0, 5, 63, 179.9759063720703
0, 5, 64, 195.2418518066406
0, 5, 65, 209.8878631591797
0, 5, 66, 191.9589080810547
0, 5, 67, 201.6066436767578
0, 5, 68, 186.1580047607422
0, 5, 69, 186.3753051757812
0, 5, 70, 185.0731658935547
0, 5, 71, 192.5500183105469
0, 5, 72, 197.4664306640625
0, 5, 73, 201.6311492919922
0, 5, 74, 179.0277557373047
0, 5, 75, 202.4563751220703
0, 5, 76, 213.7786712646484
0, 5, 77, 179.8663635253906
0, 5, 78, 193.89501953125
0, 5, 79, 189.9030151367188
0, 5, 80, 197.5827331542969
0, 5, 81, 202.3030548095703
0, 5, 82, 201.0579376220703
0, 5, 83, 188.7634582519531
0, 5, 84, 205.0307159423828
0, 5, 85, 176.0937347412109
0, 5, 86, 194.8553466796875
0, 5, 87, 188.2492218017578
0, 5, 88, 177.6038970947266
0, 5, 89, 193.8970947265625
0, 5, 90, 198.4768371582031
0, 5, 91, 194.5588989257812
0, 5, 92, 191.0435943603516
0, 5, 93, 189.1078033447266
0, 5, 94, 207.1857452392578
0, 5, 95, 177.0604705810547
0, 5, 96, 181.8055572509766
0, 5, 97, 191.4492340087891
0, 5, 98, 189.1125793457031
0, 5, 99, 194.6470336914062
0, 5, 100, 185.8479461669922
0, 5, 101, 197.4695434570312
0, 5, 102, 181.9997253417969
0, 5, 103, 176.3398895263672
0, 5, 104, 190.3359069824219
0, 5, 105, 189.8887329101562
0, 5, 106, 176.9618835449219
0, 5, 107, 181.7123413085938
0, 5, 108, 177.1226348876953
0, 5, 109, 90.4381103515625
0, 5, 110, 30.52264976501465
0, 5, 111, 10.66057300567627
0, 5, 112, 6.900455951690674
0, 5, 113, 8.71026611328125
0, 5, 114, 7.184012889862061
0, 5, 115, 6.880341529846191
0, 5, 116, 4.521560192108154
0, 5, 117, 2.815590858459473
0, 5, 118, 3.29951810836792
0, 5, 119, 5.772647380828857
0, 5, 120, 1.463036894798279
0, 5, 121, 2.411539316177368
0, 5, 122, 2.853257894515991
0, 5, 123, 6.340219020843506
0, 5, 124, 4.542942523956299
0, 5, 125, 1.624159336090088
0, 5, 126, 2.740631580352783
0, 5, 127, 2.105162143707275
0, 6, 0, 4.361171245574951
0, 6, 1, 3.516876220703125
0, 6, 2, 4.7098069190979
0, 6, 3, 1.904067754745483
0, 6, 4, 3.810261249542236
0, 6, 5, 3.740783214569092
0, 6, 6, 3.21134614944458
0, 6, 7, 3.511047124862671
0, 6, 8, 3.719148874282837
0, 6, 9, 2.672120809555054
0, 6, 10, 4.18212890625
0, 6, 11, 3.852277517318726
0, 6, 12, 4.572695255279541
0, 6, 13, 5.178128719329834
0, 6, 14, 5.227451801300049
0, 6, 15, 6.622220516204834
0, 6, 16, 12.30887985229492
0, 6, 17, 28.60402488708496
0, 6, 18, 112.0407943725586
0, 6, 19, 191.4192657470703
0, 6, 20, 196.1685638427734
0, 6, 21, 197.8316497802734
0, 6, 22, 190.863525390625
0, 6, 23, 190.5453491210938
0, 6, 24, 201.0333557128906
0, 6, 25, 183.7394866943359
0, 6, 26, 186.8684387207031
0, 6, 27, 193.1172180175781
0, 6, 28, 191.5364837646484
0, 6, 29, 210.4610137939453
0, 6, 30, 189.3478546142578
0, 6, 31, 193.3938903808594
0, 6, 32, 207.0112609863281
0, 6, 33, 189.8766937255859
0, 6, 34, 197.0463409423828
0, 6, 35, 187.9563598632812
0, 6, 36, 180.9755554199219
0, 6, 37, 182.8861389160156
0, 6, 38, 185.7126922607422
0, 6, 39, 194.4794311523438
0, 6, 40, 174.5857696533203
0, 6, 41, 184.8706665039062
0, 6, 42, 174.3608703613281
0, 6, 43, 208.8624572753906
0, 6, 44, 209.4894409179688
0, 6, 45, 193.9968566894531
0, 6, 46, 187.9953765869141
0, 6, 47, 204.4980926513672
0, 6, 48, 189.4184417724609
0, 6, 49, 178.6260528564453
0, 6, 50, 182.0584564208984
0, 6, 51, 195.9904632568359
0, 6, 52, 197.0762023925781
0, 6, 53, 184.7740173339844
0, 6, 54, 175.3201904296875
0, 6, 55, 195.1053466796875
0, 6, 56, 203.47021484375
0, 6, 57, 191.8526000976562
0, 6, 58, 177.5405883789062
0, 6, 59, 191.5211944580078
0, 6, 60, 185.6093139648438
0, 6, 61, 193.6884765625
0, 6, 62, 197.5673370361328
0, 6, 63, 186.49609375
0, 6, 64, 167.5281372070312
0, 6, 65, 186.6912994384766
0, 6, 66, 198.0484619140625
0, 6, 67, 214.1890411376953
0, 6, 68, 182.226318359375
0, 6, 69, 171.5842590332031
0, 6, 70, 187.722412109375
0, 6, 71, 170.8796997070312
0, 6, 72, 176.4844818115234
0, 6, 73, 177.2128143310547
0, 6, 74, 211.6585083007812
0, 6, 75, 227.3187103271484
0, 6, 76, 184.0096740722656
0, 6, 77, 175.3820495605469
0, 6, 78, 175.1593780517578
0, 6, 79, 188.1703491210938
0, 6, 80, 187.3635711669922
0, 6, 81, 209.4540252685547
0, 6, 82, 195.1838226318359
0, 6, 83, 195.3148651123047
0, 6, 84, 197.2484130859375
0, 6, 85, 182.056884765625
0, 6, 86, 203.0970916748047
0, 6, 87, 183.3535003662109
0, 6, 88, 193.4807434082031
0, 6, 89, 189.0360260009766
0, 6, 90, 205.2091064453125
0, 6, 91, 200.5759735107422
0, 6, 92, 172.9903564453125
0, 6, 93, 192.0351715087891
0, 6, 94, 188.8857879638672
0, 6, 95, 184.7191162109375
0, 6, 96, 188.2460021972656
0, 6, 97, 195.9251403808594
0, 6, 98, 183.3828582763672
0, 6, 99, 175.1943817138672
0, 6, 100, 201.2451782226562
0, 6, 101, 168.7776641845703
0, 6, 102, 201.8528900146484
0, 6, 103, 196.074951171875
0, 6, 104, 183.6556091308594
0, 6, 105, 193.8875122070312
0, 6, 106, 177.194580078125
0, 6, 107, 195.3866882324219
0, 6, 108, 171.5509643554688
0, 6, 109, 114.4532089233398
0, 6, 110, 34.49247741699219
0, 6, 111, 10.12302494049072
0, 6, 112, 8.133158683776855
0, 6, 113, 5.085721492767334
0, 6, 114, 8.148054122924805
0, 6, 115, 6.473477840423584
0, 6, 116, 4.504317760467529
0, 6, 117, 4.439295768737793
0, 6, 118, 3.580972909927368
0, 6, 119, 3.835317850112915
0, 6, 120, 1.390275716781616
0, 6, 121, 3.393301963806152
0, 6, 122, 3.144640207290649
0, 6, 123, 2.413028240203857
0, 6, 124, 4.078906536102295
0, 6, 125, 2.693914651870728
0, 6, 126, 2.52392578125
0, 6, 127, 1.789607644081116
0, 7, 0, 3.978455305099487
0, 7, 1, 1.701729774475098
0, 7, 2, 2.358518838882446
0, 7, 3, 2.405378580093384
0, 7, 4, 3.309464693069458
0, 7, 5, 1.458479523658752
0, 7, 6, 2.804174661636353
0, 7, 7, 1.470153570175171
0, 7, 8, 3.206861257553101
0, 7, 9, 4.337896823883057
0, 7, 10, 5.011546611785889
0, 7, 11, 3.763451099395752
0, 7, 12, 3.403149127960205
0, 7, 13, 5.566380023956299
0, 7, 14, 7.025881290435791
0, 7, 15, 7.410936832427979
0, 7, 16, 15.42089176177979
0, 7, 17, 50.41036987304688
0, 7, 18, 161.7981567382812
0, 7, 19, 182.7740020751953
0, 7, 20, 179.6102600097656
0, 7, 21, 181.1009063720703
0, 7, 22, 190.3728179931641
0, 7, 23, 202.650390625
0, 7, 24, 179.7747955322266
0, 7, 25, 212.7073822021484
0, 7, 26, 191.5256652832031
0, 7, 27, 181.8603057861328
0, 7, 28, 183.2655029296875
0, 7, 29, 209.1311798095703
0, 7, 30, 193.1197052001953
0, 7, 31, 175.8142700195312
0, 7, 32, 190.4478454589844
0, 7, 33, 179.1942596435547
0, 7, 34, 194.8239440917969
0, 7, 35, 197.9310302734375
0, 7, 36, 187.3768310546875
0, 7, 37, 212.2442016601562
0, 7, 38, 190.3568267822266
0, 7, 39, 172.6914520263672
0, 7, 40, 183.8365020751953
0, 7, 41, 184.5041351318359
0, 7, 42, 178.5897064208984
0, 7, 43, 178.6528015136719
0, 7, 44, 179.2378234863281
0, 7, 45, 176.8274841308594
0, 7, 46, 189.8237915039062
0, 7, 47, 197.8456420898438
0, 7, 48, 185.3213043212891
0, 7, 49, 198.9508666992188
0, 7, 50, 188.9686737060547
0, 7, 51, 204.60595703125
0, 7, 52, 203.830078125
0, 7, 53, 191.7534332275391
0, 7, 54, 195.1041412353516
0, 7, 55, 203.0603790283203
0, 7, 56, 183.5830841064453
0, 7, 57, 182.5484466552734
0, 7, 58, 193.9392547607422
0, 7, 59, 187.5132904052734
0, 7, 60, 202.7703857421875
0, 7, 61, 170.7361297607422
0, 7, 62, 203.0821380615234
0, 7, 63, 188.4846496582031
0, 7, 64, 198.8059539794922
0, 7, 65, 198.7589111328125
0, 7, 66, 205.5010528564453
0, 7, 67, 220.7018737792969
0, 7, 68, 161.9925079345703
0, 7, 69, 193.8399810791016
0, 7, 70, 217.9780120849609
0, 7, 71, 184.2859497070312
0, 7, 72, 180.0502624511719
0, 7, 73, 176.8877105712891
0, 7, 74, 207.0891723632812
0, 7, 75, 205.1745300292969
0, 7, 76, 214.6112976074219
0, 7, 77, 173.5664978027344
0, 7, 78, 178.0662689208984
0, 7, 79, 192.3672790527344
0, 7, 80, 196.4005432128906
0, 7, 81, 215.5911712646484
0, 7, 82, 184.9960327148438
0, 7, 83, 204.93115234375
0, 7, 84, 192.7243804931641
0, 7, 85, 186.5502624511719
0, 7, 86, 200.7913513183594
0, 7, 87, 226.0348510742188
0, 7, 88, 194.3614349365234
0, 7, 89, 176.3622283935547
0, 7, 90, 182.9760437011719
0, 7, 91, 194.2154235839844
0, 7, 92, 194.229736328125
0, 7, 93, 198.6031494140625
0, 7, 94, 177.4522857666016
0, 7, 95, 197.3765563964844
0, 7, 96, 208.2691192626953
0, 7, 97, 189.218017578125
0, 7, 98, 177.199462890625
0, 7, 99, 196.7315979003906
0, 7, 100, 182.6383361816406
0, 7, 101, 199.0325012207031
0, 7, 102, 185.9325256347656
0, 7, 103, 184.1344451904297
0, 7, 104, 175.9646453857422
0, 7, 105, 196.0443267822266
0, 7, 106, 205.0423889160156
0, 7, 107, 173.2249603271484
0, 7, 108, 176.3674774169922
0, 7, 109, 137.0177764892578
0, 7, 110, 54.17665100097656
0, 7, 111, 8.938925743103027
0, 7, 112, 7.589548587799072
0, 7, 113, 8.59532356262207
0, 7, 114, 6.957036018371582
0, 7, 115, 4.961594581604004
0, 7, 116, 4.230222702026367
0, 7, 117, 2.783389568328857
0, 7, 118, 3.460629463195801
0, 7, 119, 3.303940773010254
0, 7, 120, 3.157166481018066
0, 7, 121, 2.608752012252808
0, 7, 122, 5.04747486114502
0, 7, 123, 1.163558125495911
0, 7, 124, 2.879821062088013
0, 7, 125, 2.858479499816895
0, 7, 126, 3.143055438995361
0, 7, 127, 1.20040237903595
0, 8, 0, 3.746799468994141
0, 8, 1, 1.865446329116821
0, 8, 2, 3.438004970550537
0, 8, 3, 1.601322770118713
0, 8, 4, 1.964700937271118
0, 8, 5, 3.20930027961731
0, 8, 6, 2.065744161605835
0, 8, 7, 2.627346038818359
0, 8, 8, 2.652697324752808
0, 8, 9, 6.299142837524414
0, 8, 10, 2.70750904083252
0, 8, 11, 2.253312587738037
0, 8, 12, 4.060895919799805
0, 8, 13, 5.164828300476074
0, 8, 14, 7.086315155029297
0, 8, 15, 8.92890739440918
0, 8, 16, 18.56132316589355
0, 8, 17, 74.01445770263672
0, 8, 18, 142.2628173828125
0, 8, 19, 179.3857116699219
0, 8, 20, 192.2162628173828
0, 8, 21, 194.3435516357422
0, 8, 22, 179.9137268066406
0, 8, 23, 172.5595855712891
0, 8, 24, 191.6472625732422
0, 8, 25, 185.7518615722656
0, 8, 26, 192.9090576171875
0, 8, 27, 186.0682830810547
0, 8, 28, 187.2749938964844
0, 8, 29, 207.6281280517578
0, 8, 30, 197.4461517333984
0, 8, 31, 181.6425018310547
0, 8, 32, 197.8075103759766
0, 8, 33, 207.0330505371094
0, 8, 34, 204.2770385742188
0, 8, 35, 184.7066040039062
0, 8, 36, 182.1543121337891
0, 8, 37, 198.7315826416016
