# TOPAS Version: 3.1.p3
# Parameter File: batch_inserts_338.txt
# Results for scorer Readout_Adipose
# Scored in component: MyBox
# X in 1 bin  of 0.65 cm
# Y in 512 bins of 0.0783984 cm
# Z in 128 bins of 0.078125 cm
# EnergyDeposit ( MeV ) : Sum   
0, 0, 0, 1.431762099266052
0, 0, 1, 5.450546741485596
0, 0, 2, 1.486043095588684
0, 0, 3, 1.181987524032593
0, 0, 4, 1.263852834701538
0, 0, 5, 0.7723056077957153
0, 0, 6, 1.438777685165405
0, 0, 7, 2.144429922103882
0, 0, 8, 2.060104370117188
0, 0, 9, 2.219178199768066
0, 0, 10, 1.71210241317749
0, 0, 11, 3.270442247390747
0, 0, 12, 4.04710054397583
0, 0, 13, 3.252199649810791
0, 0, 14, 4.822201728820801
0, 0, 15, 5.319771766662598
0, 0, 16, 3.935009956359863
0, 0, 17, 7.239059448242188
0, 0, 18, 6.974093437194824
0, 0, 19, 22.67385864257812
0, 0, 20, 93.32099914550781
0, 0, 21, 152.9652404785156
0, 0, 22, 154.7445220947266
0, 0, 23, 143.8683319091797
0, 0, 24, 163.5367279052734
0, 0, 25, 165.3970642089844
0, 0, 26, 168.6096801757812
0, 0, 27, 174.5323944091797
0, 0, 28, 178.6534576416016
0, 0, 29, 174.6049499511719
0, 0, 30, 172.1958465576172
0, 0, 31, 166.3827514648438
0, 0, 32, 164.5045166015625
0, 0, 33, 165.980224609375
0, 0, 34, 179.0697937011719
0, 0, 35, 175.1329803466797
0, 0, 36, 158.8715209960938
0, 0, 37, 160.5567779541016
0, 0, 38, 166.0743560791016
0, 0, 39, 159.0003967285156
0, 0, 40, 164.9661407470703
0, 0, 41, 165.5055084228516
0, 0, 42, 143.7337493896484
0, 0, 43, 167.4550018310547
0, 0, 44, 177.6837921142578
0, 0, 45, 172.1175994873047
0, 0, 46, 165.0814971923828
0, 0, 47, 167.6338348388672
0, 0, 48, 170.7026824951172
0, 0, 49, 183.5607299804688
0, 0, 50, 170.2145233154297
0, 0, 51, 162.9505310058594
0, 0, 52, 161.83837890625
0, 0, 53, 171.053955078125
0, 0, 54, 160.8095855712891
0, 0, 55, 164.5249176025391
0, 0, 56, 188.6488647460938
0, 0, 57, 171.9255065917969
0, 0, 58, 163.2493133544922
0, 0, 59, 171.8816070556641
0, 0, 60, 169.3323974609375
0, 0, 61, 170.1735992431641
0, 0, 62, 183.9481964111328
0, 0, 63, 167.548828125
0, 0, 64, 164.1262969970703
0, 0, 65, 175.7024841308594
0, 0, 66, 177.4044036865234
0, 0, 67, 163.7188262939453
0, 0, 68, 158.3524169921875
0, 0, 69, 158.4163818359375
0, 0, 70, 169.3156890869141
0, 0, 71, 159.1860809326172
0, 0, 72, 162.7240447998047
0, 0, 73, 171.1986846923828
0, 0, 74, 162.8485260009766
0, 0, 75, 163.2403869628906
0, 0, 76, 163.2052917480469
0, 0, 77, 171.8789520263672
0, 0, 78, 181.4503021240234
0, 0, 79, 174.6633758544922
0, 0, 80, 159.5565490722656
0, 0, 81, 161.4071502685547
0, 0, 82, 182.6861572265625
0, 0, 83, 173.7187957763672
0, 0, 84, 159.2825927734375
0, 0, 85, 181.1180572509766
0, 0, 86, 159.4359588623047
0, 0, 87, 177.3139343261719
0, 0, 88, 176.1315460205078
0, 0, 89, 175.1692504882812
0, 0, 90, 159.9430389404297
0, 0, 91, 184.3571929931641
0, 0, 92, 166.1447601318359
0, 0, 93, 156.9073486328125
0, 0, 94, 169.1524658203125
0, 0, 95, 173.4869995117188
0, 0, 96, 184.1994018554688
0, 0, 97, 185.7222290039062
0, 0, 98, 186.3591461181641
0, 0, 99, 171.2761993408203
0, 0, 100, 157.8199615478516
0, 0, 101, 166.5696105957031
0, 0, 102, 171.8484954833984
0, 0, 103, 170.5599060058594
0, 0, 104, 167.9640045166016
0, 0, 105, 176.4783477783203
0, 0, 106, 159.1393127441406
0, 0, 107, 86.82179260253906
0, 0, 108, 22.30698394775391
0, 0, 109, 9.995453834533691
0, 0, 110, 6.42180061340332
0, 0, 111, 6.420407772064209
0, 0, 112, 3.366536617279053
0, 0, 113, 2.34490966796875
0, 0, 114, 1.949267268180847
0, 0, 115, 3.181607484817505
0, 0, 116, 3.437759637832642
0, 0, 117, 2.349807977676392
0, 0, 118, 3.141398906707764
0, 0, 119, 1.589905142784119
0, 0, 120, 1.914654016494751
0, 0, 121, 4.279471874237061
0, 0, 122, 5.310782909393311
0, 0, 123, 4.168883323669434
0, 0, 124, 2.478628635406494
0, 0, 125, 2.14241623878479
0, 0, 126, 2.524836540222168
0, 0, 127, 1.45185112953186
0, 1, 0, 1.079856991767883
0, 1, 1, 5.028049945831299
0, 1, 2, 2.096539735794067
0, 1, 3, 1.10786247253418
0, 1, 4, 0.8026588559150696
0, 1, 5, 3.275825500488281
0, 1, 6, 1.637787222862244
0, 1, 7, 2.356798410415649
0, 1, 8, 1.241935253143311
0, 1, 9, 1.749660134315491
0, 1, 10, 1.789538621902466
0, 1, 11, 4.203063011169434
0, 1, 12, 5.234386444091797
0, 1, 13, 4.664659976959229
0, 1, 14, 6.894089221954346
0, 1, 15, 7.106741905212402
0, 1, 16, 9.117459297180176
0, 1, 17, 5.252195358276367
0, 1, 18, 11.30554389953613
0, 1, 19, 37.71176147460938
0, 1, 20, 125.9079437255859
0, 1, 21, 177.7833251953125
0, 1, 22, 193.3726806640625
0, 1, 23, 187.1300506591797
0, 1, 24, 181.5814819335938
0, 1, 25, 191.9702301025391
0, 1, 26, 197.7368316650391
0, 1, 27, 186.4033508300781
0, 1, 28, 188.9485015869141
0, 1, 29, 183.3402404785156
0, 1, 30, 179.8310089111328
0, 1, 31, 181.0874633789062
0, 1, 32, 189.8381195068359
0, 1, 33, 191.0645446777344
0, 1, 34, 185.5476226806641
0, 1, 35, 194.3149108886719
0, 1, 36, 207.7927551269531
0, 1, 37, 182.7818756103516
0, 1, 38, 165.0686187744141
0, 1, 39, 172.3576507568359
0, 1, 40, 180.3460845947266
0, 1, 41, 184.3544311523438
0, 1, 42, 184.4529418945312
0, 1, 43, 185.3637390136719
0, 1, 44, 168.4561920166016
0, 1, 45, 186.02490234375
0, 1, 46, 171.1589202880859
0, 1, 47, 184.9571838378906
0, 1, 48, 186.5249481201172
0, 1, 49, 186.1640625
0, 1, 50, 178.0840759277344
0, 1, 51, 190.9597015380859
0, 1, 52, 194.9905700683594
0, 1, 53, 196.3671264648438
0, 1, 54, 184.7146453857422
0, 1, 55, 164.7546844482422
0, 1, 56, 178.3592071533203
0, 1, 57, 177.8059539794922
0, 1, 58, 188.9320983886719
0, 1, 59, 194.2513732910156
0, 1, 60, 187.5363464355469
0, 1, 61, 177.9316864013672
0, 1, 62, 205.1417083740234
0, 1, 63, 174.5625915527344
0, 1, 64, 174.8582000732422
0, 1, 65, 186.7682800292969
0, 1, 66, 204.1051330566406
0, 1, 67, 181.9310760498047
0, 1, 68, 186.2949829101562
0, 1, 69, 188.3641357421875
0, 1, 70, 184.9100036621094
0, 1, 71, 171.1665344238281
0, 1, 72, 188.1280670166016
0, 1, 73, 190.3179168701172
0, 1, 74, 201.29443359375
0, 1, 75, 183.5241241455078
0, 1, 76, 173.4591979980469
0, 1, 77, 190.9166412353516
0, 1, 78, 188.5752258300781
0, 1, 79, 202.5727386474609
0, 1, 80, 186.1158599853516
0, 1, 81, 175.1427001953125
0, 1, 82, 206.2652893066406
0, 1, 83, 211.9805908203125
0, 1, 84, 179.5913238525391
0, 1, 85, 169.1645202636719
0, 1, 86, 168.0110931396484
0, 1, 87, 185.0888671875
0, 1, 88, 176.3487396240234
0, 1, 89, 186.4161376953125
0, 1, 90, 213.9731140136719
0, 1, 91, 182.0112915039062
0, 1, 92, 183.9927673339844
0, 1, 93, 180.5944213867188
0, 1, 94, 184.576416015625
0, 1, 95, 181.3782501220703
0, 1, 96, 197.0655364990234
0, 1, 97, 181.6904907226562
0, 1, 98, 187.1962432861328
0, 1, 99, 175.8399505615234
0, 1, 100, 173.6962738037109
0, 1, 101, 177.4490509033203
0, 1, 102, 183.3979034423828
0, 1, 103, 173.0541687011719
0, 1, 104, 190.5407409667969
0, 1, 105, 182.4548034667969
0, 1, 106, 163.9020538330078
0, 1, 107, 122.1300430297852
0, 1, 108, 47.23663330078125
0, 1, 109, 11.87015151977539
0, 1, 110, 7.66793155670166
0, 1, 111, 6.449126243591309
0, 1, 112, 6.957111835479736
0, 1, 113, 6.635207653045654
0, 1, 114, 4.902520656585693
0, 1, 115, 6.0987548828125
0, 1, 116, 3.142240285873413
0, 1, 117, 2.249763011932373
0, 1, 118, 3.830605506896973
0, 1, 119, 1.214803814888
0, 1, 120, 3.047832727432251
0, 1, 121, 4.318036556243896
0, 1, 122, 1.849121570587158
0, 1, 123, 2.37616753578186
0, 1, 124, 2.546455860137939
0, 1, 125, 4.347714900970459
0, 1, 126, 1.410554051399231
0, 1, 127, 1.339625358581543
0, 2, 0, 1.32368016242981
0, 2, 1, 1.845592498779297
0, 2, 2, 2.72657585144043
0, 2, 3, 1.621919512748718
0, 2, 4, 2.223635673522949
0, 2, 5, 1.003523588180542
0, 2, 6, 2.383801460266113
0, 2, 7, 2.028768062591553
0, 2, 8, 1.101131796836853
0, 2, 9, 1.813325524330139
0, 2, 10, 4.871205806732178
0, 2, 11, 4.259692192077637
0, 2, 12, 3.132150888442993
0, 2, 13, 4.539590835571289
0, 2, 14, 4.286940574645996
0, 2, 15, 5.41958475112915
0, 2, 16, 6.115705966949463
0, 2, 17, 10.7547779083252
0, 2, 18, 14.64563083648682
0, 2, 19, 77.2811279296875
0, 2, 20, 164.0036163330078
0, 2, 21, 183.0621490478516
0, 2, 22, 194.1912994384766
0, 2, 23, 183.6780242919922
0, 2, 24, 173.4891052246094
0, 2, 25, 184.0873718261719
0, 2, 26, 179.6827545166016
0, 2, 27, 188.3181915283203
0, 2, 28, 170.9067840576172
0, 2, 29, 168.9719848632812
0, 2, 30, 184.63037109375
0, 2, 31, 181.8814239501953
0, 2, 32, 183.0066986083984
0, 2, 33, 189.7355651855469
0, 2, 34, 199.1954345703125
0, 2, 35, 182.4199523925781
0, 2, 36, 186.0120697021484
0, 2, 37, 180.8720703125
0, 2, 38, 185.6372528076172
0, 2, 39, 167.8071441650391
0, 2, 40, 184.0308227539062
0, 2, 41, 184.1954193115234
0, 2, 42, 189.1419830322266
0, 2, 43, 194.8760833740234
0, 2, 44, 193.658203125
0, 2, 45, 191.7212982177734
0, 2, 46, 198.0243225097656
0, 2, 47, 190.0831451416016
0, 2, 48, 176.7510528564453
0, 2, 49, 196.9829711914062
0, 2, 50, 167.0022430419922
0, 2, 51, 185.0903625488281
0, 2, 52, 187.3995208740234
0, 2, 53, 194.9654693603516
0, 2, 54, 175.6510162353516
0, 2, 55, 173.137451171875
0, 2, 56, 182.1651306152344
0, 2, 57, 201.1995697021484
0, 2, 58, 185.8071136474609
0, 2, 59, 189.1532440185547
0, 2, 60, 197.5547332763672
0, 2, 61, 193.7842559814453
0, 2, 62, 189.4803771972656
0, 2, 63, 169.2873992919922
0, 2, 64, 188.7541656494141
0, 2, 65, 204.0474090576172
0, 2, 66, 196.5453186035156
0, 2, 67, 184.9562835693359
0, 2, 68, 182.4358062744141
0, 2, 69, 187.0076599121094
0, 2, 70, 202.4843597412109
0, 2, 71, 174.8439636230469
0, 2, 72, 186.2848968505859
0, 2, 73, 177.1024627685547
0, 2, 74, 180.6606750488281
0, 2, 75, 196.1900787353516
0, 2, 76, 184.5766143798828
0, 2, 77, 176.9989318847656
0, 2, 78, 199.1171875
0, 2, 79, 178.5864105224609
0, 2, 80, 185.9777984619141
0, 2, 81, 187.5048828125
0, 2, 82, 204.7539825439453
0, 2, 83, 203.6406097412109
0, 2, 84, 187.9761810302734
0, 2, 85, 172.0868530273438
0, 2, 86, 194.5648345947266
0, 2, 87, 172.2565612792969
0, 2, 88, 178.1699829101562
0, 2, 89, 185.5690307617188
0, 2, 90, 177.6670379638672
0, 2, 91, 173.8152008056641
0, 2, 92, 196.8230438232422
0, 2, 93, 193.1920166015625
0, 2, 94, 201.3380889892578
0, 2, 95, 193.4314727783203
0, 2, 96, 186.2007141113281
0, 2, 97, 171.4792938232422
0, 2, 98, 173.3119201660156
0, 2, 99, 162.9283294677734
0, 2, 100, 187.9755859375
0, 2, 101, 196.3178253173828
0, 2, 102, 177.0393218994141
0, 2, 103, 199.4747161865234
0, 2, 104, 187.3943481445312
0, 2, 105, 200.3737945556641
0, 2, 106, 193.8845825195312
0, 2, 107, 149.7190246582031
0, 2, 108, 78.49557495117188
0, 2, 109, 18.00748825073242
0, 2, 110, 8.936092376708984
0, 2, 111, 5.639011383056641
0, 2, 112, 5.792775630950928
0, 2, 113, 4.108084201812744
0, 2, 114, 7.65684175491333
0, 2, 115, 3.320339202880859
0, 2, 116, 1.522547125816345
0, 2, 117, 2.551553010940552
0, 2, 118, 1.717241168022156
0, 2, 119, 2.72532844543457
0, 2, 120, 1.314719200134277
0, 2, 121, 3.434870481491089
0, 2, 122, 2.438614368438721
0, 2, 123, 1.846656560897827
0, 2, 124, 2.175096750259399
0, 2, 125, 1.599158525466919
0, 2, 126, 5.430721759796143
0, 2, 127, 1.296385049819946
0, 3, 0, 2.532813549041748
0, 3, 1, 2.142186403274536
0, 3, 2, 1.321377158164978
0, 3, 3, 1.438900113105774
0, 3, 4, 5.747520923614502
0, 3, 5, 3.590291261672974
0, 3, 6, 1.938206911087036
0, 3, 7, 1.60718834400177
0, 3, 8, 1.947338223457336
0, 3, 9, 2.290234088897705
0, 3, 10, 2.176410913467407
0, 3, 11, 3.607009887695312
0, 3, 12, 3.222914218902588
0, 3, 13, 3.229865312576294
0, 3, 14, 4.209976673126221
0, 3, 15, 7.002847671508789
0, 3, 16, 7.499496936798096
0, 3, 17, 6.291708946228027
0, 3, 18, 32.62017822265625
0, 3, 19, 115.7656936645508
0, 3, 20, 179.8769683837891
0, 3, 21, 172.0847320556641
0, 3, 22, 177.7268676757812
0, 3, 23, 187.3197631835938
0, 3, 24, 178.0858001708984
0, 3, 25, 168.3004150390625
0, 3, 26, 180.5816040039062
0, 3, 27, 189.798583984375
0, 3, 28, 181.3940734863281
0, 3, 29, 197.7086029052734
0, 3, 30, 184.9646453857422
0, 3, 31, 194.2720642089844
0, 3, 32, 206.5617370605469
0, 3, 33, 196.7792358398438
0, 3, 34, 188.7075347900391
0, 3, 35, 174.5013580322266
0, 3, 36, 185.4132232666016
0, 3, 37, 203.0942230224609
0, 3, 38, 192.2527770996094
0, 3, 39, 185.8184356689453
0, 3, 40, 165.7860870361328
0, 3, 41, 174.5893096923828
0, 3, 42, 186.0807647705078
0, 3, 43, 181.9362945556641
0, 3, 44, 203.0078125
0, 3, 45, 207.8700561523438
0, 3, 46, 198.9983673095703
0, 3, 47, 194.9317474365234
0, 3, 48, 198.1536254882812
0, 3, 49, 180.2557525634766
0, 3, 50, 187.7321624755859
0, 3, 51, 174.3169860839844
0, 3, 52, 187.4923095703125
0, 3, 53, 177.7831268310547
0, 3, 54, 179.1505279541016
0, 3, 55, 177.1890106201172
0, 3, 56, 182.0702972412109
0, 3, 57, 176.1689147949219
0, 3, 58, 201.2277221679688
0, 3, 59, 196.6666107177734
0, 3, 60, 186.6477813720703
0, 3, 61, 180.7763977050781
0, 3, 62, 185.4486846923828
0, 3, 63, 184.5581512451172
0, 3, 64, 187.6916351318359
0, 3, 65, 186.4544830322266
0, 3, 66, 175.6209411621094
0, 3, 67, 191.1017608642578
0, 3, 68, 211.5235900878906
0, 3, 69, 190.8361663818359
0, 3, 70, 186.3542175292969
0, 3, 71, 196.88525390625
0, 3, 72, 185.0748443603516
0, 3, 73, 186.6617736816406
0, 3, 74, 194.0671081542969
0, 3, 75, 192.1292572021484
0, 3, 76, 190.3136138916016
0, 3, 77, 202.6925506591797
0, 3, 78, 189.0357360839844
0, 3, 79, 186.5312805175781
0, 3, 80, 189.7543792724609
0, 3, 81, 185.4566955566406
0, 3, 82, 179.6672668457031
0, 3, 83, 196.0339050292969
0, 3, 84, 199.2317962646484
0, 3, 85, 192.9724273681641
0, 3, 86, 203.599853515625
0, 3, 87, 197.5079498291016
0, 3, 88, 190.0753936767578
0, 3, 89, 193.23095703125
0, 3, 90, 173.6210632324219
0, 3, 91, 158.9037017822266
0, 3, 92, 207.9533996582031
0, 3, 93, 195.9919891357422
0, 3, 94, 193.7060699462891
0, 3, 95, 212.1703186035156
0, 3, 96, 208.3013000488281
0, 3, 97, 169.4982452392578
0, 3, 98, 167.1052093505859
0, 3, 99, 180.3931274414062
0, 3, 100, 177.3318939208984
0, 3, 101, 197.1248474121094
0, 3, 102, 194.7526092529297
0, 3, 103, 192.5455322265625
0, 3, 104, 201.9384613037109
0, 3, 105, 176.1545867919922
0, 3, 106, 182.5675201416016
0, 3, 107, 170.8260803222656
0, 3, 108, 107.990608215332
0, 3, 109, 27.13818740844727
0, 3, 110, 7.965690612792969
0, 3, 111, 6.80762243270874
0, 3, 112, 4.392624378204346
0, 3, 113, 8.169201850891113
0, 3, 114, 4.241526126861572
0, 3, 115, 5.044344902038574
0, 3, 116, 5.112719058990479
0, 3, 117, 4.943412303924561
0, 3, 118, 2.268638610839844
0, 3, 119, 2.318704843521118
0, 3, 120, 3.78938102722168
0, 3, 121, 2.602148532867432
0, 3, 122, 2.713136434555054
0, 3, 123, 1.458230495452881
0, 3, 124, 1.921870589256287
0, 3, 125, 1.048546552658081
0, 3, 126, 2.098936319351196
0, 3, 127, 2.132599830627441
0, 4, 0, 2.002928495407104
0, 4, 1, 0.4405175745487213
0, 4, 2, 2.379869699478149
0, 4, 3, 3.424026250839233
0, 4, 4, 1.172310590744019
0, 4, 5, 1.031734704971313
0, 4, 6, 3.317034959793091
0, 4, 7, 2.300507545471191
0, 4, 8, 1.610639214515686
0, 4, 9, 3.24949312210083
0, 4, 10, 3.425467252731323
0, 4, 11, 4.703688144683838
0, 4, 12, 3.862975120544434
0, 4, 13, 4.405457019805908
0, 4, 14, 4.820206642150879
0, 4, 15, 9.041133880615234
0, 4, 16, 7.841320037841797
0, 4, 17, 11.33047962188721
0, 4, 18, 53.66716003417969
0, 4, 19, 152.0999145507812
0, 4, 20, 193.3179321289062
0, 4, 21, 169.3551330566406
0, 4, 22, 187.9566192626953
0, 4, 23, 195.7183227539062
0, 4, 24, 192.5335693359375
0, 4, 25, 199.091064453125
0, 4, 26, 182.8355407714844
0, 4, 27, 191.4245147705078
0, 4, 28, 177.8190612792969
0, 4, 29, 205.4308471679688
0, 4, 30, 195.1852111816406
0, 4, 31, 195.3775024414062
0, 4, 32, 210.1956939697266
0, 4, 33, 189.8164672851562
0, 4, 34, 192.3394622802734
0, 4, 35, 211.9436187744141
0, 4, 36, 196.5586090087891
0, 4, 37, 177.8418426513672
0, 4, 38, 195.4588928222656
0, 4, 39, 189.3513946533203
0, 4, 40, 186.6662750244141
0, 4, 41, 189.4401702880859
0, 4, 42, 205.7000885009766
0, 4, 43, 174.1642456054688
0, 4, 44, 183.6488647460938
0, 4, 45, 197.4501342773438
0, 4, 46, 186.2679138183594
0, 4, 47, 179.5389251708984
0, 4, 48, 185.8596343994141
0, 4, 49, 174.4052124023438
0, 4, 50, 186.1043395996094
0, 4, 51, 198.3499755859375
0, 4, 52, 223.4640502929688
0, 4, 53, 207.0067901611328
0, 4, 54, 189.9138946533203
0, 4, 55, 174.5003662109375
0, 4, 56, 190.1794281005859
0, 4, 57, 191.3575744628906
0, 4, 58, 187.4844818115234
0, 4, 59, 189.8374481201172
0, 4, 60, 196.1662750244141
0, 4, 61, 193.8019866943359
0, 4, 62, 190.0724334716797
0, 4, 63, 178.6919250488281
0, 4, 64, 211.6302032470703
0, 4, 65, 191.7860565185547
0, 4, 66, 200.6407775878906
0, 4, 67, 201.2969970703125
0, 4, 68, 202.2475738525391
0, 4, 69, 201.3433990478516
0, 4, 70, 204.1617736816406
0, 4, 71, 207.7371520996094
0, 4, 72, 215.2882080078125
0, 4, 73, 186.0861053466797
0, 4, 74, 181.4055023193359
0, 4, 75, 184.9314422607422
0, 4, 76, 189.3298797607422
0, 4, 77, 182.3169097900391
0, 4, 78, 195.2655334472656
0, 4, 79, 203.7968902587891
0, 4, 80, 211.7918243408203
0, 4, 81, 198.7469940185547
0, 4, 82, 181.6932067871094
0, 4, 83, 172.4344635009766
0, 4, 84, 193.4530639648438
0, 4, 85, 195.4481353759766
0, 4, 86, 183.0498199462891
0, 4, 87, 184.7568206787109
0, 4, 88, 204.656005859375
0, 4, 89, 187.1068267822266
0, 4, 90, 212.4831390380859
0, 4, 91, 189.1546630859375
0, 4, 92, 196.9257202148438
0, 4, 93, 195.5537414550781
0, 4, 94, 181.7565765380859
0, 4, 95, 174.0597839355469
0, 4, 96, 189.7338256835938
0, 4, 97, 191.9856109619141
0, 4, 98, 201.4136810302734
0, 4, 99, 185.3525085449219
0, 4, 100, 182.7041015625
0, 4, 101, 177.2525329589844
0, 4, 102, 171.7225036621094
0, 4, 103, 185.4289703369141
0, 4, 104, 210.6803894042969
0, 4, 105, 190.1897430419922
0, 4, 106, 180.5540771484375
0, 4, 107, 181.0287628173828
0, 4, 108, 151.3882904052734
0, 4, 109, 49.01029586791992
0, 4, 110, 11.95232105255127
0, 4, 111, 7.162186622619629
0, 4, 112, 5.416458606719971
0, 4, 113, 9.254654884338379
0, 4, 114, 5.515519142150879
0, 4, 115, 3.833805799484253
0, 4, 116, 4.937827110290527
0, 4, 117, 2.824311494827271
0, 4, 118, 2.948996782302856
0, 4, 119, 4.539352893829346
0, 4, 120, 2.82813286781311
0, 4, 121, 1.884724259376526
0, 4, 122, 3.288428544998169
0, 4, 123, 2.605412006378174
0, 4, 124, 3.397040128707886
0, 4, 125, 2.670199394226074
0, 4, 126, 1.812810301780701
0, 4, 127, 1.935345530509949
0, 5, 0, 1.979620337486267
0, 5, 1, 3.428256988525391
0, 5, 2, 5.485577583312988
0, 5, 3, 3.410884380340576
0, 5, 4, 1.577517509460449
0, 5, 5, 1.534439921379089
0, 5, 6, 2.654431581497192
0, 5, 7, 2.374062299728394
0, 5, 8, 2.200198173522949
0, 5, 9, 2.30155086517334
0, 5, 10, 2.701298236846924
0, 5, 11, 4.084496021270752
0, 5, 12, 3.612555980682373
0, 5, 13, 3.409497737884521
0, 5, 14, 4.928032398223877
0, 5, 15, 9.825839042663574
0, 5, 16, 7.241421699523926
0, 5, 17, 21.76033592224121
0, 5, 18, 83.69850921630859
0, 5, 19, 164.6470489501953
0, 5, 20, 184.2591400146484
0, 5, 21, 178.1119995117188
0, 5, 22, 171.1314086914062
0, 5, 23, 200.9889373779297
0, 5, 24, 187.0998382568359
0, 5, 25, 207.2615051269531
0, 5, 26, 182.0708618164062
0, 5, 27, 193.2835845947266
0, 5, 28, 190.8456878662109
0, 5, 29, 195.9369201660156
0, 5, 30, 177.4108123779297
0, 5, 31, 180.7173004150391
0, 5, 32, 187.0486450195312
0, 5, 33, 169.2669372558594
0, 5, 34, 195.7132415771484
0, 5, 35, 198.3093566894531
0, 5, 36, 168.3533477783203
0, 5, 37, 196.9358825683594
0, 5, 38, 181.4068450927734
0, 5, 39, 186.7467803955078
0, 5, 40, 196.4554290771484
0, 5, 41, 177.7015838623047
0, 5, 42, 187.3135528564453
0, 5, 43, 192.2090911865234
0, 5, 44, 199.8777008056641
0, 5, 45, 187.1685485839844
0, 5, 46, 192.5100860595703
0, 5, 47, 181.3810882568359
0, 5, 48, 177.4816741943359
0, 5, 49, 178.4167022705078
0, 5, 50, 186.8149871826172
0, 5, 51, 172.4477691650391
0, 5, 52, 168.2565765380859
0, 5, 53, 181.6612854003906
0, 5, 54, 172.6730194091797
0, 5, 55, 216.3004150390625
0, 5, 56, 181.1120300292969
0, 5, 57, 206.5222473144531
0, 5, 58, 182.9975128173828
0, 5, 59, 181.4842529296875
0, 5, 60, 217.8875274658203
0, 5, 61, 184.4066314697266
0, 5, 62, 178.0115966796875
0, 5, 63, 180.0474243164062
0, 5, 64, 195.0886688232422
0, 5, 65, 211.5399169921875
0, 5, 66, 193.3168029785156
0, 5, 67, 199.5557250976562
0, 5, 68, 186.3720397949219
0, 5, 69, 185.8241119384766
0, 5, 70, 184.4753723144531
0, 5, 71, 193.0246734619141
0, 5, 72, 197.7299499511719
0, 5, 73, 202.0773315429688
0, 5, 74, 179.8755340576172
0, 5, 75, 202.6028137207031
0, 5, 76, 213.6326751708984
0, 5, 77, 181.2598266601562
0, 5, 78, 194.3334045410156
0, 5, 79, 190.5913543701172
0, 5, 80, 198.3748931884766
0, 5, 81, 204.5898895263672
0, 5, 82, 203.5328521728516
0, 5, 83, 188.4351348876953
0, 5, 84, 204.9789733886719
0, 5, 85, 175.7345733642578
0, 5, 86, 195.2798919677734
0, 5, 87, 188.1097869873047
0, 5, 88, 176.8575744628906
0, 5, 89, 193.7954254150391
0, 5, 90, 198.4563293457031
0, 5, 91, 194.1568298339844
0, 5, 92, 191.1389007568359
0, 5, 93, 190.8859710693359
0, 5, 94, 207.190185546875
0, 5, 95, 176.7699127197266
0, 5, 96, 184.7048492431641
0, 5, 97, 191.1082305908203
0, 5, 98, 189.026611328125
0, 5, 99, 194.9172668457031
0, 5, 100, 186.3621673583984
0, 5, 101, 196.3906402587891
0, 5, 102, 180.9020233154297
0, 5, 103, 176.1019592285156
0, 5, 104, 189.9112091064453
0, 5, 105, 189.0118865966797
0, 5, 106, 176.7495422363281
0, 5, 107, 181.6762847900391
0, 5, 108, 176.9077606201172
0, 5, 109, 89.53887939453125
0, 5, 110, 30.90500640869141
0, 5, 111, 8.595707893371582
0, 5, 112, 6.642348766326904
0, 5, 113, 7.725749015808105
0, 5, 114, 5.024078369140625
0, 5, 115, 5.569628238677979
0, 5, 116, 3.923305034637451
0, 5, 117, 3.226560354232788
0, 5, 118, 3.572367429733276
0, 5, 119, 3.896764278411865
0, 5, 120, 1.184993863105774
0, 5, 121, 0.8734369277954102
0, 5, 122, 3.87229323387146
0, 5, 123, 3.940227031707764
0, 5, 124, 2.692428112030029
0, 5, 125, 1.281198620796204
0, 5, 126, 1.486620306968689
0, 5, 127, 3.124181509017944
0, 6, 0, 3.923212766647339
0, 6, 1, 2.373472213745117
0, 6, 2, 5.07110595703125
0, 6, 3, 3.950065612792969
0, 6, 4, 2.967900276184082
0, 6, 5, 3.348695039749146
0, 6, 6, 3.106178283691406
0, 6, 7, 4.03233814239502
0, 6, 8, 5.376781463623047
0, 6, 9, 3.231505393981934
0, 6, 10, 3.61719536781311
0, 6, 11, 5.237508296966553
0, 6, 12, 5.60596227645874
0, 6, 13, 4.932888984680176
0, 6, 14, 6.803702831268311
0, 6, 15, 6.553982734680176
0, 6, 16, 15.45493316650391
0, 6, 17, 28.36029624938965
0, 6, 18, 112.8940582275391
0, 6, 19, 192.0074615478516
0, 6, 20, 195.8388671875
0, 6, 21, 197.8091735839844
0, 6, 22, 190.1314544677734
0, 6, 23, 189.9893341064453
0, 6, 24, 200.2976684570312
0, 6, 25, 182.192138671875
0, 6, 26, 186.7102966308594
0, 6, 27, 191.4153289794922
0, 6, 28, 188.4848785400391
0, 6, 29, 210.7637023925781
0, 6, 30, 189.7077331542969
0, 6, 31, 192.7386627197266
0, 6, 32, 206.3092651367188
0, 6, 33, 184.5453033447266
0, 6, 34, 196.4214477539062
0, 6, 35, 187.1115112304688
0, 6, 36, 178.8799438476562
0, 6, 37, 182.3595123291016
0, 6, 38, 184.6448516845703
0, 6, 39, 194.311279296875
0, 6, 40, 174.1934967041016
0, 6, 41, 185.5229644775391
0, 6, 42, 173.2154998779297
0, 6, 43, 210.9363250732422
0, 6, 44, 209.7679290771484
0, 6, 45, 193.5481719970703
0, 6, 46, 188.8417816162109
0, 6, 47, 204.9458160400391
0, 6, 48, 188.2585296630859
0, 6, 49, 178.8784790039062
0, 6, 50, 181.9686279296875
0, 6, 51, 195.9303894042969
0, 6, 52, 197.6305847167969
0, 6, 53, 185.1209106445312
0, 6, 54, 177.4184112548828
0, 6, 55, 194.1952056884766
0, 6, 56, 203.0357666015625
0, 6, 57, 191.0901794433594
0, 6, 58, 180.0612640380859
0, 6, 59, 191.6621551513672
0, 6, 60, 186.1846771240234
0, 6, 61, 194.1268768310547
0, 6, 62, 196.9203491210938
0, 6, 63, 186.7033538818359
0, 6, 64, 168.8528594970703
0, 6, 65, 186.5154724121094
0, 6, 66, 197.8109436035156
0, 6, 67, 213.0726623535156
0, 6, 68, 179.6448211669922
0, 6, 69, 171.6322479248047
0, 6, 70, 188.3363800048828
0, 6, 71, 171.6843109130859
0, 6, 72, 175.9216003417969
0, 6, 73, 176.8881683349609
0, 6, 74, 211.2086029052734
0, 6, 75, 230.4117126464844
0, 6, 76, 184.1296081542969
0, 6, 77, 172.3111572265625
0, 6, 78, 175.3289947509766
0, 6, 79, 185.5035247802734
0, 6, 80, 188.8418273925781
0, 6, 81, 208.9123687744141
0, 6, 82, 195.4571685791016
0, 6, 83, 194.6994018554688
0, 6, 84, 198.7035675048828
0, 6, 85, 182.1589965820312
0, 6, 86, 200.7237548828125
0, 6, 87, 184.5721130371094
0, 6, 88, 192.7074890136719
0, 6, 89, 188.684814453125
0, 6, 90, 206.6302185058594
0, 6, 91, 200.4139862060547
0, 6, 92, 173.9631652832031
0, 6, 93, 193.7534942626953
0, 6, 94, 190.1063690185547
0, 6, 95, 186.3025360107422
0, 6, 96, 190.2731018066406
0, 6, 97, 195.9165496826172
0, 6, 98, 183.1232604980469
0, 6, 99, 175.285888671875
0, 6, 100, 200.9339294433594
0, 6, 101, 167.73681640625
0, 6, 102, 202.0281677246094
0, 6, 103, 198.3390197753906
0, 6, 104, 183.9302062988281
0, 6, 105, 194.6181793212891
0, 6, 106, 177.473388671875
0, 6, 107, 195.3219451904297
0, 6, 108, 170.7839202880859
0, 6, 109, 115.5725555419922
0, 6, 110, 36.86026763916016
0, 6, 111, 9.903462409973145
0, 6, 112, 9.067758560180664
0, 6, 113, 5.798888683319092
0, 6, 114, 5.05997371673584
0, 6, 115, 6.164285182952881
0, 6, 116, 3.740420341491699
0, 6, 117, 4.921340942382812
0, 6, 118, 3.506603479385376
0, 6, 119, 4.195661544799805
0, 6, 120, 1.907459259033203
0, 6, 121, 4.629435539245605
0, 6, 122, 4.484574794769287
0, 6, 123, 2.288526058197021
0, 6, 124, 1.400490045547485
0, 6, 125, 2.457203149795532
0, 6, 126, 2.917320966720581
0, 6, 127, 2.656693935394287
0, 7, 0, 5.048795700073242
0, 7, 1, 1.949010729789734
0, 7, 2, 4.401534080505371
0, 7, 3, 1.9083491563797
0, 7, 4, 2.598149538040161
0, 7, 5, 1.70677924156189
0, 7, 6, 1.905600786209106
0, 7, 7, 1.442049145698547
0, 7, 8, 4.088672637939453
0, 7, 9, 4.49333667755127
0, 7, 10, 5.047307968139648
0, 7, 11, 4.206980228424072
0, 7, 12, 4.441362857818604
0, 7, 13, 7.120156288146973
0, 7, 14, 8.381314277648926
0, 7, 15, 7.252068042755127
0, 7, 16, 16.16436958312988
0, 7, 17, 50.09677505493164
0, 7, 18, 161.8497314453125
0, 7, 19, 183.8700866699219
0, 7, 20, 181.6486511230469
0, 7, 21, 181.98681640625
0, 7, 22, 191.0744476318359
0, 7, 23, 203.2088470458984
0, 7, 24, 179.5766296386719
0, 7, 25, 213.0346527099609
0, 7, 26, 189.9221649169922
0, 7, 27, 182.7749786376953
0, 7, 28, 182.8983001708984
0, 7, 29, 208.5305633544922
0, 7, 30, 193.4519653320312
0, 7, 31, 175.4118804931641
0, 7, 32, 192.2311248779297
0, 7, 33, 179.0753021240234
0, 7, 34, 193.0780029296875
0, 7, 35, 197.2133941650391
0, 7, 36, 186.9509735107422
0, 7, 37, 212.6553802490234
0, 7, 38, 189.9188385009766
0, 7, 39, 173.3983306884766
0, 7, 40, 183.3289794921875
0, 7, 41, 185.6756134033203
0, 7, 42, 178.0512847900391
0, 7, 43, 176.5935821533203
0, 7, 44, 178.8953857421875
0, 7, 45, 174.2096862792969
0, 7, 46, 189.7274322509766
0, 7, 47, 198.9297027587891
0, 7, 48, 188.2680511474609
0, 7, 49, 201.7828674316406
0, 7, 50, 187.7515563964844
0, 7, 51, 204.3554992675781
0, 7, 52, 204.7554168701172
0, 7, 53, 191.0670318603516
0, 7, 54, 196.1314086914062
0, 7, 55, 202.7290191650391
0, 7, 56, 185.053466796875
0, 7, 57, 182.0179138183594
0, 7, 58, 190.6035308837891
0, 7, 59, 187.069580078125
0, 7, 60, 202.16455078125
0, 7, 61, 171.3647766113281
0, 7, 62, 204.279541015625
0, 7, 63, 189.2048950195312
0, 7, 64, 199.3023071289062
0, 7, 65, 194.4679107666016
0, 7, 66, 205.5045318603516
0, 7, 67, 219.0496368408203
0, 7, 68, 163.4446716308594
0, 7, 69, 195.0165710449219
0, 7, 70, 218.5454711914062
0, 7, 71, 184.0590362548828
0, 7, 72, 181.0163116455078
0, 7, 73, 177.1290588378906
0, 7, 74, 208.3934326171875
0, 7, 75, 207.1686706542969
0, 7, 76, 214.0539855957031
0, 7, 77, 174.5733947753906
0, 7, 78, 177.2536315917969
0, 7, 79, 194.3695678710938
0, 7, 80, 196.0539093017578
0, 7, 81, 214.6771850585938
0, 7, 82, 185.4548492431641
0, 7, 83, 205.82666015625
0, 7, 84, 191.6298828125
0, 7, 85, 186.2904815673828
0, 7, 86, 201.1443939208984
0, 7, 87, 225.1402130126953
0, 7, 88, 195.4144744873047
0, 7, 89, 177.0096282958984
0, 7, 90, 182.3761596679688
0, 7, 91, 195.8393402099609
0, 7, 92, 193.4549713134766
0, 7, 93, 198.1119537353516
0, 7, 94, 177.9200286865234
0, 7, 95, 198.8754272460938
0, 7, 96, 208.8069763183594
0, 7, 97, 190.3548736572266
0, 7, 98, 176.0340728759766
0, 7, 99, 196.7211303710938
0, 7, 100, 181.7837219238281
0, 7, 101, 199.0054779052734
0, 7, 102, 185.5121459960938
0, 7, 103, 182.1958770751953
0, 7, 104, 175.5960998535156
0, 7, 105, 195.3454437255859
0, 7, 106, 206.7770843505859
0, 7, 107, 174.6049041748047
0, 7, 108, 177.0030822753906
0, 7, 109, 136.4099273681641
0, 7, 110, 53.77458953857422
0, 7, 111, 9.515889167785645
0, 7, 112, 8.770758628845215
0, 7, 113, 9.19730281829834
0, 7, 114, 7.311005592346191
0, 7, 115, 4.52669620513916
0, 7, 116, 3.969897985458374
0, 7, 117, 3.548325300216675
0, 7, 118, 3.194074392318726
0, 7, 119, 5.295383453369141
0, 7, 120, 2.551486968994141
0, 7, 121, 2.130753993988037
0, 7, 122, 2.431355953216553
0, 7, 123, 4.119786739349365
0, 7, 124, 1.182430028915405
0, 7, 125, 2.21549129486084
0, 7, 126, 2.440095901489258
0, 7, 127, 1.445753812789917
0, 8, 0, 3.952791213989258
0, 8, 1, 2.601637840270996
0, 8, 2, 2.826723575592041
0, 8, 3, 1.270951747894287
0, 8, 4, 1.813748955726624
0, 8, 5, 2.870495319366455
0, 8, 6, 2.643820524215698
0, 8, 7, 3.136135578155518
0, 8, 8, 4.549187183380127
0, 8, 9, 5.497183322906494
0, 8, 10, 1.978878855705261
0, 8, 11, 2.52239465713501
0, 8, 12, 3.092446088790894
0, 8, 13, 4.440975666046143
0, 8, 14, 6.173421382904053
0, 8, 15, 8.295876502990723
0, 8, 16, 18.83333015441895
0, 8, 17, 75.17465972900391
0, 8, 18, 144.1552886962891
0, 8, 19, 181.5143585205078
0, 8, 20, 192.8388824462891
0, 8, 21, 192.2891235351562
0, 8, 22, 181.0310516357422
0, 8, 23, 172.2535247802734
0, 8, 24, 192.7803955078125
0, 8, 25, 186.5931701660156
0, 8, 26, 192.3242492675781
0, 8, 27, 185.8184509277344
0, 8, 28, 187.5810394287109
0, 8, 29, 208.3656768798828
0, 8, 30, 196.5971527099609
0, 8, 31, 181.7909088134766
0, 8, 32, 197.6425170898438
0, 8, 33, 206.4879150390625
0, 8, 34, 204.3652191162109
0, 8, 35, 184.8286895751953
0, 8, 36, 181.4257659912109
0, 8, 37, 199.5374908447266
