# TOPAS Version: 3.1.p3
# Parameter File: batch_inserts_70.txt
# Results for scorer Readout_Adipose
# Scored in component: MyBox
# X in 1 bin  of 0.65 cm
# Y in 512 bins of 0.0783984 cm
# Z in 128 bins of 0.078125 cm
# EnergyDeposit ( MeV ) : Sum   
0, 0, 0, 2.205658435821533
0, 0, 1, 2.990055322647095
0, 0, 2, 1.021486878395081
0, 0, 3, 1.139649510383606
0, 0, 4, 1.672688364982605
0, 0, 5, 0.6740953326225281
0, 0, 6, 1.564876914024353
0, 0, 7, 4.356358051300049
0, 0, 8, 1.639127254486084
0, 0, 9, 2.810999870300293
0, 0, 10, 1.861578583717346
0, 0, 11, 3.477187395095825
0, 0, 12, 3.539678335189819
0, 0, 13, 1.539845108985901
0, 0, 14, 5.115198135375977
0, 0, 15, 5.915712833404541
0, 0, 16, 4.982826709747314
0, 0, 17, 7.785140991210938
0, 0, 18, 6.793170928955078
0, 0, 19, 23.51734352111816
0, 0, 20, 94.572998046875
0, 0, 21, 153.7182159423828
0, 0, 22, 153.9211730957031
0, 0, 23, 143.9665069580078
0, 0, 24, 159.2244567871094
0, 0, 25, 166.6578063964844
0, 0, 26, 167.1222229003906
0, 0, 27, 174.8559875488281
0, 0, 28, 177.9243316650391
0, 0, 29, 175.7970886230469
0, 0, 30, 173.0864105224609
0, 0, 31, 167.4609527587891
0, 0, 32, 164.3729705810547
0, 0, 33, 166.0011749267578
0, 0, 34, 176.4393310546875
0, 0, 35, 173.5184173583984
0, 0, 36, 159.5581359863281
0, 0, 37, 162.1078033447266
0, 0, 38, 165.8135833740234
0, 0, 39, 159.2781677246094
0, 0, 40, 165.4348907470703
0, 0, 41, 165.8873138427734
0, 0, 42, 143.0841827392578
0, 0, 43, 168.6057891845703
0, 0, 44, 178.2639465332031
0, 0, 45, 172.6136932373047
0, 0, 46, 166.8470458984375
0, 0, 47, 167.6775817871094
0, 0, 48, 169.4926300048828
0, 0, 49, 182.9671630859375
0, 0, 50, 170.8158416748047
0, 0, 51, 162.0422821044922
0, 0, 52, 161.2465515136719
0, 0, 53, 171.4476318359375
0, 0, 54, 160.4387817382812
0, 0, 55, 163.588134765625
0, 0, 56, 189.8154754638672
0, 0, 57, 170.035888671875
0, 0, 58, 161.0697326660156
0, 0, 59, 172.0541381835938
0, 0, 60, 168.5458526611328
0, 0, 61, 171.6342315673828
0, 0, 62, 183.2089233398438
0, 0, 63, 167.062744140625
0, 0, 64, 164.6470336914062
0, 0, 65, 175.8991851806641
0, 0, 66, 178.9083099365234
0, 0, 67, 165.2129364013672
0, 0, 68, 158.574462890625
0, 0, 69, 159.1938934326172
0, 0, 70, 169.5364837646484
0, 0, 71, 158.0121612548828
0, 0, 72, 164.2010955810547
0, 0, 73, 170.9896240234375
0, 0, 74, 163.4839324951172
0, 0, 75, 163.7263488769531
0, 0, 76, 164.18359375
0, 0, 77, 171.9644775390625
0, 0, 78, 181.5035858154297
0, 0, 79, 175.5399627685547
0, 0, 80, 159.2111358642578
0, 0, 81, 161.3520965576172
0, 0, 82, 183.5962829589844
0, 0, 83, 173.9247589111328
0, 0, 84, 159.4384918212891
0, 0, 85, 181.811279296875
0, 0, 86, 158.070556640625
0, 0, 87, 176.9012603759766
0, 0, 88, 177.9304809570312
0, 0, 89, 177.2488708496094
0, 0, 90, 161.1382904052734
0, 0, 91, 184.6934967041016
0, 0, 92, 164.6256866455078
0, 0, 93, 156.5249328613281
0, 0, 94, 169.5984497070312
0, 0, 95, 174.3515625
0, 0, 96, 183.7447967529297
0, 0, 97, 183.2924346923828
0, 0, 98, 186.8553771972656
0, 0, 99, 171.403564453125
0, 0, 100, 158.2211151123047
0, 0, 101, 166.6389465332031
0, 0, 102, 169.9450988769531
0, 0, 103, 170.3618011474609
0, 0, 104, 168.7333679199219
0, 0, 105, 178.3292846679688
0, 0, 106, 159.5485992431641
0, 0, 107, 86.22002410888672
0, 0, 108, 20.91341018676758
0, 0, 109, 10.26309776306152
0, 0, 110, 5.961238861083984
0, 0, 111, 7.325563430786133
0, 0, 112, 3.117902755737305
0, 0, 113, 2.442014694213867
0, 0, 114, 1.908487200737
0, 0, 115, 2.003017663955688
0, 0, 116, 1.660837292671204
0, 0, 117, 2.333669424057007
0, 0, 118, 3.293921947479248
0, 0, 119, 3.324091672897339
0, 0, 120, 1.711589336395264
0, 0, 121, 4.172904014587402
0, 0, 122, 4.444659233093262
0, 0, 123, 4.888412952423096
0, 0, 124, 1.51581084728241
0, 0, 125, 2.679869651794434
0, 0, 126, 2.360178470611572
0, 0, 127, 1.407968401908875
0, 1, 0, 0.9218566417694092
0, 1, 1, 3.442352056503296
0, 1, 2, 2.500391244888306
0, 1, 3, 1.985248565673828
0, 1, 4, 1.832787752151489
0, 1, 5, 2.147218942642212
0, 1, 6, 2.517116546630859
0, 1, 7, 4.082032203674316
0, 1, 8, 1.432914972305298
0, 1, 9, 1.827103018760681
0, 1, 10, 3.7577223777771
0, 1, 11, 3.908839225769043
0, 1, 12, 2.720009803771973
0, 1, 13, 2.959330797195435
0, 1, 14, 5.886385917663574
0, 1, 15, 5.900214672088623
0, 1, 16, 8.427263259887695
0, 1, 17, 6.852461814880371
0, 1, 18, 10.76436996459961
0, 1, 19, 39.53465270996094
0, 1, 20, 126.0621109008789
0, 1, 21, 177.9592590332031
0, 1, 22, 193.0796508789062
0, 1, 23, 186.4466552734375
0, 1, 24, 179.6610870361328
0, 1, 25, 192.125
0, 1, 26, 198.3167419433594
0, 1, 27, 186.5115966796875
0, 1, 28, 188.1118316650391
0, 1, 29, 183.2867126464844
0, 1, 30, 178.7764892578125
0, 1, 31, 181.4210662841797
0, 1, 32, 189.0373687744141
0, 1, 33, 189.4249114990234
0, 1, 34, 183.6227264404297
0, 1, 35, 192.9786224365234
0, 1, 36, 205.9698791503906
0, 1, 37, 185.4578247070312
0, 1, 38, 165.7534027099609
0, 1, 39, 172.2239532470703
0, 1, 40, 180.5653839111328
0, 1, 41, 184.2270965576172
0, 1, 42, 183.5217437744141
0, 1, 43, 184.7007904052734
0, 1, 44, 167.9999847412109
0, 1, 45, 186.5427093505859
0, 1, 46, 170.6582336425781
0, 1, 47, 185.6157684326172
0, 1, 48, 186.2215423583984
0, 1, 49, 187.6151580810547
0, 1, 50, 177.8401794433594
0, 1, 51, 189.6631622314453
0, 1, 52, 195.6090698242188
0, 1, 53, 196.599609375
0, 1, 54, 185.7419281005859
0, 1, 55, 164.9884490966797
0, 1, 56, 178.1665649414062
0, 1, 57, 177.8264617919922
0, 1, 58, 188.1552734375
0, 1, 59, 193.2546844482422
0, 1, 60, 188.3699951171875
0, 1, 61, 177.2507934570312
0, 1, 62, 204.8899536132812
0, 1, 63, 175.2349090576172
0, 1, 64, 173.0881652832031
0, 1, 65, 186.5114440917969
0, 1, 66, 203.9912719726562
0, 1, 67, 184.1844024658203
0, 1, 68, 186.6022644042969
0, 1, 69, 188.3828277587891
0, 1, 70, 185.8464965820312
0, 1, 71, 171.3660430908203
0, 1, 72, 190.1452331542969
0, 1, 73, 190.7416229248047
0, 1, 74, 201.0841369628906
0, 1, 75, 184.6406860351562
0, 1, 76, 174.5848541259766
0, 1, 77, 193.8211364746094
0, 1, 78, 189.1741485595703
0, 1, 79, 201.3647918701172
0, 1, 80, 188.6732177734375
0, 1, 81, 176.1956481933594
0, 1, 82, 210.4644470214844
0, 1, 83, 211.5462951660156
0, 1, 84, 179.7289276123047
0, 1, 85, 174.0815582275391
0, 1, 86, 168.0774993896484
0, 1, 87, 185.3053436279297
0, 1, 88, 176.3404083251953
0, 1, 89, 188.7282104492188
0, 1, 90, 212.8118743896484
0, 1, 91, 181.0858917236328
0, 1, 92, 183.6529388427734
0, 1, 93, 180.0128631591797
0, 1, 94, 185.7781524658203
0, 1, 95, 183.2329711914062
0, 1, 96, 195.8468780517578
0, 1, 97, 182.2138214111328
0, 1, 98, 185.6258087158203
0, 1, 99, 175.4987335205078
0, 1, 100, 171.0528259277344
0, 1, 101, 178.0589599609375
0, 1, 102, 182.3108673095703
0, 1, 103, 173.1384124755859
0, 1, 104, 189.1839752197266
0, 1, 105, 180.9827880859375
0, 1, 106, 164.0760803222656
0, 1, 107, 122.1137466430664
0, 1, 108, 46.61240386962891
0, 1, 109, 9.559917449951172
0, 1, 110, 7.429013252258301
0, 1, 111, 6.935272693634033
0, 1, 112, 7.334539890289307
0, 1, 113, 6.710180282592773
0, 1, 114, 5.290703773498535
0, 1, 115, 5.580371856689453
0, 1, 116, 2.708313941955566
0, 1, 117, 2.886798143386841
0, 1, 118, 3.337156534194946
0, 1, 119, 2.929689407348633
0, 1, 120, 3.291551828384399
0, 1, 121, 4.98647403717041
0, 1, 122, 2.099985837936401
0, 1, 123, 2.052632570266724
0, 1, 124, 2.125214576721191
0, 1, 125, 2.931138753890991
0, 1, 126, 2.137886524200439
0, 1, 127, 2.211844205856323
0, 2, 0, 1.920717597007751
0, 2, 1, 2.712278366088867
0, 2, 2, 2.966474056243896
0, 2, 3, 2.826658010482788
0, 2, 4, 1.790758967399597
0, 2, 5, 1.031599283218384
0, 2, 6, 4.227811336517334
0, 2, 7, 0.9347777366638184
0, 2, 8, 1.906695604324341
0, 2, 9, 3.5597243309021
0, 2, 10, 5.066618919372559
0, 2, 11, 3.412445783615112
0, 2, 12, 3.553828239440918
0, 2, 13, 6.345086097717285
0, 2, 14, 6.448269844055176
0, 2, 15, 6.031994819641113
0, 2, 16, 4.717861652374268
0, 2, 17, 8.942251205444336
0, 2, 18, 13.7309741973877
0, 2, 19, 78.18270874023438
0, 2, 20, 162.2915954589844
0, 2, 21, 183.1247711181641
0, 2, 22, 194.1692657470703
0, 2, 23, 183.4489898681641
0, 2, 24, 173.9156341552734
0, 2, 25, 183.8084716796875
0, 2, 26, 178.9770660400391
0, 2, 27, 190.9591369628906
0, 2, 28, 171.113525390625
0, 2, 29, 168.4700622558594
0, 2, 30, 184.9053039550781
0, 2, 31, 182.4236755371094
0, 2, 32, 183.6297454833984
0, 2, 33, 190.3508453369141
0, 2, 34, 195.6169281005859
0, 2, 35, 181.1106872558594
0, 2, 36, 185.4376678466797
0, 2, 37, 181.0022430419922
0, 2, 38, 183.898193359375
0, 2, 39, 166.07080078125
0, 2, 40, 184.2650451660156
0, 2, 41, 183.5317840576172
0, 2, 42, 188.5905303955078
0, 2, 43, 194.7885437011719
0, 2, 44, 190.7851867675781
0, 2, 45, 189.0841827392578
0, 2, 46, 196.3876647949219
0, 2, 47, 188.9047393798828
0, 2, 48, 177.3234558105469
0, 2, 49, 197.3618469238281
0, 2, 50, 170.1725158691406
0, 2, 51, 185.0352020263672
0, 2, 52, 186.5789031982422
0, 2, 53, 194.9876708984375
0, 2, 54, 174.2844543457031
0, 2, 55, 173.8805999755859
0, 2, 56, 181.737548828125
0, 2, 57, 201.5262756347656
0, 2, 58, 188.2732543945312
0, 2, 59, 188.7876129150391
0, 2, 60, 197.1071624755859
0, 2, 61, 193.7249145507812
0, 2, 62, 190.0481414794922
0, 2, 63, 169.3897857666016
0, 2, 64, 189.1584625244141
0, 2, 65, 202.6401519775391
0, 2, 66, 195.5106048583984
0, 2, 67, 185.4417114257812
0, 2, 68, 182.3861083984375
0, 2, 69, 186.6345520019531
0, 2, 70, 202.0496215820312
0, 2, 71, 174.513916015625
0, 2, 72, 187.0571441650391
0, 2, 73, 177.2209625244141
0, 2, 74, 181.1789398193359
0, 2, 75, 196.6046905517578
0, 2, 76, 184.5467071533203
0, 2, 77, 177.217529296875
0, 2, 78, 199.4557037353516
0, 2, 79, 177.0511016845703
0, 2, 80, 186.4756317138672
0, 2, 81, 187.5908203125
0, 2, 82, 207.0469360351562
0, 2, 83, 203.7455444335938
0, 2, 84, 188.3441162109375
0, 2, 85, 172.2078094482422
0, 2, 86, 195.4768829345703
0, 2, 87, 172.4252624511719
0, 2, 88, 177.7293243408203
0, 2, 89, 185.0994110107422
0, 2, 90, 177.6087036132812
0, 2, 91, 175.3704833984375
0, 2, 92, 197.4874725341797
0, 2, 93, 193.9291076660156
0, 2, 94, 198.1912231445312
0, 2, 95, 194.4087677001953
0, 2, 96, 187.2148132324219
0, 2, 97, 171.2450714111328
0, 2, 98, 175.1696472167969
0, 2, 99, 162.7382965087891
0, 2, 100, 187.1356048583984
0, 2, 101, 199.2008666992188
0, 2, 102, 176.4576568603516
0, 2, 103, 200.6288146972656
0, 2, 104, 187.4786682128906
0, 2, 105, 199.6117706298828
0, 2, 106, 195.6083526611328
0, 2, 107, 150.0610504150391
0, 2, 108, 78.43749237060547
0, 2, 109, 17.84223365783691
0, 2, 110, 8.344974517822266
0, 2, 111, 5.339200019836426
0, 2, 112, 5.529342651367188
0, 2, 113, 4.194868564605713
0, 2, 114, 6.916650295257568
0, 2, 115, 2.946717023849487
0, 2, 116, 2.00723123550415
0, 2, 117, 1.065231442451477
0, 2, 118, 2.508550405502319
0, 2, 119, 2.559083461761475
0, 2, 120, 2.557847261428833
0, 2, 121, 4.224648952484131
0, 2, 122, 1.668270111083984
0, 2, 123, 3.669476509094238
0, 2, 124, 2.766428470611572
0, 2, 125, 2.691712141036987
0, 2, 126, 3.663301944732666
0, 2, 127, 0.7565343976020813
0, 3, 0, 1.169376134872437
0, 3, 1, 1.999815106391907
0, 3, 2, 3.804191827774048
0, 3, 3, 1.334330677986145
0, 3, 4, 4.718224048614502
0, 3, 5, 1.667526245117188
0, 3, 6, 2.079264402389526
0, 3, 7, 1.48680317401886
0, 3, 8, 3.165533065795898
0, 3, 9, 1.884616732597351
0, 3, 10, 2.073522090911865
0, 3, 11, 4.445583343505859
0, 3, 12, 3.5540931224823
0, 3, 13, 3.933618545532227
0, 3, 14, 4.160756587982178
0, 3, 15, 7.383500576019287
0, 3, 16, 7.808736801147461
0, 3, 17, 7.01716136932373
0, 3, 18, 32.70201873779297
0, 3, 19, 114.7700958251953
0, 3, 20, 180.4094085693359
0, 3, 21, 172.7544555664062
0, 3, 22, 177.7881469726562
0, 3, 23, 186.9842071533203
0, 3, 24, 178.0865631103516
0, 3, 25, 169.0640258789062
0, 3, 26, 180.9846038818359
0, 3, 27, 189.7061462402344
0, 3, 28, 182.7990264892578
0, 3, 29, 198.7092132568359
0, 3, 30, 186.3401489257812
0, 3, 31, 193.3109130859375
0, 3, 32, 206.0221099853516
0, 3, 33, 196.8412170410156
0, 3, 34, 187.9754638671875
0, 3, 35, 175.9024200439453
0, 3, 36, 186.3486328125
0, 3, 37, 200.3681640625
0, 3, 38, 194.1549072265625
0, 3, 39, 184.6694793701172
0, 3, 40, 165.4320068359375
0, 3, 41, 174.6056365966797
0, 3, 42, 184.7657623291016
0, 3, 43, 181.2994384765625
0, 3, 44, 202.7636871337891
0, 3, 45, 207.8038177490234
0, 3, 46, 198.0180358886719
0, 3, 47, 194.0203094482422
0, 3, 48, 196.6303558349609
0, 3, 49, 180.64501953125
0, 3, 50, 186.1237335205078
0, 3, 51, 174.166015625
0, 3, 52, 187.5697784423828
0, 3, 53, 178.481201171875
0, 3, 54, 178.1443939208984
0, 3, 55, 176.5746917724609
0, 3, 56, 184.5834503173828
0, 3, 57, 175.2719879150391
0, 3, 58, 201.1540832519531
0, 3, 59, 195.8837432861328
0, 3, 60, 186.4259185791016
0, 3, 61, 181.4732513427734
0, 3, 62, 181.2158508300781
0, 3, 63, 185.2717437744141
0, 3, 64, 190.8129577636719
0, 3, 65, 187.3016815185547
0, 3, 66, 175.7329406738281
0, 3, 67, 190.0981903076172
0, 3, 68, 211.5081634521484
0, 3, 69, 191.0207366943359
0, 3, 70, 184.8454284667969
0, 3, 71, 197.0848541259766
0, 3, 72, 185.2343292236328
0, 3, 73, 186.7526245117188
0, 3, 74, 192.7285308837891
0, 3, 75, 194.9132232666016
0, 3, 76, 190.3191680908203
0, 3, 77, 201.4206848144531
0, 3, 78, 187.5708160400391
0, 3, 79, 186.0871124267578
0, 3, 80, 189.2637023925781
0, 3, 81, 184.2890777587891
0, 3, 82, 179.1547546386719
0, 3, 83, 194.76513671875
0, 3, 84, 199.314208984375
0, 3, 85, 191.3102416992188
0, 3, 86, 204.2314300537109
0, 3, 87, 196.7696990966797
0, 3, 88, 191.5796051025391
0, 3, 89, 192.6239013671875
0, 3, 90, 174.0458374023438
0, 3, 91, 158.511962890625
0, 3, 92, 208.4927215576172
0, 3, 93, 195.9163360595703
0, 3, 94, 193.9411773681641
0, 3, 95, 210.7926483154297
0, 3, 96, 209.5743103027344
0, 3, 97, 167.4289093017578
0, 3, 98, 167.5125122070312
0, 3, 99, 180.6047210693359
0, 3, 100, 176.5860290527344
0, 3, 101, 199.299560546875
0, 3, 102, 194.4627380371094
0, 3, 103, 192.48974609375
0, 3, 104, 202.1545715332031
0, 3, 105, 176.3365173339844
0, 3, 106, 181.5826263427734
0, 3, 107, 170.2940063476562
0, 3, 108, 107.7212753295898
0, 3, 109, 26.91508865356445
0, 3, 110, 9.521125793457031
0, 3, 111, 8.352764129638672
0, 3, 112, 3.338625192642212
0, 3, 113, 6.408125877380371
0, 3, 114, 4.703699588775635
0, 3, 115, 5.581757545471191
0, 3, 116, 5.979518413543701
0, 3, 117, 6.294712543487549
0, 3, 118, 2.246153354644775
0, 3, 119, 2.321124792098999
0, 3, 120, 5.394979476928711
0, 3, 121, 3.527845144271851
0, 3, 122, 3.082475662231445
0, 3, 123, 2.594867467880249
0, 3, 124, 2.226588726043701
0, 3, 125, 1.905169725418091
0, 3, 126, 2.438225746154785
0, 3, 127, 2.063848733901978
0, 4, 0, 0.888569176197052
0, 4, 1, 1.188678026199341
0, 4, 2, 2.168023347854614
0, 4, 3, 3.717798233032227
0, 4, 4, 1.499711990356445
0, 4, 5, 1.320143461227417
0, 4, 6, 3.079505443572998
0, 4, 7, 4.109889030456543
0, 4, 8, 2.030429363250732
0, 4, 9, 1.780427694320679
0, 4, 10, 3.040006637573242
0, 4, 11, 3.920001029968262
0, 4, 12, 5.698591709136963
0, 4, 13, 3.882880210876465
0, 4, 14, 4.448315143585205
0, 4, 15, 8.405961036682129
0, 4, 16, 5.842522621154785
0, 4, 17, 11.1044921875
0, 4, 18, 54.44817352294922
0, 4, 19, 150.2002868652344
0, 4, 20, 193.2250518798828
0, 4, 21, 169.0322570800781
0, 4, 22, 187.5205230712891
0, 4, 23, 197.3995971679688
0, 4, 24, 192.9448547363281
0, 4, 25, 200.6685180664062
0, 4, 26, 182.7238922119141
0, 4, 27, 190.5657958984375
0, 4, 28, 178.3327178955078
0, 4, 29, 205.1136169433594
0, 4, 30, 194.6217346191406
0, 4, 31, 192.9811553955078
0, 4, 32, 208.36376953125
0, 4, 33, 190.8321228027344
0, 4, 34, 191.6711730957031
0, 4, 35, 212.1820068359375
0, 4, 36, 192.6501617431641
0, 4, 37, 177.0714263916016
0, 4, 38, 195.1154632568359
0, 4, 39, 190.0200653076172
0, 4, 40, 186.0215759277344
0, 4, 41, 188.5934295654297
0, 4, 42, 206.0443725585938
0, 4, 43, 173.9289855957031
0, 4, 44, 183.9821624755859
0, 4, 45, 196.8890075683594
0, 4, 46, 185.8939666748047
0, 4, 47, 179.5576324462891
0, 4, 48, 185.9497680664062
0, 4, 49, 174.6636810302734
0, 4, 50, 187.3121643066406
0, 4, 51, 197.2841644287109
0, 4, 52, 224.5219268798828
0, 4, 53, 206.3544311523438
0, 4, 54, 189.5429077148438
0, 4, 55, 174.9789581298828
0, 4, 56, 192.6667175292969
0, 4, 57, 191.2358551025391
0, 4, 58, 187.0408782958984
0, 4, 59, 190.1178588867188
0, 4, 60, 195.8546447753906
0, 4, 61, 192.8192291259766
0, 4, 62, 190.25537109375
0, 4, 63, 177.9628448486328
0, 4, 64, 213.7741088867188
0, 4, 65, 191.2566833496094
0, 4, 66, 201.7248229980469
0, 4, 67, 199.6054382324219
0, 4, 68, 202.1264953613281
0, 4, 69, 200.2033996582031
0, 4, 70, 204.5641174316406
0, 4, 71, 206.7236175537109
0, 4, 72, 214.7257080078125
0, 4, 73, 185.9144592285156
0, 4, 74, 179.7623291015625
0, 4, 75, 184.7542724609375
0, 4, 76, 189.9598083496094
0, 4, 77, 182.8934326171875
0, 4, 78, 194.8090515136719
0, 4, 79, 204.1397552490234
0, 4, 80, 210.9221038818359
0, 4, 81, 197.9185333251953
0, 4, 82, 181.50390625
0, 4, 83, 171.7102355957031
0, 4, 84, 193.1820831298828
0, 4, 85, 196.4720916748047
0, 4, 86, 183.4517364501953
0, 4, 87, 183.4133605957031
0, 4, 88, 205.0443267822266
0, 4, 89, 188.7918853759766
0, 4, 90, 211.2823486328125
0, 4, 91, 188.9747161865234
0, 4, 92, 195.9085235595703
0, 4, 93, 195.8457794189453
0, 4, 94, 182.7085418701172
0, 4, 95, 174.9841461181641
0, 4, 96, 190.0202331542969
0, 4, 97, 192.6846618652344
0, 4, 98, 200.4405670166016
0, 4, 99, 182.9703826904297
0, 4, 100, 182.8804016113281
0, 4, 101, 177.5095367431641
0, 4, 102, 172.7961730957031
0, 4, 103, 184.9328765869141
0, 4, 104, 209.6979827880859
0, 4, 105, 189.6900482177734
0, 4, 106, 179.1365051269531
0, 4, 107, 181.5535278320312
0, 4, 108, 151.8222808837891
0, 4, 109, 51.14581680297852
0, 4, 110, 11.37901973724365
0, 4, 111, 7.617313385009766
0, 4, 112, 6.098537921905518
0, 4, 113, 6.979228496551514
0, 4, 114, 5.516769409179688
0, 4, 115, 4.081892013549805
0, 4, 116, 5.201009750366211
0, 4, 117, 2.176614761352539
0, 4, 118, 3.785917520523071
0, 4, 119, 3.791584014892578
0, 4, 120, 2.307042121887207
0, 4, 121, 2.560965776443481
0, 4, 122, 2.962478876113892
0, 4, 123, 2.6170814037323
0, 4, 124, 4.839124202728271
0, 4, 125, 2.423094034194946
0, 4, 126, 0.5916812419891357
0, 4, 127, 1.58572793006897
0, 5, 0, 1.918514370918274
0, 5, 1, 3.938823461532593
0, 5, 2, 6.000997066497803
0, 5, 3, 3.717772245407104
0, 5, 4, 5.235939502716064
0, 5, 5, 2.875316858291626
0, 5, 6, 2.566470384597778
0, 5, 7, 2.79680871963501
0, 5, 8, 3.002840042114258
0, 5, 9, 2.732406854629517
0, 5, 10, 2.978080272674561
0, 5, 11, 5.705204010009766
0, 5, 12, 3.039347171783447
0, 5, 13, 3.937666416168213
0, 5, 14, 5.897385120391846
0, 5, 15, 8.05368709564209
0, 5, 16, 8.089235305786133
0, 5, 17, 21.21249580383301
0, 5, 18, 85.00188446044922
0, 5, 19, 163.8661499023438
0, 5, 20, 184.7869567871094
0, 5, 21, 178.1179504394531
0, 5, 22, 172.2356567382812
0, 5, 23, 201.1388702392578
0, 5, 24, 187.240966796875
0, 5, 25, 208.4847564697266
0, 5, 26, 181.809814453125
0, 5, 27, 195.6436920166016
0, 5, 28, 190.1126098632812
0, 5, 29, 195.5028076171875
0, 5, 30, 177.5423583984375
0, 5, 31, 180.0254058837891
0, 5, 32, 187.3786926269531
0, 5, 33, 169.0036926269531
0, 5, 34, 195.0181884765625
0, 5, 35, 196.5973358154297
0, 5, 36, 168.9958190917969
0, 5, 37, 197.0962982177734
0, 5, 38, 182.3512115478516
0, 5, 39, 185.3476867675781
0, 5, 40, 196.7144775390625
0, 5, 41, 176.5912933349609
0, 5, 42, 189.8424072265625
0, 5, 43, 192.7857360839844
0, 5, 44, 200.925048828125
0, 5, 45, 186.3672332763672
0, 5, 46, 192.5652313232422
0, 5, 47, 181.9171142578125
0, 5, 48, 180.3426208496094
0, 5, 49, 177.1405029296875
0, 5, 50, 185.7894592285156
0, 5, 51, 171.9336853027344
0, 5, 52, 167.4526062011719
0, 5, 53, 182.3258514404297
0, 5, 54, 172.9287872314453
0, 5, 55, 215.654296875
0, 5, 56, 181.4758758544922
0, 5, 57, 208.0205688476562
0, 5, 58, 183.5752563476562
0, 5, 59, 180.974365234375
0, 5, 60, 218.0972290039062
0, 5, 61, 184.8276062011719
0, 5, 62, 179.9011535644531
0, 5, 63, 180.8390502929688
0, 5, 64, 195.1180114746094
0, 5, 65, 209.25830078125
0, 5, 66, 192.0792541503906
0, 5, 67, 201.4067077636719
0, 5, 68, 185.3303833007812
0, 5, 69, 187.7498016357422
0, 5, 70, 185.6358642578125
0, 5, 71, 192.7385559082031
0, 5, 72, 197.4505310058594
0, 5, 73, 202.0908355712891
0, 5, 74, 181.5181732177734
0, 5, 75, 203.9379577636719
0, 5, 76, 214.4889373779297
0, 5, 77, 182.7855682373047
0, 5, 78, 194.0750732421875
0, 5, 79, 190.7685241699219
0, 5, 80, 198.5198059082031
0, 5, 81, 203.5085906982422
0, 5, 82, 203.0719757080078
0, 5, 83, 188.6537780761719
0, 5, 84, 207.2487945556641
0, 5, 85, 177.5417327880859
0, 5, 86, 195.6899566650391
0, 5, 87, 188.6172637939453
0, 5, 88, 176.6032562255859
0, 5, 89, 194.2335205078125
0, 5, 90, 198.7673950195312
0, 5, 91, 195.2603607177734
0, 5, 92, 190.5967254638672
0, 5, 93, 189.6998443603516
0, 5, 94, 208.6804351806641
0, 5, 95, 177.6942443847656
0, 5, 96, 182.2465515136719
0, 5, 97, 192.2023620605469
0, 5, 98, 188.4868927001953
0, 5, 99, 194.1195373535156
0, 5, 100, 187.4220733642578
0, 5, 101, 195.6094665527344
0, 5, 102, 183.5827178955078
0, 5, 103, 176.6364440917969
0, 5, 104, 189.9117736816406
0, 5, 105, 190.4221649169922
0, 5, 106, 178.4248962402344
0, 5, 107, 182.2217102050781
0, 5, 108, 176.0751495361328
0, 5, 109, 89.07791900634766
0, 5, 110, 30.47354698181152
0, 5, 111, 9.341261863708496
0, 5, 112, 6.45506763458252
0, 5, 113, 6.218469619750977
0, 5, 114, 9.062821388244629
0, 5, 115, 5.715747833251953
0, 5, 116, 3.297310829162598
0, 5, 117, 3.42141580581665
0, 5, 118, 4.108488082885742
0, 5, 119, 3.10322904586792
0, 5, 120, 2.400858402252197
0, 5, 121, 1.835055112838745
0, 5, 122, 3.18822169303894
0, 5, 123, 4.167762279510498
0, 5, 124, 3.472220897674561
0, 5, 125, 1.697916150093079
0, 5, 126, 0.8290771245956421
0, 5, 127, 2.704022884368896
0, 6, 0, 3.358748435974121
0, 6, 1, 3.809706687927246
0, 6, 2, 2.824202060699463
0, 6, 3, 2.254211187362671
0, 6, 4, 2.253329992294312
0, 6, 5, 2.400826692581177
0, 6, 6, 2.771362781524658
0, 6, 7, 3.393395185470581
0, 6, 8, 3.978070735931396
0, 6, 9, 3.251723289489746
0, 6, 10, 3.901322603225708
0, 6, 11, 3.863680362701416
0, 6, 12, 6.595609188079834
0, 6, 13, 5.363020420074463
0, 6, 14, 6.076646327972412
0, 6, 15, 7.85868501663208
0, 6, 16, 13.966872215271
0, 6, 17, 31.74532699584961
0, 6, 18, 113.0193557739258
0, 6, 19, 191.8255767822266
0, 6, 20, 195.9293823242188
0, 6, 21, 197.7640686035156
0, 6, 22, 191.8080444335938
0, 6, 23, 192.0683441162109
0, 6, 24, 200.6707916259766
0, 6, 25, 183.5404510498047
0, 6, 26, 187.2355041503906
0, 6, 27, 192.1790008544922
0, 6, 28, 188.3393402099609
0, 6, 29, 212.0969390869141
0, 6, 30, 189.9832458496094
0, 6, 31, 193.1700134277344
0, 6, 32, 206.1546325683594
0, 6, 33, 184.4579620361328
0, 6, 34, 197.4925689697266
0, 6, 35, 188.960693359375
0, 6, 36, 179.7070465087891
0, 6, 37, 183.1824340820312
0, 6, 38, 188.2964782714844
0, 6, 39, 194.5962829589844
0, 6, 40, 173.5965576171875
0, 6, 41, 184.7229919433594
0, 6, 42, 173.8516693115234
0, 6, 43, 209.5653991699219
0, 6, 44, 209.4977722167969
0, 6, 45, 195.6195068359375
0, 6, 46, 188.679931640625
0, 6, 47, 205.2641296386719
0, 6, 48, 188.1143798828125
0, 6, 49, 179.7030029296875
0, 6, 50, 182.3817138671875
0, 6, 51, 195.5507354736328
0, 6, 52, 197.2326965332031
0, 6, 53, 184.6336059570312
0, 6, 54, 175.3937683105469
0, 6, 55, 195.1133422851562
0, 6, 56, 201.7684631347656
0, 6, 57, 192.0862274169922
0, 6, 58, 180.5083465576172
0, 6, 59, 192.7977752685547
0, 6, 60, 184.5888671875
0, 6, 61, 194.5099792480469
0, 6, 62, 197.5329895019531
0, 6, 63, 187.9109344482422
0, 6, 64, 168.0447998046875
0, 6, 65, 185.1405639648438
0, 6, 66, 199.0228729248047
0, 6, 67, 214.0406494140625
0, 6, 68, 179.8277435302734
0, 6, 69, 171.0431823730469
0, 6, 70, 188.5293121337891
0, 6, 71, 170.3161315917969
0, 6, 72, 176.5924682617188
0, 6, 73, 179.4022827148438
0, 6, 74, 209.6445007324219
0, 6, 75, 228.8060607910156
0, 6, 76, 184.3350982666016
0, 6, 77, 173.7598419189453
0, 6, 78, 175.2337188720703
0, 6, 79, 186.9057312011719
0, 6, 80, 186.8423767089844
0, 6, 81, 208.9170379638672
0, 6, 82, 194.7355041503906
0, 6, 83, 195.4229888916016
0, 6, 84, 197.1388549804688
0, 6, 85, 180.9640808105469
0, 6, 86, 201.8308258056641
0, 6, 87, 183.2546234130859
0, 6, 88, 195.1621704101562
0, 6, 89, 187.7708892822266
0, 6, 90, 205.4526519775391
0, 6, 91, 199.6573181152344
0, 6, 92, 171.9937286376953
0, 6, 93, 191.7912902832031
0, 6, 94, 191.4750823974609
0, 6, 95, 185.2184600830078
0, 6, 96, 189.3022308349609
0, 6, 97, 194.0655670166016
0, 6, 98, 182.9533081054688
0, 6, 99, 174.9455413818359
0, 6, 100, 202.6266174316406
0, 6, 101, 168.5786437988281
0, 6, 102, 201.6424102783203
0, 6, 103, 195.9630279541016
0, 6, 104, 183.7238922119141
0, 6, 105, 193.5628509521484
0, 6, 106, 177.2333068847656
0, 6, 107, 194.5386505126953
0, 6, 108, 171.6244659423828
0, 6, 109, 117.3568649291992
0, 6, 110, 34.16611480712891
0, 6, 111, 8.725480079650879
0, 6, 112, 8.440704345703125
0, 6, 113, 5.679781913757324
0, 6, 114, 4.999981880187988
0, 6, 115, 5.96171760559082
0, 6, 116, 3.95559549331665
0, 6, 117, 3.143277645111084
0, 6, 118, 4.299134731292725
0, 6, 119, 5.023051738739014
0, 6, 120, 2.372001886367798
0, 6, 121, 5.630225658416748
0, 6, 122, 2.399969100952148
0, 6, 123, 2.061836004257202
0, 6, 124, 2.521216154098511
0, 6, 125, 3.501411437988281
0, 6, 126, 3.804903984069824
0, 6, 127, 2.44982385635376
0, 7, 0, 2.561856508255005
0, 7, 1, 1.028075337409973
0, 7, 2, 2.111758470535278
0, 7, 3, 3.807430267333984
0, 7, 4, 1.119365453720093
0, 7, 5, 1.305579423904419
0, 7, 6, 2.103050708770752
0, 7, 7, 1.078448534011841
0, 7, 8, 3.561388254165649
0, 7, 9, 4.026010990142822
0, 7, 10, 5.524943828582764
0, 7, 11, 3.355900287628174
0, 7, 12, 3.186944484710693
0, 7, 13, 7.199477672576904
0, 7, 14, 6.596635341644287
0, 7, 15, 7.21397876739502
0, 7, 16, 15.87123203277588
0, 7, 17, 50.32162857055664
0, 7, 18, 160.9421691894531
0, 7, 19, 182.4769134521484
0, 7, 20, 178.7296142578125
0, 7, 21, 179.4590148925781
0, 7, 22, 191.3130645751953
0, 7, 23, 204.1648559570312
0, 7, 24, 179.5201873779297
0, 7, 25, 212.6176605224609
0, 7, 26, 189.0943603515625
0, 7, 27, 182.6210021972656
0, 7, 28, 182.7262268066406
0, 7, 29, 209.0865631103516
0, 7, 30, 192.4708557128906
0, 7, 31, 176.3554229736328
0, 7, 32, 191.7661590576172
0, 7, 33, 182.0133514404297
0, 7, 34, 194.1725769042969
0, 7, 35, 196.7537994384766
0, 7, 36, 187.8343811035156
0, 7, 37, 214.6557769775391
0, 7, 38, 192.1497192382812
0, 7, 39, 175.2462768554688
0, 7, 40, 183.0181732177734
0, 7, 41, 185.3754119873047
0, 7, 42, 178.1802215576172
0, 7, 43, 177.7129211425781
0, 7, 44, 179.8154602050781
0, 7, 45, 174.2356872558594
0, 7, 46, 187.1952667236328
0, 7, 47, 197.5345764160156
0, 7, 48, 185.9904937744141
0, 7, 49, 199.1595306396484
0, 7, 50, 189.1680908203125
0, 7, 51, 206.0796051025391
0, 7, 52, 204.0686798095703
0, 7, 53, 190.9522552490234
0, 7, 54, 195.9860687255859
0, 7, 55, 203.1297760009766
0, 7, 56, 183.2298889160156
0, 7, 57, 182.9848022460938
0, 7, 58, 190.4463348388672
0, 7, 59, 187.0933837890625
0, 7, 60, 203.5526733398438
0, 7, 61, 171.6290588378906
0, 7, 62, 202.6988677978516
0, 7, 63, 188.6619720458984
0, 7, 64, 199.981689453125
0, 7, 65, 202.530517578125
0, 7, 66, 207.0667114257812
0, 7, 67, 219.5015411376953
0, 7, 68, 162.0620574951172
0, 7, 69, 193.635009765625
0, 7, 70, 216.5447845458984
0, 7, 71, 185.6347961425781
0, 7, 72, 180.9965057373047
0, 7, 73, 176.9869995117188
0, 7, 74, 207.3409729003906
0, 7, 75, 203.7344055175781
0, 7, 76, 216.6830444335938
0, 7, 77, 174.7495727539062
0, 7, 78, 177.3180999755859
0, 7, 79, 194.3282165527344
0, 7, 80, 198.3154296875
0, 7, 81, 214.4109344482422
0, 7, 82, 183.7740478515625
0, 7, 83, 205.8607177734375
0, 7, 84, 191.7834777832031
0, 7, 85, 185.4207458496094
0, 7, 86, 200.52001953125
0, 7, 87, 224.4303131103516
0, 7, 88, 195.5540161132812
0, 7, 89, 177.5325317382812
0, 7, 90, 182.5624237060547
0, 7, 91, 193.7439727783203
0, 7, 92, 195.2950439453125
0, 7, 93, 198.9092864990234
0, 7, 94, 176.2220458984375
0, 7, 95, 197.3717956542969
0, 7, 96, 209.5974884033203
0, 7, 97, 190.5955505371094
0, 7, 98, 176.7007598876953
0, 7, 99, 197.7914886474609
0, 7, 100, 182.2703094482422
0, 7, 101, 199.9491424560547
0, 7, 102, 185.0382385253906
0, 7, 103, 181.1014251708984
0, 7, 104, 176.6534576416016
0, 7, 105, 196.9976654052734
0, 7, 106, 204.8189544677734
0, 7, 107, 173.6905670166016
0, 7, 108, 178.9432067871094
0, 7, 109, 136.521484375
0, 7, 110, 54.01274490356445
0, 7, 111, 8.772193908691406
0, 7, 112, 8.255402565002441
0, 7, 113, 7.393221855163574
0, 7, 114, 6.499796867370605
0, 7, 115, 5.405872821807861
0, 7, 116, 3.77702808380127
0, 7, 117, 3.633599758148193
0, 7, 118, 2.913923501968384
0, 7, 119, 2.386279821395874
0, 7, 120, 4.111700057983398
0, 7, 121, 2.712865829467773
0, 7, 122, 2.523973941802979
0, 7, 123, 2.394965171813965
0, 7, 124, 1.563558578491211
0, 7, 125, 2.736016750335693
0, 7, 126, 1.876260042190552
0, 7, 127, 1.104343295097351
0, 8, 0, 4.630841732025146
0, 8, 1, 2.054548740386963
0, 8, 2, 2.585265636444092
0, 8, 3, 1.256837606430054
0, 8, 4, 1.234425902366638
0, 8, 5, 2.69368577003479
0, 8, 6, 2.036075592041016
0, 8, 7, 3.107328653335571
0, 8, 8, 2.589003324508667
0, 8, 9, 4.614589214324951
0, 8, 10, 2.774787902832031
0, 8, 11, 2.377584934234619
0, 8, 12, 4.474453449249268
0, 8, 13, 6.876567840576172
0, 8, 14, 7.632564067840576
0, 8, 15, 10.30211067199707
0, 8, 16, 19.45795249938965
0, 8, 17, 76.87787628173828
0, 8, 18, 144.5821685791016
0, 8, 19, 180.9597320556641
0, 8, 20, 191.9360656738281
0, 8, 21, 194.2294616699219
0, 8, 22, 179.689697265625
0, 8, 23, 172.0619964599609
0, 8, 24, 192.3396301269531
0, 8, 25, 184.6338348388672
0, 8, 26, 192.416748046875
0, 8, 27, 187.2416687011719
0, 8, 28, 185.6380157470703
0, 8, 29, 206.180908203125
0, 8, 30, 196.7962799072266
0, 8, 31, 181.7371673583984
0, 8, 32, 198.2432098388672
0, 8, 33, 207.4256286621094
0, 8, 34, 202.9942932128906
0, 8, 35, 184.8580780029297
0, 8, 36, 181.3250885009766
0, 8, 37, 200.3217315673828
