# TOPAS Version: 3.1.p3
# Parameter File: batch_inserts_42.txt
# Results for scorer Readout_Adipose
# Scored in component: MyBox
# X in 1 bin  of 0.65 cm
# Y in 512 bins of 0.0783984 cm
# Z in 128 bins of 0.078125 cm
# EnergyDeposit ( MeV ) : Sum   
0, 0, 0, 1.772940397262573
0, 0, 1, 3.874208211898804
0, 0, 2, 2.957314014434814
0, 0, 3, 1.020592212677002
0, 0, 4, 1.901962041854858
0, 0, 5, 1.509575247764587
0, 0, 6, 1.452416181564331
0, 0, 7, 1.858101606369019
0, 0, 8, 2.306224346160889
0, 0, 9, 2.792732715606689
0, 0, 10, 2.460662603378296
0, 0, 11, 3.204319000244141
0, 0, 12, 3.263965368270874
0, 0, 13, 1.772927284240723
0, 0, 14, 4.564582347869873
0, 0, 15, 5.997120380401611
0, 0, 16, 4.110541820526123
0, 0, 17, 6.782632350921631
0, 0, 18, 6.629135608673096
0, 0, 19, 23.30634689331055
0, 0, 20, 94.77842712402344
0, 0, 21, 152.4233703613281
0, 0, 22, 157.6243286132812
0, 0, 23, 143.6496429443359
0, 0, 24, 159.8367309570312
0, 0, 25, 166.1730651855469
0, 0, 26, 166.7180938720703
0, 0, 27, 174.2548065185547
0, 0, 28, 178.1396789550781
0, 0, 29, 174.4614105224609
0, 0, 30, 173.3486022949219
0, 0, 31, 167.3953704833984
0, 0, 32, 165.1348571777344
0, 0, 33, 167.7181549072266
0, 0, 34, 178.0603637695312
0, 0, 35, 173.7916107177734
0, 0, 36, 159.0835266113281
0, 0, 37, 161.5415496826172
0, 0, 38, 166.7045135498047
0, 0, 39, 158.8993988037109
0, 0, 40, 164.6040802001953
0, 0, 41, 165.2354888916016
0, 0, 42, 143.4925994873047
0, 0, 43, 170.0960083007812
0, 0, 44, 177.9205780029297
0, 0, 45, 174.2953643798828
0, 0, 46, 167.992431640625
0, 0, 47, 167.0031585693359
0, 0, 48, 168.6836395263672
0, 0, 49, 181.9838562011719
0, 0, 50, 169.4246215820312
0, 0, 51, 162.2664031982422
0, 0, 52, 163.8081512451172
0, 0, 53, 171.6900024414062
0, 0, 54, 159.80908203125
0, 0, 55, 164.3755187988281
0, 0, 56, 188.5990753173828
0, 0, 57, 171.1180419921875
0, 0, 58, 161.06591796875
0, 0, 59, 172.03173828125
0, 0, 60, 168.3473205566406
0, 0, 61, 171.5012969970703
0, 0, 62, 184.8730163574219
0, 0, 63, 169.5587005615234
0, 0, 64, 164.603515625
0, 0, 65, 175.5899200439453
0, 0, 66, 177.048095703125
0, 0, 67, 163.7910461425781
0, 0, 68, 159.1128234863281
0, 0, 69, 158.3082275390625
0, 0, 70, 169.5259094238281
0, 0, 71, 159.1138000488281
0, 0, 72, 162.2250061035156
0, 0, 73, 172.2024078369141
0, 0, 74, 162.4688415527344
0, 0, 75, 164.259521484375
0, 0, 76, 162.4983215332031
0, 0, 77, 172.3241424560547
0, 0, 78, 182.2578125
0, 0, 79, 174.7230987548828
0, 0, 80, 160.5969085693359
0, 0, 81, 160.0204315185547
0, 0, 82, 181.2990264892578
0, 0, 83, 173.7256469726562
0, 0, 84, 159.8519287109375
0, 0, 85, 181.7116851806641
0, 0, 86, 159.2385864257812
0, 0, 87, 177.5483551025391
0, 0, 88, 176.7397613525391
0, 0, 89, 177.7835693359375
0, 0, 90, 163.1530609130859
0, 0, 91, 185.9791107177734
0, 0, 92, 164.6107635498047
0, 0, 93, 156.3818511962891
0, 0, 94, 168.8791961669922
0, 0, 95, 174.6734313964844
0, 0, 96, 183.4729461669922
0, 0, 97, 184.3399200439453
0, 0, 98, 186.7553405761719
0, 0, 99, 170.8450622558594
0, 0, 100, 158.6533050537109
0, 0, 101, 166.7328796386719
0, 0, 102, 170.4785308837891
0, 0, 103, 170.3394927978516
0, 0, 104, 169.7708435058594
0, 0, 105, 178.4286956787109
0, 0, 106, 159.067138671875
0, 0, 107, 85.21842956542969
0, 0, 108, 21.78535079956055
0, 0, 109, 10.46265602111816
0, 0, 110, 5.49115514755249
0, 0, 111, 6.2125563621521
0, 0, 112, 3.743391036987305
0, 0, 113, 2.629496812820435
0, 0, 114, 2.347464561462402
0, 0, 115, 4.626836776733398
0, 0, 116, 2.872302532196045
0, 0, 117, 4.005511283874512
0, 0, 118, 1.906451821327209
0, 0, 119, 1.764767169952393
0, 0, 120, 1.201479434967041
0, 0, 121, 4.0561203956604
0, 0, 122, 4.999273300170898
0, 0, 123, 3.499173641204834
0, 0, 124, 1.203004598617554
0, 0, 125, 3.204172372817993
0, 0, 126, 0.4947327971458435
0, 0, 127, 2.773225069046021
0, 1, 0, 0.8965280055999756
0, 1, 1, 5.761650085449219
0, 1, 2, 6.480781555175781
0, 1, 3, 1.180628299713135
0, 1, 4, 1.627020001411438
0, 1, 5, 1.500097155570984
0, 1, 6, 0.9751889109611511
0, 1, 7, 2.046680450439453
0, 1, 8, 3.115724086761475
0, 1, 9, 2.377419471740723
0, 1, 10, 2.917898654937744
0, 1, 11, 3.89784049987793
0, 1, 12, 4.688234806060791
0, 1, 13, 4.262038707733154
0, 1, 14, 5.074886798858643
0, 1, 15, 5.691900253295898
0, 1, 16, 9.42878246307373
0, 1, 17, 5.080441951751709
0, 1, 18, 10.60727214813232
0, 1, 19, 39.00059509277344
0, 1, 20, 127.3799209594727
0, 1, 21, 178.1484069824219
0, 1, 22, 193.0524139404297
0, 1, 23, 186.2696075439453
0, 1, 24, 179.6231994628906
0, 1, 25, 192.6744384765625
0, 1, 26, 197.9945068359375
0, 1, 27, 185.5960235595703
0, 1, 28, 187.9167633056641
0, 1, 29, 184.4194793701172
0, 1, 30, 179.8578033447266
0, 1, 31, 182.3427581787109
0, 1, 32, 188.4487915039062
0, 1, 33, 190.0244140625
0, 1, 34, 183.8044281005859
0, 1, 35, 195.0880737304688
0, 1, 36, 205.9275817871094
0, 1, 37, 183.8015899658203
0, 1, 38, 166.5079956054688
0, 1, 39, 173.6096954345703
0, 1, 40, 179.7411041259766
0, 1, 41, 185.4359130859375
0, 1, 42, 182.5666046142578
0, 1, 43, 185.1318054199219
0, 1, 44, 167.9968414306641
0, 1, 45, 185.9161376953125
0, 1, 46, 170.0163116455078
0, 1, 47, 186.1368865966797
0, 1, 48, 186.2276611328125
0, 1, 49, 187.3380737304688
0, 1, 50, 177.8165588378906
0, 1, 51, 190.72216796875
0, 1, 52, 194.822265625
0, 1, 53, 196.6168365478516
0, 1, 54, 185.4753570556641
0, 1, 55, 164.8410339355469
0, 1, 56, 178.8006896972656
0, 1, 57, 177.9475708007812
0, 1, 58, 188.7408142089844
0, 1, 59, 193.2549743652344
0, 1, 60, 188.0348663330078
0, 1, 61, 178.1783294677734
0, 1, 62, 205.0153350830078
0, 1, 63, 173.5085906982422
0, 1, 64, 172.5732116699219
0, 1, 65, 184.6632995605469
0, 1, 66, 203.9118194580078
0, 1, 67, 183.6083984375
0, 1, 68, 187.0544128417969
0, 1, 69, 189.5210266113281
0, 1, 70, 185.3674163818359
0, 1, 71, 171.0998229980469
0, 1, 72, 191.8169250488281
0, 1, 73, 190.5518035888672
0, 1, 74, 200.76416015625
0, 1, 75, 185.0539398193359
0, 1, 76, 175.1388397216797
0, 1, 77, 191.4994659423828
0, 1, 78, 188.2712707519531
0, 1, 79, 202.2789306640625
0, 1, 80, 188.3562927246094
0, 1, 81, 176.6784820556641
0, 1, 82, 207.8984832763672
0, 1, 83, 212.7988433837891
0, 1, 84, 179.8245697021484
0, 1, 85, 169.3660583496094
0, 1, 86, 168.4723815917969
0, 1, 87, 184.7379455566406
0, 1, 88, 176.7634124755859
0, 1, 89, 186.7209014892578
0, 1, 90, 212.2850952148438
0, 1, 91, 181.4149932861328
0, 1, 92, 184.2479095458984
0, 1, 93, 183.5226593017578
0, 1, 94, 186.3645477294922
0, 1, 95, 181.6431427001953
0, 1, 96, 195.656982421875
0, 1, 97, 181.9454650878906
0, 1, 98, 186.6117248535156
0, 1, 99, 175.3839874267578
0, 1, 100, 171.4993133544922
0, 1, 101, 177.9889373779297
0, 1, 102, 183.2387084960938
0, 1, 103, 173.0575256347656
0, 1, 104, 189.7546691894531
0, 1, 105, 181.4117126464844
0, 1, 106, 163.7702331542969
0, 1, 107, 123.9750061035156
0, 1, 108, 46.15525436401367
0, 1, 109, 10.66228103637695
0, 1, 110, 7.366854667663574
0, 1, 111, 6.445113658905029
0, 1, 112, 8.127150535583496
0, 1, 113, 7.130412578582764
0, 1, 114, 5.37721586227417
0, 1, 115, 4.16364049911499
0, 1, 116, 3.150103807449341
0, 1, 117, 3.366765022277832
0, 1, 118, 5.279111385345459
0, 1, 119, 1.381054162979126
0, 1, 120, 3.427903890609741
0, 1, 121, 3.800490379333496
0, 1, 122, 2.661669015884399
0, 1, 123, 2.613302230834961
0, 1, 124, 2.221259355545044
0, 1, 125, 1.867467999458313
0, 1, 126, 1.979153394699097
0, 1, 127, 3.156213283538818
0, 2, 0, 1.109658718109131
0, 2, 1, 2.442007780075073
0, 2, 2, 2.425622701644897
0, 2, 3, 1.881390333175659
0, 2, 4, 1.335176706314087
0, 2, 5, 1.084152936935425
0, 2, 6, 2.354591369628906
0, 2, 7, 1.817370533943176
0, 2, 8, 1.208337903022766
0, 2, 9, 1.927405595779419
0, 2, 10, 4.287966728210449
0, 2, 11, 4.001594066619873
0, 2, 12, 3.115442037582397
0, 2, 13, 3.44270396232605
0, 2, 14, 6.582062244415283
0, 2, 15, 5.579524993896484
0, 2, 16, 4.354515552520752
0, 2, 17, 8.728114128112793
0, 2, 18, 14.55460166931152
0, 2, 19, 77.05995178222656
0, 2, 20, 161.1072845458984
0, 2, 21, 183.1443176269531
0, 2, 22, 194.0670928955078
0, 2, 23, 183.7802276611328
0, 2, 24, 173.376708984375
0, 2, 25, 184.9236297607422
0, 2, 26, 179.1455688476562
0, 2, 27, 189.7374572753906
0, 2, 28, 171.2973480224609
0, 2, 29, 169.2888793945312
0, 2, 30, 187.3885345458984
0, 2, 31, 182.3866424560547
0, 2, 32, 183.8373870849609
0, 2, 33, 190.5965728759766
0, 2, 34, 197.0574493408203
0, 2, 35, 180.9197235107422
0, 2, 36, 188.4425659179688
0, 2, 37, 182.0384521484375
0, 2, 38, 183.2311859130859
0, 2, 39, 166.0706787109375
0, 2, 40, 184.1853790283203
0, 2, 41, 184.7921142578125
0, 2, 42, 190.3320770263672
0, 2, 43, 193.1163024902344
0, 2, 44, 191.1458587646484
0, 2, 45, 189.6142425537109
0, 2, 46, 195.4246978759766
0, 2, 47, 190.6205444335938
0, 2, 48, 178.9101867675781
0, 2, 49, 199.6578521728516
0, 2, 50, 168.5393676757812
0, 2, 51, 183.5977935791016
0, 2, 52, 185.7515411376953
0, 2, 53, 195.0828094482422
0, 2, 54, 176.1617126464844
0, 2, 55, 173.3443145751953
0, 2, 56, 181.4750823974609
0, 2, 57, 199.3567352294922
0, 2, 58, 186.2221221923828
0, 2, 59, 189.3334197998047
0, 2, 60, 196.9684753417969
0, 2, 61, 193.4002227783203
0, 2, 62, 190.5098724365234
0, 2, 63, 169.5893249511719
0, 2, 64, 189.2149353027344
0, 2, 65, 202.4297790527344
0, 2, 66, 195.4070281982422
0, 2, 67, 183.5527801513672
0, 2, 68, 182.8545989990234
0, 2, 69, 187.6800994873047
0, 2, 70, 203.771240234375
0, 2, 71, 174.8836059570312
0, 2, 72, 185.3745880126953
0, 2, 73, 177.3790588378906
0, 2, 74, 180.7213287353516
0, 2, 75, 196.5538482666016
0, 2, 76, 183.6071472167969
0, 2, 77, 177.2448272705078
0, 2, 78, 198.0035858154297
0, 2, 79, 177.8366394042969
0, 2, 80, 187.5796966552734
0, 2, 81, 189.0582427978516
0, 2, 82, 205.9890441894531
0, 2, 83, 203.5446929931641
0, 2, 84, 188.6008148193359
0, 2, 85, 170.5351715087891
0, 2, 86, 194.5855865478516
0, 2, 87, 171.4696044921875
0, 2, 88, 177.6252746582031
0, 2, 89, 184.6137542724609
0, 2, 90, 177.3939056396484
0, 2, 91, 173.791015625
0, 2, 92, 196.5309295654297
0, 2, 93, 195.0160217285156
0, 2, 94, 199.0522003173828
0, 2, 95, 193.3278961181641
0, 2, 96, 187.9723052978516
0, 2, 97, 172.2063446044922
0, 2, 98, 173.5015411376953
0, 2, 99, 163.5628204345703
0, 2, 100, 188.2203826904297
0, 2, 101, 196.3023681640625
0, 2, 102, 176.2799072265625
0, 2, 103, 199.1897888183594
0, 2, 104, 187.4540100097656
0, 2, 105, 200.9335327148438
0, 2, 106, 195.0753631591797
0, 2, 107, 149.3125762939453
0, 2, 108, 78.97051239013672
0, 2, 109, 17.53316116333008
0, 2, 110, 8.364294052124023
0, 2, 111, 5.483551502227783
0, 2, 112, 4.829764366149902
0, 2, 113, 5.451826095581055
0, 2, 114, 7.294108390808105
0, 2, 115, 5.30909538269043
0, 2, 116, 1.874713063240051
0, 2, 117, 1.728011727333069
0, 2, 118, 2.817349195480347
0, 2, 119, 3.497452259063721
0, 2, 120, 1.616220355033875
0, 2, 121, 2.920336723327637
0, 2, 122, 0.8515201807022095
0, 2, 123, 1.800125598907471
0, 2, 124, 3.338924884796143
0, 2, 125, 3.197192192077637
0, 2, 126, 3.073143482208252
0, 2, 127, 1.118956565856934
0, 3, 0, 1.219022154808044
0, 3, 1, 2.06414532661438
0, 3, 2, 2.020374536514282
0, 3, 3, 0.5902960896492004
0, 3, 4, 4.736311912536621
0, 3, 5, 1.352115750312805
0, 3, 6, 0.971899151802063
0, 3, 7, 1.763970971107483
0, 3, 8, 2.255511045455933
0, 3, 9, 2.247926712036133
0, 3, 10, 3.915692567825317
0, 3, 11, 4.054879665374756
0, 3, 12, 4.689640045166016
0, 3, 13, 4.506954193115234
0, 3, 14, 4.649874210357666
0, 3, 15, 7.655928611755371
0, 3, 16, 8.107657432556152
0, 3, 17, 6.586387634277344
0, 3, 18, 33.51213455200195
0, 3, 19, 115.977668762207
0, 3, 20, 179.7377166748047
0, 3, 21, 173.9032897949219
0, 3, 22, 177.9734802246094
0, 3, 23, 188.0245819091797
0, 3, 24, 177.8052673339844
0, 3, 25, 169.6179809570312
0, 3, 26, 180.6981048583984
0, 3, 27, 189.7474670410156
0, 3, 28, 181.3450164794922
0, 3, 29, 197.1146697998047
0, 3, 30, 185.1320037841797
0, 3, 31, 194.5267181396484
0, 3, 32, 205.9598999023438
0, 3, 33, 195.1473388671875
0, 3, 34, 189.8980712890625
0, 3, 35, 175.1979675292969
0, 3, 36, 184.940185546875
0, 3, 37, 200.4060211181641
0, 3, 38, 190.4063110351562
0, 3, 39, 184.0960845947266
0, 3, 40, 166.283447265625
0, 3, 41, 173.5830688476562
0, 3, 42, 186.8411712646484
0, 3, 43, 182.5426025390625
0, 3, 44, 202.3575439453125
0, 3, 45, 208.2118530273438
0, 3, 46, 198.6965789794922
0, 3, 47, 195.3455657958984
0, 3, 48, 198.6826934814453
0, 3, 49, 180.3740234375
0, 3, 50, 186.9397430419922
0, 3, 51, 173.691162109375
0, 3, 52, 187.9404296875
0, 3, 53, 177.1736755371094
0, 3, 54, 180.0682373046875
0, 3, 55, 177.4643859863281
0, 3, 56, 181.9880981445312
0, 3, 57, 175.5923767089844
0, 3, 58, 202.4545135498047
0, 3, 59, 196.8434143066406
0, 3, 60, 185.6196136474609
0, 3, 61, 181.4267578125
0, 3, 62, 181.5028686523438
0, 3, 63, 184.7095489501953
0, 3, 64, 192.7330932617188
0, 3, 65, 189.7552947998047
0, 3, 66, 174.9678497314453
0, 3, 67, 192.0849151611328
0, 3, 68, 212.9969940185547
0, 3, 69, 189.8515777587891
0, 3, 70, 185.2484130859375
0, 3, 71, 196.3889617919922
0, 3, 72, 186.2469482421875
0, 3, 73, 186.4807434082031
0, 3, 74, 192.4772491455078
0, 3, 75, 192.0367736816406
0, 3, 76, 190.0862731933594
0, 3, 77, 200.5327453613281
0, 3, 78, 188.489013671875
0, 3, 79, 184.4916381835938
0, 3, 80, 189.1908569335938
0, 3, 81, 184.9127807617188
0, 3, 82, 181.1592102050781
0, 3, 83, 194.5139617919922
0, 3, 84, 199.4480743408203
0, 3, 85, 193.13427734375
0, 3, 86, 204.3721313476562
0, 3, 87, 197.8060913085938
0, 3, 88, 192.1702728271484
0, 3, 89, 193.2432708740234
0, 3, 90, 174.7680816650391
0, 3, 91, 158.5552520751953
0, 3, 92, 207.2387084960938
0, 3, 93, 196.2591247558594
0, 3, 94, 195.3038940429688
0, 3, 95, 211.2877044677734
0, 3, 96, 209.075927734375
0, 3, 97, 170.3227081298828
0, 3, 98, 166.62841796875
0, 3, 99, 179.2054901123047
0, 3, 100, 176.0851745605469
0, 3, 101, 197.9033660888672
0, 3, 102, 194.5938415527344
0, 3, 103, 193.6676330566406
0, 3, 104, 202.1222381591797
0, 3, 105, 174.5326080322266
0, 3, 106, 180.8875122070312
0, 3, 107, 169.1125793457031
0, 3, 108, 108.6812286376953
0, 3, 109, 28.07952499389648
0, 3, 110, 9.08161449432373
0, 3, 111, 7.970161437988281
0, 3, 112, 4.95978307723999
0, 3, 113, 6.753140926361084
0, 3, 114, 4.167544364929199
0, 3, 115, 4.566438674926758
0, 3, 116, 6.437901496887207
0, 3, 117, 3.22970175743103
0, 3, 118, 1.871746897697449
0, 3, 119, 3.157402276992798
0, 3, 120, 3.455209732055664
0, 3, 121, 1.773186802864075
0, 3, 122, 3.97266960144043
0, 3, 123, 2.318775653839111
0, 3, 124, 1.777269601821899
0, 3, 125, 3.944576740264893
0, 3, 126, 1.204947829246521
0, 3, 127, 1.269266605377197
0, 4, 0, 1.189614534378052
0, 4, 1, 1.147812843322754
0, 4, 2, 1.705513119697571
0, 4, 3, 5.15706729888916
0, 4, 4, 1.928506016731262
0, 4, 5, 0.7770037651062012
0, 4, 6, 2.439933061599731
0, 4, 7, 3.704489946365356
0, 4, 8, 1.700855016708374
0, 4, 9, 1.692912817001343
0, 4, 10, 3.123101711273193
0, 4, 11, 2.725745916366577
0, 4, 12, 3.442911863327026
0, 4, 13, 4.952171325683594
0, 4, 14, 4.680142402648926
0, 4, 15, 9.141935348510742
0, 4, 16, 6.463231563568115
0, 4, 17, 11.27052593231201
0, 4, 18, 56.62568283081055
0, 4, 19, 150.8939208984375
0, 4, 20, 192.6066131591797
0, 4, 21, 170.8319702148438
0, 4, 22, 186.9332580566406
0, 4, 23, 195.4704437255859
0, 4, 24, 192.3424987792969
0, 4, 25, 200.6196136474609
0, 4, 26, 185.4148559570312
0, 4, 27, 192.9134521484375
0, 4, 28, 178.4526214599609
0, 4, 29, 205.2150115966797
0, 4, 30, 196.0111389160156
0, 4, 31, 192.7495880126953
0, 4, 32, 208.5113220214844
0, 4, 33, 189.8151092529297
0, 4, 34, 191.7699584960938
0, 4, 35, 212.3056488037109
0, 4, 36, 192.4172210693359
0, 4, 37, 176.8802642822266
0, 4, 38, 194.4185028076172
0, 4, 39, 189.2711486816406
0, 4, 40, 187.3999633789062
0, 4, 41, 189.6607208251953
0, 4, 42, 205.7520446777344
0, 4, 43, 174.6328430175781
0, 4, 44, 183.8672027587891
0, 4, 45, 196.6883697509766
0, 4, 46, 185.8022766113281
0, 4, 47, 179.9238739013672
0, 4, 48, 188.1621704101562
0, 4, 49, 175.1250610351562
0, 4, 50, 187.153564453125
0, 4, 51, 198.7005615234375
0, 4, 52, 223.6585845947266
0, 4, 53, 205.4893493652344
0, 4, 54, 189.5390777587891
0, 4, 55, 176.3366088867188
0, 4, 56, 190.6939544677734
0, 4, 57, 192.1262817382812
0, 4, 58, 187.5490417480469
0, 4, 59, 189.1566772460938
0, 4, 60, 195.9998016357422
0, 4, 61, 193.0491333007812
0, 4, 62, 189.2552947998047
0, 4, 63, 178.6755981445312
0, 4, 64, 215.4213562011719
0, 4, 65, 191.8191375732422
0, 4, 66, 201.7957305908203
0, 4, 67, 199.6714630126953
0, 4, 68, 201.4479217529297
0, 4, 69, 199.1819152832031
0, 4, 70, 206.0713043212891
0, 4, 71, 206.6927032470703
0, 4, 72, 215.2385101318359
0, 4, 73, 186.7835388183594
0, 4, 74, 182.5545654296875
0, 4, 75, 184.4714508056641
0, 4, 76, 189.8240051269531
0, 4, 77, 183.5927734375
0, 4, 78, 194.7959136962891
0, 4, 79, 204.0428009033203
0, 4, 80, 212.1283264160156
0, 4, 81, 197.7447204589844
0, 4, 82, 182.1647796630859
0, 4, 83, 169.1185455322266
0, 4, 84, 193.3924865722656
0, 4, 85, 195.4616088867188
0, 4, 86, 181.20751953125
0, 4, 87, 182.9194793701172
0, 4, 88, 203.8747711181641
0, 4, 89, 187.7370452880859
0, 4, 90, 213.732421875
0, 4, 91, 189.2002105712891
0, 4, 92, 195.6225738525391
0, 4, 93, 196.4804992675781
0, 4, 94, 182.1124725341797
0, 4, 95, 173.3843078613281
0, 4, 96, 189.9881591796875
0, 4, 97, 192.4525146484375
0, 4, 98, 201.8199768066406
0, 4, 99, 183.1378479003906
0, 4, 100, 183.1937103271484
0, 4, 101, 176.8241882324219
0, 4, 102, 174.1354064941406
0, 4, 103, 185.5338745117188
0, 4, 104, 209.6102294921875
0, 4, 105, 190.9161376953125
0, 4, 106, 180.1725463867188
0, 4, 107, 180.9846038818359
0, 4, 108, 151.8152465820312
0, 4, 109, 49.83601760864258
0, 4, 110, 10.56577682495117
0, 4, 111, 8.152556419372559
0, 4, 112, 5.883148193359375
0, 4, 113, 7.643328189849854
0, 4, 114, 4.376932144165039
0, 4, 115, 3.586432218551636
0, 4, 116, 4.394991874694824
0, 4, 117, 3.439139604568481
0, 4, 118, 2.943280696868896
0, 4, 119, 3.597561120986938
0, 4, 120, 1.868274211883545
0, 4, 121, 3.246546268463135
0, 4, 122, 3.351663589477539
0, 4, 123, 1.487550258636475
0, 4, 124, 4.072895526885986
0, 4, 125, 2.757708549499512
0, 4, 126, 1.097949624061584
0, 4, 127, 1.3111811876297
0, 5, 0, 1.611740231513977
0, 5, 1, 2.00300121307373
0, 5, 2, 5.001184940338135
0, 5, 3, 3.220278739929199
0, 5, 4, 2.993615865707397
0, 5, 5, 1.66158664226532
0, 5, 6, 2.607195377349854
0, 5, 7, 2.528056621551514
0, 5, 8, 3.390865802764893
0, 5, 9, 1.849643707275391
0, 5, 10, 2.967163324356079
0, 5, 11, 2.799187898635864
0, 5, 12, 6.579311370849609
0, 5, 13, 3.485032796859741
0, 5, 14, 5.821343898773193
0, 5, 15, 8.83769702911377
0, 5, 16, 8.018749237060547
0, 5, 17, 21.11769866943359
0, 5, 18, 83.05899047851562
0, 5, 19, 164.2795104980469
0, 5, 20, 183.6929473876953
0, 5, 21, 178.837158203125
0, 5, 22, 169.4765167236328
0, 5, 23, 201.0823974609375
0, 5, 24, 187.7115478515625
0, 5, 25, 207.9593200683594
0, 5, 26, 182.4757690429688
0, 5, 27, 194.8731231689453
0, 5, 28, 191.0216979980469
0, 5, 29, 196.1316833496094
0, 5, 30, 177.1321258544922
0, 5, 31, 180.19775390625
0, 5, 32, 187.0332946777344
0, 5, 33, 168.5549011230469
0, 5, 34, 194.800537109375
0, 5, 35, 196.8717651367188
0, 5, 36, 169.3741912841797
0, 5, 37, 198.1782836914062
0, 5, 38, 180.3104095458984
0, 5, 39, 186.8977966308594
0, 5, 40, 195.7612915039062
0, 5, 41, 177.2953948974609
0, 5, 42, 186.9307098388672
0, 5, 43, 192.9749603271484
0, 5, 44, 200.1944427490234
0, 5, 45, 185.5767974853516
0, 5, 46, 192.5334777832031
0, 5, 47, 182.2204132080078
0, 5, 48, 177.4064483642578
0, 5, 49, 175.8734130859375
0, 5, 50, 185.7659149169922
0, 5, 51, 170.9362487792969
0, 5, 52, 168.36279296875
0, 5, 53, 180.7425994873047
0, 5, 54, 173.9787445068359
0, 5, 55, 215.2870025634766
0, 5, 56, 181.3531036376953
0, 5, 57, 207.3721618652344
0, 5, 58, 182.8344879150391
0, 5, 59, 181.0547332763672
0, 5, 60, 219.0677642822266
0, 5, 61, 184.5586547851562
0, 5, 62, 179.4212493896484
0, 5, 63, 179.5514678955078
0, 5, 64, 194.6939392089844
0, 5, 65, 210.1118011474609
0, 5, 66, 192.5961608886719
0, 5, 67, 200.9660034179688
0, 5, 68, 185.3576965332031
0, 5, 69, 184.8020782470703
0, 5, 70, 184.8632965087891
0, 5, 71, 193.1887054443359
0, 5, 72, 197.4271240234375
0, 5, 73, 200.9685211181641
0, 5, 74, 178.8759307861328
0, 5, 75, 203.0764465332031
0, 5, 76, 215.3141937255859
0, 5, 77, 182.7427368164062
0, 5, 78, 194.2284545898438
0, 5, 79, 190.0516510009766
0, 5, 80, 197.7716217041016
0, 5, 81, 202.2250671386719
0, 5, 82, 201.6883087158203
0, 5, 83, 188.8235778808594
0, 5, 84, 205.7924499511719
0, 5, 85, 176.5081176757812
0, 5, 86, 198.9479217529297
0, 5, 87, 188.2656555175781
0, 5, 88, 177.4650268554688
0, 5, 89, 194.1042785644531
0, 5, 90, 198.1079406738281
0, 5, 91, 194.8777770996094
0, 5, 92, 191.1374359130859
0, 5, 93, 189.7152252197266
0, 5, 94, 209.294677734375
0, 5, 95, 176.2024688720703
0, 5, 96, 181.9340057373047
0, 5, 97, 191.7345733642578
0, 5, 98, 188.5461273193359
0, 5, 99, 194.2841491699219
0, 5, 100, 187.5677642822266
0, 5, 101, 195.8297882080078
0, 5, 102, 181.0233001708984
0, 5, 103, 176.2948913574219
0, 5, 104, 190.4540405273438
0, 5, 105, 190.2079925537109
0, 5, 106, 177.1910858154297
0, 5, 107, 181.8655700683594
0, 5, 108, 177.1403350830078
0, 5, 109, 88.76627349853516
0, 5, 110, 29.42078399658203
0, 5, 111, 8.645367622375488
0, 5, 112, 8.284637451171875
0, 5, 113, 5.254922866821289
0, 5, 114, 5.337873458862305
0, 5, 115, 6.03330135345459
0, 5, 116, 6.809510231018066
0, 5, 117, 3.438482046127319
0, 5, 118, 3.64723801612854
0, 5, 119, 3.342665195465088
0, 5, 120, 1.451418042182922
0, 5, 121, 1.928580522537231
0, 5, 122, 2.720897674560547
0, 5, 123, 3.340559482574463
0, 5, 124, 3.192659378051758
0, 5, 125, 0.7572090625762939
0, 5, 126, 3.11643385887146
0, 5, 127, 2.510744571685791
0, 6, 0, 3.826846122741699
0, 6, 1, 2.681676387786865
0, 6, 2, 4.871145248413086
0, 6, 3, 1.833218216896057
0, 6, 4, 3.382890701293945
0, 6, 5, 4.106383323669434
0, 6, 6, 2.418824434280396
0, 6, 7, 4.642328262329102
0, 6, 8, 5.02878999710083
0, 6, 9, 2.84376072883606
0, 6, 10, 3.906080484390259
0, 6, 11, 4.417913436889648
0, 6, 12, 5.923509120941162
0, 6, 13, 5.374253749847412
0, 6, 14, 5.372183322906494
0, 6, 15, 7.510250091552734
0, 6, 16, 14.91609477996826
0, 6, 17, 29.00538444519043
0, 6, 18, 112.3727645874023
0, 6, 19, 191.8594360351562
0, 6, 20, 196.1987609863281
0, 6, 21, 198.5221405029297
0, 6, 22, 192.2289428710938
0, 6, 23, 190.3942565917969
0, 6, 24, 200.6000061035156
0, 6, 25, 183.6559906005859
0, 6, 26, 189.9009857177734
0, 6, 27, 192.9565124511719
0, 6, 28, 188.7579040527344
0, 6, 29, 212.6392364501953
0, 6, 30, 189.5970306396484
0, 6, 31, 193.3653411865234
0, 6, 32, 208.3143463134766
0, 6, 33, 184.6894989013672
0, 6, 34, 197.9931182861328
0, 6, 35, 186.9536285400391
0, 6, 36, 181.6164703369141
0, 6, 37, 182.8904571533203
0, 6, 38, 186.1614532470703
0, 6, 39, 194.2388153076172
0, 6, 40, 174.9174499511719
0, 6, 41, 185.2976837158203
0, 6, 42, 174.5501556396484
0, 6, 43, 209.0523834228516
0, 6, 44, 209.3889007568359
0, 6, 45, 194.5305633544922
0, 6, 46, 188.09375
0, 6, 47, 204.1522979736328
0, 6, 48, 189.3862152099609
0, 6, 49, 179.3229827880859
0, 6, 50, 181.7458190917969
0, 6, 51, 195.978515625
0, 6, 52, 197.8784027099609
0, 6, 53, 185.0974884033203
0, 6, 54, 174.8618316650391
0, 6, 55, 194.5716705322266
0, 6, 56, 202.9149780273438
0, 6, 57, 190.9622344970703
0, 6, 58, 180.2748413085938
0, 6, 59, 192.2573699951172
0, 6, 60, 183.5889892578125
0, 6, 61, 193.8886871337891
0, 6, 62, 196.1605834960938
0, 6, 63, 186.3805999755859
0, 6, 64, 169.1357421875
0, 6, 65, 186.4745788574219
0, 6, 66, 196.6765899658203
0, 6, 67, 212.1259002685547
0, 6, 68, 180.8492584228516
0, 6, 69, 171.3274383544922
0, 6, 70, 187.5582275390625
0, 6, 71, 170.8846740722656
0, 6, 72, 177.5187683105469
0, 6, 73, 176.5022125244141
0, 6, 74, 209.8806915283203
0, 6, 75, 227.8855590820312
0, 6, 76, 184.1196899414062
0, 6, 77, 172.8781127929688
0, 6, 78, 176.1265869140625
0, 6, 79, 187.4213409423828
0, 6, 80, 187.8997497558594
0, 6, 81, 210.7789001464844
0, 6, 82, 195.4113311767578
0, 6, 83, 195.72900390625
0, 6, 84, 197.6762237548828
0, 6, 85, 182.2689514160156
0, 6, 86, 200.8705749511719
0, 6, 87, 184.662109375
0, 6, 88, 192.8889770507812
0, 6, 89, 188.4026336669922
0, 6, 90, 207.0214538574219
0, 6, 91, 199.4886779785156
0, 6, 92, 174.5688629150391
0, 6, 93, 192.6004180908203
0, 6, 94, 191.4895935058594
0, 6, 95, 186.1084136962891
0, 6, 96, 187.8997955322266
0, 6, 97, 194.5795288085938
0, 6, 98, 182.7869873046875
0, 6, 99, 174.9195861816406
0, 6, 100, 202.5994567871094
0, 6, 101, 168.6309509277344
0, 6, 102, 202.0078582763672
0, 6, 103, 197.5450897216797
0, 6, 104, 185.082275390625
0, 6, 105, 194.9333343505859
0, 6, 106, 177.0890960693359
0, 6, 107, 195.8211669921875
0, 6, 108, 172.2607421875
0, 6, 109, 118.2930221557617
0, 6, 110, 34.54876327514648
0, 6, 111, 8.531515121459961
0, 6, 112, 8.282970428466797
0, 6, 113, 4.73529052734375
0, 6, 114, 5.788686752319336
0, 6, 115, 6.279695510864258
0, 6, 116, 5.586174488067627
0, 6, 117, 4.313838481903076
0, 6, 118, 2.977142572402954
0, 6, 119, 4.797487735748291
0, 6, 120, 2.326468229293823
0, 6, 121, 3.742006778717041
0, 6, 122, 2.712525844573975
0, 6, 123, 2.681694746017456
0, 6, 124, 1.688579678535461
0, 6, 125, 3.041826725006104
0, 6, 126, 2.198779582977295
0, 6, 127, 2.299567461013794
0, 7, 0, 3.725619316101074
0, 7, 1, 1.10844898223877
0, 7, 2, 2.191480159759521
0, 7, 3, 5.474090099334717
0, 7, 4, 1.341461062431335
0, 7, 5, 1.369938969612122
0, 7, 6, 4.233627319335938
0, 7, 7, 1.074373841285706
0, 7, 8, 4.534158229827881
0, 7, 9, 3.288008451461792
0, 7, 10, 6.445706367492676
0, 7, 11, 4.602309226989746
0, 7, 12, 3.542485952377319
0, 7, 13, 5.459578037261963
0, 7, 14, 7.774964332580566
0, 7, 15, 6.713075637817383
0, 7, 16, 15.14021682739258
0, 7, 17, 49.59890365600586
0, 7, 18, 160.6673278808594
0, 7, 19, 184.4819183349609
0, 7, 20, 178.6909790039062
0, 7, 21, 180.9015350341797
0, 7, 22, 191.5539093017578
0, 7, 23, 201.9705505371094
0, 7, 24, 177.4811706542969
0, 7, 25, 213.6629486083984
0, 7, 26, 190.6211547851562
0, 7, 27, 182.6457977294922
0, 7, 28, 182.1821594238281
0, 7, 29, 208.8990325927734
0, 7, 30, 192.2700500488281
0, 7, 31, 177.1133117675781
0, 7, 32, 191.7929382324219
0, 7, 33, 179.0875396728516
0, 7, 34, 193.1266174316406
0, 7, 35, 196.3780059814453
0, 7, 36, 187.0801239013672
0, 7, 37, 212.4633941650391
0, 7, 38, 191.2468719482422
0, 7, 39, 173.5463256835938
0, 7, 40, 182.8630218505859
0, 7, 41, 184.6112060546875
0, 7, 42, 177.7767181396484
0, 7, 43, 176.9655609130859
0, 7, 44, 178.7171478271484
0, 7, 45, 177.0313110351562
0, 7, 46, 187.9692535400391
0, 7, 47, 197.1880340576172
0, 7, 48, 185.3162078857422
0, 7, 49, 198.8328399658203
0, 7, 50, 188.4970245361328
0, 7, 51, 204.2284088134766
0, 7, 52, 204.8588714599609
0, 7, 53, 192.2890930175781
0, 7, 54, 194.3148040771484
0, 7, 55, 203.4482421875
0, 7, 56, 183.0622100830078
0, 7, 57, 182.99072265625
0, 7, 58, 191.0290679931641
0, 7, 59, 187.6665649414062
0, 7, 60, 203.9980621337891
0, 7, 61, 171.3507843017578
0, 7, 62, 203.2191162109375
0, 7, 63, 189.7747650146484
0, 7, 64, 199.7880401611328
0, 7, 65, 196.7229766845703
0, 7, 66, 205.6294097900391
0, 7, 67, 220.3507843017578
0, 7, 68, 162.0425262451172
0, 7, 69, 194.4351654052734
0, 7, 70, 217.0359497070312
0, 7, 71, 183.8666381835938
0, 7, 72, 180.7183532714844
0, 7, 73, 177.5232391357422
0, 7, 74, 209.7042236328125
0, 7, 75, 206.5443420410156
0, 7, 76, 215.6666870117188
0, 7, 77, 172.88330078125
0, 7, 78, 176.8267211914062
0, 7, 79, 192.3529205322266
0, 7, 80, 195.0662384033203
0, 7, 81, 214.8519439697266
0, 7, 82, 185.3358917236328
0, 7, 83, 206.7142028808594
0, 7, 84, 191.6882781982422
0, 7, 85, 185.6898651123047
0, 7, 86, 201.5041961669922
0, 7, 87, 225.0977630615234
0, 7, 88, 195.1812133789062
0, 7, 89, 176.8102722167969
0, 7, 90, 183.2583770751953
0, 7, 91, 194.0089874267578
0, 7, 92, 194.5477752685547
0, 7, 93, 198.44189453125
0, 7, 94, 176.7890014648438
0, 7, 95, 197.4022521972656
0, 7, 96, 207.78271484375
0, 7, 97, 190.7796630859375
0, 7, 98, 176.2921600341797
0, 7, 99, 198.2791900634766
0, 7, 100, 181.3803100585938
0, 7, 101, 200.2942047119141
0, 7, 102, 186.1596069335938
0, 7, 103, 182.0770263671875
0, 7, 104, 174.1643218994141
0, 7, 105, 195.4653015136719
0, 7, 106, 205.4659271240234
0, 7, 107, 173.0140686035156
0, 7, 108, 177.2729949951172
0, 7, 109, 136.6972503662109
0, 7, 110, 55.1170768737793
0, 7, 111, 9.217334747314453
0, 7, 112, 7.8354172706604
0, 7, 113, 9.423730850219727
0, 7, 114, 8.674935340881348
0, 7, 115, 4.741297721862793
0, 7, 116, 4.041519641876221
0, 7, 117, 2.706192493438721
0, 7, 118, 3.989794015884399
0, 7, 119, 3.064721584320068
0, 7, 120, 2.132055521011353
0, 7, 121, 1.809905290603638
0, 7, 122, 2.880242109298706
0, 7, 123, 1.758440136909485
0, 7, 124, 1.253849029541016
0, 7, 125, 2.550338983535767
0, 7, 126, 4.270989418029785
0, 7, 127, 1.327383518218994
0, 8, 0, 4.712413787841797
0, 8, 1, 2.318570137023926
0, 8, 2, 3.955902099609375
0, 8, 3, 3.267015695571899
0, 8, 4, 1.586325883865356
0, 8, 5, 3.313450813293457
0, 8, 6, 3.190145254135132
0, 8, 7, 2.376867294311523
0, 8, 8, 2.453323602676392
0, 8, 9, 6.373275756835938
0, 8, 10, 3.652261018753052
0, 8, 11, 1.930005669593811
0, 8, 12, 4.155025482177734
0, 8, 13, 5.127655506134033
0, 8, 14, 7.434378147125244
0, 8, 15, 8.40168285369873
0, 8, 16, 18.96283340454102
0, 8, 17, 76.54740905761719
0, 8, 18, 142.1477355957031
0, 8, 19, 179.4309692382812
0, 8, 20, 192.7959899902344
0, 8, 21, 194.3646545410156
0, 8, 22, 179.1864471435547
0, 8, 23, 174.360595703125
0, 8, 24, 191.7478485107422
0, 8, 25, 185.0468902587891
0, 8, 26, 193.0615539550781
0, 8, 27, 186.8085021972656
0, 8, 28, 186.4365997314453
0, 8, 29, 206.8536376953125
0, 8, 30, 198.4737243652344
0, 8, 31, 183.5037841796875
0, 8, 32, 197.3678436279297
0, 8, 33, 206.4008026123047
0, 8, 34, 204.1649475097656
0, 8, 35, 187.7661590576172
0, 8, 36, 182.7056732177734
0, 8, 37, 198.9098815917969
