# TOPAS Version: 3.1.p3
# Parameter File: batch_inserts_350.txt
# Results for scorer Readout_Adipose
# Scored in component: MyBox
# X in 1 bin  of 0.65 cm
# Y in 512 bins of 0.0783984 cm
# Z in 128 bins of 0.078125 cm
# EnergyDeposit ( MeV ) : Sum   
0, 0, 0, 1.692645907402039
0, 0, 1, 4.134145259857178
0, 0, 2, 1.539853096008301
0, 0, 3, 0.7504303455352783
0, 0, 4, 1.497622728347778
0, 0, 5, 1.58992326259613
0, 0, 6, 1.764359951019287
0, 0, 7, 4.298276901245117
0, 0, 8, 1.272125720977783
0, 0, 9, 2.358312129974365
0, 0, 10, 2.363627672195435
0, 0, 11, 4.156415939331055
0, 0, 12, 4.428859233856201
0, 0, 13, 2.58582329750061
0, 0, 14, 5.25184154510498
0, 0, 15, 5.849185466766357
0, 0, 16, 4.276103973388672
0, 0, 17, 5.778058052062988
0, 0, 18, 7.078532218933105
0, 0, 19, 22.54526901245117
0, 0, 20, 94.05410003662109
0, 0, 21, 151.967041015625
0, 0, 22, 153.2474365234375
0, 0, 23, 144.3094635009766
0, 0, 24, 160.8744964599609
0, 0, 25, 166.365478515625
0, 0, 26, 166.7215576171875
0, 0, 27, 174.0122680664062
0, 0, 28, 178.6219329833984
0, 0, 29, 174.5942687988281
0, 0, 30, 173.8128051757812
0, 0, 31, 166.6982574462891
0, 0, 32, 164.1885833740234
0, 0, 33, 167.2966003417969
0, 0, 34, 178.8690795898438
0, 0, 35, 174.7005462646484
0, 0, 36, 159.2729034423828
0, 0, 37, 161.4425811767578
0, 0, 38, 166.1691741943359
0, 0, 39, 160.1205596923828
0, 0, 40, 165.0340728759766
0, 0, 41, 165.5741424560547
0, 0, 42, 143.3118591308594
0, 0, 43, 167.9925384521484
0, 0, 44, 178.17236328125
0, 0, 45, 172.7594604492188
0, 0, 46, 166.380615234375
0, 0, 47, 167.0590515136719
0, 0, 48, 169.6795654296875
0, 0, 49, 182.7246704101562
0, 0, 50, 168.8426513671875
0, 0, 51, 162.4707794189453
0, 0, 52, 163.6471099853516
0, 0, 53, 171.2415771484375
0, 0, 54, 160.2253875732422
0, 0, 55, 166.3667907714844
0, 0, 56, 189.8511657714844
0, 0, 57, 171.1296081542969
0, 0, 58, 162.3097229003906
0, 0, 59, 172.9605255126953
0, 0, 60, 168.4405670166016
0, 0, 61, 168.8357086181641
0, 0, 62, 185.1934509277344
0, 0, 63, 167.5855560302734
0, 0, 64, 164.0863342285156
0, 0, 65, 175.1823577880859
0, 0, 66, 178.4821014404297
0, 0, 67, 163.4168701171875
0, 0, 68, 158.6671600341797
0, 0, 69, 160.7417755126953
0, 0, 70, 169.7528076171875
0, 0, 71, 158.9322967529297
0, 0, 72, 163.1212921142578
0, 0, 73, 171.2537078857422
0, 0, 74, 163.4831085205078
0, 0, 75, 163.3215026855469
0, 0, 76, 162.9549255371094
0, 0, 77, 171.4798736572266
0, 0, 78, 182.5918579101562
0, 0, 79, 174.2901458740234
0, 0, 80, 158.5640716552734
0, 0, 81, 160.3687896728516
0, 0, 82, 181.5825347900391
0, 0, 83, 172.7988739013672
0, 0, 84, 159.2823028564453
0, 0, 85, 182.1539916992188
0, 0, 86, 158.0728912353516
0, 0, 87, 178.068115234375
0, 0, 88, 177.0245056152344
0, 0, 89, 176.9916839599609
0, 0, 90, 160.4783935546875
0, 0, 91, 185.3906707763672
0, 0, 92, 164.1253356933594
0, 0, 93, 154.791748046875
0, 0, 94, 168.5406951904297
0, 0, 95, 173.2063751220703
0, 0, 96, 185.2355194091797
0, 0, 97, 184.5384368896484
0, 0, 98, 185.5632629394531
0, 0, 99, 171.1890869140625
0, 0, 100, 159.2045288085938
0, 0, 101, 166.9483184814453
0, 0, 102, 171.6533355712891
0, 0, 103, 170.6062774658203
0, 0, 104, 169.2311401367188
0, 0, 105, 177.5909423828125
0, 0, 106, 159.0803527832031
0, 0, 107, 87.51549530029297
0, 0, 108, 22.57621574401855
0, 0, 109, 9.768683433532715
0, 0, 110, 7.731884479522705
0, 0, 111, 6.280463695526123
0, 0, 112, 3.282780885696411
0, 0, 113, 3.907721757888794
0, 0, 114, 2.554109811782837
0, 0, 115, 3.701054334640503
0, 0, 116, 2.733884334564209
0, 0, 117, 2.496192932128906
0, 0, 118, 2.37175726890564
0, 0, 119, 1.902787566184998
0, 0, 120, 1.949155449867249
0, 0, 121, 3.947861909866333
0, 0, 122, 4.913148403167725
0, 0, 123, 4.018584251403809
0, 0, 124, 1.192311525344849
0, 0, 125, 2.215530395507812
0, 0, 126, 0.5348499417304993
0, 0, 127, 1.681814312934875
0, 1, 0, 0.5007382035255432
0, 1, 1, 3.303612232208252
0, 1, 2, 2.369005441665649
0, 1, 3, 1.353366613388062
0, 1, 4, 0.9680288434028625
0, 1, 5, 1.996696352958679
0, 1, 6, 0.9045095443725586
0, 1, 7, 3.296126365661621
0, 1, 8, 1.51098906993866
0, 1, 9, 1.428539633750916
0, 1, 10, 4.23118782043457
0, 1, 11, 5.836099624633789
0, 1, 12, 2.966627836227417
0, 1, 13, 2.903486490249634
0, 1, 14, 6.316534996032715
0, 1, 15, 6.727496147155762
0, 1, 16, 8.800965309143066
0, 1, 17, 5.167903423309326
0, 1, 18, 10.28453063964844
0, 1, 19, 37.96230316162109
0, 1, 20, 125.6499786376953
0, 1, 21, 177.9303436279297
0, 1, 22, 192.1492156982422
0, 1, 23, 184.5880432128906
0, 1, 24, 180.1985931396484
0, 1, 25, 191.2115631103516
0, 1, 26, 198.0223541259766
0, 1, 27, 186.4370269775391
0, 1, 28, 188.6689910888672
0, 1, 29, 184.0938568115234
0, 1, 30, 180.6138763427734
0, 1, 31, 181.3517303466797
0, 1, 32, 189.2947998046875
0, 1, 33, 190.3972930908203
0, 1, 34, 184.7604217529297
0, 1, 35, 193.759033203125
0, 1, 36, 207.633056640625
0, 1, 37, 185.1202697753906
0, 1, 38, 165.0898284912109
0, 1, 39, 172.5552062988281
0, 1, 40, 180.5721740722656
0, 1, 41, 184.5112152099609
0, 1, 42, 183.3358306884766
0, 1, 43, 186.536865234375
0, 1, 44, 169.0236511230469
0, 1, 45, 187.2964477539062
0, 1, 46, 171.6742248535156
0, 1, 47, 184.7675476074219
0, 1, 48, 187.8705444335938
0, 1, 49, 185.8744049072266
0, 1, 50, 179.2749481201172
0, 1, 51, 191.5206146240234
0, 1, 52, 195.1797943115234
0, 1, 53, 196.4013977050781
0, 1, 54, 184.9070434570312
0, 1, 55, 165.0047607421875
0, 1, 56, 178.3633270263672
0, 1, 57, 178.5191955566406
0, 1, 58, 191.1641387939453
0, 1, 59, 193.4618072509766
0, 1, 60, 187.7819213867188
0, 1, 61, 177.0506591796875
0, 1, 62, 205.3171081542969
0, 1, 63, 174.1556091308594
0, 1, 64, 173.1431274414062
0, 1, 65, 184.3783111572266
0, 1, 66, 204.0244445800781
0, 1, 67, 184.9410400390625
0, 1, 68, 186.3973541259766
0, 1, 69, 189.3945770263672
0, 1, 70, 185.3691101074219
0, 1, 71, 172.0337524414062
0, 1, 72, 187.7252655029297
0, 1, 73, 189.6728668212891
0, 1, 74, 200.9788513183594
0, 1, 75, 183.6156768798828
0, 1, 76, 173.4561004638672
0, 1, 77, 192.0511932373047
0, 1, 78, 188.5242309570312
0, 1, 79, 202.1107330322266
0, 1, 80, 185.8551940917969
0, 1, 81, 174.0627746582031
0, 1, 82, 207.6495513916016
0, 1, 83, 211.6600799560547
0, 1, 84, 180.2966003417969
0, 1, 85, 169.4766693115234
0, 1, 86, 168.0030059814453
0, 1, 87, 184.4636993408203
0, 1, 88, 174.6566009521484
0, 1, 89, 186.7913513183594
0, 1, 90, 214.0673828125
0, 1, 91, 182.2260437011719
0, 1, 92, 184.4512481689453
0, 1, 93, 182.5665588378906
0, 1, 94, 186.3733673095703
0, 1, 95, 184.5665283203125
0, 1, 96, 199.9854431152344
0, 1, 97, 183.0392456054688
0, 1, 98, 186.8675537109375
0, 1, 99, 178.1628112792969
0, 1, 100, 171.7146148681641
0, 1, 101, 177.8090515136719
0, 1, 102, 181.7554779052734
0, 1, 103, 173.2644653320312
0, 1, 104, 190.1117401123047
0, 1, 105, 181.3166351318359
0, 1, 106, 165.0249633789062
0, 1, 107, 121.7184371948242
0, 1, 108, 46.80291748046875
0, 1, 109, 10.39266777038574
0, 1, 110, 7.512985229492188
0, 1, 111, 6.064918518066406
0, 1, 112, 7.822567939758301
0, 1, 113, 6.908452033996582
0, 1, 114, 4.714653015136719
0, 1, 115, 4.386864185333252
0, 1, 116, 2.710861444473267
0, 1, 117, 2.331726551055908
0, 1, 118, 4.977508068084717
0, 1, 119, 1.370620012283325
0, 1, 120, 3.242522239685059
0, 1, 121, 4.389727115631104
0, 1, 122, 5.824134826660156
0, 1, 123, 4.093084335327148
0, 1, 124, 2.132786273956299
0, 1, 125, 2.775753498077393
0, 1, 126, 1.458461046218872
0, 1, 127, 1.226861715316772
0, 2, 0, 2.478566646575928
0, 2, 1, 2.078284025192261
0, 2, 2, 2.98758602142334
0, 2, 3, 1.206360220909119
0, 2, 4, 1.75426709651947
0, 2, 5, 0.8665448427200317
0, 2, 6, 2.009382009506226
0, 2, 7, 1.317087769508362
0, 2, 8, 1.282503724098206
0, 2, 9, 2.239707946777344
0, 2, 10, 4.534340858459473
0, 2, 11, 3.260599613189697
0, 2, 12, 2.744163751602173
0, 2, 13, 3.74823260307312
0, 2, 14, 4.964004516601562
0, 2, 15, 6.777436256408691
0, 2, 16, 5.126567363739014
0, 2, 17, 8.958367347717285
0, 2, 18, 15.90939998626709
0, 2, 19, 78.57625579833984
0, 2, 20, 164.2449340820312
0, 2, 21, 184.668701171875
0, 2, 22, 194.9409637451172
0, 2, 23, 183.6376495361328
0, 2, 24, 174.0435943603516
0, 2, 25, 183.9353332519531
0, 2, 26, 179.1907348632812
0, 2, 27, 188.58984375
0, 2, 28, 170.6316375732422
0, 2, 29, 169.3756408691406
0, 2, 30, 184.0514831542969
0, 2, 31, 181.7755737304688
0, 2, 32, 183.0979766845703
0, 2, 33, 190.7082061767578
0, 2, 34, 199.3156127929688
0, 2, 35, 182.4844818115234
0, 2, 36, 185.0096435546875
0, 2, 37, 181.2007446289062
0, 2, 38, 184.6872863769531
0, 2, 39, 167.2414398193359
0, 2, 40, 183.2935943603516
0, 2, 41, 184.1796569824219
0, 2, 42, 189.1051940917969
0, 2, 43, 193.1835784912109
0, 2, 44, 190.4844818115234
0, 2, 45, 190.8463745117188
0, 2, 46, 195.6999969482422
0, 2, 47, 189.9798126220703
0, 2, 48, 177.2053680419922
0, 2, 49, 198.0266418457031
0, 2, 50, 168.8510437011719
0, 2, 51, 184.0486297607422
0, 2, 52, 187.6923217773438
0, 2, 53, 195.4902954101562
0, 2, 54, 175.3015899658203
0, 2, 55, 173.93359375
0, 2, 56, 180.9567260742188
0, 2, 57, 199.7972106933594
0, 2, 58, 186.1753540039062
0, 2, 59, 190.8989868164062
0, 2, 60, 196.3943786621094
0, 2, 61, 193.0512542724609
0, 2, 62, 189.0908355712891
0, 2, 63, 170.1584014892578
0, 2, 64, 188.7513732910156
0, 2, 65, 201.8966217041016
0, 2, 66, 195.5177001953125
0, 2, 67, 184.5912322998047
0, 2, 68, 182.6624603271484
0, 2, 69, 188.6127471923828
0, 2, 70, 203.4834747314453
0, 2, 71, 175.1249542236328
0, 2, 72, 186.75146484375
0, 2, 73, 177.3366851806641
0, 2, 74, 179.9345855712891
0, 2, 75, 195.8992309570312
0, 2, 76, 183.2006683349609
0, 2, 77, 177.5427551269531
0, 2, 78, 198.8003540039062
0, 2, 79, 178.4083404541016
0, 2, 80, 186.7031707763672
0, 2, 81, 189.8854217529297
0, 2, 82, 205.2865447998047
0, 2, 83, 204.4611663818359
0, 2, 84, 190.4398193359375
0, 2, 85, 171.4812927246094
0, 2, 86, 195.0019226074219
0, 2, 87, 171.9684600830078
0, 2, 88, 178.3559112548828
0, 2, 89, 184.4449005126953
0, 2, 90, 178.4185943603516
0, 2, 91, 175.6613311767578
0, 2, 92, 197.8565979003906
0, 2, 93, 192.5323944091797
0, 2, 94, 200.8437194824219
0, 2, 95, 193.1943054199219
0, 2, 96, 185.9252319335938
0, 2, 97, 171.3223419189453
0, 2, 98, 173.0330200195312
0, 2, 99, 162.1674194335938
0, 2, 100, 187.8821411132812
0, 2, 101, 195.8409729003906
0, 2, 102, 177.3143310546875
0, 2, 103, 199.0826721191406
0, 2, 104, 188.4379577636719
0, 2, 105, 199.6662139892578
0, 2, 106, 194.1992797851562
0, 2, 107, 149.4972686767578
0, 2, 108, 78.5142822265625
0, 2, 109, 17.44634246826172
0, 2, 110, 7.451528072357178
0, 2, 111, 5.979218482971191
0, 2, 112, 3.858683824539185
0, 2, 113, 5.623651504516602
0, 2, 114, 8.403326988220215
0, 2, 115, 4.20866584777832
0, 2, 116, 1.928777933120728
0, 2, 117, 1.793442010879517
0, 2, 118, 3.21932315826416
0, 2, 119, 2.479469299316406
0, 2, 120, 1.654071450233459
0, 2, 121, 4.86789608001709
0, 2, 122, 1.750880718231201
0, 2, 123, 1.657538294792175
0, 2, 124, 2.515605211257935
0, 2, 125, 2.633974313735962
0, 2, 126, 3.333346605300903
0, 2, 127, 0.8456487059593201
0, 3, 0, 2.599453449249268
0, 3, 1, 1.383972883224487
0, 3, 2, 1.637160897254944
0, 3, 3, 1.289267420768738
0, 3, 4, 6.013026237487793
0, 3, 5, 2.514209985733032
0, 3, 6, 1.149614214897156
0, 3, 7, 1.396523833274841
0, 3, 8, 2.707552433013916
0, 3, 9, 1.722472548484802
0, 3, 10, 1.618742346763611
0, 3, 11, 4.219473361968994
0, 3, 12, 3.130917549133301
0, 3, 13, 3.197673559188843
0, 3, 14, 3.940657615661621
0, 3, 15, 5.789624214172363
0, 3, 16, 7.41240406036377
0, 3, 17, 6.931842803955078
0, 3, 18, 32.72816467285156
0, 3, 19, 114.1808166503906
0, 3, 20, 179.1715850830078
0, 3, 21, 172.3140258789062
0, 3, 22, 178.50927734375
0, 3, 23, 187.6057281494141
0, 3, 24, 177.7313232421875
0, 3, 25, 168.3469390869141
0, 3, 26, 181.1224365234375
0, 3, 27, 188.9422760009766
0, 3, 28, 183.4544830322266
0, 3, 29, 198.4877777099609
0, 3, 30, 186.3400726318359
0, 3, 31, 194.5786895751953
0, 3, 32, 205.6654510498047
0, 3, 33, 196.5518035888672
0, 3, 34, 187.4878540039062
0, 3, 35, 173.6554107666016
0, 3, 36, 185.2518157958984
0, 3, 37, 200.4985198974609
0, 3, 38, 192.5174407958984
0, 3, 39, 184.8092041015625
0, 3, 40, 166.0624694824219
0, 3, 41, 175.4446411132812
0, 3, 42, 185.3790893554688
0, 3, 43, 181.5617828369141
0, 3, 44, 202.6091613769531
0, 3, 45, 207.3759155273438
0, 3, 46, 198.6895599365234
0, 3, 47, 193.9960174560547
0, 3, 48, 195.8527526855469
0, 3, 49, 180.0303955078125
0, 3, 50, 186.960205078125
0, 3, 51, 173.7797698974609
0, 3, 52, 187.3757019042969
0, 3, 53, 176.5077819824219
0, 3, 54, 180.0085296630859
0, 3, 55, 176.5446624755859
0, 3, 56, 182.2049865722656
0, 3, 57, 174.6421356201172
0, 3, 58, 201.6417694091797
0, 3, 59, 196.2861633300781
0, 3, 60, 186.5939636230469
0, 3, 61, 181.4750518798828
0, 3, 62, 184.8917236328125
0, 3, 63, 185.7521362304688
0, 3, 64, 187.8076477050781
0, 3, 65, 187.2371215820312
0, 3, 66, 175.9012908935547
0, 3, 67, 189.82861328125
0, 3, 68, 211.2691802978516
0, 3, 69, 189.7472839355469
0, 3, 70, 185.6614837646484
0, 3, 71, 196.9105224609375
0, 3, 72, 186.0872955322266
0, 3, 73, 187.4573669433594
0, 3, 74, 194.3119659423828
0, 3, 75, 192.5935821533203
0, 3, 76, 190.3076019287109
0, 3, 77, 197.5530090332031
0, 3, 78, 188.8778991699219
0, 3, 79, 186.7463989257812
0, 3, 80, 189.5138244628906
0, 3, 81, 185.1205596923828
0, 3, 82, 179.066650390625
0, 3, 83, 195.2423553466797
0, 3, 84, 200.1756896972656
0, 3, 85, 192.7007293701172
0, 3, 86, 205.3068542480469
0, 3, 87, 197.6560668945312
0, 3, 88, 191.7936401367188
0, 3, 89, 193.8832550048828
0, 3, 90, 173.4207763671875
0, 3, 91, 155.8506469726562
0, 3, 92, 209.3965148925781
0, 3, 93, 195.4401397705078
0, 3, 94, 192.2760009765625
0, 3, 95, 211.2370300292969
0, 3, 96, 209.4206848144531
0, 3, 97, 168.8526000976562
0, 3, 98, 167.4943695068359
0, 3, 99, 180.0777740478516
0, 3, 100, 176.6856536865234
0, 3, 101, 196.843017578125
0, 3, 102, 195.6020965576172
0, 3, 103, 192.8151702880859
0, 3, 104, 202.3721771240234
0, 3, 105, 175.9281463623047
0, 3, 106, 181.3765716552734
0, 3, 107, 169.3213958740234
0, 3, 108, 109.2838439941406
0, 3, 109, 27.6279239654541
0, 3, 110, 7.017074108123779
0, 3, 111, 6.567994117736816
0, 3, 112, 2.933768749237061
0, 3, 113, 6.741736888885498
0, 3, 114, 5.922898292541504
0, 3, 115, 5.434548377990723
0, 3, 116, 6.299254417419434
0, 3, 117, 2.855083227157593
0, 3, 118, 1.944352269172668
0, 3, 119, 3.126868724822998
0, 3, 120, 4.078732967376709
0, 3, 121, 1.872736096382141
0, 3, 122, 2.54131007194519
0, 3, 123, 1.353395223617554
0, 3, 124, 1.229315042495728
0, 3, 125, 1.268129944801331
0, 3, 126, 0.9869230389595032
0, 3, 127, 1.845324039459229
0, 4, 0, 1.218159675598145
0, 4, 1, 0.9390580058097839
0, 4, 2, 2.381684064865112
0, 4, 3, 4.904971599578857
0, 4, 4, 1.606443881988525
0, 4, 5, 0.7874922156333923
0, 4, 6, 2.171832323074341
0, 4, 7, 2.836390018463135
0, 4, 8, 1.894378185272217
0, 4, 9, 1.676323652267456
0, 4, 10, 3.655358076095581
0, 4, 11, 4.805307388305664
0, 4, 12, 3.514256000518799
0, 4, 13, 3.927974462509155
0, 4, 14, 5.825204849243164
0, 4, 15, 8.616437911987305
0, 4, 16, 8.001481056213379
0, 4, 17, 11.3752908706665
0, 4, 18, 54.86993789672852
0, 4, 19, 151.3925018310547
0, 4, 20, 193.2083129882812
0, 4, 21, 169.4001770019531
0, 4, 22, 187.1540222167969
0, 4, 23, 195.8783264160156
0, 4, 24, 192.6083526611328
0, 4, 25, 198.7978210449219
0, 4, 26, 183.1265258789062
0, 4, 27, 190.7308959960938
0, 4, 28, 177.7339172363281
0, 4, 29, 205.0950775146484
0, 4, 30, 197.8675842285156
0, 4, 31, 192.1286163330078
0, 4, 32, 209.3828735351562
0, 4, 33, 190.9733581542969
0, 4, 34, 192.3411560058594
0, 4, 35, 212.0353088378906
0, 4, 36, 193.3473052978516
0, 4, 37, 177.6914825439453
0, 4, 38, 193.7564086914062
0, 4, 39, 190.1306304931641
0, 4, 40, 185.8960723876953
0, 4, 41, 188.8456420898438
0, 4, 42, 205.4612731933594
0, 4, 43, 173.9047393798828
0, 4, 44, 183.8901519775391
0, 4, 45, 196.3114013671875
0, 4, 46, 185.5740203857422
0, 4, 47, 180.1863250732422
0, 4, 48, 185.6331939697266
0, 4, 49, 174.1665191650391
0, 4, 50, 188.2617492675781
0, 4, 51, 198.4121398925781
0, 4, 52, 223.8025817871094
0, 4, 53, 208.0548248291016
0, 4, 54, 189.9698486328125
0, 4, 55, 175.0214538574219
0, 4, 56, 191.1799774169922
0, 4, 57, 192.6329345703125
0, 4, 58, 188.6973571777344
0, 4, 59, 189.5475158691406
0, 4, 60, 195.1072540283203
0, 4, 61, 193.2068481445312
0, 4, 62, 190.1844482421875
0, 4, 63, 178.8631591796875
0, 4, 64, 212.0260314941406
0, 4, 65, 192.2739562988281
0, 4, 66, 202.8918304443359
0, 4, 67, 199.6507568359375
0, 4, 68, 200.5971984863281
0, 4, 69, 199.0587005615234
0, 4, 70, 205.5485992431641
0, 4, 71, 207.5491485595703
0, 4, 72, 215.6962585449219
0, 4, 73, 186.3839111328125
0, 4, 74, 180.4970855712891
0, 4, 75, 184.0542449951172
0, 4, 76, 189.5271453857422
0, 4, 77, 182.6211547851562
0, 4, 78, 195.1434783935547
0, 4, 79, 205.0843505859375
0, 4, 80, 211.6808166503906
0, 4, 81, 197.0128173828125
0, 4, 82, 183.0494079589844
0, 4, 83, 169.3350830078125
0, 4, 84, 193.0261688232422
0, 4, 85, 195.5704803466797
0, 4, 86, 182.8006744384766
0, 4, 87, 183.1743621826172
0, 4, 88, 203.6191101074219
0, 4, 89, 187.127685546875
0, 4, 90, 211.3536376953125
0, 4, 91, 189.7795104980469
0, 4, 92, 195.8864593505859
0, 4, 93, 195.8288421630859
0, 4, 94, 181.3856964111328
0, 4, 95, 173.4342803955078
0, 4, 96, 191.5494384765625
0, 4, 97, 192.4523315429688
0, 4, 98, 200.6829986572266
0, 4, 99, 183.3319091796875
0, 4, 100, 182.0037384033203
0, 4, 101, 177.8632507324219
0, 4, 102, 173.2183380126953
0, 4, 103, 185.0713958740234
0, 4, 104, 209.5196838378906
0, 4, 105, 189.692138671875
0, 4, 106, 179.5939483642578
0, 4, 107, 181.3978881835938
0, 4, 108, 151.4655456542969
0, 4, 109, 48.78565979003906
0, 4, 110, 10.90729331970215
0, 4, 111, 8.383654594421387
0, 4, 112, 6.070886611938477
0, 4, 113, 5.523195266723633
0, 4, 114, 4.894248485565186
0, 4, 115, 2.674650430679321
0, 4, 116, 5.030821323394775
0, 4, 117, 1.711739897727966
0, 4, 118, 3.199551820755005
0, 4, 119, 5.195743083953857
0, 4, 120, 2.47216534614563
0, 4, 121, 1.557387232780457
0, 4, 122, 1.641999840736389
0, 4, 123, 2.915323734283447
0, 4, 124, 3.560343027114868
0, 4, 125, 2.81003737449646
0, 4, 126, 2.519524812698364
0, 4, 127, 0.8988299369812012
0, 5, 0, 1.841359853744507
0, 5, 1, 2.309112071990967
0, 5, 2, 5.126415252685547
0, 5, 3, 5.104323863983154
0, 5, 4, 1.403530359268188
0, 5, 5, 1.78806209564209
0, 5, 6, 3.01395058631897
0, 5, 7, 2.102988958358765
0, 5, 8, 1.842379093170166
0, 5, 9, 2.221455812454224
0, 5, 10, 3.673829078674316
0, 5, 11, 2.08576488494873
0, 5, 12, 5.180745601654053
0, 5, 13, 6.470938205718994
0, 5, 14, 7.54669713973999
0, 5, 15, 9.006129264831543
0, 5, 16, 7.084204196929932
0, 5, 17, 21.15630149841309
0, 5, 18, 83.41699981689453
0, 5, 19, 164.4325256347656
0, 5, 20, 183.2039489746094
0, 5, 21, 178.4507751464844
0, 5, 22, 170.7456512451172
0, 5, 23, 201.2798156738281
0, 5, 24, 186.7202911376953
0, 5, 25, 207.3393402099609
0, 5, 26, 181.578369140625
0, 5, 27, 192.9306640625
0, 5, 28, 190.4330749511719
0, 5, 29, 195.8944549560547
0, 5, 30, 177.2447357177734
0, 5, 31, 179.6129913330078
0, 5, 32, 187.2955169677734
0, 5, 33, 170.3489685058594
0, 5, 34, 194.9720916748047
0, 5, 35, 198.0612335205078
0, 5, 36, 167.5763092041016
0, 5, 37, 198.0410919189453
0, 5, 38, 181.2959289550781
0, 5, 39, 187.1877136230469
0, 5, 40, 195.9886779785156
0, 5, 41, 176.9242553710938
0, 5, 42, 187.2107696533203
0, 5, 43, 192.6115112304688
0, 5, 44, 199.3428192138672
0, 5, 45, 186.6242370605469
0, 5, 46, 193.2360992431641
0, 5, 47, 183.2881164550781
0, 5, 48, 178.0032043457031
0, 5, 49, 177.3310241699219
0, 5, 50, 186.9839019775391
0, 5, 51, 172.8632965087891
0, 5, 52, 169.9357604980469
0, 5, 53, 181.5562744140625
0, 5, 54, 172.3860626220703
0, 5, 55, 215.3013610839844
0, 5, 56, 181.9084930419922
0, 5, 57, 207.5031585693359
0, 5, 58, 182.49560546875
0, 5, 59, 182.9640045166016
0, 5, 60, 218.1541442871094
0, 5, 61, 184.5939178466797
0, 5, 62, 179.1237030029297
0, 5, 63, 180.7958984375
0, 5, 64, 198.6448516845703
0, 5, 65, 211.8579406738281
0, 5, 66, 194.3324584960938
0, 5, 67, 198.4908905029297
0, 5, 68, 186.3202209472656
0, 5, 69, 185.8882598876953
0, 5, 70, 186.3117218017578
0, 5, 71, 193.1823577880859
0, 5, 72, 197.536865234375
0, 5, 73, 200.9345397949219
0, 5, 74, 180.5719146728516
0, 5, 75, 203.3085784912109
0, 5, 76, 214.3147583007812
0, 5, 77, 181.1005859375
0, 5, 78, 194.423095703125
0, 5, 79, 190.7881469726562
0, 5, 80, 198.1947021484375
0, 5, 81, 203.1276550292969
0, 5, 82, 201.8163909912109
0, 5, 83, 188.7248382568359
0, 5, 84, 204.896728515625
0, 5, 85, 177.9524688720703
0, 5, 86, 194.8620147705078
0, 5, 87, 187.8676910400391
0, 5, 88, 176.1459350585938
0, 5, 89, 194.3765258789062
0, 5, 90, 199.3117065429688
0, 5, 91, 194.6383666992188
0, 5, 92, 190.4710845947266
0, 5, 93, 188.8419036865234
0, 5, 94, 207.9534454345703
0, 5, 95, 180.0220947265625
0, 5, 96, 181.893310546875
0, 5, 97, 191.1549530029297
0, 5, 98, 189.2200317382812
0, 5, 99, 193.9307556152344
0, 5, 100, 185.8925170898438
0, 5, 101, 196.6389923095703
0, 5, 102, 181.9052886962891
0, 5, 103, 176.8731384277344
0, 5, 104, 190.6603240966797
0, 5, 105, 190.5990753173828
0, 5, 106, 177.4361419677734
0, 5, 107, 182.3356170654297
0, 5, 108, 176.6450042724609
0, 5, 109, 92.33319854736328
0, 5, 110, 32.29511642456055
0, 5, 111, 8.75218677520752
0, 5, 112, 7.028072357177734
0, 5, 113, 8.236467361450195
0, 5, 114, 6.738007545471191
0, 5, 115, 5.233587265014648
0, 5, 116, 3.576040744781494
0, 5, 117, 4.266900539398193
0, 5, 118, 3.993835210800171
0, 5, 119, 3.347146272659302
0, 5, 120, 1.164480924606323
0, 5, 121, 1.498216390609741
0, 5, 122, 5.709311485290527
0, 5, 123, 4.745265483856201
0, 5, 124, 3.455658435821533
0, 5, 125, 0.9914464950561523
0, 5, 126, 0.8616754412651062
0, 5, 127, 3.609908580780029
0, 6, 0, 4.120704650878906
0, 6, 1, 3.837822675704956
0, 6, 2, 3.532538175582886
0, 6, 3, 2.270777702331543
0, 6, 4, 3.140112161636353
0, 6, 5, 3.449637174606323
0, 6, 6, 3.227585554122925
0, 6, 7, 4.276247501373291
0, 6, 8, 4.36330509185791
0, 6, 9, 2.682641744613647
0, 6, 10, 4.554738521575928
0, 6, 11, 3.809923410415649
0, 6, 12, 6.704892158508301
0, 6, 13, 6.812812805175781
0, 6, 14, 5.283495426177979
0, 6, 15, 7.11607551574707
0, 6, 16, 14.43851280212402
0, 6, 17, 28.40151977539062
0, 6, 18, 111.7172088623047
0, 6, 19, 193.7137603759766
0, 6, 20, 195.8874664306641
0, 6, 21, 198.2999572753906
0, 6, 22, 190.5138397216797
0, 6, 23, 190.67724609375
0, 6, 24, 200.6050567626953
0, 6, 25, 182.0033721923828
0, 6, 26, 186.6205139160156
0, 6, 27, 192.4216003417969
0, 6, 28, 188.5519561767578
0, 6, 29, 211.2872924804688
0, 6, 30, 190.6066284179688
0, 6, 31, 192.9951324462891
0, 6, 32, 206.4414520263672
0, 6, 33, 184.2389221191406
0, 6, 34, 196.7340698242188
0, 6, 35, 188.7531890869141
0, 6, 36, 181.7329254150391
0, 6, 37, 181.9851989746094
0, 6, 38, 184.5371246337891
0, 6, 39, 194.4976654052734
0, 6, 40, 174.5781555175781
0, 6, 41, 184.7324829101562
0, 6, 42, 173.9312744140625
0, 6, 43, 209.4819030761719
0, 6, 44, 208.9666595458984
0, 6, 45, 193.0690460205078
0, 6, 46, 188.2684936523438
0, 6, 47, 204.8529357910156
0, 6, 48, 190.4060668945312
0, 6, 49, 180.2290802001953
0, 6, 50, 181.5422973632812
0, 6, 51, 195.9774169921875
0, 6, 52, 198.5096435546875
0, 6, 53, 185.2325592041016
0, 6, 54, 175.2051391601562
0, 6, 55, 195.9187927246094
0, 6, 56, 202.4871826171875
0, 6, 57, 190.3128356933594
0, 6, 58, 179.1090240478516
0, 6, 59, 192.2705535888672
0, 6, 60, 184.2153625488281
0, 6, 61, 194.2411651611328
0, 6, 62, 196.9018707275391
0, 6, 63, 186.6008453369141
0, 6, 64, 169.0820617675781
0, 6, 65, 187.4059906005859
0, 6, 66, 196.901611328125
0, 6, 67, 213.53369140625
0, 6, 68, 180.2475738525391
0, 6, 69, 172.2268218994141
0, 6, 70, 187.3116912841797
0, 6, 71, 172.1823883056641
0, 6, 72, 175.9670562744141
0, 6, 73, 176.4663696289062
0, 6, 74, 209.7223052978516
0, 6, 75, 228.2272186279297
0, 6, 76, 184.2214965820312
0, 6, 77, 172.5043640136719
0, 6, 78, 175.5651550292969
0, 6, 79, 185.2790374755859
0, 6, 80, 187.5667572021484
0, 6, 81, 209.1431427001953
0, 6, 82, 195.5050506591797
0, 6, 83, 195.4589385986328
0, 6, 84, 197.2669982910156
0, 6, 85, 180.6686706542969
0, 6, 86, 200.4076538085938
0, 6, 87, 183.9214477539062
0, 6, 88, 195.8507537841797
0, 6, 89, 190.7433013916016
0, 6, 90, 204.84130859375
0, 6, 91, 200.2519378662109
0, 6, 92, 173.5159759521484
0, 6, 93, 194.9959716796875
0, 6, 94, 189.3824005126953
0, 6, 95, 185.56591796875
0, 6, 96, 188.73876953125
0, 6, 97, 196.8035125732422
0, 6, 98, 183.5528411865234
0, 6, 99, 175.2027435302734
0, 6, 100, 200.8815002441406
0, 6, 101, 168.1780090332031
0, 6, 102, 201.9844665527344
0, 6, 103, 195.3848419189453
0, 6, 104, 183.2192535400391
0, 6, 105, 193.7837066650391
0, 6, 106, 176.9180603027344
0, 6, 107, 194.7522125244141
0, 6, 108, 172.3409423828125
0, 6, 109, 114.3015747070312
0, 6, 110, 34.98900604248047
0, 6, 111, 9.273517608642578
0, 6, 112, 8.28175163269043
0, 6, 113, 5.455898284912109
0, 6, 114, 5.299711227416992
0, 6, 115, 7.103941917419434
0, 6, 116, 5.221494197845459
0, 6, 117, 3.093972682952881
0, 6, 118, 2.882206439971924
0, 6, 119, 4.174843311309814
0, 6, 120, 6.412966728210449
0, 6, 121, 5.332080364227295
0, 6, 122, 3.922422409057617
0, 6, 123, 2.364063024520874
0, 6, 124, 2.63199520111084
0, 6, 125, 2.494497060775757
0, 6, 126, 3.669349193572998
0, 6, 127, 5.450011730194092
0, 7, 0, 7.142098903656006
0, 7, 1, 3.415530204772949
0, 7, 2, 4.048417568206787
0, 7, 3, 1.752415299415588
0, 7, 4, 1.308808922767639
0, 7, 5, 1.420039534568787
0, 7, 6, 2.092927217483521
0, 7, 7, 1.455279588699341
0, 7, 8, 4.634547233581543
0, 7, 9, 3.168492555618286
0, 7, 10, 4.296457290649414
0, 7, 11, 3.329230785369873
0, 7, 12, 2.904298543930054
0, 7, 13, 5.700573444366455
0, 7, 14, 6.878759384155273
0, 7, 15, 6.875915050506592
0, 7, 16, 15.67439937591553
0, 7, 17, 52.77301406860352
0, 7, 18, 160.73388671875
0, 7, 19, 182.202392578125
0, 7, 20, 182.6260986328125
0, 7, 21, 183.7154998779297
0, 7, 22, 190.1243743896484
0, 7, 23, 202.828369140625
0, 7, 24, 178.8516998291016
0, 7, 25, 213.7489776611328
0, 7, 26, 189.8676452636719
0, 7, 27, 181.6649322509766
0, 7, 28, 185.0182037353516
0, 7, 29, 209.9430694580078
0, 7, 30, 195.0090789794922
0, 7, 31, 175.5416564941406
0, 7, 32, 190.1436614990234
0, 7, 33, 179.02294921875
0, 7, 34, 193.5556488037109
0, 7, 35, 196.4107513427734
0, 7, 36, 186.2779846191406
0, 7, 37, 213.4809417724609
0, 7, 38, 190.8646697998047
0, 7, 39, 174.0185546875
0, 7, 40, 183.1485443115234
0, 7, 41, 187.1107482910156
0, 7, 42, 178.2009735107422
0, 7, 43, 178.118896484375
0, 7, 44, 179.1560668945312
0, 7, 45, 174.2669067382812
0, 7, 46, 190.3701324462891
0, 7, 47, 198.0257415771484
0, 7, 48, 186.0390014648438
0, 7, 49, 198.6467132568359
0, 7, 50, 188.038818359375
0, 7, 51, 205.4319915771484
0, 7, 52, 203.6714324951172
0, 7, 53, 191.0108032226562
0, 7, 54, 196.9136199951172
0, 7, 55, 204.5355682373047
0, 7, 56, 183.7841796875
0, 7, 57, 183.1396484375
0, 7, 58, 191.7830047607422
0, 7, 59, 186.7920379638672
0, 7, 60, 203.896484375
0, 7, 61, 170.3167266845703
0, 7, 62, 202.5352020263672
0, 7, 63, 189.1214904785156
0, 7, 64, 198.9559783935547
0, 7, 65, 194.8886108398438
0, 7, 66, 207.7444000244141
0, 7, 67, 222.4091186523438
0, 7, 68, 163.0896606445312
0, 7, 69, 194.1620330810547
0, 7, 70, 216.9588623046875
0, 7, 71, 184.4265899658203
0, 7, 72, 180.8512878417969
0, 7, 73, 177.4338531494141
0, 7, 74, 208.34033203125
0, 7, 75, 203.2228088378906
0, 7, 76, 214.7060394287109
0, 7, 77, 173.9240570068359
0, 7, 78, 177.4496307373047
0, 7, 79, 193.3719787597656
0, 7, 80, 195.7517852783203
0, 7, 81, 217.5004730224609
0, 7, 82, 185.0411834716797
0, 7, 83, 206.0386047363281
0, 7, 84, 192.0257110595703
0, 7, 85, 185.5912322998047
0, 7, 86, 200.3712615966797
0, 7, 87, 225.6371307373047
0, 7, 88, 194.7820434570312
0, 7, 89, 176.7843017578125
0, 7, 90, 183.2678680419922
0, 7, 91, 195.1267700195312
0, 7, 92, 194.1737213134766
0, 7, 93, 199.3303985595703
0, 7, 94, 177.9063415527344
0, 7, 95, 197.5421905517578
0, 7, 96, 209.4032440185547
0, 7, 97, 188.0863342285156
0, 7, 98, 176.7610778808594
0, 7, 99, 197.0477752685547
0, 7, 100, 182.3796539306641
0, 7, 101, 199.9005126953125
0, 7, 102, 185.6521911621094
0, 7, 103, 182.7706146240234
0, 7, 104, 174.1082305908203
0, 7, 105, 194.9869079589844
0, 7, 106, 206.7589874267578
0, 7, 107, 175.6982116699219
0, 7, 108, 176.0533142089844
0, 7, 109, 137.9135894775391
0, 7, 110, 54.93087005615234
0, 7, 111, 9.713727951049805
0, 7, 112, 7.34551477432251
0, 7, 113, 8.881917953491211
0, 7, 114, 6.429965972900391
0, 7, 115, 4.997461318969727
0, 7, 116, 5.281955718994141
0, 7, 117, 5.391443729400635
0, 7, 118, 2.781252861022949
0, 7, 119, 2.251661062240601
0, 7, 120, 3.123975515365601
0, 7, 121, 2.312189340591431
0, 7, 122, 2.45415472984314
0, 7, 123, 1.835958957672119
0, 7, 124, 2.811923265457153
0, 7, 125, 1.339363813400269
0, 7, 126, 3.715899229049683
0, 7, 127, 4.131713390350342
0, 8, 0, 5.853365421295166
0, 8, 1, 2.113567590713501
0, 8, 2, 4.196858406066895
0, 8, 3, 1.644128441810608
0, 8, 4, 1.035053849220276
0, 8, 5, 3.301549911499023
0, 8, 6, 1.365189552307129
0, 8, 7, 4.673479080200195
0, 8, 8, 2.835245847702026
0, 8, 9, 6.254217624664307
0, 8, 10, 2.185308456420898
0, 8, 11, 2.572942972183228
0, 8, 12, 3.699021577835083
0, 8, 13, 4.982403755187988
0, 8, 14, 7.992645740509033
0, 8, 15, 8.949995040893555
0, 8, 16, 21.00885772705078
0, 8, 17, 75.56089782714844
0, 8, 18, 142.5473327636719
0, 8, 19, 180.8780670166016
0, 8, 20, 193.1073303222656
0, 8, 21, 193.3988037109375
0, 8, 22, 180.5296630859375
0, 8, 23, 172.2110137939453
0, 8, 24, 192.5074920654297
0, 8, 25, 184.9756164550781
0, 8, 26, 193.4438171386719
0, 8, 27, 186.5540466308594
0, 8, 28, 188.5167846679688
0, 8, 29, 207.5420684814453
0, 8, 30, 197.0636444091797
0, 8, 31, 181.5066528320312
0, 8, 32, 197.6876068115234
0, 8, 33, 206.5682067871094
0, 8, 34, 204.0308532714844
0, 8, 35, 185.2666625976562
0, 8, 36, 182.0667724609375
