# TOPAS Version: 3.1.p3
# Parameter File: batch_inserts_228.txt
# Results for scorer Readout_Adipose
# Scored in component: MyBox
# X in 1 bin  of 0.65 cm
# Y in 512 bins of 0.0783984 cm
# Z in 128 bins of 0.078125 cm
# EnergyDeposit ( MeV ) : Sum   
0, 0, 0, 1.535906434059143
0, 0, 1, 3.616031885147095
0, 0, 2, 1.561127185821533
0, 0, 3, 1.148789405822754
0, 0, 4, 2.032110691070557
0, 0, 5, 0.8076260685920715
0, 0, 6, 0.8670095801353455
0, 0, 7, 2.078403472900391
0, 0, 8, 1.760757923126221
0, 0, 9, 3.018338203430176
0, 0, 10, 1.68775749206543
0, 0, 11, 3.433473825454712
0, 0, 12, 4.491067886352539
0, 0, 13, 2.158837556838989
0, 0, 14, 4.975960254669189
0, 0, 15, 6.650460243225098
0, 0, 16, 3.841920614242554
0, 0, 17, 7.349814414978027
0, 0, 18, 6.830950260162354
0, 0, 19, 24.24752235412598
0, 0, 20, 94.94641876220703
0, 0, 21, 153.3810882568359
0, 0, 22, 154.7572021484375
0, 0, 23, 144.6423492431641
0, 0, 24, 160.7483520507812
0, 0, 25, 165.9551849365234
0, 0, 26, 167.2806091308594
0, 0, 27, 175.8286437988281
0, 0, 28, 179.6081695556641
0, 0, 29, 174.3141326904297
0, 0, 30, 172.5278015136719
0, 0, 31, 166.6039581298828
0, 0, 32, 164.9952239990234
0, 0, 33, 167.4215545654297
0, 0, 34, 179.6026306152344
0, 0, 35, 175.2633514404297
0, 0, 36, 158.9773406982422
0, 0, 37, 161.0042724609375
0, 0, 38, 166.0999908447266
0, 0, 39, 159.1939086914062
0, 0, 40, 164.2086791992188
0, 0, 41, 165.8716583251953
0, 0, 42, 144.5565185546875
0, 0, 43, 168.6963043212891
0, 0, 44, 177.2624206542969
0, 0, 45, 172.8838806152344
0, 0, 46, 166.3395843505859
0, 0, 47, 167.4125671386719
0, 0, 48, 170.4487609863281
0, 0, 49, 182.8893432617188
0, 0, 50, 168.6662445068359
0, 0, 51, 161.7805938720703
0, 0, 52, 164.3558349609375
0, 0, 53, 172.0703582763672
0, 0, 54, 160.3442535400391
0, 0, 55, 164.4812316894531
0, 0, 56, 189.4243621826172
0, 0, 57, 170.2630462646484
0, 0, 58, 163.298583984375
0, 0, 59, 172.8033752441406
0, 0, 60, 169.458740234375
0, 0, 61, 171.2221984863281
0, 0, 62, 182.7948608398438
0, 0, 63, 166.2560424804688
0, 0, 64, 164.4572906494141
0, 0, 65, 174.5776824951172
0, 0, 66, 177.5216979980469
0, 0, 67, 163.2637786865234
0, 0, 68, 158.7638244628906
0, 0, 69, 158.0933532714844
0, 0, 70, 169.325439453125
0, 0, 71, 158.1586456298828
0, 0, 72, 164.2774047851562
0, 0, 73, 171.9503784179688
0, 0, 74, 162.7204742431641
0, 0, 75, 163.7832489013672
0, 0, 76, 162.7244110107422
0, 0, 77, 171.7068786621094
0, 0, 78, 181.2333831787109
0, 0, 79, 174.9143524169922
0, 0, 80, 159.1332397460938
0, 0, 81, 160.4405059814453
0, 0, 82, 182.013671875
0, 0, 83, 174.2946929931641
0, 0, 84, 159.4584350585938
0, 0, 85, 181.1532592773438
0, 0, 86, 158.536376953125
0, 0, 87, 176.8710479736328
0, 0, 88, 176.4468231201172
0, 0, 89, 175.3245086669922
0, 0, 90, 161.2331085205078
0, 0, 91, 184.2772827148438
0, 0, 92, 163.7633056640625
0, 0, 93, 158.5252685546875
0, 0, 94, 168.6394958496094
0, 0, 95, 173.9172210693359
0, 0, 96, 184.5512542724609
0, 0, 97, 183.1631774902344
0, 0, 98, 186.6767883300781
0, 0, 99, 171.3407897949219
0, 0, 100, 157.9953460693359
0, 0, 101, 166.620361328125
0, 0, 102, 171.5579833984375
0, 0, 103, 170.3691711425781
0, 0, 104, 168.3283843994141
0, 0, 105, 176.7901763916016
0, 0, 106, 158.6067199707031
0, 0, 107, 86.59021759033203
0, 0, 108, 21.70222091674805
0, 0, 109, 8.964571952819824
0, 0, 110, 5.336867332458496
0, 0, 111, 6.776565074920654
0, 0, 112, 4.756489753723145
0, 0, 113, 2.633360862731934
0, 0, 114, 2.257803440093994
0, 0, 115, 2.854869842529297
0, 0, 116, 2.830756664276123
0, 0, 117, 2.640650510787964
0, 0, 118, 2.622096538543701
0, 0, 119, 2.689249277114868
0, 0, 120, 1.465407133102417
0, 0, 121, 4.555155277252197
0, 0, 122, 3.834413290023804
0, 0, 123, 3.32496976852417
0, 0, 124, 0.9957383871078491
0, 0, 125, 1.987700343132019
0, 0, 126, 4.190017700195312
0, 0, 127, 1.701992869377136
0, 1, 0, 0.7740523815155029
0, 1, 1, 2.805799961090088
0, 1, 2, 7.212398529052734
0, 1, 3, 1.965073704719543
0, 1, 4, 1.109601855278015
0, 1, 5, 3.801240205764771
0, 1, 6, 0.9045095443725586
0, 1, 7, 2.156989336013794
0, 1, 8, 1.331535458564758
0, 1, 9, 1.346982955932617
0, 1, 10, 1.97433078289032
0, 1, 11, 4.702905178070068
0, 1, 12, 3.819696426391602
0, 1, 13, 4.494633197784424
0, 1, 14, 6.500537395477295
0, 1, 15, 8.525283813476562
0, 1, 16, 7.291748523712158
0, 1, 17, 5.761170387268066
0, 1, 18, 10.47524356842041
0, 1, 19, 39.06793212890625
0, 1, 20, 125.4359588623047
0, 1, 21, 176.5131072998047
0, 1, 22, 192.8403930664062
0, 1, 23, 186.1228179931641
0, 1, 24, 179.811767578125
0, 1, 25, 193.2058715820312
0, 1, 26, 197.6793975830078
0, 1, 27, 187.241455078125
0, 1, 28, 187.4907836914062
0, 1, 29, 184.1943511962891
0, 1, 30, 179.7319641113281
0, 1, 31, 182.5438690185547
0, 1, 32, 188.5473175048828
0, 1, 33, 191.1792755126953
0, 1, 34, 184.6438598632812
0, 1, 35, 192.847900390625
0, 1, 36, 205.177490234375
0, 1, 37, 185.0940246582031
0, 1, 38, 165.0134429931641
0, 1, 39, 171.4861297607422
0, 1, 40, 179.2986145019531
0, 1, 41, 185.0025177001953
0, 1, 42, 183.6211547851562
0, 1, 43, 186.7372894287109
0, 1, 44, 168.1051788330078
0, 1, 45, 187.5349578857422
0, 1, 46, 172.7186584472656
0, 1, 47, 185.6620635986328
0, 1, 48, 186.7399444580078
0, 1, 49, 186.2943115234375
0, 1, 50, 178.91748046875
0, 1, 51, 191.1305694580078
0, 1, 52, 195.7166595458984
0, 1, 53, 196.6068267822266
0, 1, 54, 184.2609558105469
0, 1, 55, 165.0793304443359
0, 1, 56, 178.2918548583984
0, 1, 57, 177.9301300048828
0, 1, 58, 188.3136138916016
0, 1, 59, 195.0641784667969
0, 1, 60, 187.8123168945312
0, 1, 61, 177.7308807373047
0, 1, 62, 204.3760986328125
0, 1, 63, 175.3092041015625
0, 1, 64, 172.8412780761719
0, 1, 65, 184.9763641357422
0, 1, 66, 203.9667358398438
0, 1, 67, 183.6318054199219
0, 1, 68, 186.7478790283203
0, 1, 69, 190.0691223144531
0, 1, 70, 185.9445343017578
0, 1, 71, 171.6036529541016
0, 1, 72, 187.6195831298828
0, 1, 73, 190.6170806884766
0, 1, 74, 200.7327880859375
0, 1, 75, 184.8008270263672
0, 1, 76, 173.6044464111328
0, 1, 77, 192.0625915527344
0, 1, 78, 188.6791229248047
0, 1, 79, 202.7567291259766
0, 1, 80, 186.5594940185547
0, 1, 81, 174.5592346191406
0, 1, 82, 207.5068359375
0, 1, 83, 213.8272857666016
0, 1, 84, 180.8287506103516
0, 1, 85, 170.4779205322266
0, 1, 86, 168.9703521728516
0, 1, 87, 184.6276092529297
0, 1, 88, 176.0836181640625
0, 1, 89, 188.5142211914062
0, 1, 90, 212.9488525390625
0, 1, 91, 180.7899627685547
0, 1, 92, 183.3567810058594
0, 1, 93, 180.4611968994141
0, 1, 94, 184.961669921875
0, 1, 95, 182.5966796875
0, 1, 96, 196.7146606445312
0, 1, 97, 182.9198913574219
0, 1, 98, 187.3825225830078
0, 1, 99, 175.6470947265625
0, 1, 100, 171.4247436523438
0, 1, 101, 177.3045501708984
0, 1, 102, 182.1835174560547
0, 1, 103, 172.7863311767578
0, 1, 104, 188.8982391357422
0, 1, 105, 185.3212280273438
0, 1, 106, 163.9053192138672
0, 1, 107, 122.9888687133789
0, 1, 108, 47.23884201049805
0, 1, 109, 9.514533042907715
0, 1, 110, 7.088480472564697
0, 1, 111, 6.879984378814697
0, 1, 112, 7.417765617370605
0, 1, 113, 6.81576681137085
0, 1, 114, 5.421084403991699
0, 1, 115, 4.201083183288574
0, 1, 116, 3.195662975311279
0, 1, 117, 3.538322687149048
0, 1, 118, 3.381759881973267
0, 1, 119, 0.697263777256012
0, 1, 120, 3.293708086013794
0, 1, 121, 4.238602161407471
0, 1, 122, 1.994673371315002
0, 1, 123, 3.335055828094482
0, 1, 124, 4.107534408569336
0, 1, 125, 3.290357351303101
0, 1, 126, 2.545018434524536
0, 1, 127, 2.149676084518433
0, 2, 0, 1.042888641357422
0, 2, 1, 2.009166955947876
0, 2, 2, 2.65074348449707
0, 2, 3, 1.36699390411377
0, 2, 4, 1.33861780166626
0, 2, 5, 1.157829523086548
0, 2, 6, 2.406008243560791
0, 2, 7, 2.086618185043335
0, 2, 8, 0.8516950011253357
0, 2, 9, 2.039986848831177
0, 2, 10, 4.601809024810791
0, 2, 11, 4.868312358856201
0, 2, 12, 3.409317493438721
0, 2, 13, 3.600428581237793
0, 2, 14, 5.822804927825928
0, 2, 15, 6.233445644378662
0, 2, 16, 3.933931589126587
0, 2, 17, 9.004623413085938
0, 2, 18, 14.39227390289307
0, 2, 19, 78.45749664306641
0, 2, 20, 163.8597717285156
0, 2, 21, 184.7867584228516
0, 2, 22, 194.4714660644531
0, 2, 23, 184.8076934814453
0, 2, 24, 173.8671264648438
0, 2, 25, 183.6383056640625
0, 2, 26, 178.9008636474609
0, 2, 27, 189.9703521728516
0, 2, 28, 170.7496337890625
0, 2, 29, 170.1078491210938
0, 2, 30, 186.9982299804688
0, 2, 31, 182.4886322021484
0, 2, 32, 183.7294616699219
0, 2, 33, 191.18505859375
0, 2, 34, 197.4271392822266
0, 2, 35, 182.6027984619141
0, 2, 36, 185.5308227539062
0, 2, 37, 180.8770599365234
0, 2, 38, 183.7227325439453
0, 2, 39, 167.1957550048828
0, 2, 40, 184.0011596679688
0, 2, 41, 185.0423583984375
0, 2, 42, 189.5708160400391
0, 2, 43, 193.5276947021484
0, 2, 44, 190.9629516601562
0, 2, 45, 190.3911743164062
0, 2, 46, 195.6715850830078
0, 2, 47, 189.9609222412109
0, 2, 48, 176.7200622558594
0, 2, 49, 197.6268157958984
0, 2, 50, 168.1404724121094
0, 2, 51, 188.304443359375
0, 2, 52, 188.1694793701172
0, 2, 53, 196.1908874511719
0, 2, 54, 175.6188201904297
0, 2, 55, 173.1002960205078
0, 2, 56, 182.4555206298828
0, 2, 57, 199.9288482666016
0, 2, 58, 186.2569427490234
0, 2, 59, 189.4935760498047
0, 2, 60, 196.4734039306641
0, 2, 61, 193.2719421386719
0, 2, 62, 190.1759948730469
0, 2, 63, 171.2878112792969
0, 2, 64, 190.1219024658203
0, 2, 65, 202.3737640380859
0, 2, 66, 195.5996551513672
0, 2, 67, 185.4286956787109
0, 2, 68, 183.1877593994141
0, 2, 69, 188.0133972167969
0, 2, 70, 203.1105804443359
0, 2, 71, 175.4125061035156
0, 2, 72, 185.4905395507812
0, 2, 73, 177.3361206054688
0, 2, 74, 180.5948486328125
0, 2, 75, 195.8840789794922
0, 2, 76, 183.9913787841797
0, 2, 77, 177.1554718017578
0, 2, 78, 197.8885803222656
0, 2, 79, 178.8076782226562
0, 2, 80, 186.8856658935547
0, 2, 81, 190.4497528076172
0, 2, 82, 205.6107025146484
0, 2, 83, 204.8417053222656
0, 2, 84, 188.4686279296875
0, 2, 85, 172.1858825683594
0, 2, 86, 194.9810028076172
0, 2, 87, 171.9987335205078
0, 2, 88, 178.6549987792969
0, 2, 89, 184.3984222412109
0, 2, 90, 178.3354339599609
0, 2, 91, 174.6970977783203
0, 2, 92, 196.8691711425781
0, 2, 93, 194.7565765380859
0, 2, 94, 201.7269439697266
0, 2, 95, 195.1980438232422
0, 2, 96, 186.3076934814453
0, 2, 97, 171.5210723876953
0, 2, 98, 173.0818786621094
0, 2, 99, 162.1141510009766
0, 2, 100, 187.5179443359375
0, 2, 101, 196.2861022949219
0, 2, 102, 176.5363311767578
0, 2, 103, 201.1405639648438
0, 2, 104, 186.7492828369141
0, 2, 105, 201.2772521972656
0, 2, 106, 194.7008666992188
0, 2, 107, 151.1217346191406
0, 2, 108, 78.98857116699219
0, 2, 109, 17.72008514404297
0, 2, 110, 9.56716251373291
0, 2, 111, 5.40074634552002
0, 2, 112, 3.73924446105957
0, 2, 113, 4.172902584075928
0, 2, 114, 6.30502462387085
0, 2, 115, 2.756299257278442
0, 2, 116, 1.678899645805359
0, 2, 117, 2.866994619369507
0, 2, 118, 3.235389471054077
0, 2, 119, 2.482240676879883
0, 2, 120, 1.939632654190063
0, 2, 121, 3.20013952255249
0, 2, 122, 2.618943691253662
0, 2, 123, 4.054905414581299
0, 2, 124, 2.373719692230225
0, 2, 125, 2.265806913375854
0, 2, 126, 2.787899971008301
0, 2, 127, 1.388461709022522
0, 3, 0, 1.511672377586365
0, 3, 1, 1.112131595611572
0, 3, 2, 2.265698432922363
0, 3, 3, 2.132858276367188
0, 3, 4, 4.532769203186035
0, 3, 5, 2.378840923309326
0, 3, 6, 1.732680916786194
0, 3, 7, 0.990236222743988
0, 3, 8, 3.120423555374146
0, 3, 9, 1.564178943634033
0, 3, 10, 3.683842658996582
0, 3, 11, 4.245967864990234
0, 3, 12, 3.470885276794434
0, 3, 13, 3.579403877258301
0, 3, 14, 4.040129661560059
0, 3, 15, 7.452930927276611
0, 3, 16, 7.725615978240967
0, 3, 17, 6.395350456237793
0, 3, 18, 32.22427368164062
0, 3, 19, 114.650390625
0, 3, 20, 180.1630554199219
0, 3, 21, 172.8698425292969
0, 3, 22, 177.7109222412109
0, 3, 23, 187.5839538574219
0, 3, 24, 177.6123504638672
0, 3, 25, 169.2867126464844
0, 3, 26, 180.6338653564453
0, 3, 27, 188.7603607177734
0, 3, 28, 183.5086975097656
0, 3, 29, 198.8672027587891
0, 3, 30, 185.2487030029297
0, 3, 31, 194.9375915527344
0, 3, 32, 206.1158905029297
0, 3, 33, 195.2497100830078
0, 3, 34, 187.6681060791016
0, 3, 35, 173.4810485839844
0, 3, 36, 185.976806640625
0, 3, 37, 200.507080078125
0, 3, 38, 194.04150390625
0, 3, 39, 185.4583892822266
0, 3, 40, 166.1156158447266
0, 3, 41, 174.7588958740234
0, 3, 42, 185.6799926757812
0, 3, 43, 182.2227783203125
0, 3, 44, 203.3621978759766
0, 3, 45, 207.4816589355469
0, 3, 46, 199.125244140625
0, 3, 47, 193.7449188232422
0, 3, 48, 195.4426727294922
0, 3, 49, 180.4766693115234
0, 3, 50, 187.3286895751953
0, 3, 51, 174.7494964599609
0, 3, 52, 187.0013275146484
0, 3, 53, 177.5372619628906
0, 3, 54, 178.4774017333984
0, 3, 55, 176.8636932373047
0, 3, 56, 182.3389434814453
0, 3, 57, 175.7041778564453
0, 3, 58, 202.6579284667969
0, 3, 59, 195.8099822998047
0, 3, 60, 186.3701019287109
0, 3, 61, 180.9385528564453
0, 3, 62, 183.140380859375
0, 3, 63, 185.9933776855469
0, 3, 64, 191.8994445800781
0, 3, 65, 187.8119506835938
0, 3, 66, 175.0726928710938
0, 3, 67, 190.0217895507812
0, 3, 68, 212.5909729003906
0, 3, 69, 189.1541748046875
0, 3, 70, 185.3654174804688
0, 3, 71, 196.4856567382812
0, 3, 72, 185.9647064208984
0, 3, 73, 186.8939666748047
0, 3, 74, 191.9853820800781
0, 3, 75, 193.1112976074219
0, 3, 76, 190.7626647949219
0, 3, 77, 198.0435485839844
0, 3, 78, 188.0648498535156
0, 3, 79, 186.5596771240234
0, 3, 80, 190.0104064941406
0, 3, 81, 183.5868377685547
0, 3, 82, 179.7066497802734
0, 3, 83, 194.0751342773438
0, 3, 84, 199.70068359375
0, 3, 85, 192.1550903320312
0, 3, 86, 204.0757293701172
0, 3, 87, 197.6164855957031
0, 3, 88, 191.4783477783203
0, 3, 89, 193.9838409423828
0, 3, 90, 173.9190216064453
0, 3, 91, 157.6873016357422
0, 3, 92, 206.0599212646484
0, 3, 93, 196.2857818603516
0, 3, 94, 192.5921630859375
0, 3, 95, 210.9462738037109
0, 3, 96, 208.8214569091797
0, 3, 97, 167.7200317382812
0, 3, 98, 167.7772216796875
0, 3, 99, 180.127197265625
0, 3, 100, 176.7870483398438
0, 3, 101, 196.8394622802734
0, 3, 102, 194.8119201660156
0, 3, 103, 193.7052001953125
0, 3, 104, 203.6048126220703
0, 3, 105, 176.0612182617188
0, 3, 106, 182.1073455810547
0, 3, 107, 170.6990203857422
0, 3, 108, 108.4441375732422
0, 3, 109, 27.73558044433594
0, 3, 110, 7.990052223205566
0, 3, 111, 6.709442615509033
0, 3, 112, 3.553361415863037
0, 3, 113, 7.54685640335083
0, 3, 114, 4.245882034301758
0, 3, 115, 6.115020275115967
0, 3, 116, 6.083423137664795
0, 3, 117, 4.335559368133545
0, 3, 118, 1.954012751579285
0, 3, 119, 2.121283531188965
0, 3, 120, 3.884634733200073
0, 3, 121, 1.984906792640686
0, 3, 122, 4.600901126861572
0, 3, 123, 1.550128102302551
0, 3, 124, 1.573013544082642
0, 3, 125, 0.8790719509124756
0, 3, 126, 1.589071869850159
0, 3, 127, 2.175984144210815
0, 4, 0, 1.793757200241089
0, 4, 1, 0.4195155799388885
0, 4, 2, 2.576821327209473
0, 4, 3, 4.238430500030518
0, 4, 4, 1.581951141357422
0, 4, 5, 1.867823481559753
0, 4, 6, 3.167860746383667
0, 4, 7, 2.988372564315796
0, 4, 8, 1.708421587944031
0, 4, 9, 3.253631353378296
0, 4, 10, 4.341815948486328
0, 4, 11, 3.166462421417236
0, 4, 12, 3.40971040725708
0, 4, 13, 4.542659759521484
0, 4, 14, 4.676589488983154
0, 4, 15, 8.582972526550293
0, 4, 16, 8.774566650390625
0, 4, 17, 11.24562931060791
0, 4, 18, 55.22916793823242
0, 4, 19, 150.9072265625
0, 4, 20, 193.4060211181641
0, 4, 21, 169.1594085693359
0, 4, 22, 187.6104736328125
0, 4, 23, 195.5083160400391
0, 4, 24, 192.4300537109375
0, 4, 25, 199.3268737792969
0, 4, 26, 184.9556427001953
0, 4, 27, 191.5769348144531
0, 4, 28, 179.4647521972656
0, 4, 29, 206.5357971191406
0, 4, 30, 197.9064331054688
0, 4, 31, 192.0825805664062
0, 4, 32, 208.9309387207031
0, 4, 33, 190.5353698730469
0, 4, 34, 193.8134002685547
0, 4, 35, 213.8631439208984
0, 4, 36, 193.0162963867188
0, 4, 37, 178.3766784667969
0, 4, 38, 194.8667755126953
0, 4, 39, 189.966552734375
0, 4, 40, 185.1404724121094
0, 4, 41, 190.53955078125
0, 4, 42, 206.3372955322266
0, 4, 43, 173.5954437255859
0, 4, 44, 183.2426452636719
0, 4, 45, 196.0478515625
0, 4, 46, 185.8307189941406
0, 4, 47, 180.1316986083984
0, 4, 48, 185.1961364746094
0, 4, 49, 174.300048828125
0, 4, 50, 186.9801635742188
0, 4, 51, 197.6920776367188
0, 4, 52, 222.7784881591797
0, 4, 53, 207.4329223632812
0, 4, 54, 189.4725189208984
0, 4, 55, 174.5555725097656
0, 4, 56, 191.0616302490234
0, 4, 57, 191.3954315185547
0, 4, 58, 188.4425964355469
0, 4, 59, 189.5112457275391
0, 4, 60, 195.6819610595703
0, 4, 61, 193.1073608398438
0, 4, 62, 189.77001953125
0, 4, 63, 180.2755889892578
0, 4, 64, 211.8286285400391
0, 4, 65, 190.3126525878906
0, 4, 66, 201.9002838134766
0, 4, 67, 199.3710021972656
0, 4, 68, 202.5146942138672
0, 4, 69, 200.5677185058594
0, 4, 70, 204.3059844970703
0, 4, 71, 206.0411682128906
0, 4, 72, 215.4157409667969
0, 4, 73, 185.4286041259766
0, 4, 74, 181.2223358154297
0, 4, 75, 184.1784973144531
0, 4, 76, 189.8834381103516
0, 4, 77, 183.9151916503906
0, 4, 78, 194.7402038574219
0, 4, 79, 204.2391510009766
0, 4, 80, 211.610107421875
0, 4, 81, 197.4462127685547
0, 4, 82, 181.9245910644531
0, 4, 83, 169.7582092285156
0, 4, 84, 193.2452545166016
0, 4, 85, 196.0286254882812
0, 4, 86, 180.9654235839844
0, 4, 87, 183.2416381835938
0, 4, 88, 204.9638061523438
0, 4, 89, 187.2745819091797
0, 4, 90, 211.1230773925781
0, 4, 91, 189.0595092773438
0, 4, 92, 197.2400665283203
0, 4, 93, 199.1428985595703
0, 4, 94, 181.7684631347656
0, 4, 95, 175.8138885498047
0, 4, 96, 189.5995025634766
0, 4, 97, 193.3921966552734
0, 4, 98, 200.4722290039062
0, 4, 99, 184.4235992431641
0, 4, 100, 182.8291625976562
0, 4, 101, 177.2319793701172
0, 4, 102, 172.4893341064453
0, 4, 103, 185.8410797119141
0, 4, 104, 209.8981628417969
0, 4, 105, 189.5816192626953
0, 4, 106, 179.2331695556641
0, 4, 107, 180.9110565185547
0, 4, 108, 151.5489501953125
0, 4, 109, 49.84810638427734
0, 4, 110, 11.2082576751709
0, 4, 111, 9.35230541229248
0, 4, 112, 6.36406135559082
0, 4, 113, 5.888824462890625
0, 4, 114, 4.796396732330322
0, 4, 115, 4.512680530548096
0, 4, 116, 4.334093570709229
0, 4, 117, 2.657061815261841
0, 4, 118, 3.241266489028931
0, 4, 119, 3.666536569595337
0, 4, 120, 2.405945777893066
0, 4, 121, 2.474966764450073
0, 4, 122, 1.864056825637817
0, 4, 123, 1.346101045608521
0, 4, 124, 3.984609603881836
0, 4, 125, 3.250488996505737
0, 4, 126, 2.279024839401245
0, 4, 127, 1.116601467132568
0, 5, 0, 2.031857490539551
0, 5, 1, 2.38776683807373
0, 5, 2, 5.534359931945801
0, 5, 3, 3.865997314453125
0, 5, 4, 2.348868608474731
0, 5, 5, 2.685998678207397
0, 5, 6, 2.679969549179077
0, 5, 7, 2.810682773590088
0, 5, 8, 2.159319162368774
0, 5, 9, 2.201716661453247
0, 5, 10, 5.10440731048584
0, 5, 11, 5.302758693695068
0, 5, 12, 3.146639585494995
0, 5, 13, 3.597362279891968
0, 5, 14, 5.161677360534668
0, 5, 15, 8.750795364379883
0, 5, 16, 7.306662082672119
0, 5, 17, 21.84580612182617
0, 5, 18, 82.98172760009766
0, 5, 19, 164.4716796875
0, 5, 20, 184.6265716552734
0, 5, 21, 177.2506561279297
0, 5, 22, 171.0312194824219
0, 5, 23, 200.6362915039062
0, 5, 24, 188.0825500488281
0, 5, 25, 206.5910339355469
0, 5, 26, 182.6090393066406
0, 5, 27, 194.5240783691406
0, 5, 28, 188.3884429931641
0, 5, 29, 195.0524444580078
0, 5, 30, 177.5596466064453
0, 5, 31, 180.1916961669922
0, 5, 32, 186.9407958984375
0, 5, 33, 168.3415985107422
0, 5, 34, 195.2424926757812
0, 5, 35, 197.6908416748047
0, 5, 36, 167.5634155273438
0, 5, 37, 196.0632781982422
0, 5, 38, 181.0207977294922
0, 5, 39, 186.9609375
0, 5, 40, 196.3400726318359
0, 5, 41, 178.3836517333984
0, 5, 42, 187.6767272949219
0, 5, 43, 191.6430358886719
0, 5, 44, 199.9976043701172
0, 5, 45, 186.3417358398438
0, 5, 46, 193.7520294189453
0, 5, 47, 180.4946441650391
0, 5, 48, 178.1768188476562
0, 5, 49, 176.7252349853516
0, 5, 50, 186.3367004394531
0, 5, 51, 172.8687591552734
0, 5, 52, 167.8348388671875
0, 5, 53, 181.5109100341797
0, 5, 54, 172.5923919677734
0, 5, 55, 216.0870208740234
0, 5, 56, 181.3716125488281
0, 5, 57, 206.6548919677734
0, 5, 58, 181.2101440429688
0, 5, 59, 180.0683441162109
0, 5, 60, 218.964599609375
0, 5, 61, 184.8331451416016
0, 5, 62, 180.0875549316406
0, 5, 63, 181.7415313720703
0, 5, 64, 194.3939971923828
0, 5, 65, 210.7310028076172
0, 5, 66, 192.3139953613281
0, 5, 67, 199.7581634521484
0, 5, 68, 187.9276580810547
0, 5, 69, 184.9335479736328
0, 5, 70, 185.1266479492188
0, 5, 71, 193.3748168945312
0, 5, 72, 197.5471801757812
0, 5, 73, 201.3882751464844
0, 5, 74, 179.2496795654297
0, 5, 75, 201.796142578125
0, 5, 76, 217.5062866210938
0, 5, 77, 180.6689758300781
0, 5, 78, 194.8645629882812
0, 5, 79, 189.6121673583984
0, 5, 80, 197.5666961669922
0, 5, 81, 202.2768249511719
0, 5, 82, 202.7831420898438
0, 5, 83, 188.2075958251953
0, 5, 84, 205.5739593505859
0, 5, 85, 175.8688507080078
0, 5, 86, 195.4783477783203
0, 5, 87, 188.4703674316406
0, 5, 88, 177.4221649169922
0, 5, 89, 194.1840209960938
0, 5, 90, 200.0932922363281
0, 5, 91, 193.8936157226562
0, 5, 92, 190.622314453125
0, 5, 93, 190.0462493896484
0, 5, 94, 208.0560302734375
0, 5, 95, 176.6948699951172
0, 5, 96, 182.0477752685547
0, 5, 97, 191.7502136230469
0, 5, 98, 189.6955413818359
0, 5, 99, 195.3404846191406
0, 5, 100, 185.8182983398438
0, 5, 101, 196.4982147216797
0, 5, 102, 181.0028076171875
0, 5, 103, 176.2555847167969
0, 5, 104, 189.9215850830078
0, 5, 105, 189.5886383056641
0, 5, 106, 176.9771270751953
0, 5, 107, 181.4344940185547
0, 5, 108, 175.8824310302734
0, 5, 109, 92.46469879150391
0, 5, 110, 33.25785827636719
0, 5, 111, 9.765886306762695
0, 5, 112, 7.103251457214355
0, 5, 113, 9.303302764892578
0, 5, 114, 8.036247253417969
0, 5, 115, 7.346413612365723
0, 5, 116, 4.113717079162598
0, 5, 117, 3.179108142852783
0, 5, 118, 3.357502937316895
0, 5, 119, 2.533486127853394
0, 5, 120, 2.501545667648315
0, 5, 121, 2.358172655105591
0, 5, 122, 4.21626091003418
0, 5, 123, 3.458678960800171
0, 5, 124, 4.254300117492676
0, 5, 125, 1.483500242233276
0, 5, 126, 2.437174320220947
0, 5, 127, 1.744889736175537
0, 6, 0, 4.439726829528809
0, 6, 1, 2.75511360168457
0, 6, 2, 3.595824003219604
0, 6, 3, 2.385431289672852
0, 6, 4, 2.908001184463501
0, 6, 5, 5.019471645355225
0, 6, 6, 3.1374192237854
0, 6, 7, 3.177618265151978
0, 6, 8, 3.360390424728394
0, 6, 9, 3.126451253890991
0, 6, 10, 5.094844818115234
0, 6, 11, 3.962609529495239
0, 6, 12, 4.416913509368896
0, 6, 13, 5.246474742889404
0, 6, 14, 5.498308658599854
0, 6, 15, 7.058290481567383
0, 6, 16, 13.07075119018555
0, 6, 17, 28.11577606201172
0, 6, 18, 112.0241851806641
0, 6, 19, 191.4642028808594
0, 6, 20, 195.4109649658203
0, 6, 21, 199.1377716064453
0, 6, 22, 191.2784881591797
0, 6, 23, 190.2767333984375
0, 6, 24, 200.1923522949219
0, 6, 25, 181.6750030517578
0, 6, 26, 187.0376586914062
0, 6, 27, 191.7802429199219
0, 6, 28, 188.7912139892578
0, 6, 29, 210.2269287109375
0, 6, 30, 191.145263671875
0, 6, 31, 195.506591796875
0, 6, 32, 205.9067535400391
0, 6, 33, 185.8514556884766
0, 6, 34, 197.7809143066406
0, 6, 35, 186.8022613525391
0, 6, 36, 180.3861236572266
0, 6, 37, 182.2440338134766
0, 6, 38, 186.0342102050781
0, 6, 39, 196.1150970458984
0, 6, 40, 174.2493896484375
0, 6, 41, 185.2247772216797
0, 6, 42, 174.3106689453125
0, 6, 43, 209.2173461914062
0, 6, 44, 209.0264129638672
0, 6, 45, 193.0955963134766
0, 6, 46, 187.7966156005859
0, 6, 47, 206.1236267089844
0, 6, 48, 189.7923736572266
0, 6, 49, 180.9007873535156
0, 6, 50, 182.4548492431641
0, 6, 51, 195.9236755371094
0, 6, 52, 200.3722534179688
0, 6, 53, 185.4245910644531
0, 6, 54, 174.9667816162109
0, 6, 55, 193.8275299072266
0, 6, 56, 203.6255340576172
0, 6, 57, 192.9422607421875
0, 6, 58, 177.7834167480469
0, 6, 59, 192.0025024414062
0, 6, 60, 184.2401123046875
0, 6, 61, 193.6590881347656
0, 6, 62, 196.7089080810547
0, 6, 63, 186.3357696533203
0, 6, 64, 168.0638275146484
0, 6, 65, 186.1452331542969
0, 6, 66, 198.4091033935547
0, 6, 67, 214.2567596435547
0, 6, 68, 181.5921936035156
0, 6, 69, 170.6970520019531
0, 6, 70, 187.2952575683594
0, 6, 71, 170.340087890625
0, 6, 72, 175.6204528808594
0, 6, 73, 176.4219970703125
0, 6, 74, 213.3784637451172
0, 6, 75, 227.6602935791016
0, 6, 76, 183.7321929931641
0, 6, 77, 171.7228698730469
0, 6, 78, 176.3028869628906
0, 6, 79, 188.1854858398438
0, 6, 80, 186.9333953857422
0, 6, 81, 210.4220428466797
0, 6, 82, 195.5184173583984
0, 6, 83, 195.2335205078125
0, 6, 84, 197.1283874511719
0, 6, 85, 181.4120635986328
0, 6, 86, 203.3314666748047
0, 6, 87, 184.48779296875
0, 6, 88, 193.2240142822266
0, 6, 89, 188.8607788085938
0, 6, 90, 206.3970642089844
0, 6, 91, 202.5722808837891
0, 6, 92, 173.4183807373047
0, 6, 93, 192.5469512939453
0, 6, 94, 188.9206848144531
0, 6, 95, 185.4988708496094
0, 6, 96, 189.2082366943359
0, 6, 97, 195.2790985107422
0, 6, 98, 182.93994140625
0, 6, 99, 174.8033142089844
0, 6, 100, 201.6304321289062
0, 6, 101, 168.5275421142578
0, 6, 102, 201.5196075439453
0, 6, 103, 197.1095123291016
0, 6, 104, 184.2711791992188
0, 6, 105, 194.1876983642578
0, 6, 106, 176.9520416259766
0, 6, 107, 195.1459197998047
0, 6, 108, 173.5007019042969
0, 6, 109, 116.1770095825195
0, 6, 110, 34.34204483032227
0, 6, 111, 8.94469165802002
0, 6, 112, 7.718851089477539
0, 6, 113, 6.066961765289307
0, 6, 114, 6.918956756591797
0, 6, 115, 6.719560146331787
0, 6, 116, 3.868295192718506
0, 6, 117, 4.643330574035645
0, 6, 118, 3.965051174163818
0, 6, 119, 5.158639907836914
0, 6, 120, 2.457480192184448
0, 6, 121, 4.400188446044922
0, 6, 122, 2.918581008911133
0, 6, 123, 3.212085247039795
0, 6, 124, 1.543112993240356
0, 6, 125, 3.895721673965454
0, 6, 126, 1.867235898971558
0, 6, 127, 2.754273891448975
0, 7, 0, 3.354921102523804
0, 7, 1, 2.455854415893555
0, 7, 2, 2.503477573394775
0, 7, 3, 2.947760343551636
0, 7, 4, 1.015441536903381
0, 7, 5, 1.252838730812073
0, 7, 6, 1.440376162528992
0, 7, 7, 1.397254347801208
0, 7, 8, 3.309655427932739
0, 7, 9, 2.892248630523682
0, 7, 10, 4.986752033233643
0, 7, 11, 3.214609384536743
0, 7, 12, 4.140946865081787
0, 7, 13, 6.680083751678467
0, 7, 14, 6.636928081512451
0, 7, 15, 7.580522060394287
0, 7, 16, 14.72283172607422
0, 7, 17, 50.25040054321289
0, 7, 18, 162.3888702392578
0, 7, 19, 181.9389190673828
0, 7, 20, 179.5272979736328
0, 7, 21, 180.5050354003906
0, 7, 22, 191.957763671875
0, 7, 23, 202.505615234375
0, 7, 24, 178.8801116943359
0, 7, 25, 214.8632965087891
0, 7, 26, 190.0002136230469
0, 7, 27, 181.9152984619141
0, 7, 28, 182.48681640625
0, 7, 29, 209.6426544189453
0, 7, 30, 192.4528198242188
0, 7, 31, 177.0851898193359
0, 7, 32, 191.1402282714844
0, 7, 33, 182.3705749511719
0, 7, 34, 193.0244445800781
0, 7, 35, 198.1389617919922
0, 7, 36, 187.5103454589844
0, 7, 37, 212.5502624511719
0, 7, 38, 190.5345306396484
0, 7, 39, 174.1464538574219
0, 7, 40, 184.1099395751953
0, 7, 41, 184.9246063232422
0, 7, 42, 177.8533477783203
0, 7, 43, 176.8238830566406
0, 7, 44, 178.8058624267578
0, 7, 45, 176.1368408203125
0, 7, 46, 191.4043579101562
0, 7, 47, 198.2154235839844
0, 7, 48, 186.5256500244141
0, 7, 49, 200.4332885742188
0, 7, 50, 188.3545989990234
0, 7, 51, 203.9686431884766
0, 7, 52, 204.2660675048828
0, 7, 53, 191.0392150878906
0, 7, 54, 195.8093566894531
0, 7, 55, 203.0023651123047
0, 7, 56, 183.6639709472656
0, 7, 57, 185.2720489501953
0, 7, 58, 193.74267578125
0, 7, 59, 187.3314971923828
0, 7, 60, 202.5170440673828
0, 7, 61, 171.9679565429688
0, 7, 62, 202.5181884765625
0, 7, 63, 188.8951721191406
0, 7, 64, 199.9122619628906
0, 7, 65, 198.4271240234375
0, 7, 66, 206.2662963867188
0, 7, 67, 221.3661956787109
0, 7, 68, 164.5649108886719
0, 7, 69, 194.8370361328125
0, 7, 70, 217.8059997558594
0, 7, 71, 184.5702667236328
0, 7, 72, 181.0852813720703
0, 7, 73, 176.8989715576172
0, 7, 74, 208.38330078125
0, 7, 75, 203.5853576660156
0, 7, 76, 214.1266326904297
0, 7, 77, 175.2540893554688
0, 7, 78, 176.9985656738281
0, 7, 79, 193.4137268066406
0, 7, 80, 195.8293914794922
0, 7, 81, 216.1597900390625
0, 7, 82, 185.5313568115234
0, 7, 83, 205.6063842773438
0, 7, 84, 193.3492736816406
0, 7, 85, 187.4539642333984
0, 7, 86, 202.3062286376953
0, 7, 87, 225.7432250976562
0, 7, 88, 196.1302185058594
0, 7, 89, 177.7156066894531
0, 7, 90, 182.0738677978516
0, 7, 91, 194.5424194335938
0, 7, 92, 193.3550567626953
0, 7, 93, 197.83349609375
0, 7, 94, 176.9869384765625
0, 7, 95, 197.2184906005859
0, 7, 96, 209.2917633056641
0, 7, 97, 189.6150207519531
0, 7, 98, 177.4473266601562
0, 7, 99, 196.7430572509766
0, 7, 100, 181.6233673095703
0, 7, 101, 199.4530944824219
0, 7, 102, 185.2526092529297
0, 7, 103, 180.7400054931641
0, 7, 104, 174.0262145996094
0, 7, 105, 195.5923614501953
0, 7, 106, 206.4903411865234
0, 7, 107, 172.8975830078125
0, 7, 108, 176.6152801513672
0, 7, 109, 137.3568725585938
0, 7, 110, 54.81111526489258
0, 7, 111, 8.77033519744873
0, 7, 112, 8.362349510192871
0, 7, 113, 8.30722713470459
0, 7, 114, 7.080135822296143
0, 7, 115, 4.698671817779541
0, 7, 116, 4.816359996795654
0, 7, 117, 2.445510149002075
0, 7, 118, 3.309610605239868
0, 7, 119, 3.404337882995605
0, 7, 120, 2.968009471893311
0, 7, 121, 3.076223850250244
0, 7, 122, 3.512858867645264
0, 7, 123, 1.262611985206604
0, 7, 124, 1.86300790309906
0, 7, 125, 2.876054048538208
0, 7, 126, 2.636532545089722
0, 7, 127, 0.8193739056587219
0, 8, 0, 4.167617321014404
0, 8, 1, 1.588140487670898
0, 8, 2, 2.473630666732788
0, 8, 3, 1.982416987419128
0, 8, 4, 1.211753606796265
0, 8, 5, 3.195695161819458
0, 8, 6, 1.406619906425476
0, 8, 7, 2.420264720916748
0, 8, 8, 5.181623458862305
0, 8, 9, 4.406126022338867
0, 8, 10, 2.575697422027588
0, 8, 11, 2.993005514144897
0, 8, 12, 3.48049521446228
0, 8, 13, 5.257783889770508
0, 8, 14, 5.711676597595215
0, 8, 15, 9.051826477050781
0, 8, 16, 19.97243499755859
0, 8, 17, 76.63579559326172
0, 8, 18, 142.8100433349609
0, 8, 19, 178.8975372314453
0, 8, 20, 192.0553131103516
0, 8, 21, 193.7663116455078
0, 8, 22, 180.1035461425781
0, 8, 23, 172.2783355712891
0, 8, 24, 192.1974029541016
0, 8, 25, 184.6689300537109
0, 8, 26, 193.183837890625
0, 8, 27, 186.1628875732422
0, 8, 28, 187.1846618652344
0, 8, 29, 208.6037292480469
0, 8, 30, 196.9245147705078
0, 8, 31, 181.4735107421875
0, 8, 32, 197.7046203613281
0, 8, 33, 206.7927093505859
0, 8, 34, 203.9411163330078
0, 8, 35, 185.6812744140625
0, 8, 36, 181.5543060302734
