# TOPAS Version: 3.1.p3
# Parameter File: batch_inserts_106.txt
# Results for scorer Readout_Adipose
# Scored in component: MyBox
# X in 1 bin  of 0.65 cm
# Y in 512 bins of 0.0783984 cm
# Z in 128 bins of 0.078125 cm
# EnergyDeposit ( MeV ) : Sum   
0, 0, 0, 1.5995774269104
0, 0, 1, 3.29970645904541
0, 0, 2, 2.074681997299194
0, 0, 3, 1.478392720222473
0, 0, 4, 1.375859141349792
0, 0, 5, 0.8779205083847046
0, 0, 6, 1.508537292480469
0, 0, 7, 2.98498797416687
0, 0, 8, 2.120515584945679
0, 0, 9, 3.784121990203857
0, 0, 10, 4.646832466125488
0, 0, 11, 3.375485181808472
0, 0, 12, 4.98607349395752
0, 0, 13, 3.151731967926025
0, 0, 14, 4.92911958694458
0, 0, 15, 5.186569213867188
0, 0, 16, 4.183681964874268
0, 0, 17, 5.775919437408447
0, 0, 18, 8.102890014648438
0, 0, 19, 22.53547668457031
0, 0, 20, 94.57491302490234
0, 0, 21, 152.3465881347656
0, 0, 22, 154.2726440429688
0, 0, 23, 143.8959197998047
0, 0, 24, 160.9927520751953
0, 0, 25, 166.1821899414062
0, 0, 26, 166.7752685546875
0, 0, 27, 174.9440765380859
0, 0, 28, 177.9804077148438
0, 0, 29, 174.59033203125
0, 0, 30, 172.4143524169922
0, 0, 31, 167.1369476318359
0, 0, 32, 164.1203765869141
0, 0, 33, 166.0346069335938
0, 0, 34, 177.2470550537109
0, 0, 35, 173.5939331054688
0, 0, 36, 159.1414337158203
0, 0, 37, 162.0034484863281
0, 0, 38, 166.4791412353516
0, 0, 39, 159.0068359375
0, 0, 40, 164.5390319824219
0, 0, 41, 165.8903350830078
0, 0, 42, 143.2899169921875
0, 0, 43, 167.8198394775391
0, 0, 44, 177.0864105224609
0, 0, 45, 173.9477081298828
0, 0, 46, 165.3730621337891
0, 0, 47, 167.9595489501953
0, 0, 48, 168.9580993652344
0, 0, 49, 184.4896087646484
0, 0, 50, 170.3981781005859
0, 0, 51, 161.4742431640625
0, 0, 52, 163.1261901855469
0, 0, 53, 171.0531768798828
0, 0, 54, 159.73291015625
0, 0, 55, 164.7369995117188
0, 0, 56, 191.4144744873047
0, 0, 57, 170.3536834716797
0, 0, 58, 161.6312103271484
0, 0, 59, 172.1566009521484
0, 0, 60, 170.4522552490234
0, 0, 61, 171.3363494873047
0, 0, 62, 182.8672790527344
0, 0, 63, 169.2276458740234
0, 0, 64, 164.7205963134766
0, 0, 65, 174.681884765625
0, 0, 66, 177.5935668945312
0, 0, 67, 164.2237091064453
0, 0, 68, 158.9191589355469
0, 0, 69, 158.8116455078125
0, 0, 70, 169.417236328125
0, 0, 71, 158.2848815917969
0, 0, 72, 162.6873168945312
0, 0, 73, 173.0653533935547
0, 0, 74, 163.6917266845703
0, 0, 75, 163.7061767578125
0, 0, 76, 164.713623046875
0, 0, 77, 172.4871368408203
0, 0, 78, 184.6956329345703
0, 0, 79, 174.9001007080078
0, 0, 80, 161.0732727050781
0, 0, 81, 159.5973358154297
0, 0, 82, 182.6853790283203
0, 0, 83, 173.4087524414062
0, 0, 84, 159.6631469726562
0, 0, 85, 181.4288635253906
0, 0, 86, 158.4529418945312
0, 0, 87, 177.4646148681641
0, 0, 88, 177.4265441894531
0, 0, 89, 174.1683044433594
0, 0, 90, 163.9657440185547
0, 0, 91, 186.1138000488281
0, 0, 92, 163.4501953125
0, 0, 93, 157.5211639404297
0, 0, 94, 168.5640563964844
0, 0, 95, 173.2625885009766
0, 0, 96, 183.6924285888672
0, 0, 97, 183.2767333984375
0, 0, 98, 187.0187530517578
0, 0, 99, 171.7902069091797
0, 0, 100, 158.3753509521484
0, 0, 101, 166.2818908691406
0, 0, 102, 171.9085845947266
0, 0, 103, 170.8475646972656
0, 0, 104, 168.6086730957031
0, 0, 105, 179.3302917480469
0, 0, 106, 159.9637908935547
0, 0, 107, 85.58620452880859
0, 0, 108, 21.12490653991699
0, 0, 109, 9.069869995117188
0, 0, 110, 6.390110492706299
0, 0, 111, 6.44623327255249
0, 0, 112, 4.093775272369385
0, 0, 113, 3.324337482452393
0, 0, 114, 2.401838541030884
0, 0, 115, 4.575835227966309
0, 0, 116, 3.050432920455933
0, 0, 117, 1.627954840660095
0, 0, 118, 2.506355762481689
0, 0, 119, 2.981888055801392
0, 0, 120, 2.322429180145264
0, 0, 121, 3.817844152450562
0, 0, 122, 4.656010150909424
0, 0, 123, 4.84852409362793
0, 0, 124, 1.274078488349915
0, 0, 125, 2.511274814605713
0, 0, 126, 1.80280590057373
0, 0, 127, 1.966485500335693
0, 1, 0, 1.351454019546509
0, 1, 1, 3.934021711349487
0, 1, 2, 1.964280724525452
0, 1, 3, 1.015424370765686
0, 1, 4, 0.9973462820053101
0, 1, 5, 0.748762309551239
0, 1, 6, 1.814583420753479
0, 1, 7, 3.97383975982666
0, 1, 8, 1.963045120239258
0, 1, 9, 1.06890606880188
0, 1, 10, 1.734427213668823
0, 1, 11, 2.993495464324951
0, 1, 12, 2.882500648498535
0, 1, 13, 3.579440116882324
0, 1, 14, 6.56159496307373
0, 1, 15, 6.045200347900391
0, 1, 16, 7.81196117401123
0, 1, 17, 4.664135932922363
0, 1, 18, 10.36264228820801
0, 1, 19, 38.17773056030273
0, 1, 20, 125.9020004272461
0, 1, 21, 176.8894500732422
0, 1, 22, 192.7454986572266
0, 1, 23, 185.900634765625
0, 1, 24, 179.5923767089844
0, 1, 25, 191.5197601318359
0, 1, 26, 198.2644500732422
0, 1, 27, 186.6809234619141
0, 1, 28, 188.7895965576172
0, 1, 29, 183.0575408935547
0, 1, 30, 179.3780059814453
0, 1, 31, 182.6513977050781
0, 1, 32, 188.5304107666016
0, 1, 33, 191.1902313232422
0, 1, 34, 185.7163696289062
0, 1, 35, 192.8513793945312
0, 1, 36, 205.3467254638672
0, 1, 37, 185.1553802490234
0, 1, 38, 165.1358337402344
0, 1, 39, 171.6012878417969
0, 1, 40, 179.4952087402344
0, 1, 41, 184.7825317382812
0, 1, 42, 182.1058502197266
0, 1, 43, 186.6026763916016
0, 1, 44, 168.3735046386719
0, 1, 45, 185.7218933105469
0, 1, 46, 170.8653717041016
0, 1, 47, 184.1845855712891
0, 1, 48, 186.1409454345703
0, 1, 49, 187.0269317626953
0, 1, 50, 176.5279998779297
0, 1, 51, 190.6160430908203
0, 1, 52, 197.0582275390625
0, 1, 53, 195.8169860839844
0, 1, 54, 185.5447082519531
0, 1, 55, 165.1129302978516
0, 1, 56, 179.1617126464844
0, 1, 57, 178.9988861083984
0, 1, 58, 188.3436584472656
0, 1, 59, 193.3559112548828
0, 1, 60, 187.8712158203125
0, 1, 61, 177.5432891845703
0, 1, 62, 204.5983581542969
0, 1, 63, 175.0821685791016
0, 1, 64, 173.2025756835938
0, 1, 65, 185.8666534423828
0, 1, 66, 203.8389739990234
0, 1, 67, 183.7193450927734
0, 1, 68, 186.6432037353516
0, 1, 69, 189.5417785644531
0, 1, 70, 185.5654144287109
0, 1, 71, 171.4843292236328
0, 1, 72, 190.7206420898438
0, 1, 73, 190.0303802490234
0, 1, 74, 200.9613952636719
0, 1, 75, 183.9643096923828
0, 1, 76, 173.7491912841797
0, 1, 77, 192.4491729736328
0, 1, 78, 188.9173889160156
0, 1, 79, 202.8200378417969
0, 1, 80, 185.0857543945312
0, 1, 81, 174.5480651855469
0, 1, 82, 206.6477203369141
0, 1, 83, 211.2563171386719
0, 1, 84, 180.3909301757812
0, 1, 85, 170.5364379882812
0, 1, 86, 169.6128082275391
0, 1, 87, 184.3784484863281
0, 1, 88, 174.8917083740234
0, 1, 89, 190.0442810058594
0, 1, 90, 213.2983703613281
0, 1, 91, 182.1175842285156
0, 1, 92, 185.1126403808594
0, 1, 93, 182.3548126220703
0, 1, 94, 184.8396301269531
0, 1, 95, 185.1170501708984
0, 1, 96, 197.4841003417969
0, 1, 97, 183.3829345703125
0, 1, 98, 186.2061920166016
0, 1, 99, 175.1504211425781
0, 1, 100, 170.8576354980469
0, 1, 101, 178.0342254638672
0, 1, 102, 182.4223327636719
0, 1, 103, 172.8037261962891
0, 1, 104, 189.7605590820312
0, 1, 105, 180.9641265869141
0, 1, 106, 164.1292572021484
0, 1, 107, 122.6581802368164
0, 1, 108, 48.85219955444336
0, 1, 109, 9.958090782165527
0, 1, 110, 7.392891883850098
0, 1, 111, 5.876117706298828
0, 1, 112, 7.99028205871582
0, 1, 113, 7.356362342834473
0, 1, 114, 5.065926074981689
0, 1, 115, 2.332564830780029
0, 1, 116, 2.233196973800659
0, 1, 117, 2.128973722457886
0, 1, 118, 3.409790754318237
0, 1, 119, 1.591889023780823
0, 1, 120, 3.184267282485962
0, 1, 121, 3.815460681915283
0, 1, 122, 5.334864139556885
0, 1, 123, 3.63071084022522
0, 1, 124, 1.88526976108551
0, 1, 125, 1.828886389732361
0, 1, 126, 1.431504249572754
0, 1, 127, 2.367417097091675
0, 2, 0, 1.004164934158325
0, 2, 1, 2.359360694885254
0, 2, 2, 3.407544612884521
0, 2, 3, 1.433432817459106
0, 2, 4, 1.232359886169434
0, 2, 5, 0.8474546670913696
0, 2, 6, 2.788832664489746
0, 2, 7, 1.594621062278748
0, 2, 8, 0.783663809299469
0, 2, 9, 2.190818786621094
0, 2, 10, 3.96859073638916
0, 2, 11, 4.779057025909424
0, 2, 12, 3.166505098342896
0, 2, 13, 3.720627069473267
0, 2, 14, 3.716598510742188
0, 2, 15, 6.300852298736572
0, 2, 16, 5.381285190582275
0, 2, 17, 9.04249382019043
0, 2, 18, 14.1941032409668
0, 2, 19, 77.73451232910156
0, 2, 20, 161.9568481445312
0, 2, 21, 184.1844177246094
0, 2, 22, 194.3066864013672
0, 2, 23, 183.3597106933594
0, 2, 24, 173.8633117675781
0, 2, 25, 184.9441528320312
0, 2, 26, 179.3770599365234
0, 2, 27, 189.7597808837891
0, 2, 28, 171.3776245117188
0, 2, 29, 169.7318115234375
0, 2, 30, 183.5742950439453
0, 2, 31, 181.9919891357422
0, 2, 32, 183.8464813232422
0, 2, 33, 189.9270477294922
0, 2, 34, 197.4491577148438
0, 2, 35, 181.5366973876953
0, 2, 36, 186.0501556396484
0, 2, 37, 182.6615753173828
0, 2, 38, 184.5622253417969
0, 2, 39, 166.3007354736328
0, 2, 40, 183.6234436035156
0, 2, 41, 183.8766174316406
0, 2, 42, 189.8503112792969
0, 2, 43, 193.0467376708984
0, 2, 44, 190.5640716552734
0, 2, 45, 190.3634643554688
0, 2, 46, 195.9037475585938
0, 2, 47, 189.2678680419922
0, 2, 48, 179.4948883056641
0, 2, 49, 198.3147888183594
0, 2, 50, 167.3258056640625
0, 2, 51, 184.8879699707031
0, 2, 52, 186.9812774658203
0, 2, 53, 195.2357635498047
0, 2, 54, 175.3125305175781
0, 2, 55, 173.3158416748047
0, 2, 56, 181.5122985839844
0, 2, 57, 200.2607421875
0, 2, 58, 187.5160522460938
0, 2, 59, 190.9761962890625
0, 2, 60, 197.6223297119141
0, 2, 61, 192.7524261474609
0, 2, 62, 190.3092498779297
0, 2, 63, 169.5772399902344
0, 2, 64, 189.5973205566406
0, 2, 65, 205.4552001953125
0, 2, 66, 195.6865997314453
0, 2, 67, 185.1674194335938
0, 2, 68, 182.8368682861328
0, 2, 69, 186.7758178710938
0, 2, 70, 202.8060607910156
0, 2, 71, 174.9902038574219
0, 2, 72, 185.6045074462891
0, 2, 73, 177.6172180175781
0, 2, 74, 180.9291534423828
0, 2, 75, 196.4050903320312
0, 2, 76, 184.4621429443359
0, 2, 77, 177.8707885742188
0, 2, 78, 197.727294921875
0, 2, 79, 176.6739044189453
0, 2, 80, 185.371826171875
0, 2, 81, 188.0512847900391
0, 2, 82, 205.4237213134766
0, 2, 83, 203.3256378173828
0, 2, 84, 187.9448394775391
0, 2, 85, 173.2155151367188
0, 2, 86, 194.4177551269531
0, 2, 87, 173.8024291992188
0, 2, 88, 177.0014495849609
0, 2, 89, 184.486083984375
0, 2, 90, 177.5367431640625
0, 2, 91, 173.3997955322266
0, 2, 92, 197.1404266357422
0, 2, 93, 193.5055541992188
0, 2, 94, 201.8601989746094
0, 2, 95, 193.4748840332031
0, 2, 96, 187.8244476318359
0, 2, 97, 173.4908752441406
0, 2, 98, 173.2216339111328
0, 2, 99, 162.0591583251953
0, 2, 100, 187.2233276367188
0, 2, 101, 196.9821929931641
0, 2, 102, 175.8734588623047
0, 2, 103, 199.1128997802734
0, 2, 104, 186.8907318115234
0, 2, 105, 199.4588012695312
0, 2, 106, 194.4129333496094
0, 2, 107, 149.2681121826172
0, 2, 108, 79.00193023681641
0, 2, 109, 17.38433074951172
0, 2, 110, 7.150070667266846
0, 2, 111, 6.138228893280029
0, 2, 112, 3.358569383621216
0, 2, 113, 4.254937648773193
0, 2, 114, 7.378407955169678
0, 2, 115, 2.81687068939209
0, 2, 116, 3.693323373794556
0, 2, 117, 5.480608463287354
0, 2, 118, 3.356488704681396
0, 2, 119, 2.797436714172363
0, 2, 120, 2.441428899765015
0, 2, 121, 4.664041996002197
0, 2, 122, 1.292296767234802
0, 2, 123, 1.759575009346008
0, 2, 124, 2.498398065567017
0, 2, 125, 1.465035915374756
0, 2, 126, 2.778949737548828
0, 2, 127, 0.6573666334152222
0, 3, 0, 1.277418971061707
0, 3, 1, 1.4404217004776
0, 3, 2, 1.359460353851318
0, 3, 3, 1.70529043674469
0, 3, 4, 3.107941150665283
0, 3, 5, 1.593851089477539
0, 3, 6, 1.547527432441711
0, 3, 7, 1.342652797698975
0, 3, 8, 1.780863881111145
0, 3, 9, 1.414841651916504
0, 3, 10, 4.020953178405762
0, 3, 11, 3.693961143493652
0, 3, 12, 3.060542821884155
0, 3, 13, 3.61865234375
0, 3, 14, 4.610524654388428
0, 3, 15, 6.593995571136475
0, 3, 16, 6.915302276611328
0, 3, 17, 6.117599487304688
0, 3, 18, 32.70571899414062
0, 3, 19, 114.7619400024414
0, 3, 20, 179.5744323730469
0, 3, 21, 172.6152038574219
0, 3, 22, 178.4043884277344
0, 3, 23, 187.4454498291016
0, 3, 24, 177.8193054199219
0, 3, 25, 168.1541290283203
0, 3, 26, 181.1150512695312
0, 3, 27, 188.5451202392578
0, 3, 28, 182.2292633056641
0, 3, 29, 197.0271911621094
0, 3, 30, 185.8300933837891
0, 3, 31, 192.8751068115234
0, 3, 32, 205.9823455810547
0, 3, 33, 196.2556762695312
0, 3, 34, 187.4346008300781
0, 3, 35, 173.4652099609375
0, 3, 36, 185.9776763916016
0, 3, 37, 200.7286987304688
0, 3, 38, 191.3020324707031
0, 3, 39, 185.501708984375
0, 3, 40, 165.8501281738281
0, 3, 41, 174.9993133544922
0, 3, 42, 185.1045532226562
0, 3, 43, 181.8720855712891
0, 3, 44, 202.6108551025391
0, 3, 45, 207.4320526123047
0, 3, 46, 199.6197052001953
0, 3, 47, 193.9211578369141
0, 3, 48, 195.2669067382812
0, 3, 49, 180.8168792724609
0, 3, 50, 186.8672180175781
0, 3, 51, 175.1103515625
0, 3, 52, 187.9634704589844
0, 3, 53, 176.8485260009766
0, 3, 54, 178.5170745849609
0, 3, 55, 177.2906036376953
0, 3, 56, 183.5319366455078
0, 3, 57, 174.8486022949219
0, 3, 58, 201.2313690185547
0, 3, 59, 196.2114410400391
0, 3, 60, 185.8591461181641
0, 3, 61, 181.3788757324219
0, 3, 62, 182.6819610595703
0, 3, 63, 182.913330078125
0, 3, 64, 187.97607421875
0, 3, 65, 186.8119812011719
0, 3, 66, 175.2917785644531
0, 3, 67, 189.6748962402344
0, 3, 68, 211.8908233642578
0, 3, 69, 189.7148284912109
0, 3, 70, 185.4835205078125
0, 3, 71, 196.8430328369141
0, 3, 72, 185.3180236816406
0, 3, 73, 188.3763732910156
0, 3, 74, 192.4358978271484
0, 3, 75, 192.1351928710938
0, 3, 76, 190.1818084716797
0, 3, 77, 197.9370422363281
0, 3, 78, 188.1991882324219
0, 3, 79, 185.4869384765625
0, 3, 80, 191.3259887695312
0, 3, 81, 182.8269348144531
0, 3, 82, 180.7882080078125
0, 3, 83, 194.9480133056641
0, 3, 84, 199.9975280761719
0, 3, 85, 192.6319274902344
0, 3, 86, 204.0612487792969
0, 3, 87, 197.8167572021484
0, 3, 88, 190.4996490478516
0, 3, 89, 193.2910003662109
0, 3, 90, 173.4512176513672
0, 3, 91, 158.9720153808594
0, 3, 92, 206.0148620605469
0, 3, 93, 195.9705810546875
0, 3, 94, 192.3057403564453
0, 3, 95, 210.5928039550781
0, 3, 96, 209.5561370849609
0, 3, 97, 167.7311553955078
0, 3, 98, 168.7666625976562
0, 3, 99, 180.1465759277344
0, 3, 100, 176.0695343017578
0, 3, 101, 197.8439636230469
0, 3, 102, 195.7788238525391
0, 3, 103, 193.7296752929688
0, 3, 104, 203.6335906982422
0, 3, 105, 176.607421875
0, 3, 106, 182.1678619384766
0, 3, 107, 169.002197265625
0, 3, 108, 108.1004333496094
0, 3, 109, 27.85744285583496
0, 3, 110, 7.573975563049316
0, 3, 111, 6.310867309570312
0, 3, 112, 3.86985182762146
0, 3, 113, 8.09000301361084
0, 3, 114, 6.635400295257568
0, 3, 115, 5.070016384124756
0, 3, 116, 6.37244176864624
0, 3, 117, 4.33992338180542
0, 3, 118, 2.724488019943237
0, 3, 119, 2.349710941314697
0, 3, 120, 3.367447853088379
0, 3, 121, 2.511640787124634
0, 3, 122, 3.816390991210938
0, 3, 123, 1.387609839439392
0, 3, 124, 2.27873682975769
0, 3, 125, 1.179710030555725
0, 3, 126, 2.815701723098755
0, 3, 127, 1.092020273208618
0, 4, 0, 1.297973155975342
0, 4, 1, 1.92641818523407
0, 4, 2, 3.363671064376831
0, 4, 3, 3.276524305343628
0, 4, 4, 2.207544326782227
0, 4, 5, 0.874150276184082
0, 4, 6, 3.780110836029053
0, 4, 7, 2.350753784179688
0, 4, 8, 1.471295595169067
0, 4, 9, 2.068397998809814
0, 4, 10, 1.921222329139709
0, 4, 11, 3.712939500808716
0, 4, 12, 4.817322731018066
0, 4, 13, 5.66495943069458
0, 4, 14, 4.389292240142822
0, 4, 15, 8.463284492492676
0, 4, 16, 6.358260631561279
0, 4, 17, 12.06868743896484
0, 4, 18, 55.75227737426758
0, 4, 19, 151.5543060302734
0, 4, 20, 193.06640625
0, 4, 21, 170.218017578125
0, 4, 22, 187.7342071533203
0, 4, 23, 196.6918334960938
0, 4, 24, 192.4477996826172
0, 4, 25, 199.3986358642578
0, 4, 26, 182.2397155761719
0, 4, 27, 190.0521392822266
0, 4, 28, 176.9720611572266
0, 4, 29, 205.3047332763672
0, 4, 30, 195.6723480224609
0, 4, 31, 192.9062347412109
0, 4, 32, 210.9559020996094
0, 4, 33, 190.5085601806641
0, 4, 34, 194.0446472167969
0, 4, 35, 212.4742279052734
0, 4, 36, 192.4031677246094
0, 4, 37, 177.5950775146484
0, 4, 38, 193.8680877685547
0, 4, 39, 192.1064758300781
0, 4, 40, 185.2243804931641
0, 4, 41, 188.8705139160156
0, 4, 42, 206.0913848876953
0, 4, 43, 173.4006500244141
0, 4, 44, 183.0457000732422
0, 4, 45, 196.9578399658203
0, 4, 46, 186.2455444335938
0, 4, 47, 179.5010223388672
0, 4, 48, 185.4564819335938
0, 4, 49, 174.5523681640625
0, 4, 50, 186.9237213134766
0, 4, 51, 197.9580993652344
0, 4, 52, 222.7534942626953
0, 4, 53, 205.9153442382812
0, 4, 54, 189.1873779296875
0, 4, 55, 175.2821655273438
0, 4, 56, 191.1788177490234
0, 4, 57, 192.9734497070312
0, 4, 58, 188.1268310546875
0, 4, 59, 189.5260620117188
0, 4, 60, 195.4957733154297
0, 4, 61, 194.6556549072266
0, 4, 62, 190.1721343994141
0, 4, 63, 178.1983032226562
0, 4, 64, 211.0866241455078
0, 4, 65, 190.3570404052734
0, 4, 66, 201.51513671875
0, 4, 67, 199.3231048583984
0, 4, 68, 201.0409240722656
0, 4, 69, 198.5262756347656
0, 4, 70, 204.1935272216797
0, 4, 71, 206.4372863769531
0, 4, 72, 215.4937133789062
0, 4, 73, 185.6786193847656
0, 4, 74, 181.2450866699219
0, 4, 75, 185.6484375
0, 4, 76, 190.3900451660156
0, 4, 77, 183.4988250732422
0, 4, 78, 195.8853149414062
0, 4, 79, 204.9082641601562
0, 4, 80, 212.553466796875
0, 4, 81, 199.1794586181641
0, 4, 82, 182.1843719482422
0, 4, 83, 169.1558532714844
0, 4, 84, 193.7689056396484
0, 4, 85, 195.4386596679688
0, 4, 86, 181.9897003173828
0, 4, 87, 184.4528961181641
0, 4, 88, 203.5399322509766
0, 4, 89, 187.3206481933594
0, 4, 90, 211.7130279541016
0, 4, 91, 189.5039978027344
0, 4, 92, 196.9437255859375
0, 4, 93, 195.8155670166016
0, 4, 94, 182.8400726318359
0, 4, 95, 174.2162475585938
0, 4, 96, 190.0616455078125
0, 4, 97, 192.4782257080078
0, 4, 98, 200.7460174560547
0, 4, 99, 183.7503356933594
0, 4, 100, 182.0464019775391
0, 4, 101, 177.0538635253906
0, 4, 102, 172.7816009521484
0, 4, 103, 185.3206939697266
0, 4, 104, 209.5124664306641
0, 4, 105, 190.5588836669922
0, 4, 106, 179.3922729492188
0, 4, 107, 181.7695159912109
0, 4, 108, 153.486083984375
0, 4, 109, 50.66652297973633
0, 4, 110, 11.84408855438232
0, 4, 111, 8.687168121337891
0, 4, 112, 6.560279369354248
0, 4, 113, 5.557192802429199
0, 4, 114, 5.178715229034424
0, 4, 115, 5.805590629577637
0, 4, 116, 4.629014015197754
0, 4, 117, 2.805740833282471
0, 4, 118, 5.100629806518555
0, 4, 119, 4.924726486206055
0, 4, 120, 3.073084354400635
0, 4, 121, 2.135722398757935
0, 4, 122, 3.529775857925415
0, 4, 123, 2.750387668609619
0, 4, 124, 4.482990264892578
0, 4, 125, 3.298227787017822
0, 4, 126, 1.376682043075562
0, 4, 127, 1.778314352035522
0, 5, 0, 1.433874130249023
0, 5, 1, 4.692508220672607
0, 5, 2, 5.436948776245117
0, 5, 3, 3.985295295715332
0, 5, 4, 3.174057245254517
0, 5, 5, 3.037665367126465
0, 5, 6, 2.26535177230835
0, 5, 7, 2.905920505523682
0, 5, 8, 3.129300355911255
0, 5, 9, 3.780078411102295
0, 5, 10, 3.272943258285522
0, 5, 11, 4.072003364562988
0, 5, 12, 4.884087085723877
0, 5, 13, 4.083810329437256
0, 5, 14, 6.699658870697021
0, 5, 15, 8.945230484008789
0, 5, 16, 6.701685428619385
0, 5, 17, 21.60164642333984
0, 5, 18, 82.60311126708984
0, 5, 19, 164.3812255859375
0, 5, 20, 183.3823089599609
0, 5, 21, 180.9496612548828
0, 5, 22, 171.7838134765625
0, 5, 23, 200.55224609375
0, 5, 24, 186.4191131591797
0, 5, 25, 207.545654296875
0, 5, 26, 182.1890716552734
0, 5, 27, 193.130859375
0, 5, 28, 190.0853881835938
0, 5, 29, 196.1933746337891
0, 5, 30, 179.4978942871094
0, 5, 31, 180.7979278564453
0, 5, 32, 187.6377563476562
0, 5, 33, 169.3364410400391
0, 5, 34, 196.3824768066406
0, 5, 35, 197.6774444580078
0, 5, 36, 169.0256195068359
0, 5, 37, 196.2876281738281
0, 5, 38, 180.0729827880859
0, 5, 39, 187.9168701171875
0, 5, 40, 196.6524200439453
0, 5, 41, 177.8708648681641
0, 5, 42, 187.1197662353516
0, 5, 43, 192.5367126464844
0, 5, 44, 199.4502716064453
0, 5, 45, 185.5699157714844
0, 5, 46, 193.0715942382812
0, 5, 47, 180.9483489990234
0, 5, 48, 177.5230255126953
0, 5, 49, 176.1186828613281
0, 5, 50, 186.3578796386719
0, 5, 51, 172.8146514892578
0, 5, 52, 167.9998168945312
0, 5, 53, 181.9621429443359
0, 5, 54, 172.7247314453125
0, 5, 55, 215.4580078125
0, 5, 56, 182.1938629150391
0, 5, 57, 207.8174438476562
0, 5, 58, 182.3774261474609
0, 5, 59, 180.8831176757812
0, 5, 60, 218.8456420898438
0, 5, 61, 184.77978515625
0, 5, 62, 178.4702453613281
0, 5, 63, 180.9255981445312
0, 5, 64, 195.9667358398438
0, 5, 65, 209.9208068847656
0, 5, 66, 192.2433166503906
0, 5, 67, 200.7918090820312
0, 5, 68, 189.6459197998047
0, 5, 69, 186.9967803955078
0, 5, 70, 185.1847076416016
0, 5, 71, 192.4494171142578
0, 5, 72, 197.5366821289062
0, 5, 73, 201.6195068359375
0, 5, 74, 178.7879638671875
0, 5, 75, 204.7789154052734
0, 5, 76, 214.5594787597656
0, 5, 77, 180.3958740234375
0, 5, 78, 194.2693939208984
0, 5, 79, 190.1578369140625
0, 5, 80, 198.2821502685547
0, 5, 81, 203.1905670166016
0, 5, 82, 201.0835266113281
0, 5, 83, 187.9832916259766
0, 5, 84, 205.3307800292969
0, 5, 85, 176.9338226318359
0, 5, 86, 195.0803527832031
0, 5, 87, 188.9576568603516
0, 5, 88, 177.2622985839844
0, 5, 89, 193.8910675048828
0, 5, 90, 198.9989471435547
0, 5, 91, 194.8217620849609
0, 5, 92, 190.8132934570312
0, 5, 93, 189.7969818115234
0, 5, 94, 206.9755859375
0, 5, 95, 176.9371490478516
0, 5, 96, 181.8631439208984
0, 5, 97, 191.0271911621094
0, 5, 98, 189.8970794677734
0, 5, 99, 195.7258758544922
0, 5, 100, 185.5119323730469
0, 5, 101, 195.8940887451172
0, 5, 102, 182.9114379882812
0, 5, 103, 176.1795806884766
0, 5, 104, 190.2149658203125
0, 5, 105, 189.3764343261719
0, 5, 106, 176.8332214355469
0, 5, 107, 181.5078582763672
0, 5, 108, 175.5604705810547
0, 5, 109, 90.46951293945312
0, 5, 110, 32.14718246459961
0, 5, 111, 8.694411277770996
0, 5, 112, 6.841567993164062
0, 5, 113, 5.856536388397217
0, 5, 114, 5.107644081115723
0, 5, 115, 5.88529109954834
0, 5, 116, 4.464359283447266
0, 5, 117, 2.360146045684814
0, 5, 118, 3.349311351776123
0, 5, 119, 3.228610754013062
0, 5, 120, 2.814587354660034
0, 5, 121, 1.151114225387573
0, 5, 122, 3.21883487701416
0, 5, 123, 4.840354442596436
0, 5, 124, 2.639273405075073
0, 5, 125, 1.25198757648468
0, 5, 126, 2.441768169403076
0, 5, 127, 2.671770572662354
0, 6, 0, 4.269941329956055
0, 6, 1, 2.451580762863159
0, 6, 2, 3.940851211547852
0, 6, 3, 1.29928982257843
0, 6, 4, 2.344656705856323
0, 6, 5, 1.994410753250122
0, 6, 6, 2.954383611679077
0, 6, 7, 3.417322397232056
0, 6, 8, 3.140157699584961
0, 6, 9, 2.979968786239624
0, 6, 10, 4.624008178710938
0, 6, 11, 4.520622253417969
0, 6, 12, 6.44006872177124
0, 6, 13, 5.302351951599121
0, 6, 14, 4.538899898529053
0, 6, 15, 6.943054676055908
0, 6, 16, 14.28427600860596
0, 6, 17, 29.40025901794434
0, 6, 18, 112.5308990478516
0, 6, 19, 193.1582794189453
0, 6, 20, 195.3097534179688
0, 6, 21, 198.0606231689453
0, 6, 22, 191.1532135009766
0, 6, 23, 190.7366180419922
0, 6, 24, 200.5755920410156
0, 6, 25, 182.7634887695312
0, 6, 26, 187.325439453125
0, 6, 27, 192.2626647949219
0, 6, 28, 188.7652587890625
0, 6, 29, 209.8549194335938
0, 6, 30, 189.4788513183594
0, 6, 31, 193.2582244873047
0, 6, 32, 205.5552368164062
0, 6, 33, 184.2763671875
0, 6, 34, 196.8182983398438
0, 6, 35, 187.2641448974609
0, 6, 36, 181.6478424072266
0, 6, 37, 183.0693511962891
0, 6, 38, 186.4681701660156
0, 6, 39, 194.7248687744141
0, 6, 40, 174.1688079833984
0, 6, 41, 185.1571197509766
0, 6, 42, 175.8217468261719
0, 6, 43, 211.1110076904297
0, 6, 44, 208.9506530761719
0, 6, 45, 193.845703125
0, 6, 46, 188.1391296386719
0, 6, 47, 204.7565612792969
0, 6, 48, 189.0721740722656
0, 6, 49, 179.168701171875
0, 6, 50, 181.7803649902344
0, 6, 51, 196.2208557128906
0, 6, 52, 198.7436065673828
0, 6, 53, 184.2544708251953
0, 6, 54, 175.7451171875
0, 6, 55, 195.4597473144531
0, 6, 56, 203.3320617675781
0, 6, 57, 190.5386047363281
0, 6, 58, 178.6741790771484
0, 6, 59, 192.1964111328125
0, 6, 60, 184.8011627197266
0, 6, 61, 193.5286865234375
0, 6, 62, 196.4951477050781
0, 6, 63, 188.0887603759766
0, 6, 64, 171.3314971923828
0, 6, 65, 186.8242645263672
0, 6, 66, 196.9333343505859
0, 6, 67, 212.3999938964844
0, 6, 68, 180.6970672607422
0, 6, 69, 172.3605804443359
0, 6, 70, 186.9007263183594
0, 6, 71, 170.2756805419922
0, 6, 72, 176.1388397216797
0, 6, 73, 177.3339996337891
0, 6, 74, 210.5728912353516
0, 6, 75, 226.7675170898438
0, 6, 76, 183.7037200927734
0, 6, 77, 171.9733734130859
0, 6, 78, 175.3785400390625
0, 6, 79, 188.6317443847656
0, 6, 80, 188.3392333984375
0, 6, 81, 211.8827972412109
0, 6, 82, 195.8795166015625
0, 6, 83, 195.7912139892578
0, 6, 84, 197.2538909912109
0, 6, 85, 180.2652587890625
0, 6, 86, 200.6631774902344
0, 6, 87, 183.783447265625
0, 6, 88, 191.5098419189453
0, 6, 89, 189.3571319580078
0, 6, 90, 205.5161437988281
0, 6, 91, 199.4360046386719
0, 6, 92, 175.295654296875
0, 6, 93, 193.6857757568359
0, 6, 94, 190.7490539550781
0, 6, 95, 186.4100189208984
0, 6, 96, 191.0143737792969
0, 6, 97, 193.7862854003906
0, 6, 98, 183.2284240722656
0, 6, 99, 174.4618682861328
0, 6, 100, 201.3914947509766
0, 6, 101, 167.5029449462891
0, 6, 102, 201.9072418212891
0, 6, 103, 195.8864135742188
0, 6, 104, 183.3303070068359
0, 6, 105, 193.6986083984375
0, 6, 106, 177.5819091796875
0, 6, 107, 196.31787109375
0, 6, 108, 171.7671051025391
0, 6, 109, 114.687255859375
0, 6, 110, 33.7408561706543
0, 6, 111, 9.563450813293457
0, 6, 112, 8.760480880737305
0, 6, 113, 5.565255641937256
0, 6, 114, 5.35094690322876
0, 6, 115, 5.646776676177979
0, 6, 116, 3.572097301483154
0, 6, 117, 4.508527755737305
0, 6, 118, 3.241799116134644
0, 6, 119, 3.56502103805542
0, 6, 120, 3.747319459915161
0, 6, 121, 3.063742160797119
0, 6, 122, 4.237154006958008
0, 6, 123, 3.450287818908691
0, 6, 124, 1.460102081298828
0, 6, 125, 3.032607555389404
0, 6, 126, 1.761970996856689
0, 6, 127, 2.416978359222412
0, 7, 0, 2.859543561935425
0, 7, 1, 1.730570316314697
0, 7, 2, 4.297491550445557
0, 7, 3, 2.511529684066772
0, 7, 4, 1.090770721435547
0, 7, 5, 1.804736852645874
0, 7, 6, 1.793032765388489
0, 7, 7, 3.700422763824463
0, 7, 8, 4.208625316619873
0, 7, 9, 5.348574638366699
0, 7, 10, 5.063500881195068
0, 7, 11, 4.661489486694336
0, 7, 12, 4.561267375946045
0, 7, 13, 5.660798072814941
0, 7, 14, 6.717845916748047
0, 7, 15, 8.229626655578613
0, 7, 16, 15.00852298736572
0, 7, 17, 51.65403747558594
0, 7, 18, 161.2156677246094
0, 7, 19, 182.6527557373047
0, 7, 20, 181.7922821044922
0, 7, 21, 180.2955169677734
0, 7, 22, 192.3114776611328
0, 7, 23, 204.6620483398438
0, 7, 24, 179.7705993652344
0, 7, 25, 212.4752197265625
0, 7, 26, 189.2547760009766
0, 7, 27, 182.0584869384766
0, 7, 28, 181.7599487304688
0, 7, 29, 209.152587890625
0, 7, 30, 192.209228515625
0, 7, 31, 175.9954528808594
0, 7, 32, 190.0679016113281
0, 7, 33, 180.7061462402344
0, 7, 34, 192.9118347167969
0, 7, 35, 197.0729217529297
0, 7, 36, 187.2936401367188
0, 7, 37, 213.3220520019531
0, 7, 38, 191.0515441894531
0, 7, 39, 172.72119140625
0, 7, 40, 183.5230102539062
0, 7, 41, 184.5075836181641
0, 7, 42, 179.1033172607422
0, 7, 43, 178.3616333007812
0, 7, 44, 179.3900604248047
0, 7, 45, 173.9896850585938
0, 7, 46, 189.7012329101562
0, 7, 47, 198.1132202148438
0, 7, 48, 185.1926574707031
0, 7, 49, 197.9635620117188
0, 7, 50, 187.5657043457031
0, 7, 51, 205.5937347412109
0, 7, 52, 203.6907501220703
0, 7, 53, 191.7715911865234
0, 7, 54, 198.4560241699219
0, 7, 55, 203.8778076171875
0, 7, 56, 183.1861114501953
0, 7, 57, 183.1435089111328
0, 7, 58, 191.2518463134766
0, 7, 59, 187.6077423095703
0, 7, 60, 204.4648590087891
0, 7, 61, 170.3123321533203
0, 7, 62, 203.5966644287109
0, 7, 63, 188.4921569824219
0, 7, 64, 199.413330078125
0, 7, 65, 196.9278106689453
0, 7, 66, 206.1468505859375
0, 7, 67, 219.6653289794922
0, 7, 68, 162.1613464355469
0, 7, 69, 194.2119903564453
0, 7, 70, 218.9575653076172
0, 7, 71, 183.9904479980469
0, 7, 72, 182.3151550292969
0, 7, 73, 177.1880798339844
0, 7, 74, 207.6308898925781
0, 7, 75, 205.4151153564453
0, 7, 76, 214.2477569580078
0, 7, 77, 175.2147369384766
0, 7, 78, 176.6400604248047
0, 7, 79, 192.2484893798828
0, 7, 80, 195.5203857421875
0, 7, 81, 214.4408416748047
0, 7, 82, 184.0065765380859
0, 7, 83, 205.3236694335938
0, 7, 84, 191.2226104736328
0, 7, 85, 185.9230346679688
0, 7, 86, 200.0602569580078
0, 7, 87, 226.5615692138672
0, 7, 88, 194.4983367919922
0, 7, 89, 176.1403656005859
0, 7, 90, 182.2470245361328
0, 7, 91, 194.6041107177734
0, 7, 92, 193.4293975830078
0, 7, 93, 197.791748046875
0, 7, 94, 176.9914398193359
0, 7, 95, 198.7848815917969
0, 7, 96, 208.4780578613281
0, 7, 97, 189.1985015869141
0, 7, 98, 177.5492401123047
0, 7, 99, 196.7426452636719
0, 7, 100, 183.7492218017578
0, 7, 101, 200.0153045654297
0, 7, 102, 185.7097778320312
0, 7, 103, 183.8829650878906
0, 7, 104, 176.1954193115234
0, 7, 105, 194.9617919921875
0, 7, 106, 205.0110168457031
0, 7, 107, 175.8562774658203
0, 7, 108, 176.5278167724609
0, 7, 109, 138.0228729248047
0, 7, 110, 53.33990097045898
0, 7, 111, 8.695862770080566
0, 7, 112, 8.111271858215332
0, 7, 113, 8.218910217285156
0, 7, 114, 6.452135562896729
0, 7, 115, 4.721303462982178
0, 7, 116, 3.820466279983521
0, 7, 117, 2.285390377044678
0, 7, 118, 3.201189756393433
0, 7, 119, 3.101062774658203
0, 7, 120, 2.742408037185669
0, 7, 121, 4.091848850250244
0, 7, 122, 2.192407846450806
0, 7, 123, 1.2051682472229
0, 7, 124, 0.982136607170105
0, 7, 125, 1.830061435699463
0, 7, 126, 3.329299688339233
0, 7, 127, 1.366039752960205
0, 8, 0, 4.055296421051025
0, 8, 1, 2.516160249710083
0, 8, 2, 2.491467237472534
0, 8, 3, 2.162407159805298
0, 8, 4, 1.689066290855408
0, 8, 5, 3.407041072845459
0, 8, 6, 2.227033615112305
0, 8, 7, 4.702964782714844
0, 8, 8, 4.940852642059326
0, 8, 9, 5.386774063110352
0, 8, 10, 2.337541341781616
0, 8, 11, 2.603862285614014
0, 8, 12, 3.641945123672485
0, 8, 13, 5.185729503631592
0, 8, 14, 5.915595531463623
0, 8, 15, 8.75420093536377
0, 8, 16, 21.22073936462402
0, 8, 17, 74.82912445068359
0, 8, 18, 142.5428771972656
0, 8, 19, 178.806396484375
0, 8, 20, 191.1344451904297
0, 8, 21, 192.5484466552734
0, 8, 22, 179.4995727539062
0, 8, 23, 172.2437744140625
0, 8, 24, 191.5598297119141
0, 8, 25, 184.2614593505859
0, 8, 26, 193.0719451904297
0, 8, 27, 187.943115234375
0, 8, 28, 185.5404663085938
0, 8, 29, 206.7450561523438
0, 8, 30, 195.8461303710938
0, 8, 31, 181.8264770507812
0, 8, 32, 198.8973388671875
0, 8, 33, 206.6494140625
0, 8, 34, 204.4045715332031
0, 8, 35, 186.3117065429688
0, 8, 36, 181.6056213378906
0, 8, 37, 200.1160888671875
