# TOPAS Version: 3.1.p3
# Parameter File: batch_inserts_170.txt
# Results for scorer Readout_Adipose
# Scored in component: MyBox
# X in 1 bin  of 0.65 cm
# Y in 512 bins of 0.0783984 cm
# Z in 128 bins of 0.078125 cm
# EnergyDeposit ( MeV ) : Sum   
0, 0, 0, 1.290117740631104
0, 0, 1, 4.155872821807861
0, 0, 2, 1.063400626182556
0, 0, 3, 1.310666084289551
0, 0, 4, 1.002403378486633
0, 0, 5, 0.4604167342185974
0, 0, 6, 1.191601872444153
0, 0, 7, 1.743348836898804
0, 0, 8, 2.025485515594482
0, 0, 9, 3.049051761627197
0, 0, 10, 1.950187802314758
0, 0, 11, 4.193683624267578
0, 0, 12, 4.051872730255127
0, 0, 13, 2.433330297470093
0, 0, 14, 5.12208890914917
0, 0, 15, 5.319003105163574
0, 0, 16, 4.079257965087891
0, 0, 17, 7.358189582824707
0, 0, 18, 7.714522361755371
0, 0, 19, 24.28286933898926
0, 0, 20, 94.71059417724609
0, 0, 21, 153.4786834716797
0, 0, 22, 153.6270904541016
0, 0, 23, 144.4006195068359
0, 0, 24, 159.5128784179688
0, 0, 25, 166.5469970703125
0, 0, 26, 168.2223358154297
0, 0, 27, 174.3603057861328
0, 0, 28, 177.8544616699219
0, 0, 29, 175.7389373779297
0, 0, 30, 172.4145050048828
0, 0, 31, 166.1989593505859
0, 0, 32, 165.176025390625
0, 0, 33, 167.7859954833984
0, 0, 34, 176.4938659667969
0, 0, 35, 174.5216827392578
0, 0, 36, 158.8878479003906
0, 0, 37, 161.5884246826172
0, 0, 38, 166.6114959716797
0, 0, 39, 160.0179443359375
0, 0, 40, 164.4596557617188
0, 0, 41, 166.4779663085938
0, 0, 42, 142.9648284912109
0, 0, 43, 168.0510406494141
0, 0, 44, 177.3141632080078
0, 0, 45, 173.5294342041016
0, 0, 46, 165.5381927490234
0, 0, 47, 167.9901123046875
0, 0, 48, 168.8794250488281
0, 0, 49, 182.8511505126953
0, 0, 50, 169.1842956542969
0, 0, 51, 161.9515838623047
0, 0, 52, 162.6014709472656
0, 0, 53, 171.2451171875
0, 0, 54, 160.5911865234375
0, 0, 55, 164.8516998291016
0, 0, 56, 189.4628143310547
0, 0, 57, 171.4212493896484
0, 0, 58, 162.1457977294922
0, 0, 59, 172.1431579589844
0, 0, 60, 169.5169982910156
0, 0, 61, 170.8357086181641
0, 0, 62, 183.7529754638672
0, 0, 63, 167.5679473876953
0, 0, 64, 164.8847198486328
0, 0, 65, 176.3128814697266
0, 0, 66, 177.8698425292969
0, 0, 67, 164.0787811279297
0, 0, 68, 158.5308990478516
0, 0, 69, 158.1488494873047
0, 0, 70, 169.9184722900391
0, 0, 71, 158.2410888671875
0, 0, 72, 161.8771362304688
0, 0, 73, 171.7854156494141
0, 0, 74, 163.9702606201172
0, 0, 75, 163.5388641357422
0, 0, 76, 163.0740356445312
0, 0, 77, 172.5952758789062
0, 0, 78, 181.6213684082031
0, 0, 79, 175.1337585449219
0, 0, 80, 159.7945098876953
0, 0, 81, 159.6313171386719
0, 0, 82, 181.9470825195312
0, 0, 83, 173.1475677490234
0, 0, 84, 160.0420532226562
0, 0, 85, 181.3600311279297
0, 0, 86, 159.0298767089844
0, 0, 87, 177.6370239257812
0, 0, 88, 175.9289703369141
0, 0, 89, 174.4299926757812
0, 0, 90, 160.7514801025391
0, 0, 91, 185.3621826171875
0, 0, 92, 165.2429656982422
0, 0, 93, 157.3169097900391
0, 0, 94, 169.1059112548828
0, 0, 95, 173.5481567382812
0, 0, 96, 183.5010986328125
0, 0, 97, 183.4465179443359
0, 0, 98, 185.4188690185547
0, 0, 99, 172.9762573242188
0, 0, 100, 157.9447326660156
0, 0, 101, 166.7984008789062
0, 0, 102, 172.6870880126953
0, 0, 103, 170.4984588623047
0, 0, 104, 168.771728515625
0, 0, 105, 179.1762237548828
0, 0, 106, 158.6415557861328
0, 0, 107, 86.93582153320312
0, 0, 108, 20.56479835510254
0, 0, 109, 9.804288864135742
0, 0, 110, 6.877377986907959
0, 0, 111, 7.227205276489258
0, 0, 112, 4.133715152740479
0, 0, 113, 2.75838303565979
0, 0, 114, 2.353210687637329
0, 0, 115, 2.668421506881714
0, 0, 116, 2.777564764022827
0, 0, 117, 4.063840389251709
0, 0, 118, 4.106894493103027
0, 0, 119, 2.238316774368286
0, 0, 120, 1.76156747341156
0, 0, 121, 3.89270544052124
0, 0, 122, 5.500595092773438
0, 0, 123, 3.723252773284912
0, 0, 124, 1.20996367931366
0, 0, 125, 3.05367636680603
0, 0, 126, 3.063563108444214
0, 0, 127, 1.606420636177063
0, 1, 0, 1.354366898536682
0, 1, 1, 3.158900022506714
0, 1, 2, 4.055708885192871
0, 1, 3, 1.332085967063904
0, 1, 4, 0.7321911454200745
0, 1, 5, 1.404196262359619
0, 1, 6, 1.494538426399231
0, 1, 7, 1.951686978340149
0, 1, 8, 1.711798071861267
0, 1, 9, 2.366077661514282
0, 1, 10, 4.077634334564209
0, 1, 11, 3.605682849884033
0, 1, 12, 4.624117851257324
0, 1, 13, 3.17556357383728
0, 1, 14, 5.484904766082764
0, 1, 15, 7.024030685424805
0, 1, 16, 8.178767204284668
0, 1, 17, 5.937728881835938
0, 1, 18, 10.356689453125
0, 1, 19, 40.82728576660156
0, 1, 20, 125.5970764160156
0, 1, 21, 176.8758697509766
0, 1, 22, 192.2924346923828
0, 1, 23, 185.2274627685547
0, 1, 24, 182.2989501953125
0, 1, 25, 190.8766174316406
0, 1, 26, 197.4617004394531
0, 1, 27, 186.1325073242188
0, 1, 28, 189.2792510986328
0, 1, 29, 184.9795379638672
0, 1, 30, 180.351318359375
0, 1, 31, 183.8501586914062
0, 1, 32, 188.5680847167969
0, 1, 33, 190.3783111572266
0, 1, 34, 186.1618499755859
0, 1, 35, 195.1793212890625
0, 1, 36, 205.8738098144531
0, 1, 37, 183.6379547119141
0, 1, 38, 165.1114349365234
0, 1, 39, 171.3513031005859
0, 1, 40, 179.48681640625
0, 1, 41, 185.0272521972656
0, 1, 42, 182.8763580322266
0, 1, 43, 185.3638000488281
0, 1, 44, 168.2815399169922
0, 1, 45, 187.1342163085938
0, 1, 46, 171.7113952636719
0, 1, 47, 184.3185882568359
0, 1, 48, 186.3512725830078
0, 1, 49, 187.5419158935547
0, 1, 50, 178.6485290527344
0, 1, 51, 194.392578125
0, 1, 52, 196.6426544189453
0, 1, 53, 195.4922790527344
0, 1, 54, 184.2651824951172
0, 1, 55, 165.3012847900391
0, 1, 56, 178.8022155761719
0, 1, 57, 177.9703979492188
0, 1, 58, 188.6109924316406
0, 1, 59, 194.1801605224609
0, 1, 60, 187.7085113525391
0, 1, 61, 177.5296173095703
0, 1, 62, 207.5823059082031
0, 1, 63, 173.8434753417969
0, 1, 64, 172.7662658691406
0, 1, 65, 184.6218872070312
0, 1, 66, 204.1697540283203
0, 1, 67, 184.3009643554688
0, 1, 68, 186.7188110351562
0, 1, 69, 188.3810272216797
0, 1, 70, 185.5927124023438
0, 1, 71, 172.5199737548828
0, 1, 72, 188.8523712158203
0, 1, 73, 190.5100402832031
0, 1, 74, 200.6332092285156
0, 1, 75, 183.5813140869141
0, 1, 76, 175.0881042480469
0, 1, 77, 191.8074188232422
0, 1, 78, 187.4766082763672
0, 1, 79, 201.8013610839844
0, 1, 80, 186.5206756591797
0, 1, 81, 174.9791107177734
0, 1, 82, 208.8637542724609
0, 1, 83, 211.6049346923828
0, 1, 84, 180.4110565185547
0, 1, 85, 169.3916168212891
0, 1, 86, 167.89013671875
0, 1, 87, 185.3245086669922
0, 1, 88, 174.6168212890625
0, 1, 89, 188.5239105224609
0, 1, 90, 214.1013336181641
0, 1, 91, 180.9722747802734
0, 1, 92, 183.5804443359375
0, 1, 93, 180.7946014404297
0, 1, 94, 185.0595092773438
0, 1, 95, 184.6204223632812
0, 1, 96, 195.9915313720703
0, 1, 97, 183.1528167724609
0, 1, 98, 186.4777221679688
0, 1, 99, 176.4490203857422
0, 1, 100, 171.2971038818359
0, 1, 101, 177.8934936523438
0, 1, 102, 182.1071929931641
0, 1, 103, 172.8159484863281
0, 1, 104, 188.7103271484375
0, 1, 105, 181.5700378417969
0, 1, 106, 163.0685882568359
0, 1, 107, 123.8541946411133
0, 1, 108, 46.85974502563477
0, 1, 109, 9.80014705657959
0, 1, 110, 7.727181911468506
0, 1, 111, 7.21174430847168
0, 1, 112, 6.527367115020752
0, 1, 113, 7.171806335449219
0, 1, 114, 6.780879974365234
0, 1, 115, 6.276787757873535
0, 1, 116, 3.207971096038818
0, 1, 117, 2.304367780685425
0, 1, 118, 2.926175832748413
0, 1, 119, 1.183705687522888
0, 1, 120, 4.21981143951416
0, 1, 121, 3.713207721710205
0, 1, 122, 1.452042937278748
0, 1, 123, 4.742303848266602
0, 1, 124, 2.286589860916138
0, 1, 125, 2.697929859161377
0, 1, 126, 1.60438060760498
0, 1, 127, 3.689616680145264
0, 2, 0, 1.557768940925598
0, 2, 1, 2.305552959442139
0, 2, 2, 3.03360652923584
0, 2, 3, 2.59543514251709
0, 2, 4, 3.28164529800415
0, 2, 5, 0.9061179161071777
0, 2, 6, 4.131844520568848
0, 2, 7, 1.733256697654724
0, 2, 8, 0.9302630424499512
0, 2, 9, 4.642909049987793
0, 2, 10, 6.988613605499268
0, 2, 11, 3.712695360183716
0, 2, 12, 3.179070949554443
0, 2, 13, 5.249054431915283
0, 2, 14, 3.876261234283447
0, 2, 15, 6.346972942352295
0, 2, 16, 5.497157573699951
0, 2, 17, 9.184878349304199
0, 2, 18, 14.93666648864746
0, 2, 19, 77.25623321533203
0, 2, 20, 162.2192840576172
0, 2, 21, 183.2695007324219
0, 2, 22, 193.6708679199219
0, 2, 23, 184.027099609375
0, 2, 24, 173.9505767822266
0, 2, 25, 183.4526062011719
0, 2, 26, 178.9862365722656
0, 2, 27, 190.5716400146484
0, 2, 28, 170.8842315673828
0, 2, 29, 168.7353973388672
0, 2, 30, 186.8946228027344
0, 2, 31, 182.4871520996094
0, 2, 32, 183.1786193847656
0, 2, 33, 190.0236968994141
0, 2, 34, 196.8224945068359
0, 2, 35, 183.3561248779297
0, 2, 36, 185.8909912109375
0, 2, 37, 180.7247619628906
0, 2, 38, 184.1713562011719
0, 2, 39, 167.270751953125
0, 2, 40, 184.0895080566406
0, 2, 41, 184.7408447265625
0, 2, 42, 189.517822265625
0, 2, 43, 194.7767639160156
0, 2, 44, 190.4642486572266
0, 2, 45, 190.3414764404297
0, 2, 46, 195.5755310058594
0, 2, 47, 189.1800842285156
0, 2, 48, 178.9661102294922
0, 2, 49, 198.4517517089844
0, 2, 50, 168.3360137939453
0, 2, 51, 186.1699523925781
0, 2, 52, 186.5333251953125
0, 2, 53, 194.6461486816406
0, 2, 54, 176.2680358886719
0, 2, 55, 173.6064300537109
0, 2, 56, 181.9539031982422
0, 2, 57, 200.5236511230469
0, 2, 58, 186.0358581542969
0, 2, 59, 190.1439208984375
0, 2, 60, 196.5008087158203
0, 2, 61, 193.3612518310547
0, 2, 62, 189.7491912841797
0, 2, 63, 169.5514831542969
0, 2, 64, 190.4397430419922
0, 2, 65, 202.9396820068359
0, 2, 66, 195.3289794921875
0, 2, 67, 184.8355255126953
0, 2, 68, 181.9022064208984
0, 2, 69, 187.5066833496094
0, 2, 70, 203.7841949462891
0, 2, 71, 175.0767822265625
0, 2, 72, 187.5122680664062
0, 2, 73, 178.0430603027344
0, 2, 74, 180.4864959716797
0, 2, 75, 195.5256500244141
0, 2, 76, 183.5363159179688
0, 2, 77, 177.1143341064453
0, 2, 78, 198.3474884033203
0, 2, 79, 177.35302734375
0, 2, 80, 188.3364105224609
0, 2, 81, 186.9794158935547
0, 2, 82, 204.3522491455078
0, 2, 83, 203.9996337890625
0, 2, 84, 188.0972747802734
0, 2, 85, 170.2889556884766
0, 2, 86, 195.5287780761719
0, 2, 87, 171.0944366455078
0, 2, 88, 176.7684326171875
0, 2, 89, 185.6473236083984
0, 2, 90, 177.6475677490234
0, 2, 91, 173.8878173828125
0, 2, 92, 197.8378448486328
0, 2, 93, 194.8996429443359
0, 2, 94, 201.0646667480469
0, 2, 95, 194.2931365966797
0, 2, 96, 186.9140167236328
0, 2, 97, 172.5209197998047
0, 2, 98, 173.6507110595703
0, 2, 99, 162.8434753417969
0, 2, 100, 187.4449157714844
0, 2, 101, 197.1365051269531
0, 2, 102, 176.5323181152344
0, 2, 103, 199.8785552978516
0, 2, 104, 187.7481994628906
0, 2, 105, 201.6466217041016
0, 2, 106, 195.6031646728516
0, 2, 107, 149.0958862304688
0, 2, 108, 78.54730987548828
0, 2, 109, 17.5598258972168
0, 2, 110, 8.768440246582031
0, 2, 111, 6.058747291564941
0, 2, 112, 3.107197761535645
0, 2, 113, 4.020510196685791
0, 2, 114, 7.381579875946045
0, 2, 115, 6.170534610748291
0, 2, 116, 2.968979597091675
0, 2, 117, 1.677495360374451
0, 2, 118, 2.226545810699463
0, 2, 119, 3.688209533691406
0, 2, 120, 1.766107797622681
0, 2, 121, 3.246316194534302
0, 2, 122, 1.974530577659607
0, 2, 123, 3.992869853973389
0, 2, 124, 3.058796644210815
0, 2, 125, 1.602398037910461
0, 2, 126, 2.950659275054932
0, 2, 127, 0.4466432332992554
0, 3, 0, 1.827452778816223
0, 3, 1, 1.172829270362854
0, 3, 2, 1.494999170303345
0, 3, 3, 1.323732495307922
0, 3, 4, 3.883165121078491
0, 3, 5, 1.246189832687378
0, 3, 6, 0.85243821144104
0, 3, 7, 1.333305478096008
0, 3, 8, 1.582787871360779
0, 3, 9, 1.81140673160553
0, 3, 10, 1.728758454322815
0, 3, 11, 5.027171611785889
0, 3, 12, 3.903738737106323
0, 3, 13, 3.762738227844238
0, 3, 14, 3.654797554016113
0, 3, 15, 8.165809631347656
0, 3, 16, 6.962275505065918
0, 3, 17, 6.543840408325195
0, 3, 18, 32.8298225402832
0, 3, 19, 114.7050933837891
0, 3, 20, 179.4888763427734
0, 3, 21, 172.5124359130859
0, 3, 22, 177.6271667480469
0, 3, 23, 189.0506744384766
0, 3, 24, 178.3941192626953
0, 3, 25, 169.9968719482422
0, 3, 26, 180.6795806884766
0, 3, 27, 189.3600158691406
0, 3, 28, 183.8449554443359
0, 3, 29, 197.0584869384766
0, 3, 30, 184.8882598876953
0, 3, 31, 193.8660736083984
0, 3, 32, 205.5307006835938
0, 3, 33, 196.2970581054688
0, 3, 34, 187.2636108398438
0, 3, 35, 175.76611328125
0, 3, 36, 186.1198577880859
0, 3, 37, 200.3632049560547
0, 3, 38, 190.9414215087891
0, 3, 39, 185.1226501464844
0, 3, 40, 165.4851379394531
0, 3, 41, 175.0881500244141
0, 3, 42, 184.9240417480469
0, 3, 43, 181.6328887939453
0, 3, 44, 202.6735076904297
0, 3, 45, 207.5055236816406
0, 3, 46, 198.6068115234375
0, 3, 47, 194.4396362304688
0, 3, 48, 195.7749176025391
0, 3, 49, 184.6219177246094
0, 3, 50, 187.1255493164062
0, 3, 51, 174.9560241699219
0, 3, 52, 187.7874145507812
0, 3, 53, 177.3802032470703
0, 3, 54, 179.0811767578125
0, 3, 55, 176.3610992431641
0, 3, 56, 182.6251831054688
0, 3, 57, 174.5540924072266
0, 3, 58, 200.8545227050781
0, 3, 59, 196.4684753417969
0, 3, 60, 185.5929412841797
0, 3, 61, 181.3912963867188
0, 3, 62, 183.0139770507812
0, 3, 63, 183.6539306640625
0, 3, 64, 190.53125
0, 3, 65, 187.3796081542969
0, 3, 66, 174.8131408691406
0, 3, 67, 190.3623046875
0, 3, 68, 211.4214324951172
0, 3, 69, 188.9263305664062
0, 3, 70, 184.9639434814453
0, 3, 71, 196.1823577880859
0, 3, 72, 186.1470794677734
0, 3, 73, 186.3931732177734
0, 3, 74, 192.3164367675781
0, 3, 75, 193.0361633300781
0, 3, 76, 192.5333557128906
0, 3, 77, 198.7023315429688
0, 3, 78, 188.4307250976562
0, 3, 79, 186.6828460693359
0, 3, 80, 191.6875
0, 3, 81, 184.036376953125
0, 3, 82, 180.0087585449219
0, 3, 83, 194.4618835449219
0, 3, 84, 198.9445343017578
0, 3, 85, 191.1505584716797
0, 3, 86, 204.0671539306641
0, 3, 87, 197.1845855712891
0, 3, 88, 191.3735504150391
0, 3, 89, 193.6005401611328
0, 3, 90, 173.4075164794922
0, 3, 91, 156.3345794677734
0, 3, 92, 206.6083984375
0, 3, 93, 197.8418884277344
0, 3, 94, 192.298828125
0, 3, 95, 211.7327117919922
0, 3, 96, 209.4175720214844
0, 3, 97, 167.8384094238281
0, 3, 98, 170.5516662597656
0, 3, 99, 180.4848785400391
0, 3, 100, 176.8494873046875
0, 3, 101, 198.6376953125
0, 3, 102, 194.8411407470703
0, 3, 103, 192.2830505371094
0, 3, 104, 203.8326263427734
0, 3, 105, 175.6199951171875
0, 3, 106, 181.0245819091797
0, 3, 107, 170.3488006591797
0, 3, 108, 108.5228500366211
0, 3, 109, 28.57522010803223
0, 3, 110, 7.944497585296631
0, 3, 111, 6.194597244262695
0, 3, 112, 2.90068244934082
0, 3, 113, 8.231600761413574
0, 3, 114, 4.427957534790039
0, 3, 115, 4.96730899810791
0, 3, 116, 4.718898773193359
0, 3, 117, 5.193384647369385
0, 3, 118, 1.969925165176392
0, 3, 119, 2.428738594055176
0, 3, 120, 3.690772771835327
0, 3, 121, 2.938724756240845
0, 3, 122, 3.366400003433228
0, 3, 123, 1.443031549453735
0, 3, 124, 3.102892160415649
0, 3, 125, 1.964816570281982
0, 3, 126, 1.592893838882446
0, 3, 127, 1.121326923370361
0, 4, 0, 1.739263772964478
0, 4, 1, 1.490058660507202
0, 4, 2, 3.727259635925293
0, 4, 3, 4.796545028686523
0, 4, 4, 2.190220832824707
0, 4, 5, 1.072813987731934
0, 4, 6, 2.146671056747437
0, 4, 7, 3.406972169876099
0, 4, 8, 1.93331241607666
0, 4, 9, 2.94709849357605
0, 4, 10, 3.466266632080078
0, 4, 11, 4.770566463470459
0, 4, 12, 5.588991165161133
0, 4, 13, 4.869254112243652
0, 4, 14, 6.779404640197754
0, 4, 15, 9.206280708312988
0, 4, 16, 5.966715335845947
0, 4, 17, 12.02593612670898
0, 4, 18, 54.20754241943359
0, 4, 19, 150.1284484863281
0, 4, 20, 193.7209320068359
0, 4, 21, 169.744140625
0, 4, 22, 187.5165710449219
0, 4, 23, 197.2349243164062
0, 4, 24, 192.9014129638672
0, 4, 25, 199.9500885009766
0, 4, 26, 183.1505737304688
0, 4, 27, 190.6108703613281
0, 4, 28, 179.1218566894531
0, 4, 29, 205.2955322265625
0, 4, 30, 194.6895599365234
0, 4, 31, 192.7098388671875
0, 4, 32, 210.4438323974609
0, 4, 33, 191.63916015625
0, 4, 34, 192.3834533691406
0, 4, 35, 214.2458190917969
0, 4, 36, 193.1963348388672
0, 4, 37, 176.8218078613281
0, 4, 38, 194.3460235595703
0, 4, 39, 189.7868347167969
0, 4, 40, 186.3739471435547
0, 4, 41, 188.8716430664062
0, 4, 42, 206.6563262939453
0, 4, 43, 173.8458709716797
0, 4, 44, 183.7357940673828
0, 4, 45, 195.8016204833984
0, 4, 46, 185.9323120117188
0, 4, 47, 180.5816497802734
0, 4, 48, 186.7487182617188
0, 4, 49, 177.2918243408203
0, 4, 50, 185.2822113037109
0, 4, 51, 199.3899078369141
0, 4, 52, 224.5931701660156
0, 4, 53, 206.9948883056641
0, 4, 54, 189.9117126464844
0, 4, 55, 175.8557281494141
0, 4, 56, 190.1426239013672
0, 4, 57, 191.5352478027344
0, 4, 58, 187.6146087646484
0, 4, 59, 188.7598114013672
0, 4, 60, 196.2425384521484
0, 4, 61, 196.0640258789062
0, 4, 62, 191.3108062744141
0, 4, 63, 178.7589721679688
0, 4, 64, 214.9281921386719
0, 4, 65, 190.6372680664062
0, 4, 66, 201.5460815429688
0, 4, 67, 199.4334259033203
0, 4, 68, 200.6284332275391
0, 4, 69, 199.551025390625
0, 4, 70, 204.3016815185547
0, 4, 71, 206.1028137207031
0, 4, 72, 215.5614471435547
0, 4, 73, 186.2174072265625
0, 4, 74, 180.2441711425781
0, 4, 75, 185.6993865966797
0, 4, 76, 191.7922973632812
0, 4, 77, 184.2126007080078
0, 4, 78, 195.905517578125
0, 4, 79, 205.0960540771484
0, 4, 80, 211.8768463134766
0, 4, 81, 198.1426391601562
0, 4, 82, 182.2359008789062
0, 4, 83, 170.8240203857422
0, 4, 84, 192.9938507080078
0, 4, 85, 196.89453125
0, 4, 86, 180.4961700439453
0, 4, 87, 183.7571105957031
0, 4, 88, 204.7924499511719
0, 4, 89, 187.1913299560547
0, 4, 90, 212.1244812011719
0, 4, 91, 189.7394409179688
0, 4, 92, 196.3556365966797
0, 4, 93, 195.8961334228516
0, 4, 94, 184.1354675292969
0, 4, 95, 173.9953918457031
0, 4, 96, 190.2633361816406
0, 4, 97, 193.3321228027344
0, 4, 98, 201.7092895507812
0, 4, 99, 183.5162353515625
0, 4, 100, 182.4057769775391
0, 4, 101, 177.2716217041016
0, 4, 102, 173.714111328125
0, 4, 103, 186.5216674804688
0, 4, 104, 210.1457977294922
0, 4, 105, 190.1717987060547
0, 4, 106, 179.0414581298828
0, 4, 107, 180.7294769287109
0, 4, 108, 153.8144378662109
0, 4, 109, 50.74445724487305
0, 4, 110, 13.57797431945801
0, 4, 111, 8.645522117614746
0, 4, 112, 6.080562114715576
0, 4, 113, 5.469203472137451
0, 4, 114, 6.63364839553833
0, 4, 115, 3.386708736419678
0, 4, 116, 4.452337741851807
0, 4, 117, 3.112886190414429
0, 4, 118, 3.497173070907593
0, 4, 119, 3.078784465789795
0, 4, 120, 1.715690970420837
0, 4, 121, 1.655133128166199
0, 4, 122, 2.275685548782349
0, 4, 123, 1.36993670463562
0, 4, 124, 3.942312240600586
0, 4, 125, 4.58146333694458
0, 4, 126, 0.5516348481178284
0, 4, 127, 1.484562754631042
0, 5, 0, 1.245561599731445
0, 5, 1, 4.488036632537842
0, 5, 2, 5.4642014503479
0, 5, 3, 4.328179359436035
0, 5, 4, 3.63654351234436
0, 5, 5, 1.368244647979736
0, 5, 6, 2.072758436203003
0, 5, 7, 2.663184404373169
0, 5, 8, 2.507544755935669
0, 5, 9, 2.477164506912231
0, 5, 10, 3.668308019638062
0, 5, 11, 3.675293207168579
0, 5, 12, 4.102408885955811
0, 5, 13, 4.096966743469238
0, 5, 14, 5.545311450958252
0, 5, 15, 11.11610794067383
0, 5, 16, 9.192059516906738
0, 5, 17, 21.5419750213623
0, 5, 18, 82.62648010253906
0, 5, 19, 163.8335723876953
0, 5, 20, 183.0991058349609
0, 5, 21, 180.4068145751953
0, 5, 22, 172.9996032714844
0, 5, 23, 200.5008544921875
0, 5, 24, 186.7172241210938
0, 5, 25, 206.7419738769531
0, 5, 26, 183.1308441162109
0, 5, 27, 192.9397583007812
0, 5, 28, 189.4986114501953
0, 5, 29, 194.9457397460938
0, 5, 30, 178.7093200683594
0, 5, 31, 180.8036193847656
0, 5, 32, 185.9756927490234
0, 5, 33, 168.5549163818359
0, 5, 34, 195.1156158447266
0, 5, 35, 196.2631683349609
0, 5, 36, 167.9817810058594
0, 5, 37, 198.2265014648438
0, 5, 38, 182.1161804199219
0, 5, 39, 185.6751708984375
0, 5, 40, 196.4141693115234
0, 5, 41, 178.51416015625
0, 5, 42, 188.1599273681641
0, 5, 43, 193.2495422363281
0, 5, 44, 199.6696166992188
0, 5, 45, 185.8713836669922
0, 5, 46, 193.1439514160156
0, 5, 47, 180.0084228515625
0, 5, 48, 180.1360473632812
0, 5, 49, 179.2412414550781
0, 5, 50, 186.0642547607422
0, 5, 51, 172.1655120849609
0, 5, 52, 167.6147918701172
0, 5, 53, 181.4081268310547
0, 5, 54, 171.7288055419922
0, 5, 55, 215.3290557861328
0, 5, 56, 182.0735931396484
0, 5, 57, 206.8955383300781
0, 5, 58, 180.7120666503906
0, 5, 59, 180.9759979248047
0, 5, 60, 218.30712890625
0, 5, 61, 185.5670623779297
0, 5, 62, 179.1710662841797
0, 5, 63, 180.0019836425781
0, 5, 64, 194.0138549804688
0, 5, 65, 210.2499542236328
0, 5, 66, 191.4586791992188
0, 5, 67, 201.1965484619141
0, 5, 68, 187.3064727783203
0, 5, 69, 184.695556640625
0, 5, 70, 185.3925476074219
0, 5, 71, 193.1723785400391
0, 5, 72, 197.2102508544922
0, 5, 73, 201.0822601318359
0, 5, 74, 180.4074401855469
0, 5, 75, 203.0433197021484
0, 5, 76, 214.8524780273438
0, 5, 77, 181.6779327392578
0, 5, 78, 194.9768981933594
0, 5, 79, 190.8030548095703
0, 5, 80, 197.5968780517578
0, 5, 81, 204.7301940917969
0, 5, 82, 201.6298675537109
0, 5, 83, 188.0297088623047
0, 5, 84, 205.2017517089844
0, 5, 85, 176.8894958496094
0, 5, 86, 194.4823608398438
0, 5, 87, 188.2139282226562
0, 5, 88, 177.9087066650391
0, 5, 89, 195.9180755615234
0, 5, 90, 198.984130859375
0, 5, 91, 194.6857299804688
0, 5, 92, 189.9522705078125
0, 5, 93, 189.1393585205078
0, 5, 94, 207.2345123291016
0, 5, 95, 176.0299072265625
0, 5, 96, 182.1117706298828
0, 5, 97, 191.2195739746094
0, 5, 98, 188.5078582763672
0, 5, 99, 195.8341522216797
0, 5, 100, 185.3106231689453
0, 5, 101, 195.6230316162109
0, 5, 102, 180.9290161132812
0, 5, 103, 177.9768981933594
0, 5, 104, 190.0791931152344
0, 5, 105, 189.6416931152344
0, 5, 106, 177.0065765380859
0, 5, 107, 182.7191162109375
0, 5, 108, 175.5686187744141
0, 5, 109, 89.63901519775391
0, 5, 110, 30.11223411560059
0, 5, 111, 9.452437400817871
0, 5, 112, 6.205194473266602
0, 5, 113, 7.230391979217529
0, 5, 114, 5.776504516601562
0, 5, 115, 6.177377223968506
0, 5, 116, 4.472472667694092
0, 5, 117, 2.386044025421143
0, 5, 118, 3.286968469619751
0, 5, 119, 3.051314830780029
0, 5, 120, 1.455074429512024
0, 5, 121, 1.418543457984924
0, 5, 122, 2.803109645843506
0, 5, 123, 3.241141557693481
0, 5, 124, 2.865062236785889
0, 5, 125, 1.348952651023865
0, 5, 126, 1.731838583946228
0, 5, 127, 3.021597385406494
0, 6, 0, 3.901188135147095
0, 6, 1, 3.067893266677856
0, 6, 2, 3.467681884765625
0, 6, 3, 2.567305564880371
0, 6, 4, 2.806017160415649
0, 6, 5, 3.694984912872314
0, 6, 6, 2.909741401672363
0, 6, 7, 3.659887790679932
0, 6, 8, 4.060046195983887
0, 6, 9, 2.889082670211792
0, 6, 10, 5.230356693267822
0, 6, 11, 4.564413070678711
0, 6, 12, 4.464206218719482
0, 6, 13, 5.201438903808594
0, 6, 14, 7.445250511169434
0, 6, 15, 7.102146625518799
0, 6, 16, 12.93143844604492
0, 6, 17, 28.02654838562012
0, 6, 18, 112.5804977416992
0, 6, 19, 190.7043151855469
0, 6, 20, 196.0102081298828
0, 6, 21, 199.7210388183594
0, 6, 22, 191.3041687011719
0, 6, 23, 193.2919921875
0, 6, 24, 200.5489044189453
0, 6, 25, 181.7708435058594
0, 6, 26, 187.7059173583984
0, 6, 27, 192.0152587890625
0, 6, 28, 188.8321990966797
0, 6, 29, 210.7174377441406
0, 6, 30, 191.2708435058594
0, 6, 31, 194.0280914306641
0, 6, 32, 206.3011932373047
0, 6, 33, 182.8828582763672
0, 6, 34, 196.6273803710938
0, 6, 35, 187.5832366943359
0, 6, 36, 180.5715179443359
0, 6, 37, 182.0516204833984
0, 6, 38, 185.8797607421875
0, 6, 39, 195.0829925537109
0, 6, 40, 174.6162567138672
0, 6, 41, 188.0162963867188
0, 6, 42, 174.13232421875
0, 6, 43, 209.9217224121094
0, 6, 44, 209.4068450927734
0, 6, 45, 193.0061645507812
0, 6, 46, 188.5671539306641
0, 6, 47, 204.1156158447266
0, 6, 48, 188.9202575683594
0, 6, 49, 179.0663909912109
0, 6, 50, 181.8258056640625
0, 6, 51, 195.8006591796875
0, 6, 52, 197.8361206054688
0, 6, 53, 185.2998199462891
0, 6, 54, 175.2512359619141
0, 6, 55, 194.0627899169922
0, 6, 56, 202.1824951171875
0, 6, 57, 191.2571105957031
0, 6, 58, 178.3587646484375
0, 6, 59, 192.4657592773438
0, 6, 60, 184.3389434814453
0, 6, 61, 193.64404296875
0, 6, 62, 196.1625671386719
0, 6, 63, 187.0234680175781
0, 6, 64, 169.22021484375
0, 6, 65, 185.7397003173828
0, 6, 66, 197.2484588623047
0, 6, 67, 214.9720611572266
0, 6, 68, 182.4564819335938
0, 6, 69, 170.7720336914062
0, 6, 70, 187.2706604003906
0, 6, 71, 170.6827545166016
0, 6, 72, 175.7355499267578
0, 6, 73, 177.3186187744141
0, 6, 74, 211.0978393554688
0, 6, 75, 227.1503753662109
0, 6, 76, 184.301513671875
0, 6, 77, 171.7559204101562
0, 6, 78, 175.5363922119141
0, 6, 79, 187.14404296875
0, 6, 80, 187.3092956542969
0, 6, 81, 208.5376586914062
0, 6, 82, 195.1251983642578
0, 6, 83, 194.6790466308594
0, 6, 84, 198.0425720214844
0, 6, 85, 182.46044921875
0, 6, 86, 200.8001556396484
0, 6, 87, 183.2522583007812
0, 6, 88, 191.3845520019531
0, 6, 89, 188.4426116943359
0, 6, 90, 205.4893035888672
0, 6, 91, 200.0826568603516
0, 6, 92, 172.7151947021484
0, 6, 93, 193.6674652099609
0, 6, 94, 190.3894348144531
0, 6, 95, 185.77587890625
0, 6, 96, 190.0106811523438
0, 6, 97, 193.6949462890625
0, 6, 98, 182.8046875
0, 6, 99, 174.8424530029297
0, 6, 100, 201.6781158447266
0, 6, 101, 169.4513244628906
0, 6, 102, 201.7482452392578
0, 6, 103, 197.0159301757812
0, 6, 104, 183.4460144042969
0, 6, 105, 193.4143371582031
0, 6, 106, 177.5827026367188
0, 6, 107, 194.2720489501953
0, 6, 108, 171.5824279785156
0, 6, 109, 115.2676391601562
0, 6, 110, 34.18904495239258
0, 6, 111, 8.55141544342041
0, 6, 112, 8.816291809082031
0, 6, 113, 5.267871856689453
0, 6, 114, 5.415341854095459
0, 6, 115, 6.161781311035156
0, 6, 116, 5.19304895401001
0, 6, 117, 3.373930215835571
0, 6, 118, 2.919841051101685
0, 6, 119, 4.804031848907471
0, 6, 120, 2.783937931060791
0, 6, 121, 4.271782875061035
0, 6, 122, 3.962862014770508
0, 6, 123, 3.376993179321289
0, 6, 124, 1.463472366333008
0, 6, 125, 2.894112110137939
0, 6, 126, 1.964412808418274
0, 6, 127, 2.076820850372314
0, 7, 0, 2.450349569320679
0, 7, 1, 3.451387166976929
0, 7, 2, 1.504799723625183
0, 7, 3, 2.049633264541626
0, 7, 4, 0.9300006031990051
0, 7, 5, 2.113958120346069
0, 7, 6, 1.503201961517334
0, 7, 7, 2.470653057098389
0, 7, 8, 3.913234710693359
0, 7, 9, 3.060917377471924
0, 7, 10, 5.04291820526123
0, 7, 11, 2.987531661987305
0, 7, 12, 3.057901620864868
0, 7, 13, 5.704834461212158
0, 7, 14, 6.931940078735352
0, 7, 15, 8.235355377197266
0, 7, 16, 14.96224975585938
0, 7, 17, 52.52836608886719
0, 7, 18, 163.7097015380859
0, 7, 19, 182.2731628417969
0, 7, 20, 178.4066314697266
0, 7, 21, 180.0244293212891
0, 7, 22, 191.7315063476562
0, 7, 23, 202.8941650390625
0, 7, 24, 180.0536804199219
0, 7, 25, 212.3109893798828
0, 7, 26, 193.1162109375
0, 7, 27, 182.3986053466797
0, 7, 28, 183.5043029785156
0, 7, 29, 209.4319152832031
0, 7, 30, 192.5040588378906
0, 7, 31, 177.04736328125
0, 7, 32, 192.3362274169922
0, 7, 33, 182.48095703125
0, 7, 34, 193.6551208496094
0, 7, 35, 196.5989379882812
0, 7, 36, 187.9999694824219
0, 7, 37, 212.9477996826172
0, 7, 38, 191.4156494140625
0, 7, 39, 174.1762237548828
0, 7, 40, 183.0249786376953
0, 7, 41, 185.5279998779297
0, 7, 42, 177.7777862548828
0, 7, 43, 177.33056640625
0, 7, 44, 179.0016479492188
0, 7, 45, 176.1247406005859
0, 7, 46, 187.2482452392578
0, 7, 47, 197.4527435302734
0, 7, 48, 184.8722381591797
0, 7, 49, 201.3274536132812
0, 7, 50, 187.7094421386719
0, 7, 51, 206.6082153320312
0, 7, 52, 205.001220703125
0, 7, 53, 192.0860748291016
0, 7, 54, 195.8940734863281
0, 7, 55, 203.5979614257812
0, 7, 56, 183.0254211425781
0, 7, 57, 184.0128173828125
0, 7, 58, 194.1769409179688
0, 7, 59, 187.2950897216797
0, 7, 60, 202.6772155761719
0, 7, 61, 171.4986724853516
0, 7, 62, 202.8211364746094
0, 7, 63, 190.1184387207031
0, 7, 64, 199.0469970703125
0, 7, 65, 197.0232696533203
0, 7, 66, 205.7195739746094
0, 7, 67, 223.1928253173828
0, 7, 68, 163.4658355712891
0, 7, 69, 195.0745697021484
0, 7, 70, 219.2641754150391
0, 7, 71, 184.4347839355469
0, 7, 72, 180.6316375732422
0, 7, 73, 176.6044006347656
0, 7, 74, 209.4456481933594
0, 7, 75, 204.3348999023438
0, 7, 76, 214.9961853027344
0, 7, 77, 175.4796142578125
0, 7, 78, 177.5683135986328
0, 7, 79, 192.3358917236328
0, 7, 80, 196.6770935058594
0, 7, 81, 214.3421478271484
0, 7, 82, 187.4626312255859
0, 7, 83, 205.6483917236328
0, 7, 84, 193.7764587402344
0, 7, 85, 189.4205627441406
0, 7, 86, 200.3428497314453
0, 7, 87, 226.0956268310547
0, 7, 88, 195.1617584228516
0, 7, 89, 176.1826324462891
0, 7, 90, 183.4558563232422
0, 7, 91, 194.8792419433594
0, 7, 92, 193.4144287109375
0, 7, 93, 199.4404907226562
0, 7, 94, 179.432861328125
0, 7, 95, 199.5700073242188
0, 7, 96, 210.0635070800781
0, 7, 97, 188.2434234619141
0, 7, 98, 176.2845611572266
0, 7, 99, 196.3465118408203
0, 7, 100, 182.1901550292969
0, 7, 101, 199.5389099121094
0, 7, 102, 186.1646728515625
0, 7, 103, 181.0228729248047
0, 7, 104, 174.2425079345703
0, 7, 105, 194.9335479736328
0, 7, 106, 205.3856506347656
0, 7, 107, 174.1099090576172
0, 7, 108, 177.1149597167969
0, 7, 109, 137.3636932373047
0, 7, 110, 54.95431518554688
0, 7, 111, 8.797232627868652
0, 7, 112, 8.210180282592773
0, 7, 113, 9.128423690795898
0, 7, 114, 6.76601505279541
0, 7, 115, 5.695470333099365
0, 7, 116, 4.932253360748291
0, 7, 117, 3.557505369186401
0, 7, 118, 3.465456008911133
0, 7, 119, 3.269174814224243
0, 7, 120, 2.854818344116211
0, 7, 121, 5.301454067230225
0, 7, 122, 3.854395627975464
0, 7, 123, 1.246105432510376
0, 7, 124, 2.095945358276367
0, 7, 125, 2.016828775405884
0, 7, 126, 1.879637002944946
0, 7, 127, 0.8650037050247192
0, 8, 0, 5.068832397460938
0, 8, 1, 1.983852744102478
0, 8, 2, 4.072614192962646
0, 8, 3, 1.638761162757874
0, 8, 4, 1.209190487861633
0, 8, 5, 3.335346460342407
0, 8, 6, 1.72802472114563
0, 8, 7, 2.348893404006958
0, 8, 8, 3.595821142196655
0, 8, 9, 4.637951850891113
0, 8, 10, 2.050135612487793
0, 8, 11, 3.293720006942749
0, 8, 12, 3.373789310455322
0, 8, 13, 5.09695291519165
0, 8, 14, 5.827752590179443
0, 8, 15, 8.735556602478027
0, 8, 16, 19.51412200927734
0, 8, 17, 77.60590362548828
0, 8, 18, 147.0520324707031
0, 8, 19, 177.6006622314453
0, 8, 20, 190.9140930175781
0, 8, 21, 193.5299224853516
0, 8, 22, 180.5828247070312
0, 8, 23, 173.0929107666016
0, 8, 24, 192.488525390625
0, 8, 25, 184.4848480224609
0, 8, 26, 193.8277893066406
0, 8, 27, 187.4772796630859
0, 8, 28, 189.1954345703125
0, 8, 29, 207.506103515625
0, 8, 30, 196.6904907226562
0, 8, 31, 183.6744079589844
0, 8, 32, 197.6772155761719
0, 8, 33, 206.6859283447266
0, 8, 34, 202.6212921142578
0, 8, 35, 184.6136016845703
0, 8, 36, 182.7268981933594
0, 8, 37, 200.7207946777344
