# TOPAS Version: 3.1.p3
# Parameter File: batch_inserts_62.txt
# Results for scorer Readout_Adipose
# Scored in component: MyBox
# X in 1 bin  of 0.65 cm
# Y in 512 bins of 0.0783984 cm
# Z in 128 bins of 0.078125 cm
# EnergyDeposit ( MeV ) : Sum   
0, 0, 0, 2.279717683792114
0, 0, 1, 2.534035444259644
0, 0, 2, 2.494447708129883
0, 0, 3, 0.5068323612213135
0, 0, 4, 2.650523662567139
0, 0, 5, 0.478704035282135
0, 0, 6, 1.925753116607666
0, 0, 7, 2.596626043319702
0, 0, 8, 2.047744989395142
0, 0, 9, 1.625310897827148
0, 0, 10, 1.928469181060791
0, 0, 11, 3.890239715576172
0, 0, 12, 4.629819393157959
0, 0, 13, 3.005964517593384
0, 0, 14, 5.586738586425781
0, 0, 15, 5.113763332366943
0, 0, 16, 3.597301483154297
0, 0, 17, 6.388065338134766
0, 0, 18, 6.120367050170898
0, 0, 19, 23.47786712646484
0, 0, 20, 96.26822662353516
0, 0, 21, 152.9748992919922
0, 0, 22, 154.1127624511719
0, 0, 23, 143.6609191894531
0, 0, 24, 159.3423461914062
0, 0, 25, 166.3735504150391
0, 0, 26, 167.4672698974609
0, 0, 27, 174.5151824951172
0, 0, 28, 176.8852386474609
0, 0, 29, 174.5520324707031
0, 0, 30, 173.0983734130859
0, 0, 31, 167.4525146484375
0, 0, 32, 165.0006256103516
0, 0, 33, 167.1002502441406
0, 0, 34, 176.9558258056641
0, 0, 35, 173.2085266113281
0, 0, 36, 158.9248962402344
0, 0, 37, 161.3636016845703
0, 0, 38, 166.2948303222656
0, 0, 39, 159.1596069335938
0, 0, 40, 165.3016815185547
0, 0, 41, 165.5576171875
0, 0, 42, 143.4659423828125
0, 0, 43, 168.7872314453125
0, 0, 44, 178.3768920898438
0, 0, 45, 172.8542327880859
0, 0, 46, 166.9701538085938
0, 0, 47, 168.2604522705078
0, 0, 48, 169.6143951416016
0, 0, 49, 184.02685546875
0, 0, 50, 170.7780151367188
0, 0, 51, 162.55908203125
0, 0, 52, 161.2340087890625
0, 0, 53, 171.2993469238281
0, 0, 54, 160.5086364746094
0, 0, 55, 164.8306427001953
0, 0, 56, 189.6588745117188
0, 0, 57, 170.9848480224609
0, 0, 58, 161.4092864990234
0, 0, 59, 172.7018737792969
0, 0, 60, 169.1962280273438
0, 0, 61, 169.8182830810547
0, 0, 62, 182.8463287353516
0, 0, 63, 167.8249053955078
0, 0, 64, 165.0887145996094
0, 0, 65, 173.3229370117188
0, 0, 66, 178.6100006103516
0, 0, 67, 164.1681976318359
0, 0, 68, 158.38818359375
0, 0, 69, 159.2268829345703
0, 0, 70, 169.4912567138672
0, 0, 71, 159.7421417236328
0, 0, 72, 162.0151214599609
0, 0, 73, 171.2036285400391
0, 0, 74, 163.3409576416016
0, 0, 75, 163.1917419433594
0, 0, 76, 165.0186309814453
0, 0, 77, 172.4209899902344
0, 0, 78, 182.1285095214844
0, 0, 79, 174.2122955322266
0, 0, 80, 159.1776275634766
0, 0, 81, 159.1940460205078
0, 0, 82, 183.5257720947266
0, 0, 83, 173.6633148193359
0, 0, 84, 159.8889770507812
0, 0, 85, 181.8500518798828
0, 0, 86, 158.4324188232422
0, 0, 87, 176.8367156982422
0, 0, 88, 176.9397888183594
0, 0, 89, 175.2007293701172
0, 0, 90, 160.3218078613281
0, 0, 91, 185.5948181152344
0, 0, 92, 163.4359283447266
0, 0, 93, 157.2695922851562
0, 0, 94, 168.7412261962891
0, 0, 95, 174.4876251220703
0, 0, 96, 183.2375640869141
0, 0, 97, 183.9592742919922
0, 0, 98, 184.9682312011719
0, 0, 99, 170.9040222167969
0, 0, 100, 157.4873352050781
0, 0, 101, 166.9909820556641
0, 0, 102, 169.9824981689453
0, 0, 103, 170.4665374755859
0, 0, 104, 168.8848266601562
0, 0, 105, 178.5080718994141
0, 0, 106, 158.5743560791016
0, 0, 107, 86.55754089355469
0, 0, 108, 21.23988151550293
0, 0, 109, 8.692709922790527
0, 0, 110, 6.860091209411621
0, 0, 111, 6.931164741516113
0, 0, 112, 3.477179288864136
0, 0, 113, 2.837298393249512
0, 0, 114, 2.765148401260376
0, 0, 115, 2.834489345550537
0, 0, 116, 1.710301041603088
0, 0, 117, 2.016686677932739
0, 0, 118, 3.265643358230591
0, 0, 119, 2.818719387054443
0, 0, 120, 1.366411209106445
0, 0, 121, 4.405776023864746
0, 0, 122, 3.829803705215454
0, 0, 123, 5.245296955108643
0, 0, 124, 1.762296080589294
0, 0, 125, 2.529459238052368
0, 0, 126, 1.103142738342285
0, 0, 127, 2.509941577911377
0, 1, 0, 0.9808042049407959
0, 1, 1, 5.198153018951416
0, 1, 2, 3.93916392326355
0, 1, 3, 2.142809629440308
0, 1, 4, 0.8087226748466492
0, 1, 5, 1.95458984375
0, 1, 6, 1.691400051116943
0, 1, 7, 2.133636474609375
0, 1, 8, 1.145522117614746
0, 1, 9, 1.915382146835327
0, 1, 10, 3.786754369735718
0, 1, 11, 3.770655870437622
0, 1, 12, 4.31306791305542
0, 1, 13, 2.445386171340942
0, 1, 14, 4.948480606079102
0, 1, 15, 5.748586654663086
0, 1, 16, 7.597077369689941
0, 1, 17, 5.327668190002441
0, 1, 18, 10.63184928894043
0, 1, 19, 38.09043502807617
0, 1, 20, 125.3342361450195
0, 1, 21, 178.4213409423828
0, 1, 22, 192.5017700195312
0, 1, 23, 186.7191467285156
0, 1, 24, 181.9250183105469
0, 1, 25, 190.9824523925781
0, 1, 26, 197.4150085449219
0, 1, 27, 185.3450317382812
0, 1, 28, 188.4026641845703
0, 1, 29, 183.9508514404297
0, 1, 30, 181.08544921875
0, 1, 31, 182.7494659423828
0, 1, 32, 189.2031707763672
0, 1, 33, 190.6045532226562
0, 1, 34, 183.0221710205078
0, 1, 35, 193.4900665283203
0, 1, 36, 206.1070098876953
0, 1, 37, 184.9018249511719
0, 1, 38, 164.3115081787109
0, 1, 39, 171.5710754394531
0, 1, 40, 178.981689453125
0, 1, 41, 184.7484893798828
0, 1, 42, 181.8949127197266
0, 1, 43, 184.5603179931641
0, 1, 44, 166.6400604248047
0, 1, 45, 187.9085693359375
0, 1, 46, 170.1390838623047
0, 1, 47, 185.1292572021484
0, 1, 48, 186.1287231445312
0, 1, 49, 186.2891693115234
0, 1, 50, 177.3632659912109
0, 1, 51, 190.8020935058594
0, 1, 52, 197.9407501220703
0, 1, 53, 196.3242797851562
0, 1, 54, 184.8278045654297
0, 1, 55, 165.6074066162109
0, 1, 56, 178.088623046875
0, 1, 57, 178.0398254394531
0, 1, 58, 188.5751953125
0, 1, 59, 193.6190643310547
0, 1, 60, 188.1257781982422
0, 1, 61, 177.5899658203125
0, 1, 62, 206.2026214599609
0, 1, 63, 174.9355926513672
0, 1, 64, 173.8768920898438
0, 1, 65, 185.3898620605469
0, 1, 66, 204.2575531005859
0, 1, 67, 182.8596801757812
0, 1, 68, 186.6641082763672
0, 1, 69, 188.4888305664062
0, 1, 70, 185.1922454833984
0, 1, 71, 171.9146270751953
0, 1, 72, 192.2068176269531
0, 1, 73, 190.2372894287109
0, 1, 74, 201.4123077392578
0, 1, 75, 184.0399322509766
0, 1, 76, 175.2620697021484
0, 1, 77, 191.5681304931641
0, 1, 78, 188.3194580078125
0, 1, 79, 202.4666290283203
0, 1, 80, 186.1844635009766
0, 1, 81, 174.5655212402344
0, 1, 82, 208.3055419921875
0, 1, 83, 210.9410247802734
0, 1, 84, 179.9407196044922
0, 1, 85, 170.8126831054688
0, 1, 86, 169.2307586669922
0, 1, 87, 184.5981903076172
0, 1, 88, 175.4950256347656
0, 1, 89, 188.3184356689453
0, 1, 90, 213.1559600830078
0, 1, 91, 181.206787109375
0, 1, 92, 184.461669921875
0, 1, 93, 180.6382751464844
0, 1, 94, 187.0636749267578
0, 1, 95, 184.3233184814453
0, 1, 96, 196.9755554199219
0, 1, 97, 182.9015502929688
0, 1, 98, 187.4714050292969
0, 1, 99, 176.5613708496094
0, 1, 100, 171.9671325683594
0, 1, 101, 177.3139343261719
0, 1, 102, 182.5775909423828
0, 1, 103, 173.0875701904297
0, 1, 104, 188.6439361572266
0, 1, 105, 180.7982330322266
0, 1, 106, 164.6363525390625
0, 1, 107, 124.1769866943359
0, 1, 108, 46.1200065612793
0, 1, 109, 9.795675277709961
0, 1, 110, 7.753878116607666
0, 1, 111, 7.815605640411377
0, 1, 112, 8.015473365783691
0, 1, 113, 6.738620281219482
0, 1, 114, 6.711743831634521
0, 1, 115, 5.844673156738281
0, 1, 116, 2.326827049255371
0, 1, 117, 2.374355316162109
0, 1, 118, 3.987849950790405
0, 1, 119, 1.355484008789062
0, 1, 120, 3.818079233169556
0, 1, 121, 4.994168281555176
0, 1, 122, 2.019752264022827
0, 1, 123, 2.231435537338257
0, 1, 124, 1.469108462333679
0, 1, 125, 2.521751642227173
0, 1, 126, 1.517276287078857
0, 1, 127, 1.989369511604309
0, 2, 0, 1.682639122009277
0, 2, 1, 2.259415149688721
0, 2, 2, 2.739471197128296
0, 2, 3, 1.943046092987061
0, 2, 4, 1.838327050209045
0, 2, 5, 1.396847724914551
0, 2, 6, 2.170899629592896
0, 2, 7, 2.657090663909912
0, 2, 8, 2.468221664428711
0, 2, 9, 4.081374645233154
0, 2, 10, 5.481773376464844
0, 2, 11, 3.894879579544067
0, 2, 12, 5.627519130706787
0, 2, 13, 4.014111995697021
0, 2, 14, 5.733052253723145
0, 2, 15, 7.587154865264893
0, 2, 16, 4.378707408905029
0, 2, 17, 9.002743721008301
0, 2, 18, 13.88719844818115
0, 2, 19, 78.12831878662109
0, 2, 20, 162.4387359619141
0, 2, 21, 182.8526306152344
0, 2, 22, 194.8023834228516
0, 2, 23, 185.9246978759766
0, 2, 24, 175.4071655273438
0, 2, 25, 185.2708587646484
0, 2, 26, 183.4332275390625
0, 2, 27, 192.5798645019531
0, 2, 28, 171.110107421875
0, 2, 29, 169.5929870605469
0, 2, 30, 184.4315948486328
0, 2, 31, 182.2206573486328
0, 2, 32, 183.7781677246094
0, 2, 33, 190.3220977783203
0, 2, 34, 195.3074798583984
0, 2, 35, 181.5797576904297
0, 2, 36, 186.0269165039062
0, 2, 37, 181.6971588134766
0, 2, 38, 183.8189849853516
0, 2, 39, 167.6987457275391
0, 2, 40, 184.4483795166016
0, 2, 41, 183.6154174804688
0, 2, 42, 189.9081726074219
0, 2, 43, 193.2345428466797
0, 2, 44, 191.2380981445312
0, 2, 45, 191.2601928710938
0, 2, 46, 195.5886688232422
0, 2, 47, 189.0111846923828
0, 2, 48, 177.6739349365234
0, 2, 49, 197.6377410888672
0, 2, 50, 169.7017059326172
0, 2, 51, 183.7683410644531
0, 2, 52, 185.8226470947266
0, 2, 53, 196.5098571777344
0, 2, 54, 176.3765106201172
0, 2, 55, 173.1800384521484
0, 2, 56, 181.2409057617188
0, 2, 57, 199.4333801269531
0, 2, 58, 187.2940979003906
0, 2, 59, 190.822998046875
0, 2, 60, 196.6475067138672
0, 2, 61, 193.6884460449219
0, 2, 62, 190.3943786621094
0, 2, 63, 169.4287414550781
0, 2, 64, 190.6688842773438
0, 2, 65, 204.7237091064453
0, 2, 66, 195.85888671875
0, 2, 67, 185.7605285644531
0, 2, 68, 182.5058288574219
0, 2, 69, 187.1289672851562
0, 2, 70, 203.2835540771484
0, 2, 71, 174.6051940917969
0, 2, 72, 185.6714019775391
0, 2, 73, 177.8543395996094
0, 2, 74, 180.6901702880859
0, 2, 75, 195.9426574707031
0, 2, 76, 184.1281280517578
0, 2, 77, 177.3747253417969
0, 2, 78, 198.3501281738281
0, 2, 79, 177.9784240722656
0, 2, 80, 189.5843963623047
0, 2, 81, 187.3515777587891
0, 2, 82, 206.1860656738281
0, 2, 83, 203.4410247802734
0, 2, 84, 187.9159393310547
0, 2, 85, 170.8264007568359
0, 2, 86, 194.3232574462891
0, 2, 87, 172.4671630859375
0, 2, 88, 180.8857574462891
0, 2, 89, 186.4033050537109
0, 2, 90, 178.5365905761719
0, 2, 91, 173.7750244140625
0, 2, 92, 196.6492156982422
0, 2, 93, 192.9604644775391
0, 2, 94, 199.3047332763672
0, 2, 95, 194.4628143310547
0, 2, 96, 186.8374176025391
0, 2, 97, 171.3851165771484
0, 2, 98, 174.1210632324219
0, 2, 99, 162.3457183837891
0, 2, 100, 187.8918914794922
0, 2, 101, 196.7080993652344
0, 2, 102, 176.3535461425781
0, 2, 103, 200.4611206054688
0, 2, 104, 187.1277465820312
0, 2, 105, 200.3043365478516
0, 2, 106, 196.6677551269531
0, 2, 107, 148.6691284179688
0, 2, 108, 78.6905517578125
0, 2, 109, 18.19271087646484
0, 2, 110, 7.536282539367676
0, 2, 111, 7.548471450805664
0, 2, 112, 4.571341037750244
0, 2, 113, 4.093184471130371
0, 2, 114, 6.500143051147461
0, 2, 115, 4.056911468505859
0, 2, 116, 1.670544624328613
0, 2, 117, 1.302404284477234
0, 2, 118, 2.911259651184082
0, 2, 119, 3.218657493591309
0, 2, 120, 1.836663603782654
0, 2, 121, 2.786091327667236
0, 2, 122, 1.905808568000793
0, 2, 123, 4.91285228729248
0, 2, 124, 1.939835548400879
0, 2, 125, 1.592089414596558
0, 2, 126, 2.849870920181274
0, 2, 127, 0.2166078239679337
0, 3, 0, 1.593747973442078
0, 3, 1, 1.99355685710907
0, 3, 2, 1.34688663482666
0, 3, 3, 1.84195613861084
0, 3, 4, 4.040422916412354
0, 3, 5, 1.032267332077026
0, 3, 6, 1.943415522575378
0, 3, 7, 1.675094723701477
0, 3, 8, 3.733227014541626
0, 3, 9, 2.61104679107666
0, 3, 10, 2.492669582366943
0, 3, 11, 3.661036252975464
0, 3, 12, 3.778842210769653
0, 3, 13, 5.145844459533691
0, 3, 14, 4.207253456115723
0, 3, 15, 5.848825454711914
0, 3, 16, 7.786483764648438
0, 3, 17, 6.139244079589844
0, 3, 18, 32.69278717041016
0, 3, 19, 115.3363418579102
0, 3, 20, 179.1625366210938
0, 3, 21, 172.6673736572266
0, 3, 22, 178.7969665527344
0, 3, 23, 187.0536956787109
0, 3, 24, 177.9853820800781
0, 3, 25, 168.4501800537109
0, 3, 26, 181.3542327880859
0, 3, 27, 190.201416015625
0, 3, 28, 182.1367492675781
0, 3, 29, 197.5637817382812
0, 3, 30, 184.6338348388672
0, 3, 31, 193.1777191162109
0, 3, 32, 205.5087585449219
0, 3, 33, 196.33740234375
0, 3, 34, 187.4052734375
0, 3, 35, 175.5737457275391
0, 3, 36, 185.797119140625
0, 3, 37, 200.1217041015625
0, 3, 38, 190.6365661621094
0, 3, 39, 183.9802093505859
0, 3, 40, 166.1707305908203
0, 3, 41, 174.4062957763672
0, 3, 42, 186.0589599609375
0, 3, 43, 181.3764038085938
0, 3, 44, 203.2504730224609
0, 3, 45, 206.6923370361328
0, 3, 46, 198.4029083251953
0, 3, 47, 193.8022003173828
0, 3, 48, 197.5737915039062
0, 3, 49, 181.3095550537109
0, 3, 50, 186.4652099609375
0, 3, 51, 174.1862030029297
0, 3, 52, 187.8079376220703
0, 3, 53, 178.0364990234375
0, 3, 54, 178.1108245849609
0, 3, 55, 176.8824462890625
0, 3, 56, 181.6903686523438
0, 3, 57, 175.8256225585938
0, 3, 58, 201.3739471435547
0, 3, 59, 195.7835845947266
0, 3, 60, 186.0333709716797
0, 3, 61, 181.2714233398438
0, 3, 62, 181.7424774169922
0, 3, 63, 183.1653900146484
0, 3, 64, 192.3572998046875
0, 3, 65, 188.7955017089844
0, 3, 66, 176.9975433349609
0, 3, 67, 190.60986328125
0, 3, 68, 212.9091949462891
0, 3, 69, 190.4709777832031
0, 3, 70, 185.8009185791016
0, 3, 71, 196.5065460205078
0, 3, 72, 185.44140625
0, 3, 73, 186.8004302978516
0, 3, 74, 192.7318267822266
0, 3, 75, 194.3461151123047
0, 3, 76, 190.7892608642578
0, 3, 77, 198.3935546875
0, 3, 78, 187.4064025878906
0, 3, 79, 185.7659759521484
0, 3, 80, 190.6576538085938
0, 3, 81, 183.7224731445312
0, 3, 82, 180.7566375732422
0, 3, 83, 194.2436828613281
0, 3, 84, 199.0841369628906
0, 3, 85, 191.1511688232422
0, 3, 86, 203.7096557617188
0, 3, 87, 197.64453125
0, 3, 88, 190.8322143554688
0, 3, 89, 193.4123840332031
0, 3, 90, 173.4935150146484
0, 3, 91, 155.5168762207031
0, 3, 92, 206.9458160400391
0, 3, 93, 195.7598266601562
0, 3, 94, 192.3114013671875
0, 3, 95, 212.8084716796875
0, 3, 96, 207.8742828369141
0, 3, 97, 167.0127258300781
0, 3, 98, 168.1637420654297
0, 3, 99, 179.7461853027344
0, 3, 100, 176.8860626220703
0, 3, 101, 198.4422302246094
0, 3, 102, 194.1864471435547
0, 3, 103, 192.2704772949219
0, 3, 104, 202.7728576660156
0, 3, 105, 175.2791748046875
0, 3, 106, 182.7066345214844
0, 3, 107, 169.2236022949219
0, 3, 108, 107.8308792114258
0, 3, 109, 27.24044609069824
0, 3, 110, 8.631322860717773
0, 3, 111, 7.174883365631104
0, 3, 112, 2.768129110336304
0, 3, 113, 7.002707481384277
0, 3, 114, 4.844167709350586
0, 3, 115, 6.222264766693115
0, 3, 116, 4.750825881958008
0, 3, 117, 3.071863651275635
0, 3, 118, 1.875172019004822
0, 3, 119, 2.301520824432373
0, 3, 120, 3.106353521347046
0, 3, 121, 1.742679357528687
0, 3, 122, 2.875082731246948
0, 3, 123, 0.7703000903129578
0, 3, 124, 3.350849628448486
0, 3, 125, 1.688709259033203
0, 3, 126, 2.53744101524353
0, 3, 127, 0.9428216218948364
0, 4, 0, 1.537087798118591
0, 4, 1, 0.4257918894290924
0, 4, 2, 2.613715648651123
0, 4, 3, 3.834293603897095
0, 4, 4, 1.978715896606445
0, 4, 5, 1.015853881835938
0, 4, 6, 3.288089752197266
0, 4, 7, 3.960446119308472
0, 4, 8, 1.870266318321228
0, 4, 9, 1.959266066551208
0, 4, 10, 3.671288728713989
0, 4, 11, 4.129279613494873
0, 4, 12, 3.732595920562744
0, 4, 13, 4.016852855682373
0, 4, 14, 4.579309463500977
0, 4, 15, 7.849733829498291
0, 4, 16, 7.08546781539917
0, 4, 17, 11.57559585571289
0, 4, 18, 55.01004791259766
0, 4, 19, 151.6264343261719
0, 4, 20, 192.3879852294922
0, 4, 21, 170.0630798339844
0, 4, 22, 187.1775207519531
0, 4, 23, 196.2659912109375
0, 4, 24, 193.2178649902344
0, 4, 25, 199.7086639404297
0, 4, 26, 183.7066802978516
0, 4, 27, 191.7727813720703
0, 4, 28, 178.1315460205078
0, 4, 29, 205.4390106201172
0, 4, 30, 194.7384338378906
0, 4, 31, 192.5274810791016
0, 4, 32, 209.0271453857422
0, 4, 33, 189.1951293945312
0, 4, 34, 191.9810638427734
0, 4, 35, 212.2533874511719
0, 4, 36, 192.53369140625
0, 4, 37, 176.4273834228516
0, 4, 38, 196.417724609375
0, 4, 39, 189.5623931884766
0, 4, 40, 185.3940582275391
0, 4, 41, 188.5870208740234
0, 4, 42, 206.5888061523438
0, 4, 43, 173.2801513671875
0, 4, 44, 183.4393463134766
0, 4, 45, 195.6050567626953
0, 4, 46, 186.2277069091797
0, 4, 47, 181.0660858154297
0, 4, 48, 186.6239471435547
0, 4, 49, 175.3412475585938
0, 4, 50, 185.3388366699219
0, 4, 51, 197.3798675537109
0, 4, 52, 222.7412109375
0, 4, 53, 205.4904022216797
0, 4, 54, 188.9073791503906
0, 4, 55, 175.1114654541016
0, 4, 56, 192.2470092773438
0, 4, 57, 191.4543304443359
0, 4, 58, 188.1007995605469
0, 4, 59, 189.0394439697266
0, 4, 60, 196.2867279052734
0, 4, 61, 193.0354766845703
0, 4, 62, 190.2618103027344
0, 4, 63, 177.5933380126953
0, 4, 64, 212.2010345458984
0, 4, 65, 191.5025634765625
0, 4, 66, 201.2749786376953
0, 4, 67, 199.9132385253906
0, 4, 68, 201.4334716796875
0, 4, 69, 199.8650970458984
0, 4, 70, 204.3525390625
0, 4, 71, 206.6192626953125
0, 4, 72, 214.6720581054688
0, 4, 73, 185.1467742919922
0, 4, 74, 179.4926147460938
0, 4, 75, 185.1238861083984
0, 4, 76, 193.9559326171875
0, 4, 77, 183.7549896240234
0, 4, 78, 194.986328125
0, 4, 79, 203.6583404541016
0, 4, 80, 211.6187744140625
0, 4, 81, 198.0264434814453
0, 4, 82, 181.1049194335938
0, 4, 83, 169.2277374267578
0, 4, 84, 192.3605499267578
0, 4, 85, 198.3905334472656
0, 4, 86, 182.7745666503906
0, 4, 87, 182.9568481445312
0, 4, 88, 204.8500213623047
0, 4, 89, 188.4889068603516
0, 4, 90, 211.5815887451172
0, 4, 91, 189.0843505859375
0, 4, 92, 197.0936737060547
0, 4, 93, 197.0128784179688
0, 4, 94, 182.1926727294922
0, 4, 95, 173.6001281738281
0, 4, 96, 190.4201812744141
0, 4, 97, 194.2047882080078
0, 4, 98, 200.6783294677734
0, 4, 99, 185.0362548828125
0, 4, 100, 184.0569152832031
0, 4, 101, 178.1135101318359
0, 4, 102, 172.74169921875
0, 4, 103, 185.3445739746094
0, 4, 104, 208.9527893066406
0, 4, 105, 190.15234375
0, 4, 106, 180.9577941894531
0, 4, 107, 181.5469818115234
0, 4, 108, 151.8104553222656
0, 4, 109, 51.27220153808594
0, 4, 110, 11.48957443237305
0, 4, 111, 7.040474414825439
0, 4, 112, 6.305044174194336
0, 4, 113, 7.40006685256958
0, 4, 114, 4.845124244689941
0, 4, 115, 4.155738830566406
0, 4, 116, 5.691492557525635
0, 4, 117, 2.919291734695435
0, 4, 118, 2.961441040039062
0, 4, 119, 4.104554176330566
0, 4, 120, 2.239804029464722
0, 4, 121, 2.178543329238892
0, 4, 122, 3.356187105178833
0, 4, 123, 2.731674671173096
0, 4, 124, 3.087491989135742
0, 4, 125, 2.780112743377686
0, 4, 126, 3.256458759307861
0, 4, 127, 0.974118173122406
0, 5, 0, 2.480835914611816
0, 5, 1, 4.753845691680908
0, 5, 2, 6.395934104919434
0, 5, 3, 3.983629703521729
0, 5, 4, 3.144171714782715
0, 5, 5, 2.328502416610718
0, 5, 6, 2.501522064208984
0, 5, 7, 2.374498605728149
0, 5, 8, 1.79489266872406
0, 5, 9, 2.326057195663452
0, 5, 10, 3.583594799041748
0, 5, 11, 4.842033863067627
0, 5, 12, 2.752272605895996
0, 5, 13, 3.962701797485352
0, 5, 14, 5.612627029418945
0, 5, 15, 9.428311347961426
0, 5, 16, 7.255215644836426
0, 5, 17, 21.58269119262695
0, 5, 18, 83.38504028320312
0, 5, 19, 167.2477874755859
0, 5, 20, 184.4495239257812
0, 5, 21, 177.4445190429688
0, 5, 22, 170.8886871337891
0, 5, 23, 200.9202575683594
0, 5, 24, 187.5710601806641
0, 5, 25, 207.0902404785156
0, 5, 26, 181.7356262207031
0, 5, 27, 194.7653656005859
0, 5, 28, 189.8676452636719
0, 5, 29, 195.5038604736328
0, 5, 30, 180.0466003417969
0, 5, 31, 181.3462829589844
0, 5, 32, 188.5052947998047
0, 5, 33, 170.3877410888672
0, 5, 34, 194.9766998291016
0, 5, 35, 196.7872314453125
0, 5, 36, 168.9553527832031
0, 5, 37, 197.3700866699219
0, 5, 38, 180.4544830322266
0, 5, 39, 188.00439453125
0, 5, 40, 196.2516784667969
0, 5, 41, 176.4501495361328
0, 5, 42, 188.0809936523438
0, 5, 43, 192.7530822753906
0, 5, 44, 200.2209930419922
0, 5, 45, 188.8064880371094
0, 5, 46, 193.2112731933594
0, 5, 47, 179.4457855224609
0, 5, 48, 179.2743072509766
0, 5, 49, 176.9278717041016
0, 5, 50, 185.9656982421875
0, 5, 51, 172.3118743896484
0, 5, 52, 167.7463836669922
0, 5, 53, 181.5766143798828
0, 5, 54, 172.59619140625
0, 5, 55, 215.3319396972656
0, 5, 56, 180.9814910888672
0, 5, 57, 207.4716339111328
0, 5, 58, 182.4686889648438
0, 5, 59, 180.6451721191406
0, 5, 60, 219.3145599365234
0, 5, 61, 184.6238861083984
0, 5, 62, 178.2397155761719
0, 5, 63, 180.8945007324219
0, 5, 64, 195.1108093261719
0, 5, 65, 211.2350769042969
0, 5, 66, 192.2731018066406
0, 5, 67, 200.297119140625
0, 5, 68, 186.1009826660156
0, 5, 69, 186.6528167724609
0, 5, 70, 184.4727478027344
0, 5, 71, 193.1473236083984
0, 5, 72, 197.5798645019531
0, 5, 73, 201.3852996826172
0, 5, 74, 181.4222869873047
0, 5, 75, 204.4270935058594
0, 5, 76, 216.5143280029297
0, 5, 77, 182.6220703125
0, 5, 78, 194.9935150146484
0, 5, 79, 189.9822998046875
0, 5, 80, 197.3567047119141
0, 5, 81, 202.8553466796875
0, 5, 82, 201.3736572265625
0, 5, 83, 189.6124725341797
0, 5, 84, 206.2238159179688
0, 5, 85, 175.6477813720703
0, 5, 86, 195.0803527832031
0, 5, 87, 188.4145965576172
0, 5, 88, 176.6147308349609
0, 5, 89, 194.0356597900391
0, 5, 90, 198.7482147216797
0, 5, 91, 195.1903076171875
0, 5, 92, 191.0803985595703
0, 5, 93, 192.6144104003906
0, 5, 94, 207.5672760009766
0, 5, 95, 177.3198852539062
0, 5, 96, 182.7473449707031
0, 5, 97, 191.376953125
0, 5, 98, 188.945068359375
0, 5, 99, 195.9844970703125
0, 5, 100, 185.2985229492188
0, 5, 101, 195.3686676025391
0, 5, 102, 181.2794036865234
0, 5, 103, 176.6756286621094
0, 5, 104, 189.8330841064453
0, 5, 105, 189.6604766845703
0, 5, 106, 178.2896881103516
0, 5, 107, 181.6427764892578
0, 5, 108, 176.5458984375
0, 5, 109, 89.88117980957031
0, 5, 110, 30.66499710083008
0, 5, 111, 9.584561347961426
0, 5, 112, 6.542736530303955
0, 5, 113, 5.955737590789795
0, 5, 114, 6.791018009185791
0, 5, 115, 6.8160080909729
0, 5, 116, 4.591138362884521
0, 5, 117, 4.517158031463623
0, 5, 118, 3.459887981414795
0, 5, 119, 3.449761152267456
0, 5, 120, 2.607479333877563
0, 5, 121, 1.054745078086853
0, 5, 122, 2.14874529838562
0, 5, 123, 3.591214656829834
0, 5, 124, 2.528747320175171
0, 5, 125, 0.7067021727561951
0, 5, 126, 1.855534553527832
0, 5, 127, 2.609884023666382
0, 6, 0, 3.473243951797485
0, 6, 1, 2.942683219909668
0, 6, 2, 2.989994764328003
0, 6, 3, 3.415482044219971
0, 6, 4, 3.291261911392212
0, 6, 5, 3.732340335845947
0, 6, 6, 3.864105463027954
0, 6, 7, 4.326249599456787
0, 6, 8, 4.16890287399292
0, 6, 9, 2.658463478088379
0, 6, 10, 6.655327796936035
0, 6, 11, 3.944134712219238
0, 6, 12, 9.201615333557129
0, 6, 13, 5.789021968841553
0, 6, 14, 5.550253391265869
0, 6, 15, 6.633767127990723
0, 6, 16, 12.44188499450684
0, 6, 17, 29.11503601074219
0, 6, 18, 112.3245010375977
0, 6, 19, 192.2671661376953
0, 6, 20, 194.3337707519531
0, 6, 21, 199.5504760742188
0, 6, 22, 192.1085968017578
0, 6, 23, 191.1737670898438
0, 6, 24, 200.9634704589844
0, 6, 25, 183.2892608642578
0, 6, 26, 187.4000244140625
0, 6, 27, 192.0687255859375
0, 6, 28, 189.3836517333984
0, 6, 29, 210.6974945068359
0, 6, 30, 190.4275665283203
0, 6, 31, 192.7510833740234
0, 6, 32, 206.4903717041016
0, 6, 33, 185.6818389892578
0, 6, 34, 197.3161926269531
0, 6, 35, 189.3204956054688
0, 6, 36, 180.9473114013672
0, 6, 37, 182.8824615478516
0, 6, 38, 185.4397430419922
0, 6, 39, 194.4553680419922
0, 6, 40, 175.0630645751953
0, 6, 41, 185.4676971435547
0, 6, 42, 173.4324645996094
0, 6, 43, 210.0120239257812
0, 6, 44, 208.9200744628906
0, 6, 45, 193.5439758300781
0, 6, 46, 189.4666748046875
0, 6, 47, 204.3032531738281
0, 6, 48, 190.1486358642578
0, 6, 49, 179.9566345214844
0, 6, 50, 181.5657043457031
0, 6, 51, 195.3980255126953
0, 6, 52, 197.8631896972656
0, 6, 53, 184.7288208007812
0, 6, 54, 175.1739044189453
0, 6, 55, 194.1009368896484
0, 6, 56, 203.4352874755859
0, 6, 57, 191.1013336181641
0, 6, 58, 179.0946807861328
0, 6, 59, 192.2866058349609
0, 6, 60, 183.4005584716797
0, 6, 61, 194.0931549072266
0, 6, 62, 196.2039794921875
0, 6, 63, 186.4134979248047
0, 6, 64, 169.4985656738281
0, 6, 65, 185.9892883300781
0, 6, 66, 196.9288787841797
0, 6, 67, 214.0670623779297
0, 6, 68, 181.8425903320312
0, 6, 69, 171.6080780029297
0, 6, 70, 187.1369323730469
0, 6, 71, 170.4683837890625
0, 6, 72, 176.6512756347656
0, 6, 73, 177.0197296142578
0, 6, 74, 209.7497406005859
0, 6, 75, 226.287353515625
0, 6, 76, 183.7661895751953
0, 6, 77, 171.9322204589844
0, 6, 78, 176.6046905517578
0, 6, 79, 186.3146057128906
0, 6, 80, 187.3101501464844
0, 6, 81, 208.9948577880859
0, 6, 82, 196.0767517089844
0, 6, 83, 194.8235931396484
0, 6, 84, 197.4449310302734
0, 6, 85, 183.6341247558594
0, 6, 86, 201.6231994628906
0, 6, 87, 182.41796875
0, 6, 88, 192.3506011962891
0, 6, 89, 189.7048187255859
0, 6, 90, 205.6371765136719
0, 6, 91, 200.1438293457031
0, 6, 92, 173.8136291503906
0, 6, 93, 192.7593994140625
0, 6, 94, 189.1134338378906
0, 6, 95, 186.0073089599609
0, 6, 96, 190.0733032226562
0, 6, 97, 193.6346588134766
0, 6, 98, 182.5026397705078
0, 6, 99, 175.033447265625
0, 6, 100, 201.1362457275391
0, 6, 101, 168.4076080322266
0, 6, 102, 201.9114532470703
0, 6, 103, 196.5957489013672
0, 6, 104, 183.4867401123047
0, 6, 105, 193.5339050292969
0, 6, 106, 177.2586975097656
0, 6, 107, 195.5655212402344
0, 6, 108, 171.3033905029297
0, 6, 109, 115.376823425293
0, 6, 110, 34.69964599609375
0, 6, 111, 8.575981140136719
0, 6, 112, 8.617561340332031
0, 6, 113, 5.356340885162354
0, 6, 114, 4.959389686584473
0, 6, 115, 6.281039237976074
0, 6, 116, 4.241932392120361
0, 6, 117, 4.054853916168213
0, 6, 118, 3.069689273834229
0, 6, 119, 5.238370418548584
0, 6, 120, 2.263646125793457
0, 6, 121, 4.530592918395996
0, 6, 122, 3.111706972122192
0, 6, 123, 1.726200819015503
0, 6, 124, 2.836593627929688
0, 6, 125, 2.421009540557861
0, 6, 126, 2.427846431732178
0, 6, 127, 2.840955495834351
0, 7, 0, 2.784335613250732
0, 7, 1, 1.065175652503967
0, 7, 2, 1.871226668357849
0, 7, 3, 2.808108568191528
0, 7, 4, 0.5737671256065369
0, 7, 5, 1.378331065177917
0, 7, 6, 4.088569641113281
0, 7, 7, 1.761978149414062
0, 7, 8, 3.402706861495972
0, 7, 9, 2.885004043579102
0, 7, 10, 4.958929538726807
0, 7, 11, 4.301099300384521
0, 7, 12, 5.152742385864258
0, 7, 13, 5.376388549804688
0, 7, 14, 6.116988658905029
0, 7, 15, 7.021926403045654
0, 7, 16, 15.08786296844482
0, 7, 17, 50.53650283813477
0, 7, 18, 161.7624969482422
0, 7, 19, 183.781005859375
0, 7, 20, 179.1215667724609
0, 7, 21, 179.8626403808594
0, 7, 22, 192.1210479736328
0, 7, 23, 202.9519348144531
0, 7, 24, 180.03271484375
0, 7, 25, 211.977294921875
0, 7, 26, 189.054931640625
0, 7, 27, 183.7339782714844
0, 7, 28, 182.9347076416016
0, 7, 29, 208.9994964599609
0, 7, 30, 192.1089782714844
0, 7, 31, 175.435302734375
0, 7, 32, 191.0892791748047
0, 7, 33, 179.0592956542969
0, 7, 34, 192.7708129882812
0, 7, 35, 196.3453674316406
0, 7, 36, 187.0295257568359
0, 7, 37, 212.0314483642578
0, 7, 38, 190.8205261230469
0, 7, 39, 174.4367523193359
0, 7, 40, 183.7194366455078
0, 7, 41, 185.1600189208984
0, 7, 42, 177.4113616943359
0, 7, 43, 177.2481842041016
0, 7, 44, 181.02587890625
0, 7, 45, 174.9237518310547
0, 7, 46, 187.7024993896484
0, 7, 47, 197.4736938476562
0, 7, 48, 185.2500762939453
0, 7, 49, 197.6084899902344
0, 7, 50, 187.9678497314453
0, 7, 51, 204.5383453369141
0, 7, 52, 204.0616912841797
0, 7, 53, 191.9591827392578
0, 7, 54, 196.6155090332031
0, 7, 55, 203.0371704101562
0, 7, 56, 183.2798767089844
0, 7, 57, 183.3887481689453
0, 7, 58, 191.0704040527344
0, 7, 59, 186.7755889892578
0, 7, 60, 204.2505340576172
0, 7, 61, 170.6521911621094
0, 7, 62, 202.6903228759766
0, 7, 63, 188.3532562255859
0, 7, 64, 199.6988067626953
0, 7, 65, 195.7635955810547
0, 7, 66, 205.809814453125
0, 7, 67, 219.59521484375
0, 7, 68, 162.2903747558594
0, 7, 69, 193.4738311767578
0, 7, 70, 217.0655822753906
0, 7, 71, 183.7793731689453
0, 7, 72, 182.21826171875
0, 7, 73, 176.5941314697266
0, 7, 74, 207.7157745361328
0, 7, 75, 205.3656921386719
0, 7, 76, 214.8344421386719
0, 7, 77, 173.0356903076172
0, 7, 78, 177.1739349365234
0, 7, 79, 193.2100219726562
0, 7, 80, 196.8568115234375
0, 7, 81, 214.4013519287109
0, 7, 82, 185.8352813720703
0, 7, 83, 205.726318359375
0, 7, 84, 192.6013488769531
0, 7, 85, 186.7712249755859
0, 7, 86, 200.6246643066406
0, 7, 87, 224.3518829345703
0, 7, 88, 195.1719970703125
0, 7, 89, 177.5019683837891
0, 7, 90, 182.8350830078125
0, 7, 91, 193.8376617431641
0, 7, 92, 194.3425598144531
0, 7, 93, 197.8913421630859
0, 7, 94, 176.2652435302734
0, 7, 95, 197.2456665039062
0, 7, 96, 209.0072937011719
0, 7, 97, 189.194091796875
0, 7, 98, 176.2640228271484
0, 7, 99, 196.6765441894531
0, 7, 100, 182.3247528076172
0, 7, 101, 199.5707855224609
0, 7, 102, 184.8881683349609
0, 7, 103, 180.8215789794922
0, 7, 104, 175.7916870117188
0, 7, 105, 196.5339660644531
0, 7, 106, 205.7537231445312
0, 7, 107, 172.9968566894531
0, 7, 108, 177.9263305664062
0, 7, 109, 138.0252227783203
0, 7, 110, 55.07931518554688
0, 7, 111, 8.943711280822754
0, 7, 112, 7.9862060546875
0, 7, 113, 8.848077774047852
0, 7, 114, 7.433643817901611
0, 7, 115, 7.056880474090576
0, 7, 116, 3.909105062484741
0, 7, 117, 2.678940534591675
0, 7, 118, 3.860053777694702
0, 7, 119, 3.073583841323853
0, 7, 120, 2.176108837127686
0, 7, 121, 2.631038904190063
0, 7, 122, 4.93746280670166
0, 7, 123, 2.512612342834473
0, 7, 124, 2.588820934295654
0, 7, 125, 1.332414388656616
0, 7, 126, 3.639127492904663
0, 7, 127, 4.013454914093018
0, 8, 0, 6.211357593536377
0, 8, 1, 3.131078720092773
0, 8, 2, 1.996358394622803
0, 8, 3, 3.089509248733521
0, 8, 4, 0.9038900136947632
0, 8, 5, 2.634929895401001
0, 8, 6, 1.212240695953369
0, 8, 7, 2.460453510284424
0, 8, 8, 3.595969200134277
0, 8, 9, 5.461390495300293
0, 8, 10, 2.410439252853394
0, 8, 11, 2.482155084609985
0, 8, 12, 4.275039196014404
0, 8, 13, 4.283203125
0, 8, 14, 7.559862613677979
0, 8, 15, 9.080991744995117
0, 8, 16, 20.48195457458496
0, 8, 17, 76.29911804199219
0, 8, 18, 141.9613952636719
0, 8, 19, 180.2282867431641
0, 8, 20, 192.3821258544922
0, 8, 21, 193.9741668701172
0, 8, 22, 179.9183349609375
0, 8, 23, 172.8744506835938
0, 8, 24, 191.5664520263672
0, 8, 25, 184.5430603027344
0, 8, 26, 192.3362731933594
0, 8, 27, 186.6005859375
0, 8, 28, 187.6266326904297
0, 8, 29, 208.4725341796875
0, 8, 30, 197.3447875976562
0, 8, 31, 182.4698791503906
0, 8, 32, 197.7575225830078
0, 8, 33, 206.3977508544922
0, 8, 34, 202.6666870117188
0, 8, 35, 185.2503051757812
0, 8, 36, 182.0044708251953
0, 8, 37, 200.7459259033203
