# TOPAS Version: 3.1.p3
# Parameter File: batch_inserts_302.txt
# Results for scorer Readout_Adipose
# Scored in component: MyBox
# X in 1 bin  of 0.65 cm
# Y in 512 bins of 0.0783984 cm
# Z in 128 bins of 0.078125 cm
# EnergyDeposit ( MeV ) : Sum   
0, 0, 0, 2.468819141387939
0, 0, 1, 2.83129096031189
0, 0, 2, 3.08088231086731
0, 0, 3, 1.048300385475159
0, 0, 4, 1.383788228034973
0, 0, 5, 0.9180968999862671
0, 0, 6, 1.625269055366516
0, 0, 7, 2.003653764724731
0, 0, 8, 1.896067500114441
0, 0, 9, 1.797434210777283
0, 0, 10, 1.634099125862122
0, 0, 11, 3.118606805801392
0, 0, 12, 5.387528896331787
0, 0, 13, 2.177471160888672
0, 0, 14, 4.954076290130615
0, 0, 15, 5.7414870262146
0, 0, 16, 5.240014553070068
0, 0, 17, 5.439084053039551
0, 0, 18, 7.463754653930664
0, 0, 19, 23.26679611206055
0, 0, 20, 94.41460418701172
0, 0, 21, 152.5203247070312
0, 0, 22, 154.41162109375
0, 0, 23, 143.8815002441406
0, 0, 24, 159.5564270019531
0, 0, 25, 167.3551788330078
0, 0, 26, 167.2227935791016
0, 0, 27, 175.0292663574219
0, 0, 28, 176.8294372558594
0, 0, 29, 174.7754058837891
0, 0, 30, 173.5886535644531
0, 0, 31, 166.1759948730469
0, 0, 32, 165.0359802246094
0, 0, 33, 168.1911010742188
0, 0, 34, 176.3292541503906
0, 0, 35, 173.7773284912109
0, 0, 36, 159.8681640625
0, 0, 37, 161.2770080566406
0, 0, 38, 166.34130859375
0, 0, 39, 159.5957794189453
0, 0, 40, 164.8353881835938
0, 0, 41, 165.6513977050781
0, 0, 42, 144.7545928955078
0, 0, 43, 168.5311279296875
0, 0, 44, 178.7800750732422
0, 0, 45, 173.1039428710938
0, 0, 46, 166.6263885498047
0, 0, 47, 167.9840087890625
0, 0, 48, 172.2154998779297
0, 0, 49, 183.3609161376953
0, 0, 50, 170.6087188720703
0, 0, 51, 163.5325775146484
0, 0, 52, 162.5251312255859
0, 0, 53, 170.7631225585938
0, 0, 54, 159.6883850097656
0, 0, 55, 164.7730712890625
0, 0, 56, 188.8131866455078
0, 0, 57, 169.8743743896484
0, 0, 58, 161.6794891357422
0, 0, 59, 172.7532806396484
0, 0, 60, 169.8253784179688
0, 0, 61, 169.7999114990234
0, 0, 62, 183.7170257568359
0, 0, 63, 169.3855285644531
0, 0, 64, 166.0434875488281
0, 0, 65, 173.7333679199219
0, 0, 66, 178.4292755126953
0, 0, 67, 163.2948455810547
0, 0, 68, 159.2741851806641
0, 0, 69, 159.1315155029297
0, 0, 70, 169.2335510253906
0, 0, 71, 158.7892150878906
0, 0, 72, 164.0912780761719
0, 0, 73, 171.2291259765625
0, 0, 74, 163.6098937988281
0, 0, 75, 163.4107818603516
0, 0, 76, 164.3289794921875
0, 0, 77, 172.568115234375
0, 0, 78, 181.0828247070312
0, 0, 79, 174.3256683349609
0, 0, 80, 161.2266693115234
0, 0, 81, 160.7594604492188
0, 0, 82, 181.0847930908203
0, 0, 83, 173.3246612548828
0, 0, 84, 160.1439056396484
0, 0, 85, 181.8537445068359
0, 0, 86, 157.7267913818359
0, 0, 87, 176.6242218017578
0, 0, 88, 176.5245666503906
0, 0, 89, 176.1442565917969
0, 0, 90, 160.5255279541016
0, 0, 91, 184.5284881591797
0, 0, 92, 164.1310424804688
0, 0, 93, 155.2297973632812
0, 0, 94, 168.3373718261719
0, 0, 95, 173.8916473388672
0, 0, 96, 183.5533905029297
0, 0, 97, 183.4600830078125
0, 0, 98, 186.2213287353516
0, 0, 99, 172.2958221435547
0, 0, 100, 157.9744415283203
0, 0, 101, 166.5658569335938
0, 0, 102, 169.9464416503906
0, 0, 103, 170.8403625488281
0, 0, 104, 169.2225952148438
0, 0, 105, 178.1813659667969
0, 0, 106, 158.6931610107422
0, 0, 107, 87.1663818359375
0, 0, 108, 22.25636672973633
0, 0, 109, 9.431597709655762
0, 0, 110, 7.46150016784668
0, 0, 111, 7.549535274505615
0, 0, 112, 2.77385425567627
0, 0, 113, 2.874416828155518
0, 0, 114, 2.6125328540802
0, 0, 115, 3.636165380477905
0, 0, 116, 1.690630555152893
0, 0, 117, 2.154880523681641
0, 0, 118, 2.636003017425537
0, 0, 119, 2.055762767791748
0, 0, 120, 1.492300629615784
0, 0, 121, 4.479705810546875
0, 0, 122, 4.223287582397461
0, 0, 123, 2.874004125595093
0, 0, 124, 1.585494518280029
0, 0, 125, 2.180631160736084
0, 0, 126, 0.6413279175758362
0, 0, 127, 2.319426298141479
0, 1, 0, 1.164996147155762
0, 1, 1, 3.846399784088135
0, 1, 2, 3.771839141845703
0, 1, 3, 1.132943868637085
0, 1, 4, 0.565805971622467
0, 1, 5, 2.536654949188232
0, 1, 6, 1.172575831413269
0, 1, 7, 2.047055006027222
0, 1, 8, 3.960742950439453
0, 1, 9, 1.983510136604309
0, 1, 10, 3.723000288009644
0, 1, 11, 4.004700660705566
0, 1, 12, 3.598742008209229
0, 1, 13, 2.999425411224365
0, 1, 14, 5.016158580780029
0, 1, 15, 5.645763397216797
0, 1, 16, 8.22138500213623
0, 1, 17, 5.970460891723633
0, 1, 18, 11.56314659118652
0, 1, 19, 38.70567321777344
0, 1, 20, 126.1990432739258
0, 1, 21, 177.115478515625
0, 1, 22, 193.1629333496094
0, 1, 23, 186.3624725341797
0, 1, 24, 180.3641815185547
0, 1, 25, 191.4570922851562
0, 1, 26, 198.8217010498047
0, 1, 27, 186.7985992431641
0, 1, 28, 188.4029083251953
0, 1, 29, 183.8185272216797
0, 1, 30, 179.1837158203125
0, 1, 31, 182.3224945068359
0, 1, 32, 188.8235778808594
0, 1, 33, 189.1533660888672
0, 1, 34, 183.8102874755859
0, 1, 35, 193.2879486083984
0, 1, 36, 206.6425933837891
0, 1, 37, 185.8115997314453
0, 1, 38, 164.8437652587891
0, 1, 39, 171.4295806884766
0, 1, 40, 179.6434478759766
0, 1, 41, 184.7123565673828
0, 1, 42, 183.9263305664062
0, 1, 43, 185.1944274902344
0, 1, 44, 166.8777160644531
0, 1, 45, 187.9185791015625
0, 1, 46, 170.2326049804688
0, 1, 47, 185.0486755371094
0, 1, 48, 187.7296447753906
0, 1, 49, 186.5684356689453
0, 1, 50, 176.8218383789062
0, 1, 51, 189.6649169921875
0, 1, 52, 195.4666442871094
0, 1, 53, 195.6830291748047
0, 1, 54, 184.3378295898438
0, 1, 55, 164.4847259521484
0, 1, 56, 179.2016296386719
0, 1, 57, 178.2859191894531
0, 1, 58, 187.9443206787109
0, 1, 59, 193.5781097412109
0, 1, 60, 187.2497711181641
0, 1, 61, 178.4322052001953
0, 1, 62, 205.5330657958984
0, 1, 63, 174.8542938232422
0, 1, 64, 172.9524078369141
0, 1, 65, 184.3525695800781
0, 1, 66, 203.7969055175781
0, 1, 67, 183.2205047607422
0, 1, 68, 186.6380310058594
0, 1, 69, 188.8726196289062
0, 1, 70, 185.4141082763672
0, 1, 71, 171.1603088378906
0, 1, 72, 188.3734893798828
0, 1, 73, 190.462646484375
0, 1, 74, 201.1504516601562
0, 1, 75, 185.0639190673828
0, 1, 76, 174.7854461669922
0, 1, 77, 191.5867004394531
0, 1, 78, 190.2641906738281
0, 1, 79, 203.4302825927734
0, 1, 80, 186.0621795654297
0, 1, 81, 174.6970367431641
0, 1, 82, 208.8284606933594
0, 1, 83, 211.3183135986328
0, 1, 84, 179.9503173828125
0, 1, 85, 169.8353729248047
0, 1, 86, 168.986083984375
0, 1, 87, 184.7182464599609
0, 1, 88, 175.1783599853516
0, 1, 89, 188.613037109375
0, 1, 90, 214.2166290283203
0, 1, 91, 181.5568542480469
0, 1, 92, 183.9296569824219
0, 1, 93, 182.0406494140625
0, 1, 94, 186.4958038330078
0, 1, 95, 183.4878234863281
0, 1, 96, 195.8956756591797
0, 1, 97, 182.1980590820312
0, 1, 98, 186.540771484375
0, 1, 99, 175.8102874755859
0, 1, 100, 174.0040588378906
0, 1, 101, 178.6705322265625
0, 1, 102, 182.7693176269531
0, 1, 103, 172.6046905517578
0, 1, 104, 189.5562286376953
0, 1, 105, 180.9135437011719
0, 1, 106, 163.6602783203125
0, 1, 107, 124.2335433959961
0, 1, 108, 46.01400756835938
0, 1, 109, 10.0720100402832
0, 1, 110, 7.881208896636963
0, 1, 111, 7.244874000549316
0, 1, 112, 8.098550796508789
0, 1, 113, 7.257511615753174
0, 1, 114, 4.839676856994629
0, 1, 115, 4.474817752838135
0, 1, 116, 3.346705436706543
0, 1, 117, 3.10664176940918
0, 1, 118, 4.573877334594727
0, 1, 119, 0.800972044467926
0, 1, 120, 3.03386378288269
0, 1, 121, 4.948944091796875
0, 1, 122, 1.606237173080444
0, 1, 123, 5.422146320343018
0, 1, 124, 2.274871349334717
0, 1, 125, 2.048424482345581
0, 1, 126, 1.703310489654541
0, 1, 127, 1.048796892166138
0, 2, 0, 1.197077393531799
0, 2, 1, 1.54771089553833
0, 2, 2, 2.904486894607544
0, 2, 3, 2.245429039001465
0, 2, 4, 1.395451784133911
0, 2, 5, 1.102477788925171
0, 2, 6, 1.890406727790833
0, 2, 7, 1.14173424243927
0, 2, 8, 2.016664981842041
0, 2, 9, 2.547651052474976
0, 2, 10, 5.294276714324951
0, 2, 11, 4.267746925354004
0, 2, 12, 3.549970388412476
0, 2, 13, 3.056967496871948
0, 2, 14, 5.433819770812988
0, 2, 15, 8.533788681030273
0, 2, 16, 4.916072368621826
0, 2, 17, 9.121481895446777
0, 2, 18, 14.02989101409912
0, 2, 19, 78.9757080078125
0, 2, 20, 163.0899810791016
0, 2, 21, 184.6614379882812
0, 2, 22, 194.7874755859375
0, 2, 23, 184.4930572509766
0, 2, 24, 173.7423248291016
0, 2, 25, 183.7165985107422
0, 2, 26, 179.4115142822266
0, 2, 27, 190.6676177978516
0, 2, 28, 172.0529174804688
0, 2, 29, 168.6186218261719
0, 2, 30, 186.94873046875
0, 2, 31, 184.4390411376953
0, 2, 32, 182.8614196777344
0, 2, 33, 190.2549285888672
0, 2, 34, 196.1523132324219
0, 2, 35, 181.0214080810547
0, 2, 36, 185.9185028076172
0, 2, 37, 180.4842529296875
0, 2, 38, 184.1756439208984
0, 2, 39, 167.35498046875
0, 2, 40, 184.0950469970703
0, 2, 41, 184.6624145507812
0, 2, 42, 189.5747375488281
0, 2, 43, 194.5267028808594
0, 2, 44, 191.473876953125
0, 2, 45, 190.0760803222656
0, 2, 46, 196.1907653808594
0, 2, 47, 189.0753631591797
0, 2, 48, 176.7622528076172
0, 2, 49, 197.0496520996094
0, 2, 50, 169.353759765625
0, 2, 51, 184.2008209228516
0, 2, 52, 185.9998931884766
0, 2, 53, 195.0800323486328
0, 2, 54, 176.6852569580078
0, 2, 55, 174.027099609375
0, 2, 56, 181.0211181640625
0, 2, 57, 199.0028991699219
0, 2, 58, 186.0096740722656
0, 2, 59, 189.3133392333984
0, 2, 60, 196.6289215087891
0, 2, 61, 192.8624877929688
0, 2, 62, 189.9637451171875
0, 2, 63, 169.8982543945312
0, 2, 64, 189.0848999023438
0, 2, 65, 202.0732879638672
0, 2, 66, 196.4038391113281
0, 2, 67, 185.1740417480469
0, 2, 68, 184.142333984375
0, 2, 69, 187.1761474609375
0, 2, 70, 203.9111328125
0, 2, 71, 175.7647857666016
0, 2, 72, 186.4582977294922
0, 2, 73, 177.2164611816406
0, 2, 74, 179.9423675537109
0, 2, 75, 195.8660430908203
0, 2, 76, 183.9059448242188
0, 2, 77, 177.5282287597656
0, 2, 78, 198.5379638671875
0, 2, 79, 178.6377105712891
0, 2, 80, 187.4296875
0, 2, 81, 187.1883850097656
0, 2, 82, 206.4565124511719
0, 2, 83, 203.7846069335938
0, 2, 84, 188.1423797607422
0, 2, 85, 170.0188140869141
0, 2, 86, 194.3020782470703
0, 2, 87, 171.7284240722656
0, 2, 88, 179.1060028076172
0, 2, 89, 186.0531463623047
0, 2, 90, 178.8830108642578
0, 2, 91, 172.3026275634766
0, 2, 92, 196.7792358398438
0, 2, 93, 191.9003295898438
0, 2, 94, 200.4604187011719
0, 2, 95, 193.4987030029297
0, 2, 96, 187.7209320068359
0, 2, 97, 172.0516967773438
0, 2, 98, 172.7660522460938
0, 2, 99, 161.8411102294922
0, 2, 100, 187.5542907714844
0, 2, 101, 197.0253448486328
0, 2, 102, 176.1448669433594
0, 2, 103, 200.3722839355469
0, 2, 104, 187.1652069091797
0, 2, 105, 200.7592163085938
0, 2, 106, 195.474853515625
0, 2, 107, 148.6808776855469
0, 2, 108, 78.93817138671875
0, 2, 109, 17.58938407897949
0, 2, 110, 7.677809715270996
0, 2, 111, 5.687318325042725
0, 2, 112, 4.638847827911377
0, 2, 113, 3.822219610214233
0, 2, 114, 6.897430419921875
0, 2, 115, 3.661833763122559
0, 2, 116, 1.788508057594299
0, 2, 117, 1.856722712516785
0, 2, 118, 1.752097249031067
0, 2, 119, 2.718469381332397
0, 2, 120, 2.267347812652588
0, 2, 121, 3.163077592849731
0, 2, 122, 1.224830269813538
0, 2, 123, 3.042065858840942
0, 2, 124, 3.181255340576172
0, 2, 125, 1.911812901496887
0, 2, 126, 2.91875171661377
0, 2, 127, 0.4378667175769806
0, 3, 0, 1.358286738395691
0, 3, 1, 1.65700888633728
0, 3, 2, 1.648969888687134
0, 3, 3, 1.648725867271423
0, 3, 4, 3.188424587249756
0, 3, 5, 3.552736520767212
0, 3, 6, 1.084142088890076
0, 3, 7, 1.679675698280334
0, 3, 8, 1.811483025550842
0, 3, 9, 2.859468460083008
0, 3, 10, 1.750308752059937
0, 3, 11, 3.769185304641724
0, 3, 12, 5.528297424316406
0, 3, 13, 4.108546733856201
0, 3, 14, 4.989835262298584
0, 3, 15, 5.789469242095947
0, 3, 16, 7.958659648895264
0, 3, 17, 7.01988410949707
0, 3, 18, 32.48058319091797
0, 3, 19, 116.0734176635742
0, 3, 20, 180.3054504394531
0, 3, 21, 172.1959228515625
0, 3, 22, 177.7906188964844
0, 3, 23, 187.3661346435547
0, 3, 24, 177.7617645263672
0, 3, 25, 168.2728118896484
0, 3, 26, 182.1464385986328
0, 3, 27, 189.4232177734375
0, 3, 28, 180.6930389404297
0, 3, 29, 197.5990295410156
0, 3, 30, 185.0130004882812
0, 3, 31, 193.6683349609375
0, 3, 32, 205.5668640136719
0, 3, 33, 197.4901428222656
0, 3, 34, 186.7411346435547
0, 3, 35, 173.8032989501953
0, 3, 36, 185.0059051513672
0, 3, 37, 199.9143218994141
0, 3, 38, 192.8020172119141
0, 3, 39, 185.2637023925781
0, 3, 40, 165.4552612304688
0, 3, 41, 175.4232330322266
0, 3, 42, 185.7236633300781
0, 3, 43, 181.8364105224609
0, 3, 44, 203.1855621337891
0, 3, 45, 207.5401916503906
0, 3, 46, 198.5345611572266
0, 3, 47, 194.4441375732422
0, 3, 48, 196.5305633544922
0, 3, 49, 180.3123016357422
0, 3, 50, 186.7085571289062
0, 3, 51, 174.3668823242188
0, 3, 52, 188.7884521484375
0, 3, 53, 178.9403228759766
0, 3, 54, 178.3506317138672
0, 3, 55, 177.8553314208984
0, 3, 56, 181.7760009765625
0, 3, 57, 176.0023040771484
0, 3, 58, 203.6833343505859
0, 3, 59, 196.1232757568359
0, 3, 60, 187.595947265625
0, 3, 61, 181.3844604492188
0, 3, 62, 182.5145568847656
0, 3, 63, 184.4559020996094
0, 3, 64, 190.3287353515625
0, 3, 65, 190.4384613037109
0, 3, 66, 175.3856658935547
0, 3, 67, 189.3090209960938
0, 3, 68, 211.6042175292969
0, 3, 69, 189.0310974121094
0, 3, 70, 186.0034332275391
0, 3, 71, 196.4922943115234
0, 3, 72, 185.2484588623047
0, 3, 73, 185.8002471923828
0, 3, 74, 194.2346954345703
0, 3, 75, 193.4818115234375
0, 3, 76, 189.9281768798828
0, 3, 77, 198.1645202636719
0, 3, 78, 188.0525665283203
0, 3, 79, 185.6088104248047
0, 3, 80, 189.3000030517578
0, 3, 81, 182.6298370361328
0, 3, 82, 179.2659606933594
0, 3, 83, 194.2244415283203
0, 3, 84, 199.2223663330078
0, 3, 85, 192.7894134521484
0, 3, 86, 203.5251312255859
0, 3, 87, 196.9454803466797
0, 3, 88, 191.1698455810547
0, 3, 89, 193.2614593505859
0, 3, 90, 174.0865783691406
0, 3, 91, 158.6002807617188
0, 3, 92, 206.4933776855469
0, 3, 93, 196.6863098144531
0, 3, 94, 193.3002624511719
0, 3, 95, 211.4148101806641
0, 3, 96, 209.8153839111328
0, 3, 97, 167.5119171142578
0, 3, 98, 168.6275482177734
0, 3, 99, 181.1959686279297
0, 3, 100, 176.2359161376953
0, 3, 101, 197.8602600097656
0, 3, 102, 194.4312133789062
0, 3, 103, 193.5566864013672
0, 3, 104, 202.8817138671875
0, 3, 105, 174.6005096435547
0, 3, 106, 181.3234100341797
0, 3, 107, 169.1604309082031
0, 3, 108, 107.8750534057617
0, 3, 109, 27.53679847717285
0, 3, 110, 8.083793640136719
0, 3, 111, 6.966444492340088
0, 3, 112, 3.177658557891846
0, 3, 113, 7.018823623657227
0, 3, 114, 4.686069011688232
0, 3, 115, 5.509823322296143
0, 3, 116, 4.339056968688965
0, 3, 117, 4.027259826660156
0, 3, 118, 1.060800552368164
0, 3, 119, 1.956061005592346
0, 3, 120, 4.452505588531494
0, 3, 121, 2.974187612533569
0, 3, 122, 4.057014465332031
0, 3, 123, 2.594469547271729
0, 3, 124, 2.770084142684937
0, 3, 125, 1.064731359481812
0, 3, 126, 2.314963340759277
0, 3, 127, 0.7909947037696838
0, 4, 0, 2.241109132766724
0, 4, 1, 1.497084856033325
0, 4, 2, 1.620694279670715
0, 4, 3, 5.188987731933594
0, 4, 4, 2.454200267791748
0, 4, 5, 1.309825420379639
0, 4, 6, 3.696629524230957
0, 4, 7, 3.489238977432251
0, 4, 8, 1.827016115188599
0, 4, 9, 1.784862637519836
0, 4, 10, 3.273959875106812
0, 4, 11, 3.679486036300659
0, 4, 12, 3.611894607543945
0, 4, 13, 4.410481929779053
0, 4, 14, 4.858088493347168
0, 4, 15, 8.207398414611816
0, 4, 16, 7.187601566314697
0, 4, 17, 11.20297527313232
0, 4, 18, 54.77351379394531
0, 4, 19, 150.8262329101562
0, 4, 20, 193.5387878417969
0, 4, 21, 169.1415863037109
0, 4, 22, 187.2105865478516
0, 4, 23, 195.386962890625
0, 4, 24, 193.3415069580078
0, 4, 25, 199.1561737060547
0, 4, 26, 183.7276458740234
0, 4, 27, 190.8095397949219
0, 4, 28, 179.6516723632812
0, 4, 29, 205.5240631103516
0, 4, 30, 195.3795928955078
0, 4, 31, 193.1416320800781
0, 4, 32, 210.0755615234375
0, 4, 33, 190.3670349121094
0, 4, 34, 192.1383819580078
0, 4, 35, 214.7083587646484
0, 4, 36, 192.6719970703125
0, 4, 37, 176.3756256103516
0, 4, 38, 194.4324340820312
0, 4, 39, 188.6680450439453
0, 4, 40, 185.4888763427734
0, 4, 41, 189.429443359375
0, 4, 42, 205.8577575683594
0, 4, 43, 173.6463775634766
0, 4, 44, 183.9989776611328
0, 4, 45, 195.5691223144531
0, 4, 46, 185.7028961181641
0, 4, 47, 180.6275482177734
0, 4, 48, 186.2708740234375
0, 4, 49, 174.6598358154297
0, 4, 50, 185.7244262695312
0, 4, 51, 196.2591705322266
0, 4, 52, 222.6213226318359
0, 4, 53, 206.9956665039062
0, 4, 54, 189.4940490722656
0, 4, 55, 175.1703948974609
0, 4, 56, 192.1879730224609
0, 4, 57, 193.8021850585938
0, 4, 58, 187.4092712402344
0, 4, 59, 189.5657653808594
0, 4, 60, 195.8557739257812
0, 4, 61, 193.3371887207031
0, 4, 62, 189.6571197509766
0, 4, 63, 177.7900543212891
0, 4, 64, 212.0334167480469
0, 4, 65, 190.7872161865234
0, 4, 66, 200.8330841064453
0, 4, 67, 199.6490936279297
0, 4, 68, 201.3819732666016
0, 4, 69, 199.2163848876953
0, 4, 70, 204.1895599365234
0, 4, 71, 206.5739898681641
0, 4, 72, 214.4691314697266
0, 4, 73, 185.9658966064453
0, 4, 74, 179.3257446289062
0, 4, 75, 184.8403930664062
0, 4, 76, 189.33349609375
0, 4, 77, 182.5211639404297
0, 4, 78, 195.0213623046875
0, 4, 79, 204.1095428466797
0, 4, 80, 211.1744995117188
0, 4, 81, 199.1060943603516
0, 4, 82, 180.4585113525391
0, 4, 83, 169.9347076416016
0, 4, 84, 192.6791839599609
0, 4, 85, 195.5400085449219
0, 4, 86, 183.6372528076172
0, 4, 87, 183.6395416259766
0, 4, 88, 203.8736572265625
0, 4, 89, 188.5997772216797
0, 4, 90, 210.9283447265625
0, 4, 91, 189.9507293701172
0, 4, 92, 195.5348358154297
0, 4, 93, 195.3851470947266
0, 4, 94, 181.4290313720703
0, 4, 95, 173.8729553222656
0, 4, 96, 189.3035736083984
0, 4, 97, 193.1926116943359
0, 4, 98, 201.0787811279297
0, 4, 99, 182.8883056640625
0, 4, 100, 183.4791259765625
0, 4, 101, 177.4198150634766
0, 4, 102, 173.5081329345703
0, 4, 103, 185.4136047363281
0, 4, 104, 209.9737091064453
0, 4, 105, 189.7497863769531
0, 4, 106, 179.2257537841797
0, 4, 107, 181.0704345703125
0, 4, 108, 151.7412719726562
0, 4, 109, 50.49273300170898
0, 4, 110, 10.5856351852417
0, 4, 111, 7.024564266204834
0, 4, 112, 6.104008197784424
0, 4, 113, 9.749945640563965
0, 4, 114, 6.066694736480713
0, 4, 115, 3.613526582717896
0, 4, 116, 6.342864036560059
0, 4, 117, 2.045920372009277
0, 4, 118, 3.834628105163574
0, 4, 119, 3.826385498046875
0, 4, 120, 2.163271427154541
0, 4, 121, 2.054018259048462
0, 4, 122, 1.745129466056824
0, 4, 123, 1.81532621383667
0, 4, 124, 4.452699661254883
0, 4, 125, 2.518049001693726
0, 4, 126, 1.764508247375488
0, 4, 127, 2.71095085144043
0, 5, 0, 1.875175833702087
0, 5, 1, 3.917894840240479
0, 5, 2, 5.93794059753418
0, 5, 3, 3.853839874267578
0, 5, 4, 2.821143388748169
0, 5, 5, 1.758673906326294
0, 5, 6, 2.905820369720459
0, 5, 7, 2.379443168640137
0, 5, 8, 2.91094183921814
0, 5, 9, 2.41592001914978
0, 5, 10, 3.540637731552124
0, 5, 11, 3.081946849822998
0, 5, 12, 4.293394565582275
0, 5, 13, 3.312629461288452
0, 5, 14, 6.450223922729492
0, 5, 15, 8.524109840393066
0, 5, 16, 7.044442176818848
0, 5, 17, 21.30772018432617
0, 5, 18, 83.79522705078125
0, 5, 19, 165.4376983642578
0, 5, 20, 183.0079193115234
0, 5, 21, 177.6318054199219
0, 5, 22, 171.3147125244141
0, 5, 23, 200.4697418212891
0, 5, 24, 186.9598236083984
0, 5, 25, 209.2306060791016
0, 5, 26, 182.8719787597656
0, 5, 27, 195.4870910644531
0, 5, 28, 189.4722747802734
0, 5, 29, 195.874267578125
0, 5, 30, 179.8738708496094
0, 5, 31, 180.553955078125
0, 5, 32, 187.2505950927734
0, 5, 33, 170.6825408935547
0, 5, 34, 194.5021667480469
0, 5, 35, 196.1864624023438
0, 5, 36, 168.6499328613281
0, 5, 37, 197.6340637207031
0, 5, 38, 180.9358215332031
0, 5, 39, 188.0404357910156
0, 5, 40, 196.4394226074219
0, 5, 41, 176.3895568847656
0, 5, 42, 188.2275695800781
0, 5, 43, 193.6752166748047
0, 5, 44, 199.95751953125
0, 5, 45, 187.622802734375
0, 5, 46, 192.4866790771484
0, 5, 47, 179.8881225585938
0, 5, 48, 178.1466827392578
0, 5, 49, 176.4020538330078
0, 5, 50, 186.1802825927734
0, 5, 51, 172.8116149902344
0, 5, 52, 169.4187774658203
0, 5, 53, 182.078125
0, 5, 54, 172.9576110839844
0, 5, 55, 215.3645324707031
0, 5, 56, 182.0400390625
0, 5, 57, 208.6541900634766
0, 5, 58, 183.8710327148438
0, 5, 59, 180.2197570800781
0, 5, 60, 219.1272430419922
0, 5, 61, 184.84765625
0, 5, 62, 178.1432037353516
0, 5, 63, 181.0975799560547
0, 5, 64, 194.0939483642578
0, 5, 65, 211.0978698730469
0, 5, 66, 193.3301544189453
0, 5, 67, 200.8816833496094
0, 5, 68, 185.6963958740234
0, 5, 69, 186.8409729003906
0, 5, 70, 184.6737518310547
0, 5, 71, 193.6425933837891
0, 5, 72, 197.6211090087891
0, 5, 73, 201.5383148193359
0, 5, 74, 182.8611907958984
0, 5, 75, 203.9515228271484
0, 5, 76, 217.9620819091797
0, 5, 77, 184.6788787841797
0, 5, 78, 194.5361785888672
0, 5, 79, 189.9846954345703
0, 5, 80, 197.4735870361328
0, 5, 81, 203.1756591796875
0, 5, 82, 200.7209014892578
0, 5, 83, 188.4381103515625
0, 5, 84, 206.831298828125
0, 5, 85, 176.19580078125
0, 5, 86, 194.9728698730469
0, 5, 87, 188.6652526855469
0, 5, 88, 176.596435546875
0, 5, 89, 194.2616424560547
0, 5, 90, 198.9476928710938
0, 5, 91, 195.9429626464844
0, 5, 92, 191.7844085693359
0, 5, 93, 192.4250030517578
0, 5, 94, 207.0428161621094
0, 5, 95, 177.4842987060547
0, 5, 96, 182.3182067871094
0, 5, 97, 190.7808380126953
0, 5, 98, 189.2496795654297
0, 5, 99, 195.5296173095703
0, 5, 100, 185.1839752197266
0, 5, 101, 196.1065063476562
0, 5, 102, 182.5719757080078
0, 5, 103, 177.1738739013672
0, 5, 104, 189.9878234863281
0, 5, 105, 190.1552124023438
0, 5, 106, 177.2012481689453
0, 5, 107, 181.4082489013672
0, 5, 108, 175.1497039794922
0, 5, 109, 89.82266998291016
0, 5, 110, 29.50222206115723
0, 5, 111, 9.630050659179688
0, 5, 112, 7.077591896057129
0, 5, 113, 8.86667537689209
0, 5, 114, 6.167784690856934
0, 5, 115, 7.155894756317139
0, 5, 116, 4.414029121398926
0, 5, 117, 3.039742708206177
0, 5, 118, 4.088180541992188
0, 5, 119, 2.810304880142212
0, 5, 120, 1.831930994987488
0, 5, 121, 0.7257253527641296
0, 5, 122, 2.840764760971069
0, 5, 123, 4.737926959991455
0, 5, 124, 2.495756149291992
0, 5, 125, 1.630866885185242
0, 5, 126, 1.139024972915649
0, 5, 127, 1.939590096473694
0, 6, 0, 3.731523513793945
0, 6, 1, 2.585979461669922
0, 6, 2, 2.759974956512451
0, 6, 3, 1.210265278816223
0, 6, 4, 2.912369966506958
0, 6, 5, 2.291121482849121
0, 6, 6, 2.265232563018799
0, 6, 7, 3.533931255340576
0, 6, 8, 3.592159986495972
0, 6, 9, 2.611911773681641
0, 6, 10, 3.536565542221069
0, 6, 11, 4.113608360290527
0, 6, 12, 6.328444480895996
0, 6, 13, 5.510156631469727
0, 6, 14, 4.905040740966797
0, 6, 15, 6.857439517974854
0, 6, 16, 12.05420017242432
0, 6, 17, 29.37344360351562
0, 6, 18, 114.921272277832
0, 6, 19, 194.0806579589844
0, 6, 20, 194.4249572753906
0, 6, 21, 198.5642395019531
0, 6, 22, 190.6726226806641
0, 6, 23, 191.6790466308594
0, 6, 24, 200.0172729492188
0, 6, 25, 182.5310821533203
0, 6, 26, 188.179443359375
0, 6, 27, 192.9044647216797
0, 6, 28, 188.3368835449219
0, 6, 29, 210.5060424804688
0, 6, 30, 191.0248870849609
0, 6, 31, 192.9311065673828
0, 6, 32, 205.8277282714844
0, 6, 33, 184.8165130615234
0, 6, 34, 197.5390472412109
0, 6, 35, 189.4855041503906
0, 6, 36, 183.0057678222656
0, 6, 37, 182.6170501708984
0, 6, 38, 185.2826385498047
0, 6, 39, 195.4485015869141
0, 6, 40, 174.5014953613281
0, 6, 41, 185.3560180664062
0, 6, 42, 173.69775390625
0, 6, 43, 211.7538299560547
0, 6, 44, 208.9808807373047
0, 6, 45, 193.6859283447266
0, 6, 46, 188.21142578125
0, 6, 47, 204.0853729248047
0, 6, 48, 188.2257385253906
0, 6, 49, 179.8621826171875
0, 6, 50, 181.8579254150391
0, 6, 51, 195.9371337890625
0, 6, 52, 198.3004302978516
0, 6, 53, 184.8343505859375
0, 6, 54, 175.3990783691406
0, 6, 55, 194.3457336425781
0, 6, 56, 202.7498321533203
0, 6, 57, 191.253662109375
0, 6, 58, 179.3554534912109
0, 6, 59, 192.9627075195312
0, 6, 60, 184.1367797851562
0, 6, 61, 193.6668090820312
0, 6, 62, 196.5743560791016
0, 6, 63, 186.1926727294922
0, 6, 64, 167.8875274658203
0, 6, 65, 186.3083038330078
0, 6, 66, 197.8500061035156
0, 6, 67, 214.7557373046875
0, 6, 68, 179.8935241699219
0, 6, 69, 172.1229553222656
0, 6, 70, 187.672607421875
0, 6, 71, 170.0382080078125
0, 6, 72, 176.7414093017578
0, 6, 73, 176.7230377197266
0, 6, 74, 209.4704437255859
0, 6, 75, 228.2756652832031
0, 6, 76, 183.8918304443359
0, 6, 77, 173.3232116699219
0, 6, 78, 175.8265228271484
0, 6, 79, 186.6898345947266
0, 6, 80, 188.6230621337891
0, 6, 81, 209.6903228759766
0, 6, 82, 196.8391876220703
0, 6, 83, 195.5548248291016
0, 6, 84, 197.6942596435547
0, 6, 85, 181.7783203125
0, 6, 86, 201.9845428466797
0, 6, 87, 183.3866119384766
0, 6, 88, 192.2641754150391
0, 6, 89, 189.295654296875
0, 6, 90, 205.9626922607422
0, 6, 91, 199.6747894287109
0, 6, 92, 173.5314331054688
0, 6, 93, 192.7483978271484
0, 6, 94, 189.9656219482422
0, 6, 95, 185.8501892089844
0, 6, 96, 189.7828063964844
0, 6, 97, 194.6524200439453
0, 6, 98, 183.7183532714844
0, 6, 99, 174.755615234375
0, 6, 100, 202.0408630371094
0, 6, 101, 167.9934997558594
0, 6, 102, 201.7735443115234
0, 6, 103, 196.3495635986328
0, 6, 104, 184.6428985595703
0, 6, 105, 194.1313629150391
0, 6, 106, 177.3914031982422
0, 6, 107, 196.4738464355469
0, 6, 108, 171.6362457275391
0, 6, 109, 115.1026306152344
0, 6, 110, 34.67860794067383
0, 6, 111, 8.633861541748047
0, 6, 112, 8.538021087646484
0, 6, 113, 4.983586311340332
0, 6, 114, 4.362508296966553
0, 6, 115, 5.672355175018311
0, 6, 116, 3.783514022827148
0, 6, 117, 4.487056732177734
0, 6, 118, 3.747389793395996
0, 6, 119, 4.926532745361328
0, 6, 120, 3.094645261764526
0, 6, 121, 6.876254081726074
0, 6, 122, 5.46571683883667
0, 6, 123, 1.268468618392944
0, 6, 124, 3.036537408828735
0, 6, 125, 2.275612831115723
0, 6, 126, 2.696584939956665
0, 6, 127, 1.961103558540344
0, 7, 0, 3.804110288619995
0, 7, 1, 0.8806592226028442
0, 7, 2, 1.409159183502197
0, 7, 3, 2.629724264144897
0, 7, 4, 1.199230194091797
0, 7, 5, 1.650951743125916
0, 7, 6, 4.478325843811035
0, 7, 7, 2.270352840423584
0, 7, 8, 3.336791038513184
0, 7, 9, 3.096996068954468
0, 7, 10, 4.240901470184326
0, 7, 11, 3.073385000228882
0, 7, 12, 5.097250461578369
0, 7, 13, 5.811070442199707
0, 7, 14, 6.259225368499756
0, 7, 15, 6.600656509399414
0, 7, 16, 18.29222679138184
0, 7, 17, 49.56552886962891
0, 7, 18, 161.7191925048828
0, 7, 19, 181.9489440917969
0, 7, 20, 180.0518798828125
0, 7, 21, 180.2851715087891
0, 7, 22, 191.7478485107422
0, 7, 23, 202.5069427490234
0, 7, 24, 179.5892028808594
0, 7, 25, 212.6666107177734
0, 7, 26, 189.9358367919922
0, 7, 27, 184.1774749755859
0, 7, 28, 181.9254608154297
0, 7, 29, 208.3428344726562
0, 7, 30, 193.3323059082031
0, 7, 31, 175.3617095947266
0, 7, 32, 190.5502777099609
0, 7, 33, 178.9860534667969
0, 7, 34, 192.8426513671875
0, 7, 35, 196.5393524169922
0, 7, 36, 186.6094512939453
0, 7, 37, 212.9104614257812
0, 7, 38, 190.9091491699219
0, 7, 39, 174.2099609375
0, 7, 40, 183.9675140380859
0, 7, 41, 184.8241577148438
0, 7, 42, 177.4777374267578
0, 7, 43, 177.1064147949219
0, 7, 44, 180.9842834472656
0, 7, 45, 174.8521575927734
0, 7, 46, 187.6659851074219
0, 7, 47, 198.3371276855469
0, 7, 48, 187.6957702636719
0, 7, 49, 197.5860137939453
0, 7, 50, 189.3715209960938
0, 7, 51, 205.677978515625
0, 7, 52, 204.4153442382812
0, 7, 53, 191.402587890625
0, 7, 54, 195.7101745605469
0, 7, 55, 204.0695343017578
0, 7, 56, 183.3882293701172
0, 7, 57, 182.3406524658203
0, 7, 58, 191.0920715332031
0, 7, 59, 187.8279266357422
0, 7, 60, 201.8159332275391
0, 7, 61, 170.9661712646484
0, 7, 62, 202.5736846923828
0, 7, 63, 189.0627746582031
0, 7, 64, 200.2127075195312
0, 7, 65, 194.8021087646484
0, 7, 66, 206.3064727783203
0, 7, 67, 219.6393890380859
0, 7, 68, 161.9511871337891
0, 7, 69, 194.6645202636719
0, 7, 70, 217.8475189208984
0, 7, 71, 186.0968475341797
0, 7, 72, 181.460693359375
0, 7, 73, 176.7394714355469
0, 7, 74, 207.8215789794922
0, 7, 75, 206.0205078125
0, 7, 76, 215.2552947998047
0, 7, 77, 173.2616577148438
0, 7, 78, 176.9656677246094
0, 7, 79, 194.0400848388672
0, 7, 80, 196.3708953857422
0, 7, 81, 217.2511138916016
0, 7, 82, 186.7489929199219
0, 7, 83, 204.9240570068359
0, 7, 84, 193.152099609375
0, 7, 85, 187.7765045166016
0, 7, 86, 201.3344116210938
0, 7, 87, 223.4509582519531
0, 7, 88, 195.2017974853516
0, 7, 89, 178.1659545898438
0, 7, 90, 182.2456359863281
0, 7, 91, 193.6286773681641
0, 7, 92, 193.9796142578125
0, 7, 93, 197.7977752685547
0, 7, 94, 178.5021362304688
0, 7, 95, 197.3963623046875
0, 7, 96, 209.4331207275391
0, 7, 97, 189.8400268554688
0, 7, 98, 177.0210571289062
0, 7, 99, 196.8844146728516
0, 7, 100, 182.8281097412109
0, 7, 101, 199.0313568115234
0, 7, 102, 184.9017028808594
0, 7, 103, 181.2336730957031
0, 7, 104, 176.4844665527344
0, 7, 105, 194.9222106933594
0, 7, 106, 205.4879913330078
0, 7, 107, 173.9528503417969
0, 7, 108, 177.3908233642578
0, 7, 109, 137.6403961181641
0, 7, 110, 55.33002471923828
0, 7, 111, 9.223255157470703
0, 7, 112, 8.291766166687012
0, 7, 113, 9.37061595916748
0, 7, 114, 7.175242900848389
0, 7, 115, 5.04088830947876
0, 7, 116, 3.992301225662231
0, 7, 117, 3.133336544036865
0, 7, 118, 4.608974456787109
0, 7, 119, 4.587532043457031
0, 7, 120, 1.957390069961548
0, 7, 121, 2.792453765869141
0, 7, 122, 2.280080795288086
0, 7, 123, 2.916943311691284
0, 7, 124, 1.120991349220276
0, 7, 125, 1.699710011482239
0, 7, 126, 4.096075057983398
0, 7, 127, 2.404822587966919
0, 8, 0, 4.219050407409668
0, 8, 1, 2.721183776855469
0, 8, 2, 2.573433399200439
0, 8, 3, 2.91729211807251
0, 8, 4, 1.333701014518738
0, 8, 5, 3.485503673553467
0, 8, 6, 1.837244153022766
0, 8, 7, 2.716927051544189
0, 8, 8, 4.763725757598877
0, 8, 9, 3.573626279830933
0, 8, 10, 4.024295330047607
0, 8, 11, 3.286945104598999
0, 8, 12, 3.536112546920776
0, 8, 13, 5.138616561889648
0, 8, 14, 6.929511547088623
0, 8, 15, 8.253823280334473
0, 8, 16, 22.46561050415039
0, 8, 17, 75.72653198242188
0, 8, 18, 142.4926300048828
0, 8, 19, 178.4120941162109
0, 8, 20, 193.3762512207031
0, 8, 21, 193.3739929199219
0, 8, 22, 179.5493316650391
0, 8, 23, 172.7098541259766
0, 8, 24, 191.3415069580078
0, 8, 25, 185.4477996826172
0, 8, 26, 192.5281524658203
0, 8, 27, 186.0376129150391
0, 8, 28, 189.4840240478516
0, 8, 29, 207.8124389648438
0, 8, 30, 197.0275115966797
0, 8, 31, 182.6595611572266
0, 8, 32, 197.4975128173828
0, 8, 33, 206.9355316162109
0, 8, 34, 202.9330749511719
0, 8, 35, 184.2795867919922
0, 8, 36, 181.9198760986328
