# TOPAS Version: 3.1.p3
# Parameter File: batch_inserts_96.txt
# Results for scorer Readout_Adipose
# Scored in component: MyBox
# X in 1 bin  of 0.65 cm
# Y in 512 bins of 0.0783984 cm
# Z in 128 bins of 0.078125 cm
# EnergyDeposit ( MeV ) : Sum   
0, 0, 0, 1.332870364189148
0, 0, 1, 3.705700874328613
0, 0, 2, 3.754319667816162
0, 0, 3, 1.48892879486084
0, 0, 4, 1.808781385421753
0, 0, 5, 1.576394438743591
0, 0, 6, 1.199022173881531
0, 0, 7, 1.944013595581055
0, 0, 8, 2.094718933105469
0, 0, 9, 2.04610013961792
0, 0, 10, 4.242361068725586
0, 0, 11, 3.960004568099976
0, 0, 12, 3.534857273101807
0, 0, 13, 2.534151315689087
0, 0, 14, 4.731215476989746
0, 0, 15, 6.10374116897583
0, 0, 16, 3.968965768814087
0, 0, 17, 7.331538677215576
0, 0, 18, 6.437042236328125
0, 0, 19, 22.24315643310547
0, 0, 20, 94.49217987060547
0, 0, 21, 153.0003509521484
0, 0, 22, 154.5225982666016
0, 0, 23, 143.7076110839844
0, 0, 24, 159.4885864257812
0, 0, 25, 167.0511016845703
0, 0, 26, 167.3101196289062
0, 0, 27, 174.2214202880859
0, 0, 28, 178.0725250244141
0, 0, 29, 174.9562072753906
0, 0, 30, 172.1967926025391
0, 0, 31, 167.1929473876953
0, 0, 32, 164.1242065429688
0, 0, 33, 166.0901641845703
0, 0, 34, 176.4870910644531
0, 0, 35, 174.2286224365234
0, 0, 36, 159.4958038330078
0, 0, 37, 163.1603393554688
0, 0, 38, 166.1138458251953
0, 0, 39, 160.6470489501953
0, 0, 40, 165.1614074707031
0, 0, 41, 165.7762756347656
0, 0, 42, 145.1640777587891
0, 0, 43, 169.1083221435547
0, 0, 44, 177.6230773925781
0, 0, 45, 172.6346282958984
0, 0, 46, 165.3939361572266
0, 0, 47, 167.3402862548828
0, 0, 48, 169.3058319091797
0, 0, 49, 184.0877075195312
0, 0, 50, 170.6368103027344
0, 0, 51, 161.554443359375
0, 0, 52, 164.8942718505859
0, 0, 53, 171.8101654052734
0, 0, 54, 160.3359222412109
0, 0, 55, 164.5720520019531
0, 0, 56, 189.1219177246094
0, 0, 57, 170.1295166015625
0, 0, 58, 161.8836212158203
0, 0, 59, 172.2567443847656
0, 0, 60, 168.2493133544922
0, 0, 61, 168.6994934082031
0, 0, 62, 183.309326171875
0, 0, 63, 166.9739685058594
0, 0, 64, 166.4695129394531
0, 0, 65, 177.900390625
0, 0, 66, 177.638671875
0, 0, 67, 164.6320037841797
0, 0, 68, 158.5849914550781
0, 0, 69, 158.9988555908203
0, 0, 70, 170.2915649414062
0, 0, 71, 158.5064697265625
0, 0, 72, 161.4608459472656
0, 0, 73, 171.3778686523438
0, 0, 74, 163.6557769775391
0, 0, 75, 163.3494720458984
0, 0, 76, 163.1451110839844
0, 0, 77, 172.1020355224609
0, 0, 78, 181.1643829345703
0, 0, 79, 175.1043853759766
0, 0, 80, 159.8094024658203
0, 0, 81, 161.2373199462891
0, 0, 82, 182.0433807373047
0, 0, 83, 173.4894561767578
0, 0, 84, 159.5035095214844
0, 0, 85, 181.2644805908203
0, 0, 86, 159.4490661621094
0, 0, 87, 177.34375
0, 0, 88, 177.5229339599609
0, 0, 89, 174.8706207275391
0, 0, 90, 160.7684783935547
0, 0, 91, 184.0404815673828
0, 0, 92, 163.7184143066406
0, 0, 93, 157.8457183837891
0, 0, 94, 168.7355804443359
0, 0, 95, 173.4676513671875
0, 0, 96, 183.5215606689453
0, 0, 97, 183.3232421875
0, 0, 98, 185.5862426757812
0, 0, 99, 171.943359375
0, 0, 100, 157.8713836669922
0, 0, 101, 167.1575012207031
0, 0, 102, 171.2173614501953
0, 0, 103, 171.1092529296875
0, 0, 104, 170.1910552978516
0, 0, 105, 178.5856475830078
0, 0, 106, 158.9700622558594
0, 0, 107, 86.95057678222656
0, 0, 108, 21.51788139343262
0, 0, 109, 9.39775562286377
0, 0, 110, 5.909182548522949
0, 0, 111, 6.533896923065186
0, 0, 112, 4.352500915527344
0, 0, 113, 3.221822500228882
0, 0, 114, 2.254087448120117
0, 0, 115, 3.215470314025879
0, 0, 116, 3.045649290084839
0, 0, 117, 1.574074268341064
0, 0, 118, 3.099454402923584
0, 0, 119, 2.549412727355957
0, 0, 120, 1.08867359161377
0, 0, 121, 4.267830371856689
0, 0, 122, 3.890670537948608
0, 0, 123, 5.333406448364258
0, 0, 124, 1.668540835380554
0, 0, 125, 3.032610177993774
0, 0, 126, 1.335163831710815
0, 0, 127, 2.270168781280518
0, 1, 0, 0.8381955027580261
0, 1, 1, 5.007655620574951
0, 1, 2, 2.131600618362427
0, 1, 3, 1.907239556312561
0, 1, 4, 1.226932644844055
0, 1, 5, 0.7579428553581238
0, 1, 6, 1.482906222343445
0, 1, 7, 2.023887634277344
0, 1, 8, 1.743689298629761
0, 1, 9, 2.13645601272583
0, 1, 10, 2.019433259963989
0, 1, 11, 5.015958309173584
0, 1, 12, 4.660680770874023
0, 1, 13, 5.287452220916748
0, 1, 14, 6.667760848999023
0, 1, 15, 6.245598793029785
0, 1, 16, 8.077390670776367
0, 1, 17, 5.217242240905762
0, 1, 18, 11.50055885314941
0, 1, 19, 39.04511260986328
0, 1, 20, 125.620361328125
0, 1, 21, 176.9143524169922
0, 1, 22, 192.7169647216797
0, 1, 23, 186.5356140136719
0, 1, 24, 179.8497467041016
0, 1, 25, 193.2649993896484
0, 1, 26, 197.5421447753906
0, 1, 27, 187.9117889404297
0, 1, 28, 187.6163635253906
0, 1, 29, 184.74658203125
0, 1, 30, 179.7973022460938
0, 1, 31, 182.0790252685547
0, 1, 32, 188.8231964111328
0, 1, 33, 190.8271179199219
0, 1, 34, 185.9481964111328
0, 1, 35, 196.8595275878906
0, 1, 36, 207.6805877685547
0, 1, 37, 184.2568969726562
0, 1, 38, 164.6899566650391
0, 1, 39, 172.041748046875
0, 1, 40, 179.8499908447266
0, 1, 41, 185.8883514404297
0, 1, 42, 183.5870819091797
0, 1, 43, 185.1526031494141
0, 1, 44, 169.7727813720703
0, 1, 45, 186.2364807128906
0, 1, 46, 171.6751251220703
0, 1, 47, 185.101318359375
0, 1, 48, 186.4722900390625
0, 1, 49, 187.6419982910156
0, 1, 50, 178.0120544433594
0, 1, 51, 191.6164855957031
0, 1, 52, 196.0051879882812
0, 1, 53, 196.6874084472656
0, 1, 54, 185.3646392822266
0, 1, 55, 165.4207763671875
0, 1, 56, 178.5158538818359
0, 1, 57, 180.3119506835938
0, 1, 58, 190.0636901855469
0, 1, 59, 193.4563293457031
0, 1, 60, 186.9554901123047
0, 1, 61, 177.6043548583984
0, 1, 62, 205.7635040283203
0, 1, 63, 174.6009521484375
0, 1, 64, 173.2727661132812
0, 1, 65, 186.7261810302734
0, 1, 66, 204.2818298339844
0, 1, 67, 182.2751159667969
0, 1, 68, 187.4833831787109
0, 1, 69, 188.5477600097656
0, 1, 70, 186.1753387451172
0, 1, 71, 172.7007751464844
0, 1, 72, 192.7800750732422
0, 1, 73, 189.7823638916016
0, 1, 74, 201.0193786621094
0, 1, 75, 183.3036193847656
0, 1, 76, 174.2489471435547
0, 1, 77, 191.2060089111328
0, 1, 78, 188.8762512207031
0, 1, 79, 202.1179351806641
0, 1, 80, 184.5380096435547
0, 1, 81, 174.4365997314453
0, 1, 82, 208.0854644775391
0, 1, 83, 211.7070617675781
0, 1, 84, 179.6231384277344
0, 1, 85, 169.1583862304688
0, 1, 86, 170.0070953369141
0, 1, 87, 184.651611328125
0, 1, 88, 174.5690460205078
0, 1, 89, 186.8174438476562
0, 1, 90, 212.2983245849609
0, 1, 91, 181.0060577392578
0, 1, 92, 183.341552734375
0, 1, 93, 181.9116668701172
0, 1, 94, 185.4225616455078
0, 1, 95, 183.58056640625
0, 1, 96, 196.0787353515625
0, 1, 97, 183.0932159423828
0, 1, 98, 187.2675628662109
0, 1, 99, 175.2299041748047
0, 1, 100, 170.9717407226562
0, 1, 101, 177.3861846923828
0, 1, 102, 181.9498596191406
0, 1, 103, 172.7522583007812
0, 1, 104, 190.0031280517578
0, 1, 105, 181.6213531494141
0, 1, 106, 163.9508209228516
0, 1, 107, 123.4578475952148
0, 1, 108, 47.54270172119141
0, 1, 109, 9.578985214233398
0, 1, 110, 7.907052040100098
0, 1, 111, 6.078657150268555
0, 1, 112, 7.517556190490723
0, 1, 113, 6.817146301269531
0, 1, 114, 4.726686954498291
0, 1, 115, 4.647665500640869
0, 1, 116, 3.158916711807251
0, 1, 117, 1.658961534500122
0, 1, 118, 2.745105266571045
0, 1, 119, 1.685787081718445
0, 1, 120, 3.360552310943604
0, 1, 121, 4.025259971618652
0, 1, 122, 3.83434534072876
0, 1, 123, 3.99868106842041
0, 1, 124, 1.488587975502014
0, 1, 125, 2.156899929046631
0, 1, 126, 1.62292218208313
0, 1, 127, 1.310157060623169
0, 2, 0, 1.063732743263245
0, 2, 1, 1.894652843475342
0, 2, 2, 2.786614418029785
0, 2, 3, 0.9676749110221863
0, 2, 4, 1.526309370994568
0, 2, 5, 1.028738141059875
0, 2, 6, 3.20575737953186
0, 2, 7, 1.647217869758606
0, 2, 8, 3.502256631851196
0, 2, 9, 1.981732964515686
0, 2, 10, 4.39329719543457
0, 2, 11, 5.531424999237061
0, 2, 12, 2.819060564041138
0, 2, 13, 5.235925197601318
0, 2, 14, 4.190576553344727
0, 2, 15, 4.978982925415039
0, 2, 16, 3.67317533493042
0, 2, 17, 8.618640899658203
0, 2, 18, 15.69950008392334
0, 2, 19, 77.29165649414062
0, 2, 20, 162.1893920898438
0, 2, 21, 184.896484375
0, 2, 22, 193.8810729980469
0, 2, 23, 184.1099243164062
0, 2, 24, 173.4810485839844
0, 2, 25, 183.6254577636719
0, 2, 26, 178.935302734375
0, 2, 27, 189.5287628173828
0, 2, 28, 171.4471740722656
0, 2, 29, 169.1084136962891
0, 2, 30, 184.0713348388672
0, 2, 31, 182.1302032470703
0, 2, 32, 183.7318267822266
0, 2, 33, 190.9423065185547
0, 2, 34, 198.7714233398438
0, 2, 35, 181.5862731933594
0, 2, 36, 185.1716156005859
0, 2, 37, 180.5762176513672
0, 2, 38, 184.1792602539062
0, 2, 39, 166.2422637939453
0, 2, 40, 184.8531799316406
0, 2, 41, 185.0846099853516
0, 2, 42, 190.12109375
0, 2, 43, 193.2519073486328
0, 2, 44, 191.5317840576172
0, 2, 45, 190.2281494140625
0, 2, 46, 196.574462890625
0, 2, 47, 189.9723968505859
0, 2, 48, 177.2584991455078
0, 2, 49, 197.7026977539062
0, 2, 50, 168.0518646240234
0, 2, 51, 183.938232421875
0, 2, 52, 185.6649475097656
0, 2, 53, 195.9024658203125
0, 2, 54, 175.8804321289062
0, 2, 55, 173.4713134765625
0, 2, 56, 181.7667236328125
0, 2, 57, 199.1938018798828
0, 2, 58, 186.3368988037109
0, 2, 59, 189.0744781494141
0, 2, 60, 196.8483276367188
0, 2, 61, 193.6272277832031
0, 2, 62, 189.3810424804688
0, 2, 63, 168.8829803466797
0, 2, 64, 188.6992645263672
0, 2, 65, 204.5251159667969
0, 2, 66, 195.1960601806641
0, 2, 67, 184.7540740966797
0, 2, 68, 182.6954650878906
0, 2, 69, 187.6698150634766
0, 2, 70, 202.4277191162109
0, 2, 71, 175.0524749755859
0, 2, 72, 185.6812133789062
0, 2, 73, 177.6920928955078
0, 2, 74, 180.8795318603516
0, 2, 75, 195.9336395263672
0, 2, 76, 183.0590209960938
0, 2, 77, 177.33056640625
0, 2, 78, 197.9095306396484
0, 2, 79, 177.2252655029297
0, 2, 80, 185.2697906494141
0, 2, 81, 186.9492645263672
0, 2, 82, 205.5066680908203
0, 2, 83, 204.0671844482422
0, 2, 84, 188.3946685791016
0, 2, 85, 169.5338745117188
0, 2, 86, 195.5659637451172
0, 2, 87, 171.7327270507812
0, 2, 88, 177.0967102050781
0, 2, 89, 185.5575408935547
0, 2, 90, 177.6651611328125
0, 2, 91, 174.9012603759766
0, 2, 92, 197.1228332519531
0, 2, 93, 193.155029296875
0, 2, 94, 201.4888916015625
0, 2, 95, 193.7875213623047
0, 2, 96, 187.2040405273438
0, 2, 97, 171.4359588623047
0, 2, 98, 173.764892578125
0, 2, 99, 161.9928588867188
0, 2, 100, 187.53759765625
0, 2, 101, 196.4711761474609
0, 2, 102, 175.5383911132812
0, 2, 103, 199.4688873291016
0, 2, 104, 187.0262908935547
0, 2, 105, 201.8613433837891
0, 2, 106, 194.5373992919922
0, 2, 107, 151.6341705322266
0, 2, 108, 80.4012451171875
0, 2, 109, 18.62315940856934
0, 2, 110, 9.104790687561035
0, 2, 111, 5.858555316925049
0, 2, 112, 4.296798229217529
0, 2, 113, 4.448615074157715
0, 2, 114, 7.47471284866333
0, 2, 115, 5.020593643188477
0, 2, 116, 2.18464994430542
0, 2, 117, 2.609856843948364
0, 2, 118, 3.496338605880737
0, 2, 119, 2.501188993453979
0, 2, 120, 3.019844532012939
0, 2, 121, 3.521255493164062
0, 2, 122, 2.925104141235352
0, 2, 123, 2.286185264587402
0, 2, 124, 1.853249073028564
0, 2, 125, 2.471139430999756
0, 2, 126, 2.744836330413818
0, 2, 127, 1.994121193885803
0, 3, 0, 1.443011999130249
0, 3, 1, 1.165764570236206
0, 3, 2, 1.675006031990051
0, 3, 3, 1.168251752853394
0, 3, 4, 3.940776109695435
0, 3, 5, 3.12500786781311
0, 3, 6, 1.60900866985321
0, 3, 7, 1.566717743873596
0, 3, 8, 1.337118268013
0, 3, 9, 2.954201936721802
0, 3, 10, 2.087780952453613
0, 3, 11, 4.070148468017578
0, 3, 12, 3.294840335845947
0, 3, 13, 3.188390731811523
0, 3, 14, 3.651476621627808
0, 3, 15, 7.96282958984375
0, 3, 16, 7.657957553863525
0, 3, 17, 5.983222484588623
0, 3, 18, 31.91819953918457
0, 3, 19, 115.1006774902344
0, 3, 20, 179.5640411376953
0, 3, 21, 172.4847869873047
0, 3, 22, 178.6125793457031
0, 3, 23, 187.4830017089844
0, 3, 24, 177.5334777832031
0, 3, 25, 168.1019439697266
0, 3, 26, 180.6069488525391
0, 3, 27, 188.8017425537109
0, 3, 28, 182.3863830566406
0, 3, 29, 199.2624359130859
0, 3, 30, 184.6532897949219
0, 3, 31, 193.8827667236328
0, 3, 32, 207.3404693603516
0, 3, 33, 196.7816772460938
0, 3, 34, 188.7049407958984
0, 3, 35, 174.2878875732422
0, 3, 36, 185.6669158935547
0, 3, 37, 202.5189514160156
0, 3, 38, 191.8643951416016
0, 3, 39, 187.2042846679688
0, 3, 40, 165.8278503417969
0, 3, 41, 176.0043487548828
0, 3, 42, 187.9649353027344
0, 3, 43, 181.9013977050781
0, 3, 44, 203.2358551025391
0, 3, 45, 207.3736724853516
0, 3, 46, 200.1625061035156
0, 3, 47, 193.9522399902344
0, 3, 48, 195.6335144042969
0, 3, 49, 180.0704193115234
0, 3, 50, 185.9628295898438
0, 3, 51, 174.36767578125
0, 3, 52, 187.3035736083984
0, 3, 53, 178.7879638671875
0, 3, 54, 178.2321014404297
0, 3, 55, 177.585205078125
0, 3, 56, 183.2505798339844
0, 3, 57, 175.3534545898438
0, 3, 58, 201.6180419921875
0, 3, 59, 197.9074096679688
0, 3, 60, 187.2622528076172
0, 3, 61, 181.63525390625
0, 3, 62, 182.9753723144531
0, 3, 63, 184.9673004150391
0, 3, 64, 188.4301452636719
0, 3, 65, 186.8778076171875
0, 3, 66, 174.9332580566406
0, 3, 67, 193.1947479248047
0, 3, 68, 211.0560150146484
0, 3, 69, 191.7221527099609
0, 3, 70, 185.4754028320312
0, 3, 71, 198.5808715820312
0, 3, 72, 185.5254669189453
0, 3, 73, 187.3744812011719
0, 3, 74, 193.3157653808594
0, 3, 75, 192.4252166748047
0, 3, 76, 190.8500061035156
0, 3, 77, 199.6507415771484
0, 3, 78, 188.3710021972656
0, 3, 79, 185.5412902832031
0, 3, 80, 191.6512298583984
0, 3, 81, 183.6115112304688
0, 3, 82, 178.6096954345703
0, 3, 83, 194.6910247802734
0, 3, 84, 198.9512329101562
0, 3, 85, 191.8692321777344
0, 3, 86, 204.1146392822266
0, 3, 87, 197.660888671875
0, 3, 88, 191.1532440185547
0, 3, 89, 194.1508178710938
0, 3, 90, 173.7103881835938
0, 3, 91, 158.8761901855469
0, 3, 92, 207.7085418701172
0, 3, 93, 195.1741943359375
0, 3, 94, 192.0564727783203
0, 3, 95, 212.5924377441406
0, 3, 96, 208.3854522705078
0, 3, 97, 167.4598846435547
0, 3, 98, 166.7205963134766
0, 3, 99, 179.7378082275391
0, 3, 100, 177.8719177246094
0, 3, 101, 197.7407684326172
0, 3, 102, 196.6727142333984
0, 3, 103, 192.4867553710938
0, 3, 104, 202.4973602294922
0, 3, 105, 176.2148132324219
0, 3, 106, 183.7033233642578
0, 3, 107, 170.4701232910156
0, 3, 108, 107.9389572143555
0, 3, 109, 29.63903427124023
0, 3, 110, 7.625924110412598
0, 3, 111, 6.373501300811768
0, 3, 112, 3.57152795791626
0, 3, 113, 6.821313858032227
0, 3, 114, 5.512528419494629
0, 3, 115, 5.577515602111816
0, 3, 116, 5.9261794090271
0, 3, 117, 3.130345344543457
0, 3, 118, 2.308603286743164
0, 3, 119, 2.70710301399231
0, 3, 120, 4.234592437744141
0, 3, 121, 3.341684579849243
0, 3, 122, 2.788904666900635
0, 3, 123, 1.828858137130737
0, 3, 124, 2.139215230941772
0, 3, 125, 0.9798499941825867
0, 3, 126, 2.577248573303223
0, 3, 127, 1.100923299789429
0, 4, 0, 1.345122814178467
0, 4, 1, 1.452047348022461
0, 4, 2, 2.144824266433716
0, 4, 3, 3.79407525062561
0, 4, 4, 2.060928583145142
0, 4, 5, 1.999188423156738
0, 4, 6, 2.549080610275269
0, 4, 7, 2.524302005767822
0, 4, 8, 2.151053428649902
0, 4, 9, 2.048054218292236
0, 4, 10, 2.921140432357788
0, 4, 11, 3.207007646560669
0, 4, 12, 3.657356977462769
0, 4, 13, 4.650160312652588
0, 4, 14, 5.184849739074707
0, 4, 15, 8.166003227233887
0, 4, 16, 7.428199291229248
0, 4, 17, 11.5608377456665
0, 4, 18, 56.11299896240234
0, 4, 19, 150.9950408935547
0, 4, 20, 192.6860656738281
0, 4, 21, 169.5124359130859
0, 4, 22, 186.8251800537109
0, 4, 23, 196.1434020996094
0, 4, 24, 192.1600799560547
0, 4, 25, 199.5470581054688
0, 4, 26, 182.5851898193359
0, 4, 27, 190.2906036376953
0, 4, 28, 178.3143310546875
0, 4, 29, 205.6635894775391
0, 4, 30, 194.7649230957031
0, 4, 31, 192.9961090087891
0, 4, 32, 210.3635406494141
0, 4, 33, 189.9638061523438
0, 4, 34, 192.5398254394531
0, 4, 35, 212.5413665771484
0, 4, 36, 192.7621002197266
0, 4, 37, 177.6932983398438
0, 4, 38, 196.6409149169922
0, 4, 39, 191.5157165527344
0, 4, 40, 185.4565277099609
0, 4, 41, 188.685302734375
0, 4, 42, 205.3659820556641
0, 4, 43, 173.7623443603516
0, 4, 44, 183.8808898925781
0, 4, 45, 198.0892486572266
0, 4, 46, 185.8099060058594
0, 4, 47, 179.1627807617188
0, 4, 48, 185.9106140136719
0, 4, 49, 174.9983825683594
0, 4, 50, 185.3294525146484
0, 4, 51, 197.7256164550781
0, 4, 52, 222.9209747314453
0, 4, 53, 206.0479736328125
0, 4, 54, 189.8076782226562
0, 4, 55, 174.6739959716797
0, 4, 56, 190.3941040039062
0, 4, 57, 192.1595153808594
0, 4, 58, 188.7615966796875
0, 4, 59, 189.2244262695312
0, 4, 60, 196.4715576171875
0, 4, 61, 193.8283843994141
0, 4, 62, 189.6652069091797
0, 4, 63, 178.5255889892578
0, 4, 64, 212.5673675537109
0, 4, 65, 193.4310150146484
0, 4, 66, 201.4890594482422
0, 4, 67, 199.610595703125
0, 4, 68, 200.5297241210938
0, 4, 69, 199.9770355224609
0, 4, 70, 204.5332641601562
0, 4, 71, 205.8800659179688
0, 4, 72, 215.018310546875
0, 4, 73, 186.0458831787109
0, 4, 74, 179.3585510253906
0, 4, 75, 185.2294006347656
0, 4, 76, 189.927001953125
0, 4, 77, 184.1623687744141
0, 4, 78, 194.7815856933594
0, 4, 79, 205.1928863525391
0, 4, 80, 211.3903656005859
0, 4, 81, 201.9077606201172
0, 4, 82, 181.9214172363281
0, 4, 83, 169.6891632080078
0, 4, 84, 193.3093872070312
0, 4, 85, 195.7404937744141
0, 4, 86, 182.1164703369141
0, 4, 87, 183.9483032226562
0, 4, 88, 203.9544830322266
0, 4, 89, 187.6493530273438
0, 4, 90, 213.8895111083984
0, 4, 91, 189.1212463378906
0, 4, 92, 196.3300628662109
0, 4, 93, 195.6428375244141
0, 4, 94, 181.3410339355469
0, 4, 95, 174.1804809570312
0, 4, 96, 189.4715270996094
0, 4, 97, 192.0734252929688
0, 4, 98, 201.1252746582031
0, 4, 99, 184.7799682617188
0, 4, 100, 183.6281280517578
0, 4, 101, 177.8745422363281
0, 4, 102, 174.5765228271484
0, 4, 103, 185.2827453613281
0, 4, 104, 209.5503692626953
0, 4, 105, 190.0081787109375
0, 4, 106, 179.7090301513672
0, 4, 107, 180.9577941894531
0, 4, 108, 151.3400268554688
0, 4, 109, 49.40606689453125
0, 4, 110, 11.36788749694824
0, 4, 111, 7.638257026672363
0, 4, 112, 6.047261238098145
0, 4, 113, 6.371147155761719
0, 4, 114, 6.077601909637451
0, 4, 115, 3.005456209182739
0, 4, 116, 5.293760776519775
0, 4, 117, 2.685066938400269
0, 4, 118, 4.654994010925293
0, 4, 119, 4.069416999816895
0, 4, 120, 2.454690456390381
0, 4, 121, 2.238245725631714
0, 4, 122, 1.944554686546326
0, 4, 123, 1.989498496055603
0, 4, 124, 3.640058755874634
0, 4, 125, 2.617621183395386
0, 4, 126, 2.300576448440552
0, 4, 127, 2.101555347442627
0, 5, 0, 1.482310771942139
0, 5, 1, 3.955687522888184
0, 5, 2, 7.356238842010498
0, 5, 3, 4.093989372253418
0, 5, 4, 1.926305651664734
0, 5, 5, 2.520886421203613
0, 5, 6, 2.450440883636475
0, 5, 7, 2.156817197799683
0, 5, 8, 2.213683366775513
0, 5, 9, 2.674118995666504
0, 5, 10, 3.546883344650269
0, 5, 11, 6.008386611938477
0, 5, 12, 3.890052318572998
0, 5, 13, 3.427953004837036
0, 5, 14, 4.928741455078125
0, 5, 15, 8.717900276184082
0, 5, 16, 6.778483867645264
0, 5, 17, 21.27058601379395
0, 5, 18, 82.1593017578125
0, 5, 19, 163.9837188720703
0, 5, 20, 184.2192077636719
0, 5, 21, 180.3956451416016
0, 5, 22, 171.868408203125
0, 5, 23, 200.5100250244141
0, 5, 24, 186.9259338378906
0, 5, 25, 207.4394683837891
0, 5, 26, 182.4431457519531
0, 5, 27, 193.990234375
0, 5, 28, 190.7652893066406
0, 5, 29, 195.3879547119141
0, 5, 30, 177.2212524414062
0, 5, 31, 180.7038879394531
0, 5, 32, 186.8984680175781
0, 5, 33, 169.6895599365234
0, 5, 34, 195.3750305175781
0, 5, 35, 198.0487518310547
0, 5, 36, 168.4529113769531
0, 5, 37, 196.5977020263672
0, 5, 38, 180.4938659667969
0, 5, 39, 185.9864196777344
0, 5, 40, 196.0705871582031
0, 5, 41, 178.2183380126953
0, 5, 42, 187.1126403808594
0, 5, 43, 192.8705291748047
0, 5, 44, 200.0511627197266
0, 5, 45, 186.7151641845703
0, 5, 46, 192.4211120605469
0, 5, 47, 179.6562805175781
0, 5, 48, 178.7092590332031
0, 5, 49, 176.8707580566406
0, 5, 50, 185.4745178222656
0, 5, 51, 172.7057800292969
0, 5, 52, 167.5755920410156
0, 5, 53, 181.1321258544922
0, 5, 54, 172.3384094238281
0, 5, 55, 215.8406524658203
0, 5, 56, 181.3104248046875
0, 5, 57, 209.9098510742188
0, 5, 58, 182.7713623046875
0, 5, 59, 180.6683349609375
0, 5, 60, 218.3647613525391
0, 5, 61, 185.0724487304688
0, 5, 62, 178.2564849853516
0, 5, 63, 180.5808410644531
0, 5, 64, 197.2946472167969
0, 5, 65, 211.5314025878906
0, 5, 66, 193.0961608886719
0, 5, 67, 198.6389923095703
0, 5, 68, 186.5140228271484
0, 5, 69, 185.6745910644531
0, 5, 70, 184.0086059570312
0, 5, 71, 192.9360504150391
0, 5, 72, 197.7039947509766
0, 5, 73, 201.8710327148438
0, 5, 74, 180.0240936279297
0, 5, 75, 205.4978790283203
0, 5, 76, 215.1206359863281
0, 5, 77, 180.2635650634766
0, 5, 78, 198.2015991210938
0, 5, 79, 190.4467163085938
0, 5, 80, 198.9881286621094
0, 5, 81, 204.2332916259766
0, 5, 82, 202.0015869140625
0, 5, 83, 187.9275665283203
0, 5, 84, 205.1671905517578
0, 5, 85, 177.3829498291016
0, 5, 86, 195.1637878417969
0, 5, 87, 190.1808929443359
0, 5, 88, 176.5612945556641
0, 5, 89, 193.9769897460938
0, 5, 90, 198.7722473144531
0, 5, 91, 194.1561279296875
0, 5, 92, 190.3462982177734
0, 5, 93, 189.3516387939453
0, 5, 94, 208.0427398681641
0, 5, 95, 177.621826171875
0, 5, 96, 183.0283660888672
0, 5, 97, 192.1732635498047
0, 5, 98, 189.8649139404297
0, 5, 99, 195.0476684570312
0, 5, 100, 186.5578460693359
0, 5, 101, 195.9002075195312
0, 5, 102, 181.4946136474609
0, 5, 103, 175.8017425537109
0, 5, 104, 190.1818084716797
0, 5, 105, 189.5771789550781
0, 5, 106, 176.5870666503906
0, 5, 107, 182.1042327880859
0, 5, 108, 175.4294891357422
0, 5, 109, 89.99536895751953
0, 5, 110, 31.29150199890137
0, 5, 111, 8.212422370910645
0, 5, 112, 6.305933952331543
0, 5, 113, 5.857949256896973
0, 5, 114, 5.580887794494629
0, 5, 115, 4.596990585327148
0, 5, 116, 3.668949365615845
0, 5, 117, 2.741045713424683
0, 5, 118, 5.930194854736328
0, 5, 119, 3.085486173629761
0, 5, 120, 1.20037841796875
0, 5, 121, 1.285253047943115
0, 5, 122, 3.360843658447266
0, 5, 123, 5.457978248596191
0, 5, 124, 3.46845555305481
0, 5, 125, 1.217114567756653
0, 5, 126, 2.366764545440674
0, 5, 127, 1.978336572647095
0, 6, 0, 3.164736747741699
0, 6, 1, 3.909235000610352
0, 6, 2, 3.429853200912476
0, 6, 3, 1.930094599723816
0, 6, 4, 2.428428173065186
0, 6, 5, 3.844331979751587
0, 6, 6, 3.261632919311523
0, 6, 7, 4.410511493682861
0, 6, 8, 4.348812580108643
0, 6, 9, 2.434356212615967
0, 6, 10, 4.056207656860352
0, 6, 11, 4.382968902587891
0, 6, 12, 5.29418420791626
0, 6, 13, 5.208330631256104
0, 6, 14, 5.179779529571533
0, 6, 15, 6.654807567596436
0, 6, 16, 14.22576808929443
0, 6, 17, 28.42030143737793
0, 6, 18, 112.1155014038086
0, 6, 19, 190.3788909912109
0, 6, 20, 198.1558380126953
0, 6, 21, 197.7450561523438
0, 6, 22, 190.1809997558594
0, 6, 23, 191.1165008544922
0, 6, 24, 201.6504364013672
0, 6, 25, 184.1697082519531
0, 6, 26, 187.8942260742188
0, 6, 27, 192.2922668457031
0, 6, 28, 188.4419708251953
0, 6, 29, 210.5634460449219
0, 6, 30, 190.0586700439453
0, 6, 31, 192.677490234375
0, 6, 32, 205.6439666748047
0, 6, 33, 184.0559539794922
0, 6, 34, 197.9952850341797
0, 6, 35, 187.6823272705078
0, 6, 36, 179.4330749511719
0, 6, 37, 183.3270568847656
0, 6, 38, 185.7128448486328
0, 6, 39, 194.5621337890625
0, 6, 40, 174.0008850097656
0, 6, 41, 185.3009643554688
0, 6, 42, 174.0028839111328
0, 6, 43, 208.8698577880859
0, 6, 44, 209.3056640625
0, 6, 45, 193.1648712158203
0, 6, 46, 187.6936340332031
0, 6, 47, 205.2683258056641
0, 6, 48, 188.3343963623047
0, 6, 49, 179.6134490966797
0, 6, 50, 181.5192565917969
0, 6, 51, 195.9524688720703
0, 6, 52, 198.8703308105469
0, 6, 53, 185.1582641601562
0, 6, 54, 176.9102630615234
0, 6, 55, 194.1998443603516
0, 6, 56, 202.1143493652344
0, 6, 57, 192.3606414794922
0, 6, 58, 179.6000061035156
0, 6, 59, 194.0949401855469
0, 6, 60, 184.1257781982422
0, 6, 61, 194.826416015625
0, 6, 62, 197.5554962158203
0, 6, 63, 186.8722076416016
0, 6, 64, 168.0443420410156
0, 6, 65, 186.8113708496094
0, 6, 66, 198.4956970214844
0, 6, 67, 214.0438690185547
0, 6, 68, 179.8733978271484
0, 6, 69, 171.2227630615234
0, 6, 70, 187.5487213134766
0, 6, 71, 170.3764190673828
0, 6, 72, 176.2608184814453
0, 6, 73, 176.5776519775391
0, 6, 74, 212.4284210205078
0, 6, 75, 227.3167266845703
0, 6, 76, 183.7718963623047
0, 6, 77, 172.5830230712891
0, 6, 78, 175.9264373779297
0, 6, 79, 187.6227722167969
0, 6, 80, 188.5069885253906
0, 6, 81, 209.462646484375
0, 6, 82, 197.1935882568359
0, 6, 83, 196.7991027832031
0, 6, 84, 198.1523590087891
0, 6, 85, 185.0675506591797
0, 6, 86, 201.1084442138672
0, 6, 87, 183.8631744384766
0, 6, 88, 192.4143524169922
0, 6, 89, 188.3610992431641
0, 6, 90, 205.2928161621094
0, 6, 91, 199.6696166992188
0, 6, 92, 173.2530212402344
0, 6, 93, 192.5802459716797
0, 6, 94, 189.2167816162109
0, 6, 95, 185.1979370117188
0, 6, 96, 188.1130523681641
0, 6, 97, 194.7839660644531
0, 6, 98, 182.9669036865234
0, 6, 99, 175.0122985839844
0, 6, 100, 201.7308654785156
0, 6, 101, 167.8628845214844
0, 6, 102, 201.9853973388672
0, 6, 103, 195.7945098876953
0, 6, 104, 183.6182861328125
0, 6, 105, 194.4726104736328
0, 6, 106, 176.9270477294922
0, 6, 107, 194.8745422363281
0, 6, 108, 172.1542053222656
0, 6, 109, 115.1324462890625
0, 6, 110, 34.55573654174805
0, 6, 111, 9.747068405151367
0, 6, 112, 8.726357460021973
0, 6, 113, 4.931359767913818
0, 6, 114, 5.98356819152832
0, 6, 115, 4.53499174118042
0, 6, 116, 3.729104280471802
0, 6, 117, 2.667126417160034
0, 6, 118, 4.878679752349854
0, 6, 119, 4.457756996154785
0, 6, 120, 4.895565032958984
0, 6, 121, 3.760823011398315
0, 6, 122, 2.74920654296875
0, 6, 123, 2.79085636138916
0, 6, 124, 1.93038535118103
0, 6, 125, 3.199263334274292
0, 6, 126, 1.674121618270874
0, 6, 127, 2.255528450012207
0, 7, 0, 4.202984809875488
0, 7, 1, 1.724475145339966
0, 7, 2, 3.013064861297607
0, 7, 3, 3.843261241912842
0, 7, 4, 1.580918669700623
0, 7, 5, 1.511595606803894
0, 7, 6, 3.030120134353638
0, 7, 7, 1.273086428642273
0, 7, 8, 3.98267126083374
0, 7, 9, 3.281238555908203
0, 7, 10, 5.234782695770264
0, 7, 11, 4.831378936767578
0, 7, 12, 3.588161468505859
0, 7, 13, 5.314857006072998
0, 7, 14, 7.562393188476562
0, 7, 15, 7.098463535308838
0, 7, 16, 15.42647743225098
0, 7, 17, 50.12899780273438
0, 7, 18, 162.0768280029297
0, 7, 19, 183.3122406005859
0, 7, 20, 180.5600738525391
0, 7, 21, 181.6086120605469
0, 7, 22, 191.5136260986328
0, 7, 23, 202.2673492431641
0, 7, 24, 179.0786590576172
0, 7, 25, 212.8322296142578
0, 7, 26, 189.9440765380859
0, 7, 27, 181.8434753417969
0, 7, 28, 182.8617248535156
0, 7, 29, 209.1325531005859
0, 7, 30, 192.8008270263672
0, 7, 31, 176.3246917724609
0, 7, 32, 190.9253387451172
0, 7, 33, 180.14111328125
0, 7, 34, 194.2168426513672
0, 7, 35, 196.5338745117188
0, 7, 36, 188.2119598388672
0, 7, 37, 213.3519134521484
0, 7, 38, 190.3199462890625
0, 7, 39, 173.6777801513672
0, 7, 40, 183.22021484375
0, 7, 41, 185.0984191894531
0, 7, 42, 177.8533172607422
0, 7, 43, 178.6214599609375
0, 7, 44, 178.4961700439453
0, 7, 45, 173.8270721435547
0, 7, 46, 189.3260803222656
0, 7, 47, 198.7391052246094
0, 7, 48, 188.9556732177734
0, 7, 49, 201.5003204345703
0, 7, 50, 187.920654296875
0, 7, 51, 205.9756317138672
0, 7, 52, 203.9822235107422
0, 7, 53, 191.3153533935547
0, 7, 54, 196.6334381103516
0, 7, 55, 203.1498107910156
0, 7, 56, 183.8793334960938
0, 7, 57, 182.6096343994141
0, 7, 58, 190.8134918212891
0, 7, 59, 187.6485900878906
0, 7, 60, 203.1174163818359
0, 7, 61, 171.0281524658203
0, 7, 62, 202.8220672607422
0, 7, 63, 189.6742553710938
0, 7, 64, 199.9234924316406
0, 7, 65, 194.5652008056641
0, 7, 66, 205.912353515625
0, 7, 67, 219.6010284423828
0, 7, 68, 162.1741027832031
0, 7, 69, 194.4589233398438
0, 7, 70, 218.1942291259766
0, 7, 71, 183.5655670166016
0, 7, 72, 179.9356079101562
0, 7, 73, 177.0096588134766
0, 7, 74, 207.3443603515625
0, 7, 75, 205.0544586181641
0, 7, 76, 214.2949676513672
0, 7, 77, 173.0002136230469
0, 7, 78, 176.2775573730469
0, 7, 79, 192.7189483642578
0, 7, 80, 195.1794891357422
0, 7, 81, 214.5359497070312
0, 7, 82, 186.5322418212891
0, 7, 83, 205.0722503662109
0, 7, 84, 191.5128936767578
0, 7, 85, 185.4034271240234
0, 7, 86, 200.9075164794922
0, 7, 87, 226.0455169677734
0, 7, 88, 195.15625
0, 7, 89, 177.7807922363281
0, 7, 90, 182.4360198974609
0, 7, 91, 194.3371887207031
0, 7, 92, 195.8680419921875
0, 7, 93, 198.0532073974609
0, 7, 94, 177.5384674072266
0, 7, 95, 198.6592559814453
0, 7, 96, 210.3751525878906
0, 7, 97, 188.2697143554688
0, 7, 98, 177.0419921875
0, 7, 99, 196.8370666503906
0, 7, 100, 184.4636535644531
0, 7, 101, 200.4241943359375
0, 7, 102, 187.0650939941406
0, 7, 103, 182.1060943603516
0, 7, 104, 174.0897521972656
0, 7, 105, 196.6809387207031
0, 7, 106, 206.0648956298828
0, 7, 107, 175.0178527832031
0, 7, 108, 176.0885162353516
0, 7, 109, 137.4486236572266
0, 7, 110, 54.42535018920898
0, 7, 111, 9.733439445495605
0, 7, 112, 7.636485576629639
0, 7, 113, 8.534225463867188
0, 7, 114, 6.935952663421631
0, 7, 115, 4.71156644821167
0, 7, 116, 4.247383594512939
0, 7, 117, 2.832710266113281
0, 7, 118, 3.666686058044434
0, 7, 119, 2.341633558273315
0, 7, 120, 2.719308137893677
0, 7, 121, 2.312516927719116
0, 7, 122, 3.760955572128296
0, 7, 123, 2.324889421463013
0, 7, 124, 1.011146903038025
0, 7, 125, 1.714274287223816
0, 7, 126, 3.799198627471924
0, 7, 127, 2.139976978302002
0, 8, 0, 4.486019611358643
0, 8, 1, 2.224873781204224
0, 8, 2, 3.530919313430786
0, 8, 3, 1.767406821250916
0, 8, 4, 1.548208117485046
0, 8, 5, 3.172329425811768
0, 8, 6, 3.749727725982666
0, 8, 7, 2.542339324951172
0, 8, 8, 3.443606615066528
0, 8, 9, 6.390532970428467
0, 8, 10, 2.0391526222229
0, 8, 11, 2.741149425506592
0, 8, 12, 3.352839231491089
0, 8, 13, 5.320415496826172
0, 8, 14, 6.461465358734131
0, 8, 15, 8.566732406616211
0, 8, 16, 18.29685020446777
0, 8, 17, 75.51171875
0, 8, 18, 142.3075714111328
0, 8, 19, 178.8141021728516
0, 8, 20, 192.7119750976562
0, 8, 21, 192.0018768310547
0, 8, 22, 181.7628021240234
0, 8, 23, 172.8560485839844
0, 8, 24, 192.3779907226562
0, 8, 25, 184.3709716796875
0, 8, 26, 194.1419067382812
0, 8, 27, 186.1927795410156
0, 8, 28, 186.7467803955078
0, 8, 29, 206.3582916259766
0, 8, 30, 196.5327911376953
0, 8, 31, 181.5453338623047
0, 8, 32, 197.8318634033203
0, 8, 33, 206.3208160400391
0, 8, 34, 203.0382995605469
0, 8, 35, 187.2953033447266
0, 8, 36, 181.3962249755859
0, 8, 37, 198.5632629394531
