# TOPAS Version: 3.1.p3
# Parameter File: batch_inserts_232.txt
# Results for scorer Readout_Adipose
# Scored in component: MyBox
# X in 1 bin  of 0.65 cm
# Y in 512 bins of 0.0783984 cm
# Z in 128 bins of 0.078125 cm
# EnergyDeposit ( MeV ) : Sum   
0, 0, 0, 1.918846130371094
0, 0, 1, 2.834153175354004
0, 0, 2, 2.443719387054443
0, 0, 3, 1.450071454048157
0, 0, 4, 1.339613556861877
0, 0, 5, 1.215332269668579
0, 0, 6, 1.174714803695679
0, 0, 7, 2.09568452835083
0, 0, 8, 1.632359743118286
0, 0, 9, 2.465066194534302
0, 0, 10, 1.893940567970276
0, 0, 11, 3.114922285079956
0, 0, 12, 6.126898765563965
0, 0, 13, 3.238121509552002
0, 0, 14, 4.934966564178467
0, 0, 15, 5.571647167205811
0, 0, 16, 3.889616250991821
0, 0, 17, 6.097606658935547
0, 0, 18, 6.649039745330811
0, 0, 19, 24.31745910644531
0, 0, 20, 94.81329345703125
0, 0, 21, 153.0524291992188
0, 0, 22, 155.3538360595703
0, 0, 23, 144.4151306152344
0, 0, 24, 160.7942047119141
0, 0, 25, 166.9647979736328
0, 0, 26, 166.8220977783203
0, 0, 27, 173.5529937744141
0, 0, 28, 178.2393493652344
0, 0, 29, 174.4404602050781
0, 0, 30, 172.1197357177734
0, 0, 31, 166.9884490966797
0, 0, 32, 164.1994476318359
0, 0, 33, 166.5612030029297
0, 0, 34, 177.6237487792969
0, 0, 35, 174.8324127197266
0, 0, 36, 158.9954986572266
0, 0, 37, 161.3603363037109
0, 0, 38, 166.4958953857422
0, 0, 39, 159.5003204345703
0, 0, 40, 164.1023406982422
0, 0, 41, 165.7103424072266
0, 0, 42, 145.7373352050781
0, 0, 43, 171.0904541015625
0, 0, 44, 178.1189422607422
0, 0, 45, 172.9376068115234
0, 0, 46, 165.935302734375
0, 0, 47, 167.7618865966797
0, 0, 48, 169.6034088134766
0, 0, 49, 183.3814697265625
0, 0, 50, 168.7049865722656
0, 0, 51, 162.2891845703125
0, 0, 52, 162.5668334960938
0, 0, 53, 171.4046478271484
0, 0, 54, 160.2743225097656
0, 0, 55, 164.9606628417969
0, 0, 56, 188.5257568359375
0, 0, 57, 169.98828125
0, 0, 58, 161.7627105712891
0, 0, 59, 172.7050628662109
0, 0, 60, 169.8165283203125
0, 0, 61, 170.7372283935547
0, 0, 62, 182.7261352539062
0, 0, 63, 166.5165557861328
0, 0, 64, 163.8860473632812
0, 0, 65, 177.0699005126953
0, 0, 66, 177.2494659423828
0, 0, 67, 163.2497406005859
0, 0, 68, 158.4049072265625
0, 0, 69, 158.2889862060547
0, 0, 70, 169.5970764160156
0, 0, 71, 158.7124633789062
0, 0, 72, 162.4344482421875
0, 0, 73, 171.4575347900391
0, 0, 74, 163.4313812255859
0, 0, 75, 163.0838928222656
0, 0, 76, 162.9610900878906
0, 0, 77, 172.1095581054688
0, 0, 78, 181.1709136962891
0, 0, 79, 175.6442565917969
0, 0, 80, 158.9053039550781
0, 0, 81, 160.2670745849609
0, 0, 82, 181.7153015136719
0, 0, 83, 173.0650634765625
0, 0, 84, 159.8328094482422
0, 0, 85, 180.8698577880859
0, 0, 86, 160.1664886474609
0, 0, 87, 176.5164642333984
0, 0, 88, 176.5446319580078
0, 0, 89, 175.2652130126953
0, 0, 90, 161.2868957519531
0, 0, 91, 184.1334991455078
0, 0, 92, 164.1171417236328
0, 0, 93, 155.9909057617188
0, 0, 94, 169.1080780029297
0, 0, 95, 173.8779754638672
0, 0, 96, 183.9746704101562
0, 0, 97, 183.8493194580078
0, 0, 98, 186.0713958740234
0, 0, 99, 170.9325408935547
0, 0, 100, 158.5289459228516
0, 0, 101, 166.3249969482422
0, 0, 102, 171.7391510009766
0, 0, 103, 170.2538604736328
0, 0, 104, 167.8625946044922
0, 0, 105, 177.2144927978516
0, 0, 106, 158.9899139404297
0, 0, 107, 86.98548126220703
0, 0, 108, 22.11963272094727
0, 0, 109, 9.015444755554199
0, 0, 110, 6.1686110496521
0, 0, 111, 6.442866325378418
0, 0, 112, 4.043547630310059
0, 0, 113, 2.607471466064453
0, 0, 114, 1.983425974845886
0, 0, 115, 1.962715983390808
0, 0, 116, 1.803179860115051
0, 0, 117, 2.857114791870117
0, 0, 118, 2.2132248878479
0, 0, 119, 2.93480372428894
0, 0, 120, 3.247750043869019
0, 0, 121, 3.789767503738403
0, 0, 122, 3.855547189712524
0, 0, 123, 3.231841087341309
0, 0, 124, 0.9228351712226868
0, 0, 125, 3.708439826965332
0, 0, 126, 2.932416677474976
0, 0, 127, 1.364050984382629
0, 1, 0, 2.295111894607544
0, 1, 1, 3.392433643341064
0, 1, 2, 3.815884590148926
0, 1, 3, 0.9085630774497986
0, 1, 4, 1.09615683555603
0, 1, 5, 2.657423257827759
0, 1, 6, 1.349954843521118
0, 1, 7, 2.579331636428833
0, 1, 8, 1.477729082107544
0, 1, 9, 1.567726135253906
0, 1, 10, 1.672186851501465
0, 1, 11, 5.239708423614502
0, 1, 12, 3.102562427520752
0, 1, 13, 5.461733818054199
0, 1, 14, 5.211966991424561
0, 1, 15, 6.004987716674805
0, 1, 16, 7.15570592880249
0, 1, 17, 5.794929504394531
0, 1, 18, 10.62677097320557
0, 1, 19, 38.80102157592773
0, 1, 20, 125.5677490234375
0, 1, 21, 176.6721954345703
0, 1, 22, 193.5088806152344
0, 1, 23, 184.8178405761719
0, 1, 24, 179.9681854248047
0, 1, 25, 192.5083618164062
0, 1, 26, 197.51318359375
0, 1, 27, 187.1480407714844
0, 1, 28, 188.6181488037109
0, 1, 29, 182.9800415039062
0, 1, 30, 179.7313842773438
0, 1, 31, 180.7008819580078
0, 1, 32, 189.6150512695312
0, 1, 33, 190.9222564697266
0, 1, 34, 186.0360565185547
0, 1, 35, 192.5704345703125
0, 1, 36, 205.3846435546875
0, 1, 37, 185.0776824951172
0, 1, 38, 164.9832000732422
0, 1, 39, 171.2538299560547
0, 1, 40, 180.0317535400391
0, 1, 41, 185.1806335449219
0, 1, 42, 182.9476013183594
0, 1, 43, 185.6744384765625
0, 1, 44, 167.2611236572266
0, 1, 45, 188.2873077392578
0, 1, 46, 171.8943481445312
0, 1, 47, 184.6951293945312
0, 1, 48, 186.0410766601562
0, 1, 49, 187.0000915527344
0, 1, 50, 178.1407318115234
0, 1, 51, 191.27197265625
0, 1, 52, 197.2815704345703
0, 1, 53, 195.7666015625
0, 1, 54, 185.3544769287109
0, 1, 55, 164.4891815185547
0, 1, 56, 178.5710754394531
0, 1, 57, 178.1406402587891
0, 1, 58, 188.2119903564453
0, 1, 59, 193.1875610351562
0, 1, 60, 187.8281860351562
0, 1, 61, 177.9708404541016
0, 1, 62, 204.5990447998047
0, 1, 63, 174.126708984375
0, 1, 64, 173.0446319580078
0, 1, 65, 184.4336090087891
0, 1, 66, 203.6189270019531
0, 1, 67, 183.2331085205078
0, 1, 68, 186.75146484375
0, 1, 69, 188.2538146972656
0, 1, 70, 186.3556213378906
0, 1, 71, 171.4801483154297
0, 1, 72, 189.8884429931641
0, 1, 73, 190.0340728759766
0, 1, 74, 201.4277496337891
0, 1, 75, 183.80419921875
0, 1, 76, 174.7962646484375
0, 1, 77, 191.7847442626953
0, 1, 78, 187.5607147216797
0, 1, 79, 202.0286254882812
0, 1, 80, 186.3919219970703
0, 1, 81, 175.2795257568359
0, 1, 82, 206.4497833251953
0, 1, 83, 215.3063659667969
0, 1, 84, 181.1948699951172
0, 1, 85, 171.022705078125
0, 1, 86, 168.9411010742188
0, 1, 87, 184.9565277099609
0, 1, 88, 177.6863708496094
0, 1, 89, 187.2041931152344
0, 1, 90, 213.0719604492188
0, 1, 91, 181.0036773681641
0, 1, 92, 183.2833709716797
0, 1, 93, 180.4884796142578
0, 1, 94, 183.9883422851562
0, 1, 95, 182.6553497314453
0, 1, 96, 195.9369506835938
0, 1, 97, 182.5125274658203
0, 1, 98, 186.7794342041016
0, 1, 99, 175.5261840820312
0, 1, 100, 170.9998779296875
0, 1, 101, 177.3288726806641
0, 1, 102, 182.2755737304688
0, 1, 103, 173.2891845703125
0, 1, 104, 188.6641998291016
0, 1, 105, 183.8121643066406
0, 1, 106, 163.9685363769531
0, 1, 107, 126.4767227172852
0, 1, 108, 46.94936752319336
0, 1, 109, 9.730385780334473
0, 1, 110, 6.526543140411377
0, 1, 111, 6.517332553863525
0, 1, 112, 7.954198360443115
0, 1, 113, 8.327818870544434
0, 1, 114, 4.904273986816406
0, 1, 115, 3.638326168060303
0, 1, 116, 4.104202747344971
0, 1, 117, 2.154555320739746
0, 1, 118, 3.826678037643433
0, 1, 119, 2.173192977905273
0, 1, 120, 3.283879518508911
0, 1, 121, 4.030900001525879
0, 1, 122, 1.920418620109558
0, 1, 123, 4.329859256744385
0, 1, 124, 3.165520429611206
0, 1, 125, 2.982007026672363
0, 1, 126, 1.863538503646851
0, 1, 127, 3.067845821380615
0, 2, 0, 1.811719536781311
0, 2, 1, 2.557598829269409
0, 2, 2, 2.062565803527832
0, 2, 3, 1.883656024932861
0, 2, 4, 1.472134470939636
0, 2, 5, 0.9197041988372803
0, 2, 6, 2.484363317489624
0, 2, 7, 1.93967592716217
0, 2, 8, 1.051937937736511
0, 2, 9, 2.606085062026978
0, 2, 10, 6.834066867828369
0, 2, 11, 4.570418834686279
0, 2, 12, 3.620097398757935
0, 2, 13, 2.833519220352173
0, 2, 14, 4.093630313873291
0, 2, 15, 6.135922908782959
0, 2, 16, 4.334773540496826
0, 2, 17, 9.060328483581543
0, 2, 18, 14.86260223388672
0, 2, 19, 78.6976318359375
0, 2, 20, 161.9456939697266
0, 2, 21, 185.4105224609375
0, 2, 22, 194.3006439208984
0, 2, 23, 183.5090179443359
0, 2, 24, 173.5578002929688
0, 2, 25, 183.5173950195312
0, 2, 26, 179.193603515625
0, 2, 27, 190.2138824462891
0, 2, 28, 171.1574859619141
0, 2, 29, 169.005615234375
0, 2, 30, 186.9170227050781
0, 2, 31, 182.8207092285156
0, 2, 32, 183.0677947998047
0, 2, 33, 192.0832824707031
0, 2, 34, 197.0156097412109
0, 2, 35, 182.8882598876953
0, 2, 36, 186.4119110107422
0, 2, 37, 181.0757293701172
0, 2, 38, 183.7444152832031
0, 2, 39, 167.2086181640625
0, 2, 40, 183.4381103515625
0, 2, 41, 184.3698120117188
0, 2, 42, 189.0359802246094
0, 2, 43, 193.9908447265625
0, 2, 44, 190.4459075927734
0, 2, 45, 191.382080078125
0, 2, 46, 195.4580078125
0, 2, 47, 190.7348480224609
0, 2, 48, 176.8161010742188
0, 2, 49, 198.9016571044922
0, 2, 50, 167.1429901123047
0, 2, 51, 186.0161590576172
0, 2, 52, 187.0186462402344
0, 2, 53, 196.00048828125
0, 2, 54, 175.4398956298828
0, 2, 55, 173.3216094970703
0, 2, 56, 182.0115661621094
0, 2, 57, 200.3156890869141
0, 2, 58, 186.7457275390625
0, 2, 59, 189.3875579833984
0, 2, 60, 196.3032684326172
0, 2, 61, 193.1546173095703
0, 2, 62, 189.9871826171875
0, 2, 63, 169.8855133056641
0, 2, 64, 189.3249816894531
0, 2, 65, 202.3884429931641
0, 2, 66, 196.0375671386719
0, 2, 67, 185.7612152099609
0, 2, 68, 183.1694641113281
0, 2, 69, 186.8409729003906
0, 2, 70, 203.2227478027344
0, 2, 71, 176.2681121826172
0, 2, 72, 186.1636505126953
0, 2, 73, 178.1253814697266
0, 2, 74, 180.5208587646484
0, 2, 75, 196.0285491943359
0, 2, 76, 183.68408203125
0, 2, 77, 178.9737091064453
0, 2, 78, 197.8767852783203
0, 2, 79, 180.9215087890625
0, 2, 80, 190.0004577636719
0, 2, 81, 188.5466461181641
0, 2, 82, 205.5922698974609
0, 2, 83, 203.8223571777344
0, 2, 84, 188.14501953125
0, 2, 85, 170.5919036865234
0, 2, 86, 196.0918426513672
0, 2, 87, 172.2222747802734
0, 2, 88, 178.3931427001953
0, 2, 89, 184.0872802734375
0, 2, 90, 178.748779296875
0, 2, 91, 174.3724212646484
0, 2, 92, 196.3406372070312
0, 2, 93, 194.0242156982422
0, 2, 94, 202.1182403564453
0, 2, 95, 195.0368499755859
0, 2, 96, 186.1702117919922
0, 2, 97, 171.4614715576172
0, 2, 98, 173.1716613769531
0, 2, 99, 162.6391754150391
0, 2, 100, 187.7242279052734
0, 2, 101, 196.7587585449219
0, 2, 102, 176.6107788085938
0, 2, 103, 199.8878784179688
0, 2, 104, 187.2801208496094
0, 2, 105, 200.8008422851562
0, 2, 106, 194.8200836181641
0, 2, 107, 150.4877014160156
0, 2, 108, 78.84622955322266
0, 2, 109, 17.50934028625488
0, 2, 110, 10.49351501464844
0, 2, 111, 6.375107765197754
0, 2, 112, 4.141421794891357
0, 2, 113, 5.155817985534668
0, 2, 114, 6.182207584381104
0, 2, 115, 3.044538021087646
0, 2, 116, 1.806936144828796
0, 2, 117, 2.11527681350708
0, 2, 118, 1.70831823348999
0, 2, 119, 2.351948261260986
0, 2, 120, 1.785773158073425
0, 2, 121, 3.440935850143433
0, 2, 122, 1.014480829238892
0, 2, 123, 4.085044860839844
0, 2, 124, 2.688754081726074
0, 2, 125, 1.837297320365906
0, 2, 126, 2.513248920440674
0, 2, 127, 1.283833265304565
0, 3, 0, 1.782716870307922
0, 3, 1, 1.483442664146423
0, 3, 2, 1.352743268013
0, 3, 3, 0.8891167640686035
0, 3, 4, 4.329068660736084
0, 3, 5, 0.9094390273094177
0, 3, 6, 0.6893990635871887
0, 3, 7, 1.233083724975586
0, 3, 8, 2.062593698501587
0, 3, 9, 1.188709735870361
0, 3, 10, 1.656412601470947
0, 3, 11, 3.543029069900513
0, 3, 12, 3.283830165863037
0, 3, 13, 3.543630361557007
0, 3, 14, 3.947473764419556
0, 3, 15, 6.818132400512695
0, 3, 16, 7.276564598083496
0, 3, 17, 6.40742826461792
0, 3, 18, 34.87561798095703
0, 3, 19, 115.2277984619141
0, 3, 20, 180.7698211669922
0, 3, 21, 172.3414306640625
0, 3, 22, 178.0431060791016
0, 3, 23, 188.3845062255859
0, 3, 24, 178.787353515625
0, 3, 25, 168.9731292724609
0, 3, 26, 180.9874267578125
0, 3, 27, 189.1908569335938
0, 3, 28, 184.0446166992188
0, 3, 29, 197.0346832275391
0, 3, 30, 185.1124267578125
0, 3, 31, 194.1836395263672
0, 3, 32, 205.5172576904297
0, 3, 33, 195.3514862060547
0, 3, 34, 187.3166046142578
0, 3, 35, 173.1371307373047
0, 3, 36, 185.4362945556641
0, 3, 37, 200.1916961669922
0, 3, 38, 190.7855072021484
0, 3, 39, 184.8425903320312
0, 3, 40, 166.5983123779297
0, 3, 41, 174.5355377197266
0, 3, 42, 184.9302978515625
0, 3, 43, 181.6802368164062
0, 3, 44, 203.1916351318359
0, 3, 45, 207.4922180175781
0, 3, 46, 199.0553741455078
0, 3, 47, 194.5601196289062
0, 3, 48, 195.8952789306641
0, 3, 49, 180.0816497802734
0, 3, 50, 188.7878723144531
0, 3, 51, 174.0564270019531
0, 3, 52, 186.9798583984375
0, 3, 53, 177.3003540039062
0, 3, 54, 179.1792144775391
0, 3, 55, 176.5135650634766
0, 3, 56, 182.1433410644531
0, 3, 57, 175.4029388427734
0, 3, 58, 201.9129791259766
0, 3, 59, 195.4740295410156
0, 3, 60, 186.731201171875
0, 3, 61, 180.7682495117188
0, 3, 62, 182.4872131347656
0, 3, 63, 185.9250793457031
0, 3, 64, 190.5783081054688
0, 3, 65, 187.9510498046875
0, 3, 66, 175.2525177001953
0, 3, 67, 189.4468688964844
0, 3, 68, 211.92919921875
0, 3, 69, 190.6330413818359
0, 3, 70, 184.810546875
0, 3, 71, 197.4255523681641
0, 3, 72, 185.4788818359375
0, 3, 73, 186.0798797607422
0, 3, 74, 192.3669128417969
0, 3, 75, 192.6029510498047
0, 3, 76, 190.7538909912109
0, 3, 77, 199.8010101318359
0, 3, 78, 188.2169799804688
0, 3, 79, 185.8973541259766
0, 3, 80, 190.5359497070312
0, 3, 81, 182.6852416992188
0, 3, 82, 179.7729034423828
0, 3, 83, 194.4775543212891
0, 3, 84, 199.6470794677734
0, 3, 85, 193.2100524902344
0, 3, 86, 203.9693450927734
0, 3, 87, 197.6010437011719
0, 3, 88, 192.0441589355469
0, 3, 89, 194.6152648925781
0, 3, 90, 173.3732299804688
0, 3, 91, 156.2032318115234
0, 3, 92, 206.0950164794922
0, 3, 93, 197.3732604980469
0, 3, 94, 194.5680389404297
0, 3, 95, 212.4863433837891
0, 3, 96, 209.2134246826172
0, 3, 97, 168.2469024658203
0, 3, 98, 167.6724090576172
0, 3, 99, 179.9873352050781
0, 3, 100, 176.7627258300781
0, 3, 101, 198.1494140625
0, 3, 102, 195.7828521728516
0, 3, 103, 193.1953277587891
0, 3, 104, 204.8523101806641
0, 3, 105, 176.2515716552734
0, 3, 106, 181.6539001464844
0, 3, 107, 170.6757507324219
0, 3, 108, 107.9004440307617
0, 3, 109, 27.66267585754395
0, 3, 110, 7.518083572387695
0, 3, 111, 6.814142227172852
0, 3, 112, 3.106388568878174
0, 3, 113, 7.316600799560547
0, 3, 114, 4.28307056427002
0, 3, 115, 6.227883815765381
0, 3, 116, 5.737912654876709
0, 3, 117, 4.794555187225342
0, 3, 118, 2.237659454345703
0, 3, 119, 2.630721092224121
0, 3, 120, 4.410998821258545
0, 3, 121, 3.585338115692139
0, 3, 122, 3.333343982696533
0, 3, 123, 1.059197664260864
0, 3, 124, 1.765151739120483
0, 3, 125, 1.781467795372009
0, 3, 126, 1.436932921409607
0, 3, 127, 1.514323830604553
0, 4, 0, 1.763651847839355
0, 4, 1, 0.6155528426170349
0, 4, 2, 1.739867091178894
0, 4, 3, 3.113872289657593
0, 4, 4, 1.984699606895447
0, 4, 5, 1.107725381851196
0, 4, 6, 2.657400131225586
0, 4, 7, 3.088566303253174
0, 4, 8, 1.166053771972656
0, 4, 9, 3.038734674453735
0, 4, 10, 3.409181594848633
0, 4, 11, 4.1210036277771
0, 4, 12, 3.555936813354492
0, 4, 13, 4.424301147460938
0, 4, 14, 3.963181495666504
0, 4, 15, 9.247834205627441
0, 4, 16, 6.989108085632324
0, 4, 17, 11.61480236053467
0, 4, 18, 55.69925689697266
0, 4, 19, 151.2555999755859
0, 4, 20, 192.8775482177734
0, 4, 21, 169.3741607666016
0, 4, 22, 187.0690155029297
0, 4, 23, 195.6126861572266
0, 4, 24, 192.6778869628906
0, 4, 25, 199.1919708251953
0, 4, 26, 184.6221160888672
0, 4, 27, 190.1858215332031
0, 4, 28, 179.4828491210938
0, 4, 29, 205.2343902587891
0, 4, 30, 196.5694885253906
0, 4, 31, 193.1536254882812
0, 4, 32, 209.1188354492188
0, 4, 33, 190.1112976074219
0, 4, 34, 194.7477264404297
0, 4, 35, 214.3666076660156
0, 4, 36, 192.6421356201172
0, 4, 37, 176.7722473144531
0, 4, 38, 197.109375
0, 4, 39, 189.7255249023438
0, 4, 40, 185.2516326904297
0, 4, 41, 190.1025390625
0, 4, 42, 205.4683074951172
0, 4, 43, 173.4730834960938
0, 4, 44, 183.2667694091797
0, 4, 45, 195.8406372070312
0, 4, 46, 185.6523742675781
0, 4, 47, 179.5997161865234
0, 4, 48, 185.7050476074219
0, 4, 49, 174.3406677246094
0, 4, 50, 186.5345153808594
0, 4, 51, 198.3196258544922
0, 4, 52, 223.0028686523438
0, 4, 53, 207.5043640136719
0, 4, 54, 189.7139739990234
0, 4, 55, 174.9532775878906
0, 4, 56, 190.9716339111328
0, 4, 57, 190.7539978027344
0, 4, 58, 188.0321807861328
0, 4, 59, 189.2546081542969
0, 4, 60, 195.5908813476562
0, 4, 61, 193.4196319580078
0, 4, 62, 191.6073608398438
0, 4, 63, 179.0300445556641
0, 4, 64, 213.0678558349609
0, 4, 65, 191.2085571289062
0, 4, 66, 201.1900634765625
0, 4, 67, 199.3787994384766
0, 4, 68, 204.4639739990234
0, 4, 69, 200.6720886230469
0, 4, 70, 205.6063995361328
0, 4, 71, 207.0278778076172
0, 4, 72, 214.8741760253906
0, 4, 73, 185.6203308105469
0, 4, 74, 181.4212951660156
0, 4, 75, 183.9469757080078
0, 4, 76, 189.6942443847656
0, 4, 77, 182.6749114990234
0, 4, 78, 194.9171905517578
0, 4, 79, 204.0880432128906
0, 4, 80, 211.9917602539062
0, 4, 81, 197.7562408447266
0, 4, 82, 184.0523376464844
0, 4, 83, 169.1817016601562
0, 4, 84, 192.9524078369141
0, 4, 85, 195.8186187744141
0, 4, 86, 180.736083984375
0, 4, 87, 182.9199371337891
0, 4, 88, 204.4844665527344
0, 4, 89, 188.1284484863281
0, 4, 90, 212.6782989501953
0, 4, 91, 189.5910186767578
0, 4, 92, 197.3541412353516
0, 4, 93, 196.3027038574219
0, 4, 94, 181.3661804199219
0, 4, 95, 175.7561187744141
0, 4, 96, 190.2427673339844
0, 4, 97, 193.2880859375
0, 4, 98, 200.8149566650391
0, 4, 99, 184.5165710449219
0, 4, 100, 182.4359436035156
0, 4, 101, 178.4438323974609
0, 4, 102, 175.1041412353516
0, 4, 103, 185.2214660644531
0, 4, 104, 209.3835601806641
0, 4, 105, 190.5721435546875
0, 4, 106, 179.1533508300781
0, 4, 107, 181.107666015625
0, 4, 108, 151.3573913574219
0, 4, 109, 48.25793838500977
0, 4, 110, 10.93110466003418
0, 4, 111, 7.772737503051758
0, 4, 112, 6.909509658813477
0, 4, 113, 5.898701190948486
0, 4, 114, 4.766116142272949
0, 4, 115, 4.727012157440186
0, 4, 116, 4.483432769775391
0, 4, 117, 2.684290885925293
0, 4, 118, 3.3066565990448
0, 4, 119, 3.474905967712402
0, 4, 120, 2.859271287918091
0, 4, 121, 4.070768356323242
0, 4, 122, 1.881967544555664
0, 4, 123, 1.891888380050659
0, 4, 124, 3.644656181335449
0, 4, 125, 3.323785305023193
0, 4, 126, 1.652904868125916
0, 4, 127, 2.581495761871338
0, 5, 0, 1.384063005447388
0, 5, 1, 2.536946058273315
0, 5, 2, 5.484511852264404
0, 5, 3, 3.74138355255127
0, 5, 4, 2.243204355239868
0, 5, 5, 2.285003900527954
0, 5, 6, 3.141525745391846
0, 5, 7, 2.797900438308716
0, 5, 8, 1.87952196598053
0, 5, 9, 3.095136404037476
0, 5, 10, 3.157401084899902
0, 5, 11, 4.687526702880859
0, 5, 12, 3.058032035827637
0, 5, 13, 3.767075061798096
0, 5, 14, 4.799355983734131
0, 5, 15, 10.29160785675049
0, 5, 16, 7.934737682342529
0, 5, 17, 22.8212718963623
0, 5, 18, 83.42226409912109
0, 5, 19, 164.0352630615234
0, 5, 20, 183.4030914306641
0, 5, 21, 177.3274078369141
0, 5, 22, 170.8132476806641
0, 5, 23, 202.2692260742188
0, 5, 24, 187.0637969970703
0, 5, 25, 208.4243316650391
0, 5, 26, 182.3512268066406
0, 5, 27, 194.4613342285156
0, 5, 28, 188.8913421630859
0, 5, 29, 195.4893493652344
0, 5, 30, 177.2321166992188
0, 5, 31, 180.1763458251953
0, 5, 32, 186.0889434814453
0, 5, 33, 169.1089630126953
0, 5, 34, 194.458984375
0, 5, 35, 196.8804626464844
0, 5, 36, 167.4022979736328
0, 5, 37, 196.682861328125
0, 5, 38, 181.3296051025391
0, 5, 39, 187.1804656982422
0, 5, 40, 196.5319213867188
0, 5, 41, 177.1750335693359
0, 5, 42, 186.9530792236328
0, 5, 43, 192.2366180419922
0, 5, 44, 199.4001770019531
0, 5, 45, 186.5051879882812
0, 5, 46, 193.2059326171875
0, 5, 47, 183.0499114990234
0, 5, 48, 178.4733734130859
0, 5, 49, 178.8520050048828
0, 5, 50, 186.3407135009766
0, 5, 51, 173.1692810058594
0, 5, 52, 168.2577972412109
0, 5, 53, 181.8506927490234
0, 5, 54, 172.4994049072266
0, 5, 55, 215.5251922607422
0, 5, 56, 182.3850860595703
0, 5, 57, 206.5753479003906
0, 5, 58, 180.8783874511719
0, 5, 59, 180.1116638183594
0, 5, 60, 219.4593048095703
0, 5, 61, 184.1151428222656
0, 5, 62, 178.8865356445312
0, 5, 63, 180.0863037109375
0, 5, 64, 193.9868316650391
0, 5, 65, 209.9254913330078
0, 5, 66, 191.9263153076172
0, 5, 67, 199.1319122314453
0, 5, 68, 185.2476501464844
0, 5, 69, 184.8014221191406
0, 5, 70, 184.8484802246094
0, 5, 71, 193.9799499511719
0, 5, 72, 197.5876007080078
0, 5, 73, 200.9993591308594
0, 5, 74, 179.3672637939453
0, 5, 75, 202.8599243164062
0, 5, 76, 214.8191375732422
0, 5, 77, 180.1934356689453
0, 5, 78, 194.4640808105469
0, 5, 79, 190.5085296630859
0, 5, 80, 198.0274505615234
0, 5, 81, 203.5321502685547
0, 5, 82, 203.1565551757812
0, 5, 83, 188.5352935791016
0, 5, 84, 204.8686981201172
0, 5, 85, 176.5012817382812
0, 5, 86, 195.2042999267578
0, 5, 87, 187.1000518798828
0, 5, 88, 176.4714508056641
0, 5, 89, 195.7947387695312
0, 5, 90, 199.1441802978516
0, 5, 91, 196.6725463867188
0, 5, 92, 190.8433227539062
0, 5, 93, 188.9577941894531
0, 5, 94, 208.0619506835938
0, 5, 95, 176.7076568603516
0, 5, 96, 181.9656219482422
0, 5, 97, 190.9572296142578
0, 5, 98, 188.8695678710938
0, 5, 99, 195.05419921875
0, 5, 100, 186.2483825683594
0, 5, 101, 195.7996368408203
0, 5, 102, 182.1627044677734
0, 5, 103, 176.5800170898438
0, 5, 104, 189.7942504882812
0, 5, 105, 189.7957611083984
0, 5, 106, 176.8881530761719
0, 5, 107, 183.1357879638672
0, 5, 108, 175.2919921875
0, 5, 109, 92.29596710205078
0, 5, 110, 30.51615905761719
0, 5, 111, 10.06379413604736
0, 5, 112, 6.324332714080811
0, 5, 113, 7.712454319000244
0, 5, 114, 6.388608455657959
0, 5, 115, 6.454586505889893
0, 5, 116, 4.317960262298584
0, 5, 117, 2.460242033004761
0, 5, 118, 3.219902038574219
0, 5, 119, 3.252541780471802
0, 5, 120, 1.539915323257446
0, 5, 121, 2.717374563217163
0, 5, 122, 2.837266206741333
0, 5, 123, 3.251130819320679
0, 5, 124, 2.709371328353882
0, 5, 125, 0.8007009029388428
0, 5, 126, 2.027387142181396
0, 5, 127, 1.650017857551575
0, 6, 0, 3.936557292938232
0, 6, 1, 3.814549207687378
0, 6, 2, 4.471779823303223
0, 6, 3, 1.766807794570923
0, 6, 4, 2.860307216644287
0, 6, 5, 4.300986289978027
0, 6, 6, 2.466503381729126
0, 6, 7, 3.175785303115845
0, 6, 8, 4.179127216339111
0, 6, 9, 2.762676477432251
0, 6, 10, 4.739991188049316
0, 6, 11, 3.774152517318726
0, 6, 12, 4.518640041351318
0, 6, 13, 5.258120059967041
0, 6, 14, 4.885861873626709
0, 6, 15, 6.302239894866943
0, 6, 16, 12.7987813949585
0, 6, 17, 28.66193008422852
0, 6, 18, 112.3057861328125
0, 6, 19, 190.5226135253906
0, 6, 20, 194.6210174560547
0, 6, 21, 197.6814575195312
0, 6, 22, 190.8787689208984
0, 6, 23, 190.1578826904297
0, 6, 24, 200.8054809570312
0, 6, 25, 182.4817810058594
0, 6, 26, 187.0967712402344
0, 6, 27, 191.5402374267578
0, 6, 28, 188.7220611572266
0, 6, 29, 211.4083251953125
0, 6, 30, 190.7092132568359
0, 6, 31, 192.8645629882812
0, 6, 32, 206.0894622802734
0, 6, 33, 186.6075286865234
0, 6, 34, 196.5634918212891
0, 6, 35, 187.7935943603516
0, 6, 36, 180.6875
0, 6, 37, 182.8679504394531
0, 6, 38, 185.0755310058594
0, 6, 39, 194.4428100585938
0, 6, 40, 174.7866058349609
0, 6, 41, 184.8564605712891
0, 6, 42, 174.7165679931641
0, 6, 43, 208.7533111572266
0, 6, 44, 209.7516326904297
0, 6, 45, 193.1505889892578
0, 6, 46, 188.5473937988281
0, 6, 47, 204.0145568847656
0, 6, 48, 191.1329650878906
0, 6, 49, 181.1380157470703
0, 6, 50, 181.8486785888672
0, 6, 51, 197.2133483886719
0, 6, 52, 197.1732940673828
0, 6, 53, 185.5104064941406
0, 6, 54, 175.094970703125
0, 6, 55, 193.828125
0, 6, 56, 202.6344909667969
0, 6, 57, 192.4158172607422
0, 6, 58, 178.1412353515625
0, 6, 59, 193.751953125
0, 6, 60, 184.0360260009766
0, 6, 61, 193.8469696044922
0, 6, 62, 196.4966125488281
0, 6, 63, 186.2070770263672
0, 6, 64, 170.7345886230469
0, 6, 65, 185.8139190673828
0, 6, 66, 197.7978210449219
0, 6, 67, 214.7481079101562
0, 6, 68, 182.6062774658203
0, 6, 69, 170.54248046875
0, 6, 70, 187.1614837646484
0, 6, 71, 169.8293762207031
0, 6, 72, 175.5266876220703
0, 6, 73, 177.1598815917969
0, 6, 74, 211.3590087890625
0, 6, 75, 227.7733612060547
0, 6, 76, 183.5456085205078
0, 6, 77, 172.1937866210938
0, 6, 78, 175.5270843505859
0, 6, 79, 187.1133880615234
0, 6, 80, 187.3845977783203
0, 6, 81, 208.8641052246094
0, 6, 82, 194.8507843017578
0, 6, 83, 194.0926971435547
0, 6, 84, 196.6731109619141
0, 6, 85, 183.5075225830078
0, 6, 86, 201.1420745849609
0, 6, 87, 183.3026885986328
0, 6, 88, 194.2837524414062
0, 6, 89, 188.1707000732422
0, 6, 90, 205.6585083007812
0, 6, 91, 199.775390625
0, 6, 92, 172.9924774169922
0, 6, 93, 193.6635284423828
0, 6, 94, 188.9891357421875
0, 6, 95, 185.1232147216797
0, 6, 96, 189.1527557373047
0, 6, 97, 194.6153564453125
0, 6, 98, 182.5579528808594
0, 6, 99, 175.2840881347656
0, 6, 100, 202.8223266601562
0, 6, 101, 167.7876586914062
0, 6, 102, 202.1152801513672
0, 6, 103, 197.9319152832031
0, 6, 104, 184.1060180664062
0, 6, 105, 194.0979156494141
0, 6, 106, 177.2618103027344
0, 6, 107, 194.1823120117188
0, 6, 108, 171.5999298095703
0, 6, 109, 114.2386703491211
0, 6, 110, 34.3834228515625
0, 6, 111, 8.752821922302246
0, 6, 112, 8.91752815246582
0, 6, 113, 6.820133209228516
0, 6, 114, 5.603439807891846
0, 6, 115, 5.209864139556885
0, 6, 116, 4.37421178817749
0, 6, 117, 4.6055908203125
0, 6, 118, 3.401573896408081
0, 6, 119, 3.631484746932983
0, 6, 120, 2.035778999328613
0, 6, 121, 3.459882736206055
0, 6, 122, 4.483916759490967
0, 6, 123, 3.388555765151978
0, 6, 124, 1.576115489006042
0, 6, 125, 3.910152435302734
0, 6, 126, 1.952471494674683
0, 6, 127, 3.112122058868408
0, 7, 0, 2.763625144958496
0, 7, 1, 2.339249610900879
0, 7, 2, 1.77903687953949
0, 7, 3, 2.060004472732544
0, 7, 4, 1.018073439598083
0, 7, 5, 1.582425355911255
0, 7, 6, 2.606019496917725
0, 7, 7, 3.004429340362549
0, 7, 8, 2.969614505767822
0, 7, 9, 3.57157039642334
0, 7, 10, 5.128427505493164
0, 7, 11, 3.281034231185913
0, 7, 12, 2.883938074111938
0, 7, 13, 5.544205188751221
0, 7, 14, 6.96887731552124
0, 7, 15, 7.463216781616211
0, 7, 16, 15.06380176544189
0, 7, 17, 51.32733154296875
0, 7, 18, 163.5791168212891
0, 7, 19, 183.0724945068359
0, 7, 20, 182.6846313476562
0, 7, 21, 181.9722747802734
0, 7, 22, 191.4952697753906
0, 7, 23, 202.8215789794922
0, 7, 24, 179.0744781494141
0, 7, 25, 214.6828918457031
0, 7, 26, 190.7513122558594
0, 7, 27, 181.8953399658203
0, 7, 28, 182.4556274414062
0, 7, 29, 208.9621276855469
0, 7, 30, 192.146240234375
0, 7, 31, 176.8419342041016
0, 7, 32, 191.0044097900391
0, 7, 33, 181.9226684570312
0, 7, 34, 194.3605499267578
0, 7, 35, 197.5063171386719
0, 7, 36, 187.337890625
0, 7, 37, 212.5119018554688
0, 7, 38, 191.6023864746094
0, 7, 39, 174.4657440185547
0, 7, 40, 183.0379486083984
0, 7, 41, 184.9899597167969
0, 7, 42, 177.4215545654297
0, 7, 43, 178.9000396728516
0, 7, 44, 178.5599212646484
0, 7, 45, 175.3902893066406
0, 7, 46, 190.0243988037109
0, 7, 47, 198.0536346435547
0, 7, 48, 184.8133239746094
0, 7, 49, 201.2671661376953
0, 7, 50, 188.1577453613281
0, 7, 51, 205.5407104492188
0, 7, 52, 204.0269775390625
0, 7, 53, 191.8541259765625
0, 7, 54, 195.2340087890625
0, 7, 55, 205.4317169189453
0, 7, 56, 183.49755859375
0, 7, 57, 183.2781219482422
0, 7, 58, 192.9181823730469
0, 7, 59, 187.2382202148438
0, 7, 60, 202.5536041259766
0, 7, 61, 172.7605438232422
0, 7, 62, 202.9251861572266
0, 7, 63, 189.0448913574219
0, 7, 64, 200.1203155517578
0, 7, 65, 197.1742553710938
0, 7, 66, 206.4056701660156
0, 7, 67, 222.2926788330078
0, 7, 68, 162.7540283203125
0, 7, 69, 194.7780303955078
0, 7, 70, 217.6051177978516
0, 7, 71, 184.10400390625
0, 7, 72, 180.9517822265625
0, 7, 73, 177.2737274169922
0, 7, 74, 207.0554504394531
0, 7, 75, 204.5571746826172
0, 7, 76, 214.5530548095703
0, 7, 77, 174.8272399902344
0, 7, 78, 177.0038452148438
0, 7, 79, 192.1980743408203
0, 7, 80, 196.7315216064453
0, 7, 81, 215.4558715820312
0, 7, 82, 185.3568572998047
0, 7, 83, 205.5563812255859
0, 7, 84, 193.1804351806641
0, 7, 85, 186.1640167236328
0, 7, 86, 200.8206329345703
0, 7, 87, 226.0146026611328
0, 7, 88, 196.3531341552734
0, 7, 89, 176.4893035888672
0, 7, 90, 182.1444549560547
0, 7, 91, 194.3880310058594
0, 7, 92, 193.2368927001953
0, 7, 93, 198.0955657958984
0, 7, 94, 176.015380859375
0, 7, 95, 197.7301788330078
0, 7, 96, 209.7245483398438
0, 7, 97, 189.7885131835938
0, 7, 98, 177.1430206298828
0, 7, 99, 198.3627014160156
0, 7, 100, 182.0533142089844
0, 7, 101, 199.3925476074219
0, 7, 102, 185.2968597412109
0, 7, 103, 181.0314331054688
0, 7, 104, 175.1053314208984
0, 7, 105, 195.5946807861328
0, 7, 106, 204.8564605712891
0, 7, 107, 172.8606567382812
0, 7, 108, 176.6075286865234
0, 7, 109, 137.1831970214844
0, 7, 110, 54.61886978149414
0, 7, 111, 8.65080738067627
0, 7, 112, 7.78603982925415
0, 7, 113, 8.40941333770752
0, 7, 114, 7.624690532684326
0, 7, 115, 5.933786392211914
0, 7, 116, 4.549312114715576
0, 7, 117, 2.666633605957031
0, 7, 118, 3.923971891403198
0, 7, 119, 3.91640043258667
0, 7, 120, 2.015601396560669
0, 7, 121, 1.596329689025879
0, 7, 122, 4.771709442138672
0, 7, 123, 1.958901047706604
0, 7, 124, 2.84762716293335
0, 7, 125, 2.362961769104004
0, 7, 126, 3.31384539604187
0, 7, 127, 2.251985311508179
0, 8, 0, 3.908457040786743
0, 8, 1, 1.844568848609924
0, 8, 2, 2.813095808029175
0, 8, 3, 3.496854543685913
0, 8, 4, 1.128034472465515
0, 8, 5, 2.929891109466553
0, 8, 6, 2.05248498916626
0, 8, 7, 2.957513570785522
0, 8, 8, 3.770777702331543
0, 8, 9, 5.782826900482178
0, 8, 10, 2.696235179901123
0, 8, 11, 2.462602853775024
0, 8, 12, 4.292922019958496
0, 8, 13, 6.082999706268311
0, 8, 14, 5.507692813873291
0, 8, 15, 8.12266731262207
0, 8, 16, 18.99928092956543
0, 8, 17, 74.15117645263672
0, 8, 18, 142.8561553955078
0, 8, 19, 179.9908447265625
0, 8, 20, 192.6723022460938
0, 8, 21, 193.5771636962891
0, 8, 22, 179.52294921875
0, 8, 23, 172.9811553955078
0, 8, 24, 192.0977325439453
0, 8, 25, 185.776123046875
0, 8, 26, 192.7480773925781
0, 8, 27, 185.8028717041016
0, 8, 28, 187.2530517578125
0, 8, 29, 208.5124053955078
0, 8, 30, 196.2838897705078
0, 8, 31, 181.7096557617188
0, 8, 32, 198.2220916748047
0, 8, 33, 206.3675842285156
0, 8, 34, 203.6757659912109
0, 8, 35, 185.4457855224609
0, 8, 36, 181.1228179931641
0, 8, 37, 199.1874237060547
