# TOPAS Version: 3.1.p3
# Parameter File: batch_inserts_24.txt
# Results for scorer Readout_Adipose
# Scored in component: MyBox
# X in 1 bin  of 0.65 cm
# Y in 512 bins of 0.0783984 cm
# Z in 128 bins of 0.078125 cm
# EnergyDeposit ( MeV ) : Sum   
0, 0, 0, 1.745720386505127
0, 0, 1, 5.973258495330811
0, 0, 2, 2.184585094451904
0, 0, 3, 1.213737964630127
0, 0, 4, 2.186039447784424
0, 0, 5, 0.3171203136444092
0, 0, 6, 1.487825393676758
0, 0, 7, 2.110588550567627
0, 0, 8, 1.638385534286499
0, 0, 9, 3.41777491569519
0, 0, 10, 2.972447156906128
0, 0, 11, 2.994531631469727
0, 0, 12, 3.343761444091797
0, 0, 13, 1.901797294616699
0, 0, 14, 5.265923023223877
0, 0, 15, 6.057911396026611
0, 0, 16, 5.380056381225586
0, 0, 17, 6.546986103057861
0, 0, 18, 7.282376289367676
0, 0, 19, 22.28845024108887
0, 0, 20, 95.42427825927734
0, 0, 21, 153.8730163574219
0, 0, 22, 153.5555419921875
0, 0, 23, 144.7590484619141
0, 0, 24, 161.0346221923828
0, 0, 25, 166.0175933837891
0, 0, 26, 166.0067443847656
0, 0, 27, 173.6810913085938
0, 0, 28, 178.1611175537109
0, 0, 29, 175.1798858642578
0, 0, 30, 173.09619140625
0, 0, 31, 166.7924957275391
0, 0, 32, 164.4586639404297
0, 0, 33, 165.5575408935547
0, 0, 34, 177.1475067138672
0, 0, 35, 174.1797180175781
0, 0, 36, 159.0708465576172
0, 0, 37, 161.4706268310547
0, 0, 38, 166.1168212890625
0, 0, 39, 160.0964660644531
0, 0, 40, 165.2424774169922
0, 0, 41, 165.2794036865234
0, 0, 42, 142.7503204345703
0, 0, 43, 168.7255554199219
0, 0, 44, 178.96337890625
0, 0, 45, 172.3544769287109
0, 0, 46, 167.4339447021484
0, 0, 47, 167.3727264404297
0, 0, 48, 169.1013488769531
0, 0, 49, 182.5416107177734
0, 0, 50, 170.1384735107422
0, 0, 51, 163.1757202148438
0, 0, 52, 162.6698913574219
0, 0, 53, 171.5582580566406
0, 0, 54, 159.182861328125
0, 0, 55, 164.323974609375
0, 0, 56, 189.097900390625
0, 0, 57, 171.2132568359375
0, 0, 58, 162.3128814697266
0, 0, 59, 171.987548828125
0, 0, 60, 168.7917327880859
0, 0, 61, 171.1672821044922
0, 0, 62, 185.2416381835938
0, 0, 63, 167.4716339111328
0, 0, 64, 164.0082244873047
0, 0, 65, 177.627685546875
0, 0, 66, 177.2774353027344
0, 0, 67, 164.9306640625
0, 0, 68, 158.5439453125
0, 0, 69, 158.9312896728516
0, 0, 70, 169.4388732910156
0, 0, 71, 158.3039855957031
0, 0, 72, 162.2294311523438
0, 0, 73, 172.0357971191406
0, 0, 74, 163.7446899414062
0, 0, 75, 165.2604217529297
0, 0, 76, 162.9215240478516
0, 0, 77, 171.6784057617188
0, 0, 78, 181.9838104248047
0, 0, 79, 175.8327941894531
0, 0, 80, 159.7942657470703
0, 0, 81, 159.9328002929688
0, 0, 82, 181.8674011230469
0, 0, 83, 173.8184661865234
0, 0, 84, 160.5680847167969
0, 0, 85, 181.5008544921875
0, 0, 86, 158.3994445800781
0, 0, 87, 177.3116149902344
0, 0, 88, 175.7753143310547
0, 0, 89, 177.2874755859375
0, 0, 90, 160.4161987304688
0, 0, 91, 186.2676849365234
0, 0, 92, 165.5704650878906
0, 0, 93, 156.1703948974609
0, 0, 94, 168.6769104003906
0, 0, 95, 174.9509735107422
0, 0, 96, 183.1281890869141
0, 0, 97, 183.6138153076172
0, 0, 98, 185.7192840576172
0, 0, 99, 171.3855895996094
0, 0, 100, 158.2581329345703
0, 0, 101, 166.4607543945312
0, 0, 102, 170.1782684326172
0, 0, 103, 170.4762725830078
0, 0, 104, 169.9925994873047
0, 0, 105, 177.9299621582031
0, 0, 106, 158.7185516357422
0, 0, 107, 85.68272399902344
0, 0, 108, 23.08969497680664
0, 0, 109, 9.795981407165527
0, 0, 110, 5.217913150787354
0, 0, 111, 7.667281150817871
0, 0, 112, 4.678543090820312
0, 0, 113, 2.695202112197876
0, 0, 114, 2.197010278701782
0, 0, 115, 1.762015104293823
0, 0, 116, 1.187389492988586
0, 0, 117, 2.123833179473877
0, 0, 118, 2.271343231201172
0, 0, 119, 2.099177598953247
0, 0, 120, 1.699630618095398
0, 0, 121, 3.978501319885254
0, 0, 122, 5.043824195861816
0, 0, 123, 3.568773508071899
0, 0, 124, 3.34270453453064
0, 0, 125, 2.740448951721191
0, 0, 126, 3.131025552749634
0, 0, 127, 1.519298791885376
0, 1, 0, 1.071569681167603
0, 1, 1, 5.253798484802246
0, 1, 2, 3.324527263641357
0, 1, 3, 1.513303279876709
0, 1, 4, 0.7559379935264587
0, 1, 5, 1.162286520004272
0, 1, 6, 0.9714304208755493
0, 1, 7, 1.69258713722229
0, 1, 8, 1.881257772445679
0, 1, 9, 2.634086608886719
0, 1, 10, 5.068816184997559
0, 1, 11, 4.58915376663208
0, 1, 12, 3.081436634063721
0, 1, 13, 3.710623741149902
0, 1, 14, 6.682981014251709
0, 1, 15, 6.797421455383301
0, 1, 16, 6.542603969573975
0, 1, 17, 5.437582969665527
0, 1, 18, 11.28394222259521
0, 1, 19, 40.13276290893555
0, 1, 20, 126.3304748535156
0, 1, 21, 178.9191589355469
0, 1, 22, 192.6013031005859
0, 1, 23, 186.3165435791016
0, 1, 24, 180.3823699951172
0, 1, 25, 191.7566528320312
0, 1, 26, 198.2169647216797
0, 1, 27, 186.9024963378906
0, 1, 28, 188.8340911865234
0, 1, 29, 183.5036926269531
0, 1, 30, 179.6931304931641
0, 1, 31, 182.3135070800781
0, 1, 32, 189.1801452636719
0, 1, 33, 190.4514923095703
0, 1, 34, 184.5497741699219
0, 1, 35, 193.3187713623047
0, 1, 36, 205.4068603515625
0, 1, 37, 186.5570373535156
0, 1, 38, 164.8865203857422
0, 1, 39, 171.5068664550781
0, 1, 40, 179.0201873779297
0, 1, 41, 184.4399871826172
0, 1, 42, 182.7613830566406
0, 1, 43, 185.0278015136719
0, 1, 44, 168.5461578369141
0, 1, 45, 189.2947082519531
0, 1, 46, 171.0192718505859
0, 1, 47, 186.0643310546875
0, 1, 48, 186.1456298828125
0, 1, 49, 185.6343994140625
0, 1, 50, 178.7836303710938
0, 1, 51, 191.6881256103516
0, 1, 52, 196.3080902099609
0, 1, 53, 196.9686126708984
0, 1, 54, 186.3117370605469
0, 1, 55, 164.6416625976562
0, 1, 56, 178.6499633789062
0, 1, 57, 178.2181091308594
0, 1, 58, 188.4610748291016
0, 1, 59, 193.6051177978516
0, 1, 60, 187.3353729248047
0, 1, 61, 178.1570739746094
0, 1, 62, 204.7491455078125
0, 1, 63, 174.2407073974609
0, 1, 64, 172.3341979980469
0, 1, 65, 184.7520294189453
0, 1, 66, 204.6916046142578
0, 1, 67, 183.4662933349609
0, 1, 68, 186.6709899902344
0, 1, 69, 188.2389831542969
0, 1, 70, 185.2796020507812
0, 1, 71, 171.2990264892578
0, 1, 72, 192.9810791015625
0, 1, 73, 190.3225250244141
0, 1, 74, 200.9867706298828
0, 1, 75, 183.8301544189453
0, 1, 76, 173.9217224121094
0, 1, 77, 193.0767059326172
0, 1, 78, 191.626953125
0, 1, 79, 201.8373413085938
0, 1, 80, 186.405029296875
0, 1, 81, 175.9528045654297
0, 1, 82, 206.5248565673828
0, 1, 83, 212.0612487792969
0, 1, 84, 180.0447692871094
0, 1, 85, 168.6903686523438
0, 1, 86, 167.6345825195312
0, 1, 87, 184.42578125
0, 1, 88, 174.8785095214844
0, 1, 89, 188.9366760253906
0, 1, 90, 212.8197326660156
0, 1, 91, 180.5323181152344
0, 1, 92, 183.2538757324219
0, 1, 93, 180.7597503662109
0, 1, 94, 185.4936981201172
0, 1, 95, 181.9101104736328
0, 1, 96, 196.2532806396484
0, 1, 97, 182.7772369384766
0, 1, 98, 186.7620849609375
0, 1, 99, 176.2654418945312
0, 1, 100, 172.3120269775391
0, 1, 101, 177.5063934326172
0, 1, 102, 182.4768981933594
0, 1, 103, 173.1309204101562
0, 1, 104, 188.1760559082031
0, 1, 105, 180.5598297119141
0, 1, 106, 163.8395080566406
0, 1, 107, 123.4064636230469
0, 1, 108, 46.95029067993164
0, 1, 109, 9.736568450927734
0, 1, 110, 6.907240867614746
0, 1, 111, 6.795929431915283
0, 1, 112, 8.639803886413574
0, 1, 113, 7.584541797637939
0, 1, 114, 7.09952974319458
0, 1, 115, 2.603170871734619
0, 1, 116, 2.786736488342285
0, 1, 117, 2.582221508026123
0, 1, 118, 3.205239772796631
0, 1, 119, 0.823037326335907
0, 1, 120, 4.113971710205078
0, 1, 121, 3.919054985046387
0, 1, 122, 3.988703966140747
0, 1, 123, 3.305543184280396
0, 1, 124, 3.30023980140686
0, 1, 125, 1.831444025039673
0, 1, 126, 1.392581224441528
0, 1, 127, 1.206120610237122
0, 2, 0, 0.5404893755912781
0, 2, 1, 1.811495184898376
0, 2, 2, 1.997577786445618
0, 2, 3, 2.300631046295166
0, 2, 4, 2.368409633636475
0, 2, 5, 1.154571413993835
0, 2, 6, 2.720739364624023
0, 2, 7, 2.115506887435913
0, 2, 8, 2.462838888168335
0, 2, 9, 3.26566481590271
0, 2, 10, 4.50726842880249
0, 2, 11, 4.21029806137085
0, 2, 12, 3.06545877456665
0, 2, 13, 4.824707984924316
0, 2, 14, 5.058316707611084
0, 2, 15, 4.939488887786865
0, 2, 16, 4.081354141235352
0, 2, 17, 9.046367645263672
0, 2, 18, 15.0858325958252
0, 2, 19, 77.22377777099609
0, 2, 20, 161.0299835205078
0, 2, 21, 183.4272766113281
0, 2, 22, 194.5576477050781
0, 2, 23, 183.1412200927734
0, 2, 24, 173.3006896972656
0, 2, 25, 184.0453643798828
0, 2, 26, 179.0700531005859
0, 2, 27, 189.0974578857422
0, 2, 28, 171.4569702148438
0, 2, 29, 169.4455871582031
0, 2, 30, 186.6936950683594
0, 2, 31, 183.5173034667969
0, 2, 32, 183.1935272216797
0, 2, 33, 189.7486877441406
0, 2, 34, 197.6062164306641
0, 2, 35, 180.9714813232422
0, 2, 36, 186.1880950927734
0, 2, 37, 182.4828796386719
0, 2, 38, 184.1817932128906
0, 2, 39, 167.6245269775391
0, 2, 40, 183.5599822998047
0, 2, 41, 184.6894378662109
0, 2, 42, 189.5982666015625
0, 2, 43, 195.2614135742188
0, 2, 44, 192.3103179931641
0, 2, 45, 189.7154693603516
0, 2, 46, 196.0415649414062
0, 2, 47, 189.4524841308594
0, 2, 48, 177.3081207275391
0, 2, 49, 198.5360717773438
0, 2, 50, 169.7504272460938
0, 2, 51, 183.3840942382812
0, 2, 52, 185.8439025878906
0, 2, 53, 194.5515899658203
0, 2, 54, 175.3027648925781
0, 2, 55, 172.9456634521484
0, 2, 56, 181.6164398193359
0, 2, 57, 199.3478240966797
0, 2, 58, 186.0263366699219
0, 2, 59, 189.5453491210938
0, 2, 60, 197.8792877197266
0, 2, 61, 193.2146606445312
0, 2, 62, 190.3672485351562
0, 2, 63, 171.8738250732422
0, 2, 64, 189.7187347412109
0, 2, 65, 202.2775268554688
0, 2, 66, 195.5020751953125
0, 2, 67, 184.4246826171875
0, 2, 68, 181.8317718505859
0, 2, 69, 187.1010131835938
0, 2, 70, 202.7314758300781
0, 2, 71, 177.2618560791016
0, 2, 72, 185.6932678222656
0, 2, 73, 177.6533203125
0, 2, 74, 181.2054901123047
0, 2, 75, 196.29345703125
0, 2, 76, 184.5429840087891
0, 2, 77, 176.5295562744141
0, 2, 78, 197.3186187744141
0, 2, 79, 180.2515411376953
0, 2, 80, 187.7105102539062
0, 2, 81, 188.9335479736328
0, 2, 82, 206.0565185546875
0, 2, 83, 204.0824737548828
0, 2, 84, 188.3515930175781
0, 2, 85, 171.071533203125
0, 2, 86, 195.7134704589844
0, 2, 87, 172.1858673095703
0, 2, 88, 178.4412841796875
0, 2, 89, 184.3184051513672
0, 2, 90, 179.4865417480469
0, 2, 91, 175.1348571777344
0, 2, 92, 198.0277557373047
0, 2, 93, 194.2820892333984
0, 2, 94, 199.8714141845703
0, 2, 95, 194.9108581542969
0, 2, 96, 186.2955474853516
0, 2, 97, 171.5001220703125
0, 2, 98, 173.5168304443359
0, 2, 99, 162.1978302001953
0, 2, 100, 187.5111236572266
0, 2, 101, 196.0620269775391
0, 2, 102, 177.8183746337891
0, 2, 103, 199.0922393798828
0, 2, 104, 189.2202911376953
0, 2, 105, 201.1572723388672
0, 2, 106, 195.1251983642578
0, 2, 107, 151.2158660888672
0, 2, 108, 79.03386688232422
0, 2, 109, 18.02854919433594
0, 2, 110, 7.485985279083252
0, 2, 111, 5.710856437683105
0, 2, 112, 3.356626510620117
0, 2, 113, 3.989447116851807
0, 2, 114, 6.29175853729248
0, 2, 115, 5.074685096740723
0, 2, 116, 2.109771728515625
0, 2, 117, 3.658031463623047
0, 2, 118, 2.366107225418091
0, 2, 119, 3.11187481880188
0, 2, 120, 0.880376398563385
0, 2, 121, 2.829682111740112
0, 2, 122, 2.737725734710693
0, 2, 123, 1.522188067436218
0, 2, 124, 2.745250701904297
0, 2, 125, 1.92750608921051
0, 2, 126, 2.595330238342285
0, 2, 127, 1.050830841064453
0, 3, 0, 1.565730929374695
0, 3, 1, 1.889662504196167
0, 3, 2, 1.577739715576172
0, 3, 3, 2.205390214920044
0, 3, 4, 3.51135778427124
0, 3, 5, 1.473665714263916
0, 3, 6, 0.9187432527542114
0, 3, 7, 1.477244734764099
0, 3, 8, 1.835874795913696
0, 3, 9, 3.210357427597046
0, 3, 10, 2.108992338180542
0, 3, 11, 3.956203699111938
0, 3, 12, 3.269129753112793
0, 3, 13, 3.667906284332275
0, 3, 14, 4.205976486206055
0, 3, 15, 5.36799430847168
0, 3, 16, 10.81717395782471
0, 3, 17, 8.421016693115234
0, 3, 18, 33.71487045288086
0, 3, 19, 115.9264602661133
0, 3, 20, 179.5045013427734
0, 3, 21, 173.8899841308594
0, 3, 22, 177.9869384765625
0, 3, 23, 187.6455078125
0, 3, 24, 177.8276824951172
0, 3, 25, 168.6943206787109
0, 3, 26, 180.6295166015625
0, 3, 27, 189.4642486572266
0, 3, 28, 181.2976684570312
0, 3, 29, 197.1476440429688
0, 3, 30, 185.17431640625
0, 3, 31, 193.9614715576172
0, 3, 32, 206.1829376220703
0, 3, 33, 197.9230499267578
0, 3, 34, 187.1567077636719
0, 3, 35, 175.6289520263672
0, 3, 36, 185.7362670898438
0, 3, 37, 199.9347839355469
0, 3, 38, 192.6997222900391
0, 3, 39, 185.1486511230469
0, 3, 40, 166.0635223388672
0, 3, 41, 172.6565399169922
0, 3, 42, 185.3529357910156
0, 3, 43, 181.7510681152344
0, 3, 44, 202.6587371826172
0, 3, 45, 207.7391204833984
0, 3, 46, 198.1951751708984
0, 3, 47, 194.0281066894531
0, 3, 48, 195.5422668457031
0, 3, 49, 179.8102416992188
0, 3, 50, 186.2252655029297
0, 3, 51, 173.8094787597656
0, 3, 52, 187.9161987304688
0, 3, 53, 178.35302734375
0, 3, 54, 180.1453094482422
0, 3, 55, 176.4039764404297
0, 3, 56, 182.2450256347656
0, 3, 57, 175.3414001464844
0, 3, 58, 201.8402862548828
0, 3, 59, 196.567626953125
0, 3, 60, 186.2271881103516
0, 3, 61, 181.5080413818359
0, 3, 62, 183.0263519287109
0, 3, 63, 184.5306701660156
0, 3, 64, 190.4251861572266
0, 3, 65, 186.9188995361328
0, 3, 66, 175.1583099365234
0, 3, 67, 191.6978912353516
0, 3, 68, 211.8433227539062
0, 3, 69, 190.7676239013672
0, 3, 70, 185.8100738525391
0, 3, 71, 197.3269653320312
0, 3, 72, 185.4144439697266
0, 3, 73, 186.0165710449219
0, 3, 74, 192.3200531005859
0, 3, 75, 192.1201171875
0, 3, 76, 190.9607391357422
0, 3, 77, 198.0875091552734
0, 3, 78, 188.2611083984375
0, 3, 79, 187.3146820068359
0, 3, 80, 189.7222290039062
0, 3, 81, 184.0695953369141
0, 3, 82, 180.9029693603516
0, 3, 83, 194.2373046875
0, 3, 84, 199.6387176513672
0, 3, 85, 192.5136871337891
0, 3, 86, 204.0802459716797
0, 3, 87, 198.4817199707031
0, 3, 88, 193.9228668212891
0, 3, 89, 193.0403594970703
0, 3, 90, 174.6825714111328
0, 3, 91, 159.3489837646484
0, 3, 92, 207.4007720947266
0, 3, 93, 196.1458282470703
0, 3, 94, 192.1996612548828
0, 3, 95, 212.0614166259766
0, 3, 96, 210.2505798339844
0, 3, 97, 168.1597442626953
0, 3, 98, 167.6436767578125
0, 3, 99, 180.0923614501953
0, 3, 100, 177.2970733642578
0, 3, 101, 197.1062774658203
0, 3, 102, 195.8182830810547
0, 3, 103, 192.3584442138672
0, 3, 104, 201.9597015380859
0, 3, 105, 176.2946014404297
0, 3, 106, 182.1359100341797
0, 3, 107, 169.4012298583984
0, 3, 108, 107.8344116210938
0, 3, 109, 27.66437911987305
0, 3, 110, 8.364886283874512
0, 3, 111, 7.359943866729736
0, 3, 112, 4.480841636657715
0, 3, 113, 6.756931304931641
0, 3, 114, 4.780251979827881
0, 3, 115, 5.900632858276367
0, 3, 116, 5.752603530883789
0, 3, 117, 3.412137746810913
0, 3, 118, 2.325441360473633
0, 3, 119, 2.963854551315308
0, 3, 120, 5.21766996383667
0, 3, 121, 2.30062460899353
0, 3, 122, 2.718718767166138
0, 3, 123, 2.227190017700195
0, 3, 124, 1.590015053749084
0, 3, 125, 1.604592561721802
0, 3, 126, 2.148703813552856
0, 3, 127, 0.8879112005233765
0, 4, 0, 1.552474498748779
0, 4, 1, 0.7989168167114258
0, 4, 2, 2.200399160385132
0, 4, 3, 3.839396953582764
0, 4, 4, 1.312783241271973
0, 4, 5, 1.757250428199768
0, 4, 6, 3.112020492553711
0, 4, 7, 3.194677829742432
0, 4, 8, 1.06717050075531
0, 4, 9, 1.57304322719574
0, 4, 10, 3.125064611434937
0, 4, 11, 3.250361680984497
0, 4, 12, 4.772312164306641
0, 4, 13, 4.854980945587158
0, 4, 14, 4.644374847412109
0, 4, 15, 9.43150806427002
0, 4, 16, 6.318407535552979
0, 4, 17, 11.57613182067871
0, 4, 18, 55.44827270507812
0, 4, 19, 150.3050231933594
0, 4, 20, 193.3878021240234
0, 4, 21, 170.7204742431641
0, 4, 22, 187.508544921875
0, 4, 23, 195.7127685546875
0, 4, 24, 192.3757019042969
0, 4, 25, 201.6424865722656
0, 4, 26, 182.8663940429688
0, 4, 27, 191.345458984375
0, 4, 28, 178.7181091308594
0, 4, 29, 205.8596649169922
0, 4, 30, 195.3035583496094
0, 4, 31, 191.3923187255859
0, 4, 32, 210.1464538574219
0, 4, 33, 190.6239318847656
0, 4, 34, 192.1028594970703
0, 4, 35, 213.6417236328125
0, 4, 36, 192.2737731933594
0, 4, 37, 179.4856109619141
0, 4, 38, 194.6193389892578
0, 4, 39, 189.9456939697266
0, 4, 40, 185.5282287597656
0, 4, 41, 191.5117950439453
0, 4, 42, 208.0343170166016
0, 4, 43, 173.5242767333984
0, 4, 44, 183.7336883544922
0, 4, 45, 196.1297912597656
0, 4, 46, 186.2530670166016
0, 4, 47, 179.2829132080078
0, 4, 48, 186.0756378173828
0, 4, 49, 174.6767272949219
0, 4, 50, 186.0316772460938
0, 4, 51, 199.7429504394531
0, 4, 52, 223.7393646240234
0, 4, 53, 205.6846160888672
0, 4, 54, 190.3668060302734
0, 4, 55, 175.6906127929688
0, 4, 56, 192.3565826416016
0, 4, 57, 192.4730987548828
0, 4, 58, 187.5948791503906
0, 4, 59, 191.3388519287109
0, 4, 60, 194.7496795654297
0, 4, 61, 193.5262145996094
0, 4, 62, 189.2144470214844
0, 4, 63, 177.6643371582031
0, 4, 64, 211.7976684570312
0, 4, 65, 190.8148651123047
0, 4, 66, 200.7374114990234
0, 4, 67, 200.0765686035156
0, 4, 68, 201.0139923095703
0, 4, 69, 199.9588165283203
0, 4, 70, 206.2608642578125
0, 4, 71, 206.3941802978516
0, 4, 72, 214.7808685302734
0, 4, 73, 185.4396362304688
0, 4, 74, 180.5623168945312
0, 4, 75, 184.3480834960938
0, 4, 76, 189.7668762207031
0, 4, 77, 182.2249603271484
0, 4, 78, 195.543701171875
0, 4, 79, 203.6658172607422
0, 4, 80, 212.8777923583984
0, 4, 81, 198.9196166992188
0, 4, 82, 182.3972320556641
0, 4, 83, 169.9380187988281
0, 4, 84, 193.1517181396484
0, 4, 85, 196.7317657470703
0, 4, 86, 180.8899841308594
0, 4, 87, 181.9122314453125
0, 4, 88, 203.6486358642578
0, 4, 89, 187.3950958251953
0, 4, 90, 210.8340148925781
0, 4, 91, 189.2986755371094
0, 4, 92, 195.7122955322266
0, 4, 93, 196.4584503173828
0, 4, 94, 182.1323547363281
0, 4, 95, 173.8636627197266
0, 4, 96, 189.5735473632812
0, 4, 97, 192.3025665283203
0, 4, 98, 201.5041046142578
0, 4, 99, 183.8263092041016
0, 4, 100, 181.9095916748047
0, 4, 101, 177.6705780029297
0, 4, 102, 173.1955871582031
0, 4, 103, 185.2359771728516
0, 4, 104, 209.3918151855469
0, 4, 105, 189.775634765625
0, 4, 106, 179.5381164550781
0, 4, 107, 181.3921661376953
0, 4, 108, 151.8523559570312
0, 4, 109, 50.79087066650391
0, 4, 110, 10.54102039337158
0, 4, 111, 8.527675628662109
0, 4, 112, 5.674872875213623
0, 4, 113, 5.652614116668701
0, 4, 114, 7.350956439971924
0, 4, 115, 2.42682409286499
0, 4, 116, 4.626726150512695
0, 4, 117, 2.285984039306641
0, 4, 118, 3.870608806610107
0, 4, 119, 4.217836380004883
0, 4, 120, 2.799076795578003
0, 4, 121, 2.736106872558594
0, 4, 122, 2.970098495483398
0, 4, 123, 1.315029501914978
0, 4, 124, 3.474995136260986
0, 4, 125, 3.936903476715088
0, 4, 126, 0.8858359456062317
0, 4, 127, 1.28424608707428
0, 5, 0, 1.056143045425415
0, 5, 1, 4.188342094421387
0, 5, 2, 6.348239421844482
0, 5, 3, 3.985350847244263
0, 5, 4, 3.104474544525146
0, 5, 5, 1.764547944068909
0, 5, 6, 2.53875994682312
0, 5, 7, 2.736840009689331
0, 5, 8, 1.97243320941925
0, 5, 9, 2.028076410293579
0, 5, 10, 1.370452642440796
0, 5, 11, 2.81817364692688
0, 5, 12, 2.798579454421997
0, 5, 13, 4.130346298217773
0, 5, 14, 5.231786727905273
0, 5, 15, 9.418460845947266
0, 5, 16, 7.319655895233154
0, 5, 17, 20.73784065246582
0, 5, 18, 83.16960906982422
0, 5, 19, 164.7786407470703
0, 5, 20, 182.7526550292969
0, 5, 21, 177.371826171875
0, 5, 22, 170.0374755859375
0, 5, 23, 200.4610443115234
0, 5, 24, 187.5785522460938
0, 5, 25, 209.3405456542969
0, 5, 26, 182.0784301757812
0, 5, 27, 192.8917999267578
0, 5, 28, 190.2932586669922
0, 5, 29, 195.9876098632812
0, 5, 30, 177.1615142822266
0, 5, 31, 180.7156066894531
0, 5, 32, 186.4118957519531
0, 5, 33, 168.5613555908203
0, 5, 34, 195.1211700439453
0, 5, 35, 196.4022369384766
0, 5, 36, 167.3935699462891
0, 5, 37, 197.1810455322266
0, 5, 38, 180.0110778808594
0, 5, 39, 185.401123046875
0, 5, 40, 195.8447265625
0, 5, 41, 176.7612762451172
0, 5, 42, 188.3434753417969
0, 5, 43, 194.5652008056641
0, 5, 44, 199.7717132568359
0, 5, 45, 186.5681457519531
0, 5, 46, 192.8448791503906
0, 5, 47, 182.7950592041016
0, 5, 48, 178.0688781738281
0, 5, 49, 177.7279052734375
0, 5, 50, 186.3684539794922
0, 5, 51, 171.5592651367188
0, 5, 52, 167.7704467773438
0, 5, 53, 182.3909912109375
0, 5, 54, 172.1333923339844
0, 5, 55, 215.9340057373047
0, 5, 56, 182.5590515136719
0, 5, 57, 206.5751953125
0, 5, 58, 181.7325897216797
0, 5, 59, 181.01904296875
0, 5, 60, 218.1963348388672
0, 5, 61, 184.7575988769531
0, 5, 62, 179.9294281005859
0, 5, 63, 180.6941986083984
0, 5, 64, 193.8567352294922
0, 5, 65, 211.7253265380859
0, 5, 66, 193.0990447998047
0, 5, 67, 198.9556121826172
0, 5, 68, 185.6392974853516
0, 5, 69, 186.2993774414062
0, 5, 70, 185.8023529052734
0, 5, 71, 192.5700836181641
0, 5, 72, 198.5440673828125
0, 5, 73, 202.017822265625
0, 5, 74, 180.3101043701172
0, 5, 75, 202.0431060791016
0, 5, 76, 214.0902099609375
0, 5, 77, 182.0956573486328
0, 5, 78, 194.2319641113281
0, 5, 79, 190.6442413330078
0, 5, 80, 197.5319213867188
0, 5, 81, 202.6540222167969
0, 5, 82, 202.5257873535156
0, 5, 83, 189.5332794189453
0, 5, 84, 206.7851257324219
0, 5, 85, 175.816162109375
0, 5, 86, 194.7193756103516
0, 5, 87, 187.1727142333984
0, 5, 88, 177.8794403076172
0, 5, 89, 194.6495666503906
0, 5, 90, 198.7353668212891
0, 5, 91, 194.7316589355469
0, 5, 92, 190.524169921875
0, 5, 93, 190.6383514404297
0, 5, 94, 207.3777465820312
0, 5, 95, 177.3786926269531
0, 5, 96, 181.7629241943359
0, 5, 97, 191.7719421386719
0, 5, 98, 187.9397888183594
0, 5, 99, 194.3267669677734
0, 5, 100, 186.8218841552734
0, 5, 101, 195.6642913818359
0, 5, 102, 180.8619079589844
0, 5, 103, 175.8198394775391
0, 5, 104, 190.4459991455078
0, 5, 105, 190.5046844482422
0, 5, 106, 176.5234375
0, 5, 107, 181.2839660644531
0, 5, 108, 176.8569946289062
0, 5, 109, 90.17604827880859
0, 5, 110, 29.80470275878906
0, 5, 111, 9.259031295776367
0, 5, 112, 6.170491695404053
0, 5, 113, 5.859748840332031
0, 5, 114, 5.81697416305542
0, 5, 115, 6.330898284912109
0, 5, 116, 3.633896827697754
0, 5, 117, 2.994260549545288
0, 5, 118, 3.88021445274353
0, 5, 119, 3.724937200546265
0, 5, 120, 3.810470342636108
0, 5, 121, 2.337893962860107
0, 5, 122, 3.843881130218506
0, 5, 123, 3.683655500411987
0, 5, 124, 3.187255620956421
0, 5, 125, 1.228923320770264
0, 5, 126, 2.940773487091064
0, 5, 127, 2.170494079589844
0, 6, 0, 3.842947959899902
0, 6, 1, 2.78557300567627
0, 6, 2, 3.873345613479614
0, 6, 3, 2.010905265808105
0, 6, 4, 2.481684923171997
0, 6, 5, 3.437484741210938
0, 6, 6, 2.407003879547119
0, 6, 7, 3.469797372817993
0, 6, 8, 5.071711540222168
0, 6, 9, 3.735668659210205
0, 6, 10, 4.504354953765869
0, 6, 11, 3.319014549255371
0, 6, 12, 6.146903038024902
0, 6, 13, 6.874536514282227
0, 6, 14, 6.13362455368042
0, 6, 15, 6.356976509094238
0, 6, 16, 13.79177284240723
0, 6, 17, 28.62251853942871
0, 6, 18, 112.5868301391602
0, 6, 19, 191.926025390625
0, 6, 20, 196.1590118408203
0, 6, 21, 199.1610260009766
0, 6, 22, 190.8753662109375
0, 6, 23, 191.0084686279297
0, 6, 24, 200.8872680664062
0, 6, 25, 183.3787841796875
0, 6, 26, 186.4451751708984
0, 6, 27, 191.6463775634766
0, 6, 28, 188.2330932617188
0, 6, 29, 210.9087219238281
0, 6, 30, 189.2676086425781
0, 6, 31, 192.8041076660156
0, 6, 32, 208.6183013916016
0, 6, 33, 186.3495788574219
0, 6, 34, 198.2345581054688
0, 6, 35, 187.8682708740234
0, 6, 36, 183.7642517089844
0, 6, 37, 182.6768951416016
0, 6, 38, 186.6476745605469
0, 6, 39, 194.2939453125
0, 6, 40, 174.1674499511719
0, 6, 41, 185.1417846679688
0, 6, 42, 174.6629486083984
0, 6, 43, 210.3982238769531
0, 6, 44, 208.9495391845703
0, 6, 45, 194.13232421875
0, 6, 46, 187.3073120117188
0, 6, 47, 203.8576965332031
0, 6, 48, 191.0482330322266
0, 6, 49, 178.5036010742188
0, 6, 50, 184.7710723876953
0, 6, 51, 197.0014953613281
0, 6, 52, 197.6410217285156
0, 6, 53, 184.3651123046875
0, 6, 54, 174.9259796142578
0, 6, 55, 194.4195404052734
0, 6, 56, 202.7822875976562
0, 6, 57, 191.9089813232422
0, 6, 58, 178.8669128417969
0, 6, 59, 193.5393371582031
0, 6, 60, 184.5979156494141
0, 6, 61, 194.0330047607422
0, 6, 62, 197.0450744628906
0, 6, 63, 186.7538757324219
0, 6, 64, 168.990966796875
0, 6, 65, 187.0054016113281
0, 6, 66, 197.0580139160156
0, 6, 67, 213.7126922607422
0, 6, 68, 183.0846710205078
0, 6, 69, 170.7855529785156
0, 6, 70, 187.5267486572266
0, 6, 71, 170.2307739257812
0, 6, 72, 177.1166687011719
0, 6, 73, 177.6677093505859
0, 6, 74, 210.3288726806641
0, 6, 75, 228.9855346679688
0, 6, 76, 184.1732330322266
0, 6, 77, 173.0505676269531
0, 6, 78, 175.4055480957031
0, 6, 79, 185.8997650146484
0, 6, 80, 188.4015197753906
0, 6, 81, 208.2306060791016
0, 6, 82, 195.1756439208984
0, 6, 83, 194.7028656005859
0, 6, 84, 196.8390808105469
0, 6, 85, 180.4066162109375
0, 6, 86, 202.6649932861328
0, 6, 87, 184.0321044921875
0, 6, 88, 193.1598052978516
0, 6, 89, 188.7236785888672
0, 6, 90, 205.5291900634766
0, 6, 91, 199.8637237548828
0, 6, 92, 173.8684539794922
0, 6, 93, 192.3294982910156
0, 6, 94, 190.2987518310547
0, 6, 95, 186.6144409179688
0, 6, 96, 188.859130859375
0, 6, 97, 193.7288665771484
0, 6, 98, 183.9065551757812
0, 6, 99, 175.9871520996094
0, 6, 100, 201.3657684326172
0, 6, 101, 167.5968780517578
0, 6, 102, 201.8575592041016
0, 6, 103, 195.6268310546875
0, 6, 104, 183.8555145263672
0, 6, 105, 193.7831115722656
0, 6, 106, 177.490478515625
0, 6, 107, 195.0090484619141
0, 6, 108, 171.4829254150391
0, 6, 109, 115.2751846313477
0, 6, 110, 35.08898544311523
0, 6, 111, 10.50139427185059
0, 6, 112, 8.308459281921387
0, 6, 113, 4.984879016876221
0, 6, 114, 4.531309604644775
0, 6, 115, 5.015786170959473
0, 6, 116, 3.707648992538452
0, 6, 117, 2.84589147567749
0, 6, 118, 3.439358472824097
0, 6, 119, 4.084026336669922
0, 6, 120, 2.356356620788574
0, 6, 121, 4.446440696716309
0, 6, 122, 3.458016633987427
0, 6, 123, 2.426866054534912
0, 6, 124, 1.962469696998596
0, 6, 125, 4.369865894317627
0, 6, 126, 2.857120275497437
0, 6, 127, 2.517520904541016
0, 7, 0, 2.712417602539062
0, 7, 1, 1.148731708526611
0, 7, 2, 2.341185569763184
0, 7, 3, 1.752660274505615
0, 7, 4, 1.447582364082336
0, 7, 5, 1.3922438621521
0, 7, 6, 3.629458665847778
0, 7, 7, 1.050823092460632
0, 7, 8, 4.508210182189941
0, 7, 9, 2.827791929244995
0, 7, 10, 5.440153121948242
0, 7, 11, 3.454692125320435
0, 7, 12, 4.534005165100098
0, 7, 13, 6.647862911224365
0, 7, 14, 6.45655632019043
0, 7, 15, 8.237709999084473
0, 7, 16, 16.79823303222656
0, 7, 17, 51.62802124023438
0, 7, 18, 161.2933349609375
0, 7, 19, 184.0041198730469
0, 7, 20, 179.4129943847656
0, 7, 21, 180.6969299316406
0, 7, 22, 192.4759216308594
0, 7, 23, 202.0641632080078
0, 7, 24, 177.9606475830078
0, 7, 25, 213.1079864501953
0, 7, 26, 189.9702758789062
0, 7, 27, 182.3829345703125
0, 7, 28, 182.9839630126953
0, 7, 29, 208.3631896972656
0, 7, 30, 192.2495422363281
0, 7, 31, 175.5616149902344
0, 7, 32, 189.2464447021484
0, 7, 33, 180.0203094482422
0, 7, 34, 194.0848083496094
0, 7, 35, 196.3046112060547
0, 7, 36, 186.5759429931641
0, 7, 37, 213.3278198242188
0, 7, 38, 191.6057586669922
0, 7, 39, 173.7738952636719
0, 7, 40, 182.7138824462891
0, 7, 41, 185.7251129150391
0, 7, 42, 178.5472717285156
0, 7, 43, 176.7635345458984
0, 7, 44, 178.9587707519531
0, 7, 45, 173.8484344482422
0, 7, 46, 190.3299865722656
0, 7, 47, 197.7640686035156
0, 7, 48, 186.7688751220703
0, 7, 49, 197.9458465576172
0, 7, 50, 188.1988525390625
0, 7, 51, 204.8499908447266
0, 7, 52, 204.0383605957031
0, 7, 53, 192.3730316162109
0, 7, 54, 195.5001831054688
0, 7, 55, 203.451171875
0, 7, 56, 183.3099822998047
0, 7, 57, 183.6960144042969
0, 7, 58, 192.1390838623047
0, 7, 59, 186.6822967529297
0, 7, 60, 203.7334136962891
0, 7, 61, 170.1158447265625
0, 7, 62, 202.7143096923828
0, 7, 63, 188.6981658935547
0, 7, 64, 198.9631652832031
0, 7, 65, 193.4474029541016
0, 7, 66, 205.2289581298828
0, 7, 67, 220.3911285400391
0, 7, 68, 162.3027954101562
0, 7, 69, 194.2070617675781
0, 7, 70, 216.5230712890625
0, 7, 71, 184.8750610351562
0, 7, 72, 179.914306640625
0, 7, 73, 176.5930938720703
0, 7, 74, 209.042236328125
0, 7, 75, 206.4724578857422
0, 7, 76, 216.4249572753906
0, 7, 77, 173.729248046875
0, 7, 78, 177.2983245849609
0, 7, 79, 193.9233245849609
0, 7, 80, 195.6882629394531
0, 7, 81, 214.5566253662109
0, 7, 82, 184.91162109375
0, 7, 83, 205.2487030029297
0, 7, 84, 192.9295806884766
0, 7, 85, 187.3110046386719
0, 7, 86, 201.1267395019531
0, 7, 87, 224.5387725830078
0, 7, 88, 195.1967468261719
0, 7, 89, 176.3285217285156
0, 7, 90, 182.1851654052734
0, 7, 91, 193.8430480957031
0, 7, 92, 195.2432098388672
0, 7, 93, 198.0653839111328
0, 7, 94, 177.3199157714844
0, 7, 95, 197.3425445556641
0, 7, 96, 208.2694244384766
0, 7, 97, 190.28369140625
0, 7, 98, 177.9542694091797
0, 7, 99, 198.0161743164062
0, 7, 100, 181.9885559082031
0, 7, 101, 199.2247314453125
0, 7, 102, 185.5773468017578
0, 7, 103, 181.8568115234375
0, 7, 104, 175.8315887451172
0, 7, 105, 196.1764831542969
0, 7, 106, 205.3213195800781
0, 7, 107, 172.7057647705078
0, 7, 108, 176.3962860107422
0, 7, 109, 135.8131408691406
0, 7, 110, 53.46234893798828
0, 7, 111, 8.667333602905273
0, 7, 112, 8.698981285095215
0, 7, 113, 8.329145431518555
0, 7, 114, 7.323326587677002
0, 7, 115, 5.324654579162598
0, 7, 116, 6.58181619644165
0, 7, 117, 2.687558889389038
0, 7, 118, 3.247801065444946
0, 7, 119, 3.404191255569458
0, 7, 120, 2.812448501586914
0, 7, 121, 1.961679697036743
0, 7, 122, 2.353817462921143
0, 7, 123, 1.617774248123169
0, 7, 124, 1.824552655220032
0, 7, 125, 3.534015893936157
0, 7, 126, 2.32633900642395
0, 7, 127, 1.691801905632019
0, 8, 0, 3.772819519042969
0, 8, 1, 2.955127954483032
0, 8, 2, 3.302817583084106
0, 8, 3, 1.319271326065063
0, 8, 4, 1.728013515472412
0, 8, 5, 3.574770450592041
0, 8, 6, 2.307919502258301
0, 8, 7, 3.319181680679321
0, 8, 8, 2.074452638626099
0, 8, 9, 4.89597749710083
0, 8, 10, 3.706861734390259
0, 8, 11, 2.273804187774658
0, 8, 12, 4.021020889282227
0, 8, 13, 4.470124244689941
0, 8, 14, 6.49621057510376
0, 8, 15, 8.050168037414551
0, 8, 16, 18.83364486694336
0, 8, 17, 74.32644653320312
0, 8, 18, 143.0337371826172
0, 8, 19, 180.6536407470703
0, 8, 20, 190.9456787109375
0, 8, 21, 194.2315216064453
0, 8, 22, 179.1025543212891
0, 8, 23, 174.4369354248047
0, 8, 24, 192.2118377685547
0, 8, 25, 185.2513275146484
0, 8, 26, 192.6524505615234
0, 8, 27, 186.6997833251953
0, 8, 28, 187.7711486816406
0, 8, 29, 208.5809326171875
0, 8, 30, 197.5739898681641
0, 8, 31, 182.4437103271484
0, 8, 32, 198.1280517578125
0, 8, 33, 206.8035125732422
0, 8, 34, 202.9564208984375
0, 8, 35, 185.3659973144531
0, 8, 36, 181.7030029296875
