# TOPAS Version: 3.1.p3
# Parameter File: batch_inserts_304.txt
# Results for scorer Readout_Adipose
# Scored in component: MyBox
# X in 1 bin  of 0.65 cm
# Y in 512 bins of 0.0783984 cm
# Z in 128 bins of 0.078125 cm
# EnergyDeposit ( MeV ) : Sum   
0, 0, 0, 2.442362070083618
0, 0, 1, 2.786666631698608
0, 0, 2, 2.913204193115234
0, 0, 3, 1.395105600357056
0, 0, 4, 1.316916465759277
0, 0, 5, 1.949938654899597
0, 0, 6, 2.52469277381897
0, 0, 7, 2.195737361907959
0, 0, 8, 2.302356243133545
0, 0, 9, 1.795890092849731
0, 0, 10, 2.096198797225952
0, 0, 11, 3.009005784988403
0, 0, 12, 5.383066654205322
0, 0, 13, 1.684842705726624
0, 0, 14, 5.109346389770508
0, 0, 15, 5.217716693878174
0, 0, 16, 4.213596820831299
0, 0, 17, 6.226920127868652
0, 0, 18, 6.69748592376709
0, 0, 19, 24.31913185119629
0, 0, 20, 94.62671661376953
0, 0, 21, 154.2770690917969
0, 0, 22, 157.8241271972656
0, 0, 23, 143.7086639404297
0, 0, 24, 159.1808624267578
0, 0, 25, 167.4356842041016
0, 0, 26, 167.0864410400391
0, 0, 27, 174.0724945068359
0, 0, 28, 177.0964508056641
0, 0, 29, 174.5095367431641
0, 0, 30, 172.2545471191406
0, 0, 31, 166.0621643066406
0, 0, 32, 164.9358367919922
0, 0, 33, 166.5717010498047
0, 0, 34, 177.3328704833984
0, 0, 35, 174.1423645019531
0, 0, 36, 160.3383483886719
0, 0, 37, 160.8900909423828
0, 0, 38, 166.2933044433594
0, 0, 39, 159.7571105957031
0, 0, 40, 165.7303771972656
0, 0, 41, 166.2671203613281
0, 0, 42, 142.9773559570312
0, 0, 43, 169.7190246582031
0, 0, 44, 178.5807952880859
0, 0, 45, 173.1709136962891
0, 0, 46, 166.4784393310547
0, 0, 47, 167.5616302490234
0, 0, 48, 170.8914031982422
0, 0, 49, 183.3739929199219
0, 0, 50, 170.4416961669922
0, 0, 51, 163.0325622558594
0, 0, 52, 161.7250061035156
0, 0, 53, 170.7089385986328
0, 0, 54, 159.6241302490234
0, 0, 55, 164.6495513916016
0, 0, 56, 189.5018005371094
0, 0, 57, 170.0315246582031
0, 0, 58, 162.2484436035156
0, 0, 59, 172.4551239013672
0, 0, 60, 169.5578308105469
0, 0, 61, 169.3507385253906
0, 0, 62, 184.3558197021484
0, 0, 63, 167.6923675537109
0, 0, 64, 164.8788757324219
0, 0, 65, 174.9326171875
0, 0, 66, 178.7800140380859
0, 0, 67, 162.9785308837891
0, 0, 68, 158.0449066162109
0, 0, 69, 159.9176177978516
0, 0, 70, 169.5906372070312
0, 0, 71, 158.2935638427734
0, 0, 72, 161.8309936523438
0, 0, 73, 171.306640625
0, 0, 74, 163.9741821289062
0, 0, 75, 163.3368072509766
0, 0, 76, 162.8484649658203
0, 0, 77, 172.5266418457031
0, 0, 78, 182.1255645751953
0, 0, 79, 175.6866607666016
0, 0, 80, 159.6481018066406
0, 0, 81, 160.9143981933594
0, 0, 82, 180.7370758056641
0, 0, 83, 172.4775390625
0, 0, 84, 159.1303253173828
0, 0, 85, 181.5768890380859
0, 0, 86, 158.2803802490234
0, 0, 87, 176.9361267089844
0, 0, 88, 176.8011322021484
0, 0, 89, 177.9483337402344
0, 0, 90, 160.0970153808594
0, 0, 91, 184.3097534179688
0, 0, 92, 164.6720428466797
0, 0, 93, 156.0362854003906
0, 0, 94, 168.8560485839844
0, 0, 95, 173.5811462402344
0, 0, 96, 184.9849090576172
0, 0, 97, 184.0375366210938
0, 0, 98, 186.2537536621094
0, 0, 99, 171.3384857177734
0, 0, 100, 158.0932769775391
0, 0, 101, 166.7299346923828
0, 0, 102, 169.9336700439453
0, 0, 103, 170.2369537353516
0, 0, 104, 168.8330993652344
0, 0, 105, 179.1991119384766
0, 0, 106, 158.8163757324219
0, 0, 107, 85.75090789794922
0, 0, 108, 21.92147827148438
0, 0, 109, 9.388021469116211
0, 0, 110, 7.692079544067383
0, 0, 111, 7.86959981918335
0, 0, 112, 2.629070043563843
0, 0, 113, 2.363916158676147
0, 0, 114, 3.01615309715271
0, 0, 115, 3.190169334411621
0, 0, 116, 1.660289645195007
0, 0, 117, 2.131087779998779
0, 0, 118, 2.168196678161621
0, 0, 119, 2.278434038162231
0, 0, 120, 1.835668325424194
0, 0, 121, 4.487331390380859
0, 0, 122, 5.253715515136719
0, 0, 123, 3.974360466003418
0, 0, 124, 2.691023826599121
0, 0, 125, 2.508466005325317
0, 0, 126, 0.7077251672744751
0, 0, 127, 2.311214447021484
0, 1, 0, 1.346649885177612
0, 1, 1, 5.200794696807861
0, 1, 2, 2.742992162704468
0, 1, 3, 1.206573009490967
0, 1, 4, 0.565805971622467
0, 1, 5, 1.620796918869019
0, 1, 6, 1.474011182785034
0, 1, 7, 3.143620729446411
0, 1, 8, 1.731527328491211
0, 1, 9, 3.122897863388062
0, 1, 10, 1.996533989906311
0, 1, 11, 3.725529432296753
0, 1, 12, 3.331401109695435
0, 1, 13, 3.099828243255615
0, 1, 14, 5.647562026977539
0, 1, 15, 5.49518871307373
0, 1, 16, 8.559317588806152
0, 1, 17, 5.1287841796875
0, 1, 18, 12.17574024200439
0, 1, 19, 38.34622573852539
0, 1, 20, 126.6932220458984
0, 1, 21, 178.4090270996094
0, 1, 22, 192.8428802490234
0, 1, 23, 186.7950286865234
0, 1, 24, 180.1016693115234
0, 1, 25, 192.1330718994141
0, 1, 26, 198.3042449951172
0, 1, 27, 185.8504028320312
0, 1, 28, 189.1180725097656
0, 1, 29, 183.3019561767578
0, 1, 30, 178.7082672119141
0, 1, 31, 182.0458679199219
0, 1, 32, 189.2410278320312
0, 1, 33, 189.2508087158203
0, 1, 34, 184.8418731689453
0, 1, 35, 192.4651947021484
0, 1, 36, 206.8442535400391
0, 1, 37, 185.0264587402344
0, 1, 38, 165.0559539794922
0, 1, 39, 173.4615478515625
0, 1, 40, 181.9560089111328
0, 1, 41, 184.4995880126953
0, 1, 42, 183.09814453125
0, 1, 43, 185.4324951171875
0, 1, 44, 167.6483917236328
0, 1, 45, 187.9141235351562
0, 1, 46, 170.0027465820312
0, 1, 47, 185.3301696777344
0, 1, 48, 186.7427215576172
0, 1, 49, 187.4239654541016
0, 1, 50, 180.114990234375
0, 1, 51, 192.9477996826172
0, 1, 52, 195.0850219726562
0, 1, 53, 195.6902770996094
0, 1, 54, 186.0860595703125
0, 1, 55, 165.6960906982422
0, 1, 56, 178.462890625
0, 1, 57, 178.5148162841797
0, 1, 58, 187.8469848632812
0, 1, 59, 193.8082580566406
0, 1, 60, 187.520263671875
0, 1, 61, 177.7171630859375
0, 1, 62, 205.4850158691406
0, 1, 63, 173.8304595947266
0, 1, 64, 172.9505310058594
0, 1, 65, 183.6382751464844
0, 1, 66, 203.2834777832031
0, 1, 67, 182.8628082275391
0, 1, 68, 187.5834503173828
0, 1, 69, 188.9751586914062
0, 1, 70, 185.6999053955078
0, 1, 71, 171.0863189697266
0, 1, 72, 187.2522735595703
0, 1, 73, 189.8056030273438
0, 1, 74, 200.9017791748047
0, 1, 75, 183.8848266601562
0, 1, 76, 174.0544891357422
0, 1, 77, 191.5541687011719
0, 1, 78, 187.5815887451172
0, 1, 79, 203.525146484375
0, 1, 80, 186.1046295166016
0, 1, 81, 174.7765350341797
0, 1, 82, 208.0075225830078
0, 1, 83, 211.1978454589844
0, 1, 84, 179.9793853759766
0, 1, 85, 170.1438140869141
0, 1, 86, 169.1707611083984
0, 1, 87, 184.9392547607422
0, 1, 88, 175.6007843017578
0, 1, 89, 188.6551055908203
0, 1, 90, 213.6072540283203
0, 1, 91, 182.0928802490234
0, 1, 92, 184.6396331787109
0, 1, 93, 181.4316711425781
0, 1, 94, 186.5601654052734
0, 1, 95, 183.3776397705078
0, 1, 96, 196.3981323242188
0, 1, 97, 183.4785308837891
0, 1, 98, 185.6711273193359
0, 1, 99, 175.1474456787109
0, 1, 100, 173.4883422851562
0, 1, 101, 178.5723876953125
0, 1, 102, 182.5350189208984
0, 1, 103, 172.6353149414062
0, 1, 104, 190.0838470458984
0, 1, 105, 180.5111846923828
0, 1, 106, 163.9153747558594
0, 1, 107, 124.7611312866211
0, 1, 108, 46.21165466308594
0, 1, 109, 9.659804344177246
0, 1, 110, 6.773344993591309
0, 1, 111, 7.244548320770264
0, 1, 112, 6.837794303894043
0, 1, 113, 6.825671195983887
0, 1, 114, 4.436131000518799
0, 1, 115, 4.241947650909424
0, 1, 116, 3.145323753356934
0, 1, 117, 2.148711681365967
0, 1, 118, 3.051354885101318
0, 1, 119, 2.342196226119995
0, 1, 120, 3.471903800964355
0, 1, 121, 3.540659666061401
0, 1, 122, 2.266072034835815
0, 1, 123, 3.909331321716309
0, 1, 124, 2.936615943908691
0, 1, 125, 2.205395221710205
0, 1, 126, 0.7098649144172668
0, 1, 127, 2.292135953903198
0, 2, 0, 1.355344533920288
0, 2, 1, 1.659522175788879
0, 2, 2, 2.398747205734253
0, 2, 3, 2.187762975692749
0, 2, 4, 1.022884011268616
0, 2, 5, 1.025425910949707
0, 2, 6, 2.011931180953979
0, 2, 7, 1.119875550270081
0, 2, 8, 1.879415512084961
0, 2, 9, 2.894733428955078
0, 2, 10, 5.474382877349854
0, 2, 11, 4.208521366119385
0, 2, 12, 3.540052175521851
0, 2, 13, 3.382503271102905
0, 2, 14, 4.096507549285889
0, 2, 15, 6.527371406555176
0, 2, 16, 4.898216247558594
0, 2, 17, 9.037920951843262
0, 2, 18, 13.67141151428223
0, 2, 19, 77.19752502441406
0, 2, 20, 162.6448669433594
0, 2, 21, 184.3020172119141
0, 2, 22, 194.3450164794922
0, 2, 23, 184.9567108154297
0, 2, 24, 173.7017211914062
0, 2, 25, 183.4716644287109
0, 2, 26, 179.0283508300781
0, 2, 27, 190.33740234375
0, 2, 28, 171.0336761474609
0, 2, 29, 169.1760711669922
0, 2, 30, 184.7817077636719
0, 2, 31, 181.6065063476562
0, 2, 32, 182.9541778564453
0, 2, 33, 191.4804229736328
0, 2, 34, 195.6361541748047
0, 2, 35, 181.1558380126953
0, 2, 36, 185.8938903808594
0, 2, 37, 180.7808532714844
0, 2, 38, 184.3849792480469
0, 2, 39, 167.7001037597656
0, 2, 40, 185.0789947509766
0, 2, 41, 184.4459533691406
0, 2, 42, 189.1995239257812
0, 2, 43, 193.5252990722656
0, 2, 44, 191.353271484375
0, 2, 45, 189.5464782714844
0, 2, 46, 196.0845489501953
0, 2, 47, 189.5375518798828
0, 2, 48, 176.8456573486328
0, 2, 49, 197.8251342773438
0, 2, 50, 168.5143737792969
0, 2, 51, 185.0605926513672
0, 2, 52, 186.5067138671875
0, 2, 53, 196.0197448730469
0, 2, 54, 175.9133758544922
0, 2, 55, 174.8617706298828
0, 2, 56, 181.478515625
0, 2, 57, 199.3302612304688
0, 2, 58, 187.3572845458984
0, 2, 59, 189.6134185791016
0, 2, 60, 196.3863677978516
0, 2, 61, 193.8022613525391
0, 2, 62, 190.0901489257812
0, 2, 63, 170.7832794189453
0, 2, 64, 192.9153442382812
0, 2, 65, 205.4809265136719
0, 2, 66, 195.9771118164062
0, 2, 67, 186.2342987060547
0, 2, 68, 181.8595123291016
0, 2, 69, 187.1532440185547
0, 2, 70, 202.943603515625
0, 2, 71, 174.8399353027344
0, 2, 72, 186.4617614746094
0, 2, 73, 177.4091644287109
0, 2, 74, 180.1889953613281
0, 2, 75, 196.0357666015625
0, 2, 76, 183.6703643798828
0, 2, 77, 177.6808471679688
0, 2, 78, 197.5718841552734
0, 2, 79, 177.8737030029297
0, 2, 80, 186.3891448974609
0, 2, 81, 186.8971557617188
0, 2, 82, 205.2231597900391
0, 2, 83, 203.8874816894531
0, 2, 84, 188.1380310058594
0, 2, 85, 169.8870086669922
0, 2, 86, 194.2785034179688
0, 2, 87, 171.8085479736328
0, 2, 88, 179.3170013427734
0, 2, 89, 187.1022338867188
0, 2, 90, 177.9158477783203
0, 2, 91, 172.6323547363281
0, 2, 92, 196.5780639648438
0, 2, 93, 192.3923034667969
0, 2, 94, 199.3149108886719
0, 2, 95, 192.803955078125
0, 2, 96, 186.3079528808594
0, 2, 97, 172.5078430175781
0, 2, 98, 173.1622619628906
0, 2, 99, 162.4409790039062
0, 2, 100, 187.8229370117188
0, 2, 101, 195.9054107666016
0, 2, 102, 176.2161712646484
0, 2, 103, 199.5837707519531
0, 2, 104, 187.3462524414062
0, 2, 105, 200.0494995117188
0, 2, 106, 195.1474151611328
0, 2, 107, 148.9712982177734
0, 2, 108, 79.59120941162109
0, 2, 109, 17.73720550537109
0, 2, 110, 8.064631462097168
0, 2, 111, 6.137274265289307
0, 2, 112, 4.42277717590332
0, 2, 113, 3.857004642486572
0, 2, 114, 6.754634857177734
0, 2, 115, 4.328324794769287
0, 2, 116, 1.423545718193054
0, 2, 117, 1.751111626625061
0, 2, 118, 2.557202339172363
0, 2, 119, 2.217111587524414
0, 2, 120, 2.920650720596313
0, 2, 121, 3.481498718261719
0, 2, 122, 1.476722598075867
0, 2, 123, 2.279663324356079
0, 2, 124, 2.198996305465698
0, 2, 125, 2.048902273178101
0, 2, 126, 3.947627305984497
0, 2, 127, 0.5237535834312439
0, 3, 0, 1.603711366653442
0, 3, 1, 1.62585461139679
0, 3, 2, 1.580397725105286
0, 3, 3, 2.802739381790161
0, 3, 4, 4.543174266815186
0, 3, 5, 2.168931245803833
0, 3, 6, 1.962766170501709
0, 3, 7, 1.500114798545837
0, 3, 8, 1.939013242721558
0, 3, 9, 1.935998916625977
0, 3, 10, 2.051506757736206
0, 3, 11, 4.30006742477417
0, 3, 12, 4.525245666503906
0, 3, 13, 4.197990894317627
0, 3, 14, 4.339069366455078
0, 3, 15, 7.402701377868652
0, 3, 16, 7.627448081970215
0, 3, 17, 6.285751819610596
0, 3, 18, 33.6915168762207
0, 3, 19, 114.9955444335938
0, 3, 20, 180.9324188232422
0, 3, 21, 172.47900390625
0, 3, 22, 177.8140411376953
0, 3, 23, 187.3687438964844
0, 3, 24, 177.7366943359375
0, 3, 25, 168.3901977539062
0, 3, 26, 180.4938354492188
0, 3, 27, 189.6439208984375
0, 3, 28, 182.4299163818359
0, 3, 29, 196.6049652099609
0, 3, 30, 185.0714569091797
0, 3, 31, 192.5443572998047
0, 3, 32, 205.7386016845703
0, 3, 33, 196.2567138671875
0, 3, 34, 186.8086090087891
0, 3, 35, 176.5637512207031
0, 3, 36, 186.3722839355469
0, 3, 37, 200.2000579833984
0, 3, 38, 193.253662109375
0, 3, 39, 184.8754730224609
0, 3, 40, 167.7319641113281
0, 3, 41, 173.8118286132812
0, 3, 42, 184.8540802001953
0, 3, 43, 181.5907440185547
0, 3, 44, 203.4090728759766
0, 3, 45, 208.5421295166016
0, 3, 46, 199.0140533447266
0, 3, 47, 195.4723358154297
0, 3, 48, 196.2157592773438
0, 3, 49, 179.746337890625
0, 3, 50, 186.1527252197266
0, 3, 51, 174.4557495117188
0, 3, 52, 187.4818267822266
0, 3, 53, 178.3324584960938
0, 3, 54, 178.0368347167969
0, 3, 55, 177.1159820556641
0, 3, 56, 182.5746002197266
0, 3, 57, 174.5597686767578
0, 3, 58, 201.9141540527344
0, 3, 59, 196.0837860107422
0, 3, 60, 186.7790222167969
0, 3, 61, 181.2077789306641
0, 3, 62, 184.6316375732422
0, 3, 63, 183.4156036376953
0, 3, 64, 187.2574157714844
0, 3, 65, 187.6368255615234
0, 3, 66, 175.6530609130859
0, 3, 67, 189.6608276367188
0, 3, 68, 211.7959747314453
0, 3, 69, 189.0289611816406
0, 3, 70, 185.4468536376953
0, 3, 71, 196.5255432128906
0, 3, 72, 185.2989959716797
0, 3, 73, 185.85595703125
0, 3, 74, 193.7206573486328
0, 3, 75, 193.6813354492188
0, 3, 76, 190.8991394042969
0, 3, 77, 198.0854797363281
0, 3, 78, 188.3990325927734
0, 3, 79, 185.9901275634766
0, 3, 80, 189.6060791015625
0, 3, 81, 183.7105712890625
0, 3, 82, 180.6440887451172
0, 3, 83, 194.0596313476562
0, 3, 84, 199.0338592529297
0, 3, 85, 192.8846740722656
0, 3, 86, 203.4775085449219
0, 3, 87, 196.9817657470703
0, 3, 88, 190.8005828857422
0, 3, 89, 193.2495880126953
0, 3, 90, 174.5029449462891
0, 3, 91, 157.8408203125
0, 3, 92, 206.9771728515625
0, 3, 93, 196.0947723388672
0, 3, 94, 193.81103515625
0, 3, 95, 211.4757843017578
0, 3, 96, 208.0735626220703
0, 3, 97, 167.2855834960938
0, 3, 98, 168.1113586425781
0, 3, 99, 181.6353302001953
0, 3, 100, 176.1618347167969
0, 3, 101, 197.4551544189453
0, 3, 102, 194.4849700927734
0, 3, 103, 192.5164642333984
0, 3, 104, 203.0975036621094
0, 3, 105, 175.5203247070312
0, 3, 106, 182.0330657958984
0, 3, 107, 169.0067138671875
0, 3, 108, 108.2268981933594
0, 3, 109, 29.21788024902344
0, 3, 110, 8.192930221557617
0, 3, 111, 7.504508495330811
0, 3, 112, 3.605609655380249
0, 3, 113, 7.218824863433838
0, 3, 114, 4.260647773742676
0, 3, 115, 5.381881713867188
0, 3, 116, 4.397306442260742
0, 3, 117, 4.059487342834473
0, 3, 118, 2.091459035873413
0, 3, 119, 2.187133550643921
0, 3, 120, 4.27190637588501
0, 3, 121, 1.656515717506409
0, 3, 122, 2.741876363754272
0, 3, 123, 1.593131542205811
0, 3, 124, 1.825101137161255
0, 3, 125, 1.820443272590637
0, 3, 126, 2.737703084945679
0, 3, 127, 0.8537136316299438
0, 4, 0, 1.980760097503662
0, 4, 1, 1.908745646476746
0, 4, 2, 1.790038108825684
0, 4, 3, 3.529636859893799
0, 4, 4, 2.033096075057983
0, 4, 5, 1.430630922317505
0, 4, 6, 2.713887691497803
0, 4, 7, 3.650950193405151
0, 4, 8, 1.907806634902954
0, 4, 9, 2.643860816955566
0, 4, 10, 3.17758321762085
0, 4, 11, 3.184784650802612
0, 4, 12, 3.889168500900269
0, 4, 13, 4.392478466033936
0, 4, 14, 5.484546661376953
0, 4, 15, 8.413323402404785
0, 4, 16, 8.108247756958008
0, 4, 17, 12.09408283233643
0, 4, 18, 53.4747314453125
0, 4, 19, 150.9734649658203
0, 4, 20, 193.2435455322266
0, 4, 21, 169.0673675537109
0, 4, 22, 187.3795776367188
0, 4, 23, 195.9870758056641
0, 4, 24, 193.1244964599609
0, 4, 25, 199.5978851318359
0, 4, 26, 183.2607116699219
0, 4, 27, 190.575927734375
0, 4, 28, 178.7884216308594
0, 4, 29, 205.4389495849609
0, 4, 30, 196.2662506103516
0, 4, 31, 192.7341766357422
0, 4, 32, 210.5562438964844
0, 4, 33, 192.3808441162109
0, 4, 34, 192.3058929443359
0, 4, 35, 212.0388793945312
0, 4, 36, 192.4161682128906
0, 4, 37, 176.3925170898438
0, 4, 38, 194.4915771484375
0, 4, 39, 190.6840515136719
0, 4, 40, 187.0161895751953
0, 4, 41, 189.1224517822266
0, 4, 42, 206.0100402832031
0, 4, 43, 173.1735076904297
0, 4, 44, 186.9443817138672
0, 4, 45, 195.6188507080078
0, 4, 46, 185.742919921875
0, 4, 47, 179.5280303955078
0, 4, 48, 185.9874725341797
0, 4, 49, 175.0345916748047
0, 4, 50, 186.3412628173828
0, 4, 51, 196.0847930908203
0, 4, 52, 223.2424621582031
0, 4, 53, 207.4228668212891
0, 4, 54, 189.9418640136719
0, 4, 55, 174.1417846679688
0, 4, 56, 191.5703887939453
0, 4, 57, 191.5090179443359
0, 4, 58, 187.2740173339844
0, 4, 59, 189.1963043212891
0, 4, 60, 197.3002319335938
0, 4, 61, 193.3812866210938
0, 4, 62, 190.2564239501953
0, 4, 63, 179.6727752685547
0, 4, 64, 212.1475982666016
0, 4, 65, 192.1104125976562
0, 4, 66, 200.579345703125
0, 4, 67, 199.7518768310547
0, 4, 68, 201.8910369873047
0, 4, 69, 199.8950042724609
0, 4, 70, 204.2156372070312
0, 4, 71, 206.6871032714844
0, 4, 72, 215.1333618164062
0, 4, 73, 185.6165313720703
0, 4, 74, 179.1287689208984
0, 4, 75, 184.7467498779297
0, 4, 76, 191.8979034423828
0, 4, 77, 183.5131683349609
0, 4, 78, 194.5226898193359
0, 4, 79, 204.2922210693359
0, 4, 80, 211.8189697265625
0, 4, 81, 198.3842010498047
0, 4, 82, 180.4766540527344
0, 4, 83, 169.8481140136719
0, 4, 84, 193.1632843017578
0, 4, 85, 195.6562194824219
0, 4, 86, 183.2001037597656
0, 4, 87, 183.7531280517578
0, 4, 88, 204.1609649658203
0, 4, 89, 188.9584655761719
0, 4, 90, 211.1091766357422
0, 4, 91, 188.8612823486328
0, 4, 92, 195.6742553710938
0, 4, 93, 196.3164520263672
0, 4, 94, 181.4790344238281
0, 4, 95, 173.4293975830078
0, 4, 96, 189.6622619628906
0, 4, 97, 193.8380737304688
0, 4, 98, 200.8288879394531
0, 4, 99, 184.1051330566406
0, 4, 100, 184.885009765625
0, 4, 101, 176.7917327880859
0, 4, 102, 172.9818878173828
0, 4, 103, 185.5299987792969
0, 4, 104, 209.9674530029297
0, 4, 105, 189.8189544677734
0, 4, 106, 179.2576293945312
0, 4, 107, 181.0700378417969
0, 4, 108, 151.6100006103516
0, 4, 109, 48.68032073974609
0, 4, 110, 12.04950904846191
0, 4, 111, 7.200967788696289
0, 4, 112, 6.27619743347168
0, 4, 113, 8.757786750793457
0, 4, 114, 5.497408866882324
0, 4, 115, 4.293817043304443
0, 4, 116, 5.505256652832031
0, 4, 117, 3.183734893798828
0, 4, 118, 3.973483324050903
0, 4, 119, 4.148497104644775
0, 4, 120, 2.313327789306641
0, 4, 121, 2.019964456558228
0, 4, 122, 3.563244104385376
0, 4, 123, 2.27611517906189
0, 4, 124, 3.410669326782227
0, 4, 125, 2.286742925643921
0, 4, 126, 0.3005618453025818
0, 4, 127, 1.601476907730103
0, 5, 0, 1.726455569267273
0, 5, 1, 3.808535814285278
0, 5, 2, 5.532750606536865
0, 5, 3, 3.561974287033081
0, 5, 4, 1.689551472663879
0, 5, 5, 2.375401973724365
0, 5, 6, 2.482887744903564
0, 5, 7, 3.703466415405273
0, 5, 8, 1.733375668525696
0, 5, 9, 2.204879522323608
0, 5, 10, 3.300471305847168
0, 5, 11, 4.000869750976562
0, 5, 12, 4.927078723907471
0, 5, 13, 3.501594305038452
0, 5, 14, 6.226280689239502
0, 5, 15, 7.975604057312012
0, 5, 16, 7.089778423309326
0, 5, 17, 21.46160125732422
0, 5, 18, 83.23190307617188
0, 5, 19, 165.4481201171875
0, 5, 20, 182.2274017333984
0, 5, 21, 178.3342132568359
0, 5, 22, 171.5653228759766
0, 5, 23, 200.4377899169922
0, 5, 24, 187.1853790283203
0, 5, 25, 207.6564483642578
0, 5, 26, 182.1474456787109
0, 5, 27, 195.9407348632812
0, 5, 28, 191.2275848388672
0, 5, 29, 195.0631256103516
0, 5, 30, 180.2486267089844
0, 5, 31, 180.8499298095703
0, 5, 32, 187.9721984863281
0, 5, 33, 170.5363464355469
0, 5, 34, 197.2402954101562
0, 5, 35, 196.9113159179688
0, 5, 36, 168.7233123779297
0, 5, 37, 197.7446441650391
0, 5, 38, 180.7295074462891
0, 5, 39, 186.5358276367188
0, 5, 40, 196.9104766845703
0, 5, 41, 177.7474975585938
0, 5, 42, 187.9283142089844
0, 5, 43, 193.2989196777344
0, 5, 44, 199.4851684570312
0, 5, 45, 186.7756805419922
0, 5, 46, 193.0118865966797
0, 5, 47, 180.2972259521484
0, 5, 48, 177.8701477050781
0, 5, 49, 176.7144012451172
0, 5, 50, 187.4493408203125
0, 5, 51, 172.5388793945312
0, 5, 52, 170.2097625732422
0, 5, 53, 181.6082611083984
0, 5, 54, 174.0277862548828
0, 5, 55, 215.6512145996094
0, 5, 56, 182.2822113037109
0, 5, 57, 209.2882995605469
0, 5, 58, 182.8416442871094
0, 5, 59, 180.9127197265625
0, 5, 60, 217.5951232910156
0, 5, 61, 184.7527923583984
0, 5, 62, 178.0857543945312
0, 5, 63, 181.0667877197266
0, 5, 64, 194.5276641845703
0, 5, 65, 211.8222503662109
0, 5, 66, 192.5339202880859
0, 5, 67, 199.7410888671875
0, 5, 68, 185.2029113769531
0, 5, 69, 187.3296661376953
0, 5, 70, 184.4773559570312
0, 5, 71, 192.9153594970703
0, 5, 72, 197.9852142333984
0, 5, 73, 201.1106719970703
0, 5, 74, 180.199951171875
0, 5, 75, 202.503662109375
0, 5, 76, 214.4461517333984
0, 5, 77, 182.8783569335938
0, 5, 78, 195.1634826660156
0, 5, 79, 190.7748718261719
0, 5, 80, 197.9958038330078
0, 5, 81, 203.2908477783203
0, 5, 82, 201.2836761474609
0, 5, 83, 188.9154510498047
0, 5, 84, 206.8600463867188
0, 5, 85, 175.9820556640625
0, 5, 86, 194.6100311279297
0, 5, 87, 189.4358825683594
0, 5, 88, 177.1446533203125
0, 5, 89, 193.9775695800781
0, 5, 90, 199.7337646484375
0, 5, 91, 194.1757049560547
0, 5, 92, 191.1972198486328
0, 5, 93, 189.3464660644531
0, 5, 94, 206.7516174316406
0, 5, 95, 177.197021484375
0, 5, 96, 181.8824768066406
0, 5, 97, 190.6886596679688
0, 5, 98, 188.6949920654297
0, 5, 99, 193.7996826171875
0, 5, 100, 185.7902069091797
0, 5, 101, 196.7446441650391
0, 5, 102, 181.8956909179688
0, 5, 103, 177.0516815185547
0, 5, 104, 190.4895935058594
0, 5, 105, 189.3504943847656
0, 5, 106, 177.1388549804688
0, 5, 107, 184.9476318359375
0, 5, 108, 175.0450897216797
0, 5, 109, 92.03868865966797
0, 5, 110, 30.16757011413574
0, 5, 111, 10.33618640899658
0, 5, 112, 7.118607521057129
0, 5, 113, 7.1715087890625
0, 5, 114, 6.645950794219971
0, 5, 115, 7.11723804473877
0, 5, 116, 4.095101833343506
0, 5, 117, 2.902814388275146
0, 5, 118, 4.420754432678223
0, 5, 119, 3.640771627426147
0, 5, 120, 3.459694623947144
0, 5, 121, 1.086771965026855
0, 5, 122, 3.039067029953003
0, 5, 123, 5.029232025146484
0, 5, 124, 2.942196130752563
0, 5, 125, 1.275799870491028
0, 5, 126, 1.576018571853638
0, 5, 127, 3.279164791107178
0, 6, 0, 3.468636274337769
0, 6, 1, 2.820523262023926
0, 6, 2, 3.058221340179443
0, 6, 3, 1.562280058860779
0, 6, 4, 2.69544506072998
0, 6, 5, 4.769094944000244
0, 6, 6, 2.305068492889404
0, 6, 7, 4.064533710479736
0, 6, 8, 3.13142204284668
0, 6, 9, 2.824053764343262
0, 6, 10, 4.008917331695557
0, 6, 11, 3.936079263687134
0, 6, 12, 5.537533283233643
0, 6, 13, 5.270497798919678
0, 6, 14, 4.822366714477539
0, 6, 15, 6.295201778411865
0, 6, 16, 12.1948356628418
0, 6, 17, 28.19076347351074
0, 6, 18, 111.8667373657227
0, 6, 19, 191.0421600341797
0, 6, 20, 195.8965759277344
0, 6, 21, 197.9348907470703
0, 6, 22, 189.8913726806641
0, 6, 23, 190.8910217285156
0, 6, 24, 200.0762481689453
0, 6, 25, 181.9930877685547
0, 6, 26, 186.6985473632812
0, 6, 27, 192.7658081054688
0, 6, 28, 187.8211822509766
0, 6, 29, 210.0747680664062
0, 6, 30, 191.9753112792969
0, 6, 31, 193.2604370117188
0, 6, 32, 206.1421508789062
0, 6, 33, 184.7556610107422
0, 6, 34, 197.3856506347656
0, 6, 35, 187.576904296875
0, 6, 36, 180.9558868408203
0, 6, 37, 183.7857513427734
0, 6, 38, 186.2584381103516
0, 6, 39, 195.1491241455078
0, 6, 40, 173.1529693603516
0, 6, 41, 185.0213012695312
0, 6, 42, 173.8787231445312
0, 6, 43, 209.2094116210938
0, 6, 44, 208.9897613525391
0, 6, 45, 193.7384948730469
0, 6, 46, 188.9638519287109
0, 6, 47, 204.0447387695312
0, 6, 48, 189.1810760498047
0, 6, 49, 178.5262298583984
0, 6, 50, 183.8436431884766
0, 6, 51, 197.3506774902344
0, 6, 52, 198.7398071289062
0, 6, 53, 185.0966949462891
0, 6, 54, 175.3424224853516
0, 6, 55, 194.6890411376953
0, 6, 56, 202.5103149414062
0, 6, 57, 190.1425628662109
0, 6, 58, 179.8317413330078
0, 6, 59, 192.5181121826172
0, 6, 60, 184.6929779052734
0, 6, 61, 193.8430328369141
0, 6, 62, 197.0540924072266
0, 6, 63, 186.689697265625
0, 6, 64, 169.1276702880859
0, 6, 65, 185.6384582519531
0, 6, 66, 197.9308929443359
0, 6, 67, 215.2118377685547
0, 6, 68, 180.3285522460938
0, 6, 69, 171.56201171875
0, 6, 70, 187.4290924072266
0, 6, 71, 170.2524871826172
0, 6, 72, 176.1861724853516
0, 6, 73, 176.584716796875
0, 6, 74, 211.2582702636719
0, 6, 75, 227.9770202636719
0, 6, 76, 183.7346649169922
0, 6, 77, 173.3916931152344
0, 6, 78, 175.5337829589844
0, 6, 79, 186.0112915039062
0, 6, 80, 187.0289001464844
0, 6, 81, 208.7064666748047
0, 6, 82, 195.6329193115234
0, 6, 83, 195.9060668945312
0, 6, 84, 197.2547912597656
0, 6, 85, 180.6522369384766
0, 6, 86, 203.4460144042969
0, 6, 87, 182.8252868652344
0, 6, 88, 192.1039581298828
0, 6, 89, 188.5614013671875
0, 6, 90, 206.3376007080078
0, 6, 91, 199.5430908203125
0, 6, 92, 173.0408782958984
0, 6, 93, 192.8485565185547
0, 6, 94, 190.2409362792969
0, 6, 95, 184.6676177978516
0, 6, 96, 189.4311370849609
0, 6, 97, 196.2365264892578
0, 6, 98, 183.9858703613281
0, 6, 99, 175.2654876708984
0, 6, 100, 200.8534851074219
0, 6, 101, 169.4857635498047
0, 6, 102, 202.5581207275391
0, 6, 103, 195.7309417724609
0, 6, 104, 184.4303283691406
0, 6, 105, 193.4270324707031
0, 6, 106, 177.1620330810547
0, 6, 107, 194.1569213867188
0, 6, 108, 171.5021057128906
0, 6, 109, 116.4030227661133
0, 6, 110, 34.26963043212891
0, 6, 111, 9.10319995880127
0, 6, 112, 8.397480964660645
0, 6, 113, 4.937760353088379
0, 6, 114, 4.640077590942383
0, 6, 115, 3.883141279220581
0, 6, 116, 4.078384876251221
0, 6, 117, 4.101523876190186
0, 6, 118, 3.793172359466553
0, 6, 119, 3.713687658309937
0, 6, 120, 3.171669244766235
0, 6, 121, 6.80750846862793
0, 6, 122, 6.860392093658447
0, 6, 123, 1.976823329925537
0, 6, 124, 2.61616325378418
0, 6, 125, 2.624280691146851
0, 6, 126, 2.52067494392395
0, 6, 127, 3.28179931640625
0, 7, 0, 3.232311487197876
0, 7, 1, 1.095201015472412
0, 7, 2, 2.701472043991089
0, 7, 3, 1.708478331565857
0, 7, 4, 0.8525945544242859
0, 7, 5, 1.466367363929749
0, 7, 6, 4.3849778175354
0, 7, 7, 1.494973421096802
0, 7, 8, 3.262323141098022
0, 7, 9, 4.625252723693848
0, 7, 10, 4.210712909698486
0, 7, 11, 3.190833568572998
0, 7, 12, 5.743886947631836
0, 7, 13, 6.59352970123291
0, 7, 14, 8.106800079345703
0, 7, 15, 6.847064018249512
0, 7, 16, 15.40715789794922
0, 7, 17, 51.12992095947266
0, 7, 18, 161.7892456054688
0, 7, 19, 183.2136993408203
0, 7, 20, 179.0485992431641
0, 7, 21, 180.296875
0, 7, 22, 191.35205078125
0, 7, 23, 202.6390991210938
0, 7, 24, 178.5682678222656
0, 7, 25, 213.2878875732422
0, 7, 26, 189.0925598144531
0, 7, 27, 181.8180847167969
0, 7, 28, 181.8302459716797
0, 7, 29, 208.2433929443359
0, 7, 30, 193.1980133056641
0, 7, 31, 175.5116424560547
0, 7, 32, 190.4230804443359
0, 7, 33, 178.9636535644531
0, 7, 34, 193.7509155273438
0, 7, 35, 198.8600006103516
0, 7, 36, 187.7442016601562
0, 7, 37, 212.6543579101562
0, 7, 38, 190.2882690429688
0, 7, 39, 173.4627838134766
0, 7, 40, 183.1785888671875
0, 7, 41, 185.438720703125
0, 7, 42, 177.4927520751953
0, 7, 43, 178.6083831787109
0, 7, 44, 179.9834594726562
0, 7, 45, 174.6777801513672
0, 7, 46, 187.2163696289062
0, 7, 47, 197.4409942626953
0, 7, 48, 185.9634704589844
0, 7, 49, 197.8310546875
0, 7, 50, 187.7420959472656
0, 7, 51, 204.8439636230469
0, 7, 52, 203.8417510986328
0, 7, 53, 190.6963348388672
0, 7, 54, 195.3751831054688
0, 7, 55, 203.2655029296875
0, 7, 56, 183.7972869873047
0, 7, 57, 182.1752471923828
0, 7, 58, 191.1692047119141
0, 7, 59, 187.640869140625
0, 7, 60, 202.2602233886719
0, 7, 61, 170.6693878173828
0, 7, 62, 203.9408721923828
0, 7, 63, 189.5811004638672
0, 7, 64, 199.2738494873047
0, 7, 65, 194.8709259033203
0, 7, 66, 205.1127319335938
0, 7, 67, 220.3876800537109
0, 7, 68, 161.9393157958984
0, 7, 69, 193.6791381835938
0, 7, 70, 218.0243682861328
0, 7, 71, 184.4294128417969
0, 7, 72, 181.4916381835938
0, 7, 73, 177.1948852539062
0, 7, 74, 207.7898406982422
0, 7, 75, 206.1988067626953
0, 7, 76, 214.3500518798828
0, 7, 77, 173.0433044433594
0, 7, 78, 178.2425842285156
0, 7, 79, 194.3760681152344
0, 7, 80, 196.5569915771484
0, 7, 81, 214.6949005126953
0, 7, 82, 187.5221557617188
0, 7, 83, 205.0072326660156
0, 7, 84, 193.7854919433594
0, 7, 85, 186.6050109863281
0, 7, 86, 200.2544403076172
0, 7, 87, 223.7263641357422
0, 7, 88, 194.8992614746094
0, 7, 89, 177.4248504638672
0, 7, 90, 182.8444976806641
0, 7, 91, 196.1705169677734
0, 7, 92, 193.7452392578125
0, 7, 93, 198.3054046630859
0, 7, 94, 180.1107177734375
0, 7, 95, 197.6437225341797
0, 7, 96, 209.1692810058594
0, 7, 97, 189.3927459716797
0, 7, 98, 176.8161773681641
0, 7, 99, 197.2688903808594
0, 7, 100, 182.4508666992188
0, 7, 101, 199.85107421875
0, 7, 102, 186.9546813964844
0, 7, 103, 181.6027679443359
0, 7, 104, 174.1584777832031
0, 7, 105, 194.8881072998047
0, 7, 106, 204.8993377685547
0, 7, 107, 172.9404449462891
0, 7, 108, 177.0739288330078
0, 7, 109, 138.0966949462891
0, 7, 110, 54.43471527099609
0, 7, 111, 8.943601608276367
0, 7, 112, 8.241559982299805
0, 7, 113, 9.084393501281738
0, 7, 114, 7.681662559509277
0, 7, 115, 4.405212879180908
0, 7, 116, 3.631150960922241
0, 7, 117, 3.592705726623535
0, 7, 118, 4.28048849105835
0, 7, 119, 2.725103616714478
0, 7, 120, 1.833515167236328
0, 7, 121, 2.821263790130615
0, 7, 122, 2.271589279174805
0, 7, 123, 2.287959337234497
0, 7, 124, 1.639374017715454
0, 7, 125, 1.449492931365967
0, 7, 126, 3.858654975891113
0, 7, 127, 1.380800724029541
0, 8, 0, 4.33832836151123
0, 8, 1, 2.265862703323364
0, 8, 2, 2.001180648803711
0, 8, 3, 2.5179762840271
0, 8, 4, 1.318253040313721
0, 8, 5, 3.103549003601074
0, 8, 6, 1.536019444465637
0, 8, 7, 2.778192520141602
0, 8, 8, 3.516949653625488
0, 8, 9, 5.309329032897949
0, 8, 10, 3.166549444198608
0, 8, 11, 2.553766965866089
0, 8, 12, 4.489882946014404
0, 8, 13, 4.542708873748779
0, 8, 14, 7.064308166503906
0, 8, 15, 7.896437644958496
0, 8, 16, 19.10828590393066
0, 8, 17, 76.53011322021484
0, 8, 18, 142.3559722900391
0, 8, 19, 178.9061126708984
0, 8, 20, 193.0272064208984
0, 8, 21, 193.7286071777344
0, 8, 22, 181.3958740234375
0, 8, 23, 172.3227386474609
0, 8, 24, 191.3211669921875
0, 8, 25, 185.1902770996094
0, 8, 26, 192.6259613037109
0, 8, 27, 185.9972229003906
0, 8, 28, 189.1711883544922
0, 8, 29, 208.4441528320312
0, 8, 30, 198.2863922119141
0, 8, 31, 182.3375549316406
0, 8, 32, 197.6443023681641
0, 8, 33, 206.3787384033203
0, 8, 34, 203.2555541992188
0, 8, 35, 184.8166656494141
0, 8, 36, 181.4614715576172
