# TOPAS Version: 3.1.p3
# Parameter File: batch_inserts_88.txt
# Results for scorer Readout_Adipose
# Scored in component: MyBox
# X in 1 bin  of 0.65 cm
# Y in 512 bins of 0.0783984 cm
# Z in 128 bins of 0.078125 cm
# EnergyDeposit ( MeV ) : Sum   
0, 0, 0, 1.622452855110168
0, 0, 1, 3.937992572784424
0, 0, 2, 2.75642204284668
0, 0, 3, 1.195741057395935
0, 0, 4, 1.574859499931335
0, 0, 5, 0.9729304313659668
0, 0, 6, 2.477244138717651
0, 0, 7, 1.834965825080872
0, 0, 8, 2.02131724357605
0, 0, 9, 2.78087043762207
0, 0, 10, 3.2569420337677
0, 0, 11, 3.271963357925415
0, 0, 12, 4.696208953857422
0, 0, 13, 2.845841884613037
0, 0, 14, 5.155177593231201
0, 0, 15, 6.669857501983643
0, 0, 16, 4.725171566009521
0, 0, 17, 7.034600257873535
0, 0, 18, 6.522729873657227
0, 0, 19, 22.63150596618652
0, 0, 20, 94.36074829101562
0, 0, 21, 153.3817596435547
0, 0, 22, 157.7960205078125
0, 0, 23, 145.3294067382812
0, 0, 24, 159.9586791992188
0, 0, 25, 167.4595336914062
0, 0, 26, 168.0688629150391
0, 0, 27, 173.8839569091797
0, 0, 28, 177.6455230712891
0, 0, 29, 174.3504638671875
0, 0, 30, 172.3291931152344
0, 0, 31, 168.0634307861328
0, 0, 32, 164.2940979003906
0, 0, 33, 166.9604644775391
0, 0, 34, 176.7503509521484
0, 0, 35, 173.2759704589844
0, 0, 36, 159.1056518554688
0, 0, 37, 160.7919616699219
0, 0, 38, 166.0150756835938
0, 0, 39, 159.8411865234375
0, 0, 40, 165.4817810058594
0, 0, 41, 165.7607269287109
0, 0, 42, 143.3224182128906
0, 0, 43, 168.0727996826172
0, 0, 44, 177.5740203857422
0, 0, 45, 172.6963500976562
0, 0, 46, 165.6390991210938
0, 0, 47, 167.1662139892578
0, 0, 48, 170.6118621826172
0, 0, 49, 182.7277374267578
0, 0, 50, 168.1362762451172
0, 0, 51, 162.3618316650391
0, 0, 52, 164.1775665283203
0, 0, 53, 170.9150543212891
0, 0, 54, 159.72119140625
0, 0, 55, 163.9986267089844
0, 0, 56, 189.0412902832031
0, 0, 57, 170.3759765625
0, 0, 58, 162.2039794921875
0, 0, 59, 173.4272308349609
0, 0, 60, 168.656982421875
0, 0, 61, 171.1667938232422
0, 0, 62, 183.9636077880859
0, 0, 63, 167.2125091552734
0, 0, 64, 165.1476898193359
0, 0, 65, 174.4314727783203
0, 0, 66, 177.709228515625
0, 0, 67, 165.4552459716797
0, 0, 68, 159.0360717773438
0, 0, 69, 158.3948364257812
0, 0, 70, 169.7159423828125
0, 0, 71, 158.2987976074219
0, 0, 72, 162.8630523681641
0, 0, 73, 171.7487487792969
0, 0, 74, 164.4940643310547
0, 0, 75, 163.7203521728516
0, 0, 76, 163.9773406982422
0, 0, 77, 172.9497375488281
0, 0, 78, 182.0640106201172
0, 0, 79, 174.9018707275391
0, 0, 80, 160.7685546875
0, 0, 81, 159.6029815673828
0, 0, 82, 184.47509765625
0, 0, 83, 174.8018798828125
0, 0, 84, 159.7519989013672
0, 0, 85, 181.3509063720703
0, 0, 86, 159.5835113525391
0, 0, 87, 176.8578948974609
0, 0, 88, 177.9013214111328
0, 0, 89, 177.8358306884766
0, 0, 90, 161.1298675537109
0, 0, 91, 185.7624206542969
0, 0, 92, 163.7759094238281
0, 0, 93, 155.5851287841797
0, 0, 94, 168.8333587646484
0, 0, 95, 175.1726531982422
0, 0, 96, 183.7349700927734
0, 0, 97, 184.2998199462891
0, 0, 98, 187.0247497558594
0, 0, 99, 171.306396484375
0, 0, 100, 158.4635314941406
0, 0, 101, 166.4470825195312
0, 0, 102, 170.5730590820312
0, 0, 103, 170.8421936035156
0, 0, 104, 168.9159393310547
0, 0, 105, 178.7299346923828
0, 0, 106, 159.4758453369141
0, 0, 107, 86.81188201904297
0, 0, 108, 20.66780281066895
0, 0, 109, 11.03759574890137
0, 0, 110, 5.955682754516602
0, 0, 111, 6.553112983703613
0, 0, 112, 5.027721881866455
0, 0, 113, 2.812880516052246
0, 0, 114, 2.057661294937134
0, 0, 115, 3.855303764343262
0, 0, 116, 2.48888635635376
0, 0, 117, 1.391793608665466
0, 0, 118, 4.053247451782227
0, 0, 119, 2.730064392089844
0, 0, 120, 1.933634400367737
0, 0, 121, 3.686398983001709
0, 0, 122, 3.813200235366821
0, 0, 123, 3.979823350906372
0, 0, 124, 2.019088745117188
0, 0, 125, 2.656605005264282
0, 0, 126, 1.307515501976013
0, 0, 127, 2.513305902481079
0, 1, 0, 0.9692972302436829
0, 1, 1, 5.297526359558105
0, 1, 2, 2.238309621810913
0, 1, 3, 1.215763926506042
0, 1, 4, 1.442351579666138
0, 1, 5, 2.423203468322754
0, 1, 6, 1.651690483093262
0, 1, 7, 2.757041931152344
0, 1, 8, 2.748430013656616
0, 1, 9, 2.516613006591797
0, 1, 10, 3.97976541519165
0, 1, 11, 4.102171421051025
0, 1, 12, 3.032549381256104
0, 1, 13, 4.164902210235596
0, 1, 14, 7.101648807525635
0, 1, 15, 7.183646202087402
0, 1, 16, 8.040799140930176
0, 1, 17, 6.193667888641357
0, 1, 18, 11.92291355133057
0, 1, 19, 40.47673416137695
0, 1, 20, 125.4525299072266
0, 1, 21, 176.7768707275391
0, 1, 22, 193.5561065673828
0, 1, 23, 186.1780853271484
0, 1, 24, 179.6497039794922
0, 1, 25, 194.5366516113281
0, 1, 26, 196.7558746337891
0, 1, 27, 186.2141723632812
0, 1, 28, 189.7578735351562
0, 1, 29, 183.8444366455078
0, 1, 30, 179.7256774902344
0, 1, 31, 181.3862457275391
0, 1, 32, 188.2101440429688
0, 1, 33, 191.7520294189453
0, 1, 34, 184.4374542236328
0, 1, 35, 193.2671661376953
0, 1, 36, 205.7311553955078
0, 1, 37, 185.1290130615234
0, 1, 38, 165.2278594970703
0, 1, 39, 171.602783203125
0, 1, 40, 181.0315704345703
0, 1, 41, 186.8466796875
0, 1, 42, 181.9740295410156
0, 1, 43, 186.525146484375
0, 1, 44, 167.2319183349609
0, 1, 45, 186.2872772216797
0, 1, 46, 170.3155975341797
0, 1, 47, 184.7881927490234
0, 1, 48, 188.4721069335938
0, 1, 49, 187.963623046875
0, 1, 50, 180.6633911132812
0, 1, 51, 190.6245422363281
0, 1, 52, 194.839599609375
0, 1, 53, 195.6529388427734
0, 1, 54, 185.9021606445312
0, 1, 55, 164.7709503173828
0, 1, 56, 178.6031341552734
0, 1, 57, 178.0579071044922
0, 1, 58, 189.1244506835938
0, 1, 59, 193.5186309814453
0, 1, 60, 188.3057403564453
0, 1, 61, 177.9005432128906
0, 1, 62, 204.6732635498047
0, 1, 63, 173.5642395019531
0, 1, 64, 172.3988952636719
0, 1, 65, 185.4980773925781
0, 1, 66, 204.1722106933594
0, 1, 67, 182.9630737304688
0, 1, 68, 187.346435546875
0, 1, 69, 190.2200622558594
0, 1, 70, 186.3512268066406
0, 1, 71, 171.5937194824219
0, 1, 72, 190.7626953125
0, 1, 73, 191.0342407226562
0, 1, 74, 200.7001800537109
0, 1, 75, 183.6885681152344
0, 1, 76, 175.1870574951172
0, 1, 77, 191.3104248046875
0, 1, 78, 188.2982177734375
0, 1, 79, 201.6163635253906
0, 1, 80, 186.1371307373047
0, 1, 81, 175.3872680664062
0, 1, 82, 207.949951171875
0, 1, 83, 213.08984375
0, 1, 84, 180.1407012939453
0, 1, 85, 169.8619537353516
0, 1, 86, 169.0675048828125
0, 1, 87, 185.4819183349609
0, 1, 88, 175.9524078369141
0, 1, 89, 186.577392578125
0, 1, 90, 213.5827331542969
0, 1, 91, 182.3075561523438
0, 1, 92, 185.2438812255859
0, 1, 93, 184.5517883300781
0, 1, 94, 185.8608856201172
0, 1, 95, 182.1651000976562
0, 1, 96, 197.2345581054688
0, 1, 97, 182.6811218261719
0, 1, 98, 188.0091857910156
0, 1, 99, 175.2166442871094
0, 1, 100, 172.570556640625
0, 1, 101, 177.8236236572266
0, 1, 102, 181.9833526611328
0, 1, 103, 172.8385314941406
0, 1, 104, 188.7399749755859
0, 1, 105, 180.7496032714844
0, 1, 106, 164.2614135742188
0, 1, 107, 124.0494613647461
0, 1, 108, 46.80403137207031
0, 1, 109, 9.957248687744141
0, 1, 110, 7.231277942657471
0, 1, 111, 5.823328018188477
0, 1, 112, 7.19218921661377
0, 1, 113, 6.323065280914307
0, 1, 114, 4.837151050567627
0, 1, 115, 2.264299631118774
0, 1, 116, 2.168127059936523
0, 1, 117, 2.147710561752319
0, 1, 118, 3.184548377990723
0, 1, 119, 2.579483270645142
0, 1, 120, 3.67821216583252
0, 1, 121, 3.878289222717285
0, 1, 122, 2.926464557647705
0, 1, 123, 2.289222240447998
0, 1, 124, 3.271479845046997
0, 1, 125, 2.081663608551025
0, 1, 126, 1.494387626647949
0, 1, 127, 2.496471166610718
0, 2, 0, 3.590596199035645
0, 2, 1, 2.199521541595459
0, 2, 2, 3.456347942352295
0, 2, 3, 2.464780569076538
0, 2, 4, 2.05938982963562
0, 2, 5, 1.666124105453491
0, 2, 6, 2.65674614906311
0, 2, 7, 1.858379244804382
0, 2, 8, 1.873863816261292
0, 2, 9, 2.563513517379761
0, 2, 10, 5.994363784790039
0, 2, 11, 4.760955333709717
0, 2, 12, 3.548689365386963
0, 2, 13, 3.187760591506958
0, 2, 14, 4.720650196075439
0, 2, 15, 6.791540145874023
0, 2, 16, 4.298083782196045
0, 2, 17, 9.165192604064941
0, 2, 18, 15.46624279022217
0, 2, 19, 78.71070098876953
0, 2, 20, 161.9157562255859
0, 2, 21, 183.9129791259766
0, 2, 22, 194.018310546875
0, 2, 23, 184.1709289550781
0, 2, 24, 173.4212493896484
0, 2, 25, 183.612548828125
0, 2, 26, 180.8073577880859
0, 2, 27, 188.1258087158203
0, 2, 28, 171.8129119873047
0, 2, 29, 168.4509887695312
0, 2, 30, 184.26904296875
0, 2, 31, 183.4144744873047
0, 2, 32, 184.5076141357422
0, 2, 33, 191.3869171142578
0, 2, 34, 199.4853363037109
0, 2, 35, 181.2779541015625
0, 2, 36, 186.0107116699219
0, 2, 37, 180.6423034667969
0, 2, 38, 186.0735168457031
0, 2, 39, 166.1095581054688
0, 2, 40, 183.5730895996094
0, 2, 41, 183.3369293212891
0, 2, 42, 190.2877044677734
0, 2, 43, 193.0976104736328
0, 2, 44, 190.3420562744141
0, 2, 45, 189.7957458496094
0, 2, 46, 195.7988586425781
0, 2, 47, 189.6649169921875
0, 2, 48, 180.0064697265625
0, 2, 49, 198.1458740234375
0, 2, 50, 168.8790130615234
0, 2, 51, 184.8627624511719
0, 2, 52, 186.4222412109375
0, 2, 53, 195.5652313232422
0, 2, 54, 175.5233154296875
0, 2, 55, 173.1015472412109
0, 2, 56, 181.063232421875
0, 2, 57, 200.2916870117188
0, 2, 58, 186.3525085449219
0, 2, 59, 190.3054351806641
0, 2, 60, 197.1640319824219
0, 2, 61, 192.7207183837891
0, 2, 62, 189.9780883789062
0, 2, 63, 172.1992950439453
0, 2, 64, 190.1178741455078
0, 2, 65, 203.8829650878906
0, 2, 66, 196.5398712158203
0, 2, 67, 184.7499237060547
0, 2, 68, 182.7923278808594
0, 2, 69, 187.4704437255859
0, 2, 70, 202.9714813232422
0, 2, 71, 174.4901123046875
0, 2, 72, 187.2673645019531
0, 2, 73, 176.8956146240234
0, 2, 74, 180.3589630126953
0, 2, 75, 196.5674285888672
0, 2, 76, 184.1470336914062
0, 2, 77, 177.4009399414062
0, 2, 78, 199.5414276123047
0, 2, 79, 177.7578430175781
0, 2, 80, 186.8874206542969
0, 2, 81, 188.7913513183594
0, 2, 82, 206.0440826416016
0, 2, 83, 203.2554931640625
0, 2, 84, 188.1893157958984
0, 2, 85, 170.5950012207031
0, 2, 86, 195.4620971679688
0, 2, 87, 171.2303619384766
0, 2, 88, 178.2152404785156
0, 2, 89, 185.6430816650391
0, 2, 90, 177.4831085205078
0, 2, 91, 174.1394348144531
0, 2, 92, 197.1056823730469
0, 2, 93, 192.8394165039062
0, 2, 94, 198.5025024414062
0, 2, 95, 193.60693359375
0, 2, 96, 186.0929718017578
0, 2, 97, 171.1467132568359
0, 2, 98, 173.2236938476562
0, 2, 99, 162.5496673583984
0, 2, 100, 188.2698516845703
0, 2, 101, 196.4797821044922
0, 2, 102, 176.8463134765625
0, 2, 103, 199.4005432128906
0, 2, 104, 187.7428436279297
0, 2, 105, 201.6573028564453
0, 2, 106, 194.9122009277344
0, 2, 107, 148.7149810791016
0, 2, 108, 78.60358428955078
0, 2, 109, 17.70893478393555
0, 2, 110, 7.238287448883057
0, 2, 111, 5.168769359588623
0, 2, 112, 5.700057983398438
0, 2, 113, 3.890010833740234
0, 2, 114, 8.117767333984375
0, 2, 115, 3.536198139190674
0, 2, 116, 2.560119390487671
0, 2, 117, 1.385933518409729
0, 2, 118, 2.759580135345459
0, 2, 119, 2.838989019393921
0, 2, 120, 0.9549668431282043
0, 2, 121, 4.054255485534668
0, 2, 122, 4.174467086791992
0, 2, 123, 1.186278939247131
0, 2, 124, 1.936723709106445
0, 2, 125, 2.218360185623169
0, 2, 126, 2.871038675308228
0, 2, 127, 1.467771410942078
0, 3, 0, 1.511129975318909
0, 3, 1, 1.153724312782288
0, 3, 2, 1.047500967979431
0, 3, 3, 1.40325403213501
0, 3, 4, 3.236573934555054
0, 3, 5, 0.9791431427001953
0, 3, 6, 1.172121644020081
0, 3, 7, 2.200210332870483
0, 3, 8, 2.837389945983887
0, 3, 9, 2.528598785400391
0, 3, 10, 2.33732795715332
0, 3, 11, 4.107153415679932
0, 3, 12, 3.856254577636719
0, 3, 13, 3.602658748626709
0, 3, 14, 3.969054460525513
0, 3, 15, 5.924132823944092
0, 3, 16, 7.23797082901001
0, 3, 17, 6.171935558319092
0, 3, 18, 34.17775726318359
0, 3, 19, 115.0756988525391
0, 3, 20, 179.5048980712891
0, 3, 21, 172.8961181640625
0, 3, 22, 177.9922637939453
0, 3, 23, 187.8584899902344
0, 3, 24, 178.1733093261719
0, 3, 25, 169.7175903320312
0, 3, 26, 180.9193725585938
0, 3, 27, 192.9558258056641
0, 3, 28, 181.0498962402344
0, 3, 29, 197.2566680908203
0, 3, 30, 184.9058532714844
0, 3, 31, 192.8329772949219
0, 3, 32, 205.9791717529297
0, 3, 33, 195.4430236816406
0, 3, 34, 186.8619232177734
0, 3, 35, 174.7355041503906
0, 3, 36, 185.5542755126953
0, 3, 37, 200.1807861328125
0, 3, 38, 192.4354858398438
0, 3, 39, 184.554931640625
0, 3, 40, 166.0894317626953
0, 3, 41, 174.4772186279297
0, 3, 42, 185.2600860595703
0, 3, 43, 181.7457580566406
0, 3, 44, 203.6815643310547
0, 3, 45, 210.0129241943359
0, 3, 46, 199.2524261474609
0, 3, 47, 194.5288848876953
0, 3, 48, 195.2514801025391
0, 3, 49, 179.8031768798828
0, 3, 50, 186.4700317382812
0, 3, 51, 175.2502899169922
0, 3, 52, 188.0160675048828
0, 3, 53, 177.8903350830078
0, 3, 54, 179.5143432617188
0, 3, 55, 177.0135345458984
0, 3, 56, 183.6404876708984
0, 3, 57, 174.7713623046875
0, 3, 58, 201.0931549072266
0, 3, 59, 195.7996826171875
0, 3, 60, 185.5379028320312
0, 3, 61, 181.6804656982422
0, 3, 62, 182.8643493652344
0, 3, 63, 184.1196441650391
0, 3, 64, 191.1033630371094
0, 3, 65, 186.7032012939453
0, 3, 66, 175.3137512207031
0, 3, 67, 190.0511474609375
0, 3, 68, 211.3304748535156
0, 3, 69, 192.1908111572266
0, 3, 70, 184.9277801513672
0, 3, 71, 196.8073883056641
0, 3, 72, 185.1038818359375
0, 3, 73, 186.8533477783203
0, 3, 74, 193.1091003417969
0, 3, 75, 193.2273406982422
0, 3, 76, 191.1325073242188
0, 3, 77, 200.8965148925781
0, 3, 78, 188.7838592529297
0, 3, 79, 185.6619110107422
0, 3, 80, 189.6448669433594
0, 3, 81, 183.6244964599609
0, 3, 82, 180.1151580810547
0, 3, 83, 195.3412170410156
0, 3, 84, 199.2933654785156
0, 3, 85, 193.4702453613281
0, 3, 86, 203.5436248779297
0, 3, 87, 197.7726898193359
0, 3, 88, 192.0129241943359
0, 3, 89, 193.2613677978516
0, 3, 90, 174.3117218017578
0, 3, 91, 158.0222625732422
0, 3, 92, 206.3476104736328
0, 3, 93, 196.3912200927734
0, 3, 94, 192.5802612304688
0, 3, 95, 211.7200469970703
0, 3, 96, 210.0330505371094
0, 3, 97, 166.9781341552734
0, 3, 98, 167.4071655273438
0, 3, 99, 179.9097290039062
0, 3, 100, 177.0575714111328
0, 3, 101, 198.3220520019531
0, 3, 102, 195.7892150878906
0, 3, 103, 193.8518524169922
0, 3, 104, 201.9724273681641
0, 3, 105, 174.6800689697266
0, 3, 106, 182.0430145263672
0, 3, 107, 169.1654205322266
0, 3, 108, 107.4702758789062
0, 3, 109, 27.74045562744141
0, 3, 110, 8.967082977294922
0, 3, 111, 6.724176406860352
0, 3, 112, 5.357134342193604
0, 3, 113, 6.50574254989624
0, 3, 114, 4.459604740142822
0, 3, 115, 4.544544696807861
0, 3, 116, 5.979383945465088
0, 3, 117, 3.441224098205566
0, 3, 118, 2.84733772277832
0, 3, 119, 3.110491514205933
0, 3, 120, 3.422043085098267
0, 3, 121, 3.486785411834717
0, 3, 122, 3.402056455612183
0, 3, 123, 4.677312850952148
0, 3, 124, 1.771531462669373
0, 3, 125, 2.213592767715454
0, 3, 126, 1.766237139701843
0, 3, 127, 1.33427369594574
0, 4, 0, 0.7224669456481934
0, 4, 1, 4.45008659362793
0, 4, 2, 2.841551303863525
0, 4, 3, 4.58689546585083
0, 4, 4, 3.373149394989014
0, 4, 5, 2.343202352523804
0, 4, 6, 3.403375148773193
0, 4, 7, 2.935132026672363
0, 4, 8, 1.672155499458313
0, 4, 9, 1.863571524620056
0, 4, 10, 3.301229000091553
0, 4, 11, 7.38245153427124
0, 4, 12, 4.530497550964355
0, 4, 13, 4.365713119506836
0, 4, 14, 4.876605033874512
0, 4, 15, 8.158560752868652
0, 4, 16, 6.1442551612854
0, 4, 17, 11.13717460632324
0, 4, 18, 55.44362640380859
0, 4, 19, 152.6817321777344
0, 4, 20, 194.0244140625
0, 4, 21, 169.5271911621094
0, 4, 22, 187.1827850341797
0, 4, 23, 196.500732421875
0, 4, 24, 192.1170043945312
0, 4, 25, 200.7470245361328
0, 4, 26, 183.7519989013672
0, 4, 27, 191.7926635742188
0, 4, 28, 179.2781066894531
0, 4, 29, 205.407958984375
0, 4, 30, 196.4739532470703
0, 4, 31, 191.8768005371094
0, 4, 32, 211.7008056640625
0, 4, 33, 189.2321929931641
0, 4, 34, 192.6530303955078
0, 4, 35, 213.6152038574219
0, 4, 36, 194.5339965820312
0, 4, 37, 178.1151428222656
0, 4, 38, 194.3674163818359
0, 4, 39, 190.0968017578125
0, 4, 40, 185.0767974853516
0, 4, 41, 188.9841461181641
0, 4, 42, 205.6962738037109
0, 4, 43, 173.469482421875
0, 4, 44, 183.3573303222656
0, 4, 45, 197.5861968994141
0, 4, 46, 185.8069152832031
0, 4, 47, 179.1047973632812
0, 4, 48, 185.2147827148438
0, 4, 49, 175.0006561279297
0, 4, 50, 186.2020568847656
0, 4, 51, 199.3577575683594
0, 4, 52, 223.4585876464844
0, 4, 53, 207.0349884033203
0, 4, 54, 190.432861328125
0, 4, 55, 175.2789001464844
0, 4, 56, 192.2742614746094
0, 4, 57, 192.2789459228516
0, 4, 58, 187.7960205078125
0, 4, 59, 189.4172515869141
0, 4, 60, 196.2499847412109
0, 4, 61, 193.6844024658203
0, 4, 62, 189.8024139404297
0, 4, 63, 177.9453277587891
0, 4, 64, 211.3104095458984
0, 4, 65, 190.3337707519531
0, 4, 66, 201.2126617431641
0, 4, 67, 200.2033843994141
0, 4, 68, 201.2537689208984
0, 4, 69, 200.04150390625
0, 4, 70, 205.2539215087891
0, 4, 71, 207.3840484619141
0, 4, 72, 214.5348358154297
0, 4, 73, 185.8856048583984
0, 4, 74, 180.4913330078125
0, 4, 75, 186.5857849121094
0, 4, 76, 189.4601593017578
0, 4, 77, 183.1160125732422
0, 4, 78, 196.0739135742188
0, 4, 79, 204.1993865966797
0, 4, 80, 211.4544219970703
0, 4, 81, 198.1375885009766
0, 4, 82, 181.5428009033203
0, 4, 83, 169.8839721679688
0, 4, 84, 192.6816101074219
0, 4, 85, 196.3529663085938
0, 4, 86, 182.8028259277344
0, 4, 87, 184.0951080322266
0, 4, 88, 204.3300628662109
0, 4, 89, 188.2779998779297
0, 4, 90, 211.5932312011719
0, 4, 91, 189.3005218505859
0, 4, 92, 196.2411651611328
0, 4, 93, 198.9328308105469
0, 4, 94, 182.9590606689453
0, 4, 95, 176.1813049316406
0, 4, 96, 189.4328002929688
0, 4, 97, 193.1276702880859
0, 4, 98, 200.6563873291016
0, 4, 99, 183.8733978271484
0, 4, 100, 181.8893585205078
0, 4, 101, 177.4083099365234
0, 4, 102, 174.408203125
0, 4, 103, 185.3231506347656
0, 4, 104, 209.7288970947266
0, 4, 105, 190.8724212646484
0, 4, 106, 181.1703643798828
0, 4, 107, 182.7642822265625
0, 4, 108, 151.4800415039062
0, 4, 109, 51.22661972045898
0, 4, 110, 11.06552505493164
0, 4, 111, 7.682202816009521
0, 4, 112, 6.382286548614502
0, 4, 113, 5.412849903106689
0, 4, 114, 6.623083591461182
0, 4, 115, 7.807132244110107
0, 4, 116, 5.289077281951904
0, 4, 117, 3.188348293304443
0, 4, 118, 3.861334085464478
0, 4, 119, 4.075725555419922
0, 4, 120, 2.059372663497925
0, 4, 121, 1.933820366859436
0, 4, 122, 2.50739574432373
0, 4, 123, 1.602432727813721
0, 4, 124, 3.662437677383423
0, 4, 125, 2.907753944396973
0, 4, 126, 2.49100923538208
0, 4, 127, 1.360999822616577
0, 5, 0, 1.185393571853638
0, 5, 1, 3.347724437713623
0, 5, 2, 5.326434135437012
0, 5, 3, 4.197112560272217
0, 5, 4, 2.661924362182617
0, 5, 5, 2.555984258651733
0, 5, 6, 3.260805130004883
0, 5, 7, 2.478659152984619
0, 5, 8, 3.296436548233032
0, 5, 9, 3.506227254867554
0, 5, 10, 3.884111642837524
0, 5, 11, 4.245849132537842
0, 5, 12, 5.556470394134521
0, 5, 13, 3.53013277053833
0, 5, 14, 5.8766188621521
0, 5, 15, 9.555959701538086
0, 5, 16, 7.417140007019043
0, 5, 17, 22.48621940612793
0, 5, 18, 82.57523345947266
0, 5, 19, 163.7425231933594
0, 5, 20, 184.8197479248047
0, 5, 21, 177.9175109863281
0, 5, 22, 172.4263153076172
0, 5, 23, 200.5447845458984
0, 5, 24, 187.3041381835938
0, 5, 25, 207.6918029785156
0, 5, 26, 182.8240814208984
0, 5, 27, 194.7264404296875
0, 5, 28, 190.4232177734375
0, 5, 29, 196.2652740478516
0, 5, 30, 178.3885040283203
0, 5, 31, 180.6190490722656
0, 5, 32, 187.7991638183594
0, 5, 33, 169.8080749511719
0, 5, 34, 195.4565277099609
0, 5, 35, 197.4497833251953
0, 5, 36, 168.3069000244141
0, 5, 37, 199.3305511474609
0, 5, 38, 180.4841156005859
0, 5, 39, 187.9061279296875
0, 5, 40, 196.8368682861328
0, 5, 41, 177.4818878173828
0, 5, 42, 187.7810211181641
0, 5, 43, 193.1713409423828
0, 5, 44, 199.2632598876953
0, 5, 45, 187.2058258056641
0, 5, 46, 192.6771087646484
0, 5, 47, 181.4473266601562
0, 5, 48, 177.5000610351562
0, 5, 49, 176.8026885986328
0, 5, 50, 186.7190856933594
0, 5, 51, 171.6070556640625
0, 5, 52, 167.6601867675781
0, 5, 53, 181.6193389892578
0, 5, 54, 172.7380218505859
0, 5, 55, 215.2360076904297
0, 5, 56, 181.4177093505859
0, 5, 57, 207.3396453857422
0, 5, 58, 183.1613159179688
0, 5, 59, 182.0513916015625
0, 5, 60, 219.6507720947266
0, 5, 61, 186.0505981445312
0, 5, 62, 178.2140350341797
0, 5, 63, 180.1064453125
0, 5, 64, 197.4875030517578
0, 5, 65, 210.3014526367188
0, 5, 66, 192.2555389404297
0, 5, 67, 199.2512054443359
0, 5, 68, 185.110107421875
0, 5, 69, 184.6563262939453
0, 5, 70, 185.5997619628906
0, 5, 71, 193.2371673583984
0, 5, 72, 198.7902526855469
0, 5, 73, 201.2014770507812
0, 5, 74, 179.71533203125
0, 5, 75, 203.0833740234375
0, 5, 76, 215.8455963134766
0, 5, 77, 181.1714935302734
0, 5, 78, 194.6957092285156
0, 5, 79, 189.8888397216797
0, 5, 80, 197.1822509765625
0, 5, 81, 203.1640167236328
0, 5, 82, 203.9196319580078
0, 5, 83, 188.6314544677734
0, 5, 84, 205.0440673828125
0, 5, 85, 177.4970397949219
0, 5, 86, 194.8450775146484
0, 5, 87, 187.5186614990234
0, 5, 88, 177.1779632568359
0, 5, 89, 194.1904144287109
0, 5, 90, 198.5848999023438
0, 5, 91, 194.9498443603516
0, 5, 92, 190.8295288085938
0, 5, 93, 189.0241394042969
0, 5, 94, 207.8278350830078
0, 5, 95, 176.9393615722656
0, 5, 96, 182.4068450927734
0, 5, 97, 194.8238220214844
0, 5, 98, 188.4445190429688
0, 5, 99, 193.4874877929688
0, 5, 100, 186.0577545166016
0, 5, 101, 195.8093566894531
0, 5, 102, 181.0578155517578
0, 5, 103, 176.2374267578125
0, 5, 104, 190.2268981933594
0, 5, 105, 190.0307159423828
0, 5, 106, 177.1882476806641
0, 5, 107, 181.5243835449219
0, 5, 108, 176.3560791015625
0, 5, 109, 89.02864074707031
0, 5, 110, 31.28516960144043
0, 5, 111, 8.094856262207031
0, 5, 112, 7.204268932342529
0, 5, 113, 6.942131996154785
0, 5, 114, 6.385748863220215
0, 5, 115, 6.076219081878662
0, 5, 116, 5.599216461181641
0, 5, 117, 3.931493282318115
0, 5, 118, 3.74570369720459
0, 5, 119, 2.772068738937378
0, 5, 120, 1.894880890846252
0, 5, 121, 1.525434851646423
0, 5, 122, 2.220662117004395
0, 5, 123, 5.317391395568848
0, 5, 124, 3.110488176345825
0, 5, 125, 1.235215187072754
0, 5, 126, 2.642459630966187
0, 5, 127, 2.067355155944824
0, 6, 0, 3.560843229293823
0, 6, 1, 2.404967308044434
0, 6, 2, 3.655382394790649
0, 6, 3, 1.845787405967712
0, 6, 4, 2.829215526580811
0, 6, 5, 5.896499633789062
0, 6, 6, 5.059342384338379
0, 6, 7, 3.045457363128662
0, 6, 8, 3.659363746643066
0, 6, 9, 3.412719964981079
0, 6, 10, 3.778515338897705
0, 6, 11, 4.270346641540527
0, 6, 12, 4.72923755645752
0, 6, 13, 4.7482590675354
0, 6, 14, 4.963692188262939
0, 6, 15, 6.219597816467285
0, 6, 16, 13.90433979034424
0, 6, 17, 29.46512031555176
0, 6, 18, 111.9991683959961
0, 6, 19, 191.7015075683594
0, 6, 20, 194.4589233398438
0, 6, 21, 197.8664245605469
0, 6, 22, 191.0106658935547
0, 6, 23, 191.1973419189453
0, 6, 24, 201.37744140625
0, 6, 25, 182.9618682861328
0, 6, 26, 187.0752868652344
0, 6, 27, 191.7236022949219
0, 6, 28, 189.3090362548828
0, 6, 29, 210.2841644287109
0, 6, 30, 189.316650390625
0, 6, 31, 192.8047790527344
0, 6, 32, 205.5082397460938
0, 6, 33, 184.6651306152344
0, 6, 34, 197.1305389404297
0, 6, 35, 188.2931671142578
0, 6, 36, 179.6309204101562
0, 6, 37, 183.2748718261719
0, 6, 38, 187.4611358642578
0, 6, 39, 194.9300231933594
0, 6, 40, 173.5369720458984
0, 6, 41, 185.2095794677734
0, 6, 42, 173.8606109619141
0, 6, 43, 210.1198577880859
0, 6, 44, 211.6459655761719
0, 6, 45, 193.4801330566406
0, 6, 46, 189.2068786621094
0, 6, 47, 203.4680633544922
0, 6, 48, 189.4844055175781
0, 6, 49, 179.3006744384766
0, 6, 50, 181.4231719970703
0, 6, 51, 195.7109527587891
0, 6, 52, 198.513427734375
0, 6, 53, 185.0089874267578
0, 6, 54, 177.0678253173828
0, 6, 55, 195.4096527099609
0, 6, 56, 202.5925903320312
0, 6, 57, 190.5918273925781
0, 6, 58, 179.4854431152344
0, 6, 59, 192.7351531982422
0, 6, 60, 183.9772033691406
0, 6, 61, 194.0471954345703
0, 6, 62, 196.3183441162109
0, 6, 63, 186.1423645019531
0, 6, 64, 168.3618469238281
0, 6, 65, 185.7635498046875
0, 6, 66, 196.8751831054688
0, 6, 67, 214.3425140380859
0, 6, 68, 180.7530975341797
0, 6, 69, 171.3629913330078
0, 6, 70, 188.3310546875
0, 6, 71, 171.3098449707031
0, 6, 72, 175.7574920654297
0, 6, 73, 176.3205718994141
0, 6, 74, 209.6202697753906
0, 6, 75, 228.92138671875
0, 6, 76, 183.5526275634766
0, 6, 77, 172.3819885253906
0, 6, 78, 175.0712280273438
0, 6, 79, 186.71337890625
0, 6, 80, 187.3264312744141
0, 6, 81, 209.1914520263672
0, 6, 82, 195.2856597900391
0, 6, 83, 195.3296356201172
0, 6, 84, 196.8839111328125
0, 6, 85, 180.6496734619141
0, 6, 86, 200.5627593994141
0, 6, 87, 183.6901245117188
0, 6, 88, 193.6118927001953
0, 6, 89, 188.5495300292969
0, 6, 90, 205.3689422607422
0, 6, 91, 199.5672149658203
0, 6, 92, 172.2903900146484
0, 6, 93, 195.6879730224609
0, 6, 94, 189.6114044189453
0, 6, 95, 185.4485321044922
0, 6, 96, 189.0663909912109
0, 6, 97, 194.0323486328125
0, 6, 98, 183.4810791015625
0, 6, 99, 174.8694763183594
0, 6, 100, 201.1384887695312
0, 6, 101, 167.5661773681641
0, 6, 102, 202.2552185058594
0, 6, 103, 195.7962951660156
0, 6, 104, 183.3768615722656
0, 6, 105, 193.6491546630859
0, 6, 106, 177.0165557861328
0, 6, 107, 194.9623870849609
0, 6, 108, 171.702392578125
0, 6, 109, 115.7503509521484
0, 6, 110, 34.63343048095703
0, 6, 111, 9.636272430419922
0, 6, 112, 7.924019336700439
0, 6, 113, 6.639105796813965
0, 6, 114, 5.285841941833496
0, 6, 115, 4.239433288574219
0, 6, 116, 6.021359443664551
0, 6, 117, 5.542522430419922
0, 6, 118, 3.188530445098877
0, 6, 119, 4.624152660369873
0, 6, 120, 1.325340628623962
0, 6, 121, 5.360901832580566
0, 6, 122, 2.509021520614624
0, 6, 123, 2.35466194152832
0, 6, 124, 1.849282622337341
0, 6, 125, 2.502950429916382
0, 6, 126, 1.776628017425537
0, 6, 127, 2.345448970794678
0, 7, 0, 2.505731821060181
0, 7, 1, 1.298416495323181
0, 7, 2, 3.913360118865967
0, 7, 3, 3.70207691192627
0, 7, 4, 1.201974034309387
0, 7, 5, 3.223071336746216
0, 7, 6, 2.775951623916626
0, 7, 7, 1.448629856109619
0, 7, 8, 3.624963283538818
0, 7, 9, 3.134078025817871
0, 7, 10, 5.202775478363037
0, 7, 11, 2.989398241043091
0, 7, 12, 2.859667062759399
0, 7, 13, 6.170880317687988
0, 7, 14, 7.827105045318604
0, 7, 15, 7.904699325561523
0, 7, 16, 15.67654895782471
0, 7, 17, 51.79565811157227
0, 7, 18, 161.088623046875
0, 7, 19, 182.7036743164062
0, 7, 20, 178.3969116210938
0, 7, 21, 180.2542419433594
0, 7, 22, 191.1987152099609
0, 7, 23, 202.5776214599609
0, 7, 24, 178.8878326416016
0, 7, 25, 213.5982513427734
0, 7, 26, 189.16552734375
0, 7, 27, 182.126220703125
0, 7, 28, 183.2838134765625
0, 7, 29, 209.4128875732422
0, 7, 30, 192.056396484375
0, 7, 31, 176.5046997070312
0, 7, 32, 190.7896575927734
0, 7, 33, 180.7275848388672
0, 7, 34, 192.8799133300781
0, 7, 35, 199.4860229492188
0, 7, 36, 186.6923065185547
0, 7, 37, 213.2278442382812
0, 7, 38, 191.3069610595703
0, 7, 39, 172.8918304443359
0, 7, 40, 183.2515869140625
0, 7, 41, 185.8123931884766
0, 7, 42, 178.3409271240234
0, 7, 43, 177.4188079833984
0, 7, 44, 178.5675201416016
0, 7, 45, 172.9726867675781
0, 7, 46, 190.0704193115234
0, 7, 47, 197.6937713623047
0, 7, 48, 185.979736328125
0, 7, 49, 200.6004028320312
0, 7, 50, 188.8661804199219
0, 7, 51, 204.703857421875
0, 7, 52, 203.8106079101562
0, 7, 53, 192.2073822021484
0, 7, 54, 197.8085784912109
0, 7, 55, 203.4514923095703
0, 7, 56, 183.5200805664062
0, 7, 57, 182.4506683349609
0, 7, 58, 190.4316864013672
0, 7, 59, 188.8163452148438
0, 7, 60, 203.2601013183594
0, 7, 61, 170.9759216308594
0, 7, 62, 202.8605041503906
0, 7, 63, 189.1115112304688
0, 7, 64, 199.8650970458984
0, 7, 65, 197.485595703125
0, 7, 66, 206.7117004394531
0, 7, 67, 219.7285461425781
0, 7, 68, 162.1703186035156
0, 7, 69, 193.8724365234375
0, 7, 70, 217.9138641357422
0, 7, 71, 183.8547821044922
0, 7, 72, 181.1408843994141
0, 7, 73, 176.5230865478516
0, 7, 74, 208.7977142333984
0, 7, 75, 204.0592651367188
0, 7, 76, 215.3816986083984
0, 7, 77, 173.8140258789062
0, 7, 78, 176.7048950195312
0, 7, 79, 193.0482788085938
0, 7, 80, 196.07080078125
0, 7, 81, 214.7191162109375
0, 7, 82, 184.8696899414062
0, 7, 83, 205.3519744873047
0, 7, 84, 191.2767181396484
0, 7, 85, 185.2669067382812
0, 7, 86, 200.1740264892578
0, 7, 87, 226.2621917724609
0, 7, 88, 194.6818542480469
0, 7, 89, 176.3424224853516
0, 7, 90, 182.2683868408203
0, 7, 91, 194.0602111816406
0, 7, 92, 195.0371246337891
0, 7, 93, 198.0871429443359
0, 7, 94, 177.3367614746094
0, 7, 95, 196.7382659912109
0, 7, 96, 208.0830535888672
0, 7, 97, 188.2586059570312
0, 7, 98, 176.8621826171875
0, 7, 99, 198.2498016357422
0, 7, 100, 182.3151550292969
0, 7, 101, 200.1049499511719
0, 7, 102, 185.055419921875
0, 7, 103, 181.7813568115234
0, 7, 104, 175.0073089599609
0, 7, 105, 196.9177703857422
0, 7, 106, 205.4147796630859
0, 7, 107, 175.8224792480469
0, 7, 108, 177.0215606689453
0, 7, 109, 138.2495880126953
0, 7, 110, 55.060791015625
0, 7, 111, 8.962518692016602
0, 7, 112, 8.362011909484863
0, 7, 113, 7.433261871337891
0, 7, 114, 7.434173583984375
0, 7, 115, 5.715327262878418
0, 7, 116, 4.196876525878906
0, 7, 117, 2.995129585266113
0, 7, 118, 4.740574836730957
0, 7, 119, 2.463472366333008
0, 7, 120, 2.047117471694946
0, 7, 121, 1.778292894363403
0, 7, 122, 1.956448554992676
0, 7, 123, 1.560550689697266
0, 7, 124, 0.7931052446365356
0, 7, 125, 1.469074130058289
0, 7, 126, 3.265505075454712
0, 7, 127, 1.176755547523499
0, 8, 0, 4.236627101898193
0, 8, 1, 1.857389569282532
0, 8, 2, 3.462121486663818
0, 8, 3, 2.654735088348389
0, 8, 4, 1.637652397155762
0, 8, 5, 2.581997632980347
0, 8, 6, 1.445480227470398
0, 8, 7, 2.616239070892334
0, 8, 8, 4.225709438323975
0, 8, 9, 3.808086156845093
0, 8, 10, 2.684454679489136
0, 8, 11, 2.588567018508911
0, 8, 12, 3.88944411277771
0, 8, 13, 5.226966381072998
0, 8, 14, 5.662680149078369
0, 8, 15, 8.547172546386719
0, 8, 16, 19.71413421630859
0, 8, 17, 74.21097564697266
0, 8, 18, 142.9079742431641
0, 8, 19, 178.8635559082031
0, 8, 20, 191.6461334228516
0, 8, 21, 192.7655792236328
0, 8, 22, 179.1551513671875
0, 8, 23, 172.8669738769531
0, 8, 24, 191.9772338867188
0, 8, 25, 184.7785034179688
0, 8, 26, 192.5409545898438
0, 8, 27, 186.6253204345703
0, 8, 28, 187.3007202148438
0, 8, 29, 206.3901062011719
0, 8, 30, 197.4994964599609
0, 8, 31, 181.9922637939453
0, 8, 32, 197.6559906005859
0, 8, 33, 206.823974609375
0, 8, 34, 203.2106323242188
0, 8, 35, 186.6160125732422
0, 8, 36, 181.6224670410156
