# TOPAS Version: 3.1.p3
# Parameter File: batch_inserts_176.txt
# Results for scorer Readout_Adipose
# Scored in component: MyBox
# X in 1 bin  of 0.65 cm
# Y in 512 bins of 0.0783984 cm
# Z in 128 bins of 0.078125 cm
# EnergyDeposit ( MeV ) : Sum   
0, 0, 0, 1.51496684551239
0, 0, 1, 4.192933082580566
0, 0, 2, 0.7406095862388611
0, 0, 3, 1.251427173614502
0, 0, 4, 2.092106103897095
0, 0, 5, 1.770224094390869
0, 0, 6, 1.32036292552948
0, 0, 7, 1.690539479255676
0, 0, 8, 2.272061109542847
0, 0, 9, 3.119917631149292
0, 0, 10, 3.034773111343384
0, 0, 11, 6.021777629852295
0, 0, 12, 3.962311983108521
0, 0, 13, 3.175983428955078
0, 0, 14, 5.166990280151367
0, 0, 15, 5.311607837677002
0, 0, 16, 4.734416007995605
0, 0, 17, 8.927812576293945
0, 0, 18, 8.315028190612793
0, 0, 19, 24.09267234802246
0, 0, 20, 93.94918060302734
0, 0, 21, 151.9549713134766
0, 0, 22, 153.1151580810547
0, 0, 23, 144.5414123535156
0, 0, 24, 159.6933288574219
0, 0, 25, 166.8169708251953
0, 0, 26, 166.80029296875
0, 0, 27, 174.1016998291016
0, 0, 28, 177.9994964599609
0, 0, 29, 175.4412994384766
0, 0, 30, 172.0063171386719
0, 0, 31, 167.0083770751953
0, 0, 32, 165.1965942382812
0, 0, 33, 166.4939880371094
0, 0, 34, 176.6622772216797
0, 0, 35, 173.7600250244141
0, 0, 36, 159.4257049560547
0, 0, 37, 160.9546966552734
0, 0, 38, 166.7730712890625
0, 0, 39, 159.0633850097656
0, 0, 40, 164.6101837158203
0, 0, 41, 165.6212921142578
0, 0, 42, 142.6311187744141
0, 0, 43, 167.943359375
0, 0, 44, 177.9201354980469
0, 0, 45, 171.9807891845703
0, 0, 46, 165.4869384765625
0, 0, 47, 166.957763671875
0, 0, 48, 169.6516418457031
0, 0, 49, 182.9095306396484
0, 0, 50, 168.822021484375
0, 0, 51, 162.5841674804688
0, 0, 52, 161.2818145751953
0, 0, 53, 171.5531921386719
0, 0, 54, 161.2899475097656
0, 0, 55, 165.6166839599609
0, 0, 56, 189.7106628417969
0, 0, 57, 170.1545867919922
0, 0, 58, 162.78515625
0, 0, 59, 171.9005126953125
0, 0, 60, 168.7968902587891
0, 0, 61, 171.0916748046875
0, 0, 62, 184.4488677978516
0, 0, 63, 167.2882690429688
0, 0, 64, 163.4093475341797
0, 0, 65, 176.4612731933594
0, 0, 66, 177.7057189941406
0, 0, 67, 164.1415252685547
0, 0, 68, 158.3893432617188
0, 0, 69, 158.8486633300781
0, 0, 70, 169.3309020996094
0, 0, 71, 158.9731292724609
0, 0, 72, 163.0441741943359
0, 0, 73, 171.2850952148438
0, 0, 74, 162.6341400146484
0, 0, 75, 164.0623321533203
0, 0, 76, 163.0082550048828
0, 0, 77, 171.8793334960938
0, 0, 78, 181.3115539550781
0, 0, 79, 174.9499664306641
0, 0, 80, 160.5467224121094
0, 0, 81, 159.7858428955078
0, 0, 82, 182.1466979980469
0, 0, 83, 175.1688385009766
0, 0, 84, 159.1596374511719
0, 0, 85, 180.7880706787109
0, 0, 86, 158.9645233154297
0, 0, 87, 177.0965270996094
0, 0, 88, 175.9531860351562
0, 0, 89, 174.3307647705078
0, 0, 90, 161.0656585693359
0, 0, 91, 185.1850280761719
0, 0, 92, 164.4210510253906
0, 0, 93, 155.7655792236328
0, 0, 94, 168.8333892822266
0, 0, 95, 173.5676879882812
0, 0, 96, 183.8095397949219
0, 0, 97, 183.7254028320312
0, 0, 98, 187.5377349853516
0, 0, 99, 173.3214263916016
0, 0, 100, 158.0637664794922
0, 0, 101, 166.6812438964844
0, 0, 102, 171.0036010742188
0, 0, 103, 170.2321319580078
0, 0, 104, 168.5416870117188
0, 0, 105, 178.2308959960938
0, 0, 106, 158.2595825195312
0, 0, 107, 86.4862060546875
0, 0, 108, 21.17182540893555
0, 0, 109, 10.26485729217529
0, 0, 110, 5.796462535858154
0, 0, 111, 6.866738319396973
0, 0, 112, 3.607952117919922
0, 0, 113, 2.914811372756958
0, 0, 114, 1.807102084159851
0, 0, 115, 3.906290531158447
0, 0, 116, 2.435389041900635
0, 0, 117, 2.138479948043823
0, 0, 118, 3.213369846343994
0, 0, 119, 2.092407941818237
0, 0, 120, 1.448424935340881
0, 0, 121, 3.527073860168457
0, 0, 122, 4.227450370788574
0, 0, 123, 4.048121929168701
0, 0, 124, 0.7933922410011292
0, 0, 125, 3.465916633605957
0, 0, 126, 2.131982326507568
0, 0, 127, 1.796044826507568
0, 1, 0, 1.365036249160767
0, 1, 1, 3.178455829620361
0, 1, 2, 4.096456527709961
0, 1, 3, 2.606290817260742
0, 1, 4, 1.488551259040833
0, 1, 5, 1.454190969467163
0, 1, 6, 1.855600118637085
0, 1, 7, 2.318722009658813
0, 1, 8, 2.160164356231689
0, 1, 9, 2.888843297958374
0, 1, 10, 3.439059972763062
0, 1, 11, 3.826613426208496
0, 1, 12, 3.166152477264404
0, 1, 13, 3.707086801528931
0, 1, 14, 5.197164535522461
0, 1, 15, 6.361471652984619
0, 1, 16, 8.110180854797363
0, 1, 17, 5.865019798278809
0, 1, 18, 11.04184341430664
0, 1, 19, 39.45478820800781
0, 1, 20, 126.1483459472656
0, 1, 21, 176.6787109375
0, 1, 22, 193.2230224609375
0, 1, 23, 184.6728210449219
0, 1, 24, 180.3291778564453
0, 1, 25, 191.2538757324219
0, 1, 26, 198.2611083984375
0, 1, 27, 187.9087982177734
0, 1, 28, 188.6065826416016
0, 1, 29, 184.8233032226562
0, 1, 30, 180.3903656005859
0, 1, 31, 182.1402282714844
0, 1, 32, 189.0388031005859
0, 1, 33, 190.8399658203125
0, 1, 34, 186.2039184570312
0, 1, 35, 193.4436340332031
0, 1, 36, 205.8749389648438
0, 1, 37, 185.3810119628906
0, 1, 38, 164.9688262939453
0, 1, 39, 171.2286376953125
0, 1, 40, 179.1138763427734
0, 1, 41, 185.2242431640625
0, 1, 42, 183.5337066650391
0, 1, 43, 185.32861328125
0, 1, 44, 169.5796508789062
0, 1, 45, 186.2757568359375
0, 1, 46, 170.9130249023438
0, 1, 47, 186.1588439941406
0, 1, 48, 187.9647979736328
0, 1, 49, 186.4645538330078
0, 1, 50, 178.3714904785156
0, 1, 51, 190.8899993896484
0, 1, 52, 194.9862518310547
0, 1, 53, 196.0231170654297
0, 1, 54, 187.6946411132812
0, 1, 55, 165.0823211669922
0, 1, 56, 179.1769104003906
0, 1, 57, 177.6560974121094
0, 1, 58, 188.6546478271484
0, 1, 59, 193.8932342529297
0, 1, 60, 187.4463958740234
0, 1, 61, 177.2145690917969
0, 1, 62, 204.5087738037109
0, 1, 63, 174.6878509521484
0, 1, 64, 172.3351745605469
0, 1, 65, 184.3224945068359
0, 1, 66, 203.5859222412109
0, 1, 67, 183.4145660400391
0, 1, 68, 186.6768188476562
0, 1, 69, 188.3563995361328
0, 1, 70, 186.4234161376953
0, 1, 71, 172.3428344726562
0, 1, 72, 191.4507751464844
0, 1, 73, 190.1318817138672
0, 1, 74, 201.3685913085938
0, 1, 75, 183.2253723144531
0, 1, 76, 175.0587921142578
0, 1, 77, 191.3868408203125
0, 1, 78, 188.8313598632812
0, 1, 79, 202.5479736328125
0, 1, 80, 185.8748626708984
0, 1, 81, 174.0811614990234
0, 1, 82, 208.8124694824219
0, 1, 83, 211.65185546875
0, 1, 84, 180.8805236816406
0, 1, 85, 169.6903533935547
0, 1, 86, 167.8065795898438
0, 1, 87, 185.0832672119141
0, 1, 88, 175.4711303710938
0, 1, 89, 188.3504028320312
0, 1, 90, 213.846435546875
0, 1, 91, 180.0574951171875
0, 1, 92, 184.4716796875
0, 1, 93, 180.3284454345703
0, 1, 94, 185.5478210449219
0, 1, 95, 184.5438079833984
0, 1, 96, 196.0351409912109
0, 1, 97, 182.8131713867188
0, 1, 98, 186.3681182861328
0, 1, 99, 176.4955902099609
0, 1, 100, 170.86572265625
0, 1, 101, 178.0259399414062
0, 1, 102, 182.8131256103516
0, 1, 103, 172.9751434326172
0, 1, 104, 191.3194274902344
0, 1, 105, 182.0919799804688
0, 1, 106, 163.9266204833984
0, 1, 107, 123.093864440918
0, 1, 108, 46.5153694152832
0, 1, 109, 10.20115661621094
0, 1, 110, 8.304003715515137
0, 1, 111, 7.004052639007568
0, 1, 112, 6.49650764465332
0, 1, 113, 6.784038543701172
0, 1, 114, 6.245554447174072
0, 1, 115, 8.384782791137695
0, 1, 116, 4.723899364471436
0, 1, 117, 2.399007797241211
0, 1, 118, 2.74262809753418
0, 1, 119, 0.8963678479194641
0, 1, 120, 3.153717756271362
0, 1, 121, 3.84269905090332
0, 1, 122, 2.037662744522095
0, 1, 123, 5.141212463378906
0, 1, 124, 2.554394721984863
0, 1, 125, 2.279435157775879
0, 1, 126, 1.868640780448914
0, 1, 127, 1.265811562538147
0, 2, 0, 0.7978612780570984
0, 2, 1, 2.429841041564941
0, 2, 2, 4.453711032867432
0, 2, 3, 3.41752028465271
0, 2, 4, 0.9082723259925842
0, 2, 5, 1.350234866142273
0, 2, 6, 2.738683462142944
0, 2, 7, 1.861942768096924
0, 2, 8, 0.8586745858192444
0, 2, 9, 3.572200536727905
0, 2, 10, 6.419353008270264
0, 2, 11, 4.875845432281494
0, 2, 12, 4.019167900085449
0, 2, 13, 4.948624134063721
0, 2, 14, 4.165425300598145
0, 2, 15, 5.056585311889648
0, 2, 16, 5.151260375976562
0, 2, 17, 9.805249214172363
0, 2, 18, 15.66198921203613
0, 2, 19, 76.84027099609375
0, 2, 20, 162.4043121337891
0, 2, 21, 182.8814086914062
0, 2, 22, 194.1561279296875
0, 2, 23, 184.9748382568359
0, 2, 24, 173.6092376708984
0, 2, 25, 184.3535766601562
0, 2, 26, 179.2873077392578
0, 2, 27, 190.9596405029297
0, 2, 28, 171.0714569091797
0, 2, 29, 168.6072235107422
0, 2, 30, 186.6759643554688
0, 2, 31, 182.5550842285156
0, 2, 32, 184.9153442382812
0, 2, 33, 190.2853088378906
0, 2, 34, 196.4272918701172
0, 2, 35, 182.0374908447266
0, 2, 36, 186.9495697021484
0, 2, 37, 181.8745422363281
0, 2, 38, 183.7620544433594
0, 2, 39, 166.3662719726562
0, 2, 40, 184.2032775878906
0, 2, 41, 184.6361236572266
0, 2, 42, 190.8737335205078
0, 2, 43, 196.0693664550781
0, 2, 44, 190.9051208496094
0, 2, 45, 190.1127624511719
0, 2, 46, 196.1175994873047
0, 2, 47, 188.7542419433594
0, 2, 48, 177.4251556396484
0, 2, 49, 198.1615142822266
0, 2, 50, 167.8374481201172
0, 2, 51, 188.7878112792969
0, 2, 52, 186.6379699707031
0, 2, 53, 195.3023223876953
0, 2, 54, 175.5590667724609
0, 2, 55, 174.4640045166016
0, 2, 56, 181.5680694580078
0, 2, 57, 199.6518249511719
0, 2, 58, 187.8549194335938
0, 2, 59, 188.9142456054688
0, 2, 60, 196.8476409912109
0, 2, 61, 193.7498626708984
0, 2, 62, 189.7361907958984
0, 2, 63, 169.0956420898438
0, 2, 64, 192.3361053466797
0, 2, 65, 202.3855438232422
0, 2, 66, 195.7628631591797
0, 2, 67, 185.1366577148438
0, 2, 68, 182.8232116699219
0, 2, 69, 187.4613342285156
0, 2, 70, 203.1726837158203
0, 2, 71, 175.1614227294922
0, 2, 72, 185.510498046875
0, 2, 73, 177.7554168701172
0, 2, 74, 180.6598663330078
0, 2, 75, 196.1340942382812
0, 2, 76, 183.5959930419922
0, 2, 77, 178.4772338867188
0, 2, 78, 197.3490905761719
0, 2, 79, 177.2528839111328
0, 2, 80, 187.3747253417969
0, 2, 81, 187.1436309814453
0, 2, 82, 206.7666320800781
0, 2, 83, 203.6568298339844
0, 2, 84, 188.1299896240234
0, 2, 85, 170.1601257324219
0, 2, 86, 196.0348205566406
0, 2, 87, 171.48828125
0, 2, 88, 176.8627471923828
0, 2, 89, 184.9647521972656
0, 2, 90, 178.1981353759766
0, 2, 91, 173.1087188720703
0, 2, 92, 196.146484375
0, 2, 93, 197.6357879638672
0, 2, 94, 200.7711791992188
0, 2, 95, 192.9975280761719
0, 2, 96, 186.4046630859375
0, 2, 97, 172.2748718261719
0, 2, 98, 173.3329620361328
0, 2, 99, 162.2735290527344
0, 2, 100, 186.5449981689453
0, 2, 101, 197.8047027587891
0, 2, 102, 176.0771331787109
0, 2, 103, 199.5054626464844
0, 2, 104, 189.1115417480469
0, 2, 105, 201.6912078857422
0, 2, 106, 195.2904052734375
0, 2, 107, 149.2820892333984
0, 2, 108, 79.1116943359375
0, 2, 109, 17.38433074951172
0, 2, 110, 9.159415245056152
0, 2, 111, 5.360450267791748
0, 2, 112, 3.982974290847778
0, 2, 113, 5.23049783706665
0, 2, 114, 7.358284473419189
0, 2, 115, 4.453512668609619
0, 2, 116, 3.775827884674072
0, 2, 117, 1.734030604362488
0, 2, 118, 2.720293998718262
0, 2, 119, 4.333440780639648
0, 2, 120, 1.83230721950531
0, 2, 121, 3.253856897354126
0, 2, 122, 3.308221578598022
0, 2, 123, 2.539937496185303
0, 2, 124, 2.87291955947876
0, 2, 125, 2.602145433425903
0, 2, 126, 2.399079322814941
0, 2, 127, 1.016699194908142
0, 3, 0, 1.779141426086426
0, 3, 1, 0.9146096110343933
0, 3, 2, 1.56914758682251
0, 3, 3, 2.603297472000122
0, 3, 4, 3.430819988250732
0, 3, 5, 1.722628355026245
0, 3, 6, 1.203577876091003
0, 3, 7, 1.059706568717957
0, 3, 8, 1.769060015678406
0, 3, 9, 2.386636734008789
0, 3, 10, 1.61838698387146
0, 3, 11, 4.634037494659424
0, 3, 12, 3.707125186920166
0, 3, 13, 3.158007860183716
0, 3, 14, 3.832364797592163
0, 3, 15, 8.197219848632812
0, 3, 16, 7.907161712646484
0, 3, 17, 6.956707000732422
0, 3, 18, 33.20931625366211
0, 3, 19, 114.4772186279297
0, 3, 20, 180.6451110839844
0, 3, 21, 172.5532073974609
0, 3, 22, 178.4140777587891
0, 3, 23, 188.7425079345703
0, 3, 24, 178.5230102539062
0, 3, 25, 169.5674133300781
0, 3, 26, 181.3212127685547
0, 3, 27, 188.7218627929688
0, 3, 28, 181.2547302246094
0, 3, 29, 197.2018890380859
0, 3, 30, 185.2527008056641
0, 3, 31, 194.1333923339844
0, 3, 32, 206.1586151123047
0, 3, 33, 196.9033966064453
0, 3, 34, 187.1669921875
0, 3, 35, 174.6056671142578
0, 3, 36, 186.7272338867188
0, 3, 37, 200.54638671875
0, 3, 38, 190.7379302978516
0, 3, 39, 184.4715728759766
0, 3, 40, 167.00390625
0, 3, 41, 174.1095886230469
0, 3, 42, 185.5459747314453
0, 3, 43, 182.3743438720703
0, 3, 44, 203.2458648681641
0, 3, 45, 206.9048767089844
0, 3, 46, 198.2684631347656
0, 3, 47, 194.3318328857422
0, 3, 48, 198.3477020263672
0, 3, 49, 181.9080047607422
0, 3, 50, 187.7118072509766
0, 3, 51, 174.7857208251953
0, 3, 52, 187.2170104980469
0, 3, 53, 178.5459594726562
0, 3, 54, 179.4598999023438
0, 3, 55, 177.8662872314453
0, 3, 56, 182.2307434082031
0, 3, 57, 177.8041076660156
0, 3, 58, 202.8454132080078
0, 3, 59, 195.4772338867188
0, 3, 60, 186.5301055908203
0, 3, 61, 182.4335327148438
0, 3, 62, 183.7858581542969
0, 3, 63, 184.2784118652344
0, 3, 64, 191.4776153564453
0, 3, 65, 187.0359039306641
0, 3, 66, 175.0773620605469
0, 3, 67, 190.5869750976562
0, 3, 68, 211.7724304199219
0, 3, 69, 189.0949554443359
0, 3, 70, 185.1853485107422
0, 3, 71, 197.529296875
0, 3, 72, 185.3563232421875
0, 3, 73, 186.1141967773438
0, 3, 74, 192.5304870605469
0, 3, 75, 192.5746002197266
0, 3, 76, 191.2122039794922
0, 3, 77, 200.1424407958984
0, 3, 78, 188.248046875
0, 3, 79, 185.5970611572266
0, 3, 80, 189.9991455078125
0, 3, 81, 184.1508941650391
0, 3, 82, 180.1640167236328
0, 3, 83, 194.7080383300781
0, 3, 84, 198.9443969726562
0, 3, 85, 192.3803253173828
0, 3, 86, 203.7554931640625
0, 3, 87, 197.1045532226562
0, 3, 88, 191.2250518798828
0, 3, 89, 192.9634552001953
0, 3, 90, 176.1677856445312
0, 3, 91, 156.2879791259766
0, 3, 92, 206.7742767333984
0, 3, 93, 195.8766784667969
0, 3, 94, 194.2681579589844
0, 3, 95, 211.3504486083984
0, 3, 96, 208.8096466064453
0, 3, 97, 167.419189453125
0, 3, 98, 169.0200347900391
0, 3, 99, 180.6847076416016
0, 3, 100, 177.6053466796875
0, 3, 101, 197.7768249511719
0, 3, 102, 195.5349884033203
0, 3, 103, 193.0004119873047
0, 3, 104, 202.6356048583984
0, 3, 105, 176.9591979980469
0, 3, 106, 182.4170989990234
0, 3, 107, 170.9029388427734
0, 3, 108, 107.9388732910156
0, 3, 109, 28.03515434265137
0, 3, 110, 8.035541534423828
0, 3, 111, 6.194597244262695
0, 3, 112, 3.049810171127319
0, 3, 113, 7.343154430389404
0, 3, 114, 4.741321086883545
0, 3, 115, 4.770541667938232
0, 3, 116, 5.968783378601074
0, 3, 117, 4.44977855682373
0, 3, 118, 2.31905722618103
0, 3, 119, 2.903837442398071
0, 3, 120, 4.290357112884521
0, 3, 121, 1.727797508239746
0, 3, 122, 3.413777351379395
0, 3, 123, 1.350081324577332
0, 3, 124, 1.712878346443176
0, 3, 125, 1.916102886199951
0, 3, 126, 1.163130879402161
0, 3, 127, 1.142261147499084
0, 4, 0, 1.522654891014099
0, 4, 1, 0.2943875789642334
0, 4, 2, 2.541182994842529
0, 4, 3, 5.004223346710205
0, 4, 4, 2.525532484054565
0, 4, 5, 0.6358424425125122
0, 4, 6, 2.285234212875366
0, 4, 7, 2.605980396270752
0, 4, 8, 1.579544544219971
0, 4, 9, 2.864207744598389
0, 4, 10, 3.813665628433228
0, 4, 11, 3.407135009765625
0, 4, 12, 3.804932594299316
0, 4, 13, 5.301479339599609
0, 4, 14, 4.276669979095459
0, 4, 15, 8.179211616516113
0, 4, 16, 5.983388423919678
0, 4, 17, 11.80233287811279
0, 4, 18, 54.40691375732422
0, 4, 19, 151.0633239746094
0, 4, 20, 193.6840057373047
0, 4, 21, 169.66845703125
0, 4, 22, 187.5291595458984
0, 4, 23, 196.0975036621094
0, 4, 24, 192.3141174316406
0, 4, 25, 201.0133819580078
0, 4, 26, 183.4481964111328
0, 4, 27, 191.1446228027344
0, 4, 28, 178.9685516357422
0, 4, 29, 206.0130310058594
0, 4, 30, 195.1672210693359
0, 4, 31, 193.3545532226562
0, 4, 32, 209.9550933837891
0, 4, 33, 190.7688293457031
0, 4, 34, 193.3452453613281
0, 4, 35, 211.9063415527344
0, 4, 36, 193.3668975830078
0, 4, 37, 176.7678833007812
0, 4, 38, 194.046630859375
0, 4, 39, 190.1888122558594
0, 4, 40, 185.858154296875
0, 4, 41, 190.1048278808594
0, 4, 42, 206.2328338623047
0, 4, 43, 174.3050384521484
0, 4, 44, 184.0635681152344
0, 4, 45, 195.8557586669922
0, 4, 46, 186.3341827392578
0, 4, 47, 179.1823883056641
0, 4, 48, 187.0359497070312
0, 4, 49, 174.1372222900391
0, 4, 50, 184.8161163330078
0, 4, 51, 198.5466461181641
0, 4, 52, 223.0874633789062
0, 4, 53, 206.5373840332031
0, 4, 54, 189.7507629394531
0, 4, 55, 174.7440032958984
0, 4, 56, 190.5500183105469
0, 4, 57, 191.7595062255859
0, 4, 58, 189.4048919677734
0, 4, 59, 190.1957702636719
0, 4, 60, 195.5619354248047
0, 4, 61, 193.1468963623047
0, 4, 62, 191.1627807617188
0, 4, 63, 179.2766723632812
0, 4, 64, 213.6699676513672
0, 4, 65, 191.01025390625
0, 4, 66, 201.6858978271484
0, 4, 67, 199.6699981689453
0, 4, 68, 200.9234771728516
0, 4, 69, 198.7834320068359
0, 4, 70, 203.9667510986328
0, 4, 71, 206.8541107177734
0, 4, 72, 215.6999359130859
0, 4, 73, 187.6858062744141
0, 4, 74, 180.8805084228516
0, 4, 75, 184.2579193115234
0, 4, 76, 190.6608276367188
0, 4, 77, 183.1304779052734
0, 4, 78, 195.2064208984375
0, 4, 79, 204.5150756835938
0, 4, 80, 212.5202484130859
0, 4, 81, 198.8241577148438
0, 4, 82, 183.3243865966797
0, 4, 83, 171.1623992919922
0, 4, 84, 192.4857940673828
0, 4, 85, 196.9963073730469
0, 4, 86, 180.4957580566406
0, 4, 87, 183.7737579345703
0, 4, 88, 204.4658355712891
0, 4, 89, 187.6566925048828
0, 4, 90, 211.3630065917969
0, 4, 91, 190.1839752197266
0, 4, 92, 196.3884735107422
0, 4, 93, 195.2324523925781
0, 4, 94, 183.2290954589844
0, 4, 95, 173.9113311767578
0, 4, 96, 189.9050903320312
0, 4, 97, 194.0063018798828
0, 4, 98, 200.7479095458984
0, 4, 99, 184.2137603759766
0, 4, 100, 184.1283416748047
0, 4, 101, 179.0376434326172
0, 4, 102, 171.9280242919922
0, 4, 103, 185.1673583984375
0, 4, 104, 211.0197601318359
0, 4, 105, 190.0341796875
0, 4, 106, 179.9571228027344
0, 4, 107, 181.4425048828125
0, 4, 108, 155.0859069824219
0, 4, 109, 51.4181022644043
0, 4, 110, 10.21458435058594
0, 4, 111, 8.492329597473145
0, 4, 112, 6.62637996673584
0, 4, 113, 5.246521472930908
0, 4, 114, 5.116569042205811
0, 4, 115, 3.467942476272583
0, 4, 116, 5.731206893920898
0, 4, 117, 3.618334054946899
0, 4, 118, 2.995221376419067
0, 4, 119, 3.487665414810181
0, 4, 120, 2.070048809051514
0, 4, 121, 1.388652920722961
0, 4, 122, 1.515529990196228
0, 4, 123, 1.963890314102173
0, 4, 124, 3.669457674026489
0, 4, 125, 3.224987030029297
0, 4, 126, 2.592709064483643
0, 4, 127, 1.200290322303772
0, 5, 0, 1.734256029129028
0, 5, 1, 3.775314092636108
0, 5, 2, 5.166621208190918
0, 5, 3, 4.374356746673584
0, 5, 4, 3.425537824630737
0, 5, 5, 2.370909214019775
0, 5, 6, 2.316306829452515
0, 5, 7, 2.635444402694702
0, 5, 8, 2.650973081588745
0, 5, 9, 2.471046686172485
0, 5, 10, 3.623993158340454
0, 5, 11, 5.035607814788818
0, 5, 12, 3.001223087310791
0, 5, 13, 4.355642795562744
0, 5, 14, 4.997870445251465
0, 5, 15, 9.245627403259277
0, 5, 16, 7.705819129943848
0, 5, 17, 21.02079963684082
0, 5, 18, 83.52734375
0, 5, 19, 165.7227020263672
0, 5, 20, 184.9423675537109
0, 5, 21, 178.4105529785156
0, 5, 22, 170.9476470947266
0, 5, 23, 200.7573699951172
0, 5, 24, 188.6097106933594
0, 5, 25, 207.2808990478516
0, 5, 26, 183.2605590820312
0, 5, 27, 193.2550354003906
0, 5, 28, 189.4391326904297
0, 5, 29, 194.9783935546875
0, 5, 30, 176.9394378662109
0, 5, 31, 179.6437072753906
0, 5, 32, 186.1702728271484
0, 5, 33, 168.6685028076172
0, 5, 34, 195.8296966552734
0, 5, 35, 197.6367797851562
0, 5, 36, 167.9093780517578
0, 5, 37, 196.9387054443359
0, 5, 38, 180.0433349609375
0, 5, 39, 185.8091125488281
0, 5, 40, 196.7223205566406
0, 5, 41, 176.7421875
0, 5, 42, 187.0191802978516
0, 5, 43, 193.4194946289062
0, 5, 44, 200.0745391845703
0, 5, 45, 186.1935882568359
0, 5, 46, 193.7787322998047
0, 5, 47, 180.1501617431641
0, 5, 48, 178.6366882324219
0, 5, 49, 177.6052398681641
0, 5, 50, 186.5526428222656
0, 5, 51, 171.7861175537109
0, 5, 52, 167.4804992675781
0, 5, 53, 182.9494171142578
0, 5, 54, 171.6874694824219
0, 5, 55, 215.443115234375
0, 5, 56, 182.4458160400391
0, 5, 57, 207.5016937255859
0, 5, 58, 181.1412506103516
0, 5, 59, 181.6234588623047
0, 5, 60, 218.6730194091797
0, 5, 61, 184.4183959960938
0, 5, 62, 178.3591156005859
0, 5, 63, 180.6147766113281
0, 5, 64, 194.6644439697266
0, 5, 65, 210.2821197509766
0, 5, 66, 192.6927185058594
0, 5, 67, 198.54345703125
0, 5, 68, 186.5765380859375
0, 5, 69, 185.0218963623047
0, 5, 70, 184.9601898193359
0, 5, 71, 192.9766235351562
0, 5, 72, 197.1788177490234
0, 5, 73, 202.6788330078125
0, 5, 74, 180.8491516113281
0, 5, 75, 203.8175811767578
0, 5, 76, 214.1464080810547
0, 5, 77, 180.881591796875
0, 5, 78, 194.0029144287109
0, 5, 79, 190.1361236572266
0, 5, 80, 198.9408569335938
0, 5, 81, 205.3667144775391
0, 5, 82, 200.7890472412109
0, 5, 83, 189.6271667480469
0, 5, 84, 205.3788604736328
0, 5, 85, 176.1576538085938
0, 5, 86, 195.5413208007812
0, 5, 87, 188.2782287597656
0, 5, 88, 177.4269714355469
0, 5, 89, 193.7868804931641
0, 5, 90, 199.9847869873047
0, 5, 91, 194.0604095458984
0, 5, 92, 190.0161590576172
0, 5, 93, 189.8315887451172
0, 5, 94, 207.1608581542969
0, 5, 95, 176.4196929931641
0, 5, 96, 182.4744262695312
0, 5, 97, 191.0867614746094
0, 5, 98, 188.5573883056641
0, 5, 99, 194.3510589599609
0, 5, 100, 184.9213714599609
0, 5, 101, 195.6711730957031
0, 5, 102, 181.0360260009766
0, 5, 103, 176.1926879882812
0, 5, 104, 190.1360321044922
0, 5, 105, 189.354736328125
0, 5, 106, 178.4784851074219
0, 5, 107, 180.9768218994141
0, 5, 108, 175.1087036132812
0, 5, 109, 88.01543426513672
0, 5, 110, 30.30585670471191
0, 5, 111, 9.458708763122559
0, 5, 112, 6.995712280273438
0, 5, 113, 6.022648811340332
0, 5, 114, 5.899212837219238
0, 5, 115, 6.767303943634033
0, 5, 116, 4.366284847259521
0, 5, 117, 2.757653951644897
0, 5, 118, 3.580330371856689
0, 5, 119, 3.100543737411499
0, 5, 120, 1.795131683349609
0, 5, 121, 2.912396907806396
0, 5, 122, 3.287413835525513
0, 5, 123, 3.856601715087891
0, 5, 124, 3.847429752349854
0, 5, 125, 1.835275888442993
0, 5, 126, 2.013618946075439
0, 5, 127, 2.394064426422119
0, 6, 0, 4.306023597717285
0, 6, 1, 4.089448928833008
0, 6, 2, 4.792638301849365
0, 6, 3, 2.939087867736816
0, 6, 4, 3.672959089279175
0, 6, 5, 5.216305732727051
0, 6, 6, 3.036863327026367
0, 6, 7, 3.573996305465698
0, 6, 8, 4.369871616363525
0, 6, 9, 2.783364534378052
0, 6, 10, 5.411114692687988
0, 6, 11, 4.09322452545166
0, 6, 12, 4.839022636413574
0, 6, 13, 4.990520477294922
0, 6, 14, 5.194771766662598
0, 6, 15, 6.334845066070557
0, 6, 16, 13.692551612854
0, 6, 17, 28.18144035339355
0, 6, 18, 112.156005859375
0, 6, 19, 191.8705444335938
0, 6, 20, 194.7330017089844
0, 6, 21, 198.8044128417969
0, 6, 22, 190.6283416748047
0, 6, 23, 191.2454681396484
0, 6, 24, 200.59375
0, 6, 25, 182.4737854003906
0, 6, 26, 187.5366973876953
0, 6, 27, 191.7686309814453
0, 6, 28, 191.0128784179688
0, 6, 29, 211.1255950927734
0, 6, 30, 189.6633148193359
0, 6, 31, 193.4490203857422
0, 6, 32, 207.2643737792969
0, 6, 33, 185.0816955566406
0, 6, 34, 198.1346893310547
0, 6, 35, 189.0218200683594
0, 6, 36, 180.2650146484375
0, 6, 37, 182.4263000488281
0, 6, 38, 185.953125
0, 6, 39, 195.4315338134766
0, 6, 40, 175.1926422119141
0, 6, 41, 185.1304016113281
0, 6, 42, 173.9117126464844
0, 6, 43, 208.9580841064453
0, 6, 44, 208.7986602783203
0, 6, 45, 193.3591156005859
0, 6, 46, 187.8546752929688
0, 6, 47, 204.5680847167969
0, 6, 48, 189.11279296875
0, 6, 49, 180.6045837402344
0, 6, 50, 182.1680755615234
0, 6, 51, 195.9486846923828
0, 6, 52, 197.3259887695312
0, 6, 53, 185.6794738769531
0, 6, 54, 175.0564575195312
0, 6, 55, 193.8734588623047
0, 6, 56, 202.3896484375
0, 6, 57, 191.1672210693359
0, 6, 58, 177.1936187744141
0, 6, 59, 191.8264007568359
0, 6, 60, 183.8780670166016
0, 6, 61, 194.9144592285156
0, 6, 62, 196.5403442382812
0, 6, 63, 187.1894836425781
0, 6, 64, 170.6344757080078
0, 6, 65, 185.5833282470703
0, 6, 66, 197.7904815673828
0, 6, 67, 213.9795684814453
0, 6, 68, 182.9740905761719
0, 6, 69, 170.2335815429688
0, 6, 70, 187.1601409912109
0, 6, 71, 171.2583465576172
0, 6, 72, 175.7205200195312
0, 6, 73, 176.9497680664062
0, 6, 74, 210.5010375976562
0, 6, 75, 228.2908477783203
0, 6, 76, 183.8489227294922
0, 6, 77, 171.9452209472656
0, 6, 78, 175.6110534667969
0, 6, 79, 186.9523468017578
0, 6, 80, 187.0379028320312
0, 6, 81, 208.9540557861328
0, 6, 82, 196.4704895019531
0, 6, 83, 194.5429077148438
0, 6, 84, 197.9752655029297
0, 6, 85, 183.6057891845703
0, 6, 86, 201.7208251953125
0, 6, 87, 183.167724609375
0, 6, 88, 192.0607147216797
0, 6, 89, 188.8671569824219
0, 6, 90, 205.2362365722656
0, 6, 91, 199.7771148681641
0, 6, 92, 172.6393432617188
0, 6, 93, 194.3848114013672
0, 6, 94, 189.2453918457031
0, 6, 95, 186.0863647460938
0, 6, 96, 188.5521850585938
0, 6, 97, 193.8088226318359
0, 6, 98, 184.2866668701172
0, 6, 99, 174.9233703613281
0, 6, 100, 201.5608062744141
0, 6, 101, 169.1245880126953
0, 6, 102, 201.9278717041016
0, 6, 103, 197.5961761474609
0, 6, 104, 183.9586791992188
0, 6, 105, 194.7516021728516
0, 6, 106, 177.5785675048828
0, 6, 107, 195.3057708740234
0, 6, 108, 171.5354156494141
0, 6, 109, 116.367057800293
0, 6, 110, 33.92182159423828
0, 6, 111, 9.013856887817383
0, 6, 112, 8.403145790100098
0, 6, 113, 5.444789409637451
0, 6, 114, 7.253002166748047
0, 6, 115, 6.750045776367188
0, 6, 116, 4.820563793182373
0, 6, 117, 3.151695489883423
0, 6, 118, 3.016914129257202
0, 6, 119, 4.268115043640137
0, 6, 120, 2.096466779708862
0, 6, 121, 3.923477172851562
0, 6, 122, 2.761988639831543
0, 6, 123, 2.244515657424927
0, 6, 124, 2.958125114440918
0, 6, 125, 2.709221363067627
0, 6, 126, 1.067782640457153
0, 6, 127, 2.848450899124146
0, 7, 0, 3.983001947402954
0, 7, 1, 1.734774231910706
0, 7, 2, 4.527745246887207
0, 7, 3, 2.628757476806641
0, 7, 4, 0.8070947527885437
0, 7, 5, 1.529700040817261
0, 7, 6, 1.872866034507751
0, 7, 7, 2.16728138923645
0, 7, 8, 2.442471265792847
0, 7, 9, 4.281406402587891
0, 7, 10, 6.148180961608887
0, 7, 11, 2.866432189941406
0, 7, 12, 3.431089878082275
0, 7, 13, 6.066718578338623
0, 7, 14, 7.115206241607666
0, 7, 15, 8.234391212463379
0, 7, 16, 14.75589656829834
0, 7, 17, 49.97325134277344
0, 7, 18, 163.5523681640625
0, 7, 19, 181.7369079589844
0, 7, 20, 178.1254272460938
0, 7, 21, 181.2535705566406
0, 7, 22, 193.03125
0, 7, 23, 202.7488555908203
0, 7, 24, 179.3618927001953
0, 7, 25, 212.8026428222656
0, 7, 26, 188.9678649902344
0, 7, 27, 182.0838012695312
0, 7, 28, 182.7445983886719
0, 7, 29, 208.7488555908203
0, 7, 30, 193.0744018554688
0, 7, 31, 176.8664093017578
0, 7, 32, 189.9918212890625
0, 7, 33, 183.0647735595703
0, 7, 34, 194.2679748535156
0, 7, 35, 197.4766998291016
0, 7, 36, 187.3410949707031
0, 7, 37, 212.4799041748047
0, 7, 38, 193.0444488525391
0, 7, 39, 175.5727233886719
0, 7, 40, 184.1315155029297
0, 7, 41, 186.7341003417969
0, 7, 42, 177.5764617919922
0, 7, 43, 178.1392974853516
0, 7, 44, 178.8189239501953
0, 7, 45, 175.4058532714844
0, 7, 46, 187.8441162109375
0, 7, 47, 196.9043884277344
0, 7, 48, 184.9151916503906
0, 7, 49, 199.0361022949219
0, 7, 50, 188.3212127685547
0, 7, 51, 205.7491149902344
0, 7, 52, 203.7031860351562
0, 7, 53, 190.8719482421875
0, 7, 54, 194.0415496826172
0, 7, 55, 203.7942962646484
0, 7, 56, 183.7575531005859
0, 7, 57, 185.6572723388672
0, 7, 58, 194.4113311767578
0, 7, 59, 186.7726440429688
0, 7, 60, 204.4234924316406
0, 7, 61, 171.9649963378906
0, 7, 62, 203.3232727050781
0, 7, 63, 188.3162536621094
0, 7, 64, 201.2426300048828
0, 7, 65, 196.4840240478516
0, 7, 66, 205.3723754882812
0, 7, 67, 222.0622406005859
0, 7, 68, 163.2095336914062
0, 7, 69, 194.8464660644531
0, 7, 70, 217.1311492919922
0, 7, 71, 184.4441375732422
0, 7, 72, 181.0752563476562
0, 7, 73, 176.9774475097656
0, 7, 74, 209.5705718994141
0, 7, 75, 203.4257507324219
0, 7, 76, 216.3200988769531
0, 7, 77, 174.6103057861328
0, 7, 78, 178.2050476074219
0, 7, 79, 192.1802978515625
0, 7, 80, 196.2304382324219
0, 7, 81, 215.6015625
0, 7, 82, 184.730712890625
0, 7, 83, 205.4737243652344
0, 7, 84, 192.9244995117188
0, 7, 85, 187.5411834716797
0, 7, 86, 200.7278442382812
0, 7, 87, 225.0799865722656
0, 7, 88, 195.0078887939453
0, 7, 89, 176.4150238037109
0, 7, 90, 182.1665802001953
0, 7, 91, 194.2493896484375
0, 7, 92, 194.6320190429688
0, 7, 93, 199.1482849121094
0, 7, 94, 178.4979095458984
0, 7, 95, 199.3885498046875
0, 7, 96, 208.2680358886719
0, 7, 97, 188.3584442138672
0, 7, 98, 175.9741058349609
0, 7, 99, 197.8182525634766
0, 7, 100, 181.9048309326172
0, 7, 101, 199.4422912597656
0, 7, 102, 184.8266906738281
0, 7, 103, 181.6014404296875
0, 7, 104, 174.2720642089844
0, 7, 105, 196.69091796875
0, 7, 106, 205.1869354248047
0, 7, 107, 174.0391082763672
0, 7, 108, 177.31787109375
0, 7, 109, 137.0356140136719
0, 7, 110, 54.57609939575195
0, 7, 111, 8.874187469482422
0, 7, 112, 7.66968822479248
0, 7, 113, 8.495866775512695
0, 7, 114, 7.865458488464355
0, 7, 115, 4.942574024200439
0, 7, 116, 4.354804992675781
0, 7, 117, 3.048862934112549
0, 7, 118, 3.32110857963562
0, 7, 119, 2.429375410079956
0, 7, 120, 2.643213033676147
0, 7, 121, 2.119738101959229
0, 7, 122, 2.876580715179443
0, 7, 123, 1.95894193649292
0, 7, 124, 0.9398033618927002
0, 7, 125, 3.007629632949829
0, 7, 126, 5.177355289459229
0, 7, 127, 0.9456596374511719
0, 8, 0, 5.053347110748291
0, 8, 1, 3.705713272094727
0, 8, 2, 3.014276266098022
0, 8, 3, 3.494431018829346
0, 8, 4, 1.764041781425476
0, 8, 5, 2.983463525772095
0, 8, 6, 1.902301907539368
0, 8, 7, 3.975269317626953
0, 8, 8, 3.943122863769531
0, 8, 9, 5.036633491516113
0, 8, 10, 1.883046388626099
0, 8, 11, 2.934550285339355
0, 8, 12, 3.042413711547852
0, 8, 13, 4.628670692443848
0, 8, 14, 5.674459934234619
0, 8, 15, 8.256851196289062
0, 8, 16, 19.27300262451172
0, 8, 17, 76.68810272216797
0, 8, 18, 142.1874389648438
0, 8, 19, 177.9099273681641
0, 8, 20, 190.6835327148438
0, 8, 21, 192.2974243164062
0, 8, 22, 179.4616241455078
0, 8, 23, 172.6893310546875
0, 8, 24, 191.5712127685547
0, 8, 25, 185.0721588134766
0, 8, 26, 192.8854064941406
0, 8, 27, 187.46337890625
0, 8, 28, 187.1773223876953
0, 8, 29, 208.0749206542969
0, 8, 30, 197.6179504394531
0, 8, 31, 183.7361907958984
0, 8, 32, 199.3077697753906
0, 8, 33, 208.3138885498047
0, 8, 34, 203.3087005615234
0, 8, 35, 184.8296203613281
0, 8, 36, 182.3680877685547
0, 8, 37, 198.6367797851562
