# TOPAS Version: 3.1.p3
# Parameter File: batch_inserts_264.txt
# Results for scorer Readout_Adipose
# Scored in component: MyBox
# X in 1 bin  of 0.65 cm
# Y in 512 bins of 0.0783984 cm
# Z in 128 bins of 0.078125 cm
# EnergyDeposit ( MeV ) : Sum   
0, 0, 0, 1.497784852981567
0, 0, 1, 5.836479663848877
0, 0, 2, 1.06023108959198
0, 0, 3, 1.036901712417603
0, 0, 4, 1.943212866783142
0, 0, 5, 0.4538441002368927
0, 0, 6, 1.11628782749176
0, 0, 7, 1.346287250518799
0, 0, 8, 1.523083806037903
0, 0, 9, 2.838206052780151
0, 0, 10, 2.831849336624146
0, 0, 11, 3.425044059753418
0, 0, 12, 4.64931058883667
0, 0, 13, 2.103617191314697
0, 0, 14, 5.119345664978027
0, 0, 15, 5.202775955200195
0, 0, 16, 5.64605188369751
0, 0, 17, 7.17818546295166
0, 0, 18, 6.717302799224854
0, 0, 19, 22.39456558227539
0, 0, 20, 94.49406433105469
0, 0, 21, 154.1970672607422
0, 0, 22, 153.6447601318359
0, 0, 23, 143.6191864013672
0, 0, 24, 160.5988922119141
0, 0, 25, 166.3009338378906
0, 0, 26, 166.2598419189453
0, 0, 27, 174.0851745605469
0, 0, 28, 177.6293640136719
0, 0, 29, 175.1329498291016
0, 0, 30, 172.9311676025391
0, 0, 31, 166.6017303466797
0, 0, 32, 164.3556671142578
0, 0, 33, 166.7750091552734
0, 0, 34, 176.9600830078125
0, 0, 35, 175.3320770263672
0, 0, 36, 159.190673828125
0, 0, 37, 161.9209899902344
0, 0, 38, 168.2789001464844
0, 0, 39, 159.176513671875
0, 0, 40, 164.6968078613281
0, 0, 41, 165.9844970703125
0, 0, 42, 143.0498046875
0, 0, 43, 168.7329559326172
0, 0, 44, 178.746337890625
0, 0, 45, 172.5215606689453
0, 0, 46, 166.5371704101562
0, 0, 47, 167.3567352294922
0, 0, 48, 169.7681427001953
0, 0, 49, 183.1731719970703
0, 0, 50, 169.437255859375
0, 0, 51, 161.4055328369141
0, 0, 52, 162.5864715576172
0, 0, 53, 172.7454833984375
0, 0, 54, 161.2162017822266
0, 0, 55, 164.7087707519531
0, 0, 56, 189.2108001708984
0, 0, 57, 170.6530303955078
0, 0, 58, 161.0993804931641
0, 0, 59, 172.3751831054688
0, 0, 60, 169.4768218994141
0, 0, 61, 170.4342803955078
0, 0, 62, 182.5159149169922
0, 0, 63, 167.0551147460938
0, 0, 64, 163.9651489257812
0, 0, 65, 176.3732299804688
0, 0, 66, 177.9034576416016
0, 0, 67, 163.5296478271484
0, 0, 68, 158.4593963623047
0, 0, 69, 159.3660125732422
0, 0, 70, 169.5445861816406
0, 0, 71, 158.3804473876953
0, 0, 72, 163.5526275634766
0, 0, 73, 171.2544555664062
0, 0, 74, 163.44970703125
0, 0, 75, 163.3800201416016
0, 0, 76, 165.6535491943359
0, 0, 77, 172.6807556152344
0, 0, 78, 181.7357788085938
0, 0, 79, 175.1365509033203
0, 0, 80, 160.6578369140625
0, 0, 81, 160.3614654541016
0, 0, 82, 181.3746795654297
0, 0, 83, 175.1845092773438
0, 0, 84, 160.1397399902344
0, 0, 85, 181.7803344726562
0, 0, 86, 158.5608062744141
0, 0, 87, 176.7351531982422
0, 0, 88, 175.9933929443359
0, 0, 89, 177.1612396240234
0, 0, 90, 162.1308441162109
0, 0, 91, 187.5443420410156
0, 0, 92, 164.4436645507812
0, 0, 93, 155.4009246826172
0, 0, 94, 168.4633026123047
0, 0, 95, 173.3498992919922
0, 0, 96, 185.8405151367188
0, 0, 97, 183.8048858642578
0, 0, 98, 185.7514801025391
0, 0, 99, 173.1571350097656
0, 0, 100, 160.077392578125
0, 0, 101, 166.5348205566406
0, 0, 102, 170.3398742675781
0, 0, 103, 170.1801605224609
0, 0, 104, 168.5495147705078
0, 0, 105, 178.9591979980469
0, 0, 106, 159.4814758300781
0, 0, 107, 85.66790771484375
0, 0, 108, 22.48381614685059
0, 0, 109, 9.245586395263672
0, 0, 110, 6.351073741912842
0, 0, 111, 7.84678316116333
0, 0, 112, 5.165135383605957
0, 0, 113, 4.044986248016357
0, 0, 114, 2.188847064971924
0, 0, 115, 2.370054483413696
0, 0, 116, 1.494321823120117
0, 0, 117, 2.725360870361328
0, 0, 118, 1.926114439964294
0, 0, 119, 2.547377347946167
0, 0, 120, 1.696796178817749
0, 0, 121, 4.433670520782471
0, 0, 122, 4.670394420623779
0, 0, 123, 3.221177577972412
0, 0, 124, 1.490743517875671
0, 0, 125, 2.843698501586914
0, 0, 126, 0.6670529246330261
0, 0, 127, 2.463576793670654
0, 1, 0, 0.7816717624664307
0, 1, 1, 5.039540767669678
0, 1, 2, 2.133176565170288
0, 1, 3, 1.93205451965332
0, 1, 4, 0.7931824326515198
0, 1, 5, 2.157061100006104
0, 1, 6, 1.059734106063843
0, 1, 7, 2.229376316070557
0, 1, 8, 1.154229760169983
0, 1, 9, 1.682632565498352
0, 1, 10, 3.41268515586853
0, 1, 11, 6.083178997039795
0, 1, 12, 4.320211410522461
0, 1, 13, 5.02611780166626
0, 1, 14, 6.077593326568604
0, 1, 15, 6.300876140594482
0, 1, 16, 6.645650386810303
0, 1, 17, 5.011923313140869
0, 1, 18, 10.45998001098633
0, 1, 19, 41.52686309814453
0, 1, 20, 126.2943801879883
0, 1, 21, 177.9835815429688
0, 1, 22, 192.2017669677734
0, 1, 23, 186.23193359375
0, 1, 24, 180.0631561279297
0, 1, 25, 192.8546752929688
0, 1, 26, 198.4037780761719
0, 1, 27, 186.7057189941406
0, 1, 28, 188.2266540527344
0, 1, 29, 183.6548919677734
0, 1, 30, 180.1426544189453
0, 1, 31, 182.5055694580078
0, 1, 32, 188.717529296875
0, 1, 33, 191.4620666503906
0, 1, 34, 185.3756256103516
0, 1, 35, 192.8783569335938
0, 1, 36, 205.3764953613281
0, 1, 37, 185.2729797363281
0, 1, 38, 165.5494842529297
0, 1, 39, 171.3850555419922
0, 1, 40, 179.5335540771484
0, 1, 41, 185.1560363769531
0, 1, 42, 183.1891937255859
0, 1, 43, 186.1739654541016
0, 1, 44, 169.3568115234375
0, 1, 45, 186.4244384765625
0, 1, 46, 170.5867309570312
0, 1, 47, 185.5649108886719
0, 1, 48, 187.1687164306641
0, 1, 49, 186.0105895996094
0, 1, 50, 177.4890594482422
0, 1, 51, 191.7654571533203
0, 1, 52, 194.7395477294922
0, 1, 53, 195.8424224853516
0, 1, 54, 184.9223480224609
0, 1, 55, 165.4885406494141
0, 1, 56, 178.4638366699219
0, 1, 57, 177.7668609619141
0, 1, 58, 189.0117950439453
0, 1, 59, 193.5452117919922
0, 1, 60, 188.1437835693359
0, 1, 61, 179.0756378173828
0, 1, 62, 204.4964752197266
0, 1, 63, 174.1100006103516
0, 1, 64, 172.7234954833984
0, 1, 65, 184.8086547851562
0, 1, 66, 203.4380340576172
0, 1, 67, 182.3486480712891
0, 1, 68, 186.970947265625
0, 1, 69, 188.3480377197266
0, 1, 70, 185.5254669189453
0, 1, 71, 171.5965423583984
0, 1, 72, 187.2796478271484
0, 1, 73, 190.304443359375
0, 1, 74, 201.3026275634766
0, 1, 75, 183.2911071777344
0, 1, 76, 173.733642578125
0, 1, 77, 193.3437194824219
0, 1, 78, 192.9822845458984
0, 1, 79, 201.6181030273438
0, 1, 80, 186.7960052490234
0, 1, 81, 176.795654296875
0, 1, 82, 206.7498168945312
0, 1, 83, 211.8069610595703
0, 1, 84, 180.3111724853516
0, 1, 85, 170.2924346923828
0, 1, 86, 168.8777313232422
0, 1, 87, 183.9780120849609
0, 1, 88, 175.9976806640625
0, 1, 89, 188.0686340332031
0, 1, 90, 213.9558258056641
0, 1, 91, 182.2649688720703
0, 1, 92, 183.2844848632812
0, 1, 93, 180.8729553222656
0, 1, 94, 186.5251007080078
0, 1, 95, 184.3389739990234
0, 1, 96, 196.1065063476562
0, 1, 97, 182.7754669189453
0, 1, 98, 186.6627807617188
0, 1, 99, 177.3815155029297
0, 1, 100, 171.4248962402344
0, 1, 101, 177.4680480957031
0, 1, 102, 182.1149139404297
0, 1, 103, 173.1045532226562
0, 1, 104, 188.7038116455078
0, 1, 105, 181.9390716552734
0, 1, 106, 164.0971221923828
0, 1, 107, 123.2659683227539
0, 1, 108, 47.80063247680664
0, 1, 109, 9.360016822814941
0, 1, 110, 9.471506118774414
0, 1, 111, 6.947700023651123
0, 1, 112, 7.841505527496338
0, 1, 113, 7.079493522644043
0, 1, 114, 5.225691318511963
0, 1, 115, 3.809287786483765
0, 1, 116, 1.880504608154297
0, 1, 117, 2.076986074447632
0, 1, 118, 4.038784980773926
0, 1, 119, 1.763691663742065
0, 1, 120, 3.42156457901001
0, 1, 121, 3.263885974884033
0, 1, 122, 1.959514975547791
0, 1, 123, 4.285208702087402
0, 1, 124, 2.509487152099609
0, 1, 125, 1.884127259254456
0, 1, 126, 1.46748960018158
0, 1, 127, 1.710396885871887
0, 2, 0, 0.956532895565033
0, 2, 1, 1.746759057044983
0, 2, 2, 3.884073972702026
0, 2, 3, 1.770368695259094
0, 2, 4, 1.869275331497192
0, 2, 5, 1.001012563705444
0, 2, 6, 4.284811019897461
0, 2, 7, 2.340562105178833
0, 2, 8, 1.295126795768738
0, 2, 9, 2.282868146896362
0, 2, 10, 5.220695018768311
0, 2, 11, 4.550746917724609
0, 2, 12, 4.329235553741455
0, 2, 13, 3.19594144821167
0, 2, 14, 5.245466709136963
0, 2, 15, 5.619873523712158
0, 2, 16, 5.864663600921631
0, 2, 17, 9.499198913574219
0, 2, 18, 16.87934494018555
0, 2, 19, 77.71633911132812
0, 2, 20, 160.0153961181641
0, 2, 21, 183.572021484375
0, 2, 22, 194.8417510986328
0, 2, 23, 183.6392211914062
0, 2, 24, 173.5247039794922
0, 2, 25, 183.2282562255859
0, 2, 26, 178.8943939208984
0, 2, 27, 189.4985198974609
0, 2, 28, 171.2471923828125
0, 2, 29, 168.4253082275391
0, 2, 30, 185.8779144287109
0, 2, 31, 182.4952087402344
0, 2, 32, 183.990234375
0, 2, 33, 189.9572296142578
0, 2, 34, 197.7522277832031
0, 2, 35, 181.3063049316406
0, 2, 36, 186.4808197021484
0, 2, 37, 180.6911163330078
0, 2, 38, 184.0442199707031
0, 2, 39, 166.3478698730469
0, 2, 40, 185.2160949707031
0, 2, 41, 184.5052185058594
0, 2, 42, 190.1432342529297
0, 2, 43, 193.7582092285156
0, 2, 44, 190.9581146240234
0, 2, 45, 190.6417846679688
0, 2, 46, 195.9980163574219
0, 2, 47, 189.8538055419922
0, 2, 48, 176.7339782714844
0, 2, 49, 196.9230499267578
0, 2, 50, 168.8370361328125
0, 2, 51, 184.7819976806641
0, 2, 52, 186.1383361816406
0, 2, 53, 195.3618774414062
0, 2, 54, 175.3587036132812
0, 2, 55, 174.1833038330078
0, 2, 56, 181.3608245849609
0, 2, 57, 199.94921875
0, 2, 58, 186.1423187255859
0, 2, 59, 189.2186279296875
0, 2, 60, 197.8730316162109
0, 2, 61, 193.6969757080078
0, 2, 62, 189.9168853759766
0, 2, 63, 172.0175628662109
0, 2, 64, 190.4411010742188
0, 2, 65, 202.9900970458984
0, 2, 66, 195.8919525146484
0, 2, 67, 184.5520172119141
0, 2, 68, 182.37451171875
0, 2, 69, 187.4266662597656
0, 2, 70, 204.8209381103516
0, 2, 71, 175.1760406494141
0, 2, 72, 186.1800689697266
0, 2, 73, 177.9405212402344
0, 2, 74, 180.79248046875
0, 2, 75, 196.8191986083984
0, 2, 76, 184.3313140869141
0, 2, 77, 176.7197265625
0, 2, 78, 197.7642517089844
0, 2, 79, 178.9040069580078
0, 2, 80, 186.8845977783203
0, 2, 81, 187.2887573242188
0, 2, 82, 204.9760589599609
0, 2, 83, 204.03125
0, 2, 84, 189.0838623046875
0, 2, 85, 170.8643646240234
0, 2, 86, 195.6133117675781
0, 2, 87, 173.0546875
0, 2, 88, 178.0381317138672
0, 2, 89, 185.2487945556641
0, 2, 90, 177.5196685791016
0, 2, 91, 175.4344482421875
0, 2, 92, 196.9854278564453
0, 2, 93, 194.8283843994141
0, 2, 94, 200.5393676757812
0, 2, 95, 194.2973175048828
0, 2, 96, 185.8820190429688
0, 2, 97, 171.9363708496094
0, 2, 98, 173.6455841064453
0, 2, 99, 161.9103851318359
0, 2, 100, 187.5131225585938
0, 2, 101, 196.1463928222656
0, 2, 102, 177.1563873291016
0, 2, 103, 200.6277923583984
0, 2, 104, 187.5706481933594
0, 2, 105, 200.4226684570312
0, 2, 106, 195.4724273681641
0, 2, 107, 150.6404266357422
0, 2, 108, 80.22882080078125
0, 2, 109, 17.74917602539062
0, 2, 110, 7.39578914642334
0, 2, 111, 6.679034233093262
0, 2, 112, 3.470784664154053
0, 2, 113, 4.024445056915283
0, 2, 114, 6.067201137542725
0, 2, 115, 4.916913509368896
0, 2, 116, 2.059067249298096
0, 2, 117, 1.978881239891052
0, 2, 118, 2.604897737503052
0, 2, 119, 2.529680967330933
0, 2, 120, 0.9485681056976318
0, 2, 121, 3.390426874160767
0, 2, 122, 0.6927093863487244
0, 2, 123, 3.102124691009521
0, 2, 124, 2.465329170227051
0, 2, 125, 1.778847813606262
0, 2, 126, 3.251439332962036
0, 2, 127, 1.280720472335815
0, 3, 0, 1.38283383846283
0, 3, 1, 0.9979148507118225
0, 3, 2, 1.294907808303833
0, 3, 3, 1.119963407516479
0, 3, 4, 3.362793922424316
0, 3, 5, 1.083267688751221
0, 3, 6, 0.7127313613891602
0, 3, 7, 1.749948024749756
0, 3, 8, 1.63325572013855
0, 3, 9, 2.271989345550537
0, 3, 10, 2.355218648910522
0, 3, 11, 3.710153341293335
0, 3, 12, 3.391607046127319
0, 3, 13, 3.868369817733765
0, 3, 14, 3.872917413711548
0, 3, 15, 6.877374172210693
0, 3, 16, 8.812704086303711
0, 3, 17, 6.336668491363525
0, 3, 18, 31.83068656921387
0, 3, 19, 115.3911209106445
0, 3, 20, 179.3299407958984
0, 3, 21, 173.9246978759766
0, 3, 22, 178.0524291992188
0, 3, 23, 187.7655029296875
0, 3, 24, 177.7799072265625
0, 3, 25, 168.3030395507812
0, 3, 26, 181.7015991210938
0, 3, 27, 189.3392944335938
0, 3, 28, 182.8478698730469
0, 3, 29, 197.3997192382812
0, 3, 30, 185.9149932861328
0, 3, 31, 194.9554901123047
0, 3, 32, 205.7054138183594
0, 3, 33, 195.629150390625
0, 3, 34, 187.3420715332031
0, 3, 35, 174.9651794433594
0, 3, 36, 185.0805511474609
0, 3, 37, 200.2435913085938
0, 3, 38, 190.6702880859375
0, 3, 39, 185.7156066894531
0, 3, 40, 166.2031707763672
0, 3, 41, 172.8167114257812
0, 3, 42, 185.3370819091797
0, 3, 43, 182.4087066650391
0, 3, 44, 202.5504608154297
0, 3, 45, 207.7504577636719
0, 3, 46, 199.8562164306641
0, 3, 47, 193.7480163574219
0, 3, 48, 197.7188568115234
0, 3, 49, 180.2656402587891
0, 3, 50, 187.6316223144531
0, 3, 51, 173.4542388916016
0, 3, 52, 189.0167083740234
0, 3, 53, 179.6616973876953
0, 3, 54, 180.0886383056641
0, 3, 55, 177.4874267578125
0, 3, 56, 182.6605072021484
0, 3, 57, 175.7965545654297
0, 3, 58, 202.3229217529297
0, 3, 59, 197.9281616210938
0, 3, 60, 187.0765838623047
0, 3, 61, 181.9286499023438
0, 3, 62, 182.9393920898438
0, 3, 63, 185.2014312744141
0, 3, 64, 188.3238525390625
0, 3, 65, 187.1746215820312
0, 3, 66, 175.9509735107422
0, 3, 67, 190.9015502929688
0, 3, 68, 211.1373901367188
0, 3, 69, 190.0786285400391
0, 3, 70, 184.7367248535156
0, 3, 71, 196.7897644042969
0, 3, 72, 185.6166076660156
0, 3, 73, 186.6703338623047
0, 3, 74, 191.9612274169922
0, 3, 75, 192.0866546630859
0, 3, 76, 190.1618804931641
0, 3, 77, 197.9196929931641
0, 3, 78, 188.7516326904297
0, 3, 79, 185.9225616455078
0, 3, 80, 188.9634552001953
0, 3, 81, 183.7965240478516
0, 3, 82, 180.2415924072266
0, 3, 83, 194.5188446044922
0, 3, 84, 198.9728088378906
0, 3, 85, 191.8320617675781
0, 3, 86, 204.5403442382812
0, 3, 87, 198.9129486083984
0, 3, 88, 194.0668334960938
0, 3, 89, 193.3598327636719
0, 3, 90, 174.0333709716797
0, 3, 91, 158.1988525390625
0, 3, 92, 207.5927429199219
0, 3, 93, 195.9771423339844
0, 3, 94, 192.1087799072266
0, 3, 95, 211.7757263183594
0, 3, 96, 208.7423553466797
0, 3, 97, 167.6397705078125
0, 3, 98, 166.8704223632812
0, 3, 99, 179.7285766601562
0, 3, 100, 177.1114349365234
0, 3, 101, 196.948974609375
0, 3, 102, 194.8126525878906
0, 3, 103, 195.1873321533203
0, 3, 104, 202.8054351806641
0, 3, 105, 175.5538940429688
0, 3, 106, 181.2974090576172
0, 3, 107, 169.16064453125
0, 3, 108, 107.9823837280273
0, 3, 109, 28.9948558807373
0, 3, 110, 8.876045227050781
0, 3, 111, 6.828500270843506
0, 3, 112, 3.72210693359375
0, 3, 113, 6.944768905639648
0, 3, 114, 4.768147945404053
0, 3, 115, 7.785426616668701
0, 3, 116, 5.389832019805908
0, 3, 117, 3.08943772315979
0, 3, 118, 3.298824310302734
0, 3, 119, 2.970515727996826
0, 3, 120, 4.761871814727783
0, 3, 121, 2.804823398590088
0, 3, 122, 4.053020000457764
0, 3, 123, 1.347259283065796
0, 3, 124, 1.544354915618896
0, 3, 125, 1.183792948722839
0, 3, 126, 2.24415135383606
0, 3, 127, 1.108910918235779
0, 4, 0, 1.994256138801575
0, 4, 1, 0.1124696135520935
0, 4, 2, 2.047844648361206
0, 4, 3, 3.193387031555176
0, 4, 4, 1.96786892414093
0, 4, 5, 2.590569257736206
0, 4, 6, 3.182443380355835
0, 4, 7, 2.971387386322021
0, 4, 8, 1.380496382713318
0, 4, 9, 2.152066946029663
0, 4, 10, 3.912367105484009
0, 4, 11, 3.454402446746826
0, 4, 12, 3.661816596984863
0, 4, 13, 4.702277660369873
0, 4, 14, 4.106516361236572
0, 4, 15, 8.499231338500977
0, 4, 16, 7.227873802185059
0, 4, 17, 11.56729507446289
0, 4, 18, 56.48509979248047
0, 4, 19, 150.8738403320312
0, 4, 20, 193.0809020996094
0, 4, 21, 171.2584991455078
0, 4, 22, 187.4298400878906
0, 4, 23, 195.9553680419922
0, 4, 24, 192.6598815917969
0, 4, 25, 200.1990966796875
0, 4, 26, 184.7925567626953
0, 4, 27, 190.2854766845703
0, 4, 28, 179.4132995605469
0, 4, 29, 205.3752288818359
0, 4, 30, 196.8255920410156
0, 4, 31, 192.1174621582031
0, 4, 32, 209.0668029785156
0, 4, 33, 190.4567108154297
0, 4, 34, 193.2508239746094
0, 4, 35, 212.7208099365234
0, 4, 36, 193.106201171875
0, 4, 37, 178.2935485839844
0, 4, 38, 194.5206298828125
0, 4, 39, 190.0652923583984
0, 4, 40, 185.0599212646484
0, 4, 41, 191.8007354736328
0, 4, 42, 206.8851013183594
0, 4, 43, 174.0477294921875
0, 4, 44, 183.4254150390625
0, 4, 45, 197.1115570068359
0, 4, 46, 185.5341339111328
0, 4, 47, 179.6393432617188
0, 4, 48, 186.13134765625
0, 4, 49, 174.8282928466797
0, 4, 50, 186.4188537597656
0, 4, 51, 198.1427154541016
0, 4, 52, 223.23876953125
0, 4, 53, 205.3694000244141
0, 4, 54, 191.2101745605469
0, 4, 55, 174.9660797119141
0, 4, 56, 190.3985748291016
0, 4, 57, 191.8091735839844
0, 4, 58, 188.3183898925781
0, 4, 59, 190.2630004882812
0, 4, 60, 195.8738555908203
0, 4, 61, 192.7249603271484
0, 4, 62, 191.7148742675781
0, 4, 63, 178.4668884277344
0, 4, 64, 213.7405395507812
0, 4, 65, 191.0861053466797
0, 4, 66, 201.8367004394531
0, 4, 67, 199.5139770507812
0, 4, 68, 200.8781280517578
0, 4, 69, 198.3934783935547
0, 4, 70, 204.2449798583984
0, 4, 71, 206.3948974609375
0, 4, 72, 214.9796905517578
0, 4, 73, 185.5725708007812
0, 4, 74, 180.8200836181641
0, 4, 75, 184.8607025146484
0, 4, 76, 190.4740447998047
0, 4, 77, 183.0538635253906
0, 4, 78, 194.7030944824219
0, 4, 79, 203.9255981445312
0, 4, 80, 211.8142852783203
0, 4, 81, 198.3957366943359
0, 4, 82, 182.9912261962891
0, 4, 83, 170.1893768310547
0, 4, 84, 193.4364013671875
0, 4, 85, 196.7698822021484
0, 4, 86, 181.4779052734375
0, 4, 87, 182.5119934082031
0, 4, 88, 203.9485778808594
0, 4, 89, 187.7899169921875
0, 4, 90, 211.780517578125
0, 4, 91, 189.6631469726562
0, 4, 92, 196.4370574951172
0, 4, 93, 197.5941162109375
0, 4, 94, 182.1243438720703
0, 4, 95, 174.0865936279297
0, 4, 96, 190.1719512939453
0, 4, 97, 194.0194549560547
0, 4, 98, 201.0653991699219
0, 4, 99, 183.0294494628906
0, 4, 100, 182.0777740478516
0, 4, 101, 177.7548217773438
0, 4, 102, 174.3436584472656
0, 4, 103, 185.0631713867188
0, 4, 104, 210.9246215820312
0, 4, 105, 189.9826202392578
0, 4, 106, 180.2473297119141
0, 4, 107, 181.3073120117188
0, 4, 108, 152.3759002685547
0, 4, 109, 49.92012405395508
0, 4, 110, 11.4306468963623
0, 4, 111, 8.347369194030762
0, 4, 112, 6.196020603179932
0, 4, 113, 5.445957183837891
0, 4, 114, 7.050088882446289
0, 4, 115, 3.424743175506592
0, 4, 116, 4.361806392669678
0, 4, 117, 3.159707069396973
0, 4, 118, 3.363997459411621
0, 4, 119, 3.262610912322998
0, 4, 120, 2.130836009979248
0, 4, 121, 2.813979148864746
0, 4, 122, 1.87284779548645
0, 4, 123, 1.429845333099365
0, 4, 124, 4.496633529663086
0, 4, 125, 2.497320890426636
0, 4, 126, 1.27784788608551
0, 4, 127, 2.154970645904541
0, 5, 0, 1.667839407920837
0, 5, 1, 3.132603406906128
0, 5, 2, 6.598095417022705
0, 5, 3, 4.111705303192139
0, 5, 4, 1.873911142349243
0, 5, 5, 2.311201810836792
0, 5, 6, 2.290481090545654
0, 5, 7, 2.399645328521729
0, 5, 8, 3.011255264282227
0, 5, 9, 2.895865678787231
0, 5, 10, 1.417265176773071
0, 5, 11, 3.217940330505371
0, 5, 12, 3.293647050857544
0, 5, 13, 3.787496566772461
0, 5, 14, 4.704535484313965
0, 5, 15, 9.387969017028809
0, 5, 16, 7.456794261932373
0, 5, 17, 20.76799392700195
0, 5, 18, 82.60164642333984
0, 5, 19, 164.5873565673828
0, 5, 20, 183.3909454345703
0, 5, 21, 177.4789428710938
0, 5, 22, 170.2336883544922
0, 5, 23, 200.7455596923828
0, 5, 24, 186.9327697753906
0, 5, 25, 207.928466796875
0, 5, 26, 182.7466278076172
0, 5, 27, 194.7556610107422
0, 5, 28, 191.2848358154297
0, 5, 29, 195.5234222412109
0, 5, 30, 177.5921478271484
0, 5, 31, 180.8800506591797
0, 5, 32, 186.2473602294922
0, 5, 33, 168.4508056640625
0, 5, 34, 194.9261322021484
0, 5, 35, 196.2403259277344
0, 5, 36, 167.4702453613281
0, 5, 37, 197.432373046875
0, 5, 38, 180.8292083740234
0, 5, 39, 186.5322265625
0, 5, 40, 196.3297119140625
0, 5, 41, 177.2099151611328
0, 5, 42, 187.4605255126953
0, 5, 43, 191.9002075195312
0, 5, 44, 199.8049926757812
0, 5, 45, 186.0097045898438
0, 5, 46, 192.6935272216797
0, 5, 47, 181.3143005371094
0, 5, 48, 177.9445190429688
0, 5, 49, 177.9891510009766
0, 5, 50, 187.0896911621094
0, 5, 51, 172.3815612792969
0, 5, 52, 167.6172637939453
0, 5, 53, 181.9803314208984
0, 5, 54, 172.4720001220703
0, 5, 55, 215.8162841796875
0, 5, 56, 182.4339294433594
0, 5, 57, 207.5134124755859
0, 5, 58, 180.9271392822266
0, 5, 59, 180.8823394775391
0, 5, 60, 218.5391235351562
0, 5, 61, 184.222412109375
0, 5, 62, 178.1345825195312
0, 5, 63, 180.5943603515625
0, 5, 64, 194.9462585449219
0, 5, 65, 209.3051300048828
0, 5, 66, 192.1895141601562
0, 5, 67, 199.1824035644531
0, 5, 68, 185.5915374755859
0, 5, 69, 185.6065368652344
0, 5, 70, 184.9857635498047
0, 5, 71, 193.0407104492188
0, 5, 72, 197.4018859863281
0, 5, 73, 201.2854766845703
0, 5, 74, 178.9749298095703
0, 5, 75, 202.6989440917969
0, 5, 76, 214.2153625488281
0, 5, 77, 179.599365234375
0, 5, 78, 194.1078796386719
0, 5, 79, 190.8101806640625
0, 5, 80, 198.9622039794922
0, 5, 81, 204.0014343261719
0, 5, 82, 201.3776092529297
0, 5, 83, 188.6634826660156
0, 5, 84, 206.7254791259766
0, 5, 85, 176.2864227294922
0, 5, 86, 194.5610809326172
0, 5, 87, 187.5587768554688
0, 5, 88, 177.5124969482422
0, 5, 89, 194.1506195068359
0, 5, 90, 199.2560424804688
0, 5, 91, 194.9202575683594
0, 5, 92, 190.5301971435547
0, 5, 93, 189.6003112792969
0, 5, 94, 207.849609375
0, 5, 95, 176.9563903808594
0, 5, 96, 181.7030639648438
0, 5, 97, 191.5788269042969
0, 5, 98, 188.5311889648438
0, 5, 99, 194.8368682861328
0, 5, 100, 186.0503692626953
0, 5, 101, 196.619384765625
0, 5, 102, 181.8889770507812
0, 5, 103, 175.9647979736328
0, 5, 104, 191.1636962890625
0, 5, 105, 189.5148620605469
0, 5, 106, 177.1157989501953
0, 5, 107, 181.6466064453125
0, 5, 108, 176.3827667236328
0, 5, 109, 89.59326934814453
0, 5, 110, 29.88575172424316
0, 5, 111, 9.51807689666748
0, 5, 112, 6.214181900024414
0, 5, 113, 8.078826904296875
0, 5, 114, 6.322836875915527
0, 5, 115, 5.759804248809814
0, 5, 116, 4.409145355224609
0, 5, 117, 3.026397228240967
0, 5, 118, 3.272196769714355
0, 5, 119, 3.486899614334106
0, 5, 120, 3.358723163604736
0, 5, 121, 2.106663942337036
0, 5, 122, 4.215001583099365
0, 5, 123, 4.770263671875
0, 5, 124, 2.487634181976318
0, 5, 125, 1.372401833534241
0, 5, 126, 2.843402862548828
0, 5, 127, 2.193065881729126
0, 6, 0, 4.311530113220215
0, 6, 1, 2.433957576751709
0, 6, 2, 4.439216613769531
0, 6, 3, 2.555211782455444
0, 6, 4, 3.35410475730896
0, 6, 5, 3.615034580230713
0, 6, 6, 2.910539865493774
0, 6, 7, 3.819799900054932
0, 6, 8, 4.472385406494141
0, 6, 9, 3.37693452835083
0, 6, 10, 5.055747985839844
0, 6, 11, 5.35088586807251
0, 6, 12, 4.666701793670654
0, 6, 13, 5.659122467041016
0, 6, 14, 5.542968273162842
0, 6, 15, 6.828662395477295
0, 6, 16, 13.04042816162109
0, 6, 17, 28.74128150939941
0, 6, 18, 112.1025009155273
0, 6, 19, 191.7881927490234
0, 6, 20, 194.9077301025391
0, 6, 21, 198.3755035400391
0, 6, 22, 191.4604644775391
0, 6, 23, 190.6172943115234
0, 6, 24, 200.7246398925781
0, 6, 25, 183.5474700927734
0, 6, 26, 186.7935180664062
0, 6, 27, 191.6832885742188
0, 6, 28, 189.0286102294922
0, 6, 29, 211.6276245117188
0, 6, 30, 190.0918426513672
0, 6, 31, 193.0427703857422
0, 6, 32, 207.1203002929688
0, 6, 33, 186.3425140380859
0, 6, 34, 196.6974334716797
0, 6, 35, 187.8789367675781
0, 6, 36, 180.0951843261719
0, 6, 37, 182.6575775146484
0, 6, 38, 187.1713104248047
0, 6, 39, 194.4229736328125
0, 6, 40, 173.7742462158203
0, 6, 41, 185.2738342285156
0, 6, 42, 174.2496643066406
0, 6, 43, 209.1856384277344
0, 6, 44, 208.7198181152344
0, 6, 45, 194.6110229492188
0, 6, 46, 187.1005859375
0, 6, 47, 204.7003326416016
0, 6, 48, 188.8200531005859
0, 6, 49, 180.0035705566406
0, 6, 50, 182.6475067138672
0, 6, 51, 196.2594757080078
0, 6, 52, 197.6012725830078
0, 6, 53, 184.5459899902344
0, 6, 54, 174.8870391845703
0, 6, 55, 195.1594696044922
0, 6, 56, 202.8009948730469
0, 6, 57, 190.5220489501953
0, 6, 58, 178.8297424316406
0, 6, 59, 193.8740234375
0, 6, 60, 184.7136840820312
0, 6, 61, 194.3518524169922
0, 6, 62, 196.6007080078125
0, 6, 63, 187.2596435546875
0, 6, 64, 167.9449157714844
0, 6, 65, 187.2254028320312
0, 6, 66, 197.0033416748047
0, 6, 67, 214.6828308105469
0, 6, 68, 181.7826080322266
0, 6, 69, 171.3787994384766
0, 6, 70, 187.8150482177734
0, 6, 71, 170.3972778320312
0, 6, 72, 176.0694427490234
0, 6, 73, 176.50390625
0, 6, 74, 211.3677520751953
0, 6, 75, 226.8293151855469
0, 6, 76, 183.8260955810547
0, 6, 77, 174.6737670898438
0, 6, 78, 175.5196533203125
0, 6, 79, 187.3895416259766
0, 6, 80, 187.4113922119141
0, 6, 81, 211.3341674804688
0, 6, 82, 195.6061859130859
0, 6, 83, 196.0934600830078
0, 6, 84, 199.39306640625
0, 6, 85, 180.4088745117188
0, 6, 86, 202.5260314941406
0, 6, 87, 183.7546234130859
0, 6, 88, 193.7520904541016
0, 6, 89, 188.5839996337891
0, 6, 90, 205.2848815917969
0, 6, 91, 200.2249450683594
0, 6, 92, 175.6456451416016
0, 6, 93, 191.7474212646484
0, 6, 94, 189.6157836914062
0, 6, 95, 185.35693359375
0, 6, 96, 189.1093597412109
0, 6, 97, 193.1846160888672
0, 6, 98, 183.2468566894531
0, 6, 99, 175.7831878662109
0, 6, 100, 201.3108215332031
0, 6, 101, 168.4859619140625
0, 6, 102, 204.2300109863281
0, 6, 103, 195.6312103271484
0, 6, 104, 183.3495635986328
0, 6, 105, 194.8199768066406
0, 6, 106, 177.1269989013672
0, 6, 107, 194.9097442626953
0, 6, 108, 171.6468505859375
0, 6, 109, 114.8086242675781
0, 6, 110, 35.12171173095703
0, 6, 111, 9.406765937805176
0, 6, 112, 9.177434921264648
0, 6, 113, 4.966699600219727
0, 6, 114, 5.371317386627197
0, 6, 115, 4.458280086517334
0, 6, 116, 4.014935493469238
0, 6, 117, 4.875293254852295
0, 6, 118, 4.146610260009766
0, 6, 119, 4.11993408203125
0, 6, 120, 1.827631235122681
0, 6, 121, 2.836904764175415
0, 6, 122, 4.76788330078125
0, 6, 123, 2.986906766891479
0, 6, 124, 2.410698652267456
0, 6, 125, 2.915923595428467
0, 6, 126, 1.557333707809448
0, 6, 127, 2.584435224533081
0, 7, 0, 3.082501411437988
0, 7, 1, 3.165326118469238
0, 7, 2, 2.739775657653809
0, 7, 3, 1.953131794929504
0, 7, 4, 1.237409591674805
0, 7, 5, 1.330601930618286
0, 7, 6, 3.47162938117981
0, 7, 7, 1.348264336585999
0, 7, 8, 2.638724327087402
0, 7, 9, 2.959976673126221
0, 7, 10, 5.636959075927734
0, 7, 11, 3.568164110183716
0, 7, 12, 3.868224620819092
0, 7, 13, 5.31292724609375
0, 7, 14, 6.584742069244385
0, 7, 15, 7.7838454246521
0, 7, 16, 15.42635822296143
0, 7, 17, 51.82071685791016
0, 7, 18, 161.6641235351562
0, 7, 19, 183.6819763183594
0, 7, 20, 179.1477508544922
0, 7, 21, 181.7557830810547
0, 7, 22, 190.6524047851562
0, 7, 23, 201.5690765380859
0, 7, 24, 177.6634521484375
0, 7, 25, 214.7237396240234
0, 7, 26, 189.6485137939453
0, 7, 27, 181.5912170410156
0, 7, 28, 182.8531036376953
0, 7, 29, 208.7505187988281
0, 7, 30, 192.4691009521484
0, 7, 31, 175.9417419433594
0, 7, 32, 190.1073150634766
0, 7, 33, 180.7593841552734
0, 7, 34, 193.8518676757812
0, 7, 35, 197.7498168945312
0, 7, 36, 187.0733032226562
0, 7, 37, 213.9780120849609
0, 7, 38, 192.8469696044922
0, 7, 39, 173.4704437255859
0, 7, 40, 183.5431365966797
0, 7, 41, 184.1689758300781
0, 7, 42, 177.3133392333984
0, 7, 43, 178.8688201904297
0, 7, 44, 179.0182342529297
0, 7, 45, 175.2930297851562
0, 7, 46, 189.9129943847656
0, 7, 47, 198.2206420898438
0, 7, 48, 186.0868225097656
0, 7, 49, 198.5598297119141
0, 7, 50, 187.6127166748047
0, 7, 51, 204.4035797119141
0, 7, 52, 204.7433166503906
0, 7, 53, 190.7957305908203
0, 7, 54, 194.7718048095703
0, 7, 55, 204.1982879638672
0, 7, 56, 183.6121520996094
0, 7, 57, 182.4887084960938
0, 7, 58, 192.4725646972656
0, 7, 59, 187.1788482666016
0, 7, 60, 202.6670074462891
0, 7, 61, 170.2430419921875
0, 7, 62, 202.8039398193359
0, 7, 63, 188.7762298583984
0, 7, 64, 198.8876190185547
0, 7, 65, 195.222412109375
0, 7, 66, 207.0073394775391
0, 7, 67, 219.6781311035156
0, 7, 68, 162.6386108398438
0, 7, 69, 195.3759460449219
0, 7, 70, 217.0592041015625
0, 7, 71, 184.3812408447266
0, 7, 72, 181.3207550048828
0, 7, 73, 176.8706359863281
0, 7, 74, 207.9570922851562
0, 7, 75, 205.7153472900391
0, 7, 76, 215.9357147216797
0, 7, 77, 173.5178070068359
0, 7, 78, 177.3106536865234
0, 7, 79, 193.0787506103516
0, 7, 80, 196.7133941650391
0, 7, 81, 216.3635101318359
0, 7, 82, 185.7528228759766
0, 7, 83, 205.2095031738281
0, 7, 84, 194.0952606201172
0, 7, 85, 187.551025390625
0, 7, 86, 200.6620788574219
0, 7, 87, 226.0217895507812
0, 7, 88, 195.0980224609375
0, 7, 89, 175.9814605712891
0, 7, 90, 183.3881378173828
0, 7, 91, 194.3211822509766
0, 7, 92, 194.2400360107422
0, 7, 93, 198.7499389648438
0, 7, 94, 177.8432464599609
0, 7, 95, 198.0343780517578
0, 7, 96, 209.1399841308594
0, 7, 97, 189.8689880371094
0, 7, 98, 176.9564514160156
0, 7, 99, 198.2277069091797
0, 7, 100, 182.0476379394531
0, 7, 101, 199.4487152099609
0, 7, 102, 185.1021728515625
0, 7, 103, 182.3117828369141
0, 7, 104, 176.4315032958984
0, 7, 105, 195.2982940673828
0, 7, 106, 205.4262084960938
0, 7, 107, 172.5821075439453
0, 7, 108, 176.3493499755859
0, 7, 109, 136.153564453125
0, 7, 110, 53.4456787109375
0, 7, 111, 10.03370952606201
0, 7, 112, 9.752296447753906
0, 7, 113, 9.019668579101562
0, 7, 114, 7.508339881896973
0, 7, 115, 4.506638050079346
0, 7, 116, 6.851348400115967
0, 7, 117, 3.037741184234619
0, 7, 118, 3.776017904281616
0, 7, 119, 2.697558164596558
0, 7, 120, 2.470356225967407
0, 7, 121, 3.816704988479614
0, 7, 122, 3.875665903091431
0, 7, 123, 1.983097434043884
0, 7, 124, 1.689764499664307
0, 7, 125, 2.007230043411255
0, 7, 126, 3.361712455749512
0, 7, 127, 0.6486518383026123
0, 8, 0, 4.12198543548584
0, 8, 1, 1.617226839065552
0, 8, 2, 2.668305158615112
0, 8, 3, 2.316266298294067
0, 8, 4, 1.179746508598328
0, 8, 5, 3.161450624465942
0, 8, 6, 1.484873056411743
0, 8, 7, 3.334805965423584
0, 8, 8, 4.221527099609375
0, 8, 9, 4.405281066894531
0, 8, 10, 2.168511629104614
0, 8, 11, 3.446695566177368
0, 8, 12, 4.925345897674561
0, 8, 13, 4.969056129455566
0, 8, 14, 6.228198051452637
0, 8, 15, 10.02510929107666
0, 8, 16, 18.30834007263184
0, 8, 17, 75.74829864501953
0, 8, 18, 142.6755065917969
0, 8, 19, 182.0407562255859
0, 8, 20, 192.00146484375
0, 8, 21, 192.5248565673828
0, 8, 22, 179.8719024658203
0, 8, 23, 175.0068817138672
0, 8, 24, 192.1673583984375
0, 8, 25, 185.9227752685547
0, 8, 26, 192.9399871826172
0, 8, 27, 186.9704132080078
0, 8, 28, 187.7415466308594
0, 8, 29, 207.6528930664062
0, 8, 30, 195.5360107421875
0, 8, 31, 181.4055023193359
0, 8, 32, 198.0866546630859
0, 8, 33, 206.8415832519531
0, 8, 34, 202.6230621337891
0, 8, 35, 185.3579559326172
0, 8, 36, 182.435791015625
