# TOPAS Version: 3.1.p3
# Parameter File: batch_inserts_10.txt
# Results for scorer Readout_Adipose
# Scored in component: MyBox
# X in 1 bin  of 0.65 cm
# Y in 512 bins of 0.0783984 cm
# Z in 128 bins of 0.078125 cm
# EnergyDeposit ( MeV ) : Sum   
0, 0, 0, 1.453829646110535
0, 0, 1, 3.106763362884521
0, 0, 2, 0.7113470435142517
0, 0, 3, 1.06719982624054
0, 0, 4, 1.6194167137146
0, 0, 5, 0.5066409111022949
0, 0, 6, 1.664299964904785
0, 0, 7, 2.379499197006226
0, 0, 8, 2.080323457717896
0, 0, 9, 2.108495712280273
0, 0, 10, 1.866227030754089
0, 0, 11, 3.941606760025024
0, 0, 12, 4.038587093353271
0, 0, 13, 2.723119020462036
0, 0, 14, 5.356074810028076
0, 0, 15, 4.991169452667236
0, 0, 16, 3.838320970535278
0, 0, 17, 6.677783489227295
0, 0, 18, 5.928447723388672
0, 0, 19, 23.74805068969727
0, 0, 20, 93.38005828857422
0, 0, 21, 153.5539093017578
0, 0, 22, 155.4044647216797
0, 0, 23, 144.6445922851562
0, 0, 24, 159.6219329833984
0, 0, 25, 167.5076904296875
0, 0, 26, 166.60546875
0, 0, 27, 173.4705657958984
0, 0, 28, 178.197265625
0, 0, 29, 174.6224975585938
0, 0, 30, 174.523193359375
0, 0, 31, 166.6497039794922
0, 0, 32, 164.5080871582031
0, 0, 33, 168.6654510498047
0, 0, 34, 176.409912109375
0, 0, 35, 173.9482269287109
0, 0, 36, 159.4019927978516
0, 0, 37, 161.1396942138672
0, 0, 38, 166.2649383544922
0, 0, 39, 161.4237365722656
0, 0, 40, 165.6356811523438
0, 0, 41, 165.7414093017578
0, 0, 42, 144.3889617919922
0, 0, 43, 168.8548431396484
0, 0, 44, 177.9377288818359
0, 0, 45, 173.3480682373047
0, 0, 46, 166.9781341552734
0, 0, 47, 168.1664581298828
0, 0, 48, 168.9635925292969
0, 0, 49, 182.9928741455078
0, 0, 50, 170.3320770263672
0, 0, 51, 164.5241241455078
0, 0, 52, 162.7656555175781
0, 0, 53, 172.5071411132812
0, 0, 54, 160.4078521728516
0, 0, 55, 163.7214050292969
0, 0, 56, 189.7838897705078
0, 0, 57, 170.6781158447266
0, 0, 58, 161.3828735351562
0, 0, 59, 171.9847564697266
0, 0, 60, 169.5453643798828
0, 0, 61, 171.0264892578125
0, 0, 62, 183.7591094970703
0, 0, 63, 166.5997467041016
0, 0, 64, 163.7671661376953
0, 0, 65, 175.1537628173828
0, 0, 66, 178.0117492675781
0, 0, 67, 163.6890563964844
0, 0, 68, 158.2076873779297
0, 0, 69, 160.0280609130859
0, 0, 70, 169.3329925537109
0, 0, 71, 158.4434967041016
0, 0, 72, 162.4171447753906
0, 0, 73, 171.3748474121094
0, 0, 74, 162.417236328125
0, 0, 75, 163.0268402099609
0, 0, 76, 162.6147613525391
0, 0, 77, 171.6203765869141
0, 0, 78, 182.2454376220703
0, 0, 79, 175.6597595214844
0, 0, 80, 159.8129425048828
0, 0, 81, 159.8387145996094
0, 0, 82, 183.4534759521484
0, 0, 83, 174.7033386230469
0, 0, 84, 160.0853881835938
0, 0, 85, 181.5178527832031
0, 0, 86, 157.9535675048828
0, 0, 87, 176.81591796875
0, 0, 88, 175.6718902587891
0, 0, 89, 177.4601440429688
0, 0, 90, 160.6860656738281
0, 0, 91, 185.9377899169922
0, 0, 92, 164.8502197265625
0, 0, 93, 154.373779296875
0, 0, 94, 168.3526153564453
0, 0, 95, 174.4593048095703
0, 0, 96, 182.9574737548828
0, 0, 97, 183.4408416748047
0, 0, 98, 186.2704315185547
0, 0, 99, 171.1864624023438
0, 0, 100, 158.8722229003906
0, 0, 101, 166.5069427490234
0, 0, 102, 171.2882995605469
0, 0, 103, 170.3389587402344
0, 0, 104, 168.3512268066406
0, 0, 105, 177.9888153076172
0, 0, 106, 158.5605010986328
0, 0, 107, 85.810791015625
0, 0, 108, 21.7892894744873
0, 0, 109, 9.518050193786621
0, 0, 110, 5.233535766601562
0, 0, 111, 6.498696804046631
0, 0, 112, 3.370006561279297
0, 0, 113, 3.140124797821045
0, 0, 114, 3.758540868759155
0, 0, 115, 2.060917615890503
0, 0, 116, 1.27776050567627
0, 0, 117, 2.730844497680664
0, 0, 118, 2.623873472213745
0, 0, 119, 2.184855461120605
0, 0, 120, 1.78696608543396
0, 0, 121, 3.564187049865723
0, 0, 122, 3.778185129165649
0, 0, 123, 3.857517719268799
0, 0, 124, 1.507221341133118
0, 0, 125, 2.033132791519165
0, 0, 126, 0.9985609650611877
0, 0, 127, 2.182562828063965
0, 1, 0, 0.8993882536888123
0, 1, 1, 5.482985019683838
0, 1, 2, 2.494497776031494
0, 1, 3, 1.190152764320374
0, 1, 4, 0.125061571598053
0, 1, 5, 2.114482879638672
0, 1, 6, 1.718088150024414
0, 1, 7, 1.932306528091431
0, 1, 8, 2.122307062149048
0, 1, 9, 1.342777490615845
0, 1, 10, 3.184670925140381
0, 1, 11, 3.30095100402832
0, 1, 12, 2.425926446914673
0, 1, 13, 5.14899206161499
0, 1, 14, 7.631858348846436
0, 1, 15, 6.536213397979736
0, 1, 16, 8.33029842376709
0, 1, 17, 5.173768520355225
0, 1, 18, 11.32655811309814
0, 1, 19, 41.53054428100586
0, 1, 20, 126.3681793212891
0, 1, 21, 177.1140594482422
0, 1, 22, 192.9287872314453
0, 1, 23, 187.6210327148438
0, 1, 24, 180.1194763183594
0, 1, 25, 191.3046569824219
0, 1, 26, 198.8639984130859
0, 1, 27, 186.0910797119141
0, 1, 28, 188.1379241943359
0, 1, 29, 185.1940002441406
0, 1, 30, 178.4079895019531
0, 1, 31, 180.6795806884766
0, 1, 32, 189.0693969726562
0, 1, 33, 190.0118408203125
0, 1, 34, 184.5449981689453
0, 1, 35, 193.1739807128906
0, 1, 36, 205.5326538085938
0, 1, 37, 184.7266540527344
0, 1, 38, 164.4145660400391
0, 1, 39, 173.1380767822266
0, 1, 40, 179.6492156982422
0, 1, 41, 184.7941284179688
0, 1, 42, 182.1689300537109
0, 1, 43, 185.7134552001953
0, 1, 44, 169.4127655029297
0, 1, 45, 185.62353515625
0, 1, 46, 170.9906463623047
0, 1, 47, 185.3885650634766
0, 1, 48, 186.5153350830078
0, 1, 49, 186.3228912353516
0, 1, 50, 176.93798828125
0, 1, 51, 192.1473236083984
0, 1, 52, 196.8327026367188
0, 1, 53, 198.3577423095703
0, 1, 54, 187.3025054931641
0, 1, 55, 165.7448883056641
0, 1, 56, 178.8598327636719
0, 1, 57, 179.2095336914062
0, 1, 58, 188.8354339599609
0, 1, 59, 193.9960479736328
0, 1, 60, 187.7497711181641
0, 1, 61, 177.6085510253906
0, 1, 62, 204.2364654541016
0, 1, 63, 174.2786865234375
0, 1, 64, 173.5503540039062
0, 1, 65, 185.4134674072266
0, 1, 66, 203.9608764648438
0, 1, 67, 183.2361755371094
0, 1, 68, 187.0237731933594
0, 1, 69, 189.3245239257812
0, 1, 70, 185.6142578125
0, 1, 71, 171.4718475341797
0, 1, 72, 188.9207153320312
0, 1, 73, 190.0350799560547
0, 1, 74, 202.60546875
0, 1, 75, 184.1426391601562
0, 1, 76, 173.7546234130859
0, 1, 77, 192.8571166992188
0, 1, 78, 188.1107940673828
0, 1, 79, 203.3007965087891
0, 1, 80, 188.1600646972656
0, 1, 81, 174.7135314941406
0, 1, 82, 206.9877624511719
0, 1, 83, 212.2437591552734
0, 1, 84, 179.9172058105469
0, 1, 85, 170.7470092773438
0, 1, 86, 168.5899047851562
0, 1, 87, 185.4046173095703
0, 1, 88, 174.2549896240234
0, 1, 89, 186.0942535400391
0, 1, 90, 211.8717346191406
0, 1, 91, 180.8148956298828
0, 1, 92, 183.6031646728516
0, 1, 93, 180.9427795410156
0, 1, 94, 187.3876953125
0, 1, 95, 181.748779296875
0, 1, 96, 196.0961456298828
0, 1, 97, 182.6099243164062
0, 1, 98, 187.0377655029297
0, 1, 99, 176.0512390136719
0, 1, 100, 171.2537536621094
0, 1, 101, 178.0269317626953
0, 1, 102, 181.6433715820312
0, 1, 103, 173.1386566162109
0, 1, 104, 189.2505035400391
0, 1, 105, 182.3164215087891
0, 1, 106, 164.2677917480469
0, 1, 107, 124.2607040405273
0, 1, 108, 46.90652084350586
0, 1, 109, 11.52787113189697
0, 1, 110, 8.146056175231934
0, 1, 111, 7.426723480224609
0, 1, 112, 9.2978515625
0, 1, 113, 6.785097599029541
0, 1, 114, 4.820870876312256
0, 1, 115, 2.966833114624023
0, 1, 116, 2.427589893341064
0, 1, 117, 3.856870651245117
0, 1, 118, 4.117291450500488
0, 1, 119, 1.730218052864075
0, 1, 120, 3.542371273040771
0, 1, 121, 3.853384494781494
0, 1, 122, 5.800700187683105
0, 1, 123, 1.259588122367859
0, 1, 124, 1.838286519050598
0, 1, 125, 2.210226058959961
0, 1, 126, 1.59855329990387
0, 1, 127, 1.711552739143372
0, 2, 0, 0.6097787022590637
0, 2, 1, 2.42016077041626
0, 2, 2, 2.186751842498779
0, 2, 3, 0.7341753840446472
0, 2, 4, 2.59226655960083
0, 2, 5, 0.9115405678749084
0, 2, 6, 3.038618564605713
0, 2, 7, 2.412588834762573
0, 2, 8, 0.6822415590286255
0, 2, 9, 2.1516432762146
0, 2, 10, 4.528763771057129
0, 2, 11, 3.199159145355225
0, 2, 12, 3.097319364547729
0, 2, 13, 3.404207229614258
0, 2, 14, 3.534747362136841
0, 2, 15, 5.346953868865967
0, 2, 16, 5.533069133758545
0, 2, 17, 9.58621883392334
0, 2, 18, 15.25077819824219
0, 2, 19, 77.02072143554688
0, 2, 20, 163.3699493408203
0, 2, 21, 182.5916442871094
0, 2, 22, 194.1838989257812
0, 2, 23, 183.2432403564453
0, 2, 24, 173.8851470947266
0, 2, 25, 183.7439422607422
0, 2, 26, 179.0337677001953
0, 2, 27, 189.9044799804688
0, 2, 28, 171.4963531494141
0, 2, 29, 169.1992492675781
0, 2, 30, 186.1605987548828
0, 2, 31, 182.048095703125
0, 2, 32, 183.5400238037109
0, 2, 33, 190.6852416992188
0, 2, 34, 200.2523345947266
0, 2, 35, 181.2417755126953
0, 2, 36, 185.0919494628906
0, 2, 37, 181.297119140625
0, 2, 38, 186.4563140869141
0, 2, 39, 167.0029754638672
0, 2, 40, 183.8399047851562
0, 2, 41, 184.6569671630859
0, 2, 42, 188.9816589355469
0, 2, 43, 194.2546539306641
0, 2, 44, 190.7685852050781
0, 2, 45, 191.8431396484375
0, 2, 46, 195.851318359375
0, 2, 47, 188.6729888916016
0, 2, 48, 176.5595550537109
0, 2, 49, 197.5924682617188
0, 2, 50, 168.4751739501953
0, 2, 51, 184.4455108642578
0, 2, 52, 185.2631072998047
0, 2, 53, 195.3750610351562
0, 2, 54, 175.5727996826172
0, 2, 55, 173.3004150390625
0, 2, 56, 181.0953369140625
0, 2, 57, 200.4538421630859
0, 2, 58, 186.0135650634766
0, 2, 59, 189.5370330810547
0, 2, 60, 196.6394195556641
0, 2, 61, 192.6292419433594
0, 2, 62, 189.9445037841797
0, 2, 63, 169.0511322021484
0, 2, 64, 189.8032989501953
0, 2, 65, 202.4317474365234
0, 2, 66, 195.4828643798828
0, 2, 67, 185.7582244873047
0, 2, 68, 183.5730133056641
0, 2, 69, 188.748046875
0, 2, 70, 203.2245635986328
0, 2, 71, 174.7090454101562
0, 2, 72, 185.2111206054688
0, 2, 73, 176.9002075195312
0, 2, 74, 181.1239166259766
0, 2, 75, 196.5502166748047
0, 2, 76, 184.9651489257812
0, 2, 77, 179.5867919921875
0, 2, 78, 198.2582550048828
0, 2, 79, 179.9530029296875
0, 2, 80, 186.8366241455078
0, 2, 81, 186.9072265625
0, 2, 82, 204.8765869140625
0, 2, 83, 203.4438018798828
0, 2, 84, 188.6725616455078
0, 2, 85, 169.7165069580078
0, 2, 86, 195.4520721435547
0, 2, 87, 171.7181243896484
0, 2, 88, 178.1562042236328
0, 2, 89, 184.2239532470703
0, 2, 90, 178.1986846923828
0, 2, 91, 174.4244384765625
0, 2, 92, 196.2949523925781
0, 2, 93, 192.8562316894531
0, 2, 94, 198.7736206054688
0, 2, 95, 194.4726257324219
0, 2, 96, 187.7057495117188
0, 2, 97, 172.8441467285156
0, 2, 98, 172.8194274902344
0, 2, 99, 165.7241821289062
0, 2, 100, 187.9828186035156
0, 2, 101, 196.4958038330078
0, 2, 102, 176.1241302490234
0, 2, 103, 200.2548370361328
0, 2, 104, 188.2663879394531
0, 2, 105, 201.0330352783203
0, 2, 106, 194.0536804199219
0, 2, 107, 150.2810668945312
0, 2, 108, 78.65533447265625
0, 2, 109, 17.67475891113281
0, 2, 110, 8.751869201660156
0, 2, 111, 5.803966045379639
0, 2, 112, 3.931096792221069
0, 2, 113, 4.538337230682373
0, 2, 114, 8.279735565185547
0, 2, 115, 4.051817417144775
0, 2, 116, 1.495429277420044
0, 2, 117, 1.328826069831848
0, 2, 118, 3.49645209312439
0, 2, 119, 3.040096998214722
0, 2, 120, 2.416169166564941
0, 2, 121, 2.749108791351318
0, 2, 122, 0.8702406287193298
0, 2, 123, 1.241940379142761
0, 2, 124, 3.247586965560913
0, 2, 125, 3.013147830963135
0, 2, 126, 3.529489517211914
0, 2, 127, 1.016858696937561
0, 3, 0, 2.223961591720581
0, 3, 1, 1.038436770439148
0, 3, 2, 1.355123043060303
0, 3, 3, 1.114867329597473
0, 3, 4, 4.646537303924561
0, 3, 5, 2.353732824325562
0, 3, 6, 3.604625225067139
0, 3, 7, 1.522727847099304
0, 3, 8, 1.825295329093933
0, 3, 9, 2.337156295776367
0, 3, 10, 1.043686151504517
0, 3, 11, 3.885058164596558
0, 3, 12, 3.880006551742554
0, 3, 13, 3.504883050918579
0, 3, 14, 4.210352420806885
0, 3, 15, 6.26772928237915
0, 3, 16, 7.264015674591064
0, 3, 17, 6.446656703948975
0, 3, 18, 32.12644958496094
0, 3, 19, 114.9738006591797
0, 3, 20, 180.0714416503906
0, 3, 21, 172.8328247070312
0, 3, 22, 177.5577087402344
0, 3, 23, 187.2611389160156
0, 3, 24, 177.7201080322266
0, 3, 25, 168.4523162841797
0, 3, 26, 180.1242370605469
0, 3, 27, 189.9035186767578
0, 3, 28, 183.2474670410156
0, 3, 29, 196.9917449951172
0, 3, 30, 185.3204498291016
0, 3, 31, 193.1934661865234
0, 3, 32, 206.5152435302734
0, 3, 33, 195.2547454833984
0, 3, 34, 187.0586395263672
0, 3, 35, 173.2838287353516
0, 3, 36, 185.2876586914062
0, 3, 37, 199.8224029541016
0, 3, 38, 191.7937622070312
0, 3, 39, 184.2192993164062
0, 3, 40, 167.1248931884766
0, 3, 41, 174.3310241699219
0, 3, 42, 184.9612274169922
0, 3, 43, 183.1573944091797
0, 3, 44, 202.6943817138672
0, 3, 45, 208.0660858154297
0, 3, 46, 199.3669281005859
0, 3, 47, 195.5606384277344
0, 3, 48, 194.9867248535156
0, 3, 49, 179.822509765625
0, 3, 50, 186.8545989990234
0, 3, 51, 173.9211578369141
0, 3, 52, 188.0008392333984
0, 3, 53, 178.0826568603516
0, 3, 54, 178.8631896972656
0, 3, 55, 176.6487426757812
0, 3, 56, 181.8262329101562
0, 3, 57, 175.6779632568359
0, 3, 58, 201.6836547851562
0, 3, 59, 196.0908813476562
0, 3, 60, 185.3617553710938
0, 3, 61, 181.1363067626953
0, 3, 62, 182.5863494873047
0, 3, 63, 185.7277374267578
0, 3, 64, 188.4251251220703
0, 3, 65, 187.4781646728516
0, 3, 66, 175.8081359863281
0, 3, 67, 189.85107421875
0, 3, 68, 211.6168212890625
0, 3, 69, 190.4449768066406
0, 3, 70, 185.8025665283203
0, 3, 71, 197.0731048583984
0, 3, 72, 186.0633697509766
0, 3, 73, 189.2218170166016
0, 3, 74, 192.6296691894531
0, 3, 75, 192.5009918212891
0, 3, 76, 191.1420440673828
0, 3, 77, 199.1068878173828
0, 3, 78, 188.3985137939453
0, 3, 79, 184.6663970947266
0, 3, 80, 189.1082458496094
0, 3, 81, 184.6730499267578
0, 3, 82, 179.8531494140625
0, 3, 83, 195.0054016113281
0, 3, 84, 199.52734375
0, 3, 85, 192.4878540039062
0, 3, 86, 204.8726348876953
0, 3, 87, 198.5592346191406
0, 3, 88, 191.5220642089844
0, 3, 89, 194.6371917724609
0, 3, 90, 173.9082946777344
0, 3, 91, 156.3241577148438
0, 3, 92, 207.1807708740234
0, 3, 93, 199.0344848632812
0, 3, 94, 192.8106079101562
0, 3, 95, 211.6698760986328
0, 3, 96, 207.9684600830078
0, 3, 97, 169.8099212646484
0, 3, 98, 168.5838775634766
0, 3, 99, 180.4875640869141
0, 3, 100, 176.6073150634766
0, 3, 101, 198.1684417724609
0, 3, 102, 196.0870361328125
0, 3, 103, 192.8965759277344
0, 3, 104, 201.9802093505859
0, 3, 105, 174.6989135742188
0, 3, 106, 183.7070007324219
0, 3, 107, 170.7024383544922
0, 3, 108, 108.0685653686523
0, 3, 109, 27.56465339660645
0, 3, 110, 7.946537971496582
0, 3, 111, 6.456880569458008
0, 3, 112, 3.334166526794434
0, 3, 113, 9.22675895690918
0, 3, 114, 4.18381404876709
0, 3, 115, 5.249203205108643
0, 3, 116, 6.400161743164062
0, 3, 117, 3.88268780708313
0, 3, 118, 2.298248767852783
0, 3, 119, 4.126479625701904
0, 3, 120, 4.215457439422607
0, 3, 121, 2.22205638885498
0, 3, 122, 1.577193260192871
0, 3, 123, 2.401034355163574
0, 3, 124, 2.29795241355896
0, 3, 125, 1.14262580871582
0, 3, 126, 1.396297097206116
0, 3, 127, 1.217916250228882
0, 4, 0, 1.570565581321716
0, 4, 1, 1.076553225517273
0, 4, 2, 1.810577511787415
0, 4, 3, 3.841429710388184
0, 4, 4, 2.818981885910034
0, 4, 5, 0.800069272518158
0, 4, 6, 4.209644317626953
0, 4, 7, 2.639043807983398
0, 4, 8, 1.680548787117004
0, 4, 9, 1.80697500705719
0, 4, 10, 3.356670141220093
0, 4, 11, 3.928296327590942
0, 4, 12, 3.281028509140015
0, 4, 13, 4.170760154724121
0, 4, 14, 5.110828399658203
0, 4, 15, 10.98215389251709
0, 4, 16, 5.968771934509277
0, 4, 17, 11.56950283050537
0, 4, 18, 56.02133560180664
0, 4, 19, 150.7796630859375
0, 4, 20, 193.4776306152344
0, 4, 21, 169.6558990478516
0, 4, 22, 187.2490234375
0, 4, 23, 195.9138946533203
0, 4, 24, 192.354736328125
0, 4, 25, 201.2407379150391
0, 4, 26, 183.4870452880859
0, 4, 27, 192.9474639892578
0, 4, 28, 178.5248260498047
0, 4, 29, 206.2201538085938
0, 4, 30, 194.8055419921875
0, 4, 31, 191.8700256347656
0, 4, 32, 209.4706726074219
0, 4, 33, 189.6553039550781
0, 4, 34, 192.0302734375
0, 4, 35, 213.7641296386719
0, 4, 36, 192.1121520996094
0, 4, 37, 176.8137359619141
0, 4, 38, 193.7240447998047
0, 4, 39, 188.3912811279297
0, 4, 40, 185.0554351806641
0, 4, 41, 188.7855224609375
0, 4, 42, 205.7043914794922
0, 4, 43, 173.4820098876953
0, 4, 44, 183.1583557128906
0, 4, 45, 197.4429168701172
0, 4, 46, 185.8454132080078
0, 4, 47, 179.4598236083984
0, 4, 48, 185.4288024902344
0, 4, 49, 175.7906646728516
0, 4, 50, 187.2075653076172
0, 4, 51, 198.6331329345703
0, 4, 52, 223.5711822509766
0, 4, 53, 206.0625915527344
0, 4, 54, 190.4856567382812
0, 4, 55, 174.5379638671875
0, 4, 56, 190.5194396972656
0, 4, 57, 191.4819488525391
0, 4, 58, 187.7033996582031
0, 4, 59, 190.1515350341797
0, 4, 60, 195.755615234375
0, 4, 61, 193.2271728515625
0, 4, 62, 190.6253967285156
0, 4, 63, 181.0383453369141
0, 4, 64, 211.4747467041016
0, 4, 65, 191.425048828125
0, 4, 66, 201.8314819335938
0, 4, 67, 199.1831207275391
0, 4, 68, 203.0033111572266
0, 4, 69, 200.1098175048828
0, 4, 70, 204.6295623779297
0, 4, 71, 206.0810852050781
0, 4, 72, 215.3547058105469
0, 4, 73, 185.7878875732422
0, 4, 74, 181.3412780761719
0, 4, 75, 184.1512451171875
0, 4, 76, 190.2456512451172
0, 4, 77, 182.1461029052734
0, 4, 78, 195.2033233642578
0, 4, 79, 203.3505249023438
0, 4, 80, 211.4830169677734
0, 4, 81, 198.078857421875
0, 4, 82, 181.8464508056641
0, 4, 83, 171.3707885742188
0, 4, 84, 192.9802398681641
0, 4, 85, 196.0092468261719
0, 4, 86, 180.3897094726562
0, 4, 87, 182.7775573730469
0, 4, 88, 204.8642425537109
0, 4, 89, 187.1380157470703
0, 4, 90, 211.0465545654297
0, 4, 91, 189.0347137451172
0, 4, 92, 197.3563842773438
0, 4, 93, 198.0894622802734
0, 4, 94, 182.4215545654297
0, 4, 95, 175.4993743896484
0, 4, 96, 189.7560729980469
0, 4, 97, 192.3146667480469
0, 4, 98, 201.5183715820312
0, 4, 99, 183.3159942626953
0, 4, 100, 183.1050872802734
0, 4, 101, 177.4658660888672
0, 4, 102, 174.2827911376953
0, 4, 103, 184.867431640625
0, 4, 104, 209.4786987304688
0, 4, 105, 189.932861328125
0, 4, 106, 179.9887542724609
0, 4, 107, 181.5737915039062
0, 4, 108, 151.7715759277344
0, 4, 109, 48.21969985961914
0, 4, 110, 11.62485218048096
0, 4, 111, 8.271047592163086
0, 4, 112, 6.295819282531738
0, 4, 113, 6.161855220794678
0, 4, 114, 4.829174518585205
0, 4, 115, 2.797521591186523
0, 4, 116, 4.758761405944824
0, 4, 117, 2.092156887054443
0, 4, 118, 4.273481369018555
0, 4, 119, 4.25726842880249
0, 4, 120, 3.249957084655762
0, 4, 121, 1.464090347290039
0, 4, 122, 3.736749649047852
0, 4, 123, 1.718351006507874
0, 4, 124, 3.226759910583496
0, 4, 125, 3.309734344482422
0, 4, 126, 1.639404654502869
0, 4, 127, 1.187985897064209
0, 5, 0, 1.626764893531799
0, 5, 1, 3.841759204864502
0, 5, 2, 5.516710758209229
0, 5, 3, 3.652912855148315
0, 5, 4, 1.839097261428833
0, 5, 5, 1.617625832557678
0, 5, 6, 2.664856195449829
0, 5, 7, 3.088882684707642
0, 5, 8, 1.969380378723145
0, 5, 9, 2.839769124984741
0, 5, 10, 5.665004253387451
0, 5, 11, 2.341414928436279
0, 5, 12, 4.89893627166748
0, 5, 13, 3.394499063491821
0, 5, 14, 5.643392562866211
0, 5, 15, 8.366706848144531
0, 5, 16, 7.657942771911621
0, 5, 17, 21.45883178710938
0, 5, 18, 83.35201263427734
0, 5, 19, 165.3118133544922
0, 5, 20, 183.1198577880859
0, 5, 21, 179.2058258056641
0, 5, 22, 170.9488067626953
0, 5, 23, 201.2774963378906
0, 5, 24, 187.3222961425781
0, 5, 25, 207.1508483886719
0, 5, 26, 183.9578704833984
0, 5, 27, 193.7106475830078
0, 5, 28, 190.0090484619141
0, 5, 29, 195.9183807373047
0, 5, 30, 177.2902526855469
0, 5, 31, 180.4721832275391
0, 5, 32, 186.7441253662109
0, 5, 33, 168.8424072265625
0, 5, 34, 194.9721984863281
0, 5, 35, 197.8374328613281
0, 5, 36, 167.5460662841797
0, 5, 37, 197.4248046875
0, 5, 38, 180.8263854980469
0, 5, 39, 187.7799835205078
0, 5, 40, 196.9244537353516
0, 5, 41, 178.3470611572266
0, 5, 42, 187.2469177246094
0, 5, 43, 193.3264770507812
0, 5, 44, 199.6499481201172
0, 5, 45, 186.3137512207031
0, 5, 46, 193.1416015625
0, 5, 47, 181.636962890625
0, 5, 48, 181.5149230957031
0, 5, 49, 179.1418762207031
0, 5, 50, 187.8356170654297
0, 5, 51, 172.0049743652344
0, 5, 52, 168.6596832275391
0, 5, 53, 182.0815887451172
0, 5, 54, 172.1615142822266
0, 5, 55, 215.5676116943359
0, 5, 56, 181.3398895263672
0, 5, 57, 207.75146484375
0, 5, 58, 180.2143096923828
0, 5, 59, 182.4359130859375
0, 5, 60, 217.2347106933594
0, 5, 61, 184.755126953125
0, 5, 62, 178.7156219482422
0, 5, 63, 179.9727325439453
0, 5, 64, 194.1630859375
0, 5, 65, 211.8397064208984
0, 5, 66, 192.4739379882812
0, 5, 67, 198.8429718017578
0, 5, 68, 184.9206848144531
0, 5, 69, 185.6305236816406
0, 5, 70, 186.1205139160156
0, 5, 71, 193.8940887451172
0, 5, 72, 198.3666687011719
0, 5, 73, 201.281982421875
0, 5, 74, 178.6524810791016
0, 5, 75, 204.3559265136719
0, 5, 76, 213.4671630859375
0, 5, 77, 181.2701721191406
0, 5, 78, 194.2470245361328
0, 5, 79, 191.4117584228516
0, 5, 80, 197.3881530761719
0, 5, 81, 202.7127990722656
0, 5, 82, 201.6181030273438
0, 5, 83, 188.7721252441406
0, 5, 84, 206.4930877685547
0, 5, 85, 176.1641998291016
0, 5, 86, 194.6813354492188
0, 5, 87, 188.1259307861328
0, 5, 88, 176.6047668457031
0, 5, 89, 193.9391326904297
0, 5, 90, 199.1808776855469
0, 5, 91, 193.9195861816406
0, 5, 92, 190.6266021728516
0, 5, 93, 189.4745025634766
0, 5, 94, 209.9022979736328
0, 5, 95, 178.9462585449219
0, 5, 96, 181.793701171875
0, 5, 97, 190.7291870117188
0, 5, 98, 188.9377288818359
0, 5, 99, 193.9467315673828
0, 5, 100, 188.8213806152344
0, 5, 101, 196.6705780029297
0, 5, 102, 182.2562255859375
0, 5, 103, 175.7764434814453
0, 5, 104, 190.2384796142578
0, 5, 105, 189.9752502441406
0, 5, 106, 176.6254119873047
0, 5, 107, 181.8165435791016
0, 5, 108, 177.0069580078125
0, 5, 109, 89.49575805664062
0, 5, 110, 30.41779899597168
0, 5, 111, 9.08140754699707
0, 5, 112, 6.25819206237793
0, 5, 113, 5.996078491210938
0, 5, 114, 6.695854187011719
0, 5, 115, 5.101974964141846
0, 5, 116, 4.516078948974609
0, 5, 117, 2.129672765731812
0, 5, 118, 3.888948202133179
0, 5, 119, 3.235732793807983
0, 5, 120, 4.118932247161865
0, 5, 121, 1.546802043914795
0, 5, 122, 2.695626020431519
0, 5, 123, 4.276700496673584
0, 5, 124, 3.209203958511353
0, 5, 125, 0.9980507493019104
0, 5, 126, 2.473833084106445
0, 5, 127, 2.65795636177063
0, 6, 0, 4.07973575592041
0, 6, 1, 4.197297096252441
0, 6, 2, 3.854022979736328
0, 6, 3, 2.088912487030029
0, 6, 4, 3.65591835975647
0, 6, 5, 3.976505517959595
0, 6, 6, 2.741482257843018
0, 6, 7, 3.412758350372314
0, 6, 8, 7.29998254776001
0, 6, 9, 7.114219188690186
0, 6, 10, 4.59522008895874
0, 6, 11, 3.687094449996948
0, 6, 12, 3.860226631164551
0, 6, 13, 5.700057506561279
0, 6, 14, 5.413542747497559
0, 6, 15, 7.745503902435303
0, 6, 16, 14.02767181396484
0, 6, 17, 27.9736156463623
0, 6, 18, 112.014274597168
0, 6, 19, 191.8993530273438
0, 6, 20, 195.7656555175781
0, 6, 21, 197.7612457275391
0, 6, 22, 190.5819396972656
0, 6, 23, 190.4066314697266
0, 6, 24, 200.7330627441406
0, 6, 25, 182.5252380371094
0, 6, 26, 186.8721618652344
0, 6, 27, 192.4245452880859
0, 6, 28, 188.937744140625
0, 6, 29, 211.9915161132812
0, 6, 30, 189.607177734375
0, 6, 31, 193.0575561523438
0, 6, 32, 207.1661834716797
0, 6, 33, 185.7149353027344
0, 6, 34, 197.107177734375
0, 6, 35, 190.7352905273438
0, 6, 36, 180.4417724609375
0, 6, 37, 182.3753814697266
0, 6, 38, 187.1202850341797
0, 6, 39, 196.0490417480469
0, 6, 40, 174.0662536621094
0, 6, 41, 185.7916259765625
0, 6, 42, 174.7826080322266
0, 6, 43, 209.8858795166016
0, 6, 44, 209.1723175048828
0, 6, 45, 193.8953704833984
0, 6, 46, 188.6410217285156
0, 6, 47, 203.9702453613281
0, 6, 48, 188.664794921875
0, 6, 49, 181.8610534667969
0, 6, 50, 181.4436645507812
0, 6, 51, 196.3121337890625
0, 6, 52, 197.4554138183594
0, 6, 53, 184.7832946777344
0, 6, 54, 175.3283996582031
0, 6, 55, 195.1750183105469
0, 6, 56, 204.1500854492188
0, 6, 57, 191.4876556396484
0, 6, 58, 178.6349029541016
0, 6, 59, 191.8096008300781
0, 6, 60, 184.8689727783203
0, 6, 61, 194.5834655761719
0, 6, 62, 197.1544647216797
0, 6, 63, 186.4373168945312
0, 6, 64, 169.649169921875
0, 6, 65, 186.2134246826172
0, 6, 66, 197.2285003662109
0, 6, 67, 214.2180786132812
0, 6, 68, 182.3717803955078
0, 6, 69, 170.6604156494141
0, 6, 70, 187.2267456054688
0, 6, 71, 170.3403930664062
0, 6, 72, 176.2087554931641
0, 6, 73, 177.0385589599609
0, 6, 74, 211.264892578125
0, 6, 75, 228.3137512207031
0, 6, 76, 184.0381774902344
0, 6, 77, 173.9435272216797
0, 6, 78, 175.7487640380859
0, 6, 79, 185.6542510986328
0, 6, 80, 186.7384948730469
0, 6, 81, 209.9395904541016
0, 6, 82, 195.5662536621094
0, 6, 83, 195.4880523681641
0, 6, 84, 198.1604156494141
0, 6, 85, 181.9619598388672
0, 6, 86, 204.5691070556641
0, 6, 87, 183.49365234375
0, 6, 88, 192.8083648681641
0, 6, 89, 188.0666198730469
0, 6, 90, 206.6717376708984
0, 6, 91, 199.8923187255859
0, 6, 92, 172.6458892822266
0, 6, 93, 192.5922698974609
0, 6, 94, 189.1871795654297
0, 6, 95, 185.4321746826172
0, 6, 96, 189.3719635009766
0, 6, 97, 196.1211090087891
0, 6, 98, 183.4304504394531
0, 6, 99, 175.7458343505859
0, 6, 100, 203.1679077148438
0, 6, 101, 168.3129119873047
0, 6, 102, 201.6493072509766
0, 6, 103, 195.5819396972656
0, 6, 104, 183.8749847412109
0, 6, 105, 195.1183624267578
0, 6, 106, 177.1630706787109
0, 6, 107, 194.0181579589844
0, 6, 108, 172.2388153076172
0, 6, 109, 114.9637985229492
0, 6, 110, 35.09582901000977
0, 6, 111, 9.953214645385742
0, 6, 112, 8.121157646179199
0, 6, 113, 5.840659618377686
0, 6, 114, 5.228507995605469
0, 6, 115, 3.951725006103516
0, 6, 116, 3.471029758453369
0, 6, 117, 3.370909452438354
0, 6, 118, 3.910305738449097
0, 6, 119, 5.43071174621582
0, 6, 120, 2.041568279266357
0, 6, 121, 3.597517251968384
0, 6, 122, 2.762171983718872
0, 6, 123, 2.998730897903442
0, 6, 124, 1.638613343238831
0, 6, 125, 2.644561529159546
0, 6, 126, 1.860507249832153
0, 6, 127, 2.136001110076904
0, 7, 0, 3.534253358840942
0, 7, 1, 1.365926623344421
0, 7, 2, 4.559130668640137
0, 7, 3, 3.872307538986206
0, 7, 4, 2.619632959365845
0, 7, 5, 1.677135586738586
0, 7, 6, 1.843199849128723
0, 7, 7, 1.577006578445435
0, 7, 8, 5.66878604888916
0, 7, 9, 4.280683994293213
0, 7, 10, 5.378238201141357
0, 7, 11, 4.647870540618896
0, 7, 12, 3.950880289077759
0, 7, 13, 6.955365657806396
0, 7, 14, 8.347987174987793
0, 7, 15, 7.75247049331665
0, 7, 16, 15.64446544647217
0, 7, 17, 52.60778427124023
0, 7, 18, 161.9296569824219
0, 7, 19, 184.8059387207031
0, 7, 20, 178.150146484375
0, 7, 21, 182.2512359619141
0, 7, 22, 190.4540252685547
0, 7, 23, 204.9241485595703
0, 7, 24, 179.6587219238281
0, 7, 25, 213.0953063964844
0, 7, 26, 189.7627258300781
0, 7, 27, 182.9936370849609
0, 7, 28, 183.4145355224609
0, 7, 29, 209.4662933349609
0, 7, 30, 194.5815277099609
0, 7, 31, 176.6282348632812
0, 7, 32, 191.0394134521484
0, 7, 33, 179.276611328125
0, 7, 34, 193.3626251220703
0, 7, 35, 196.5809783935547
0, 7, 36, 185.7938232421875
0, 7, 37, 213.2441864013672
0, 7, 38, 190.3569183349609
0, 7, 39, 173.4715118408203
0, 7, 40, 184.3339233398438
0, 7, 41, 184.7013854980469
0, 7, 42, 178.6742248535156
0, 7, 43, 177.0954132080078
0, 7, 44, 179.6470184326172
0, 7, 45, 174.8156280517578
0, 7, 46, 189.7469635009766
0, 7, 47, 198.0796813964844
0, 7, 48, 186.9058380126953
0, 7, 49, 199.7353057861328
0, 7, 50, 188.9675750732422
0, 7, 51, 204.9922485351562
0, 7, 52, 204.5879364013672
0, 7, 53, 191.0097961425781
0, 7, 54, 196.0412445068359
0, 7, 55, 205.9641876220703
0, 7, 56, 183.1035919189453
0, 7, 57, 182.5461578369141
0, 7, 58, 193.5430755615234
0, 7, 59, 188.5556488037109
0, 7, 60, 203.853759765625
0, 7, 61, 170.6389465332031
0, 7, 62, 203.2132263183594
0, 7, 63, 189.7240295410156
0, 7, 64, 200.2027893066406
0, 7, 65, 197.2134246826172
0, 7, 66, 205.2573852539062
0, 7, 67, 220.3661346435547
0, 7, 68, 162.5280609130859
0, 7, 69, 194.5624237060547
0, 7, 70, 217.2359161376953
0, 7, 71, 184.696533203125
0, 7, 72, 179.7683258056641
0, 7, 73, 176.8634948730469
0, 7, 74, 207.4851226806641
0, 7, 75, 203.5004730224609
0, 7, 76, 216.3782043457031
0, 7, 77, 172.7049407958984
0, 7, 78, 177.4448852539062
0, 7, 79, 192.9055023193359
0, 7, 80, 195.462890625
0, 7, 81, 214.7987060546875
0, 7, 82, 185.1217346191406
0, 7, 83, 205.1453094482422
0, 7, 84, 192.5692138671875
0, 7, 85, 185.8227386474609
0, 7, 86, 199.8412933349609
0, 7, 87, 226.48779296875
0, 7, 88, 196.4545745849609
0, 7, 89, 176.3374328613281
0, 7, 90, 182.1199951171875
0, 7, 91, 194.1925354003906
0, 7, 92, 194.3673553466797
0, 7, 93, 197.7681427001953
0, 7, 94, 175.9404602050781
0, 7, 95, 199.0081939697266
0, 7, 96, 209.7325439453125
0, 7, 97, 189.3800354003906
0, 7, 98, 176.6280670166016
0, 7, 99, 197.0025939941406
0, 7, 100, 181.7478179931641
0, 7, 101, 198.9296875
0, 7, 102, 185.3866271972656
0, 7, 103, 181.8477935791016
0, 7, 104, 175.2133483886719
0, 7, 105, 196.5867767333984
0, 7, 106, 205.7708435058594
0, 7, 107, 173.2645568847656
0, 7, 108, 177.5554809570312
0, 7, 109, 136.9963989257812
0, 7, 110, 54.88515090942383
0, 7, 111, 10.46057891845703
0, 7, 112, 7.532334804534912
0, 7, 113, 8.542057991027832
0, 7, 114, 6.527827739715576
0, 7, 115, 4.889938354492188
0, 7, 116, 3.913261651992798
0, 7, 117, 4.199804306030273
0, 7, 118, 3.625290632247925
0, 7, 119, 4.492263317108154
0, 7, 120, 2.926424980163574
0, 7, 121, 3.837365627288818
0, 7, 122, 4.573115825653076
0, 7, 123, 1.201835036277771
0, 7, 124, 2.195630311965942
0, 7, 125, 1.992302536964417
0, 7, 126, 3.62928318977356
0, 7, 127, 2.124226808547974
0, 8, 0, 5.51295804977417
0, 8, 1, 2.355236291885376
0, 8, 2, 2.874773740768433
0, 8, 3, 2.034038305282593
0, 8, 4, 1.476975560188293
0, 8, 5, 2.897058248519897
0, 8, 6, 3.449961423873901
0, 8, 7, 2.465517997741699
0, 8, 8, 2.308733224868774
0, 8, 9, 3.529285907745361
0, 8, 10, 2.240118503570557
0, 8, 11, 2.588171005249023
0, 8, 12, 4.442753791809082
0, 8, 13, 5.821644306182861
0, 8, 14, 6.3429856300354
0, 8, 15, 8.020416259765625
0, 8, 16, 21.29019927978516
0, 8, 17, 74.93049621582031
0, 8, 18, 142.2493591308594
0, 8, 19, 179.8500671386719
0, 8, 20, 193.8516235351562
0, 8, 21, 193.8825531005859
0, 8, 22, 181.9157104492188
0, 8, 23, 172.4932556152344
0, 8, 24, 191.7684478759766
0, 8, 25, 184.7856140136719
0, 8, 26, 193.8275909423828
0, 8, 27, 186.2195129394531
0, 8, 28, 187.0633544921875
0, 8, 29, 207.6281890869141
0, 8, 30, 197.3470306396484
0, 8, 31, 183.2812042236328
0, 8, 32, 197.5186614990234
0, 8, 33, 207.4229278564453
0, 8, 34, 204.5670928955078
0, 8, 35, 185.4859619140625
0, 8, 36, 181.7309417724609
0, 8, 37, 201.0113372802734
