# TOPAS Version: 3.1.p3
# Parameter File: batch_inserts_76.txt
# Results for scorer Readout_Adipose
# Scored in component: MyBox
# X in 1 bin  of 0.65 cm
# Y in 512 bins of 0.0783984 cm
# Z in 128 bins of 0.078125 cm
# EnergyDeposit ( MeV ) : Sum   
0, 0, 0, 1.737960577011108
0, 0, 1, 2.985706090927124
0, 0, 2, 3.240684270858765
0, 0, 3, 2.507207632064819
0, 0, 4, 1.904803514480591
0, 0, 5, 0.8788723945617676
0, 0, 6, 1.616901993751526
0, 0, 7, 1.570252776145935
0, 0, 8, 2.22684907913208
0, 0, 9, 2.927380323410034
0, 0, 10, 1.779463768005371
0, 0, 11, 4.613955020904541
0, 0, 12, 4.903049945831299
0, 0, 13, 2.373606204986572
0, 0, 14, 5.166922092437744
0, 0, 15, 5.472967624664307
0, 0, 16, 3.404691696166992
0, 0, 17, 5.070880889892578
0, 0, 18, 6.756694316864014
0, 0, 19, 23.79384803771973
0, 0, 20, 94.47927856445312
0, 0, 21, 153.0101165771484
0, 0, 22, 154.8756866455078
0, 0, 23, 144.5632781982422
0, 0, 24, 159.423095703125
0, 0, 25, 168.575927734375
0, 0, 26, 166.7710418701172
0, 0, 27, 174.7054595947266
0, 0, 28, 177.2364807128906
0, 0, 29, 175.6857147216797
0, 0, 30, 173.6373291015625
0, 0, 31, 166.1516876220703
0, 0, 32, 164.4043121337891
0, 0, 33, 166.9482421875
0, 0, 34, 176.7895660400391
0, 0, 35, 173.3727722167969
0, 0, 36, 159.0417327880859
0, 0, 37, 160.7318725585938
0, 0, 38, 166.6248931884766
0, 0, 39, 158.9971771240234
0, 0, 40, 165.2398376464844
0, 0, 41, 167.1184844970703
0, 0, 42, 143.7499084472656
0, 0, 43, 168.8520355224609
0, 0, 44, 180.3549957275391
0, 0, 45, 172.3564453125
0, 0, 46, 166.1947326660156
0, 0, 47, 167.1721496582031
0, 0, 48, 170.1027221679688
0, 0, 49, 182.4485473632812
0, 0, 50, 169.5475311279297
0, 0, 51, 161.3343048095703
0, 0, 52, 161.1114044189453
0, 0, 53, 171.4374237060547
0, 0, 54, 159.2390594482422
0, 0, 55, 165.4651794433594
0, 0, 56, 189.4774169921875
0, 0, 57, 171.3054962158203
0, 0, 58, 161.3459014892578
0, 0, 59, 172.5740356445312
0, 0, 60, 168.6152954101562
0, 0, 61, 169.3620758056641
0, 0, 62, 184.4633941650391
0, 0, 63, 166.1656646728516
0, 0, 64, 163.9171295166016
0, 0, 65, 174.1345062255859
0, 0, 66, 178.3857574462891
0, 0, 67, 163.9942779541016
0, 0, 68, 159.1204833984375
0, 0, 69, 158.0410308837891
0, 0, 70, 170.2099914550781
0, 0, 71, 158.55517578125
0, 0, 72, 162.5606231689453
0, 0, 73, 171.2131195068359
0, 0, 74, 164.5498046875
0, 0, 75, 163.7809906005859
0, 0, 76, 164.5415344238281
0, 0, 77, 172.0521392822266
0, 0, 78, 181.4593811035156
0, 0, 79, 174.5564575195312
0, 0, 80, 159.1551208496094
0, 0, 81, 160.3762512207031
0, 0, 82, 181.8922729492188
0, 0, 83, 173.091552734375
0, 0, 84, 159.3023376464844
0, 0, 85, 181.9038848876953
0, 0, 86, 157.8662261962891
0, 0, 87, 176.556640625
0, 0, 88, 177.12548828125
0, 0, 89, 174.93212890625
0, 0, 90, 161.0901794433594
0, 0, 91, 186.2362823486328
0, 0, 92, 164.4427032470703
0, 0, 93, 157.1503448486328
0, 0, 94, 169.6108551025391
0, 0, 95, 173.4046478271484
0, 0, 96, 183.3572845458984
0, 0, 97, 182.9729156494141
0, 0, 98, 187.1342468261719
0, 0, 99, 170.8896484375
0, 0, 100, 158.8278656005859
0, 0, 101, 166.5720977783203
0, 0, 102, 170.3033599853516
0, 0, 103, 170.2942657470703
0, 0, 104, 169.07470703125
0, 0, 105, 177.9667816162109
0, 0, 106, 159.2832183837891
0, 0, 107, 86.57979583740234
0, 0, 108, 20.9532527923584
0, 0, 109, 9.752481460571289
0, 0, 110, 5.365745067596436
0, 0, 111, 6.468489170074463
0, 0, 112, 3.970550298690796
0, 0, 113, 2.805543899536133
0, 0, 114, 2.263084173202515
0, 0, 115, 3.729927062988281
0, 0, 116, 1.335268378257751
0, 0, 117, 2.457584142684937
0, 0, 118, 3.548361778259277
0, 0, 119, 2.364656925201416
0, 0, 120, 2.058694362640381
0, 0, 121, 5.343773365020752
0, 0, 122, 3.530941009521484
0, 0, 123, 5.039467334747314
0, 0, 124, 3.431303977966309
0, 0, 125, 2.778851509094238
0, 0, 126, 0.822504460811615
0, 0, 127, 1.794395208358765
0, 1, 0, 0.8401075601577759
0, 1, 1, 3.788920164108276
0, 1, 2, 3.668390989303589
0, 1, 3, 0.9312050342559814
0, 1, 4, 0.9573666453361511
0, 1, 5, 2.087690353393555
0, 1, 6, 1.437942147254944
0, 1, 7, 3.253440380096436
0, 1, 8, 3.421354055404663
0, 1, 9, 1.344764590263367
0, 1, 10, 2.250744581222534
0, 1, 11, 4.564229488372803
0, 1, 12, 4.531248092651367
0, 1, 13, 3.449591636657715
0, 1, 14, 6.415560245513916
0, 1, 15, 6.564650535583496
0, 1, 16, 7.542842864990234
0, 1, 17, 4.886563301086426
0, 1, 18, 10.95002937316895
0, 1, 19, 39.36890029907227
0, 1, 20, 125.400764465332
0, 1, 21, 178.0801544189453
0, 1, 22, 194.2329559326172
0, 1, 23, 187.2685699462891
0, 1, 24, 180.6422576904297
0, 1, 25, 191.6325073242188
0, 1, 26, 198.4450836181641
0, 1, 27, 187.0260467529297
0, 1, 28, 189.4687805175781
0, 1, 29, 183.7865447998047
0, 1, 30, 179.3468017578125
0, 1, 31, 182.5419464111328
0, 1, 32, 189.7724151611328
0, 1, 33, 190.3250427246094
0, 1, 34, 184.4601440429688
0, 1, 35, 193.0923309326172
0, 1, 36, 205.8195953369141
0, 1, 37, 184.8272857666016
0, 1, 38, 165.2849273681641
0, 1, 39, 172.0140533447266
0, 1, 40, 179.5929260253906
0, 1, 41, 184.9660034179688
0, 1, 42, 182.8158416748047
0, 1, 43, 184.3536682128906
0, 1, 44, 168.2554931640625
0, 1, 45, 185.9860382080078
0, 1, 46, 169.8651275634766
0, 1, 47, 185.2979736328125
0, 1, 48, 186.5128173828125
0, 1, 49, 186.7836151123047
0, 1, 50, 179.5087432861328
0, 1, 51, 191.0606079101562
0, 1, 52, 198.5695648193359
0, 1, 53, 195.7975616455078
0, 1, 54, 185.0828094482422
0, 1, 55, 165.8404846191406
0, 1, 56, 178.859375
0, 1, 57, 178.3296966552734
0, 1, 58, 188.3773345947266
0, 1, 59, 194.386962890625
0, 1, 60, 188.2089233398438
0, 1, 61, 178.3468170166016
0, 1, 62, 203.9447021484375
0, 1, 63, 174.6394195556641
0, 1, 64, 176.1391754150391
0, 1, 65, 184.4752044677734
0, 1, 66, 204.0732879638672
0, 1, 67, 182.9902191162109
0, 1, 68, 186.7973175048828
0, 1, 69, 188.9904174804688
0, 1, 70, 185.5684051513672
0, 1, 71, 171.6722106933594
0, 1, 72, 189.5164794921875
0, 1, 73, 190.6181182861328
0, 1, 74, 201.4612426757812
0, 1, 75, 184.906982421875
0, 1, 76, 175.5244903564453
0, 1, 77, 193.2892608642578
0, 1, 78, 188.8277740478516
0, 1, 79, 201.2799377441406
0, 1, 80, 187.5167541503906
0, 1, 81, 174.8767395019531
0, 1, 82, 209.3848114013672
0, 1, 83, 211.9747772216797
0, 1, 84, 179.9327545166016
0, 1, 85, 169.0912017822266
0, 1, 86, 168.9114685058594
0, 1, 87, 186.1049194335938
0, 1, 88, 177.0569000244141
0, 1, 89, 186.8232116699219
0, 1, 90, 212.8413391113281
0, 1, 91, 180.8881072998047
0, 1, 92, 185.7428894042969
0, 1, 93, 181.6139221191406
0, 1, 94, 187.6066284179688
0, 1, 95, 181.8164825439453
0, 1, 96, 196.8563690185547
0, 1, 97, 183.0366973876953
0, 1, 98, 185.8041229248047
0, 1, 99, 175.0912017822266
0, 1, 100, 171.2137298583984
0, 1, 101, 177.5088958740234
0, 1, 102, 182.5491180419922
0, 1, 103, 173.0429992675781
0, 1, 104, 189.1604766845703
0, 1, 105, 181.8700714111328
0, 1, 106, 164.0106964111328
0, 1, 107, 124.1690521240234
0, 1, 108, 46.0477409362793
0, 1, 109, 10.36580085754395
0, 1, 110, 7.989968299865723
0, 1, 111, 5.729310989379883
0, 1, 112, 7.42325496673584
0, 1, 113, 8.10899829864502
0, 1, 114, 5.380511283874512
0, 1, 115, 2.703375577926636
0, 1, 116, 2.531991720199585
0, 1, 117, 1.919659376144409
0, 1, 118, 3.6237473487854
0, 1, 119, 0.9885680675506592
0, 1, 120, 3.28665566444397
0, 1, 121, 3.445972681045532
0, 1, 122, 3.709514141082764
0, 1, 123, 2.633798122406006
0, 1, 124, 1.400087237358093
0, 1, 125, 1.846729278564453
0, 1, 126, 2.012706756591797
0, 1, 127, 3.182119131088257
0, 2, 0, 2.938901424407959
0, 2, 1, 2.266876220703125
0, 2, 2, 2.211947917938232
0, 2, 3, 1.174663424491882
0, 2, 4, 2.524667739868164
0, 2, 5, 1.345943331718445
0, 2, 6, 2.760766506195068
0, 2, 7, 1.603261470794678
0, 2, 8, 2.354615926742554
0, 2, 9, 2.854235649108887
0, 2, 10, 4.023271560668945
0, 2, 11, 3.886324405670166
0, 2, 12, 4.074167251586914
0, 2, 13, 2.864366769790649
0, 2, 14, 4.352877140045166
0, 2, 15, 7.999614715576172
0, 2, 16, 4.527511119842529
0, 2, 17, 8.894562721252441
0, 2, 18, 14.83253955841064
0, 2, 19, 77.98865509033203
0, 2, 20, 162.0949859619141
0, 2, 21, 183.6553344726562
0, 2, 22, 194.3310394287109
0, 2, 23, 184.5693969726562
0, 2, 24, 174.4762725830078
0, 2, 25, 184.4233703613281
0, 2, 26, 178.6021728515625
0, 2, 27, 189.8941345214844
0, 2, 28, 171.9227752685547
0, 2, 29, 168.4136199951172
0, 2, 30, 184.0962066650391
0, 2, 31, 182.0452117919922
0, 2, 32, 182.7326354980469
0, 2, 33, 191.7613372802734
0, 2, 34, 196.410400390625
0, 2, 35, 182.4684600830078
0, 2, 36, 186.2283477783203
0, 2, 37, 180.7900543212891
0, 2, 38, 183.2522583007812
0, 2, 39, 166.52490234375
0, 2, 40, 183.2450103759766
0, 2, 41, 185.5803070068359
0, 2, 42, 189.9116668701172
0, 2, 43, 193.3871002197266
0, 2, 44, 191.3311309814453
0, 2, 45, 190.4685821533203
0, 2, 46, 195.5914306640625
0, 2, 47, 188.4551086425781
0, 2, 48, 177.8338012695312
0, 2, 49, 197.2463073730469
0, 2, 50, 167.5536346435547
0, 2, 51, 183.8633575439453
0, 2, 52, 185.8004913330078
0, 2, 53, 195.2943878173828
0, 2, 54, 176.3418121337891
0, 2, 55, 173.8689117431641
0, 2, 56, 181.2092742919922
0, 2, 57, 199.9759063720703
0, 2, 58, 187.3220520019531
0, 2, 59, 189.0912170410156
0, 2, 60, 197.1129913330078
0, 2, 61, 193.0485992431641
0, 2, 62, 191.3655700683594
0, 2, 63, 170.0013580322266
0, 2, 64, 191.2599029541016
0, 2, 65, 203.6391448974609
0, 2, 66, 195.6546630859375
0, 2, 67, 186.0999145507812
0, 2, 68, 183.9560699462891
0, 2, 69, 186.6629180908203
0, 2, 70, 203.0776824951172
0, 2, 71, 174.2570190429688
0, 2, 72, 187.5725250244141
0, 2, 73, 177.4775695800781
0, 2, 74, 180.6817932128906
0, 2, 75, 196.6878662109375
0, 2, 76, 183.6531066894531
0, 2, 77, 176.9598236083984
0, 2, 78, 198.0126647949219
0, 2, 79, 177.6598205566406
0, 2, 80, 186.9846496582031
0, 2, 81, 188.0903472900391
0, 2, 82, 206.0342407226562
0, 2, 83, 203.6333160400391
0, 2, 84, 188.6582946777344
0, 2, 85, 170.5929107666016
0, 2, 86, 194.7680511474609
0, 2, 87, 172.5276489257812
0, 2, 88, 178.0605773925781
0, 2, 89, 185.5528106689453
0, 2, 90, 178.0703887939453
0, 2, 91, 173.4006195068359
0, 2, 92, 197.1630859375
0, 2, 93, 192.890869140625
0, 2, 94, 198.6729583740234
0, 2, 95, 196.7537536621094
0, 2, 96, 186.8173522949219
0, 2, 97, 171.5803527832031
0, 2, 98, 173.2142333984375
0, 2, 99, 162.4293975830078
0, 2, 100, 187.5365600585938
0, 2, 101, 196.4930419921875
0, 2, 102, 175.7943878173828
0, 2, 103, 199.5826263427734
0, 2, 104, 187.5025329589844
0, 2, 105, 201.1335296630859
0, 2, 106, 195.0954437255859
0, 2, 107, 149.2061614990234
0, 2, 108, 79.37101745605469
0, 2, 109, 17.89561462402344
0, 2, 110, 7.014703750610352
0, 2, 111, 5.78534460067749
0, 2, 112, 4.257670402526855
0, 2, 113, 4.197702407836914
0, 2, 114, 8.989917755126953
0, 2, 115, 3.060627698898315
0, 2, 116, 1.412626385688782
0, 2, 117, 1.473264932632446
0, 2, 118, 2.415349245071411
0, 2, 119, 3.495030641555786
0, 2, 120, 1.789667129516602
0, 2, 121, 3.790127515792847
0, 2, 122, 2.72186279296875
0, 2, 123, 2.945969581604004
0, 2, 124, 2.49553918838501
0, 2, 125, 1.332258820533752
0, 2, 126, 3.211411952972412
0, 2, 127, 0.687584400177002
0, 3, 0, 1.542715668678284
0, 3, 1, 1.578002333641052
0, 3, 2, 0.9854667186737061
0, 3, 3, 1.615681767463684
0, 3, 4, 4.01575756072998
0, 3, 5, 0.9846726655960083
0, 3, 6, 3.009305238723755
0, 3, 7, 2.142391204833984
0, 3, 8, 1.906361937522888
0, 3, 9, 1.929674029350281
0, 3, 10, 2.300748348236084
0, 3, 11, 3.591606855392456
0, 3, 12, 3.841634273529053
0, 3, 13, 4.094809055328369
0, 3, 14, 4.399997234344482
0, 3, 15, 6.244745254516602
0, 3, 16, 7.287772178649902
0, 3, 17, 6.345410823822021
0, 3, 18, 33.10715866088867
0, 3, 19, 114.7267456054688
0, 3, 20, 181.0709075927734
0, 3, 21, 173.7310485839844
0, 3, 22, 179.0676727294922
0, 3, 23, 187.5103149414062
0, 3, 24, 180.5023498535156
0, 3, 25, 168.7734832763672
0, 3, 26, 180.7803955078125
0, 3, 27, 189.5509033203125
0, 3, 28, 182.1997680664062
0, 3, 29, 196.8952026367188
0, 3, 30, 185.3238677978516
0, 3, 31, 193.0068054199219
0, 3, 32, 205.5238189697266
0, 3, 33, 194.7187347412109
0, 3, 34, 186.9458770751953
0, 3, 35, 173.8314971923828
0, 3, 36, 185.6441345214844
0, 3, 37, 200.5613555908203
0, 3, 38, 190.5137176513672
0, 3, 39, 184.2405395507812
0, 3, 40, 165.6902465820312
0, 3, 41, 174.4644317626953
0, 3, 42, 186.1147766113281
0, 3, 43, 181.3135375976562
0, 3, 44, 202.7000579833984
0, 3, 45, 206.8768157958984
0, 3, 46, 198.7425231933594
0, 3, 47, 193.6477508544922
0, 3, 48, 197.47314453125
0, 3, 49, 180.5438995361328
0, 3, 50, 186.9247283935547
0, 3, 51, 173.9468536376953
0, 3, 52, 186.9720306396484
0, 3, 53, 176.7703704833984
0, 3, 54, 179.4366455078125
0, 3, 55, 176.5749969482422
0, 3, 56, 182.8714599609375
0, 3, 57, 175.2591552734375
0, 3, 58, 201.8451232910156
0, 3, 59, 195.9443664550781
0, 3, 60, 186.1636047363281
0, 3, 61, 181.4112701416016
0, 3, 62, 181.6924285888672
0, 3, 63, 184.4984588623047
0, 3, 64, 188.8694458007812
0, 3, 65, 187.5112609863281
0, 3, 66, 175.2544860839844
0, 3, 67, 190.4492492675781
0, 3, 68, 212.0366058349609
0, 3, 69, 190.5436553955078
0, 3, 70, 185.3451385498047
0, 3, 71, 196.5787048339844
0, 3, 72, 185.9332122802734
0, 3, 73, 186.3935089111328
0, 3, 74, 193.8951568603516
0, 3, 75, 194.5155792236328
0, 3, 76, 191.9630889892578
0, 3, 77, 197.7377777099609
0, 3, 78, 191.1431121826172
0, 3, 79, 185.9090728759766
0, 3, 80, 189.1981506347656
0, 3, 81, 183.27392578125
0, 3, 82, 180.0478820800781
0, 3, 83, 194.9702301025391
0, 3, 84, 199.6653289794922
0, 3, 85, 191.6108856201172
0, 3, 86, 203.7443695068359
0, 3, 87, 196.5232238769531
0, 3, 88, 191.1714172363281
0, 3, 89, 193.2796783447266
0, 3, 90, 173.7608795166016
0, 3, 91, 155.6060485839844
0, 3, 92, 207.1463317871094
0, 3, 93, 196.1829071044922
0, 3, 94, 192.5804290771484
0, 3, 95, 210.7948608398438
0, 3, 96, 209.6862030029297
0, 3, 97, 167.4098510742188
0, 3, 98, 169.2496490478516
0, 3, 99, 180.5373077392578
0, 3, 100, 176.6328735351562
0, 3, 101, 198.4195098876953
0, 3, 102, 195.3968505859375
0, 3, 103, 194.8550567626953
0, 3, 104, 201.9106292724609
0, 3, 105, 175.9386444091797
0, 3, 106, 181.2467956542969
0, 3, 107, 169.6816101074219
0, 3, 108, 107.6340866088867
0, 3, 109, 27.07924270629883
0, 3, 110, 7.592452526092529
0, 3, 111, 6.444182872772217
0, 3, 112, 3.953078746795654
0, 3, 113, 6.326272010803223
0, 3, 114, 4.743748664855957
0, 3, 115, 4.817744255065918
0, 3, 116, 6.685818672180176
0, 3, 117, 5.890635967254639
0, 3, 118, 2.211502075195312
0, 3, 119, 2.792870283126831
0, 3, 120, 3.740555763244629
0, 3, 121, 1.706169843673706
0, 3, 122, 3.909298419952393
0, 3, 123, 1.276845812797546
0, 3, 124, 2.388093948364258
0, 3, 125, 1.773017644882202
0, 3, 126, 2.403973817825317
0, 3, 127, 1.178433418273926
0, 4, 0, 1.094241857528687
0, 4, 1, 1.374403238296509
0, 4, 2, 2.021153926849365
0, 4, 3, 3.972622871398926
0, 4, 4, 3.446823358535767
0, 4, 5, 2.691582918167114
0, 4, 6, 2.883257389068604
0, 4, 7, 2.20972466468811
0, 4, 8, 1.700161695480347
0, 4, 9, 2.104725122451782
0, 4, 10, 4.887577056884766
0, 4, 11, 3.68956470489502
0, 4, 12, 4.183485507965088
0, 4, 13, 4.581629753112793
0, 4, 14, 4.607375621795654
0, 4, 15, 8.254205703735352
0, 4, 16, 5.91865873336792
0, 4, 17, 11.74269104003906
0, 4, 18, 54.1766471862793
0, 4, 19, 152.7482604980469
0, 4, 20, 192.7891082763672
0, 4, 21, 169.1985626220703
0, 4, 22, 186.9467620849609
0, 4, 23, 196.5652008056641
0, 4, 24, 192.2789001464844
0, 4, 25, 201.3457946777344
0, 4, 26, 182.2554016113281
0, 4, 27, 191.0789947509766
0, 4, 28, 177.4692077636719
0, 4, 29, 206.0786743164062
0, 4, 30, 195.5693664550781
0, 4, 31, 193.0808410644531
0, 4, 32, 208.8215942382812
0, 4, 33, 190.1392211914062
0, 4, 34, 192.0189208984375
0, 4, 35, 212.5808868408203
0, 4, 36, 194.2679901123047
0, 4, 37, 177.7775268554688
0, 4, 38, 197.0764312744141
0, 4, 39, 189.9843292236328
0, 4, 40, 186.4956970214844
0, 4, 41, 188.7756500244141
0, 4, 42, 205.5171203613281
0, 4, 43, 173.5753936767578
0, 4, 44, 183.2247009277344
0, 4, 45, 197.1542358398438
0, 4, 46, 185.8134307861328
0, 4, 47, 180.3657989501953
0, 4, 48, 185.9364013671875
0, 4, 49, 174.9141235351562
0, 4, 50, 186.2220306396484
0, 4, 51, 197.5605316162109
0, 4, 52, 222.9755096435547
0, 4, 53, 205.7957611083984
0, 4, 54, 189.0513458251953
0, 4, 55, 174.7418670654297
0, 4, 56, 191.462890625
0, 4, 57, 193.0634002685547
0, 4, 58, 186.6961975097656
0, 4, 59, 188.9836120605469
0, 4, 60, 195.4907989501953
0, 4, 61, 193.1031188964844
0, 4, 62, 191.2378234863281
0, 4, 63, 178.0168609619141
0, 4, 64, 213.2618408203125
0, 4, 65, 192.4070739746094
0, 4, 66, 201.9513397216797
0, 4, 67, 201.9245452880859
0, 4, 68, 201.3186645507812
0, 4, 69, 198.7032928466797
0, 4, 70, 206.0077667236328
0, 4, 71, 206.9342346191406
0, 4, 72, 215.1161651611328
0, 4, 73, 185.7561798095703
0, 4, 74, 180.8170623779297
0, 4, 75, 185.8307037353516
0, 4, 76, 190.1620330810547
0, 4, 77, 183.0093841552734
0, 4, 78, 195.7924652099609
0, 4, 79, 204.1542663574219
0, 4, 80, 210.9237976074219
0, 4, 81, 197.7396392822266
0, 4, 82, 182.2906646728516
0, 4, 83, 169.5012817382812
0, 4, 84, 192.6305084228516
0, 4, 85, 198.3334045410156
0, 4, 86, 181.2834625244141
0, 4, 87, 182.5001068115234
0, 4, 88, 203.7059936523438
0, 4, 89, 188.2749633789062
0, 4, 90, 211.7493286132812
0, 4, 91, 188.9665069580078
0, 4, 92, 196.1131896972656
0, 4, 93, 196.3284149169922
0, 4, 94, 181.5961456298828
0, 4, 95, 173.397705078125
0, 4, 96, 189.6908264160156
0, 4, 97, 193.6810913085938
0, 4, 98, 200.959228515625
0, 4, 99, 182.7038269042969
0, 4, 100, 183.3849487304688
0, 4, 101, 176.8347625732422
0, 4, 102, 173.2784271240234
0, 4, 103, 185.2354278564453
0, 4, 104, 210.10498046875
0, 4, 105, 189.5692749023438
0, 4, 106, 178.6827239990234
0, 4, 107, 181.7473297119141
0, 4, 108, 151.7461395263672
0, 4, 109, 49.71826934814453
0, 4, 110, 11.65530395507812
0, 4, 111, 7.434309959411621
0, 4, 112, 5.431272506713867
0, 4, 113, 7.7185959815979
0, 4, 114, 4.797157287597656
0, 4, 115, 3.982660055160522
0, 4, 116, 6.242101192474365
0, 4, 117, 2.948981285095215
0, 4, 118, 4.976641654968262
0, 4, 119, 3.753566026687622
0, 4, 120, 2.607261657714844
0, 4, 121, 1.554885149002075
0, 4, 122, 2.268188238143921
0, 4, 123, 1.5145503282547
0, 4, 124, 3.846237659454346
0, 4, 125, 2.635746240615845
0, 4, 126, 1.253880023956299
0, 4, 127, 1.445152640342712
0, 5, 0, 1.695739269256592
0, 5, 1, 3.20583701133728
0, 5, 2, 6.05993127822876
0, 5, 3, 3.228681087493896
0, 5, 4, 2.411521196365356
0, 5, 5, 1.302773118019104
0, 5, 6, 2.732891321182251
0, 5, 7, 3.417219877243042
0, 5, 8, 1.509620070457458
0, 5, 9, 2.764514207839966
0, 5, 10, 3.659532308578491
0, 5, 11, 3.012987375259399
0, 5, 12, 5.550724506378174
0, 5, 13, 3.567804336547852
0, 5, 14, 5.323835372924805
0, 5, 15, 9.563034057617188
0, 5, 16, 7.922513961791992
0, 5, 17, 21.96236419677734
0, 5, 18, 83.00102233886719
0, 5, 19, 165.1282806396484
0, 5, 20, 185.2015380859375
0, 5, 21, 178.8489074707031
0, 5, 22, 171.9055938720703
0, 5, 23, 202.9379425048828
0, 5, 24, 186.7477569580078
0, 5, 25, 208.0603332519531
0, 5, 26, 181.5197601318359
0, 5, 27, 195.2308654785156
0, 5, 28, 190.5596008300781
0, 5, 29, 195.3275146484375
0, 5, 30, 177.2266998291016
0, 5, 31, 180.1195068359375
0, 5, 32, 188.9343414306641
0, 5, 33, 169.8464202880859
0, 5, 34, 195.0643157958984
0, 5, 35, 199.2152557373047
0, 5, 36, 168.8362579345703
0, 5, 37, 197.4630126953125
0, 5, 38, 182.08935546875
0, 5, 39, 186.6471710205078
0, 5, 40, 196.3388061523438
0, 5, 41, 178.3274688720703
0, 5, 42, 188.7904815673828
0, 5, 43, 193.0419616699219
0, 5, 44, 199.4075775146484
0, 5, 45, 186.1317749023438
0, 5, 46, 192.7543182373047
0, 5, 47, 181.7018280029297
0, 5, 48, 177.332763671875
0, 5, 49, 176.8853302001953
0, 5, 50, 187.0380859375
0, 5, 51, 172.0670166015625
0, 5, 52, 168.3654479980469
0, 5, 53, 182.9308319091797
0, 5, 54, 172.3583068847656
0, 5, 55, 215.6786346435547
0, 5, 56, 181.3370666503906
0, 5, 57, 207.0648651123047
0, 5, 58, 182.0149841308594
0, 5, 59, 181.7676696777344
0, 5, 60, 219.2433929443359
0, 5, 61, 185.4693908691406
0, 5, 62, 178.4131774902344
0, 5, 63, 182.2455444335938
0, 5, 64, 195.7234344482422
0, 5, 65, 214.0243072509766
0, 5, 66, 192.0843048095703
0, 5, 67, 199.7547149658203
0, 5, 68, 186.4286346435547
0, 5, 69, 185.6679382324219
0, 5, 70, 184.2719879150391
0, 5, 71, 195.0711364746094
0, 5, 72, 199.0154571533203
0, 5, 73, 202.1765594482422
0, 5, 74, 179.8783416748047
0, 5, 75, 204.2644958496094
0, 5, 76, 216.4622192382812
0, 5, 77, 181.0374603271484
0, 5, 78, 194.8321533203125
0, 5, 79, 189.6424713134766
0, 5, 80, 197.2082214355469
0, 5, 81, 204.2015991210938
0, 5, 82, 203.864990234375
0, 5, 83, 188.1328887939453
0, 5, 84, 204.9528350830078
0, 5, 85, 177.938720703125
0, 5, 86, 198.2291564941406
0, 5, 87, 187.6513519287109
0, 5, 88, 177.3544006347656
0, 5, 89, 193.9072723388672
0, 5, 90, 198.7929382324219
0, 5, 91, 194.9846801757812
0, 5, 92, 190.4477386474609
0, 5, 93, 190.3346405029297
0, 5, 94, 208.3618621826172
0, 5, 95, 176.6654663085938
0, 5, 96, 182.3689880371094
0, 5, 97, 191.2799530029297
0, 5, 98, 188.8005676269531
0, 5, 99, 195.6865234375
0, 5, 100, 187.3489685058594
0, 5, 101, 195.4325103759766
0, 5, 102, 182.2595520019531
0, 5, 103, 176.5033569335938
0, 5, 104, 189.8676147460938
0, 5, 105, 189.3393096923828
0, 5, 106, 177.7685089111328
0, 5, 107, 181.1587677001953
0, 5, 108, 176.6157379150391
0, 5, 109, 91.08641815185547
0, 5, 110, 29.95611381530762
0, 5, 111, 9.24324893951416
0, 5, 112, 6.097844123840332
0, 5, 113, 5.354695796966553
0, 5, 114, 5.672087669372559
0, 5, 115, 7.202522277832031
0, 5, 116, 4.640788555145264
0, 5, 117, 3.016542911529541
0, 5, 118, 3.512494564056396
0, 5, 119, 3.134830474853516
0, 5, 120, 2.068149328231812
0, 5, 121, 1.632146120071411
0, 5, 122, 1.840506196022034
0, 5, 123, 5.52794075012207
0, 5, 124, 2.559587478637695
0, 5, 125, 0.7509308457374573
0, 5, 126, 2.12143611907959
0, 5, 127, 1.915802240371704
0, 6, 0, 4.148319721221924
0, 6, 1, 2.653423309326172
0, 6, 2, 3.219220638275146
0, 6, 3, 2.08124852180481
0, 6, 4, 3.544450044631958
0, 6, 5, 3.181587696075439
0, 6, 6, 3.60125732421875
0, 6, 7, 3.790978908538818
0, 6, 8, 4.985908508300781
0, 6, 9, 3.103700160980225
0, 6, 10, 4.229316711425781
0, 6, 11, 3.508800506591797
0, 6, 12, 4.944473743438721
0, 6, 13, 6.327535629272461
0, 6, 14, 5.047460079193115
0, 6, 15, 6.653225421905518
0, 6, 16, 12.52747535705566
0, 6, 17, 29.0041446685791
0, 6, 18, 113.1575622558594
0, 6, 19, 194.1382446289062
0, 6, 20, 195.208251953125
0, 6, 21, 198.5033416748047
0, 6, 22, 191.359130859375
0, 6, 23, 191.1262512207031
0, 6, 24, 201.2511291503906
0, 6, 25, 185.7788391113281
0, 6, 26, 186.7234649658203
0, 6, 27, 192.9453582763672
0, 6, 28, 187.8515472412109
0, 6, 29, 210.4913177490234
0, 6, 30, 190.0063171386719
0, 6, 31, 193.0903930664062
0, 6, 32, 209.5013885498047
0, 6, 33, 185.3589935302734
0, 6, 34, 196.9540405273438
0, 6, 35, 187.7475891113281
0, 6, 36, 180.5840301513672
0, 6, 37, 184.1654510498047
0, 6, 38, 185.9208831787109
0, 6, 39, 194.4565277099609
0, 6, 40, 173.8460540771484
0, 6, 41, 185.8910522460938
0, 6, 42, 173.8203887939453
0, 6, 43, 209.7163391113281
0, 6, 44, 210.1923675537109
0, 6, 45, 194.6423950195312
0, 6, 46, 188.1528930664062
0, 6, 47, 204.0381622314453
0, 6, 48, 189.2383270263672
0, 6, 49, 178.8011627197266
0, 6, 50, 181.5795135498047
0, 6, 51, 196.0550384521484
0, 6, 52, 197.7973480224609
0, 6, 53, 185.5246124267578
0, 6, 54, 175.8608551025391
0, 6, 55, 194.4882354736328
0, 6, 56, 201.9718780517578
0, 6, 57, 190.2977905273438
0, 6, 58, 180.3657379150391
0, 6, 59, 194.5893096923828
0, 6, 60, 185.1765747070312
0, 6, 61, 194.95166015625
0, 6, 62, 196.1676788330078
0, 6, 63, 187.4076843261719
0, 6, 64, 167.5667877197266
0, 6, 65, 185.4993743896484
0, 6, 66, 197.3413543701172
0, 6, 67, 213.8939971923828
0, 6, 68, 180.2744445800781
0, 6, 69, 171.9814605712891
0, 6, 70, 187.0020904541016
0, 6, 71, 170.5596771240234
0, 6, 72, 176.5723876953125
0, 6, 73, 176.5841979980469
0, 6, 74, 209.9277191162109
0, 6, 75, 228.0264587402344
0, 6, 76, 184.0501403808594
0, 6, 77, 173.0660400390625
0, 6, 78, 175.2223663330078
0, 6, 79, 187.8510131835938
0, 6, 80, 187.6284790039062
0, 6, 81, 208.4873199462891
0, 6, 82, 194.8118591308594
0, 6, 83, 195.4695587158203
0, 6, 84, 197.146728515625
0, 6, 85, 180.7134246826172
0, 6, 86, 200.864013671875
0, 6, 87, 185.5175933837891
0, 6, 88, 194.9932708740234
0, 6, 89, 188.2897186279297
0, 6, 90, 205.509765625
0, 6, 91, 199.7941131591797
0, 6, 92, 172.3334350585938
0, 6, 93, 194.6126556396484
0, 6, 94, 192.9850616455078
0, 6, 95, 187.7787780761719
0, 6, 96, 189.8606414794922
0, 6, 97, 194.6194610595703
0, 6, 98, 182.6735687255859
0, 6, 99, 175.2985076904297
0, 6, 100, 201.7133178710938
0, 6, 101, 167.9870758056641
0, 6, 102, 202.1929473876953
0, 6, 103, 195.9163055419922
0, 6, 104, 183.4760284423828
0, 6, 105, 193.7537994384766
0, 6, 106, 176.9387664794922
0, 6, 107, 194.9893341064453
0, 6, 108, 172.9554138183594
0, 6, 109, 115.8295822143555
0, 6, 110, 35.3109245300293
0, 6, 111, 9.204378128051758
0, 6, 112, 8.230525016784668
0, 6, 113, 5.404860973358154
0, 6, 114, 6.270656585693359
0, 6, 115, 4.322713851928711
0, 6, 116, 3.868706703186035
0, 6, 117, 3.223023891448975
0, 6, 118, 3.340884447097778
0, 6, 119, 4.618080139160156
0, 6, 120, 2.029872179031372
0, 6, 121, 5.813928127288818
0, 6, 122, 3.1643385887146
0, 6, 123, 2.752061128616333
0, 6, 124, 2.686405181884766
0, 6, 125, 4.007331848144531
0, 6, 126, 1.991921663284302
0, 6, 127, 1.792465925216675
0, 7, 0, 4.071447849273682
0, 7, 1, 2.404770135879517
0, 7, 2, 2.521356344223022
0, 7, 3, 1.955745339393616
0, 7, 4, 2.037583827972412
0, 7, 5, 2.056917667388916
0, 7, 6, 1.606776595115662
0, 7, 7, 1.057246923446655
0, 7, 8, 3.013190507888794
0, 7, 9, 2.992689609527588
0, 7, 10, 5.129898071289062
0, 7, 11, 4.415743350982666
0, 7, 12, 6.647457599639893
0, 7, 13, 6.127044677734375
0, 7, 14, 6.92983341217041
0, 7, 15, 6.978668689727783
0, 7, 16, 15.8669261932373
0, 7, 17, 53.09544372558594
0, 7, 18, 161.4720153808594
0, 7, 19, 182.3241882324219
0, 7, 20, 179.5841522216797
0, 7, 21, 179.9285125732422
0, 7, 22, 190.8275451660156
0, 7, 23, 202.2682952880859
0, 7, 24, 178.9386138916016
0, 7, 25, 212.5993957519531
0, 7, 26, 189.6658935546875
0, 7, 27, 181.7998504638672
0, 7, 28, 182.9273223876953
0, 7, 29, 208.7627258300781
0, 7, 30, 193.1703338623047
0, 7, 31, 175.2272186279297
0, 7, 32, 190.2796173095703
0, 7, 33, 179.6668701171875
0, 7, 34, 193.2115325927734
0, 7, 35, 197.0126800537109
0, 7, 36, 186.6702728271484
0, 7, 37, 212.9277648925781
0, 7, 38, 190.7595062255859
0, 7, 39, 173.8030395507812
0, 7, 40, 183.0549926757812
0, 7, 41, 185.3212585449219
0, 7, 42, 179.9148101806641
0, 7, 43, 176.7849731445312
0, 7, 44, 179.3177032470703
0, 7, 45, 174.1216430664062
0, 7, 46, 188.2829437255859
0, 7, 47, 197.1392211914062
0, 7, 48, 184.7745819091797
0, 7, 49, 198.4350433349609
0, 7, 50, 187.7951049804688
0, 7, 51, 205.2726593017578
0, 7, 52, 204.7917938232422
0, 7, 53, 191.3079528808594
0, 7, 54, 195.9666137695312
0, 7, 55, 203.7739715576172
0, 7, 56, 182.8884124755859
0, 7, 57, 182.9858703613281
0, 7, 58, 191.6356048583984
0, 7, 59, 187.6324768066406
0, 7, 60, 203.2379302978516
0, 7, 61, 170.9077301025391
0, 7, 62, 203.3757781982422
0, 7, 63, 189.1418914794922
0, 7, 64, 200.6743927001953
0, 7, 65, 195.6878204345703
0, 7, 66, 206.5385284423828
0, 7, 67, 219.237548828125
0, 7, 68, 161.685546875
0, 7, 69, 193.9222412109375
0, 7, 70, 218.6779479980469
0, 7, 71, 184.3850708007812
0, 7, 72, 181.4630889892578
0, 7, 73, 176.5997009277344
0, 7, 74, 207.5189819335938
0, 7, 75, 202.8867034912109
0, 7, 76, 215.1956634521484
0, 7, 77, 175.8824615478516
0, 7, 78, 176.5093536376953
0, 7, 79, 193.7635955810547
0, 7, 80, 195.6669616699219
0, 7, 81, 214.9248962402344
0, 7, 82, 183.4685516357422
0, 7, 83, 205.1249237060547
0, 7, 84, 192.2928314208984
0, 7, 85, 184.989990234375
0, 7, 86, 200.9790649414062
0, 7, 87, 227.6418914794922
0, 7, 88, 194.5500640869141
0, 7, 89, 177.9961395263672
0, 7, 90, 182.4268188476562
0, 7, 91, 194.1365051269531
0, 7, 92, 194.8409881591797
0, 7, 93, 198.3932647705078
0, 7, 94, 176.5370025634766
0, 7, 95, 198.0456848144531
0, 7, 96, 208.8231811523438
0, 7, 97, 189.6466674804688
0, 7, 98, 177.4696044921875
0, 7, 99, 196.5968017578125
0, 7, 100, 181.5098114013672
0, 7, 101, 199.2038726806641
0, 7, 102, 184.8724212646484
0, 7, 103, 181.7931976318359
0, 7, 104, 174.2666015625
0, 7, 105, 196.2902374267578
0, 7, 106, 205.0759429931641
0, 7, 107, 175.8029479980469
0, 7, 108, 176.7474670410156
0, 7, 109, 136.2306213378906
0, 7, 110, 55.55535125732422
0, 7, 111, 9.905045509338379
0, 7, 112, 7.868226528167725
0, 7, 113, 8.607195854187012
0, 7, 114, 7.393891334533691
0, 7, 115, 5.561619281768799
0, 7, 116, 3.769212961196899
0, 7, 117, 3.864003896713257
0, 7, 118, 3.336330890655518
0, 7, 119, 3.236127614974976
0, 7, 120, 2.694248199462891
0, 7, 121, 3.43953013420105
0, 7, 122, 4.096320152282715
0, 7, 123, 1.372562646865845
0, 7, 124, 1.101280570030212
0, 7, 125, 1.577755570411682
0, 7, 126, 5.546629905700684
0, 7, 127, 1.684474349021912
0, 8, 0, 5.222963809967041
0, 8, 1, 1.664097785949707
0, 8, 2, 2.706512451171875
0, 8, 3, 4.220962047576904
0, 8, 4, 0.9368782043457031
0, 8, 5, 2.727768182754517
0, 8, 6, 2.974580526351929
0, 8, 7, 2.603132247924805
0, 8, 8, 3.582591533660889
0, 8, 9, 3.556798219680786
0, 8, 10, 2.999040365219116
0, 8, 11, 2.544617891311646
0, 8, 12, 5.024143218994141
0, 8, 13, 5.390211582183838
0, 8, 14, 7.514804363250732
0, 8, 15, 8.525548934936523
0, 8, 16, 19.00961875915527
0, 8, 17, 73.73091888427734
0, 8, 18, 142.3034057617188
0, 8, 19, 179.6607818603516
0, 8, 20, 192.6885986328125
0, 8, 21, 192.2210235595703
0, 8, 22, 179.5418853759766
0, 8, 23, 172.5485687255859
0, 8, 24, 192.2738494873047
0, 8, 25, 185.6790771484375
0, 8, 26, 192.9336242675781
0, 8, 27, 187.0214385986328
0, 8, 28, 186.3687438964844
0, 8, 29, 207.4198303222656
0, 8, 30, 197.0309753417969
0, 8, 31, 183.5659027099609
0, 8, 32, 198.898193359375
0, 8, 33, 206.4246826171875
0, 8, 34, 202.6990661621094
0, 8, 35, 186.367431640625
0, 8, 36, 182.7913513183594
