# TOPAS Version: 3.1.p3
# Parameter File: batch_inserts_174.txt
# Results for scorer Readout_Adipose
# Scored in component: MyBox
# X in 1 bin  of 0.65 cm
# Y in 512 bins of 0.0783984 cm
# Z in 128 bins of 0.078125 cm
# EnergyDeposit ( MeV ) : Sum   
0, 0, 0, 1.121472477912903
0, 0, 1, 4.319455146789551
0, 0, 2, 1.026865839958191
0, 0, 3, 0.5588785409927368
0, 0, 4, 5.27109956741333
0, 0, 5, 1.012816667556763
0, 0, 6, 1.591798663139343
0, 0, 7, 3.005154848098755
0, 0, 8, 2.769615650177002
0, 0, 9, 4.177801609039307
0, 0, 10, 2.403506278991699
0, 0, 11, 3.667150259017944
0, 0, 12, 4.551558971405029
0, 0, 13, 2.300078392028809
0, 0, 14, 5.261284828186035
0, 0, 15, 5.20067834854126
0, 0, 16, 3.854913949966431
0, 0, 17, 7.484332084655762
0, 0, 18, 7.266775608062744
0, 0, 19, 25.68472290039062
0, 0, 20, 95.66075897216797
0, 0, 21, 151.8534851074219
0, 0, 22, 154.6719055175781
0, 0, 23, 144.7074890136719
0, 0, 24, 159.8795013427734
0, 0, 25, 166.9877624511719
0, 0, 26, 166.5314636230469
0, 0, 27, 174.1962585449219
0, 0, 28, 179.4234771728516
0, 0, 29, 175.8924255371094
0, 0, 30, 174.0736236572266
0, 0, 31, 166.6052703857422
0, 0, 32, 164.5129699707031
0, 0, 33, 166.1648254394531
0, 0, 34, 177.6885070800781
0, 0, 35, 174.2153625488281
0, 0, 36, 158.9822387695312
0, 0, 37, 162.3566284179688
0, 0, 38, 166.9812774658203
0, 0, 39, 158.8547210693359
0, 0, 40, 164.3717651367188
0, 0, 41, 165.76220703125
0, 0, 42, 142.9846954345703
0, 0, 43, 167.6380004882812
0, 0, 44, 178.8359680175781
0, 0, 45, 172.2208251953125
0, 0, 46, 165.8952789306641
0, 0, 47, 168.1568756103516
0, 0, 48, 169.0610046386719
0, 0, 49, 182.7303924560547
0, 0, 50, 169.4958648681641
0, 0, 51, 162.634765625
0, 0, 52, 162.3746948242188
0, 0, 53, 171.3680267333984
0, 0, 54, 161.0013275146484
0, 0, 55, 164.7477264404297
0, 0, 56, 189.8187713623047
0, 0, 57, 170.8048095703125
0, 0, 58, 163.7518157958984
0, 0, 59, 171.9545745849609
0, 0, 60, 169.9884490966797
0, 0, 61, 170.5692443847656
0, 0, 62, 183.6666412353516
0, 0, 63, 166.353271484375
0, 0, 64, 163.6504669189453
0, 0, 65, 176.1718444824219
0, 0, 66, 177.4242553710938
0, 0, 67, 165.4760437011719
0, 0, 68, 158.0456237792969
0, 0, 69, 158.6772918701172
0, 0, 70, 170.092529296875
0, 0, 71, 158.6878967285156
0, 0, 72, 164.4250640869141
0, 0, 73, 171.7225646972656
0, 0, 74, 163.10498046875
0, 0, 75, 163.5233306884766
0, 0, 76, 163.1116180419922
0, 0, 77, 171.8315124511719
0, 0, 78, 181.5265502929688
0, 0, 79, 175.4486846923828
0, 0, 80, 160.1260528564453
0, 0, 81, 159.2309417724609
0, 0, 82, 182.7142639160156
0, 0, 83, 176.8078918457031
0, 0, 84, 159.3790130615234
0, 0, 85, 181.1786956787109
0, 0, 86, 159.2138519287109
0, 0, 87, 176.7909851074219
0, 0, 88, 176.6059722900391
0, 0, 89, 174.6726531982422
0, 0, 90, 161.193603515625
0, 0, 91, 185.3848876953125
0, 0, 92, 164.3270874023438
0, 0, 93, 155.3131103515625
0, 0, 94, 168.9720001220703
0, 0, 95, 174.1768341064453
0, 0, 96, 184.0841979980469
0, 0, 97, 183.3424682617188
0, 0, 98, 185.2915191650391
0, 0, 99, 171.9900360107422
0, 0, 100, 160.2288360595703
0, 0, 101, 166.6200714111328
0, 0, 102, 170.8824920654297
0, 0, 103, 170.5221862792969
0, 0, 104, 169.0471649169922
0, 0, 105, 178.0670318603516
0, 0, 106, 158.2986145019531
0, 0, 107, 86.86351013183594
0, 0, 108, 21.01653289794922
0, 0, 109, 10.74009895324707
0, 0, 110, 6.029350280761719
0, 0, 111, 7.153543472290039
0, 0, 112, 4.613821506500244
0, 0, 113, 4.851272106170654
0, 0, 114, 2.118129968643188
0, 0, 115, 3.170063972473145
0, 0, 116, 2.301770925521851
0, 0, 117, 2.476535320281982
0, 0, 118, 3.211289167404175
0, 0, 119, 3.631374359130859
0, 0, 120, 1.733091115951538
0, 0, 121, 3.71656060218811
0, 0, 122, 4.230456829071045
0, 0, 123, 4.254329204559326
0, 0, 124, 1.603482127189636
0, 0, 125, 2.410150051116943
0, 0, 126, 3.251032829284668
0, 0, 127, 1.869224190711975
0, 1, 0, 1.155380487442017
0, 1, 1, 4.726609230041504
0, 1, 2, 2.948164701461792
0, 1, 3, 2.193129301071167
0, 1, 4, 1.946836113929749
0, 1, 5, 1.508672118186951
0, 1, 6, 1.662427544593811
0, 1, 7, 1.985519886016846
0, 1, 8, 2.869253396987915
0, 1, 9, 2.162930727005005
0, 1, 10, 3.278348207473755
0, 1, 11, 4.297979354858398
0, 1, 12, 2.646459817886353
0, 1, 13, 3.850219964981079
0, 1, 14, 5.170066356658936
0, 1, 15, 6.360315322875977
0, 1, 16, 8.215194702148438
0, 1, 17, 4.860078811645508
0, 1, 18, 11.55358695983887
0, 1, 19, 39.42842864990234
0, 1, 20, 125.8653411865234
0, 1, 21, 176.6699066162109
0, 1, 22, 194.8456726074219
0, 1, 23, 185.6724853515625
0, 1, 24, 182.238037109375
0, 1, 25, 192.1002502441406
0, 1, 26, 197.5886688232422
0, 1, 27, 188.4962615966797
0, 1, 28, 188.1957702636719
0, 1, 29, 184.2436065673828
0, 1, 30, 179.8518981933594
0, 1, 31, 180.9763641357422
0, 1, 32, 190.2854919433594
0, 1, 33, 190.7126617431641
0, 1, 34, 184.7211151123047
0, 1, 35, 193.1978454589844
0, 1, 36, 205.4505462646484
0, 1, 37, 187.4076843261719
0, 1, 38, 164.7153625488281
0, 1, 39, 171.8278350830078
0, 1, 40, 179.7903289794922
0, 1, 41, 185.3501281738281
0, 1, 42, 182.8828430175781
0, 1, 43, 185.5106506347656
0, 1, 44, 166.7054901123047
0, 1, 45, 188.1195678710938
0, 1, 46, 171.7838439941406
0, 1, 47, 185.1823425292969
0, 1, 48, 185.9617156982422
0, 1, 49, 185.9900970458984
0, 1, 50, 179.3914794921875
0, 1, 51, 191.5810852050781
0, 1, 52, 195.6878509521484
0, 1, 53, 195.4094848632812
0, 1, 54, 185.4857940673828
0, 1, 55, 165.7220001220703
0, 1, 56, 178.6651000976562
0, 1, 57, 177.7778625488281
0, 1, 58, 189.1517639160156
0, 1, 59, 193.8037719726562
0, 1, 60, 187.5241546630859
0, 1, 61, 178.2912292480469
0, 1, 62, 204.1222534179688
0, 1, 63, 174.3628234863281
0, 1, 64, 173.2668304443359
0, 1, 65, 185.2051849365234
0, 1, 66, 204.0361480712891
0, 1, 67, 182.4879760742188
0, 1, 68, 186.4788513183594
0, 1, 69, 189.3346710205078
0, 1, 70, 187.8750152587891
0, 1, 71, 171.6468811035156
0, 1, 72, 190.4234771728516
0, 1, 73, 190.561767578125
0, 1, 74, 200.8855590820312
0, 1, 75, 184.4232940673828
0, 1, 76, 174.8548583984375
0, 1, 77, 191.6314849853516
0, 1, 78, 189.3117218017578
0, 1, 79, 201.9355926513672
0, 1, 80, 185.2069702148438
0, 1, 81, 174.5442352294922
0, 1, 82, 207.1443786621094
0, 1, 83, 211.753662109375
0, 1, 84, 180.7668914794922
0, 1, 85, 169.6241302490234
0, 1, 86, 168.4288330078125
0, 1, 87, 184.7230987548828
0, 1, 88, 176.3456420898438
0, 1, 89, 187.9958648681641
0, 1, 90, 213.9916839599609
0, 1, 91, 180.8001556396484
0, 1, 92, 184.2206726074219
0, 1, 93, 180.5849151611328
0, 1, 94, 185.8866119384766
0, 1, 95, 183.9943237304688
0, 1, 96, 196.0409851074219
0, 1, 97, 183.0766448974609
0, 1, 98, 186.3485412597656
0, 1, 99, 175.3635864257812
0, 1, 100, 170.6167602539062
0, 1, 101, 178.3558502197266
0, 1, 102, 182.3126831054688
0, 1, 103, 172.9445953369141
0, 1, 104, 189.5996246337891
0, 1, 105, 181.8658447265625
0, 1, 106, 163.7812805175781
0, 1, 107, 123.2460708618164
0, 1, 108, 46.91270446777344
0, 1, 109, 9.283113479614258
0, 1, 110, 9.414883613586426
0, 1, 111, 6.877488613128662
0, 1, 112, 6.720357894897461
0, 1, 113, 6.753556728363037
0, 1, 114, 6.080584526062012
0, 1, 115, 6.395063877105713
0, 1, 116, 4.979321956634521
0, 1, 117, 2.269723653793335
0, 1, 118, 3.099015474319458
0, 1, 119, 0.9558870792388916
0, 1, 120, 3.599075317382812
0, 1, 121, 3.981053113937378
0, 1, 122, 2.003098964691162
0, 1, 123, 3.658325672149658
0, 1, 124, 1.795842051506042
0, 1, 125, 2.551199436187744
0, 1, 126, 1.181533575057983
0, 1, 127, 2.734902143478394
0, 2, 0, 1.376521468162537
0, 2, 1, 2.160007238388062
0, 2, 2, 3.652790069580078
0, 2, 3, 1.660175323486328
0, 2, 4, 1.245140552520752
0, 2, 5, 1.050603985786438
0, 2, 6, 2.961949586868286
0, 2, 7, 1.721508622169495
0, 2, 8, 0.4344187378883362
0, 2, 9, 3.218870162963867
0, 2, 10, 6.930272102355957
0, 2, 11, 4.718542098999023
0, 2, 12, 3.870240688323975
0, 2, 13, 4.575978755950928
0, 2, 14, 4.746890068054199
0, 2, 15, 4.633047580718994
0, 2, 16, 5.089325904846191
0, 2, 17, 9.474307060241699
0, 2, 18, 14.80966758728027
0, 2, 19, 76.27639770507812
0, 2, 20, 162.3264007568359
0, 2, 21, 182.6378173828125
0, 2, 22, 193.9644317626953
0, 2, 23, 184.2868499755859
0, 2, 24, 174.1026153564453
0, 2, 25, 184.60693359375
0, 2, 26, 179.3081817626953
0, 2, 27, 191.3431396484375
0, 2, 28, 171.6313781738281
0, 2, 29, 168.8653869628906
0, 2, 30, 187.1560821533203
0, 2, 31, 182.5480346679688
0, 2, 32, 184.5760955810547
0, 2, 33, 190.5276336669922
0, 2, 34, 197.3218536376953
0, 2, 35, 182.4789886474609
0, 2, 36, 187.3975372314453
0, 2, 37, 181.0643157958984
0, 2, 38, 183.8897705078125
0, 2, 39, 166.0933227539062
0, 2, 40, 184.179931640625
0, 2, 41, 185.2644805908203
0, 2, 42, 190.4579925537109
0, 2, 43, 194.0839691162109
0, 2, 44, 191.7950286865234
0, 2, 45, 190.4427490234375
0, 2, 46, 195.9486694335938
0, 2, 47, 189.2192687988281
0, 2, 48, 179.8956756591797
0, 2, 49, 198.5160675048828
0, 2, 50, 167.5979766845703
0, 2, 51, 187.65380859375
0, 2, 52, 185.3771514892578
0, 2, 53, 195.0511016845703
0, 2, 54, 175.6790161132812
0, 2, 55, 173.4990234375
0, 2, 56, 181.6315307617188
0, 2, 57, 200.3509368896484
0, 2, 58, 186.8763580322266
0, 2, 59, 189.0941467285156
0, 2, 60, 196.4659118652344
0, 2, 61, 193.0613250732422
0, 2, 62, 189.7444763183594
0, 2, 63, 168.985595703125
0, 2, 64, 192.5281372070312
0, 2, 65, 202.5545196533203
0, 2, 66, 196.3680725097656
0, 2, 67, 185.3631439208984
0, 2, 68, 182.5122528076172
0, 2, 69, 187.1663513183594
0, 2, 70, 202.8988952636719
0, 2, 71, 176.78369140625
0, 2, 72, 186.5428314208984
0, 2, 73, 177.9007415771484
0, 2, 74, 181.7153625488281
0, 2, 75, 195.4367370605469
0, 2, 76, 183.9647979736328
0, 2, 77, 178.3638153076172
0, 2, 78, 197.6995239257812
0, 2, 79, 177.1219024658203
0, 2, 80, 185.9091644287109
0, 2, 81, 187.3019561767578
0, 2, 82, 205.2172393798828
0, 2, 83, 203.6368865966797
0, 2, 84, 187.9814453125
0, 2, 85, 170.2971343994141
0, 2, 86, 195.0650939941406
0, 2, 87, 171.7949371337891
0, 2, 88, 176.7356262207031
0, 2, 89, 184.5298461914062
0, 2, 90, 177.7249450683594
0, 2, 91, 173.7154998779297
0, 2, 92, 197.8002624511719
0, 2, 93, 196.4546661376953
0, 2, 94, 201.1917114257812
0, 2, 95, 193.0428009033203
0, 2, 96, 186.3488159179688
0, 2, 97, 172.4025726318359
0, 2, 98, 173.3633422851562
0, 2, 99, 163.3382873535156
0, 2, 100, 186.4556121826172
0, 2, 101, 196.6243896484375
0, 2, 102, 176.4159698486328
0, 2, 103, 199.8994293212891
0, 2, 104, 187.69091796875
0, 2, 105, 200.4875946044922
0, 2, 106, 195.0587615966797
0, 2, 107, 149.6328277587891
0, 2, 108, 79.02745819091797
0, 2, 109, 20.44562339782715
0, 2, 110, 9.401992797851562
0, 2, 111, 5.203319549560547
0, 2, 112, 3.047871112823486
0, 2, 113, 4.136189937591553
0, 2, 114, 8.48122501373291
0, 2, 115, 3.774254083633423
0, 2, 116, 3.124233484268188
0, 2, 117, 1.867351889610291
0, 2, 118, 2.38663649559021
0, 2, 119, 4.349790573120117
0, 2, 120, 1.971939325332642
0, 2, 121, 5.15226411819458
0, 2, 122, 3.822725772857666
0, 2, 123, 4.220565319061279
0, 2, 124, 2.641762495040894
0, 2, 125, 4.346372604370117
0, 2, 126, 2.540387630462646
0, 2, 127, 0.8232610821723938
0, 3, 0, 1.581664323806763
0, 3, 1, 1.045613527297974
0, 3, 2, 1.997503638267517
0, 3, 3, 1.717462778091431
0, 3, 4, 3.624954223632812
0, 3, 5, 1.655893921852112
0, 3, 6, 0.6918192505836487
0, 3, 7, 1.127124309539795
0, 3, 8, 2.150479793548584
0, 3, 9, 1.44967257976532
0, 3, 10, 1.640066742897034
0, 3, 11, 4.83577823638916
0, 3, 12, 4.446764945983887
0, 3, 13, 3.444360256195068
0, 3, 14, 3.550309181213379
0, 3, 15, 8.430094718933105
0, 3, 16, 7.719717502593994
0, 3, 17, 5.708603382110596
0, 3, 18, 33.15122604370117
0, 3, 19, 114.53564453125
0, 3, 20, 180.1971130371094
0, 3, 21, 172.8818664550781
0, 3, 22, 178.3726501464844
0, 3, 23, 188.6446838378906
0, 3, 24, 179.1253509521484
0, 3, 25, 169.4306793212891
0, 3, 26, 180.6101837158203
0, 3, 27, 189.1960144042969
0, 3, 28, 183.4794464111328
0, 3, 29, 198.2484130859375
0, 3, 30, 185.1741638183594
0, 3, 31, 194.1333923339844
0, 3, 32, 205.8716278076172
0, 3, 33, 197.4986572265625
0, 3, 34, 186.9982147216797
0, 3, 35, 174.8326721191406
0, 3, 36, 186.6376037597656
0, 3, 37, 199.8712921142578
0, 3, 38, 190.8780975341797
0, 3, 39, 184.2474822998047
0, 3, 40, 165.4896087646484
0, 3, 41, 173.905029296875
0, 3, 42, 185.1540832519531
0, 3, 43, 181.6073455810547
0, 3, 44, 203.2095336914062
0, 3, 45, 207.7448577880859
0, 3, 46, 198.6497802734375
0, 3, 47, 194.3549346923828
0, 3, 48, 198.027587890625
0, 3, 49, 180.0846557617188
0, 3, 50, 186.4158782958984
0, 3, 51, 174.2321929931641
0, 3, 52, 187.2140350341797
0, 3, 53, 177.1676330566406
0, 3, 54, 179.5538940429688
0, 3, 55, 177.8762664794922
0, 3, 56, 182.7709808349609
0, 3, 57, 175.0832672119141
0, 3, 58, 200.8362426757812
0, 3, 59, 195.6631774902344
0, 3, 60, 186.5505981445312
0, 3, 61, 181.0455474853516
0, 3, 62, 182.9806060791016
0, 3, 63, 183.3982391357422
0, 3, 64, 188.4235229492188
0, 3, 65, 187.4271545410156
0, 3, 66, 174.842041015625
0, 3, 67, 191.4949340820312
0, 3, 68, 212.7280883789062
0, 3, 69, 190.2954864501953
0, 3, 70, 185.5882415771484
0, 3, 71, 196.7742614746094
0, 3, 72, 186.6002960205078
0, 3, 73, 187.2101287841797
0, 3, 74, 192.2275390625
0, 3, 75, 192.4442291259766
0, 3, 76, 191.6604766845703
0, 3, 77, 197.3942565917969
0, 3, 78, 187.9047698974609
0, 3, 79, 185.0804290771484
0, 3, 80, 190.8023834228516
0, 3, 81, 186.1826782226562
0, 3, 82, 181.1018981933594
0, 3, 83, 194.1617279052734
0, 3, 84, 198.8462219238281
0, 3, 85, 191.6766967773438
0, 3, 86, 203.5096282958984
0, 3, 87, 197.0942077636719
0, 3, 88, 191.6800079345703
0, 3, 89, 192.9927825927734
0, 3, 90, 173.8628082275391
0, 3, 91, 158.1688842773438
0, 3, 92, 207.7080535888672
0, 3, 93, 196.9145050048828
0, 3, 94, 193.4698944091797
0, 3, 95, 210.7488555908203
0, 3, 96, 209.5994720458984
0, 3, 97, 166.8148956298828
0, 3, 98, 168.0446624755859
0, 3, 99, 180.1561431884766
0, 3, 100, 178.0894317626953
0, 3, 101, 197.5484924316406
0, 3, 102, 195.0843353271484
0, 3, 103, 193.8117065429688
0, 3, 104, 203.1191558837891
0, 3, 105, 176.2131042480469
0, 3, 106, 182.4759521484375
0, 3, 107, 170.6371765136719
0, 3, 108, 107.7005996704102
0, 3, 109, 28.27099800109863
0, 3, 110, 7.106691360473633
0, 3, 111, 6.411317825317383
0, 3, 112, 2.999224185943604
0, 3, 113, 8.085057258605957
0, 3, 114, 4.896929740905762
0, 3, 115, 4.788444995880127
0, 3, 116, 4.313795566558838
0, 3, 117, 4.976975917816162
0, 3, 118, 1.813249349594116
0, 3, 119, 2.644553422927856
0, 3, 120, 3.952213287353516
0, 3, 121, 4.097357749938965
0, 3, 122, 3.80998158454895
0, 3, 123, 0.9381814002990723
0, 3, 124, 2.355571985244751
0, 3, 125, 2.84775972366333
0, 3, 126, 1.299097776412964
0, 3, 127, 0.8464369177818298
0, 4, 0, 1.858814716339111
0, 4, 1, 0.8527032732963562
0, 4, 2, 2.643021821975708
0, 4, 3, 4.710027694702148
0, 4, 4, 2.371335744857788
0, 4, 5, 1.90399706363678
0, 4, 6, 2.369972229003906
0, 4, 7, 2.543092727661133
0, 4, 8, 3.488508224487305
0, 4, 9, 3.446547031402588
0, 4, 10, 3.570441722869873
0, 4, 11, 3.586952209472656
0, 4, 12, 4.114237308502197
0, 4, 13, 4.743489265441895
0, 4, 14, 3.765201330184937
0, 4, 15, 8.764745712280273
0, 4, 16, 5.849800109863281
0, 4, 17, 11.62589073181152
0, 4, 18, 55.36492156982422
0, 4, 19, 150.2430114746094
0, 4, 20, 194.2849578857422
0, 4, 21, 170.1453704833984
0, 4, 22, 187.2941436767578
0, 4, 23, 195.8344879150391
0, 4, 24, 192.3843841552734
0, 4, 25, 199.5701904296875
0, 4, 26, 183.4185180664062
0, 4, 27, 191.6672058105469
0, 4, 28, 178.7481689453125
0, 4, 29, 205.3431091308594
0, 4, 30, 195.0931091308594
0, 4, 31, 192.9634399414062
0, 4, 32, 212.8854675292969
0, 4, 33, 191.0877075195312
0, 4, 34, 192.3359527587891
0, 4, 35, 212.0964965820312
0, 4, 36, 192.8938293457031
0, 4, 37, 177.9119873046875
0, 4, 38, 195.4041595458984
0, 4, 39, 190.9287261962891
0, 4, 40, 186.4120788574219
0, 4, 41, 188.8785858154297
0, 4, 42, 206.5049438476562
0, 4, 43, 173.3482513427734
0, 4, 44, 186.1037139892578
0, 4, 45, 195.937255859375
0, 4, 46, 186.1759033203125
0, 4, 47, 179.149658203125
0, 4, 48, 187.8680419921875
0, 4, 49, 175.6244201660156
0, 4, 50, 187.2305450439453
0, 4, 51, 197.7335510253906
0, 4, 52, 222.7720336914062
0, 4, 53, 206.6661224365234
0, 4, 54, 189.2912902832031
0, 4, 55, 175.4463348388672
0, 4, 56, 190.3583221435547
0, 4, 57, 190.8891754150391
0, 4, 58, 187.2604675292969
0, 4, 59, 190.0787048339844
0, 4, 60, 196.1003112792969
0, 4, 61, 194.0728149414062
0, 4, 62, 189.3919982910156
0, 4, 63, 178.6658325195312
0, 4, 64, 211.9199981689453
0, 4, 65, 190.2966461181641
0, 4, 66, 201.1932067871094
0, 4, 67, 199.4953460693359
0, 4, 68, 200.6406555175781
0, 4, 69, 198.9434051513672
0, 4, 70, 205.42138671875
0, 4, 71, 207.3430480957031
0, 4, 72, 215.2100677490234
0, 4, 73, 186.8880615234375
0, 4, 74, 180.8346862792969
0, 4, 75, 185.1481475830078
0, 4, 76, 189.8812866210938
0, 4, 77, 184.5372161865234
0, 4, 78, 195.0691375732422
0, 4, 79, 204.5120544433594
0, 4, 80, 212.2166748046875
0, 4, 81, 198.9579620361328
0, 4, 82, 181.4491271972656
0, 4, 83, 170.2735595703125
0, 4, 84, 192.9371643066406
0, 4, 85, 197.4599151611328
0, 4, 86, 181.5636444091797
0, 4, 87, 184.6253967285156
0, 4, 88, 204.8243713378906
0, 4, 89, 187.4362030029297
0, 4, 90, 211.3849945068359
0, 4, 91, 189.4540252685547
0, 4, 92, 196.6326599121094
0, 4, 93, 195.5971221923828
0, 4, 94, 182.9598693847656
0, 4, 95, 173.9166107177734
0, 4, 96, 190.1202697753906
0, 4, 97, 194.4309387207031
0, 4, 98, 200.5885925292969
0, 4, 99, 183.2209320068359
0, 4, 100, 182.9276885986328
0, 4, 101, 178.3686676025391
0, 4, 102, 172.026123046875
0, 4, 103, 184.7879791259766
0, 4, 104, 210.4746246337891
0, 4, 105, 190.470458984375
0, 4, 106, 179.3407135009766
0, 4, 107, 181.5078430175781
0, 4, 108, 153.5896301269531
0, 4, 109, 51.49868774414062
0, 4, 110, 10.83002758026123
0, 4, 111, 8.036187171936035
0, 4, 112, 6.562185764312744
0, 4, 113, 5.373219013214111
0, 4, 114, 4.790955543518066
0, 4, 115, 3.162039041519165
0, 4, 116, 5.237744331359863
0, 4, 117, 4.291907787322998
0, 4, 118, 4.32079553604126
0, 4, 119, 3.541228294372559
0, 4, 120, 1.83785355091095
0, 4, 121, 1.268847465515137
0, 4, 122, 1.926516771316528
0, 4, 123, 2.061431884765625
0, 4, 124, 3.335222959518433
0, 4, 125, 3.149660110473633
0, 4, 126, 2.109471797943115
0, 4, 127, 1.227988600730896
0, 5, 0, 2.127594947814941
0, 5, 1, 3.567815780639648
0, 5, 2, 5.32704496383667
0, 5, 3, 3.69423770904541
0, 5, 4, 3.470089435577393
0, 5, 5, 1.93132221698761
0, 5, 6, 2.480550289154053
0, 5, 7, 2.58359956741333
0, 5, 8, 2.237870216369629
0, 5, 9, 2.433823108673096
0, 5, 10, 4.446444988250732
0, 5, 11, 5.228149890899658
0, 5, 12, 3.574255228042603
0, 5, 13, 4.15804386138916
0, 5, 14, 5.234220027923584
0, 5, 15, 9.275135040283203
0, 5, 16, 7.662932872772217
0, 5, 17, 21.24285697937012
0, 5, 18, 82.53085327148438
0, 5, 19, 163.9187469482422
0, 5, 20, 184.6126556396484
0, 5, 21, 178.5106811523438
0, 5, 22, 170.5298156738281
0, 5, 23, 200.8005676269531
0, 5, 24, 187.03759765625
0, 5, 25, 207.5232086181641
0, 5, 26, 182.8401947021484
0, 5, 27, 193.2620849609375
0, 5, 28, 188.5791931152344
0, 5, 29, 194.9596710205078
0, 5, 30, 176.9776306152344
0, 5, 31, 179.4855194091797
0, 5, 32, 188.8735046386719
0, 5, 33, 168.6045837402344
0, 5, 34, 195.8314361572266
0, 5, 35, 197.7039489746094
0, 5, 36, 167.4298858642578
0, 5, 37, 197.2099609375
0, 5, 38, 180.1456298828125
0, 5, 39, 185.3440399169922
0, 5, 40, 197.4947052001953
0, 5, 41, 176.9003295898438
0, 5, 42, 187.2857513427734
0, 5, 43, 193.7132720947266
0, 5, 44, 199.7858581542969
0, 5, 45, 186.8275756835938
0, 5, 46, 193.2601776123047
0, 5, 47, 181.0070495605469
0, 5, 48, 178.6442108154297
0, 5, 49, 177.7602386474609
0, 5, 50, 186.5269775390625
0, 5, 51, 172.1090545654297
0, 5, 52, 167.7623596191406
0, 5, 53, 181.48583984375
0, 5, 54, 171.8035583496094
0, 5, 55, 215.3212585449219
0, 5, 56, 181.3805541992188
0, 5, 57, 208.0395202636719
0, 5, 58, 180.9522247314453
0, 5, 59, 180.1965179443359
0, 5, 60, 218.7828216552734
0, 5, 61, 184.3577117919922
0, 5, 62, 179.0575103759766
0, 5, 63, 182.0802001953125
0, 5, 64, 196.3571014404297
0, 5, 65, 209.9913635253906
0, 5, 66, 191.8334045410156
0, 5, 67, 199.4073333740234
0, 5, 68, 187.3875427246094
0, 5, 69, 185.3375854492188
0, 5, 70, 186.0337219238281
0, 5, 71, 193.2860260009766
0, 5, 72, 197.4457550048828
0, 5, 73, 201.2238922119141
0, 5, 74, 180.7901458740234
0, 5, 75, 203.6260986328125
0, 5, 76, 213.5215301513672
0, 5, 77, 182.8805389404297
0, 5, 78, 194.9244842529297
0, 5, 79, 191.0709838867188
0, 5, 80, 198.4947509765625
0, 5, 81, 205.8347015380859
0, 5, 82, 200.9593048095703
0, 5, 83, 189.5131530761719
0, 5, 84, 205.2131195068359
0, 5, 85, 176.1508026123047
0, 5, 86, 194.2159881591797
0, 5, 87, 188.2332916259766
0, 5, 88, 176.8908233642578
0, 5, 89, 193.8888397216797
0, 5, 90, 199.3673248291016
0, 5, 91, 193.9375762939453
0, 5, 92, 189.9918518066406
0, 5, 93, 190.1572265625
0, 5, 94, 207.2317962646484
0, 5, 95, 175.8705291748047
0, 5, 96, 182.5535125732422
0, 5, 97, 191.6414947509766
0, 5, 98, 188.9380035400391
0, 5, 99, 194.8677673339844
0, 5, 100, 185.7754058837891
0, 5, 101, 196.3136444091797
0, 5, 102, 180.9210357666016
0, 5, 103, 177.9552307128906
0, 5, 104, 190.6681365966797
0, 5, 105, 189.3536071777344
0, 5, 106, 177.3689727783203
0, 5, 107, 181.0363159179688
0, 5, 108, 175.9568481445312
0, 5, 109, 87.89370727539062
0, 5, 110, 30.69320106506348
0, 5, 111, 9.494743347167969
0, 5, 112, 7.019005298614502
0, 5, 113, 6.206352233886719
0, 5, 114, 5.825032711029053
0, 5, 115, 8.898025512695312
0, 5, 116, 7.526124954223633
0, 5, 117, 4.1846022605896
0, 5, 118, 3.275908946990967
0, 5, 119, 3.587323665618896
0, 5, 120, 1.840977191925049
0, 5, 121, 2.700972080230713
0, 5, 122, 3.124457836151123
0, 5, 123, 3.535641431808472
0, 5, 124, 3.336803674697876
0, 5, 125, 2.004337549209595
0, 5, 126, 2.161818742752075
0, 5, 127, 2.480021953582764
0, 6, 0, 4.808459281921387
0, 6, 1, 4.552455902099609
0, 6, 2, 6.056010723114014
0, 6, 3, 2.216066837310791
0, 6, 4, 3.684749841690063
0, 6, 5, 4.29725170135498
0, 6, 6, 2.51941180229187
0, 6, 7, 3.559099197387695
0, 6, 8, 3.655699968338013
0, 6, 9, 2.85152530670166
0, 6, 10, 5.188008785247803
0, 6, 11, 4.470829963684082
0, 6, 12, 6.766257762908936
0, 6, 13, 4.963976860046387
0, 6, 14, 6.364232063293457
0, 6, 15, 6.389829158782959
0, 6, 16, 13.67759609222412
0, 6, 17, 28.1558837890625
0, 6, 18, 112.1930236816406
0, 6, 19, 191.3157806396484
0, 6, 20, 195.92724609375
0, 6, 21, 198.8412475585938
0, 6, 22, 190.7408447265625
0, 6, 23, 190.2563934326172
0, 6, 24, 200.1857452392578
0, 6, 25, 181.0992889404297
0, 6, 26, 187.2704772949219
0, 6, 27, 191.4591522216797
0, 6, 28, 189.1774444580078
0, 6, 29, 210.4754028320312
0, 6, 30, 190.4200134277344
0, 6, 31, 193.0984344482422
0, 6, 32, 208.0851135253906
0, 6, 33, 183.2507934570312
0, 6, 34, 196.5762176513672
0, 6, 35, 187.1510162353516
0, 6, 36, 180.3055725097656
0, 6, 37, 182.8329162597656
0, 6, 38, 186.0352020263672
0, 6, 39, 194.8998870849609
0, 6, 40, 175.1001892089844
0, 6, 41, 185.5087738037109
0, 6, 42, 174.1921539306641
0, 6, 43, 208.7136383056641
0, 6, 44, 208.7539520263672
0, 6, 45, 193.3288421630859
0, 6, 46, 188.5498657226562
0, 6, 47, 203.8016510009766
0, 6, 48, 190.5025634765625
0, 6, 49, 179.9784240722656
0, 6, 50, 182.3287811279297
0, 6, 51, 195.7158355712891
0, 6, 52, 197.5024108886719
0, 6, 53, 185.1597137451172
0, 6, 54, 175.1404266357422
0, 6, 55, 194.2696533203125
0, 6, 56, 202.19873046875
0, 6, 57, 191.3804626464844
0, 6, 58, 178.0839233398438
0, 6, 59, 192.455078125
0, 6, 60, 184.0897979736328
0, 6, 61, 194.1042633056641
0, 6, 62, 196.37744140625
0, 6, 63, 186.8692474365234
0, 6, 64, 171.3020172119141
0, 6, 65, 185.8080444335938
0, 6, 66, 198.2759399414062
0, 6, 67, 214.0934600830078
0, 6, 68, 180.8195495605469
0, 6, 69, 171.8668518066406
0, 6, 70, 187.406005859375
0, 6, 71, 170.8779907226562
0, 6, 72, 175.8395538330078
0, 6, 73, 176.7082366943359
0, 6, 74, 210.1787872314453
0, 6, 75, 226.7176818847656
0, 6, 76, 184.1965484619141
0, 6, 77, 172.47265625
0, 6, 78, 175.5718994140625
0, 6, 79, 186.9559326171875
0, 6, 80, 187.6078033447266
0, 6, 81, 208.5226287841797
0, 6, 82, 197.0461578369141
0, 6, 83, 194.5681762695312
0, 6, 84, 197.1692962646484
0, 6, 85, 183.7526397705078
0, 6, 86, 201.0604553222656
0, 6, 87, 182.4651947021484
0, 6, 88, 192.0616149902344
0, 6, 89, 188.9417266845703
0, 6, 90, 206.1259307861328
0, 6, 91, 200.1932373046875
0, 6, 92, 172.7221984863281
0, 6, 93, 193.2855529785156
0, 6, 94, 189.9048919677734
0, 6, 95, 185.1730651855469
0, 6, 96, 188.9749603271484
0, 6, 97, 193.7872467041016
0, 6, 98, 183.0165863037109
0, 6, 99, 176.1389923095703
0, 6, 100, 202.4028930664062
0, 6, 101, 170.8917694091797
0, 6, 102, 201.6525268554688
0, 6, 103, 196.9185333251953
0, 6, 104, 183.2743225097656
0, 6, 105, 193.5032806396484
0, 6, 106, 177.6962432861328
0, 6, 107, 195.5100860595703
0, 6, 108, 171.4091796875
0, 6, 109, 115.7580642700195
0, 6, 110, 34.45561218261719
0, 6, 111, 9.586871147155762
0, 6, 112, 8.376974105834961
0, 6, 113, 5.226998805999756
0, 6, 114, 6.078865528106689
0, 6, 115, 6.390932559967041
0, 6, 116, 3.990319490432739
0, 6, 117, 3.025236368179321
0, 6, 118, 3.074099540710449
0, 6, 119, 4.251307487487793
0, 6, 120, 2.3956139087677
0, 6, 121, 4.745103359222412
0, 6, 122, 3.284885406494141
0, 6, 123, 2.113055944442749
0, 6, 124, 2.851347923278809
0, 6, 125, 2.200786113739014
0, 6, 126, 1.714967846870422
0, 6, 127, 2.448506832122803
0, 7, 0, 2.708173036575317
0, 7, 1, 2.209434747695923
0, 7, 2, 2.712781429290771
0, 7, 3, 2.395585536956787
0, 7, 4, 0.6980594992637634
0, 7, 5, 1.4488844871521
0, 7, 6, 2.073930025100708
0, 7, 7, 2.663086414337158
0, 7, 8, 2.564593076705933
0, 7, 9, 2.993270874023438
0, 7, 10, 5.294009208679199
0, 7, 11, 3.225958108901978
0, 7, 12, 3.996160984039307
0, 7, 13, 6.092568874359131
0, 7, 14, 6.650280475616455
0, 7, 15, 7.298788547515869
0, 7, 16, 14.90362930297852
0, 7, 17, 50.36589050292969
0, 7, 18, 163.0714263916016
0, 7, 19, 181.3000946044922
0, 7, 20, 178.4358062744141
0, 7, 21, 180.7717895507812
0, 7, 22, 194.0314178466797
0, 7, 23, 203.0742950439453
0, 7, 24, 180.6651916503906
0, 7, 25, 211.924072265625
0, 7, 26, 188.9330596923828
0, 7, 27, 180.7348785400391
0, 7, 28, 184.6363677978516
0, 7, 29, 209.841064453125
0, 7, 30, 193.4772796630859
0, 7, 31, 177.3437042236328
0, 7, 32, 191.0310821533203
0, 7, 33, 183.0363006591797
0, 7, 34, 192.8922119140625
0, 7, 35, 198.3549194335938
0, 7, 36, 188.2500915527344
0, 7, 37, 212.6751708984375
0, 7, 38, 192.7746734619141
0, 7, 39, 173.1864318847656
0, 7, 40, 183.7659454345703
0, 7, 41, 185.2076416015625
0, 7, 42, 177.3488616943359
0, 7, 43, 177.7540130615234
0, 7, 44, 178.7015838623047
0, 7, 45, 176.2797241210938
0, 7, 46, 187.2605133056641
0, 7, 47, 196.9619598388672
0, 7, 48, 184.9925384521484
0, 7, 49, 199.5443572998047
0, 7, 50, 187.9194946289062
0, 7, 51, 204.9702911376953
0, 7, 52, 204.0874328613281
0, 7, 53, 191.5642547607422
0, 7, 54, 196.32421875
0, 7, 55, 203.9668121337891
0, 7, 56, 183.4165496826172
0, 7, 57, 183.4023132324219
0, 7, 58, 193.8268585205078
0, 7, 59, 186.3757171630859
0, 7, 60, 204.9222564697266
0, 7, 61, 171.7677154541016
0, 7, 62, 202.9646301269531
0, 7, 63, 188.3198699951172
0, 7, 64, 199.4105682373047
0, 7, 65, 197.4125061035156
0, 7, 66, 205.2559661865234
0, 7, 67, 221.4190368652344
0, 7, 68, 162.8336944580078
0, 7, 69, 194.6722869873047
0, 7, 70, 218.5081024169922
0, 7, 71, 185.2195892333984
0, 7, 72, 180.5971069335938
0, 7, 73, 177.2584075927734
0, 7, 74, 207.8896331787109
0, 7, 75, 203.4993133544922
0, 7, 76, 215.4887237548828
0, 7, 77, 174.9953765869141
0, 7, 78, 177.8210296630859
0, 7, 79, 192.5305023193359
0, 7, 80, 196.4485015869141
0, 7, 81, 214.464599609375
0, 7, 82, 183.7910614013672
0, 7, 83, 205.5635528564453
0, 7, 84, 193.3462066650391
0, 7, 85, 186.9457702636719
0, 7, 86, 200.2376403808594
0, 7, 87, 225.4451904296875
0, 7, 88, 194.989990234375
0, 7, 89, 177.5473785400391
0, 7, 90, 182.9435424804688
0, 7, 91, 194.7115020751953
0, 7, 92, 193.0590515136719
0, 7, 93, 199.2920532226562
0, 7, 94, 177.5589599609375
0, 7, 95, 199.2215576171875
0, 7, 96, 208.7339477539062
0, 7, 97, 188.1151275634766
0, 7, 98, 177.3001708984375
0, 7, 99, 198.0471038818359
0, 7, 100, 184.3584136962891
0, 7, 101, 199.3317108154297
0, 7, 102, 184.8365020751953
0, 7, 103, 180.5969390869141
0, 7, 104, 174.3697967529297
0, 7, 105, 195.1639251708984
0, 7, 106, 205.2668762207031
0, 7, 107, 174.0628204345703
0, 7, 108, 176.5746154785156
0, 7, 109, 136.5649719238281
0, 7, 110, 54.51937866210938
0, 7, 111, 8.527689933776855
0, 7, 112, 7.702383995056152
0, 7, 113, 8.972285270690918
0, 7, 114, 9.216691970825195
0, 7, 115, 5.659143924713135
0, 7, 116, 5.532585144042969
0, 7, 117, 5.766513347625732
0, 7, 118, 3.462777853012085
0, 7, 119, 2.807908058166504
0, 7, 120, 3.592379808425903
0, 7, 121, 1.97409999370575
0, 7, 122, 2.7842698097229
0, 7, 123, 1.558913826942444
0, 7, 124, 0.8433564901351929
0, 7, 125, 2.812529325485229
0, 7, 126, 2.5438072681427
0, 7, 127, 2.007746934890747
0, 8, 0, 4.640429496765137
0, 8, 1, 3.062317371368408
0, 8, 2, 2.747632265090942
0, 8, 3, 2.095404148101807
0, 8, 4, 1.671502351760864
0, 8, 5, 2.955270767211914
0, 8, 6, 1.596944808959961
0, 8, 7, 2.790853500366211
0, 8, 8, 3.720229864120483
0, 8, 9, 4.468697547912598
0, 8, 10, 1.823250889778137
0, 8, 11, 3.04427170753479
0, 8, 12, 3.569142580032349
0, 8, 13, 5.537742614746094
0, 8, 14, 5.990447044372559
0, 8, 15, 8.145370483398438
0, 8, 16, 19.92684936523438
0, 8, 17, 76.60011291503906
0, 8, 18, 143.8557891845703
0, 8, 19, 177.9227752685547
0, 8, 20, 191.1483154296875
0, 8, 21, 192.6807861328125
0, 8, 22, 180.9256896972656
0, 8, 23, 172.7008056640625
0, 8, 24, 191.8403778076172
0, 8, 25, 185.2729034423828
0, 8, 26, 193.310791015625
0, 8, 27, 187.2964782714844
0, 8, 28, 188.4615173339844
0, 8, 29, 207.7938537597656
0, 8, 30, 198.0640258789062
0, 8, 31, 183.5290832519531
0, 8, 32, 197.6637115478516
0, 8, 33, 206.3971710205078
0, 8, 34, 203.5915222167969
0, 8, 35, 184.6889801025391
0, 8, 36, 181.8567962646484
