# TOPAS Version: 3.1.p3
# Parameter File: batch_inserts_224.txt
# Results for scorer Readout_Adipose
# Scored in component: MyBox
# X in 1 bin  of 0.65 cm
# Y in 512 bins of 0.0783984 cm
# Z in 128 bins of 0.078125 cm
# EnergyDeposit ( MeV ) : Sum   
0, 0, 0, 1.428189635276794
0, 0, 1, 4.864701271057129
0, 0, 2, 2.279728889465332
0, 0, 3, 1.034831285476685
0, 0, 4, 1.085684895515442
0, 0, 5, 2.917874097824097
0, 0, 6, 1.816854238510132
0, 0, 7, 2.372231960296631
0, 0, 8, 2.085641622543335
0, 0, 9, 3.463481903076172
0, 0, 10, 2.843849182128906
0, 0, 11, 4.173008441925049
0, 0, 12, 4.031642913818359
0, 0, 13, 2.03366756439209
0, 0, 14, 4.989394664764404
0, 0, 15, 6.39441442489624
0, 0, 16, 3.994102716445923
0, 0, 17, 5.972808837890625
0, 0, 18, 8.251648902893066
0, 0, 19, 23.21259117126465
0, 0, 20, 95.02437591552734
0, 0, 21, 154.4831085205078
0, 0, 22, 154.6084136962891
0, 0, 23, 143.7195739746094
0, 0, 24, 160.8820953369141
0, 0, 25, 166.6190490722656
0, 0, 26, 166.7774353027344
0, 0, 27, 174.4398193359375
0, 0, 28, 178.3888549804688
0, 0, 29, 174.6873016357422
0, 0, 30, 172.4955902099609
0, 0, 31, 166.7864074707031
0, 0, 32, 164.5964202880859
0, 0, 33, 167.3364105224609
0, 0, 34, 178.7135162353516
0, 0, 35, 174.2254333496094
0, 0, 36, 159.1606750488281
0, 0, 37, 161.0538177490234
0, 0, 38, 166.0952453613281
0, 0, 39, 159.3730163574219
0, 0, 40, 164.1974792480469
0, 0, 41, 165.8053741455078
0, 0, 42, 145.0577087402344
0, 0, 43, 167.7969818115234
0, 0, 44, 178.1536407470703
0, 0, 45, 173.1026153564453
0, 0, 46, 167.6992645263672
0, 0, 47, 167.568115234375
0, 0, 48, 168.7579956054688
0, 0, 49, 183.0789031982422
0, 0, 50, 168.9045257568359
0, 0, 51, 162.696533203125
0, 0, 52, 162.1606750488281
0, 0, 53, 171.7086334228516
0, 0, 54, 159.9866180419922
0, 0, 55, 164.5058288574219
0, 0, 56, 188.8998565673828
0, 0, 57, 169.9240875244141
0, 0, 58, 162.7988891601562
0, 0, 59, 173.0109100341797
0, 0, 60, 170.6917114257812
0, 0, 61, 170.6697082519531
0, 0, 62, 182.8829956054688
0, 0, 63, 166.3970336914062
0, 0, 64, 165.0202941894531
0, 0, 65, 174.3511810302734
0, 0, 66, 177.2733764648438
0, 0, 67, 165.0772705078125
0, 0, 68, 158.2691497802734
0, 0, 69, 158.4414978027344
0, 0, 70, 169.8775634765625
0, 0, 71, 158.7269287109375
0, 0, 72, 163.2671966552734
0, 0, 73, 171.8909759521484
0, 0, 74, 162.3222503662109
0, 0, 75, 163.5778350830078
0, 0, 76, 162.7335662841797
0, 0, 77, 172.0682525634766
0, 0, 78, 181.3536834716797
0, 0, 79, 175.0777893066406
0, 0, 80, 160.7878875732422
0, 0, 81, 160.6699981689453
0, 0, 82, 184.2059020996094
0, 0, 83, 174.5507049560547
0, 0, 84, 159.5277099609375
0, 0, 85, 181.0869750976562
0, 0, 86, 158.5501403808594
0, 0, 87, 176.5406036376953
0, 0, 88, 176.7909545898438
0, 0, 89, 175.4782257080078
0, 0, 90, 162.036376953125
0, 0, 91, 185.5983276367188
0, 0, 92, 163.6680603027344
0, 0, 93, 156.0962219238281
0, 0, 94, 169.7624206542969
0, 0, 95, 173.6508178710938
0, 0, 96, 183.3421020507812
0, 0, 97, 183.6466217041016
0, 0, 98, 186.5283813476562
0, 0, 99, 171.1398162841797
0, 0, 100, 159.6601104736328
0, 0, 101, 166.5973510742188
0, 0, 102, 171.4083099365234
0, 0, 103, 170.3722381591797
0, 0, 104, 168.2902526855469
0, 0, 105, 178.4444274902344
0, 0, 106, 158.7973785400391
0, 0, 107, 86.07302856445312
0, 0, 108, 22.1192626953125
0, 0, 109, 10.9165678024292
0, 0, 110, 5.821424007415771
0, 0, 111, 6.659731864929199
0, 0, 112, 4.691336631774902
0, 0, 113, 3.885750770568848
0, 0, 114, 2.567715644836426
0, 0, 115, 2.893826007843018
0, 0, 116, 3.075559377670288
0, 0, 117, 2.551782369613647
0, 0, 118, 2.997039079666138
0, 0, 119, 2.512910842895508
0, 0, 120, 1.623509407043457
0, 0, 121, 4.309456825256348
0, 0, 122, 4.542436122894287
0, 0, 123, 4.011384963989258
0, 0, 124, 1.366391658782959
0, 0, 125, 2.133197546005249
0, 0, 126, 3.105168104171753
0, 0, 127, 1.825330376625061
0, 1, 0, 0.9976038336753845
0, 1, 1, 4.387382984161377
0, 1, 2, 2.967642545700073
0, 1, 3, 1.808729529380798
0, 1, 4, 0.750082790851593
0, 1, 5, 2.817524433135986
0, 1, 6, 1.182351350784302
0, 1, 7, 3.0474534034729
0, 1, 8, 1.336723685264587
0, 1, 9, 1.384965300559998
0, 1, 10, 2.697134256362915
0, 1, 11, 3.515775203704834
0, 1, 12, 2.250059366226196
0, 1, 13, 3.886815309524536
0, 1, 14, 5.115380764007568
0, 1, 15, 5.643754482269287
0, 1, 16, 7.564215660095215
0, 1, 17, 5.429797649383545
0, 1, 18, 10.51533508300781
0, 1, 19, 39.58594512939453
0, 1, 20, 126.2558135986328
0, 1, 21, 176.8975830078125
0, 1, 22, 192.6509399414062
0, 1, 23, 186.7946472167969
0, 1, 24, 180.2468872070312
0, 1, 25, 193.6589202880859
0, 1, 26, 197.8909301757812
0, 1, 27, 186.2918243408203
0, 1, 28, 187.7957916259766
0, 1, 29, 183.2562561035156
0, 1, 30, 180.4093017578125
0, 1, 31, 182.6973571777344
0, 1, 32, 188.4172515869141
0, 1, 33, 191.3766937255859
0, 1, 34, 184.8842315673828
0, 1, 35, 193.3503570556641
0, 1, 36, 205.0993804931641
0, 1, 37, 184.55322265625
0, 1, 38, 165.0526123046875
0, 1, 39, 171.2138366699219
0, 1, 40, 179.4918212890625
0, 1, 41, 185.1255645751953
0, 1, 42, 183.2679748535156
0, 1, 43, 186.7247161865234
0, 1, 44, 166.8655242919922
0, 1, 45, 187.7557678222656
0, 1, 46, 171.1712188720703
0, 1, 47, 185.4165802001953
0, 1, 48, 185.9625396728516
0, 1, 49, 186.2658843994141
0, 1, 50, 178.0663452148438
0, 1, 51, 191.5446319580078
0, 1, 52, 197.0061950683594
0, 1, 53, 196.0237274169922
0, 1, 54, 184.6825866699219
0, 1, 55, 165.9107208251953
0, 1, 56, 178.9234466552734
0, 1, 57, 178.2453918457031
0, 1, 58, 188.3663635253906
0, 1, 59, 193.6785430908203
0, 1, 60, 188.3442230224609
0, 1, 61, 178.6287994384766
0, 1, 62, 205.4299774169922
0, 1, 63, 175.7584533691406
0, 1, 64, 172.7806854248047
0, 1, 65, 184.8997344970703
0, 1, 66, 204.6670989990234
0, 1, 67, 182.3267517089844
0, 1, 68, 186.8260192871094
0, 1, 69, 188.9040985107422
0, 1, 70, 185.6958923339844
0, 1, 71, 171.4048614501953
0, 1, 72, 188.2744903564453
0, 1, 73, 190.2832946777344
0, 1, 74, 201.2284851074219
0, 1, 75, 185.1028900146484
0, 1, 76, 173.8677215576172
0, 1, 77, 191.6443023681641
0, 1, 78, 188.8917846679688
0, 1, 79, 202.8442840576172
0, 1, 80, 185.1831970214844
0, 1, 81, 174.39404296875
0, 1, 82, 207.6632385253906
0, 1, 83, 211.5494537353516
0, 1, 84, 180.47314453125
0, 1, 85, 170.379638671875
0, 1, 86, 167.8020324707031
0, 1, 87, 184.5846862792969
0, 1, 88, 176.2651214599609
0, 1, 89, 188.4822845458984
0, 1, 90, 213.0722198486328
0, 1, 91, 182.3725433349609
0, 1, 92, 184.4239959716797
0, 1, 93, 180.6386413574219
0, 1, 94, 185.439208984375
0, 1, 95, 181.6955718994141
0, 1, 96, 197.9211120605469
0, 1, 97, 182.0896148681641
0, 1, 98, 186.7902984619141
0, 1, 99, 175.2221527099609
0, 1, 100, 170.44140625
0, 1, 101, 177.5016632080078
0, 1, 102, 181.7310943603516
0, 1, 103, 173.0919036865234
0, 1, 104, 189.4637756347656
0, 1, 105, 182.1993560791016
0, 1, 106, 163.6540985107422
0, 1, 107, 123.3655166625977
0, 1, 108, 47.36508560180664
0, 1, 109, 9.344799995422363
0, 1, 110, 6.976844787597656
0, 1, 111, 8.060474395751953
0, 1, 112, 8.814994812011719
0, 1, 113, 6.972026824951172
0, 1, 114, 5.720511436462402
0, 1, 115, 6.619895935058594
0, 1, 116, 5.388830184936523
0, 1, 117, 2.379627704620361
0, 1, 118, 3.083761215209961
0, 1, 119, 0.7827224731445312
0, 1, 120, 3.151448488235474
0, 1, 121, 3.518746614456177
0, 1, 122, 1.932654500007629
0, 1, 123, 3.210484981536865
0, 1, 124, 2.245549440383911
0, 1, 125, 2.738756656646729
0, 1, 126, 1.797690033912659
0, 1, 127, 2.670563459396362
0, 2, 0, 2.092089414596558
0, 2, 1, 1.665151953697205
0, 2, 2, 3.28757643699646
0, 2, 3, 1.734516501426697
0, 2, 4, 3.102354049682617
0, 2, 5, 0.7212415933609009
0, 2, 6, 2.985809803009033
0, 2, 7, 2.17599892616272
0, 2, 8, 0.6562132239341736
0, 2, 9, 4.369411945343018
0, 2, 10, 4.394789695739746
0, 2, 11, 3.889680862426758
0, 2, 12, 3.703452110290527
0, 2, 13, 5.595292568206787
0, 2, 14, 4.736539840698242
0, 2, 15, 5.219013214111328
0, 2, 16, 3.703767061233521
0, 2, 17, 9.088543891906738
0, 2, 18, 13.83557891845703
0, 2, 19, 78.12921905517578
0, 2, 20, 161.7208709716797
0, 2, 21, 185.3497924804688
0, 2, 22, 194.2865295410156
0, 2, 23, 183.7816925048828
0, 2, 24, 173.6305389404297
0, 2, 25, 183.6193084716797
0, 2, 26, 181.2114105224609
0, 2, 27, 189.3079376220703
0, 2, 28, 170.5616455078125
0, 2, 29, 170.1627502441406
0, 2, 30, 186.7658538818359
0, 2, 31, 182.7680816650391
0, 2, 32, 184.3553161621094
0, 2, 33, 190.3902893066406
0, 2, 34, 198.6238708496094
0, 2, 35, 181.5028686523438
0, 2, 36, 186.6920776367188
0, 2, 37, 181.0106353759766
0, 2, 38, 184.7488708496094
0, 2, 39, 167.0683135986328
0, 2, 40, 184.1576080322266
0, 2, 41, 184.1525115966797
0, 2, 42, 189.6785430908203
0, 2, 43, 196.2450103759766
0, 2, 44, 190.7579650878906
0, 2, 45, 190.8427886962891
0, 2, 46, 195.5387268066406
0, 2, 47, 190.0828399658203
0, 2, 48, 178.326904296875
0, 2, 49, 197.7391052246094
0, 2, 50, 167.3890533447266
0, 2, 51, 185.8913879394531
0, 2, 52, 185.0819854736328
0, 2, 53, 195.5857543945312
0, 2, 54, 175.6798553466797
0, 2, 55, 172.7544708251953
0, 2, 56, 182.0396881103516
0, 2, 57, 200.453857421875
0, 2, 58, 186.6201934814453
0, 2, 59, 189.0450592041016
0, 2, 60, 196.6347198486328
0, 2, 61, 193.2521514892578
0, 2, 62, 189.9256439208984
0, 2, 63, 169.5441284179688
0, 2, 64, 188.5389709472656
0, 2, 65, 202.5475158691406
0, 2, 66, 195.9756774902344
0, 2, 67, 184.2053833007812
0, 2, 68, 183.6077728271484
0, 2, 69, 187.2825775146484
0, 2, 70, 202.8094024658203
0, 2, 71, 175.3032073974609
0, 2, 72, 185.7460632324219
0, 2, 73, 177.258056640625
0, 2, 74, 181.0035705566406
0, 2, 75, 196.4023132324219
0, 2, 76, 184.1327972412109
0, 2, 77, 177.8690948486328
0, 2, 78, 197.5885925292969
0, 2, 79, 177.4633026123047
0, 2, 80, 186.5476226806641
0, 2, 81, 189.5899810791016
0, 2, 82, 205.1891937255859
0, 2, 83, 204.5248870849609
0, 2, 84, 188.9108276367188
0, 2, 85, 171.8547210693359
0, 2, 86, 197.2218475341797
0, 2, 87, 172.0599212646484
0, 2, 88, 179.3531494140625
0, 2, 89, 185.3599700927734
0, 2, 90, 177.6359558105469
0, 2, 91, 173.9512176513672
0, 2, 92, 196.6318817138672
0, 2, 93, 194.3067932128906
0, 2, 94, 201.1900482177734
0, 2, 95, 194.9832153320312
0, 2, 96, 188.7103118896484
0, 2, 97, 171.5813751220703
0, 2, 98, 173.18310546875
0, 2, 99, 162.4185943603516
0, 2, 100, 187.7623138427734
0, 2, 101, 196.4932403564453
0, 2, 102, 176.9902648925781
0, 2, 103, 200.0891876220703
0, 2, 104, 187.7528228759766
0, 2, 105, 201.3809204101562
0, 2, 106, 194.1997680664062
0, 2, 107, 149.6921234130859
0, 2, 108, 78.77663421630859
0, 2, 109, 17.72588348388672
0, 2, 110, 9.95205020904541
0, 2, 111, 6.112851619720459
0, 2, 112, 3.466763734817505
0, 2, 113, 4.241626739501953
0, 2, 114, 8.193853378295898
0, 2, 115, 5.440348148345947
0, 2, 116, 1.769362807273865
0, 2, 117, 2.088778495788574
0, 2, 118, 3.393873929977417
0, 2, 119, 2.848784446716309
0, 2, 120, 1.880586624145508
0, 2, 121, 2.841967344284058
0, 2, 122, 2.833109140396118
0, 2, 123, 3.670242309570312
0, 2, 124, 1.967846393585205
0, 2, 125, 4.064710140228271
0, 2, 126, 3.406858444213867
0, 2, 127, 1.351747512817383
0, 3, 0, 1.322796225547791
0, 3, 1, 2.068656444549561
0, 3, 2, 1.825034737586975
0, 3, 3, 0.9068751335144043
0, 3, 4, 4.529075622558594
0, 3, 5, 1.549419283866882
0, 3, 6, 2.285930156707764
0, 3, 7, 1.142447471618652
0, 3, 8, 2.222627401351929
0, 3, 9, 2.41851282119751
0, 3, 10, 4.762141227722168
0, 3, 11, 4.315212726593018
0, 3, 12, 4.021878719329834
0, 3, 13, 3.148795604705811
0, 3, 14, 4.069562911987305
0, 3, 15, 8.830123901367188
0, 3, 16, 8.70855712890625
0, 3, 17, 5.774039268493652
0, 3, 18, 32.51491928100586
0, 3, 19, 114.5692749023438
0, 3, 20, 179.9061431884766
0, 3, 21, 172.65771484375
0, 3, 22, 177.6522674560547
0, 3, 23, 187.8950347900391
0, 3, 24, 177.5284271240234
0, 3, 25, 169.4062194824219
0, 3, 26, 180.8844604492188
0, 3, 27, 189.787841796875
0, 3, 28, 182.2460174560547
0, 3, 29, 196.6824798583984
0, 3, 30, 185.6194915771484
0, 3, 31, 195.5330352783203
0, 3, 32, 205.8601989746094
0, 3, 33, 196.6530456542969
0, 3, 34, 187.968505859375
0, 3, 35, 173.3144073486328
0, 3, 36, 186.9149932861328
0, 3, 37, 200.4973754882812
0, 3, 38, 191.4826202392578
0, 3, 39, 184.55126953125
0, 3, 40, 166.5380096435547
0, 3, 41, 174.7392272949219
0, 3, 42, 184.592041015625
0, 3, 43, 181.4794006347656
0, 3, 44, 202.9622650146484
0, 3, 45, 207.5891571044922
0, 3, 46, 199.3177185058594
0, 3, 47, 194.2963104248047
0, 3, 48, 195.0117340087891
0, 3, 49, 180.3987884521484
0, 3, 50, 186.4050445556641
0, 3, 51, 174.7649993896484
0, 3, 52, 187.0915069580078
0, 3, 53, 177.5436248779297
0, 3, 54, 178.6062469482422
0, 3, 55, 176.6570587158203
0, 3, 56, 182.5416870117188
0, 3, 57, 174.5079956054688
0, 3, 58, 201.1569213867188
0, 3, 59, 195.5238952636719
0, 3, 60, 186.3481597900391
0, 3, 61, 181.0730285644531
0, 3, 62, 183.9210357666016
0, 3, 63, 184.0134429931641
0, 3, 64, 192.2078247070312
0, 3, 65, 187.5527954101562
0, 3, 66, 175.6922912597656
0, 3, 67, 189.6354217529297
0, 3, 68, 211.1636810302734
0, 3, 69, 189.8903503417969
0, 3, 70, 184.8892517089844
0, 3, 71, 197.2460021972656
0, 3, 72, 186.5559234619141
0, 3, 73, 186.5737152099609
0, 3, 74, 192.5400390625
0, 3, 75, 192.4212188720703
0, 3, 76, 190.7087554931641
0, 3, 77, 198.0463104248047
0, 3, 78, 190.0564422607422
0, 3, 79, 186.4774322509766
0, 3, 80, 189.8064575195312
0, 3, 81, 183.8519592285156
0, 3, 82, 181.4008636474609
0, 3, 83, 196.0648040771484
0, 3, 84, 198.4207305908203
0, 3, 85, 191.5380249023438
0, 3, 86, 203.939208984375
0, 3, 87, 197.850830078125
0, 3, 88, 192.8335571289062
0, 3, 89, 193.1399993896484
0, 3, 90, 174.4242553710938
0, 3, 91, 158.1163482666016
0, 3, 92, 206.8167419433594
0, 3, 93, 198.2162017822266
0, 3, 94, 192.5460357666016
0, 3, 95, 210.6562957763672
0, 3, 96, 209.3587646484375
0, 3, 97, 167.8444671630859
0, 3, 98, 168.0210418701172
0, 3, 99, 179.8440399169922
0, 3, 100, 176.420166015625
0, 3, 101, 197.3641204833984
0, 3, 102, 194.4877777099609
0, 3, 103, 192.7100067138672
0, 3, 104, 202.8065032958984
0, 3, 105, 176.1571044921875
0, 3, 106, 180.8802185058594
0, 3, 107, 170.3744964599609
0, 3, 108, 108.6040115356445
0, 3, 109, 26.88647651672363
0, 3, 110, 8.961879730224609
0, 3, 111, 7.37165641784668
0, 3, 112, 3.714087724685669
0, 3, 113, 7.311192989349365
0, 3, 114, 4.492145538330078
0, 3, 115, 5.523298263549805
0, 3, 116, 6.646287441253662
0, 3, 117, 4.685965538024902
0, 3, 118, 2.011565923690796
0, 3, 119, 2.81115984916687
0, 3, 120, 4.322463989257812
0, 3, 121, 2.172865867614746
0, 3, 122, 3.326380491256714
0, 3, 123, 1.660243988037109
0, 3, 124, 1.401448726654053
0, 3, 125, 0.9583801031112671
0, 3, 126, 1.348497033119202
0, 3, 127, 0.9086088538169861
0, 4, 0, 2.144034624099731
0, 4, 1, 0.5234910249710083
0, 4, 2, 2.763679504394531
0, 4, 3, 4.600703239440918
0, 4, 4, 2.830033302307129
0, 4, 5, 1.203676104545593
0, 4, 6, 2.542788982391357
0, 4, 7, 2.594890117645264
0, 4, 8, 1.857976913452148
0, 4, 9, 3.297323226928711
0, 4, 10, 4.78419828414917
0, 4, 11, 4.371989250183105
0, 4, 12, 3.714914798736572
0, 4, 13, 4.972657203674316
0, 4, 14, 3.929990530014038
0, 4, 15, 8.508810043334961
0, 4, 16, 6.585637092590332
0, 4, 17, 11.85305786132812
0, 4, 18, 56.08857727050781
0, 4, 19, 150.7485198974609
0, 4, 20, 193.1457061767578
0, 4, 21, 169.521240234375
0, 4, 22, 187.8638763427734
0, 4, 23, 195.4144287109375
0, 4, 24, 192.5074920654297
0, 4, 25, 201.2545928955078
0, 4, 26, 184.7343444824219
0, 4, 27, 190.4056243896484
0, 4, 28, 179.52490234375
0, 4, 29, 204.8352813720703
0, 4, 30, 195.9357147216797
0, 4, 31, 193.0119018554688
0, 4, 32, 209.2483520507812
0, 4, 33, 191.4726104736328
0, 4, 34, 194.0857086181641
0, 4, 35, 214.2658233642578
0, 4, 36, 192.3755340576172
0, 4, 37, 177.9611511230469
0, 4, 38, 196.4873962402344
0, 4, 39, 191.3023376464844
0, 4, 40, 185.4971160888672
0, 4, 41, 189.1788787841797
0, 4, 42, 205.9129638671875
0, 4, 43, 173.3202972412109
0, 4, 44, 183.0728607177734
0, 4, 45, 196.279296875
0, 4, 46, 185.6213684082031
0, 4, 47, 179.3031158447266
0, 4, 48, 184.8887176513672
0, 4, 49, 174.2203826904297
0, 4, 50, 187.4861755371094
0, 4, 51, 199.4393615722656
0, 4, 52, 223.1189270019531
0, 4, 53, 206.9435119628906
0, 4, 54, 191.0611419677734
0, 4, 55, 174.8142242431641
0, 4, 56, 190.5850830078125
0, 4, 57, 190.9746551513672
0, 4, 58, 187.8912200927734
0, 4, 59, 189.9646453857422
0, 4, 60, 196.5274505615234
0, 4, 61, 193.3257141113281
0, 4, 62, 190.4913482666016
0, 4, 63, 179.8070220947266
0, 4, 64, 210.6862640380859
0, 4, 65, 190.3156433105469
0, 4, 66, 200.9815216064453
0, 4, 67, 198.9188842773438
0, 4, 68, 202.7459869384766
0, 4, 69, 200.0230102539062
0, 4, 70, 203.9360504150391
0, 4, 71, 206.4311218261719
0, 4, 72, 214.9970245361328
0, 4, 73, 185.1062469482422
0, 4, 74, 183.0453491210938
0, 4, 75, 184.5881805419922
0, 4, 76, 189.651611328125
0, 4, 77, 185.9343872070312
0, 4, 78, 195.5754547119141
0, 4, 79, 204.3653564453125
0, 4, 80, 211.8793487548828
0, 4, 81, 198.9492034912109
0, 4, 82, 182.5177764892578
0, 4, 83, 170.4076385498047
0, 4, 84, 193.6862945556641
0, 4, 85, 197.0544738769531
0, 4, 86, 180.7226715087891
0, 4, 87, 185.2635955810547
0, 4, 88, 205.3713684082031
0, 4, 89, 187.6663818359375
0, 4, 90, 212.4453887939453
0, 4, 91, 189.2289276123047
0, 4, 92, 196.2959289550781
0, 4, 93, 196.5564117431641
0, 4, 94, 184.8081207275391
0, 4, 95, 175.2755584716797
0, 4, 96, 189.3199462890625
0, 4, 97, 192.6263122558594
0, 4, 98, 200.3165130615234
0, 4, 99, 182.7653045654297
0, 4, 100, 182.6435546875
0, 4, 101, 176.7154083251953
0, 4, 102, 174.0521087646484
0, 4, 103, 185.0122680664062
0, 4, 104, 210.3892059326172
0, 4, 105, 189.4839935302734
0, 4, 106, 179.9483184814453
0, 4, 107, 180.9117584228516
0, 4, 108, 151.5574340820312
0, 4, 109, 50.81869125366211
0, 4, 110, 10.98809719085693
0, 4, 111, 8.493094444274902
0, 4, 112, 7.061463356018066
0, 4, 113, 7.174167156219482
0, 4, 114, 6.048683643341064
0, 4, 115, 3.023401975631714
0, 4, 116, 5.256593704223633
0, 4, 117, 2.878623485565186
0, 4, 118, 3.075079917907715
0, 4, 119, 3.399035215377808
0, 4, 120, 2.230485200881958
0, 4, 121, 1.473621010780334
0, 4, 122, 4.901715278625488
0, 4, 123, 2.23035192489624
0, 4, 124, 4.287789344787598
0, 4, 125, 2.953319549560547
0, 4, 126, 1.691498517990112
0, 4, 127, 1.497382998466492
0, 5, 0, 1.826704263687134
0, 5, 1, 2.061002254486084
0, 5, 2, 5.280872344970703
0, 5, 3, 3.986066102981567
0, 5, 4, 2.836134910583496
0, 5, 5, 1.84468150138855
0, 5, 6, 2.61723804473877
0, 5, 7, 2.745617389678955
0, 5, 8, 2.317373037338257
0, 5, 9, 2.496927261352539
0, 5, 10, 2.867601871490479
0, 5, 11, 3.342252016067505
0, 5, 12, 4.102498054504395
0, 5, 13, 3.78410816192627
0, 5, 14, 5.482342720031738
0, 5, 15, 8.916906356811523
0, 5, 16, 6.958977222442627
0, 5, 17, 21.80544090270996
0, 5, 18, 82.7689208984375
0, 5, 19, 163.9798889160156
0, 5, 20, 183.3601837158203
0, 5, 21, 178.7503509521484
0, 5, 22, 171.6171875
0, 5, 23, 200.8672485351562
0, 5, 24, 187.0087127685547
0, 5, 25, 206.7320709228516
0, 5, 26, 183.3324127197266
0, 5, 27, 193.8850860595703
0, 5, 28, 188.6478424072266
0, 5, 29, 195.1282653808594
0, 5, 30, 178.7158355712891
0, 5, 31, 181.2436065673828
0, 5, 32, 186.5355529785156
0, 5, 33, 168.8248748779297
0, 5, 34, 195.6665191650391
0, 5, 35, 197.0071868896484
0, 5, 36, 167.5056457519531
0, 5, 37, 196.7495574951172
0, 5, 38, 179.9804534912109
0, 5, 39, 187.3036499023438
0, 5, 40, 196.0524139404297
0, 5, 41, 176.408203125
0, 5, 42, 187.0251922607422
0, 5, 43, 191.6688842773438
0, 5, 44, 200.0095062255859
0, 5, 45, 187.7492218017578
0, 5, 46, 193.8461151123047
0, 5, 47, 181.2002105712891
0, 5, 48, 178.2651672363281
0, 5, 49, 177.2435760498047
0, 5, 50, 186.2390289306641
0, 5, 51, 171.1066741943359
0, 5, 52, 168.6802520751953
0, 5, 53, 183.2309722900391
0, 5, 54, 172.6740417480469
0, 5, 55, 215.3788146972656
0, 5, 56, 181.8291015625
0, 5, 57, 206.5007019042969
0, 5, 58, 181.7378692626953
0, 5, 59, 180.3489532470703
0, 5, 60, 218.7861480712891
0, 5, 61, 184.3415374755859
0, 5, 62, 178.7413787841797
0, 5, 63, 180.0548706054688
0, 5, 64, 193.9386901855469
0, 5, 65, 209.8400421142578
0, 5, 66, 191.6352081298828
0, 5, 67, 198.7457275390625
0, 5, 68, 188.58447265625
0, 5, 69, 185.8488311767578
0, 5, 70, 185.0296325683594
0, 5, 71, 193.4667358398438
0, 5, 72, 197.9797668457031
0, 5, 73, 201.4306640625
0, 5, 74, 178.8674468994141
0, 5, 75, 203.9092102050781
0, 5, 76, 214.2105255126953
0, 5, 77, 181.3376007080078
0, 5, 78, 194.1024475097656
0, 5, 79, 189.6795806884766
0, 5, 80, 197.6261291503906
0, 5, 81, 201.9302825927734
0, 5, 82, 202.6054077148438
0, 5, 83, 188.8412780761719
0, 5, 84, 206.0597076416016
0, 5, 85, 177.335693359375
0, 5, 86, 194.6334381103516
0, 5, 87, 188.7010955810547
0, 5, 88, 176.6793670654297
0, 5, 89, 193.8635101318359
0, 5, 90, 199.4566040039062
0, 5, 91, 195.3464965820312
0, 5, 92, 191.3877105712891
0, 5, 93, 189.1506042480469
0, 5, 94, 206.8419494628906
0, 5, 95, 176.3872680664062
0, 5, 96, 182.3186187744141
0, 5, 97, 191.8246917724609
0, 5, 98, 188.796142578125
0, 5, 99, 195.0087280273438
0, 5, 100, 185.4572906494141
0, 5, 101, 196.950439453125
0, 5, 102, 180.9161376953125
0, 5, 103, 176.0618286132812
0, 5, 104, 190.0384674072266
0, 5, 105, 189.8402404785156
0, 5, 106, 176.9944458007812
0, 5, 107, 181.3042449951172
0, 5, 108, 175.7440185546875
0, 5, 109, 89.34690856933594
0, 5, 110, 29.57991218566895
0, 5, 111, 9.718393325805664
0, 5, 112, 6.937874794006348
0, 5, 113, 6.536272048950195
0, 5, 114, 7.886838912963867
0, 5, 115, 5.505752563476562
0, 5, 116, 4.055740356445312
0, 5, 117, 3.04211950302124
0, 5, 118, 3.608792543411255
0, 5, 119, 3.003665924072266
0, 5, 120, 2.366077184677124
0, 5, 121, 2.410949230194092
0, 5, 122, 2.423451662063599
0, 5, 123, 4.453286647796631
0, 5, 124, 2.63215184211731
0, 5, 125, 1.018889307975769
0, 5, 126, 2.287924289703369
0, 5, 127, 1.959707379341125
0, 6, 0, 3.459908485412598
0, 6, 1, 2.657831192016602
0, 6, 2, 3.267254590988159
0, 6, 3, 1.6916344165802
0, 6, 4, 3.154171466827393
0, 6, 5, 5.739051818847656
0, 6, 6, 2.817040681838989
0, 6, 7, 3.687153816223145
0, 6, 8, 3.443196773529053
0, 6, 9, 2.773646831512451
0, 6, 10, 3.686577558517456
0, 6, 11, 4.228924751281738
0, 6, 12, 5.92899751663208
0, 6, 13, 5.64080810546875
0, 6, 14, 5.656777381896973
0, 6, 15, 6.857876777648926
0, 6, 16, 13.08828067779541
0, 6, 17, 28.20201683044434
0, 6, 18, 112.1510162353516
0, 6, 19, 190.3123779296875
0, 6, 20, 194.7198181152344
0, 6, 21, 198.4678955078125
0, 6, 22, 191.2673034667969
0, 6, 23, 190.6813201904297
0, 6, 24, 201.1139984130859
0, 6, 25, 181.8385772705078
0, 6, 26, 187.3373565673828
0, 6, 27, 192.0868377685547
0, 6, 28, 190.0315399169922
0, 6, 29, 210.7499847412109
0, 6, 30, 189.6766662597656
0, 6, 31, 192.7606201171875
0, 6, 32, 206.0789489746094
0, 6, 33, 183.2916107177734
0, 6, 34, 197.5879058837891
0, 6, 35, 187.4593963623047
0, 6, 36, 180.6130218505859
0, 6, 37, 182.4152984619141
0, 6, 38, 185.1920471191406
0, 6, 39, 194.7360229492188
0, 6, 40, 174.7763214111328
0, 6, 41, 185.3676147460938
0, 6, 42, 173.9278717041016
0, 6, 43, 208.8959350585938
0, 6, 44, 209.2022094726562
0, 6, 45, 193.0698852539062
0, 6, 46, 187.3320922851562
0, 6, 47, 205.0107879638672
0, 6, 48, 190.1778869628906
0, 6, 49, 181.6427764892578
0, 6, 50, 181.8024597167969
0, 6, 51, 196.510498046875
0, 6, 52, 197.3135528564453
0, 6, 53, 185.1293792724609
0, 6, 54, 174.7989044189453
0, 6, 55, 194.3931121826172
0, 6, 56, 203.2376251220703
0, 6, 57, 193.5590972900391
0, 6, 58, 178.8547668457031
0, 6, 59, 192.5386352539062
0, 6, 60, 184.0760345458984
0, 6, 61, 193.9953918457031
0, 6, 62, 196.4336853027344
0, 6, 63, 186.5190124511719
0, 6, 64, 167.9965515136719
0, 6, 65, 185.2967834472656
0, 6, 66, 198.6672210693359
0, 6, 67, 215.1689605712891
0, 6, 68, 180.0392913818359
0, 6, 69, 170.6015472412109
0, 6, 70, 187.4169769287109
0, 6, 71, 170.4559631347656
0, 6, 72, 176.6521606445312
0, 6, 73, 176.5153656005859
0, 6, 74, 212.9000854492188
0, 6, 75, 226.9178466796875
0, 6, 76, 183.7463073730469
0, 6, 77, 173.9096374511719
0, 6, 78, 176.7219085693359
0, 6, 79, 186.6675262451172
0, 6, 80, 187.0536041259766
0, 6, 81, 210.4034729003906
0, 6, 82, 195.3019256591797
0, 6, 83, 194.1708984375
0, 6, 84, 197.6524810791016
0, 6, 85, 180.8164825439453
0, 6, 86, 203.0221862792969
0, 6, 87, 184.3726654052734
0, 6, 88, 192.6902160644531
0, 6, 89, 188.4172210693359
0, 6, 90, 206.4609680175781
0, 6, 91, 199.5720672607422
0, 6, 92, 172.7642211914062
0, 6, 93, 192.5597991943359
0, 6, 94, 189.4789733886719
0, 6, 95, 185.4905548095703
0, 6, 96, 189.1397094726562
0, 6, 97, 194.9893493652344
0, 6, 98, 183.0893707275391
0, 6, 99, 175.266845703125
0, 6, 100, 201.6555023193359
0, 6, 101, 168.9266815185547
0, 6, 102, 201.5765380859375
0, 6, 103, 197.7046661376953
0, 6, 104, 184.4051513671875
0, 6, 105, 195.1157379150391
0, 6, 106, 179.0273284912109
0, 6, 107, 195.2561187744141
0, 6, 108, 171.9518127441406
0, 6, 109, 114.8902206420898
0, 6, 110, 35.78138732910156
0, 6, 111, 9.093001365661621
0, 6, 112, 8.589734077453613
0, 6, 113, 5.365925312042236
0, 6, 114, 7.417751312255859
0, 6, 115, 6.101097583770752
0, 6, 116, 4.027146816253662
0, 6, 117, 4.197285175323486
0, 6, 118, 4.210797786712646
0, 6, 119, 3.883095502853394
0, 6, 120, 3.076246738433838
0, 6, 121, 4.02057409286499
0, 6, 122, 3.168603897094727
0, 6, 123, 3.358216524124146
0, 6, 124, 1.586124777793884
0, 6, 125, 2.736693620681763
0, 6, 126, 1.831477999687195
0, 6, 127, 2.612326145172119
0, 7, 0, 2.619450569152832
0, 7, 1, 1.197147607803345
0, 7, 2, 3.419407844543457
0, 7, 3, 2.035310983657837
0, 7, 4, 0.8966877460479736
0, 7, 5, 1.507761359214783
0, 7, 6, 2.484783172607422
0, 7, 7, 1.501379132270813
0, 7, 8, 3.266384363174438
0, 7, 9, 3.440333843231201
0, 7, 10, 5.565107822418213
0, 7, 11, 2.938878297805786
0, 7, 12, 3.599392414093018
0, 7, 13, 5.661991119384766
0, 7, 14, 7.0233473777771
0, 7, 15, 7.354444026947021
0, 7, 16, 14.93098640441895
0, 7, 17, 50.12335205078125
0, 7, 18, 162.0107116699219
0, 7, 19, 182.6199645996094
0, 7, 20, 179.8412017822266
0, 7, 21, 180.2140350341797
0, 7, 22, 191.77685546875
0, 7, 23, 202.6855316162109
0, 7, 24, 180.1313171386719
0, 7, 25, 214.0357360839844
0, 7, 26, 190.3766784667969
0, 7, 27, 182.4707641601562
0, 7, 28, 182.6784973144531
0, 7, 29, 209.3182220458984
0, 7, 30, 192.9224548339844
0, 7, 31, 175.5583190917969
0, 7, 32, 191.7705078125
0, 7, 33, 181.1527404785156
0, 7, 34, 193.02880859375
0, 7, 35, 197.0935668945312
0, 7, 36, 187.1554412841797
0, 7, 37, 213.5303344726562
0, 7, 38, 191.3252563476562
0, 7, 39, 172.883056640625
0, 7, 40, 183.4825286865234
0, 7, 41, 184.890380859375
0, 7, 42, 178.4391937255859
0, 7, 43, 177.1424102783203
0, 7, 44, 178.8876953125
0, 7, 45, 174.9729614257812
0, 7, 46, 189.4335632324219
0, 7, 47, 198.1121063232422
0, 7, 48, 187.680419921875
0, 7, 49, 200.4947052001953
0, 7, 50, 188.9976959228516
0, 7, 51, 204.2921752929688
0, 7, 52, 204.1552581787109
0, 7, 53, 191.6995239257812
0, 7, 54, 194.6748504638672
0, 7, 55, 203.3526763916016
0, 7, 56, 183.5406341552734
0, 7, 57, 184.9735717773438
0, 7, 58, 192.6889495849609
0, 7, 59, 187.3668823242188
0, 7, 60, 203.7732849121094
0, 7, 61, 171.6357269287109
0, 7, 62, 202.6042633056641
0, 7, 63, 188.5366821289062
0, 7, 64, 199.6758880615234
0, 7, 65, 197.6256866455078
0, 7, 66, 206.2372436523438
0, 7, 67, 222.0921630859375
0, 7, 68, 163.3256530761719
0, 7, 69, 195.2768859863281
0, 7, 70, 217.9761962890625
0, 7, 71, 184.3792724609375
0, 7, 72, 180.6874694824219
0, 7, 73, 177.8529968261719
0, 7, 74, 207.1202239990234
0, 7, 75, 205.717529296875
0, 7, 76, 214.1503601074219
0, 7, 77, 174.4846496582031
0, 7, 78, 177.8010559082031
0, 7, 79, 192.9872283935547
0, 7, 80, 195.2228088378906
0, 7, 81, 215.1244049072266
0, 7, 82, 185.6078796386719
0, 7, 83, 205.4756469726562
0, 7, 84, 192.2696533203125
0, 7, 85, 187.3555603027344
0, 7, 86, 199.7252197265625
0, 7, 87, 227.1011047363281
0, 7, 88, 194.6451873779297
0, 7, 89, 176.218017578125
0, 7, 90, 182.0590515136719
0, 7, 91, 194.8582763671875
0, 7, 92, 193.6540222167969
0, 7, 93, 200.0600280761719
0, 7, 94, 177.9385681152344
0, 7, 95, 197.4646911621094
0, 7, 96, 208.7651672363281
0, 7, 97, 190.7783355712891
0, 7, 98, 177.2118530273438
0, 7, 99, 199.8879089355469
0, 7, 100, 182.3919219970703
0, 7, 101, 199.6590576171875
0, 7, 102, 185.8858947753906
0, 7, 103, 183.4059295654297
0, 7, 104, 175.4985809326172
0, 7, 105, 194.8794403076172
0, 7, 106, 206.5201110839844
0, 7, 107, 172.8753662109375
0, 7, 108, 177.3011627197266
0, 7, 109, 138.6947479248047
0, 7, 110, 54.43524932861328
0, 7, 111, 9.012911796569824
0, 7, 112, 9.172532081604004
0, 7, 113, 8.765854835510254
0, 7, 114, 7.561903476715088
0, 7, 115, 4.914515018463135
0, 7, 116, 4.768529415130615
0, 7, 117, 3.893524408340454
0, 7, 118, 3.882640361785889
0, 7, 119, 2.899758338928223
0, 7, 120, 2.794051885604858
0, 7, 121, 1.928961157798767
0, 7, 122, 2.56044864654541
0, 7, 123, 1.704781293869019
0, 7, 124, 1.83872401714325
0, 7, 125, 3.17902135848999
0, 7, 126, 1.875324249267578
0, 7, 127, 0.9562695026397705
0, 8, 0, 3.533771514892578
0, 8, 1, 3.062659502029419
0, 8, 2, 2.508259057998657
0, 8, 3, 2.739000082015991
0, 8, 4, 1.606384515762329
0, 8, 5, 3.294283866882324
0, 8, 6, 1.100482583045959
0, 8, 7, 2.920592069625854
0, 8, 8, 4.199799060821533
0, 8, 9, 5.544568061828613
0, 8, 10, 2.540565252304077
0, 8, 11, 2.881705045700073
0, 8, 12, 3.264511108398438
0, 8, 13, 5.403545379638672
0, 8, 14, 5.739487648010254
0, 8, 15, 8.220956802368164
0, 8, 16, 20.20169448852539
0, 8, 17, 76.15628051757812
0, 8, 18, 142.2173156738281
0, 8, 19, 179.1707611083984
0, 8, 20, 193.0532531738281
0, 8, 21, 193.1858062744141
0, 8, 22, 179.4298248291016
0, 8, 23, 172.1990356445312
0, 8, 24, 192.2099914550781
0, 8, 25, 185.4021759033203
0, 8, 26, 194.0892639160156
0, 8, 27, 186.1102294921875
0, 8, 28, 185.6368713378906
0, 8, 29, 206.8747711181641
0, 8, 30, 196.7069244384766
0, 8, 31, 181.3618469238281
0, 8, 32, 198.0012664794922
0, 8, 33, 206.9205322265625
0, 8, 34, 204.9909210205078
0, 8, 35, 186.8197174072266
0, 8, 36, 181.5369110107422
