# TOPAS Version: 3.1.p3
# Parameter File: batch_inserts_188.txt
# Results for scorer Readout_Adipose
# Scored in component: MyBox
# X in 1 bin  of 0.65 cm
# Y in 512 bins of 0.0783984 cm
# Z in 128 bins of 0.078125 cm
# EnergyDeposit ( MeV ) : Sum   
0, 0, 0, 1.932627081871033
0, 0, 1, 4.532153129577637
0, 0, 2, 0.8017272353172302
0, 0, 3, 0.881611704826355
0, 0, 4, 1.698138117790222
0, 0, 5, 2.205296993255615
0, 0, 6, 1.076760172843933
0, 0, 7, 2.673028945922852
0, 0, 8, 1.821035504341125
0, 0, 9, 2.602944135665894
0, 0, 10, 4.409903526306152
0, 0, 11, 3.084396123886108
0, 0, 12, 4.374029159545898
0, 0, 13, 2.137862682342529
0, 0, 14, 5.255897521972656
0, 0, 15, 5.368175029754639
0, 0, 16, 4.908438682556152
0, 0, 17, 7.026385307312012
0, 0, 18, 7.995648860931396
0, 0, 19, 23.46975517272949
0, 0, 20, 94.54030609130859
0, 0, 21, 152.2613983154297
0, 0, 22, 153.8542327880859
0, 0, 23, 143.9180755615234
0, 0, 24, 161.2084350585938
0, 0, 25, 166.0347900390625
0, 0, 26, 166.3722076416016
0, 0, 27, 174.3681030273438
0, 0, 28, 179.0941467285156
0, 0, 29, 175.3276824951172
0, 0, 30, 171.9687042236328
0, 0, 31, 166.1984710693359
0, 0, 32, 164.3004455566406
0, 0, 33, 166.8056945800781
0, 0, 34, 177.5328216552734
0, 0, 35, 174.7220611572266
0, 0, 36, 159.7206115722656
0, 0, 37, 161.1889953613281
0, 0, 38, 166.5626831054688
0, 0, 39, 159.3154144287109
0, 0, 40, 164.4475860595703
0, 0, 41, 165.8053741455078
0, 0, 42, 143.0665588378906
0, 0, 43, 168.1256408691406
0, 0, 44, 177.4619293212891
0, 0, 45, 173.1994476318359
0, 0, 46, 166.5636596679688
0, 0, 47, 167.4876861572266
0, 0, 48, 169.5416717529297
0, 0, 49, 183.3761291503906
0, 0, 50, 169.6113128662109
0, 0, 51, 163.5288696289062
0, 0, 52, 163.2246551513672
0, 0, 53, 171.5662994384766
0, 0, 54, 160.5766143798828
0, 0, 55, 165.5652618408203
0, 0, 56, 190.5966644287109
0, 0, 57, 170.4601593017578
0, 0, 58, 160.9306030273438
0, 0, 59, 173.0075378417969
0, 0, 60, 168.7986297607422
0, 0, 61, 170.6911926269531
0, 0, 62, 183.6908874511719
0, 0, 63, 167.470703125
0, 0, 64, 163.4574127197266
0, 0, 65, 176.7362365722656
0, 0, 66, 177.5069885253906
0, 0, 67, 164.3062591552734
0, 0, 68, 158.2263488769531
0, 0, 69, 158.5850067138672
0, 0, 70, 169.5316772460938
0, 0, 71, 158.5005035400391
0, 0, 72, 163.5314636230469
0, 0, 73, 171.6478424072266
0, 0, 74, 163.5420837402344
0, 0, 75, 162.9964904785156
0, 0, 76, 163.1929321289062
0, 0, 77, 172.1266021728516
0, 0, 78, 181.0589752197266
0, 0, 79, 175.437744140625
0, 0, 80, 159.722900390625
0, 0, 81, 160.0074768066406
0, 0, 82, 183.4472503662109
0, 0, 83, 173.9084014892578
0, 0, 84, 159.5833282470703
0, 0, 85, 180.8558807373047
0, 0, 86, 158.5147247314453
0, 0, 87, 176.7397766113281
0, 0, 88, 176.1107482910156
0, 0, 89, 175.3162384033203
0, 0, 90, 161.4823150634766
0, 0, 91, 186.7599182128906
0, 0, 92, 164.0544128417969
0, 0, 93, 156.0921325683594
0, 0, 94, 168.6079254150391
0, 0, 95, 175.5410614013672
0, 0, 96, 184.0924835205078
0, 0, 97, 183.9089508056641
0, 0, 98, 185.4090270996094
0, 0, 99, 171.9836883544922
0, 0, 100, 159.4765319824219
0, 0, 101, 166.4496917724609
0, 0, 102, 171.4630279541016
0, 0, 103, 171.4727478027344
0, 0, 104, 168.4884796142578
0, 0, 105, 178.42578125
0, 0, 106, 159.1484527587891
0, 0, 107, 86.7369384765625
0, 0, 108, 21.96743202209473
0, 0, 109, 11.42342662811279
0, 0, 110, 6.027422904968262
0, 0, 111, 6.574824333190918
0, 0, 112, 3.761354207992554
0, 0, 113, 2.817325592041016
0, 0, 114, 2.510847806930542
0, 0, 115, 3.417341232299805
0, 0, 116, 2.521066665649414
0, 0, 117, 1.817701697349548
0, 0, 118, 3.407172679901123
0, 0, 119, 2.591135740280151
0, 0, 120, 1.390028953552246
0, 0, 121, 4.165770530700684
0, 0, 122, 3.807499408721924
0, 0, 123, 3.727515697479248
0, 0, 124, 3.19587516784668
0, 0, 125, 2.114181041717529
0, 0, 126, 3.145351886749268
0, 0, 127, 1.971270799636841
0, 1, 0, 1.30609917640686
0, 1, 1, 3.750725269317627
0, 1, 2, 3.987204074859619
0, 1, 3, 1.06012237071991
0, 1, 4, 1.989036798477173
0, 1, 5, 3.064568042755127
0, 1, 6, 1.406369209289551
0, 1, 7, 2.048357009887695
0, 1, 8, 1.596556186676025
0, 1, 9, 2.131181478500366
0, 1, 10, 4.37230920791626
0, 1, 11, 4.073756694793701
0, 1, 12, 2.722484350204468
0, 1, 13, 2.55217981338501
0, 1, 14, 5.237846374511719
0, 1, 15, 6.985944747924805
0, 1, 16, 8.109226226806641
0, 1, 17, 4.821559906005859
0, 1, 18, 10.61999320983887
0, 1, 19, 40.27924346923828
0, 1, 20, 125.4814910888672
0, 1, 21, 177.1822967529297
0, 1, 22, 192.8186798095703
0, 1, 23, 184.9176788330078
0, 1, 24, 179.4427032470703
0, 1, 25, 192.9359130859375
0, 1, 26, 197.2534484863281
0, 1, 27, 186.8978424072266
0, 1, 28, 188.3387756347656
0, 1, 29, 186.1822204589844
0, 1, 30, 180.0899810791016
0, 1, 31, 182.3398895263672
0, 1, 32, 188.5454711914062
0, 1, 33, 191.1916809082031
0, 1, 34, 184.7765197753906
0, 1, 35, 195.5597076416016
0, 1, 36, 205.3715057373047
0, 1, 37, 184.7203979492188
0, 1, 38, 165.7085113525391
0, 1, 39, 172.3025054931641
0, 1, 40, 179.3199768066406
0, 1, 41, 185.1278381347656
0, 1, 42, 184.4853668212891
0, 1, 43, 186.5992126464844
0, 1, 44, 167.9575958251953
0, 1, 45, 187.2682647705078
0, 1, 46, 170.9277038574219
0, 1, 47, 184.8607330322266
0, 1, 48, 187.0468292236328
0, 1, 49, 186.5473022460938
0, 1, 50, 177.9534606933594
0, 1, 51, 190.7074584960938
0, 1, 52, 195.6219940185547
0, 1, 53, 195.3818054199219
0, 1, 54, 185.5016021728516
0, 1, 55, 165.1088104248047
0, 1, 56, 178.9242553710938
0, 1, 57, 177.9105682373047
0, 1, 58, 188.6109924316406
0, 1, 59, 193.9364013671875
0, 1, 60, 188.7928771972656
0, 1, 61, 178.7072601318359
0, 1, 62, 204.4922180175781
0, 1, 63, 173.798583984375
0, 1, 64, 172.3251800537109
0, 1, 65, 184.7033996582031
0, 1, 66, 203.9281311035156
0, 1, 67, 184.4350280761719
0, 1, 68, 187.4575958251953
0, 1, 69, 188.9341430664062
0, 1, 70, 186.2165985107422
0, 1, 71, 171.3786773681641
0, 1, 72, 188.2874908447266
0, 1, 73, 190.7500915527344
0, 1, 74, 200.9560852050781
0, 1, 75, 183.5928802490234
0, 1, 76, 173.9706268310547
0, 1, 77, 191.4926147460938
0, 1, 78, 188.3519287109375
0, 1, 79, 201.6679840087891
0, 1, 80, 186.6413116455078
0, 1, 81, 175.3501586914062
0, 1, 82, 208.3684539794922
0, 1, 83, 211.7559814453125
0, 1, 84, 180.6954193115234
0, 1, 85, 169.588623046875
0, 1, 86, 168.5952911376953
0, 1, 87, 185.7824096679688
0, 1, 88, 174.8140869140625
0, 1, 89, 187.7262420654297
0, 1, 90, 212.6289672851562
0, 1, 91, 181.1585540771484
0, 1, 92, 183.5605163574219
0, 1, 93, 181.0459136962891
0, 1, 94, 185.3600158691406
0, 1, 95, 183.1030883789062
0, 1, 96, 195.9608612060547
0, 1, 97, 182.3098907470703
0, 1, 98, 186.6620178222656
0, 1, 99, 175.4072265625
0, 1, 100, 171.5079498291016
0, 1, 101, 177.2324676513672
0, 1, 102, 182.5896911621094
0, 1, 103, 172.7911682128906
0, 1, 104, 189.9090576171875
0, 1, 105, 183.0586853027344
0, 1, 106, 163.7096557617188
0, 1, 107, 123.8519668579102
0, 1, 108, 47.86682510375977
0, 1, 109, 9.344026565551758
0, 1, 110, 7.430866241455078
0, 1, 111, 6.953600883483887
0, 1, 112, 6.866343975067139
0, 1, 113, 7.56194543838501
0, 1, 114, 7.019965171813965
0, 1, 115, 4.453266620635986
0, 1, 116, 3.615329265594482
0, 1, 117, 2.961437225341797
0, 1, 118, 2.789469957351685
0, 1, 119, 0.8615142703056335
0, 1, 120, 3.353047847747803
0, 1, 121, 4.336165904998779
0, 1, 122, 2.216976642608643
0, 1, 123, 4.339236736297607
0, 1, 124, 2.922218322753906
0, 1, 125, 2.190339803695679
0, 1, 126, 1.298770070075989
0, 1, 127, 1.901456713676453
0, 2, 0, 0.9752942323684692
0, 2, 1, 2.869242906570435
0, 2, 2, 3.594511747360229
0, 2, 3, 1.790134072303772
0, 2, 4, 1.091394305229187
0, 2, 5, 1.382071852684021
0, 2, 6, 3.355566024780273
0, 2, 7, 2.091923952102661
0, 2, 8, 1.21063768863678
0, 2, 9, 1.979126930236816
0, 2, 10, 4.361637592315674
0, 2, 11, 4.79095458984375
0, 2, 12, 4.030689239501953
0, 2, 13, 5.828267574310303
0, 2, 14, 4.681156158447266
0, 2, 15, 6.200907707214355
0, 2, 16, 4.34011173248291
0, 2, 17, 11.40847778320312
0, 2, 18, 14.21302604675293
0, 2, 19, 78.09386444091797
0, 2, 20, 162.5585174560547
0, 2, 21, 184.9389801025391
0, 2, 22, 194.0214538574219
0, 2, 23, 183.7453002929688
0, 2, 24, 173.6816253662109
0, 2, 25, 183.7423095703125
0, 2, 26, 179.3114776611328
0, 2, 27, 191.50439453125
0, 2, 28, 171.8542785644531
0, 2, 29, 168.4821472167969
0, 2, 30, 187.2886962890625
0, 2, 31, 182.5121765136719
0, 2, 32, 183.8183288574219
0, 2, 33, 190.3813629150391
0, 2, 34, 196.5305633544922
0, 2, 35, 181.3923797607422
0, 2, 36, 186.3912963867188
0, 2, 37, 180.7438659667969
0, 2, 38, 185.1591186523438
0, 2, 39, 165.8414001464844
0, 2, 40, 183.9442596435547
0, 2, 41, 184.7671661376953
0, 2, 42, 190.1817169189453
0, 2, 43, 193.8938903808594
0, 2, 44, 191.0941314697266
0, 2, 45, 190.5693206787109
0, 2, 46, 198.2957763671875
0, 2, 47, 188.953125
0, 2, 48, 176.7237548828125
0, 2, 49, 198.0966033935547
0, 2, 50, 167.7608032226562
0, 2, 51, 186.5125122070312
0, 2, 52, 185.4541168212891
0, 2, 53, 195.1836395263672
0, 2, 54, 175.3162231445312
0, 2, 55, 173.1340942382812
0, 2, 56, 181.5072784423828
0, 2, 57, 200.6807250976562
0, 2, 58, 187.1489410400391
0, 2, 59, 188.9609069824219
0, 2, 60, 197.5105743408203
0, 2, 61, 192.9010620117188
0, 2, 62, 189.8987121582031
0, 2, 63, 169.2265472412109
0, 2, 64, 190.9090728759766
0, 2, 65, 203.834228515625
0, 2, 66, 196.3970489501953
0, 2, 67, 185.4943237304688
0, 2, 68, 182.3166198730469
0, 2, 69, 188.6186981201172
0, 2, 70, 203.1101684570312
0, 2, 71, 175.2892913818359
0, 2, 72, 186.5286407470703
0, 2, 73, 177.6467590332031
0, 2, 74, 180.7849273681641
0, 2, 75, 195.9808959960938
0, 2, 76, 185.0737915039062
0, 2, 77, 178.1405792236328
0, 2, 78, 198.4240264892578
0, 2, 79, 178.0713195800781
0, 2, 80, 185.9802398681641
0, 2, 81, 186.7536773681641
0, 2, 82, 205.2090606689453
0, 2, 83, 203.9280853271484
0, 2, 84, 188.2406311035156
0, 2, 85, 170.2906188964844
0, 2, 86, 194.7451934814453
0, 2, 87, 171.9268341064453
0, 2, 88, 177.2466430664062
0, 2, 89, 184.3470001220703
0, 2, 90, 178.0503082275391
0, 2, 91, 172.3271636962891
0, 2, 92, 197.2926177978516
0, 2, 93, 195.1305847167969
0, 2, 94, 201.3797149658203
0, 2, 95, 193.4178009033203
0, 2, 96, 187.0462341308594
0, 2, 97, 171.4849548339844
0, 2, 98, 173.2822113037109
0, 2, 99, 162.6261291503906
0, 2, 100, 188.4277038574219
0, 2, 101, 196.4817199707031
0, 2, 102, 176.1714630126953
0, 2, 103, 199.7958679199219
0, 2, 104, 187.8714752197266
0, 2, 105, 200.7921295166016
0, 2, 106, 194.77294921875
0, 2, 107, 149.20458984375
0, 2, 108, 79.94075775146484
0, 2, 109, 19.38791275024414
0, 2, 110, 9.943585395812988
0, 2, 111, 5.65735912322998
0, 2, 112, 3.604260921478271
0, 2, 113, 3.938214063644409
0, 2, 114, 7.653650283813477
0, 2, 115, 5.774264335632324
0, 2, 116, 3.939106702804565
0, 2, 117, 1.819777369499207
0, 2, 118, 3.99601411819458
0, 2, 119, 4.180216789245605
0, 2, 120, 2.082092761993408
0, 2, 121, 3.986974239349365
0, 2, 122, 2.814816951751709
0, 2, 123, 2.031013011932373
0, 2, 124, 1.752529382705688
0, 2, 125, 3.126143932342529
0, 2, 126, 2.49922251701355
0, 2, 127, 0.8401283621788025
0, 3, 0, 1.486006379127502
0, 3, 1, 2.790719270706177
0, 3, 2, 1.617093801498413
0, 3, 3, 1.423801422119141
0, 3, 4, 4.16506290435791
0, 3, 5, 1.313696384429932
0, 3, 6, 1.893123030662537
0, 3, 7, 1.176784753799438
0, 3, 8, 1.82220470905304
0, 3, 9, 1.609166622161865
0, 3, 10, 2.524157524108887
0, 3, 11, 3.568032741546631
0, 3, 12, 3.311115503311157
0, 3, 13, 3.923778295516968
0, 3, 14, 4.416012763977051
0, 3, 15, 8.805706977844238
0, 3, 16, 7.080672740936279
0, 3, 17, 6.582124710083008
0, 3, 18, 31.80860137939453
0, 3, 19, 115.1978988647461
0, 3, 20, 180.1980895996094
0, 3, 21, 173.7112426757812
0, 3, 22, 178.0590057373047
0, 3, 23, 188.2740325927734
0, 3, 24, 177.5508880615234
0, 3, 25, 168.3324890136719
0, 3, 26, 180.7766571044922
0, 3, 27, 188.59033203125
0, 3, 28, 181.6488647460938
0, 3, 29, 196.9358062744141
0, 3, 30, 185.5698547363281
0, 3, 31, 194.3905334472656
0, 3, 32, 206.0059967041016
0, 3, 33, 197.5917358398438
0, 3, 34, 187.4648895263672
0, 3, 35, 174.7210083007812
0, 3, 36, 185.374755859375
0, 3, 37, 200.3618469238281
0, 3, 38, 190.5005950927734
0, 3, 39, 185.2780609130859
0, 3, 40, 165.8854217529297
0, 3, 41, 173.8959045410156
0, 3, 42, 186.6001129150391
0, 3, 43, 181.8883819580078
0, 3, 44, 202.4210815429688
0, 3, 45, 207.8503875732422
0, 3, 46, 199.0052337646484
0, 3, 47, 195.1625366210938
0, 3, 48, 195.5285186767578
0, 3, 49, 180.3099517822266
0, 3, 50, 186.2337036132812
0, 3, 51, 174.5867462158203
0, 3, 52, 186.7840270996094
0, 3, 53, 177.9111633300781
0, 3, 54, 179.3163299560547
0, 3, 55, 176.8845825195312
0, 3, 56, 181.8361511230469
0, 3, 57, 176.0647430419922
0, 3, 58, 202.150390625
0, 3, 59, 196.5633392333984
0, 3, 60, 186.0540771484375
0, 3, 61, 181.7893676757812
0, 3, 62, 183.4444732666016
0, 3, 63, 184.6816558837891
0, 3, 64, 188.1329345703125
0, 3, 65, 188.2059478759766
0, 3, 66, 175.1550750732422
0, 3, 67, 190.1568756103516
0, 3, 68, 211.3600463867188
0, 3, 69, 189.0413970947266
0, 3, 70, 185.6555480957031
0, 3, 71, 197.3251953125
0, 3, 72, 186.1972808837891
0, 3, 73, 186.8411102294922
0, 3, 74, 192.5961608886719
0, 3, 75, 192.9814147949219
0, 3, 76, 190.7621612548828
0, 3, 77, 198.2557830810547
0, 3, 78, 189.4650421142578
0, 3, 79, 185.8303985595703
0, 3, 80, 193.4062957763672
0, 3, 81, 182.8501739501953
0, 3, 82, 179.0447235107422
0, 3, 83, 196.01025390625
0, 3, 84, 198.8791809082031
0, 3, 85, 193.7840423583984
0, 3, 86, 204.1302337646484
0, 3, 87, 196.9109954833984
0, 3, 88, 191.6516265869141
0, 3, 89, 194.1362915039062
0, 3, 90, 176.0838623046875
0, 3, 91, 157.2718963623047
0, 3, 92, 206.8852081298828
0, 3, 93, 197.3148040771484
0, 3, 94, 193.9153747558594
0, 3, 95, 211.0820007324219
0, 3, 96, 208.8119506835938
0, 3, 97, 167.0782470703125
0, 3, 98, 169.5509338378906
0, 3, 99, 180.0084381103516
0, 3, 100, 176.6379241943359
0, 3, 101, 198.1286468505859
0, 3, 102, 195.0376586914062
0, 3, 103, 192.7165222167969
0, 3, 104, 205.0740966796875
0, 3, 105, 177.0233306884766
0, 3, 106, 180.6190643310547
0, 3, 107, 171.1807861328125
0, 3, 108, 108.6895904541016
0, 3, 109, 27.06625175476074
0, 3, 110, 7.770054340362549
0, 3, 111, 6.49138069152832
0, 3, 112, 4.225559711456299
0, 3, 113, 7.478621482849121
0, 3, 114, 4.80402660369873
0, 3, 115, 5.255533695220947
0, 3, 116, 4.772652149200439
0, 3, 117, 4.123284339904785
0, 3, 118, 2.273072719573975
0, 3, 119, 2.462387561798096
0, 3, 120, 4.310710906982422
0, 3, 121, 1.311338186264038
0, 3, 122, 3.077642679214478
0, 3, 123, 0.99803227186203
0, 3, 124, 1.25992739200592
0, 3, 125, 2.859424591064453
0, 3, 126, 1.260319232940674
0, 3, 127, 2.447752952575684
0, 4, 0, 1.206215500831604
0, 4, 1, 0.1908204555511475
0, 4, 2, 2.189542293548584
0, 4, 3, 4.241886138916016
0, 4, 4, 1.65265953540802
0, 4, 5, 0.7917848825454712
0, 4, 6, 2.986885547637939
0, 4, 7, 2.571397304534912
0, 4, 8, 1.802242517471313
0, 4, 9, 1.869623899459839
0, 4, 10, 5.249866485595703
0, 4, 11, 4.316703796386719
0, 4, 12, 5.273396492004395
0, 4, 13, 4.15378475189209
0, 4, 14, 4.291743755340576
0, 4, 15, 8.177364349365234
0, 4, 16, 6.4743332862854
0, 4, 17, 11.59461879730225
0, 4, 18, 53.91630172729492
0, 4, 19, 150.1746673583984
0, 4, 20, 192.7677001953125
0, 4, 21, 170.6403350830078
0, 4, 22, 187.3332824707031
0, 4, 23, 195.7101898193359
0, 4, 24, 193.1355895996094
0, 4, 25, 200.2119140625
0, 4, 26, 183.9822540283203
0, 4, 27, 191.7981109619141
0, 4, 28, 177.9984436035156
0, 4, 29, 205.1015930175781
0, 4, 30, 195.1409149169922
0, 4, 31, 192.8848571777344
0, 4, 32, 209.7682800292969
0, 4, 33, 190.7783203125
0, 4, 34, 192.3658294677734
0, 4, 35, 212.1644897460938
0, 4, 36, 192.6459503173828
0, 4, 37, 177.7267150878906
0, 4, 38, 194.5836944580078
0, 4, 39, 189.6097869873047
0, 4, 40, 185.350341796875
0, 4, 41, 189.2582092285156
0, 4, 42, 205.2593078613281
0, 4, 43, 173.5102386474609
0, 4, 44, 183.1583251953125
0, 4, 45, 195.6284332275391
0, 4, 46, 187.0369110107422
0, 4, 47, 180.4740447998047
0, 4, 48, 186.1932220458984
0, 4, 49, 174.2861785888672
0, 4, 50, 185.4180145263672
0, 4, 51, 197.2535552978516
0, 4, 52, 223.2935485839844
0, 4, 53, 207.0086822509766
0, 4, 54, 189.6238403320312
0, 4, 55, 174.6279907226562
0, 4, 56, 190.3350067138672
0, 4, 57, 191.0322265625
0, 4, 58, 187.0024871826172
0, 4, 59, 189.0181121826172
0, 4, 60, 196.0924072265625
0, 4, 61, 193.5708923339844
0, 4, 62, 191.0224151611328
0, 4, 63, 178.5460968017578
0, 4, 64, 212.7298126220703
0, 4, 65, 190.8516387939453
0, 4, 66, 201.2778015136719
0, 4, 67, 199.0831298828125
0, 4, 68, 200.76708984375
0, 4, 69, 198.6186370849609
0, 4, 70, 204.2924041748047
0, 4, 71, 206.1106109619141
0, 4, 72, 216.4151000976562
0, 4, 73, 185.4732055664062
0, 4, 74, 181.4641723632812
0, 4, 75, 185.2221527099609
0, 4, 76, 190.0222015380859
0, 4, 77, 183.3416748046875
0, 4, 78, 195.0851135253906
0, 4, 79, 205.6105499267578
0, 4, 80, 213.2070770263672
0, 4, 81, 198.8618011474609
0, 4, 82, 182.4763641357422
0, 4, 83, 171.2843627929688
0, 4, 84, 192.7998046875
0, 4, 85, 198.1131591796875
0, 4, 86, 180.4756011962891
0, 4, 87, 182.9155120849609
0, 4, 88, 204.2587585449219
0, 4, 89, 187.1419372558594
0, 4, 90, 211.5819549560547
0, 4, 91, 189.8588256835938
0, 4, 92, 196.4836883544922
0, 4, 93, 196.8318939208984
0, 4, 94, 182.2868499755859
0, 4, 95, 174.7360687255859
0, 4, 96, 191.0675964355469
0, 4, 97, 192.8491821289062
0, 4, 98, 201.2405090332031
0, 4, 99, 182.5566253662109
0, 4, 100, 183.0641784667969
0, 4, 101, 177.1228485107422
0, 4, 102, 172.8087463378906
0, 4, 103, 185.3273773193359
0, 4, 104, 210.7222900390625
0, 4, 105, 189.8426208496094
0, 4, 106, 178.9887237548828
0, 4, 107, 181.2037048339844
0, 4, 108, 151.6039581298828
0, 4, 109, 51.08670806884766
0, 4, 110, 10.8975133895874
0, 4, 111, 8.687225341796875
0, 4, 112, 6.373729705810547
0, 4, 113, 5.655456066131592
0, 4, 114, 5.033486843109131
0, 4, 115, 4.338847160339355
0, 4, 116, 5.621494293212891
0, 4, 117, 3.046553134918213
0, 4, 118, 4.246813774108887
0, 4, 119, 2.923581600189209
0, 4, 120, 3.023595571517944
0, 4, 121, 1.417333960533142
0, 4, 122, 2.457562923431396
0, 4, 123, 2.443404912948608
0, 4, 124, 3.354518890380859
0, 4, 125, 2.783986806869507
0, 4, 126, 1.802833676338196
0, 4, 127, 1.252259612083435
0, 5, 0, 1.224213123321533
0, 5, 1, 3.797850608825684
0, 5, 2, 5.939011573791504
0, 5, 3, 3.397382736206055
0, 5, 4, 3.13920783996582
0, 5, 5, 1.691707968711853
0, 5, 6, 2.498034000396729
0, 5, 7, 4.014201641082764
0, 5, 8, 2.245180606842041
0, 5, 9, 2.537899017333984
0, 5, 10, 4.212234020233154
0, 5, 11, 3.280229806900024
0, 5, 12, 4.83098030090332
0, 5, 13, 4.069732189178467
0, 5, 14, 4.714849472045898
0, 5, 15, 9.28608226776123
0, 5, 16, 8.584518432617188
0, 5, 17, 21.26383018493652
0, 5, 18, 84.30831146240234
0, 5, 19, 163.9683837890625
0, 5, 20, 183.1231384277344
0, 5, 21, 177.7444458007812
0, 5, 22, 170.7810821533203
0, 5, 23, 200.8530883789062
0, 5, 24, 187.1302795410156
0, 5, 25, 207.6623077392578
0, 5, 26, 183.5231323242188
0, 5, 27, 196.1868743896484
0, 5, 28, 189.2773284912109
0, 5, 29, 195.1627807617188
0, 5, 30, 176.8567504882812
0, 5, 31, 181.0010223388672
0, 5, 32, 185.8525848388672
0, 5, 33, 168.5904998779297
0, 5, 34, 194.6921844482422
0, 5, 35, 196.7190246582031
0, 5, 36, 167.4098663330078
0, 5, 37, 196.5569458007812
0, 5, 38, 181.2174377441406
0, 5, 39, 185.6620788574219
0, 5, 40, 197.9232635498047
0, 5, 41, 177.1943054199219
0, 5, 42, 187.7369079589844
0, 5, 43, 193.6121673583984
0, 5, 44, 199.525390625
0, 5, 45, 186.7790985107422
0, 5, 46, 192.8067474365234
0, 5, 47, 180.4343414306641
0, 5, 48, 179.8796539306641
0, 5, 49, 177.4231262207031
0, 5, 50, 185.9188690185547
0, 5, 51, 172.6923828125
0, 5, 52, 167.9161834716797
0, 5, 53, 182.3225250244141
0, 5, 54, 172.4194946289062
0, 5, 55, 215.6420745849609
0, 5, 56, 182.3283386230469
0, 5, 57, 207.0028076171875
0, 5, 58, 180.8299560546875
0, 5, 59, 181.3611450195312
0, 5, 60, 220.0208892822266
0, 5, 61, 185.0493774414062
0, 5, 62, 179.6237030029297
0, 5, 63, 180.5679779052734
0, 5, 64, 193.4557037353516
0, 5, 65, 209.7450561523438
0, 5, 66, 191.5203552246094
0, 5, 67, 199.1083374023438
0, 5, 68, 187.2123413085938
0, 5, 69, 186.2432403564453
0, 5, 70, 184.8180847167969
0, 5, 71, 193.1744232177734
0, 5, 72, 199.0684967041016
0, 5, 73, 202.0151824951172
0, 5, 74, 179.1224670410156
0, 5, 75, 203.4025268554688
0, 5, 76, 214.1461181640625
0, 5, 77, 180.6801452636719
0, 5, 78, 194.1907348632812
0, 5, 79, 190.4183197021484
0, 5, 80, 198.3614196777344
0, 5, 81, 203.1102294921875
0, 5, 82, 200.752685546875
0, 5, 83, 189.0159912109375
0, 5, 84, 205.3475799560547
0, 5, 85, 176.0942687988281
0, 5, 86, 194.4052581787109
0, 5, 87, 188.6887359619141
0, 5, 88, 177.3370208740234
0, 5, 89, 194.2582244873047
0, 5, 90, 198.9131927490234
0, 5, 91, 194.4633331298828
0, 5, 92, 189.6912384033203
0, 5, 93, 189.8089599609375
0, 5, 94, 207.5639038085938
0, 5, 95, 177.0004577636719
0, 5, 96, 182.0592498779297
0, 5, 97, 191.3118743896484
0, 5, 98, 188.7368011474609
0, 5, 99, 195.1061248779297
0, 5, 100, 185.8634338378906
0, 5, 101, 196.3593444824219
0, 5, 102, 180.9906921386719
0, 5, 103, 176.4498748779297
0, 5, 104, 191.1636810302734
0, 5, 105, 189.6846008300781
0, 5, 106, 177.5589447021484
0, 5, 107, 181.4060821533203
0, 5, 108, 175.1675109863281
0, 5, 109, 88.36711883544922
0, 5, 110, 32.06916046142578
0, 5, 111, 8.98865795135498
0, 5, 112, 6.38991641998291
0, 5, 113, 5.292353630065918
0, 5, 114, 6.994453430175781
0, 5, 115, 5.987286567687988
0, 5, 116, 4.47468376159668
0, 5, 117, 3.890997886657715
0, 5, 118, 5.033926010131836
0, 5, 119, 3.312676191329956
0, 5, 120, 2.313128232955933
0, 5, 121, 1.25836455821991
0, 5, 122, 3.090845823287964
0, 5, 123, 3.383366823196411
0, 5, 124, 2.733720779418945
0, 5, 125, 1.290628790855408
0, 5, 126, 2.409616231918335
0, 5, 127, 2.244110822677612
0, 6, 0, 4.938114166259766
0, 6, 1, 3.787286043167114
0, 6, 2, 3.868951559066772
0, 6, 3, 2.341723918914795
0, 6, 4, 2.503479719161987
0, 6, 5, 5.52141809463501
0, 6, 6, 2.657023906707764
0, 6, 7, 3.53814435005188
0, 6, 8, 5.585219383239746
0, 6, 9, 3.818202495574951
0, 6, 10, 6.953007698059082
0, 6, 11, 3.396838426589966
0, 6, 12, 4.488518238067627
0, 6, 13, 5.050646305084229
0, 6, 14, 5.667705059051514
0, 6, 15, 6.256900310516357
0, 6, 16, 13.30705833435059
0, 6, 17, 28.54636764526367
0, 6, 18, 113.1716690063477
0, 6, 19, 191.4784088134766
0, 6, 20, 194.6451416015625
0, 6, 21, 198.3024597167969
0, 6, 22, 191.9380340576172
0, 6, 23, 190.6024169921875
0, 6, 24, 200.5491333007812
0, 6, 25, 181.8553314208984
0, 6, 26, 187.7373046875
0, 6, 27, 193.0667572021484
0, 6, 28, 188.6629638671875
0, 6, 29, 212.2603912353516
0, 6, 30, 189.3319702148438
0, 6, 31, 194.3081817626953
0, 6, 32, 206.5996856689453
0, 6, 33, 183.3253936767578
0, 6, 34, 196.8159484863281
0, 6, 35, 187.9607238769531
0, 6, 36, 180.1777648925781
0, 6, 37, 183.3117980957031
0, 6, 38, 187.7056427001953
0, 6, 39, 195.3496856689453
0, 6, 40, 176.3523864746094
0, 6, 41, 187.4490814208984
0, 6, 42, 177.8126525878906
0, 6, 43, 209.6727294921875
0, 6, 44, 210.4650268554688
0, 6, 45, 195.2346496582031
0, 6, 46, 188.9488525390625
0, 6, 47, 204.8783721923828
0, 6, 48, 188.9282836914062
0, 6, 49, 179.5535583496094
0, 6, 50, 182.1400909423828
0, 6, 51, 197.281982421875
0, 6, 52, 197.0656433105469
0, 6, 53, 185.2646026611328
0, 6, 54, 174.9598846435547
0, 6, 55, 193.9145660400391
0, 6, 56, 202.3496398925781
0, 6, 57, 191.0670166015625
0, 6, 58, 179.2644500732422
0, 6, 59, 192.4319458007812
0, 6, 60, 183.7793121337891
0, 6, 61, 194.3000946044922
0, 6, 62, 196.5909576416016
0, 6, 63, 186.9573669433594
0, 6, 64, 169.1059417724609
0, 6, 65, 185.2941436767578
0, 6, 66, 197.2827606201172
0, 6, 67, 214.3177947998047
0, 6, 68, 181.3191680908203
0, 6, 69, 170.4108734130859
0, 6, 70, 187.3237915039062
0, 6, 71, 170.3731689453125
0, 6, 72, 176.2947235107422
0, 6, 73, 176.9865875244141
0, 6, 74, 211.4753112792969
0, 6, 75, 227.0524291992188
0, 6, 76, 185.0283813476562
0, 6, 77, 174.2383270263672
0, 6, 78, 175.3392639160156
0, 6, 79, 186.4126129150391
0, 6, 80, 187.5555419921875
0, 6, 81, 208.4261474609375
0, 6, 82, 195.3668670654297
0, 6, 83, 196.3684692382812
0, 6, 84, 198.5319976806641
0, 6, 85, 182.7909545898438
0, 6, 86, 200.9992370605469
0, 6, 87, 182.8224487304688
0, 6, 88, 191.4937896728516
0, 6, 89, 188.5518188476562
0, 6, 90, 205.2340850830078
0, 6, 91, 200.6985778808594
0, 6, 92, 173.8277893066406
0, 6, 93, 192.7388153076172
0, 6, 94, 190.0816345214844
0, 6, 95, 186.7559967041016
0, 6, 96, 189.1208953857422
0, 6, 97, 196.1994781494141
0, 6, 98, 183.0424346923828
0, 6, 99, 174.9298553466797
0, 6, 100, 203.1753387451172
0, 6, 101, 168.9602661132812
0, 6, 102, 201.6262512207031
0, 6, 103, 196.9536895751953
0, 6, 104, 184.4048461914062
0, 6, 105, 195.1506500244141
0, 6, 106, 177.1444854736328
0, 6, 107, 195.416748046875
0, 6, 108, 171.2818756103516
0, 6, 109, 115.4817733764648
0, 6, 110, 33.42228317260742
0, 6, 111, 8.617185592651367
0, 6, 112, 9.219749450683594
0, 6, 113, 5.440170288085938
0, 6, 114, 6.395978450775146
0, 6, 115, 7.091775894165039
0, 6, 116, 4.637604236602783
0, 6, 117, 4.358743667602539
0, 6, 118, 3.394075870513916
0, 6, 119, 5.109970092773438
0, 6, 120, 2.194172143936157
0, 6, 121, 3.793545484542847
0, 6, 122, 3.800617456436157
0, 6, 123, 2.463187456130981
0, 6, 124, 2.963575839996338
0, 6, 125, 2.781142950057983
0, 6, 126, 3.29209041595459
0, 6, 127, 1.979493141174316
0, 7, 0, 3.269944190979004
0, 7, 1, 2.400037288665771
0, 7, 2, 3.32793116569519
0, 7, 3, 3.652284860610962
0, 7, 4, 3.16189169883728
0, 7, 5, 1.420093655586243
0, 7, 6, 4.032125949859619
0, 7, 7, 2.218106985092163
0, 7, 8, 3.587723970413208
0, 7, 9, 2.955718040466309
0, 7, 10, 6.049605846405029
0, 7, 11, 2.842643260955811
0, 7, 12, 3.252353668212891
0, 7, 13, 5.67223072052002
0, 7, 14, 6.385934829711914
0, 7, 15, 6.977312088012695
0, 7, 16, 14.5124454498291
0, 7, 17, 51.77603530883789
0, 7, 18, 162.4187774658203
0, 7, 19, 181.9684600830078
0, 7, 20, 179.8020782470703
0, 7, 21, 180.0923309326172
0, 7, 22, 191.2551574707031
0, 7, 23, 203.3942565917969
0, 7, 24, 180.5717926025391
0, 7, 25, 214.3636474609375
0, 7, 26, 188.87353515625
0, 7, 27, 182.0937347412109
0, 7, 28, 182.3900909423828
0, 7, 29, 208.6817169189453
0, 7, 30, 192.7131958007812
0, 7, 31, 176.1523742675781
0, 7, 32, 189.7546234130859
0, 7, 33, 182.6916198730469
0, 7, 34, 193.1840972900391
0, 7, 35, 199.3342132568359
0, 7, 36, 187.9347229003906
0, 7, 37, 213.2969207763672
0, 7, 38, 191.8038330078125
0, 7, 39, 172.9273376464844
0, 7, 40, 183.2102203369141
0, 7, 41, 184.7560729980469
0, 7, 42, 178.1389617919922
0, 7, 43, 177.2078399658203
0, 7, 44, 180.9647521972656
0, 7, 45, 175.3199920654297
0, 7, 46, 187.084228515625
0, 7, 47, 197.5121307373047
0, 7, 48, 187.0081939697266
0, 7, 49, 201.4425354003906
0, 7, 50, 189.9792785644531
0, 7, 51, 203.9556121826172
0, 7, 52, 203.6601257324219
0, 7, 53, 191.5365142822266
0, 7, 54, 194.3146057128906
0, 7, 55, 203.4589233398438
0, 7, 56, 183.4002075195312
0, 7, 57, 184.5582580566406
0, 7, 58, 193.4857330322266
0, 7, 59, 186.6105041503906
0, 7, 60, 202.7283782958984
0, 7, 61, 171.5380706787109
0, 7, 62, 202.7567901611328
0, 7, 63, 188.6179504394531
0, 7, 64, 199.805908203125
0, 7, 65, 196.8516693115234
0, 7, 66, 206.5751037597656
0, 7, 67, 221.7943115234375
0, 7, 68, 162.9421539306641
0, 7, 69, 194.7947845458984
0, 7, 70, 217.6336212158203
0, 7, 71, 184.5276336669922
0, 7, 72, 180.6543426513672
0, 7, 73, 176.7782135009766
0, 7, 74, 207.7602233886719
0, 7, 75, 204.2616577148438
0, 7, 76, 216.0065612792969
0, 7, 77, 174.1885070800781
0, 7, 78, 176.8561859130859
0, 7, 79, 192.1580505371094
0, 7, 80, 195.6354827880859
0, 7, 81, 214.2218475341797
0, 7, 82, 184.5575561523438
0, 7, 83, 205.3560028076172
0, 7, 84, 192.7997131347656
0, 7, 85, 187.0274963378906
0, 7, 86, 200.3942565917969
0, 7, 87, 226.1016693115234
0, 7, 88, 194.7393646240234
0, 7, 89, 176.1339721679688
0, 7, 90, 182.3745422363281
0, 7, 91, 194.0389251708984
0, 7, 92, 195.0560760498047
0, 7, 93, 198.3018188476562
0, 7, 94, 178.1751708984375
0, 7, 95, 197.2301330566406
0, 7, 96, 208.150390625
0, 7, 97, 189.1638031005859
0, 7, 98, 176.4558563232422
0, 7, 99, 197.9507293701172
0, 7, 100, 181.7765197753906
0, 7, 101, 199.9002380371094
0, 7, 102, 185.6848907470703
0, 7, 103, 180.9906768798828
0, 7, 104, 175.0540008544922
0, 7, 105, 194.8462066650391
0, 7, 106, 205.2032165527344
0, 7, 107, 174.9940490722656
0, 7, 108, 179.1400604248047
0, 7, 109, 136.3131103515625
0, 7, 110, 53.34613037109375
0, 7, 111, 9.013372421264648
0, 7, 112, 8.055702209472656
0, 7, 113, 8.584499359130859
0, 7, 114, 7.191466808319092
0, 7, 115, 6.075384616851807
0, 7, 116, 5.668982028961182
0, 7, 117, 2.44914698600769
0, 7, 118, 3.739722728729248
0, 7, 119, 2.559499263763428
0, 7, 120, 2.346503019332886
0, 7, 121, 1.773576974868774
0, 7, 122, 3.495870590209961
0, 7, 123, 1.316945552825928
0, 7, 124, 2.749404907226562
0, 7, 125, 2.840786218643188
0, 7, 126, 2.02886176109314
0, 7, 127, 1.124086856842041
0, 8, 0, 4.584449291229248
0, 8, 1, 2.029255390167236
0, 8, 2, 3.297598361968994
0, 8, 3, 2.317588806152344
0, 8, 4, 1.848847150802612
0, 8, 5, 2.942224264144897
0, 8, 6, 1.882166147232056
0, 8, 7, 3.018430948257446
0, 8, 8, 3.360823392868042
0, 8, 9, 5.442533016204834
0, 8, 10, 1.7869793176651
0, 8, 11, 2.557118654251099
0, 8, 12, 4.188495635986328
0, 8, 13, 6.545539379119873
0, 8, 14, 5.941142082214355
0, 8, 15, 8.185870170593262
0, 8, 16, 19.62357711791992
0, 8, 17, 75.43665313720703
0, 8, 18, 143.3527069091797
0, 8, 19, 178.8999633789062
0, 8, 20, 192.8993835449219
0, 8, 21, 191.78955078125
0, 8, 22, 179.0304107666016
0, 8, 23, 172.6509552001953
0, 8, 24, 191.6272735595703
0, 8, 25, 184.8521728515625
0, 8, 26, 192.1920776367188
0, 8, 27, 186.745361328125
0, 8, 28, 185.4932098388672
0, 8, 29, 207.3511810302734
0, 8, 30, 197.8688812255859
0, 8, 31, 181.5701904296875
0, 8, 32, 198.0012054443359
0, 8, 33, 206.8750305175781
0, 8, 34, 202.9037170410156
0, 8, 35, 184.3018646240234
0, 8, 36, 182.8285064697266
