# TOPAS Version: 3.1.p3
# Parameter File: batch_inserts_292.txt
# Results for scorer Readout_Adipose
# Scored in component: MyBox
# X in 1 bin  of 0.65 cm
# Y in 512 bins of 0.0783984 cm
# Z in 128 bins of 0.078125 cm
# EnergyDeposit ( MeV ) : Sum   
0, 0, 0, 1.939921498298645
0, 0, 1, 3.445363521575928
0, 0, 2, 2.345554113388062
0, 0, 3, 0.6453143954277039
0, 0, 4, 2.748290300369263
0, 0, 5, 1.048972129821777
0, 0, 6, 2.360504150390625
0, 0, 7, 1.881291627883911
0, 0, 8, 1.725737929344177
0, 0, 9, 2.558296203613281
0, 0, 10, 2.606746196746826
0, 0, 11, 3.555244445800781
0, 0, 12, 5.263297080993652
0, 0, 13, 2.26725435256958
0, 0, 14, 4.866202831268311
0, 0, 15, 5.603289604187012
0, 0, 16, 6.738839149475098
0, 0, 17, 7.605727195739746
0, 0, 18, 8.798661231994629
0, 0, 19, 23.54202461242676
0, 0, 20, 94.12575531005859
0, 0, 21, 153.0983581542969
0, 0, 22, 153.8169097900391
0, 0, 23, 143.7445526123047
0, 0, 24, 160.6482849121094
0, 0, 25, 165.7229309082031
0, 0, 26, 167.7663116455078
0, 0, 27, 175.0248413085938
0, 0, 28, 177.4430084228516
0, 0, 29, 174.4156036376953
0, 0, 30, 174.1380920410156
0, 0, 31, 167.2060241699219
0, 0, 32, 165.7421264648438
0, 0, 33, 167.9140625
0, 0, 34, 177.0946655273438
0, 0, 35, 174.1353607177734
0, 0, 36, 158.5050506591797
0, 0, 37, 161.7745361328125
0, 0, 38, 166.4825897216797
0, 0, 39, 159.2582092285156
0, 0, 40, 164.6795959472656
0, 0, 41, 166.1609954833984
0, 0, 42, 144.9460144042969
0, 0, 43, 168.2000885009766
0, 0, 44, 178.4386291503906
0, 0, 45, 174.1030426025391
0, 0, 46, 166.5556793212891
0, 0, 47, 167.4799499511719
0, 0, 48, 169.0870513916016
0, 0, 49, 183.2001495361328
0, 0, 50, 170.3441772460938
0, 0, 51, 162.4752960205078
0, 0, 52, 162.6977691650391
0, 0, 53, 170.8012542724609
0, 0, 54, 159.2982788085938
0, 0, 55, 164.2836456298828
0, 0, 56, 188.8380584716797
0, 0, 57, 170.5406341552734
0, 0, 58, 162.4549407958984
0, 0, 59, 172.175537109375
0, 0, 60, 169.5318756103516
0, 0, 61, 169.6021575927734
0, 0, 62, 184.9485626220703
0, 0, 63, 168.4463348388672
0, 0, 64, 165.7852325439453
0, 0, 65, 176.3336486816406
0, 0, 66, 178.2971649169922
0, 0, 67, 164.1870880126953
0, 0, 68, 158.6520385742188
0, 0, 69, 158.5574035644531
0, 0, 70, 169.2669982910156
0, 0, 71, 158.406005859375
0, 0, 72, 162.0586090087891
0, 0, 73, 171.5669860839844
0, 0, 74, 163.3115539550781
0, 0, 75, 164.49609375
0, 0, 76, 162.6802062988281
0, 0, 77, 173.0697021484375
0, 0, 78, 181.5276794433594
0, 0, 79, 174.8745422363281
0, 0, 80, 160.1376342773438
0, 0, 81, 161.6069488525391
0, 0, 82, 182.8811492919922
0, 0, 83, 174.0458374023438
0, 0, 84, 159.2365570068359
0, 0, 85, 181.0914306640625
0, 0, 86, 158.5428924560547
0, 0, 87, 177.3911437988281
0, 0, 88, 176.8995361328125
0, 0, 89, 177.0757141113281
0, 0, 90, 160.2919464111328
0, 0, 91, 188.4557037353516
0, 0, 92, 164.2323455810547
0, 0, 93, 156.8637847900391
0, 0, 94, 170.6564788818359
0, 0, 95, 176.7155303955078
0, 0, 96, 183.6772155761719
0, 0, 97, 185.1550903320312
0, 0, 98, 186.0315704345703
0, 0, 99, 170.7567749023438
0, 0, 100, 159.3217620849609
0, 0, 101, 166.6346282958984
0, 0, 102, 169.8232116699219
0, 0, 103, 170.2247161865234
0, 0, 104, 168.6426544189453
0, 0, 105, 179.2362823486328
0, 0, 106, 158.8874969482422
0, 0, 107, 86.59150695800781
0, 0, 108, 21.68111610412598
0, 0, 109, 10.04927730560303
0, 0, 110, 7.681673526763916
0, 0, 111, 6.363592147827148
0, 0, 112, 2.656283617019653
0, 0, 113, 3.011050701141357
0, 0, 114, 2.652072668075562
0, 0, 115, 4.206998348236084
0, 0, 116, 2.945052146911621
0, 0, 117, 2.34772253036499
0, 0, 118, 2.555061817169189
0, 0, 119, 1.528352499008179
0, 0, 120, 1.466456770896912
0, 0, 121, 4.483680725097656
0, 0, 122, 4.188492774963379
0, 0, 123, 3.337465047836304
0, 0, 124, 1.880387425422668
0, 0, 125, 1.923301696777344
0, 0, 126, 0.9058637022972107
0, 0, 127, 2.092512607574463
0, 1, 0, 2.079611539840698
0, 1, 1, 3.510203838348389
0, 1, 2, 3.599994897842407
0, 1, 3, 2.06462025642395
0, 1, 4, 2.761795282363892
0, 1, 5, 2.475162982940674
0, 1, 6, 1.269636273384094
0, 1, 7, 2.031781911849976
0, 1, 8, 2.791207790374756
0, 1, 9, 2.50297212600708
0, 1, 10, 4.093643188476562
0, 1, 11, 2.96189022064209
0, 1, 12, 4.102014064788818
0, 1, 13, 4.761534214019775
0, 1, 14, 6.48541784286499
0, 1, 15, 5.649611473083496
0, 1, 16, 9.056195259094238
0, 1, 17, 5.440439701080322
0, 1, 18, 11.38322353363037
0, 1, 19, 38.68543243408203
0, 1, 20, 125.3518142700195
0, 1, 21, 178.3274230957031
0, 1, 22, 192.7151184082031
0, 1, 23, 187.6722564697266
0, 1, 24, 179.6725616455078
0, 1, 25, 193.5564270019531
0, 1, 26, 197.4554901123047
0, 1, 27, 185.9141235351562
0, 1, 28, 188.0158386230469
0, 1, 29, 183.5840148925781
0, 1, 30, 179.8656311035156
0, 1, 31, 182.7654418945312
0, 1, 32, 190.8653564453125
0, 1, 33, 190.0102233886719
0, 1, 34, 184.6053619384766
0, 1, 35, 193.577880859375
0, 1, 36, 207.0493774414062
0, 1, 37, 185.1100769042969
0, 1, 38, 164.4529266357422
0, 1, 39, 171.8959197998047
0, 1, 40, 179.8762512207031
0, 1, 41, 184.9046173095703
0, 1, 42, 182.454833984375
0, 1, 43, 187.0105743408203
0, 1, 44, 168.3526000976562
0, 1, 45, 186.9181060791016
0, 1, 46, 170.7246551513672
0, 1, 47, 184.4251403808594
0, 1, 48, 186.1351623535156
0, 1, 49, 186.2593231201172
0, 1, 50, 177.1398010253906
0, 1, 51, 191.7057495117188
0, 1, 52, 196.0294036865234
0, 1, 53, 195.7907257080078
0, 1, 54, 185.8850860595703
0, 1, 55, 166.0785217285156
0, 1, 56, 178.8647155761719
0, 1, 57, 178.0541381835938
0, 1, 58, 188.6751403808594
0, 1, 59, 194.3741760253906
0, 1, 60, 187.4950408935547
0, 1, 61, 179.6121063232422
0, 1, 62, 205.390869140625
0, 1, 63, 174.7614440917969
0, 1, 64, 172.7385559082031
0, 1, 65, 184.13916015625
0, 1, 66, 203.9063415527344
0, 1, 67, 183.7376251220703
0, 1, 68, 187.6185150146484
0, 1, 69, 188.5902557373047
0, 1, 70, 187.0853729248047
0, 1, 71, 171.0671844482422
0, 1, 72, 187.9739379882812
0, 1, 73, 189.6428985595703
0, 1, 74, 201.2018585205078
0, 1, 75, 183.8688659667969
0, 1, 76, 174.3447875976562
0, 1, 77, 192.3577880859375
0, 1, 78, 187.5325775146484
0, 1, 79, 201.6194305419922
0, 1, 80, 185.5492858886719
0, 1, 81, 175.1972198486328
0, 1, 82, 207.5916595458984
0, 1, 83, 211.5098114013672
0, 1, 84, 180.3013000488281
0, 1, 85, 169.8144226074219
0, 1, 86, 168.8713073730469
0, 1, 87, 184.389404296875
0, 1, 88, 177.1163024902344
0, 1, 89, 188.0076904296875
0, 1, 90, 212.8240661621094
0, 1, 91, 180.7231750488281
0, 1, 92, 184.5110931396484
0, 1, 93, 183.5255737304688
0, 1, 94, 186.3659820556641
0, 1, 95, 185.4313201904297
0, 1, 96, 196.0608215332031
0, 1, 97, 182.4100189208984
0, 1, 98, 188.3620300292969
0, 1, 99, 175.1584930419922
0, 1, 100, 172.4549713134766
0, 1, 101, 177.5780792236328
0, 1, 102, 182.5366821289062
0, 1, 103, 173.1002197265625
0, 1, 104, 189.2131805419922
0, 1, 105, 181.4536895751953
0, 1, 106, 163.5126342773438
0, 1, 107, 124.8878860473633
0, 1, 108, 47.54970550537109
0, 1, 109, 9.722607612609863
0, 1, 110, 8.41827392578125
0, 1, 111, 6.871785640716553
0, 1, 112, 6.913093566894531
0, 1, 113, 6.469725131988525
0, 1, 114, 4.723716259002686
0, 1, 115, 3.750520944595337
0, 1, 116, 4.193954467773438
0, 1, 117, 1.870210289955139
0, 1, 118, 3.928815126419067
0, 1, 119, 0.6342349052429199
0, 1, 120, 3.751239538192749
0, 1, 121, 4.880530834197998
0, 1, 122, 3.325793743133545
0, 1, 123, 5.417387008666992
0, 1, 124, 2.369982242584229
0, 1, 125, 2.476427316665649
0, 1, 126, 1.582019209861755
0, 1, 127, 2.937802791595459
0, 2, 0, 0.7690903544425964
0, 2, 1, 1.749022006988525
0, 2, 2, 1.952052593231201
0, 2, 3, 2.652467727661133
0, 2, 4, 1.110156297683716
0, 2, 5, 0.7834560871124268
0, 2, 6, 4.43869161605835
0, 2, 7, 2.331127643585205
0, 2, 8, 1.267856001853943
0, 2, 9, 1.525441527366638
0, 2, 10, 5.13356351852417
0, 2, 11, 3.004445552825928
0, 2, 12, 3.633649587631226
0, 2, 13, 2.883621215820312
0, 2, 14, 4.521565437316895
0, 2, 15, 5.957359313964844
0, 2, 16, 4.619168281555176
0, 2, 17, 9.173087120056152
0, 2, 18, 14.47933387756348
0, 2, 19, 78.15349578857422
0, 2, 20, 163.0899505615234
0, 2, 21, 183.2832794189453
0, 2, 22, 195.3553314208984
0, 2, 23, 183.5160217285156
0, 2, 24, 173.6375274658203
0, 2, 25, 183.4495544433594
0, 2, 26, 179.2897491455078
0, 2, 27, 190.0343017578125
0, 2, 28, 171.8843231201172
0, 2, 29, 168.8719482421875
0, 2, 30, 184.6158447265625
0, 2, 31, 183.2568664550781
0, 2, 32, 183.2744445800781
0, 2, 33, 190.3502960205078
0, 2, 34, 196.6358795166016
0, 2, 35, 181.1502532958984
0, 2, 36, 186.3846282958984
0, 2, 37, 180.8030395507812
0, 2, 38, 185.1147918701172
0, 2, 39, 166.2830047607422
0, 2, 40, 183.6910247802734
0, 2, 41, 184.6833801269531
0, 2, 42, 192.4581604003906
0, 2, 43, 194.905029296875
0, 2, 44, 190.9034423828125
0, 2, 45, 189.989013671875
0, 2, 46, 195.8253784179688
0, 2, 47, 189.5113830566406
0, 2, 48, 177.0003967285156
0, 2, 49, 198.1474304199219
0, 2, 50, 167.3417053222656
0, 2, 51, 184.9539794921875
0, 2, 52, 186.2603912353516
0, 2, 53, 195.3988800048828
0, 2, 54, 176.1542358398438
0, 2, 55, 173.1521453857422
0, 2, 56, 181.9648742675781
0, 2, 57, 200.0924987792969
0, 2, 58, 186.2408294677734
0, 2, 59, 189.6826934814453
0, 2, 60, 196.8007507324219
0, 2, 61, 194.0208740234375
0, 2, 62, 189.1593627929688
0, 2, 63, 170.352294921875
0, 2, 64, 190.1572265625
0, 2, 65, 202.6797790527344
0, 2, 66, 195.9870758056641
0, 2, 67, 184.9074401855469
0, 2, 68, 182.4252471923828
0, 2, 69, 187.0978698730469
0, 2, 70, 203.0601501464844
0, 2, 71, 175.8237609863281
0, 2, 72, 185.4457397460938
0, 2, 73, 178.4410400390625
0, 2, 74, 180.6090087890625
0, 2, 75, 195.9247283935547
0, 2, 76, 183.8858489990234
0, 2, 77, 177.4093933105469
0, 2, 78, 197.4931335449219
0, 2, 79, 176.6235809326172
0, 2, 80, 185.8549346923828
0, 2, 81, 186.7733764648438
0, 2, 82, 205.0221252441406
0, 2, 83, 203.3787384033203
0, 2, 84, 188.3804168701172
0, 2, 85, 171.3370361328125
0, 2, 86, 194.7348175048828
0, 2, 87, 171.6294097900391
0, 2, 88, 177.9080505371094
0, 2, 89, 185.0887756347656
0, 2, 90, 178.2049407958984
0, 2, 91, 174.4310760498047
0, 2, 92, 197.31396484375
0, 2, 93, 193.9733428955078
0, 2, 94, 199.2461853027344
0, 2, 95, 192.8144378662109
0, 2, 96, 186.7522430419922
0, 2, 97, 171.7269897460938
0, 2, 98, 173.7974548339844
0, 2, 99, 161.8620147705078
0, 2, 100, 187.6555328369141
0, 2, 101, 196.7887725830078
0, 2, 102, 176.2931823730469
0, 2, 103, 199.1824645996094
0, 2, 104, 188.1384429931641
0, 2, 105, 200.9868927001953
0, 2, 106, 195.7002258300781
0, 2, 107, 150.9412841796875
0, 2, 108, 78.96556091308594
0, 2, 109, 17.65495681762695
0, 2, 110, 8.519924163818359
0, 2, 111, 8.415093421936035
0, 2, 112, 4.329875469207764
0, 2, 113, 4.128666877746582
0, 2, 114, 6.865856647491455
0, 2, 115, 3.5325608253479
0, 2, 116, 1.409995198249817
0, 2, 117, 2.407392501831055
0, 2, 118, 1.714834928512573
0, 2, 119, 4.145790100097656
0, 2, 120, 2.195263624191284
0, 2, 121, 3.652553796768188
0, 2, 122, 1.621767640113831
0, 2, 123, 4.295058727264404
0, 2, 124, 1.945363998413086
0, 2, 125, 1.539341568946838
0, 2, 126, 4.671222686767578
0, 2, 127, 0.7544293999671936
0, 3, 0, 2.363114595413208
0, 3, 1, 1.164110898971558
0, 3, 2, 2.21339225769043
0, 3, 3, 1.979792833328247
0, 3, 4, 4.182730674743652
0, 3, 5, 2.418318033218384
0, 3, 6, 1.899923920631409
0, 3, 7, 2.157616138458252
0, 3, 8, 2.726346492767334
0, 3, 9, 2.456560134887695
0, 3, 10, 2.680870532989502
0, 3, 11, 3.947033882141113
0, 3, 12, 3.54505467414856
0, 3, 13, 3.772876262664795
0, 3, 14, 3.491565704345703
0, 3, 15, 7.093250274658203
0, 3, 16, 6.864522457122803
0, 3, 17, 6.225961685180664
0, 3, 18, 32.01464080810547
0, 3, 19, 115.2259674072266
0, 3, 20, 179.8683166503906
0, 3, 21, 173.1011199951172
0, 3, 22, 178.0328369140625
0, 3, 23, 187.0862884521484
0, 3, 24, 179.3238220214844
0, 3, 25, 169.4113464355469
0, 3, 26, 182.8007965087891
0, 3, 27, 189.9141235351562
0, 3, 28, 182.5342712402344
0, 3, 29, 198.133544921875
0, 3, 30, 184.8827514648438
0, 3, 31, 192.7245178222656
0, 3, 32, 206.4778747558594
0, 3, 33, 196.4457855224609
0, 3, 34, 186.5430755615234
0, 3, 35, 176.0212097167969
0, 3, 36, 185.6893463134766
0, 3, 37, 199.9032897949219
0, 3, 38, 193.3724670410156
0, 3, 39, 185.1570587158203
0, 3, 40, 166.1611633300781
0, 3, 41, 173.9701080322266
0, 3, 42, 185.3342437744141
0, 3, 43, 181.6904449462891
0, 3, 44, 203.7978515625
0, 3, 45, 207.4107513427734
0, 3, 46, 199.0570678710938
0, 3, 47, 193.9134979248047
0, 3, 48, 198.0739288330078
0, 3, 49, 180.2513275146484
0, 3, 50, 186.2383270263672
0, 3, 51, 174.6298522949219
0, 3, 52, 187.02734375
0, 3, 53, 177.5054626464844
0, 3, 54, 178.9490356445312
0, 3, 55, 177.5646209716797
0, 3, 56, 181.9862976074219
0, 3, 57, 175.8807678222656
0, 3, 58, 202.6343231201172
0, 3, 59, 195.6056976318359
0, 3, 60, 186.7179412841797
0, 3, 61, 181.2432098388672
0, 3, 62, 183.8230133056641
0, 3, 63, 183.8159332275391
0, 3, 64, 188.9023590087891
0, 3, 65, 188.4049987792969
0, 3, 66, 175.2342529296875
0, 3, 67, 189.2340393066406
0, 3, 68, 211.7007446289062
0, 3, 69, 189.6584625244141
0, 3, 70, 185.3843841552734
0, 3, 71, 196.3907012939453
0, 3, 72, 185.3489685058594
0, 3, 73, 185.8948822021484
0, 3, 74, 193.9564819335938
0, 3, 75, 193.3752593994141
0, 3, 76, 190.7203216552734
0, 3, 77, 198.0352325439453
0, 3, 78, 188.5112609863281
0, 3, 79, 185.9562225341797
0, 3, 80, 188.6445922851562
0, 3, 81, 183.4561157226562
0, 3, 82, 180.0730743408203
0, 3, 83, 194.3928527832031
0, 3, 84, 199.4931488037109
0, 3, 85, 191.3760833740234
0, 3, 86, 203.5650329589844
0, 3, 87, 197.1644287109375
0, 3, 88, 192.2123260498047
0, 3, 89, 195.2994384765625
0, 3, 90, 173.6251678466797
0, 3, 91, 158.8828125
0, 3, 92, 207.2496948242188
0, 3, 93, 195.8226318359375
0, 3, 94, 192.4306945800781
0, 3, 95, 211.08984375
0, 3, 96, 208.0927276611328
0, 3, 97, 167.1355895996094
0, 3, 98, 167.6010589599609
0, 3, 99, 179.5811462402344
0, 3, 100, 176.8379821777344
0, 3, 101, 197.0241241455078
0, 3, 102, 195.3405303955078
0, 3, 103, 192.9304809570312
0, 3, 104, 202.3587341308594
0, 3, 105, 174.5838165283203
0, 3, 106, 181.7394256591797
0, 3, 107, 169.2407379150391
0, 3, 108, 108.0882339477539
0, 3, 109, 29.04963111877441
0, 3, 110, 11.09380722045898
0, 3, 111, 7.330353736877441
0, 3, 112, 3.631346702575684
0, 3, 113, 6.613856792449951
0, 3, 114, 4.160304069519043
0, 3, 115, 7.19942569732666
0, 3, 116, 4.107417106628418
0, 3, 117, 3.205787658691406
0, 3, 118, 1.436145305633545
0, 3, 119, 2.115507841110229
0, 3, 120, 4.350366115570068
0, 3, 121, 1.748743653297424
0, 3, 122, 5.12476110458374
0, 3, 123, 3.105830669403076
0, 3, 124, 3.164778709411621
0, 3, 125, 1.343019127845764
0, 3, 126, 2.183206558227539
0, 3, 127, 3.080158472061157
0, 4, 0, 2.394079923629761
0, 4, 1, 1.164604306221008
0, 4, 2, 2.121845483779907
0, 4, 3, 4.034212112426758
0, 4, 4, 1.463164091110229
0, 4, 5, 0.7617060542106628
0, 4, 6, 2.612062454223633
0, 4, 7, 2.57203483581543
0, 4, 8, 2.404975175857544
0, 4, 9, 2.829192161560059
0, 4, 10, 4.550506591796875
0, 4, 11, 4.930377960205078
0, 4, 12, 3.616609573364258
0, 4, 13, 4.448163509368896
0, 4, 14, 4.654120445251465
0, 4, 15, 9.31187629699707
0, 4, 16, 6.651965141296387
0, 4, 17, 12.60659694671631
0, 4, 18, 54.79824066162109
0, 4, 19, 151.3498077392578
0, 4, 20, 193.2126770019531
0, 4, 21, 169.3210296630859
0, 4, 22, 187.1864166259766
0, 4, 23, 196.5343627929688
0, 4, 24, 191.9765777587891
0, 4, 25, 199.3192138671875
0, 4, 26, 183.7876739501953
0, 4, 27, 190.8089599609375
0, 4, 28, 177.3065643310547
0, 4, 29, 205.3802185058594
0, 4, 30, 195.2149353027344
0, 4, 31, 193.1331024169922
0, 4, 32, 210.0274505615234
0, 4, 33, 191.0285339355469
0, 4, 34, 193.4318237304688
0, 4, 35, 211.7762603759766
0, 4, 36, 195.0716552734375
0, 4, 37, 177.0656280517578
0, 4, 38, 194.9164276123047
0, 4, 39, 188.7404174804688
0, 4, 40, 186.6516265869141
0, 4, 41, 189.1469268798828
0, 4, 42, 207.5714263916016
0, 4, 43, 174.6275482177734
0, 4, 44, 186.4668426513672
0, 4, 45, 195.5370788574219
0, 4, 46, 185.8152923583984
0, 4, 47, 180.40673828125
0, 4, 48, 184.9872131347656
0, 4, 49, 175.0106353759766
0, 4, 50, 185.4584197998047
0, 4, 51, 196.2069854736328
0, 4, 52, 223.2953186035156
0, 4, 53, 206.191650390625
0, 4, 54, 189.6249084472656
0, 4, 55, 175.3393707275391
0, 4, 56, 190.8365173339844
0, 4, 57, 191.6027221679688
0, 4, 58, 187.6591339111328
0, 4, 59, 190.7070770263672
0, 4, 60, 195.6122436523438
0, 4, 61, 193.2922515869141
0, 4, 62, 189.6878509521484
0, 4, 63, 178.35791015625
0, 4, 64, 212.5215606689453
0, 4, 65, 192.2191925048828
0, 4, 66, 200.8521881103516
0, 4, 67, 199.0954437255859
0, 4, 68, 200.0926055908203
0, 4, 69, 198.7803344726562
0, 4, 70, 205.7745056152344
0, 4, 71, 206.920654296875
0, 4, 72, 214.8022155761719
0, 4, 73, 186.3761291503906
0, 4, 74, 180.8187713623047
0, 4, 75, 185.10498046875
0, 4, 76, 189.3475036621094
0, 4, 77, 185.8984222412109
0, 4, 78, 194.9259185791016
0, 4, 79, 204.3521270751953
0, 4, 80, 212.2571105957031
0, 4, 81, 198.3113708496094
0, 4, 82, 180.3318176269531
0, 4, 83, 171.6655883789062
0, 4, 84, 192.7664794921875
0, 4, 85, 195.6050109863281
0, 4, 86, 182.4178466796875
0, 4, 87, 184.0971832275391
0, 4, 88, 204.5591278076172
0, 4, 89, 187.5934448242188
0, 4, 90, 211.3669738769531
0, 4, 91, 190.0785827636719
0, 4, 92, 195.5931091308594
0, 4, 93, 195.9762725830078
0, 4, 94, 182.4791717529297
0, 4, 95, 173.9158935546875
0, 4, 96, 189.5884857177734
0, 4, 97, 194.5051879882812
0, 4, 98, 200.5764770507812
0, 4, 99, 182.9281463623047
0, 4, 100, 182.912109375
0, 4, 101, 176.522705078125
0, 4, 102, 174.3363342285156
0, 4, 103, 185.5921325683594
0, 4, 104, 212.1729888916016
0, 4, 105, 190.0404052734375
0, 4, 106, 179.5989685058594
0, 4, 107, 180.9608459472656
0, 4, 108, 151.5642852783203
0, 4, 109, 49.22474670410156
0, 4, 110, 12.18970108032227
0, 4, 111, 7.666617393493652
0, 4, 112, 7.023990631103516
0, 4, 113, 8.076045989990234
0, 4, 114, 7.048208713531494
0, 4, 115, 4.198184490203857
0, 4, 116, 6.549599647521973
0, 4, 117, 2.23049783706665
0, 4, 118, 3.049468040466309
0, 4, 119, 3.573259592056274
0, 4, 120, 2.360703706741333
0, 4, 121, 1.165436387062073
0, 4, 122, 3.085073947906494
0, 4, 123, 2.738627672195435
0, 4, 124, 3.188803195953369
0, 4, 125, 2.286742925643921
0, 4, 126, 1.341251373291016
0, 4, 127, 1.989319205284119
0, 5, 0, 1.808380365371704
0, 5, 1, 3.78985857963562
0, 5, 2, 6.560431480407715
0, 5, 3, 4.590309143066406
0, 5, 4, 1.610236406326294
0, 5, 5, 1.834464907646179
0, 5, 6, 2.725879907608032
0, 5, 7, 3.405927181243896
0, 5, 8, 1.542493343353271
0, 5, 9, 2.654662132263184
0, 5, 10, 4.138146877288818
0, 5, 11, 3.14447021484375
0, 5, 12, 5.567709922790527
0, 5, 13, 3.311309814453125
0, 5, 14, 5.965764999389648
0, 5, 15, 9.252734184265137
0, 5, 16, 6.8277907371521
0, 5, 17, 21.71157646179199
0, 5, 18, 84.07266235351562
0, 5, 19, 165.8436889648438
0, 5, 20, 182.7542114257812
0, 5, 21, 178.2234649658203
0, 5, 22, 171.2459411621094
0, 5, 23, 200.3901062011719
0, 5, 24, 187.3954772949219
0, 5, 25, 207.9104461669922
0, 5, 26, 182.3259887695312
0, 5, 27, 195.087646484375
0, 5, 28, 191.2237396240234
0, 5, 29, 195.1752014160156
0, 5, 30, 178.2844696044922
0, 5, 31, 179.3882293701172
0, 5, 32, 186.8090972900391
0, 5, 33, 169.3026428222656
0, 5, 34, 195.3028869628906
0, 5, 35, 196.4628295898438
0, 5, 36, 168.4205322265625
0, 5, 37, 196.7829132080078
0, 5, 38, 182.3423156738281
0, 5, 39, 188.1248474121094
0, 5, 40, 196.2863159179688
0, 5, 41, 176.8381195068359
0, 5, 42, 186.8949432373047
0, 5, 43, 193.4951782226562
0, 5, 44, 200.4171142578125
0, 5, 45, 188.3080596923828
0, 5, 46, 193.2884979248047
0, 5, 47, 180.8618927001953
0, 5, 48, 177.6524963378906
0, 5, 49, 176.0423736572266
0, 5, 50, 186.9365692138672
0, 5, 51, 172.075439453125
0, 5, 52, 168.0189361572266
0, 5, 53, 182.6548919677734
0, 5, 54, 172.6513977050781
0, 5, 55, 215.2672882080078
0, 5, 56, 182.5177459716797
0, 5, 57, 207.4861450195312
0, 5, 58, 183.3328247070312
0, 5, 59, 180.9993743896484
0, 5, 60, 218.3014831542969
0, 5, 61, 184.9091186523438
0, 5, 62, 177.89501953125
0, 5, 63, 180.5039520263672
0, 5, 64, 194.2440185546875
0, 5, 65, 209.5373840332031
0, 5, 66, 192.2722473144531
0, 5, 67, 201.0479278564453
0, 5, 68, 186.5287933349609
0, 5, 69, 185.3202209472656
0, 5, 70, 185.0457611083984
0, 5, 71, 192.9761810302734
0, 5, 72, 197.5794830322266
0, 5, 73, 202.0574188232422
0, 5, 74, 180.0978698730469
0, 5, 75, 206.154052734375
0, 5, 76, 215.0115661621094
0, 5, 77, 180.8275146484375
0, 5, 78, 195.1752166748047
0, 5, 79, 189.518310546875
0, 5, 80, 197.2471008300781
0, 5, 81, 203.3867950439453
0, 5, 82, 202.4380187988281
0, 5, 83, 189.1232147216797
0, 5, 84, 205.0390472412109
0, 5, 85, 177.4975891113281
0, 5, 86, 196.9811706542969
0, 5, 87, 187.2738494873047
0, 5, 88, 177.0454254150391
0, 5, 89, 196.0023498535156
0, 5, 90, 199.1089477539062
0, 5, 91, 194.1597290039062
0, 5, 92, 191.4604034423828
0, 5, 93, 189.5010070800781
0, 5, 94, 207.490234375
0, 5, 95, 177.1004180908203
0, 5, 96, 182.5982818603516
0, 5, 97, 190.8555603027344
0, 5, 98, 189.5718383789062
0, 5, 99, 196.6094360351562
0, 5, 100, 186.6607360839844
0, 5, 101, 199.2512054443359
0, 5, 102, 182.019287109375
0, 5, 103, 176.9647521972656
0, 5, 104, 189.8318176269531
0, 5, 105, 190.2921447753906
0, 5, 106, 176.783447265625
0, 5, 107, 181.4537811279297
0, 5, 108, 175.5573883056641
0, 5, 109, 87.84079742431641
0, 5, 110, 29.86911201477051
0, 5, 111, 8.38474178314209
0, 5, 112, 6.332217693328857
0, 5, 113, 7.233352184295654
0, 5, 114, 6.071999073028564
0, 5, 115, 7.234710693359375
0, 5, 116, 4.418795585632324
0, 5, 117, 3.530782699584961
0, 5, 118, 3.384370803833008
0, 5, 119, 3.336902618408203
0, 5, 120, 2.80279016494751
0, 5, 121, 1.684702515602112
0, 5, 122, 2.508428335189819
0, 5, 123, 4.952754020690918
0, 5, 124, 2.865395307540894
0, 5, 125, 0.7397697567939758
0, 5, 126, 1.569021105766296
0, 5, 127, 1.730068445205688
0, 6, 0, 3.587315559387207
0, 6, 1, 4.710410118103027
0, 6, 2, 3.024139642715454
0, 6, 3, 2.270516395568848
0, 6, 4, 3.537704229354858
0, 6, 5, 4.758136749267578
0, 6, 6, 3.31098461151123
0, 6, 7, 3.736965894699097
0, 6, 8, 4.202812671661377
0, 6, 9, 3.10370135307312
0, 6, 10, 3.547344923019409
0, 6, 11, 4.230084896087646
0, 6, 12, 6.181634426116943
0, 6, 13, 5.181973934173584
0, 6, 14, 5.03998327255249
0, 6, 15, 6.523938655853271
0, 6, 16, 13.12313461303711
0, 6, 17, 28.56343269348145
0, 6, 18, 112.0443115234375
0, 6, 19, 190.9151611328125
0, 6, 20, 194.4820251464844
0, 6, 21, 199.0513305664062
0, 6, 22, 190.1696624755859
0, 6, 23, 191.0039367675781
0, 6, 24, 202.8727569580078
0, 6, 25, 181.5925140380859
0, 6, 26, 188.0679016113281
0, 6, 27, 191.4948425292969
0, 6, 28, 188.1788940429688
0, 6, 29, 210.4961090087891
0, 6, 30, 190.8663177490234
0, 6, 31, 194.7700805664062
0, 6, 32, 206.4148101806641
0, 6, 33, 186.1888580322266
0, 6, 34, 197.0258941650391
0, 6, 35, 187.0648956298828
0, 6, 36, 180.372802734375
0, 6, 37, 183.1079864501953
0, 6, 38, 186.2142486572266
0, 6, 39, 195.8994445800781
0, 6, 40, 173.9416198730469
0, 6, 41, 186.1437225341797
0, 6, 42, 174.5180816650391
0, 6, 43, 209.6754455566406
0, 6, 44, 209.2048492431641
0, 6, 45, 195.5257720947266
0, 6, 46, 187.671630859375
0, 6, 47, 204.4559783935547
0, 6, 48, 191.0702362060547
0, 6, 49, 179.5169372558594
0, 6, 50, 182.0543365478516
0, 6, 51, 196.2823791503906
0, 6, 52, 198.0481262207031
0, 6, 53, 184.2964477539062
0, 6, 54, 175.1510009765625
0, 6, 55, 194.5690155029297
0, 6, 56, 202.4468536376953
0, 6, 57, 190.5052337646484
0, 6, 58, 180.8273010253906
0, 6, 59, 192.26953125
0, 6, 60, 184.7412719726562
0, 6, 61, 194.0670166015625
0, 6, 62, 196.9315338134766
0, 6, 63, 187.3821105957031
0, 6, 64, 167.4891357421875
0, 6, 65, 187.2589721679688
0, 6, 66, 198.1537933349609
0, 6, 67, 215.2034454345703
0, 6, 68, 179.8206787109375
0, 6, 69, 170.4799499511719
0, 6, 70, 187.1530609130859
0, 6, 71, 170.6541748046875
0, 6, 72, 175.9924926757812
0, 6, 73, 176.2557830810547
0, 6, 74, 210.8079986572266
0, 6, 75, 227.1069030761719
0, 6, 76, 184.9496307373047
0, 6, 77, 173.4781494140625
0, 6, 78, 175.6297760009766
0, 6, 79, 187.1563415527344
0, 6, 80, 187.4783325195312
0, 6, 81, 209.3017578125
0, 6, 82, 197.0055847167969
0, 6, 83, 195.1442108154297
0, 6, 84, 197.4735717773438
0, 6, 85, 180.7467803955078
0, 6, 86, 201.3003845214844
0, 6, 87, 182.9036102294922
0, 6, 88, 191.2949676513672
0, 6, 89, 187.7944183349609
0, 6, 90, 205.4788665771484
0, 6, 91, 199.4744567871094
0, 6, 92, 173.1674652099609
0, 6, 93, 191.4331359863281
0, 6, 94, 190.3965454101562
0, 6, 95, 184.9608612060547
0, 6, 96, 188.4689636230469
0, 6, 97, 195.5293579101562
0, 6, 98, 183.4283294677734
0, 6, 99, 175.7353820800781
0, 6, 100, 201.7816009521484
0, 6, 101, 169.1338195800781
0, 6, 102, 202.2375030517578
0, 6, 103, 195.7498779296875
0, 6, 104, 183.4039611816406
0, 6, 105, 194.4467926025391
0, 6, 106, 177.5439605712891
0, 6, 107, 195.0950469970703
0, 6, 108, 171.3482360839844
0, 6, 109, 115.5639266967773
0, 6, 110, 36.39676666259766
0, 6, 111, 9.704014778137207
0, 6, 112, 7.966372013092041
0, 6, 113, 5.062829971313477
0, 6, 114, 4.6432204246521
0, 6, 115, 5.432767868041992
0, 6, 116, 3.407980918884277
0, 6, 117, 5.641415596008301
0, 6, 118, 3.805752038955688
0, 6, 119, 3.600890398025513
0, 6, 120, 3.365444421768188
0, 6, 121, 2.849548816680908
0, 6, 122, 2.924425363540649
0, 6, 123, 2.700130224227905
0, 6, 124, 3.311629295349121
0, 6, 125, 3.01144552230835
0, 6, 126, 2.016645908355713
0, 6, 127, 3.36855936050415
0, 7, 0, 4.498311042785645
0, 7, 1, 1.870815277099609
0, 7, 2, 1.635125637054443
0, 7, 3, 2.641836166381836
0, 7, 4, 0.8343256115913391
0, 7, 5, 1.332173585891724
0, 7, 6, 1.807041168212891
0, 7, 7, 2.179610967636108
0, 7, 8, 3.180407762527466
0, 7, 9, 4.230740547180176
0, 7, 10, 4.703686714172363
0, 7, 11, 2.859211206436157
0, 7, 12, 4.035660266876221
0, 7, 13, 5.508649349212646
0, 7, 14, 8.339191436767578
0, 7, 15, 6.600407600402832
0, 7, 16, 15.31310749053955
0, 7, 17, 50.17205047607422
0, 7, 18, 162.9242401123047
0, 7, 19, 183.8663177490234
0, 7, 20, 180.0936431884766
0, 7, 21, 180.5601348876953
0, 7, 22, 190.3046722412109
0, 7, 23, 202.7602996826172
0, 7, 24, 180.2356262207031
0, 7, 25, 214.4938659667969
0, 7, 26, 188.7673034667969
0, 7, 27, 182.3620452880859
0, 7, 28, 182.0956420898438
0, 7, 29, 208.4381561279297
0, 7, 30, 192.5523834228516
0, 7, 31, 176.4687957763672
0, 7, 32, 190.5771942138672
0, 7, 33, 179.7214965820312
0, 7, 34, 195.0811157226562
0, 7, 35, 198.2165832519531
0, 7, 36, 187.5780181884766
0, 7, 37, 213.1939239501953
0, 7, 38, 191.9894714355469
0, 7, 39, 173.7285614013672
0, 7, 40, 185.2449340820312
0, 7, 41, 185.3108825683594
0, 7, 42, 179.6644897460938
0, 7, 43, 177.9692230224609
0, 7, 44, 178.6464385986328
0, 7, 45, 173.9749755859375
0, 7, 46, 187.4524993896484
0, 7, 47, 197.2462005615234
0, 7, 48, 186.5535583496094
0, 7, 49, 202.9212341308594
0, 7, 50, 188.8545532226562
0, 7, 51, 204.7952728271484
0, 7, 52, 205.1367645263672
0, 7, 53, 192.1127471923828
0, 7, 54, 195.0751190185547
0, 7, 55, 204.1283721923828
0, 7, 56, 183.2391510009766
0, 7, 57, 182.0951232910156
0, 7, 58, 191.0010375976562
0, 7, 59, 187.1976776123047
0, 7, 60, 201.8699035644531
0, 7, 61, 171.3936157226562
0, 7, 62, 202.5222930908203
0, 7, 63, 188.8626251220703
0, 7, 64, 200.4117431640625
0, 7, 65, 196.1981353759766
0, 7, 66, 207.4535827636719
0, 7, 67, 219.4424438476562
0, 7, 68, 161.9447784423828
0, 7, 69, 195.9038696289062
0, 7, 70, 217.7201385498047
0, 7, 71, 184.2038116455078
0, 7, 72, 183.1305999755859
0, 7, 73, 176.7503051757812
0, 7, 74, 207.2644805908203
0, 7, 75, 205.7628021240234
0, 7, 76, 214.1304168701172
0, 7, 77, 172.9085083007812
0, 7, 78, 176.3428192138672
0, 7, 79, 192.9364624023438
0, 7, 80, 196.2262725830078
0, 7, 81, 215.9963836669922
0, 7, 82, 186.8195343017578
0, 7, 83, 204.8471069335938
0, 7, 84, 191.9627990722656
0, 7, 85, 185.9986724853516
0, 7, 86, 199.7464294433594
0, 7, 87, 226.5189514160156
0, 7, 88, 194.4554901123047
0, 7, 89, 177.0782470703125
0, 7, 90, 182.8509674072266
0, 7, 91, 193.9790649414062
0, 7, 92, 193.4885101318359
0, 7, 93, 198.7417449951172
0, 7, 94, 177.9769744873047
0, 7, 95, 197.7027740478516
0, 7, 96, 208.8920745849609
0, 7, 97, 189.5370483398438
0, 7, 98, 177.6873626708984
0, 7, 99, 196.7780914306641
0, 7, 100, 182.1528778076172
0, 7, 101, 199.2805633544922
0, 7, 102, 185.0251007080078
0, 7, 103, 181.2380065917969
0, 7, 104, 175.5569458007812
0, 7, 105, 194.8108367919922
0, 7, 106, 205.2792663574219
0, 7, 107, 173.6844329833984
0, 7, 108, 176.5724792480469
0, 7, 109, 137.8012390136719
0, 7, 110, 55.70840835571289
0, 7, 111, 9.687828063964844
0, 7, 112, 7.83189058303833
0, 7, 113, 8.783811569213867
0, 7, 114, 6.470584392547607
0, 7, 115, 4.574366092681885
0, 7, 116, 4.539524078369141
0, 7, 117, 3.162863731384277
0, 7, 118, 3.418338537216187
0, 7, 119, 5.080585479736328
0, 7, 120, 4.135815620422363
0, 7, 121, 3.86073637008667
0, 7, 122, 4.696282386779785
0, 7, 123, 1.638518095016479
0, 7, 124, 1.410355567932129
0, 7, 125, 2.041425704956055
0, 7, 126, 3.472285032272339
0, 7, 127, 1.65987765789032
0, 8, 0, 4.117968082427979
0, 8, 1, 2.003386974334717
0, 8, 2, 2.805805683135986
0, 8, 3, 1.659711718559265
0, 8, 4, 1.427940011024475
0, 8, 5, 3.12415599822998
0, 8, 6, 1.505882143974304
0, 8, 7, 3.633394241333008
0, 8, 8, 4.221027374267578
0, 8, 9, 4.715404510498047
0, 8, 10, 1.994500637054443
0, 8, 11, 2.476910591125488
0, 8, 12, 4.332189083099365
0, 8, 13, 5.471786975860596
0, 8, 14, 6.805412769317627
0, 8, 15, 8.140734672546387
0, 8, 16, 19.02617454528809
0, 8, 17, 76.68675994873047
0, 8, 18, 142.3786773681641
0, 8, 19, 180.9239501953125
0, 8, 20, 192.755126953125
0, 8, 21, 194.9230194091797
0, 8, 22, 180.055419921875
0, 8, 23, 172.7157592773438
0, 8, 24, 192.1147003173828
0, 8, 25, 185.2514038085938
0, 8, 26, 192.5594482421875
0, 8, 27, 185.6491546630859
0, 8, 28, 189.2215270996094
0, 8, 29, 207.9279022216797
0, 8, 30, 197.5609741210938
0, 8, 31, 181.3625335693359
0, 8, 32, 197.6648406982422
0, 8, 33, 206.4178771972656
0, 8, 34, 203.1601257324219
0, 8, 35, 185.3184814453125
0, 8, 36, 181.1251525878906
