# TOPAS Version: 3.1.p3
# Parameter File: batch_inserts_78.txt
# Results for scorer Readout_Adipose
# Scored in component: MyBox
# X in 1 bin  of 0.65 cm
# Y in 512 bins of 0.0783984 cm
# Z in 128 bins of 0.078125 cm
# EnergyDeposit ( MeV ) : Sum   
0, 0, 0, 1.150932669639587
0, 0, 1, 2.793935537338257
0, 0, 2, 3.012930870056152
0, 0, 3, 1.559746026992798
0, 0, 4, 1.997462630271912
0, 0, 5, 1.149945497512817
0, 0, 6, 2.015584707260132
0, 0, 7, 2.601073026657104
0, 0, 8, 2.06369423866272
0, 0, 9, 2.508747816085815
0, 0, 10, 2.031986951828003
0, 0, 11, 4.225868701934814
0, 0, 12, 4.058591842651367
0, 0, 13, 2.467261552810669
0, 0, 14, 4.633442401885986
0, 0, 15, 6.302939414978027
0, 0, 16, 3.69739031791687
0, 0, 17, 5.381112098693848
0, 0, 18, 6.885635852813721
0, 0, 19, 24.41548347473145
0, 0, 20, 94.15561676025391
0, 0, 21, 154.1751861572266
0, 0, 22, 155.6652374267578
0, 0, 23, 143.677001953125
0, 0, 24, 160.2799530029297
0, 0, 25, 165.9120941162109
0, 0, 26, 166.8666381835938
0, 0, 27, 174.7830505371094
0, 0, 28, 177.2290954589844
0, 0, 29, 174.6673278808594
0, 0, 30, 171.3794708251953
0, 0, 31, 166.6265258789062
0, 0, 32, 164.7746276855469
0, 0, 33, 167.1668853759766
0, 0, 34, 175.9715118408203
0, 0, 35, 173.3357238769531
0, 0, 36, 159.3113403320312
0, 0, 37, 160.8563537597656
0, 0, 38, 166.7509155273438
0, 0, 39, 159.6103515625
0, 0, 40, 165.4160614013672
0, 0, 41, 166.303955078125
0, 0, 42, 143.0200347900391
0, 0, 43, 168.3760681152344
0, 0, 44, 177.9952697753906
0, 0, 45, 173.3927459716797
0, 0, 46, 166.5720825195312
0, 0, 47, 168.1089324951172
0, 0, 48, 169.5166473388672
0, 0, 49, 183.7145385742188
0, 0, 50, 170.1171112060547
0, 0, 51, 161.6171112060547
0, 0, 52, 161.462646484375
0, 0, 53, 172.1802520751953
0, 0, 54, 159.7356414794922
0, 0, 55, 165.0790100097656
0, 0, 56, 189.2215881347656
0, 0, 57, 171.1086883544922
0, 0, 58, 162.3139190673828
0, 0, 59, 172.4290618896484
0, 0, 60, 168.9758911132812
0, 0, 61, 168.8233947753906
0, 0, 62, 183.046875
0, 0, 63, 167.7215576171875
0, 0, 64, 163.7935791015625
0, 0, 65, 177.7862396240234
0, 0, 66, 177.6640472412109
0, 0, 67, 163.57373046875
0, 0, 68, 159.3540191650391
0, 0, 69, 158.4022979736328
0, 0, 70, 169.9945526123047
0, 0, 71, 158.4182739257812
0, 0, 72, 164.4052886962891
0, 0, 73, 171.4276275634766
0, 0, 74, 163.6914520263672
0, 0, 75, 164.5604705810547
0, 0, 76, 163.0132598876953
0, 0, 77, 172.5168914794922
0, 0, 78, 181.9426879882812
0, 0, 79, 175.0949401855469
0, 0, 80, 158.9738159179688
0, 0, 81, 160.5633239746094
0, 0, 82, 181.5919189453125
0, 0, 83, 173.3595733642578
0, 0, 84, 159.9974975585938
0, 0, 85, 181.3683624267578
0, 0, 86, 158.7123565673828
0, 0, 87, 176.6068878173828
0, 0, 88, 176.5537719726562
0, 0, 89, 174.6355133056641
0, 0, 90, 159.5543365478516
0, 0, 91, 185.3722534179688
0, 0, 92, 165.2597808837891
0, 0, 93, 157.2821960449219
0, 0, 94, 169.0646667480469
0, 0, 95, 175.2322082519531
0, 0, 96, 184.4913177490234
0, 0, 97, 184.1830749511719
0, 0, 98, 186.4148254394531
0, 0, 99, 171.0195922851562
0, 0, 100, 158.9157104492188
0, 0, 101, 167.0933837890625
0, 0, 102, 169.7863616943359
0, 0, 103, 170.3360900878906
0, 0, 104, 168.7673492431641
0, 0, 105, 177.3515472412109
0, 0, 106, 159.1981658935547
0, 0, 107, 86.37859344482422
0, 0, 108, 22.20054244995117
0, 0, 109, 9.984889984130859
0, 0, 110, 5.80620288848877
0, 0, 111, 7.704163074493408
0, 0, 112, 3.965206861495972
0, 0, 113, 3.966800451278687
0, 0, 114, 2.418419361114502
0, 0, 115, 2.505165576934814
0, 0, 116, 1.675617933273315
0, 0, 117, 2.409511566162109
0, 0, 118, 2.09504246711731
0, 0, 119, 2.236410617828369
0, 0, 120, 1.545029401779175
0, 0, 121, 4.281317234039307
0, 0, 122, 3.965099573135376
0, 0, 123, 3.58471941947937
0, 0, 124, 1.352896809577942
0, 0, 125, 2.907081604003906
0, 0, 126, 1.225582957267761
0, 0, 127, 1.8730309009552
0, 1, 0, 0.7779573202133179
0, 1, 1, 5.339688777923584
0, 1, 2, 2.375251054763794
0, 1, 3, 1.428293108940125
0, 1, 4, 0.3867238461971283
0, 1, 5, 1.697651505470276
0, 1, 6, 1.481433868408203
0, 1, 7, 3.094626426696777
0, 1, 8, 2.899369955062866
0, 1, 9, 2.650101661682129
0, 1, 10, 1.892791509628296
0, 1, 11, 3.30911660194397
0, 1, 12, 4.37092113494873
0, 1, 13, 3.634199142456055
0, 1, 14, 5.811140060424805
0, 1, 15, 5.784304618835449
0, 1, 16, 7.715798377990723
0, 1, 17, 4.861280918121338
0, 1, 18, 10.6521463394165
0, 1, 19, 38.92776489257812
0, 1, 20, 125.1711807250977
0, 1, 21, 178.9128875732422
0, 1, 22, 193.2115020751953
0, 1, 23, 188.8230895996094
0, 1, 24, 180.1278076171875
0, 1, 25, 192.2842712402344
0, 1, 26, 197.8639526367188
0, 1, 27, 187.0438690185547
0, 1, 28, 188.2317504882812
0, 1, 29, 184.2782287597656
0, 1, 30, 179.2277679443359
0, 1, 31, 182.8794708251953
0, 1, 32, 188.9659118652344
0, 1, 33, 190.4401550292969
0, 1, 34, 185.7754974365234
0, 1, 35, 193.7476806640625
0, 1, 36, 205.8327789306641
0, 1, 37, 184.8702087402344
0, 1, 38, 165.3960723876953
0, 1, 39, 171.1941223144531
0, 1, 40, 179.1467437744141
0, 1, 41, 184.8675231933594
0, 1, 42, 184.1228332519531
0, 1, 43, 186.6256256103516
0, 1, 44, 167.7061462402344
0, 1, 45, 187.1585388183594
0, 1, 46, 170.8610992431641
0, 1, 47, 185.5171508789062
0, 1, 48, 186.6250152587891
0, 1, 49, 186.2742156982422
0, 1, 50, 177.0776214599609
0, 1, 51, 189.6420593261719
0, 1, 52, 196.4670257568359
0, 1, 53, 195.6700439453125
0, 1, 54, 184.7589874267578
0, 1, 55, 164.6831512451172
0, 1, 56, 179.7169647216797
0, 1, 57, 177.9910736083984
0, 1, 58, 189.6732330322266
0, 1, 59, 193.3132476806641
0, 1, 60, 187.5272369384766
0, 1, 61, 178.6623687744141
0, 1, 62, 206.1747131347656
0, 1, 63, 174.5597534179688
0, 1, 64, 175.6257781982422
0, 1, 65, 186.8749847412109
0, 1, 66, 204.0396270751953
0, 1, 67, 182.5292816162109
0, 1, 68, 186.8342742919922
0, 1, 69, 188.5100402832031
0, 1, 70, 185.4838256835938
0, 1, 71, 171.6886138916016
0, 1, 72, 192.2994842529297
0, 1, 73, 189.9118041992188
0, 1, 74, 201.3751983642578
0, 1, 75, 183.6956481933594
0, 1, 76, 174.3764343261719
0, 1, 77, 192.6952667236328
0, 1, 78, 187.0745391845703
0, 1, 79, 201.302490234375
0, 1, 80, 187.3089447021484
0, 1, 81, 175.5578155517578
0, 1, 82, 208.3139190673828
0, 1, 83, 211.8732299804688
0, 1, 84, 180.6065826416016
0, 1, 85, 170.4654083251953
0, 1, 86, 168.8606414794922
0, 1, 87, 184.8242492675781
0, 1, 88, 176.5497283935547
0, 1, 89, 186.9364624023438
0, 1, 90, 213.0318145751953
0, 1, 91, 180.2242126464844
0, 1, 92, 183.8468170166016
0, 1, 93, 181.1701812744141
0, 1, 94, 186.1685333251953
0, 1, 95, 181.8814086914062
0, 1, 96, 196.3606567382812
0, 1, 97, 183.0200958251953
0, 1, 98, 186.8284759521484
0, 1, 99, 175.3701629638672
0, 1, 100, 172.4594573974609
0, 1, 101, 177.8273620605469
0, 1, 102, 182.0830535888672
0, 1, 103, 173.0978240966797
0, 1, 104, 189.0319213867188
0, 1, 105, 182.3610382080078
0, 1, 106, 164.6976623535156
0, 1, 107, 125.9300003051758
0, 1, 108, 46.19857788085938
0, 1, 109, 10.30313301086426
0, 1, 110, 6.971799373626709
0, 1, 111, 5.757131099700928
0, 1, 112, 7.510534763336182
0, 1, 113, 7.310170650482178
0, 1, 114, 4.580101490020752
0, 1, 115, 2.775663614273071
0, 1, 116, 2.700488567352295
0, 1, 117, 2.03150749206543
0, 1, 118, 2.627811908721924
0, 1, 119, 1.004787921905518
0, 1, 120, 4.035513877868652
0, 1, 121, 4.729587554931641
0, 1, 122, 2.803727865219116
0, 1, 123, 3.431555509567261
0, 1, 124, 2.406664609909058
0, 1, 125, 5.639090061187744
0, 1, 126, 1.884019136428833
0, 1, 127, 2.383662462234497
0, 2, 0, 2.555732488632202
0, 2, 1, 2.216939926147461
0, 2, 2, 2.045810222625732
0, 2, 3, 1.172102093696594
0, 2, 4, 1.443691968917847
0, 2, 5, 1.23710834980011
0, 2, 6, 3.065489292144775
0, 2, 7, 2.012821197509766
0, 2, 8, 1.161566972732544
0, 2, 9, 3.321380615234375
0, 2, 10, 4.574567317962646
0, 2, 11, 4.295309066772461
0, 2, 12, 3.536052227020264
0, 2, 13, 2.760035991668701
0, 2, 14, 4.115903854370117
0, 2, 15, 6.578915596008301
0, 2, 16, 4.783132553100586
0, 2, 17, 8.656681060791016
0, 2, 18, 14.28062438964844
0, 2, 19, 77.32204437255859
0, 2, 20, 160.6126098632812
0, 2, 21, 185.5807037353516
0, 2, 22, 194.3147735595703
0, 2, 23, 184.2066802978516
0, 2, 24, 173.5088043212891
0, 2, 25, 184.2244720458984
0, 2, 26, 181.7902221679688
0, 2, 27, 189.9302673339844
0, 2, 28, 172.5313262939453
0, 2, 29, 168.8703002929688
0, 2, 30, 184.3102416992188
0, 2, 31, 182.2434539794922
0, 2, 32, 182.6237182617188
0, 2, 33, 191.7989196777344
0, 2, 34, 196.9825439453125
0, 2, 35, 181.6595611572266
0, 2, 36, 187.3245086669922
0, 2, 37, 180.9415130615234
0, 2, 38, 185.0413665771484
0, 2, 39, 166.3336791992188
0, 2, 40, 183.5488433837891
0, 2, 41, 184.18115234375
0, 2, 42, 190.5214691162109
0, 2, 43, 193.7206878662109
0, 2, 44, 190.7925262451172
0, 2, 45, 190.0993041992188
0, 2, 46, 195.5211029052734
0, 2, 47, 188.8515319824219
0, 2, 48, 177.2376556396484
0, 2, 49, 198.10107421875
0, 2, 50, 167.3616333007812
0, 2, 51, 186.1830291748047
0, 2, 52, 187.0967407226562
0, 2, 53, 194.6963348388672
0, 2, 54, 177.08447265625
0, 2, 55, 173.4410247802734
0, 2, 56, 181.6834564208984
0, 2, 57, 200.4638671875
0, 2, 58, 185.8397979736328
0, 2, 59, 192.3991851806641
0, 2, 60, 196.96484375
0, 2, 61, 193.5083923339844
0, 2, 62, 191.0064392089844
0, 2, 63, 170.6211090087891
0, 2, 64, 190.7759704589844
0, 2, 65, 203.1527252197266
0, 2, 66, 195.2848663330078
0, 2, 67, 186.4900054931641
0, 2, 68, 184.4973602294922
0, 2, 69, 186.5570373535156
0, 2, 70, 204.6565551757812
0, 2, 71, 174.7417907714844
0, 2, 72, 185.6134338378906
0, 2, 73, 177.7845306396484
0, 2, 74, 180.1220550537109
0, 2, 75, 196.4714202880859
0, 2, 76, 184.6608276367188
0, 2, 77, 176.4870910644531
0, 2, 78, 199.1485443115234
0, 2, 79, 176.9330902099609
0, 2, 80, 188.8155822753906
0, 2, 81, 187.7029876708984
0, 2, 82, 205.9534759521484
0, 2, 83, 204.0326538085938
0, 2, 84, 187.9888000488281
0, 2, 85, 170.8880004882812
0, 2, 86, 195.2132263183594
0, 2, 87, 171.9024658203125
0, 2, 88, 179.4040374755859
0, 2, 89, 186.3802795410156
0, 2, 90, 177.539306640625
0, 2, 91, 175.2411193847656
0, 2, 92, 197.0560607910156
0, 2, 93, 193.7127990722656
0, 2, 94, 198.9981384277344
0, 2, 95, 194.9619903564453
0, 2, 96, 186.7504577636719
0, 2, 97, 172.1656799316406
0, 2, 98, 173.0037536621094
0, 2, 99, 162.4795837402344
0, 2, 100, 189.5596466064453
0, 2, 101, 196.3759918212891
0, 2, 102, 177.6789093017578
0, 2, 103, 199.4577941894531
0, 2, 104, 187.1338195800781
0, 2, 105, 200.1648406982422
0, 2, 106, 194.5293579101562
0, 2, 107, 149.30126953125
0, 2, 108, 78.88941192626953
0, 2, 109, 18.28424453735352
0, 2, 110, 7.240139007568359
0, 2, 111, 5.692796230316162
0, 2, 112, 3.550526857376099
0, 2, 113, 4.39373254776001
0, 2, 114, 9.121045112609863
0, 2, 115, 4.654620170593262
0, 2, 116, 1.482289552688599
0, 2, 117, 2.472649574279785
0, 2, 118, 1.977421998977661
0, 2, 119, 2.805876731872559
0, 2, 120, 2.638357400894165
0, 2, 121, 4.304134845733643
0, 2, 122, 1.708647489547729
0, 2, 123, 4.557713031768799
0, 2, 124, 2.400710821151733
0, 2, 125, 1.982124328613281
0, 2, 126, 3.041560649871826
0, 2, 127, 0.5806767344474792
0, 3, 0, 1.354032874107361
0, 3, 1, 1.865543723106384
0, 3, 2, 1.094845414161682
0, 3, 3, 1.914091467857361
0, 3, 4, 4.726784229278564
0, 3, 5, 2.014686822891235
0, 3, 6, 3.236507892608643
0, 3, 7, 2.398778200149536
0, 3, 8, 2.884690999984741
0, 3, 9, 2.599502325057983
0, 3, 10, 4.088161945343018
0, 3, 11, 3.62488055229187
0, 3, 12, 3.779659271240234
0, 3, 13, 3.248251438140869
0, 3, 14, 3.664991140365601
0, 3, 15, 6.69580602645874
0, 3, 16, 8.230154037475586
0, 3, 17, 5.889029979705811
0, 3, 18, 32.60357666015625
0, 3, 19, 115.7001571655273
0, 3, 20, 180.6708068847656
0, 3, 21, 174.1136474609375
0, 3, 22, 178.4634857177734
0, 3, 23, 189.2469482421875
0, 3, 24, 177.9035186767578
0, 3, 25, 168.1479034423828
0, 3, 26, 181.0064849853516
0, 3, 27, 190.4729919433594
0, 3, 28, 182.5085906982422
0, 3, 29, 197.086669921875
0, 3, 30, 185.4019165039062
0, 3, 31, 192.6938934326172
0, 3, 32, 205.7743377685547
0, 3, 33, 196.1481323242188
0, 3, 34, 187.2040405273438
0, 3, 35, 172.9792633056641
0, 3, 36, 185.2120513916016
0, 3, 37, 199.6604766845703
0, 3, 38, 192.01708984375
0, 3, 39, 184.1010131835938
0, 3, 40, 166.2534637451172
0, 3, 41, 173.7918395996094
0, 3, 42, 185.8091125488281
0, 3, 43, 181.6146545410156
0, 3, 44, 203.2386322021484
0, 3, 45, 206.8821258544922
0, 3, 46, 198.8903656005859
0, 3, 47, 194.015380859375
0, 3, 48, 195.6211395263672
0, 3, 49, 180.1053771972656
0, 3, 50, 187.1265563964844
0, 3, 51, 175.7631988525391
0, 3, 52, 187.5074310302734
0, 3, 53, 176.7198028564453
0, 3, 54, 178.4891967773438
0, 3, 55, 176.9983520507812
0, 3, 56, 181.6755981445312
0, 3, 57, 175.4087677001953
0, 3, 58, 201.5201110839844
0, 3, 59, 196.76416015625
0, 3, 60, 187.0108032226562
0, 3, 61, 181.4344482421875
0, 3, 62, 182.4820251464844
0, 3, 63, 183.2583618164062
0, 3, 64, 188.8068084716797
0, 3, 65, 187.5637817382812
0, 3, 66, 175.8709411621094
0, 3, 67, 189.3467712402344
0, 3, 68, 213.6000671386719
0, 3, 69, 191.1432647705078
0, 3, 70, 185.4513549804688
0, 3, 71, 196.9517669677734
0, 3, 72, 185.5702209472656
0, 3, 73, 188.0274963378906
0, 3, 74, 192.8457794189453
0, 3, 75, 192.5357055664062
0, 3, 76, 190.9932556152344
0, 3, 77, 197.6024627685547
0, 3, 78, 189.4489898681641
0, 3, 79, 188.6252746582031
0, 3, 80, 189.4118347167969
0, 3, 81, 182.8164672851562
0, 3, 82, 180.5300750732422
0, 3, 83, 194.3245697021484
0, 3, 84, 199.0525207519531
0, 3, 85, 193.0595855712891
0, 3, 86, 203.684326171875
0, 3, 87, 198.5650939941406
0, 3, 88, 191.7423858642578
0, 3, 89, 192.9395751953125
0, 3, 90, 174.0545959472656
0, 3, 91, 158.7265014648438
0, 3, 92, 207.0774993896484
0, 3, 93, 196.7272644042969
0, 3, 94, 192.4136505126953
0, 3, 95, 212.5593719482422
0, 3, 96, 208.1683959960938
0, 3, 97, 168.1032409667969
0, 3, 98, 166.9090728759766
0, 3, 99, 182.2862854003906
0, 3, 100, 177.0749664306641
0, 3, 101, 197.8954467773438
0, 3, 102, 197.2468872070312
0, 3, 103, 194.0261535644531
0, 3, 104, 201.3138885498047
0, 3, 105, 175.5860900878906
0, 3, 106, 182.1497039794922
0, 3, 107, 169.5833129882812
0, 3, 108, 107.9238662719727
0, 3, 109, 27.31183052062988
0, 3, 110, 8.732527732849121
0, 3, 111, 6.436713695526123
0, 3, 112, 4.607438087463379
0, 3, 113, 7.244512557983398
0, 3, 114, 5.003336906433105
0, 3, 115, 5.673095226287842
0, 3, 116, 5.562410354614258
0, 3, 117, 3.555594682693481
0, 3, 118, 3.060707807540894
0, 3, 119, 3.197948217391968
0, 3, 120, 3.202281713485718
0, 3, 121, 2.65972900390625
0, 3, 122, 5.028427600860596
0, 3, 123, 1.723750472068787
0, 3, 124, 1.836287260055542
0, 3, 125, 1.379782319068909
0, 3, 126, 3.118685007095337
0, 3, 127, 1.051077842712402
0, 4, 0, 0.8672618269920349
0, 4, 1, 2.680314064025879
0, 4, 2, 2.584871530532837
0, 4, 3, 3.53427267074585
0, 4, 4, 3.565183401107788
0, 4, 5, 2.857455253601074
0, 4, 6, 2.974400281906128
0, 4, 7, 3.488600254058838
0, 4, 8, 1.546195507049561
0, 4, 9, 2.207093715667725
0, 4, 10, 3.045079469680786
0, 4, 11, 3.675371646881104
0, 4, 12, 3.501851558685303
0, 4, 13, 5.549370765686035
0, 4, 14, 6.34862232208252
0, 4, 15, 9.94877815246582
0, 4, 16, 7.442394256591797
0, 4, 17, 11.56315135955811
0, 4, 18, 55.47630310058594
0, 4, 19, 151.1687622070312
0, 4, 20, 192.4104919433594
0, 4, 21, 171.0927734375
0, 4, 22, 187.4944305419922
0, 4, 23, 196.3992462158203
0, 4, 24, 193.5457763671875
0, 4, 25, 199.7022399902344
0, 4, 26, 183.8138885498047
0, 4, 27, 191.1974792480469
0, 4, 28, 177.5208435058594
0, 4, 29, 205.3765106201172
0, 4, 30, 194.6703796386719
0, 4, 31, 192.0346374511719
0, 4, 32, 209.2880554199219
0, 4, 33, 189.2213287353516
0, 4, 34, 191.8587951660156
0, 4, 35, 212.8099975585938
0, 4, 36, 193.4217681884766
0, 4, 37, 177.0235137939453
0, 4, 38, 196.1645355224609
0, 4, 39, 190.3558502197266
0, 4, 40, 185.5941619873047
0, 4, 41, 189.1848754882812
0, 4, 42, 207.2827301025391
0, 4, 43, 175.4572296142578
0, 4, 44, 183.7896575927734
0, 4, 45, 197.0172271728516
0, 4, 46, 185.6374359130859
0, 4, 47, 178.9350738525391
0, 4, 48, 187.5054016113281
0, 4, 49, 175.1127471923828
0, 4, 50, 186.2938842773438
0, 4, 51, 196.3396453857422
0, 4, 52, 223.8951110839844
0, 4, 53, 206.7511291503906
0, 4, 54, 190.3684997558594
0, 4, 55, 174.7332000732422
0, 4, 56, 193.5886993408203
0, 4, 57, 192.2449951171875
0, 4, 58, 187.3066558837891
0, 4, 59, 189.9538879394531
0, 4, 60, 196.18701171875
0, 4, 61, 193.0136566162109
0, 4, 62, 190.1266937255859
0, 4, 63, 179.6811828613281
0, 4, 64, 211.2377471923828
0, 4, 65, 191.0489349365234
0, 4, 66, 201.5076599121094
0, 4, 67, 199.4964752197266
0, 4, 68, 202.0962066650391
0, 4, 69, 199.1654357910156
0, 4, 70, 205.7970581054688
0, 4, 71, 206.7764282226562
0, 4, 72, 215.1368865966797
0, 4, 73, 185.8151092529297
0, 4, 74, 179.6773681640625
0, 4, 75, 187.0539398193359
0, 4, 76, 190.645751953125
0, 4, 77, 184.9687042236328
0, 4, 78, 195.8833160400391
0, 4, 79, 204.8198089599609
0, 4, 80, 211.6916046142578
0, 4, 81, 198.2043151855469
0, 4, 82, 180.3975677490234
0, 4, 83, 168.9708099365234
0, 4, 84, 192.7181701660156
0, 4, 85, 198.2734527587891
0, 4, 86, 181.2222747802734
0, 4, 87, 182.5958251953125
0, 4, 88, 203.1920623779297
0, 4, 89, 187.3247222900391
0, 4, 90, 211.6311187744141
0, 4, 91, 189.0602722167969
0, 4, 92, 196.1204986572266
0, 4, 93, 195.4631500244141
0, 4, 94, 181.4542541503906
0, 4, 95, 174.0566101074219
0, 4, 96, 190.3086700439453
0, 4, 97, 193.0203857421875
0, 4, 98, 202.0356292724609
0, 4, 99, 185.3259887695312
0, 4, 100, 183.4238128662109
0, 4, 101, 178.0854644775391
0, 4, 102, 171.9048156738281
0, 4, 103, 185.2509002685547
0, 4, 104, 210.1857757568359
0, 4, 105, 189.5655212402344
0, 4, 106, 179.0097045898438
0, 4, 107, 182.0599670410156
0, 4, 108, 151.2996368408203
0, 4, 109, 50.30552291870117
0, 4, 110, 11.64095783233643
0, 4, 111, 7.163968563079834
0, 4, 112, 5.507240295410156
0, 4, 113, 6.999869346618652
0, 4, 114, 4.501544952392578
0, 4, 115, 2.705074548721313
0, 4, 116, 5.574439525604248
0, 4, 117, 2.544962406158447
0, 4, 118, 3.76829195022583
0, 4, 119, 3.91274094581604
0, 4, 120, 1.776207804679871
0, 4, 121, 1.930647253990173
0, 4, 122, 2.675249338150024
0, 4, 123, 1.52217435836792
0, 4, 124, 4.772790431976318
0, 4, 125, 2.329614162445068
0, 4, 126, 1.375432133674622
0, 4, 127, 1.293971061706543
0, 5, 0, 1.609727263450623
0, 5, 1, 2.456787586212158
0, 5, 2, 5.70789909362793
0, 5, 3, 3.609133958816528
0, 5, 4, 1.746335983276367
0, 5, 5, 2.440289497375488
0, 5, 6, 2.361213207244873
0, 5, 7, 2.462939262390137
0, 5, 8, 1.997087717056274
0, 5, 9, 2.587161779403687
0, 5, 10, 4.06671142578125
0, 5, 11, 4.492812156677246
0, 5, 12, 7.816640377044678
0, 5, 13, 3.38368558883667
0, 5, 14, 5.938257217407227
0, 5, 15, 8.095061302185059
0, 5, 16, 7.259669303894043
0, 5, 17, 22.3503246307373
0, 5, 18, 83.34343719482422
0, 5, 19, 163.7025756835938
0, 5, 20, 186.6600952148438
0, 5, 21, 177.7113189697266
0, 5, 22, 171.2962341308594
0, 5, 23, 200.5452880859375
0, 5, 24, 187.4075927734375
0, 5, 25, 208.3399200439453
0, 5, 26, 181.7141418457031
0, 5, 27, 194.2842102050781
0, 5, 28, 190.8000793457031
0, 5, 29, 196.2595825195312
0, 5, 30, 177.8215484619141
0, 5, 31, 179.6715240478516
0, 5, 32, 188.6944122314453
0, 5, 33, 169.7418975830078
0, 5, 34, 194.9061889648438
0, 5, 35, 197.2403411865234
0, 5, 36, 168.3159484863281
0, 5, 37, 198.3315277099609
0, 5, 38, 181.1649169921875
0, 5, 39, 187.1788330078125
0, 5, 40, 195.9937133789062
0, 5, 41, 178.6753997802734
0, 5, 42, 188.23291015625
0, 5, 43, 194.1314239501953
0, 5, 44, 199.5846710205078
0, 5, 45, 187.118408203125
0, 5, 46, 193.2191925048828
0, 5, 47, 181.4341583251953
0, 5, 48, 178.2233734130859
0, 5, 49, 176.7863464355469
0, 5, 50, 186.3089904785156
0, 5, 51, 171.5413818359375
0, 5, 52, 167.9208374023438
0, 5, 53, 181.3455963134766
0, 5, 54, 172.0810241699219
0, 5, 55, 215.1080017089844
0, 5, 56, 180.7703094482422
0, 5, 57, 207.391357421875
0, 5, 58, 182.5941009521484
0, 5, 59, 181.6532287597656
0, 5, 60, 218.7413787841797
0, 5, 61, 184.4996795654297
0, 5, 62, 179.0911407470703
0, 5, 63, 180.3645172119141
0, 5, 64, 196.3029479980469
0, 5, 65, 212.1424255371094
0, 5, 66, 191.9899139404297
0, 5, 67, 200.5971069335938
0, 5, 68, 185.0973968505859
0, 5, 69, 184.4712677001953
0, 5, 70, 185.0757904052734
0, 5, 71, 193.6768493652344
0, 5, 72, 199.8568725585938
0, 5, 73, 202.7754058837891
0, 5, 74, 179.7315216064453
0, 5, 75, 203.0476989746094
0, 5, 76, 215.4717864990234
0, 5, 77, 181.8907623291016
0, 5, 78, 194.5215454101562
0, 5, 79, 189.7967376708984
0, 5, 80, 197.1036224365234
0, 5, 81, 203.6873168945312
0, 5, 82, 203.0245513916016
0, 5, 83, 188.8174133300781
0, 5, 84, 205.6092224121094
0, 5, 85, 176.7398223876953
0, 5, 86, 195.0928649902344
0, 5, 87, 187.0619964599609
0, 5, 88, 176.8518829345703
0, 5, 89, 194.0306854248047
0, 5, 90, 198.74853515625
0, 5, 91, 195.9745483398438
0, 5, 92, 190.4214477539062
0, 5, 93, 190.5043640136719
0, 5, 94, 207.5460815429688
0, 5, 95, 176.9351806640625
0, 5, 96, 182.4122772216797
0, 5, 97, 194.9786071777344
0, 5, 98, 188.9339141845703
0, 5, 99, 193.71240234375
0, 5, 100, 185.5989532470703
0, 5, 101, 195.0597229003906
0, 5, 102, 181.3204040527344
0, 5, 103, 176.5393218994141
0, 5, 104, 189.8103332519531
0, 5, 105, 189.4937591552734
0, 5, 106, 178.7615356445312
0, 5, 107, 181.5721588134766
0, 5, 108, 177.0381774902344
0, 5, 109, 90.13151550292969
0, 5, 110, 30.02351951599121
0, 5, 111, 8.904953002929688
0, 5, 112, 6.262701511383057
0, 5, 113, 5.850174903869629
0, 5, 114, 6.066927433013916
0, 5, 115, 7.05411958694458
0, 5, 116, 3.819357633590698
0, 5, 117, 3.567559003829956
0, 5, 118, 4.704427242279053
0, 5, 119, 4.130201816558838
0, 5, 120, 1.78320837020874
0, 5, 121, 2.182929515838623
0, 5, 122, 2.013469219207764
0, 5, 123, 5.696138858795166
0, 5, 124, 3.721494913101196
0, 5, 125, 0.9588279128074646
0, 5, 126, 1.556284308433533
0, 5, 127, 1.715162515640259
0, 6, 0, 3.322412729263306
0, 6, 1, 2.910367250442505
0, 6, 2, 3.603646755218506
0, 6, 3, 1.523651361465454
0, 6, 4, 3.202619791030884
0, 6, 5, 2.924259901046753
0, 6, 6, 3.420456886291504
0, 6, 7, 4.098440170288086
0, 6, 8, 4.765823364257812
0, 6, 9, 2.518169403076172
0, 6, 10, 5.062332153320312
0, 6, 11, 3.530376195907593
0, 6, 12, 3.645051240921021
0, 6, 13, 6.532413005828857
0, 6, 14, 4.773664951324463
0, 6, 15, 6.319108009338379
0, 6, 16, 12.26511287689209
0, 6, 17, 28.35592651367188
0, 6, 18, 113.9187240600586
0, 6, 19, 192.0991363525391
0, 6, 20, 195.4098205566406
0, 6, 21, 197.7628021240234
0, 6, 22, 191.1849365234375
0, 6, 23, 190.996826171875
0, 6, 24, 200.9644622802734
0, 6, 25, 183.8171844482422
0, 6, 26, 186.5347747802734
0, 6, 27, 193.0390625
0, 6, 28, 188.6294403076172
0, 6, 29, 210.0204010009766
0, 6, 30, 189.3007965087891
0, 6, 31, 192.9261474609375
0, 6, 32, 205.6408233642578
0, 6, 33, 184.9162139892578
0, 6, 34, 197.3593902587891
0, 6, 35, 188.4312133789062
0, 6, 36, 181.5028076171875
0, 6, 37, 182.7577819824219
0, 6, 38, 185.0410766601562
0, 6, 39, 193.7641448974609
0, 6, 40, 173.2220153808594
0, 6, 41, 185.4144439697266
0, 6, 42, 174.0704803466797
0, 6, 43, 208.5375671386719
0, 6, 44, 209.7688293457031
0, 6, 45, 193.1452331542969
0, 6, 46, 188.5888977050781
0, 6, 47, 204.1022033691406
0, 6, 48, 188.5393676757812
0, 6, 49, 178.7361145019531
0, 6, 50, 181.7588653564453
0, 6, 51, 195.6499938964844
0, 6, 52, 197.4227752685547
0, 6, 53, 185.4665222167969
0, 6, 54, 175.7894744873047
0, 6, 55, 194.8508453369141
0, 6, 56, 203.4499359130859
0, 6, 57, 193.1674957275391
0, 6, 58, 180.0465698242188
0, 6, 59, 192.107666015625
0, 6, 60, 184.2636260986328
0, 6, 61, 195.0732116699219
0, 6, 62, 196.3702087402344
0, 6, 63, 186.3483734130859
0, 6, 64, 169.6978759765625
0, 6, 65, 186.9951171875
0, 6, 66, 198.2741088867188
0, 6, 67, 213.3017578125
0, 6, 68, 180.8287200927734
0, 6, 69, 172.0867767333984
0, 6, 70, 187.8236083984375
0, 6, 71, 170.24267578125
0, 6, 72, 176.0678405761719
0, 6, 73, 176.5083465576172
0, 6, 74, 209.7162475585938
0, 6, 75, 226.5903015136719
0, 6, 76, 184.8177032470703
0, 6, 77, 171.1750793457031
0, 6, 78, 175.9414520263672
0, 6, 79, 187.7638244628906
0, 6, 80, 187.4306182861328
0, 6, 81, 208.7818145751953
0, 6, 82, 194.9696044921875
0, 6, 83, 195.4339752197266
0, 6, 84, 197.5007934570312
0, 6, 85, 180.8269500732422
0, 6, 86, 202.6754302978516
0, 6, 87, 184.0774841308594
0, 6, 88, 193.8876647949219
0, 6, 89, 188.0489807128906
0, 6, 90, 205.2076721191406
0, 6, 91, 199.9273986816406
0, 6, 92, 173.8852691650391
0, 6, 93, 191.7085266113281
0, 6, 94, 191.2016143798828
0, 6, 95, 185.8494262695312
0, 6, 96, 191.2354583740234
0, 6, 97, 193.4110260009766
0, 6, 98, 183.2649841308594
0, 6, 99, 174.6513366699219
0, 6, 100, 200.7331695556641
0, 6, 101, 168.2359161376953
0, 6, 102, 201.8974761962891
0, 6, 103, 195.5496978759766
0, 6, 104, 183.6622772216797
0, 6, 105, 193.4786682128906
0, 6, 106, 177.0991058349609
0, 6, 107, 195.1567230224609
0, 6, 108, 170.5236206054688
0, 6, 109, 116.0135879516602
0, 6, 110, 34.6061897277832
0, 6, 111, 8.880481719970703
0, 6, 112, 9.476387977600098
0, 6, 113, 5.784132480621338
0, 6, 114, 6.791925430297852
0, 6, 115, 4.49984073638916
0, 6, 116, 3.972803354263306
0, 6, 117, 3.758240938186646
0, 6, 118, 4.524361610412598
0, 6, 119, 4.41673755645752
0, 6, 120, 3.669853210449219
0, 6, 121, 4.331185340881348
0, 6, 122, 3.776741504669189
0, 6, 123, 2.516550302505493
0, 6, 124, 3.190557241439819
0, 6, 125, 3.193671703338623
0, 6, 126, 1.774717211723328
0, 6, 127, 1.803097128868103
0, 7, 0, 3.317296266555786
0, 7, 1, 2.256124258041382
0, 7, 2, 2.402074813842773
0, 7, 3, 2.819981813430786
0, 7, 4, 1.101431727409363
0, 7, 5, 1.098600745201111
0, 7, 6, 1.400142192840576
0, 7, 7, 1.297628879547119
0, 7, 8, 3.397987365722656
0, 7, 9, 3.087751626968384
0, 7, 10, 4.445096492767334
0, 7, 11, 5.070574283599854
0, 7, 12, 4.227239608764648
0, 7, 13, 7.620706558227539
0, 7, 14, 6.591106414794922
0, 7, 15, 7.057409286499023
0, 7, 16, 14.82499599456787
0, 7, 17, 51.55696487426758
0, 7, 18, 161.2867126464844
0, 7, 19, 181.8627166748047
0, 7, 20, 181.2077026367188
0, 7, 21, 179.5594940185547
0, 7, 22, 190.712646484375
0, 7, 23, 201.8645629882812
0, 7, 24, 179.0160827636719
0, 7, 25, 212.7793884277344
0, 7, 26, 189.2611999511719
0, 7, 27, 182.0364990234375
0, 7, 28, 182.9962768554688
0, 7, 29, 208.6565704345703
0, 7, 30, 192.9619598388672
0, 7, 31, 175.2501678466797
0, 7, 32, 190.4530792236328
0, 7, 33, 179.8109130859375
0, 7, 34, 193.5611114501953
0, 7, 35, 197.8349609375
0, 7, 36, 186.3730621337891
0, 7, 37, 212.6706085205078
0, 7, 38, 191.4752655029297
0, 7, 39, 176.0618286132812
0, 7, 40, 183.1658020019531
0, 7, 41, 185.3638916015625
0, 7, 42, 178.9539031982422
0, 7, 43, 178.61376953125
0, 7, 44, 179.5303039550781
0, 7, 45, 172.6009979248047
0, 7, 46, 187.7256774902344
0, 7, 47, 197.3915863037109
0, 7, 48, 184.6552886962891
0, 7, 49, 198.3139495849609
0, 7, 50, 188.0612030029297
0, 7, 51, 206.4630126953125
0, 7, 52, 204.4822387695312
0, 7, 53, 191.9502716064453
0, 7, 54, 196.5502166748047
0, 7, 55, 203.9402160644531
0, 7, 56, 183.2402801513672
0, 7, 57, 182.7166595458984
0, 7, 58, 192.2456512451172
0, 7, 59, 188.0923461914062
0, 7, 60, 203.5049438476562
0, 7, 61, 173.0546569824219
0, 7, 62, 202.7166595458984
0, 7, 63, 188.6245727539062
0, 7, 64, 199.4655151367188
0, 7, 65, 192.6618499755859
0, 7, 66, 207.4938812255859
0, 7, 67, 220.1297302246094
0, 7, 68, 161.864501953125
0, 7, 69, 194.3197479248047
0, 7, 70, 219.8807830810547
0, 7, 71, 184.2535095214844
0, 7, 72, 180.7977905273438
0, 7, 73, 176.8762969970703
0, 7, 74, 207.8300476074219
0, 7, 75, 204.2557067871094
0, 7, 76, 214.8580627441406
0, 7, 77, 174.8516540527344
0, 7, 78, 176.5247650146484
0, 7, 79, 191.7127685546875
0, 7, 80, 196.2970428466797
0, 7, 81, 215.0609741210938
0, 7, 82, 183.8379364013672
0, 7, 83, 205.2233734130859
0, 7, 84, 192.2620697021484
0, 7, 85, 187.7734375
0, 7, 86, 201.5140686035156
0, 7, 87, 225.7911834716797
0, 7, 88, 195.6577606201172
0, 7, 89, 176.3908996582031
0, 7, 90, 182.2136840820312
0, 7, 91, 194.0879211425781
0, 7, 92, 193.4500732421875
0, 7, 93, 200.0035247802734
0, 7, 94, 176.8068084716797
0, 7, 95, 198.0048522949219
0, 7, 96, 208.0029754638672
0, 7, 97, 189.2478637695312
0, 7, 98, 177.4383697509766
0, 7, 99, 196.55078125
0, 7, 100, 182.5520477294922
0, 7, 101, 199.6906127929688
0, 7, 102, 185.3813629150391
0, 7, 103, 181.4541320800781
0, 7, 104, 174.1311187744141
0, 7, 105, 197.2767944335938
0, 7, 106, 206.4105987548828
0, 7, 107, 173.0591125488281
0, 7, 108, 176.7943878173828
0, 7, 109, 136.1780700683594
0, 7, 110, 54.94445037841797
0, 7, 111, 8.901365280151367
0, 7, 112, 10.64381217956543
0, 7, 113, 8.776178359985352
0, 7, 114, 6.552871227264404
0, 7, 115, 5.349514007568359
0, 7, 116, 5.48160457611084
0, 7, 117, 4.542643547058105
0, 7, 118, 3.489989995956421
0, 7, 119, 3.603634595870972
0, 7, 120, 1.974049806594849
0, 7, 121, 2.49424147605896
0, 7, 122, 4.103971004486084
0, 7, 123, 2.127567291259766
0, 7, 124, 1.92565393447876
0, 7, 125, 2.728845357894897
0, 7, 126, 5.348189353942871
0, 7, 127, 2.004371643066406
0, 8, 0, 5.3880295753479
0, 8, 1, 1.592127203941345
0, 8, 2, 3.746492862701416
0, 8, 3, 2.262133359909058
0, 8, 4, 1.619377613067627
0, 8, 5, 2.737738847732544
0, 8, 6, 3.342461824417114
0, 8, 7, 2.901113033294678
0, 8, 8, 2.19365119934082
0, 8, 9, 4.868321895599365
0, 8, 10, 2.291682243347168
0, 8, 11, 1.934805989265442
0, 8, 12, 5.329275608062744
0, 8, 13, 6.04551887512207
0, 8, 14, 7.142540454864502
0, 8, 15, 9.436193466186523
0, 8, 16, 19.92647552490234
0, 8, 17, 74.57319641113281
0, 8, 18, 142.1878814697266
0, 8, 19, 180.1815338134766
0, 8, 20, 192.4304809570312
0, 8, 21, 192.2625579833984
0, 8, 22, 181.7612915039062
0, 8, 23, 175.0259704589844
0, 8, 24, 192.3138580322266
0, 8, 25, 184.1853332519531
0, 8, 26, 192.5877380371094
0, 8, 27, 187.2312774658203
0, 8, 28, 186.3584442138672
0, 8, 29, 207.3780364990234
0, 8, 30, 196.8486633300781
0, 8, 31, 182.8626556396484
0, 8, 32, 198.0965270996094
0, 8, 33, 206.5003356933594
0, 8, 34, 202.8316040039062
0, 8, 35, 184.9049530029297
0, 8, 36, 181.1139678955078
0, 8, 37, 199.0486602783203
