# TOPAS Version: 3.1.p3
# Parameter File: batch_inserts_94.txt
# Results for scorer Readout_Adipose
# Scored in component: MyBox
# X in 1 bin  of 0.65 cm
# Y in 512 bins of 0.0783984 cm
# Z in 128 bins of 0.078125 cm
# EnergyDeposit ( MeV ) : Sum   
0, 0, 0, 1.45280396938324
0, 0, 1, 3.896005868911743
0, 0, 2, 3.609308958053589
0, 0, 3, 1.620313167572021
0, 0, 4, 1.227375745773315
0, 0, 5, 1.047030925750732
0, 0, 6, 1.459283232688904
0, 0, 7, 2.327574491500854
0, 0, 8, 1.704158902168274
0, 0, 9, 2.661685705184937
0, 0, 10, 1.908124446868896
0, 0, 11, 3.902725458145142
0, 0, 12, 4.554768562316895
0, 0, 13, 3.218075513839722
0, 0, 14, 5.054910659790039
0, 0, 15, 5.065342426300049
0, 0, 16, 3.371366739273071
0, 0, 17, 5.890851497650146
0, 0, 18, 5.741661548614502
0, 0, 19, 22.35920333862305
0, 0, 20, 94.47177886962891
0, 0, 21, 152.8790893554688
0, 0, 22, 154.1526641845703
0, 0, 23, 144.3152923583984
0, 0, 24, 159.0567626953125
0, 0, 25, 166.1274261474609
0, 0, 26, 167.7317810058594
0, 0, 27, 173.8093109130859
0, 0, 28, 179.3863220214844
0, 0, 29, 174.3955841064453
0, 0, 30, 172.4292144775391
0, 0, 31, 168.080078125
0, 0, 32, 164.1798095703125
0, 0, 33, 166.4676208496094
0, 0, 34, 176.4403228759766
0, 0, 35, 173.8248596191406
0, 0, 36, 159.2118225097656
0, 0, 37, 161.1582641601562
0, 0, 38, 166.593505859375
0, 0, 39, 159.3113708496094
0, 0, 40, 164.9132537841797
0, 0, 41, 165.5480041503906
0, 0, 42, 144.5034027099609
0, 0, 43, 168.2434387207031
0, 0, 44, 178.6122589111328
0, 0, 45, 172.2388153076172
0, 0, 46, 166.5630645751953
0, 0, 47, 167.9452056884766
0, 0, 48, 169.3080902099609
0, 0, 49, 183.0127563476562
0, 0, 50, 168.6513671875
0, 0, 51, 161.3864440917969
0, 0, 52, 164.4911499023438
0, 0, 53, 171.7420654296875
0, 0, 54, 160.9956207275391
0, 0, 55, 164.8704528808594
0, 0, 56, 189.1173553466797
0, 0, 57, 171.0663452148438
0, 0, 58, 161.5702056884766
0, 0, 59, 172.39892578125
0, 0, 60, 167.8883819580078
0, 0, 61, 168.8797607421875
0, 0, 62, 185.0447845458984
0, 0, 63, 167.4284057617188
0, 0, 64, 166.2728271484375
0, 0, 65, 177.7951354980469
0, 0, 66, 178.115966796875
0, 0, 67, 164.7766723632812
0, 0, 68, 159.3592529296875
0, 0, 69, 158.9495544433594
0, 0, 70, 169.7868347167969
0, 0, 71, 159.0542297363281
0, 0, 72, 160.9642486572266
0, 0, 73, 171.3529968261719
0, 0, 74, 165.1018829345703
0, 0, 75, 163.9028167724609
0, 0, 76, 163.5565032958984
0, 0, 77, 173.0158843994141
0, 0, 78, 181.3165435791016
0, 0, 79, 174.8623199462891
0, 0, 80, 159.6173858642578
0, 0, 81, 160.2978210449219
0, 0, 82, 182.0428924560547
0, 0, 83, 173.2239227294922
0, 0, 84, 159.0402526855469
0, 0, 85, 181.2236328125
0, 0, 86, 158.9287109375
0, 0, 87, 176.7381744384766
0, 0, 88, 177.1669921875
0, 0, 89, 175.19580078125
0, 0, 90, 162.02001953125
0, 0, 91, 184.1531677246094
0, 0, 92, 163.3198394775391
0, 0, 93, 156.9143829345703
0, 0, 94, 168.4980773925781
0, 0, 95, 172.6425476074219
0, 0, 96, 183.6391754150391
0, 0, 97, 185.6823425292969
0, 0, 98, 189.0980834960938
0, 0, 99, 171.0181579589844
0, 0, 100, 158.2519683837891
0, 0, 101, 166.3462829589844
0, 0, 102, 171.3921813964844
0, 0, 103, 170.7855072021484
0, 0, 104, 169.2403411865234
0, 0, 105, 179.1568603515625
0, 0, 106, 159.2284240722656
0, 0, 107, 87.35887145996094
0, 0, 108, 20.43555450439453
0, 0, 109, 9.294504165649414
0, 0, 110, 6.336976528167725
0, 0, 111, 6.410330295562744
0, 0, 112, 3.966391563415527
0, 0, 113, 4.214399337768555
0, 0, 114, 2.697608232498169
0, 0, 115, 2.64321756362915
0, 0, 116, 1.979186296463013
0, 0, 117, 1.337062239646912
0, 0, 118, 2.222381591796875
0, 0, 119, 1.74943745136261
0, 0, 120, 1.435961842536926
0, 0, 121, 4.209312438964844
0, 0, 122, 3.823324680328369
0, 0, 123, 6.403685569763184
0, 0, 124, 1.522116541862488
0, 0, 125, 2.592502355575562
0, 0, 126, 1.511030673980713
0, 0, 127, 1.884384989738464
0, 1, 0, 0.6653136014938354
0, 1, 1, 5.068632125854492
0, 1, 2, 1.999897003173828
0, 1, 3, 1.227794766426086
0, 1, 4, 0.874927818775177
0, 1, 5, 1.306464195251465
0, 1, 6, 1.364599227905273
0, 1, 7, 2.286152362823486
0, 1, 8, 1.571118354797363
0, 1, 9, 2.149829864501953
0, 1, 10, 5.371708869934082
0, 1, 11, 3.447814464569092
0, 1, 12, 3.763167381286621
0, 1, 13, 5.046977043151855
0, 1, 14, 6.102244853973389
0, 1, 15, 6.62955904006958
0, 1, 16, 7.569994449615479
0, 1, 17, 5.273292541503906
0, 1, 18, 10.2830171585083
0, 1, 19, 38.35678863525391
0, 1, 20, 125.3632888793945
0, 1, 21, 177.4309387207031
0, 1, 22, 193.0634002685547
0, 1, 23, 186.2999877929688
0, 1, 24, 180.0428619384766
0, 1, 25, 193.0989379882812
0, 1, 26, 198.0779266357422
0, 1, 27, 187.1781768798828
0, 1, 28, 188.1900024414062
0, 1, 29, 184.1172943115234
0, 1, 30, 178.9994354248047
0, 1, 31, 182.8158721923828
0, 1, 32, 188.7679748535156
0, 1, 33, 191.5560760498047
0, 1, 34, 187.9199829101562
0, 1, 35, 193.3924865722656
0, 1, 36, 206.6755218505859
0, 1, 37, 185.0084075927734
0, 1, 38, 165.0885772705078
0, 1, 39, 171.3461151123047
0, 1, 40, 179.4684295654297
0, 1, 41, 184.89208984375
0, 1, 42, 183.5061950683594
0, 1, 43, 185.044189453125
0, 1, 44, 168.9683990478516
0, 1, 45, 186.6840209960938
0, 1, 46, 170.9387817382812
0, 1, 47, 185.5337982177734
0, 1, 48, 186.0845794677734
0, 1, 49, 186.7281036376953
0, 1, 50, 178.5869140625
0, 1, 51, 191.7928466796875
0, 1, 52, 197.0233612060547
0, 1, 53, 195.7709808349609
0, 1, 54, 184.8737335205078
0, 1, 55, 164.9622497558594
0, 1, 56, 178.3418884277344
0, 1, 57, 180.0102386474609
0, 1, 58, 189.7985076904297
0, 1, 59, 194.4544982910156
0, 1, 60, 188.1246643066406
0, 1, 61, 177.3854522705078
0, 1, 62, 204.6734008789062
0, 1, 63, 174.0753936767578
0, 1, 64, 174.010986328125
0, 1, 65, 185.5451354980469
0, 1, 66, 204.0032806396484
0, 1, 67, 182.088134765625
0, 1, 68, 187.1881103515625
0, 1, 69, 188.8734283447266
0, 1, 70, 185.7044830322266
0, 1, 71, 171.449462890625
0, 1, 72, 192.9540863037109
0, 1, 73, 189.6427154541016
0, 1, 74, 201.1222686767578
0, 1, 75, 184.0617218017578
0, 1, 76, 174.4991912841797
0, 1, 77, 191.4872283935547
0, 1, 78, 188.6498870849609
0, 1, 79, 202.35986328125
0, 1, 80, 185.1546325683594
0, 1, 81, 174.8992004394531
0, 1, 82, 208.3164215087891
0, 1, 83, 211.4969940185547
0, 1, 84, 179.8168792724609
0, 1, 85, 169.4242248535156
0, 1, 86, 169.2502136230469
0, 1, 87, 185.0940399169922
0, 1, 88, 176.0389251708984
0, 1, 89, 187.1477813720703
0, 1, 90, 211.8608093261719
0, 1, 91, 181.7353668212891
0, 1, 92, 183.7072601318359
0, 1, 93, 182.0160980224609
0, 1, 94, 186.0124664306641
0, 1, 95, 183.3971557617188
0, 1, 96, 197.1112213134766
0, 1, 97, 183.3760986328125
0, 1, 98, 188.1290283203125
0, 1, 99, 174.9244079589844
0, 1, 100, 171.2405700683594
0, 1, 101, 177.8825073242188
0, 1, 102, 181.9603729248047
0, 1, 103, 173.9510498046875
0, 1, 104, 188.1490936279297
0, 1, 105, 180.9611358642578
0, 1, 106, 163.9396514892578
0, 1, 107, 123.1366271972656
0, 1, 108, 47.09338760375977
0, 1, 109, 9.605316162109375
0, 1, 110, 7.049245357513428
0, 1, 111, 6.160654544830322
0, 1, 112, 8.302306175231934
0, 1, 113, 7.012325286865234
0, 1, 114, 6.548707008361816
0, 1, 115, 2.202215671539307
0, 1, 116, 3.316908121109009
0, 1, 117, 2.334513664245605
0, 1, 118, 4.20049524307251
0, 1, 119, 1.93760621547699
0, 1, 120, 3.279071569442749
0, 1, 121, 5.371721267700195
0, 1, 122, 4.350235462188721
0, 1, 123, 3.804518222808838
0, 1, 124, 1.680967807769775
0, 1, 125, 2.748500823974609
0, 1, 126, 1.557941198348999
0, 1, 127, 2.101382970809937
0, 2, 0, 1.482002973556519
0, 2, 1, 1.855928063392639
0, 2, 2, 1.986986756324768
0, 2, 3, 1.438453912734985
0, 2, 4, 1.215319395065308
0, 2, 5, 1.894516468048096
0, 2, 6, 2.631481647491455
0, 2, 7, 1.878974437713623
0, 2, 8, 2.590853929519653
0, 2, 9, 2.279325246810913
0, 2, 10, 3.928160667419434
0, 2, 11, 3.904168128967285
0, 2, 12, 3.048163652420044
0, 2, 13, 2.984735727310181
0, 2, 14, 4.115006923675537
0, 2, 15, 6.742924690246582
0, 2, 16, 3.982869148254395
0, 2, 17, 8.839427947998047
0, 2, 18, 15.11393260955811
0, 2, 19, 77.45337677001953
0, 2, 20, 162.6216888427734
0, 2, 21, 184.6010894775391
0, 2, 22, 193.9928436279297
0, 2, 23, 183.5224456787109
0, 2, 24, 174.9133605957031
0, 2, 25, 184.1009368896484
0, 2, 26, 178.9425964355469
0, 2, 27, 188.8181457519531
0, 2, 28, 171.2127685546875
0, 2, 29, 168.7478179931641
0, 2, 30, 184.2991027832031
0, 2, 31, 182.2650756835938
0, 2, 32, 184.1599731445312
0, 2, 33, 190.5879974365234
0, 2, 34, 197.5932006835938
0, 2, 35, 181.0269775390625
0, 2, 36, 185.3336029052734
0, 2, 37, 180.8129119873047
0, 2, 38, 184.1189575195312
0, 2, 39, 166.8667602539062
0, 2, 40, 183.1740875244141
0, 2, 41, 183.4737091064453
0, 2, 42, 189.1442565917969
0, 2, 43, 193.5321960449219
0, 2, 44, 190.4097900390625
0, 2, 45, 190.0038452148438
0, 2, 46, 196.1894683837891
0, 2, 47, 188.8586730957031
0, 2, 48, 178.0016937255859
0, 2, 49, 197.4408416748047
0, 2, 50, 169.1573028564453
0, 2, 51, 183.6957244873047
0, 2, 52, 185.9034881591797
0, 2, 53, 195.1692810058594
0, 2, 54, 175.5061950683594
0, 2, 55, 173.5750885009766
0, 2, 56, 182.1039886474609
0, 2, 57, 199.6519317626953
0, 2, 58, 186.1505737304688
0, 2, 59, 189.9456481933594
0, 2, 60, 196.8718872070312
0, 2, 61, 193.6896667480469
0, 2, 62, 189.2490386962891
0, 2, 63, 169.4908599853516
0, 2, 64, 189.9070739746094
0, 2, 65, 203.8490905761719
0, 2, 66, 195.2437591552734
0, 2, 67, 184.7659759521484
0, 2, 68, 182.6800537109375
0, 2, 69, 187.2438354492188
0, 2, 70, 202.5231781005859
0, 2, 71, 175.1613464355469
0, 2, 72, 187.3484344482422
0, 2, 73, 178.6881866455078
0, 2, 74, 180.6780090332031
0, 2, 75, 196.5669403076172
0, 2, 76, 183.5962219238281
0, 2, 77, 178.3816833496094
0, 2, 78, 199.4611053466797
0, 2, 79, 178.233154296875
0, 2, 80, 186.6702728271484
0, 2, 81, 188.0379791259766
0, 2, 82, 204.3171081542969
0, 2, 83, 203.7719573974609
0, 2, 84, 188.3641052246094
0, 2, 85, 169.9190826416016
0, 2, 86, 195.673095703125
0, 2, 87, 171.4390563964844
0, 2, 88, 177.3822784423828
0, 2, 89, 184.4058380126953
0, 2, 90, 177.8046112060547
0, 2, 91, 177.1872406005859
0, 2, 92, 196.7768249511719
0, 2, 93, 192.5897674560547
0, 2, 94, 199.8451538085938
0, 2, 95, 196.5899963378906
0, 2, 96, 187.5280303955078
0, 2, 97, 174.6099395751953
0, 2, 98, 172.8910675048828
0, 2, 99, 161.6805725097656
0, 2, 100, 187.1055297851562
0, 2, 101, 196.2624816894531
0, 2, 102, 176.0302581787109
0, 2, 103, 199.4154205322266
0, 2, 104, 186.9412841796875
0, 2, 105, 200.1577911376953
0, 2, 106, 194.3907928466797
0, 2, 107, 148.7890319824219
0, 2, 108, 78.92015838623047
0, 2, 109, 18.08967399597168
0, 2, 110, 8.894408226013184
0, 2, 111, 5.948708534240723
0, 2, 112, 4.196258068084717
0, 2, 113, 4.204013347625732
0, 2, 114, 5.89745569229126
0, 2, 115, 6.925942897796631
0, 2, 116, 2.599477052688599
0, 2, 117, 1.405150890350342
0, 2, 118, 1.883654117584229
0, 2, 119, 2.454451322555542
0, 2, 120, 2.988614559173584
0, 2, 121, 3.220664262771606
0, 2, 122, 1.956405401229858
0, 2, 123, 3.213048934936523
0, 2, 124, 2.15516471862793
0, 2, 125, 1.466644763946533
0, 2, 126, 2.686539649963379
0, 2, 127, 0.8450053930282593
0, 3, 0, 1.64324688911438
0, 3, 1, 1.586944222450256
0, 3, 2, 1.200435876846313
0, 3, 3, 1.835359573364258
0, 3, 4, 4.695278167724609
0, 3, 5, 2.444522619247437
0, 3, 6, 3.55421257019043
0, 3, 7, 2.314288377761841
0, 3, 8, 1.566328167915344
0, 3, 9, 2.959393739700317
0, 3, 10, 1.878963351249695
0, 3, 11, 5.29940938949585
0, 3, 12, 3.4891357421875
0, 3, 13, 4.284453868865967
0, 3, 14, 4.223098278045654
0, 3, 15, 6.984337329864502
0, 3, 16, 7.356194496154785
0, 3, 17, 5.661818504333496
0, 3, 18, 32.01163482666016
0, 3, 19, 118.1007385253906
0, 3, 20, 179.7506408691406
0, 3, 21, 172.6848449707031
0, 3, 22, 178.3332366943359
0, 3, 23, 187.90478515625
0, 3, 24, 178.3204803466797
0, 3, 25, 169.1862640380859
0, 3, 26, 181.8353729248047
0, 3, 27, 189.1387786865234
0, 3, 28, 182.2264556884766
0, 3, 29, 197.9497528076172
0, 3, 30, 185.1075744628906
0, 3, 31, 192.9179992675781
0, 3, 32, 207.1132507324219
0, 3, 33, 197.1635131835938
0, 3, 34, 186.8655090332031
0, 3, 35, 173.9485473632812
0, 3, 36, 184.9585113525391
0, 3, 37, 200.5101928710938
0, 3, 38, 192.0860290527344
0, 3, 39, 185.8031158447266
0, 3, 40, 165.7506408691406
0, 3, 41, 174.1784515380859
0, 3, 42, 185.9181823730469
0, 3, 43, 181.6349182128906
0, 3, 44, 202.5503997802734
0, 3, 45, 207.6196899414062
0, 3, 46, 199.3474731445312
0, 3, 47, 194.0583190917969
0, 3, 48, 195.1090698242188
0, 3, 49, 179.8558502197266
0, 3, 50, 186.4491882324219
0, 3, 51, 173.9378967285156
0, 3, 52, 187.4124298095703
0, 3, 53, 176.9902191162109
0, 3, 54, 178.1727142333984
0, 3, 55, 177.4882354736328
0, 3, 56, 181.7135009765625
0, 3, 57, 174.8691253662109
0, 3, 58, 201.9683685302734
0, 3, 59, 196.3291168212891
0, 3, 60, 185.5228576660156
0, 3, 61, 181.6435089111328
0, 3, 62, 183.1347198486328
0, 3, 63, 184.1850280761719
0, 3, 64, 187.1530914306641
0, 3, 65, 187.3088684082031
0, 3, 66, 175.5464172363281
0, 3, 67, 191.3237609863281
0, 3, 68, 211.9126281738281
0, 3, 69, 191.8155059814453
0, 3, 70, 185.3968505859375
0, 3, 71, 197.6304779052734
0, 3, 72, 185.5474243164062
0, 3, 73, 186.4483642578125
0, 3, 74, 192.6742248535156
0, 3, 75, 192.0113067626953
0, 3, 76, 191.0436706542969
0, 3, 77, 199.9418487548828
0, 3, 78, 187.8737945556641
0, 3, 79, 185.9295654296875
0, 3, 80, 190.493408203125
0, 3, 81, 183.1166534423828
0, 3, 82, 178.7932739257812
0, 3, 83, 195.6414794921875
0, 3, 84, 198.8600921630859
0, 3, 85, 192.1395111083984
0, 3, 86, 204.6227874755859
0, 3, 87, 197.1889190673828
0, 3, 88, 190.5647735595703
0, 3, 89, 192.8981475830078
0, 3, 90, 173.7085266113281
0, 3, 91, 161.7551116943359
0, 3, 92, 207.5917205810547
0, 3, 93, 195.7306060791016
0, 3, 94, 192.7439270019531
0, 3, 95, 210.5638885498047
0, 3, 96, 208.1640625
0, 3, 97, 168.0694885253906
0, 3, 98, 167.3984375
0, 3, 99, 180.5184326171875
0, 3, 100, 177.1106872558594
0, 3, 101, 197.4546966552734
0, 3, 102, 194.8738555908203
0, 3, 103, 192.3920288085938
0, 3, 104, 202.5339050292969
0, 3, 105, 176.3936920166016
0, 3, 106, 182.4842529296875
0, 3, 107, 169.6572570800781
0, 3, 108, 108.1113052368164
0, 3, 109, 27.95708084106445
0, 3, 110, 7.170106887817383
0, 3, 111, 6.247225761413574
0, 3, 112, 3.972487449645996
0, 3, 113, 6.82012414932251
0, 3, 114, 4.357791900634766
0, 3, 115, 4.952654361724854
0, 3, 116, 5.711600780487061
0, 3, 117, 4.130869388580322
0, 3, 118, 3.09815502166748
0, 3, 119, 2.675184965133667
0, 3, 120, 4.015096664428711
0, 3, 121, 2.587266445159912
0, 3, 122, 2.289530038833618
0, 3, 123, 2.222878932952881
0, 3, 124, 1.942318558692932
0, 3, 125, 1.173134207725525
0, 3, 126, 3.540585517883301
0, 3, 127, 0.9189616441726685
0, 4, 0, 1.919718980789185
0, 4, 1, 0.2740707397460938
0, 4, 2, 1.986584782600403
0, 4, 3, 3.365262746810913
0, 4, 4, 1.706034779548645
0, 4, 5, 1.608124256134033
0, 4, 6, 2.490791320800781
0, 4, 7, 3.119401693344116
0, 4, 8, 1.572209477424622
0, 4, 9, 2.575784921646118
0, 4, 10, 2.573623418807983
0, 4, 11, 3.039552211761475
0, 4, 12, 5.583101749420166
0, 4, 13, 4.234506130218506
0, 4, 14, 4.310146808624268
0, 4, 15, 7.800477504730225
0, 4, 16, 6.84538459777832
0, 4, 17, 11.54312896728516
0, 4, 18, 55.28110885620117
0, 4, 19, 151.1730041503906
0, 4, 20, 192.9865264892578
0, 4, 21, 169.4462127685547
0, 4, 22, 187.4625396728516
0, 4, 23, 196.9206848144531
0, 4, 24, 192.6576690673828
0, 4, 25, 199.7001647949219
0, 4, 26, 183.0149993896484
0, 4, 27, 191.6625366210938
0, 4, 28, 178.5953826904297
0, 4, 29, 206.3690795898438
0, 4, 30, 195.6602630615234
0, 4, 31, 193.0876312255859
0, 4, 32, 211.2265014648438
0, 4, 33, 189.1238403320312
0, 4, 34, 193.1694030761719
0, 4, 35, 213.3407592773438
0, 4, 36, 194.3377990722656
0, 4, 37, 177.1287689208984
0, 4, 38, 197.4140319824219
0, 4, 39, 189.2964324951172
0, 4, 40, 184.9040832519531
0, 4, 41, 188.5506134033203
0, 4, 42, 205.3666839599609
0, 4, 43, 173.6146392822266
0, 4, 44, 183.4269409179688
0, 4, 45, 197.0975952148438
0, 4, 46, 185.7965698242188
0, 4, 47, 179.1283111572266
0, 4, 48, 186.6963958740234
0, 4, 49, 175.2141265869141
0, 4, 50, 185.8545532226562
0, 4, 51, 197.6071624755859
0, 4, 52, 223.0506744384766
0, 4, 53, 205.7151031494141
0, 4, 54, 189.5641174316406
0, 4, 55, 174.7421875
0, 4, 56, 191.432373046875
0, 4, 57, 192.3451385498047
0, 4, 58, 187.0903472900391
0, 4, 59, 188.9039154052734
0, 4, 60, 196.6910552978516
0, 4, 61, 193.8427124023438
0, 4, 62, 189.5524749755859
0, 4, 63, 178.2479705810547
0, 4, 64, 212.8818511962891
0, 4, 65, 192.1248016357422
0, 4, 66, 201.5783081054688
0, 4, 67, 199.4234008789062
0, 4, 68, 200.7906494140625
0, 4, 69, 199.9766387939453
0, 4, 70, 205.4176177978516
0, 4, 71, 206.3267211914062
0, 4, 72, 215.0359039306641
0, 4, 73, 185.3478393554688
0, 4, 74, 179.8558807373047
0, 4, 75, 186.7249755859375
0, 4, 76, 190.3558959960938
0, 4, 77, 183.7975769042969
0, 4, 78, 196.3387756347656
0, 4, 79, 205.1105499267578
0, 4, 80, 211.7512817382812
0, 4, 81, 198.6479187011719
0, 4, 82, 181.6825103759766
0, 4, 83, 169.2949066162109
0, 4, 84, 193.6337890625
0, 4, 85, 196.5684051513672
0, 4, 86, 181.4673461914062
0, 4, 87, 183.1424407958984
0, 4, 88, 204.2665863037109
0, 4, 89, 187.4197692871094
0, 4, 90, 211.1851959228516
0, 4, 91, 189.9697875976562
0, 4, 92, 196.4445343017578
0, 4, 93, 196.0242614746094
0, 4, 94, 181.6083831787109
0, 4, 95, 175.2099304199219
0, 4, 96, 189.5566711425781
0, 4, 97, 192.3932647705078
0, 4, 98, 201.7275085449219
0, 4, 99, 185.599365234375
0, 4, 100, 183.7117462158203
0, 4, 101, 177.7731628417969
0, 4, 102, 175.1559448242188
0, 4, 103, 185.2603302001953
0, 4, 104, 209.3966064453125
0, 4, 105, 189.6141815185547
0, 4, 106, 178.8657379150391
0, 4, 107, 180.9559173583984
0, 4, 108, 151.7265625
0, 4, 109, 50.3519287109375
0, 4, 110, 12.81225490570068
0, 4, 111, 7.016333103179932
0, 4, 112, 5.861463069915771
0, 4, 113, 4.945788383483887
0, 4, 114, 5.071259498596191
0, 4, 115, 2.408373355865479
0, 4, 116, 5.369841575622559
0, 4, 117, 2.827825307846069
0, 4, 118, 4.953367710113525
0, 4, 119, 4.115344524383545
0, 4, 120, 1.617095351219177
0, 4, 121, 2.031474828720093
0, 4, 122, 2.539596319198608
0, 4, 123, 3.043037414550781
0, 4, 124, 3.212564468383789
0, 4, 125, 2.620715141296387
0, 4, 126, 1.532216191291809
0, 4, 127, 1.53178608417511
0, 5, 0, 1.681056618690491
0, 5, 1, 3.39398193359375
0, 5, 2, 7.528421401977539
0, 5, 3, 3.931834936141968
0, 5, 4, 1.549102187156677
0, 5, 5, 2.490586519241333
0, 5, 6, 2.081542015075684
0, 5, 7, 2.218278169631958
0, 5, 8, 2.431967258453369
0, 5, 9, 2.653642177581787
0, 5, 10, 3.883837938308716
0, 5, 11, 5.376457691192627
0, 5, 12, 3.627758264541626
0, 5, 13, 3.693430423736572
0, 5, 14, 4.732040405273438
0, 5, 15, 8.994571685791016
0, 5, 16, 7.591239452362061
0, 5, 17, 22.37632942199707
0, 5, 18, 82.61144256591797
0, 5, 19, 164.9049682617188
0, 5, 20, 182.7890930175781
0, 5, 21, 177.9386749267578
0, 5, 22, 171.9138031005859
0, 5, 23, 201.9725189208984
0, 5, 24, 186.7651214599609
0, 5, 25, 206.7530364990234
0, 5, 26, 182.4524688720703
0, 5, 27, 193.6743469238281
0, 5, 28, 190.9036254882812
0, 5, 29, 195.4445953369141
0, 5, 30, 178.4869995117188
0, 5, 31, 180.5191650390625
0, 5, 32, 186.2204895019531
0, 5, 33, 169.8724517822266
0, 5, 34, 196.7431030273438
0, 5, 35, 197.4585266113281
0, 5, 36, 168.5338134765625
0, 5, 37, 196.8983306884766
0, 5, 38, 180.2230224609375
0, 5, 39, 186.718017578125
0, 5, 40, 196.9688415527344
0, 5, 41, 178.1236114501953
0, 5, 42, 187.2968902587891
0, 5, 43, 192.9756011962891
0, 5, 44, 200.4578094482422
0, 5, 45, 186.0189819335938
0, 5, 46, 192.7761688232422
0, 5, 47, 180.2239837646484
0, 5, 48, 178.3397979736328
0, 5, 49, 177.8662414550781
0, 5, 50, 185.5115203857422
0, 5, 51, 171.4251708984375
0, 5, 52, 167.5975494384766
0, 5, 53, 181.8334350585938
0, 5, 54, 172.4180603027344
0, 5, 55, 215.9765625
0, 5, 56, 184.55078125
0, 5, 57, 207.6769409179688
0, 5, 58, 181.6707458496094
0, 5, 59, 181.4329986572266
0, 5, 60, 217.7059631347656
0, 5, 61, 184.5782623291016
0, 5, 62, 178.6232299804688
0, 5, 63, 180.5787353515625
0, 5, 64, 196.2295379638672
0, 5, 65, 211.5037384033203
0, 5, 66, 192.3675994873047
0, 5, 67, 199.6929168701172
0, 5, 68, 187.3720550537109
0, 5, 69, 185.8045349121094
0, 5, 70, 184.0453186035156
0, 5, 71, 193.2916107177734
0, 5, 72, 198.4769744873047
0, 5, 73, 201.7588195800781
0, 5, 74, 180.5294494628906
0, 5, 75, 203.5116729736328
0, 5, 76, 215.3164367675781
0, 5, 77, 181.5743103027344
0, 5, 78, 194.9850158691406
0, 5, 79, 190.4711151123047
0, 5, 80, 198.0139923095703
0, 5, 81, 204.6681976318359
0, 5, 82, 201.9623718261719
0, 5, 83, 188.8929138183594
0, 5, 84, 205.0181121826172
0, 5, 85, 178.2909698486328
0, 5, 86, 196.9361419677734
0, 5, 87, 190.9583587646484
0, 5, 88, 176.6194915771484
0, 5, 89, 194.4499359130859
0, 5, 90, 199.4076232910156
0, 5, 91, 195.1360778808594
0, 5, 92, 192.076171875
0, 5, 93, 188.6884002685547
0, 5, 94, 209.2000274658203
0, 5, 95, 177.9839172363281
0, 5, 96, 182.0939178466797
0, 5, 97, 191.5056610107422
0, 5, 98, 189.9149475097656
0, 5, 99, 194.3885040283203
0, 5, 100, 187.2151794433594
0, 5, 101, 195.2545928955078
0, 5, 102, 182.3304595947266
0, 5, 103, 176.3943786621094
0, 5, 104, 190.3848114013672
0, 5, 105, 190.4622039794922
0, 5, 106, 176.7190551757812
0, 5, 107, 181.9903869628906
0, 5, 108, 176.7175140380859
0, 5, 109, 89.71701049804688
0, 5, 110, 30.60613059997559
0, 5, 111, 8.301066398620605
0, 5, 112, 6.558985233306885
0, 5, 113, 7.850046157836914
0, 5, 114, 6.58122730255127
0, 5, 115, 5.169334411621094
0, 5, 116, 3.442123651504517
0, 5, 117, 2.199315309524536
0, 5, 118, 3.436476707458496
0, 5, 119, 3.683122158050537
0, 5, 120, 1.617556810379028
0, 5, 121, 1.156994223594666
0, 5, 122, 3.211812496185303
0, 5, 123, 5.16235876083374
0, 5, 124, 3.729969501495361
0, 5, 125, 1.26407265663147
0, 5, 126, 2.330753803253174
0, 5, 127, 1.901642084121704
0, 6, 0, 3.518979549407959
0, 6, 1, 3.686510562896729
0, 6, 2, 2.551135301589966
0, 6, 3, 1.758567690849304
0, 6, 4, 2.907826662063599
0, 6, 5, 3.981888294219971
0, 6, 6, 3.183546781539917
0, 6, 7, 3.548691749572754
0, 6, 8, 3.701386451721191
0, 6, 9, 2.514094114303589
0, 6, 10, 4.403763771057129
0, 6, 11, 4.670785903930664
0, 6, 12, 4.717825412750244
0, 6, 13, 5.863523960113525
0, 6, 14, 4.954381465911865
0, 6, 15, 6.559492588043213
0, 6, 16, 14.63631153106689
0, 6, 17, 28.85741424560547
0, 6, 18, 112.2419052124023
0, 6, 19, 193.0598297119141
0, 6, 20, 197.6790924072266
0, 6, 21, 197.8343353271484
0, 6, 22, 190.1414184570312
0, 6, 23, 190.7391662597656
0, 6, 24, 200.5906982421875
0, 6, 25, 183.8034210205078
0, 6, 26, 186.8550872802734
0, 6, 27, 191.7463836669922
0, 6, 28, 189.5806732177734
0, 6, 29, 210.3538055419922
0, 6, 30, 189.9472503662109
0, 6, 31, 192.5322418212891
0, 6, 32, 205.8705444335938
0, 6, 33, 184.4654388427734
0, 6, 34, 196.8922882080078
0, 6, 35, 187.5854644775391
0, 6, 36, 180.0983276367188
0, 6, 37, 183.0761108398438
0, 6, 38, 185.9624633789062
0, 6, 39, 195.3519134521484
0, 6, 40, 173.6097564697266
0, 6, 41, 185.1501922607422
0, 6, 42, 173.6482391357422
0, 6, 43, 209.3339080810547
0, 6, 44, 209.2377319335938
0, 6, 45, 193.0439147949219
0, 6, 46, 188.0262145996094
0, 6, 47, 205.3798065185547
0, 6, 48, 189.4500274658203
0, 6, 49, 178.9813385009766
0, 6, 50, 181.4364318847656
0, 6, 51, 197.3866271972656
0, 6, 52, 198.5445861816406
0, 6, 53, 184.8992614746094
0, 6, 54, 175.8822937011719
0, 6, 55, 194.3841247558594
0, 6, 56, 202.5430908203125
0, 6, 57, 191.1409759521484
0, 6, 58, 179.2225341796875
0, 6, 59, 192.423828125
0, 6, 60, 184.8727264404297
0, 6, 61, 193.8780364990234
0, 6, 62, 197.8272094726562
0, 6, 63, 186.4290924072266
0, 6, 64, 167.4778900146484
0, 6, 65, 186.2505798339844
0, 6, 66, 198.3517608642578
0, 6, 67, 214.5191802978516
0, 6, 68, 179.7126159667969
0, 6, 69, 170.8239898681641
0, 6, 70, 188.3192901611328
0, 6, 71, 170.326904296875
0, 6, 72, 176.2900390625
0, 6, 73, 176.7961273193359
0, 6, 74, 211.7093200683594
0, 6, 75, 227.5779876708984
0, 6, 76, 183.83544921875
0, 6, 77, 172.1443786621094
0, 6, 78, 175.2648315429688
0, 6, 79, 188.4525146484375
0, 6, 80, 187.3778381347656
0, 6, 81, 208.3108673095703
0, 6, 82, 197.9461059570312
0, 6, 83, 195.9522705078125
0, 6, 84, 197.6596832275391
0, 6, 85, 180.3241424560547
0, 6, 86, 203.7394714355469
0, 6, 87, 184.3458862304688
0, 6, 88, 193.0205230712891
0, 6, 89, 188.0107727050781
0, 6, 90, 205.1725769042969
0, 6, 91, 199.8267364501953
0, 6, 92, 172.6074829101562
0, 6, 93, 192.0564727783203
0, 6, 94, 191.5704803466797
0, 6, 95, 185.1208038330078
0, 6, 96, 190.0248718261719
0, 6, 97, 194.0112609863281
0, 6, 98, 183.1037902832031
0, 6, 99, 175.1614074707031
0, 6, 100, 202.902587890625
0, 6, 101, 168.2550354003906
0, 6, 102, 202.3718109130859
0, 6, 103, 195.899658203125
0, 6, 104, 184.3812408447266
0, 6, 105, 193.3250427246094
0, 6, 106, 177.1837310791016
0, 6, 107, 194.6280670166016
0, 6, 108, 171.1617889404297
0, 6, 109, 115.6018447875977
0, 6, 110, 33.33398818969727
0, 6, 111, 9.801063537597656
0, 6, 112, 8.924678802490234
0, 6, 113, 4.922948360443115
0, 6, 114, 5.627842903137207
0, 6, 115, 5.157751560211182
0, 6, 116, 3.904868602752686
0, 6, 117, 4.776246070861816
0, 6, 118, 3.640837669372559
0, 6, 119, 4.810892581939697
0, 6, 120, 4.243215084075928
0, 6, 121, 4.267049312591553
0, 6, 122, 1.908669829368591
0, 6, 123, 3.494550704956055
0, 6, 124, 1.704147577285767
0, 6, 125, 3.583391904830933
0, 6, 126, 1.773768901824951
0, 6, 127, 2.468570709228516
0, 7, 0, 3.009678840637207
0, 7, 1, 2.056412696838379
0, 7, 2, 2.911645412445068
0, 7, 3, 3.211496591567993
0, 7, 4, 0.8840237259864807
0, 7, 5, 1.11888325214386
0, 7, 6, 1.826164722442627
0, 7, 7, 1.690160512924194
0, 7, 8, 2.424099445343018
0, 7, 9, 3.97018575668335
0, 7, 10, 5.237314701080322
0, 7, 11, 3.264323949813843
0, 7, 12, 3.931338787078857
0, 7, 13, 8.310030937194824
0, 7, 14, 6.78550910949707
0, 7, 15, 7.594284534454346
0, 7, 16, 15.04331207275391
0, 7, 17, 52.43160629272461
0, 7, 18, 162.0382690429688
0, 7, 19, 182.1456756591797
0, 7, 20, 180.8151702880859
0, 7, 21, 179.6843109130859
0, 7, 22, 190.7039031982422
0, 7, 23, 202.465576171875
0, 7, 24, 180.1228942871094
0, 7, 25, 212.3469696044922
0, 7, 26, 189.2104644775391
0, 7, 27, 182.0504608154297
0, 7, 28, 181.9585876464844
0, 7, 29, 211.9945678710938
0, 7, 30, 192.9603881835938
0, 7, 31, 175.8738098144531
0, 7, 32, 190.210205078125
0, 7, 33, 180.8155822753906
0, 7, 34, 192.8475189208984
0, 7, 35, 196.9108734130859
0, 7, 36, 187.6632690429688
0, 7, 37, 213.5592346191406
0, 7, 38, 191.8979949951172
0, 7, 39, 173.1757507324219
0, 7, 40, 182.9570617675781
0, 7, 41, 184.7504272460938
0, 7, 42, 177.4701843261719
0, 7, 43, 179.1799163818359
0, 7, 44, 178.9789886474609
0, 7, 45, 173.9450073242188
0, 7, 46, 189.868896484375
0, 7, 47, 198.6348876953125
0, 7, 48, 189.3496704101562
0, 7, 49, 202.1167602539062
0, 7, 50, 187.7159118652344
0, 7, 51, 205.1389617919922
0, 7, 52, 203.7366943359375
0, 7, 53, 191.9235534667969
0, 7, 54, 196.6549072265625
0, 7, 55, 203.7163696289062
0, 7, 56, 183.1697845458984
0, 7, 57, 182.5795593261719
0, 7, 58, 190.5812530517578
0, 7, 59, 187.5054321289062
0, 7, 60, 202.6722259521484
0, 7, 61, 170.9416961669922
0, 7, 62, 203.1438140869141
0, 7, 63, 188.7161865234375
0, 7, 64, 200.5959625244141
0, 7, 65, 194.8081207275391
0, 7, 66, 205.5817108154297
0, 7, 67, 219.4362640380859
0, 7, 68, 162.2592163085938
0, 7, 69, 195.7210083007812
0, 7, 70, 219.6862030029297
0, 7, 71, 183.5573883056641
0, 7, 72, 180.4690856933594
0, 7, 73, 177.7448120117188
0, 7, 74, 208.6008758544922
0, 7, 75, 205.7013397216797
0, 7, 76, 214.2308654785156
0, 7, 77, 172.4122924804688
0, 7, 78, 177.5848236083984
0, 7, 79, 192.9023742675781
0, 7, 80, 196.4127502441406
0, 7, 81, 215.828369140625
0, 7, 82, 186.1927337646484
0, 7, 83, 205.7167053222656
0, 7, 84, 191.5002899169922
0, 7, 85, 185.6043090820312
0, 7, 86, 200.2409362792969
0, 7, 87, 227.5833435058594
0, 7, 88, 194.3981170654297
0, 7, 89, 177.2789764404297
0, 7, 90, 184.5391235351562
0, 7, 91, 194.3187255859375
0, 7, 92, 193.6119232177734
0, 7, 93, 198.3939514160156
0, 7, 94, 177.6355895996094
0, 7, 95, 198.8393402099609
0, 7, 96, 208.8518218994141
0, 7, 97, 188.8388519287109
0, 7, 98, 175.9895629882812
0, 7, 99, 196.3243255615234
0, 7, 100, 181.8199462890625
0, 7, 101, 199.5323333740234
0, 7, 102, 185.1605529785156
0, 7, 103, 182.3017425537109
0, 7, 104, 174.2839813232422
0, 7, 105, 197.1248626708984
0, 7, 106, 206.3563995361328
0, 7, 107, 174.0319366455078
0, 7, 108, 176.9402923583984
0, 7, 109, 137.9591217041016
0, 7, 110, 54.5948600769043
0, 7, 111, 9.066771507263184
0, 7, 112, 7.908834934234619
0, 7, 113, 11.75028324127197
0, 7, 114, 7.626632690429688
0, 7, 115, 4.939931392669678
0, 7, 116, 4.244180202484131
0, 7, 117, 3.63682222366333
0, 7, 118, 3.556226253509521
0, 7, 119, 2.189485549926758
0, 7, 120, 1.864087462425232
0, 7, 121, 2.658384561538696
0, 7, 122, 4.312302112579346
0, 7, 123, 2.282567024230957
0, 7, 124, 1.573485493659973
0, 7, 125, 1.250286936759949
0, 7, 126, 3.892870426177979
0, 7, 127, 2.489563465118408
0, 8, 0, 5.389254570007324
0, 8, 1, 2.059212684631348
0, 8, 2, 2.947529554367065
0, 8, 3, 1.771540760993958
0, 8, 4, 1.214587569236755
0, 8, 5, 3.098697900772095
0, 8, 6, 2.914942741394043
0, 8, 7, 2.622348546981812
0, 8, 8, 4.906636238098145
0, 8, 9, 5.633058547973633
0, 8, 10, 3.045787811279297
0, 8, 11, 2.390020132064819
0, 8, 12, 3.579444646835327
0, 8, 13, 5.766405582427979
0, 8, 14, 6.496724605560303
0, 8, 15, 8.58574390411377
0, 8, 16, 19.16263389587402
0, 8, 17, 74.14846801757812
0, 8, 18, 142.0213317871094
0, 8, 19, 179.0589294433594
0, 8, 20, 193.0311279296875
0, 8, 21, 195.1738739013672
0, 8, 22, 180.5694885253906
0, 8, 23, 173.3054962158203
0, 8, 24, 192.5948181152344
0, 8, 25, 184.5780639648438
0, 8, 26, 192.8560638427734
0, 8, 27, 187.0219268798828
0, 8, 28, 187.5140075683594
0, 8, 29, 207.5183258056641
0, 8, 30, 197.3020172119141
0, 8, 31, 182.7977142333984
0, 8, 32, 197.7248382568359
0, 8, 33, 206.6326293945312
0, 8, 34, 202.8248291015625
0, 8, 35, 185.2515106201172
0, 8, 36, 182.3443603515625
0, 8, 37, 198.9457855224609
