# TOPAS Version: 3.1.p3
# Parameter File: batch_inserts_102.txt
# Results for scorer Readout_Adipose
# Scored in component: MyBox
# X in 1 bin  of 0.65 cm
# Y in 512 bins of 0.0783984 cm
# Z in 128 bins of 0.078125 cm
# EnergyDeposit ( MeV ) : Sum   
0, 0, 0, 1.254685640335083
0, 0, 1, 5.506507396697998
0, 0, 2, 1.598638296127319
0, 0, 3, 1.341260433197021
0, 0, 4, 1.172187209129333
0, 0, 5, 0.7257553935050964
0, 0, 6, 1.012952089309692
0, 0, 7, 2.344230175018311
0, 0, 8, 2.16167140007019
0, 0, 9, 1.880794644355774
0, 0, 10, 3.891941070556641
0, 0, 11, 3.349787712097168
0, 0, 12, 3.113580465316772
0, 0, 13, 3.151403903961182
0, 0, 14, 5.448056221008301
0, 0, 15, 5.49479866027832
0, 0, 16, 3.462007522583008
0, 0, 17, 5.985254764556885
0, 0, 18, 7.864105224609375
0, 0, 19, 22.90170097351074
0, 0, 20, 94.35695648193359
0, 0, 21, 152.5870056152344
0, 0, 22, 154.9710845947266
0, 0, 23, 143.7523803710938
0, 0, 24, 159.2576904296875
0, 0, 25, 166.1018981933594
0, 0, 26, 165.9214630126953
0, 0, 27, 174.4396362304688
0, 0, 28, 178.5700225830078
0, 0, 29, 174.8104858398438
0, 0, 30, 172.3995971679688
0, 0, 31, 167.2750396728516
0, 0, 32, 164.1928863525391
0, 0, 33, 165.9557342529297
0, 0, 34, 177.5230255126953
0, 0, 35, 174.1164245605469
0, 0, 36, 158.8700866699219
0, 0, 37, 160.7711486816406
0, 0, 38, 165.7300720214844
0, 0, 39, 159.3445587158203
0, 0, 40, 164.9142761230469
0, 0, 41, 165.6958618164062
0, 0, 42, 142.9257049560547
0, 0, 43, 169.7365264892578
0, 0, 44, 177.4312591552734
0, 0, 45, 172.4008483886719
0, 0, 46, 165.4772338867188
0, 0, 47, 167.4028167724609
0, 0, 48, 169.0464477539062
0, 0, 49, 182.5659637451172
0, 0, 50, 170.3177947998047
0, 0, 51, 162.7010040283203
0, 0, 52, 162.1025848388672
0, 0, 53, 172.2929077148438
0, 0, 54, 159.5803985595703
0, 0, 55, 165.6605072021484
0, 0, 56, 188.9142608642578
0, 0, 57, 170.6565093994141
0, 0, 58, 162.5326690673828
0, 0, 59, 172.3854827880859
0, 0, 60, 167.6890106201172
0, 0, 61, 169.561279296875
0, 0, 62, 182.7766571044922
0, 0, 63, 167.4031677246094
0, 0, 64, 163.9786529541016
0, 0, 65, 174.3665618896484
0, 0, 66, 178.3377532958984
0, 0, 67, 165.7864074707031
0, 0, 68, 158.8750305175781
0, 0, 69, 158.3240356445312
0, 0, 70, 170.11181640625
0, 0, 71, 158.6830902099609
0, 0, 72, 164.3319702148438
0, 0, 73, 171.9471130371094
0, 0, 74, 163.4703369140625
0, 0, 75, 163.4019470214844
0, 0, 76, 162.9544525146484
0, 0, 77, 171.5488128662109
0, 0, 78, 181.601806640625
0, 0, 79, 174.3249053955078
0, 0, 80, 159.7874603271484
0, 0, 81, 159.5793151855469
0, 0, 82, 182.8984222412109
0, 0, 83, 173.8660125732422
0, 0, 84, 159.4169311523438
0, 0, 85, 181.7243499755859
0, 0, 86, 158.3365020751953
0, 0, 87, 177.0217895507812
0, 0, 88, 177.5093688964844
0, 0, 89, 174.5466918945312
0, 0, 90, 161.9935607910156
0, 0, 91, 185.8668518066406
0, 0, 92, 163.6715087890625
0, 0, 93, 154.9310302734375
0, 0, 94, 168.3543395996094
0, 0, 95, 173.4068756103516
0, 0, 96, 184.0645751953125
0, 0, 97, 183.0751342773438
0, 0, 98, 185.7167358398438
0, 0, 99, 171.7546691894531
0, 0, 100, 158.2897644042969
0, 0, 101, 166.7613525390625
0, 0, 102, 171.3068695068359
0, 0, 103, 170.8416748046875
0, 0, 104, 169.1116790771484
0, 0, 105, 178.1253356933594
0, 0, 106, 159.0104522705078
0, 0, 107, 85.67216491699219
0, 0, 108, 20.59486770629883
0, 0, 109, 10.58133602142334
0, 0, 110, 5.242276191711426
0, 0, 111, 7.479494571685791
0, 0, 112, 2.795929670333862
0, 0, 113, 3.133655786514282
0, 0, 114, 2.252028226852417
0, 0, 115, 2.845163345336914
0, 0, 116, 3.287338733673096
0, 0, 117, 2.602543830871582
0, 0, 118, 3.388461828231812
0, 0, 119, 2.737845182418823
0, 0, 120, 1.928788065910339
0, 0, 121, 4.049813747406006
0, 0, 122, 4.556073188781738
0, 0, 123, 5.071288108825684
0, 0, 124, 1.552308917045593
0, 0, 125, 4.421360492706299
0, 0, 126, 2.625114440917969
0, 0, 127, 1.672958135604858
0, 1, 0, 0.846498966217041
0, 1, 1, 2.969289779663086
0, 1, 2, 2.400731801986694
0, 1, 3, 1.139700531959534
0, 1, 4, 2.006878137588501
0, 1, 5, 2.674941301345825
0, 1, 6, 1.523624181747437
0, 1, 7, 2.507512331008911
0, 1, 8, 1.839422702789307
0, 1, 9, 3.173352479934692
0, 1, 10, 1.875393986701965
0, 1, 11, 3.584723711013794
0, 1, 12, 2.980691432952881
0, 1, 13, 3.654386281967163
0, 1, 14, 4.91851282119751
0, 1, 15, 6.58006477355957
0, 1, 16, 8.43171501159668
0, 1, 17, 5.036705017089844
0, 1, 18, 10.39357471466064
0, 1, 19, 38.29534530639648
0, 1, 20, 125.9289093017578
0, 1, 21, 178.1376190185547
0, 1, 22, 194.0990142822266
0, 1, 23, 187.6495208740234
0, 1, 24, 179.5146484375
0, 1, 25, 191.98046875
0, 1, 26, 197.7878112792969
0, 1, 27, 186.1807403564453
0, 1, 28, 189.3421630859375
0, 1, 29, 184.2010192871094
0, 1, 30, 179.3628082275391
0, 1, 31, 181.2617797851562
0, 1, 32, 188.4365844726562
0, 1, 33, 190.7884674072266
0, 1, 34, 183.7553100585938
0, 1, 35, 194.4164123535156
0, 1, 36, 205.3009033203125
0, 1, 37, 184.9862060546875
0, 1, 38, 165.4991455078125
0, 1, 39, 171.6957092285156
0, 1, 40, 179.2929992675781
0, 1, 41, 184.8184356689453
0, 1, 42, 183.0597076416016
0, 1, 43, 186.1051483154297
0, 1, 44, 167.0612182617188
0, 1, 45, 186.8651275634766
0, 1, 46, 171.4723358154297
0, 1, 47, 185.7089538574219
0, 1, 48, 186.0415496826172
0, 1, 49, 187.5558624267578
0, 1, 50, 176.5843658447266
0, 1, 51, 190.5048065185547
0, 1, 52, 194.9840698242188
0, 1, 53, 196.6583251953125
0, 1, 54, 185.3130493164062
0, 1, 55, 165.9115600585938
0, 1, 56, 178.3183441162109
0, 1, 57, 177.7990875244141
0, 1, 58, 188.4707336425781
0, 1, 59, 193.5522003173828
0, 1, 60, 188.9172973632812
0, 1, 61, 177.4115142822266
0, 1, 62, 205.2143707275391
0, 1, 63, 174.2825775146484
0, 1, 64, 173.6015167236328
0, 1, 65, 186.1411590576172
0, 1, 66, 205.3483734130859
0, 1, 67, 184.0438537597656
0, 1, 68, 187.0099792480469
0, 1, 69, 189.2257843017578
0, 1, 70, 185.1489410400391
0, 1, 71, 172.2560729980469
0, 1, 72, 189.4759521484375
0, 1, 73, 190.2818298339844
0, 1, 74, 201.0847320556641
0, 1, 75, 184.3578033447266
0, 1, 76, 174.585205078125
0, 1, 77, 191.2488403320312
0, 1, 78, 187.0630645751953
0, 1, 79, 201.8529052734375
0, 1, 80, 185.1851043701172
0, 1, 81, 174.2760467529297
0, 1, 82, 209.3625183105469
0, 1, 83, 211.9833374023438
0, 1, 84, 180.1968383789062
0, 1, 85, 170.8458404541016
0, 1, 86, 167.9767456054688
0, 1, 87, 185.0500640869141
0, 1, 88, 175.2772521972656
0, 1, 89, 186.9491119384766
0, 1, 90, 213.7445678710938
0, 1, 91, 181.3477783203125
0, 1, 92, 183.6541290283203
0, 1, 93, 180.8870086669922
0, 1, 94, 184.5166015625
0, 1, 95, 183.6788787841797
0, 1, 96, 196.9982147216797
0, 1, 97, 183.3285369873047
0, 1, 98, 186.8220367431641
0, 1, 99, 174.8447113037109
0, 1, 100, 170.7642211914062
0, 1, 101, 177.9204864501953
0, 1, 102, 181.9771728515625
0, 1, 103, 172.7363128662109
0, 1, 104, 190.3114166259766
0, 1, 105, 182.1559906005859
0, 1, 106, 164.2855072021484
0, 1, 107, 122.5201644897461
0, 1, 108, 47.11783218383789
0, 1, 109, 9.109096527099609
0, 1, 110, 7.056670188903809
0, 1, 111, 5.560429573059082
0, 1, 112, 7.763252735137939
0, 1, 113, 6.842752933502197
0, 1, 114, 7.580615520477295
0, 1, 115, 3.710091590881348
0, 1, 116, 2.950007200241089
0, 1, 117, 2.364986181259155
0, 1, 118, 3.65587329864502
0, 1, 119, 1.659198760986328
0, 1, 120, 3.667591333389282
0, 1, 121, 3.327698707580566
0, 1, 122, 2.997500658035278
0, 1, 123, 2.986599445343018
0, 1, 124, 1.134049296379089
0, 1, 125, 1.86404025554657
0, 1, 126, 1.961484551429749
0, 1, 127, 3.348439931869507
0, 2, 0, 0.7952280640602112
0, 2, 1, 2.571191787719727
0, 2, 2, 3.780348777770996
0, 2, 3, 1.614482402801514
0, 2, 4, 1.067440509796143
0, 2, 5, 0.9199041724205017
0, 2, 6, 2.330360651016235
0, 2, 7, 1.852867484092712
0, 2, 8, 2.40873646736145
0, 2, 9, 3.501120090484619
0, 2, 10, 6.215449333190918
0, 2, 11, 3.539921045303345
0, 2, 12, 3.240575313568115
0, 2, 13, 4.369523525238037
0, 2, 14, 4.757639408111572
0, 2, 15, 6.357421398162842
0, 2, 16, 4.055489063262939
0, 2, 17, 8.972685813903809
0, 2, 18, 14.41434192657471
0, 2, 19, 77.15901184082031
0, 2, 20, 161.8992919921875
0, 2, 21, 183.6345520019531
0, 2, 22, 194.0166625976562
0, 2, 23, 184.7303619384766
0, 2, 24, 173.2391510009766
0, 2, 25, 184.4450836181641
0, 2, 26, 180.465576171875
0, 2, 27, 188.3330688476562
0, 2, 28, 170.6216583251953
0, 2, 29, 169.4888763427734
0, 2, 30, 184.2951202392578
0, 2, 31, 182.3857574462891
0, 2, 32, 183.3457336425781
0, 2, 33, 191.9626312255859
0, 2, 34, 198.430908203125
0, 2, 35, 181.7237854003906
0, 2, 36, 186.2432403564453
0, 2, 37, 180.9835968017578
0, 2, 38, 185.7517242431641
0, 2, 39, 168.0672454833984
0, 2, 40, 183.9592895507812
0, 2, 41, 185.2054443359375
0, 2, 42, 189.2570953369141
0, 2, 43, 194.5289611816406
0, 2, 44, 190.5121612548828
0, 2, 45, 189.0559997558594
0, 2, 46, 196.04150390625
0, 2, 47, 189.57080078125
0, 2, 48, 179.2021179199219
0, 2, 49, 197.8941955566406
0, 2, 50, 167.9754791259766
0, 2, 51, 184.8551788330078
0, 2, 52, 186.0065765380859
0, 2, 53, 195.7049102783203
0, 2, 54, 176.1648712158203
0, 2, 55, 173.4106903076172
0, 2, 56, 181.4742889404297
0, 2, 57, 199.6748352050781
0, 2, 58, 187.016357421875
0, 2, 59, 189.1616668701172
0, 2, 60, 197.4192199707031
0, 2, 61, 192.9598999023438
0, 2, 62, 189.4737701416016
0, 2, 63, 170.4029541015625
0, 2, 64, 191.8865814208984
0, 2, 65, 203.23095703125
0, 2, 66, 196.1779174804688
0, 2, 67, 184.3945770263672
0, 2, 68, 182.4358673095703
0, 2, 69, 188.1173248291016
0, 2, 70, 202.5444946289062
0, 2, 71, 175.4357757568359
0, 2, 72, 186.1005859375
0, 2, 73, 177.1255187988281
0, 2, 74, 180.5811614990234
0, 2, 75, 196.0915374755859
0, 2, 76, 184.2376708984375
0, 2, 77, 178.0652465820312
0, 2, 78, 199.1610412597656
0, 2, 79, 177.3502349853516
0, 2, 80, 184.8597564697266
0, 2, 81, 188.2795715332031
0, 2, 82, 205.1090545654297
0, 2, 83, 204.0451049804688
0, 2, 84, 188.2120971679688
0, 2, 85, 171.7890930175781
0, 2, 86, 194.8950042724609
0, 2, 87, 171.0442962646484
0, 2, 88, 176.8858795166016
0, 2, 89, 184.5626220703125
0, 2, 90, 177.8875427246094
0, 2, 91, 174.1249694824219
0, 2, 92, 198.7494354248047
0, 2, 93, 193.3855895996094
0, 2, 94, 201.1818542480469
0, 2, 95, 193.6293334960938
0, 2, 96, 186.2688598632812
0, 2, 97, 171.7903747558594
0, 2, 98, 174.5703430175781
0, 2, 99, 162.4195861816406
0, 2, 100, 187.2408752441406
0, 2, 101, 196.7929077148438
0, 2, 102, 176.2787322998047
0, 2, 103, 198.9185180664062
0, 2, 104, 187.0221710205078
0, 2, 105, 199.5101928710938
0, 2, 106, 194.1513824462891
0, 2, 107, 150.3508605957031
0, 2, 108, 78.69090270996094
0, 2, 109, 17.57395935058594
0, 2, 110, 7.199985980987549
0, 2, 111, 5.80574369430542
0, 2, 112, 5.337877750396729
0, 2, 113, 4.786588668823242
0, 2, 114, 6.206935882568359
0, 2, 115, 3.234614610671997
0, 2, 116, 2.371273517608643
0, 2, 117, 1.640065431594849
0, 2, 118, 2.546963214874268
0, 2, 119, 3.14415717124939
0, 2, 120, 1.37489926815033
0, 2, 121, 2.920518636703491
0, 2, 122, 1.146478056907654
0, 2, 123, 1.753698348999023
0, 2, 124, 1.576658368110657
0, 2, 125, 2.144347429275513
0, 2, 126, 3.017691612243652
0, 2, 127, 1.394436240196228
0, 3, 0, 1.573546767234802
0, 3, 1, 1.460927367210388
0, 3, 2, 1.312058329582214
0, 3, 3, 1.085296988487244
0, 3, 4, 4.322656154632568
0, 3, 5, 1.467351794242859
0, 3, 6, 1.456028699874878
0, 3, 7, 1.273893594741821
0, 3, 8, 2.476320743560791
0, 3, 9, 3.720539093017578
0, 3, 10, 3.257585763931274
0, 3, 11, 4.422522068023682
0, 3, 12, 3.278481006622314
0, 3, 13, 4.067910194396973
0, 3, 14, 4.238681793212891
0, 3, 15, 7.309182167053223
0, 3, 16, 7.163517475128174
0, 3, 17, 6.736047744750977
0, 3, 18, 32.73714065551758
0, 3, 19, 113.8010025024414
0, 3, 20, 179.5328674316406
0, 3, 21, 173.8787689208984
0, 3, 22, 177.87060546875
0, 3, 23, 187.8816833496094
0, 3, 24, 177.5113220214844
0, 3, 25, 168.4199523925781
0, 3, 26, 181.4397583007812
0, 3, 27, 191.8342132568359
0, 3, 28, 183.3365020751953
0, 3, 29, 197.5142364501953
0, 3, 30, 185.4127807617188
0, 3, 31, 193.2549438476562
0, 3, 32, 207.1731414794922
0, 3, 33, 195.5496520996094
0, 3, 34, 188.3907775878906
0, 3, 35, 175.7417755126953
0, 3, 36, 185.2601318359375
0, 3, 37, 200.7557678222656
0, 3, 38, 193.8500366210938
0, 3, 39, 185.2730560302734
0, 3, 40, 167.0610504150391
0, 3, 41, 174.7673645019531
0, 3, 42, 185.0182342529297
0, 3, 43, 181.7074279785156
0, 3, 44, 202.7604064941406
0, 3, 45, 208.5234985351562
0, 3, 46, 198.6447143554688
0, 3, 47, 194.3503875732422
0, 3, 48, 194.9798583984375
0, 3, 49, 180.6134490966797
0, 3, 50, 186.4086761474609
0, 3, 51, 174.0464477539062
0, 3, 52, 188.1370544433594
0, 3, 53, 177.3175964355469
0, 3, 54, 178.6938934326172
0, 3, 55, 176.5787963867188
0, 3, 56, 183.368408203125
0, 3, 57, 175.5122528076172
0, 3, 58, 201.9244537353516
0, 3, 59, 195.6431732177734
0, 3, 60, 186.5112762451172
0, 3, 61, 181.5484008789062
0, 3, 62, 183.5244750976562
0, 3, 63, 184.4850006103516
0, 3, 64, 188.9071502685547
0, 3, 65, 186.7754821777344
0, 3, 66, 175.2621765136719
0, 3, 67, 189.8356781005859
0, 3, 68, 211.8660583496094
0, 3, 69, 190.5805358886719
0, 3, 70, 185.4012603759766
0, 3, 71, 198.0821228027344
0, 3, 72, 186.8877868652344
0, 3, 73, 186.3457183837891
0, 3, 74, 192.1487274169922
0, 3, 75, 193.1526794433594
0, 3, 76, 191.4566955566406
0, 3, 77, 200.6120758056641
0, 3, 78, 188.3624267578125
0, 3, 79, 185.4413909912109
0, 3, 80, 192.3779296875
0, 3, 81, 182.5606994628906
0, 3, 82, 179.0966644287109
0, 3, 83, 194.9368438720703
0, 3, 84, 199.0040588378906
0, 3, 85, 191.4927520751953
0, 3, 86, 203.8103790283203
0, 3, 87, 198.2673492431641
0, 3, 88, 192.0405731201172
0, 3, 89, 192.5747375488281
0, 3, 90, 173.5873718261719
0, 3, 91, 158.6091918945312
0, 3, 92, 207.8583374023438
0, 3, 93, 196.3448944091797
0, 3, 94, 193.2694854736328
0, 3, 95, 211.6003570556641
0, 3, 96, 208.4941253662109
0, 3, 97, 166.9525299072266
0, 3, 98, 167.6491241455078
0, 3, 99, 179.4444732666016
0, 3, 100, 176.0229949951172
0, 3, 101, 198.7377777099609
0, 3, 102, 194.9187774658203
0, 3, 103, 193.4399261474609
0, 3, 104, 201.9484405517578
0, 3, 105, 176.5308990478516
0, 3, 106, 182.0026245117188
0, 3, 107, 169.3230743408203
0, 3, 108, 108.3962249755859
0, 3, 109, 27.92341995239258
0, 3, 110, 7.770771980285645
0, 3, 111, 6.523048400878906
0, 3, 112, 5.034302711486816
0, 3, 113, 8.165021896362305
0, 3, 114, 6.1424880027771
0, 3, 115, 5.099374294281006
0, 3, 116, 6.27601957321167
0, 3, 117, 3.011065006256104
0, 3, 118, 3.134757995605469
0, 3, 119, 2.754070043563843
0, 3, 120, 2.948185920715332
0, 3, 121, 3.101517677307129
0, 3, 122, 4.784442901611328
0, 3, 123, 2.080219507217407
0, 3, 124, 1.835999488830566
0, 3, 125, 0.8792953491210938
0, 3, 126, 1.200533628463745
0, 3, 127, 2.981453895568848
0, 4, 0, 0.8893592357635498
0, 4, 1, 2.762856245040894
0, 4, 2, 2.681408405303955
0, 4, 3, 4.032342910766602
0, 4, 4, 2.444918155670166
0, 4, 5, 0.819665253162384
0, 4, 6, 3.125432252883911
0, 4, 7, 2.172962427139282
0, 4, 8, 1.608353495597839
0, 4, 9, 1.614055633544922
0, 4, 10, 3.90268349647522
0, 4, 11, 3.954636812210083
0, 4, 12, 5.682622909545898
0, 4, 13, 3.872954845428467
0, 4, 14, 5.306684494018555
0, 4, 15, 8.242716789245605
0, 4, 16, 7.426851749420166
0, 4, 17, 11.34105682373047
0, 4, 18, 55.76862716674805
0, 4, 19, 152.495849609375
0, 4, 20, 193.8505554199219
0, 4, 21, 172.4381561279297
0, 4, 22, 188.1011047363281
0, 4, 23, 196.4687042236328
0, 4, 24, 192.3644409179688
0, 4, 25, 202.3651733398438
0, 4, 26, 184.0723724365234
0, 4, 27, 191.2285614013672
0, 4, 28, 178.822265625
0, 4, 29, 206.2947540283203
0, 4, 30, 195.1376037597656
0, 4, 31, 192.7892456054688
0, 4, 32, 212.3417663574219
0, 4, 33, 189.2412109375
0, 4, 34, 192.4875335693359
0, 4, 35, 212.7946624755859
0, 4, 36, 192.8587341308594
0, 4, 37, 177.0079040527344
0, 4, 38, 196.4462280273438
0, 4, 39, 188.5597991943359
0, 4, 40, 185.0967559814453
0, 4, 41, 188.6714477539062
0, 4, 42, 206.7506408691406
0, 4, 43, 175.1161651611328
0, 4, 44, 183.6077270507812
0, 4, 45, 196.75
0, 4, 46, 186.2407531738281
0, 4, 47, 179.2352752685547
0, 4, 48, 185.5036926269531
0, 4, 49, 175.3316650390625
0, 4, 50, 185.1887054443359
0, 4, 51, 198.5603332519531
0, 4, 52, 223.0494079589844
0, 4, 53, 205.2450103759766
0, 4, 54, 190.0605163574219
0, 4, 55, 174.6853637695312
0, 4, 56, 191.5659790039062
0, 4, 57, 191.7068634033203
0, 4, 58, 188.4413452148438
0, 4, 59, 192.1171722412109
0, 4, 60, 195.9580230712891
0, 4, 61, 193.7177124023438
0, 4, 62, 190.2802276611328
0, 4, 63, 178.8642272949219
0, 4, 64, 211.9078979492188
0, 4, 65, 191.1011352539062
0, 4, 66, 201.3919677734375
0, 4, 67, 199.7955627441406
0, 4, 68, 205.2254943847656
0, 4, 69, 199.2322235107422
0, 4, 70, 205.1536712646484
0, 4, 71, 206.4069671630859
0, 4, 72, 214.4266967773438
0, 4, 73, 186.9076538085938
0, 4, 74, 181.6999664306641
0, 4, 75, 186.513427734375
0, 4, 76, 189.4517517089844
0, 4, 77, 183.0155944824219
0, 4, 78, 195.4783935546875
0, 4, 79, 205.3890533447266
0, 4, 80, 211.322998046875
0, 4, 81, 200.6045837402344
0, 4, 82, 181.6553955078125
0, 4, 83, 170.5378265380859
0, 4, 84, 192.7477416992188
0, 4, 85, 197.5291595458984
0, 4, 86, 181.45458984375
0, 4, 87, 184.7413940429688
0, 4, 88, 204.1988983154297
0, 4, 89, 187.4507293701172
0, 4, 90, 214.1835174560547
0, 4, 91, 189.3494873046875
0, 4, 92, 196.9600982666016
0, 4, 93, 196.1427307128906
0, 4, 94, 184.0955657958984
0, 4, 95, 173.7565002441406
0, 4, 96, 189.8134155273438
0, 4, 97, 192.6177215576172
0, 4, 98, 200.3761749267578
0, 4, 99, 184.535888671875
0, 4, 100, 182.7640686035156
0, 4, 101, 177.7208709716797
0, 4, 102, 174.1224060058594
0, 4, 103, 185.7457733154297
0, 4, 104, 209.4009246826172
0, 4, 105, 189.4510803222656
0, 4, 106, 180.2753295898438
0, 4, 107, 181.4773254394531
0, 4, 108, 151.5755615234375
0, 4, 109, 50.156494140625
0, 4, 110, 11.50573062896729
0, 4, 111, 8.991358757019043
0, 4, 112, 6.271538257598877
0, 4, 113, 6.012893199920654
0, 4, 114, 4.747239112854004
0, 4, 115, 3.898679971694946
0, 4, 116, 5.280108451843262
0, 4, 117, 3.219484806060791
0, 4, 118, 5.188380718231201
0, 4, 119, 4.085287094116211
0, 4, 120, 2.172601222991943
0, 4, 121, 1.906457185745239
0, 4, 122, 2.691650390625
0, 4, 123, 3.433862209320068
0, 4, 124, 3.873311042785645
0, 4, 125, 2.925581455230713
0, 4, 126, 1.809151887893677
0, 4, 127, 1.716904282569885
0, 5, 0, 1.276954650878906
0, 5, 1, 3.084099769592285
0, 5, 2, 5.240947723388672
0, 5, 3, 3.517962455749512
0, 5, 4, 2.829098463058472
0, 5, 5, 2.611440420150757
0, 5, 6, 3.034607410430908
0, 5, 7, 3.310625076293945
0, 5, 8, 2.143618106842041
0, 5, 9, 3.539075613021851
0, 5, 10, 3.100306510925293
0, 5, 11, 4.108841419219971
0, 5, 12, 5.294680595397949
0, 5, 13, 3.809589147567749
0, 5, 14, 6.748345375061035
0, 5, 15, 8.996622085571289
0, 5, 16, 7.296859741210938
0, 5, 17, 22.62016296386719
0, 5, 18, 83.27950286865234
0, 5, 19, 164.4262084960938
0, 5, 20, 183.9966583251953
0, 5, 21, 177.7900543212891
0, 5, 22, 170.1424713134766
0, 5, 23, 200.8875885009766
0, 5, 24, 188.0401763916016
0, 5, 25, 208.203857421875
0, 5, 26, 181.6377105712891
0, 5, 27, 193.3916320800781
0, 5, 28, 190.2323455810547
0, 5, 29, 196.402099609375
0, 5, 30, 178.5622406005859
0, 5, 31, 180.8734283447266
0, 5, 32, 187.05859375
0, 5, 33, 169.9013671875
0, 5, 34, 195.1093444824219
0, 5, 35, 196.6575012207031
0, 5, 36, 169.2830963134766
0, 5, 37, 196.8211517333984
0, 5, 38, 181.3583526611328
0, 5, 39, 188.5765380859375
0, 5, 40, 195.9618072509766
0, 5, 41, 177.4848327636719
0, 5, 42, 186.9621124267578
0, 5, 43, 191.8656616210938
0, 5, 44, 199.3967742919922
0, 5, 45, 186.3976745605469
0, 5, 46, 192.7678985595703
0, 5, 47, 181.5511322021484
0, 5, 48, 177.2745971679688
0, 5, 49, 176.9188079833984
0, 5, 50, 185.9226379394531
0, 5, 51, 171.8614654541016
0, 5, 52, 168.6148071289062
0, 5, 53, 181.2471160888672
0, 5, 54, 172.3510894775391
0, 5, 55, 215.5790405273438
0, 5, 56, 181.4542846679688
0, 5, 57, 207.828857421875
0, 5, 58, 182.2291259765625
0, 5, 59, 180.8887786865234
0, 5, 60, 218.9193267822266
0, 5, 61, 184.7718200683594
0, 5, 62, 177.8982238769531
0, 5, 63, 180.7887268066406
0, 5, 64, 195.7697143554688
0, 5, 65, 211.2717742919922
0, 5, 66, 192.5587921142578
0, 5, 67, 199.9531402587891
0, 5, 68, 185.9344635009766
0, 5, 69, 184.4861450195312
0, 5, 70, 185.4572448730469
0, 5, 71, 192.4984741210938
0, 5, 72, 197.8988647460938
0, 5, 73, 201.8616333007812
0, 5, 74, 180.0446624755859
0, 5, 75, 204.6064605712891
0, 5, 76, 213.7265167236328
0, 5, 77, 180.3135528564453
0, 5, 78, 194.5902709960938
0, 5, 79, 190.0784912109375
0, 5, 80, 197.5483093261719
0, 5, 81, 202.5854644775391
0, 5, 82, 202.8367919921875
0, 5, 83, 189.1539764404297
0, 5, 84, 204.9346923828125
0, 5, 85, 176.1068878173828
0, 5, 86, 194.3675231933594
0, 5, 87, 189.3647003173828
0, 5, 88, 177.8507385253906
0, 5, 89, 193.8809204101562
0, 5, 90, 198.1352233886719
0, 5, 91, 195.1051025390625
0, 5, 92, 190.2335052490234
0, 5, 93, 189.5563354492188
0, 5, 94, 207.3392486572266
0, 5, 95, 176.6757354736328
0, 5, 96, 182.3281860351562
0, 5, 97, 191.3304443359375
0, 5, 98, 189.2176971435547
0, 5, 99, 194.1784057617188
0, 5, 100, 186.2475280761719
0, 5, 101, 195.9432525634766
0, 5, 102, 181.3229064941406
0, 5, 103, 176.0149230957031
0, 5, 104, 191.0858459472656
0, 5, 105, 189.3440093994141
0, 5, 106, 177.0029754638672
0, 5, 107, 180.9173736572266
0, 5, 108, 175.2653503417969
0, 5, 109, 90.62191772460938
0, 5, 110, 32.87371444702148
0, 5, 111, 9.438042640686035
0, 5, 112, 7.535926342010498
0, 5, 113, 5.797778606414795
0, 5, 114, 6.105014324188232
0, 5, 115, 5.784077167510986
0, 5, 116, 3.351187705993652
0, 5, 117, 2.758347511291504
0, 5, 118, 4.41065788269043
0, 5, 119, 4.662747383117676
0, 5, 120, 2.593950033187866
0, 5, 121, 0.9528537392616272
0, 5, 122, 2.455360412597656
0, 5, 123, 4.203251361846924
0, 5, 124, 2.940619945526123
0, 5, 125, 0.8717631697654724
0, 5, 126, 1.872054696083069
0, 5, 127, 2.347988605499268
0, 6, 0, 3.969905138015747
0, 6, 1, 2.339940309524536
0, 6, 2, 5.072533130645752
0, 6, 3, 2.363977432250977
0, 6, 4, 3.667344808578491
0, 6, 5, 2.515433311462402
0, 6, 6, 2.569170951843262
0, 6, 7, 3.720757246017456
0, 6, 8, 3.780013799667358
0, 6, 9, 3.591704368591309
0, 6, 10, 4.793002128601074
0, 6, 11, 4.746269702911377
0, 6, 12, 6.3304762840271
0, 6, 13, 5.378400802612305
0, 6, 14, 4.358148574829102
0, 6, 15, 6.22977876663208
0, 6, 16, 14.17756462097168
0, 6, 17, 29.28797912597656
0, 6, 18, 113.598747253418
0, 6, 19, 191.61962890625
0, 6, 20, 196.51611328125
0, 6, 21, 197.5027923583984
0, 6, 22, 191.3513946533203
0, 6, 23, 190.7940521240234
0, 6, 24, 200.8255920410156
0, 6, 25, 181.2734985351562
0, 6, 26, 187.4103698730469
0, 6, 27, 191.4119567871094
0, 6, 28, 188.9100341796875
0, 6, 29, 210.1292724609375
0, 6, 30, 190.1403350830078
0, 6, 31, 192.9756469726562
0, 6, 32, 205.802734375
0, 6, 33, 183.4826965332031
0, 6, 34, 197.4621734619141
0, 6, 35, 188.6219024658203
0, 6, 36, 179.660400390625
0, 6, 37, 182.7960968017578
0, 6, 38, 185.5841674804688
0, 6, 39, 194.0823364257812
0, 6, 40, 173.4933319091797
0, 6, 41, 185.5626831054688
0, 6, 42, 173.8681945800781
0, 6, 43, 208.9026031494141
0, 6, 44, 210.4885559082031
0, 6, 45, 193.5425872802734
0, 6, 46, 187.5416564941406
0, 6, 47, 203.7349853515625
0, 6, 48, 189.0128326416016
0, 6, 49, 179.2123413085938
0, 6, 50, 182.3648986816406
0, 6, 51, 195.6502380371094
0, 6, 52, 197.7920837402344
0, 6, 53, 184.351318359375
0, 6, 54, 177.2181854248047
0, 6, 55, 195.4327087402344
0, 6, 56, 202.2274627685547
0, 6, 57, 192.1568756103516
0, 6, 58, 180.4488220214844
0, 6, 59, 191.8495025634766
0, 6, 60, 185.1496887207031
0, 6, 61, 193.8399353027344
0, 6, 62, 196.4326629638672
0, 6, 63, 187.4466857910156
0, 6, 64, 168.1531677246094
0, 6, 65, 188.0677490234375
0, 6, 66, 197.5028686523438
0, 6, 67, 212.2562408447266
0, 6, 68, 179.4723052978516
0, 6, 69, 171.9418182373047
0, 6, 70, 186.6956481933594
0, 6, 71, 171.3215026855469
0, 6, 72, 176.4213104248047
0, 6, 73, 177.8127899169922
0, 6, 74, 210.6439666748047
0, 6, 75, 226.1078491210938
0, 6, 76, 184.4195098876953
0, 6, 77, 173.4905700683594
0, 6, 78, 175.0262756347656
0, 6, 79, 188.7112884521484
0, 6, 80, 187.0145721435547
0, 6, 81, 209.1649169921875
0, 6, 82, 195.4794006347656
0, 6, 83, 195.1477508544922
0, 6, 84, 197.2368621826172
0, 6, 85, 180.2545318603516
0, 6, 86, 202.2013244628906
0, 6, 87, 184.2284545898438
0, 6, 88, 191.730712890625
0, 6, 89, 188.6764984130859
0, 6, 90, 205.8477325439453
0, 6, 91, 199.4540252685547
0, 6, 92, 173.7864379882812
0, 6, 93, 191.8366546630859
0, 6, 94, 189.9806671142578
0, 6, 95, 185.8259582519531
0, 6, 96, 191.5893096923828
0, 6, 97, 192.7742156982422
0, 6, 98, 182.9248352050781
0, 6, 99, 178.3052825927734
0, 6, 100, 201.7006072998047
0, 6, 101, 167.9335021972656
0, 6, 102, 201.4608459472656
0, 6, 103, 195.7722625732422
0, 6, 104, 184.4441680908203
0, 6, 105, 193.8002166748047
0, 6, 106, 177.0752563476562
0, 6, 107, 194.8619995117188
0, 6, 108, 172.2474670410156
0, 6, 109, 115.3748245239258
0, 6, 110, 33.35280609130859
0, 6, 111, 10.23058319091797
0, 6, 112, 9.328777313232422
0, 6, 113, 5.647708415985107
0, 6, 114, 5.058901786804199
0, 6, 115, 5.433738708496094
0, 6, 116, 3.407819271087646
0, 6, 117, 3.609043121337891
0, 6, 118, 3.522507190704346
0, 6, 119, 4.685896873474121
0, 6, 120, 1.734985828399658
0, 6, 121, 3.407488584518433
0, 6, 122, 3.035223007202148
0, 6, 123, 2.275144338607788
0, 6, 124, 2.189130306243896
0, 6, 125, 2.580334424972534
0, 6, 126, 2.472676753997803
0, 6, 127, 2.227082490921021
0, 7, 0, 5.194881916046143
0, 7, 1, 1.286148548126221
0, 7, 2, 1.747127294540405
0, 7, 3, 3.180567502975464
0, 7, 4, 1.083003163337708
0, 7, 5, 1.419720530509949
0, 7, 6, 2.323127031326294
0, 7, 7, 2.347980499267578
0, 7, 8, 4.561506748199463
0, 7, 9, 5.924674987792969
0, 7, 10, 4.874215126037598
0, 7, 11, 3.635033369064331
0, 7, 12, 2.450695037841797
0, 7, 13, 6.293296813964844
0, 7, 14, 7.967543125152588
0, 7, 15, 7.758993625640869
0, 7, 16, 15.18202114105225
0, 7, 17, 51.29520034790039
0, 7, 18, 160.9983062744141
0, 7, 19, 182.7578582763672
0, 7, 20, 179.4425506591797
0, 7, 21, 179.7667999267578
0, 7, 22, 191.6847229003906
0, 7, 23, 201.6161193847656
0, 7, 24, 177.2600860595703
0, 7, 25, 211.8921356201172
0, 7, 26, 188.8401641845703
0, 7, 27, 181.9730682373047
0, 7, 28, 182.7190551757812
0, 7, 29, 209.247802734375
0, 7, 30, 192.1154937744141
0, 7, 31, 176.4039611816406
0, 7, 32, 189.9005889892578
0, 7, 33, 179.0742034912109
0, 7, 34, 193.4321746826172
0, 7, 35, 197.3275299072266
0, 7, 36, 187.0570373535156
0, 7, 37, 212.8140106201172
0, 7, 38, 191.0640869140625
0, 7, 39, 172.9591217041016
0, 7, 40, 183.0920104980469
0, 7, 41, 187.0943908691406
0, 7, 42, 179.4295501708984
0, 7, 43, 177.6795806884766
0, 7, 44, 178.8225250244141
0, 7, 45, 173.7942657470703
0, 7, 46, 189.9266510009766
0, 7, 47, 198.0975341796875
0, 7, 48, 185.6204223632812
0, 7, 49, 198.4411468505859
0, 7, 50, 187.7344512939453
0, 7, 51, 205.4377899169922
0, 7, 52, 203.8839874267578
0, 7, 53, 190.9492340087891
0, 7, 54, 197.4415130615234
0, 7, 55, 203.14697265625
0, 7, 56, 183.6036529541016
0, 7, 57, 182.4180145263672
0, 7, 58, 191.7070617675781
0, 7, 59, 186.35791015625
0, 7, 60, 202.8634033203125
0, 7, 61, 170.8717193603516
0, 7, 62, 202.7967224121094
0, 7, 63, 188.6974334716797
0, 7, 64, 200.0337066650391
0, 7, 65, 196.1491851806641
0, 7, 66, 205.7003021240234
0, 7, 67, 219.5615844726562
0, 7, 68, 162.1020355224609
0, 7, 69, 194.0360412597656
0, 7, 70, 217.1533660888672
0, 7, 71, 184.3504028320312
0, 7, 72, 181.4885864257812
0, 7, 73, 176.4295806884766
0, 7, 74, 207.5102691650391
0, 7, 75, 204.7069091796875
0, 7, 76, 215.0943908691406
0, 7, 77, 174.4695587158203
0, 7, 78, 178.5113220214844
0, 7, 79, 192.6115112304688
0, 7, 80, 196.4292907714844
0, 7, 81, 214.9544830322266
0, 7, 82, 184.1255035400391
0, 7, 83, 205.5950012207031
0, 7, 84, 190.9773712158203
0, 7, 85, 185.3020477294922
0, 7, 86, 200.0929412841797
0, 7, 87, 225.3488464355469
0, 7, 88, 197.6895751953125
0, 7, 89, 178.1041870117188
0, 7, 90, 182.1420135498047
0, 7, 91, 194.7611236572266
0, 7, 92, 194.5256652832031
0, 7, 93, 198.0044250488281
0, 7, 94, 178.1792297363281
0, 7, 95, 197.4893341064453
0, 7, 96, 210.2720642089844
0, 7, 97, 189.5577545166016
0, 7, 98, 177.5831146240234
0, 7, 99, 196.854736328125
0, 7, 100, 182.7305603027344
0, 7, 101, 199.4980621337891
0, 7, 102, 184.7569122314453
0, 7, 103, 181.8549499511719
0, 7, 104, 175.9590759277344
0, 7, 105, 195.8509826660156
0, 7, 106, 206.5699157714844
0, 7, 107, 174.9288330078125
0, 7, 108, 178.0346984863281
0, 7, 109, 136.9164276123047
0, 7, 110, 53.77865219116211
0, 7, 111, 9.896596908569336
0, 7, 112, 7.680932998657227
0, 7, 113, 8.273679733276367
0, 7, 114, 6.35936975479126
0, 7, 115, 5.843733310699463
0, 7, 116, 4.673471450805664
0, 7, 117, 4.306745052337646
0, 7, 118, 3.533908843994141
0, 7, 119, 3.883930444717407
0, 7, 120, 4.325682640075684
0, 7, 121, 3.626514196395874
0, 7, 122, 2.137006282806396
0, 7, 123, 1.12690281867981
0, 7, 124, 1.029515743255615
0, 7, 125, 2.255921840667725
0, 7, 126, 2.238413333892822
0, 7, 127, 2.682821750640869
0, 8, 0, 4.494738101959229
0, 8, 1, 2.828413248062134
0, 8, 2, 2.865218162536621
0, 8, 3, 1.338230609893799
0, 8, 4, 2.001152038574219
0, 8, 5, 3.153501272201538
0, 8, 6, 3.696791648864746
0, 8, 7, 4.823822498321533
0, 8, 8, 1.882644891738892
0, 8, 9, 4.077524662017822
0, 8, 10, 2.428130149841309
0, 8, 11, 2.338111877441406
0, 8, 12, 3.848911285400391
0, 8, 13, 5.303521633148193
0, 8, 14, 5.742842674255371
0, 8, 15, 8.192437171936035
0, 8, 16, 19.17485809326172
0, 8, 17, 75.84391784667969
0, 8, 18, 142.5527648925781
0, 8, 19, 177.8021087646484
0, 8, 20, 192.8740692138672
0, 8, 21, 191.8794403076172
0, 8, 22, 180.1309509277344
0, 8, 23, 174.4482574462891
0, 8, 24, 192.5948333740234
0, 8, 25, 186.0104370117188
0, 8, 26, 192.8479461669922
0, 8, 27, 187.4571838378906
0, 8, 28, 185.5933532714844
0, 8, 29, 206.6190338134766
0, 8, 30, 195.5736236572266
0, 8, 31, 182.2324981689453
0, 8, 32, 198.046875
0, 8, 33, 206.2557525634766
0, 8, 34, 202.5968475341797
0, 8, 35, 184.3160858154297
0, 8, 36, 181.2752685546875
