# TOPAS Version: 3.1.p3
# Parameter File: batch_inserts_84.txt
# Results for scorer Readout_Adipose
# Scored in component: MyBox
# X in 1 bin  of 0.65 cm
# Y in 512 bins of 0.0783984 cm
# Z in 128 bins of 0.078125 cm
# EnergyDeposit ( MeV ) : Sum   
0, 0, 0, 0.9967323541641235
0, 0, 1, 4.484564781188965
0, 0, 2, 1.585458755493164
0, 0, 3, 1.722700238227844
0, 0, 4, 1.466074109077454
0, 0, 5, 1.62912118434906
0, 0, 6, 1.358388543128967
0, 0, 7, 2.203669309616089
0, 0, 8, 1.440967679023743
0, 0, 9, 2.646449565887451
0, 0, 10, 1.612011551856995
0, 0, 11, 3.342785120010376
0, 0, 12, 4.13444185256958
0, 0, 13, 2.743218898773193
0, 0, 14, 5.016026020050049
0, 0, 15, 6.187954425811768
0, 0, 16, 5.127718448638916
0, 0, 17, 7.184237480163574
0, 0, 18, 7.398478984832764
0, 0, 19, 22.41925048828125
0, 0, 20, 93.52418518066406
0, 0, 21, 152.7367401123047
0, 0, 22, 155.7702789306641
0, 0, 23, 143.6517486572266
0, 0, 24, 159.5447387695312
0, 0, 25, 166.7992248535156
0, 0, 26, 166.194091796875
0, 0, 27, 173.9527740478516
0, 0, 28, 178.0514373779297
0, 0, 29, 174.5334930419922
0, 0, 30, 173.060302734375
0, 0, 31, 167.8465423583984
0, 0, 32, 164.6981964111328
0, 0, 33, 165.6770782470703
0, 0, 34, 178.0567016601562
0, 0, 35, 173.3053283691406
0, 0, 36, 159.4443664550781
0, 0, 37, 160.8113250732422
0, 0, 38, 168.2429962158203
0, 0, 39, 160.3904724121094
0, 0, 40, 165.2987365722656
0, 0, 41, 165.9947052001953
0, 0, 42, 145.135009765625
0, 0, 43, 168.3053894042969
0, 0, 44, 177.4380798339844
0, 0, 45, 173.0259857177734
0, 0, 46, 165.9193725585938
0, 0, 47, 167.6276397705078
0, 0, 48, 169.6404724121094
0, 0, 49, 182.9693298339844
0, 0, 50, 169.4716033935547
0, 0, 51, 161.2813415527344
0, 0, 52, 163.1117553710938
0, 0, 53, 171.1517333984375
0, 0, 54, 159.5887298583984
0, 0, 55, 163.9411926269531
0, 0, 56, 188.5475158691406
0, 0, 57, 170.3507537841797
0, 0, 58, 161.6374359130859
0, 0, 59, 172.4073028564453
0, 0, 60, 168.6060485839844
0, 0, 61, 169.2004547119141
0, 0, 62, 185.2690734863281
0, 0, 63, 166.6394500732422
0, 0, 64, 165.1507110595703
0, 0, 65, 174.1130676269531
0, 0, 66, 177.5059509277344
0, 0, 67, 164.2496185302734
0, 0, 68, 158.5322723388672
0, 0, 69, 158.9183197021484
0, 0, 70, 170.0714416503906
0, 0, 71, 158.35693359375
0, 0, 72, 164.5415802001953
0, 0, 73, 173.3185424804688
0, 0, 74, 164.3229675292969
0, 0, 75, 163.7886505126953
0, 0, 76, 163.1902618408203
0, 0, 77, 172.8234405517578
0, 0, 78, 181.3456420898438
0, 0, 79, 174.1011810302734
0, 0, 80, 159.6113128662109
0, 0, 81, 160.0107879638672
0, 0, 82, 183.3922119140625
0, 0, 83, 174.5628967285156
0, 0, 84, 159.1349639892578
0, 0, 85, 181.5207366943359
0, 0, 86, 159.4844512939453
0, 0, 87, 176.6488037109375
0, 0, 88, 177.533447265625
0, 0, 89, 176.7003173828125
0, 0, 90, 160.1762542724609
0, 0, 91, 184.1161804199219
0, 0, 92, 164.2749328613281
0, 0, 93, 156.7477111816406
0, 0, 94, 168.9140319824219
0, 0, 95, 173.8224945068359
0, 0, 96, 183.6929321289062
0, 0, 97, 183.5514831542969
0, 0, 98, 185.7138977050781
0, 0, 99, 170.9526824951172
0, 0, 100, 158.3108978271484
0, 0, 101, 166.4569244384766
0, 0, 102, 171.2396392822266
0, 0, 103, 170.2636108398438
0, 0, 104, 169.0670623779297
0, 0, 105, 178.6484222412109
0, 0, 106, 158.7363128662109
0, 0, 107, 85.17533874511719
0, 0, 108, 20.72971343994141
0, 0, 109, 10.62907981872559
0, 0, 110, 5.970444679260254
0, 0, 111, 7.252601146697998
0, 0, 112, 3.290863990783691
0, 0, 113, 2.636781692504883
0, 0, 114, 2.426495313644409
0, 0, 115, 2.084436655044556
0, 0, 116, 1.918499708175659
0, 0, 117, 3.198187351226807
0, 0, 118, 3.989909172058105
0, 0, 119, 2.710070133209229
0, 0, 120, 1.321982264518738
0, 0, 121, 4.092837810516357
0, 0, 122, 3.874573945999146
0, 0, 123, 5.478233337402344
0, 0, 124, 1.009769201278687
0, 0, 125, 1.985342383384705
0, 0, 126, 2.834264039993286
0, 0, 127, 1.805320382118225
0, 1, 0, 0.837150514125824
0, 1, 1, 4.405636787414551
0, 1, 2, 3.520440340042114
0, 1, 3, 1.384923458099365
0, 1, 4, 0.5634617805480957
0, 1, 5, 1.018310308456421
0, 1, 6, 1.750163912773132
0, 1, 7, 2.719977140426636
0, 1, 8, 1.773628234863281
0, 1, 9, 1.996106863021851
0, 1, 10, 4.254495143890381
0, 1, 11, 3.46172833442688
0, 1, 12, 2.687135696411133
0, 1, 13, 3.674821853637695
0, 1, 14, 5.597637176513672
0, 1, 15, 6.226759910583496
0, 1, 16, 7.810156345367432
0, 1, 17, 5.119740962982178
0, 1, 18, 10.54152488708496
0, 1, 19, 38.1352424621582
0, 1, 20, 126.2577667236328
0, 1, 21, 179.0371856689453
0, 1, 22, 193.4703674316406
0, 1, 23, 187.8999481201172
0, 1, 24, 179.6307220458984
0, 1, 25, 192.5433959960938
0, 1, 26, 197.7580108642578
0, 1, 27, 187.2364196777344
0, 1, 28, 188.2752685546875
0, 1, 29, 183.2635192871094
0, 1, 30, 179.3599700927734
0, 1, 31, 181.5140075683594
0, 1, 32, 188.8251342773438
0, 1, 33, 189.9319000244141
0, 1, 34, 183.3393402099609
0, 1, 35, 192.7172698974609
0, 1, 36, 205.5336303710938
0, 1, 37, 185.0218811035156
0, 1, 38, 165.7813720703125
0, 1, 39, 172.356689453125
0, 1, 40, 179.3314056396484
0, 1, 41, 184.6333465576172
0, 1, 42, 182.6768188476562
0, 1, 43, 185.599609375
0, 1, 44, 168.6882934570312
0, 1, 45, 186.5103454589844
0, 1, 46, 171.6658477783203
0, 1, 47, 184.6686248779297
0, 1, 48, 186.3611145019531
0, 1, 49, 185.8213806152344
0, 1, 50, 178.0336151123047
0, 1, 51, 191.8449249267578
0, 1, 52, 196.8357696533203
0, 1, 53, 195.324462890625
0, 1, 54, 186.2204284667969
0, 1, 55, 165.7442474365234
0, 1, 56, 179.0560302734375
0, 1, 57, 177.4268035888672
0, 1, 58, 188.8858947753906
0, 1, 59, 193.0834197998047
0, 1, 60, 187.2525787353516
0, 1, 61, 176.7730865478516
0, 1, 62, 204.4743041992188
0, 1, 63, 174.0730438232422
0, 1, 64, 172.1356353759766
0, 1, 65, 185.6542053222656
0, 1, 66, 204.0420837402344
0, 1, 67, 184.6429290771484
0, 1, 68, 186.8388977050781
0, 1, 69, 188.6647186279297
0, 1, 70, 185.0504760742188
0, 1, 71, 171.1116180419922
0, 1, 72, 191.7015228271484
0, 1, 73, 189.9600372314453
0, 1, 74, 201.5095825195312
0, 1, 75, 184.3528594970703
0, 1, 76, 175.5792388916016
0, 1, 77, 191.5793151855469
0, 1, 78, 187.5882263183594
0, 1, 79, 202.7901458740234
0, 1, 80, 187.4601898193359
0, 1, 81, 175.9607391357422
0, 1, 82, 209.3230438232422
0, 1, 83, 211.7447204589844
0, 1, 84, 179.8833312988281
0, 1, 85, 169.6664276123047
0, 1, 86, 167.6456298828125
0, 1, 87, 184.7233428955078
0, 1, 88, 175.0610809326172
0, 1, 89, 187.5291290283203
0, 1, 90, 211.7901763916016
0, 1, 91, 181.2029571533203
0, 1, 92, 183.6810607910156
0, 1, 93, 180.2490234375
0, 1, 94, 186.2337188720703
0, 1, 95, 182.7927856445312
0, 1, 96, 196.3166046142578
0, 1, 97, 181.6782531738281
0, 1, 98, 186.4377899169922
0, 1, 99, 175.9337463378906
0, 1, 100, 170.7659454345703
0, 1, 101, 178.5256958007812
0, 1, 102, 181.7615509033203
0, 1, 103, 172.3980255126953
0, 1, 104, 189.5271453857422
0, 1, 105, 182.2027740478516
0, 1, 106, 165.1632537841797
0, 1, 107, 125.5167694091797
0, 1, 108, 47.2788200378418
0, 1, 109, 9.72221565246582
0, 1, 110, 9.594325065612793
0, 1, 111, 7.565505027770996
0, 1, 112, 7.226921558380127
0, 1, 113, 6.908092498779297
0, 1, 114, 4.778124332427979
0, 1, 115, 5.746840000152588
0, 1, 116, 2.404306888580322
0, 1, 117, 1.691125273704529
0, 1, 118, 3.077510118484497
0, 1, 119, 0.7875651717185974
0, 1, 120, 2.762723207473755
0, 1, 121, 3.991327285766602
0, 1, 122, 4.498192310333252
0, 1, 123, 1.700014472007751
0, 1, 124, 2.377703189849854
0, 1, 125, 3.289920091629028
0, 1, 126, 1.67281699180603
0, 1, 127, 1.92487370967865
0, 2, 0, 2.997392654418945
0, 2, 1, 2.146683692932129
0, 2, 2, 1.950197219848633
0, 2, 3, 2.830582141876221
0, 2, 4, 3.327206611633301
0, 2, 5, 1.030289649963379
0, 2, 6, 2.928187847137451
0, 2, 7, 1.551187872886658
0, 2, 8, 1.124272584915161
0, 2, 9, 1.921092510223389
0, 2, 10, 4.588468074798584
0, 2, 11, 4.610813617706299
0, 2, 12, 4.182001113891602
0, 2, 13, 4.976200103759766
0, 2, 14, 4.851179122924805
0, 2, 15, 7.185546398162842
0, 2, 16, 4.529636859893799
0, 2, 17, 9.202866554260254
0, 2, 18, 14.52763748168945
0, 2, 19, 80.27142333984375
0, 2, 20, 159.9232025146484
0, 2, 21, 185.5875854492188
0, 2, 22, 193.6907501220703
0, 2, 23, 185.3334503173828
0, 2, 24, 173.9123382568359
0, 2, 25, 183.5197143554688
0, 2, 26, 178.7568359375
0, 2, 27, 188.4609832763672
0, 2, 28, 171.7036895751953
0, 2, 29, 168.9426422119141
0, 2, 30, 184.3012542724609
0, 2, 31, 182.1364593505859
0, 2, 32, 183.6107940673828
0, 2, 33, 191.4281768798828
0, 2, 34, 198.9695892333984
0, 2, 35, 181.2213745117188
0, 2, 36, 184.9164886474609
0, 2, 37, 180.876708984375
0, 2, 38, 185.7063598632812
0, 2, 39, 166.8019866943359
0, 2, 40, 184.0462341308594
0, 2, 41, 183.0148468017578
0, 2, 42, 188.6840972900391
0, 2, 43, 194.6814727783203
0, 2, 44, 191.265380859375
0, 2, 45, 189.7346649169922
0, 2, 46, 195.7282257080078
0, 2, 47, 190.1980133056641
0, 2, 48, 177.2618408203125
0, 2, 49, 198.5234832763672
0, 2, 50, 168.0033111572266
0, 2, 51, 183.5704803466797
0, 2, 52, 187.3058776855469
0, 2, 53, 195.3733215332031
0, 2, 54, 177.1836700439453
0, 2, 55, 173.5168151855469
0, 2, 56, 181.5861358642578
0, 2, 57, 200.5282745361328
0, 2, 58, 188.0583190917969
0, 2, 59, 188.8542022705078
0, 2, 60, 196.8164825439453
0, 2, 61, 193.4399566650391
0, 2, 62, 188.7615051269531
0, 2, 63, 170.9659118652344
0, 2, 64, 189.0168304443359
0, 2, 65, 202.2575225830078
0, 2, 66, 195.4123382568359
0, 2, 67, 183.9253997802734
0, 2, 68, 184.9671936035156
0, 2, 69, 187.3372497558594
0, 2, 70, 202.5023040771484
0, 2, 71, 175.4859466552734
0, 2, 72, 185.6640014648438
0, 2, 73, 177.3408966064453
0, 2, 74, 181.4886016845703
0, 2, 75, 197.1155700683594
0, 2, 76, 184.5799407958984
0, 2, 77, 177.1034698486328
0, 2, 78, 197.6414337158203
0, 2, 79, 178.6925201416016
0, 2, 80, 186.462890625
0, 2, 81, 186.7447662353516
0, 2, 82, 204.5471801757812
0, 2, 83, 202.6937561035156
0, 2, 84, 188.614013671875
0, 2, 85, 171.0445404052734
0, 2, 86, 195.2315521240234
0, 2, 87, 171.7996063232422
0, 2, 88, 179.6311798095703
0, 2, 89, 185.2794189453125
0, 2, 90, 177.2817230224609
0, 2, 91, 174.5578308105469
0, 2, 92, 197.0835418701172
0, 2, 93, 193.7704315185547
0, 2, 94, 198.1047515869141
0, 2, 95, 192.7707214355469
0, 2, 96, 187.1609039306641
0, 2, 97, 171.9511108398438
0, 2, 98, 173.3176574707031
0, 2, 99, 162.6453247070312
0, 2, 100, 187.5383758544922
0, 2, 101, 196.3257751464844
0, 2, 102, 176.4221496582031
0, 2, 103, 200.3723449707031
0, 2, 104, 189.0544281005859
0, 2, 105, 199.4499969482422
0, 2, 106, 194.4562683105469
0, 2, 107, 149.1461486816406
0, 2, 108, 78.63993072509766
0, 2, 109, 17.70212364196777
0, 2, 110, 8.555764198303223
0, 2, 111, 5.459071636199951
0, 2, 112, 6.039507389068604
0, 2, 113, 3.65938663482666
0, 2, 114, 7.865118026733398
0, 2, 115, 4.08884334564209
0, 2, 116, 1.642319798469543
0, 2, 117, 1.085986614227295
0, 2, 118, 1.877972960472107
0, 2, 119, 3.990265846252441
0, 2, 120, 2.083053827285767
0, 2, 121, 2.941310405731201
0, 2, 122, 3.725837230682373
0, 2, 123, 2.081311941146851
0, 2, 124, 2.68809700012207
0, 2, 125, 3.046575546264648
0, 2, 126, 2.396815776824951
0, 2, 127, 0.9910300970077515
0, 3, 0, 1.631982207298279
0, 3, 1, 1.983351707458496
0, 3, 2, 0.6662912368774414
0, 3, 3, 0.9735780358314514
0, 3, 4, 3.798524856567383
0, 3, 5, 1.287807583808899
0, 3, 6, 3.241006374359131
0, 3, 7, 1.5754075050354
0, 3, 8, 2.080527544021606
0, 3, 9, 1.570146560668945
0, 3, 10, 2.00976824760437
0, 3, 11, 3.820743083953857
0, 3, 12, 3.075857400894165
0, 3, 13, 3.668034315109253
0, 3, 14, 5.281636714935303
0, 3, 15, 6.801519870758057
0, 3, 16, 7.104011058807373
0, 3, 17, 5.867063999176025
0, 3, 18, 32.24835205078125
0, 3, 19, 114.7490386962891
0, 3, 20, 180.6143951416016
0, 3, 21, 174.0794067382812
0, 3, 22, 177.6565093994141
0, 3, 23, 187.7771301269531
0, 3, 24, 177.4398193359375
0, 3, 25, 168.6453094482422
0, 3, 26, 180.6308441162109
0, 3, 27, 190.333251953125
0, 3, 28, 182.9190826416016
0, 3, 29, 196.5675506591797
0, 3, 30, 184.8198394775391
0, 3, 31, 193.8036804199219
0, 3, 32, 208.8741302490234
0, 3, 33, 198.730224609375
0, 3, 34, 188.0936279296875
0, 3, 35, 175.5639343261719
0, 3, 36, 185.4685516357422
0, 3, 37, 199.8413848876953
0, 3, 38, 192.1635131835938
0, 3, 39, 185.4542999267578
0, 3, 40, 165.9987945556641
0, 3, 41, 175.3203582763672
0, 3, 42, 184.6472778320312
0, 3, 43, 181.5466461181641
0, 3, 44, 203.1913146972656
0, 3, 45, 206.8279876708984
0, 3, 46, 198.3460083007812
0, 3, 47, 193.9175567626953
0, 3, 48, 194.7907409667969
0, 3, 49, 180.5252227783203
0, 3, 50, 187.0693054199219
0, 3, 51, 174.8292388916016
0, 3, 52, 187.0219421386719
0, 3, 53, 177.6813049316406
0, 3, 54, 178.3028259277344
0, 3, 55, 178.6732025146484
0, 3, 56, 182.3099365234375
0, 3, 57, 174.6498413085938
0, 3, 58, 200.8737487792969
0, 3, 59, 196.2313232421875
0, 3, 60, 187.2205963134766
0, 3, 61, 182.7378692626953
0, 3, 62, 183.0200500488281
0, 3, 63, 183.4143218994141
0, 3, 64, 193.9952239990234
0, 3, 65, 187.9800415039062
0, 3, 66, 177.0878753662109
0, 3, 67, 190.7182769775391
0, 3, 68, 211.0341796875
0, 3, 69, 191.4260864257812
0, 3, 70, 184.9143524169922
0, 3, 71, 197.0933990478516
0, 3, 72, 184.8067626953125
0, 3, 73, 186.322509765625
0, 3, 74, 193.1846160888672
0, 3, 75, 194.3632049560547
0, 3, 76, 190.5418090820312
0, 3, 77, 199.569091796875
0, 3, 78, 189.4894409179688
0, 3, 79, 185.7935943603516
0, 3, 80, 189.4419555664062
0, 3, 81, 184.0390014648438
0, 3, 82, 178.9989929199219
0, 3, 83, 195.1295013427734
0, 3, 84, 199.5850677490234
0, 3, 85, 191.4959411621094
0, 3, 86, 204.2537078857422
0, 3, 87, 198.3135070800781
0, 3, 88, 191.7199401855469
0, 3, 89, 192.6465911865234
0, 3, 90, 174.0462799072266
0, 3, 91, 158.3027496337891
0, 3, 92, 206.99072265625
0, 3, 93, 197.0911560058594
0, 3, 94, 191.6957092285156
0, 3, 95, 212.5191650390625
0, 3, 96, 208.1312103271484
0, 3, 97, 167.5414733886719
0, 3, 98, 167.5056304931641
0, 3, 99, 179.9837188720703
0, 3, 100, 176.8078002929688
0, 3, 101, 197.675537109375
0, 3, 102, 196.8748168945312
0, 3, 103, 192.5171203613281
0, 3, 104, 203.0940856933594
0, 3, 105, 175.7594146728516
0, 3, 106, 180.9894561767578
0, 3, 107, 169.7292327880859
0, 3, 108, 107.9953002929688
0, 3, 109, 28.82973861694336
0, 3, 110, 7.677071094512939
0, 3, 111, 6.623418807983398
0, 3, 112, 3.987488269805908
0, 3, 113, 7.095263481140137
0, 3, 114, 4.793447494506836
0, 3, 115, 7.191108703613281
0, 3, 116, 6.42141580581665
0, 3, 117, 3.416507244110107
0, 3, 118, 3.367695569992065
0, 3, 119, 2.135824680328369
0, 3, 120, 4.663744449615479
0, 3, 121, 3.560872077941895
0, 3, 122, 3.197371244430542
0, 3, 123, 2.675085783004761
0, 3, 124, 2.378400564193726
0, 3, 125, 0.6980056166648865
0, 3, 126, 2.352551221847534
0, 3, 127, 1.645286440849304
0, 4, 0, 2.311061382293701
0, 4, 1, 2.452431201934814
0, 4, 2, 2.747724771499634
0, 4, 3, 4.430287837982178
0, 4, 4, 1.39224898815155
0, 4, 5, 3.877085208892822
0, 4, 6, 3.342397689819336
0, 4, 7, 2.843754053115845
0, 4, 8, 1.686470866203308
0, 4, 9, 2.489105224609375
0, 4, 10, 4.006812572479248
0, 4, 11, 4.964237213134766
0, 4, 12, 5.79185676574707
0, 4, 13, 4.10445499420166
0, 4, 14, 5.302982330322266
0, 4, 15, 9.588288307189941
0, 4, 16, 6.234480857849121
0, 4, 17, 11.43712139129639
0, 4, 18, 55.64847946166992
0, 4, 19, 151.51220703125
0, 4, 20, 192.4346618652344
0, 4, 21, 170.9869842529297
0, 4, 22, 187.1858978271484
0, 4, 23, 195.7114562988281
0, 4, 24, 192.6235046386719
0, 4, 25, 200.5470733642578
0, 4, 26, 182.3250732421875
0, 4, 27, 196.1241302490234
0, 4, 28, 179.1067504882812
0, 4, 29, 206.8954925537109
0, 4, 30, 195.7074432373047
0, 4, 31, 191.9496765136719
0, 4, 32, 211.31103515625
0, 4, 33, 190.8032989501953
0, 4, 34, 194.0100555419922
0, 4, 35, 213.318603515625
0, 4, 36, 193.0622100830078
0, 4, 37, 177.0486755371094
0, 4, 38, 194.5872497558594
0, 4, 39, 188.6410369873047
0, 4, 40, 185.1541290283203
0, 4, 41, 189.3434143066406
0, 4, 42, 205.3726043701172
0, 4, 43, 173.4941101074219
0, 4, 44, 183.3161163330078
0, 4, 45, 196.1998443603516
0, 4, 46, 185.9053802490234
0, 4, 47, 180.2731628417969
0, 4, 48, 185.8413391113281
0, 4, 49, 174.9864654541016
0, 4, 50, 185.6819763183594
0, 4, 51, 197.9169006347656
0, 4, 52, 222.9445953369141
0, 4, 53, 206.1431427001953
0, 4, 54, 189.6974639892578
0, 4, 55, 174.1586151123047
0, 4, 56, 191.14013671875
0, 4, 57, 191.6315765380859
0, 4, 58, 187.375244140625
0, 4, 59, 190.474853515625
0, 4, 60, 196.1519012451172
0, 4, 61, 193.0440063476562
0, 4, 62, 190.9405059814453
0, 4, 63, 178.1784973144531
0, 4, 64, 211.6262969970703
0, 4, 65, 191.2812347412109
0, 4, 66, 201.3937377929688
0, 4, 67, 200.5079956054688
0, 4, 68, 201.4391174316406
0, 4, 69, 200.7982330322266
0, 4, 70, 205.6050415039062
0, 4, 71, 206.3873748779297
0, 4, 72, 214.7153472900391
0, 4, 73, 185.6361083984375
0, 4, 74, 179.2245941162109
0, 4, 75, 185.0331878662109
0, 4, 76, 189.6709136962891
0, 4, 77, 186.7891235351562
0, 4, 78, 195.3224792480469
0, 4, 79, 203.6962738037109
0, 4, 80, 211.91552734375
0, 4, 81, 198.1864166259766
0, 4, 82, 181.9728546142578
0, 4, 83, 170.0585784912109
0, 4, 84, 192.7347869873047
0, 4, 85, 195.36669921875
0, 4, 86, 181.2719879150391
0, 4, 87, 182.5712585449219
0, 4, 88, 203.9918518066406
0, 4, 89, 188.0843505859375
0, 4, 90, 212.8502655029297
0, 4, 91, 191.3518676757812
0, 4, 92, 195.9534149169922
0, 4, 93, 196.3345642089844
0, 4, 94, 183.4102783203125
0, 4, 95, 174.3722839355469
0, 4, 96, 189.9976348876953
0, 4, 97, 192.7011260986328
0, 4, 98, 201.4743194580078
0, 4, 99, 182.7188873291016
0, 4, 100, 182.8670654296875
0, 4, 101, 178.6078033447266
0, 4, 102, 171.9349517822266
0, 4, 103, 184.8034973144531
0, 4, 104, 209.8152313232422
0, 4, 105, 189.4416961669922
0, 4, 106, 180.0635681152344
0, 4, 107, 182.5456085205078
0, 4, 108, 151.7555541992188
0, 4, 109, 48.83042144775391
0, 4, 110, 10.20779895782471
0, 4, 111, 7.53743839263916
0, 4, 112, 5.425111770629883
0, 4, 113, 5.112630844116211
0, 4, 114, 6.748142242431641
0, 4, 115, 5.004437446594238
0, 4, 116, 6.796694755554199
0, 4, 117, 4.742124080657959
0, 4, 118, 4.31569766998291
0, 4, 119, 3.212665319442749
0, 4, 120, 1.898824572563171
0, 4, 121, 3.458859205245972
0, 4, 122, 3.165015697479248
0, 4, 123, 2.490199089050293
0, 4, 124, 3.655063390731812
0, 4, 125, 2.405750036239624
0, 4, 126, 1.413701772689819
0, 4, 127, 1.629171133041382
0, 5, 0, 1.746917366981506
0, 5, 1, 3.537042140960693
0, 5, 2, 6.417821884155273
0, 5, 3, 3.399447202682495
0, 5, 4, 2.508942127227783
0, 5, 5, 1.329433441162109
0, 5, 6, 2.042762279510498
0, 5, 7, 3.548129081726074
0, 5, 8, 3.002085208892822
0, 5, 9, 2.156711101531982
0, 5, 10, 4.333607196807861
0, 5, 11, 4.265496730804443
0, 5, 12, 3.912159204483032
0, 5, 13, 3.479859590530396
0, 5, 14, 4.893388748168945
0, 5, 15, 8.457603454589844
0, 5, 16, 8.283247947692871
0, 5, 17, 21.31421279907227
0, 5, 18, 82.82127380371094
0, 5, 19, 162.9933624267578
0, 5, 20, 186.7271118164062
0, 5, 21, 177.7192535400391
0, 5, 22, 170.0660858154297
0, 5, 23, 200.6079406738281
0, 5, 24, 187.8893890380859
0, 5, 25, 207.6001739501953
0, 5, 26, 183.1645050048828
0, 5, 27, 195.0104675292969
0, 5, 28, 190.5136566162109
0, 5, 29, 196.4244842529297
0, 5, 30, 177.3353424072266
0, 5, 31, 180.1715698242188
0, 5, 32, 187.5605926513672
0, 5, 33, 169.1557006835938
0, 5, 34, 195.9316101074219
0, 5, 35, 200.6057891845703
0, 5, 36, 170.4393463134766
0, 5, 37, 197.7505950927734
0, 5, 38, 182.2479400634766
0, 5, 39, 186.1848602294922
0, 5, 40, 197.8059692382812
0, 5, 41, 178.0539703369141
0, 5, 42, 187.2739868164062
0, 5, 43, 193.6374664306641
0, 5, 44, 199.7493743896484
0, 5, 45, 187.4569244384766
0, 5, 46, 193.7953948974609
0, 5, 47, 182.0123291015625
0, 5, 48, 179.5239868164062
0, 5, 49, 176.4251556396484
0, 5, 50, 185.3879547119141
0, 5, 51, 172.9647979736328
0, 5, 52, 168.2079467773438
0, 5, 53, 181.8876037597656
0, 5, 54, 172.9308624267578
0, 5, 55, 215.5068359375
0, 5, 56, 181.7637023925781
0, 5, 57, 207.2389678955078
0, 5, 58, 182.8713989257812
0, 5, 59, 180.6753082275391
0, 5, 60, 217.282470703125
0, 5, 61, 184.7545471191406
0, 5, 62, 178.7649536132812
0, 5, 63, 179.7425689697266
0, 5, 64, 194.0787200927734
0, 5, 65, 210.3605194091797
0, 5, 66, 193.0619506835938
0, 5, 67, 198.9145355224609
0, 5, 68, 185.2414245605469
0, 5, 69, 186.126708984375
0, 5, 70, 183.9283752441406
0, 5, 71, 193.2793426513672
0, 5, 72, 199.2322692871094
0, 5, 73, 201.9224395751953
0, 5, 74, 179.6197509765625
0, 5, 75, 204.1957244873047
0, 5, 76, 213.9163208007812
0, 5, 77, 180.6043701171875
0, 5, 78, 194.7471923828125
0, 5, 79, 189.7362060546875
0, 5, 80, 197.4013366699219
0, 5, 81, 202.5820922851562
0, 5, 82, 203.70751953125
0, 5, 83, 188.5892333984375
0, 5, 84, 205.6224212646484
0, 5, 85, 177.8201751708984
0, 5, 86, 197.2941284179688
0, 5, 87, 187.0463562011719
0, 5, 88, 176.954345703125
0, 5, 89, 194.0286712646484
0, 5, 90, 198.1186828613281
0, 5, 91, 193.8692321777344
0, 5, 92, 190.3162841796875
0, 5, 93, 189.1785125732422
0, 5, 94, 207.7917327880859
0, 5, 95, 176.5553283691406
0, 5, 96, 182.1174163818359
0, 5, 97, 191.5757293701172
0, 5, 98, 188.2711639404297
0, 5, 99, 195.2289123535156
0, 5, 100, 189.3304901123047
0, 5, 101, 195.4375457763672
0, 5, 102, 180.5579681396484
0, 5, 103, 175.8117370605469
0, 5, 104, 190.0625610351562
0, 5, 105, 189.6576690673828
0, 5, 106, 176.8341217041016
0, 5, 107, 180.7291107177734
0, 5, 108, 176.0827789306641
0, 5, 109, 89.97010803222656
0, 5, 110, 32.14950180053711
0, 5, 111, 9.922462463378906
0, 5, 112, 7.028777599334717
0, 5, 113, 6.116315364837646
0, 5, 114, 6.474331855773926
0, 5, 115, 6.820267677307129
0, 5, 116, 5.013564109802246
0, 5, 117, 2.868840932846069
0, 5, 118, 5.956531524658203
0, 5, 119, 3.418350458145142
0, 5, 120, 1.203405976295471
0, 5, 121, 2.858217477798462
0, 5, 122, 3.489957809448242
0, 5, 123, 3.877800226211548
0, 5, 124, 2.467369556427002
0, 5, 125, 0.959575355052948
0, 5, 126, 2.094502449035645
0, 5, 127, 2.119575262069702
0, 6, 0, 3.358786106109619
0, 6, 1, 3.906049013137817
0, 6, 2, 3.178545713424683
0, 6, 3, 2.224384307861328
0, 6, 4, 3.511985540390015
0, 6, 5, 3.955796480178833
0, 6, 6, 2.600116491317749
0, 6, 7, 3.147145509719849
0, 6, 8, 3.826968193054199
0, 6, 9, 4.658220291137695
0, 6, 10, 4.079821109771729
0, 6, 11, 4.171098709106445
0, 6, 12, 5.642586231231689
0, 6, 13, 5.162285804748535
0, 6, 14, 5.542339324951172
0, 6, 15, 6.162810802459717
0, 6, 16, 13.35335159301758
0, 6, 17, 27.96487426757812
0, 6, 18, 112.1439590454102
0, 6, 19, 192.5358428955078
0, 6, 20, 196.80419921875
0, 6, 21, 197.7618255615234
0, 6, 22, 190.0735321044922
0, 6, 23, 190.6627960205078
0, 6, 24, 201.4412994384766
0, 6, 25, 184.0166015625
0, 6, 26, 186.95703125
0, 6, 27, 192.2582244873047
0, 6, 28, 189.7030029296875
0, 6, 29, 210.4158935546875
0, 6, 30, 190.2141418457031
0, 6, 31, 193.2366180419922
0, 6, 32, 205.8643341064453
0, 6, 33, 184.2363128662109
0, 6, 34, 197.0389099121094
0, 6, 35, 187.3291320800781
0, 6, 36, 179.8785858154297
0, 6, 37, 183.3277130126953
0, 6, 38, 187.7503356933594
0, 6, 39, 195.21875
0, 6, 40, 174.7545776367188
0, 6, 41, 185.1495666503906
0, 6, 42, 173.6922607421875
0, 6, 43, 208.9452667236328
0, 6, 44, 209.2125396728516
0, 6, 45, 193.6871490478516
0, 6, 46, 189.5176391601562
0, 6, 47, 204.364990234375
0, 6, 48, 187.9929046630859
0, 6, 49, 179.7382659912109
0, 6, 50, 181.9368591308594
0, 6, 51, 196.2342224121094
0, 6, 52, 197.2174377441406
0, 6, 53, 185.0979309082031
0, 6, 54, 176.0308837890625
0, 6, 55, 194.7258605957031
0, 6, 56, 202.7611236572266
0, 6, 57, 191.5211334228516
0, 6, 58, 179.5130767822266
0, 6, 59, 192.7755126953125
0, 6, 60, 184.8734436035156
0, 6, 61, 194.1494445800781
0, 6, 62, 196.8734893798828
0, 6, 63, 188.2928009033203
0, 6, 64, 171.153564453125
0, 6, 65, 188.1838531494141
0, 6, 66, 197.0687408447266
0, 6, 67, 213.2155609130859
0, 6, 68, 179.6219787597656
0, 6, 69, 171.2920684814453
0, 6, 70, 188.7025146484375
0, 6, 71, 170.5939025878906
0, 6, 72, 176.9410705566406
0, 6, 73, 176.5115509033203
0, 6, 74, 210.86376953125
0, 6, 75, 226.7499389648438
0, 6, 76, 183.9311370849609
0, 6, 77, 173.5834350585938
0, 6, 78, 175.2186584472656
0, 6, 79, 190.6877288818359
0, 6, 80, 187.7520904541016
0, 6, 81, 209.1206359863281
0, 6, 82, 195.7127990722656
0, 6, 83, 195.8880004882812
0, 6, 84, 197.0847625732422
0, 6, 85, 180.3402557373047
0, 6, 86, 201.0056762695312
0, 6, 87, 184.0397796630859
0, 6, 88, 193.1351623535156
0, 6, 89, 188.3560485839844
0, 6, 90, 205.4940948486328
0, 6, 91, 199.7770690917969
0, 6, 92, 174.0120391845703
0, 6, 93, 190.9052276611328
0, 6, 94, 191.0548553466797
0, 6, 95, 186.0899047851562
0, 6, 96, 188.7259826660156
0, 6, 97, 192.7591094970703
0, 6, 98, 183.2764739990234
0, 6, 99, 175.8341674804688
0, 6, 100, 202.1389465332031
0, 6, 101, 168.7666931152344
0, 6, 102, 201.8204498291016
0, 6, 103, 197.0216827392578
0, 6, 104, 184.1962280273438
0, 6, 105, 193.9887542724609
0, 6, 106, 177.3306121826172
0, 6, 107, 194.1055908203125
0, 6, 108, 170.8507080078125
0, 6, 109, 115.6065826416016
0, 6, 110, 35.67543411254883
0, 6, 111, 10.01931095123291
0, 6, 112, 8.488669395446777
0, 6, 113, 6.405891895294189
0, 6, 114, 5.032962799072266
0, 6, 115, 5.773799419403076
0, 6, 116, 4.005264759063721
0, 6, 117, 3.469413995742798
0, 6, 118, 4.822090625762939
0, 6, 119, 5.372243404388428
0, 6, 120, 1.982995867729187
0, 6, 121, 5.374610424041748
0, 6, 122, 2.638952970504761
0, 6, 123, 3.361510992050171
0, 6, 124, 1.725478410720825
0, 6, 125, 2.153952598571777
0, 6, 126, 2.554666519165039
0, 6, 127, 2.365180253982544
0, 7, 0, 4.119484424591064
0, 7, 1, 1.007002949714661
0, 7, 2, 5.495543956756592
0, 7, 3, 4.055580139160156
0, 7, 4, 0.5616809129714966
0, 7, 5, 1.592214703559875
0, 7, 6, 2.71230673789978
0, 7, 7, 1.352653026580811
0, 7, 8, 4.09185266494751
0, 7, 9, 4.627187252044678
0, 7, 10, 5.01485538482666
0, 7, 11, 3.96776294708252
0, 7, 12, 3.920504808425903
0, 7, 13, 5.763698577880859
0, 7, 14, 9.282083511352539
0, 7, 15, 8.003240585327148
0, 7, 16, 15.21706676483154
0, 7, 17, 51.88697814941406
0, 7, 18, 161.7302703857422
0, 7, 19, 182.4104614257812
0, 7, 20, 179.1868286132812
0, 7, 21, 180.6672058105469
0, 7, 22, 191.9833068847656
0, 7, 23, 201.2218322753906
0, 7, 24, 177.9775695800781
0, 7, 25, 211.9622344970703
0, 7, 26, 188.88671875
0, 7, 27, 183.4297790527344
0, 7, 28, 182.2589721679688
0, 7, 29, 209.0153198242188
0, 7, 30, 192.9299621582031
0, 7, 31, 176.5773468017578
0, 7, 32, 191.0872344970703
0, 7, 33, 182.5026550292969
0, 7, 34, 193.6016998291016
0, 7, 35, 197.3011322021484
0, 7, 36, 187.2796936035156
0, 7, 37, 212.8701324462891
0, 7, 38, 191.1992492675781
0, 7, 39, 173.2378845214844
0, 7, 40, 183.0844421386719
0, 7, 41, 185.0481262207031
0, 7, 42, 178.0330810546875
0, 7, 43, 178.4457702636719
0, 7, 44, 178.875244140625
0, 7, 45, 173.0811157226562
0, 7, 46, 188.5518646240234
0, 7, 47, 196.6479644775391
0, 7, 48, 187.029052734375
0, 7, 49, 198.7296447753906
0, 7, 50, 188.688232421875
0, 7, 51, 204.7132110595703
0, 7, 52, 204.618408203125
0, 7, 53, 191.2360534667969
0, 7, 54, 196.1004028320312
0, 7, 55, 202.99267578125
0, 7, 56, 183.8393096923828
0, 7, 57, 183.1719970703125
0, 7, 58, 190.8247375488281
0, 7, 59, 187.6238403320312
0, 7, 60, 203.3092956542969
0, 7, 61, 171.0653533935547
0, 7, 62, 202.6788787841797
0, 7, 63, 188.6616516113281
0, 7, 64, 199.3917846679688
0, 7, 65, 196.5795593261719
0, 7, 66, 206.2278442382812
0, 7, 67, 220.2822265625
0, 7, 68, 163.7782745361328
0, 7, 69, 194.0314025878906
0, 7, 70, 217.1207580566406
0, 7, 71, 184.5924987792969
0, 7, 72, 179.8180847167969
0, 7, 73, 176.9942626953125
0, 7, 74, 207.6715850830078
0, 7, 75, 205.2302093505859
0, 7, 76, 215.3346099853516
0, 7, 77, 173.8622283935547
0, 7, 78, 176.3744964599609
0, 7, 79, 192.0050506591797
0, 7, 80, 196.2145538330078
0, 7, 81, 216.2163238525391
0, 7, 82, 185.1400146484375
0, 7, 83, 205.2037048339844
0, 7, 84, 191.2804565429688
0, 7, 85, 185.8069763183594
0, 7, 86, 200.3087158203125
0, 7, 87, 226.1382904052734
0, 7, 88, 195.8888702392578
0, 7, 89, 176.0736541748047
0, 7, 90, 182.2180938720703
0, 7, 91, 195.1237945556641
0, 7, 92, 193.7717437744141
0, 7, 93, 199.3376770019531
0, 7, 94, 177.6765594482422
0, 7, 95, 196.910400390625
0, 7, 96, 211.3670806884766
0, 7, 97, 188.8504791259766
0, 7, 98, 176.8070831298828
0, 7, 99, 197.8629608154297
0, 7, 100, 182.3612365722656
0, 7, 101, 199.9205017089844
0, 7, 102, 185.2246856689453
0, 7, 103, 180.7495422363281
0, 7, 104, 174.3136901855469
0, 7, 105, 196.0967102050781
0, 7, 106, 205.5160980224609
0, 7, 107, 173.1590423583984
0, 7, 108, 176.6484375
0, 7, 109, 136.1079864501953
0, 7, 110, 53.99053955078125
0, 7, 111, 8.275238990783691
0, 7, 112, 7.650180339813232
0, 7, 113, 7.76170825958252
0, 7, 114, 6.730348110198975
0, 7, 115, 5.357353687286377
0, 7, 116, 7.210806846618652
0, 7, 117, 2.227902412414551
0, 7, 118, 3.167214870452881
0, 7, 119, 2.358799457550049
0, 7, 120, 2.765358686447144
0, 7, 121, 2.082406520843506
0, 7, 122, 2.903159618377686
0, 7, 123, 1.839885592460632
0, 7, 124, 1.725855946540833
0, 7, 125, 2.136818647384644
0, 7, 126, 2.745074272155762
0, 7, 127, 1.958736658096313
0, 8, 0, 5.07241678237915
0, 8, 1, 3.216436862945557
0, 8, 2, 2.527771234512329
0, 8, 3, 1.549388408660889
0, 8, 4, 2.522313594818115
0, 8, 5, 5.934343814849854
0, 8, 6, 3.130159378051758
0, 8, 7, 3.378252506256104
0, 8, 8, 2.862801313400269
0, 8, 9, 3.999587774276733
0, 8, 10, 3.949022531509399
0, 8, 11, 3.450994253158569
0, 8, 12, 4.175005912780762
0, 8, 13, 5.966497421264648
0, 8, 14, 5.712449073791504
0, 8, 15, 8.877732276916504
0, 8, 16, 19.88156127929688
0, 8, 17, 76.59162139892578
0, 8, 18, 141.9920806884766
0, 8, 19, 179.6869201660156
0, 8, 20, 191.8501281738281
0, 8, 21, 192.6494750976562
0, 8, 22, 180.2764129638672
0, 8, 23, 174.5487518310547
0, 8, 24, 192.9284210205078
0, 8, 25, 185.5707855224609
0, 8, 26, 193.5783996582031
0, 8, 27, 187.235595703125
0, 8, 28, 186.5149841308594
0, 8, 29, 206.9341278076172
0, 8, 30, 196.8890228271484
0, 8, 31, 182.2701110839844
0, 8, 32, 198.5988922119141
0, 8, 33, 206.6206207275391
0, 8, 34, 202.5534057617188
0, 8, 35, 185.4812774658203
0, 8, 36, 181.9550018310547
