# TOPAS Version: 3.1.p3
# Parameter File: batch_inserts_344.txt
# Results for scorer Readout_Adipose
# Scored in component: MyBox
# X in 1 bin  of 0.65 cm
# Y in 512 bins of 0.0783984 cm
# Z in 128 bins of 0.078125 cm
# EnergyDeposit ( MeV ) : Sum   
0, 0, 0, 1.148815631866455
0, 0, 1, 6.347952842712402
0, 0, 2, 1.536749005317688
0, 0, 3, 1.734511256217957
0, 0, 4, 1.665400385856628
0, 0, 5, 1.804126977920532
0, 0, 6, 1.113795638084412
0, 0, 7, 2.32444429397583
0, 0, 8, 1.498334050178528
0, 0, 9, 3.335586309432983
0, 0, 10, 2.817531108856201
0, 0, 11, 4.152936935424805
0, 0, 12, 3.29845142364502
0, 0, 13, 2.59732460975647
0, 0, 14, 6.839064121246338
0, 0, 15, 5.882565975189209
0, 0, 16, 4.94167423248291
0, 0, 17, 5.421506881713867
0, 0, 18, 8.387668609619141
0, 0, 19, 22.5930004119873
0, 0, 20, 93.554931640625
0, 0, 21, 153.3060760498047
0, 0, 22, 154.5765991210938
0, 0, 23, 145.1134490966797
0, 0, 24, 160.5077362060547
0, 0, 25, 166.3581237792969
0, 0, 26, 166.9166717529297
0, 0, 27, 173.1328735351562
0, 0, 28, 178.4002227783203
0, 0, 29, 175.4293823242188
0, 0, 30, 172.5378875732422
0, 0, 31, 168.6204681396484
0, 0, 32, 164.3374786376953
0, 0, 33, 165.8528137207031
0, 0, 34, 178.5434722900391
0, 0, 35, 173.3245239257812
0, 0, 36, 159.1420288085938
0, 0, 37, 160.9949645996094
0, 0, 38, 167.3641204833984
0, 0, 39, 160.0590667724609
0, 0, 40, 164.634033203125
0, 0, 41, 165.7029418945312
0, 0, 42, 142.6142730712891
0, 0, 43, 167.7596893310547
0, 0, 44, 177.3531951904297
0, 0, 45, 173.0707855224609
0, 0, 46, 165.7611083984375
0, 0, 47, 167.4478149414062
0, 0, 48, 169.1229248046875
0, 0, 49, 184.0174865722656
0, 0, 50, 170.8467407226562
0, 0, 51, 161.5927429199219
0, 0, 52, 161.9597625732422
0, 0, 53, 172.2945098876953
0, 0, 54, 159.8648529052734
0, 0, 55, 163.6014556884766
0, 0, 56, 188.9066772460938
0, 0, 57, 169.9000549316406
0, 0, 58, 161.2019500732422
0, 0, 59, 172.6182708740234
0, 0, 60, 170.7898406982422
0, 0, 61, 170.8556365966797
0, 0, 62, 183.1327056884766
0, 0, 63, 168.1394195556641
0, 0, 64, 164.0886383056641
0, 0, 65, 173.140625
0, 0, 66, 178.3771667480469
0, 0, 67, 164.0129089355469
0, 0, 68, 158.3699645996094
0, 0, 69, 158.4309692382812
0, 0, 70, 169.7211761474609
0, 0, 71, 158.3180999755859
0, 0, 72, 164.6599426269531
0, 0, 73, 171.4718170166016
0, 0, 74, 162.6716613769531
0, 0, 75, 163.3193054199219
0, 0, 76, 163.1429443359375
0, 0, 77, 171.9009857177734
0, 0, 78, 181.5823364257812
0, 0, 79, 174.7736663818359
0, 0, 80, 159.3358459472656
0, 0, 81, 159.5713500976562
0, 0, 82, 181.6510009765625
0, 0, 83, 173.1459350585938
0, 0, 84, 159.7218322753906
0, 0, 85, 181.1521911621094
0, 0, 86, 157.7958984375
0, 0, 87, 177.5892486572266
0, 0, 88, 177.0919189453125
0, 0, 89, 175.4712371826172
0, 0, 90, 162.0528411865234
0, 0, 91, 186.6387939453125
0, 0, 92, 163.4169616699219
0, 0, 93, 156.9204254150391
0, 0, 94, 169.9980010986328
0, 0, 95, 173.8496398925781
0, 0, 96, 184.8296508789062
0, 0, 97, 183.6099548339844
0, 0, 98, 186.4793243408203
0, 0, 99, 172.3341217041016
0, 0, 100, 159.7196502685547
0, 0, 101, 167.3638916015625
0, 0, 102, 171.5092468261719
0, 0, 103, 172.4632415771484
0, 0, 104, 169.5516052246094
0, 0, 105, 176.4493713378906
0, 0, 106, 159.6882934570312
0, 0, 107, 85.36056518554688
0, 0, 108, 21.50127792358398
0, 0, 109, 9.660534858703613
0, 0, 110, 6.752869606018066
0, 0, 111, 6.329807281494141
0, 0, 112, 4.340502262115479
0, 0, 113, 4.351882934570312
0, 0, 114, 2.310670614242554
0, 0, 115, 3.265784502029419
0, 0, 116, 3.546044111251831
0, 0, 117, 1.813518643379211
0, 0, 118, 3.291597366333008
0, 0, 119, 1.926613211631775
0, 0, 120, 1.549172639846802
0, 0, 121, 4.623507976531982
0, 0, 122, 3.70962381362915
0, 0, 123, 4.49874210357666
0, 0, 124, 3.396607637405396
0, 0, 125, 3.9661545753479
0, 0, 126, 2.218765258789062
0, 0, 127, 1.605989336967468
0, 1, 0, 0.9853829741477966
0, 1, 1, 3.266416549682617
0, 1, 2, 3.022669792175293
0, 1, 3, 1.40135669708252
0, 1, 4, 0.4687213003635406
0, 1, 5, 1.797282934188843
0, 1, 6, 0.9514383673667908
0, 1, 7, 2.633402347564697
0, 1, 8, 1.986542463302612
0, 1, 9, 1.829493284225464
0, 1, 10, 2.522219657897949
0, 1, 11, 3.684264183044434
0, 1, 12, 4.61029052734375
0, 1, 13, 3.164526224136353
0, 1, 14, 7.094969272613525
0, 1, 15, 8.168400764465332
0, 1, 16, 8.896286964416504
0, 1, 17, 5.190443992614746
0, 1, 18, 10.32541942596436
0, 1, 19, 38.76877975463867
0, 1, 20, 125.4479598999023
0, 1, 21, 176.5686492919922
0, 1, 22, 193.6728210449219
0, 1, 23, 185.3873901367188
0, 1, 24, 180.5558166503906
0, 1, 25, 191.4438934326172
0, 1, 26, 197.2041320800781
0, 1, 27, 186.4415588378906
0, 1, 28, 188.6300506591797
0, 1, 29, 183.6746520996094
0, 1, 30, 178.500244140625
0, 1, 31, 181.1833038330078
0, 1, 32, 188.9006195068359
0, 1, 33, 190.408935546875
0, 1, 34, 184.6688842773438
0, 1, 35, 193.322265625
0, 1, 36, 206.76904296875
0, 1, 37, 185.1593322753906
0, 1, 38, 165.8029479980469
0, 1, 39, 172.1347961425781
0, 1, 40, 180.3572540283203
0, 1, 41, 185.0629730224609
0, 1, 42, 184.1815032958984
0, 1, 43, 185.0126800537109
0, 1, 44, 166.8165130615234
0, 1, 45, 186.3563842773438
0, 1, 46, 170.4134216308594
0, 1, 47, 184.9402618408203
0, 1, 48, 186.5407104492188
0, 1, 49, 185.9231109619141
0, 1, 50, 176.8973236083984
0, 1, 51, 190.5198974609375
0, 1, 52, 195.0243835449219
0, 1, 53, 196.8424987792969
0, 1, 54, 184.7254943847656
0, 1, 55, 164.4510650634766
0, 1, 56, 179.0639190673828
0, 1, 57, 178.2814025878906
0, 1, 58, 188.5919647216797
0, 1, 59, 193.4933776855469
0, 1, 60, 188.1731109619141
0, 1, 61, 178.869873046875
0, 1, 62, 205.5123748779297
0, 1, 63, 176.0978393554688
0, 1, 64, 173.7451782226562
0, 1, 65, 184.5127105712891
0, 1, 66, 203.8323364257812
0, 1, 67, 182.4654998779297
0, 1, 68, 186.6681976318359
0, 1, 69, 189.6868286132812
0, 1, 70, 185.8150787353516
0, 1, 71, 171.0536956787109
0, 1, 72, 187.3939819335938
0, 1, 73, 190.4036560058594
0, 1, 74, 201.7053680419922
0, 1, 75, 185.2284393310547
0, 1, 76, 173.8375244140625
0, 1, 77, 194.0103149414062
0, 1, 78, 189.9053039550781
0, 1, 79, 203.0888214111328
0, 1, 80, 186.4918365478516
0, 1, 81, 175.2184295654297
0, 1, 82, 206.4520874023438
0, 1, 83, 211.5897979736328
0, 1, 84, 180.0688781738281
0, 1, 85, 170.0492095947266
0, 1, 86, 168.7940216064453
0, 1, 87, 185.1112670898438
0, 1, 88, 173.9823303222656
0, 1, 89, 188.5935211181641
0, 1, 90, 211.9857177734375
0, 1, 91, 180.7713317871094
0, 1, 92, 183.6855010986328
0, 1, 93, 180.146484375
0, 1, 94, 184.669677734375
0, 1, 95, 182.2922515869141
0, 1, 96, 197.4873962402344
0, 1, 97, 182.1837463378906
0, 1, 98, 187.0456237792969
0, 1, 99, 175.2700347900391
0, 1, 100, 170.7621765136719
0, 1, 101, 179.0691528320312
0, 1, 102, 181.6817932128906
0, 1, 103, 173.7436676025391
0, 1, 104, 189.1519927978516
0, 1, 105, 182.0120239257812
0, 1, 106, 164.4568023681641
0, 1, 107, 124.1292343139648
0, 1, 108, 46.68168258666992
0, 1, 109, 9.735495567321777
0, 1, 110, 6.925047874450684
0, 1, 111, 6.521384716033936
0, 1, 112, 7.293421268463135
0, 1, 113, 7.084384918212891
0, 1, 114, 4.973998546600342
0, 1, 115, 2.014476776123047
0, 1, 116, 3.061199188232422
0, 1, 117, 4.105553150177002
0, 1, 118, 3.276510000228882
0, 1, 119, 1.791378974914551
0, 1, 120, 3.12106990814209
0, 1, 121, 3.665804386138916
0, 1, 122, 3.0462646484375
0, 1, 123, 1.683517813682556
0, 1, 124, 1.233638167381287
0, 1, 125, 2.094765901565552
0, 1, 126, 1.61370325088501
0, 1, 127, 1.606934070587158
0, 2, 0, 1.626853585243225
0, 2, 1, 1.884171485900879
0, 2, 2, 2.762523174285889
0, 2, 3, 2.118652105331421
0, 2, 4, 1.171639204025269
0, 2, 5, 1.211107730865479
0, 2, 6, 2.271573543548584
0, 2, 7, 1.718835473060608
0, 2, 8, 2.810394287109375
0, 2, 9, 3.163056612014771
0, 2, 10, 4.427428245544434
0, 2, 11, 3.958194255828857
0, 2, 12, 4.142018795013428
0, 2, 13, 5.117857456207275
0, 2, 14, 4.417293548583984
0, 2, 15, 4.834433078765869
0, 2, 16, 4.155205249786377
0, 2, 17, 9.251026153564453
0, 2, 18, 14.17434787750244
0, 2, 19, 77.26136779785156
0, 2, 20, 163.5239410400391
0, 2, 21, 184.6373138427734
0, 2, 22, 193.8463287353516
0, 2, 23, 184.1008758544922
0, 2, 24, 173.9087066650391
0, 2, 25, 183.7252502441406
0, 2, 26, 180.4825592041016
0, 2, 27, 188.1992034912109
0, 2, 28, 170.3397216796875
0, 2, 29, 168.2475891113281
0, 2, 30, 184.8895416259766
0, 2, 31, 182.8233489990234
0, 2, 32, 183.1529693603516
0, 2, 33, 190.804931640625
0, 2, 34, 199.0740203857422
0, 2, 35, 181.7590942382812
0, 2, 36, 185.5199432373047
0, 2, 37, 183.8415679931641
0, 2, 38, 184.0652313232422
0, 2, 39, 168.2078552246094
0, 2, 40, 184.3060607910156
0, 2, 41, 184.7195587158203
0, 2, 42, 189.4242706298828
0, 2, 43, 195.0137634277344
0, 2, 44, 192.9520111083984
0, 2, 45, 190.7317504882812
0, 2, 46, 196.2700653076172
0, 2, 47, 188.7304382324219
0, 2, 48, 177.5180206298828
0, 2, 49, 198.1681976318359
0, 2, 50, 167.0904846191406
0, 2, 51, 183.4529113769531
0, 2, 52, 187.1300659179688
0, 2, 53, 195.1998443603516
0, 2, 54, 180.1187591552734
0, 2, 55, 173.4365386962891
0, 2, 56, 181.4979400634766
0, 2, 57, 199.9136810302734
0, 2, 58, 187.4040985107422
0, 2, 59, 189.2457580566406
0, 2, 60, 196.3667297363281
0, 2, 61, 193.5275726318359
0, 2, 62, 190.9794311523438
0, 2, 63, 169.681884765625
0, 2, 64, 188.5762329101562
0, 2, 65, 202.7779541015625
0, 2, 66, 196.0868377685547
0, 2, 67, 184.0639495849609
0, 2, 68, 182.0944213867188
0, 2, 69, 188.7128601074219
0, 2, 70, 203.5456848144531
0, 2, 71, 176.0991973876953
0, 2, 72, 185.0702209472656
0, 2, 73, 177.4241333007812
0, 2, 74, 180.3239593505859
0, 2, 75, 196.8804626464844
0, 2, 76, 183.6035766601562
0, 2, 77, 177.6262664794922
0, 2, 78, 198.1243438720703
0, 2, 79, 178.4146881103516
0, 2, 80, 186.482666015625
0, 2, 81, 188.061767578125
0, 2, 82, 205.7565155029297
0, 2, 83, 204.1140899658203
0, 2, 84, 188.1204833984375
0, 2, 85, 170.8751983642578
0, 2, 86, 195.7768707275391
0, 2, 87, 171.9787292480469
0, 2, 88, 178.1394348144531
0, 2, 89, 186.2438201904297
0, 2, 90, 177.3695373535156
0, 2, 91, 174.5940704345703
0, 2, 92, 198.5370178222656
0, 2, 93, 194.4643096923828
0, 2, 94, 198.6037445068359
0, 2, 95, 196.8878479003906
0, 2, 96, 186.1106109619141
0, 2, 97, 171.6925811767578
0, 2, 98, 173.8253479003906
0, 2, 99, 162.4427947998047
0, 2, 100, 186.9745788574219
0, 2, 101, 196.0854644775391
0, 2, 102, 176.8761138916016
0, 2, 103, 199.0975494384766
0, 2, 104, 187.2350921630859
0, 2, 105, 199.3897247314453
0, 2, 106, 194.8388061523438
0, 2, 107, 149.0718841552734
0, 2, 108, 79.06703948974609
0, 2, 109, 17.67593002319336
0, 2, 110, 7.388912200927734
0, 2, 111, 5.867955207824707
0, 2, 112, 5.3291916847229
0, 2, 113, 4.754619121551514
0, 2, 114, 7.749213218688965
0, 2, 115, 4.929776191711426
0, 2, 116, 1.421965003013611
0, 2, 117, 1.912427067756653
0, 2, 118, 1.857751846313477
0, 2, 119, 3.002627849578857
0, 2, 120, 1.126562833786011
0, 2, 121, 3.08422064781189
0, 2, 122, 2.837421178817749
0, 2, 123, 2.763728141784668
0, 2, 124, 2.166925191879272
0, 2, 125, 1.825436234474182
0, 2, 126, 2.617415428161621
0, 2, 127, 2.703241348266602
0, 3, 0, 1.362159252166748
0, 3, 1, 1.651689171791077
0, 3, 2, 1.395198941230774
0, 3, 3, 0.5978386998176575
0, 3, 4, 3.469480752944946
0, 3, 5, 2.471998453140259
0, 3, 6, 2.642366886138916
0, 3, 7, 1.988415002822876
0, 3, 8, 1.5571368932724
0, 3, 9, 3.925137758255005
0, 3, 10, 4.53721809387207
0, 3, 11, 3.448951721191406
0, 3, 12, 3.136739015579224
0, 3, 13, 3.133355617523193
0, 3, 14, 4.139997482299805
0, 3, 15, 5.790365695953369
0, 3, 16, 7.797954082489014
0, 3, 17, 6.593869686126709
0, 3, 18, 34.098388671875
0, 3, 19, 114.5385284423828
0, 3, 20, 179.2003021240234
0, 3, 21, 172.6309967041016
0, 3, 22, 177.8260803222656
0, 3, 23, 187.4875030517578
0, 3, 24, 177.9552764892578
0, 3, 25, 168.6738739013672
0, 3, 26, 181.8372039794922
0, 3, 27, 189.8439636230469
0, 3, 28, 181.6462860107422
0, 3, 29, 198.2964172363281
0, 3, 30, 185.1799011230469
0, 3, 31, 193.0379486083984
0, 3, 32, 205.9182281494141
0, 3, 33, 196.5493927001953
0, 3, 34, 187.0385894775391
0, 3, 35, 175.387939453125
0, 3, 36, 185.0810394287109
0, 3, 37, 201.3460083007812
0, 3, 38, 190.4821624755859
0, 3, 39, 184.5321807861328
0, 3, 40, 166.3376922607422
0, 3, 41, 175.3749694824219
0, 3, 42, 185.1747283935547
0, 3, 43, 182.0751647949219
0, 3, 44, 204.9174346923828
0, 3, 45, 208.0441284179688
0, 3, 46, 198.6233978271484
0, 3, 47, 194.123046875
0, 3, 48, 195.21923828125
0, 3, 49, 179.5432586669922
0, 3, 50, 186.0060272216797
0, 3, 51, 174.2151641845703
0, 3, 52, 187.0003509521484
0, 3, 53, 177.3842010498047
0, 3, 54, 180.3792114257812
0, 3, 55, 176.5186004638672
0, 3, 56, 183.0922088623047
0, 3, 57, 175.5998687744141
0, 3, 58, 204.4919891357422
0, 3, 59, 196.4282684326172
0, 3, 60, 185.6124725341797
0, 3, 61, 181.31640625
0, 3, 62, 181.7398376464844
0, 3, 63, 183.5571594238281
0, 3, 64, 188.3645172119141
0, 3, 65, 189.1360168457031
0, 3, 66, 175.4784240722656
0, 3, 67, 191.0892333984375
0, 3, 68, 211.7723999023438
0, 3, 69, 188.9855041503906
0, 3, 70, 186.1121978759766
0, 3, 71, 197.9364166259766
0, 3, 72, 185.2844085693359
0, 3, 73, 186.5635375976562
0, 3, 74, 194.7829284667969
0, 3, 75, 193.4268493652344
0, 3, 76, 190.7884979248047
0, 3, 77, 197.8163909912109
0, 3, 78, 189.5180969238281
0, 3, 79, 184.3533020019531
0, 3, 80, 189.2716369628906
0, 3, 81, 184.7377014160156
0, 3, 82, 179.4534912109375
0, 3, 83, 197.4843292236328
0, 3, 84, 199.7257232666016
0, 3, 85, 191.8751068115234
0, 3, 86, 206.6125793457031
0, 3, 87, 198.3586883544922
0, 3, 88, 190.6566162109375
0, 3, 89, 192.5429229736328
0, 3, 90, 173.9237518310547
0, 3, 91, 158.2859802246094
0, 3, 92, 207.7072448730469
0, 3, 93, 195.6421203613281
0, 3, 94, 192.0497741699219
0, 3, 95, 211.7024230957031
0, 3, 96, 208.7459869384766
0, 3, 97, 168.6391754150391
0, 3, 98, 168.4296875
0, 3, 99, 179.5607757568359
0, 3, 100, 176.2244720458984
0, 3, 101, 197.6750640869141
0, 3, 102, 194.9265289306641
0, 3, 103, 193.4251708984375
0, 3, 104, 202.1483154296875
0, 3, 105, 175.3736877441406
0, 3, 106, 182.224365234375
0, 3, 107, 169.7155303955078
0, 3, 108, 107.5338973999023
0, 3, 109, 28.37231826782227
0, 3, 110, 7.605484962463379
0, 3, 111, 6.369216442108154
0, 3, 112, 3.861152410507202
0, 3, 113, 7.151342868804932
0, 3, 114, 7.807331085205078
0, 3, 115, 5.618448257446289
0, 3, 116, 6.52021312713623
0, 3, 117, 4.133711338043213
0, 3, 118, 3.948285579681396
0, 3, 119, 2.513433933258057
0, 3, 120, 3.61168360710144
0, 3, 121, 4.460976600646973
0, 3, 122, 3.58598780632019
0, 3, 123, 1.884896159172058
0, 3, 124, 2.338417768478394
0, 3, 125, 1.506117463111877
0, 3, 126, 1.077423453330994
0, 3, 127, 1.29605507850647
0, 4, 0, 2.22204852104187
0, 4, 1, 0.3369390964508057
0, 4, 2, 1.8662189245224
0, 4, 3, 3.73988676071167
0, 4, 4, 3.952518701553345
0, 4, 5, 0.6718204021453857
0, 4, 6, 2.842748165130615
0, 4, 7, 2.211562156677246
0, 4, 8, 1.619619607925415
0, 4, 9, 2.134676456451416
0, 4, 10, 5.321291446685791
0, 4, 11, 3.972986221313477
0, 4, 12, 4.623547077178955
0, 4, 13, 4.656725883483887
0, 4, 14, 4.375874519348145
0, 4, 15, 9.298452377319336
0, 4, 16, 6.184659957885742
0, 4, 17, 11.75706672668457
0, 4, 18, 55.42099761962891
0, 4, 19, 151.6150817871094
0, 4, 20, 193.3704223632812
0, 4, 21, 169.4286499023438
0, 4, 22, 187.6754302978516
0, 4, 23, 195.9150085449219
0, 4, 24, 192.7887573242188
0, 4, 25, 200.3672790527344
0, 4, 26, 183.4893493652344
0, 4, 27, 190.8519439697266
0, 4, 28, 178.362060546875
0, 4, 29, 204.9227752685547
0, 4, 30, 195.9812622070312
0, 4, 31, 194.6530151367188
0, 4, 32, 209.9297637939453
0, 4, 33, 190.4758911132812
0, 4, 34, 192.0255889892578
0, 4, 35, 212.7364044189453
0, 4, 36, 192.4354705810547
0, 4, 37, 176.9719696044922
0, 4, 38, 196.3451232910156
0, 4, 39, 188.9607849121094
0, 4, 40, 185.6618804931641
0, 4, 41, 188.4640960693359
0, 4, 42, 206.5657958984375
0, 4, 43, 174.9485321044922
0, 4, 44, 183.4937896728516
0, 4, 45, 197.3668060302734
0, 4, 46, 185.6508331298828
0, 4, 47, 180.7878570556641
0, 4, 48, 185.4130249023438
0, 4, 49, 175.8417510986328
0, 4, 50, 187.7471313476562
0, 4, 51, 198.4429168701172
0, 4, 52, 222.8932037353516
0, 4, 53, 205.6214599609375
0, 4, 54, 189.6639709472656
0, 4, 55, 175.3344573974609
0, 4, 56, 191.3763580322266
0, 4, 57, 191.7557830810547
0, 4, 58, 187.9147644042969
0, 4, 59, 190.8051300048828
0, 4, 60, 197.0157012939453
0, 4, 61, 193.3111267089844
0, 4, 62, 189.6790008544922
0, 4, 63, 179.4311676025391
0, 4, 64, 211.7517852783203
0, 4, 65, 191.0550994873047
0, 4, 66, 201.5136108398438
0, 4, 67, 199.7866058349609
0, 4, 68, 200.9375915527344
0, 4, 69, 198.3623962402344
0, 4, 70, 204.6677551269531
0, 4, 71, 206.5945129394531
0, 4, 72, 215.3169250488281
0, 4, 73, 185.6557769775391
0, 4, 74, 181.0933380126953
0, 4, 75, 185.6834106445312
0, 4, 76, 189.8366394042969
0, 4, 77, 182.3098907470703
0, 4, 78, 195.947265625
0, 4, 79, 205.0670776367188
0, 4, 80, 211.8121948242188
0, 4, 81, 197.7760314941406
0, 4, 82, 181.6721954345703
0, 4, 83, 170.1166381835938
0, 4, 84, 193.4573516845703
0, 4, 85, 196.0213470458984
0, 4, 86, 183.0129241943359
0, 4, 87, 184.8826599121094
0, 4, 88, 204.5940856933594
0, 4, 89, 187.3984985351562
0, 4, 90, 211.9196624755859
0, 4, 91, 189.9698791503906
0, 4, 92, 196.2788696289062
0, 4, 93, 195.0508270263672
0, 4, 94, 181.9962921142578
0, 4, 95, 174.4063720703125
0, 4, 96, 189.2892761230469
0, 4, 97, 192.8242797851562
0, 4, 98, 201.3009338378906
0, 4, 99, 184.3399963378906
0, 4, 100, 182.1416015625
0, 4, 101, 177.7408447265625
0, 4, 102, 173.1704711914062
0, 4, 103, 184.8836822509766
0, 4, 104, 209.7562408447266
0, 4, 105, 189.5298614501953
0, 4, 106, 179.2957458496094
0, 4, 107, 180.5122528076172
0, 4, 108, 151.8376007080078
0, 4, 109, 51.23282241821289
0, 4, 110, 12.09903812408447
0, 4, 111, 8.642601013183594
0, 4, 112, 5.733904838562012
0, 4, 113, 7.594846725463867
0, 4, 114, 4.13955020904541
0, 4, 115, 2.435290336608887
0, 4, 116, 4.636055946350098
0, 4, 117, 4.036568641662598
0, 4, 118, 3.861566305160522
0, 4, 119, 3.779170036315918
0, 4, 120, 2.546134948730469
0, 4, 121, 2.777469396591187
0, 4, 122, 4.256946086883545
0, 4, 123, 1.256946444511414
0, 4, 124, 3.098371744155884
0, 4, 125, 2.381378412246704
0, 4, 126, 0.7937408685684204
0, 4, 127, 1.8630450963974
0, 5, 0, 1.672602534294128
0, 5, 1, 3.520898580551147
0, 5, 2, 5.804347515106201
0, 5, 3, 4.032471656799316
0, 5, 4, 2.691549062728882
0, 5, 5, 2.444472074508667
0, 5, 6, 2.615006446838379
0, 5, 7, 2.723064184188843
0, 5, 8, 2.228498697280884
0, 5, 9, 2.05731463432312
0, 5, 10, 3.689142465591431
0, 5, 11, 2.540003061294556
0, 5, 12, 4.270408153533936
0, 5, 13, 3.271362066268921
0, 5, 14, 7.123438358306885
0, 5, 15, 7.88972282409668
0, 5, 16, 7.087600708007812
0, 5, 17, 22.17709541320801
0, 5, 18, 83.88871002197266
0, 5, 19, 165.7726593017578
0, 5, 20, 182.9684448242188
0, 5, 21, 177.6036987304688
0, 5, 22, 170.6022796630859
0, 5, 23, 200.9062194824219
0, 5, 24, 187.1590423583984
0, 5, 25, 210.1870727539062
0, 5, 26, 181.6025390625
0, 5, 27, 194.6689147949219
0, 5, 28, 191.3127136230469
0, 5, 29, 195.9457092285156
0, 5, 30, 178.6498718261719
0, 5, 31, 180.485107421875
0, 5, 32, 187.7834777832031
0, 5, 33, 169.2316436767578
0, 5, 34, 194.8612060546875
0, 5, 35, 197.2713165283203
0, 5, 36, 167.8266754150391
0, 5, 37, 197.1956634521484
0, 5, 38, 180.5468902587891
0, 5, 39, 186.7801513671875
0, 5, 40, 195.9102478027344
0, 5, 41, 176.5974273681641
0, 5, 42, 189.7089691162109
0, 5, 43, 192.7230072021484
0, 5, 44, 199.9257354736328
0, 5, 45, 186.1355895996094
0, 5, 46, 192.472412109375
0, 5, 47, 182.6064453125
0, 5, 48, 178.3104705810547
0, 5, 49, 176.4760131835938
0, 5, 50, 186.3792419433594
0, 5, 51, 173.7085876464844
0, 5, 52, 167.7902984619141
0, 5, 53, 181.0593719482422
0, 5, 54, 172.1052398681641
0, 5, 55, 216.4227142333984
0, 5, 56, 181.2744750976562
0, 5, 57, 207.5306243896484
0, 5, 58, 181.771728515625
0, 5, 59, 180.8563232421875
0, 5, 60, 218.2320709228516
0, 5, 61, 184.5500640869141
0, 5, 62, 178.1874237060547
0, 5, 63, 179.9971618652344
0, 5, 64, 195.3942718505859
0, 5, 65, 209.5857696533203
0, 5, 66, 192.7501373291016
0, 5, 67, 200.9737243652344
0, 5, 68, 186.9314117431641
0, 5, 69, 185.7125549316406
0, 5, 70, 184.9395294189453
0, 5, 71, 192.9850616455078
0, 5, 72, 198.1015777587891
0, 5, 73, 201.1204071044922
0, 5, 74, 179.9265441894531
0, 5, 75, 202.3007354736328
0, 5, 76, 213.5992889404297
0, 5, 77, 179.9633026123047
0, 5, 78, 193.9654541015625
0, 5, 79, 190.5178833007812
0, 5, 80, 197.2015991210938
0, 5, 81, 203.0707702636719
0, 5, 82, 204.1544189453125
0, 5, 83, 188.4057006835938
0, 5, 84, 206.7578582763672
0, 5, 85, 175.6768493652344
0, 5, 86, 194.4325714111328
0, 5, 87, 189.77734375
0, 5, 88, 177.6269226074219
0, 5, 89, 193.7724761962891
0, 5, 90, 198.4169158935547
0, 5, 91, 193.6658172607422
0, 5, 92, 190.6183319091797
0, 5, 93, 190.0007019042969
0, 5, 94, 208.0970916748047
0, 5, 95, 176.2999725341797
0, 5, 96, 183.0506744384766
0, 5, 97, 191.0077972412109
0, 5, 98, 189.4778900146484
0, 5, 99, 194.0877380371094
0, 5, 100, 186.1143493652344
0, 5, 101, 195.4048004150391
0, 5, 102, 181.8723449707031
0, 5, 103, 176.7416381835938
0, 5, 104, 190.5030822753906
0, 5, 105, 190.4483489990234
0, 5, 106, 176.8515472412109
0, 5, 107, 182.3486938476562
0, 5, 108, 177.1887512207031
0, 5, 109, 90.13007354736328
0, 5, 110, 31.03536987304688
0, 5, 111, 8.266487121582031
0, 5, 112, 6.466838359832764
0, 5, 113, 6.553420066833496
0, 5, 114, 5.365173816680908
0, 5, 115, 5.119561672210693
0, 5, 116, 3.606451272964478
0, 5, 117, 2.94499397277832
0, 5, 118, 3.326911687850952
0, 5, 119, 3.31619668006897
0, 5, 120, 1.907720565795898
0, 5, 121, 1.410003542900085
0, 5, 122, 3.025143623352051
0, 5, 123, 3.97870397567749
0, 5, 124, 2.661461353302002
0, 5, 125, 0.8349488973617554
0, 5, 126, 1.668609499931335
0, 5, 127, 2.305750608444214
0, 6, 0, 3.937759160995483
0, 6, 1, 2.43483567237854
0, 6, 2, 2.977648258209229
0, 6, 3, 1.563827395439148
0, 6, 4, 2.825459957122803
0, 6, 5, 2.047362565994263
0, 6, 6, 2.557656049728394
0, 6, 7, 3.702336549758911
0, 6, 8, 3.705681562423706
0, 6, 9, 3.037739515304565
0, 6, 10, 3.705224990844727
0, 6, 11, 3.621524810791016
0, 6, 12, 5.528721332550049
0, 6, 13, 4.599383354187012
0, 6, 14, 4.490484237670898
0, 6, 15, 6.756639003753662
0, 6, 16, 14.43231678009033
0, 6, 17, 28.27265357971191
0, 6, 18, 111.9902114868164
0, 6, 19, 192.4681854248047
0, 6, 20, 195.4586639404297
0, 6, 21, 197.8264007568359
0, 6, 22, 191.5729522705078
0, 6, 23, 190.36328125
0, 6, 24, 202.1273193359375
0, 6, 25, 183.2763671875
0, 6, 26, 187.112548828125
0, 6, 27, 191.7204132080078
0, 6, 28, 188.2540435791016
0, 6, 29, 210.4947052001953
0, 6, 30, 189.5320739746094
0, 6, 31, 193.1759948730469
0, 6, 32, 206.4104614257812
0, 6, 33, 186.2047424316406
0, 6, 34, 197.3026733398438
0, 6, 35, 187.0582885742188
0, 6, 36, 181.0731048583984
0, 6, 37, 182.6303405761719
0, 6, 38, 185.4569244384766
0, 6, 39, 193.6343536376953
0, 6, 40, 175.0785827636719
0, 6, 41, 185.0259399414062
0, 6, 42, 174.1271057128906
0, 6, 43, 208.6976623535156
0, 6, 44, 209.1734008789062
0, 6, 45, 193.0939483642578
0, 6, 46, 187.6385498046875
0, 6, 47, 204.3711700439453
0, 6, 48, 188.6696014404297
0, 6, 49, 180.2030029296875
0, 6, 50, 181.9181671142578
0, 6, 51, 196.6808319091797
0, 6, 52, 198.1910400390625
0, 6, 53, 185.8705139160156
0, 6, 54, 175.7267150878906
0, 6, 55, 196.5792694091797
0, 6, 56, 202.2182159423828
0, 6, 57, 190.3455047607422
0, 6, 58, 179.2592926025391
0, 6, 59, 191.6520233154297
0, 6, 60, 183.5709075927734
0, 6, 61, 193.9804992675781
0, 6, 62, 196.5235748291016
0, 6, 63, 186.5550079345703
0, 6, 64, 168.4182586669922
0, 6, 65, 186.1125640869141
0, 6, 66, 197.4396667480469
0, 6, 67, 214.21533203125
0, 6, 68, 180.0997314453125
0, 6, 69, 172.9469909667969
0, 6, 70, 188.5701293945312
0, 6, 71, 170.4976501464844
0, 6, 72, 175.9965667724609
0, 6, 73, 177.2913665771484
0, 6, 74, 209.5772094726562
0, 6, 75, 227.7427368164062
0, 6, 76, 184.1837768554688
0, 6, 77, 173.3380584716797
0, 6, 78, 174.9401550292969
0, 6, 79, 187.0694274902344
0, 6, 80, 186.9348602294922
0, 6, 81, 208.9215545654297
0, 6, 82, 195.4055480957031
0, 6, 83, 196.0252990722656
0, 6, 84, 197.2596893310547
0, 6, 85, 180.3921966552734
0, 6, 86, 200.6667938232422
0, 6, 87, 183.5828552246094
0, 6, 88, 193.0976257324219
0, 6, 89, 189.5368804931641
0, 6, 90, 207.2673645019531
0, 6, 91, 201.9614562988281
0, 6, 92, 172.8539123535156
0, 6, 93, 192.8529205322266
0, 6, 94, 189.6653289794922
0, 6, 95, 186.5048217773438
0, 6, 96, 190.1886596679688
0, 6, 97, 195.0333404541016
0, 6, 98, 184.0303039550781
0, 6, 99, 175.6021118164062
0, 6, 100, 202.1284332275391
0, 6, 101, 167.922119140625
0, 6, 102, 203.6149749755859
0, 6, 103, 195.9306182861328
0, 6, 104, 183.3444366455078
0, 6, 105, 194.0122528076172
0, 6, 106, 177.0884704589844
0, 6, 107, 194.2178497314453
0, 6, 108, 171.7556457519531
0, 6, 109, 115.9189071655273
0, 6, 110, 35.10334396362305
0, 6, 111, 10.04863929748535
0, 6, 112, 8.654592514038086
0, 6, 113, 5.54121732711792
0, 6, 114, 5.386375427246094
0, 6, 115, 6.149127960205078
0, 6, 116, 3.586070537567139
0, 6, 117, 2.562161922454834
0, 6, 118, 2.989736795425415
0, 6, 119, 3.530826091766357
0, 6, 120, 1.104586839675903
0, 6, 121, 4.76151180267334
0, 6, 122, 3.010183334350586
0, 6, 123, 3.34688925743103
0, 6, 124, 1.654918551445007
0, 6, 125, 3.051618814468384
0, 6, 126, 1.97210955619812
0, 6, 127, 2.60590672492981
0, 7, 0, 4.605427742004395
0, 7, 1, 1.084992051124573
0, 7, 2, 1.796536326408386
0, 7, 3, 3.980352163314819
0, 7, 4, 1.291138768196106
0, 7, 5, 1.733515620231628
0, 7, 6, 1.818951845169067
0, 7, 7, 1.167609453201294
0, 7, 8, 3.518173694610596
0, 7, 9, 6.723426342010498
0, 7, 10, 6.318351268768311
0, 7, 11, 2.803918600082397
0, 7, 12, 4.037232398986816
0, 7, 13, 7.37827205657959
0, 7, 14, 7.524044036865234
0, 7, 15, 7.004861354827881
0, 7, 16, 15.1887264251709
0, 7, 17, 52.22549819946289
0, 7, 18, 161.3829040527344
0, 7, 19, 182.8918151855469
0, 7, 20, 178.6521759033203
0, 7, 21, 179.5451507568359
0, 7, 22, 191.4734191894531
0, 7, 23, 202.9192810058594
0, 7, 24, 179.4797210693359
0, 7, 25, 212.0013580322266
0, 7, 26, 188.9075164794922
0, 7, 27, 181.6148681640625
0, 7, 28, 183.0849304199219
0, 7, 29, 209.6060791015625
0, 7, 30, 193.6508636474609
0, 7, 31, 176.4134979248047
0, 7, 32, 192.4767761230469
0, 7, 33, 180.5588684082031
0, 7, 34, 193.3758850097656
0, 7, 35, 199.0488586425781
0, 7, 36, 186.2015228271484
0, 7, 37, 214.2046813964844
0, 7, 38, 192.1155853271484
0, 7, 39, 174.3835144042969
0, 7, 40, 182.7925720214844
0, 7, 41, 184.8716278076172
0, 7, 42, 177.5881042480469
0, 7, 43, 178.1135864257812
0, 7, 44, 178.7913208007812
0, 7, 45, 173.7274322509766
0, 7, 46, 189.9671020507812
0, 7, 47, 200.2600708007812
0, 7, 48, 186.9439849853516
0, 7, 49, 198.4770660400391
0, 7, 50, 187.6801147460938
0, 7, 51, 204.2689208984375
0, 7, 52, 204.5525054931641
0, 7, 53, 191.2246398925781
0, 7, 54, 196.8719482421875
0, 7, 55, 203.0792236328125
0, 7, 56, 183.1514282226562
0, 7, 57, 182.3988037109375
0, 7, 58, 191.0019989013672
0, 7, 59, 186.7945404052734
0, 7, 60, 203.2149658203125
0, 7, 61, 171.0188751220703
0, 7, 62, 202.4941864013672
0, 7, 63, 189.4581146240234
0, 7, 64, 199.4599761962891
0, 7, 65, 196.9359436035156
0, 7, 66, 206.8605651855469
0, 7, 67, 219.5135192871094
0, 7, 68, 162.0608062744141
0, 7, 69, 196.0534210205078
0, 7, 70, 217.2054290771484
0, 7, 71, 184.4063110351562
0, 7, 72, 180.8566284179688
0, 7, 73, 176.8794403076172
0, 7, 74, 207.9359741210938
0, 7, 75, 204.1100463867188
0, 7, 76, 214.1256256103516
0, 7, 77, 174.8638305664062
0, 7, 78, 176.3878784179688
0, 7, 79, 193.8668212890625
0, 7, 80, 195.4217834472656
0, 7, 81, 217.3846740722656
0, 7, 82, 185.2583923339844
0, 7, 83, 206.6513519287109
0, 7, 84, 191.4988861083984
0, 7, 85, 186.1272430419922
0, 7, 86, 200.3846435546875
0, 7, 87, 227.2826843261719
0, 7, 88, 194.9374694824219
0, 7, 89, 177.1684722900391
0, 7, 90, 182.0936126708984
0, 7, 91, 194.5574493408203
0, 7, 92, 194.4055480957031
0, 7, 93, 198.5187225341797
0, 7, 94, 177.0849761962891
0, 7, 95, 198.2264251708984
0, 7, 96, 209.5102996826172
0, 7, 97, 189.3654937744141
0, 7, 98, 176.0677337646484
0, 7, 99, 198.6101531982422
0, 7, 100, 182.22509765625
0, 7, 101, 198.9062957763672
0, 7, 102, 185.4455871582031
0, 7, 103, 183.3027038574219
0, 7, 104, 175.9631500244141
0, 7, 105, 195.4867248535156
0, 7, 106, 207.4939422607422
0, 7, 107, 172.7905578613281
0, 7, 108, 176.7009124755859
0, 7, 109, 137.3328552246094
0, 7, 110, 55.12895584106445
0, 7, 111, 10.27005958557129
0, 7, 112, 8.348001480102539
0, 7, 113, 8.567641258239746
0, 7, 114, 6.733264923095703
0, 7, 115, 5.393882751464844
0, 7, 116, 4.09013557434082
0, 7, 117, 2.396917104721069
0, 7, 118, 4.530270576477051
0, 7, 119, 2.440720796585083
0, 7, 120, 3.137017250061035
0, 7, 121, 3.407023906707764
0, 7, 122, 2.329339027404785
0, 7, 123, 0.9770616888999939
0, 7, 124, 1.384706258773804
0, 7, 125, 1.960974931716919
0, 7, 126, 2.774284839630127
0, 7, 127, 1.606887340545654
0, 8, 0, 4.104639053344727
0, 8, 1, 3.015229463577271
0, 8, 2, 3.521033525466919
0, 8, 3, 1.997716188430786
0, 8, 4, 2.056019067764282
0, 8, 5, 3.686410188674927
0, 8, 6, 2.915842056274414
0, 8, 7, 3.815284490585327
0, 8, 8, 3.688930988311768
0, 8, 9, 3.650806903839111
0, 8, 10, 2.535770893096924
0, 8, 11, 2.59920859336853
0, 8, 12, 4.34924840927124
0, 8, 13, 6.241692066192627
0, 8, 14, 7.030573844909668
0, 8, 15, 9.245670318603516
0, 8, 16, 18.92754364013672
0, 8, 17, 74.71784973144531
0, 8, 18, 142.3304138183594
0, 8, 19, 178.6606903076172
0, 8, 20, 192.0311584472656
0, 8, 21, 191.9990234375
0, 8, 22, 179.7518768310547
0, 8, 23, 172.4112854003906
0, 8, 24, 192.8485565185547
0, 8, 25, 186.3246765136719
0, 8, 26, 192.4996643066406
0, 8, 27, 186.2098693847656
0, 8, 28, 185.5936737060547
0, 8, 29, 206.4235382080078
0, 8, 30, 195.9040069580078
0, 8, 31, 183.3341369628906
0, 8, 32, 200.02099609375
0, 8, 33, 206.6048431396484
0, 8, 34, 203.7777252197266
0, 8, 35, 184.84521484375
0, 8, 36, 181.2301483154297
0, 8, 37, 198.7335357666016
