# TOPAS Version: 3.1.p3
# Parameter File: batch_inserts_336.txt
# Results for scorer Readout_Adipose
# Scored in component: MyBox
# X in 1 bin  of 0.65 cm
# Y in 512 bins of 0.0783984 cm
# Z in 128 bins of 0.078125 cm
# EnergyDeposit ( MeV ) : Sum   
0, 0, 0, 1.633851885795593
0, 0, 1, 4.933088779449463
0, 0, 2, 2.475245237350464
0, 0, 3, 1.050450682640076
0, 0, 4, 1.212932109832764
0, 0, 5, 1.486869096755981
0, 0, 6, 1.556721568107605
0, 0, 7, 2.259118795394897
0, 0, 8, 2.390621185302734
0, 0, 9, 2.591414213180542
0, 0, 10, 3.275633335113525
0, 0, 11, 3.385814428329468
0, 0, 12, 3.19749903678894
0, 0, 13, 1.85191023349762
0, 0, 14, 5.528937816619873
0, 0, 15, 4.933239936828613
0, 0, 16, 4.078820705413818
0, 0, 17, 6.837070941925049
0, 0, 18, 6.420608520507812
0, 0, 19, 22.91391944885254
0, 0, 20, 93.74614715576172
0, 0, 21, 152.8798370361328
0, 0, 22, 153.5151824951172
0, 0, 23, 144.0995635986328
0, 0, 24, 160.3869781494141
0, 0, 25, 165.6615753173828
0, 0, 26, 166.180908203125
0, 0, 27, 173.7422637939453
0, 0, 28, 178.3484039306641
0, 0, 29, 174.8744354248047
0, 0, 30, 172.0589294433594
0, 0, 31, 166.435791015625
0, 0, 32, 164.4499969482422
0, 0, 33, 166.2200317382812
0, 0, 34, 179.2169189453125
0, 0, 35, 175.6714019775391
0, 0, 36, 161.2186584472656
0, 0, 37, 160.6774444580078
0, 0, 38, 166.2377166748047
0, 0, 39, 159.1585083007812
0, 0, 40, 164.6218414306641
0, 0, 41, 165.9026031494141
0, 0, 42, 143.6364593505859
0, 0, 43, 167.8278350830078
0, 0, 44, 177.5236968994141
0, 0, 45, 172.346923828125
0, 0, 46, 165.9238586425781
0, 0, 47, 167.8335418701172
0, 0, 48, 169.4751434326172
0, 0, 49, 183.3455352783203
0, 0, 50, 170.4720458984375
0, 0, 51, 163.2211151123047
0, 0, 52, 162.4344787597656
0, 0, 53, 171.0381317138672
0, 0, 54, 160.5057373046875
0, 0, 55, 164.2778472900391
0, 0, 56, 189.0953979492188
0, 0, 57, 170.5659942626953
0, 0, 58, 162.8860168457031
0, 0, 59, 172.9524383544922
0, 0, 60, 168.7503967285156
0, 0, 61, 169.0077667236328
0, 0, 62, 183.2726593017578
0, 0, 63, 167.0035247802734
0, 0, 64, 165.6692047119141
0, 0, 65, 178.5435333251953
0, 0, 66, 177.6523284912109
0, 0, 67, 164.1608581542969
0, 0, 68, 158.5174255371094
0, 0, 69, 158.3218994140625
0, 0, 70, 169.3271942138672
0, 0, 71, 159.1326293945312
0, 0, 72, 162.4507751464844
0, 0, 73, 171.8555755615234
0, 0, 74, 163.3998718261719
0, 0, 75, 163.6887359619141
0, 0, 76, 163.2014465332031
0, 0, 77, 171.6870574951172
0, 0, 78, 181.5435485839844
0, 0, 79, 174.9586944580078
0, 0, 80, 160.2552947998047
0, 0, 81, 161.6678314208984
0, 0, 82, 181.2942810058594
0, 0, 83, 172.4208984375
0, 0, 84, 159.7789154052734
0, 0, 85, 181.6372375488281
0, 0, 86, 158.5551300048828
0, 0, 87, 177.3622283935547
0, 0, 88, 175.7133941650391
0, 0, 89, 175.0486755371094
0, 0, 90, 161.0225677490234
0, 0, 91, 184.4412689208984
0, 0, 92, 165.3998565673828
0, 0, 93, 155.2208862304688
0, 0, 94, 168.2659149169922
0, 0, 95, 173.3305816650391
0, 0, 96, 183.9191436767578
0, 0, 97, 184.3789825439453
0, 0, 98, 186.2920379638672
0, 0, 99, 170.6561126708984
0, 0, 100, 157.9237670898438
0, 0, 101, 166.6680145263672
0, 0, 102, 171.6110229492188
0, 0, 103, 170.2610931396484
0, 0, 104, 170.1563262939453
0, 0, 105, 176.4212646484375
0, 0, 106, 158.7109069824219
0, 0, 107, 86.96316528320312
0, 0, 108, 22.41617965698242
0, 0, 109, 11.67795753479004
0, 0, 110, 6.378957271575928
0, 0, 111, 6.609215259552002
0, 0, 112, 2.717228889465332
0, 0, 113, 2.992175579071045
0, 0, 114, 2.533291101455688
0, 0, 115, 3.368689060211182
0, 0, 116, 2.454439878463745
0, 0, 117, 1.723572611808777
0, 0, 118, 3.87041974067688
0, 0, 119, 2.184987545013428
0, 0, 120, 1.309297800064087
0, 0, 121, 4.147428035736084
0, 0, 122, 4.600907802581787
0, 0, 123, 4.260484218597412
0, 0, 124, 3.476763725280762
0, 0, 125, 2.41566276550293
0, 0, 126, 0.9607891440391541
0, 0, 127, 2.119526863098145
0, 1, 0, 0.7369437217712402
0, 1, 1, 5.036581993103027
0, 1, 2, 2.282242298126221
0, 1, 3, 1.296180605888367
0, 1, 4, 1.748955607414246
0, 1, 5, 2.241101503372192
0, 1, 6, 1.398751616477966
0, 1, 7, 3.696810007095337
0, 1, 8, 2.640107870101929
0, 1, 9, 2.071380138397217
0, 1, 10, 2.126278400421143
0, 1, 11, 4.723232269287109
0, 1, 12, 4.040422916412354
0, 1, 13, 4.770793914794922
0, 1, 14, 6.676112174987793
0, 1, 15, 6.607076644897461
0, 1, 16, 8.276201248168945
0, 1, 17, 6.011232376098633
0, 1, 18, 11.02778720855713
0, 1, 19, 38.5772590637207
0, 1, 20, 126.2776107788086
0, 1, 21, 179.1813201904297
0, 1, 22, 193.4689636230469
0, 1, 23, 187.6010131835938
0, 1, 24, 179.5984649658203
0, 1, 25, 191.6371612548828
0, 1, 26, 198.7992095947266
0, 1, 27, 186.3217010498047
0, 1, 28, 187.7156982421875
0, 1, 29, 183.5360717773438
0, 1, 30, 180.0933227539062
0, 1, 31, 182.4454498291016
0, 1, 32, 188.7306823730469
0, 1, 33, 189.9162139892578
0, 1, 34, 185.4441680908203
0, 1, 35, 194.0224761962891
0, 1, 36, 206.2756652832031
0, 1, 37, 184.0532531738281
0, 1, 38, 165.1192626953125
0, 1, 39, 171.3319091796875
0, 1, 40, 181.9256744384766
0, 1, 41, 186.1987457275391
0, 1, 42, 183.1318817138672
0, 1, 43, 186.5913238525391
0, 1, 44, 169.5395812988281
0, 1, 45, 187.8881683349609
0, 1, 46, 172.1878509521484
0, 1, 47, 186.3237915039062
0, 1, 48, 188.0092010498047
0, 1, 49, 186.1595153808594
0, 1, 50, 177.4109954833984
0, 1, 51, 191.7454071044922
0, 1, 52, 195.5236206054688
0, 1, 53, 197.2777252197266
0, 1, 54, 185.2665863037109
0, 1, 55, 165.3954315185547
0, 1, 56, 178.4011840820312
0, 1, 57, 177.7920837402344
0, 1, 58, 189.46923828125
0, 1, 59, 193.4172515869141
0, 1, 60, 187.3621978759766
0, 1, 61, 178.810546875
0, 1, 62, 204.5876770019531
0, 1, 63, 175.1155853271484
0, 1, 64, 174.6014099121094
0, 1, 65, 186.4001922607422
0, 1, 66, 204.571533203125
0, 1, 67, 182.9218902587891
0, 1, 68, 186.4807281494141
0, 1, 69, 189.9108123779297
0, 1, 70, 185.4073791503906
0, 1, 71, 171.3759460449219
0, 1, 72, 187.6708374023438
0, 1, 73, 189.5671997070312
0, 1, 74, 200.9260711669922
0, 1, 75, 183.3308563232422
0, 1, 76, 173.9553680419922
0, 1, 77, 193.0102691650391
0, 1, 78, 189.0421600341797
0, 1, 79, 201.4483489990234
0, 1, 80, 185.2202606201172
0, 1, 81, 175.2359313964844
0, 1, 82, 207.0721893310547
0, 1, 83, 211.2232513427734
0, 1, 84, 179.6612243652344
0, 1, 85, 170.1973571777344
0, 1, 86, 170.4848327636719
0, 1, 87, 185.4056549072266
0, 1, 88, 176.4227142333984
0, 1, 89, 186.4735717773438
0, 1, 90, 213.0854034423828
0, 1, 91, 181.6816711425781
0, 1, 92, 184.3521270751953
0, 1, 93, 180.0733795166016
0, 1, 94, 184.8486785888672
0, 1, 95, 182.0576934814453
0, 1, 96, 196.974609375
0, 1, 97, 182.9556121826172
0, 1, 98, 187.3526763916016
0, 1, 99, 176.0010833740234
0, 1, 100, 173.0617523193359
0, 1, 101, 177.9548034667969
0, 1, 102, 182.5460052490234
0, 1, 103, 172.6769561767578
0, 1, 104, 188.7741851806641
0, 1, 105, 182.5784149169922
0, 1, 106, 164.1320343017578
0, 1, 107, 124.1141510009766
0, 1, 108, 51.80377960205078
0, 1, 109, 12.17729473114014
0, 1, 110, 8.059457778930664
0, 1, 111, 7.153359889984131
0, 1, 112, 8.743363380432129
0, 1, 113, 8.203853607177734
0, 1, 114, 5.053757667541504
0, 1, 115, 3.474973678588867
0, 1, 116, 3.774400472640991
0, 1, 117, 2.430582523345947
0, 1, 118, 3.694733858108521
0, 1, 119, 0.7884329557418823
0, 1, 120, 3.37243390083313
0, 1, 121, 3.900602579116821
0, 1, 122, 2.547946214675903
0, 1, 123, 4.780562400817871
0, 1, 124, 1.715038180351257
0, 1, 125, 2.11275053024292
0, 1, 126, 1.341822266578674
0, 1, 127, 1.497371673583984
0, 2, 0, 1.699490070343018
0, 2, 1, 1.438451886177063
0, 2, 2, 1.942774295806885
0, 2, 3, 2.166052579879761
0, 2, 4, 2.309707164764404
0, 2, 5, 0.5900283455848694
0, 2, 6, 2.210322618484497
0, 2, 7, 2.575585603713989
0, 2, 8, 0.7243357300758362
0, 2, 9, 1.721129417419434
0, 2, 10, 4.582791328430176
0, 2, 11, 5.16536283493042
0, 2, 12, 4.014262676239014
0, 2, 13, 3.459107160568237
0, 2, 14, 4.301094532012939
0, 2, 15, 5.020309448242188
0, 2, 16, 4.88712739944458
0, 2, 17, 8.618640899658203
0, 2, 18, 14.28175640106201
0, 2, 19, 77.36600494384766
0, 2, 20, 163.0811309814453
0, 2, 21, 183.0978698730469
0, 2, 22, 194.2350921630859
0, 2, 23, 184.6789855957031
0, 2, 24, 173.2830047607422
0, 2, 25, 183.5664978027344
0, 2, 26, 180.4454040527344
0, 2, 27, 188.9181671142578
0, 2, 28, 170.3986053466797
0, 2, 29, 168.2574310302734
0, 2, 30, 183.6210784912109
0, 2, 31, 182.0228729248047
0, 2, 32, 183.8693237304688
0, 2, 33, 191.6321258544922
0, 2, 34, 197.4805603027344
0, 2, 35, 182.1011352539062
0, 2, 36, 185.1262817382812
0, 2, 37, 181.5217590332031
0, 2, 38, 184.7790222167969
0, 2, 39, 167.4044342041016
0, 2, 40, 185.5065002441406
0, 2, 41, 183.3093566894531
0, 2, 42, 189.6107025146484
0, 2, 43, 193.2712249755859
0, 2, 44, 191.4177703857422
0, 2, 45, 191.5518188476562
0, 2, 46, 197.5875854492188
0, 2, 47, 190.1197204589844
0, 2, 48, 176.3766479492188
0, 2, 49, 197.1693115234375
0, 2, 50, 167.7927093505859
0, 2, 51, 184.29443359375
0, 2, 52, 187.1564331054688
0, 2, 53, 195.9278717041016
0, 2, 54, 175.6924896240234
0, 2, 55, 173.3760375976562
0, 2, 56, 181.7634429931641
0, 2, 57, 199.8943481445312
0, 2, 58, 186.8384552001953
0, 2, 59, 189.1124725341797
0, 2, 60, 197.2434844970703
0, 2, 61, 193.0026397705078
0, 2, 62, 191.1227264404297
0, 2, 63, 169.1062316894531
0, 2, 64, 189.9793701171875
0, 2, 65, 202.0597534179688
0, 2, 66, 195.6178894042969
0, 2, 67, 185.5467987060547
0, 2, 68, 182.5350799560547
0, 2, 69, 186.6121673583984
0, 2, 70, 202.406982421875
0, 2, 71, 174.4095306396484
0, 2, 72, 185.9265289306641
0, 2, 73, 177.3253631591797
0, 2, 74, 180.7782440185547
0, 2, 75, 196.0998992919922
0, 2, 76, 183.3797607421875
0, 2, 77, 177.0470275878906
0, 2, 78, 199.1382446289062
0, 2, 79, 177.8739776611328
0, 2, 80, 185.8178405761719
0, 2, 81, 187.3671569824219
0, 2, 82, 207.3775634765625
0, 2, 83, 203.0649566650391
0, 2, 84, 187.9452209472656
0, 2, 85, 170.4380035400391
0, 2, 86, 198.560302734375
0, 2, 87, 171.9301300048828
0, 2, 88, 176.7496948242188
0, 2, 89, 185.8446502685547
0, 2, 90, 177.6600494384766
0, 2, 91, 174.2598419189453
0, 2, 92, 196.6064910888672
0, 2, 93, 192.1414642333984
0, 2, 94, 200.7827453613281
0, 2, 95, 194.414794921875
0, 2, 96, 186.4277801513672
0, 2, 97, 172.4494171142578
0, 2, 98, 172.9448699951172
0, 2, 99, 163.7265167236328
0, 2, 100, 187.7356872558594
0, 2, 101, 196.9743804931641
0, 2, 102, 177.5282745361328
0, 2, 103, 199.0619201660156
0, 2, 104, 187.3263549804688
0, 2, 105, 200.4281921386719
0, 2, 106, 195.6921997070312
0, 2, 107, 149.3486633300781
0, 2, 108, 79.3463134765625
0, 2, 109, 18.44655799865723
0, 2, 110, 8.68247127532959
0, 2, 111, 6.460893630981445
0, 2, 112, 3.079781770706177
0, 2, 113, 4.292386054992676
0, 2, 114, 7.425056934356689
0, 2, 115, 5.692496299743652
0, 2, 116, 1.173574090003967
0, 2, 117, 3.227354764938354
0, 2, 118, 1.648862242698669
0, 2, 119, 2.322121620178223
0, 2, 120, 2.922230005264282
0, 2, 121, 3.896040678024292
0, 2, 122, 2.369015693664551
0, 2, 123, 1.372240424156189
0, 2, 124, 1.778076648712158
0, 2, 125, 2.005432844161987
0, 2, 126, 3.074246644973755
0, 2, 127, 0.5601563453674316
0, 3, 0, 2.66729474067688
0, 3, 1, 1.849834442138672
0, 3, 2, 1.623931646347046
0, 3, 3, 1.124850273132324
0, 3, 4, 3.625006437301636
0, 3, 5, 2.491769552230835
0, 3, 6, 1.289557099342346
0, 3, 7, 1.471222639083862
0, 3, 8, 3.615760087966919
0, 3, 9, 2.570535659790039
0, 3, 10, 1.560816168785095
0, 3, 11, 4.226219654083252
0, 3, 12, 3.119854211807251
0, 3, 13, 3.040540456771851
0, 3, 14, 4.682220458984375
0, 3, 15, 7.790626525878906
0, 3, 16, 7.332590103149414
0, 3, 17, 6.846582412719727
0, 3, 18, 33.067138671875
0, 3, 19, 117.1548004150391
0, 3, 20, 180.1690979003906
0, 3, 21, 172.1744842529297
0, 3, 22, 179.0619049072266
0, 3, 23, 188.2433929443359
0, 3, 24, 177.8092956542969
0, 3, 25, 168.1998138427734
0, 3, 26, 180.7124328613281
0, 3, 27, 189.0685424804688
0, 3, 28, 182.6845397949219
0, 3, 29, 198.1707611083984
0, 3, 30, 184.9800415039062
0, 3, 31, 193.0417938232422
0, 3, 32, 206.0491027832031
0, 3, 33, 196.7397918701172
0, 3, 34, 188.4881744384766
0, 3, 35, 174.2404327392578
0, 3, 36, 185.0507965087891
0, 3, 37, 200.1890258789062
0, 3, 38, 191.9459228515625
0, 3, 39, 186.3786773681641
0, 3, 40, 165.5064086914062
0, 3, 41, 174.6150360107422
0, 3, 42, 185.7696380615234
0, 3, 43, 181.1135864257812
0, 3, 44, 202.3761901855469
0, 3, 45, 207.6915130615234
0, 3, 46, 198.7034759521484
0, 3, 47, 194.3003997802734
0, 3, 48, 197.1646270751953
0, 3, 49, 179.9356842041016
0, 3, 50, 186.51953125
0, 3, 51, 174.2997894287109
0, 3, 52, 187.5217895507812
0, 3, 53, 179.1816864013672
0, 3, 54, 178.4849090576172
0, 3, 55, 177.0552825927734
0, 3, 56, 182.8880310058594
0, 3, 57, 175.3427429199219
0, 3, 58, 201.2457427978516
0, 3, 59, 197.7377319335938
0, 3, 60, 187.4489288330078
0, 3, 61, 180.9276580810547
0, 3, 62, 182.8091125488281
0, 3, 63, 185.1320190429688
0, 3, 64, 187.6038513183594
0, 3, 65, 187.3029479980469
0, 3, 66, 175.0627136230469
0, 3, 67, 191.5463714599609
0, 3, 68, 212.0067596435547
0, 3, 69, 189.8473358154297
0, 3, 70, 185.9492492675781
0, 3, 71, 196.7642211914062
0, 3, 72, 185.6494445800781
0, 3, 73, 186.1111450195312
0, 3, 74, 193.4761657714844
0, 3, 75, 192.5016784667969
0, 3, 76, 190.2122802734375
0, 3, 77, 197.7195129394531
0, 3, 78, 188.4521179199219
0, 3, 79, 185.6749114990234
0, 3, 80, 189.9495239257812
0, 3, 81, 186.2969512939453
0, 3, 82, 180.0689849853516
0, 3, 83, 195.0523834228516
0, 3, 84, 199.5481567382812
0, 3, 85, 191.4980621337891
0, 3, 86, 203.3600769042969
0, 3, 87, 198.8285369873047
0, 3, 88, 190.7947082519531
0, 3, 89, 193.04345703125
0, 3, 90, 173.3936614990234
0, 3, 91, 158.5170288085938
0, 3, 92, 208.1037139892578
0, 3, 93, 196.36328125
0, 3, 94, 193.3014373779297
0, 3, 95, 210.9262237548828
0, 3, 96, 208.3831481933594
0, 3, 97, 169.0806427001953
0, 3, 98, 166.625244140625
0, 3, 99, 180.2749176025391
0, 3, 100, 179.2136993408203
0, 3, 101, 197.3640441894531
0, 3, 102, 194.9553375244141
0, 3, 103, 192.5839538574219
0, 3, 104, 202.1074523925781
0, 3, 105, 176.2055358886719
0, 3, 106, 183.173828125
0, 3, 107, 170.3033142089844
0, 3, 108, 108.5106506347656
0, 3, 109, 27.44679069519043
0, 3, 110, 8.024843215942383
0, 3, 111, 6.350485801696777
0, 3, 112, 3.792744636535645
0, 3, 113, 6.800961494445801
0, 3, 114, 4.313621997833252
0, 3, 115, 4.98611307144165
0, 3, 116, 5.792452335357666
0, 3, 117, 3.264705896377563
0, 3, 118, 1.204588651657104
0, 3, 119, 2.808038949966431
0, 3, 120, 3.145463228225708
0, 3, 121, 3.814510822296143
0, 3, 122, 2.714540958404541
0, 3, 123, 1.592953324317932
0, 3, 124, 2.073126792907715
0, 3, 125, 1.024455904960632
0, 3, 126, 1.851842761039734
0, 3, 127, 1.500456094741821
0, 4, 0, 1.413101553916931
0, 4, 1, 1.777490377426147
0, 4, 2, 3.624545335769653
0, 4, 3, 3.409927845001221
0, 4, 4, 1.691296339035034
0, 4, 5, 1.393759846687317
0, 4, 6, 2.77534556388855
0, 4, 7, 2.566111087799072
0, 4, 8, 1.294709205627441
0, 4, 9, 2.364463806152344
0, 4, 10, 3.445039033889771
0, 4, 11, 3.885577440261841
0, 4, 12, 3.939327239990234
0, 4, 13, 4.298425197601318
0, 4, 14, 4.125678539276123
0, 4, 15, 8.668757438659668
0, 4, 16, 7.577564239501953
0, 4, 17, 11.35769653320312
0, 4, 18, 55.09756469726562
0, 4, 19, 150.1194152832031
0, 4, 20, 192.8972930908203
0, 4, 21, 169.0141296386719
0, 4, 22, 187.1895141601562
0, 4, 23, 195.7247772216797
0, 4, 24, 191.9490661621094
0, 4, 25, 198.9656677246094
0, 4, 26, 182.7219085693359
0, 4, 27, 190.9510650634766
0, 4, 28, 177.8682708740234
0, 4, 29, 205.6103668212891
0, 4, 30, 194.6072692871094
0, 4, 31, 195.4430236816406
0, 4, 32, 210.4927062988281
0, 4, 33, 190.6188049316406
0, 4, 34, 192.5642242431641
0, 4, 35, 215.1168518066406
0, 4, 36, 193.2342224121094
0, 4, 37, 178.2720336914062
0, 4, 38, 195.0831146240234
0, 4, 39, 190.0030517578125
0, 4, 40, 185.5040893554688
0, 4, 41, 189.5518341064453
0, 4, 42, 205.5490264892578
0, 4, 43, 174.4447937011719
0, 4, 44, 183.8900909423828
0, 4, 45, 197.7476654052734
0, 4, 46, 186.6493072509766
0, 4, 47, 180.7902679443359
0, 4, 48, 185.9493865966797
0, 4, 49, 174.2795562744141
0, 4, 50, 185.8398132324219
0, 4, 51, 198.1463165283203
0, 4, 52, 223.4875946044922
0, 4, 53, 206.2954254150391
0, 4, 54, 189.0008239746094
0, 4, 55, 175.4609527587891
0, 4, 56, 190.4525604248047
0, 4, 57, 191.5699920654297
0, 4, 58, 188.3855590820312
0, 4, 59, 189.7138824462891
0, 4, 60, 195.3435821533203
0, 4, 61, 193.1582794189453
0, 4, 62, 191.0055847167969
0, 4, 63, 178.1407470703125
0, 4, 64, 212.4602355957031
0, 4, 65, 191.9593200683594
0, 4, 66, 203.1736145019531
0, 4, 67, 199.3329620361328
0, 4, 68, 202.0285186767578
0, 4, 69, 198.24462890625
0, 4, 70, 204.4017486572266
0, 4, 71, 205.8614349365234
0, 4, 72, 214.8551025390625
0, 4, 73, 185.8769073486328
0, 4, 74, 179.5277557373047
0, 4, 75, 184.6786346435547
0, 4, 76, 190.3475952148438
0, 4, 77, 185.2891540527344
0, 4, 78, 195.4207000732422
0, 4, 79, 203.8839263916016
0, 4, 80, 211.3499298095703
0, 4, 81, 198.3709411621094
0, 4, 82, 181.1296997070312
0, 4, 83, 170.4875335693359
0, 4, 84, 193.4551391601562
0, 4, 85, 196.701171875
0, 4, 86, 181.1773376464844
0, 4, 87, 183.9789428710938
0, 4, 88, 203.7021789550781
0, 4, 89, 187.2255096435547
0, 4, 90, 211.6163024902344
0, 4, 91, 189.4872894287109
0, 4, 92, 196.5402221679688
0, 4, 93, 196.1233673095703
0, 4, 94, 181.4415588378906
0, 4, 95, 173.5861358642578
0, 4, 96, 189.9274139404297
0, 4, 97, 191.8353271484375
0, 4, 98, 201.4427337646484
0, 4, 99, 182.6614990234375
0, 4, 100, 182.6106872558594
0, 4, 101, 176.2376403808594
0, 4, 102, 171.8147277832031
0, 4, 103, 185.6342163085938
0, 4, 104, 211.2107086181641
0, 4, 105, 189.5684814453125
0, 4, 106, 180.3667449951172
0, 4, 107, 182.0084991455078
0, 4, 108, 152.0613250732422
0, 4, 109, 50.81454467773438
0, 4, 110, 11.47334861755371
0, 4, 111, 7.88745641708374
0, 4, 112, 5.882354259490967
0, 4, 113, 10.53095245361328
0, 4, 114, 6.069611072540283
0, 4, 115, 2.541203022003174
0, 4, 116, 5.245404720306396
0, 4, 117, 2.219956159591675
0, 4, 118, 3.156394958496094
0, 4, 119, 3.873855590820312
0, 4, 120, 2.43989634513855
0, 4, 121, 1.67470908164978
0, 4, 122, 2.957119464874268
0, 4, 123, 1.712575554847717
0, 4, 124, 3.321850061416626
0, 4, 125, 3.165627956390381
0, 4, 126, 2.046303987503052
0, 4, 127, 1.653104662895203
0, 5, 0, 1.239855051040649
0, 5, 1, 2.615967750549316
0, 5, 2, 5.772285461425781
0, 5, 3, 3.759798288345337
0, 5, 4, 1.609987020492554
0, 5, 5, 1.131461381912231
0, 5, 6, 2.749762058258057
0, 5, 7, 2.191253900527954
0, 5, 8, 2.082535266876221
0, 5, 9, 2.311610221862793
0, 5, 10, 2.829018831253052
0, 5, 11, 2.173260927200317
0, 5, 12, 5.325228691101074
0, 5, 13, 4.053332328796387
0, 5, 14, 4.763613700866699
0, 5, 15, 9.302183151245117
0, 5, 16, 7.223954200744629
0, 5, 17, 22.10897254943848
0, 5, 18, 83.57128143310547
0, 5, 19, 164.1515045166016
0, 5, 20, 183.2857666015625
0, 5, 21, 176.9403533935547
0, 5, 22, 171.2210083007812
0, 5, 23, 200.794189453125
0, 5, 24, 187.4589385986328
0, 5, 25, 207.2895050048828
0, 5, 26, 181.9482421875
0, 5, 27, 194.5384521484375
0, 5, 28, 189.9423370361328
0, 5, 29, 196.2192840576172
0, 5, 30, 177.7513275146484
0, 5, 31, 180.5917510986328
0, 5, 32, 186.8726654052734
0, 5, 33, 168.9180145263672
0, 5, 34, 194.5382080078125
0, 5, 35, 196.3721313476562
0, 5, 36, 168.9012145996094
0, 5, 37, 198.3279266357422
0, 5, 38, 180.6897277832031
0, 5, 39, 186.5951690673828
0, 5, 40, 196.7159576416016
0, 5, 41, 177.2518768310547
0, 5, 42, 187.6321258544922
0, 5, 43, 191.9038848876953
0, 5, 44, 200.3688049316406
0, 5, 45, 186.6082458496094
0, 5, 46, 192.4018859863281
0, 5, 47, 180.6977691650391
0, 5, 48, 177.2626647949219
0, 5, 49, 176.5066680908203
0, 5, 50, 186.4657592773438
0, 5, 51, 171.9797058105469
0, 5, 52, 167.6173095703125
0, 5, 53, 181.6636047363281
0, 5, 54, 174.4967803955078
0, 5, 55, 215.6758880615234
0, 5, 56, 181.3220367431641
0, 5, 57, 206.4036560058594
0, 5, 58, 183.1263885498047
0, 5, 59, 181.4518280029297
0, 5, 60, 217.8107299804688
0, 5, 61, 183.9831085205078
0, 5, 62, 178.3705291748047
0, 5, 63, 180.2550659179688
0, 5, 64, 194.9089965820312
0, 5, 65, 210.9551696777344
0, 5, 66, 192.51123046875
0, 5, 67, 199.2830657958984
0, 5, 68, 186.7289276123047
0, 5, 69, 185.9912719726562
0, 5, 70, 184.2825012207031
0, 5, 71, 192.8906402587891
0, 5, 72, 198.1561584472656
0, 5, 73, 202.4810028076172
0, 5, 74, 182.2032775878906
0, 5, 75, 203.4273681640625
0, 5, 76, 214.6565399169922
0, 5, 77, 180.2472839355469
0, 5, 78, 194.6476593017578
0, 5, 79, 191.0943145751953
0, 5, 80, 198.5893859863281
0, 5, 81, 203.6069488525391
0, 5, 82, 202.0105743408203
0, 5, 83, 188.201904296875
0, 5, 84, 205.9719696044922
0, 5, 85, 176.2782287597656
0, 5, 86, 194.1255035400391
0, 5, 87, 189.7077026367188
0, 5, 88, 176.8250579833984
0, 5, 89, 193.9940643310547
0, 5, 90, 199.0296630859375
0, 5, 91, 194.2711334228516
0, 5, 92, 190.8929901123047
0, 5, 93, 189.7040100097656
0, 5, 94, 207.7793579101562
0, 5, 95, 177.4007415771484
0, 5, 96, 182.1904602050781
0, 5, 97, 190.8607940673828
0, 5, 98, 189.9821472167969
0, 5, 99, 195.7362518310547
0, 5, 100, 186.6972045898438
0, 5, 101, 196.1233825683594
0, 5, 102, 181.7908630371094
0, 5, 103, 176.0780334472656
0, 5, 104, 190.1169586181641
0, 5, 105, 190.6647033691406
0, 5, 106, 177.9169921875
0, 5, 107, 181.8294067382812
0, 5, 108, 178.0134735107422
0, 5, 109, 90.00894927978516
0, 5, 110, 31.41512870788574
0, 5, 111, 10.45629405975342
0, 5, 112, 7.927212715148926
0, 5, 113, 5.806073665618896
0, 5, 114, 5.746283054351807
0, 5, 115, 5.387405872344971
0, 5, 116, 3.820958375930786
0, 5, 117, 3.329817771911621
0, 5, 118, 4.831016063690186
0, 5, 119, 5.023790836334229
0, 5, 120, 1.554943084716797
0, 5, 121, 0.8487514853477478
0, 5, 122, 3.390186548233032
0, 5, 123, 4.661582469940186
0, 5, 124, 2.815222978591919
0, 5, 125, 1.20965588092804
0, 5, 126, 1.723663568496704
0, 5, 127, 3.13797926902771
0, 6, 0, 4.493207454681396
0, 6, 1, 3.497629404067993
0, 6, 2, 3.130561113357544
0, 6, 3, 1.969168424606323
0, 6, 4, 2.623621225357056
0, 6, 5, 3.302884817123413
0, 6, 6, 2.291590929031372
0, 6, 7, 4.145390033721924
0, 6, 8, 4.844197750091553
0, 6, 9, 2.879344701766968
0, 6, 10, 3.816529035568237
0, 6, 11, 4.106534481048584
0, 6, 12, 5.220112800598145
0, 6, 13, 5.041142463684082
0, 6, 14, 5.905063629150391
0, 6, 15, 6.729758262634277
0, 6, 16, 15.30474472045898
0, 6, 17, 28.44942283630371
0, 6, 18, 111.845817565918
0, 6, 19, 192.8653564453125
0, 6, 20, 195.2411041259766
0, 6, 21, 197.9497375488281
0, 6, 22, 190.4151458740234
0, 6, 23, 189.8640747070312
0, 6, 24, 200.7249908447266
0, 6, 25, 183.1810913085938
0, 6, 26, 187.6219329833984
0, 6, 27, 193.2566833496094
0, 6, 28, 188.3812255859375
0, 6, 29, 210.6641693115234
0, 6, 30, 189.4936370849609
0, 6, 31, 192.5890808105469
0, 6, 32, 206.4632415771484
0, 6, 33, 184.9755554199219
0, 6, 34, 197.8793640136719
0, 6, 35, 187.2777404785156
0, 6, 36, 179.6158752441406
0, 6, 37, 182.0929718017578
0, 6, 38, 185.5105438232422
0, 6, 39, 195.7231597900391
0, 6, 40, 175.3524017333984
0, 6, 41, 185.4115447998047
0, 6, 42, 173.9346923828125
0, 6, 43, 209.3113555908203
0, 6, 44, 209.1580657958984
0, 6, 45, 193.7176971435547
0, 6, 46, 187.4283294677734
0, 6, 47, 206.1218719482422
0, 6, 48, 189.3962707519531
0, 6, 49, 179.4209594726562
0, 6, 50, 183.8977966308594
0, 6, 51, 196.1706695556641
0, 6, 52, 198.5381469726562
0, 6, 53, 184.5421295166016
0, 6, 54, 177.8450012207031
0, 6, 55, 195.0571594238281
0, 6, 56, 202.9951629638672
0, 6, 57, 191.4258880615234
0, 6, 58, 179.2449188232422
0, 6, 59, 192.5119781494141
0, 6, 60, 185.2324066162109
0, 6, 61, 194.1299438476562
0, 6, 62, 196.8382263183594
0, 6, 63, 185.9706115722656
0, 6, 64, 167.8094635009766
0, 6, 65, 186.5603637695312
0, 6, 66, 197.6588592529297
0, 6, 67, 212.1693420410156
0, 6, 68, 180.4647216796875
0, 6, 69, 172.1695861816406
0, 6, 70, 187.5041198730469
0, 6, 71, 170.5706024169922
0, 6, 72, 175.4366455078125
0, 6, 73, 177.6396179199219
0, 6, 74, 210.5090179443359
0, 6, 75, 227.4369049072266
0, 6, 76, 184.0858764648438
0, 6, 77, 172.3239593505859
0, 6, 78, 175.1946563720703
0, 6, 79, 185.6203155517578
0, 6, 80, 187.8251953125
0, 6, 81, 208.4415130615234
0, 6, 82, 195.3144378662109
0, 6, 83, 195.4829559326172
0, 6, 84, 198.7642669677734
0, 6, 85, 184.4531860351562
0, 6, 86, 200.3530426025391
0, 6, 87, 184.2484436035156
0, 6, 88, 193.7335357666016
0, 6, 89, 188.3275756835938
0, 6, 90, 205.5943298339844
0, 6, 91, 200.4065704345703
0, 6, 92, 173.2007293701172
0, 6, 93, 192.0977935791016
0, 6, 94, 189.5425109863281
0, 6, 95, 185.906494140625
0, 6, 96, 188.1447296142578
0, 6, 97, 195.7565612792969
0, 6, 98, 182.6863555908203
0, 6, 99, 176.5526275634766
0, 6, 100, 201.3399353027344
0, 6, 101, 167.8148651123047
0, 6, 102, 202.8733673095703
0, 6, 103, 196.9407348632812
0, 6, 104, 183.4114990234375
0, 6, 105, 193.5788421630859
0, 6, 106, 177.5042266845703
0, 6, 107, 196.0499420166016
0, 6, 108, 171.8546905517578
0, 6, 109, 115.3487854003906
0, 6, 110, 36.57341766357422
0, 6, 111, 10.37894916534424
0, 6, 112, 8.952122688293457
0, 6, 113, 5.095626831054688
0, 6, 114, 4.809960842132568
0, 6, 115, 5.149358749389648
0, 6, 116, 4.791512012481689
0, 6, 117, 4.099137306213379
0, 6, 118, 3.234482049942017
0, 6, 119, 4.134188652038574
0, 6, 120, 4.745636463165283
0, 6, 121, 4.523717403411865
0, 6, 122, 4.232184886932373
0, 6, 123, 2.433167934417725
0, 6, 124, 1.841670632362366
0, 6, 125, 2.517158985137939
0, 6, 126, 1.708505392074585
0, 6, 127, 2.158247947692871
0, 7, 0, 4.682338237762451
0, 7, 1, 2.142684698104858
0, 7, 2, 2.02928638458252
0, 7, 3, 2.683462619781494
0, 7, 4, 0.6192114353179932
0, 7, 5, 1.122802138328552
0, 7, 6, 2.393439769744873
0, 7, 7, 1.196419835090637
0, 7, 8, 2.645944118499756
0, 7, 9, 3.077185869216919
0, 7, 10, 4.621246814727783
0, 7, 11, 3.385754108428955
0, 7, 12, 3.013092041015625
0, 7, 13, 6.791537761688232
0, 7, 14, 7.349104404449463
0, 7, 15, 7.225907325744629
0, 7, 16, 15.47145462036133
0, 7, 17, 50.68827438354492
0, 7, 18, 162.6126556396484
0, 7, 19, 183.7430267333984
0, 7, 20, 180.4151611328125
0, 7, 21, 180.4752197265625
0, 7, 22, 191.152587890625
0, 7, 23, 203.1899719238281
0, 7, 24, 179.0414886474609
0, 7, 25, 214.624267578125
0, 7, 26, 188.9558868408203
0, 7, 27, 182.6378784179688
0, 7, 28, 183.3986206054688
0, 7, 29, 209.0151519775391
0, 7, 30, 195.4755096435547
0, 7, 31, 175.9281463623047
0, 7, 32, 189.6060028076172
0, 7, 33, 179.1092529296875
0, 7, 34, 192.8651733398438
0, 7, 35, 196.3425598144531
0, 7, 36, 186.9278411865234
0, 7, 37, 212.6147766113281
0, 7, 38, 191.2090759277344
0, 7, 39, 173.4468383789062
0, 7, 40, 183.3968048095703
0, 7, 41, 184.5690765380859
0, 7, 42, 178.2661285400391
0, 7, 43, 177.7991180419922
0, 7, 44, 179.1263580322266
0, 7, 45, 173.7578735351562
0, 7, 46, 189.5988616943359
0, 7, 47, 198.802490234375
0, 7, 48, 189.1340942382812
0, 7, 49, 201.2770080566406
0, 7, 50, 188.2271575927734
0, 7, 51, 205.0862274169922
0, 7, 52, 204.5500793457031
0, 7, 53, 192.0760498046875
0, 7, 54, 195.3960723876953
0, 7, 55, 203.166748046875
0, 7, 56, 183.4702453613281
0, 7, 57, 182.3172607421875
0, 7, 58, 190.7825469970703
0, 7, 59, 187.2728729248047
0, 7, 60, 202.2757415771484
0, 7, 61, 171.3627319335938
0, 7, 62, 202.7619323730469
0, 7, 63, 190.2803802490234
0, 7, 64, 199.5858764648438
0, 7, 65, 194.755126953125
0, 7, 66, 205.6063537597656
0, 7, 67, 219.2837524414062
0, 7, 68, 162.1620178222656
0, 7, 69, 195.0407867431641
0, 7, 70, 217.3075256347656
0, 7, 71, 184.5298919677734
0, 7, 72, 181.0512390136719
0, 7, 73, 175.9849853515625
0, 7, 74, 208.6700592041016
0, 7, 75, 205.64208984375
0, 7, 76, 214.6104736328125
0, 7, 77, 175.2336730957031
0, 7, 78, 177.2025146484375
0, 7, 79, 193.6745452880859
0, 7, 80, 195.7804107666016
0, 7, 81, 214.8600006103516
0, 7, 82, 186.2459411621094
0, 7, 83, 205.2797393798828
0, 7, 84, 192.3576049804688
0, 7, 85, 186.1201782226562
0, 7, 86, 201.5223846435547
0, 7, 87, 226.1865692138672
0, 7, 88, 194.5545043945312
0, 7, 89, 177.4505615234375
0, 7, 90, 182.3722686767578
0, 7, 91, 194.2969360351562
0, 7, 92, 194.9898071289062
0, 7, 93, 198.7072601318359
0, 7, 94, 177.7257537841797
0, 7, 95, 198.2267913818359
0, 7, 96, 211.1004180908203
0, 7, 97, 188.3959045410156
0, 7, 98, 177.5553283691406
0, 7, 99, 198.0476837158203
0, 7, 100, 181.5718688964844
0, 7, 101, 199.3297424316406
0, 7, 102, 185.4232788085938
0, 7, 103, 182.6258392333984
0, 7, 104, 173.9051971435547
0, 7, 105, 196.9187622070312
0, 7, 106, 205.8708953857422
0, 7, 107, 172.9273529052734
0, 7, 108, 176.3138732910156
0, 7, 109, 136.0496520996094
0, 7, 110, 54.80086898803711
0, 7, 111, 9.065615653991699
0, 7, 112, 7.374220848083496
0, 7, 113, 12.48471069335938
0, 7, 114, 6.979831695556641
0, 7, 115, 4.470987319946289
0, 7, 116, 3.592637300491333
0, 7, 117, 2.735486030578613
0, 7, 118, 3.634076118469238
0, 7, 119, 3.383545398712158
0, 7, 120, 2.094814777374268
0, 7, 121, 2.663736820220947
0, 7, 122, 2.363933324813843
0, 7, 123, 3.535861968994141
0, 7, 124, 1.48441219329834
0, 7, 125, 2.472055196762085
0, 7, 126, 3.610481262207031
0, 7, 127, 1.086445689201355
0, 8, 0, 3.847075700759888
0, 8, 1, 2.304809808731079
0, 8, 2, 4.586351871490479
0, 8, 3, 1.817302942276001
0, 8, 4, 1.698179006576538
0, 8, 5, 3.073826551437378
0, 8, 6, 2.365352153778076
0, 8, 7, 3.192857980728149
0, 8, 8, 3.38112473487854
0, 8, 9, 6.631350040435791
0, 8, 10, 1.873572111129761
0, 8, 11, 2.251058578491211
0, 8, 12, 3.211965560913086
0, 8, 13, 5.986265182495117
0, 8, 14, 6.094771862030029
0, 8, 15, 8.463208198547363
0, 8, 16, 19.15682792663574
0, 8, 17, 74.14376068115234
0, 8, 18, 142.2922515869141
0, 8, 19, 181.9697570800781
0, 8, 20, 192.6806182861328
0, 8, 21, 192.7631072998047
0, 8, 22, 179.8121948242188
0, 8, 23, 172.0853118896484
0, 8, 24, 192.7150268554688
0, 8, 25, 185.6060333251953
0, 8, 26, 192.62646484375
0, 8, 27, 185.9689025878906
0, 8, 28, 187.2453308105469
0, 8, 29, 209.0148773193359
0, 8, 30, 196.2010650634766
0, 8, 31, 182.2040710449219
0, 8, 32, 197.9344024658203
0, 8, 33, 206.3893432617188
0, 8, 34, 206.1302642822266
0, 8, 35, 185.2881317138672
