# TOPAS Version: 3.1.p3
# Parameter File: batch_inserts_114.txt
# Results for scorer Readout_Adipose
# Scored in component: MyBox
# X in 1 bin  of 0.65 cm
# Y in 512 bins of 0.0783984 cm
# Z in 128 bins of 0.078125 cm
# EnergyDeposit ( MeV ) : Sum   
0, 0, 0, 2.001687049865723
0, 0, 1, 2.755060911178589
0, 0, 2, 2.892817974090576
0, 0, 3, 1.553346037864685
0, 0, 4, 1.192187905311584
0, 0, 5, 1.109798312187195
0, 0, 6, 1.014616012573242
0, 0, 7, 3.070812463760376
0, 0, 8, 1.395130395889282
0, 0, 9, 2.042932271957397
0, 0, 10, 4.425879001617432
0, 0, 11, 3.10181736946106
0, 0, 12, 3.716392755508423
0, 0, 13, 3.289005994796753
0, 0, 14, 5.244843006134033
0, 0, 15, 4.966789722442627
0, 0, 16, 4.675101757049561
0, 0, 17, 7.33551549911499
0, 0, 18, 6.402515888214111
0, 0, 19, 23.06829643249512
0, 0, 20, 95.56055450439453
0, 0, 21, 153.4052276611328
0, 0, 22, 153.0367126464844
0, 0, 23, 143.8361663818359
0, 0, 24, 159.6790618896484
0, 0, 25, 166.3815460205078
0, 0, 26, 166.7293548583984
0, 0, 27, 173.9054412841797
0, 0, 28, 178.4954223632812
0, 0, 29, 174.9624328613281
0, 0, 30, 173.1758728027344
0, 0, 31, 168.0550842285156
0, 0, 32, 165.0092163085938
0, 0, 33, 167.2218933105469
0, 0, 34, 176.9021911621094
0, 0, 35, 173.6863098144531
0, 0, 36, 160.1324920654297
0, 0, 37, 161.7158508300781
0, 0, 38, 168.0372161865234
0, 0, 39, 159.1444702148438
0, 0, 40, 164.9467926025391
0, 0, 41, 165.6475830078125
0, 0, 42, 144.5316314697266
0, 0, 43, 168.5569152832031
0, 0, 44, 177.8258666992188
0, 0, 45, 173.3618774414062
0, 0, 46, 165.3758697509766
0, 0, 47, 167.5421295166016
0, 0, 48, 169.021728515625
0, 0, 49, 183.2254180908203
0, 0, 50, 170.7820739746094
0, 0, 51, 164.1725158691406
0, 0, 52, 162.2597961425781
0, 0, 53, 171.5843353271484
0, 0, 54, 159.9728546142578
0, 0, 55, 164.3084564208984
0, 0, 56, 188.7251739501953
0, 0, 57, 170.0489044189453
0, 0, 58, 161.6554412841797
0, 0, 59, 172.3537139892578
0, 0, 60, 168.9786834716797
0, 0, 61, 168.4514312744141
0, 0, 62, 183.19677734375
0, 0, 63, 166.8199768066406
0, 0, 64, 166.3037719726562
0, 0, 65, 177.5684661865234
0, 0, 66, 178.7710113525391
0, 0, 67, 164.2472839355469
0, 0, 68, 158.5337219238281
0, 0, 69, 158.3127136230469
0, 0, 70, 169.9988098144531
0, 0, 71, 158.4426116943359
0, 0, 72, 161.2249755859375
0, 0, 73, 171.8030242919922
0, 0, 74, 164.1754913330078
0, 0, 75, 163.8951721191406
0, 0, 76, 163.2813873291016
0, 0, 77, 172.2809753417969
0, 0, 78, 181.6100463867188
0, 0, 79, 175.2380065917969
0, 0, 80, 159.5973815917969
0, 0, 81, 159.5175476074219
0, 0, 82, 182.2218780517578
0, 0, 83, 174.4188385009766
0, 0, 84, 159.9340667724609
0, 0, 85, 181.4529571533203
0, 0, 86, 160.0376434326172
0, 0, 87, 177.3587036132812
0, 0, 88, 177.3244323730469
0, 0, 89, 175.1531677246094
0, 0, 90, 160.502197265625
0, 0, 91, 186.1875
0, 0, 92, 163.7254028320312
0, 0, 93, 159.5641784667969
0, 0, 94, 169.3488922119141
0, 0, 95, 173.6431579589844
0, 0, 96, 185.8849792480469
0, 0, 97, 183.17431640625
0, 0, 98, 185.8395538330078
0, 0, 99, 173.2441101074219
0, 0, 100, 159.2130279541016
0, 0, 101, 167.2980651855469
0, 0, 102, 171.3142547607422
0, 0, 103, 171.131103515625
0, 0, 104, 168.8852691650391
0, 0, 105, 178.7072296142578
0, 0, 106, 158.8596954345703
0, 0, 107, 86.10219573974609
0, 0, 108, 21.62857818603516
0, 0, 109, 9.46380615234375
0, 0, 110, 7.881773948669434
0, 0, 111, 6.438073635101318
0, 0, 112, 3.049358129501343
0, 0, 113, 4.454203128814697
0, 0, 114, 2.54908561706543
0, 0, 115, 3.136821985244751
0, 0, 116, 5.680052280426025
0, 0, 117, 1.912759065628052
0, 0, 118, 3.524953126907349
0, 0, 119, 2.120830297470093
0, 0, 120, 1.152266621589661
0, 0, 121, 3.569870948791504
0, 0, 122, 4.308908462524414
0, 0, 123, 4.734120845794678
0, 0, 124, 1.399855375289917
0, 0, 125, 2.685204267501831
0, 0, 126, 1.589101195335388
0, 0, 127, 4.570365428924561
0, 1, 0, 2.700310468673706
0, 1, 1, 5.949540615081787
0, 1, 2, 2.0892653465271
0, 1, 3, 1.648761868476868
0, 1, 4, 3.445967435836792
0, 1, 5, 2.377042055130005
0, 1, 6, 0.9072140455245972
0, 1, 7, 2.352402925491333
0, 1, 8, 1.558466076850891
0, 1, 9, 2.064370393753052
0, 1, 10, 4.57070779800415
0, 1, 11, 4.032723426818848
0, 1, 12, 4.866121292114258
0, 1, 13, 4.619608402252197
0, 1, 14, 5.334660530090332
0, 1, 15, 6.688474178314209
0, 1, 16, 7.589339256286621
0, 1, 17, 5.101088047027588
0, 1, 18, 11.47058010101318
0, 1, 19, 38.10235977172852
0, 1, 20, 126.2915420532227
0, 1, 21, 176.7245788574219
0, 1, 22, 193.6332855224609
0, 1, 23, 186.5650787353516
0, 1, 24, 179.4376678466797
0, 1, 25, 191.5304412841797
0, 1, 26, 198.0484313964844
0, 1, 27, 186.2480773925781
0, 1, 28, 188.4374694824219
0, 1, 29, 183.3922119140625
0, 1, 30, 180.6770324707031
0, 1, 31, 180.8597564697266
0, 1, 32, 188.6058197021484
0, 1, 33, 189.6232452392578
0, 1, 34, 186.1332702636719
0, 1, 35, 193.6415557861328
0, 1, 36, 205.4763946533203
0, 1, 37, 185.5884399414062
0, 1, 38, 164.8455963134766
0, 1, 39, 172.1702270507812
0, 1, 40, 180.0469665527344
0, 1, 41, 184.8085174560547
0, 1, 42, 181.8336791992188
0, 1, 43, 184.2337646484375
0, 1, 44, 169.2276916503906
0, 1, 45, 185.8889617919922
0, 1, 46, 172.7875823974609
0, 1, 47, 185.4107360839844
0, 1, 48, 186.3428649902344
0, 1, 49, 186.1723175048828
0, 1, 50, 177.4549713134766
0, 1, 51, 191.8908538818359
0, 1, 52, 194.5626678466797
0, 1, 53, 196.2675933837891
0, 1, 54, 185.0098724365234
0, 1, 55, 168.1378784179688
0, 1, 56, 178.8262634277344
0, 1, 57, 178.8151397705078
0, 1, 58, 188.5911102294922
0, 1, 59, 193.2583465576172
0, 1, 60, 187.3512420654297
0, 1, 61, 178.0885772705078
0, 1, 62, 205.2267303466797
0, 1, 63, 175.2005767822266
0, 1, 64, 172.1372680664062
0, 1, 65, 185.4363861083984
0, 1, 66, 203.9253234863281
0, 1, 67, 182.9729309082031
0, 1, 68, 186.8882446289062
0, 1, 69, 189.0487976074219
0, 1, 70, 185.6167449951172
0, 1, 71, 171.311279296875
0, 1, 72, 190.3365783691406
0, 1, 73, 190.3457336425781
0, 1, 74, 201.3429412841797
0, 1, 75, 183.5181884765625
0, 1, 76, 173.6530914306641
0, 1, 77, 193.2815399169922
0, 1, 78, 189.1071166992188
0, 1, 79, 201.8234558105469
0, 1, 80, 184.4710083007812
0, 1, 81, 174.4145355224609
0, 1, 82, 207.7281646728516
0, 1, 83, 211.2298736572266
0, 1, 84, 180.2857208251953
0, 1, 85, 169.4388885498047
0, 1, 86, 167.8266296386719
0, 1, 87, 184.5105895996094
0, 1, 88, 175.1686096191406
0, 1, 89, 188.6955871582031
0, 1, 90, 212.3566284179688
0, 1, 91, 180.798095703125
0, 1, 92, 185.790283203125
0, 1, 93, 180.8111267089844
0, 1, 94, 184.7721557617188
0, 1, 95, 182.8050231933594
0, 1, 96, 196.7246551513672
0, 1, 97, 183.3243560791016
0, 1, 98, 188.3147125244141
0, 1, 99, 176.3251800537109
0, 1, 100, 171.6350708007812
0, 1, 101, 178.1018829345703
0, 1, 102, 182.2042694091797
0, 1, 103, 173.2779541015625
0, 1, 104, 190.4765930175781
0, 1, 105, 180.6872253417969
0, 1, 106, 163.1567230224609
0, 1, 107, 123.490364074707
0, 1, 108, 47.11510467529297
0, 1, 109, 9.647579193115234
0, 1, 110, 9.539579391479492
0, 1, 111, 5.889718532562256
0, 1, 112, 8.47215747833252
0, 1, 113, 6.90382194519043
0, 1, 114, 6.074132442474365
0, 1, 115, 4.768227100372314
0, 1, 116, 2.999146223068237
0, 1, 117, 2.670215368270874
0, 1, 118, 3.717246294021606
0, 1, 119, 2.424216985702515
0, 1, 120, 4.334207534790039
0, 1, 121, 3.689081430435181
0, 1, 122, 2.424726486206055
0, 1, 123, 2.306939840316772
0, 1, 124, 2.25852370262146
0, 1, 125, 2.268818140029907
0, 1, 126, 1.727177619934082
0, 1, 127, 2.357117652893066
0, 2, 0, 1.648699045181274
0, 2, 1, 3.898977994918823
0, 2, 2, 2.793479919433594
0, 2, 3, 1.340129137039185
0, 2, 4, 2.076174736022949
0, 2, 5, 1.178129315376282
0, 2, 6, 2.445405960083008
0, 2, 7, 1.728700995445251
0, 2, 8, 2.046885251998901
0, 2, 9, 1.649727582931519
0, 2, 10, 4.897062301635742
0, 2, 11, 4.446940422058105
0, 2, 12, 3.411277532577515
0, 2, 13, 3.16333794593811
0, 2, 14, 3.563784599304199
0, 2, 15, 4.886723041534424
0, 2, 16, 5.24452018737793
0, 2, 17, 9.395406723022461
0, 2, 18, 14.2609167098999
0, 2, 19, 79.13344573974609
0, 2, 20, 162.8236389160156
0, 2, 21, 182.6572875976562
0, 2, 22, 193.7690124511719
0, 2, 23, 183.5160217285156
0, 2, 24, 174.019775390625
0, 2, 25, 183.5787658691406
0, 2, 26, 179.2041931152344
0, 2, 27, 189.6898803710938
0, 2, 28, 170.8919982910156
0, 2, 29, 169.4365692138672
0, 2, 30, 184.0561218261719
0, 2, 31, 181.9431610107422
0, 2, 32, 184.4905242919922
0, 2, 33, 192.88623046875
0, 2, 34, 199.0842742919922
0, 2, 35, 181.2395935058594
0, 2, 36, 185.7190856933594
0, 2, 37, 180.7980804443359
0, 2, 38, 187.621826171875
0, 2, 39, 166.6139526367188
0, 2, 40, 183.9257659912109
0, 2, 41, 184.0450439453125
0, 2, 42, 190.1264495849609
0, 2, 43, 193.2019195556641
0, 2, 44, 190.82568359375
0, 2, 45, 190.1131439208984
0, 2, 46, 195.7612609863281
0, 2, 47, 189.0696716308594
0, 2, 48, 177.0588684082031
0, 2, 49, 197.4117126464844
0, 2, 50, 168.3483428955078
0, 2, 51, 186.3583221435547
0, 2, 52, 185.5632019042969
0, 2, 53, 195.6747436523438
0, 2, 54, 177.2389526367188
0, 2, 55, 173.6968231201172
0, 2, 56, 182.3668670654297
0, 2, 57, 199.5468139648438
0, 2, 58, 186.1344299316406
0, 2, 59, 190.2809600830078
0, 2, 60, 197.1170349121094
0, 2, 61, 192.8583221435547
0, 2, 62, 189.2234344482422
0, 2, 63, 169.8458557128906
0, 2, 64, 189.8785858154297
0, 2, 65, 202.4572601318359
0, 2, 66, 195.3419036865234
0, 2, 67, 184.1202545166016
0, 2, 68, 182.5858001708984
0, 2, 69, 187.3200225830078
0, 2, 70, 203.5370025634766
0, 2, 71, 175.3978881835938
0, 2, 72, 185.8554229736328
0, 2, 73, 177.9921569824219
0, 2, 74, 180.6641998291016
0, 2, 75, 196.8968353271484
0, 2, 76, 183.0862579345703
0, 2, 77, 177.5197296142578
0, 2, 78, 197.2122650146484
0, 2, 79, 177.2237091064453
0, 2, 80, 186.3016052246094
0, 2, 81, 186.8848114013672
0, 2, 82, 206.0583038330078
0, 2, 83, 203.9210968017578
0, 2, 84, 187.9483337402344
0, 2, 85, 169.9540863037109
0, 2, 86, 194.9984283447266
0, 2, 87, 173.0711212158203
0, 2, 88, 176.8478698730469
0, 2, 89, 184.6881256103516
0, 2, 90, 179.0816345214844
0, 2, 91, 173.9717407226562
0, 2, 92, 196.7642211914062
0, 2, 93, 192.6288452148438
0, 2, 94, 199.9921417236328
0, 2, 95, 194.114990234375
0, 2, 96, 186.8221282958984
0, 2, 97, 172.3751831054688
0, 2, 98, 174.2362976074219
0, 2, 99, 162.7012176513672
0, 2, 100, 188.1629486083984
0, 2, 101, 196.3460540771484
0, 2, 102, 177.5451812744141
0, 2, 103, 199.1630554199219
0, 2, 104, 186.9050140380859
0, 2, 105, 200.2964324951172
0, 2, 106, 194.4464569091797
0, 2, 107, 150.3407897949219
0, 2, 108, 78.55638885498047
0, 2, 109, 19.28689193725586
0, 2, 110, 7.844490528106689
0, 2, 111, 5.87905740737915
0, 2, 112, 3.974214553833008
0, 2, 113, 4.218525409698486
0, 2, 114, 7.28974437713623
0, 2, 115, 5.31598949432373
0, 2, 116, 3.347609281539917
0, 2, 117, 2.006603479385376
0, 2, 118, 2.395523309707642
0, 2, 119, 2.637316942214966
0, 2, 120, 1.88033926486969
0, 2, 121, 3.094428300857544
0, 2, 122, 2.73721981048584
0, 2, 123, 1.768613219261169
0, 2, 124, 2.165832757949829
0, 2, 125, 2.271680116653442
0, 2, 126, 3.234085559844971
0, 2, 127, 0.9398705959320068
0, 3, 0, 1.514316558837891
0, 3, 1, 0.9279801845550537
0, 3, 2, 1.408481597900391
0, 3, 3, 1.007011890411377
0, 3, 4, 3.426327466964722
0, 3, 5, 1.373007416725159
0, 3, 6, 1.94366979598999
0, 3, 7, 3.024359464645386
0, 3, 8, 1.863396644592285
0, 3, 9, 1.246379137039185
0, 3, 10, 1.816483616828918
0, 3, 11, 3.995375156402588
0, 3, 12, 3.585912942886353
0, 3, 13, 3.939681053161621
0, 3, 14, 4.831478118896484
0, 3, 15, 8.069160461425781
0, 3, 16, 8.547316551208496
0, 3, 17, 6.949482440948486
0, 3, 18, 32.5755729675293
0, 3, 19, 114.4957809448242
0, 3, 20, 179.2039642333984
0, 3, 21, 173.0908355712891
0, 3, 22, 177.5657501220703
0, 3, 23, 189.1275329589844
0, 3, 24, 177.2168884277344
0, 3, 25, 168.3543701171875
0, 3, 26, 180.5904388427734
0, 3, 27, 188.4996490478516
0, 3, 28, 184.9227600097656
0, 3, 29, 198.0799713134766
0, 3, 30, 185.3723297119141
0, 3, 31, 193.4017944335938
0, 3, 32, 206.0922393798828
0, 3, 33, 195.2504730224609
0, 3, 34, 189.3106994628906
0, 3, 35, 175.5582733154297
0, 3, 36, 186.0836639404297
0, 3, 37, 200.3856658935547
0, 3, 38, 190.6965942382812
0, 3, 39, 188.0967254638672
0, 3, 40, 166.55712890625
0, 3, 41, 174.0750274658203
0, 3, 42, 185.2450408935547
0, 3, 43, 181.7062683105469
0, 3, 44, 202.6539001464844
0, 3, 45, 207.4012756347656
0, 3, 46, 198.3338317871094
0, 3, 47, 193.8895263671875
0, 3, 48, 194.5018310546875
0, 3, 49, 181.4013366699219
0, 3, 50, 186.8395233154297
0, 3, 51, 173.9472045898438
0, 3, 52, 187.6115112304688
0, 3, 53, 177.0835876464844
0, 3, 54, 179.5281677246094
0, 3, 55, 176.6580505371094
0, 3, 56, 181.5753021240234
0, 3, 57, 174.6540069580078
0, 3, 58, 201.6423645019531
0, 3, 59, 195.3130035400391
0, 3, 60, 186.9131164550781
0, 3, 61, 183.0267944335938
0, 3, 62, 182.9088287353516
0, 3, 63, 183.6816864013672
0, 3, 64, 188.8042449951172
0, 3, 65, 188.1341705322266
0, 3, 66, 176.305419921875
0, 3, 67, 189.7490692138672
0, 3, 68, 212.8728790283203
0, 3, 69, 190.7236328125
0, 3, 70, 185.9040832519531
0, 3, 71, 197.0532379150391
0, 3, 72, 185.6447448730469
0, 3, 73, 187.2228088378906
0, 3, 74, 192.7322998046875
0, 3, 75, 192.0341491699219
0, 3, 76, 190.5022125244141
0, 3, 77, 198.0432281494141
0, 3, 78, 188.1077423095703
0, 3, 79, 185.1295776367188
0, 3, 80, 191.1854705810547
0, 3, 81, 182.9024353027344
0, 3, 82, 179.2093200683594
0, 3, 83, 194.9377593994141
0, 3, 84, 199.2412719726562
0, 3, 85, 194.4243927001953
0, 3, 86, 204.6999664306641
0, 3, 87, 199.2396087646484
0, 3, 88, 190.6741027832031
0, 3, 89, 192.9052124023438
0, 3, 90, 175.5867614746094
0, 3, 91, 156.5005950927734
0, 3, 92, 206.0983276367188
0, 3, 93, 195.8929595947266
0, 3, 94, 192.7556610107422
0, 3, 95, 211.5607757568359
0, 3, 96, 208.5615692138672
0, 3, 97, 167.7446594238281
0, 3, 98, 168.0985107421875
0, 3, 99, 181.3637847900391
0, 3, 100, 175.9966278076172
0, 3, 101, 199.4420928955078
0, 3, 102, 194.9377593994141
0, 3, 103, 192.1914978027344
0, 3, 104, 203.2101440429688
0, 3, 105, 176.3482666015625
0, 3, 106, 182.3756256103516
0, 3, 107, 169.2803802490234
0, 3, 108, 107.8048858642578
0, 3, 109, 27.80673217773438
0, 3, 110, 8.898052215576172
0, 3, 111, 6.620519161224365
0, 3, 112, 3.642009973526001
0, 3, 113, 7.162148475646973
0, 3, 114, 4.845132350921631
0, 3, 115, 4.937576770782471
0, 3, 116, 4.633105754852295
0, 3, 117, 4.233491897583008
0, 3, 118, 2.549221754074097
0, 3, 119, 2.475589513778687
0, 3, 120, 3.720850467681885
0, 3, 121, 1.217587113380432
0, 3, 122, 2.162930250167847
0, 3, 123, 2.182273149490356
0, 3, 124, 1.853931546211243
0, 3, 125, 1.44677746295929
0, 3, 126, 1.300565838813782
0, 3, 127, 0.9601292014122009
0, 4, 0, 1.519767642021179
0, 4, 1, 1.500230550765991
0, 4, 2, 2.03866720199585
0, 4, 3, 4.268203735351562
0, 4, 4, 1.693733334541321
0, 4, 5, 1.056997895240784
0, 4, 6, 2.670781850814819
0, 4, 7, 1.922124981880188
0, 4, 8, 1.72056770324707
0, 4, 9, 1.705143332481384
0, 4, 10, 3.251900434494019
0, 4, 11, 3.406618356704712
0, 4, 12, 4.199008464813232
0, 4, 13, 4.152585029602051
0, 4, 14, 4.218331813812256
0, 4, 15, 9.237232208251953
0, 4, 16, 6.198640823364258
0, 4, 17, 12.58428478240967
0, 4, 18, 54.16273498535156
0, 4, 19, 151.9012603759766
0, 4, 20, 193.6424560546875
0, 4, 21, 169.63330078125
0, 4, 22, 187.0783538818359
0, 4, 23, 195.5319671630859
0, 4, 24, 193.1675262451172
0, 4, 25, 202.8355865478516
0, 4, 26, 182.3731231689453
0, 4, 27, 191.6449127197266
0, 4, 28, 177.8592987060547
0, 4, 29, 206.0295562744141
0, 4, 30, 195.0183410644531
0, 4, 31, 192.5466003417969
0, 4, 32, 210.09814453125
0, 4, 33, 189.0689239501953
0, 4, 34, 192.3072204589844
0, 4, 35, 211.7786102294922
0, 4, 36, 192.5888519287109
0, 4, 37, 177.0007781982422
0, 4, 38, 193.8405151367188
0, 4, 39, 189.7687377929688
0, 4, 40, 186.1815338134766
0, 4, 41, 189.0795745849609
0, 4, 42, 206.2149505615234
0, 4, 43, 174.5565338134766
0, 4, 44, 184.4134979248047
0, 4, 45, 196.233154296875
0, 4, 46, 185.8207092285156
0, 4, 47, 179.3411560058594
0, 4, 48, 187.3449554443359
0, 4, 49, 175.4892883300781
0, 4, 50, 185.6997985839844
0, 4, 51, 197.4718170166016
0, 4, 52, 222.9226837158203
0, 4, 53, 206.7663421630859
0, 4, 54, 190.2977905273438
0, 4, 55, 175.4831085205078
0, 4, 56, 192.0310974121094
0, 4, 57, 192.994384765625
0, 4, 58, 188.5523071289062
0, 4, 59, 189.4058837890625
0, 4, 60, 195.7989959716797
0, 4, 61, 193.7582702636719
0, 4, 62, 190.0425109863281
0, 4, 63, 178.75927734375
0, 4, 64, 212.6885223388672
0, 4, 65, 191.8164978027344
0, 4, 66, 201.7588958740234
0, 4, 67, 199.3926086425781
0, 4, 68, 201.0966186523438
0, 4, 69, 198.1792449951172
0, 4, 70, 205.1752014160156
0, 4, 71, 206.9071502685547
0, 4, 72, 215.0686798095703
0, 4, 73, 186.6481628417969
0, 4, 74, 181.5160369873047
0, 4, 75, 187.0467987060547
0, 4, 76, 190.1479797363281
0, 4, 77, 182.5201568603516
0, 4, 78, 195.2708892822266
0, 4, 79, 204.5660705566406
0, 4, 80, 211.376708984375
0, 4, 81, 199.71435546875
0, 4, 82, 182.6716613769531
0, 4, 83, 169.0135498046875
0, 4, 84, 192.4147186279297
0, 4, 85, 197.9807281494141
0, 4, 86, 182.0653381347656
0, 4, 87, 183.5709075927734
0, 4, 88, 203.5503082275391
0, 4, 89, 187.0191497802734
0, 4, 90, 213.0731506347656
0, 4, 91, 189.3584899902344
0, 4, 92, 196.1914825439453
0, 4, 93, 195.2902526855469
0, 4, 94, 181.7190704345703
0, 4, 95, 174.3148345947266
0, 4, 96, 190.0487213134766
0, 4, 97, 191.9648590087891
0, 4, 98, 200.5840759277344
0, 4, 99, 183.1498260498047
0, 4, 100, 183.2904357910156
0, 4, 101, 177.6678466796875
0, 4, 102, 172.8561401367188
0, 4, 103, 185.0971374511719
0, 4, 104, 208.8244781494141
0, 4, 105, 189.5054626464844
0, 4, 106, 179.1410827636719
0, 4, 107, 181.2539825439453
0, 4, 108, 152.4741058349609
0, 4, 109, 48.80626678466797
0, 4, 110, 10.70982074737549
0, 4, 111, 9.038393974304199
0, 4, 112, 5.903955936431885
0, 4, 113, 6.119539737701416
0, 4, 114, 5.501121520996094
0, 4, 115, 2.748534679412842
0, 4, 116, 4.833661079406738
0, 4, 117, 2.569473743438721
0, 4, 118, 3.215952157974243
0, 4, 119, 5.255472183227539
0, 4, 120, 2.735842943191528
0, 4, 121, 1.144911646842957
0, 4, 122, 3.150322198867798
0, 4, 123, 1.969221234321594
0, 4, 124, 3.019996643066406
0, 4, 125, 3.548485279083252
0, 4, 126, 1.491405248641968
0, 4, 127, 2.776364326477051
0, 5, 0, 1.617768406867981
0, 5, 1, 3.930765867233276
0, 5, 2, 5.336929321289062
0, 5, 3, 4.99110221862793
0, 5, 4, 2.310051441192627
0, 5, 5, 3.275558471679688
0, 5, 6, 2.274714469909668
0, 5, 7, 2.982529878616333
0, 5, 8, 1.882176160812378
0, 5, 9, 3.316086530685425
0, 5, 10, 3.305130243301392
0, 5, 11, 4.659537315368652
0, 5, 12, 2.875482797622681
0, 5, 13, 3.154529333114624
0, 5, 14, 6.356683254241943
0, 5, 15, 8.177576065063477
0, 5, 16, 6.938679218292236
0, 5, 17, 20.85392379760742
0, 5, 18, 83.03424835205078
0, 5, 19, 164.1524658203125
0, 5, 20, 183.8355102539062
0, 5, 21, 178.6471710205078
0, 5, 22, 171.7526245117188
0, 5, 23, 200.5889282226562
0, 5, 24, 186.5105590820312
0, 5, 25, 207.7722778320312
0, 5, 26, 183.2738037109375
0, 5, 27, 194.1834259033203
0, 5, 28, 189.8582305908203
0, 5, 29, 195.6580810546875
0, 5, 30, 179.5380859375
0, 5, 31, 179.5816345214844
0, 5, 32, 186.741943359375
0, 5, 33, 168.3869018554688
0, 5, 34, 195.125732421875
0, 5, 35, 196.9140930175781
0, 5, 36, 168.1651458740234
0, 5, 37, 196.5568389892578
0, 5, 38, 180.8761444091797
0, 5, 39, 186.872314453125
0, 5, 40, 195.9520721435547
0, 5, 41, 177.2118682861328
0, 5, 42, 187.796142578125
0, 5, 43, 193.6170959472656
0, 5, 44, 199.8291168212891
0, 5, 45, 186.8665618896484
0, 5, 46, 192.7524261474609
0, 5, 47, 180.1645202636719
0, 5, 48, 178.3268585205078
0, 5, 49, 177.6647186279297
0, 5, 50, 185.2918701171875
0, 5, 51, 173.8946838378906
0, 5, 52, 168.3104400634766
0, 5, 53, 181.2432098388672
0, 5, 54, 172.0037689208984
0, 5, 55, 215.86865234375
0, 5, 56, 181.3022155761719
0, 5, 57, 207.5112915039062
0, 5, 58, 182.1928100585938
0, 5, 59, 180.4918670654297
0, 5, 60, 218.4081420898438
0, 5, 61, 185.8918762207031
0, 5, 62, 180.6790771484375
0, 5, 63, 180.5525970458984
0, 5, 64, 193.9166259765625
0, 5, 65, 210.3775939941406
0, 5, 66, 192.8802795410156
0, 5, 67, 199.4432525634766
0, 5, 68, 187.6228942871094
0, 5, 69, 184.3458862304688
0, 5, 70, 185.9462127685547
0, 5, 71, 193.3255004882812
0, 5, 72, 197.2034149169922
0, 5, 73, 201.9479827880859
0, 5, 74, 179.1556701660156
0, 5, 75, 203.5570373535156
0, 5, 76, 214.0582275390625
0, 5, 77, 180.8230895996094
0, 5, 78, 194.4541015625
0, 5, 79, 189.6468658447266
0, 5, 80, 197.2494201660156
0, 5, 81, 205.1612243652344
0, 5, 82, 201.8246765136719
0, 5, 83, 190.0452423095703
0, 5, 84, 207.2476043701172
0, 5, 85, 177.3505096435547
0, 5, 86, 194.7329406738281
0, 5, 87, 189.3827209472656
0, 5, 88, 177.4336700439453
0, 5, 89, 195.7417907714844
0, 5, 90, 198.5592498779297
0, 5, 91, 194.6725463867188
0, 5, 92, 189.3389739990234
0, 5, 93, 190.1216888427734
0, 5, 94, 207.7808380126953
0, 5, 95, 176.4617767333984
0, 5, 96, 181.9403686523438
0, 5, 97, 191.2313995361328
0, 5, 98, 188.2853088378906
0, 5, 99, 196.8449096679688
0, 5, 100, 187.4450073242188
0, 5, 101, 194.9373626708984
0, 5, 102, 181.2607269287109
0, 5, 103, 176.0931701660156
0, 5, 104, 190.4893341064453
0, 5, 105, 189.2443389892578
0, 5, 106, 176.9605560302734
0, 5, 107, 182.2046203613281
0, 5, 108, 175.1286926269531
0, 5, 109, 89.65172576904297
0, 5, 110, 31.33278274536133
0, 5, 111, 8.314339637756348
0, 5, 112, 6.259681701660156
0, 5, 113, 6.197516918182373
0, 5, 114, 6.232425689697266
0, 5, 115, 6.005700588226318
0, 5, 116, 4.21407413482666
0, 5, 117, 2.571482419967651
0, 5, 118, 4.019299507141113
0, 5, 119, 3.500519275665283
0, 5, 120, 1.450253248214722
0, 5, 121, 1.609622478485107
0, 5, 122, 2.590741634368896
0, 5, 123, 5.18698263168335
0, 5, 124, 3.799034118652344
0, 5, 125, 1.472386121749878
0, 5, 126, 3.157621383666992
0, 5, 127, 2.608087778091431
0, 6, 0, 4.315735340118408
0, 6, 1, 3.601128816604614
0, 6, 2, 4.39448881149292
0, 6, 3, 2.539423704147339
0, 6, 4, 2.96368932723999
0, 6, 5, 4.253873348236084
0, 6, 6, 2.953361988067627
0, 6, 7, 3.604588270187378
0, 6, 8, 4.706297397613525
0, 6, 9, 3.088068962097168
0, 6, 10, 5.705421447753906
0, 6, 11, 4.066890716552734
0, 6, 12, 5.267788887023926
0, 6, 13, 4.738833904266357
0, 6, 14, 5.830112934112549
0, 6, 15, 6.379014492034912
0, 6, 16, 13.41273880004883
0, 6, 17, 29.22848701477051
0, 6, 18, 113.0007400512695
0, 6, 19, 191.0009613037109
0, 6, 20, 195.2528533935547
0, 6, 21, 198.0432281494141
0, 6, 22, 190.2407531738281
0, 6, 23, 190.5269165039062
0, 6, 24, 200.4826049804688
0, 6, 25, 181.1855163574219
0, 6, 26, 188.5214691162109
0, 6, 27, 193.4116821289062
0, 6, 28, 188.4224243164062
0, 6, 29, 211.1058959960938
0, 6, 30, 190.7956390380859
0, 6, 31, 193.1600494384766
0, 6, 32, 207.1104583740234
0, 6, 33, 183.5044708251953
0, 6, 34, 197.1714782714844
0, 6, 35, 190.4605560302734
0, 6, 36, 180.7865753173828
0, 6, 37, 182.4539031982422
0, 6, 38, 185.0693664550781
0, 6, 39, 194.2356567382812
0, 6, 40, 174.3506927490234
0, 6, 41, 185.1566925048828
0, 6, 42, 174.4913482666016
0, 6, 43, 208.7217864990234
0, 6, 44, 210.3557891845703
0, 6, 45, 193.993408203125
0, 6, 46, 187.5816345214844
0, 6, 47, 205.0203399658203
0, 6, 48, 187.9646911621094
0, 6, 49, 179.7461700439453
0, 6, 50, 182.8749847412109
0, 6, 51, 196.7185516357422
0, 6, 52, 197.7371978759766
0, 6, 53, 185.0234527587891
0, 6, 54, 177.4664611816406
0, 6, 55, 195.3094177246094
0, 6, 56, 202.2322387695312
0, 6, 57, 190.1501617431641
0, 6, 58, 178.6775360107422
0, 6, 59, 192.0464935302734
0, 6, 60, 184.322509765625
0, 6, 61, 194.1527252197266
0, 6, 62, 197.4313049316406
0, 6, 63, 188.3015594482422
0, 6, 64, 169.41943359375
0, 6, 65, 186.0946197509766
0, 6, 66, 197.5829467773438
0, 6, 67, 213.4699554443359
0, 6, 68, 179.9978637695312
0, 6, 69, 170.8763580322266
0, 6, 70, 187.1688842773438
0, 6, 71, 169.9277801513672
0, 6, 72, 176.3116149902344
0, 6, 73, 176.8163452148438
0, 6, 74, 211.5360107421875
0, 6, 75, 227.4615020751953
0, 6, 76, 183.5801849365234
0, 6, 77, 172.5342102050781
0, 6, 78, 176.931396484375
0, 6, 79, 188.7892150878906
0, 6, 80, 186.8965911865234
0, 6, 81, 208.5055389404297
0, 6, 82, 197.1596374511719
0, 6, 83, 195.0514068603516
0, 6, 84, 196.6628723144531
0, 6, 85, 180.5442657470703
0, 6, 86, 203.0607757568359
0, 6, 87, 183.6611785888672
0, 6, 88, 192.0223236083984
0, 6, 89, 189.9412078857422
0, 6, 90, 205.0035247802734
0, 6, 91, 201.0472106933594
0, 6, 92, 173.3971710205078
0, 6, 93, 193.0186004638672
0, 6, 94, 188.8584289550781
0, 6, 95, 184.9360809326172
0, 6, 96, 188.9445648193359
0, 6, 97, 193.8221588134766
0, 6, 98, 182.6107330322266
0, 6, 99, 175.4174957275391
0, 6, 100, 202.4901275634766
0, 6, 101, 168.7899322509766
0, 6, 102, 202.2878112792969
0, 6, 103, 197.0552825927734
0, 6, 104, 183.5605621337891
0, 6, 105, 193.7127532958984
0, 6, 106, 176.7657012939453
0, 6, 107, 194.2045593261719
0, 6, 108, 174.0351715087891
0, 6, 109, 115.6669692993164
0, 6, 110, 34.9964714050293
0, 6, 111, 8.699532508850098
0, 6, 112, 9.858015060424805
0, 6, 113, 5.458791732788086
0, 6, 114, 6.065906047821045
0, 6, 115, 4.129464626312256
0, 6, 116, 3.523286819458008
0, 6, 117, 4.605708599090576
0, 6, 118, 3.510850667953491
0, 6, 119, 5.036275386810303
0, 6, 120, 2.425863981246948
0, 6, 121, 4.640907287597656
0, 6, 122, 4.110099792480469
0, 6, 123, 2.791363716125488
0, 6, 124, 2.290613412857056
0, 6, 125, 2.635572910308838
0, 6, 126, 3.33882737159729
0, 6, 127, 2.746830940246582
0, 7, 0, 2.895736217498779
0, 7, 1, 1.978331804275513
0, 7, 2, 3.307901859283447
0, 7, 3, 2.557944774627686
0, 7, 4, 0.9759274125099182
0, 7, 5, 2.088564872741699
0, 7, 6, 2.126094341278076
0, 7, 7, 2.328712701797485
0, 7, 8, 4.172810077667236
0, 7, 9, 3.53498363494873
0, 7, 10, 4.511960983276367
0, 7, 11, 5.039126396179199
0, 7, 12, 3.783126831054688
0, 7, 13, 5.925487041473389
0, 7, 14, 6.53888988494873
0, 7, 15, 7.719761848449707
0, 7, 16, 17.38481712341309
0, 7, 17, 51.26581954956055
0, 7, 18, 161.5646209716797
0, 7, 19, 183.1775512695312
0, 7, 20, 182.3654632568359
0, 7, 21, 181.7736511230469
0, 7, 22, 190.1744842529297
0, 7, 23, 204.4272003173828
0, 7, 24, 179.6440582275391
0, 7, 25, 212.0261688232422
0, 7, 26, 189.8077697753906
0, 7, 27, 181.9242858886719
0, 7, 28, 182.3851318359375
0, 7, 29, 209.5369567871094
0, 7, 30, 193.5184631347656
0, 7, 31, 177.1836547851562
0, 7, 32, 192.6979522705078
0, 7, 33, 181.9490356445312
0, 7, 34, 194.5704345703125
0, 7, 35, 197.4908752441406
0, 7, 36, 187.1014404296875
0, 7, 37, 212.5042724609375
0, 7, 38, 191.4324188232422
0, 7, 39, 173.8002166748047
0, 7, 40, 185.8363647460938
0, 7, 41, 184.2461547851562
0, 7, 42, 178.91650390625
0, 7, 43, 177.1004943847656
0, 7, 44, 178.7804565429688
0, 7, 45, 173.8951873779297
0, 7, 46, 189.8281707763672
0, 7, 47, 197.6761322021484
0, 7, 48, 184.6450042724609
0, 7, 49, 198.4446105957031
0, 7, 50, 188.0550994873047
0, 7, 51, 205.0167083740234
0, 7, 52, 206.2374267578125
0, 7, 53, 191.7590179443359
0, 7, 54, 195.2976989746094
0, 7, 55, 203.4614562988281
0, 7, 56, 183.8727111816406
0, 7, 57, 183.6640777587891
0, 7, 58, 191.0403137207031
0, 7, 59, 187.1535339355469
0, 7, 60, 203.3952484130859
0, 7, 61, 170.5858001708984
0, 7, 62, 203.1199645996094
0, 7, 63, 189.3047637939453
0, 7, 64, 201.0464782714844
0, 7, 65, 194.8928833007812
0, 7, 66, 205.2260437011719
0, 7, 67, 222.29736328125
0, 7, 68, 163.9170684814453
0, 7, 69, 195.0909118652344
0, 7, 70, 217.2528991699219
0, 7, 71, 184.6540222167969
0, 7, 72, 179.8016510009766
0, 7, 73, 176.9440460205078
0, 7, 74, 207.3412780761719
0, 7, 75, 205.2640533447266
0, 7, 76, 215.3096466064453
0, 7, 77, 177.0555877685547
0, 7, 78, 177.6572875976562
0, 7, 79, 192.38623046875
0, 7, 80, 196.7005462646484
0, 7, 81, 214.7366943359375
0, 7, 82, 184.8696136474609
0, 7, 83, 205.4631805419922
0, 7, 84, 191.3903198242188
0, 7, 85, 185.7704925537109
0, 7, 86, 200.0948181152344
0, 7, 87, 226.26220703125
0, 7, 88, 194.4550170898438
0, 7, 89, 176.6452026367188
0, 7, 90, 182.6378479003906
0, 7, 91, 196.2433319091797
0, 7, 92, 193.8243103027344
0, 7, 93, 198.6432800292969
0, 7, 94, 177.7608642578125
0, 7, 95, 200.1322479248047
0, 7, 96, 211.3760681152344
0, 7, 97, 189.4327392578125
0, 7, 98, 177.1522064208984
0, 7, 99, 196.60498046875
0, 7, 100, 181.9209442138672
0, 7, 101, 199.5650329589844
0, 7, 102, 185.1254272460938
0, 7, 103, 180.7425079345703
0, 7, 104, 175.4756927490234
0, 7, 105, 196.8114471435547
0, 7, 106, 205.9305725097656
0, 7, 107, 174.5045318603516
0, 7, 108, 177.6813201904297
0, 7, 109, 137.0348968505859
0, 7, 110, 54.03062057495117
0, 7, 111, 9.076131820678711
0, 7, 112, 7.710285663604736
0, 7, 113, 8.403410911560059
0, 7, 114, 6.255119800567627
0, 7, 115, 4.643757820129395
0, 7, 116, 4.208094120025635
0, 7, 117, 3.368241548538208
0, 7, 118, 3.144380331039429
0, 7, 119, 2.604563474655151
0, 7, 120, 2.141756296157837
0, 7, 121, 1.552349805831909
0, 7, 122, 2.212243556976318
0, 7, 123, 1.005943536758423
0, 7, 124, 0.7934521436691284
0, 7, 125, 1.232790112495422
0, 7, 126, 3.025333881378174
0, 7, 127, 1.447342276573181
0, 8, 0, 4.223235607147217
0, 8, 1, 3.525023937225342
0, 8, 2, 2.535732269287109
0, 8, 3, 1.567505717277527
0, 8, 4, 1.90610933303833
0, 8, 5, 3.093601942062378
0, 8, 6, 1.693431735038757
0, 8, 7, 2.82941722869873
0, 8, 8, 4.194728374481201
0, 8, 9, 7.691802024841309
0, 8, 10, 2.411629676818848
0, 8, 11, 2.668114185333252
0, 8, 12, 3.188601493835449
0, 8, 13, 5.342734813690186
0, 8, 14, 6.293405532836914
0, 8, 15, 9.323214530944824
0, 8, 16, 18.97378349304199
0, 8, 17, 75.92315673828125
0, 8, 18, 143.9419250488281
0, 8, 19, 177.1269226074219
0, 8, 20, 192.6016082763672
0, 8, 21, 192.1265106201172
0, 8, 22, 181.3934783935547
0, 8, 23, 173.1638793945312
0, 8, 24, 193.0162200927734
0, 8, 25, 185.7713928222656
0, 8, 26, 192.6991882324219
0, 8, 27, 185.9861755371094
0, 8, 28, 187.0928955078125
0, 8, 29, 206.2485504150391
0, 8, 30, 195.8998565673828
0, 8, 31, 183.0252990722656
0, 8, 32, 198.5888671875
0, 8, 33, 206.6316833496094
0, 8, 34, 203.2771453857422
0, 8, 35, 185.1412353515625
0, 8, 36, 180.9696655273438
