# TOPAS Version: 3.1.p3
# Parameter File: batch_inserts_104.txt
# Results for scorer Readout_Adipose
# Scored in component: MyBox
# X in 1 bin  of 0.65 cm
# Y in 512 bins of 0.0783984 cm
# Z in 128 bins of 0.078125 cm
# EnergyDeposit ( MeV ) : Sum   
0, 0, 0, 1.353520393371582
0, 0, 1, 5.512203693389893
0, 0, 2, 1.785192012786865
0, 0, 3, 2.426800966262817
0, 0, 4, 1.267461776733398
0, 0, 5, 0.8533264994621277
0, 0, 6, 1.071068048477173
0, 0, 7, 2.42716908454895
0, 0, 8, 2.130791902542114
0, 0, 9, 2.642827749252319
0, 0, 10, 3.236502408981323
0, 0, 11, 3.856669425964355
0, 0, 12, 3.459228515625
0, 0, 13, 2.476875782012939
0, 0, 14, 5.020482063293457
0, 0, 15, 6.095782279968262
0, 0, 16, 3.511168956756592
0, 0, 17, 5.744383811950684
0, 0, 18, 8.602861404418945
0, 0, 19, 24.46733665466309
0, 0, 20, 94.36708831787109
0, 0, 21, 152.5487670898438
0, 0, 22, 155.0392303466797
0, 0, 23, 144.2404327392578
0, 0, 24, 159.0926513671875
0, 0, 25, 166.8069305419922
0, 0, 26, 167.0171813964844
0, 0, 27, 174.5372772216797
0, 0, 28, 178.3530426025391
0, 0, 29, 174.7601928710938
0, 0, 30, 172.6296539306641
0, 0, 31, 167.0693054199219
0, 0, 32, 164.2920532226562
0, 0, 33, 166.9018402099609
0, 0, 34, 177.1954650878906
0, 0, 35, 173.6519317626953
0, 0, 36, 158.704345703125
0, 0, 37, 160.7360687255859
0, 0, 38, 165.7245330810547
0, 0, 39, 159.6343688964844
0, 0, 40, 164.0461730957031
0, 0, 41, 165.8795776367188
0, 0, 42, 142.6436614990234
0, 0, 43, 168.0609436035156
0, 0, 44, 177.3352508544922
0, 0, 45, 172.2351837158203
0, 0, 46, 165.5303649902344
0, 0, 47, 167.1401062011719
0, 0, 48, 169.3236541748047
0, 0, 49, 183.9036254882812
0, 0, 50, 170.0294799804688
0, 0, 51, 163.0998077392578
0, 0, 52, 162.1590118408203
0, 0, 53, 170.9974517822266
0, 0, 54, 159.6303100585938
0, 0, 55, 164.6270141601562
0, 0, 56, 189.2946929931641
0, 0, 57, 170.5800323486328
0, 0, 58, 162.2339477539062
0, 0, 59, 172.0652618408203
0, 0, 60, 169.1037292480469
0, 0, 61, 171.0611572265625
0, 0, 62, 183.0714569091797
0, 0, 63, 167.2983551025391
0, 0, 64, 164.7798461914062
0, 0, 65, 174.4503021240234
0, 0, 66, 177.5522613525391
0, 0, 67, 165.3262481689453
0, 0, 68, 158.3031921386719
0, 0, 69, 160.0045928955078
0, 0, 70, 169.4922943115234
0, 0, 71, 158.0121612548828
0, 0, 72, 163.1243438720703
0, 0, 73, 173.1536865234375
0, 0, 74, 164.7045288085938
0, 0, 75, 163.9013824462891
0, 0, 76, 164.1113433837891
0, 0, 77, 171.7457122802734
0, 0, 78, 181.4572448730469
0, 0, 79, 174.39306640625
0, 0, 80, 160.0610046386719
0, 0, 81, 159.7025451660156
0, 0, 82, 182.8450775146484
0, 0, 83, 173.6426544189453
0, 0, 84, 160.4830627441406
0, 0, 85, 181.2790069580078
0, 0, 86, 158.7495727539062
0, 0, 87, 177.8274383544922
0, 0, 88, 178.3706512451172
0, 0, 89, 174.6128387451172
0, 0, 90, 162.3352661132812
0, 0, 91, 185.0837097167969
0, 0, 92, 163.4954833984375
0, 0, 93, 156.5047760009766
0, 0, 94, 168.9035949707031
0, 0, 95, 174.1939697265625
0, 0, 96, 184.6030731201172
0, 0, 97, 183.3752899169922
0, 0, 98, 185.9390106201172
0, 0, 99, 172.0954132080078
0, 0, 100, 158.7874298095703
0, 0, 101, 167.1405181884766
0, 0, 102, 171.5487823486328
0, 0, 103, 170.83837890625
0, 0, 104, 169.7754516601562
0, 0, 105, 177.9161682128906
0, 0, 106, 159.1621856689453
0, 0, 107, 85.38381195068359
0, 0, 108, 20.74888229370117
0, 0, 109, 10.2644624710083
0, 0, 110, 5.848206520080566
0, 0, 111, 6.158328056335449
0, 0, 112, 3.351247549057007
0, 0, 113, 3.129485130310059
0, 0, 114, 2.648027658462524
0, 0, 115, 2.736042022705078
0, 0, 116, 3.060265779495239
0, 0, 117, 1.745966792106628
0, 0, 118, 3.358899116516113
0, 0, 119, 2.770148992538452
0, 0, 120, 1.884149432182312
0, 0, 121, 4.583056449890137
0, 0, 122, 4.248342037200928
0, 0, 123, 4.295454025268555
0, 0, 124, 1.389096021652222
0, 0, 125, 3.43537974357605
0, 0, 126, 2.537912845611572
0, 0, 127, 2.276301383972168
0, 1, 0, 0.9865546822547913
0, 1, 1, 2.974218368530273
0, 1, 2, 2.348548412322998
0, 1, 3, 0.9309471845626831
0, 1, 4, 0.3677884340286255
0, 1, 5, 1.353415727615356
0, 1, 6, 1.580491662025452
0, 1, 7, 4.314839363098145
0, 1, 8, 3.024265289306641
0, 1, 9, 1.737975478172302
0, 1, 10, 2.377479314804077
0, 1, 11, 5.054545879364014
0, 1, 12, 3.434169292449951
0, 1, 13, 3.854221105575562
0, 1, 14, 6.49077320098877
0, 1, 15, 6.426229476928711
0, 1, 16, 8.193267822265625
0, 1, 17, 4.819944858551025
0, 1, 18, 10.04949283599854
0, 1, 19, 38.77376937866211
0, 1, 20, 127.3887176513672
0, 1, 21, 177.0909881591797
0, 1, 22, 192.7881927490234
0, 1, 23, 186.0623168945312
0, 1, 24, 179.5596618652344
0, 1, 25, 191.7032470703125
0, 1, 26, 197.5007171630859
0, 1, 27, 187.6047668457031
0, 1, 28, 187.8909606933594
0, 1, 29, 183.8704986572266
0, 1, 30, 179.0108795166016
0, 1, 31, 180.9377899169922
0, 1, 32, 189.0813293457031
0, 1, 33, 190.9398040771484
0, 1, 34, 184.4504089355469
0, 1, 35, 193.9009552001953
0, 1, 36, 205.2699584960938
0, 1, 37, 185.10302734375
0, 1, 38, 165.0896759033203
0, 1, 39, 171.6717224121094
0, 1, 40, 179.6034851074219
0, 1, 41, 184.9389343261719
0, 1, 42, 182.8012542724609
0, 1, 43, 184.5821838378906
0, 1, 44, 168.3810882568359
0, 1, 45, 186.283935546875
0, 1, 46, 170.7374725341797
0, 1, 47, 186.1341400146484
0, 1, 48, 187.9181365966797
0, 1, 49, 186.2360076904297
0, 1, 50, 177.0043792724609
0, 1, 51, 190.8832550048828
0, 1, 52, 194.6871490478516
0, 1, 53, 196.3494873046875
0, 1, 54, 185.9818878173828
0, 1, 55, 165.2525634765625
0, 1, 56, 178.7917785644531
0, 1, 57, 179.7252502441406
0, 1, 58, 188.3750762939453
0, 1, 59, 193.2662048339844
0, 1, 60, 188.7065277099609
0, 1, 61, 177.6427154541016
0, 1, 62, 204.8514556884766
0, 1, 63, 175.7232666015625
0, 1, 64, 172.7388610839844
0, 1, 65, 187.4651947021484
0, 1, 66, 204.1313781738281
0, 1, 67, 183.24755859375
0, 1, 68, 186.9376068115234
0, 1, 69, 188.2519989013672
0, 1, 70, 184.9578247070312
0, 1, 71, 171.1830444335938
0, 1, 72, 190.1800689697266
0, 1, 73, 190.2723999023438
0, 1, 74, 201.0542907714844
0, 1, 75, 184.4840393066406
0, 1, 76, 174.5189361572266
0, 1, 77, 191.4810638427734
0, 1, 78, 189.4040832519531
0, 1, 79, 202.0710601806641
0, 1, 80, 185.0861053466797
0, 1, 81, 174.1473388671875
0, 1, 82, 208.11181640625
0, 1, 83, 211.2410278320312
0, 1, 84, 180.5187835693359
0, 1, 85, 170.8070526123047
0, 1, 86, 167.744384765625
0, 1, 87, 184.6346893310547
0, 1, 88, 174.0147247314453
0, 1, 89, 186.9933471679688
0, 1, 90, 212.3828125
0, 1, 91, 183.2853698730469
0, 1, 92, 183.2057037353516
0, 1, 93, 182.524169921875
0, 1, 94, 185.7113952636719
0, 1, 95, 183.186767578125
0, 1, 96, 197.4982452392578
0, 1, 97, 182.5701599121094
0, 1, 98, 186.4495086669922
0, 1, 99, 174.9019927978516
0, 1, 100, 170.9600982666016
0, 1, 101, 177.9858245849609
0, 1, 102, 181.7989044189453
0, 1, 103, 172.9071960449219
0, 1, 104, 190.2413635253906
0, 1, 105, 182.7724761962891
0, 1, 106, 164.9250335693359
0, 1, 107, 122.7491683959961
0, 1, 108, 47.08269500732422
0, 1, 109, 9.559595108032227
0, 1, 110, 7.428000926971436
0, 1, 111, 7.251452445983887
0, 1, 112, 7.361578464508057
0, 1, 113, 7.686946392059326
0, 1, 114, 7.199382305145264
0, 1, 115, 2.193702459335327
0, 1, 116, 2.408474683761597
0, 1, 117, 2.885292291641235
0, 1, 118, 4.652318000793457
0, 1, 119, 1.168535351753235
0, 1, 120, 2.977222204208374
0, 1, 121, 3.097692728042603
0, 1, 122, 3.820566892623901
0, 1, 123, 4.378602504730225
0, 1, 124, 1.72585666179657
0, 1, 125, 1.881331920623779
0, 1, 126, 1.441673874855042
0, 1, 127, 2.73652195930481
0, 2, 0, 0.7053841948509216
0, 2, 1, 2.475637435913086
0, 2, 2, 3.474141836166382
0, 2, 3, 2.103776454925537
0, 2, 4, 1.076160192489624
0, 2, 5, 1.30906867980957
0, 2, 6, 2.385282278060913
0, 2, 7, 2.109484434127808
0, 2, 8, 1.954152703285217
0, 2, 9, 2.233921527862549
0, 2, 10, 5.304165363311768
0, 2, 11, 3.465784788131714
0, 2, 12, 3.44200873374939
0, 2, 13, 4.891695976257324
0, 2, 14, 4.113951683044434
0, 2, 15, 5.771501064300537
0, 2, 16, 4.193981647491455
0, 2, 17, 8.962514877319336
0, 2, 18, 14.13258266448975
0, 2, 19, 76.70677185058594
0, 2, 20, 162.4567718505859
0, 2, 21, 182.93994140625
0, 2, 22, 195.5204010009766
0, 2, 23, 183.4824981689453
0, 2, 24, 173.4202880859375
0, 2, 25, 184.038818359375
0, 2, 26, 180.8227386474609
0, 2, 27, 188.7767333984375
0, 2, 28, 170.2431030273438
0, 2, 29, 168.75146484375
0, 2, 30, 183.8903045654297
0, 2, 31, 181.7629699707031
0, 2, 32, 183.1561431884766
0, 2, 33, 190.6334228515625
0, 2, 34, 197.7212524414062
0, 2, 35, 181.16796875
0, 2, 36, 186.1364288330078
0, 2, 37, 182.2030029296875
0, 2, 38, 185.0592651367188
0, 2, 39, 168.6087799072266
0, 2, 40, 183.7710113525391
0, 2, 41, 187.1120452880859
0, 2, 42, 189.9028167724609
0, 2, 43, 195.1925964355469
0, 2, 44, 190.8801574707031
0, 2, 45, 189.1001739501953
0, 2, 46, 195.6200866699219
0, 2, 47, 189.5082244873047
0, 2, 48, 178.4415435791016
0, 2, 49, 198.4679718017578
0, 2, 50, 167.4402923583984
0, 2, 51, 185.2169952392578
0, 2, 52, 185.9604949951172
0, 2, 53, 195.0113067626953
0, 2, 54, 175.3144226074219
0, 2, 55, 173.33935546875
0, 2, 56, 181.9944458007812
0, 2, 57, 201.4745025634766
0, 2, 58, 187.5044708251953
0, 2, 59, 189.4840393066406
0, 2, 60, 197.5127258300781
0, 2, 61, 192.5184936523438
0, 2, 62, 191.0755462646484
0, 2, 63, 169.1981658935547
0, 2, 64, 189.6558380126953
0, 2, 65, 203.2282867431641
0, 2, 66, 195.3658447265625
0, 2, 67, 184.0169982910156
0, 2, 68, 183.05712890625
0, 2, 69, 188.9798736572266
0, 2, 70, 203.1111755371094
0, 2, 71, 176.4829559326172
0, 2, 72, 186.3769378662109
0, 2, 73, 177.7254638671875
0, 2, 74, 180.9064178466797
0, 2, 75, 196.2560577392578
0, 2, 76, 183.9997711181641
0, 2, 77, 179.6414337158203
0, 2, 78, 198.70166015625
0, 2, 79, 177.3008880615234
0, 2, 80, 185.0733184814453
0, 2, 81, 187.8405151367188
0, 2, 82, 205.0186157226562
0, 2, 83, 203.7701263427734
0, 2, 84, 188.3004913330078
0, 2, 85, 171.7654571533203
0, 2, 86, 194.7216339111328
0, 2, 87, 172.8293914794922
0, 2, 88, 177.1280212402344
0, 2, 89, 184.6358795166016
0, 2, 90, 177.7275848388672
0, 2, 91, 173.9097442626953
0, 2, 92, 197.1554870605469
0, 2, 93, 193.069091796875
0, 2, 94, 202.5118713378906
0, 2, 95, 194.9387664794922
0, 2, 96, 186.7563781738281
0, 2, 97, 172.2172546386719
0, 2, 98, 174.4866790771484
0, 2, 99, 162.083251953125
0, 2, 100, 187.0957183837891
0, 2, 101, 196.4768524169922
0, 2, 102, 177.9673004150391
0, 2, 103, 198.9497528076172
0, 2, 104, 187.4721069335938
0, 2, 105, 199.4857482910156
0, 2, 106, 194.1183319091797
0, 2, 107, 149.7755279541016
0, 2, 108, 79.25817108154297
0, 2, 109, 17.69674110412598
0, 2, 110, 6.911895751953125
0, 2, 111, 5.710732936859131
0, 2, 112, 4.661993026733398
0, 2, 113, 3.995086669921875
0, 2, 114, 6.327484130859375
0, 2, 115, 3.404475688934326
0, 2, 116, 2.186188697814941
0, 2, 117, 1.681281089782715
0, 2, 118, 3.781766653060913
0, 2, 119, 4.343037605285645
0, 2, 120, 1.371702075004578
0, 2, 121, 3.762580633163452
0, 2, 122, 1.055985331535339
0, 2, 123, 1.554329037666321
0, 2, 124, 1.958228945732117
0, 2, 125, 1.638223171234131
0, 2, 126, 2.769334554672241
0, 2, 127, 1.873627901077271
0, 3, 0, 1.320795178413391
0, 3, 1, 1.50517213344574
0, 3, 2, 2.740824460983276
0, 3, 3, 1.715526103973389
0, 3, 4, 3.607636213302612
0, 3, 5, 1.845346450805664
0, 3, 6, 1.639248371124268
0, 3, 7, 1.242795467376709
0, 3, 8, 1.565025568008423
0, 3, 9, 1.336927056312561
0, 3, 10, 3.068206310272217
0, 3, 11, 3.920916318893433
0, 3, 12, 4.221918106079102
0, 3, 13, 3.373122692108154
0, 3, 14, 6.876602172851562
0, 3, 15, 6.649739742279053
0, 3, 16, 7.144661426544189
0, 3, 17, 6.078795909881592
0, 3, 18, 32.78429412841797
0, 3, 19, 113.9696960449219
0, 3, 20, 178.9841156005859
0, 3, 21, 172.4726867675781
0, 3, 22, 177.8693389892578
0, 3, 23, 187.7381286621094
0, 3, 24, 177.5047607421875
0, 3, 25, 168.4763793945312
0, 3, 26, 183.7552947998047
0, 3, 27, 190.4719390869141
0, 3, 28, 182.5416717529297
0, 3, 29, 198.0781555175781
0, 3, 30, 185.2924346923828
0, 3, 31, 193.2458801269531
0, 3, 32, 206.2508850097656
0, 3, 33, 195.1258239746094
0, 3, 34, 187.5841217041016
0, 3, 35, 175.4741668701172
0, 3, 36, 185.9546966552734
0, 3, 37, 200.6776428222656
0, 3, 38, 192.3222808837891
0, 3, 39, 184.8157806396484
0, 3, 40, 166.453369140625
0, 3, 41, 174.7865600585938
0, 3, 42, 185.1347503662109
0, 3, 43, 181.5748443603516
0, 3, 44, 202.1829223632812
0, 3, 45, 208.1610565185547
0, 3, 46, 199.1819000244141
0, 3, 47, 193.7179565429688
0, 3, 48, 195.729736328125
0, 3, 49, 180.2970123291016
0, 3, 50, 185.9631500244141
0, 3, 51, 174.1104583740234
0, 3, 52, 187.0541534423828
0, 3, 53, 177.1308746337891
0, 3, 54, 179.0927581787109
0, 3, 55, 176.7020874023438
0, 3, 56, 183.4801483154297
0, 3, 57, 175.6547698974609
0, 3, 58, 201.6468505859375
0, 3, 59, 195.9742584228516
0, 3, 60, 185.3134918212891
0, 3, 61, 182.1689605712891
0, 3, 62, 182.6134338378906
0, 3, 63, 183.3730010986328
0, 3, 64, 190.0930328369141
0, 3, 65, 188.6486206054688
0, 3, 66, 175.8893432617188
0, 3, 67, 189.2942047119141
0, 3, 68, 212.7986602783203
0, 3, 69, 189.5576171875
0, 3, 70, 185.8620758056641
0, 3, 71, 197.8982543945312
0, 3, 72, 185.2483062744141
0, 3, 73, 186.2741546630859
0, 3, 74, 192.3264770507812
0, 3, 75, 192.7305297851562
0, 3, 76, 190.5848846435547
0, 3, 77, 197.6887512207031
0, 3, 78, 188.0887451171875
0, 3, 79, 185.6943511962891
0, 3, 80, 191.2400207519531
0, 3, 81, 182.7749786376953
0, 3, 82, 178.8169250488281
0, 3, 83, 194.0855560302734
0, 3, 84, 198.9589691162109
0, 3, 85, 191.5924530029297
0, 3, 86, 203.7695617675781
0, 3, 87, 199.5687561035156
0, 3, 88, 192.2354736328125
0, 3, 89, 192.5429229736328
0, 3, 90, 173.6381225585938
0, 3, 91, 158.8994445800781
0, 3, 92, 206.5701446533203
0, 3, 93, 196.2964324951172
0, 3, 94, 192.6744232177734
0, 3, 95, 210.5931549072266
0, 3, 96, 208.3721618652344
0, 3, 97, 167.1182708740234
0, 3, 98, 167.4631195068359
0, 3, 99, 180.4889068603516
0, 3, 100, 176.2671966552734
0, 3, 101, 197.8166809082031
0, 3, 102, 194.1753387451172
0, 3, 103, 193.6874237060547
0, 3, 104, 203.1755523681641
0, 3, 105, 177.0307312011719
0, 3, 106, 183.0459899902344
0, 3, 107, 169.3410339355469
0, 3, 108, 108.1070556640625
0, 3, 109, 28.11637115478516
0, 3, 110, 7.073328018188477
0, 3, 111, 6.446106433868408
0, 3, 112, 4.153444766998291
0, 3, 113, 8.032824516296387
0, 3, 114, 5.922694683074951
0, 3, 115, 4.92290210723877
0, 3, 116, 6.752005100250244
0, 3, 117, 2.799818277359009
0, 3, 118, 3.534243583679199
0, 3, 119, 2.181706428527832
0, 3, 120, 2.870596408843994
0, 3, 121, 2.530257701873779
0, 3, 122, 3.807935237884521
0, 3, 123, 2.728221893310547
0, 3, 124, 2.898471832275391
0, 3, 125, 1.005832433700562
0, 3, 126, 1.741293549537659
0, 3, 127, 1.780906796455383
0, 4, 0, 0.8952134251594543
0, 4, 1, 1.680968284606934
0, 4, 2, 2.510271310806274
0, 4, 3, 3.593272686004639
0, 4, 4, 2.863783597946167
0, 4, 5, 1.263258457183838
0, 4, 6, 3.201550483703613
0, 4, 7, 2.444287300109863
0, 4, 8, 2.230652093887329
0, 4, 9, 1.529581069946289
0, 4, 10, 2.524819850921631
0, 4, 11, 3.824974775314331
0, 4, 12, 4.580414772033691
0, 4, 13, 5.069730758666992
0, 4, 14, 4.358240604400635
0, 4, 15, 8.564654350280762
0, 4, 16, 6.298085689544678
0, 4, 17, 12.0646448135376
0, 4, 18, 55.81132507324219
0, 4, 19, 152.3131103515625
0, 4, 20, 193.724853515625
0, 4, 21, 169.7298126220703
0, 4, 22, 187.5360107421875
0, 4, 23, 196.7095794677734
0, 4, 24, 193.8810119628906
0, 4, 25, 202.2683715820312
0, 4, 26, 185.3323364257812
0, 4, 27, 191.4377593994141
0, 4, 28, 179.0470275878906
0, 4, 29, 205.0575714111328
0, 4, 30, 196.1245574951172
0, 4, 31, 193.3638305664062
0, 4, 32, 211.6943359375
0, 4, 33, 191.5302429199219
0, 4, 34, 192.7639923095703
0, 4, 35, 212.3575592041016
0, 4, 36, 192.3204040527344
0, 4, 37, 177.00244140625
0, 4, 38, 195.5809631347656
0, 4, 39, 189.7840423583984
0, 4, 40, 185.2871398925781
0, 4, 41, 188.469482421875
0, 4, 42, 206.6802215576172
0, 4, 43, 173.3639831542969
0, 4, 44, 183.3048095703125
0, 4, 45, 197.3047485351562
0, 4, 46, 186.3413543701172
0, 4, 47, 179.4958190917969
0, 4, 48, 185.7953643798828
0, 4, 49, 175.0600280761719
0, 4, 50, 186.318359375
0, 4, 51, 198.7368927001953
0, 4, 52, 223.0905456542969
0, 4, 53, 205.8965759277344
0, 4, 54, 190.0798797607422
0, 4, 55, 175.0099334716797
0, 4, 56, 191.9421234130859
0, 4, 57, 192.8056335449219
0, 4, 58, 188.2460327148438
0, 4, 59, 190.4532928466797
0, 4, 60, 195.9879608154297
0, 4, 61, 194.0850677490234
0, 4, 62, 190.4846954345703
0, 4, 63, 178.9510803222656
0, 4, 64, 211.355224609375
0, 4, 65, 191.2991333007812
0, 4, 66, 201.1807708740234
0, 4, 67, 199.4868469238281
0, 4, 68, 205.1962280273438
0, 4, 69, 198.5765686035156
0, 4, 70, 203.9816436767578
0, 4, 71, 206.0852508544922
0, 4, 72, 214.5173950195312
0, 4, 73, 185.8965759277344
0, 4, 74, 181.2833251953125
0, 4, 75, 185.5898132324219
0, 4, 76, 189.2998962402344
0, 4, 77, 183.0557098388672
0, 4, 78, 194.9314727783203
0, 4, 79, 205.7794342041016
0, 4, 80, 211.2657775878906
0, 4, 81, 198.1923675537109
0, 4, 82, 182.1151733398438
0, 4, 83, 171.0670013427734
0, 4, 84, 192.6132354736328
0, 4, 85, 197.4972991943359
0, 4, 86, 181.4915466308594
0, 4, 87, 183.4690246582031
0, 4, 88, 203.8658905029297
0, 4, 89, 187.3453979492188
0, 4, 90, 211.5513916015625
0, 4, 91, 189.7413940429688
0, 4, 92, 196.7210540771484
0, 4, 93, 195.6978454589844
0, 4, 94, 183.7400665283203
0, 4, 95, 173.7071075439453
0, 4, 96, 189.9490814208984
0, 4, 97, 193.3379516601562
0, 4, 98, 201.5549011230469
0, 4, 99, 184.7518310546875
0, 4, 100, 181.9706115722656
0, 4, 101, 176.64501953125
0, 4, 102, 173.090087890625
0, 4, 103, 185.6107025146484
0, 4, 104, 209.5928039550781
0, 4, 105, 189.9456481933594
0, 4, 106, 178.9863128662109
0, 4, 107, 181.3026275634766
0, 4, 108, 151.5388336181641
0, 4, 109, 50.38320922851562
0, 4, 110, 11.26743507385254
0, 4, 111, 8.707695960998535
0, 4, 112, 6.300642967224121
0, 4, 113, 5.575359344482422
0, 4, 114, 5.209003448486328
0, 4, 115, 6.254508972167969
0, 4, 116, 4.738374710083008
0, 4, 117, 3.618364334106445
0, 4, 118, 5.678643226623535
0, 4, 119, 5.209022521972656
0, 4, 120, 2.904671907424927
0, 4, 121, 2.167373180389404
0, 4, 122, 2.844696998596191
0, 4, 123, 2.353412866592407
0, 4, 124, 3.770975112915039
0, 4, 125, 3.922751903533936
0, 4, 126, 1.285427689552307
0, 4, 127, 2.273519277572632
0, 5, 0, 1.981622219085693
0, 5, 1, 2.957706689834595
0, 5, 2, 6.347884654998779
0, 5, 3, 4.344711303710938
0, 5, 4, 2.587323904037476
0, 5, 5, 2.95995306968689
0, 5, 6, 2.034482002258301
0, 5, 7, 3.180668592453003
0, 5, 8, 2.338906764984131
0, 5, 9, 4.154387950897217
0, 5, 10, 3.722370386123657
0, 5, 11, 4.010082721710205
0, 5, 12, 5.461740493774414
0, 5, 13, 4.084765911102295
0, 5, 14, 6.594691753387451
0, 5, 15, 9.209817886352539
0, 5, 16, 8.623095512390137
0, 5, 17, 22.0467529296875
0, 5, 18, 83.32187652587891
0, 5, 19, 164.5973510742188
0, 5, 20, 182.9046325683594
0, 5, 21, 178.7597961425781
0, 5, 22, 172.2781372070312
0, 5, 23, 200.5541839599609
0, 5, 24, 186.8865051269531
0, 5, 25, 208.8300933837891
0, 5, 26, 183.05810546875
0, 5, 27, 193.3073272705078
0, 5, 28, 190.8391723632812
0, 5, 29, 196.2941741943359
0, 5, 30, 179.4920959472656
0, 5, 31, 180.8764190673828
0, 5, 32, 186.6508331298828
0, 5, 33, 168.7900543212891
0, 5, 34, 196.0798797607422
0, 5, 35, 197.3316802978516
0, 5, 36, 167.8324737548828
0, 5, 37, 196.6043395996094
0, 5, 38, 180.6915740966797
0, 5, 39, 187.8771514892578
0, 5, 40, 196.5240783691406
0, 5, 41, 177.9916229248047
0, 5, 42, 188.7457580566406
0, 5, 43, 193.4781494140625
0, 5, 44, 199.4524078369141
0, 5, 45, 186.3237152099609
0, 5, 46, 193.0069122314453
0, 5, 47, 179.8633422851562
0, 5, 48, 178.1602935791016
0, 5, 49, 177.8319549560547
0, 5, 50, 186.0840911865234
0, 5, 51, 172.5321655273438
0, 5, 52, 168.0342254638672
0, 5, 53, 181.6229095458984
0, 5, 54, 172.0521545410156
0, 5, 55, 215.6085052490234
0, 5, 56, 181.7296447753906
0, 5, 57, 208.1477355957031
0, 5, 58, 182.1944885253906
0, 5, 59, 181.3017272949219
0, 5, 60, 219.12939453125
0, 5, 61, 184.5280151367188
0, 5, 62, 178.0431213378906
0, 5, 63, 180.4347839355469
0, 5, 64, 196.3994445800781
0, 5, 65, 209.8628082275391
0, 5, 66, 191.9832153320312
0, 5, 67, 200.9364776611328
0, 5, 68, 188.8156433105469
0, 5, 69, 185.6543426513672
0, 5, 70, 184.5895233154297
0, 5, 71, 192.3602142333984
0, 5, 72, 199.3928985595703
0, 5, 73, 201.5937805175781
0, 5, 74, 179.46435546875
0, 5, 75, 204.704833984375
0, 5, 76, 213.9959259033203
0, 5, 77, 180.2329864501953
0, 5, 78, 193.9508819580078
0, 5, 79, 190.0001983642578
0, 5, 80, 197.6040802001953
0, 5, 81, 203.6517181396484
0, 5, 82, 202.4294281005859
0, 5, 83, 187.8347930908203
0, 5, 84, 204.8841552734375
0, 5, 85, 176.2273559570312
0, 5, 86, 196.2615661621094
0, 5, 87, 189.2314147949219
0, 5, 88, 178.2674713134766
0, 5, 89, 194.2805633544922
0, 5, 90, 198.6980590820312
0, 5, 91, 194.5147552490234
0, 5, 92, 191.7585296630859
0, 5, 93, 189.9445953369141
0, 5, 94, 206.9774017333984
0, 5, 95, 176.7318878173828
0, 5, 96, 181.9462738037109
0, 5, 97, 190.9290618896484
0, 5, 98, 191.0289764404297
0, 5, 99, 194.6470489501953
0, 5, 100, 185.5850677490234
0, 5, 101, 196.4387664794922
0, 5, 102, 182.4108428955078
0, 5, 103, 176.3184356689453
0, 5, 104, 190.3893585205078
0, 5, 105, 190.7332153320312
0, 5, 106, 176.7389526367188
0, 5, 107, 180.8519439697266
0, 5, 108, 175.5064239501953
0, 5, 109, 90.36088562011719
0, 5, 110, 32.64095687866211
0, 5, 111, 8.476818084716797
0, 5, 112, 7.551050662994385
0, 5, 113, 5.879586696624756
0, 5, 114, 5.534483909606934
0, 5, 115, 5.359082221984863
0, 5, 116, 3.351187705993652
0, 5, 117, 3.036849498748779
0, 5, 118, 4.467771053314209
0, 5, 119, 3.723470211029053
0, 5, 120, 1.99437153339386
0, 5, 121, 1.150861263275146
0, 5, 122, 2.685129165649414
0, 5, 123, 5.31117057800293
0, 5, 124, 2.591841697692871
0, 5, 125, 1.624108791351318
0, 5, 126, 4.256186485290527
0, 5, 127, 2.57097601890564
0, 6, 0, 3.657563447952271
0, 6, 1, 3.53459358215332
0, 6, 2, 4.705125331878662
0, 6, 3, 1.923050045967102
0, 6, 4, 2.673388004302979
0, 6, 5, 1.994410753250122
0, 6, 6, 2.973543167114258
0, 6, 7, 4.119987964630127
0, 6, 8, 3.427143335342407
0, 6, 9, 3.062717437744141
0, 6, 10, 4.217699527740479
0, 6, 11, 4.086120128631592
0, 6, 12, 6.702023029327393
0, 6, 13, 6.519994258880615
0, 6, 14, 4.583474159240723
0, 6, 15, 6.566436767578125
0, 6, 16, 13.25227737426758
0, 6, 17, 28.38608741760254
0, 6, 18, 112.2662734985352
0, 6, 19, 191.7810974121094
0, 6, 20, 195.1708221435547
0, 6, 21, 198.5914764404297
0, 6, 22, 190.9000854492188
0, 6, 23, 190.5490417480469
0, 6, 24, 200.3065490722656
0, 6, 25, 182.6510162353516
0, 6, 26, 186.5725860595703
0, 6, 27, 191.9248657226562
0, 6, 28, 188.5624847412109
0, 6, 29, 210.6696624755859
0, 6, 30, 189.4649505615234
0, 6, 31, 192.9161682128906
0, 6, 32, 205.5361633300781
0, 6, 33, 184.047119140625
0, 6, 34, 197.0150299072266
0, 6, 35, 187.8889923095703
0, 6, 36, 181.29248046875
0, 6, 37, 183.1472930908203
0, 6, 38, 185.5446319580078
0, 6, 39, 194.6341857910156
0, 6, 40, 173.7422790527344
0, 6, 41, 186.53662109375
0, 6, 42, 174.7075653076172
0, 6, 43, 208.4928283691406
0, 6, 44, 208.8839569091797
0, 6, 45, 193.03564453125
0, 6, 46, 187.3694915771484
0, 6, 47, 204.7174224853516
0, 6, 48, 189.1211547851562
0, 6, 49, 178.5324401855469
0, 6, 50, 182.4171142578125
0, 6, 51, 196.0090789794922
0, 6, 52, 200.1206207275391
0, 6, 53, 184.2636413574219
0, 6, 54, 177.7703857421875
0, 6, 55, 195.8892822265625
0, 6, 56, 203.7653656005859
0, 6, 57, 190.7601928710938
0, 6, 58, 179.3277740478516
0, 6, 59, 192.1531677246094
0, 6, 60, 184.6074371337891
0, 6, 61, 193.9076690673828
0, 6, 62, 196.7277679443359
0, 6, 63, 186.5207977294922
0, 6, 64, 168.3146667480469
0, 6, 65, 186.0046539306641
0, 6, 66, 198.0044250488281
0, 6, 67, 212.4298095703125
0, 6, 68, 179.6173095703125
0, 6, 69, 171.9937591552734
0, 6, 70, 187.8647003173828
0, 6, 71, 170.8171691894531
0, 6, 72, 176.0526123046875
0, 6, 73, 177.2085266113281
0, 6, 74, 211.2691345214844
0, 6, 75, 227.6040191650391
0, 6, 76, 184.0981597900391
0, 6, 77, 173.6413116455078
0, 6, 78, 176.3548126220703
0, 6, 79, 189.0873260498047
0, 6, 80, 188.6916656494141
0, 6, 81, 209.1563720703125
0, 6, 82, 196.3482360839844
0, 6, 83, 196.2462463378906
0, 6, 84, 197.9456329345703
0, 6, 85, 180.1549224853516
0, 6, 86, 201.745849609375
0, 6, 87, 183.5516357421875
0, 6, 88, 191.7131805419922
0, 6, 89, 189.2662048339844
0, 6, 90, 205.5215911865234
0, 6, 91, 199.8920440673828
0, 6, 92, 172.8601684570312
0, 6, 93, 193.8311767578125
0, 6, 94, 189.9963989257812
0, 6, 95, 185.2423706054688
0, 6, 96, 190.8055267333984
0, 6, 97, 194.9886169433594
0, 6, 98, 182.9802093505859
0, 6, 99, 174.8968811035156
0, 6, 100, 202.731201171875
0, 6, 101, 168.0214691162109
0, 6, 102, 201.5822143554688
0, 6, 103, 195.5934600830078
0, 6, 104, 183.4775848388672
0, 6, 105, 193.2850189208984
0, 6, 106, 177.1368560791016
0, 6, 107, 195.4174346923828
0, 6, 108, 172.3749084472656
0, 6, 109, 115.5948715209961
0, 6, 110, 35.27513122558594
0, 6, 111, 9.777010917663574
0, 6, 112, 8.537286758422852
0, 6, 113, 6.149906158447266
0, 6, 114, 4.916389942169189
0, 6, 115, 5.970171451568604
0, 6, 116, 3.714301347732544
0, 6, 117, 4.309143543243408
0, 6, 118, 2.873816251754761
0, 6, 119, 3.332307100296021
0, 6, 120, 1.600628733634949
0, 6, 121, 5.526660442352295
0, 6, 122, 2.803347587585449
0, 6, 123, 2.336951732635498
0, 6, 124, 1.730895042419434
0, 6, 125, 2.887841939926147
0, 6, 126, 1.977765917778015
0, 6, 127, 2.456454038619995
0, 7, 0, 4.673052310943604
0, 7, 1, 1.449187040328979
0, 7, 2, 1.249821066856384
0, 7, 3, 2.986014604568481
0, 7, 4, 0.8859198093414307
0, 7, 5, 2.822549343109131
0, 7, 6, 1.810703873634338
0, 7, 7, 2.060243368148804
0, 7, 8, 3.570870161056519
0, 7, 9, 6.646109580993652
0, 7, 10, 7.520210266113281
0, 7, 11, 2.951683282852173
0, 7, 12, 3.740338087081909
0, 7, 13, 5.894283294677734
0, 7, 14, 6.334849834442139
0, 7, 15, 7.87171745300293
0, 7, 16, 15.35318470001221
0, 7, 17, 52.51613235473633
0, 7, 18, 161.1969299316406
0, 7, 19, 181.8794860839844
0, 7, 20, 180.5604095458984
0, 7, 21, 182.3296966552734
0, 7, 22, 191.4865417480469
0, 7, 23, 202.3190155029297
0, 7, 24, 180.0516204833984
0, 7, 25, 212.1618194580078
0, 7, 26, 189.2359619140625
0, 7, 27, 181.90673828125
0, 7, 28, 182.1369171142578
0, 7, 29, 208.9563751220703
0, 7, 30, 192.1878814697266
0, 7, 31, 176.1642150878906
0, 7, 32, 190.5747680664062
0, 7, 33, 179.1038360595703
0, 7, 34, 192.9664459228516
0, 7, 35, 197.8828735351562
0, 7, 36, 187.0001983642578
0, 7, 37, 212.7704925537109
0, 7, 38, 192.4813537597656
0, 7, 39, 172.8394165039062
0, 7, 40, 183.3204193115234
0, 7, 41, 185.5810089111328
0, 7, 42, 179.2633819580078
0, 7, 43, 179.3479309082031
0, 7, 44, 179.4687042236328
0, 7, 45, 174.3905334472656
0, 7, 46, 190.0061340332031
0, 7, 47, 198.5593872070312
0, 7, 48, 185.71533203125
0, 7, 49, 197.9624938964844
0, 7, 50, 187.6004180908203
0, 7, 51, 205.0976257324219
0, 7, 52, 206.3109283447266
0, 7, 53, 192.8460693359375
0, 7, 54, 196.5285491943359
0, 7, 55, 203.1343688964844
0, 7, 56, 183.3189239501953
0, 7, 57, 182.1950531005859
0, 7, 58, 190.9475860595703
0, 7, 59, 188.0053863525391
0, 7, 60, 203.2075958251953
0, 7, 61, 170.7152404785156
0, 7, 62, 202.3950042724609
0, 7, 63, 188.56982421875
0, 7, 64, 199.8403167724609
0, 7, 65, 197.5840454101562
0, 7, 66, 205.5483703613281
0, 7, 67, 219.7732849121094
0, 7, 68, 162.1615142822266
0, 7, 69, 193.8433837890625
0, 7, 70, 216.7089080810547
0, 7, 71, 184.2560272216797
0, 7, 72, 180.7304992675781
0, 7, 73, 177.3355102539062
0, 7, 74, 207.5904388427734
0, 7, 75, 204.1541442871094
0, 7, 76, 215.5852508544922
0, 7, 77, 174.3513488769531
0, 7, 78, 176.9591979980469
0, 7, 79, 194.0841979980469
0, 7, 80, 196.8114929199219
0, 7, 81, 214.6128387451172
0, 7, 82, 183.7773742675781
0, 7, 83, 206.2571411132812
0, 7, 84, 191.798583984375
0, 7, 85, 185.5331878662109
0, 7, 86, 199.8460083007812
0, 7, 87, 225.8652038574219
0, 7, 88, 194.5982208251953
0, 7, 89, 176.4317321777344
0, 7, 90, 182.1266937255859
0, 7, 91, 194.1704711914062
0, 7, 92, 194.026611328125
0, 7, 93, 197.9786987304688
0, 7, 94, 177.0065155029297
0, 7, 95, 198.1526489257812
0, 7, 96, 209.0090484619141
0, 7, 97, 188.7259368896484
0, 7, 98, 176.7720336914062
0, 7, 99, 199.117431640625
0, 7, 100, 182.0046081542969
0, 7, 101, 198.9111480712891
0, 7, 102, 185.6753845214844
0, 7, 103, 183.0822448730469
0, 7, 104, 176.0825958251953
0, 7, 105, 195.7262573242188
0, 7, 106, 206.2352294921875
0, 7, 107, 177.6435089111328
0, 7, 108, 176.9076995849609
0, 7, 109, 137.9658203125
0, 7, 110, 53.75643539428711
0, 7, 111, 9.58543586730957
0, 7, 112, 8.284599304199219
0, 7, 113, 8.209797859191895
0, 7, 114, 6.532958984375
0, 7, 115, 5.710987567901611
0, 7, 116, 4.6514892578125
0, 7, 117, 2.38616156578064
0, 7, 118, 4.600812911987305
0, 7, 119, 3.356228351593018
0, 7, 120, 3.23642897605896
0, 7, 121, 1.923338055610657
0, 7, 122, 2.286605596542358
0, 7, 123, 1.014441013336182
0, 7, 124, 1.204105377197266
0, 7, 125, 1.570326089859009
0, 7, 126, 4.15195369720459
0, 7, 127, 1.900957942008972
0, 8, 0, 4.160216331481934
0, 8, 1, 2.122905492782593
0, 8, 2, 2.881669044494629
0, 8, 3, 2.356733322143555
0, 8, 4, 1.591458678245544
0, 8, 5, 3.177218198776245
0, 8, 6, 2.619006633758545
0, 8, 7, 4.706459999084473
0, 8, 8, 3.536046504974365
0, 8, 9, 3.949774742126465
0, 8, 10, 2.419777393341064
0, 8, 11, 2.30431079864502
0, 8, 12, 4.206424236297607
0, 8, 13, 4.989101886749268
0, 8, 14, 6.906150817871094
0, 8, 15, 8.425797462463379
0, 8, 16, 20.36052322387695
0, 8, 17, 74.63135528564453
0, 8, 18, 142.5643920898438
0, 8, 19, 178.2108764648438
0, 8, 20, 193.2164916992188
0, 8, 21, 192.0154418945312
0, 8, 22, 179.9440612792969
0, 8, 23, 172.1536102294922
0, 8, 24, 191.5417938232422
0, 8, 25, 184.4764556884766
0, 8, 26, 194.15673828125
0, 8, 27, 187.5936279296875
0, 8, 28, 185.2132110595703
0, 8, 29, 206.8217315673828
0, 8, 30, 195.9264221191406
0, 8, 31, 183.0301971435547
0, 8, 32, 198.7964630126953
0, 8, 33, 206.71142578125
0, 8, 34, 203.6948394775391
0, 8, 35, 185.2993774414062
0, 8, 36, 181.0868682861328
