# TOPAS Version: 3.1.p3
# Parameter File: batch_inserts_334.txt
# Results for scorer Readout_Adipose
# Scored in component: MyBox
# X in 1 bin  of 0.65 cm
# Y in 512 bins of 0.0783984 cm
# Z in 128 bins of 0.078125 cm
# EnergyDeposit ( MeV ) : Sum   
0, 0, 0, 1.086485385894775
0, 0, 1, 3.599619626998901
0, 0, 2, 1.787734270095825
0, 0, 3, 0.4822774231433868
0, 0, 4, 1.09426736831665
0, 0, 5, 0.523722767829895
0, 0, 6, 1.234641671180725
0, 0, 7, 1.975364089012146
0, 0, 8, 2.363318204879761
0, 0, 9, 3.514927387237549
0, 0, 10, 2.408239841461182
0, 0, 11, 4.47136116027832
0, 0, 12, 5.053695678710938
0, 0, 13, 2.601497173309326
0, 0, 14, 5.903749942779541
0, 0, 15, 5.00776195526123
0, 0, 16, 4.618723392486572
0, 0, 17, 6.108800411224365
0, 0, 18, 6.500844478607178
0, 0, 19, 22.94563102722168
0, 0, 20, 94.46209716796875
0, 0, 21, 151.6956329345703
0, 0, 22, 153.7284698486328
0, 0, 23, 144.5546112060547
0, 0, 24, 160.7546081542969
0, 0, 25, 166.8409729003906
0, 0, 26, 166.3537139892578
0, 0, 27, 174.1338653564453
0, 0, 28, 178.2100219726562
0, 0, 29, 174.673828125
0, 0, 30, 172.4325256347656
0, 0, 31, 166.4881591796875
0, 0, 32, 164.5920715332031
0, 0, 33, 167.2861480712891
0, 0, 34, 178.0513153076172
0, 0, 35, 174.4125061035156
0, 0, 36, 160.24951171875
0, 0, 37, 161.7267913818359
0, 0, 38, 166.3327331542969
0, 0, 39, 159.2373657226562
0, 0, 40, 164.4731903076172
0, 0, 41, 165.7355499267578
0, 0, 42, 143.4185943603516
0, 0, 43, 167.5896911621094
0, 0, 44, 177.7528381347656
0, 0, 45, 172.4624786376953
0, 0, 46, 165.1524047851562
0, 0, 47, 168.047119140625
0, 0, 48, 168.9366455078125
0, 0, 49, 183.2990417480469
0, 0, 50, 168.5811614990234
0, 0, 51, 162.4462127685547
0, 0, 52, 163.8562774658203
0, 0, 53, 171.0058288574219
0, 0, 54, 160.9599609375
0, 0, 55, 164.5589141845703
0, 0, 56, 190.2759399414062
0, 0, 57, 170.5924224853516
0, 0, 58, 161.3950958251953
0, 0, 59, 172.5850219726562
0, 0, 60, 168.4479522705078
0, 0, 61, 170.54345703125
0, 0, 62, 184.4122467041016
0, 0, 63, 166.8154907226562
0, 0, 64, 164.7601776123047
0, 0, 65, 177.2333984375
0, 0, 66, 177.4408111572266
0, 0, 67, 163.5991516113281
0, 0, 68, 158.5848999023438
0, 0, 69, 158.9888610839844
0, 0, 70, 169.2925109863281
0, 0, 71, 158.6326293945312
0, 0, 72, 162.8503875732422
0, 0, 73, 171.5390167236328
0, 0, 74, 162.1581115722656
0, 0, 75, 162.9044342041016
0, 0, 76, 162.9543762207031
0, 0, 77, 171.9415588378906
0, 0, 78, 182.5213165283203
0, 0, 79, 174.9661102294922
0, 0, 80, 159.1197509765625
0, 0, 81, 160.3841705322266
0, 0, 82, 182.4190979003906
0, 0, 83, 172.4760437011719
0, 0, 84, 160.5705108642578
0, 0, 85, 181.4707489013672
0, 0, 86, 159.0668182373047
0, 0, 87, 176.8518524169922
0, 0, 88, 175.8409881591797
0, 0, 89, 175.820556640625
0, 0, 90, 162.0602569580078
0, 0, 91, 184.95654296875
0, 0, 92, 164.0442657470703
0, 0, 93, 156.7298583984375
0, 0, 94, 168.4839019775391
0, 0, 95, 174.3315734863281
0, 0, 96, 183.3280487060547
0, 0, 97, 183.9261627197266
0, 0, 98, 186.1597900390625
0, 0, 99, 170.7961730957031
0, 0, 100, 158.3387298583984
0, 0, 101, 166.3257904052734
0, 0, 102, 171.4428405761719
0, 0, 103, 172.70458984375
0, 0, 104, 170.3607330322266
0, 0, 105, 176.8966522216797
0, 0, 106, 158.7896118164062
0, 0, 107, 89.11991882324219
0, 0, 108, 23.10725784301758
0, 0, 109, 10.69396686553955
0, 0, 110, 6.370015144348145
0, 0, 111, 6.914659023284912
0, 0, 112, 3.108506679534912
0, 0, 113, 2.841100931167603
0, 0, 114, 3.023646831512451
0, 0, 115, 2.8531494140625
0, 0, 116, 2.486458539962769
0, 0, 117, 2.356977939605713
0, 0, 118, 2.02262020111084
0, 0, 119, 1.756260633468628
0, 0, 120, 1.528071522712708
0, 0, 121, 3.830127239227295
0, 0, 122, 4.131570816040039
0, 0, 123, 4.373052597045898
0, 0, 124, 1.544960379600525
0, 0, 125, 2.31583046913147
0, 0, 126, 1.028673648834229
0, 0, 127, 1.365912079811096
0, 1, 0, 1.646498918533325
0, 1, 1, 4.221874237060547
0, 1, 2, 2.832053422927856
0, 1, 3, 2.090556144714355
0, 1, 4, 3.042542695999146
0, 1, 5, 2.226441144943237
0, 1, 6, 1.315733790397644
0, 1, 7, 2.321000576019287
0, 1, 8, 3.30828332901001
0, 1, 9, 1.806916236877441
0, 1, 10, 2.714076519012451
0, 1, 11, 4.544476985931396
0, 1, 12, 2.71922779083252
0, 1, 13, 4.37440824508667
0, 1, 14, 5.575331211090088
0, 1, 15, 6.586394309997559
0, 1, 16, 7.869007587432861
0, 1, 17, 5.233297348022461
0, 1, 18, 11.76305866241455
0, 1, 19, 38.18259048461914
0, 1, 20, 125.826774597168
0, 1, 21, 176.5548095703125
0, 1, 22, 192.3264312744141
0, 1, 23, 186.0999603271484
0, 1, 24, 180.5939331054688
0, 1, 25, 190.8315124511719
0, 1, 26, 197.7189636230469
0, 1, 27, 187.4385833740234
0, 1, 28, 188.2669830322266
0, 1, 29, 184.1536254882812
0, 1, 30, 178.8481903076172
0, 1, 31, 181.0708770751953
0, 1, 32, 188.9272766113281
0, 1, 33, 189.7838134765625
0, 1, 34, 186.6658477783203
0, 1, 35, 194.5635833740234
0, 1, 36, 206.5407409667969
0, 1, 37, 184.5358581542969
0, 1, 38, 164.9270629882812
0, 1, 39, 171.5561676025391
0, 1, 40, 179.7570190429688
0, 1, 41, 184.6437835693359
0, 1, 42, 182.7225494384766
0, 1, 43, 186.1815643310547
0, 1, 44, 168.9559173583984
0, 1, 45, 188.1426086425781
0, 1, 46, 170.2302703857422
0, 1, 47, 185.2639465332031
0, 1, 48, 186.0488128662109
0, 1, 49, 185.9649963378906
0, 1, 50, 179.7335968017578
0, 1, 51, 192.8389282226562
0, 1, 52, 195.3103485107422
0, 1, 53, 196.1892395019531
0, 1, 54, 185.1759948730469
0, 1, 55, 166.1057586669922
0, 1, 56, 178.6645355224609
0, 1, 57, 178.1298980712891
0, 1, 58, 188.9785003662109
0, 1, 59, 194.0213623046875
0, 1, 60, 187.4515075683594
0, 1, 61, 178.9505462646484
0, 1, 62, 204.3020324707031
0, 1, 63, 174.0900726318359
0, 1, 64, 172.4199066162109
0, 1, 65, 184.8779144287109
0, 1, 66, 204.625
0, 1, 67, 182.8320007324219
0, 1, 68, 186.2051544189453
0, 1, 69, 189.2893371582031
0, 1, 70, 185.5936431884766
0, 1, 71, 170.8717346191406
0, 1, 72, 187.6366577148438
0, 1, 73, 189.9532470703125
0, 1, 74, 203.6681976318359
0, 1, 75, 183.2722778320312
0, 1, 76, 174.7486877441406
0, 1, 77, 192.5754547119141
0, 1, 78, 189.812255859375
0, 1, 79, 201.2768249511719
0, 1, 80, 185.1668090820312
0, 1, 81, 174.4439392089844
0, 1, 82, 209.2691802978516
0, 1, 83, 210.9702911376953
0, 1, 84, 180.1081695556641
0, 1, 85, 170.9048004150391
0, 1, 86, 168.7902069091797
0, 1, 87, 185.0747985839844
0, 1, 88, 176.7425384521484
0, 1, 89, 187.1908721923828
0, 1, 90, 212.1667175292969
0, 1, 91, 180.7328796386719
0, 1, 92, 183.6489410400391
0, 1, 93, 180.8055267333984
0, 1, 94, 184.9232482910156
0, 1, 95, 182.1264190673828
0, 1, 96, 195.6670074462891
0, 1, 97, 182.8162841796875
0, 1, 98, 187.5303344726562
0, 1, 99, 176.9489288330078
0, 1, 100, 172.4007110595703
0, 1, 101, 178.3069000244141
0, 1, 102, 181.7143859863281
0, 1, 103, 172.5799713134766
0, 1, 104, 188.3197784423828
0, 1, 105, 181.5827331542969
0, 1, 106, 164.0147094726562
0, 1, 107, 121.9659881591797
0, 1, 108, 48.14312362670898
0, 1, 109, 9.661355972290039
0, 1, 110, 7.173864841461182
0, 1, 111, 6.762383937835693
0, 1, 112, 10.08824348449707
0, 1, 113, 9.603743553161621
0, 1, 114, 5.012701034545898
0, 1, 115, 2.988746643066406
0, 1, 116, 3.725624322891235
0, 1, 117, 2.653283596038818
0, 1, 118, 4.919543266296387
0, 1, 119, 2.514430522918701
0, 1, 120, 3.671624183654785
0, 1, 121, 3.618494749069214
0, 1, 122, 2.226523637771606
0, 1, 123, 4.62665319442749
0, 1, 124, 1.907109618186951
0, 1, 125, 2.076999425888062
0, 1, 126, 1.923453688621521
0, 1, 127, 1.800455093383789
0, 2, 0, 2.281200647354126
0, 2, 1, 1.954546213150024
0, 2, 2, 1.896061062812805
0, 2, 3, 1.89944326877594
0, 2, 4, 1.110808849334717
0, 2, 5, 0.8140893578529358
0, 2, 6, 2.041390419006348
0, 2, 7, 1.645177960395813
0, 2, 8, 1.797483325004578
0, 2, 9, 2.48434853553772
0, 2, 10, 4.490062713623047
0, 2, 11, 4.381258487701416
0, 2, 12, 3.439440011978149
0, 2, 13, 2.983193874359131
0, 2, 14, 7.111373424530029
0, 2, 15, 6.183844089508057
0, 2, 16, 4.533207893371582
0, 2, 17, 8.927352905273438
0, 2, 18, 13.9721040725708
0, 2, 19, 77.03292846679688
0, 2, 20, 162.9056549072266
0, 2, 21, 182.9440307617188
0, 2, 22, 194.4200897216797
0, 2, 23, 183.4012451171875
0, 2, 24, 173.5614166259766
0, 2, 25, 183.3438568115234
0, 2, 26, 179.4461822509766
0, 2, 27, 188.6052703857422
0, 2, 28, 170.5498046875
0, 2, 29, 168.4769287109375
0, 2, 30, 183.5367279052734
0, 2, 31, 181.9456787109375
0, 2, 32, 183.4255218505859
0, 2, 33, 190.2834777832031
0, 2, 34, 197.9693603515625
0, 2, 35, 183.2038269042969
0, 2, 36, 185.1260223388672
0, 2, 37, 181.7562713623047
0, 2, 38, 186.0279693603516
0, 2, 39, 166.3598175048828
0, 2, 40, 183.9713745117188
0, 2, 41, 184.1813812255859
0, 2, 42, 189.7924499511719
0, 2, 43, 193.6887054443359
0, 2, 44, 190.6445922851562
0, 2, 45, 189.8341979980469
0, 2, 46, 196.9697723388672
0, 2, 47, 189.4842681884766
0, 2, 48, 177.1093597412109
0, 2, 49, 196.8851165771484
0, 2, 50, 167.9072570800781
0, 2, 51, 185.5986328125
0, 2, 52, 187.5799713134766
0, 2, 53, 198.1221466064453
0, 2, 54, 175.7715148925781
0, 2, 55, 173.0921325683594
0, 2, 56, 181.86669921875
0, 2, 57, 200.0922088623047
0, 2, 58, 187.5339660644531
0, 2, 59, 189.6690216064453
0, 2, 60, 196.3943786621094
0, 2, 61, 192.7494201660156
0, 2, 62, 189.4137878417969
0, 2, 63, 169.3254241943359
0, 2, 64, 189.4985656738281
0, 2, 65, 202.2302398681641
0, 2, 66, 195.4497528076172
0, 2, 67, 186.2246551513672
0, 2, 68, 182.62060546875
0, 2, 69, 187.0811920166016
0, 2, 70, 202.5234832763672
0, 2, 71, 174.7030487060547
0, 2, 72, 187.7422180175781
0, 2, 73, 177.5991516113281
0, 2, 74, 180.9484405517578
0, 2, 75, 196.2027282714844
0, 2, 76, 184.0270538330078
0, 2, 77, 176.9555206298828
0, 2, 78, 200.0153045654297
0, 2, 79, 177.1772003173828
0, 2, 80, 186.02783203125
0, 2, 81, 187.5649108886719
0, 2, 82, 203.6751403808594
0, 2, 83, 203.3863525390625
0, 2, 84, 188.1581420898438
0, 2, 85, 169.7052917480469
0, 2, 86, 194.4711303710938
0, 2, 87, 172.0650787353516
0, 2, 88, 176.7691192626953
0, 2, 89, 184.7029571533203
0, 2, 90, 177.3915100097656
0, 2, 91, 174.8433990478516
0, 2, 92, 196.9303131103516
0, 2, 93, 192.7599792480469
0, 2, 94, 201.2946929931641
0, 2, 95, 194.8001556396484
0, 2, 96, 187.8665924072266
0, 2, 97, 171.6322479248047
0, 2, 98, 173.3385467529297
0, 2, 99, 163.3401947021484
0, 2, 100, 187.6421966552734
0, 2, 101, 196.388427734375
0, 2, 102, 175.9966125488281
0, 2, 103, 199.1523742675781
0, 2, 104, 187.2173614501953
0, 2, 105, 200.1568756103516
0, 2, 106, 194.0192718505859
0, 2, 107, 149.1645965576172
0, 2, 108, 79.14580535888672
0, 2, 109, 19.3627758026123
0, 2, 110, 8.736370086669922
0, 2, 111, 5.801653861999512
0, 2, 112, 3.611389636993408
0, 2, 113, 4.570200443267822
0, 2, 114, 7.38196849822998
0, 2, 115, 5.230582714080811
0, 2, 116, 1.801223635673523
0, 2, 117, 2.128819942474365
0, 2, 118, 1.90204131603241
0, 2, 119, 2.799027442932129
0, 2, 120, 1.642253994941711
0, 2, 121, 3.779291868209839
0, 2, 122, 2.185048580169678
0, 2, 123, 2.831968784332275
0, 2, 124, 1.664329767227173
0, 2, 125, 1.55798602104187
0, 2, 126, 2.498057842254639
0, 2, 127, 0.9869716167449951
0, 3, 0, 1.62991738319397
0, 3, 1, 1.21145761013031
0, 3, 2, 1.985837578773499
0, 3, 3, 1.119570016860962
0, 3, 4, 3.581752061843872
0, 3, 5, 3.597640037536621
0, 3, 6, 1.417633175849915
0, 3, 7, 1.57310676574707
0, 3, 8, 1.748078346252441
0, 3, 9, 2.292744159698486
0, 3, 10, 1.290915012359619
0, 3, 11, 3.288840293884277
0, 3, 12, 3.411070108413696
0, 3, 13, 3.162164449691772
0, 3, 14, 3.928709745407104
0, 3, 15, 6.19682502746582
0, 3, 16, 9.210834503173828
0, 3, 17, 6.901249885559082
0, 3, 18, 33.84920120239258
0, 3, 19, 113.9843368530273
0, 3, 20, 181.417724609375
0, 3, 21, 173.781494140625
0, 3, 22, 178.1750793457031
0, 3, 23, 187.6442260742188
0, 3, 24, 178.4368133544922
0, 3, 25, 168.2848663330078
0, 3, 26, 180.3683319091797
0, 3, 27, 189.3509674072266
0, 3, 28, 181.8174438476562
0, 3, 29, 196.7479858398438
0, 3, 30, 185.2469787597656
0, 3, 31, 193.3551788330078
0, 3, 32, 205.5520172119141
0, 3, 33, 195.3212738037109
0, 3, 34, 187.179931640625
0, 3, 35, 173.2446136474609
0, 3, 36, 184.8348999023438
0, 3, 37, 200.1016693115234
0, 3, 38, 191.2116394042969
0, 3, 39, 186.9860992431641
0, 3, 40, 165.3294830322266
0, 3, 41, 174.5019226074219
0, 3, 42, 185.2650146484375
0, 3, 43, 181.7883453369141
0, 3, 44, 202.5757598876953
0, 3, 45, 207.5274047851562
0, 3, 46, 199.629150390625
0, 3, 47, 194.2065887451172
0, 3, 48, 198.3348693847656
0, 3, 49, 179.8035583496094
0, 3, 50, 186.0984497070312
0, 3, 51, 173.9809722900391
0, 3, 52, 187.0349731445312
0, 3, 53, 178.3658142089844
0, 3, 54, 178.8245086669922
0, 3, 55, 178.1753082275391
0, 3, 56, 182.4336090087891
0, 3, 57, 177.0710601806641
0, 3, 58, 201.4172668457031
0, 3, 59, 198.7258758544922
0, 3, 60, 186.7243499755859
0, 3, 61, 180.5305938720703
0, 3, 62, 182.7363128662109
0, 3, 63, 184.2637176513672
0, 3, 64, 188.0573425292969
0, 3, 65, 186.7334289550781
0, 3, 66, 175.253173828125
0, 3, 67, 190.9786682128906
0, 3, 68, 212.0041961669922
0, 3, 69, 190.1235961914062
0, 3, 70, 185.8967895507812
0, 3, 71, 197.2310028076172
0, 3, 72, 185.2583770751953
0, 3, 73, 187.1419677734375
0, 3, 74, 194.6182708740234
0, 3, 75, 192.5787963867188
0, 3, 76, 192.0339050292969
0, 3, 77, 198.7598419189453
0, 3, 78, 188.3956909179688
0, 3, 79, 186.1070251464844
0, 3, 80, 191.5843353271484
0, 3, 81, 183.8663635253906
0, 3, 82, 181.3501739501953
0, 3, 83, 195.4630279541016
0, 3, 84, 198.0744934082031
0, 3, 85, 191.5718078613281
0, 3, 86, 203.6690063476562
0, 3, 87, 198.107666015625
0, 3, 88, 190.9492797851562
0, 3, 89, 192.8515930175781
0, 3, 90, 173.4163665771484
0, 3, 91, 158.4414520263672
0, 3, 92, 207.6782989501953
0, 3, 93, 195.7332000732422
0, 3, 94, 191.9591217041016
0, 3, 95, 211.2339477539062
0, 3, 96, 208.5189056396484
0, 3, 97, 169.0254364013672
0, 3, 98, 167.4002990722656
0, 3, 99, 180.00244140625
0, 3, 100, 177.1177062988281
0, 3, 101, 197.6016235351562
0, 3, 102, 194.86279296875
0, 3, 103, 192.5054931640625
0, 3, 104, 202.4970092773438
0, 3, 105, 176.4143524169922
0, 3, 106, 181.4468536376953
0, 3, 107, 168.9959259033203
0, 3, 108, 108.0282440185547
0, 3, 109, 27.19721603393555
0, 3, 110, 7.174102783203125
0, 3, 111, 6.107438087463379
0, 3, 112, 3.955506086349487
0, 3, 113, 7.875251770019531
0, 3, 114, 5.478802680969238
0, 3, 115, 5.258510589599609
0, 3, 116, 6.080132007598877
0, 3, 117, 3.240186929702759
0, 3, 118, 1.324623942375183
0, 3, 119, 2.08160138130188
0, 3, 120, 3.38757848739624
0, 3, 121, 2.210979700088501
0, 3, 122, 1.356668591499329
0, 3, 123, 1.833818793296814
0, 3, 124, 2.224364042282104
0, 3, 125, 1.94909405708313
0, 3, 126, 1.093039512634277
0, 3, 127, 1.03225040435791
0, 4, 0, 1.301983952522278
0, 4, 1, 1.667799472808838
0, 4, 2, 1.700077176094055
0, 4, 3, 3.266859292984009
0, 4, 4, 1.65586531162262
0, 4, 5, 2.046976804733276
0, 4, 6, 2.436376810073853
0, 4, 7, 2.001465797424316
0, 4, 8, 1.85368025302887
0, 4, 9, 3.0247802734375
0, 4, 10, 2.936977624893188
0, 4, 11, 3.498006582260132
0, 4, 12, 3.757066965103149
0, 4, 13, 4.293330192565918
0, 4, 14, 5.45694637298584
0, 4, 15, 9.516287803649902
0, 4, 16, 5.874039173126221
0, 4, 17, 11.99507141113281
0, 4, 18, 55.28926086425781
0, 4, 19, 151.8150634765625
0, 4, 20, 194.1818695068359
0, 4, 21, 169.0170135498047
0, 4, 22, 187.3591918945312
0, 4, 23, 195.8679656982422
0, 4, 24, 192.3524322509766
0, 4, 25, 199.4716644287109
0, 4, 26, 182.8106689453125
0, 4, 27, 191.8798370361328
0, 4, 28, 178.0870208740234
0, 4, 29, 205.3615570068359
0, 4, 30, 196.0522613525391
0, 4, 31, 193.9093627929688
0, 4, 32, 208.9571075439453
0, 4, 33, 191.1173248291016
0, 4, 34, 192.0897674560547
0, 4, 35, 215.5200805664062
0, 4, 36, 193.0119934082031
0, 4, 37, 176.7864990234375
0, 4, 38, 195.3682250976562
0, 4, 39, 190.8051910400391
0, 4, 40, 185.1402893066406
0, 4, 41, 189.4675445556641
0, 4, 42, 206.021240234375
0, 4, 43, 174.8982849121094
0, 4, 44, 183.3403778076172
0, 4, 45, 196.723876953125
0, 4, 46, 186.0532684326172
0, 4, 47, 181.9488677978516
0, 4, 48, 186.3228607177734
0, 4, 49, 174.2068939208984
0, 4, 50, 186.4067993164062
0, 4, 51, 197.4344024658203
0, 4, 52, 223.6984710693359
0, 4, 53, 205.5004577636719
0, 4, 54, 189.2029418945312
0, 4, 55, 174.6559906005859
0, 4, 56, 190.5680694580078
0, 4, 57, 192.2183074951172
0, 4, 58, 186.9053344726562
0, 4, 59, 189.871826171875
0, 4, 60, 196.0142211914062
0, 4, 61, 193.3859252929688
0, 4, 62, 192.8050994873047
0, 4, 63, 178.0413513183594
0, 4, 64, 212.4603118896484
0, 4, 65, 191.5940551757812
0, 4, 66, 201.5240478515625
0, 4, 67, 199.2877502441406
0, 4, 68, 202.0020904541016
0, 4, 69, 198.1416778564453
0, 4, 70, 205.3280334472656
0, 4, 71, 206.7680206298828
0, 4, 72, 215.2526245117188
0, 4, 73, 186.4892730712891
0, 4, 74, 180.0149993896484
0, 4, 75, 184.0361938476562
0, 4, 76, 189.37939453125
0, 4, 77, 184.1887664794922
0, 4, 78, 194.9808959960938
0, 4, 79, 204.0732269287109
0, 4, 80, 211.9696960449219
0, 4, 81, 199.1001892089844
0, 4, 82, 181.0903778076172
0, 4, 83, 169.5617218017578
0, 4, 84, 193.4110717773438
0, 4, 85, 196.9817199707031
0, 4, 86, 181.5951080322266
0, 4, 87, 185.2170562744141
0, 4, 88, 204.4679870605469
0, 4, 89, 187.4966583251953
0, 4, 90, 211.656494140625
0, 4, 91, 188.8534545898438
0, 4, 92, 195.8556823730469
0, 4, 93, 196.2291412353516
0, 4, 94, 181.6303100585938
0, 4, 95, 173.3273010253906
0, 4, 96, 190.1337738037109
0, 4, 97, 191.8001403808594
0, 4, 98, 201.6284484863281
0, 4, 99, 183.7769317626953
0, 4, 100, 183.2192840576172
0, 4, 101, 177.9050750732422
0, 4, 102, 174.6899261474609
0, 4, 103, 186.4842834472656
0, 4, 104, 211.6152191162109
0, 4, 105, 189.6471405029297
0, 4, 106, 180.594970703125
0, 4, 107, 182.8713836669922
0, 4, 108, 153.1546020507812
0, 4, 109, 49.25422286987305
0, 4, 110, 13.34897613525391
0, 4, 111, 7.794179916381836
0, 4, 112, 6.223114013671875
0, 4, 113, 7.797309398651123
0, 4, 114, 4.699213027954102
0, 4, 115, 2.916426420211792
0, 4, 116, 4.427632331848145
0, 4, 117, 3.287095546722412
0, 4, 118, 3.386112451553345
0, 4, 119, 3.587012052536011
0, 4, 120, 3.025064945220947
0, 4, 121, 1.627918124198914
0, 4, 122, 3.240714550018311
0, 4, 123, 1.781159996986389
0, 4, 124, 3.347712755203247
0, 4, 125, 3.265057325363159
0, 4, 126, 1.965762376785278
0, 4, 127, 2.143120288848877
0, 5, 0, 1.659642815589905
0, 5, 1, 3.980868816375732
0, 5, 2, 6.364475250244141
0, 5, 3, 5.305350780487061
0, 5, 4, 1.717779517173767
0, 5, 5, 1.200661778450012
0, 5, 6, 2.876734733581543
0, 5, 7, 2.334302425384521
0, 5, 8, 2.316336870193481
0, 5, 9, 3.319073438644409
0, 5, 10, 2.930649518966675
0, 5, 11, 2.706071615219116
0, 5, 12, 5.598452091217041
0, 5, 13, 3.657404899597168
0, 5, 14, 4.997691631317139
0, 5, 15, 9.450179100036621
0, 5, 16, 6.846954345703125
0, 5, 17, 21.94623374938965
0, 5, 18, 84.36766815185547
0, 5, 19, 164.4673461914062
0, 5, 20, 183.0467071533203
0, 5, 21, 177.7583770751953
0, 5, 22, 171.1872863769531
0, 5, 23, 200.8496398925781
0, 5, 24, 186.8599090576172
0, 5, 25, 207.4353637695312
0, 5, 26, 181.8991546630859
0, 5, 27, 193.5689239501953
0, 5, 28, 191.0630493164062
0, 5, 29, 195.1400909423828
0, 5, 30, 178.4405212402344
0, 5, 31, 179.9315338134766
0, 5, 32, 186.8379974365234
0, 5, 33, 169.8501739501953
0, 5, 34, 194.9656372070312
0, 5, 35, 196.1993865966797
0, 5, 36, 167.7447509765625
0, 5, 37, 196.9295501708984
0, 5, 38, 180.5077362060547
0, 5, 39, 187.8381805419922
0, 5, 40, 196.0960083007812
0, 5, 41, 176.9994506835938
0, 5, 42, 188.5161437988281
0, 5, 43, 191.5578460693359
0, 5, 44, 200.7043914794922
0, 5, 45, 186.2199554443359
0, 5, 46, 192.7977905273438
0, 5, 47, 181.7301330566406
0, 5, 48, 177.6704406738281
0, 5, 49, 177.5556640625
0, 5, 50, 186.7351837158203
0, 5, 51, 171.9184265136719
0, 5, 52, 167.8680114746094
0, 5, 53, 181.8863830566406
0, 5, 54, 173.573486328125
0, 5, 55, 217.1676177978516
0, 5, 56, 182.1243743896484
0, 5, 57, 206.8909454345703
0, 5, 58, 182.5093994140625
0, 5, 59, 182.2182006835938
0, 5, 60, 217.9080657958984
0, 5, 61, 184.3289489746094
0, 5, 62, 179.7294158935547
0, 5, 63, 180.3639068603516
0, 5, 64, 196.0545043945312
0, 5, 65, 211.4469451904297
0, 5, 66, 191.6548309326172
0, 5, 67, 199.5207672119141
0, 5, 68, 188.4265289306641
0, 5, 69, 185.7550506591797
0, 5, 70, 187.0344085693359
0, 5, 71, 193.2200317382812
0, 5, 72, 198.2534942626953
0, 5, 73, 201.4504547119141
0, 5, 74, 180.6437530517578
0, 5, 75, 203.3088836669922
0, 5, 76, 213.4275054931641
0, 5, 77, 181.0563049316406
0, 5, 78, 194.7731018066406
0, 5, 79, 190.2403869628906
0, 5, 80, 197.9965972900391
0, 5, 81, 203.0141754150391
0, 5, 82, 202.0435485839844
0, 5, 83, 189.894287109375
0, 5, 84, 207.1492156982422
0, 5, 85, 178.9475708007812
0, 5, 86, 195.3458709716797
0, 5, 87, 189.5700378417969
0, 5, 88, 177.4217071533203
0, 5, 89, 194.3670349121094
0, 5, 90, 198.5953216552734
0, 5, 91, 194.4254302978516
0, 5, 92, 190.5917205810547
0, 5, 93, 189.258056640625
0, 5, 94, 207.7973480224609
0, 5, 95, 177.1458129882812
0, 5, 96, 181.3836364746094
0, 5, 97, 191.8370513916016
0, 5, 98, 190.1784973144531
0, 5, 99, 194.0838928222656
0, 5, 100, 185.4062652587891
0, 5, 101, 196.165771484375
0, 5, 102, 182.7173767089844
0, 5, 103, 176.0159149169922
0, 5, 104, 190.2721405029297
0, 5, 105, 190.1887664794922
0, 5, 106, 177.9351959228516
0, 5, 107, 182.0155639648438
0, 5, 108, 177.0149383544922
0, 5, 109, 90.13942718505859
0, 5, 110, 31.01579666137695
0, 5, 111, 10.88507556915283
0, 5, 112, 7.155184268951416
0, 5, 113, 6.414320945739746
0, 5, 114, 6.576018810272217
0, 5, 115, 4.927792072296143
0, 5, 116, 3.790064811706543
0, 5, 117, 3.367504596710205
0, 5, 118, 3.599186897277832
0, 5, 119, 3.812473773956299
0, 5, 120, 3.528042316436768
0, 5, 121, 1.932647705078125
0, 5, 122, 3.253300905227661
0, 5, 123, 5.251773834228516
0, 5, 124, 3.291951417922974
0, 5, 125, 0.8127378821372986
0, 5, 126, 2.135703086853027
0, 5, 127, 2.603606224060059
0, 6, 0, 4.348129749298096
0, 6, 1, 3.307773590087891
0, 6, 2, 4.236034393310547
0, 6, 3, 1.683300018310547
0, 6, 4, 2.802979230880737
0, 6, 5, 3.476402997970581
0, 6, 6, 3.002228260040283
0, 6, 7, 3.839425325393677
0, 6, 8, 4.549824237823486
0, 6, 9, 3.100955724716187
0, 6, 10, 3.702550888061523
0, 6, 11, 3.698635101318359
0, 6, 12, 3.063757419586182
0, 6, 13, 5.48886251449585
0, 6, 14, 5.988533020019531
0, 6, 15, 6.420353412628174
0, 6, 16, 14.42366409301758
0, 6, 17, 28.10763359069824
0, 6, 18, 111.8145904541016
0, 6, 19, 194.5149841308594
0, 6, 20, 196.8095092773438
0, 6, 21, 198.3798675537109
0, 6, 22, 190.1693267822266
0, 6, 23, 190.0016326904297
0, 6, 24, 200.9539337158203
0, 6, 25, 185.096923828125
0, 6, 26, 187.3944091796875
0, 6, 27, 192.63818359375
0, 6, 28, 189.0440368652344
0, 6, 29, 211.7915496826172
0, 6, 30, 190.0209808349609
0, 6, 31, 193.6802062988281
0, 6, 32, 207.0442352294922
0, 6, 33, 184.2859802246094
0, 6, 34, 197.1292114257812
0, 6, 35, 187.4965972900391
0, 6, 36, 179.2419891357422
0, 6, 37, 182.2830810546875
0, 6, 38, 185.0582733154297
0, 6, 39, 194.5256500244141
0, 6, 40, 173.0670776367188
0, 6, 41, 186.4229583740234
0, 6, 42, 173.9801788330078
0, 6, 43, 209.2107696533203
0, 6, 44, 209.7012023925781
0, 6, 45, 193.4603424072266
0, 6, 46, 187.2591094970703
0, 6, 47, 204.4795837402344
0, 6, 48, 189.2502593994141
0, 6, 49, 178.0855560302734
0, 6, 50, 181.5886383056641
0, 6, 51, 196.6654815673828
0, 6, 52, 197.2502899169922
0, 6, 53, 185.8594818115234
0, 6, 54, 176.6766662597656
0, 6, 55, 195.9361114501953
0, 6, 56, 201.9805755615234
0, 6, 57, 190.3341064453125
0, 6, 58, 180.5201873779297
0, 6, 59, 191.4645385742188
0, 6, 60, 184.6786346435547
0, 6, 61, 193.8223724365234
0, 6, 62, 197.0986022949219
0, 6, 63, 185.9605865478516
0, 6, 64, 169.5909118652344
0, 6, 65, 186.1333770751953
0, 6, 66, 199.685791015625
0, 6, 67, 213.1332855224609
0, 6, 68, 180.8926696777344
0, 6, 69, 171.7544403076172
0, 6, 70, 188.885986328125
0, 6, 71, 170.4457092285156
0, 6, 72, 176.4833679199219
0, 6, 73, 176.5737457275391
0, 6, 74, 209.3274536132812
0, 6, 75, 227.6902618408203
0, 6, 76, 183.93701171875
0, 6, 77, 175.3891906738281
0, 6, 78, 175.2881774902344
0, 6, 79, 186.5141906738281
0, 6, 80, 187.1010894775391
0, 6, 81, 208.5233306884766
0, 6, 82, 195.4196929931641
0, 6, 83, 194.6245574951172
0, 6, 84, 197.1981201171875
0, 6, 85, 180.7706909179688
0, 6, 86, 201.6200866699219
0, 6, 87, 183.7280883789062
0, 6, 88, 192.2238922119141
0, 6, 89, 189.2949066162109
0, 6, 90, 205.0732116699219
0, 6, 91, 200.5014343261719
0, 6, 92, 172.0548095703125
0, 6, 93, 192.1869964599609
0, 6, 94, 190.77197265625
0, 6, 95, 186.1965026855469
0, 6, 96, 188.6267547607422
0, 6, 97, 194.4075012207031
0, 6, 98, 182.9287719726562
0, 6, 99, 174.8781280517578
0, 6, 100, 201.0339660644531
0, 6, 101, 167.2713775634766
0, 6, 102, 202.8411865234375
0, 6, 103, 196.0487060546875
0, 6, 104, 183.5630035400391
0, 6, 105, 193.7256927490234
0, 6, 106, 177.3623352050781
0, 6, 107, 196.0608978271484
0, 6, 108, 170.7572937011719
0, 6, 109, 115.6417922973633
0, 6, 110, 33.69318389892578
0, 6, 111, 10.47538566589355
0, 6, 112, 10.2341251373291
0, 6, 113, 6.681275844573975
0, 6, 114, 4.713306427001953
0, 6, 115, 5.162215709686279
0, 6, 116, 3.624885082244873
0, 6, 117, 2.902096509933472
0, 6, 118, 4.134232044219971
0, 6, 119, 4.089012622833252
0, 6, 120, 2.115687131881714
0, 6, 121, 4.718767642974854
0, 6, 122, 4.209742069244385
0, 6, 123, 2.081961870193481
0, 6, 124, 1.713997960090637
0, 6, 125, 3.109931945800781
0, 6, 126, 2.134986162185669
0, 6, 127, 2.756634712219238
0, 7, 0, 3.343376636505127
0, 7, 1, 1.894339203834534
0, 7, 2, 2.154154539108276
0, 7, 3, 3.021589279174805
0, 7, 4, 0.7311051487922668
0, 7, 5, 1.060033798217773
0, 7, 6, 1.992091298103333
0, 7, 7, 1.467728495597839
0, 7, 8, 2.970970869064331
0, 7, 9, 3.643165826797485
0, 7, 10, 4.759308338165283
0, 7, 11, 3.428906679153442
0, 7, 12, 3.929085731506348
0, 7, 13, 6.392085075378418
0, 7, 14, 7.16356897354126
0, 7, 15, 7.371676445007324
0, 7, 16, 15.41557502746582
0, 7, 17, 52.18014144897461
0, 7, 18, 162.6687622070312
0, 7, 19, 183.1928863525391
0, 7, 20, 180.6722412109375
0, 7, 21, 180.1027374267578
0, 7, 22, 191.2983703613281
0, 7, 23, 203.4555969238281
0, 7, 24, 180.2089080810547
0, 7, 25, 213.1650695800781
0, 7, 26, 189.7668762207031
0, 7, 27, 181.9687042236328
0, 7, 28, 183.7114868164062
0, 7, 29, 208.8377532958984
0, 7, 30, 193.6132965087891
0, 7, 31, 175.870849609375
0, 7, 32, 189.2709503173828
0, 7, 33, 179.3038787841797
0, 7, 34, 193.7497406005859
0, 7, 35, 197.4188232421875
0, 7, 36, 188.3380737304688
0, 7, 37, 212.783203125
0, 7, 38, 190.9764251708984
0, 7, 39, 173.4713287353516
0, 7, 40, 183.2130889892578
0, 7, 41, 184.7430419921875
0, 7, 42, 177.7288513183594
0, 7, 43, 178.5969696044922
0, 7, 44, 178.7875366210938
0, 7, 45, 174.4022827148438
0, 7, 46, 189.7221832275391
0, 7, 47, 198.5523071289062
0, 7, 48, 187.2061309814453
0, 7, 49, 200.5987548828125
0, 7, 50, 187.7787780761719
0, 7, 51, 204.6609344482422
0, 7, 52, 205.9739227294922
0, 7, 53, 191.2067108154297
0, 7, 54, 195.3733978271484
0, 7, 55, 204.7830047607422
0, 7, 56, 183.3976898193359
0, 7, 57, 182.0379791259766
0, 7, 58, 190.6649169921875
0, 7, 59, 188.3660888671875
0, 7, 60, 203.3131866455078
0, 7, 61, 170.8053588867188
0, 7, 62, 202.6491851806641
0, 7, 63, 189.4015350341797
0, 7, 64, 199.1387023925781
0, 7, 65, 195.1667175292969
0, 7, 66, 206.0855560302734
0, 7, 67, 219.3827972412109
0, 7, 68, 163.0964202880859
0, 7, 69, 194.5872497558594
0, 7, 70, 218.2073974609375
0, 7, 71, 184.1986541748047
0, 7, 72, 179.6115875244141
0, 7, 73, 176.9139251708984
0, 7, 74, 211.5311584472656
0, 7, 75, 204.1784973144531
0, 7, 76, 214.8090667724609
0, 7, 77, 173.7581176757812
0, 7, 78, 177.8663940429688
0, 7, 79, 194.0245361328125
0, 7, 80, 197.4068450927734
0, 7, 81, 216.7503662109375
0, 7, 82, 185.4226226806641
0, 7, 83, 206.5377960205078
0, 7, 84, 191.2780303955078
0, 7, 85, 185.7631530761719
0, 7, 86, 200.9178619384766
0, 7, 87, 225.7006988525391
0, 7, 88, 194.9039154052734
0, 7, 89, 177.6955718994141
0, 7, 90, 184.4286041259766
0, 7, 91, 194.1150665283203
0, 7, 92, 194.3530578613281
0, 7, 93, 198.6975555419922
0, 7, 94, 178.4130096435547
0, 7, 95, 198.1754150390625
0, 7, 96, 208.5497894287109
0, 7, 97, 188.4072265625
0, 7, 98, 175.9880065917969
0, 7, 99, 196.9568634033203
0, 7, 100, 183.4976501464844
0, 7, 101, 200.1384887695312
0, 7, 102, 185.2931060791016
0, 7, 103, 182.8072357177734
0, 7, 104, 174.4933013916016
0, 7, 105, 195.4872589111328
0, 7, 106, 205.9244384765625
0, 7, 107, 172.5393676757812
0, 7, 108, 176.5259857177734
0, 7, 109, 137.4443664550781
0, 7, 110, 53.92014694213867
0, 7, 111, 8.993855476379395
0, 7, 112, 7.966705322265625
0, 7, 113, 8.323916435241699
0, 7, 114, 7.451749801635742
0, 7, 115, 5.087445259094238
0, 7, 116, 3.78734827041626
0, 7, 117, 3.047120332717896
0, 7, 118, 3.779810667037964
0, 7, 119, 2.378919124603271
0, 7, 120, 2.530110359191895
0, 7, 121, 1.902202844619751
0, 7, 122, 2.412890434265137
0, 7, 123, 2.293642044067383
0, 7, 124, 1.90071177482605
0, 7, 125, 1.634070158004761
0, 7, 126, 4.408241271972656
0, 7, 127, 2.397076606750488
0, 8, 0, 5.13543701171875
0, 8, 1, 2.6142258644104
0, 8, 2, 3.017205715179443
0, 8, 3, 1.851033926010132
0, 8, 4, 2.13336181640625
0, 8, 5, 3.576150178909302
0, 8, 6, 2.474117279052734
0, 8, 7, 3.207499027252197
0, 8, 8, 2.4837806224823
0, 8, 9, 5.285034656524658
0, 8, 10, 1.720226168632507
0, 8, 11, 2.542617797851562
0, 8, 12, 3.918853998184204
0, 8, 13, 5.028675079345703
0, 8, 14, 6.243587017059326
0, 8, 15, 8.21580982208252
0, 8, 16, 19.05711936950684
0, 8, 17, 74.78675842285156
0, 8, 18, 142.5031585693359
0, 8, 19, 179.9476013183594
0, 8, 20, 194.1642303466797
0, 8, 21, 194.4591979980469
0, 8, 22, 179.0629730224609
0, 8, 23, 172.2389526367188
0, 8, 24, 192.1626281738281
0, 8, 25, 184.4579925537109
0, 8, 26, 192.6672210693359
0, 8, 27, 186.2890014648438
0, 8, 28, 187.7027893066406
0, 8, 29, 207.7336578369141
0, 8, 30, 196.3493194580078
0, 8, 31, 182.885986328125
0, 8, 32, 197.4983825683594
0, 8, 33, 206.3471069335938
0, 8, 34, 204.2086486816406
0, 8, 35, 185.0136871337891
0, 8, 36, 181.7195892333984
0, 8, 37, 198.6126708984375
