# TOPAS Version: 3.1.p3
# Parameter File: batch_inserts_118.txt
# Results for scorer Readout_Adipose
# Scored in component: MyBox
# X in 1 bin  of 0.65 cm
# Y in 512 bins of 0.0783984 cm
# Z in 128 bins of 0.078125 cm
# EnergyDeposit ( MeV ) : Sum   
0, 0, 0, 1.363794565200806
0, 0, 1, 3.762340068817139
0, 0, 2, 0.8067094683647156
0, 0, 3, 1.105974435806274
0, 0, 4, 1.108130693435669
0, 0, 5, 1.658260464668274
0, 0, 6, 1.024121046066284
0, 0, 7, 2.269617080688477
0, 0, 8, 1.647199869155884
0, 0, 9, 2.913208723068237
0, 0, 10, 1.869267582893372
0, 0, 11, 3.04649543762207
0, 0, 12, 3.930541276931763
0, 0, 13, 3.300872802734375
0, 0, 14, 5.504653930664062
0, 0, 15, 5.234586238861084
0, 0, 16, 4.548995018005371
0, 0, 17, 6.800441741943359
0, 0, 18, 8.937217712402344
0, 0, 19, 22.32712554931641
0, 0, 20, 94.08147430419922
0, 0, 21, 153.3143768310547
0, 0, 22, 153.8392486572266
0, 0, 23, 144.1005859375
0, 0, 24, 159.9470672607422
0, 0, 25, 165.9651336669922
0, 0, 26, 166.0255432128906
0, 0, 27, 174.2894287109375
0, 0, 28, 178.0184936523438
0, 0, 29, 175.2495269775391
0, 0, 30, 173.2744293212891
0, 0, 31, 167.2162780761719
0, 0, 32, 164.8098754882812
0, 0, 33, 165.6294708251953
0, 0, 34, 176.9689178466797
0, 0, 35, 174.0960693359375
0, 0, 36, 159.1702575683594
0, 0, 37, 161.9803009033203
0, 0, 38, 166.8441467285156
0, 0, 39, 160.0880584716797
0, 0, 40, 164.7667999267578
0, 0, 41, 165.7293701171875
0, 0, 42, 142.8553619384766
0, 0, 43, 167.9018859863281
0, 0, 44, 177.5193786621094
0, 0, 45, 172.4792327880859
0, 0, 46, 166.1900634765625
0, 0, 47, 167.6253814697266
0, 0, 48, 169.1441192626953
0, 0, 49, 183.75244140625
0, 0, 50, 170.7452087402344
0, 0, 51, 162.0789184570312
0, 0, 52, 162.3113555908203
0, 0, 53, 171.5082397460938
0, 0, 54, 160.4032440185547
0, 0, 55, 164.8739471435547
0, 0, 56, 189.0015869140625
0, 0, 57, 170.3197174072266
0, 0, 58, 163.2411499023438
0, 0, 59, 172.3505706787109
0, 0, 60, 168.5921936035156
0, 0, 61, 168.9034881591797
0, 0, 62, 182.6065521240234
0, 0, 63, 167.0297393798828
0, 0, 64, 163.5295104980469
0, 0, 65, 177.4952087402344
0, 0, 66, 177.6351623535156
0, 0, 67, 164.8286895751953
0, 0, 68, 158.6170043945312
0, 0, 69, 158.7997283935547
0, 0, 70, 169.4142150878906
0, 0, 71, 158.6482391357422
0, 0, 72, 163.3119964599609
0, 0, 73, 171.6543731689453
0, 0, 74, 163.5450439453125
0, 0, 75, 163.2113647460938
0, 0, 76, 163.1560668945312
0, 0, 77, 171.8551483154297
0, 0, 78, 181.8435821533203
0, 0, 79, 174.7859802246094
0, 0, 80, 158.8828430175781
0, 0, 81, 160.0365905761719
0, 0, 82, 183.7407379150391
0, 0, 83, 173.3020629882812
0, 0, 84, 159.9396209716797
0, 0, 85, 181.30859375
0, 0, 86, 158.3419647216797
0, 0, 87, 177.3625335693359
0, 0, 88, 176.8918304443359
0, 0, 89, 174.6629180908203
0, 0, 90, 160.9187164306641
0, 0, 91, 186.796875
0, 0, 92, 163.4040679931641
0, 0, 93, 155.1405029296875
0, 0, 94, 168.6674346923828
0, 0, 95, 175.3780670166016
0, 0, 96, 184.5623626708984
0, 0, 97, 183.19189453125
0, 0, 98, 186.2789001464844
0, 0, 99, 171.5904083251953
0, 0, 100, 157.8619384765625
0, 0, 101, 166.6854858398438
0, 0, 102, 170.9143524169922
0, 0, 103, 170.6517944335938
0, 0, 104, 169.0726318359375
0, 0, 105, 180.8098449707031
0, 0, 106, 159.8458862304688
0, 0, 107, 86.45870208740234
0, 0, 108, 21.56873321533203
0, 0, 109, 9.40579891204834
0, 0, 110, 6.148568153381348
0, 0, 111, 6.941579818725586
0, 0, 112, 3.278430700302124
0, 0, 113, 3.771820783615112
0, 0, 114, 2.616582632064819
0, 0, 115, 6.009159564971924
0, 0, 116, 2.879951000213623
0, 0, 117, 2.924121379852295
0, 0, 118, 3.110184669494629
0, 0, 119, 1.956341505050659
0, 0, 120, 2.143414735794067
0, 0, 121, 3.57390284538269
0, 0, 122, 3.861116170883179
0, 0, 123, 4.044801235198975
0, 0, 124, 1.943663001060486
0, 0, 125, 2.097371101379395
0, 0, 126, 2.940261840820312
0, 0, 127, 2.510806798934937
0, 1, 0, 1.150694966316223
0, 1, 1, 3.377079486846924
0, 1, 2, 3.669591188430786
0, 1, 3, 1.544370412826538
0, 1, 4, 0.1400611400604248
0, 1, 5, 2.743018627166748
0, 1, 6, 1.065473675727844
0, 1, 7, 2.804266214370728
0, 1, 8, 1.500228881835938
0, 1, 9, 1.358976364135742
0, 1, 10, 3.335754156112671
0, 1, 11, 3.177986860275269
0, 1, 12, 2.368692636489868
0, 1, 13, 2.44821572303772
0, 1, 14, 4.869192600250244
0, 1, 15, 6.032501220703125
0, 1, 16, 7.543766021728516
0, 1, 17, 4.876530170440674
0, 1, 18, 10.43075275421143
0, 1, 19, 39.46933364868164
0, 1, 20, 126.7965621948242
0, 1, 21, 176.9350433349609
0, 1, 22, 192.1480560302734
0, 1, 23, 186.7805328369141
0, 1, 24, 179.5816802978516
0, 1, 25, 191.0902557373047
0, 1, 26, 196.8292846679688
0, 1, 27, 186.8732604980469
0, 1, 28, 188.5150146484375
0, 1, 29, 183.1700897216797
0, 1, 30, 179.5245208740234
0, 1, 31, 180.5597991943359
0, 1, 32, 189.0508728027344
0, 1, 33, 190.2378387451172
0, 1, 34, 185.4849090576172
0, 1, 35, 193.6874542236328
0, 1, 36, 206.3741760253906
0, 1, 37, 185.3387451171875
0, 1, 38, 164.5052185058594
0, 1, 39, 171.3834838867188
0, 1, 40, 178.7627410888672
0, 1, 41, 184.4502105712891
0, 1, 42, 182.0023040771484
0, 1, 43, 185.2615203857422
0, 1, 44, 166.87646484375
0, 1, 45, 186.2701110839844
0, 1, 46, 171.6808776855469
0, 1, 47, 184.6178894042969
0, 1, 48, 186.2635345458984
0, 1, 49, 186.9892425537109
0, 1, 50, 177.2014770507812
0, 1, 51, 190.8647613525391
0, 1, 52, 195.6702423095703
0, 1, 53, 196.1156463623047
0, 1, 54, 184.2920074462891
0, 1, 55, 166.5206298828125
0, 1, 56, 178.5156555175781
0, 1, 57, 179.707275390625
0, 1, 58, 188.8221130371094
0, 1, 59, 193.4381561279297
0, 1, 60, 188.6024475097656
0, 1, 61, 178.4020843505859
0, 1, 62, 206.6871643066406
0, 1, 63, 175.1527099609375
0, 1, 64, 173.9567565917969
0, 1, 65, 185.2613830566406
0, 1, 66, 205.2585144042969
0, 1, 67, 183.0986480712891
0, 1, 68, 186.8777770996094
0, 1, 69, 189.0489501953125
0, 1, 70, 186.0944519042969
0, 1, 71, 171.0325164794922
0, 1, 72, 190.0451354980469
0, 1, 73, 190.6101989746094
0, 1, 74, 201.2011871337891
0, 1, 75, 183.9416961669922
0, 1, 76, 174.4547576904297
0, 1, 77, 191.5752410888672
0, 1, 78, 187.2139434814453
0, 1, 79, 201.5514221191406
0, 1, 80, 185.1045379638672
0, 1, 81, 174.3465728759766
0, 1, 82, 208.1767272949219
0, 1, 83, 211.2481536865234
0, 1, 84, 180.3781127929688
0, 1, 85, 173.0796356201172
0, 1, 86, 168.9535522460938
0, 1, 87, 185.1445617675781
0, 1, 88, 174.6262359619141
0, 1, 89, 188.6299591064453
0, 1, 90, 211.9483489990234
0, 1, 91, 180.4893798828125
0, 1, 92, 184.8899841308594
0, 1, 93, 180.6301422119141
0, 1, 94, 184.4212341308594
0, 1, 95, 183.0617218017578
0, 1, 96, 197.8197937011719
0, 1, 97, 184.1265716552734
0, 1, 98, 186.8047485351562
0, 1, 99, 175.0418090820312
0, 1, 100, 171.2901306152344
0, 1, 101, 177.6730651855469
0, 1, 102, 182.0906982421875
0, 1, 103, 173.1159820556641
0, 1, 104, 188.2493743896484
0, 1, 105, 182.1007080078125
0, 1, 106, 163.0986328125
0, 1, 107, 123.5561447143555
0, 1, 108, 46.77617263793945
0, 1, 109, 9.184935569763184
0, 1, 110, 9.30303955078125
0, 1, 111, 5.852249145507812
0, 1, 112, 7.771220207214355
0, 1, 113, 8.179631233215332
0, 1, 114, 6.435739517211914
0, 1, 115, 3.176488399505615
0, 1, 116, 4.203288078308105
0, 1, 117, 2.861508131027222
0, 1, 118, 3.898451805114746
0, 1, 119, 1.291033148765564
0, 1, 120, 3.649239063262939
0, 1, 121, 3.227164745330811
0, 1, 122, 4.540056705474854
0, 1, 123, 4.524930477142334
0, 1, 124, 1.921582579612732
0, 1, 125, 2.074236869812012
0, 1, 126, 1.2914879322052
0, 1, 127, 2.822158336639404
0, 2, 0, 0.6617289781570435
0, 2, 1, 2.241239070892334
0, 2, 2, 3.05849027633667
0, 2, 3, 2.746818780899048
0, 2, 4, 1.001771926879883
0, 2, 5, 2.531107425689697
0, 2, 6, 3.168128252029419
0, 2, 7, 1.611944317817688
0, 2, 8, 1.126490116119385
0, 2, 9, 1.752561330795288
0, 2, 10, 6.071127414703369
0, 2, 11, 3.793955564498901
0, 2, 12, 4.867147445678711
0, 2, 13, 5.730910778045654
0, 2, 14, 4.85292387008667
0, 2, 15, 7.334484577178955
0, 2, 16, 5.753395557403564
0, 2, 17, 8.961809158325195
0, 2, 18, 14.43337059020996
0, 2, 19, 77.86277770996094
0, 2, 20, 162.8499298095703
0, 2, 21, 182.8788909912109
0, 2, 22, 194.0900726318359
0, 2, 23, 183.2630462646484
0, 2, 24, 173.146484375
0, 2, 25, 183.6306915283203
0, 2, 26, 180.7866973876953
0, 2, 27, 189.5336761474609
0, 2, 28, 172.9142150878906
0, 2, 29, 170.8698883056641
0, 2, 30, 184.2541198730469
0, 2, 31, 181.9052429199219
0, 2, 32, 183.7467651367188
0, 2, 33, 190.5000305175781
0, 2, 34, 197.3999938964844
0, 2, 35, 180.8860473632812
0, 2, 36, 186.1106719970703
0, 2, 37, 180.3968200683594
0, 2, 38, 187.4590911865234
0, 2, 39, 166.1041107177734
0, 2, 40, 184.0470123291016
0, 2, 41, 184.1679534912109
0, 2, 42, 189.0454254150391
0, 2, 43, 194.5691223144531
0, 2, 44, 191.1966857910156
0, 2, 45, 190.0546112060547
0, 2, 46, 196.2970733642578
0, 2, 47, 190.2451171875
0, 2, 48, 176.9752655029297
0, 2, 49, 197.056396484375
0, 2, 50, 167.7871398925781
0, 2, 51, 185.9207153320312
0, 2, 52, 186.1554565429688
0, 2, 53, 195.3744659423828
0, 2, 54, 176.4313812255859
0, 2, 55, 173.3813629150391
0, 2, 56, 181.2996673583984
0, 2, 57, 200.1472473144531
0, 2, 58, 185.9082946777344
0, 2, 59, 191.8972320556641
0, 2, 60, 196.7357330322266
0, 2, 61, 193.3761749267578
0, 2, 62, 190.3593139648438
0, 2, 63, 169.9280853271484
0, 2, 64, 190.40576171875
0, 2, 65, 202.5603942871094
0, 2, 66, 196.2161712646484
0, 2, 67, 184.8368530273438
0, 2, 68, 182.3777008056641
0, 2, 69, 187.6798553466797
0, 2, 70, 202.4665832519531
0, 2, 71, 175.3454437255859
0, 2, 72, 185.9443664550781
0, 2, 73, 177.2077026367188
0, 2, 74, 180.826416015625
0, 2, 75, 195.7225189208984
0, 2, 76, 183.1325836181641
0, 2, 77, 179.4142303466797
0, 2, 78, 198.6193542480469
0, 2, 79, 177.4011535644531
0, 2, 80, 187.2365112304688
0, 2, 81, 186.8433837890625
0, 2, 82, 204.9502105712891
0, 2, 83, 204.0618286132812
0, 2, 84, 190.0360565185547
0, 2, 85, 170.5044097900391
0, 2, 86, 194.56640625
0, 2, 87, 171.7740631103516
0, 2, 88, 177.5788116455078
0, 2, 89, 185.9441070556641
0, 2, 90, 178.2904663085938
0, 2, 91, 173.3981323242188
0, 2, 92, 196.6845703125
0, 2, 93, 193.9868927001953
0, 2, 94, 201.9498443603516
0, 2, 95, 193.0699157714844
0, 2, 96, 187.5612640380859
0, 2, 97, 172.7906188964844
0, 2, 98, 173.6155090332031
0, 2, 99, 163.6633453369141
0, 2, 100, 187.4980316162109
0, 2, 101, 200.0768432617188
0, 2, 102, 176.9516296386719
0, 2, 103, 199.6429595947266
0, 2, 104, 186.9696502685547
0, 2, 105, 199.8411102294922
0, 2, 106, 194.7000122070312
0, 2, 107, 149.2866668701172
0, 2, 108, 78.61985015869141
0, 2, 109, 17.68122863769531
0, 2, 110, 6.827885150909424
0, 2, 111, 5.633946895599365
0, 2, 112, 3.402658224105835
0, 2, 113, 3.949453830718994
0, 2, 114, 8.59465503692627
0, 2, 115, 2.736186027526855
0, 2, 116, 3.214441537857056
0, 2, 117, 1.405810236930847
0, 2, 118, 3.960365056991577
0, 2, 119, 3.683719396591187
0, 2, 120, 3.565747737884521
0, 2, 121, 3.594307661056519
0, 2, 122, 1.051422238349915
0, 2, 123, 1.502415657043457
0, 2, 124, 3.412583589553833
0, 2, 125, 2.534833908081055
0, 2, 126, 2.788222551345825
0, 2, 127, 1.545671820640564
0, 3, 0, 1.3714919090271
0, 3, 1, 2.156270503997803
0, 3, 2, 2.65319299697876
0, 3, 3, 1.525371670722961
0, 3, 4, 5.312318325042725
0, 3, 5, 1.413910865783691
0, 3, 6, 1.611649751663208
0, 3, 7, 1.311379671096802
0, 3, 8, 2.063315391540527
0, 3, 9, 1.576837539672852
0, 3, 10, 2.913742780685425
0, 3, 11, 5.056957721710205
0, 3, 12, 4.638545513153076
0, 3, 13, 3.768712043762207
0, 3, 14, 4.818331718444824
0, 3, 15, 7.299182891845703
0, 3, 16, 6.73796558380127
0, 3, 17, 7.025698184967041
0, 3, 18, 35.0645637512207
0, 3, 19, 114.4113082885742
0, 3, 20, 179.3790283203125
0, 3, 21, 172.5288391113281
0, 3, 22, 177.4579925537109
0, 3, 23, 188.7738494873047
0, 3, 24, 177.6361236572266
0, 3, 25, 168.1501770019531
0, 3, 26, 181.6113433837891
0, 3, 27, 189.5254058837891
0, 3, 28, 180.9637908935547
0, 3, 29, 197.3817596435547
0, 3, 30, 185.7103424072266
0, 3, 31, 193.7031097412109
0, 3, 32, 206.0365295410156
0, 3, 33, 194.9263916015625
0, 3, 34, 188.6959075927734
0, 3, 35, 175.7056427001953
0, 3, 36, 185.8251495361328
0, 3, 37, 200.2788696289062
0, 3, 38, 191.1773223876953
0, 3, 39, 185.2353973388672
0, 3, 40, 166.3305511474609
0, 3, 41, 174.1279602050781
0, 3, 42, 184.8785400390625
0, 3, 43, 181.6762542724609
0, 3, 44, 203.2087554931641
0, 3, 45, 207.3377990722656
0, 3, 46, 198.3333892822266
0, 3, 47, 194.3448944091797
0, 3, 48, 196.9650268554688
0, 3, 49, 179.62158203125
0, 3, 50, 186.3832092285156
0, 3, 51, 173.7695617675781
0, 3, 52, 187.2396545410156
0, 3, 53, 177.4273986816406
0, 3, 54, 179.1989440917969
0, 3, 55, 176.5644226074219
0, 3, 56, 181.9895629882812
0, 3, 57, 177.3074188232422
0, 3, 58, 200.7324829101562
0, 3, 59, 195.8927307128906
0, 3, 60, 186.1764831542969
0, 3, 61, 181.6107940673828
0, 3, 62, 182.8484039306641
0, 3, 63, 183.3178405761719
0, 3, 64, 188.4900054931641
0, 3, 65, 189.4338989257812
0, 3, 66, 176.3104095458984
0, 3, 67, 191.2802581787109
0, 3, 68, 211.7373504638672
0, 3, 69, 189.5380554199219
0, 3, 70, 185.1917419433594
0, 3, 71, 196.7185363769531
0, 3, 72, 186.0043182373047
0, 3, 73, 187.6318664550781
0, 3, 74, 192.6882171630859
0, 3, 75, 193.9662475585938
0, 3, 76, 190.2207641601562
0, 3, 77, 198.6133728027344
0, 3, 78, 188.1032867431641
0, 3, 79, 184.1063385009766
0, 3, 80, 189.4656066894531
0, 3, 81, 183.1504516601562
0, 3, 82, 179.6300811767578
0, 3, 83, 194.2751007080078
0, 3, 84, 199.1699981689453
0, 3, 85, 191.246337890625
0, 3, 86, 203.7890472412109
0, 3, 87, 198.3600158691406
0, 3, 88, 190.8135833740234
0, 3, 89, 193.1839447021484
0, 3, 90, 174.3873291015625
0, 3, 91, 156.8374786376953
0, 3, 92, 206.5540313720703
0, 3, 93, 196.0540771484375
0, 3, 94, 193.1384429931641
0, 3, 95, 212.1420288085938
0, 3, 96, 209.3830871582031
0, 3, 97, 167.1791534423828
0, 3, 98, 168.3074798583984
0, 3, 99, 180.2807464599609
0, 3, 100, 176.0763549804688
0, 3, 101, 198.552734375
0, 3, 102, 195.2880859375
0, 3, 103, 194.5807189941406
0, 3, 104, 202.9040832519531
0, 3, 105, 175.1975555419922
0, 3, 106, 180.8483734130859
0, 3, 107, 170.6010437011719
0, 3, 108, 107.8396148681641
0, 3, 109, 29.53842926025391
0, 3, 110, 8.039839744567871
0, 3, 111, 6.1907958984375
0, 3, 112, 4.944124698638916
0, 3, 113, 7.545267581939697
0, 3, 114, 5.273891448974609
0, 3, 115, 4.998107433319092
0, 3, 116, 4.819114685058594
0, 3, 117, 4.375040054321289
0, 3, 118, 4.146420001983643
0, 3, 119, 3.232722997665405
0, 3, 120, 3.592254877090454
0, 3, 121, 2.085565567016602
0, 3, 122, 1.724482178688049
0, 3, 123, 1.256695032119751
0, 3, 124, 2.738042593002319
0, 3, 125, 1.872642874717712
0, 3, 126, 1.445698022842407
0, 3, 127, 1.608448266983032
0, 4, 0, 1.995254635810852
0, 4, 1, 0.6101375818252563
0, 4, 2, 2.719498157501221
0, 4, 3, 3.930803060531616
0, 4, 4, 1.319862008094788
0, 4, 5, 1.25421416759491
0, 4, 6, 2.186884880065918
0, 4, 7, 1.954227685928345
0, 4, 8, 1.606637358665466
0, 4, 9, 1.991196274757385
0, 4, 10, 3.657277822494507
0, 4, 11, 2.96959376335144
0, 4, 12, 4.719418048858643
0, 4, 13, 3.862331867218018
0, 4, 14, 4.654699325561523
0, 4, 15, 8.407050132751465
0, 4, 16, 6.201181888580322
0, 4, 17, 13.78627395629883
0, 4, 18, 54.18408203125
0, 4, 19, 152.1719207763672
0, 4, 20, 193.42333984375
0, 4, 21, 169.4241943359375
0, 4, 22, 186.7394866943359
0, 4, 23, 195.6892395019531
0, 4, 24, 192.4639892578125
0, 4, 25, 203.3240966796875
0, 4, 26, 184.0429229736328
0, 4, 27, 190.8338623046875
0, 4, 28, 178.6767272949219
0, 4, 29, 204.8547821044922
0, 4, 30, 194.6298370361328
0, 4, 31, 191.5943908691406
0, 4, 32, 209.7209625244141
0, 4, 33, 188.8545532226562
0, 4, 34, 192.3247833251953
0, 4, 35, 212.7673034667969
0, 4, 36, 193.1217193603516
0, 4, 37, 176.6647796630859
0, 4, 38, 194.5893859863281
0, 4, 39, 189.6133117675781
0, 4, 40, 185.3791809082031
0, 4, 41, 190.3356323242188
0, 4, 42, 207.1828155517578
0, 4, 43, 174.2774353027344
0, 4, 44, 183.3030853271484
0, 4, 45, 195.4787750244141
0, 4, 46, 186.0858612060547
0, 4, 47, 179.8634338378906
0, 4, 48, 185.524658203125
0, 4, 49, 174.662841796875
0, 4, 50, 185.7166748046875
0, 4, 51, 197.4793090820312
0, 4, 52, 223.0440521240234
0, 4, 53, 205.6852264404297
0, 4, 54, 189.4902038574219
0, 4, 55, 174.4356536865234
0, 4, 56, 190.8468017578125
0, 4, 57, 191.1146087646484
0, 4, 58, 187.2787628173828
0, 4, 59, 190.7796630859375
0, 4, 60, 196.2506408691406
0, 4, 61, 193.4810333251953
0, 4, 62, 189.9576416015625
0, 4, 63, 178.6459655761719
0, 4, 64, 212.6355438232422
0, 4, 65, 192.3522338867188
0, 4, 66, 201.6421203613281
0, 4, 67, 199.1412658691406
0, 4, 68, 201.6238708496094
0, 4, 69, 199.3263397216797
0, 4, 70, 203.8348846435547
0, 4, 71, 206.4348449707031
0, 4, 72, 215.3949279785156
0, 4, 73, 186.8584289550781
0, 4, 74, 180.6038665771484
0, 4, 75, 185.7113800048828
0, 4, 76, 189.6200561523438
0, 4, 77, 183.5328674316406
0, 4, 78, 195.279052734375
0, 4, 79, 205.9421997070312
0, 4, 80, 212.6782836914062
0, 4, 81, 198.7197418212891
0, 4, 82, 181.5009765625
0, 4, 83, 171.0595550537109
0, 4, 84, 192.8696594238281
0, 4, 85, 197.6438446044922
0, 4, 86, 182.5832366943359
0, 4, 87, 183.0900115966797
0, 4, 88, 203.8403167724609
0, 4, 89, 187.6434020996094
0, 4, 90, 213.3853454589844
0, 4, 91, 189.3424530029297
0, 4, 92, 198.2154235839844
0, 4, 93, 195.0964813232422
0, 4, 94, 182.8697052001953
0, 4, 95, 173.7143096923828
0, 4, 96, 189.5486145019531
0, 4, 97, 192.4645080566406
0, 4, 98, 200.5588684082031
0, 4, 99, 183.1571655273438
0, 4, 100, 182.6746826171875
0, 4, 101, 176.019775390625
0, 4, 102, 173.9394836425781
0, 4, 103, 184.9971771240234
0, 4, 104, 209.1135711669922
0, 4, 105, 190.8395080566406
0, 4, 106, 180.1467895507812
0, 4, 107, 181.3512878417969
0, 4, 108, 152.5903778076172
0, 4, 109, 48.53972625732422
0, 4, 110, 11.99331474304199
0, 4, 111, 8.945201873779297
0, 4, 112, 5.621574878692627
0, 4, 113, 6.127735137939453
0, 4, 114, 5.101202487945557
0, 4, 115, 3.98299503326416
0, 4, 116, 5.072104454040527
0, 4, 117, 3.350805759429932
0, 4, 118, 3.389520883560181
0, 4, 119, 3.595470428466797
0, 4, 120, 2.451967000961304
0, 4, 121, 1.236579775810242
0, 4, 122, 2.939192533493042
0, 4, 123, 1.407571911811829
0, 4, 124, 3.590643882751465
0, 4, 125, 3.623875141143799
0, 4, 126, 3.679919958114624
0, 4, 127, 1.225144743919373
0, 5, 0, 2.717706680297852
0, 5, 1, 3.709469795227051
0, 5, 2, 5.4366774559021
0, 5, 3, 3.351401329040527
0, 5, 4, 2.404066324234009
0, 5, 5, 3.319609403610229
0, 5, 6, 2.133447647094727
0, 5, 7, 2.225627660751343
0, 5, 8, 1.890215277671814
0, 5, 9, 2.912647485733032
0, 5, 10, 2.866597175598145
0, 5, 11, 3.608666181564331
0, 5, 12, 4.70595121383667
0, 5, 13, 3.766741991043091
0, 5, 14, 5.488849639892578
0, 5, 15, 8.181946754455566
0, 5, 16, 8.158591270446777
0, 5, 17, 21.22809410095215
0, 5, 18, 83.3123779296875
0, 5, 19, 166.1582946777344
0, 5, 20, 184.1267852783203
0, 5, 21, 178.5607299804688
0, 5, 22, 171.7669219970703
0, 5, 23, 201.4242401123047
0, 5, 24, 186.9820404052734
0, 5, 25, 207.8891906738281
0, 5, 26, 182.9507141113281
0, 5, 27, 193.1975402832031
0, 5, 28, 189.0589141845703
0, 5, 29, 195.5691986083984
0, 5, 30, 178.0683898925781
0, 5, 31, 180.64111328125
0, 5, 32, 187.0985260009766
0, 5, 33, 168.5262145996094
0, 5, 34, 197.4323577880859
0, 5, 35, 196.7191925048828
0, 5, 36, 168.6040649414062
0, 5, 37, 197.2787780761719
0, 5, 38, 180.1540374755859
0, 5, 39, 186.6489105224609
0, 5, 40, 196.8426818847656
0, 5, 41, 176.6489410400391
0, 5, 42, 187.2516021728516
0, 5, 43, 192.2827453613281
0, 5, 44, 199.9361419677734
0, 5, 45, 186.5835418701172
0, 5, 46, 192.9181060791016
0, 5, 47, 180.0564117431641
0, 5, 48, 178.6750335693359
0, 5, 49, 177.3706970214844
0, 5, 50, 186.009765625
0, 5, 51, 172.9557495117188
0, 5, 52, 167.9174041748047
0, 5, 53, 181.9619750976562
0, 5, 54, 172.1163024902344
0, 5, 55, 216.3050537109375
0, 5, 56, 181.1461791992188
0, 5, 57, 207.6203460693359
0, 5, 58, 179.5187377929688
0, 5, 59, 180.2715911865234
0, 5, 60, 218.6947326660156
0, 5, 61, 185.4471893310547
0, 5, 62, 178.3437347412109
0, 5, 63, 181.1088256835938
0, 5, 64, 194.0098876953125
0, 5, 65, 210.5004272460938
0, 5, 66, 192.9977264404297
0, 5, 67, 198.3731384277344
0, 5, 68, 186.9456939697266
0, 5, 69, 184.4399566650391
0, 5, 70, 185.7694091796875
0, 5, 71, 192.3560943603516
0, 5, 72, 197.6966400146484
0, 5, 73, 200.9200286865234
0, 5, 74, 179.2201232910156
0, 5, 75, 205.3134307861328
0, 5, 76, 214.1573333740234
0, 5, 77, 180.2106170654297
0, 5, 78, 194.5313415527344
0, 5, 79, 190.1986694335938
0, 5, 80, 197.4079132080078
0, 5, 81, 202.822998046875
0, 5, 82, 201.6000671386719
0, 5, 83, 188.6562957763672
0, 5, 84, 207.9553527832031
0, 5, 85, 177.6191558837891
0, 5, 86, 195.8102111816406
0, 5, 87, 189.1804962158203
0, 5, 88, 177.8338775634766
0, 5, 89, 194.6116027832031
0, 5, 90, 198.7836456298828
0, 5, 91, 194.1175384521484
0, 5, 92, 189.5436706542969
0, 5, 93, 189.7808227539062
0, 5, 94, 207.2733001708984
0, 5, 95, 176.2334594726562
0, 5, 96, 182.3148803710938
0, 5, 97, 191.4471740722656
0, 5, 98, 190.2666473388672
0, 5, 99, 195.2411956787109
0, 5, 100, 187.5499572753906
0, 5, 101, 195.8861389160156
0, 5, 102, 182.1717681884766
0, 5, 103, 176.4020690917969
0, 5, 104, 190.3878021240234
0, 5, 105, 190.0003204345703
0, 5, 106, 177.4851226806641
0, 5, 107, 181.1143493652344
0, 5, 108, 174.8594360351562
0, 5, 109, 89.44309234619141
0, 5, 110, 30.035888671875
0, 5, 111, 9.141445159912109
0, 5, 112, 6.804973125457764
0, 5, 113, 5.685813903808594
0, 5, 114, 6.277020931243896
0, 5, 115, 7.310236930847168
0, 5, 116, 3.561727285385132
0, 5, 117, 3.179283380508423
0, 5, 118, 5.496667861938477
0, 5, 119, 3.348008632659912
0, 5, 120, 3.062701225280762
0, 5, 121, 0.8435812592506409
0, 5, 122, 3.460836410522461
0, 5, 123, 5.624574661254883
0, 5, 124, 2.390982389450073
0, 5, 125, 1.284520030021667
0, 5, 126, 0.9819669723510742
0, 5, 127, 1.916876077651978
0, 6, 0, 4.070899963378906
0, 6, 1, 3.593290090560913
0, 6, 2, 5.264599800109863
0, 6, 3, 2.077841758728027
0, 6, 4, 2.999309301376343
0, 6, 5, 2.424283027648926
0, 6, 6, 2.6417076587677
0, 6, 7, 3.804780006408691
0, 6, 8, 4.136573791503906
0, 6, 9, 3.084587097167969
0, 6, 10, 5.439414024353027
0, 6, 11, 3.649945974349976
0, 6, 12, 5.151832103729248
0, 6, 13, 4.874416351318359
0, 6, 14, 5.069380283355713
0, 6, 15, 6.371081352233887
0, 6, 16, 12.82660484313965
0, 6, 17, 30.23337173461914
0, 6, 18, 112.8439178466797
0, 6, 19, 190.3490753173828
0, 6, 20, 194.5930480957031
0, 6, 21, 198.7817077636719
0, 6, 22, 190.9064178466797
0, 6, 23, 190.4871520996094
0, 6, 24, 201.0108184814453
0, 6, 25, 181.1644439697266
0, 6, 26, 187.2162780761719
0, 6, 27, 191.3544006347656
0, 6, 28, 188.961181640625
0, 6, 29, 211.3024139404297
0, 6, 30, 190.5863494873047
0, 6, 31, 194.2391204833984
0, 6, 32, 205.9397888183594
0, 6, 33, 184.5303497314453
0, 6, 34, 197.4355621337891
0, 6, 35, 188.3851165771484
0, 6, 36, 180.9241943359375
0, 6, 37, 182.6793365478516
0, 6, 38, 186.9010925292969
0, 6, 39, 195.5417785644531
0, 6, 40, 174.1114807128906
0, 6, 41, 185.5177459716797
0, 6, 42, 174.503173828125
0, 6, 43, 208.8429870605469
0, 6, 44, 209.4657745361328
0, 6, 45, 193.1636657714844
0, 6, 46, 187.9638519287109
0, 6, 47, 203.9601745605469
0, 6, 48, 188.8079376220703
0, 6, 49, 181.9934539794922
0, 6, 50, 181.6984405517578
0, 6, 51, 196.2829742431641
0, 6, 52, 197.3608703613281
0, 6, 53, 184.6143341064453
0, 6, 54, 176.6768951416016
0, 6, 55, 194.5668792724609
0, 6, 56, 202.9143371582031
0, 6, 57, 191.0162658691406
0, 6, 58, 179.5418243408203
0, 6, 59, 194.0116424560547
0, 6, 60, 183.5542602539062
0, 6, 61, 194.1332397460938
0, 6, 62, 197.2104339599609
0, 6, 63, 187.3911590576172
0, 6, 64, 169.6982269287109
0, 6, 65, 185.7857055664062
0, 6, 66, 197.8659362792969
0, 6, 67, 212.8351898193359
0, 6, 68, 179.6839599609375
0, 6, 69, 170.3567657470703
0, 6, 70, 186.7052307128906
0, 6, 71, 170.7313385009766
0, 6, 72, 177.1566619873047
0, 6, 73, 177.7600402832031
0, 6, 74, 210.7177886962891
0, 6, 75, 226.4745178222656
0, 6, 76, 184.2715454101562
0, 6, 77, 172.5199432373047
0, 6, 78, 175.4248657226562
0, 6, 79, 188.6629028320312
0, 6, 80, 188.1554870605469
0, 6, 81, 210.1078033447266
0, 6, 82, 196.1433563232422
0, 6, 83, 195.9646148681641
0, 6, 84, 197.0735931396484
0, 6, 85, 180.4147338867188
0, 6, 86, 201.0316619873047
0, 6, 87, 183.6003875732422
0, 6, 88, 191.940673828125
0, 6, 89, 188.5014190673828
0, 6, 90, 205.2427520751953
0, 6, 91, 203.0446624755859
0, 6, 92, 172.7015228271484
0, 6, 93, 193.4066009521484
0, 6, 94, 189.4732360839844
0, 6, 95, 185.4281463623047
0, 6, 96, 190.1563262939453
0, 6, 97, 193.5950775146484
0, 6, 98, 182.967529296875
0, 6, 99, 174.9725646972656
0, 6, 100, 201.8550720214844
0, 6, 101, 168.7913208007812
0, 6, 102, 201.9302825927734
0, 6, 103, 196.4352111816406
0, 6, 104, 184.5517883300781
0, 6, 105, 194.6829833984375
0, 6, 106, 176.832763671875
0, 6, 107, 195.3821716308594
0, 6, 108, 172.6657409667969
0, 6, 109, 116.1523208618164
0, 6, 110, 33.74047088623047
0, 6, 111, 10.14794921875
0, 6, 112, 9.089153289794922
0, 6, 113, 5.089194774627686
0, 6, 114, 4.584493637084961
0, 6, 115, 5.377865791320801
0, 6, 116, 3.217612028121948
0, 6, 117, 3.482801198959351
0, 6, 118, 3.11421537399292
0, 6, 119, 4.398773193359375
0, 6, 120, 2.074752569198608
0, 6, 121, 5.691177845001221
0, 6, 122, 3.397963762283325
0, 6, 123, 3.605913400650024
0, 6, 124, 1.57868754863739
0, 6, 125, 2.850302934646606
0, 6, 126, 1.372299909591675
0, 6, 127, 2.527260303497314
0, 7, 0, 2.582602024078369
0, 7, 1, 0.9746590852737427
0, 7, 2, 2.539474725723267
0, 7, 3, 1.996703147888184
0, 7, 4, 0.996222198009491
0, 7, 5, 1.840600609779358
0, 7, 6, 1.268329858779907
0, 7, 7, 2.577259302139282
0, 7, 8, 4.385491847991943
0, 7, 9, 6.106047630310059
0, 7, 10, 5.419634342193604
0, 7, 11, 2.829999446868896
0, 7, 12, 3.726342916488647
0, 7, 13, 6.013050556182861
0, 7, 14, 7.169406414031982
0, 7, 15, 7.4462571144104
0, 7, 16, 15.19746875762939
0, 7, 17, 51.33024215698242
0, 7, 18, 161.2271881103516
0, 7, 19, 183.2578887939453
0, 7, 20, 179.4566345214844
0, 7, 21, 179.5979919433594
0, 7, 22, 191.8127746582031
0, 7, 23, 202.4095764160156
0, 7, 24, 179.1342468261719
0, 7, 25, 211.9185791015625
0, 7, 26, 188.9921875
0, 7, 27, 182.1140747070312
0, 7, 28, 182.6808471679688
0, 7, 29, 209.2225646972656
0, 7, 30, 193.1864929199219
0, 7, 31, 176.1185607910156
0, 7, 32, 190.2377777099609
0, 7, 33, 181.4245910644531
0, 7, 34, 192.4911804199219
0, 7, 35, 197.7276306152344
0, 7, 36, 186.6268768310547
0, 7, 37, 212.9284820556641
0, 7, 38, 191.3170166015625
0, 7, 39, 173.5867309570312
0, 7, 40, 183.51513671875
0, 7, 41, 184.5198669433594
0, 7, 42, 177.5180206298828
0, 7, 43, 176.9422760009766
0, 7, 44, 178.7960205078125
0, 7, 45, 175.2472381591797
0, 7, 46, 189.47119140625
0, 7, 47, 198.9878234863281
0, 7, 48, 184.7796478271484
0, 7, 49, 198.4391479492188
0, 7, 50, 190.0584564208984
0, 7, 51, 205.3153228759766
0, 7, 52, 204.1214599609375
0, 7, 53, 190.9030456542969
0, 7, 54, 195.927734375
0, 7, 55, 203.6593780517578
0, 7, 56, 183.0020904541016
0, 7, 57, 183.3004150390625
0, 7, 58, 192.0227508544922
0, 7, 59, 187.1951446533203
0, 7, 60, 203.2425842285156
0, 7, 61, 172.1676483154297
0, 7, 62, 205.4446563720703
0, 7, 63, 190.0921020507812
0, 7, 64, 199.0709838867188
0, 7, 65, 195.1251831054688
0, 7, 66, 206.8447418212891
0, 7, 67, 222.2062835693359
0, 7, 68, 163.7705841064453
0, 7, 69, 195.5967712402344
0, 7, 70, 218.204345703125
0, 7, 71, 183.5111694335938
0, 7, 72, 179.5689849853516
0, 7, 73, 176.9578552246094
0, 7, 74, 208.0825500488281
0, 7, 75, 204.2261352539062
0, 7, 76, 215.7286071777344
0, 7, 77, 174.9311218261719
0, 7, 78, 176.8623046875
0, 7, 79, 193.8360900878906
0, 7, 80, 196.9908294677734
0, 7, 81, 215.3912353515625
0, 7, 82, 184.1428680419922
0, 7, 83, 205.0060424804688
0, 7, 84, 191.9579467773438
0, 7, 85, 185.4954833984375
0, 7, 86, 200.8577575683594
0, 7, 87, 226.4834747314453
0, 7, 88, 194.5509643554688
0, 7, 89, 176.7948760986328
0, 7, 90, 182.3004302978516
0, 7, 91, 193.9695892333984
0, 7, 92, 193.6686096191406
0, 7, 93, 198.6524810791016
0, 7, 94, 178.4068298339844
0, 7, 95, 197.7816162109375
0, 7, 96, 208.3555603027344
0, 7, 97, 188.0558776855469
0, 7, 98, 176.7953186035156
0, 7, 99, 196.4927673339844
0, 7, 100, 182.3062744140625
0, 7, 101, 199.7870635986328
0, 7, 102, 184.9721374511719
0, 7, 103, 181.0034484863281
0, 7, 104, 174.0122680664062
0, 7, 105, 195.1522674560547
0, 7, 106, 207.33251953125
0, 7, 107, 174.0697021484375
0, 7, 108, 177.2672576904297
0, 7, 109, 138.1625366210938
0, 7, 110, 53.46540832519531
0, 7, 111, 10.11184310913086
0, 7, 112, 8.395683288574219
0, 7, 113, 8.980385780334473
0, 7, 114, 6.538640022277832
0, 7, 115, 6.300250053405762
0, 7, 116, 4.606692314147949
0, 7, 117, 4.165904998779297
0, 7, 118, 4.154088497161865
0, 7, 119, 2.317273378372192
0, 7, 120, 2.39573073387146
0, 7, 121, 3.84463095664978
0, 7, 122, 3.014415979385376
0, 7, 123, 3.606943845748901
0, 7, 124, 2.52414608001709
0, 7, 125, 1.728070616722107
0, 7, 126, 3.564812898635864
0, 7, 127, 1.072709918022156
0, 8, 0, 4.528862476348877
0, 8, 1, 2.568139314651489
0, 8, 2, 3.03754186630249
0, 8, 3, 2.050110101699829
0, 8, 4, 1.429338932037354
0, 8, 5, 3.037494659423828
0, 8, 6, 2.615148305892944
0, 8, 7, 2.791681528091431
0, 8, 8, 3.077136754989624
0, 8, 9, 4.073650360107422
0, 8, 10, 1.571301579475403
0, 8, 11, 3.631731271743774
0, 8, 12, 4.459084987640381
0, 8, 13, 5.556362152099609
0, 8, 14, 5.70121431350708
0, 8, 15, 10.22660446166992
0, 8, 16, 20.17863845825195
0, 8, 17, 75.98790740966797
0, 8, 18, 142.18994140625
0, 8, 19, 177.6999359130859
0, 8, 20, 195.0442047119141
0, 8, 21, 192.1490020751953
0, 8, 22, 180.3732147216797
0, 8, 23, 173.1538848876953
0, 8, 24, 192.5284881591797
0, 8, 25, 185.7180938720703
0, 8, 26, 192.5906829833984
0, 8, 27, 187.4227752685547
0, 8, 28, 185.4430236816406
0, 8, 29, 207.0055236816406
0, 8, 30, 197.3688812255859
0, 8, 31, 184.1280212402344
0, 8, 32, 202.2391662597656
0, 8, 33, 206.4033508300781
0, 8, 34, 203.2378234863281
0, 8, 35, 184.4458618164062
0, 8, 36, 181.0583648681641
0, 8, 37, 198.8011016845703
