# TOPAS Version: 3.1.p3
# Parameter File: batch_inserts_348.txt
# Results for scorer Readout_Adipose
# Scored in component: MyBox
# X in 1 bin  of 0.65 cm
# Y in 512 bins of 0.0783984 cm
# Z in 128 bins of 0.078125 cm
# EnergyDeposit ( MeV ) : Sum   
0, 0, 0, 1.413634419441223
0, 0, 1, 6.430574893951416
0, 0, 2, 4.634894847869873
0, 0, 3, 0.882677435874939
0, 0, 4, 1.747031807899475
0, 0, 5, 1.702810883522034
0, 0, 6, 1.874439239501953
0, 0, 7, 2.564479112625122
0, 0, 8, 1.496647715568542
0, 0, 9, 3.173734903335571
0, 0, 10, 1.480584025382996
0, 0, 11, 4.128524303436279
0, 0, 12, 5.837043285369873
0, 0, 13, 3.621666431427002
0, 0, 14, 5.235401630401611
0, 0, 15, 6.058762073516846
0, 0, 16, 4.195703506469727
0, 0, 17, 5.575769901275635
0, 0, 18, 7.11325216293335
0, 0, 19, 23.39449691772461
0, 0, 20, 94.53475952148438
0, 0, 21, 152.0345306396484
0, 0, 22, 153.5846405029297
0, 0, 23, 145.1344299316406
0, 0, 24, 159.5718536376953
0, 0, 25, 166.2060852050781
0, 0, 26, 166.9229736328125
0, 0, 27, 173.3232269287109
0, 0, 28, 177.9216918945312
0, 0, 29, 175.980712890625
0, 0, 30, 172.9373321533203
0, 0, 31, 165.7483367919922
0, 0, 32, 164.1918487548828
0, 0, 33, 167.3638610839844
0, 0, 34, 178.9577484130859
0, 0, 35, 174.5353698730469
0, 0, 36, 160.3406066894531
0, 0, 37, 161.2402801513672
0, 0, 38, 165.8080749511719
0, 0, 39, 160.2369842529297
0, 0, 40, 164.5308532714844
0, 0, 41, 165.5301055908203
0, 0, 42, 142.9403839111328
0, 0, 43, 168.1323089599609
0, 0, 44, 180.053955078125
0, 0, 45, 173.1394958496094
0, 0, 46, 166.7598419189453
0, 0, 47, 167.5771942138672
0, 0, 48, 169.222412109375
0, 0, 49, 182.2064056396484
0, 0, 50, 168.8213195800781
0, 0, 51, 163.6270446777344
0, 0, 52, 164.6065673828125
0, 0, 53, 171.4727172851562
0, 0, 54, 160.3122406005859
0, 0, 55, 164.0333099365234
0, 0, 56, 188.6332855224609
0, 0, 57, 170.9173889160156
0, 0, 58, 161.9955291748047
0, 0, 59, 172.0621032714844
0, 0, 60, 168.4621734619141
0, 0, 61, 169.1824340820312
0, 0, 62, 182.7808227539062
0, 0, 63, 167.1387634277344
0, 0, 64, 163.8103637695312
0, 0, 65, 173.6760711669922
0, 0, 66, 179.0910186767578
0, 0, 67, 163.8708343505859
0, 0, 68, 158.3906555175781
0, 0, 69, 158.80322265625
0, 0, 70, 169.4471130371094
0, 0, 71, 158.5592651367188
0, 0, 72, 161.6903076171875
0, 0, 73, 171.1193542480469
0, 0, 74, 161.8240966796875
0, 0, 75, 163.4163970947266
0, 0, 76, 162.9896240234375
0, 0, 77, 172.3898468017578
0, 0, 78, 183.3981781005859
0, 0, 79, 176.2055511474609
0, 0, 80, 159.0936737060547
0, 0, 81, 160.4385070800781
0, 0, 82, 181.2942810058594
0, 0, 83, 172.2088623046875
0, 0, 84, 159.08740234375
0, 0, 85, 180.879150390625
0, 0, 86, 159.0221557617188
0, 0, 87, 176.5987243652344
0, 0, 88, 177.3901519775391
0, 0, 89, 174.5656280517578
0, 0, 90, 161.6816253662109
0, 0, 91, 185.6001739501953
0, 0, 92, 166.0800476074219
0, 0, 93, 157.1441802978516
0, 0, 94, 169.9701080322266
0, 0, 95, 174.8099975585938
0, 0, 96, 183.145263671875
0, 0, 97, 184.1724548339844
0, 0, 98, 186.7973480224609
0, 0, 99, 172.219482421875
0, 0, 100, 159.1935424804688
0, 0, 101, 167.0099182128906
0, 0, 102, 171.7375183105469
0, 0, 103, 170.572021484375
0, 0, 104, 169.4903106689453
0, 0, 105, 178.9204254150391
0, 0, 106, 160.61328125
0, 0, 107, 87.27210998535156
0, 0, 108, 22.04386329650879
0, 0, 109, 9.346652984619141
0, 0, 110, 6.60542106628418
0, 0, 111, 6.637916564941406
0, 0, 112, 4.818936824798584
0, 0, 113, 2.797120332717896
0, 0, 114, 2.230719327926636
0, 0, 115, 3.569326877593994
0, 0, 116, 2.812739610671997
0, 0, 117, 2.378564834594727
0, 0, 118, 2.838906526565552
0, 0, 119, 1.963347315788269
0, 0, 120, 1.916499495506287
0, 0, 121, 3.615723848342896
0, 0, 122, 4.650163173675537
0, 0, 123, 4.125635147094727
0, 0, 124, 2.051308393478394
0, 0, 125, 2.82327938079834
0, 0, 126, 0.5654849410057068
0, 0, 127, 1.402682185173035
0, 1, 0, 1.798626661300659
0, 1, 1, 3.965500354766846
0, 1, 2, 3.18439793586731
0, 1, 3, 1.000482797622681
0, 1, 4, 0.3922627866268158
0, 1, 5, 1.184796333312988
0, 1, 6, 1.044735074043274
0, 1, 7, 2.533060550689697
0, 1, 8, 1.618704557418823
0, 1, 9, 1.889915347099304
0, 1, 10, 1.931980848312378
0, 1, 11, 3.327173471450806
0, 1, 12, 3.227378368377686
0, 1, 13, 2.200037956237793
0, 1, 14, 5.937445640563965
0, 1, 15, 7.489666938781738
0, 1, 16, 8.564753532409668
0, 1, 17, 5.358089447021484
0, 1, 18, 10.46138858795166
0, 1, 19, 38.03076934814453
0, 1, 20, 126.0636596679688
0, 1, 21, 178.5664367675781
0, 1, 22, 192.9839172363281
0, 1, 23, 186.5597686767578
0, 1, 24, 180.7682800292969
0, 1, 25, 192.6078643798828
0, 1, 26, 198.1126251220703
0, 1, 27, 186.736572265625
0, 1, 28, 188.2916107177734
0, 1, 29, 183.77783203125
0, 1, 30, 180.5501403808594
0, 1, 31, 181.6701202392578
0, 1, 32, 189.1013031005859
0, 1, 33, 190.5373840332031
0, 1, 34, 184.7892150878906
0, 1, 35, 194.8961639404297
0, 1, 36, 205.5258026123047
0, 1, 37, 185.6572265625
0, 1, 38, 164.5618896484375
0, 1, 39, 172.6779937744141
0, 1, 40, 179.5298309326172
0, 1, 41, 184.510498046875
0, 1, 42, 182.2848052978516
0, 1, 43, 184.9717864990234
0, 1, 44, 168.3504486083984
0, 1, 45, 186.1801452636719
0, 1, 46, 171.5401611328125
0, 1, 47, 185.0367279052734
0, 1, 48, 186.7272491455078
0, 1, 49, 185.8949737548828
0, 1, 50, 178.7003173828125
0, 1, 51, 191.7753601074219
0, 1, 52, 194.6839752197266
0, 1, 53, 197.2372741699219
0, 1, 54, 185.2434387207031
0, 1, 55, 164.8922576904297
0, 1, 56, 178.5788116455078
0, 1, 57, 180.5677642822266
0, 1, 58, 190.4876251220703
0, 1, 59, 193.8735961914062
0, 1, 60, 188.2034149169922
0, 1, 61, 177.1479339599609
0, 1, 62, 204.2164459228516
0, 1, 63, 175.6588592529297
0, 1, 64, 172.8389129638672
0, 1, 65, 185.1837768554688
0, 1, 66, 204.0818786621094
0, 1, 67, 182.6991119384766
0, 1, 68, 186.3016510009766
0, 1, 69, 189.1578521728516
0, 1, 70, 186.1908569335938
0, 1, 71, 171.4448547363281
0, 1, 72, 187.6009216308594
0, 1, 73, 189.4247589111328
0, 1, 74, 200.9661102294922
0, 1, 75, 184.8622131347656
0, 1, 76, 173.5750885009766
0, 1, 77, 192.8425750732422
0, 1, 78, 189.2232360839844
0, 1, 79, 202.5293731689453
0, 1, 80, 185.2461700439453
0, 1, 81, 174.4870452880859
0, 1, 82, 206.2559661865234
0, 1, 83, 211.1382446289062
0, 1, 84, 179.9986419677734
0, 1, 85, 169.1627044677734
0, 1, 86, 167.5839996337891
0, 1, 87, 186.1077117919922
0, 1, 88, 175.2714691162109
0, 1, 89, 186.6030578613281
0, 1, 90, 211.9432373046875
0, 1, 91, 180.7683868408203
0, 1, 92, 184.1047668457031
0, 1, 93, 182.5003356933594
0, 1, 94, 186.0369262695312
0, 1, 95, 182.1629943847656
0, 1, 96, 197.9670562744141
0, 1, 97, 181.9580230712891
0, 1, 98, 186.0325469970703
0, 1, 99, 175.3061218261719
0, 1, 100, 172.4887390136719
0, 1, 101, 177.4679718017578
0, 1, 102, 181.9971313476562
0, 1, 103, 173.0849761962891
0, 1, 104, 188.5522918701172
0, 1, 105, 181.5160064697266
0, 1, 106, 164.2147064208984
0, 1, 107, 121.8797607421875
0, 1, 108, 47.75985717773438
0, 1, 109, 9.855772972106934
0, 1, 110, 6.806839466094971
0, 1, 111, 5.622401714324951
0, 1, 112, 8.065800666809082
0, 1, 113, 7.257184028625488
0, 1, 114, 4.48920202255249
0, 1, 115, 4.54623556137085
0, 1, 116, 2.162028312683105
0, 1, 117, 2.336635828018188
0, 1, 118, 6.827670097351074
0, 1, 119, 1.567819118499756
0, 1, 120, 3.204222679138184
0, 1, 121, 5.480246543884277
0, 1, 122, 2.545596837997437
0, 1, 123, 3.372496604919434
0, 1, 124, 2.151043891906738
0, 1, 125, 2.116535902023315
0, 1, 126, 1.197935819625854
0, 1, 127, 1.440488815307617
0, 2, 0, 1.934946179389954
0, 2, 1, 3.394222259521484
0, 2, 2, 2.140701770782471
0, 2, 3, 1.237190127372742
0, 2, 4, 1.717863202095032
0, 2, 5, 1.148092746734619
0, 2, 6, 2.038863897323608
0, 2, 7, 1.463408470153809
0, 2, 8, 0.6766869425773621
0, 2, 9, 2.527437925338745
0, 2, 10, 3.733241319656372
0, 2, 11, 4.402432441711426
0, 2, 12, 3.069242000579834
0, 2, 13, 4.242729187011719
0, 2, 14, 3.947890281677246
0, 2, 15, 7.001132488250732
0, 2, 16, 4.406630992889404
0, 2, 17, 9.185710906982422
0, 2, 18, 15.40685653686523
0, 2, 19, 76.94806671142578
0, 2, 20, 162.6790924072266
0, 2, 21, 183.6168975830078
0, 2, 22, 194.5465545654297
0, 2, 23, 183.6365814208984
0, 2, 24, 173.2174682617188
0, 2, 25, 183.5737152099609
0, 2, 26, 180.7669525146484
0, 2, 27, 188.8937530517578
0, 2, 28, 170.6427612304688
0, 2, 29, 169.5972442626953
0, 2, 30, 184.4376068115234
0, 2, 31, 181.5698852539062
0, 2, 32, 183.2901763916016
0, 2, 33, 190.6216888427734
0, 2, 34, 199.9403533935547
0, 2, 35, 183.4915161132812
0, 2, 36, 186.3306732177734
0, 2, 37, 180.5949096679688
0, 2, 38, 186.5341186523438
0, 2, 39, 166.9388275146484
0, 2, 40, 184.0258483886719
0, 2, 41, 184.7821807861328
0, 2, 42, 190.8039245605469
0, 2, 43, 193.1428527832031
0, 2, 44, 191.2303924560547
0, 2, 45, 189.5562591552734
0, 2, 46, 196.6106567382812
0, 2, 47, 189.5148773193359
0, 2, 48, 177.7545471191406
0, 2, 49, 197.2804718017578
0, 2, 50, 168.5412445068359
0, 2, 51, 183.4126892089844
0, 2, 52, 187.314453125
0, 2, 53, 195.4609069824219
0, 2, 54, 177.4168853759766
0, 2, 55, 173.5634002685547
0, 2, 56, 181.7496337890625
0, 2, 57, 200.2022399902344
0, 2, 58, 186.1830749511719
0, 2, 59, 189.4820556640625
0, 2, 60, 196.1014556884766
0, 2, 61, 192.7982025146484
0, 2, 62, 189.4639282226562
0, 2, 63, 169.1809387207031
0, 2, 64, 189.4700164794922
0, 2, 65, 201.9017333984375
0, 2, 66, 195.2780303955078
0, 2, 67, 184.3609466552734
0, 2, 68, 182.9862823486328
0, 2, 69, 186.8454132080078
0, 2, 70, 203.0927429199219
0, 2, 71, 174.8354187011719
0, 2, 72, 187.1510162353516
0, 2, 73, 177.6838226318359
0, 2, 74, 180.6319427490234
0, 2, 75, 195.9501800537109
0, 2, 76, 183.2637023925781
0, 2, 77, 178.2496948242188
0, 2, 78, 197.536865234375
0, 2, 79, 178.0574645996094
0, 2, 80, 187.6183776855469
0, 2, 81, 188.8993072509766
0, 2, 82, 206.6458587646484
0, 2, 83, 204.4336090087891
0, 2, 84, 188.267578125
0, 2, 85, 171.5813751220703
0, 2, 86, 195.2330474853516
0, 2, 87, 172.9151458740234
0, 2, 88, 178.4793090820312
0, 2, 89, 184.3795166015625
0, 2, 90, 177.2537841796875
0, 2, 91, 173.4263305664062
0, 2, 92, 196.3153381347656
0, 2, 93, 193.0665740966797
0, 2, 94, 199.0905609130859
0, 2, 95, 195.3161468505859
0, 2, 96, 187.0325317382812
0, 2, 97, 171.3081207275391
0, 2, 98, 173.8410034179688
0, 2, 99, 164.4267425537109
0, 2, 100, 187.591552734375
0, 2, 101, 195.7961883544922
0, 2, 102, 176.0231628417969
0, 2, 103, 200.5111541748047
0, 2, 104, 187.4396514892578
0, 2, 105, 200.4485015869141
0, 2, 106, 193.9131469726562
0, 2, 107, 149.2557983398438
0, 2, 108, 78.85788726806641
0, 2, 109, 17.7441463470459
0, 2, 110, 7.351473331451416
0, 2, 111, 5.518376350402832
0, 2, 112, 3.359110832214355
0, 2, 113, 4.110630512237549
0, 2, 114, 6.89007043838501
0, 2, 115, 3.333297729492188
0, 2, 116, 1.715894103050232
0, 2, 117, 2.472964286804199
0, 2, 118, 2.267103433609009
0, 2, 119, 2.356958389282227
0, 2, 120, 1.093747735023499
0, 2, 121, 4.672355651855469
0, 2, 122, 4.282687187194824
0, 2, 123, 2.119501352310181
0, 2, 124, 2.241149187088013
0, 2, 125, 2.321319818496704
0, 2, 126, 3.25776195526123
0, 2, 127, 0.808516800403595
0, 3, 0, 2.016955852508545
0, 3, 1, 1.574959754943848
0, 3, 2, 1.443311214447021
0, 3, 3, 1.105289578437805
0, 3, 4, 5.169731140136719
0, 3, 5, 2.035452127456665
0, 3, 6, 1.486719727516174
0, 3, 7, 1.280142903327942
0, 3, 8, 1.561480760574341
0, 3, 9, 1.570706367492676
0, 3, 10, 4.076333522796631
0, 3, 11, 4.206562042236328
0, 3, 12, 3.091587543487549
0, 3, 13, 2.97428035736084
0, 3, 14, 4.733066558837891
0, 3, 15, 6.294580936431885
0, 3, 16, 6.910844326019287
0, 3, 17, 6.805892944335938
0, 3, 18, 32.76925277709961
0, 3, 19, 114.2132415771484
0, 3, 20, 179.8634338378906
0, 3, 21, 172.7244262695312
0, 3, 22, 178.2884826660156
0, 3, 23, 187.7553558349609
0, 3, 24, 177.8826599121094
0, 3, 25, 168.3767852783203
0, 3, 26, 182.4419403076172
0, 3, 27, 190.275390625
0, 3, 28, 184.2257385253906
0, 3, 29, 197.4412384033203
0, 3, 30, 185.0836486816406
0, 3, 31, 194.1181488037109
0, 3, 32, 207.1063690185547
0, 3, 33, 195.0933532714844
0, 3, 34, 187.3897247314453
0, 3, 35, 174.1291198730469
0, 3, 36, 185.3395843505859
0, 3, 37, 201.2278900146484
0, 3, 38, 192.5372314453125
0, 3, 39, 184.4338684082031
0, 3, 40, 165.7675476074219
0, 3, 41, 175.3943481445312
0, 3, 42, 186.3341217041016
0, 3, 43, 181.8139953613281
0, 3, 44, 202.4536590576172
0, 3, 45, 207.5784454345703
0, 3, 46, 198.8074340820312
0, 3, 47, 193.8711700439453
0, 3, 48, 195.3401947021484
0, 3, 49, 180.7174377441406
0, 3, 50, 187.6697082519531
0, 3, 51, 174.2913055419922
0, 3, 52, 187.7477111816406
0, 3, 53, 177.5558624267578
0, 3, 54, 179.5079498291016
0, 3, 55, 176.9788970947266
0, 3, 56, 182.3365478515625
0, 3, 57, 174.9751892089844
0, 3, 58, 200.8070678710938
0, 3, 59, 196.4437561035156
0, 3, 60, 186.34033203125
0, 3, 61, 181.1325073242188
0, 3, 62, 183.4915008544922
0, 3, 63, 185.7599639892578
0, 3, 64, 188.8012847900391
0, 3, 65, 187.1009368896484
0, 3, 66, 175.9160003662109
0, 3, 67, 190.7869567871094
0, 3, 68, 211.3152923583984
0, 3, 69, 190.2902526855469
0, 3, 70, 185.5087890625
0, 3, 71, 198.1580505371094
0, 3, 72, 185.7346496582031
0, 3, 73, 187.4636688232422
0, 3, 74, 193.6768798828125
0, 3, 75, 193.8956756591797
0, 3, 76, 191.0120544433594
0, 3, 77, 197.2507019042969
0, 3, 78, 189.3924713134766
0, 3, 79, 186.9188385009766
0, 3, 80, 188.9717559814453
0, 3, 81, 184.1210174560547
0, 3, 82, 179.6108245849609
0, 3, 83, 194.8476409912109
0, 3, 84, 199.5248565673828
0, 3, 85, 194.8067169189453
0, 3, 86, 206.0896148681641
0, 3, 87, 199.0053863525391
0, 3, 88, 191.4198455810547
0, 3, 89, 193.9868011474609
0, 3, 90, 174.6510467529297
0, 3, 91, 155.1432800292969
0, 3, 92, 207.2286987304688
0, 3, 93, 195.353271484375
0, 3, 94, 192.6340484619141
0, 3, 95, 211.0094146728516
0, 3, 96, 209.2611389160156
0, 3, 97, 168.8284301757812
0, 3, 98, 167.8176422119141
0, 3, 99, 180.2762908935547
0, 3, 100, 176.3876495361328
0, 3, 101, 197.2621765136719
0, 3, 102, 194.3023986816406
0, 3, 103, 192.5657806396484
0, 3, 104, 203.4261169433594
0, 3, 105, 175.9863739013672
0, 3, 106, 182.1731414794922
0, 3, 107, 169.7636260986328
0, 3, 108, 108.7634353637695
0, 3, 109, 26.86448287963867
0, 3, 110, 7.717535495758057
0, 3, 111, 6.946800231933594
0, 3, 112, 3.066379547119141
0, 3, 113, 7.197083950042725
0, 3, 114, 5.324973583221436
0, 3, 115, 5.13874626159668
0, 3, 116, 6.784061908721924
0, 3, 117, 2.892499685287476
0, 3, 118, 2.570802450180054
0, 3, 119, 2.285584688186646
0, 3, 120, 3.230210065841675
0, 3, 121, 1.782880425453186
0, 3, 122, 4.528186798095703
0, 3, 123, 1.924479126930237
0, 3, 124, 3.287952661514282
0, 3, 125, 2.368893384933472
0, 3, 126, 1.038752913475037
0, 3, 127, 1.919445395469666
0, 4, 0, 1.607595682144165
0, 4, 1, 0.6437547206878662
0, 4, 2, 1.739890456199646
0, 4, 3, 3.435608148574829
0, 4, 4, 1.629424929618835
0, 4, 5, 0.6866682171821594
0, 4, 6, 2.575189828872681
0, 4, 7, 3.400325536727905
0, 4, 8, 2.84653377532959
0, 4, 9, 2.721120119094849
0, 4, 10, 4.213794231414795
0, 4, 11, 4.38754940032959
0, 4, 12, 3.527386903762817
0, 4, 13, 3.850618600845337
0, 4, 14, 4.1872239112854
0, 4, 15, 8.31566047668457
0, 4, 16, 6.914935111999512
0, 4, 17, 11.2571382522583
0, 4, 18, 54.48650741577148
0, 4, 19, 152.0112457275391
0, 4, 20, 193.2757568359375
0, 4, 21, 168.9749755859375
0, 4, 22, 187.1495819091797
0, 4, 23, 195.6744079589844
0, 4, 24, 192.301513671875
0, 4, 25, 199.0043640136719
0, 4, 26, 184.1922454833984
0, 4, 27, 190.4290161132812
0, 4, 28, 177.6167449951172
0, 4, 29, 206.1563873291016
0, 4, 30, 195.3166809082031
0, 4, 31, 194.7979431152344
0, 4, 32, 209.6847076416016
0, 4, 33, 189.1559295654297
0, 4, 34, 193.0308532714844
0, 4, 35, 211.5522766113281
0, 4, 36, 192.4802398681641
0, 4, 37, 176.8950347900391
0, 4, 38, 194.1561279296875
0, 4, 39, 189.7748870849609
0, 4, 40, 186.5548095703125
0, 4, 41, 189.5655670166016
0, 4, 42, 206.2373199462891
0, 4, 43, 173.1567687988281
0, 4, 44, 183.3341674804688
0, 4, 45, 197.2573089599609
0, 4, 46, 185.7872161865234
0, 4, 47, 180.4281158447266
0, 4, 48, 185.2599487304688
0, 4, 49, 174.9469451904297
0, 4, 50, 187.6016082763672
0, 4, 51, 198.7926330566406
0, 4, 52, 223.3280944824219
0, 4, 53, 205.9654388427734
0, 4, 54, 190.1946563720703
0, 4, 55, 175.0397796630859
0, 4, 56, 191.0476531982422
0, 4, 57, 192.9593353271484
0, 4, 58, 187.3150787353516
0, 4, 59, 190.1792602539062
0, 4, 60, 195.6493530273438
0, 4, 61, 192.8072204589844
0, 4, 62, 189.7681121826172
0, 4, 63, 178.8595123291016
0, 4, 64, 211.4179992675781
0, 4, 65, 191.0737915039062
0, 4, 66, 202.4338836669922
0, 4, 67, 199.0992126464844
0, 4, 68, 201.8027191162109
0, 4, 69, 201.2344207763672
0, 4, 70, 204.280517578125
0, 4, 71, 207.0975952148438
0, 4, 72, 214.93603515625
0, 4, 73, 186.0600433349609
0, 4, 74, 181.5549011230469
0, 4, 75, 184.7677001953125
0, 4, 76, 189.7133483886719
0, 4, 77, 183.3107147216797
0, 4, 78, 195.0722808837891
0, 4, 79, 204.7423095703125
0, 4, 80, 211.511962890625
0, 4, 81, 197.6022796630859
0, 4, 82, 181.1227111816406
0, 4, 83, 169.4071197509766
0, 4, 84, 192.5738220214844
0, 4, 85, 195.3294372558594
0, 4, 86, 182.2393035888672
0, 4, 87, 183.4306182861328
0, 4, 88, 204.4549102783203
0, 4, 89, 187.2074737548828
0, 4, 90, 211.5286560058594
0, 4, 91, 191.7022247314453
0, 4, 92, 195.9331359863281
0, 4, 93, 195.5718841552734
0, 4, 94, 180.9397277832031
0, 4, 95, 174.4316101074219
0, 4, 96, 189.3761596679688
0, 4, 97, 192.9226531982422
0, 4, 98, 200.4102325439453
0, 4, 99, 183.2524108886719
0, 4, 100, 182.5048370361328
0, 4, 101, 177.7682342529297
0, 4, 102, 173.5721740722656
0, 4, 103, 186.80517578125
0, 4, 104, 209.0978851318359
0, 4, 105, 190.6762390136719
0, 4, 106, 179.3754577636719
0, 4, 107, 181.7184448242188
0, 4, 108, 151.8150024414062
0, 4, 109, 49.66298675537109
0, 4, 110, 12.80705070495605
0, 4, 111, 7.925471782684326
0, 4, 112, 6.170192241668701
0, 4, 113, 7.59464693069458
0, 4, 114, 5.131508350372314
0, 4, 115, 4.059048175811768
0, 4, 116, 5.062784671783447
0, 4, 117, 1.914607405662537
0, 4, 118, 5.07817554473877
0, 4, 119, 4.484444141387939
0, 4, 120, 2.616968154907227
0, 4, 121, 1.477936744689941
0, 4, 122, 3.239313125610352
0, 4, 123, 2.164568424224854
0, 4, 124, 3.684463024139404
0, 4, 125, 2.96561861038208
0, 4, 126, 2.677118539810181
0, 4, 127, 1.620084762573242
0, 5, 0, 1.19823431968689
0, 5, 1, 2.755321264266968
0, 5, 2, 5.902700901031494
0, 5, 3, 3.927626132965088
0, 5, 4, 2.500969171524048
0, 5, 5, 1.576024651527405
0, 5, 6, 2.629631757736206
0, 5, 7, 2.410254955291748
0, 5, 8, 3.35660195350647
0, 5, 9, 1.910413980484009
0, 5, 10, 3.607635498046875
0, 5, 11, 3.470198392868042
0, 5, 12, 3.983208656311035
0, 5, 13, 3.402488708496094
0, 5, 14, 6.951186656951904
0, 5, 15, 8.635712623596191
0, 5, 16, 6.895791053771973
0, 5, 17, 21.04563903808594
0, 5, 18, 82.86866760253906
0, 5, 19, 165.7223510742188
0, 5, 20, 183.6289520263672
0, 5, 21, 179.2968292236328
0, 5, 22, 170.9450225830078
0, 5, 23, 200.8507843017578
0, 5, 24, 186.9900360107422
0, 5, 25, 207.8583221435547
0, 5, 26, 183.1584625244141
0, 5, 27, 196.8775329589844
0, 5, 28, 190.1403198242188
0, 5, 29, 195.0587615966797
0, 5, 30, 178.1203155517578
0, 5, 31, 181.3667755126953
0, 5, 32, 186.6964111328125
0, 5, 33, 168.6624450683594
0, 5, 34, 195.0341033935547
0, 5, 35, 198.1536712646484
0, 5, 36, 168.3081817626953
0, 5, 37, 196.77294921875
0, 5, 38, 182.1434173583984
0, 5, 39, 186.9216461181641
0, 5, 40, 195.9016571044922
0, 5, 41, 176.9734802246094
0, 5, 42, 187.2975006103516
0, 5, 43, 191.6912536621094
0, 5, 44, 199.5128479003906
0, 5, 45, 186.2579345703125
0, 5, 46, 192.6639709472656
0, 5, 47, 181.5908508300781
0, 5, 48, 177.6913299560547
0, 5, 49, 178.7505035400391
0, 5, 50, 186.7527160644531
0, 5, 51, 171.5113067626953
0, 5, 52, 167.6532440185547
0, 5, 53, 181.3073883056641
0, 5, 54, 172.1477355957031
0, 5, 55, 215.5197906494141
0, 5, 56, 182.0330657958984
0, 5, 57, 207.2595062255859
0, 5, 58, 181.9723663330078
0, 5, 59, 181.3424835205078
0, 5, 60, 218.3196716308594
0, 5, 61, 184.4417572021484
0, 5, 62, 179.3274536132812
0, 5, 63, 180.3660125732422
0, 5, 64, 199.0846252441406
0, 5, 65, 211.1224212646484
0, 5, 66, 191.9204254150391
0, 5, 67, 201.7033996582031
0, 5, 68, 187.7741394042969
0, 5, 69, 185.9493255615234
0, 5, 70, 185.0369720458984
0, 5, 71, 193.2060852050781
0, 5, 72, 197.4239196777344
0, 5, 73, 201.3338165283203
0, 5, 74, 181.9566497802734
0, 5, 75, 203.0801544189453
0, 5, 76, 213.5784759521484
0, 5, 77, 180.2536163330078
0, 5, 78, 194.2411804199219
0, 5, 79, 191.0894165039062
0, 5, 80, 198.8971710205078
0, 5, 81, 203.2763519287109
0, 5, 82, 204.4499969482422
0, 5, 83, 188.4963531494141
0, 5, 84, 206.5130767822266
0, 5, 85, 176.2669677734375
0, 5, 86, 194.5490570068359
0, 5, 87, 187.8087615966797
0, 5, 88, 176.2824401855469
0, 5, 89, 193.9989624023438
0, 5, 90, 198.1321563720703
0, 5, 91, 194.2863464355469
0, 5, 92, 190.4923095703125
0, 5, 93, 191.7984924316406
0, 5, 94, 208.4131011962891
0, 5, 95, 177.4563293457031
0, 5, 96, 181.6251831054688
0, 5, 97, 191.0870513916016
0, 5, 98, 189.7730560302734
0, 5, 99, 193.7668151855469
0, 5, 100, 186.2540435791016
0, 5, 101, 196.7495574951172
0, 5, 102, 181.6746826171875
0, 5, 103, 176.8313293457031
0, 5, 104, 189.9795227050781
0, 5, 105, 189.6991882324219
0, 5, 106, 177.0622863769531
0, 5, 107, 182.7208099365234
0, 5, 108, 176.9828796386719
0, 5, 109, 91.15612030029297
0, 5, 110, 30.65807151794434
0, 5, 111, 8.861527442932129
0, 5, 112, 6.368922233581543
0, 5, 113, 8.01060962677002
0, 5, 114, 5.738367080688477
0, 5, 115, 5.243215560913086
0, 5, 116, 3.454365253448486
0, 5, 117, 2.858153343200684
0, 5, 118, 3.249536752700806
0, 5, 119, 3.699901103973389
0, 5, 120, 2.743472814559937
0, 5, 121, 1.3555588722229
0, 5, 122, 4.439445972442627
0, 5, 123, 4.904908657073975
0, 5, 124, 2.604227066040039
0, 5, 125, 1.711080312728882
0, 5, 126, 1.122522473335266
0, 5, 127, 3.101845502853394
0, 6, 0, 4.219750881195068
0, 6, 1, 2.762940645217896
0, 6, 2, 3.684783220291138
0, 6, 3, 1.488576531410217
0, 6, 4, 2.6544189453125
0, 6, 5, 3.544211626052856
0, 6, 6, 2.166103839874268
0, 6, 7, 3.832372665405273
0, 6, 8, 4.162280559539795
0, 6, 9, 2.827655553817749
0, 6, 10, 4.657861232757568
0, 6, 11, 3.715275287628174
0, 6, 12, 6.209458827972412
0, 6, 13, 5.089608192443848
0, 6, 14, 4.548557281494141
0, 6, 15, 6.665385246276855
0, 6, 16, 14.47993278503418
0, 6, 17, 28.00762367248535
0, 6, 18, 112.1839218139648
0, 6, 19, 192.6477813720703
0, 6, 20, 195.5800323486328
0, 6, 21, 197.5432586669922
0, 6, 22, 190.8307952880859
0, 6, 23, 190.2858734130859
0, 6, 24, 200.6423797607422
0, 6, 25, 181.4142761230469
0, 6, 26, 188.0047302246094
0, 6, 27, 193.9689025878906
0, 6, 28, 191.0297088623047
0, 6, 29, 210.0357971191406
0, 6, 30, 190.2842864990234
0, 6, 31, 192.8695220947266
0, 6, 32, 205.1237182617188
0, 6, 33, 185.0980987548828
0, 6, 34, 196.4399108886719
0, 6, 35, 188.7514953613281
0, 6, 36, 181.0269470214844
0, 6, 37, 182.3168029785156
0, 6, 38, 185.3381805419922
0, 6, 39, 194.2585144042969
0, 6, 40, 173.5062103271484
0, 6, 41, 184.6774444580078
0, 6, 42, 173.9980316162109
0, 6, 43, 209.8760986328125
0, 6, 44, 209.5207824707031
0, 6, 45, 194.2651824951172
0, 6, 46, 187.9326782226562
0, 6, 47, 206.7142791748047
0, 6, 48, 189.9118194580078
0, 6, 49, 180.6845245361328
0, 6, 50, 182.3854064941406
0, 6, 51, 195.6944427490234
0, 6, 52, 197.7973327636719
0, 6, 53, 185.9556884765625
0, 6, 54, 175.4900817871094
0, 6, 55, 195.2857208251953
0, 6, 56, 202.2218170166016
0, 6, 57, 191.4313354492188
0, 6, 58, 179.4929809570312
0, 6, 59, 191.9501800537109
0, 6, 60, 184.3732299804688
0, 6, 61, 194.3691711425781
0, 6, 62, 196.5218505859375
0, 6, 63, 186.5397186279297
0, 6, 64, 167.85546875
0, 6, 65, 187.7122650146484
0, 6, 66, 197.9421081542969
0, 6, 67, 214.3646545410156
0, 6, 68, 182.5981140136719
0, 6, 69, 171.8702850341797
0, 6, 70, 187.6410675048828
0, 6, 71, 170.7480163574219
0, 6, 72, 175.79443359375
0, 6, 73, 177.0218658447266
0, 6, 74, 209.7701721191406
0, 6, 75, 228.5172424316406
0, 6, 76, 185.6521148681641
0, 6, 77, 173.2575836181641
0, 6, 78, 174.9592895507812
0, 6, 79, 186.1333160400391
0, 6, 80, 188.6252288818359
0, 6, 81, 209.1678924560547
0, 6, 82, 195.7497863769531
0, 6, 83, 194.3422546386719
0, 6, 84, 197.1758270263672
0, 6, 85, 180.75244140625
0, 6, 86, 200.6595764160156
0, 6, 87, 183.9099731445312
0, 6, 88, 191.876953125
0, 6, 89, 189.6930084228516
0, 6, 90, 206.4111175537109
0, 6, 91, 200.6760101318359
0, 6, 92, 173.72900390625
0, 6, 93, 191.564208984375
0, 6, 94, 189.2888793945312
0, 6, 95, 184.9814147949219
0, 6, 96, 188.3079071044922
0, 6, 97, 195.6602020263672
0, 6, 98, 184.0660400390625
0, 6, 99, 175.4644317626953
0, 6, 100, 201.1704254150391
0, 6, 101, 167.1979217529297
0, 6, 102, 201.9971771240234
0, 6, 103, 196.0890197753906
0, 6, 104, 183.2754058837891
0, 6, 105, 193.3105316162109
0, 6, 106, 176.7484893798828
0, 6, 107, 194.8770904541016
0, 6, 108, 171.818115234375
0, 6, 109, 113.8705215454102
0, 6, 110, 35.08780288696289
0, 6, 111, 9.299535751342773
0, 6, 112, 8.192741394042969
0, 6, 113, 6.238452911376953
0, 6, 114, 4.837922096252441
0, 6, 115, 6.001328468322754
0, 6, 116, 3.754650354385376
0, 6, 117, 2.56399941444397
0, 6, 118, 2.944202661514282
0, 6, 119, 4.284211158752441
0, 6, 120, 4.124131679534912
0, 6, 121, 5.297020435333252
0, 6, 122, 4.887861728668213
0, 6, 123, 2.587838888168335
0, 6, 124, 2.171772956848145
0, 6, 125, 3.377958059310913
0, 6, 126, 1.878392457962036
0, 6, 127, 3.364409923553467
0, 7, 0, 3.397474050521851
0, 7, 1, 1.919726848602295
0, 7, 2, 2.605953693389893
0, 7, 3, 1.961210608482361
0, 7, 4, 1.394224405288696
0, 7, 5, 1.2156662940979
0, 7, 6, 1.897355437278748
0, 7, 7, 2.122053384780884
0, 7, 8, 5.491720199584961
0, 7, 9, 3.591337919235229
0, 7, 10, 4.36866283416748
0, 7, 11, 3.697141408920288
0, 7, 12, 3.67303991317749
0, 7, 13, 5.992018222808838
0, 7, 14, 7.243937969207764
0, 7, 15, 7.206512928009033
0, 7, 16, 17.14058685302734
0, 7, 17, 52.99709701538086
0, 7, 18, 161.2519226074219
0, 7, 19, 182.2891693115234
0, 7, 20, 180.3920135498047
0, 7, 21, 180.3609008789062
0, 7, 22, 189.8177185058594
0, 7, 23, 202.8038635253906
0, 7, 24, 178.7390289306641
0, 7, 25, 212.4636993408203
0, 7, 26, 189.6727142333984
0, 7, 27, 182.3534088134766
0, 7, 28, 182.6503143310547
0, 7, 29, 208.4537658691406
0, 7, 30, 194.1434020996094
0, 7, 31, 175.4654388427734
0, 7, 32, 190.2015075683594
0, 7, 33, 179.0895080566406
0, 7, 34, 194.4246063232422
0, 7, 35, 197.2978820800781
0, 7, 36, 186.2371063232422
0, 7, 37, 212.5817413330078
0, 7, 38, 190.1179656982422
0, 7, 39, 174.3146514892578
0, 7, 40, 183.2568359375
0, 7, 41, 184.5983276367188
0, 7, 42, 177.8291168212891
0, 7, 43, 178.7239990234375
0, 7, 44, 179.7874603271484
0, 7, 45, 174.3397064208984
0, 7, 46, 189.6881866455078
0, 7, 47, 198.2107696533203
0, 7, 48, 186.1355133056641
0, 7, 49, 198.3023376464844
0, 7, 50, 188.0142669677734
0, 7, 51, 205.0304718017578
0, 7, 52, 204.0154418945312
0, 7, 53, 192.0126647949219
0, 7, 54, 197.4800872802734
0, 7, 55, 203.7821807861328
0, 7, 56, 184.4777679443359
0, 7, 57, 182.9903259277344
0, 7, 58, 190.8279571533203
0, 7, 59, 186.6712341308594
0, 7, 60, 202.3883361816406
0, 7, 61, 170.0725555419922
0, 7, 62, 203.0005645751953
0, 7, 63, 189.1079254150391
0, 7, 64, 199.0871734619141
0, 7, 65, 195.9881744384766
0, 7, 66, 205.3370819091797
0, 7, 67, 220.1532745361328
0, 7, 68, 162.7141571044922
0, 7, 69, 195.285888671875
0, 7, 70, 217.6466979980469
0, 7, 71, 184.8563232421875
0, 7, 72, 181.1599731445312
0, 7, 73, 177.1804504394531
0, 7, 74, 207.3846130371094
0, 7, 75, 204.4472198486328
0, 7, 76, 215.9315032958984
0, 7, 77, 173.9247741699219
0, 7, 78, 177.2285308837891
0, 7, 79, 194.6626586914062
0, 7, 80, 194.8708953857422
0, 7, 81, 215.2236022949219
0, 7, 82, 185.2699890136719
0, 7, 83, 205.3491668701172
0, 7, 84, 191.4297180175781
0, 7, 85, 185.2910614013672
0, 7, 86, 202.4199981689453
0, 7, 87, 225.5339965820312
0, 7, 88, 196.2851104736328
0, 7, 89, 175.885986328125
0, 7, 90, 183.6975402832031
0, 7, 91, 194.9127349853516
0, 7, 92, 193.5813903808594
0, 7, 93, 198.4131927490234
0, 7, 94, 177.315673828125
0, 7, 95, 198.2184906005859
0, 7, 96, 208.4427642822266
0, 7, 97, 188.1649932861328
0, 7, 98, 178.1159057617188
0, 7, 99, 196.8263244628906
0, 7, 100, 183.1078338623047
0, 7, 101, 198.8192291259766
0, 7, 102, 185.5827484130859
0, 7, 103, 182.7618103027344
0, 7, 104, 174.1132965087891
0, 7, 105, 196.1276397705078
0, 7, 106, 205.8646240234375
0, 7, 107, 174.5465545654297
0, 7, 108, 176.1922912597656
0, 7, 109, 137.5576019287109
0, 7, 110, 54.89269256591797
0, 7, 111, 10.61320114135742
0, 7, 112, 7.212326526641846
0, 7, 113, 8.350563049316406
0, 7, 114, 7.17519998550415
0, 7, 115, 4.815544128417969
0, 7, 116, 4.155697345733643
0, 7, 117, 2.639509677886963
0, 7, 118, 3.712505102157593
0, 7, 119, 2.861697196960449
0, 7, 120, 2.586638927459717
0, 7, 121, 1.452641248703003
0, 7, 122, 2.371490001678467
0, 7, 123, 1.709571719169617
0, 7, 124, 2.030213117599487
0, 7, 125, 1.342321753501892
0, 7, 126, 2.845868110656738
0, 7, 127, 1.86877167224884
0, 8, 0, 4.540881633758545
0, 8, 1, 2.659424304962158
0, 8, 2, 4.288888454437256
0, 8, 3, 2.434632301330566
0, 8, 4, 1.033464312553406
0, 8, 5, 3.410722255706787
0, 8, 6, 1.372270941734314
0, 8, 7, 4.721405506134033
0, 8, 8, 2.832523107528687
0, 8, 9, 5.275193214416504
0, 8, 10, 2.898587465286255
0, 8, 11, 2.511673212051392
0, 8, 12, 4.423128128051758
0, 8, 13, 5.172624111175537
0, 8, 14, 6.682521820068359
0, 8, 15, 8.468317031860352
0, 8, 16, 20.14742660522461
0, 8, 17, 75.57359313964844
0, 8, 18, 142.2799072265625
0, 8, 19, 179.4676513671875
0, 8, 20, 192.8028259277344
0, 8, 21, 192.1018981933594
0, 8, 22, 179.4906005859375
0, 8, 23, 172.0612640380859
0, 8, 24, 191.7038116455078
0, 8, 25, 186.7307739257812
0, 8, 26, 193.0988006591797
0, 8, 27, 186.5567321777344
0, 8, 28, 188.2138519287109
0, 8, 29, 207.9100341796875
0, 8, 30, 196.8536529541016
0, 8, 31, 181.5727233886719
0, 8, 32, 197.7518310546875
0, 8, 33, 207.1770629882812
0, 8, 34, 203.1056365966797
0, 8, 35, 184.9488067626953
0, 8, 36, 182.4548492431641
