# TOPAS Version: 3.1.p3
# Parameter File: batch_inserts_314.txt
# Results for scorer Readout_Adipose
# Scored in component: MyBox
# X in 1 bin  of 0.65 cm
# Y in 512 bins of 0.0783984 cm
# Z in 128 bins of 0.078125 cm
# EnergyDeposit ( MeV ) : Sum   
0, 0, 0, 1.749571442604065
0, 0, 1, 3.355607271194458
0, 0, 2, 3.703934192657471
0, 0, 3, 1.148847103118896
0, 0, 4, 0.9624004364013672
0, 0, 5, 1.663294434547424
0, 0, 6, 1.870912432670593
0, 0, 7, 2.183800458908081
0, 0, 8, 1.770126342773438
0, 0, 9, 2.290533542633057
0, 0, 10, 3.326364994049072
0, 0, 11, 3.356665134429932
0, 0, 12, 4.515016555786133
0, 0, 13, 3.284880876541138
0, 0, 14, 5.133054256439209
0, 0, 15, 5.285453796386719
0, 0, 16, 3.624312162399292
0, 0, 17, 5.650134563446045
0, 0, 18, 6.023186683654785
0, 0, 19, 24.73869705200195
0, 0, 20, 94.27388000488281
0, 0, 21, 155.0587310791016
0, 0, 22, 154.7702331542969
0, 0, 23, 144.4816589355469
0, 0, 24, 159.8261260986328
0, 0, 25, 166.9302673339844
0, 0, 26, 166.38916015625
0, 0, 27, 174.1065979003906
0, 0, 28, 177.6233978271484
0, 0, 29, 174.5298614501953
0, 0, 30, 173.0284118652344
0, 0, 31, 165.7015228271484
0, 0, 32, 164.2471466064453
0, 0, 33, 167.4995422363281
0, 0, 34, 176.6690826416016
0, 0, 35, 174.0822296142578
0, 0, 36, 160.6101379394531
0, 0, 37, 160.8000946044922
0, 0, 38, 165.8934020996094
0, 0, 39, 159.9663391113281
0, 0, 40, 164.4930877685547
0, 0, 41, 166.0401000976562
0, 0, 42, 144.4810485839844
0, 0, 43, 167.4521484375
0, 0, 44, 178.1316223144531
0, 0, 45, 172.8069763183594
0, 0, 46, 165.7362365722656
0, 0, 47, 167.0590209960938
0, 0, 48, 169.7309112548828
0, 0, 49, 182.4950714111328
0, 0, 50, 168.8631591796875
0, 0, 51, 162.5269622802734
0, 0, 52, 162.56884765625
0, 0, 53, 172.2702484130859
0, 0, 54, 159.963134765625
0, 0, 55, 164.4920806884766
0, 0, 56, 189.2837982177734
0, 0, 57, 170.6656494140625
0, 0, 58, 161.5701751708984
0, 0, 59, 172.9575958251953
0, 0, 60, 168.9481353759766
0, 0, 61, 171.4177093505859
0, 0, 62, 183.0565795898438
0, 0, 63, 167.3174438476562
0, 0, 64, 163.9703826904297
0, 0, 65, 175.3097381591797
0, 0, 66, 178.1038208007812
0, 0, 67, 164.27734375
0, 0, 68, 158.5193634033203
0, 0, 69, 158.4802093505859
0, 0, 70, 169.4707946777344
0, 0, 71, 158.8248901367188
0, 0, 72, 162.2520294189453
0, 0, 73, 171.0765533447266
0, 0, 74, 163.2745513916016
0, 0, 75, 162.8316345214844
0, 0, 76, 163.0608978271484
0, 0, 77, 171.2540893554688
0, 0, 78, 180.9649963378906
0, 0, 79, 175.0743560791016
0, 0, 80, 160.6348114013672
0, 0, 81, 160.6033782958984
0, 0, 82, 181.9893646240234
0, 0, 83, 172.5379943847656
0, 0, 84, 159.3087005615234
0, 0, 85, 181.6761322021484
0, 0, 86, 157.9656677246094
0, 0, 87, 177.7295227050781
0, 0, 88, 178.17333984375
0, 0, 89, 176.4462432861328
0, 0, 90, 160.9389190673828
0, 0, 91, 184.4833374023438
0, 0, 92, 164.5740814208984
0, 0, 93, 155.4834747314453
0, 0, 94, 169.8110046386719
0, 0, 95, 172.8629150390625
0, 0, 96, 183.6585235595703
0, 0, 97, 183.6052093505859
0, 0, 98, 184.8314819335938
0, 0, 99, 171.4160919189453
0, 0, 100, 159.1320495605469
0, 0, 101, 167.7356109619141
0, 0, 102, 170.3115386962891
0, 0, 103, 170.9084320068359
0, 0, 104, 167.7509918212891
0, 0, 105, 177.1499938964844
0, 0, 106, 158.2652587890625
0, 0, 107, 87.04604339599609
0, 0, 108, 22.26764297485352
0, 0, 109, 9.612090110778809
0, 0, 110, 7.211225509643555
0, 0, 111, 6.649616241455078
0, 0, 112, 2.803857088088989
0, 0, 113, 3.569412469863892
0, 0, 114, 1.780835866928101
0, 0, 115, 3.28216814994812
0, 0, 116, 3.256889820098877
0, 0, 117, 2.724801778793335
0, 0, 118, 3.607056379318237
0, 0, 119, 1.593061208724976
0, 0, 120, 1.762329459190369
0, 0, 121, 4.459932804107666
0, 0, 122, 3.790133476257324
0, 0, 123, 3.444282293319702
0, 0, 124, 1.600538492202759
0, 0, 125, 3.819012880325317
0, 0, 126, 0.8042191863059998
0, 0, 127, 1.450667858123779
0, 1, 0, 1.902665615081787
0, 1, 1, 4.394941329956055
0, 1, 2, 2.360344648361206
0, 1, 3, 1.513335943222046
0, 1, 4, 1.131117701530457
0, 1, 5, 1.955203413963318
0, 1, 6, 2.016523838043213
0, 1, 7, 2.928688526153564
0, 1, 8, 2.007021903991699
0, 1, 9, 1.493692278862
0, 1, 10, 2.626532554626465
0, 1, 11, 3.961762666702271
0, 1, 12, 3.360159397125244
0, 1, 13, 3.464811563491821
0, 1, 14, 6.439778327941895
0, 1, 15, 6.438750267028809
0, 1, 16, 8.429324150085449
0, 1, 17, 5.594120502471924
0, 1, 18, 12.9224796295166
0, 1, 19, 38.36739349365234
0, 1, 20, 126.2927169799805
0, 1, 21, 177.5735321044922
0, 1, 22, 192.3556060791016
0, 1, 23, 185.0238037109375
0, 1, 24, 181.0631866455078
0, 1, 25, 191.0834808349609
0, 1, 26, 197.2272644042969
0, 1, 27, 186.1284637451172
0, 1, 28, 188.3593597412109
0, 1, 29, 183.7827606201172
0, 1, 30, 179.2345275878906
0, 1, 31, 181.2462158203125
0, 1, 32, 189.1671295166016
0, 1, 33, 189.6349945068359
0, 1, 34, 184.074951171875
0, 1, 35, 192.9328002929688
0, 1, 36, 205.5028076171875
0, 1, 37, 184.9367523193359
0, 1, 38, 164.9900512695312
0, 1, 39, 171.7174530029297
0, 1, 40, 180.4187774658203
0, 1, 41, 184.4329833984375
0, 1, 42, 183.1095581054688
0, 1, 43, 185.2178497314453
0, 1, 44, 170.2437133789062
0, 1, 45, 187.5868377685547
0, 1, 46, 170.9489288330078
0, 1, 47, 185.4805755615234
0, 1, 48, 188.5659027099609
0, 1, 49, 186.5281829833984
0, 1, 50, 177.8562622070312
0, 1, 51, 190.6429138183594
0, 1, 52, 194.8556671142578
0, 1, 53, 196.2662048339844
0, 1, 54, 184.5035858154297
0, 1, 55, 164.3772583007812
0, 1, 56, 179.0000152587891
0, 1, 57, 179.8930969238281
0, 1, 58, 188.2789611816406
0, 1, 59, 193.5759429931641
0, 1, 60, 187.3936767578125
0, 1, 61, 177.1618194580078
0, 1, 62, 203.90625
0, 1, 63, 174.6603088378906
0, 1, 64, 174.0291137695312
0, 1, 65, 185.8075561523438
0, 1, 66, 204.3173065185547
0, 1, 67, 182.4795379638672
0, 1, 68, 186.7241058349609
0, 1, 69, 189.6595611572266
0, 1, 70, 185.8813323974609
0, 1, 71, 172.5938568115234
0, 1, 72, 188.8476715087891
0, 1, 73, 190.233642578125
0, 1, 74, 201.1878814697266
0, 1, 75, 183.5964050292969
0, 1, 76, 176.0613861083984
0, 1, 77, 191.6705169677734
0, 1, 78, 189.4159851074219
0, 1, 79, 203.9364776611328
0, 1, 80, 186.7979278564453
0, 1, 81, 176.4450225830078
0, 1, 82, 206.6943359375
0, 1, 83, 212.0403289794922
0, 1, 84, 180.1728210449219
0, 1, 85, 169.382080078125
0, 1, 86, 167.8299255371094
0, 1, 87, 184.3610382080078
0, 1, 88, 176.4076385498047
0, 1, 89, 187.3112335205078
0, 1, 90, 212.6767272949219
0, 1, 91, 182.0554504394531
0, 1, 92, 184.7696380615234
0, 1, 93, 180.7400512695312
0, 1, 94, 187.3793029785156
0, 1, 95, 184.555419921875
0, 1, 96, 196.0966186523438
0, 1, 97, 182.3577270507812
0, 1, 98, 186.8967895507812
0, 1, 99, 176.6604766845703
0, 1, 100, 172.1855010986328
0, 1, 101, 179.3627624511719
0, 1, 102, 181.6462097167969
0, 1, 103, 173.2235870361328
0, 1, 104, 189.2594146728516
0, 1, 105, 181.4283142089844
0, 1, 106, 163.9599151611328
0, 1, 107, 125.0588912963867
0, 1, 108, 47.74167251586914
0, 1, 109, 9.813225746154785
0, 1, 110, 8.075040817260742
0, 1, 111, 5.863490581512451
0, 1, 112, 7.806943416595459
0, 1, 113, 7.064117431640625
0, 1, 114, 5.115977764129639
0, 1, 115, 3.400565624237061
0, 1, 116, 3.056486845016479
0, 1, 117, 2.150352716445923
0, 1, 118, 4.047140598297119
0, 1, 119, 1.91308581829071
0, 1, 120, 3.339659929275513
0, 1, 121, 3.888121843338013
0, 1, 122, 1.66370415687561
0, 1, 123, 2.934033632278442
0, 1, 124, 2.219883441925049
0, 1, 125, 1.779566884040833
0, 1, 126, 1.446300864219666
0, 1, 127, 2.096729755401611
0, 2, 0, 2.026323080062866
0, 2, 1, 1.980672121047974
0, 2, 2, 3.721160888671875
0, 2, 3, 1.02929151058197
0, 2, 4, 1.258604288101196
0, 2, 5, 2.414119482040405
0, 2, 6, 1.872218489646912
0, 2, 7, 2.00776219367981
0, 2, 8, 2.186911106109619
0, 2, 9, 2.950287342071533
0, 2, 10, 4.766270637512207
0, 2, 11, 3.885631561279297
0, 2, 12, 3.171204328536987
0, 2, 13, 2.970670700073242
0, 2, 14, 5.44508171081543
0, 2, 15, 5.424483299255371
0, 2, 16, 5.666438102722168
0, 2, 17, 9.9520263671875
0, 2, 18, 14.08026313781738
0, 2, 19, 77.47431182861328
0, 2, 20, 162.9357147216797
0, 2, 21, 182.6285552978516
0, 2, 22, 193.6739349365234
0, 2, 23, 184.0520782470703
0, 2, 24, 173.3691101074219
0, 2, 25, 184.7097320556641
0, 2, 26, 178.7875823974609
0, 2, 27, 191.5650177001953
0, 2, 28, 173.3931427001953
0, 2, 29, 168.8330841064453
0, 2, 30, 183.9824371337891
0, 2, 31, 182.3123779296875
0, 2, 32, 183.8850250244141
0, 2, 33, 190.6474761962891
0, 2, 34, 195.1573638916016
0, 2, 35, 181.1471557617188
0, 2, 36, 185.6228790283203
0, 2, 37, 181.1993103027344
0, 2, 38, 184.1903991699219
0, 2, 39, 166.5224151611328
0, 2, 40, 183.8797607421875
0, 2, 41, 183.0621337890625
0, 2, 42, 189.8977355957031
0, 2, 43, 193.59228515625
0, 2, 44, 190.7244110107422
0, 2, 45, 190.6385955810547
0, 2, 46, 196.5416259765625
0, 2, 47, 188.6975860595703
0, 2, 48, 178.1417541503906
0, 2, 49, 197.3366851806641
0, 2, 50, 168.1624145507812
0, 2, 51, 183.560302734375
0, 2, 52, 186.3785247802734
0, 2, 53, 195.6260833740234
0, 2, 54, 176.2865753173828
0, 2, 55, 173.5770416259766
0, 2, 56, 182.3078460693359
0, 2, 57, 199.9058227539062
0, 2, 58, 186.8804168701172
0, 2, 59, 189.1512603759766
0, 2, 60, 197.0971374511719
0, 2, 61, 192.6785583496094
0, 2, 62, 191.0813598632812
0, 2, 63, 170.4041900634766
0, 2, 64, 188.9952697753906
0, 2, 65, 204.3853302001953
0, 2, 66, 197.3407440185547
0, 2, 67, 184.5333557128906
0, 2, 68, 184.4346466064453
0, 2, 69, 188.7158813476562
0, 2, 70, 204.0353088378906
0, 2, 71, 175.2501525878906
0, 2, 72, 186.1432952880859
0, 2, 73, 176.8509063720703
0, 2, 74, 180.3837280273438
0, 2, 75, 195.4716186523438
0, 2, 76, 185.3879699707031
0, 2, 77, 177.1998138427734
0, 2, 78, 198.7106628417969
0, 2, 79, 178.4125823974609
0, 2, 80, 188.1137847900391
0, 2, 81, 187.1446075439453
0, 2, 82, 206.5234069824219
0, 2, 83, 202.8664245605469
0, 2, 84, 188.0256500244141
0, 2, 85, 169.6705627441406
0, 2, 86, 194.8201904296875
0, 2, 87, 172.4806823730469
0, 2, 88, 178.594970703125
0, 2, 89, 186.9194030761719
0, 2, 90, 179.7113800048828
0, 2, 91, 174.0965270996094
0, 2, 92, 197.0489196777344
0, 2, 93, 191.9193267822266
0, 2, 94, 198.5581970214844
0, 2, 95, 195.3806762695312
0, 2, 96, 187.7400360107422
0, 2, 97, 173.0644378662109
0, 2, 98, 173.0650939941406
0, 2, 99, 163.1299591064453
0, 2, 100, 187.7760162353516
0, 2, 101, 196.0311279296875
0, 2, 102, 177.3157653808594
0, 2, 103, 199.1735992431641
0, 2, 104, 187.1846313476562
0, 2, 105, 199.6502380371094
0, 2, 106, 195.3611602783203
0, 2, 107, 150.6035919189453
0, 2, 108, 78.57916259765625
0, 2, 109, 19.02511215209961
0, 2, 110, 6.969858646392822
0, 2, 111, 5.739043235778809
0, 2, 112, 3.200921535491943
0, 2, 113, 4.302608489990234
0, 2, 114, 7.802017688751221
0, 2, 115, 3.726486682891846
0, 2, 116, 1.496750950813293
0, 2, 117, 3.513111114501953
0, 2, 118, 1.987766146659851
0, 2, 119, 2.756277799606323
0, 2, 120, 3.104252099990845
0, 2, 121, 3.205685377120972
0, 2, 122, 2.38737964630127
0, 2, 123, 1.118074536323547
0, 2, 124, 2.747733592987061
0, 2, 125, 1.766730666160583
0, 2, 126, 2.605360746383667
0, 2, 127, 1.118526339530945
0, 3, 0, 1.775690674781799
0, 3, 1, 1.37226676940918
0, 3, 2, 1.938765048980713
0, 3, 3, 1.840734720230103
0, 3, 4, 4.681874752044678
0, 3, 5, 2.170376539230347
0, 3, 6, 1.442968964576721
0, 3, 7, 1.412084817886353
0, 3, 8, 1.655710697174072
0, 3, 9, 2.116241693496704
0, 3, 10, 1.679296731948853
0, 3, 11, 3.687742471694946
0, 3, 12, 3.410617351531982
0, 3, 13, 3.418667316436768
0, 3, 14, 6.583409786224365
0, 3, 15, 4.983680725097656
0, 3, 16, 7.055053234100342
0, 3, 17, 7.263012409210205
0, 3, 18, 33.20553970336914
0, 3, 19, 116.1916656494141
0, 3, 20, 180.9525909423828
0, 3, 21, 172.4825439453125
0, 3, 22, 178.0197143554688
0, 3, 23, 187.5157470703125
0, 3, 24, 178.3776245117188
0, 3, 25, 168.5703125
0, 3, 26, 182.0921325683594
0, 3, 27, 190.3530578613281
0, 3, 28, 182.4930267333984
0, 3, 29, 197.1597900390625
0, 3, 30, 185.3370208740234
0, 3, 31, 192.9920196533203
0, 3, 32, 205.62548828125
0, 3, 33, 196.1650695800781
0, 3, 34, 187.9588317871094
0, 3, 35, 173.3343658447266
0, 3, 36, 185.1575927734375
0, 3, 37, 200.1963043212891
0, 3, 38, 191.3276214599609
0, 3, 39, 185.4108581542969
0, 3, 40, 165.8554840087891
0, 3, 41, 174.9769134521484
0, 3, 42, 186.2147674560547
0, 3, 43, 181.7847137451172
0, 3, 44, 204.0181121826172
0, 3, 45, 208.365234375
0, 3, 46, 198.1613311767578
0, 3, 47, 194.5747680664062
0, 3, 48, 195.5115356445312
0, 3, 49, 179.7113189697266
0, 3, 50, 186.7701721191406
0, 3, 51, 173.8305206298828
0, 3, 52, 187.3873443603516
0, 3, 53, 176.8613433837891
0, 3, 54, 179.8320922851562
0, 3, 55, 176.5333862304688
0, 3, 56, 182.2727966308594
0, 3, 57, 176.6768035888672
0, 3, 58, 201.63623046875
0, 3, 59, 196.0251617431641
0, 3, 60, 187.4014739990234
0, 3, 61, 181.4194641113281
0, 3, 62, 182.6319122314453
0, 3, 63, 185.7964324951172
0, 3, 64, 190.9736022949219
0, 3, 65, 189.7339477539062
0, 3, 66, 175.4565124511719
0, 3, 67, 190.4555969238281
0, 3, 68, 214.1042633056641
0, 3, 69, 192.8068695068359
0, 3, 70, 186.3478851318359
0, 3, 71, 196.8138580322266
0, 3, 72, 185.2172088623047
0, 3, 73, 186.1272277832031
0, 3, 74, 194.4264984130859
0, 3, 75, 195.5554351806641
0, 3, 76, 192.5609741210938
0, 3, 77, 200.5957336425781
0, 3, 78, 188.7353515625
0, 3, 79, 186.1897735595703
0, 3, 80, 190.1880035400391
0, 3, 81, 182.8276824951172
0, 3, 82, 179.2083282470703
0, 3, 83, 196.9321136474609
0, 3, 84, 199.6680450439453
0, 3, 85, 191.7110748291016
0, 3, 86, 204.3890533447266
0, 3, 87, 197.2077026367188
0, 3, 88, 190.8025665283203
0, 3, 89, 193.5279388427734
0, 3, 90, 175.8604125976562
0, 3, 91, 158.0876922607422
0, 3, 92, 207.5936584472656
0, 3, 93, 195.8337249755859
0, 3, 94, 192.3822784423828
0, 3, 95, 211.4351501464844
0, 3, 96, 208.6620330810547
0, 3, 97, 168.124267578125
0, 3, 98, 167.5136413574219
0, 3, 99, 180.8270874023438
0, 3, 100, 176.1814117431641
0, 3, 101, 197.0799102783203
0, 3, 102, 194.2752990722656
0, 3, 103, 194.1708526611328
0, 3, 104, 202.8512573242188
0, 3, 105, 174.7236938476562
0, 3, 106, 180.8587036132812
0, 3, 107, 169.0126647949219
0, 3, 108, 107.8259124755859
0, 3, 109, 27.88034248352051
0, 3, 110, 9.135671615600586
0, 3, 111, 6.658692836761475
0, 3, 112, 3.539535522460938
0, 3, 113, 6.633957862854004
0, 3, 114, 5.513881206512451
0, 3, 115, 5.624070167541504
0, 3, 116, 5.71528434753418
0, 3, 117, 3.25007438659668
0, 3, 118, 3.43897557258606
0, 3, 119, 2.329789876937866
0, 3, 120, 5.715493202209473
0, 3, 121, 4.29879093170166
0, 3, 122, 3.262873649597168
0, 3, 123, 2.070402145385742
0, 3, 124, 1.478058099746704
0, 3, 125, 1.493003129959106
0, 3, 126, 2.149010181427002
0, 3, 127, 3.384815692901611
0, 4, 0, 1.052707076072693
0, 4, 1, 1.89496922492981
0, 4, 2, 2.203227758407593
0, 4, 3, 3.849861860275269
0, 4, 4, 1.646007180213928
0, 4, 5, 1.596514701843262
0, 4, 6, 2.457427978515625
0, 4, 7, 3.147134304046631
0, 4, 8, 1.373012185096741
0, 4, 9, 2.230541944503784
0, 4, 10, 5.271555423736572
0, 4, 11, 3.083250761032104
0, 4, 12, 2.877713441848755
0, 4, 13, 4.560237407684326
0, 4, 14, 5.169765472412109
0, 4, 15, 9.266090393066406
0, 4, 16, 6.911273002624512
0, 4, 17, 11.26811695098877
0, 4, 18, 56.54622268676758
0, 4, 19, 152.0032043457031
0, 4, 20, 192.6179046630859
0, 4, 21, 169.8867492675781
0, 4, 22, 187.2208557128906
0, 4, 23, 195.7217254638672
0, 4, 24, 193.1610870361328
0, 4, 25, 200.5468139648438
0, 4, 26, 182.5823822021484
0, 4, 27, 191.0204772949219
0, 4, 28, 178.8346252441406
0, 4, 29, 205.7337493896484
0, 4, 30, 195.3838958740234
0, 4, 31, 191.9219055175781
0, 4, 32, 209.4930419921875
0, 4, 33, 190.7814483642578
0, 4, 34, 192.4702453613281
0, 4, 35, 214.4378509521484
0, 4, 36, 192.9425506591797
0, 4, 37, 177.2959289550781
0, 4, 38, 196.4215698242188
0, 4, 39, 188.9509887695312
0, 4, 40, 186.4889373779297
0, 4, 41, 189.1658325195312
0, 4, 42, 205.9146575927734
0, 4, 43, 173.5414428710938
0, 4, 44, 183.3150329589844
0, 4, 45, 196.2864685058594
0, 4, 46, 186.7945098876953
0, 4, 47, 181.0469207763672
0, 4, 48, 185.7066650390625
0, 4, 49, 174.9390563964844
0, 4, 50, 186.4632873535156
0, 4, 51, 196.3875122070312
0, 4, 52, 222.7830200195312
0, 4, 53, 205.6538696289062
0, 4, 54, 190.6557312011719
0, 4, 55, 174.4743957519531
0, 4, 56, 191.9449157714844
0, 4, 57, 191.6518402099609
0, 4, 58, 188.3389282226562
0, 4, 59, 189.1237945556641
0, 4, 60, 196.6988983154297
0, 4, 61, 193.3236541748047
0, 4, 62, 189.5255889892578
0, 4, 63, 177.9428863525391
0, 4, 64, 213.7001953125
0, 4, 65, 191.6346740722656
0, 4, 66, 200.6923370361328
0, 4, 67, 199.7756042480469
0, 4, 68, 200.6497650146484
0, 4, 69, 199.9342346191406
0, 4, 70, 204.3140563964844
0, 4, 71, 206.7065734863281
0, 4, 72, 214.7560424804688
0, 4, 73, 185.4969329833984
0, 4, 74, 179.2559967041016
0, 4, 75, 184.3147125244141
0, 4, 76, 190.1757507324219
0, 4, 77, 183.9264678955078
0, 4, 78, 195.0243988037109
0, 4, 79, 204.1968078613281
0, 4, 80, 211.1383361816406
0, 4, 81, 198.6930999755859
0, 4, 82, 181.8837280273438
0, 4, 83, 169.7785797119141
0, 4, 84, 193.2345123291016
0, 4, 85, 196.7541046142578
0, 4, 86, 184.8162231445312
0, 4, 87, 183.0641326904297
0, 4, 88, 203.8652191162109
0, 4, 89, 187.4988708496094
0, 4, 90, 211.2698974609375
0, 4, 91, 189.4526062011719
0, 4, 92, 196.3617401123047
0, 4, 93, 195.687744140625
0, 4, 94, 182.0634918212891
0, 4, 95, 174.2539367675781
0, 4, 96, 189.3706665039062
0, 4, 97, 193.9594879150391
0, 4, 98, 200.4192962646484
0, 4, 99, 182.9761810302734
0, 4, 100, 182.6633148193359
0, 4, 101, 179.1683807373047
0, 4, 102, 176.7364807128906
0, 4, 103, 185.3336029052734
0, 4, 104, 210.2099456787109
0, 4, 105, 190.4619140625
0, 4, 106, 179.5513153076172
0, 4, 107, 181.8968048095703
0, 4, 108, 151.1948699951172
0, 4, 109, 48.40621948242188
0, 4, 110, 10.88551139831543
0, 4, 111, 8.431451797485352
0, 4, 112, 7.066643714904785
0, 4, 113, 8.906479835510254
0, 4, 114, 4.856899261474609
0, 4, 115, 5.737210273742676
0, 4, 116, 4.622198104858398
0, 4, 117, 3.140333652496338
0, 4, 118, 4.215356349945068
0, 4, 119, 4.854638576507568
0, 4, 120, 2.930062294006348
0, 4, 121, 1.910297155380249
0, 4, 122, 2.572605609893799
0, 4, 123, 2.055490016937256
0, 4, 124, 3.828607320785522
0, 4, 125, 2.887837409973145
0, 4, 126, 0.5224210619926453
0, 4, 127, 2.089283466339111
0, 5, 0, 2.050522327423096
0, 5, 1, 3.268877506256104
0, 5, 2, 5.757511138916016
0, 5, 3, 3.182442426681519
0, 5, 4, 2.849696397781372
0, 5, 5, 1.496924519538879
0, 5, 6, 2.487499237060547
0, 5, 7, 2.592963933944702
0, 5, 8, 1.704252004623413
0, 5, 9, 2.610555648803711
0, 5, 10, 3.691803693771362
0, 5, 11, 3.987500667572021
0, 5, 12, 3.974811792373657
0, 5, 13, 3.261586904525757
0, 5, 14, 5.864962577819824
0, 5, 15, 8.219719886779785
0, 5, 16, 8.187934875488281
0, 5, 17, 21.51302719116211
0, 5, 18, 81.55258178710938
0, 5, 19, 163.634765625
0, 5, 20, 183.4722595214844
0, 5, 21, 177.7796325683594
0, 5, 22, 171.5009002685547
0, 5, 23, 200.9051513671875
0, 5, 24, 186.5413665771484
0, 5, 25, 209.86376953125
0, 5, 26, 182.2931213378906
0, 5, 27, 194.9540252685547
0, 5, 28, 190.3567504882812
0, 5, 29, 195.9684906005859
0, 5, 30, 178.5787200927734
0, 5, 31, 180.5785217285156
0, 5, 32, 187.0319366455078
0, 5, 33, 170.4611663818359
0, 5, 34, 194.46826171875
0, 5, 35, 198.595703125
0, 5, 36, 168.9216461181641
0, 5, 37, 196.6107635498047
0, 5, 38, 180.9971618652344
0, 5, 39, 187.604736328125
0, 5, 40, 196.4484100341797
0, 5, 41, 177.3984832763672
0, 5, 42, 188.0613098144531
0, 5, 43, 191.88134765625
0, 5, 44, 199.4979095458984
0, 5, 45, 186.2508392333984
0, 5, 46, 192.7983703613281
0, 5, 47, 181.5824127197266
0, 5, 48, 178.1214599609375
0, 5, 49, 177.8359069824219
0, 5, 50, 186.2634582519531
0, 5, 51, 171.6954040527344
0, 5, 52, 168.1419067382812
0, 5, 53, 182.0919494628906
0, 5, 54, 172.3478240966797
0, 5, 55, 215.7958526611328
0, 5, 56, 181.4709625244141
0, 5, 57, 206.6868438720703
0, 5, 58, 184.5851440429688
0, 5, 59, 181.0822296142578
0, 5, 60, 217.9370574951172
0, 5, 61, 184.7610473632812
0, 5, 62, 178.4026184082031
0, 5, 63, 180.3619079589844
0, 5, 64, 193.5272979736328
0, 5, 65, 209.6862487792969
0, 5, 66, 195.0689086914062
0, 5, 67, 200.0306854248047
0, 5, 68, 185.2739562988281
0, 5, 69, 185.0750122070312
0, 5, 70, 184.2869110107422
0, 5, 71, 196.1504821777344
0, 5, 72, 197.8326721191406
0, 5, 73, 201.6920471191406
0, 5, 74, 182.0936737060547
0, 5, 75, 203.8686676025391
0, 5, 76, 214.1269226074219
0, 5, 77, 180.5054779052734
0, 5, 78, 194.2549743652344
0, 5, 79, 189.9707183837891
0, 5, 80, 197.0191040039062
0, 5, 81, 202.5000152587891
0, 5, 82, 201.4344024658203
0, 5, 83, 188.2533111572266
0, 5, 84, 205.7056884765625
0, 5, 85, 177.7032928466797
0, 5, 86, 195.6282653808594
0, 5, 87, 190.2780151367188
0, 5, 88, 176.7809906005859
0, 5, 89, 195.6958770751953
0, 5, 90, 199.9923553466797
0, 5, 91, 194.792724609375
0, 5, 92, 190.8368530273438
0, 5, 93, 192.5345306396484
0, 5, 94, 209.6763916015625
0, 5, 95, 176.9793090820312
0, 5, 96, 182.6368255615234
0, 5, 97, 191.8080444335938
0, 5, 98, 189.2134704589844
0, 5, 99, 193.857666015625
0, 5, 100, 186.8341064453125
0, 5, 101, 197.2315063476562
0, 5, 102, 183.6163635253906
0, 5, 103, 176.8063659667969
0, 5, 104, 189.9142608642578
0, 5, 105, 189.0724182128906
0, 5, 106, 177.951416015625
0, 5, 107, 181.0369720458984
0, 5, 108, 175.1815948486328
0, 5, 109, 89.72037506103516
0, 5, 110, 29.50127601623535
0, 5, 111, 10.05610370635986
0, 5, 112, 8.16423225402832
0, 5, 113, 6.090785980224609
0, 5, 114, 6.180084705352783
0, 5, 115, 6.841775417327881
0, 5, 116, 3.815864086151123
0, 5, 117, 4.138680934906006
0, 5, 118, 4.027770519256592
0, 5, 119, 3.172467470169067
0, 5, 120, 2.377602100372314
0, 5, 121, 0.8169953227043152
0, 5, 122, 2.194902658462524
0, 5, 123, 4.865869045257568
0, 5, 124, 2.760885715484619
0, 5, 125, 1.59551203250885
0, 5, 126, 1.856679081916809
0, 5, 127, 2.154428482055664
0, 6, 0, 3.918776988983154
0, 6, 1, 4.952555656433105
0, 6, 2, 2.739889860153198
0, 6, 3, 1.484709620475769
0, 6, 4, 2.853949069976807
0, 6, 5, 4.657146453857422
0, 6, 6, 3.47042441368103
0, 6, 7, 3.898759126663208
0, 6, 8, 4.437197208404541
0, 6, 9, 2.999243974685669
0, 6, 10, 3.579426527023315
0, 6, 11, 3.617685317993164
0, 6, 12, 5.647582054138184
0, 6, 13, 4.653864860534668
0, 6, 14, 4.879341125488281
0, 6, 15, 6.884925842285156
0, 6, 16, 12.22710418701172
0, 6, 17, 28.65630722045898
0, 6, 18, 112.4757537841797
0, 6, 19, 191.2365570068359
0, 6, 20, 195.7437744140625
0, 6, 21, 198.2129669189453
0, 6, 22, 191.0490264892578
0, 6, 23, 190.2022094726562
0, 6, 24, 200.1533660888672
0, 6, 25, 181.6305999755859
0, 6, 26, 186.5857086181641
0, 6, 27, 193.4725799560547
0, 6, 28, 188.048095703125
0, 6, 29, 211.3644256591797
0, 6, 30, 190.2707061767578
0, 6, 31, 193.6998901367188
0, 6, 32, 206.2479095458984
0, 6, 33, 186.0831604003906
0, 6, 34, 197.7478637695312
0, 6, 35, 186.935546875
0, 6, 36, 181.3734283447266
0, 6, 37, 183.0991058349609
0, 6, 38, 185.5349426269531
0, 6, 39, 194.8848114013672
0, 6, 40, 175.7516479492188
0, 6, 41, 185.1668701171875
0, 6, 42, 174.0669555664062
0, 6, 43, 209.2458190917969
0, 6, 44, 209.0380249023438
0, 6, 45, 194.6205749511719
0, 6, 46, 187.6878051757812
0, 6, 47, 203.9062194824219
0, 6, 48, 189.5959167480469
0, 6, 49, 178.1430511474609
0, 6, 50, 182.3309326171875
0, 6, 51, 197.998779296875
0, 6, 52, 199.4486694335938
0, 6, 53, 185.3292083740234
0, 6, 54, 175.90087890625
0, 6, 55, 194.4697875976562
0, 6, 56, 202.3129425048828
0, 6, 57, 190.5376739501953
0, 6, 58, 179.5548553466797
0, 6, 59, 192.6884613037109
0, 6, 60, 184.2029113769531
0, 6, 61, 194.5859527587891
0, 6, 62, 196.3344879150391
0, 6, 63, 186.4222412109375
0, 6, 64, 169.8267822265625
0, 6, 65, 187.0486450195312
0, 6, 66, 199.0896453857422
0, 6, 67, 213.6817474365234
0, 6, 68, 180.1495666503906
0, 6, 69, 171.5080871582031
0, 6, 70, 187.0328521728516
0, 6, 71, 170.6705780029297
0, 6, 72, 176.8106689453125
0, 6, 73, 176.6408386230469
0, 6, 74, 210.5119476318359
0, 6, 75, 228.6158447265625
0, 6, 76, 183.8917388916016
0, 6, 77, 172.3755035400391
0, 6, 78, 175.2620239257812
0, 6, 79, 186.3453826904297
0, 6, 80, 188.5645446777344
0, 6, 81, 209.7028350830078
0, 6, 82, 195.2799835205078
0, 6, 83, 195.5578765869141
0, 6, 84, 197.1448211669922
0, 6, 85, 180.4437561035156
0, 6, 86, 201.2029266357422
0, 6, 87, 182.8334503173828
0, 6, 88, 192.1241455078125
0, 6, 89, 190.1702880859375
0, 6, 90, 205.6261749267578
0, 6, 91, 199.7672424316406
0, 6, 92, 172.5047149658203
0, 6, 93, 192.7731018066406
0, 6, 94, 190.2247772216797
0, 6, 95, 185.8373107910156
0, 6, 96, 188.9808807373047
0, 6, 97, 194.5008697509766
0, 6, 98, 184.2730255126953
0, 6, 99, 177.2075805664062
0, 6, 100, 201.2055816650391
0, 6, 101, 167.662841796875
0, 6, 102, 202.0157012939453
0, 6, 103, 196.1524810791016
0, 6, 104, 184.3814544677734
0, 6, 105, 193.3809356689453
0, 6, 106, 176.9211730957031
0, 6, 107, 198.2504272460938
0, 6, 108, 173.5037536621094
0, 6, 109, 115.1223602294922
0, 6, 110, 33.59091949462891
0, 6, 111, 9.722633361816406
0, 6, 112, 9.087136268615723
0, 6, 113, 6.643476963043213
0, 6, 114, 6.885299682617188
0, 6, 115, 7.224916934967041
0, 6, 116, 5.725104808807373
0, 6, 117, 4.440816879272461
0, 6, 118, 3.432781934738159
0, 6, 119, 3.901515483856201
0, 6, 120, 1.825498819351196
0, 6, 121, 4.89690113067627
0, 6, 122, 2.055144071578979
0, 6, 123, 2.406610488891602
0, 6, 124, 1.956379532814026
0, 6, 125, 2.363300085067749
0, 6, 126, 1.801367521286011
0, 6, 127, 1.920787453651428
0, 7, 0, 2.457751512527466
0, 7, 1, 1.461268901824951
0, 7, 2, 3.285725593566895
0, 7, 3, 1.970606088638306
0, 7, 4, 3.571998357772827
0, 7, 5, 1.271313071250916
0, 7, 6, 1.969634771347046
0, 7, 7, 1.207590937614441
0, 7, 8, 3.482033252716064
0, 7, 9, 3.403981924057007
0, 7, 10, 5.535973072052002
0, 7, 11, 3.82302188873291
0, 7, 12, 4.294130325317383
0, 7, 13, 7.897794246673584
0, 7, 14, 7.346609115600586
0, 7, 15, 8.691066741943359
0, 7, 16, 15.96962451934814
0, 7, 17, 50.42667770385742
0, 7, 18, 162.146728515625
0, 7, 19, 184.7253723144531
0, 7, 20, 178.4064025878906
0, 7, 21, 179.9185485839844
0, 7, 22, 191.1307525634766
0, 7, 23, 203.1632537841797
0, 7, 24, 179.3147125244141
0, 7, 25, 213.1407318115234
0, 7, 26, 188.4999084472656
0, 7, 27, 181.6763153076172
0, 7, 28, 182.4911956787109
0, 7, 29, 208.6446380615234
0, 7, 30, 193.175048828125
0, 7, 31, 175.5552520751953
0, 7, 32, 190.7923736572266
0, 7, 33, 179.6653289794922
0, 7, 34, 192.9537506103516
0, 7, 35, 196.5647277832031
0, 7, 36, 186.6421966552734
0, 7, 37, 212.5586242675781
0, 7, 38, 191.4812469482422
0, 7, 39, 173.4508972167969
0, 7, 40, 183.5927276611328
0, 7, 41, 185.277099609375
0, 7, 42, 177.5355529785156
0, 7, 43, 179.771728515625
0, 7, 44, 178.7456359863281
0, 7, 45, 174.3613891601562
0, 7, 46, 187.7852325439453
0, 7, 47, 198.3074798583984
0, 7, 48, 186.1144104003906
0, 7, 49, 200.8558197021484
0, 7, 50, 188.0633544921875
0, 7, 51, 204.7984313964844
0, 7, 52, 205.6477966308594
0, 7, 53, 191.3469543457031
0, 7, 54, 195.2811889648438
0, 7, 55, 202.8358154296875
0, 7, 56, 183.0105438232422
0, 7, 57, 181.8069000244141
0, 7, 58, 191.1797943115234
0, 7, 59, 187.4113464355469
0, 7, 60, 201.6837921142578
0, 7, 61, 171.90283203125
0, 7, 62, 203.6115112304688
0, 7, 63, 188.8089141845703
0, 7, 64, 199.6125793457031
0, 7, 65, 195.8293304443359
0, 7, 66, 205.2581939697266
0, 7, 67, 219.4158782958984
0, 7, 68, 162.9575958251953
0, 7, 69, 193.8772430419922
0, 7, 70, 218.158935546875
0, 7, 71, 184.0266265869141
0, 7, 72, 181.4689025878906
0, 7, 73, 177.1026153564453
0, 7, 74, 207.2940826416016
0, 7, 75, 203.9822998046875
0, 7, 76, 216.6714782714844
0, 7, 77, 175.7643585205078
0, 7, 78, 178.4671173095703
0, 7, 79, 192.4688110351562
0, 7, 80, 195.9937591552734
0, 7, 81, 214.8539733886719
0, 7, 82, 185.2623748779297
0, 7, 83, 204.8273315429688
0, 7, 84, 193.0557098388672
0, 7, 85, 185.2971496582031
0, 7, 86, 200.2254028320312
0, 7, 87, 227.3860778808594
0, 7, 88, 194.7701263427734
0, 7, 89, 181.9030303955078
0, 7, 90, 182.2064361572266
0, 7, 91, 193.9325103759766
0, 7, 92, 193.4023742675781
0, 7, 93, 198.0853271484375
0, 7, 94, 179.6197814941406
0, 7, 95, 197.6586151123047
0, 7, 96, 208.4197540283203
0, 7, 97, 188.8980102539062
0, 7, 98, 177.3928527832031
0, 7, 99, 197.0648193359375
0, 7, 100, 181.5798187255859
0, 7, 101, 198.95751953125
0, 7, 102, 185.1338043212891
0, 7, 103, 180.6963806152344
0, 7, 104, 173.8861389160156
0, 7, 105, 196.503173828125
0, 7, 106, 205.2417907714844
0, 7, 107, 174.8210754394531
0, 7, 108, 177.4907379150391
0, 7, 109, 138.3442993164062
0, 7, 110, 54.43264007568359
0, 7, 111, 9.584839820861816
0, 7, 112, 8.021791458129883
0, 7, 113, 8.563218116760254
0, 7, 114, 7.325489044189453
0, 7, 115, 5.02901554107666
0, 7, 116, 4.108791828155518
0, 7, 117, 3.726265907287598
0, 7, 118, 4.257919311523438
0, 7, 119, 3.595644950866699
0, 7, 120, 2.350752830505371
0, 7, 121, 3.053163290023804
0, 7, 122, 5.159199714660645
0, 7, 123, 1.318769216537476
0, 7, 124, 1.534304141998291
0, 7, 125, 1.774777054786682
0, 7, 126, 2.784972906112671
0, 7, 127, 1.807304739952087
0, 8, 0, 4.735355377197266
0, 8, 1, 3.2237708568573
0, 8, 2, 2.924635648727417
0, 8, 3, 3.165196895599365
0, 8, 4, 1.318199872970581
0, 8, 5, 3.116568565368652
0, 8, 6, 2.536463260650635
0, 8, 7, 2.712028980255127
0, 8, 8, 3.40992259979248
0, 8, 9, 5.527588844299316
0, 8, 10, 4.253726005554199
0, 8, 11, 2.271347999572754
0, 8, 12, 3.509129047393799
0, 8, 13, 6.823444366455078
0, 8, 14, 5.757792949676514
0, 8, 15, 8.84461498260498
0, 8, 16, 19.96208953857422
0, 8, 17, 75.94828796386719
0, 8, 18, 141.9861297607422
0, 8, 19, 178.4892883300781
0, 8, 20, 193.9360656738281
0, 8, 21, 194.5382690429688
0, 8, 22, 179.4233703613281
0, 8, 23, 172.9017791748047
0, 8, 24, 192.9433441162109
0, 8, 25, 186.3280181884766
0, 8, 26, 193.6731719970703
0, 8, 27, 186.5867462158203
0, 8, 28, 187.8064270019531
0, 8, 29, 207.8737335205078
0, 8, 30, 197.1533660888672
0, 8, 31, 183.13720703125
0, 8, 32, 197.9947814941406
0, 8, 33, 206.7875823974609
0, 8, 34, 202.4685974121094
0, 8, 35, 185.0943908691406
0, 8, 36, 181.2637634277344
0, 8, 37, 199.4302673339844
