# TOPAS Version: 3.1.p3
# Parameter File: batch_inserts_358.txt
# Results for scorer Readout_Adipose
# Scored in component: MyBox
# X in 1 bin  of 0.65 cm
# Y in 512 bins of 0.0783984 cm
# Z in 128 bins of 0.078125 cm
# EnergyDeposit ( MeV ) : Sum   
0, 0, 0, 1.296640396118164
0, 0, 1, 5.094664573669434
0, 0, 2, 0.8437144160270691
0, 0, 3, 0.9897645115852356
0, 0, 4, 1.320712566375732
0, 0, 5, 2.179030656814575
0, 0, 6, 0.9303023219108582
0, 0, 7, 2.029411792755127
0, 0, 8, 1.35796582698822
0, 0, 9, 2.064427137374878
0, 0, 10, 2.062572479248047
0, 0, 11, 3.599928855895996
0, 0, 12, 6.002682685852051
0, 0, 13, 2.352706670761108
0, 0, 14, 5.034257411956787
0, 0, 15, 5.117973327636719
0, 0, 16, 4.888384342193604
0, 0, 17, 7.062323570251465
0, 0, 18, 8.531620025634766
0, 0, 19, 22.34221267700195
0, 0, 20, 94.40714263916016
0, 0, 21, 153.0154266357422
0, 0, 22, 154.3091430664062
0, 0, 23, 146.5809631347656
0, 0, 24, 160.5400238037109
0, 0, 25, 166.5209197998047
0, 0, 26, 165.9631195068359
0, 0, 27, 173.2685546875
0, 0, 28, 178.1986236572266
0, 0, 29, 175.4870300292969
0, 0, 30, 174.7190399169922
0, 0, 31, 165.9809417724609
0, 0, 32, 164.6818542480469
0, 0, 33, 165.8889465332031
0, 0, 34, 179.1592712402344
0, 0, 35, 173.4411468505859
0, 0, 36, 159.2191467285156
0, 0, 37, 161.66943359375
0, 0, 38, 166.6656036376953
0, 0, 39, 159.4490661621094
0, 0, 40, 164.46142578125
0, 0, 41, 166.0595855712891
0, 0, 42, 143.6309967041016
0, 0, 43, 168.3036804199219
0, 0, 44, 177.4115142822266
0, 0, 45, 172.3658752441406
0, 0, 46, 165.9109954833984
0, 0, 47, 167.3463439941406
0, 0, 48, 168.8078155517578
0, 0, 49, 183.0213317871094
0, 0, 50, 170.0650482177734
0, 0, 51, 162.0362243652344
0, 0, 52, 162.6337890625
0, 0, 53, 171.0387268066406
0, 0, 54, 159.6796417236328
0, 0, 55, 165.1445617675781
0, 0, 56, 188.5559539794922
0, 0, 57, 170.2008972167969
0, 0, 58, 161.4867095947266
0, 0, 59, 172.3408050537109
0, 0, 60, 170.1205596923828
0, 0, 61, 169.6433410644531
0, 0, 62, 182.6186981201172
0, 0, 63, 168.0568084716797
0, 0, 64, 164.2015228271484
0, 0, 65, 176.2175903320312
0, 0, 66, 177.9362945556641
0, 0, 67, 163.3245849609375
0, 0, 68, 158.2511444091797
0, 0, 69, 158.6576690673828
0, 0, 70, 169.6993560791016
0, 0, 71, 158.8213653564453
0, 0, 72, 164.5292816162109
0, 0, 73, 171.9306488037109
0, 0, 74, 161.97705078125
0, 0, 75, 162.9187316894531
0, 0, 76, 163.0157012939453
0, 0, 77, 171.5765838623047
0, 0, 78, 182.0195617675781
0, 0, 79, 174.7610015869141
0, 0, 80, 159.5200958251953
0, 0, 81, 159.7685241699219
0, 0, 82, 182.5973815917969
0, 0, 83, 174.3015899658203
0, 0, 84, 159.8028564453125
0, 0, 85, 181.8575744628906
0, 0, 86, 158.2663421630859
0, 0, 87, 179.5369262695312
0, 0, 88, 177.4610748291016
0, 0, 89, 176.0081329345703
0, 0, 90, 163.7818756103516
0, 0, 91, 184.8286285400391
0, 0, 92, 163.6349487304688
0, 0, 93, 155.6287841796875
0, 0, 94, 168.6311798095703
0, 0, 95, 175.6105499267578
0, 0, 96, 183.3133087158203
0, 0, 97, 183.4263153076172
0, 0, 98, 184.9700469970703
0, 0, 99, 170.5764312744141
0, 0, 100, 159.4332275390625
0, 0, 101, 166.8715057373047
0, 0, 102, 171.3565216064453
0, 0, 103, 170.3769989013672
0, 0, 104, 168.8485260009766
0, 0, 105, 179.1476745605469
0, 0, 106, 160.3377227783203
0, 0, 107, 85.60544586181641
0, 0, 108, 23.7752857208252
0, 0, 109, 8.851154327392578
0, 0, 110, 5.364337921142578
0, 0, 111, 8.775836944580078
0, 0, 112, 3.60735011100769
0, 0, 113, 3.378376722335815
0, 0, 114, 2.544183254241943
0, 0, 115, 4.19488525390625
0, 0, 116, 1.44160258769989
0, 0, 117, 2.096968173980713
0, 0, 118, 3.002585887908936
0, 0, 119, 1.659002184867859
0, 0, 120, 1.558377504348755
0, 0, 121, 3.394968032836914
0, 0, 122, 4.046776294708252
0, 0, 123, 3.543028593063354
0, 0, 124, 2.611701726913452
0, 0, 125, 2.28335428237915
0, 0, 126, 2.903419256210327
0, 0, 127, 1.843382954597473
0, 1, 0, 1.432093858718872
0, 1, 1, 3.841865301132202
0, 1, 2, 3.149722337722778
0, 1, 3, 1.331422328948975
0, 1, 4, 2.211808919906616
0, 1, 5, 2.030622720718384
0, 1, 6, 1.214068174362183
0, 1, 7, 2.628584861755371
0, 1, 8, 2.235538005828857
0, 1, 9, 0.6796658635139465
0, 1, 10, 2.809031248092651
0, 1, 11, 3.470936059951782
0, 1, 12, 2.90270209312439
0, 1, 13, 4.109303951263428
0, 1, 14, 5.17017650604248
0, 1, 15, 6.221869468688965
0, 1, 16, 7.61489200592041
0, 1, 17, 7.28911018371582
0, 1, 18, 12.2646541595459
0, 1, 19, 39.06848907470703
0, 1, 20, 126.9094085693359
0, 1, 21, 178.0927429199219
0, 1, 22, 192.6635894775391
0, 1, 23, 186.0238800048828
0, 1, 24, 180.2867126464844
0, 1, 25, 191.6394958496094
0, 1, 26, 196.9647674560547
0, 1, 27, 185.9425048828125
0, 1, 28, 189.0922393798828
0, 1, 29, 184.1179351806641
0, 1, 30, 178.8771820068359
0, 1, 31, 180.7137756347656
0, 1, 32, 188.2095336914062
0, 1, 33, 189.6955718994141
0, 1, 34, 186.953125
0, 1, 35, 193.5931243896484
0, 1, 36, 205.9765014648438
0, 1, 37, 185.6443481445312
0, 1, 38, 165.2691955566406
0, 1, 39, 171.7139892578125
0, 1, 40, 179.2421875
0, 1, 41, 184.7901763916016
0, 1, 42, 182.0918731689453
0, 1, 43, 185.2016448974609
0, 1, 44, 168.1088256835938
0, 1, 45, 185.9087371826172
0, 1, 46, 172.4709625244141
0, 1, 47, 185.6382141113281
0, 1, 48, 187.1848907470703
0, 1, 49, 186.1479797363281
0, 1, 50, 177.0762023925781
0, 1, 51, 190.8104858398438
0, 1, 52, 195.5990447998047
0, 1, 53, 197.332763671875
0, 1, 54, 184.5657958984375
0, 1, 55, 165.9194793701172
0, 1, 56, 178.6205749511719
0, 1, 57, 178.4768676757812
0, 1, 58, 189.4677276611328
0, 1, 59, 193.2509918212891
0, 1, 60, 187.8479766845703
0, 1, 61, 177.2425231933594
0, 1, 62, 204.1277313232422
0, 1, 63, 174.3066101074219
0, 1, 64, 176.4403533935547
0, 1, 65, 187.0657348632812
0, 1, 66, 204.3555145263672
0, 1, 67, 182.8766174316406
0, 1, 68, 187.2819061279297
0, 1, 69, 189.3719177246094
0, 1, 70, 186.0278167724609
0, 1, 71, 171.0397338867188
0, 1, 72, 188.3838348388672
0, 1, 73, 190.3770294189453
0, 1, 74, 201.8683776855469
0, 1, 75, 185.4397583007812
0, 1, 76, 173.6627807617188
0, 1, 77, 191.9548797607422
0, 1, 78, 187.5175933837891
0, 1, 79, 203.67431640625
0, 1, 80, 185.6636810302734
0, 1, 81, 174.4453582763672
0, 1, 82, 206.0725402832031
0, 1, 83, 212.7488250732422
0, 1, 84, 179.6537475585938
0, 1, 85, 170.60498046875
0, 1, 86, 167.3552703857422
0, 1, 87, 184.3075103759766
0, 1, 88, 173.7611694335938
0, 1, 89, 187.7070922851562
0, 1, 90, 212.5303497314453
0, 1, 91, 180.4738311767578
0, 1, 92, 184.4131011962891
0, 1, 93, 180.7772369384766
0, 1, 94, 184.8036193847656
0, 1, 95, 183.2531433105469
0, 1, 96, 195.3604125976562
0, 1, 97, 182.5542907714844
0, 1, 98, 187.4606781005859
0, 1, 99, 176.4247589111328
0, 1, 100, 172.3835906982422
0, 1, 101, 178.6160125732422
0, 1, 102, 181.6446228027344
0, 1, 103, 173.1882171630859
0, 1, 104, 187.7842559814453
0, 1, 105, 181.4555511474609
0, 1, 106, 164.3531188964844
0, 1, 107, 122.8132400512695
0, 1, 108, 47.08062362670898
0, 1, 109, 10.38173007965088
0, 1, 110, 6.97920036315918
0, 1, 111, 6.742732048034668
0, 1, 112, 7.91779899597168
0, 1, 113, 7.042572498321533
0, 1, 114, 4.816717624664307
0, 1, 115, 3.348313093185425
0, 1, 116, 2.608320713043213
0, 1, 117, 2.008633852005005
0, 1, 118, 3.098581075668335
0, 1, 119, 1.106387615203857
0, 1, 120, 2.936806678771973
0, 1, 121, 4.479671955108643
0, 1, 122, 3.496970415115356
0, 1, 123, 3.867835998535156
0, 1, 124, 2.283073425292969
0, 1, 125, 2.651631593704224
0, 1, 126, 1.503909826278687
0, 1, 127, 1.901664733886719
0, 2, 0, 1.475048422813416
0, 2, 1, 2.664440631866455
0, 2, 2, 2.953963994979858
0, 2, 3, 1.798426508903503
0, 2, 4, 0.9013623595237732
0, 2, 5, 0.8587546944618225
0, 2, 6, 2.905105829238892
0, 2, 7, 1.764669299125671
0, 2, 8, 2.826674461364746
0, 2, 9, 2.423776388168335
0, 2, 10, 3.936664819717407
0, 2, 11, 4.555446624755859
0, 2, 12, 3.216235160827637
0, 2, 13, 3.330392360687256
0, 2, 14, 5.315674304962158
0, 2, 15, 7.345700263977051
0, 2, 16, 7.308481693267822
0, 2, 17, 9.197975158691406
0, 2, 18, 14.55023288726807
0, 2, 19, 77.50499725341797
0, 2, 20, 162.4414520263672
0, 2, 21, 183.4722290039062
0, 2, 22, 194.0318908691406
0, 2, 23, 184.2322998046875
0, 2, 24, 173.1428527832031
0, 2, 25, 183.9651184082031
0, 2, 26, 179.5707397460938
0, 2, 27, 189.694091796875
0, 2, 28, 172.1359252929688
0, 2, 29, 169.1572418212891
0, 2, 30, 183.8226318359375
0, 2, 31, 182.8445739746094
0, 2, 32, 183.5058441162109
0, 2, 33, 191.4990081787109
0, 2, 34, 197.3769073486328
0, 2, 35, 181.7958374023438
0, 2, 36, 185.7022552490234
0, 2, 37, 180.8425445556641
0, 2, 38, 186.1117858886719
0, 2, 39, 167.8409576416016
0, 2, 40, 185.1214294433594
0, 2, 41, 183.9273834228516
0, 2, 42, 189.2041778564453
0, 2, 43, 193.5521850585938
0, 2, 44, 191.5452880859375
0, 2, 45, 190.2367248535156
0, 2, 46, 195.7352752685547
0, 2, 47, 189.8092346191406
0, 2, 48, 178.4772491455078
0, 2, 49, 197.1257171630859
0, 2, 50, 170.6084442138672
0, 2, 51, 184.4024200439453
0, 2, 52, 186.280029296875
0, 2, 53, 195.4810791015625
0, 2, 54, 177.6154327392578
0, 2, 55, 173.4408111572266
0, 2, 56, 181.0717010498047
0, 2, 57, 200.3834838867188
0, 2, 58, 186.2768096923828
0, 2, 59, 189.5269165039062
0, 2, 60, 197.0046997070312
0, 2, 61, 193.0068054199219
0, 2, 62, 191.8681335449219
0, 2, 63, 169.9619293212891
0, 2, 64, 190.2754211425781
0, 2, 65, 203.9811859130859
0, 2, 66, 196.8390960693359
0, 2, 67, 186.7454223632812
0, 2, 68, 182.4112243652344
0, 2, 69, 188.4145660400391
0, 2, 70, 203.1529693603516
0, 2, 71, 176.3724212646484
0, 2, 72, 185.6915893554688
0, 2, 73, 177.3808288574219
0, 2, 74, 179.9802093505859
0, 2, 75, 195.8950500488281
0, 2, 76, 185.3928527832031
0, 2, 77, 177.0485076904297
0, 2, 78, 200.4673461914062
0, 2, 79, 177.6072845458984
0, 2, 80, 186.9047088623047
0, 2, 81, 189.4023895263672
0, 2, 82, 204.8540496826172
0, 2, 83, 205.3402862548828
0, 2, 84, 188.1214447021484
0, 2, 85, 170.7527160644531
0, 2, 86, 195.0140533447266
0, 2, 87, 171.7211608886719
0, 2, 88, 177.1336669921875
0, 2, 89, 184.0826873779297
0, 2, 90, 178.0078125
0, 2, 91, 173.7386932373047
0, 2, 92, 196.2881317138672
0, 2, 93, 192.8074951171875
0, 2, 94, 199.3896484375
0, 2, 95, 193.3137664794922
0, 2, 96, 188.5081176757812
0, 2, 97, 172.3021545410156
0, 2, 98, 173.8429718017578
0, 2, 99, 163.9032897949219
0, 2, 100, 187.5140686035156
0, 2, 101, 196.6715698242188
0, 2, 102, 175.9765625
0, 2, 103, 199.4968566894531
0, 2, 104, 187.7758636474609
0, 2, 105, 199.8119506835938
0, 2, 106, 194.0647277832031
0, 2, 107, 149.7815856933594
0, 2, 108, 78.69487762451172
0, 2, 109, 17.76238441467285
0, 2, 110, 7.087621688842773
0, 2, 111, 7.295646190643311
0, 2, 112, 3.389343738555908
0, 2, 113, 5.56458568572998
0, 2, 114, 7.373531818389893
0, 2, 115, 2.700626373291016
0, 2, 116, 1.497642874717712
0, 2, 117, 2.849440097808838
0, 2, 118, 4.094723701477051
0, 2, 119, 2.584757804870605
0, 2, 120, 1.328043103218079
0, 2, 121, 2.962769985198975
0, 2, 122, 0.9023175835609436
0, 2, 123, 1.868903756141663
0, 2, 124, 2.807238817214966
0, 2, 125, 1.893396496772766
0, 2, 126, 2.644201040267944
0, 2, 127, 3.748584747314453
0, 3, 0, 1.479977488517761
0, 3, 1, 1.997598767280579
0, 3, 2, 1.707235813140869
0, 3, 3, 0.6106545329093933
0, 3, 4, 4.056903839111328
0, 3, 5, 2.264046430587769
0, 3, 6, 1.216205239295959
0, 3, 7, 1.342037439346313
0, 3, 8, 2.628731727600098
0, 3, 9, 2.736285924911499
0, 3, 10, 2.36544394493103
0, 3, 11, 5.571724891662598
0, 3, 12, 3.015220880508423
0, 3, 13, 3.485996246337891
0, 3, 14, 4.07527494430542
0, 3, 15, 5.579075336456299
0, 3, 16, 7.314419746398926
0, 3, 17, 6.845694065093994
0, 3, 18, 33.57217025756836
0, 3, 19, 114.792724609375
0, 3, 20, 180.1354064941406
0, 3, 21, 172.1275634765625
0, 3, 22, 178.0263519287109
0, 3, 23, 187.19970703125
0, 3, 24, 178.4453277587891
0, 3, 25, 167.9315643310547
0, 3, 26, 180.7067565917969
0, 3, 27, 190.1681976318359
0, 3, 28, 181.9719848632812
0, 3, 29, 197.1139526367188
0, 3, 30, 185.6085662841797
0, 3, 31, 193.4035797119141
0, 3, 32, 206.1867523193359
0, 3, 33, 196.7886810302734
0, 3, 34, 187.5554351806641
0, 3, 35, 174.6551666259766
0, 3, 36, 185.8694000244141
0, 3, 37, 200.5223999023438
0, 3, 38, 191.0592041015625
0, 3, 39, 183.7139739990234
0, 3, 40, 166.0089721679688
0, 3, 41, 173.9242553710938
0, 3, 42, 185.4131927490234
0, 3, 43, 182.7809448242188
0, 3, 44, 203.2816925048828
0, 3, 45, 207.2726287841797
0, 3, 46, 198.2756652832031
0, 3, 47, 196.1627349853516
0, 3, 48, 196.7711029052734
0, 3, 49, 180.1013488769531
0, 3, 50, 187.7564544677734
0, 3, 51, 173.4305725097656
0, 3, 52, 187.4043884277344
0, 3, 53, 178.5034484863281
0, 3, 54, 179.4150848388672
0, 3, 55, 176.7017669677734
0, 3, 56, 181.6557769775391
0, 3, 57, 175.1576690673828
0, 3, 58, 200.7215118408203
0, 3, 59, 196.4402618408203
0, 3, 60, 185.9626312255859
0, 3, 61, 180.7651824951172
0, 3, 62, 182.0660552978516
0, 3, 63, 184.7978057861328
0, 3, 64, 187.0774688720703
0, 3, 65, 188.2741851806641
0, 3, 66, 176.3474731445312
0, 3, 67, 190.3558807373047
0, 3, 68, 211.2145233154297
0, 3, 69, 189.5641479492188
0, 3, 70, 185.1632995605469
0, 3, 71, 197.0776824951172
0, 3, 72, 186.3833618164062
0, 3, 73, 186.7018737792969
0, 3, 74, 194.0979156494141
0, 3, 75, 193.8827056884766
0, 3, 76, 191.00732421875
0, 3, 77, 197.7931518554688
0, 3, 78, 189.3156280517578
0, 3, 79, 184.3820343017578
0, 3, 80, 188.9764709472656
0, 3, 81, 183.6293640136719
0, 3, 82, 179.1526489257812
0, 3, 83, 194.1862335205078
0, 3, 84, 199.0194244384766
0, 3, 85, 191.8808135986328
0, 3, 86, 203.6898803710938
0, 3, 87, 200.2074432373047
0, 3, 88, 192.7887268066406
0, 3, 89, 193.5924987792969
0, 3, 90, 174.6145782470703
0, 3, 91, 158.2342681884766
0, 3, 92, 207.0159912109375
0, 3, 93, 196.1168670654297
0, 3, 94, 192.2049102783203
0, 3, 95, 211.8208465576172
0, 3, 96, 208.1232604980469
0, 3, 97, 168.5464172363281
0, 3, 98, 169.4335479736328
0, 3, 99, 179.5687103271484
0, 3, 100, 177.3044281005859
0, 3, 101, 197.5961456298828
0, 3, 102, 194.6519927978516
0, 3, 103, 193.2118682861328
0, 3, 104, 202.2518005371094
0, 3, 105, 175.1392364501953
0, 3, 106, 182.1841125488281
0, 3, 107, 170.8840179443359
0, 3, 108, 107.674072265625
0, 3, 109, 28.53034400939941
0, 3, 110, 7.210058689117432
0, 3, 111, 7.174791812896729
0, 3, 112, 3.530173301696777
0, 3, 113, 7.085904121398926
0, 3, 114, 4.569260597229004
0, 3, 115, 4.534830093383789
0, 3, 116, 6.388284683227539
0, 3, 117, 5.046469688415527
0, 3, 118, 2.187379360198975
0, 3, 119, 3.386222839355469
0, 3, 120, 3.710595369338989
0, 3, 121, 2.83491325378418
0, 3, 122, 2.308254241943359
0, 3, 123, 1.26556396484375
0, 3, 124, 2.011794090270996
0, 3, 125, 1.843694448471069
0, 3, 126, 1.260457277297974
0, 3, 127, 1.990934491157532
0, 4, 0, 0.8439004421234131
0, 4, 1, 1.31192672252655
0, 4, 2, 3.368622303009033
0, 4, 3, 4.288370132446289
0, 4, 4, 4.036652565002441
0, 4, 5, 0.8539690375328064
0, 4, 6, 3.034953594207764
0, 4, 7, 2.546384572982788
0, 4, 8, 1.765526056289673
0, 4, 9, 1.727861404418945
0, 4, 10, 3.217820882797241
0, 4, 11, 2.541387796401978
0, 4, 12, 3.456047058105469
0, 4, 13, 3.866380453109741
0, 4, 14, 5.954843521118164
0, 4, 15, 9.594142913818359
0, 4, 16, 6.330773830413818
0, 4, 17, 11.60617923736572
0, 4, 18, 55.38155364990234
0, 4, 19, 152.775390625
0, 4, 20, 192.9167175292969
0, 4, 21, 169.2328491210938
0, 4, 22, 187.7811737060547
0, 4, 23, 196.8764953613281
0, 4, 24, 193.3780670166016
0, 4, 25, 200.8413543701172
0, 4, 26, 182.4566192626953
0, 4, 27, 191.2189788818359
0, 4, 28, 178.3616027832031
0, 4, 29, 205.3055572509766
0, 4, 30, 194.7752838134766
0, 4, 31, 192.6090393066406
0, 4, 32, 209.7350158691406
0, 4, 33, 189.5512390136719
0, 4, 34, 192.0444793701172
0, 4, 35, 213.7979125976562
0, 4, 36, 192.8563537597656
0, 4, 37, 176.6262817382812
0, 4, 38, 195.5862884521484
0, 4, 39, 189.0686798095703
0, 4, 40, 185.3663024902344
0, 4, 41, 190.3083343505859
0, 4, 42, 207.7237396240234
0, 4, 43, 173.7239532470703
0, 4, 44, 183.1927490234375
0, 4, 45, 196.0027008056641
0, 4, 46, 185.8076019287109
0, 4, 47, 179.8863983154297
0, 4, 48, 185.6266937255859
0, 4, 49, 174.9530181884766
0, 4, 50, 186.5340118408203
0, 4, 51, 197.5568695068359
0, 4, 52, 223.4523773193359
0, 4, 53, 206.0560760498047
0, 4, 54, 190.1659545898438
0, 4, 55, 174.8434906005859
0, 4, 56, 191.4148712158203
0, 4, 57, 190.80859375
0, 4, 58, 187.0785522460938
0, 4, 59, 190.3542938232422
0, 4, 60, 195.8215789794922
0, 4, 61, 193.7729949951172
0, 4, 62, 191.3205108642578
0, 4, 63, 179.2295074462891
0, 4, 64, 211.3389434814453
0, 4, 65, 192.5122222900391
0, 4, 66, 200.857666015625
0, 4, 67, 201.2111663818359
0, 4, 68, 201.2387847900391
0, 4, 69, 200.2386932373047
0, 4, 70, 206.5543212890625
0, 4, 71, 209.1785125732422
0, 4, 72, 214.7057495117188
0, 4, 73, 185.8813629150391
0, 4, 74, 180.5098724365234
0, 4, 75, 185.7363433837891
0, 4, 76, 189.3694000244141
0, 4, 77, 182.8551788330078
0, 4, 78, 196.0477752685547
0, 4, 79, 203.8142242431641
0, 4, 80, 211.0740814208984
0, 4, 81, 197.6962127685547
0, 4, 82, 183.2723999023438
0, 4, 83, 169.9991302490234
0, 4, 84, 192.8927612304688
0, 4, 85, 197.8113861083984
0, 4, 86, 183.0062408447266
0, 4, 87, 183.1941223144531
0, 4, 88, 203.6241455078125
0, 4, 89, 187.6016845703125
0, 4, 90, 211.7481079101562
0, 4, 91, 188.8280181884766
0, 4, 92, 196.4153289794922
0, 4, 93, 195.0568389892578
0, 4, 94, 181.7145385742188
0, 4, 95, 173.0871734619141
0, 4, 96, 189.4590301513672
0, 4, 97, 195.7798004150391
0, 4, 98, 200.7876129150391
0, 4, 99, 183.5665740966797
0, 4, 100, 182.5177917480469
0, 4, 101, 176.7324371337891
0, 4, 102, 173.6903686523438
0, 4, 103, 185.9751892089844
0, 4, 104, 209.1126861572266
0, 4, 105, 190.7232818603516
0, 4, 106, 179.0360870361328
0, 4, 107, 181.0662994384766
0, 4, 108, 151.1240234375
0, 4, 109, 48.95710754394531
0, 4, 110, 11.81667900085449
0, 4, 111, 8.753055572509766
0, 4, 112, 6.193079948425293
0, 4, 113, 8.093417167663574
0, 4, 114, 4.958733558654785
0, 4, 115, 3.743774890899658
0, 4, 116, 4.603581428527832
0, 4, 117, 2.358081817626953
0, 4, 118, 3.034582376480103
0, 4, 119, 3.404038429260254
0, 4, 120, 3.479514360427856
0, 4, 121, 2.096378803253174
0, 4, 122, 3.733495235443115
0, 4, 123, 1.555543303489685
0, 4, 124, 3.269605875015259
0, 4, 125, 2.966103315353394
0, 4, 126, 1.330413341522217
0, 4, 127, 1.305346727371216
0, 5, 0, 2.580399990081787
0, 5, 1, 2.581135272979736
0, 5, 2, 6.09765100479126
0, 5, 3, 3.871026992797852
0, 5, 4, 1.803754091262817
0, 5, 5, 2.889073133468628
0, 5, 6, 2.270217895507812
0, 5, 7, 2.853840351104736
0, 5, 8, 2.061864376068115
0, 5, 9, 2.828739881515503
0, 5, 10, 3.908475875854492
0, 5, 11, 4.0800461769104
0, 5, 12, 4.323750972747803
0, 5, 13, 3.434895992279053
0, 5, 14, 5.036472320556641
0, 5, 15, 8.162415504455566
0, 5, 16, 6.944936752319336
0, 5, 17, 22.52865982055664
0, 5, 18, 83.12908935546875
0, 5, 19, 164.9312591552734
0, 5, 20, 183.4946136474609
0, 5, 21, 177.4077606201172
0, 5, 22, 171.0508117675781
0, 5, 23, 201.0171661376953
0, 5, 24, 187.6325073242188
0, 5, 25, 208.8778686523438
0, 5, 26, 182.9248657226562
0, 5, 27, 194.1035614013672
0, 5, 28, 189.6122741699219
0, 5, 29, 195.3771667480469
0, 5, 30, 180.3106689453125
0, 5, 31, 181.8248748779297
0, 5, 32, 187.3661041259766
0, 5, 33, 169.4800872802734
0, 5, 34, 194.9145202636719
0, 5, 35, 198.7595977783203
0, 5, 36, 168.1315155029297
0, 5, 37, 197.2964019775391
0, 5, 38, 181.2259521484375
0, 5, 39, 186.093994140625
0, 5, 40, 196.8342132568359
0, 5, 41, 177.3647155761719
0, 5, 42, 187.6131591796875
0, 5, 43, 193.0677947998047
0, 5, 44, 200.6746978759766
0, 5, 45, 185.6826629638672
0, 5, 46, 192.6648254394531
0, 5, 47, 182.1616973876953
0, 5, 48, 178.0698852539062
0, 5, 49, 179.1851043701172
0, 5, 50, 187.2489929199219
0, 5, 51, 171.6112823486328
0, 5, 52, 167.7383117675781
0, 5, 53, 181.2025299072266
0, 5, 54, 174.4673461914062
0, 5, 55, 215.2644348144531
0, 5, 56, 181.2698516845703
0, 5, 57, 207.4646911621094
0, 5, 58, 182.484619140625
0, 5, 59, 180.7251892089844
0, 5, 60, 217.6988067626953
0, 5, 61, 184.5675964355469
0, 5, 62, 178.3795776367188
0, 5, 63, 181.6270599365234
0, 5, 64, 195.9450378417969
0, 5, 65, 210.3807525634766
0, 5, 66, 192.0458221435547
0, 5, 67, 198.9954528808594
0, 5, 68, 185.5305938720703
0, 5, 69, 187.9012603759766
0, 5, 70, 185.0292053222656
0, 5, 71, 192.733154296875
0, 5, 72, 197.7198791503906
0, 5, 73, 201.3865661621094
0, 5, 74, 179.7210998535156
0, 5, 75, 203.9725799560547
0, 5, 76, 214.0146331787109
0, 5, 77, 180.7941131591797
0, 5, 78, 194.4071044921875
0, 5, 79, 189.9914093017578
0, 5, 80, 197.3427886962891
0, 5, 81, 202.98681640625
0, 5, 82, 202.4205017089844
0, 5, 83, 188.4774627685547
0, 5, 84, 207.0321197509766
0, 5, 85, 178.0115509033203
0, 5, 86, 194.4066009521484
0, 5, 87, 187.4134216308594
0, 5, 88, 176.7164764404297
0, 5, 89, 194.2501373291016
0, 5, 90, 199.6913909912109
0, 5, 91, 194.1308898925781
0, 5, 92, 189.9130706787109
0, 5, 93, 188.9180450439453
0, 5, 94, 207.9163970947266
0, 5, 95, 178.4548950195312
0, 5, 96, 181.8990783691406
0, 5, 97, 191.3068695068359
0, 5, 98, 189.8642425537109
0, 5, 99, 194.446044921875
0, 5, 100, 186.4566955566406
0, 5, 101, 196.2852630615234
0, 5, 102, 182.4000091552734
0, 5, 103, 176.4488525390625
0, 5, 104, 190.4039459228516
0, 5, 105, 191.2268981933594
0, 5, 106, 177.8600463867188
0, 5, 107, 181.8776702880859
0, 5, 108, 177.2510986328125
0, 5, 109, 90.22271728515625
0, 5, 110, 30.4752368927002
0, 5, 111, 10.58602619171143
0, 5, 112, 6.070266723632812
0, 5, 113, 7.535361289978027
0, 5, 114, 6.493133544921875
0, 5, 115, 6.451156616210938
0, 5, 116, 3.644872665405273
0, 5, 117, 3.672579526901245
0, 5, 118, 5.76121187210083
0, 5, 119, 2.668727159500122
0, 5, 120, 2.542549848556519
0, 5, 121, 1.832132458686829
0, 5, 122, 3.318373680114746
0, 5, 123, 6.116534233093262
0, 5, 124, 2.318468332290649
0, 5, 125, 1.135079741477966
0, 5, 126, 1.065790891647339
0, 5, 127, 2.151721715927124
0, 6, 0, 4.137741565704346
0, 6, 1, 2.575289249420166
0, 6, 2, 6.34188985824585
0, 6, 3, 1.338111281394958
0, 6, 4, 3.32813572883606
0, 6, 5, 2.380316734313965
0, 6, 6, 2.075210809707642
0, 6, 7, 4.092649936676025
0, 6, 8, 4.333683013916016
0, 6, 9, 2.88693904876709
0, 6, 10, 4.538869857788086
0, 6, 11, 3.852015972137451
0, 6, 12, 5.547299861907959
0, 6, 13, 4.729700565338135
0, 6, 14, 5.949278354644775
0, 6, 15, 6.513046264648438
0, 6, 16, 14.5899543762207
0, 6, 17, 28.83196830749512
0, 6, 18, 112.4837036132812
0, 6, 19, 191.5941925048828
0, 6, 20, 195.1208190917969
0, 6, 21, 198.3739471435547
0, 6, 22, 189.87109375
0, 6, 23, 189.9491119384766
0, 6, 24, 200.7306823730469
0, 6, 25, 180.7313232421875
0, 6, 26, 188.8951110839844
0, 6, 27, 192.0771026611328
0, 6, 28, 188.3083801269531
0, 6, 29, 210.444091796875
0, 6, 30, 190.1703796386719
0, 6, 31, 194.3896789550781
0, 6, 32, 206.1324768066406
0, 6, 33, 184.6971282958984
0, 6, 34, 196.9833984375
0, 6, 35, 188.0687561035156
0, 6, 36, 181.0958404541016
0, 6, 37, 182.7200775146484
0, 6, 38, 185.5640563964844
0, 6, 39, 194.6152191162109
0, 6, 40, 173.0216674804688
0, 6, 41, 185.6881103515625
0, 6, 42, 174.2969360351562
0, 6, 43, 209.0290374755859
0, 6, 44, 209.4849548339844
0, 6, 45, 192.8597564697266
0, 6, 46, 187.7206726074219
0, 6, 47, 208.5622253417969
0, 6, 48, 189.0742645263672
0, 6, 49, 178.7411041259766
0, 6, 50, 182.0430755615234
0, 6, 51, 195.6757202148438
0, 6, 52, 197.6922149658203
0, 6, 53, 184.8861694335938
0, 6, 54, 178.2503051757812
0, 6, 55, 195.1894683837891
0, 6, 56, 204.6310424804688
0, 6, 57, 191.4755859375
0, 6, 58, 179.5147552490234
0, 6, 59, 192.0254211425781
0, 6, 60, 185.2498321533203
0, 6, 61, 194.4352111816406
0, 6, 62, 196.4902801513672
0, 6, 63, 188.2597198486328
0, 6, 64, 167.8292083740234
0, 6, 65, 185.7442169189453
0, 6, 66, 198.2614288330078
0, 6, 67, 213.4844970703125
0, 6, 68, 180.9920196533203
0, 6, 69, 170.2632293701172
0, 6, 70, 187.5145111083984
0, 6, 71, 171.6731109619141
0, 6, 72, 176.6467437744141
0, 6, 73, 176.5172576904297
0, 6, 74, 210.1676330566406
0, 6, 75, 229.0158081054688
0, 6, 76, 184.6850280761719
0, 6, 77, 172.1416168212891
0, 6, 78, 175.3093109130859
0, 6, 79, 186.7311096191406
0, 6, 80, 188.3421325683594
0, 6, 81, 209.5242004394531
0, 6, 82, 195.2978057861328
0, 6, 83, 196.0767517089844
0, 6, 84, 197.1893005371094
0, 6, 85, 180.9642181396484
0, 6, 86, 200.6833038330078
0, 6, 87, 183.8516235351562
0, 6, 88, 192.6395416259766
0, 6, 89, 190.0436553955078
0, 6, 90, 206.6006164550781
0, 6, 91, 199.6833343505859
0, 6, 92, 172.5165100097656
0, 6, 93, 192.5554351806641
0, 6, 94, 190.2744445800781
0, 6, 95, 185.4077453613281
0, 6, 96, 190.9997406005859
0, 6, 97, 194.8565826416016
0, 6, 98, 183.3460540771484
0, 6, 99, 174.4787445068359
0, 6, 100, 201.4897003173828
0, 6, 101, 167.7281036376953
0, 6, 102, 201.5959320068359
0, 6, 103, 195.517578125
0, 6, 104, 185.2209930419922
0, 6, 105, 193.5658111572266
0, 6, 106, 177.1370239257812
0, 6, 107, 194.1607818603516
0, 6, 108, 169.9128112792969
0, 6, 109, 115.030517578125
0, 6, 110, 35.61339950561523
0, 6, 111, 9.427206993103027
0, 6, 112, 8.699581146240234
0, 6, 113, 5.421026229858398
0, 6, 114, 4.721410751342773
0, 6, 115, 5.146026611328125
0, 6, 116, 3.753113269805908
0, 6, 117, 2.913718938827515
0, 6, 118, 3.334217548370361
0, 6, 119, 4.19525146484375
0, 6, 120, 1.45019805431366
0, 6, 121, 4.695075988769531
0, 6, 122, 3.945399284362793
0, 6, 123, 2.255825757980347
0, 6, 124, 1.712309122085571
0, 6, 125, 3.630871772766113
0, 6, 126, 1.076016664505005
0, 6, 127, 1.966832995414734
0, 7, 0, 3.498472452163696
0, 7, 1, 1.334973335266113
0, 7, 2, 3.041497945785522
0, 7, 3, 1.95837926864624
0, 7, 4, 1.008304357528687
0, 7, 5, 2.30787181854248
0, 7, 6, 1.924869537353516
0, 7, 7, 1.603057026863098
0, 7, 8, 4.390734195709229
0, 7, 9, 2.917447328567505
0, 7, 10, 5.269974708557129
0, 7, 11, 2.779841899871826
0, 7, 12, 3.850258588790894
0, 7, 13, 6.215060710906982
0, 7, 14, 7.195783615112305
0, 7, 15, 7.089996814727783
0, 7, 16, 15.76240825653076
0, 7, 17, 49.57721710205078
0, 7, 18, 161.3598175048828
0, 7, 19, 182.8232116699219
0, 7, 20, 178.6263275146484
0, 7, 21, 179.0325469970703
0, 7, 22, 191.8222045898438
0, 7, 23, 203.3166809082031
0, 7, 24, 179.5997619628906
0, 7, 25, 212.0847015380859
0, 7, 26, 188.9922027587891
0, 7, 27, 181.7167358398438
0, 7, 28, 183.5725708007812
0, 7, 29, 209.4174652099609
0, 7, 30, 193.1731872558594
0, 7, 31, 175.8299102783203
0, 7, 32, 190.0553283691406
0, 7, 33, 178.9565582275391
0, 7, 34, 196.7170715332031
0, 7, 35, 196.1392059326172
0, 7, 36, 186.2879028320312
0, 7, 37, 212.517578125
0, 7, 38, 190.0864105224609
0, 7, 39, 172.880615234375
0, 7, 40, 183.5102386474609
0, 7, 41, 184.724609375
0, 7, 42, 177.4789276123047
0, 7, 43, 176.0899658203125
0, 7, 44, 178.6473846435547
0, 7, 45, 174.1454315185547
0, 7, 46, 190.5595855712891
0, 7, 47, 198.7281188964844
0, 7, 48, 184.7995300292969
0, 7, 49, 198.56201171875
0, 7, 50, 189.2073211669922
0, 7, 51, 205.2088623046875
0, 7, 52, 204.4800415039062
0, 7, 53, 190.7562408447266
0, 7, 54, 195.6151275634766
0, 7, 55, 202.5222320556641
0, 7, 56, 183.4706115722656
0, 7, 57, 183.4086608886719
0, 7, 58, 191.3644256591797
0, 7, 59, 188.3675537109375
0, 7, 60, 202.2823944091797
0, 7, 61, 170.9009704589844
0, 7, 62, 203.7415771484375
0, 7, 63, 188.898681640625
0, 7, 64, 199.2124938964844
0, 7, 65, 195.5341796875
0, 7, 66, 205.2322540283203
0, 7, 67, 222.7397613525391
0, 7, 68, 164.1779022216797
0, 7, 69, 194.3966369628906
0, 7, 70, 217.9431762695312
0, 7, 71, 183.7681579589844
0, 7, 72, 180.0148315429688
0, 7, 73, 178.7564697265625
0, 7, 74, 207.2684326171875
0, 7, 75, 204.3753509521484
0, 7, 76, 214.1131439208984
0, 7, 77, 174.5699615478516
0, 7, 78, 178.2483367919922
0, 7, 79, 194.1229553222656
0, 7, 80, 194.7884521484375
0, 7, 81, 214.8349609375
0, 7, 82, 184.6457366943359
0, 7, 83, 205.6875762939453
0, 7, 84, 191.6050567626953
0, 7, 85, 185.1191253662109
0, 7, 86, 200.1507263183594
0, 7, 87, 227.8164520263672
0, 7, 88, 194.5723571777344
0, 7, 89, 176.7453918457031
0, 7, 90, 182.3096771240234
0, 7, 91, 195.8940734863281
0, 7, 92, 195.7701873779297
0, 7, 93, 198.88330078125
0, 7, 94, 179.2015838623047
0, 7, 95, 197.5333099365234
0, 7, 96, 208.3797760009766
0, 7, 97, 188.3664093017578
0, 7, 98, 177.8502807617188
0, 7, 99, 196.3404388427734
0, 7, 100, 182.5108947753906
0, 7, 101, 198.8870086669922
0, 7, 102, 185.9486999511719
0, 7, 103, 182.4744567871094
0, 7, 104, 174.7124633789062
0, 7, 105, 195.48095703125
0, 7, 106, 205.3983154296875
0, 7, 107, 173.13330078125
0, 7, 108, 176.777587890625
0, 7, 109, 140.9049377441406
0, 7, 110, 56.09978485107422
0, 7, 111, 10.18787002563477
0, 7, 112, 7.639639377593994
0, 7, 113, 9.020034790039062
0, 7, 114, 7.804557800292969
0, 7, 115, 5.165893077850342
0, 7, 116, 4.057968139648438
0, 7, 117, 2.307154178619385
0, 7, 118, 4.098701477050781
0, 7, 119, 3.329108238220215
0, 7, 120, 4.861987590789795
0, 7, 121, 4.370265483856201
0, 7, 122, 1.821971654891968
0, 7, 123, 1.326086282730103
0, 7, 124, 1.852094531059265
0, 7, 125, 2.754484176635742
0, 7, 126, 3.115545272827148
0, 7, 127, 0.8002709746360779
0, 8, 0, 5.072876930236816
0, 8, 1, 1.886585831642151
0, 8, 2, 2.561511039733887
0, 8, 3, 1.776440978050232
0, 8, 4, 1.194234490394592
0, 8, 5, 5.295137405395508
0, 8, 6, 3.366548538208008
0, 8, 7, 2.325811862945557
0, 8, 8, 2.160144567489624
0, 8, 9, 7.533309936523438
0, 8, 10, 2.843933820724487
0, 8, 11, 4.114791393280029
0, 8, 12, 4.423258304595947
0, 8, 13, 5.317133903503418
0, 8, 14, 7.227671146392822
0, 8, 15, 9.153079032897949
0, 8, 16, 21.1379508972168
0, 8, 17, 77.60597991943359
0, 8, 18, 142.5018157958984
0, 8, 19, 179.5562286376953
0, 8, 20, 194.503662109375
0, 8, 21, 192.9759216308594
0, 8, 22, 181.82666015625
0, 8, 23, 172.5365753173828
0, 8, 24, 192.995361328125
0, 8, 25, 185.9802551269531
0, 8, 26, 192.8604888916016
0, 8, 27, 185.8251037597656
0, 8, 28, 186.6670532226562
0, 8, 29, 207.5573425292969
0, 8, 30, 196.5458526611328
0, 8, 31, 183.7977905273438
0, 8, 32, 198.1265411376953
0, 8, 33, 207.2672424316406
0, 8, 34, 202.9352722167969
0, 8, 35, 184.4884490966797
0, 8, 36, 182.1379699707031
0, 8, 37, 199.6077117919922
