# TOPAS Version: 3.1.p3
# Parameter File: batch_inserts_268.txt
# Results for scorer Readout_Adipose
# Scored in component: MyBox
# X in 1 bin  of 0.65 cm
# Y in 512 bins of 0.0783984 cm
# Z in 128 bins of 0.078125 cm
# EnergyDeposit ( MeV ) : Sum   
0, 0, 0, 1.775754928588867
0, 0, 1, 3.774843692779541
0, 0, 2, 1.169950842857361
0, 0, 3, 0.3102118968963623
0, 0, 4, 1.033453583717346
0, 0, 5, 1.441237807273865
0, 0, 6, 1.143258094787598
0, 0, 7, 2.287537813186646
0, 0, 8, 2.620627403259277
0, 0, 9, 2.59171724319458
0, 0, 10, 2.929730415344238
0, 0, 11, 3.404500484466553
0, 0, 12, 3.588930368423462
0, 0, 13, 2.458855390548706
0, 0, 14, 4.811060905456543
0, 0, 15, 5.282673835754395
0, 0, 16, 3.686389684677124
0, 0, 17, 6.804920196533203
0, 0, 18, 8.08477783203125
0, 0, 19, 24.11816596984863
0, 0, 20, 94.71981811523438
0, 0, 21, 153.4958801269531
0, 0, 22, 153.9630889892578
0, 0, 23, 143.9399871826172
0, 0, 24, 160.4037933349609
0, 0, 25, 166.5138244628906
0, 0, 26, 166.42919921875
0, 0, 27, 173.892578125
0, 0, 28, 178.0583801269531
0, 0, 29, 174.3264617919922
0, 0, 30, 173.573486328125
0, 0, 31, 166.5240936279297
0, 0, 32, 164.4896240234375
0, 0, 33, 167.1774749755859
0, 0, 34, 177.3192749023438
0, 0, 35, 174.3701782226562
0, 0, 36, 158.7467193603516
0, 0, 37, 160.5992736816406
0, 0, 38, 165.9938812255859
0, 0, 39, 158.9826354980469
0, 0, 40, 165.4980010986328
0, 0, 41, 166.9437561035156
0, 0, 42, 144.3082885742188
0, 0, 43, 168.0230560302734
0, 0, 44, 178.151123046875
0, 0, 45, 172.7596130371094
0, 0, 46, 166.2225341796875
0, 0, 47, 167.8321228027344
0, 0, 48, 169.7284851074219
0, 0, 49, 182.2720489501953
0, 0, 50, 169.0621643066406
0, 0, 51, 162.8547515869141
0, 0, 52, 162.7689666748047
0, 0, 53, 171.2122802734375
0, 0, 54, 159.8283843994141
0, 0, 55, 165.8886871337891
0, 0, 56, 189.068603515625
0, 0, 57, 170.5454254150391
0, 0, 58, 161.569580078125
0, 0, 59, 172.1351013183594
0, 0, 60, 170.4543609619141
0, 0, 61, 169.0670318603516
0, 0, 62, 183.4114379882812
0, 0, 63, 167.5948638916016
0, 0, 64, 164.2322692871094
0, 0, 65, 175.4563140869141
0, 0, 66, 178.2169647216797
0, 0, 67, 165.1253662109375
0, 0, 68, 158.7989501953125
0, 0, 69, 158.6395416259766
0, 0, 70, 169.8058013916016
0, 0, 71, 160.0511779785156
0, 0, 72, 162.092041015625
0, 0, 73, 171.6482086181641
0, 0, 74, 163.8475494384766
0, 0, 75, 163.1180725097656
0, 0, 76, 162.7326049804688
0, 0, 77, 172.2270202636719
0, 0, 78, 181.4378051757812
0, 0, 79, 175.0437927246094
0, 0, 80, 158.9253692626953
0, 0, 81, 161.1440124511719
0, 0, 82, 182.2335357666016
0, 0, 83, 173.3135681152344
0, 0, 84, 159.3686065673828
0, 0, 85, 181.2543792724609
0, 0, 86, 158.9252014160156
0, 0, 87, 176.9748077392578
0, 0, 88, 176.5963897705078
0, 0, 89, 177.3079376220703
0, 0, 90, 161.5767517089844
0, 0, 91, 185.5865478515625
0, 0, 92, 164.3012847900391
0, 0, 93, 157.1072235107422
0, 0, 94, 168.4365692138672
0, 0, 95, 173.7579956054688
0, 0, 96, 183.5309143066406
0, 0, 97, 183.5454559326172
0, 0, 98, 186.4115447998047
0, 0, 99, 171.1102752685547
0, 0, 100, 158.8962860107422
0, 0, 101, 166.5458679199219
0, 0, 102, 170.0974884033203
0, 0, 103, 170.1663970947266
0, 0, 104, 168.6621246337891
0, 0, 105, 179.1027984619141
0, 0, 106, 158.7781372070312
0, 0, 107, 84.76893615722656
0, 0, 108, 23.09762954711914
0, 0, 109, 11.55465126037598
0, 0, 110, 5.891743183135986
0, 0, 111, 7.072710037231445
0, 0, 112, 3.127298593521118
0, 0, 113, 3.685773611068726
0, 0, 114, 4.266266822814941
0, 0, 115, 3.756392955780029
0, 0, 116, 1.225762128829956
0, 0, 117, 2.764321088790894
0, 0, 118, 2.517176151275635
0, 0, 119, 2.853757619857788
0, 0, 120, 1.584249496459961
0, 0, 121, 3.841464281082153
0, 0, 122, 3.244739770889282
0, 0, 123, 3.180194616317749
0, 0, 124, 1.682889699935913
0, 0, 125, 1.853551149368286
0, 0, 126, 0.3108161091804504
0, 0, 127, 1.807626128196716
0, 1, 0, 0.8368720412254333
0, 1, 1, 3.038102388381958
0, 1, 2, 4.451030254364014
0, 1, 3, 1.991668343544006
0, 1, 4, 1.591157674789429
0, 1, 5, 1.973153710365295
0, 1, 6, 1.37686824798584
0, 1, 7, 2.124014616012573
0, 1, 8, 3.075029373168945
0, 1, 9, 1.752750873565674
0, 1, 10, 1.448540568351746
0, 1, 11, 4.035633087158203
0, 1, 12, 3.458486318588257
0, 1, 13, 3.958203554153442
0, 1, 14, 6.023288726806641
0, 1, 15, 5.653506278991699
0, 1, 16, 8.321702003479004
0, 1, 17, 4.889071464538574
0, 1, 18, 11.02563285827637
0, 1, 19, 40.0789794921875
0, 1, 20, 126.2838897705078
0, 1, 21, 177.5595550537109
0, 1, 22, 193.9591979980469
0, 1, 23, 186.9376220703125
0, 1, 24, 179.6754760742188
0, 1, 25, 193.0428314208984
0, 1, 26, 198.3072967529297
0, 1, 27, 186.3643188476562
0, 1, 28, 188.8611297607422
0, 1, 29, 183.4073638916016
0, 1, 30, 178.9672698974609
0, 1, 31, 182.6751708984375
0, 1, 32, 188.4219665527344
0, 1, 33, 190.3120574951172
0, 1, 34, 185.1181945800781
0, 1, 35, 193.9864959716797
0, 1, 36, 205.1295623779297
0, 1, 37, 185.1775054931641
0, 1, 38, 164.2846984863281
0, 1, 39, 171.3799133300781
0, 1, 40, 179.7529602050781
0, 1, 41, 185.1928253173828
0, 1, 42, 182.2285308837891
0, 1, 43, 187.5256652832031
0, 1, 44, 169.6089630126953
0, 1, 45, 186.9284057617188
0, 1, 46, 170.2836608886719
0, 1, 47, 184.4946441650391
0, 1, 48, 186.1617431640625
0, 1, 49, 186.4224853515625
0, 1, 50, 176.6846771240234
0, 1, 51, 191.7985534667969
0, 1, 52, 194.9106903076172
0, 1, 53, 196.5559234619141
0, 1, 54, 184.61767578125
0, 1, 55, 165.7290496826172
0, 1, 56, 178.3470153808594
0, 1, 57, 178.5554962158203
0, 1, 58, 188.7728881835938
0, 1, 59, 193.2064971923828
0, 1, 60, 187.7805938720703
0, 1, 61, 178.3867340087891
0, 1, 62, 205.5487976074219
0, 1, 63, 174.7958984375
0, 1, 64, 172.4712219238281
0, 1, 65, 186.7467651367188
0, 1, 66, 203.7306518554688
0, 1, 67, 182.0433959960938
0, 1, 68, 187.1172790527344
0, 1, 69, 189.1623077392578
0, 1, 70, 186.7460174560547
0, 1, 71, 171.3885498046875
0, 1, 72, 189.1114959716797
0, 1, 73, 190.2452087402344
0, 1, 74, 200.7379608154297
0, 1, 75, 183.3916015625
0, 1, 76, 174.8276062011719
0, 1, 77, 191.4597320556641
0, 1, 78, 187.9472503662109
0, 1, 79, 202.1606597900391
0, 1, 80, 187.5088195800781
0, 1, 81, 174.6502838134766
0, 1, 82, 207.0159149169922
0, 1, 83, 211.7752838134766
0, 1, 84, 180.2622375488281
0, 1, 85, 170.3459014892578
0, 1, 86, 168.0107574462891
0, 1, 87, 184.0352478027344
0, 1, 88, 176.4527893066406
0, 1, 89, 186.1981353759766
0, 1, 90, 212.0129699707031
0, 1, 91, 182.0799102783203
0, 1, 92, 184.0463256835938
0, 1, 93, 181.3295593261719
0, 1, 94, 185.1377868652344
0, 1, 95, 182.8461608886719
0, 1, 96, 196.6183319091797
0, 1, 97, 182.7770385742188
0, 1, 98, 186.7266998291016
0, 1, 99, 176.4290313720703
0, 1, 100, 171.4699249267578
0, 1, 101, 177.9253387451172
0, 1, 102, 182.2011260986328
0, 1, 103, 172.6320495605469
0, 1, 104, 189.1649017333984
0, 1, 105, 183.4361724853516
0, 1, 106, 164.111328125
0, 1, 107, 123.1418838500977
0, 1, 108, 47.56092834472656
0, 1, 109, 9.409042358398438
0, 1, 110, 9.430453300476074
0, 1, 111, 6.778028964996338
0, 1, 112, 7.365417003631592
0, 1, 113, 8.117334365844727
0, 1, 114, 5.430830478668213
0, 1, 115, 3.54180908203125
0, 1, 116, 2.703355550765991
0, 1, 117, 1.81987988948822
0, 1, 118, 3.852013111114502
0, 1, 119, 0.9817603826522827
0, 1, 120, 3.675625085830688
0, 1, 121, 4.462002277374268
0, 1, 122, 2.208357095718384
0, 1, 123, 4.065684795379639
0, 1, 124, 2.526353597640991
0, 1, 125, 3.469204187393188
0, 1, 126, 2.146796941757202
0, 1, 127, 2.470827579498291
0, 2, 0, 1.458734631538391
0, 2, 1, 2.05486798286438
0, 2, 2, 3.84318470954895
0, 2, 3, 3.010369777679443
0, 2, 4, 3.190462112426758
0, 2, 5, 1.165475368499756
0, 2, 6, 2.293431282043457
0, 2, 7, 2.115518093109131
0, 2, 8, 1.086832165718079
0, 2, 9, 1.628397941589355
0, 2, 10, 7.22766637802124
0, 2, 11, 4.380066394805908
0, 2, 12, 3.770058155059814
0, 2, 13, 2.952341079711914
0, 2, 14, 3.938195466995239
0, 2, 15, 5.670048713684082
0, 2, 16, 4.892563343048096
0, 2, 17, 8.837742805480957
0, 2, 18, 14.35547828674316
0, 2, 19, 77.04692077636719
0, 2, 20, 162.4735260009766
0, 2, 21, 182.8416900634766
0, 2, 22, 193.8948516845703
0, 2, 23, 183.8047332763672
0, 2, 24, 173.4397735595703
0, 2, 25, 183.6368713378906
0, 2, 26, 178.6567840576172
0, 2, 27, 188.3940277099609
0, 2, 28, 171.5801086425781
0, 2, 29, 168.8311462402344
0, 2, 30, 186.4764862060547
0, 2, 31, 182.3925323486328
0, 2, 32, 184.1554412841797
0, 2, 33, 190.6875
0, 2, 34, 198.0306701660156
0, 2, 35, 181.9143676757812
0, 2, 36, 186.4548492431641
0, 2, 37, 181.1581726074219
0, 2, 38, 184.2142791748047
0, 2, 39, 166.3732299804688
0, 2, 40, 183.5912170410156
0, 2, 41, 184.1260833740234
0, 2, 42, 190.6678924560547
0, 2, 43, 193.2411499023438
0, 2, 44, 190.3844757080078
0, 2, 45, 191.2993011474609
0, 2, 46, 196.1338348388672
0, 2, 47, 189.8475036621094
0, 2, 48, 178.5882873535156
0, 2, 49, 197.7715911865234
0, 2, 50, 170.2388000488281
0, 2, 51, 184.7633056640625
0, 2, 52, 187.6611785888672
0, 2, 53, 195.0581512451172
0, 2, 54, 175.5139923095703
0, 2, 55, 173.3379821777344
0, 2, 56, 181.4015045166016
0, 2, 57, 200.9403533935547
0, 2, 58, 187.4548492431641
0, 2, 59, 189.8883514404297
0, 2, 60, 196.5670166015625
0, 2, 61, 193.1220703125
0, 2, 62, 190.1052856445312
0, 2, 63, 171.8846282958984
0, 2, 64, 188.9920196533203
0, 2, 65, 202.87451171875
0, 2, 66, 195.5063323974609
0, 2, 67, 184.9606323242188
0, 2, 68, 182.2538452148438
0, 2, 69, 187.5072631835938
0, 2, 70, 203.1307067871094
0, 2, 71, 176.6543426513672
0, 2, 72, 186.12744140625
0, 2, 73, 177.502197265625
0, 2, 74, 181.1508941650391
0, 2, 75, 196.6900177001953
0, 2, 76, 183.7207183837891
0, 2, 77, 179.4370727539062
0, 2, 78, 199.53759765625
0, 2, 79, 177.9981231689453
0, 2, 80, 188.3235778808594
0, 2, 81, 186.8429412841797
0, 2, 82, 205.4433288574219
0, 2, 83, 203.7606201171875
0, 2, 84, 188.3852386474609
0, 2, 85, 170.8191223144531
0, 2, 86, 195.7231750488281
0, 2, 87, 172.0500946044922
0, 2, 88, 178.9456634521484
0, 2, 89, 184.1694488525391
0, 2, 90, 178.4026336669922
0, 2, 91, 174.8563537597656
0, 2, 92, 197.1203155517578
0, 2, 93, 195.6783905029297
0, 2, 94, 200.2300872802734
0, 2, 95, 194.0657348632812
0, 2, 96, 186.1470031738281
0, 2, 97, 171.7999877929688
0, 2, 98, 173.9381103515625
0, 2, 99, 162.9038848876953
0, 2, 100, 187.0818176269531
0, 2, 101, 196.5033416748047
0, 2, 102, 176.8298645019531
0, 2, 103, 199.5750122070312
0, 2, 104, 187.4315032958984
0, 2, 105, 199.7106323242188
0, 2, 106, 196.3620300292969
0, 2, 107, 151.4364929199219
0, 2, 108, 80.08439636230469
0, 2, 109, 17.66253280639648
0, 2, 110, 7.491439342498779
0, 2, 111, 6.460988998413086
0, 2, 112, 6.806197643280029
0, 2, 113, 3.883467197418213
0, 2, 114, 7.392219543457031
0, 2, 115, 5.024243831634521
0, 2, 116, 2.33185076713562
0, 2, 117, 1.576352477073669
0, 2, 118, 1.692355990409851
0, 2, 119, 2.478553295135498
0, 2, 120, 1.31711220741272
0, 2, 121, 4.115653514862061
0, 2, 122, 1.196368098258972
0, 2, 123, 4.240680694580078
0, 2, 124, 2.320879697799683
0, 2, 125, 1.711948990821838
0, 2, 126, 2.63322925567627
0, 2, 127, 0.2677891552448273
0, 3, 0, 1.362361907958984
0, 3, 1, 1.25717294216156
0, 3, 2, 2.445592403411865
0, 3, 3, 0.9128650426864624
0, 3, 4, 4.228460311889648
0, 3, 5, 2.664935827255249
0, 3, 6, 1.575593590736389
0, 3, 7, 1.183594226837158
0, 3, 8, 1.516007900238037
0, 3, 9, 2.553210258483887
0, 3, 10, 3.094546794891357
0, 3, 11, 3.696107625961304
0, 3, 12, 4.345166683197021
0, 3, 13, 3.803381443023682
0, 3, 14, 4.684445858001709
0, 3, 15, 6.713920593261719
0, 3, 16, 8.253257751464844
0, 3, 17, 6.391634941101074
0, 3, 18, 32.31451034545898
0, 3, 19, 115.1476440429688
0, 3, 20, 179.6636810302734
0, 3, 21, 173.2366180419922
0, 3, 22, 177.6602325439453
0, 3, 23, 188.9384613037109
0, 3, 24, 177.9794921875
0, 3, 25, 170.2059020996094
0, 3, 26, 180.3593444824219
0, 3, 27, 190.1171264648438
0, 3, 28, 182.3510131835938
0, 3, 29, 198.1779174804688
0, 3, 30, 185.4027404785156
0, 3, 31, 194.828125
0, 3, 32, 205.7918701171875
0, 3, 33, 196.9295806884766
0, 3, 34, 187.8410491943359
0, 3, 35, 174.9654846191406
0, 3, 36, 185.2933807373047
0, 3, 37, 199.6444549560547
0, 3, 38, 191.0003509521484
0, 3, 39, 185.0079956054688
0, 3, 40, 166.0269470214844
0, 3, 41, 174.1832427978516
0, 3, 42, 184.8069458007812
0, 3, 43, 181.2771759033203
0, 3, 44, 202.7984924316406
0, 3, 45, 207.4490203857422
0, 3, 46, 198.9611206054688
0, 3, 47, 193.996826171875
0, 3, 48, 194.7231903076172
0, 3, 49, 180.3217163085938
0, 3, 50, 186.7571716308594
0, 3, 51, 174.5680084228516
0, 3, 52, 187.6710357666016
0, 3, 53, 177.9383087158203
0, 3, 54, 179.3761291503906
0, 3, 55, 176.4094848632812
0, 3, 56, 182.9991149902344
0, 3, 57, 175.5282440185547
0, 3, 58, 200.829345703125
0, 3, 59, 196.0572814941406
0, 3, 60, 186.9581451416016
0, 3, 61, 181.2536773681641
0, 3, 62, 182.8841247558594
0, 3, 63, 183.5884399414062
0, 3, 64, 191.7891693115234
0, 3, 65, 186.8628692626953
0, 3, 66, 175.8876190185547
0, 3, 67, 190.5813903808594
0, 3, 68, 212.1363983154297
0, 3, 69, 189.7208862304688
0, 3, 70, 185.0681915283203
0, 3, 71, 197.1686553955078
0, 3, 72, 185.5045776367188
0, 3, 73, 186.2140350341797
0, 3, 74, 191.5726318359375
0, 3, 75, 192.3173980712891
0, 3, 76, 190.4715423583984
0, 3, 77, 200.1657409667969
0, 3, 78, 189.4934844970703
0, 3, 79, 185.4298095703125
0, 3, 80, 190.1517181396484
0, 3, 81, 182.8689727783203
0, 3, 82, 179.5346069335938
0, 3, 83, 195.5638885498047
0, 3, 84, 199.4522552490234
0, 3, 85, 192.1938171386719
0, 3, 86, 203.7752227783203
0, 3, 87, 197.8992309570312
0, 3, 88, 191.1560363769531
0, 3, 89, 194.7540435791016
0, 3, 90, 173.9459228515625
0, 3, 91, 158.1731872558594
0, 3, 92, 207.8368072509766
0, 3, 93, 195.0597076416016
0, 3, 94, 192.7194213867188
0, 3, 95, 211.1651306152344
0, 3, 96, 207.9574584960938
0, 3, 97, 168.2938232421875
0, 3, 98, 167.1925659179688
0, 3, 99, 179.4374389648438
0, 3, 100, 176.8599090576172
0, 3, 101, 196.7266693115234
0, 3, 102, 194.2727661132812
0, 3, 103, 193.8169860839844
0, 3, 104, 202.4188995361328
0, 3, 105, 175.7669067382812
0, 3, 106, 181.2668304443359
0, 3, 107, 169.1195678710938
0, 3, 108, 108.2432022094727
0, 3, 109, 28.13666343688965
0, 3, 110, 7.940508365631104
0, 3, 111, 6.763733386993408
0, 3, 112, 3.988552093505859
0, 3, 113, 7.106694221496582
0, 3, 114, 7.219910621643066
0, 3, 115, 5.363648891448975
0, 3, 116, 5.438181400299072
0, 3, 117, 3.879957437515259
0, 3, 118, 2.185342788696289
0, 3, 119, 3.055172443389893
0, 3, 120, 4.1341233253479
0, 3, 121, 2.19285249710083
0, 3, 122, 2.874426364898682
0, 3, 123, 1.090676069259644
0, 3, 124, 1.874839901924133
0, 3, 125, 1.057152628898621
0, 3, 126, 1.915371060371399
0, 3, 127, 0.945729672908783
0, 4, 0, 1.83721923828125
0, 4, 1, 0.2508680820465088
0, 4, 2, 2.941334009170532
0, 4, 3, 3.531263828277588
0, 4, 4, 1.419272303581238
0, 4, 5, 1.55824887752533
0, 4, 6, 3.33615517616272
0, 4, 7, 2.44969916343689
0, 4, 8, 1.270657539367676
0, 4, 9, 1.865367412567139
0, 4, 10, 4.089939117431641
0, 4, 11, 3.454050540924072
0, 4, 12, 4.144289493560791
0, 4, 13, 4.377148151397705
0, 4, 14, 4.087775707244873
0, 4, 15, 8.40480899810791
0, 4, 16, 7.868062019348145
0, 4, 17, 11.6381721496582
0, 4, 18, 55.42351150512695
0, 4, 19, 151.2473907470703
0, 4, 20, 192.8455810546875
0, 4, 21, 169.5655059814453
0, 4, 22, 187.1581115722656
0, 4, 23, 196.8616790771484
0, 4, 24, 192.1943359375
0, 4, 25, 199.5238189697266
0, 4, 26, 183.1089630126953
0, 4, 27, 190.12109375
0, 4, 28, 178.7040100097656
0, 4, 29, 205.5382385253906
0, 4, 30, 195.0253753662109
0, 4, 31, 192.1634979248047
0, 4, 32, 210.0974426269531
0, 4, 33, 190.7139129638672
0, 4, 34, 192.3293151855469
0, 4, 35, 212.8095550537109
0, 4, 36, 192.8448486328125
0, 4, 37, 178.2315216064453
0, 4, 38, 195.3271636962891
0, 4, 39, 189.0271606445312
0, 4, 40, 185.0701141357422
0, 4, 41, 190.9510345458984
0, 4, 42, 205.7406005859375
0, 4, 43, 173.728759765625
0, 4, 44, 183.4582061767578
0, 4, 45, 195.9269409179688
0, 4, 46, 185.85693359375
0, 4, 47, 179.6139068603516
0, 4, 48, 187.0961303710938
0, 4, 49, 175.4324798583984
0, 4, 50, 186.5126647949219
0, 4, 51, 197.8190307617188
0, 4, 52, 224.9679870605469
0, 4, 53, 206.5325622558594
0, 4, 54, 190.2317352294922
0, 4, 55, 174.1809234619141
0, 4, 56, 191.9709777832031
0, 4, 57, 192.0168914794922
0, 4, 58, 187.3643341064453
0, 4, 59, 189.6482391357422
0, 4, 60, 195.7686614990234
0, 4, 61, 193.0393218994141
0, 4, 62, 189.8367462158203
0, 4, 63, 179.6485900878906
0, 4, 64, 212.0783996582031
0, 4, 65, 190.9214477539062
0, 4, 66, 201.1910247802734
0, 4, 67, 200.4369506835938
0, 4, 68, 202.5993804931641
0, 4, 69, 198.6460571289062
0, 4, 70, 204.0682678222656
0, 4, 71, 206.2880096435547
0, 4, 72, 215.0546722412109
0, 4, 73, 185.9777374267578
0, 4, 74, 181.3716888427734
0, 4, 75, 186.1329345703125
0, 4, 76, 189.6120910644531
0, 4, 77, 182.3447570800781
0, 4, 78, 194.8597869873047
0, 4, 79, 204.3604125976562
0, 4, 80, 212.5422210693359
0, 4, 81, 198.6859130859375
0, 4, 82, 180.5867919921875
0, 4, 83, 171.2769775390625
0, 4, 84, 192.5419158935547
0, 4, 85, 196.5743713378906
0, 4, 86, 181.0334625244141
0, 4, 87, 183.1815948486328
0, 4, 88, 203.9140930175781
0, 4, 89, 187.8444519042969
0, 4, 90, 211.6866607666016
0, 4, 91, 189.2975616455078
0, 4, 92, 196.8840789794922
0, 4, 93, 195.0200653076172
0, 4, 94, 183.0267486572266
0, 4, 95, 174.1654205322266
0, 4, 96, 190.2900085449219
0, 4, 97, 194.4094696044922
0, 4, 98, 202.0065612792969
0, 4, 99, 183.1391143798828
0, 4, 100, 183.0789184570312
0, 4, 101, 177.8395385742188
0, 4, 102, 174.7139434814453
0, 4, 103, 185.4793853759766
0, 4, 104, 210.2955169677734
0, 4, 105, 189.5994720458984
0, 4, 106, 180.2188873291016
0, 4, 107, 181.1440124511719
0, 4, 108, 151.936279296875
0, 4, 109, 49.81848526000977
0, 4, 110, 12.54508399963379
0, 4, 111, 9.332817077636719
0, 4, 112, 6.287154674530029
0, 4, 113, 5.886605262756348
0, 4, 114, 4.584760189056396
0, 4, 115, 2.888276815414429
0, 4, 116, 4.591488838195801
0, 4, 117, 3.671711683273315
0, 4, 118, 3.791725158691406
0, 4, 119, 5.10577392578125
0, 4, 120, 1.98015558719635
0, 4, 121, 1.525994062423706
0, 4, 122, 1.773622632026672
0, 4, 123, 1.498934984207153
0, 4, 124, 3.938958883285522
0, 4, 125, 2.538788318634033
0, 4, 126, 1.0671306848526
0, 4, 127, 1.906666278839111
0, 5, 0, 1.25554621219635
0, 5, 1, 2.590357065200806
0, 5, 2, 5.783438205718994
0, 5, 3, 4.241734504699707
0, 5, 4, 2.834822654724121
0, 5, 5, 1.26811420917511
0, 5, 6, 2.299263715744019
0, 5, 7, 3.071656703948975
0, 5, 8, 1.967678546905518
0, 5, 9, 1.99251663684845
0, 5, 10, 1.824392676353455
0, 5, 11, 3.490355730056763
0, 5, 12, 4.202023506164551
0, 5, 13, 3.813222169876099
0, 5, 14, 5.297125816345215
0, 5, 15, 10.28223133087158
0, 5, 16, 8.451520919799805
0, 5, 17, 22.09789085388184
0, 5, 18, 82.66240692138672
0, 5, 19, 164.2580871582031
0, 5, 20, 183.2629089355469
0, 5, 21, 177.6806793212891
0, 5, 22, 171.5946807861328
0, 5, 23, 200.6902618408203
0, 5, 24, 188.87158203125
0, 5, 25, 206.4976043701172
0, 5, 26, 183.4327087402344
0, 5, 27, 196.9325561523438
0, 5, 28, 189.5252838134766
0, 5, 29, 195.9541473388672
0, 5, 30, 177.9278411865234
0, 5, 31, 181.1570129394531
0, 5, 32, 186.6334686279297
0, 5, 33, 168.7688446044922
0, 5, 34, 194.5453491210938
0, 5, 35, 196.3477172851562
0, 5, 36, 168.6313781738281
0, 5, 37, 196.3353729248047
0, 5, 38, 180.6313934326172
0, 5, 39, 186.8215942382812
0, 5, 40, 196.5857238769531
0, 5, 41, 176.6266632080078
0, 5, 42, 188.2036437988281
0, 5, 43, 192.4160003662109
0, 5, 44, 200.0303344726562
0, 5, 45, 186.5121002197266
0, 5, 46, 193.0173797607422
0, 5, 47, 181.346923828125
0, 5, 48, 178.2066192626953
0, 5, 49, 180.3112335205078
0, 5, 50, 186.5519561767578
0, 5, 51, 172.5326538085938
0, 5, 52, 167.333251953125
0, 5, 53, 182.237060546875
0, 5, 54, 172.9946136474609
0, 5, 55, 215.9013671875
0, 5, 56, 183.8897705078125
0, 5, 57, 208.3393096923828
0, 5, 58, 182.2558746337891
0, 5, 59, 180.8180389404297
0, 5, 60, 218.9882659912109
0, 5, 61, 184.2790069580078
0, 5, 62, 179.027099609375
0, 5, 63, 180.7798004150391
0, 5, 64, 193.9308319091797
0, 5, 65, 209.5626373291016
0, 5, 66, 193.1703491210938
0, 5, 67, 198.5093231201172
0, 5, 68, 185.5526275634766
0, 5, 69, 185.4815063476562
0, 5, 70, 185.0360565185547
0, 5, 71, 192.5486450195312
0, 5, 72, 197.7207183837891
0, 5, 73, 201.4353179931641
0, 5, 74, 179.6586456298828
0, 5, 75, 202.4494171142578
0, 5, 76, 215.2729187011719
0, 5, 77, 180.3982238769531
0, 5, 78, 194.3110809326172
0, 5, 79, 190.0843353271484
0, 5, 80, 197.6069030761719
0, 5, 81, 203.8988800048828
0, 5, 82, 201.1919403076172
0, 5, 83, 189.4320678710938
0, 5, 84, 205.638671875
0, 5, 85, 176.2400817871094
0, 5, 86, 194.0877075195312
0, 5, 87, 187.5833740234375
0, 5, 88, 177.6817779541016
0, 5, 89, 193.9321136474609
0, 5, 90, 198.9996185302734
0, 5, 91, 194.8551788330078
0, 5, 92, 190.1765289306641
0, 5, 93, 191.1201934814453
0, 5, 94, 207.6932525634766
0, 5, 95, 176.6160888671875
0, 5, 96, 182.0049285888672
0, 5, 97, 190.8772735595703
0, 5, 98, 188.9217681884766
0, 5, 99, 197.8414459228516
0, 5, 100, 187.6283569335938
0, 5, 101, 195.6388397216797
0, 5, 102, 181.7302551269531
0, 5, 103, 175.9999237060547
0, 5, 104, 190.2616729736328
0, 5, 105, 189.8166961669922
0, 5, 106, 176.4851684570312
0, 5, 107, 182.077880859375
0, 5, 108, 176.4064788818359
0, 5, 109, 90.97337341308594
0, 5, 110, 31.74760437011719
0, 5, 111, 10.66159439086914
0, 5, 112, 6.526938915252686
0, 5, 113, 9.93757438659668
0, 5, 114, 5.699160575866699
0, 5, 115, 5.576284408569336
0, 5, 116, 3.666943073272705
0, 5, 117, 2.197266578674316
0, 5, 118, 4.243133544921875
0, 5, 119, 4.26375150680542
0, 5, 120, 3.706880807876587
0, 5, 121, 3.666178464889526
0, 5, 122, 2.743672132492065
0, 5, 123, 4.543558120727539
0, 5, 124, 3.361440181732178
0, 5, 125, 1.728760123252869
0, 5, 126, 2.126059770584106
0, 5, 127, 2.039403915405273
0, 6, 0, 4.479776859283447
0, 6, 1, 3.604312658309937
0, 6, 2, 3.999485015869141
0, 6, 3, 1.430141925811768
0, 6, 4, 3.291119575500488
0, 6, 5, 5.644213676452637
0, 6, 6, 3.186585903167725
0, 6, 7, 3.623364448547363
0, 6, 8, 4.760394096374512
0, 6, 9, 3.310118436813354
0, 6, 10, 3.75841498374939
0, 6, 11, 5.207150459289551
0, 6, 12, 4.837475299835205
0, 6, 13, 6.87553596496582
0, 6, 14, 5.841636657714844
0, 6, 15, 7.103993892669678
0, 6, 16, 11.74425411224365
0, 6, 17, 28.40005111694336
0, 6, 18, 111.7270126342773
0, 6, 19, 191.5408172607422
0, 6, 20, 198.1906127929688
0, 6, 21, 197.8638153076172
0, 6, 22, 191.1392822265625
0, 6, 23, 190.6566162109375
0, 6, 24, 200.330078125
0, 6, 25, 182.8270111083984
0, 6, 26, 186.2238159179688
0, 6, 27, 192.4316864013672
0, 6, 28, 188.5743713378906
0, 6, 29, 210.8989868164062
0, 6, 30, 190.3889923095703
0, 6, 31, 193.0626831054688
0, 6, 32, 206.2162780761719
0, 6, 33, 186.4574432373047
0, 6, 34, 198.9324493408203
0, 6, 35, 187.8546142578125
0, 6, 36, 179.5238800048828
0, 6, 37, 183.2171173095703
0, 6, 38, 186.2338256835938
0, 6, 39, 194.8508453369141
0, 6, 40, 174.5040893554688
0, 6, 41, 184.982177734375
0, 6, 42, 176.1092529296875
0, 6, 43, 210.6040954589844
0, 6, 44, 209.2772674560547
0, 6, 45, 193.5343170166016
0, 6, 46, 188.0626068115234
0, 6, 47, 204.5589294433594
0, 6, 48, 188.406005859375
0, 6, 49, 180.1961517333984
0, 6, 50, 183.5720367431641
0, 6, 51, 197.8629150390625
0, 6, 52, 197.1777801513672
0, 6, 53, 184.5450286865234
0, 6, 54, 174.8897247314453
0, 6, 55, 196.1781921386719
0, 6, 56, 202.7290954589844
0, 6, 57, 191.3963012695312
0, 6, 58, 180.8044586181641
0, 6, 59, 192.3086547851562
0, 6, 60, 185.3797302246094
0, 6, 61, 193.7796478271484
0, 6, 62, 197.7571868896484
0, 6, 63, 186.5927124023438
0, 6, 64, 169.3003845214844
0, 6, 65, 185.8668365478516
0, 6, 66, 197.0597229003906
0, 6, 67, 213.8418579101562
0, 6, 68, 181.9138031005859
0, 6, 69, 171.2800750732422
0, 6, 70, 187.627685546875
0, 6, 71, 172.4330444335938
0, 6, 72, 176.4526062011719
0, 6, 73, 176.6950225830078
0, 6, 74, 211.1948699951172
0, 6, 75, 228.0218048095703
0, 6, 76, 185.0134124755859
0, 6, 77, 175.2134094238281
0, 6, 78, 175.1214141845703
0, 6, 79, 188.2894134521484
0, 6, 80, 187.2804565429688
0, 6, 81, 208.8369903564453
0, 6, 82, 194.9219360351562
0, 6, 83, 195.5434265136719
0, 6, 84, 197.4625549316406
0, 6, 85, 182.2578887939453
0, 6, 86, 202.8820495605469
0, 6, 87, 185.3706359863281
0, 6, 88, 193.6481781005859
0, 6, 89, 188.9977416992188
0, 6, 90, 205.6955413818359
0, 6, 91, 199.5400848388672
0, 6, 92, 173.853271484375
0, 6, 93, 191.8725433349609
0, 6, 94, 188.8857879638672
0, 6, 95, 184.8893127441406
0, 6, 96, 188.4260101318359
0, 6, 97, 195.5301971435547
0, 6, 98, 184.6380157470703
0, 6, 99, 176.7012176513672
0, 6, 100, 200.9122314453125
0, 6, 101, 169.2479553222656
0, 6, 102, 201.8678436279297
0, 6, 103, 195.5435943603516
0, 6, 104, 183.3495788574219
0, 6, 105, 193.4854431152344
0, 6, 106, 177.1854705810547
0, 6, 107, 194.3279113769531
0, 6, 108, 170.4190979003906
0, 6, 109, 113.912712097168
0, 6, 110, 35.03201675415039
0, 6, 111, 9.513861656188965
0, 6, 112, 9.488372802734375
0, 6, 113, 6.961718559265137
0, 6, 114, 6.06225061416626
0, 6, 115, 3.487380981445312
0, 6, 116, 4.894335269927979
0, 6, 117, 4.765001773834229
0, 6, 118, 4.59254789352417
0, 6, 119, 3.2031409740448
0, 6, 120, 2.094241857528687
0, 6, 121, 2.874904870986938
0, 6, 122, 3.751464366912842
0, 6, 123, 2.375061750411987
0, 6, 124, 2.665122985839844
0, 6, 125, 2.89332389831543
0, 6, 126, 3.342281818389893
0, 6, 127, 2.989761352539062
0, 7, 0, 3.391513347625732
0, 7, 1, 0.8219665884971619
0, 7, 2, 2.060644865036011
0, 7, 3, 2.414267301559448
0, 7, 4, 2.442638635635376
0, 7, 5, 1.300407290458679
0, 7, 6, 3.397282123565674
0, 7, 7, 1.874541521072388
0, 7, 8, 3.589773893356323
0, 7, 9, 8.003964424133301
0, 7, 10, 4.737162590026855
0, 7, 11, 3.763345718383789
0, 7, 12, 3.731015920639038
0, 7, 13, 5.979154109954834
0, 7, 14, 7.692200183868408
0, 7, 15, 7.769448757171631
0, 7, 16, 16.08532905578613
0, 7, 17, 50.45804595947266
0, 7, 18, 161.7251281738281
0, 7, 19, 183.3167114257812
0, 7, 20, 178.8879547119141
0, 7, 21, 180.2080841064453
0, 7, 22, 190.7225799560547
0, 7, 23, 202.9732818603516
0, 7, 24, 179.8311004638672
0, 7, 25, 212.8690490722656
0, 7, 26, 189.1829376220703
0, 7, 27, 182.2454681396484
0, 7, 28, 183.1529235839844
0, 7, 29, 208.6769714355469
0, 7, 30, 192.0502166748047
0, 7, 31, 176.4736938476562
0, 7, 32, 190.4296722412109
0, 7, 33, 179.1782531738281
0, 7, 34, 193.3505096435547
0, 7, 35, 198.6373291015625
0, 7, 36, 186.8921051025391
0, 7, 37, 212.7360229492188
0, 7, 38, 191.2164001464844
0, 7, 39, 173.2321472167969
0, 7, 40, 182.9945831298828
0, 7, 41, 184.9786987304688
0, 7, 42, 177.2460632324219
0, 7, 43, 178.7892608642578
0, 7, 44, 179.4586944580078
0, 7, 45, 175.5167236328125
0, 7, 46, 188.3766937255859
0, 7, 47, 197.1394653320312
0, 7, 48, 186.8838958740234
0, 7, 49, 199.1263122558594
0, 7, 50, 187.9940490722656
0, 7, 51, 204.9325103759766
0, 7, 52, 204.1405639648438
0, 7, 53, 193.0332183837891
0, 7, 54, 194.9013671875
0, 7, 55, 202.7241516113281
0, 7, 56, 183.6335906982422
0, 7, 57, 182.283203125
0, 7, 58, 191.7615203857422
0, 7, 59, 187.0399627685547
0, 7, 60, 202.3858184814453
0, 7, 61, 171.4930877685547
0, 7, 62, 203.2150726318359
0, 7, 63, 188.8290557861328
0, 7, 64, 199.9462890625
0, 7, 65, 198.9799041748047
0, 7, 66, 205.8813934326172
0, 7, 67, 219.5098876953125
0, 7, 68, 162.8116607666016
0, 7, 69, 193.3794860839844
0, 7, 70, 216.7879333496094
0, 7, 71, 184.1893920898438
0, 7, 72, 181.6233367919922
0, 7, 73, 176.7067260742188
0, 7, 74, 207.5001220703125
0, 7, 75, 205.683837890625
0, 7, 76, 214.9515075683594
0, 7, 77, 173.7447509765625
0, 7, 78, 177.1570587158203
0, 7, 79, 191.4589233398438
0, 7, 80, 195.6886291503906
0, 7, 81, 215.4238739013672
0, 7, 82, 186.1725463867188
0, 7, 83, 204.9795837402344
0, 7, 84, 191.5071563720703
0, 7, 85, 185.8475952148438
0, 7, 86, 200.1205749511719
0, 7, 87, 226.4465942382812
0, 7, 88, 194.3317565917969
0, 7, 89, 176.8895263671875
0, 7, 90, 182.29638671875
0, 7, 91, 194.6363983154297
0, 7, 92, 194.24755859375
0, 7, 93, 198.5006561279297
0, 7, 94, 179.9344787597656
0, 7, 95, 197.6154327392578
0, 7, 96, 207.9812927246094
0, 7, 97, 189.6457366943359
0, 7, 98, 176.4457092285156
0, 7, 99, 197.0471801757812
0, 7, 100, 182.3276977539062
0, 7, 101, 200.8132476806641
0, 7, 102, 186.3230590820312
0, 7, 103, 181.7472991943359
0, 7, 104, 174.6774749755859
0, 7, 105, 194.8931884765625
0, 7, 106, 204.8978118896484
0, 7, 107, 174.3676605224609
0, 7, 108, 176.9621124267578
0, 7, 109, 137.1404266357422
0, 7, 110, 53.95419311523438
0, 7, 111, 9.269865989685059
0, 7, 112, 8.604558944702148
0, 7, 113, 8.512389183044434
0, 7, 114, 7.543026447296143
0, 7, 115, 6.57619047164917
0, 7, 116, 7.683821201324463
0, 7, 117, 2.51608681678772
0, 7, 118, 3.920105457305908
0, 7, 119, 2.919283390045166
0, 7, 120, 2.476595878601074
0, 7, 121, 6.751111030578613
0, 7, 122, 2.820559978485107
0, 7, 123, 1.610689520835876
0, 7, 124, 1.277860879898071
0, 7, 125, 1.804180026054382
0, 7, 126, 3.530766248703003
0, 7, 127, 1.391491770744324
0, 8, 0, 4.369369983673096
0, 8, 1, 3.067245244979858
0, 8, 2, 2.766787528991699
0, 8, 3, 3.037970066070557
0, 8, 4, 1.323169827461243
0, 8, 5, 3.511531829833984
0, 8, 6, 2.824070453643799
0, 8, 7, 3.210874795913696
0, 8, 8, 3.099700212478638
0, 8, 9, 5.309670448303223
0, 8, 10, 1.865721702575684
0, 8, 11, 2.171308279037476
0, 8, 12, 4.491995811462402
0, 8, 13, 5.641514301300049
0, 8, 14, 6.242913246154785
0, 8, 15, 8.32001781463623
0, 8, 16, 18.65336608886719
0, 8, 17, 76.56922149658203
0, 8, 18, 143.0582275390625
0, 8, 19, 179.7911529541016
0, 8, 20, 195.1716003417969
0, 8, 21, 193.0049133300781
0, 8, 22, 180.6189422607422
0, 8, 23, 172.3590393066406
0, 8, 24, 191.5473022460938
0, 8, 25, 185.2599029541016
0, 8, 26, 193.2339477539062
0, 8, 27, 186.1063079833984
0, 8, 28, 186.4168701171875
0, 8, 29, 206.4430694580078
0, 8, 30, 196.0903167724609
0, 8, 31, 182.5956420898438
0, 8, 32, 197.4822540283203
0, 8, 33, 206.4118499755859
0, 8, 34, 203.3101196289062
0, 8, 35, 186.0688934326172
0, 8, 36, 182.0185546875
0, 8, 37, 198.4076843261719
