# TOPAS Version: 3.1.p3
# Parameter File: batch_inserts_220.txt
# Results for scorer Readout_Adipose
# Scored in component: MyBox
# X in 1 bin  of 0.65 cm
# Y in 512 bins of 0.0783984 cm
# Z in 128 bins of 0.078125 cm
# EnergyDeposit ( MeV ) : Sum   
0, 0, 0, 1.778463006019592
0, 0, 1, 4.554412841796875
0, 0, 2, 1.977301716804504
0, 0, 3, 0.8565808534622192
0, 0, 4, 1.990307211875916
0, 0, 5, 1.474024057388306
0, 0, 6, 1.397265553474426
0, 0, 7, 2.211907148361206
0, 0, 8, 1.770236134529114
0, 0, 9, 2.800149917602539
0, 0, 10, 3.408496141433716
0, 0, 11, 3.668148517608643
0, 0, 12, 5.27031421661377
0, 0, 13, 1.7734694480896
0, 0, 14, 5.213518142700195
0, 0, 15, 6.472439765930176
0, 0, 16, 3.766044616699219
0, 0, 17, 6.703972339630127
0, 0, 18, 6.317788600921631
0, 0, 19, 23.45079231262207
0, 0, 20, 94.61329650878906
0, 0, 21, 153.3317260742188
0, 0, 22, 155.1634826660156
0, 0, 23, 144.2310943603516
0, 0, 24, 159.6075744628906
0, 0, 25, 166.7986755371094
0, 0, 26, 166.2940521240234
0, 0, 27, 174.4645385742188
0, 0, 28, 178.0283203125
0, 0, 29, 174.9687347412109
0, 0, 30, 173.0376739501953
0, 0, 31, 167.0464019775391
0, 0, 32, 164.0823364257812
0, 0, 33, 166.8088531494141
0, 0, 34, 177.4841918945312
0, 0, 35, 175.7485961914062
0, 0, 36, 159.0582275390625
0, 0, 37, 160.8805694580078
0, 0, 38, 165.8848876953125
0, 0, 39, 159.0440826416016
0, 0, 40, 165.6342620849609
0, 0, 41, 165.5465240478516
0, 0, 42, 144.3366546630859
0, 0, 43, 168.6251983642578
0, 0, 44, 177.5742492675781
0, 0, 45, 172.2143249511719
0, 0, 46, 166.4901885986328
0, 0, 47, 168.0327911376953
0, 0, 48, 169.0238800048828
0, 0, 49, 182.9822845458984
0, 0, 50, 169.0033874511719
0, 0, 51, 162.2725067138672
0, 0, 52, 162.7130584716797
0, 0, 53, 172.3845825195312
0, 0, 54, 160.4606781005859
0, 0, 55, 164.8352966308594
0, 0, 56, 188.4671020507812
0, 0, 57, 169.8614349365234
0, 0, 58, 161.6738891601562
0, 0, 59, 172.0145263671875
0, 0, 60, 169.2160491943359
0, 0, 61, 170.07568359375
0, 0, 62, 182.6674499511719
0, 0, 63, 166.6740112304688
0, 0, 64, 163.7986145019531
0, 0, 65, 175.5878448486328
0, 0, 66, 177.7171325683594
0, 0, 67, 164.5979919433594
0, 0, 68, 158.3085632324219
0, 0, 69, 158.5159454345703
0, 0, 70, 169.7421722412109
0, 0, 71, 158.8700714111328
0, 0, 72, 163.7156219482422
0, 0, 73, 171.6066589355469
0, 0, 74, 163.8565216064453
0, 0, 75, 163.5281829833984
0, 0, 76, 163.1798400878906
0, 0, 77, 172.1574249267578
0, 0, 78, 183.7268829345703
0, 0, 79, 175.6010131835938
0, 0, 80, 159.0047760009766
0, 0, 81, 159.6550445556641
0, 0, 82, 183.8828735351562
0, 0, 83, 174.2245483398438
0, 0, 84, 160.3073577880859
0, 0, 85, 181.5350341796875
0, 0, 86, 158.7582244873047
0, 0, 87, 176.4498291015625
0, 0, 88, 176.0767211914062
0, 0, 89, 175.6509704589844
0, 0, 90, 162.4413452148438
0, 0, 91, 189.1042633056641
0, 0, 92, 164.9940795898438
0, 0, 93, 157.94384765625
0, 0, 94, 170.0434875488281
0, 0, 95, 174.6188201904297
0, 0, 96, 185.5584869384766
0, 0, 97, 184.560546875
0, 0, 98, 186.0532989501953
0, 0, 99, 172.8701171875
0, 0, 100, 158.0963592529297
0, 0, 101, 166.4328765869141
0, 0, 102, 172.7625885009766
0, 0, 103, 170.7667694091797
0, 0, 104, 168.3996887207031
0, 0, 105, 177.3904266357422
0, 0, 106, 159.9798583984375
0, 0, 107, 86.62483978271484
0, 0, 108, 22.50050354003906
0, 0, 109, 10.45036697387695
0, 0, 110, 5.096497535705566
0, 0, 111, 6.470966339111328
0, 0, 112, 4.222728729248047
0, 0, 113, 2.428770542144775
0, 0, 114, 2.484771728515625
0, 0, 115, 3.119922876358032
0, 0, 116, 2.563274383544922
0, 0, 117, 2.620704889297485
0, 0, 118, 3.305663108825684
0, 0, 119, 2.164734601974487
0, 0, 120, 2.048889398574829
0, 0, 121, 3.88116455078125
0, 0, 122, 4.899610042572021
0, 0, 123, 3.233922958374023
0, 0, 124, 1.668776392936707
0, 0, 125, 2.185471534729004
0, 0, 126, 3.743975400924683
0, 0, 127, 1.604400873184204
0, 1, 0, 0.9537007212638855
0, 1, 1, 2.910366296768188
0, 1, 2, 4.606481552124023
0, 1, 3, 2.07459020614624
0, 1, 4, 1.626258492469788
0, 1, 5, 1.974857330322266
0, 1, 6, 1.205734848976135
0, 1, 7, 2.654574871063232
0, 1, 8, 1.555493950843811
0, 1, 9, 3.879415035247803
0, 1, 10, 3.181420803070068
0, 1, 11, 3.715435743331909
0, 1, 12, 2.621940851211548
0, 1, 13, 4.011634826660156
0, 1, 14, 5.24671745300293
0, 1, 15, 7.522046566009521
0, 1, 16, 8.10191822052002
0, 1, 17, 4.993526458740234
0, 1, 18, 10.37947368621826
0, 1, 19, 39.7106819152832
0, 1, 20, 125.2595062255859
0, 1, 21, 178.0722503662109
0, 1, 22, 192.8639068603516
0, 1, 23, 185.1534423828125
0, 1, 24, 180.797607421875
0, 1, 25, 192.3357543945312
0, 1, 26, 197.7967224121094
0, 1, 27, 186.2771759033203
0, 1, 28, 187.8873596191406
0, 1, 29, 183.4770660400391
0, 1, 30, 179.8113250732422
0, 1, 31, 181.1083374023438
0, 1, 32, 188.3778076171875
0, 1, 33, 189.8612518310547
0, 1, 34, 185.4082946777344
0, 1, 35, 192.5736389160156
0, 1, 36, 205.2290344238281
0, 1, 37, 184.1408081054688
0, 1, 38, 165.0641784667969
0, 1, 39, 171.4078369140625
0, 1, 40, 180.2922210693359
0, 1, 41, 185.0352325439453
0, 1, 42, 183.2879638671875
0, 1, 43, 186.0812683105469
0, 1, 44, 169.6507263183594
0, 1, 45, 188.3569641113281
0, 1, 46, 170.5395355224609
0, 1, 47, 186.0650939941406
0, 1, 48, 186.1564331054688
0, 1, 49, 188.0023803710938
0, 1, 50, 178.2552642822266
0, 1, 51, 189.5621643066406
0, 1, 52, 195.4788055419922
0, 1, 53, 195.7771301269531
0, 1, 54, 184.6152648925781
0, 1, 55, 165.6352996826172
0, 1, 56, 181.1322326660156
0, 1, 57, 177.5705413818359
0, 1, 58, 190.34814453125
0, 1, 59, 194.1634826660156
0, 1, 60, 187.7474517822266
0, 1, 61, 178.0337066650391
0, 1, 62, 206.5329895019531
0, 1, 63, 174.1250152587891
0, 1, 64, 174.1537170410156
0, 1, 65, 185.0402984619141
0, 1, 66, 203.6622772216797
0, 1, 67, 183.4762725830078
0, 1, 68, 186.910888671875
0, 1, 69, 188.9058227539062
0, 1, 70, 186.2782440185547
0, 1, 71, 171.3802337646484
0, 1, 72, 191.1085205078125
0, 1, 73, 191.3195343017578
0, 1, 74, 200.8827056884766
0, 1, 75, 183.5493621826172
0, 1, 76, 174.8381500244141
0, 1, 77, 191.192626953125
0, 1, 78, 188.3154602050781
0, 1, 79, 201.74267578125
0, 1, 80, 185.3994293212891
0, 1, 81, 174.9872283935547
0, 1, 82, 206.7829742431641
0, 1, 83, 212.3636169433594
0, 1, 84, 180.1015930175781
0, 1, 85, 169.6942291259766
0, 1, 86, 167.5248718261719
0, 1, 87, 185.4362487792969
0, 1, 88, 176.5703582763672
0, 1, 89, 188.0406341552734
0, 1, 90, 212.3146514892578
0, 1, 91, 180.3983306884766
0, 1, 92, 183.7625122070312
0, 1, 93, 180.6502838134766
0, 1, 94, 184.8445739746094
0, 1, 95, 182.8498992919922
0, 1, 96, 196.4986419677734
0, 1, 97, 182.5570220947266
0, 1, 98, 186.23388671875
0, 1, 99, 175.0638275146484
0, 1, 100, 171.3414459228516
0, 1, 101, 177.6903381347656
0, 1, 102, 181.9603881835938
0, 1, 103, 173.9681701660156
0, 1, 104, 190.0973205566406
0, 1, 105, 182.7911224365234
0, 1, 106, 163.8028411865234
0, 1, 107, 123.3278198242188
0, 1, 108, 46.67873001098633
0, 1, 109, 9.823954582214355
0, 1, 110, 6.467060089111328
0, 1, 111, 6.965620517730713
0, 1, 112, 7.417748928070068
0, 1, 113, 6.98116397857666
0, 1, 114, 5.07123851776123
0, 1, 115, 5.711312770843506
0, 1, 116, 3.086976289749146
0, 1, 117, 2.864997386932373
0, 1, 118, 4.456336975097656
0, 1, 119, 2.285647630691528
0, 1, 120, 2.82279372215271
0, 1, 121, 3.949867963790894
0, 1, 122, 2.804266214370728
0, 1, 123, 3.28828501701355
0, 1, 124, 2.347860813140869
0, 1, 125, 2.04162335395813
0, 1, 126, 2.216157674789429
0, 1, 127, 1.723180532455444
0, 2, 0, 1.733883023262024
0, 2, 1, 2.4833984375
0, 2, 2, 2.17962384223938
0, 2, 3, 1.988163948059082
0, 2, 4, 1.832482576370239
0, 2, 5, 1.096434354782104
0, 2, 6, 2.754426956176758
0, 2, 7, 5.073238849639893
0, 2, 8, 2.189059257507324
0, 2, 9, 1.989510655403137
0, 2, 10, 4.698460102081299
0, 2, 11, 3.870326042175293
0, 2, 12, 3.725333690643311
0, 2, 13, 4.232361316680908
0, 2, 14, 4.697805881500244
0, 2, 15, 6.503385066986084
0, 2, 16, 4.69959020614624
0, 2, 17, 9.248104095458984
0, 2, 18, 13.96074676513672
0, 2, 19, 77.65850830078125
0, 2, 20, 161.8060455322266
0, 2, 21, 184.4496459960938
0, 2, 22, 194.4403686523438
0, 2, 23, 183.6196441650391
0, 2, 24, 173.7928314208984
0, 2, 25, 183.305419921875
0, 2, 26, 178.9061126708984
0, 2, 27, 189.9896850585938
0, 2, 28, 170.6301574707031
0, 2, 29, 169.1852416992188
0, 2, 30, 187.2680358886719
0, 2, 31, 182.6990814208984
0, 2, 32, 183.8781433105469
0, 2, 33, 190.0402679443359
0, 2, 34, 199.4800415039062
0, 2, 35, 181.4632720947266
0, 2, 36, 186.6274719238281
0, 2, 37, 180.8348999023438
0, 2, 38, 184.2380676269531
0, 2, 39, 166.0354461669922
0, 2, 40, 184.6878051757812
0, 2, 41, 184.9546051025391
0, 2, 42, 189.4059448242188
0, 2, 43, 195.8089447021484
0, 2, 44, 192.4598846435547
0, 2, 45, 189.7409820556641
0, 2, 46, 196.2290954589844
0, 2, 47, 189.1860656738281
0, 2, 48, 176.7233428955078
0, 2, 49, 198.1011352539062
0, 2, 50, 168.0782623291016
0, 2, 51, 186.5050659179688
0, 2, 52, 186.2155914306641
0, 2, 53, 195.3589172363281
0, 2, 54, 175.8936309814453
0, 2, 55, 172.8594665527344
0, 2, 56, 181.3931579589844
0, 2, 57, 200.0010528564453
0, 2, 58, 187.2658081054688
0, 2, 59, 189.1974792480469
0, 2, 60, 196.7167053222656
0, 2, 61, 193.4954681396484
0, 2, 62, 190.7864074707031
0, 2, 63, 169.6790161132812
0, 2, 64, 188.6451416015625
0, 2, 65, 201.8896789550781
0, 2, 66, 196.0227661132812
0, 2, 67, 184.1801605224609
0, 2, 68, 183.4620208740234
0, 2, 69, 187.1824340820312
0, 2, 70, 202.1637878417969
0, 2, 71, 175.1280975341797
0, 2, 72, 185.573486328125
0, 2, 73, 178.0296478271484
0, 2, 74, 180.7684631347656
0, 2, 75, 196.2972869873047
0, 2, 76, 184.8450775146484
0, 2, 77, 177.4400787353516
0, 2, 78, 198.468017578125
0, 2, 79, 178.1673583984375
0, 2, 80, 186.0315093994141
0, 2, 81, 188.591064453125
0, 2, 82, 206.8975677490234
0, 2, 83, 204.3494415283203
0, 2, 84, 188.1823883056641
0, 2, 85, 171.5764312744141
0, 2, 86, 196.7250061035156
0, 2, 87, 171.6578216552734
0, 2, 88, 179.2999572753906
0, 2, 89, 185.3748779296875
0, 2, 90, 177.9451141357422
0, 2, 91, 174.4282379150391
0, 2, 92, 197.6563568115234
0, 2, 93, 193.8576812744141
0, 2, 94, 201.8523712158203
0, 2, 95, 194.3809814453125
0, 2, 96, 187.2639770507812
0, 2, 97, 171.3450012207031
0, 2, 98, 173.9597320556641
0, 2, 99, 162.774658203125
0, 2, 100, 187.8897247314453
0, 2, 101, 196.4314270019531
0, 2, 102, 176.5826568603516
0, 2, 103, 199.8439636230469
0, 2, 104, 187.461181640625
0, 2, 105, 202.4503479003906
0, 2, 106, 194.1451568603516
0, 2, 107, 149.0834503173828
0, 2, 108, 78.74380493164062
0, 2, 109, 17.70710182189941
0, 2, 110, 10.67154598236084
0, 2, 111, 6.209790229797363
0, 2, 112, 3.260514974594116
0, 2, 113, 4.058403015136719
0, 2, 114, 8.330754280090332
0, 2, 115, 2.716269254684448
0, 2, 116, 1.470106244087219
0, 2, 117, 2.439666748046875
0, 2, 118, 3.982004880905151
0, 2, 119, 2.488982915878296
0, 2, 120, 2.251560688018799
0, 2, 121, 3.253000736236572
0, 2, 122, 1.059326887130737
0, 2, 123, 3.741574764251709
0, 2, 124, 1.558534502983093
0, 2, 125, 1.759257555007935
0, 2, 126, 2.33661961555481
0, 2, 127, 1.63603401184082
0, 3, 0, 2.038026809692383
0, 3, 1, 2.167700529098511
0, 3, 2, 2.99073600769043
0, 3, 3, 1.281715393066406
0, 3, 4, 4.541609287261963
0, 3, 5, 1.98539137840271
0, 3, 6, 2.211981534957886
0, 3, 7, 1.512768149375916
0, 3, 8, 2.424968719482422
0, 3, 9, 1.794688940048218
0, 3, 10, 2.146039962768555
0, 3, 11, 3.587526798248291
0, 3, 12, 3.052000045776367
0, 3, 13, 4.60606050491333
0, 3, 14, 4.110699653625488
0, 3, 15, 9.412849426269531
0, 3, 16, 6.779458045959473
0, 3, 17, 6.29438591003418
0, 3, 18, 32.41090774536133
0, 3, 19, 116.8182830810547
0, 3, 20, 181.8311462402344
0, 3, 21, 173.8284149169922
0, 3, 22, 177.5075073242188
0, 3, 23, 187.6014556884766
0, 3, 24, 179.1624755859375
0, 3, 25, 168.4736328125
0, 3, 26, 180.3943786621094
0, 3, 27, 188.8427734375
0, 3, 28, 181.9938507080078
0, 3, 29, 197.28955078125
0, 3, 30, 186.15869140625
0, 3, 31, 194.5053253173828
0, 3, 32, 206.561279296875
0, 3, 33, 196.8136444091797
0, 3, 34, 187.8185729980469
0, 3, 35, 175.46240234375
0, 3, 36, 185.2082672119141
0, 3, 37, 200.9405670166016
0, 3, 38, 191.510986328125
0, 3, 39, 185.85302734375
0, 3, 40, 165.4813385009766
0, 3, 41, 174.4988708496094
0, 3, 42, 185.0135498046875
0, 3, 43, 182.0904541015625
0, 3, 44, 204.0158386230469
0, 3, 45, 208.6658782958984
0, 3, 46, 198.8935699462891
0, 3, 47, 194.5111541748047
0, 3, 48, 195.1090545654297
0, 3, 49, 180.5275268554688
0, 3, 50, 186.5205383300781
0, 3, 51, 175.4505767822266
0, 3, 52, 188.2765350341797
0, 3, 53, 177.3497467041016
0, 3, 54, 178.7218780517578
0, 3, 55, 176.9550933837891
0, 3, 56, 182.7628021240234
0, 3, 57, 174.6473541259766
0, 3, 58, 201.7816162109375
0, 3, 59, 195.2356262207031
0, 3, 60, 187.0348815917969
0, 3, 61, 181.4070587158203
0, 3, 62, 185.4665069580078
0, 3, 63, 184.0769195556641
0, 3, 64, 190.8967132568359
0, 3, 65, 186.8618469238281
0, 3, 66, 175.4882965087891
0, 3, 67, 189.7067565917969
0, 3, 68, 211.2327880859375
0, 3, 69, 190.3265686035156
0, 3, 70, 185.5022735595703
0, 3, 71, 196.3249816894531
0, 3, 72, 186.2241973876953
0, 3, 73, 186.4595489501953
0, 3, 74, 192.025146484375
0, 3, 75, 192.7484588623047
0, 3, 76, 191.0588226318359
0, 3, 77, 200.8374481201172
0, 3, 78, 191.148193359375
0, 3, 79, 185.2612915039062
0, 3, 80, 190.7162322998047
0, 3, 81, 184.9801177978516
0, 3, 82, 179.8757629394531
0, 3, 83, 194.5090179443359
0, 3, 84, 198.0529022216797
0, 3, 85, 191.0697326660156
0, 3, 86, 203.9853363037109
0, 3, 87, 197.5840301513672
0, 3, 88, 191.0796051025391
0, 3, 89, 193.5004425048828
0, 3, 90, 173.467041015625
0, 3, 91, 156.0932922363281
0, 3, 92, 206.9866943359375
0, 3, 93, 197.3422546386719
0, 3, 94, 194.7894897460938
0, 3, 95, 211.2343597412109
0, 3, 96, 209.0841369628906
0, 3, 97, 168.2717132568359
0, 3, 98, 168.3685302734375
0, 3, 99, 180.0294342041016
0, 3, 100, 178.2981719970703
0, 3, 101, 198.0466156005859
0, 3, 102, 194.5507507324219
0, 3, 103, 192.4651184082031
0, 3, 104, 202.9877319335938
0, 3, 105, 175.5637664794922
0, 3, 106, 181.162841796875
0, 3, 107, 170.9571685791016
0, 3, 108, 109.0931167602539
0, 3, 109, 26.82893753051758
0, 3, 110, 7.561651229858398
0, 3, 111, 6.588108539581299
0, 3, 112, 4.336771488189697
0, 3, 113, 7.69574499130249
0, 3, 114, 4.413733005523682
0, 3, 115, 4.559197902679443
0, 3, 116, 6.29942512512207
0, 3, 117, 4.165962696075439
0, 3, 118, 1.680531024932861
0, 3, 119, 2.713040828704834
0, 3, 120, 3.788437604904175
0, 3, 121, 2.499024391174316
0, 3, 122, 4.239654064178467
0, 3, 123, 1.28433883190155
0, 3, 124, 1.484084248542786
0, 3, 125, 1.084881663322449
0, 3, 126, 2.169086217880249
0, 3, 127, 1.835031151771545
0, 4, 0, 1.434127807617188
0, 4, 1, 0.8955039978027344
0, 4, 2, 2.585217714309692
0, 4, 3, 3.952834367752075
0, 4, 4, 1.431901216506958
0, 4, 5, 1.45820951461792
0, 4, 6, 2.259870052337646
0, 4, 7, 2.644985675811768
0, 4, 8, 1.274633646011353
0, 4, 9, 2.924254179000854
0, 4, 10, 3.56651782989502
0, 4, 11, 3.828471183776855
0, 4, 12, 4.660974502563477
0, 4, 13, 4.740646362304688
0, 4, 14, 4.013907432556152
0, 4, 15, 8.195927619934082
0, 4, 16, 5.673816204071045
0, 4, 17, 11.35393524169922
0, 4, 18, 55.49617767333984
0, 4, 19, 152.4736175537109
0, 4, 20, 193.2926025390625
0, 4, 21, 171.8942260742188
0, 4, 22, 187.2435760498047
0, 4, 23, 195.5881958007812
0, 4, 24, 193.1508026123047
0, 4, 25, 200.7754669189453
0, 4, 26, 182.91162109375
0, 4, 27, 190.2529296875
0, 4, 28, 179.8004302978516
0, 4, 29, 205.2749938964844
0, 4, 30, 195.9396667480469
0, 4, 31, 193.3945159912109
0, 4, 32, 209.4587097167969
0, 4, 33, 190.9614562988281
0, 4, 34, 194.1687774658203
0, 4, 35, 212.1156463623047
0, 4, 36, 193.0225830078125
0, 4, 37, 178.0265045166016
0, 4, 38, 194.2810211181641
0, 4, 39, 190.8711090087891
0, 4, 40, 184.9981536865234
0, 4, 41, 189.8182067871094
0, 4, 42, 205.9058532714844
0, 4, 43, 173.7451934814453
0, 4, 44, 183.9931182861328
0, 4, 45, 196.0182189941406
0, 4, 46, 186.1461791992188
0, 4, 47, 179.4304962158203
0, 4, 48, 184.8238372802734
0, 4, 49, 174.1730041503906
0, 4, 50, 185.3743438720703
0, 4, 51, 197.8138122558594
0, 4, 52, 223.5844268798828
0, 4, 53, 207.4756927490234
0, 4, 54, 189.6403503417969
0, 4, 55, 174.3582305908203
0, 4, 56, 190.5618286132812
0, 4, 57, 192.9588928222656
0, 4, 58, 188.1593933105469
0, 4, 59, 189.0659790039062
0, 4, 60, 196.7640533447266
0, 4, 61, 193.4946136474609
0, 4, 62, 190.6929016113281
0, 4, 63, 179.2249603271484
0, 4, 64, 210.7863616943359
0, 4, 65, 191.6820678710938
0, 4, 66, 200.6965942382812
0, 4, 67, 199.0072784423828
0, 4, 68, 202.2871246337891
0, 4, 69, 200.0688934326172
0, 4, 70, 205.4316864013672
0, 4, 71, 207.2279815673828
0, 4, 72, 215.7155456542969
0, 4, 73, 185.2360382080078
0, 4, 74, 180.8753356933594
0, 4, 75, 184.6557922363281
0, 4, 76, 190.5877685546875
0, 4, 77, 182.1131134033203
0, 4, 78, 194.7236938476562
0, 4, 79, 203.8274841308594
0, 4, 80, 211.4267120361328
0, 4, 81, 199.1219940185547
0, 4, 82, 181.2644958496094
0, 4, 83, 171.2168579101562
0, 4, 84, 193.4807891845703
0, 4, 85, 196.149658203125
0, 4, 86, 180.7815399169922
0, 4, 87, 184.1539154052734
0, 4, 88, 204.6401062011719
0, 4, 89, 187.2636108398438
0, 4, 90, 211.486572265625
0, 4, 91, 189.4570159912109
0, 4, 92, 197.6204986572266
0, 4, 93, 196.2595672607422
0, 4, 94, 182.1751251220703
0, 4, 95, 175.3614959716797
0, 4, 96, 189.6907958984375
0, 4, 97, 192.2515411376953
0, 4, 98, 200.2506408691406
0, 4, 99, 183.6083068847656
0, 4, 100, 181.9912567138672
0, 4, 101, 177.6397094726562
0, 4, 102, 173.5001068115234
0, 4, 103, 185.1673736572266
0, 4, 104, 210.9293518066406
0, 4, 105, 189.6457977294922
0, 4, 106, 179.8697509765625
0, 4, 107, 180.6900634765625
0, 4, 108, 151.3582305908203
0, 4, 109, 51.07733535766602
0, 4, 110, 11.48221302032471
0, 4, 111, 9.961580276489258
0, 4, 112, 6.559970378875732
0, 4, 113, 5.553221225738525
0, 4, 114, 5.579349994659424
0, 4, 115, 3.513352870941162
0, 4, 116, 4.787862777709961
0, 4, 117, 2.999444484710693
0, 4, 118, 3.149399995803833
0, 4, 119, 3.484580755233765
0, 4, 120, 2.907558679580688
0, 4, 121, 2.35004734992981
0, 4, 122, 3.400564193725586
0, 4, 123, 2.239210844039917
0, 4, 124, 3.579181432723999
0, 4, 125, 2.79381251335144
0, 4, 126, 1.677372932434082
0, 4, 127, 1.878412485122681
0, 5, 0, 1.773861885070801
0, 5, 1, 2.100491762161255
0, 5, 2, 5.284602165222168
0, 5, 3, 3.867111444473267
0, 5, 4, 2.477493286132812
0, 5, 5, 1.77184522151947
0, 5, 6, 2.686999559402466
0, 5, 7, 2.767199039459229
0, 5, 8, 2.525510549545288
0, 5, 9, 2.293647289276123
0, 5, 10, 3.77125096321106
0, 5, 11, 3.639659643173218
0, 5, 12, 4.066039562225342
0, 5, 13, 4.003911018371582
0, 5, 14, 4.788947582244873
0, 5, 15, 9.709255218505859
0, 5, 16, 7.657827854156494
0, 5, 17, 21.4229907989502
0, 5, 18, 82.87844085693359
0, 5, 19, 164.0452270507812
0, 5, 20, 183.4642486572266
0, 5, 21, 178.1710052490234
0, 5, 22, 170.0217590332031
0, 5, 23, 200.7094421386719
0, 5, 24, 187.2359924316406
0, 5, 25, 206.9412841796875
0, 5, 26, 183.6011810302734
0, 5, 27, 194.8692169189453
0, 5, 28, 189.1202239990234
0, 5, 29, 196.2428741455078
0, 5, 30, 178.3418121337891
0, 5, 31, 181.774169921875
0, 5, 32, 186.6222534179688
0, 5, 33, 170.934326171875
0, 5, 34, 195.1883392333984
0, 5, 35, 196.44140625
0, 5, 36, 167.5919494628906
0, 5, 37, 197.3354187011719
0, 5, 38, 180.8384094238281
0, 5, 39, 186.3630828857422
0, 5, 40, 196.5252380371094
0, 5, 41, 176.9028472900391
0, 5, 42, 186.7389068603516
0, 5, 43, 191.7676544189453
0, 5, 44, 199.9050445556641
0, 5, 45, 186.2938842773438
0, 5, 46, 192.6941223144531
0, 5, 47, 180.8628082275391
0, 5, 48, 177.6550598144531
0, 5, 49, 177.3950042724609
0, 5, 50, 185.5531616210938
0, 5, 51, 171.7555694580078
0, 5, 52, 168.4951019287109
0, 5, 53, 182.0951843261719
0, 5, 54, 172.5321807861328
0, 5, 55, 215.4910888671875
0, 5, 56, 181.3971405029297
0, 5, 57, 207.4944305419922
0, 5, 58, 181.3472595214844
0, 5, 59, 180.2589416503906
0, 5, 60, 220.0005187988281
0, 5, 61, 184.1119842529297
0, 5, 62, 178.0393524169922
0, 5, 63, 179.8701019287109
0, 5, 64, 195.6766357421875
0, 5, 65, 209.3501129150391
0, 5, 66, 192.0953826904297
0, 5, 67, 199.0885467529297
0, 5, 68, 187.9554748535156
0, 5, 69, 186.4098968505859
0, 5, 70, 184.9325256347656
0, 5, 71, 193.1595001220703
0, 5, 72, 197.4950408935547
0, 5, 73, 201.353515625
0, 5, 74, 179.1325836181641
0, 5, 75, 203.2554473876953
0, 5, 76, 213.7491912841797
0, 5, 77, 180.7200469970703
0, 5, 78, 194.4493560791016
0, 5, 79, 190.9253692626953
0, 5, 80, 197.2026519775391
0, 5, 81, 203.1414794921875
0, 5, 82, 203.5432281494141
0, 5, 83, 187.9284362792969
0, 5, 84, 205.1061859130859
0, 5, 85, 175.9610443115234
0, 5, 86, 195.5427551269531
0, 5, 87, 187.5393218994141
0, 5, 88, 177.0955352783203
0, 5, 89, 195.1243286132812
0, 5, 90, 199.3975372314453
0, 5, 91, 193.8760070800781
0, 5, 92, 192.4803619384766
0, 5, 93, 190.1295776367188
0, 5, 94, 207.4777374267578
0, 5, 95, 176.6493530273438
0, 5, 96, 182.1516876220703
0, 5, 97, 191.6029815673828
0, 5, 98, 190.7443542480469
0, 5, 99, 194.8841552734375
0, 5, 100, 186.3590240478516
0, 5, 101, 195.7442474365234
0, 5, 102, 181.0452117919922
0, 5, 103, 176.9072113037109
0, 5, 104, 190.799072265625
0, 5, 105, 189.7656860351562
0, 5, 106, 177.1781005859375
0, 5, 107, 181.4613494873047
0, 5, 108, 175.489501953125
0, 5, 109, 90.07926940917969
0, 5, 110, 30.5438232421875
0, 5, 111, 10.32506942749023
0, 5, 112, 6.473697185516357
0, 5, 113, 9.58501148223877
0, 5, 114, 7.101446628570557
0, 5, 115, 7.273128032684326
0, 5, 116, 3.676232099533081
0, 5, 117, 2.803860425949097
0, 5, 118, 4.041069984436035
0, 5, 119, 3.802855253219604
0, 5, 120, 2.416455984115601
0, 5, 121, 1.051611423492432
0, 5, 122, 3.816015005111694
0, 5, 123, 4.050457000732422
0, 5, 124, 2.69933009147644
0, 5, 125, 0.9194647073745728
0, 5, 126, 2.136199951171875
0, 5, 127, 1.636531591415405
0, 6, 0, 4.975853443145752
0, 6, 1, 3.068892240524292
0, 6, 2, 4.343844890594482
0, 6, 3, 1.848857998847961
0, 6, 4, 3.487001895904541
0, 6, 5, 4.321709632873535
0, 6, 6, 2.820353746414185
0, 6, 7, 3.295889377593994
0, 6, 8, 3.190146207809448
0, 6, 9, 3.143603086471558
0, 6, 10, 4.277259349822998
0, 6, 11, 4.236880302429199
0, 6, 12, 5.582815170288086
0, 6, 13, 5.360661029815674
0, 6, 14, 6.306868553161621
0, 6, 15, 6.788360595703125
0, 6, 16, 14.02966976165771
0, 6, 17, 28.52360343933105
0, 6, 18, 112.1444702148438
0, 6, 19, 190.0782012939453
0, 6, 20, 195.0094146728516
0, 6, 21, 198.6596374511719
0, 6, 22, 190.8172454833984
0, 6, 23, 190.4483184814453
0, 6, 24, 201.0954132080078
0, 6, 25, 183.6455383300781
0, 6, 26, 187.6470184326172
0, 6, 27, 193.2619323730469
0, 6, 28, 188.7702331542969
0, 6, 29, 210.4388275146484
0, 6, 30, 189.8875427246094
0, 6, 31, 192.9582366943359
0, 6, 32, 205.8154907226562
0, 6, 33, 185.0641479492188
0, 6, 34, 196.2372436523438
0, 6, 35, 188.8852386474609
0, 6, 36, 179.2141418457031
0, 6, 37, 182.7849884033203
0, 6, 38, 186.7422485351562
0, 6, 39, 195.1441497802734
0, 6, 40, 174.1296844482422
0, 6, 41, 184.7896728515625
0, 6, 42, 176.0816802978516
0, 6, 43, 208.6624450683594
0, 6, 44, 209.6981658935547
0, 6, 45, 193.5802459716797
0, 6, 46, 188.0242614746094
0, 6, 47, 204.5140991210938
0, 6, 48, 188.0533752441406
0, 6, 49, 179.8854370117188
0, 6, 50, 181.3882904052734
0, 6, 51, 196.3316650390625
0, 6, 52, 197.330078125
0, 6, 53, 185.2158966064453
0, 6, 54, 175.15380859375
0, 6, 55, 194.5894775390625
0, 6, 56, 203.0794372558594
0, 6, 57, 190.9748687744141
0, 6, 58, 178.2132873535156
0, 6, 59, 192.6976928710938
0, 6, 60, 184.1935424804688
0, 6, 61, 194.6128845214844
0, 6, 62, 196.6839447021484
0, 6, 63, 186.7530822753906
0, 6, 64, 168.69189453125
0, 6, 65, 186.7458343505859
0, 6, 66, 198.6298522949219
0, 6, 67, 215.0134429931641
0, 6, 68, 180.7145080566406
0, 6, 69, 170.714111328125
0, 6, 70, 187.2195129394531
0, 6, 71, 171.8200531005859
0, 6, 72, 175.9400177001953
0, 6, 73, 177.5223541259766
0, 6, 74, 211.7527618408203
0, 6, 75, 227.8014831542969
0, 6, 76, 184.2962036132812
0, 6, 77, 173.3016967773438
0, 6, 78, 175.0165557861328
0, 6, 79, 187.6533203125
0, 6, 80, 187.2099456787109
0, 6, 81, 209.7833557128906
0, 6, 82, 195.6863555908203
0, 6, 83, 194.2533264160156
0, 6, 84, 197.7984313964844
0, 6, 85, 184.3074645996094
0, 6, 86, 201.2549133300781
0, 6, 87, 183.3291015625
0, 6, 88, 192.3246917724609
0, 6, 89, 188.4411926269531
0, 6, 90, 207.8614196777344
0, 6, 91, 201.2017517089844
0, 6, 92, 174.0149383544922
0, 6, 93, 193.5634918212891
0, 6, 94, 190.1538848876953
0, 6, 95, 185.4814300537109
0, 6, 96, 188.9890899658203
0, 6, 97, 192.9416198730469
0, 6, 98, 182.8552703857422
0, 6, 99, 175.846923828125
0, 6, 100, 202.1006927490234
0, 6, 101, 168.0075073242188
0, 6, 102, 201.4640045166016
0, 6, 103, 197.1221466064453
0, 6, 104, 183.7560882568359
0, 6, 105, 193.5695190429688
0, 6, 106, 177.0596618652344
0, 6, 107, 196.7862396240234
0, 6, 108, 171.7352752685547
0, 6, 109, 115.0596466064453
0, 6, 110, 34.1146240234375
0, 6, 111, 10.07959270477295
0, 6, 112, 8.918469429016113
0, 6, 113, 8.262985229492188
0, 6, 114, 6.251445293426514
0, 6, 115, 6.763553619384766
0, 6, 116, 5.332694530487061
0, 6, 117, 4.440694808959961
0, 6, 118, 3.783762454986572
0, 6, 119, 4.785305500030518
0, 6, 120, 2.442598104476929
0, 6, 121, 3.593994617462158
0, 6, 122, 3.304438352584839
0, 6, 123, 3.565388679504395
0, 6, 124, 1.64311671257019
0, 6, 125, 4.213462352752686
0, 6, 126, 1.935513257980347
0, 6, 127, 2.944091558456421
0, 7, 0, 3.353208541870117
0, 7, 1, 2.618499517440796
0, 7, 2, 2.498131275177002
0, 7, 3, 2.489648818969727
0, 7, 4, 0.9622819423675537
0, 7, 5, 1.415746331214905
0, 7, 6, 2.14214038848877
0, 7, 7, 1.559774875640869
0, 7, 8, 3.386110544204712
0, 7, 9, 3.09475302696228
0, 7, 10, 4.740120887756348
0, 7, 11, 2.797956943511963
0, 7, 12, 2.666714191436768
0, 7, 13, 5.983710765838623
0, 7, 14, 6.533157825469971
0, 7, 15, 8.119948387145996
0, 7, 16, 14.91944694519043
0, 7, 17, 49.61832809448242
0, 7, 18, 161.8238067626953
0, 7, 19, 182.2362976074219
0, 7, 20, 178.9505310058594
0, 7, 21, 180.5538635253906
0, 7, 22, 191.3601226806641
0, 7, 23, 201.8965148925781
0, 7, 24, 178.7254791259766
0, 7, 25, 214.1625213623047
0, 7, 26, 190.3460083007812
0, 7, 27, 184.3681030273438
0, 7, 28, 182.9889984130859
0, 7, 29, 208.3392944335938
0, 7, 30, 192.60791015625
0, 7, 31, 176.1965484619141
0, 7, 32, 190.5650177001953
0, 7, 33, 181.4412384033203
0, 7, 34, 192.8156890869141
0, 7, 35, 197.5506591796875
0, 7, 36, 188.0592803955078
0, 7, 37, 213.4734497070312
0, 7, 38, 191.0393981933594
0, 7, 39, 173.1314239501953
0, 7, 40, 184.2018280029297
0, 7, 41, 184.7038421630859
0, 7, 42, 178.5015411376953
0, 7, 43, 178.3097991943359
0, 7, 44, 181.2873229980469
0, 7, 45, 175.0874786376953
0, 7, 46, 190.2026062011719
0, 7, 47, 200.3632202148438
0, 7, 48, 186.8030395507812
0, 7, 49, 200.4869689941406
0, 7, 50, 189.6486053466797
0, 7, 51, 205.3199615478516
0, 7, 52, 203.9925231933594
0, 7, 53, 192.9166259765625
0, 7, 54, 195.2014923095703
0, 7, 55, 202.4329528808594
0, 7, 56, 182.9852905273438
0, 7, 57, 182.8496856689453
0, 7, 58, 193.0944519042969
0, 7, 59, 187.136474609375
0, 7, 60, 203.7734527587891
0, 7, 61, 171.3045043945312
0, 7, 62, 202.6935119628906
0, 7, 63, 189.3835754394531
0, 7, 64, 200.9167022705078
0, 7, 65, 196.6151580810547
0, 7, 66, 206.4328918457031
0, 7, 67, 221.1533508300781
0, 7, 68, 163.7903289794922
0, 7, 69, 195.5799560546875
0, 7, 70, 216.7161865234375
0, 7, 71, 184.1676635742188
0, 7, 72, 180.1182861328125
0, 7, 73, 177.0172729492188
0, 7, 74, 207.4205780029297
0, 7, 75, 204.0734405517578
0, 7, 76, 214.4340362548828
0, 7, 77, 173.2030029296875
0, 7, 78, 176.6742553710938
0, 7, 79, 193.0232696533203
0, 7, 80, 195.5676422119141
0, 7, 81, 215.0325622558594
0, 7, 82, 185.9830780029297
0, 7, 83, 205.9650421142578
0, 7, 84, 192.4940185546875
0, 7, 85, 186.1391448974609
0, 7, 86, 199.9204864501953
0, 7, 87, 225.4198303222656
0, 7, 88, 196.8774871826172
0, 7, 89, 175.8260650634766
0, 7, 90, 182.2588958740234
0, 7, 91, 194.5687255859375
0, 7, 92, 193.2325744628906
0, 7, 93, 197.5525512695312
0, 7, 94, 177.7516632080078
0, 7, 95, 197.8600463867188
0, 7, 96, 208.5966033935547
0, 7, 97, 188.0726470947266
0, 7, 98, 177.1839141845703
0, 7, 99, 201.0195770263672
0, 7, 100, 182.3372955322266
0, 7, 101, 199.5308380126953
0, 7, 102, 184.9148406982422
0, 7, 103, 180.6169128417969
0, 7, 104, 175.1704406738281
0, 7, 105, 195.7806091308594
0, 7, 106, 205.9657745361328
0, 7, 107, 172.3047790527344
0, 7, 108, 176.9889068603516
0, 7, 109, 137.4541473388672
0, 7, 110, 53.7828369140625
0, 7, 111, 8.536275863647461
0, 7, 112, 7.642271995544434
0, 7, 113, 8.304159164428711
0, 7, 114, 6.582745552062988
0, 7, 115, 4.744375705718994
0, 7, 116, 3.998064994812012
0, 7, 117, 2.747315883636475
0, 7, 118, 4.012383937835693
0, 7, 119, 2.884867906570435
0, 7, 120, 3.12681770324707
0, 7, 121, 2.602328777313232
0, 7, 122, 2.223535537719727
0, 7, 123, 1.104928135871887
0, 7, 124, 2.072941303253174
0, 7, 125, 2.692078590393066
0, 7, 126, 1.99474573135376
0, 7, 127, 1.246489763259888
0, 8, 0, 3.728055238723755
0, 8, 1, 1.787251234054565
0, 8, 2, 2.514403343200684
0, 8, 3, 2.568282604217529
0, 8, 4, 1.142075657844543
0, 8, 5, 3.195638418197632
0, 8, 6, 1.6501384973526
0, 8, 7, 3.490190267562866
0, 8, 8, 5.716634273529053
0, 8, 9, 6.091975688934326
0, 8, 10, 3.245700597763062
0, 8, 11, 2.187740564346313
0, 8, 12, 4.198172569274902
0, 8, 13, 6.315075874328613
0, 8, 14, 6.361075401306152
0, 8, 15, 8.115455627441406
0, 8, 16, 21.67597961425781
0, 8, 17, 76.0941162109375
0, 8, 18, 143.0865020751953
0, 8, 19, 178.89111328125
0, 8, 20, 193.6753387451172
0, 8, 21, 192.6808471679688
0, 8, 22, 179.1466217041016
0, 8, 23, 174.3086242675781
0, 8, 24, 192.1944122314453
0, 8, 25, 185.9197235107422
0, 8, 26, 193.3344573974609
0, 8, 27, 186.8296051025391
0, 8, 28, 185.6999816894531
0, 8, 29, 207.0530090332031
0, 8, 30, 195.7406921386719
0, 8, 31, 181.4045867919922
0, 8, 32, 197.6654815673828
0, 8, 33, 208.1068725585938
0, 8, 34, 202.9297637939453
0, 8, 35, 184.5101318359375
0, 8, 36, 182.4344329833984
0, 8, 37, 198.1593322753906
