# TOPAS Version: 3.1.p3
# Parameter File: batch_inserts_306.txt
# Results for scorer Readout_Adipose
# Scored in component: MyBox
# X in 1 bin  of 0.65 cm
# Y in 512 bins of 0.0783984 cm
# Z in 128 bins of 0.078125 cm
# EnergyDeposit ( MeV ) : Sum   
0, 0, 0, 1.37839686870575
0, 0, 1, 3.004538774490356
0, 0, 2, 2.406343460083008
0, 0, 3, 0.6818578243255615
0, 0, 4, 2.992508411407471
0, 0, 5, 1.557613611221313
0, 0, 6, 1.080972075462341
0, 0, 7, 2.421102285385132
0, 0, 8, 2.465110301971436
0, 0, 9, 2.395119428634644
0, 0, 10, 2.119865417480469
0, 0, 11, 3.942719697952271
0, 0, 12, 5.261802673339844
0, 0, 13, 2.318203926086426
0, 0, 14, 4.864831447601318
0, 0, 15, 5.417729377746582
0, 0, 16, 4.276544094085693
0, 0, 17, 5.732421398162842
0, 0, 18, 6.064905643463135
0, 0, 19, 23.26996040344238
0, 0, 20, 94.06484985351562
0, 0, 21, 155.7827606201172
0, 0, 22, 155.0239410400391
0, 0, 23, 143.9926147460938
0, 0, 24, 160.1745452880859
0, 0, 25, 166.6538391113281
0, 0, 26, 166.6923065185547
0, 0, 27, 175.3678894042969
0, 0, 28, 177.7864990234375
0, 0, 29, 175.2496337890625
0, 0, 30, 172.0439453125
0, 0, 31, 166.4378356933594
0, 0, 32, 164.9072113037109
0, 0, 33, 166.3332061767578
0, 0, 34, 178.2899475097656
0, 0, 35, 174.2253112792969
0, 0, 36, 158.9097595214844
0, 0, 37, 160.7451934814453
0, 0, 38, 165.8498687744141
0, 0, 39, 159.7317657470703
0, 0, 40, 164.8486022949219
0, 0, 41, 167.0093078613281
0, 0, 42, 144.1035614013672
0, 0, 43, 169.0000152587891
0, 0, 44, 177.7152252197266
0, 0, 45, 172.3120727539062
0, 0, 46, 167.2833709716797
0, 0, 47, 167.6944885253906
0, 0, 48, 169.4591217041016
0, 0, 49, 183.1026306152344
0, 0, 50, 170.7417144775391
0, 0, 51, 162.3849029541016
0, 0, 52, 162.0527496337891
0, 0, 53, 170.7173309326172
0, 0, 54, 159.4991149902344
0, 0, 55, 164.0595397949219
0, 0, 56, 188.9319000244141
0, 0, 57, 170.2277374267578
0, 0, 58, 162.5050811767578
0, 0, 59, 172.3671875
0, 0, 60, 169.4991149902344
0, 0, 61, 169.9430389404297
0, 0, 62, 184.4020843505859
0, 0, 63, 167.7938690185547
0, 0, 64, 163.9817657470703
0, 0, 65, 177.2662048339844
0, 0, 66, 178.9393768310547
0, 0, 67, 163.1351776123047
0, 0, 68, 158.1832275390625
0, 0, 69, 158.9869842529297
0, 0, 70, 169.7241516113281
0, 0, 71, 158.6985778808594
0, 0, 72, 162.9444732666016
0, 0, 73, 172.4682006835938
0, 0, 74, 164.0874633789062
0, 0, 75, 163.4076385498047
0, 0, 76, 162.7616729736328
0, 0, 77, 172.3347778320312
0, 0, 78, 181.8469085693359
0, 0, 79, 174.3985748291016
0, 0, 80, 160.5973205566406
0, 0, 81, 160.7191925048828
0, 0, 82, 180.9825439453125
0, 0, 83, 172.1901397705078
0, 0, 84, 160.3243713378906
0, 0, 85, 181.1696929931641
0, 0, 86, 158.4846649169922
0, 0, 87, 176.7696685791016
0, 0, 88, 177.340087890625
0, 0, 89, 176.42724609375
0, 0, 90, 161.3731536865234
0, 0, 91, 184.0453948974609
0, 0, 92, 165.3089294433594
0, 0, 93, 157.3319396972656
0, 0, 94, 168.2986907958984
0, 0, 95, 173.3811950683594
0, 0, 96, 184.1148986816406
0, 0, 97, 183.8603515625
0, 0, 98, 186.6706237792969
0, 0, 99, 171.8576965332031
0, 0, 100, 159.25
0, 0, 101, 166.9254302978516
0, 0, 102, 169.8734893798828
0, 0, 103, 170.1964874267578
0, 0, 104, 169.0223388671875
0, 0, 105, 176.9365844726562
0, 0, 106, 158.4355163574219
0, 0, 107, 86.29969024658203
0, 0, 108, 21.06716728210449
0, 0, 109, 9.15464973449707
0, 0, 110, 7.398444652557373
0, 0, 111, 7.529319763183594
0, 0, 112, 3.545831203460693
0, 0, 113, 3.230154752731323
0, 0, 114, 4.202776908874512
0, 0, 115, 2.1285719871521
0, 0, 116, 3.052670478820801
0, 0, 117, 2.742374658584595
0, 0, 118, 3.132879495620728
0, 0, 119, 1.50746476650238
0, 0, 120, 1.365445137023926
0, 0, 121, 4.489889144897461
0, 0, 122, 4.526108741760254
0, 0, 123, 3.513195753097534
0, 0, 124, 1.754810333251953
0, 0, 125, 2.327329397201538
0, 0, 126, 0.5465845465660095
0, 0, 127, 2.915202856063843
0, 1, 0, 3.274643659591675
0, 1, 1, 5.110250949859619
0, 1, 2, 3.968789100646973
0, 1, 3, 1.055933952331543
0, 1, 4, 1.134239315986633
0, 1, 5, 1.472262144088745
0, 1, 6, 1.458220839500427
0, 1, 7, 2.019079446792603
0, 1, 8, 1.789341688156128
0, 1, 9, 1.992094755172729
0, 1, 10, 1.818643569946289
0, 1, 11, 3.782214879989624
0, 1, 12, 2.930504083633423
0, 1, 13, 3.385033845901489
0, 1, 14, 6.888656616210938
0, 1, 15, 5.93373966217041
0, 1, 16, 7.478427410125732
0, 1, 17, 5.99052906036377
0, 1, 18, 11.60109996795654
0, 1, 19, 39.36224365234375
0, 1, 20, 126.478271484375
0, 1, 21, 177.6447601318359
0, 1, 22, 193.2235107421875
0, 1, 23, 185.2507781982422
0, 1, 24, 180.3851928710938
0, 1, 25, 192.8336334228516
0, 1, 26, 198.6389617919922
0, 1, 27, 185.9604034423828
0, 1, 28, 188.4283599853516
0, 1, 29, 183.8090667724609
0, 1, 30, 180.2209167480469
0, 1, 31, 182.5492401123047
0, 1, 32, 188.2454071044922
0, 1, 33, 189.3686370849609
0, 1, 34, 185.7153625488281
0, 1, 35, 192.8503112792969
0, 1, 36, 206.4192047119141
0, 1, 37, 184.9013061523438
0, 1, 38, 164.9047546386719
0, 1, 39, 171.7047424316406
0, 1, 40, 181.3053588867188
0, 1, 41, 186.1758422851562
0, 1, 42, 182.2613525390625
0, 1, 43, 186.0317535400391
0, 1, 44, 168.2800598144531
0, 1, 45, 186.1428070068359
0, 1, 46, 170.5298461914062
0, 1, 47, 186.19091796875
0, 1, 48, 186.2991485595703
0, 1, 49, 186.7209014892578
0, 1, 50, 177.2991027832031
0, 1, 51, 191.3706665039062
0, 1, 52, 197.1371002197266
0, 1, 53, 196.1811676025391
0, 1, 54, 185.0375061035156
0, 1, 55, 165.1625671386719
0, 1, 56, 178.2953033447266
0, 1, 57, 178.3484954833984
0, 1, 58, 187.9612579345703
0, 1, 59, 193.7850036621094
0, 1, 60, 187.7455139160156
0, 1, 61, 178.3416137695312
0, 1, 62, 204.9477691650391
0, 1, 63, 175.5792999267578
0, 1, 64, 174.8240356445312
0, 1, 65, 184.6425323486328
0, 1, 66, 203.6549987792969
0, 1, 67, 183.0098876953125
0, 1, 68, 186.5004119873047
0, 1, 69, 189.4184112548828
0, 1, 70, 185.2447662353516
0, 1, 71, 170.9331970214844
0, 1, 72, 187.5461273193359
0, 1, 73, 190.0514373779297
0, 1, 74, 201.2442474365234
0, 1, 75, 183.7745056152344
0, 1, 76, 175.1701354980469
0, 1, 77, 191.9759216308594
0, 1, 78, 187.5641326904297
0, 1, 79, 202.1684417724609
0, 1, 80, 186.5328063964844
0, 1, 81, 176.1759796142578
0, 1, 82, 207.1624603271484
0, 1, 83, 210.8955383300781
0, 1, 84, 179.9209136962891
0, 1, 85, 169.2970581054688
0, 1, 86, 169.302490234375
0, 1, 87, 185.0059967041016
0, 1, 88, 175.3680419921875
0, 1, 89, 189.0042114257812
0, 1, 90, 214.3095092773438
0, 1, 91, 182.4947204589844
0, 1, 92, 183.7957611083984
0, 1, 93, 184.0724487304688
0, 1, 94, 187.9629364013672
0, 1, 95, 183.614990234375
0, 1, 96, 196.2308349609375
0, 1, 97, 184.0148620605469
0, 1, 98, 185.9612121582031
0, 1, 99, 175.2869873046875
0, 1, 100, 172.4187774658203
0, 1, 101, 177.7984466552734
0, 1, 102, 182.3499603271484
0, 1, 103, 172.8779449462891
0, 1, 104, 190.0154724121094
0, 1, 105, 182.9295196533203
0, 1, 106, 163.9905395507812
0, 1, 107, 124.0873107910156
0, 1, 108, 45.99720001220703
0, 1, 109, 10.03926658630371
0, 1, 110, 7.239960193634033
0, 1, 111, 6.49245023727417
0, 1, 112, 7.141282558441162
0, 1, 113, 8.902997016906738
0, 1, 114, 4.465253829956055
0, 1, 115, 2.879669427871704
0, 1, 116, 1.971092104911804
0, 1, 117, 2.045640468597412
0, 1, 118, 3.071110725402832
0, 1, 119, 2.843549728393555
0, 1, 120, 4.027975082397461
0, 1, 121, 5.178297519683838
0, 1, 122, 2.388214349746704
0, 1, 123, 2.550753593444824
0, 1, 124, 1.832186102867126
0, 1, 125, 1.989534616470337
0, 1, 126, 0.8167405724525452
0, 1, 127, 2.50178337097168
0, 2, 0, 1.235281705856323
0, 2, 1, 1.682631492614746
0, 2, 2, 2.304330348968506
0, 2, 3, 2.348219394683838
0, 2, 4, 1.084088683128357
0, 2, 5, 0.9047446250915527
0, 2, 6, 3.415951490402222
0, 2, 7, 0.8819777369499207
0, 2, 8, 1.639857649803162
0, 2, 9, 3.625489711761475
0, 2, 10, 6.025962829589844
0, 2, 11, 4.338501453399658
0, 2, 12, 4.491434574127197
0, 2, 13, 2.908398628234863
0, 2, 14, 3.923700332641602
0, 2, 15, 5.376965045928955
0, 2, 16, 5.406311511993408
0, 2, 17, 9.237109184265137
0, 2, 18, 14.20683670043945
0, 2, 19, 76.95770263671875
0, 2, 20, 162.6294097900391
0, 2, 21, 183.7767639160156
0, 2, 22, 194.0979919433594
0, 2, 23, 184.0718841552734
0, 2, 24, 173.3747711181641
0, 2, 25, 183.776123046875
0, 2, 26, 178.8324890136719
0, 2, 27, 191.4495544433594
0, 2, 28, 172.0560913085938
0, 2, 29, 168.5899353027344
0, 2, 30, 184.6530151367188
0, 2, 31, 182.2473449707031
0, 2, 32, 182.9794616699219
0, 2, 33, 192.0622863769531
0, 2, 34, 196.1545562744141
0, 2, 35, 182.1054229736328
0, 2, 36, 186.5986785888672
0, 2, 37, 180.4997863769531
0, 2, 38, 184.9922332763672
0, 2, 39, 166.1271820068359
0, 2, 40, 183.7605438232422
0, 2, 41, 182.8228302001953
0, 2, 42, 189.4946746826172
0, 2, 43, 193.9801635742188
0, 2, 44, 191.1274719238281
0, 2, 45, 190.7276153564453
0, 2, 46, 196.0797424316406
0, 2, 47, 188.62109375
0, 2, 48, 178.5405120849609
0, 2, 49, 198.4628448486328
0, 2, 50, 168.8009643554688
0, 2, 51, 183.6328735351562
0, 2, 52, 186.6035919189453
0, 2, 53, 197.5912780761719
0, 2, 54, 178.2411041259766
0, 2, 55, 173.5084533691406
0, 2, 56, 181.8807067871094
0, 2, 57, 199.9140167236328
0, 2, 58, 189.3629302978516
0, 2, 59, 190.5398712158203
0, 2, 60, 196.8480377197266
0, 2, 61, 192.7813415527344
0, 2, 62, 190.0409851074219
0, 2, 63, 169.6079711914062
0, 2, 64, 188.9403381347656
0, 2, 65, 206.0121002197266
0, 2, 66, 196.18896484375
0, 2, 67, 185.2133026123047
0, 2, 68, 182.6641082763672
0, 2, 69, 188.4804382324219
0, 2, 70, 202.4285736083984
0, 2, 71, 174.3556518554688
0, 2, 72, 185.4491119384766
0, 2, 73, 177.0719604492188
0, 2, 74, 180.5026397705078
0, 2, 75, 195.9918060302734
0, 2, 76, 183.7395782470703
0, 2, 77, 178.162109375
0, 2, 78, 197.4517211914062
0, 2, 79, 178.9638824462891
0, 2, 80, 184.8749542236328
0, 2, 81, 186.2166900634766
0, 2, 82, 204.2281951904297
0, 2, 83, 203.3350677490234
0, 2, 84, 189.5039825439453
0, 2, 85, 171.5751953125
0, 2, 86, 194.1148071289062
0, 2, 87, 172.7211761474609
0, 2, 88, 177.7368469238281
0, 2, 89, 187.6755981445312
0, 2, 90, 177.5268859863281
0, 2, 91, 172.2244415283203
0, 2, 92, 196.4613494873047
0, 2, 93, 191.83349609375
0, 2, 94, 200.4342803955078
0, 2, 95, 193.1510925292969
0, 2, 96, 187.2699279785156
0, 2, 97, 171.1003112792969
0, 2, 98, 173.3355102539062
0, 2, 99, 162.1012115478516
0, 2, 100, 187.9563751220703
0, 2, 101, 196.4136657714844
0, 2, 102, 176.2025756835938
0, 2, 103, 201.5522155761719
0, 2, 104, 187.5140838623047
0, 2, 105, 200.1287841796875
0, 2, 106, 195.0036163330078
0, 2, 107, 148.7932891845703
0, 2, 108, 79.03015899658203
0, 2, 109, 18.56853485107422
0, 2, 110, 9.008390426635742
0, 2, 111, 5.912367820739746
0, 2, 112, 5.927915096282959
0, 2, 113, 4.265844345092773
0, 2, 114, 6.984555721282959
0, 2, 115, 6.151615619659424
0, 2, 116, 1.250556826591492
0, 2, 117, 2.745447158813477
0, 2, 118, 2.810595035552979
0, 2, 119, 2.643408536911011
0, 2, 120, 3.343774318695068
0, 2, 121, 3.003095149993896
0, 2, 122, 1.144994616508484
0, 2, 123, 1.601198554039001
0, 2, 124, 2.391335487365723
0, 2, 125, 1.368894100189209
0, 2, 126, 2.723895072937012
0, 2, 127, 0.4666925370693207
0, 3, 0, 1.499571800231934
0, 3, 1, 2.465828657150269
0, 3, 2, 1.986181974411011
0, 3, 3, 2.607024431228638
0, 3, 4, 4.838908195495605
0, 3, 5, 1.748177409172058
0, 3, 6, 1.319386839866638
0, 3, 7, 1.981924772262573
0, 3, 8, 1.665211796760559
0, 3, 9, 1.716907620429993
0, 3, 10, 3.180422067642212
0, 3, 11, 3.846024513244629
0, 3, 12, 3.257370233535767
0, 3, 13, 3.682586431503296
0, 3, 14, 4.287692070007324
0, 3, 15, 8.205048561096191
0, 3, 16, 7.503994464874268
0, 3, 17, 7.57589054107666
0, 3, 18, 32.46873092651367
0, 3, 19, 115.3325653076172
0, 3, 20, 181.3021545410156
0, 3, 21, 172.7443084716797
0, 3, 22, 177.8571014404297
0, 3, 23, 187.7317962646484
0, 3, 24, 178.1617889404297
0, 3, 25, 169.3912506103516
0, 3, 26, 180.25
0, 3, 27, 189.2848815917969
0, 3, 28, 181.4461059570312
0, 3, 29, 196.9291687011719
0, 3, 30, 185.1798400878906
0, 3, 31, 192.8073883056641
0, 3, 32, 206.0842895507812
0, 3, 33, 196.1667633056641
0, 3, 34, 186.5723571777344
0, 3, 35, 173.5005035400391
0, 3, 36, 185.6012725830078
0, 3, 37, 199.7340545654297
0, 3, 38, 191.4140777587891
0, 3, 39, 185.6325073242188
0, 3, 40, 166.0613861083984
0, 3, 41, 173.98046875
0, 3, 42, 185.5991058349609
0, 3, 43, 181.8495178222656
0, 3, 44, 202.7794189453125
0, 3, 45, 207.6318511962891
0, 3, 46, 198.89990234375
0, 3, 47, 195.1710052490234
0, 3, 48, 196.3361053466797
0, 3, 49, 179.4800567626953
0, 3, 50, 185.8900604248047
0, 3, 51, 174.0135955810547
0, 3, 52, 186.9836730957031
0, 3, 53, 177.5724639892578
0, 3, 54, 178.9335479736328
0, 3, 55, 176.8394622802734
0, 3, 56, 181.7902984619141
0, 3, 57, 174.9197082519531
0, 3, 58, 201.7830810546875
0, 3, 59, 197.3897552490234
0, 3, 60, 186.1401214599609
0, 3, 61, 180.8142852783203
0, 3, 62, 182.9237213134766
0, 3, 63, 184.0325927734375
0, 3, 64, 187.5260925292969
0, 3, 65, 186.8246307373047
0, 3, 66, 175.3906555175781
0, 3, 67, 189.2811126708984
0, 3, 68, 212.0972137451172
0, 3, 69, 188.6314697265625
0, 3, 70, 184.8626861572266
0, 3, 71, 196.6082153320312
0, 3, 72, 185.6549377441406
0, 3, 73, 185.6587677001953
0, 3, 74, 194.2454376220703
0, 3, 75, 193.5525360107422
0, 3, 76, 190.8401794433594
0, 3, 77, 199.1676635742188
0, 3, 78, 188.751220703125
0, 3, 79, 186.1508941650391
0, 3, 80, 191.0396423339844
0, 3, 81, 182.8246307373047
0, 3, 82, 180.9764862060547
0, 3, 83, 194.5185394287109
0, 3, 84, 198.8037109375
0, 3, 85, 191.509521484375
0, 3, 86, 203.5630645751953
0, 3, 87, 197.1955108642578
0, 3, 88, 191.5787200927734
0, 3, 89, 194.2287139892578
0, 3, 90, 173.5103912353516
0, 3, 91, 159.5591125488281
0, 3, 92, 206.9519958496094
0, 3, 93, 195.7368621826172
0, 3, 94, 193.3011474609375
0, 3, 95, 210.9769439697266
0, 3, 96, 208.4245758056641
0, 3, 97, 168.7045745849609
0, 3, 98, 167.7435150146484
0, 3, 99, 179.3841094970703
0, 3, 100, 176.2665557861328
0, 3, 101, 197.2566223144531
0, 3, 102, 194.16650390625
0, 3, 103, 194.45751953125
0, 3, 104, 201.6504058837891
0, 3, 105, 176.077392578125
0, 3, 106, 182.5626983642578
0, 3, 107, 170.1262969970703
0, 3, 108, 107.8008041381836
0, 3, 109, 29.30707931518555
0, 3, 110, 8.911185264587402
0, 3, 111, 6.775373458862305
0, 3, 112, 3.240059852600098
0, 3, 113, 8.223858833312988
0, 3, 114, 4.496902465820312
0, 3, 115, 4.975091934204102
0, 3, 116, 6.040474414825439
0, 3, 117, 2.871286392211914
0, 3, 118, 1.479884743690491
0, 3, 119, 2.045397996902466
0, 3, 120, 4.079277992248535
0, 3, 121, 1.588059782981873
0, 3, 122, 2.481782674789429
0, 3, 123, 2.881237745285034
0, 3, 124, 1.864896774291992
0, 3, 125, 1.002418160438538
0, 3, 126, 2.073941946029663
0, 3, 127, 1.126798510551453
0, 4, 0, 1.540507793426514
0, 4, 1, 1.023154735565186
0, 4, 2, 2.329024314880371
0, 4, 3, 3.538413047790527
0, 4, 4, 1.799870491027832
0, 4, 5, 0.878875732421875
0, 4, 6, 2.458284616470337
0, 4, 7, 3.02940034866333
0, 4, 8, 1.62932276725769
0, 4, 9, 3.0677170753479
0, 4, 10, 2.617138147354126
0, 4, 11, 4.243580341339111
0, 4, 12, 3.42197322845459
0, 4, 13, 4.11611795425415
0, 4, 14, 4.367064476013184
0, 4, 15, 9.936378479003906
0, 4, 16, 6.861527442932129
0, 4, 17, 12.08574199676514
0, 4, 18, 53.94060516357422
0, 4, 19, 151.2921752929688
0, 4, 20, 192.389404296875
0, 4, 21, 169.3898162841797
0, 4, 22, 186.8385467529297
0, 4, 23, 195.7073211669922
0, 4, 24, 192.0461273193359
0, 4, 25, 200.2184753417969
0, 4, 26, 183.7774963378906
0, 4, 27, 191.3813781738281
0, 4, 28, 177.7957458496094
0, 4, 29, 205.4488372802734
0, 4, 30, 195.4306182861328
0, 4, 31, 193.5222015380859
0, 4, 32, 211.0066070556641
0, 4, 33, 190.1927947998047
0, 4, 34, 192.437255859375
0, 4, 35, 212.6478424072266
0, 4, 36, 192.4118804931641
0, 4, 37, 176.8823699951172
0, 4, 38, 195.9781799316406
0, 4, 39, 190.4521484375
0, 4, 40, 185.3597717285156
0, 4, 41, 189.1723022460938
0, 4, 42, 206.513427734375
0, 4, 43, 174.0936431884766
0, 4, 44, 183.3399658203125
0, 4, 45, 195.8455505371094
0, 4, 46, 185.7207794189453
0, 4, 47, 180.1109619140625
0, 4, 48, 185.5223236083984
0, 4, 49, 174.2390441894531
0, 4, 50, 186.6885223388672
0, 4, 51, 196.6184844970703
0, 4, 52, 224.1847991943359
0, 4, 53, 206.7883453369141
0, 4, 54, 189.7743682861328
0, 4, 55, 174.3114776611328
0, 4, 56, 191.6691436767578
0, 4, 57, 190.8295593261719
0, 4, 58, 187.3150787353516
0, 4, 59, 189.1092834472656
0, 4, 60, 196.7112884521484
0, 4, 61, 195.0314636230469
0, 4, 62, 191.0624084472656
0, 4, 63, 180.7414245605469
0, 4, 64, 211.4514617919922
0, 4, 65, 191.6218872070312
0, 4, 66, 202.9309234619141
0, 4, 67, 200.3084411621094
0, 4, 68, 204.4378662109375
0, 4, 69, 199.0443572998047
0, 4, 70, 204.2830505371094
0, 4, 71, 206.1650390625
0, 4, 72, 216.6982727050781
0, 4, 73, 185.4571075439453
0, 4, 74, 179.3259887695312
0, 4, 75, 184.8942565917969
0, 4, 76, 189.8792877197266
0, 4, 77, 183.0791320800781
0, 4, 78, 194.8725128173828
0, 4, 79, 205.1287689208984
0, 4, 80, 211.2640686035156
0, 4, 81, 199.0094146728516
0, 4, 82, 181.5048980712891
0, 4, 83, 169.7562408447266
0, 4, 84, 193.0062561035156
0, 4, 85, 195.319580078125
0, 4, 86, 180.6735992431641
0, 4, 87, 184.6285858154297
0, 4, 88, 204.2948303222656
0, 4, 89, 189.2481994628906
0, 4, 90, 211.4858245849609
0, 4, 91, 189.0895843505859
0, 4, 92, 195.9309997558594
0, 4, 93, 195.3635864257812
0, 4, 94, 182.5844879150391
0, 4, 95, 174.4318084716797
0, 4, 96, 189.7634582519531
0, 4, 97, 194.1195373535156
0, 4, 98, 200.36279296875
0, 4, 99, 183.3257446289062
0, 4, 100, 182.6551208496094
0, 4, 101, 176.4097595214844
0, 4, 102, 172.5451507568359
0, 4, 103, 185.5524597167969
0, 4, 104, 209.1552276611328
0, 4, 105, 189.7092590332031
0, 4, 106, 178.8333587646484
0, 4, 107, 181.0392456054688
0, 4, 108, 151.5357513427734
0, 4, 109, 49.52036666870117
0, 4, 110, 11.43783092498779
0, 4, 111, 8.280327796936035
0, 4, 112, 6.976762294769287
0, 4, 113, 10.82641124725342
0, 4, 114, 5.767167568206787
0, 4, 115, 2.827809810638428
0, 4, 116, 4.616078853607178
0, 4, 117, 2.003145694732666
0, 4, 118, 2.979724645614624
0, 4, 119, 3.53128457069397
0, 4, 120, 2.345142126083374
0, 4, 121, 2.002804279327393
0, 4, 122, 4.284709930419922
0, 4, 123, 2.185265064239502
0, 4, 124, 3.391277313232422
0, 4, 125, 2.399136066436768
0, 4, 126, 1.12041449546814
0, 4, 127, 1.842023849487305
0, 5, 0, 1.898695230484009
0, 5, 1, 3.448541164398193
0, 5, 2, 5.509878158569336
0, 5, 3, 4.816459178924561
0, 5, 4, 2.787993192672729
0, 5, 5, 1.607720732688904
0, 5, 6, 3.260665655136108
0, 5, 7, 2.835363864898682
0, 5, 8, 2.757691383361816
0, 5, 9, 2.787866115570068
0, 5, 10, 4.751921653747559
0, 5, 11, 2.171015977859497
0, 5, 12, 4.853664875030518
0, 5, 13, 3.523253917694092
0, 5, 14, 6.208283424377441
0, 5, 15, 7.72854471206665
0, 5, 16, 7.51971960067749
0, 5, 17, 21.83569717407227
0, 5, 18, 83.352294921875
0, 5, 19, 163.6239013671875
0, 5, 20, 182.448974609375
0, 5, 21, 178.1945495605469
0, 5, 22, 171.3791046142578
0, 5, 23, 200.528564453125
0, 5, 24, 187.4278869628906
0, 5, 25, 206.8060607910156
0, 5, 26, 183.5078277587891
0, 5, 27, 197.7907409667969
0, 5, 28, 189.2144775390625
0, 5, 29, 195.1966400146484
0, 5, 30, 180.3611297607422
0, 5, 31, 181.8156890869141
0, 5, 32, 186.4223480224609
0, 5, 33, 169.6924285888672
0, 5, 34, 195.1743621826172
0, 5, 35, 195.9972686767578
0, 5, 36, 170.51171875
0, 5, 37, 198.2443237304688
0, 5, 38, 183.3243713378906
0, 5, 39, 188.0931549072266
0, 5, 40, 198.9644165039062
0, 5, 41, 177.3496398925781
0, 5, 42, 187.9042510986328
0, 5, 43, 192.7614288330078
0, 5, 44, 199.4997711181641
0, 5, 45, 186.8114013671875
0, 5, 46, 192.6860961914062
0, 5, 47, 179.8782196044922
0, 5, 48, 178.6951446533203
0, 5, 49, 176.2937469482422
0, 5, 50, 187.1554260253906
0, 5, 51, 172.5847320556641
0, 5, 52, 167.3513488769531
0, 5, 53, 182.2615814208984
0, 5, 54, 172.5866394042969
0, 5, 55, 215.2846374511719
0, 5, 56, 181.8847503662109
0, 5, 57, 209.2501678466797
0, 5, 58, 183.1042327880859
0, 5, 59, 180.3420867919922
0, 5, 60, 218.657470703125
0, 5, 61, 184.7410278320312
0, 5, 62, 178.3448181152344
0, 5, 63, 180.1010589599609
0, 5, 64, 193.6450042724609
0, 5, 65, 210.0761413574219
0, 5, 66, 192.6752319335938
0, 5, 67, 198.3484191894531
0, 5, 68, 186.1064605712891
0, 5, 69, 185.8304901123047
0, 5, 70, 183.8797149658203
0, 5, 71, 193.8665924072266
0, 5, 72, 197.6634826660156
0, 5, 73, 201.8399047851562
0, 5, 74, 180.4169769287109
0, 5, 75, 202.4169921875
0, 5, 76, 213.6215667724609
0, 5, 77, 180.2987060546875
0, 5, 78, 194.8695983886719
0, 5, 79, 191.5646362304688
0, 5, 80, 198.3490447998047
0, 5, 81, 202.1106262207031
0, 5, 82, 201.68359375
0, 5, 83, 188.9700622558594
0, 5, 84, 206.584716796875
0, 5, 85, 176.0195159912109
0, 5, 86, 196.8360137939453
0, 5, 87, 190.6927947998047
0, 5, 88, 177.7710571289062
0, 5, 89, 194.3095703125
0, 5, 90, 200.5992736816406
0, 5, 91, 194.2051086425781
0, 5, 92, 191.0562896728516
0, 5, 93, 190.2547454833984
0, 5, 94, 207.1353607177734
0, 5, 95, 177.2338562011719
0, 5, 96, 181.7968444824219
0, 5, 97, 190.8258361816406
0, 5, 98, 189.0351104736328
0, 5, 99, 195.5501861572266
0, 5, 100, 186.2179565429688
0, 5, 101, 197.6294555664062
0, 5, 102, 181.9852294921875
0, 5, 103, 177.4752349853516
0, 5, 104, 190.3296508789062
0, 5, 105, 189.3861694335938
0, 5, 106, 176.9205017089844
0, 5, 107, 184.7402038574219
0, 5, 108, 175.4208831787109
0, 5, 109, 88.49654388427734
0, 5, 110, 30.27415466308594
0, 5, 111, 9.13481330871582
0, 5, 112, 6.403123378753662
0, 5, 113, 7.040814876556396
0, 5, 114, 6.640760898590088
0, 5, 115, 5.939273834228516
0, 5, 116, 3.870626926422119
0, 5, 117, 2.246601343154907
0, 5, 118, 3.818358659744263
0, 5, 119, 3.698154211044312
0, 5, 120, 1.812000751495361
0, 5, 121, 1.395760178565979
0, 5, 122, 3.189786434173584
0, 5, 123, 5.050622463226318
0, 5, 124, 2.727996826171875
0, 5, 125, 0.6544152498245239
0, 5, 126, 1.834112882614136
0, 5, 127, 2.472089290618896
0, 6, 0, 3.144085168838501
0, 6, 1, 2.631607055664062
0, 6, 2, 3.205081224441528
0, 6, 3, 1.688621520996094
0, 6, 4, 3.991749048233032
0, 6, 5, 3.78975510597229
0, 6, 6, 2.803713321685791
0, 6, 7, 3.491028308868408
0, 6, 8, 3.358349800109863
0, 6, 9, 3.268448114395142
0, 6, 10, 4.012953758239746
0, 6, 11, 4.239205360412598
0, 6, 12, 5.478278160095215
0, 6, 13, 4.950085163116455
0, 6, 14, 5.725906372070312
0, 6, 15, 6.394710063934326
0, 6, 16, 12.05265426635742
0, 6, 17, 29.03400421142578
0, 6, 18, 111.9234313964844
0, 6, 19, 192.5523071289062
0, 6, 20, 195.1692047119141
0, 6, 21, 199.9584197998047
0, 6, 22, 190.4942016601562
0, 6, 23, 190.8407135009766
0, 6, 24, 201.1287078857422
0, 6, 25, 180.8385467529297
0, 6, 26, 187.2036743164062
0, 6, 27, 192.7798614501953
0, 6, 28, 188.2414703369141
0, 6, 29, 210.6859893798828
0, 6, 30, 189.5346069335938
0, 6, 31, 193.4436645507812
0, 6, 32, 206.5912628173828
0, 6, 33, 187.0669860839844
0, 6, 34, 198.5957794189453
0, 6, 35, 187.8710327148438
0, 6, 36, 180.7065734863281
0, 6, 37, 182.4992980957031
0, 6, 38, 184.3336791992188
0, 6, 39, 194.6420440673828
0, 6, 40, 173.8757781982422
0, 6, 41, 184.7629547119141
0, 6, 42, 173.8939666748047
0, 6, 43, 211.2186737060547
0, 6, 44, 209.3290100097656
0, 6, 45, 193.9778594970703
0, 6, 46, 188.6051483154297
0, 6, 47, 203.9803924560547
0, 6, 48, 188.8834075927734
0, 6, 49, 179.0650482177734
0, 6, 50, 182.2912750244141
0, 6, 51, 196.6267395019531
0, 6, 52, 197.8782806396484
0, 6, 53, 184.5391235351562
0, 6, 54, 175.4324798583984
0, 6, 55, 194.5775451660156
0, 6, 56, 202.4382629394531
0, 6, 57, 190.3257904052734
0, 6, 58, 180.9018249511719
0, 6, 59, 192.9932556152344
0, 6, 60, 185.2410888671875
0, 6, 61, 193.8645782470703
0, 6, 62, 196.6628723144531
0, 6, 63, 186.5038909912109
0, 6, 64, 169.8261871337891
0, 6, 65, 187.4612579345703
0, 6, 66, 198.3420715332031
0, 6, 67, 214.4060821533203
0, 6, 68, 181.2868041992188
0, 6, 69, 172.0840606689453
0, 6, 70, 187.4477844238281
0, 6, 71, 170.6905822753906
0, 6, 72, 176.2140197753906
0, 6, 73, 176.7230224609375
0, 6, 74, 210.9336700439453
0, 6, 75, 227.1643371582031
0, 6, 76, 183.8526916503906
0, 6, 77, 174.57470703125
0, 6, 78, 175.3686828613281
0, 6, 79, 185.9331512451172
0, 6, 80, 187.7607116699219
0, 6, 81, 209.1913757324219
0, 6, 82, 197.4037475585938
0, 6, 83, 194.9373168945312
0, 6, 84, 197.8224945068359
0, 6, 85, 182.5049133300781
0, 6, 86, 200.5091247558594
0, 6, 87, 183.2715606689453
0, 6, 88, 191.893310546875
0, 6, 89, 188.5475921630859
0, 6, 90, 205.4552917480469
0, 6, 91, 199.2469635009766
0, 6, 92, 172.6314544677734
0, 6, 93, 190.9323272705078
0, 6, 94, 189.3527221679688
0, 6, 95, 185.0438232421875
0, 6, 96, 190.0073852539062
0, 6, 97, 196.0940856933594
0, 6, 98, 184.9228973388672
0, 6, 99, 175.1806640625
0, 6, 100, 201.3624877929688
0, 6, 101, 168.6530914306641
0, 6, 102, 201.7255554199219
0, 6, 103, 196.2100067138672
0, 6, 104, 185.0751037597656
0, 6, 105, 193.6155090332031
0, 6, 106, 177.4462127685547
0, 6, 107, 194.2279205322266
0, 6, 108, 172.4085845947266
0, 6, 109, 116.0809020996094
0, 6, 110, 33.83520126342773
0, 6, 111, 10.19404792785645
0, 6, 112, 8.639469146728516
0, 6, 113, 7.208153247833252
0, 6, 114, 5.175830364227295
0, 6, 115, 5.590272903442383
0, 6, 116, 3.766924858093262
0, 6, 117, 5.305879592895508
0, 6, 118, 3.982406854629517
0, 6, 119, 3.110073566436768
0, 6, 120, 4.405031681060791
0, 6, 121, 4.270601749420166
0, 6, 122, 2.095465421676636
0, 6, 123, 1.818558812141418
0, 6, 124, 1.792243242263794
0, 6, 125, 2.568976879119873
0, 6, 126, 1.616652011871338
0, 6, 127, 2.433674573898315
0, 7, 0, 3.148047685623169
0, 7, 1, 1.777466058731079
0, 7, 2, 2.575863599777222
0, 7, 3, 3.011854648590088
0, 7, 4, 1.055509209632874
0, 7, 5, 1.4068843126297
0, 7, 6, 4.349245071411133
0, 7, 7, 1.502611637115479
0, 7, 8, 3.67972207069397
0, 7, 9, 3.302180767059326
0, 7, 10, 4.559327602386475
0, 7, 11, 3.970601081848145
0, 7, 12, 4.316861152648926
0, 7, 13, 5.506708145141602
0, 7, 14, 7.087890625
0, 7, 15, 6.785510540008545
0, 7, 16, 16.43756484985352
0, 7, 17, 51.96469879150391
0, 7, 18, 163.0787048339844
0, 7, 19, 182.9941558837891
0, 7, 20, 180.2071380615234
0, 7, 21, 179.4115600585938
0, 7, 22, 190.1750183105469
0, 7, 23, 203.0452880859375
0, 7, 24, 178.8152770996094
0, 7, 25, 215.1055603027344
0, 7, 26, 189.5388946533203
0, 7, 27, 181.7184906005859
0, 7, 28, 182.0599975585938
0, 7, 29, 208.6395568847656
0, 7, 30, 192.3282928466797
0, 7, 31, 175.6457061767578
0, 7, 32, 190.4796295166016
0, 7, 33, 179.8142547607422
0, 7, 34, 192.7102966308594
0, 7, 35, 196.5507354736328
0, 7, 36, 186.5755310058594
0, 7, 37, 213.6543426513672
0, 7, 38, 192.2313995361328
0, 7, 39, 174.4274139404297
0, 7, 40, 184.099853515625
0, 7, 41, 184.7499237060547
0, 7, 42, 179.0740661621094
0, 7, 43, 176.1004180908203
0, 7, 44, 179.4009246826172
0, 7, 45, 174.1966552734375
0, 7, 46, 187.354736328125
0, 7, 47, 197.6199035644531
0, 7, 48, 185.3279724121094
0, 7, 49, 197.7078247070312
0, 7, 50, 189.0709075927734
0, 7, 51, 205.437255859375
0, 7, 52, 205.1595611572266
0, 7, 53, 190.7665405273438
0, 7, 54, 194.6965484619141
0, 7, 55, 204.1890411376953
0, 7, 56, 183.786865234375
0, 7, 57, 182.6723785400391
0, 7, 58, 190.2957000732422
0, 7, 59, 187.3818054199219
0, 7, 60, 202.0080261230469
0, 7, 61, 171.2190246582031
0, 7, 62, 202.8581848144531
0, 7, 63, 189.4615783691406
0, 7, 64, 198.955810546875
0, 7, 65, 194.9734497070312
0, 7, 66, 206.3831939697266
0, 7, 67, 219.627197265625
0, 7, 68, 162.4894256591797
0, 7, 69, 194.0775299072266
0, 7, 70, 219.6297912597656
0, 7, 71, 184.7596282958984
0, 7, 72, 182.0541229248047
0, 7, 73, 176.456298828125
0, 7, 74, 207.2430114746094
0, 7, 75, 205.3533477783203
0, 7, 76, 214.6897735595703
0, 7, 77, 172.2929229736328
0, 7, 78, 177.5173950195312
0, 7, 79, 194.7387847900391
0, 7, 80, 196.3026885986328
0, 7, 81, 214.5317993164062
0, 7, 82, 185.2333374023438
0, 7, 83, 205.3717956542969
0, 7, 84, 191.5243682861328
0, 7, 85, 185.6400451660156
0, 7, 86, 200.6441802978516
0, 7, 87, 225.3556823730469
0, 7, 88, 194.7219390869141
0, 7, 89, 177.6660308837891
0, 7, 90, 182.5162353515625
0, 7, 91, 194.4812316894531
0, 7, 92, 194.3078002929688
0, 7, 93, 200.4327697753906
0, 7, 94, 180.4306030273438
0, 7, 95, 197.1184844970703
0, 7, 96, 208.8505249023438
0, 7, 97, 189.6093444824219
0, 7, 98, 178.1481170654297
0, 7, 99, 197.03125
0, 7, 100, 181.8691101074219
0, 7, 101, 199.5489959716797
0, 7, 102, 184.9923400878906
0, 7, 103, 181.2052612304688
0, 7, 104, 175.0578308105469
0, 7, 105, 196.2344818115234
0, 7, 106, 205.0079650878906
0, 7, 107, 173.16064453125
0, 7, 108, 176.6057434082031
0, 7, 109, 136.9542999267578
0, 7, 110, 54.51199340820312
0, 7, 111, 8.992141723632812
0, 7, 112, 7.78603982925415
0, 7, 113, 7.633407592773438
0, 7, 114, 6.419024467468262
0, 7, 115, 5.348328590393066
0, 7, 116, 6.578798770904541
0, 7, 117, 3.624298334121704
0, 7, 118, 3.818362474441528
0, 7, 119, 3.929972648620605
0, 7, 120, 2.27823805809021
0, 7, 121, 7.969949722290039
0, 7, 122, 2.867695093154907
0, 7, 123, 2.548156976699829
0, 7, 124, 1.887306690216064
0, 7, 125, 2.117935180664062
0, 7, 126, 4.765135765075684
0, 7, 127, 1.982096672058105
0, 8, 0, 3.879316329956055
0, 8, 1, 2.360654592514038
0, 8, 2, 2.284740447998047
0, 8, 3, 3.110970258712769
0, 8, 4, 1.488110184669495
0, 8, 5, 3.301053762435913
0, 8, 6, 1.761826038360596
0, 8, 7, 2.548688650131226
0, 8, 8, 3.936315298080444
0, 8, 9, 5.404533386230469
0, 8, 10, 2.197753190994263
0, 8, 11, 2.280304908752441
0, 8, 12, 4.804919242858887
0, 8, 13, 5.535934448242188
0, 8, 14, 7.386667251586914
0, 8, 15, 8.29078197479248
0, 8, 16, 20.44639015197754
0, 8, 17, 75.61277008056641
0, 8, 18, 142.4155120849609
0, 8, 19, 180.2849578857422
0, 8, 20, 192.5663604736328
0, 8, 21, 192.8239440917969
0, 8, 22, 181.9669036865234
0, 8, 23, 172.9055786132812
0, 8, 24, 191.8473205566406
0, 8, 25, 185.2066955566406
0, 8, 26, 193.4389801025391
0, 8, 27, 185.9707946777344
0, 8, 28, 187.6331176757812
0, 8, 29, 207.5807189941406
0, 8, 30, 197.7591094970703
0, 8, 31, 181.7146301269531
0, 8, 32, 197.8395690917969
0, 8, 33, 206.3507080078125
0, 8, 34, 203.7487335205078
0, 8, 35, 185.0652923583984
0, 8, 36, 180.9253387451172
0, 8, 37, 198.5020141601562
0, 8, 38, 196.9445343017578
