# TOPAS Version: 3.1.p3
# Parameter File: batch_inserts_2.txt
# Results for scorer Readout_Adipose
# Scored in component: MyBox
# X in 1 bin  of 0.65 cm
# Y in 512 bins of 0.0783984 cm
# Z in 128 bins of 0.078125 cm
# EnergyDeposit ( MeV ) : Sum   
0, 0, 0, 1.204418540000916
0, 0, 1, 3.549127817153931
0, 0, 2, 1.142739534378052
0, 0, 3, 2.007935523986816
0, 0, 4, 3.774805068969727
0, 0, 5, 0.6729727983474731
0, 0, 6, 1.100143671035767
0, 0, 7, 2.657863616943359
0, 0, 8, 1.635145902633667
0, 0, 9, 2.431541919708252
0, 0, 10, 2.007759094238281
0, 0, 11, 2.858226537704468
0, 0, 12, 6.181499004364014
0, 0, 13, 2.383279323577881
0, 0, 14, 5.00434398651123
0, 0, 15, 4.865359306335449
0, 0, 16, 3.810143709182739
0, 0, 17, 6.377729415893555
0, 0, 18, 6.930198669433594
0, 0, 19, 22.41676139831543
0, 0, 20, 94.15673065185547
0, 0, 21, 152.3042144775391
0, 0, 22, 153.927001953125
0, 0, 23, 143.9448699951172
0, 0, 24, 159.7255706787109
0, 0, 25, 166.0749664306641
0, 0, 26, 167.0993194580078
0, 0, 27, 173.7955474853516
0, 0, 28, 178.2442321777344
0, 0, 29, 174.7261047363281
0, 0, 30, 174.1253662109375
0, 0, 31, 165.9588165283203
0, 0, 32, 164.2023620605469
0, 0, 33, 166.2532043457031
0, 0, 34, 176.8057708740234
0, 0, 35, 174.2136383056641
0, 0, 36, 158.9609222412109
0, 0, 37, 161.15234375
0, 0, 38, 166.6475524902344
0, 0, 39, 159.2423706054688
0, 0, 40, 165.0397491455078
0, 0, 41, 165.7635040283203
0, 0, 42, 143.5603637695312
0, 0, 43, 167.4447021484375
0, 0, 44, 177.5386810302734
0, 0, 45, 172.3722534179688
0, 0, 46, 166.4530639648438
0, 0, 47, 168.57177734375
0, 0, 48, 169.1214447021484
0, 0, 49, 183.1633148193359
0, 0, 50, 171.4815826416016
0, 0, 51, 162.0502471923828
0, 0, 52, 162.2293395996094
0, 0, 53, 171.1056060791016
0, 0, 54, 159.4715118408203
0, 0, 55, 164.1657257080078
0, 0, 56, 189.3892974853516
0, 0, 57, 170.0522613525391
0, 0, 58, 161.5011749267578
0, 0, 59, 172.6006622314453
0, 0, 60, 167.8358306884766
0, 0, 61, 168.7854766845703
0, 0, 62, 183.0201263427734
0, 0, 63, 167.0087585449219
0, 0, 64, 165.4464874267578
0, 0, 65, 173.8824005126953
0, 0, 66, 177.5054168701172
0, 0, 67, 163.9978790283203
0, 0, 68, 158.3737640380859
0, 0, 69, 158.6195678710938
0, 0, 70, 169.2437133789062
0, 0, 71, 158.6115112304688
0, 0, 72, 163.1419219970703
0, 0, 73, 170.7178039550781
0, 0, 74, 162.1799621582031
0, 0, 75, 163.8448486328125
0, 0, 76, 164.0783843994141
0, 0, 77, 171.8788909912109
0, 0, 78, 182.3765869140625
0, 0, 79, 175.3741302490234
0, 0, 80, 158.9483642578125
0, 0, 81, 160.2959747314453
0, 0, 82, 181.9274139404297
0, 0, 83, 173.1225891113281
0, 0, 84, 159.767578125
0, 0, 85, 181.7498016357422
0, 0, 86, 160.0818939208984
0, 0, 87, 176.7588958740234
0, 0, 88, 177.9445037841797
0, 0, 89, 177.9363098144531
0, 0, 90, 160.2544097900391
0, 0, 91, 184.040283203125
0, 0, 92, 164.3866729736328
0, 0, 93, 155.7315063476562
0, 0, 94, 169.0586547851562
0, 0, 95, 174.1595153808594
0, 0, 96, 183.8365936279297
0, 0, 97, 183.9406585693359
0, 0, 98, 186.2583312988281
0, 0, 99, 170.8451232910156
0, 0, 100, 159.1145172119141
0, 0, 101, 167.1361541748047
0, 0, 102, 171.2611541748047
0, 0, 103, 171.2865600585938
0, 0, 104, 168.6364440917969
0, 0, 105, 176.9174499511719
0, 0, 106, 158.4293212890625
0, 0, 107, 85.0849609375
0, 0, 108, 23.01365661621094
0, 0, 109, 9.653314590454102
0, 0, 110, 6.584913730621338
0, 0, 111, 6.868361473083496
0, 0, 112, 3.824821710586548
0, 0, 113, 2.443486928939819
0, 0, 114, 2.4799964427948
0, 0, 115, 2.497749805450439
0, 0, 116, 1.788277149200439
0, 0, 117, 2.801504850387573
0, 0, 118, 2.4814133644104
0, 0, 119, 2.443856000900269
0, 0, 120, 1.900211691856384
0, 0, 121, 3.369899988174438
0, 0, 122, 4.480838298797607
0, 0, 123, 3.259194850921631
0, 0, 124, 1.722375273704529
0, 0, 125, 1.678059220314026
0, 0, 126, 2.084213495254517
0, 0, 127, 2.334953784942627
0, 1, 0, 1.074904203414917
0, 1, 1, 3.245263338088989
0, 1, 2, 3.889060497283936
0, 1, 3, 1.570788621902466
0, 1, 4, 1.190705180168152
0, 1, 5, 1.516405582427979
0, 1, 6, 1.268130779266357
0, 1, 7, 3.85851263999939
0, 1, 8, 1.6074298620224
0, 1, 9, 0.7033930420875549
0, 1, 10, 1.276127696037292
0, 1, 11, 3.590911626815796
0, 1, 12, 4.302761554718018
0, 1, 13, 2.560697317123413
0, 1, 14, 7.02265453338623
0, 1, 15, 8.878885269165039
0, 1, 16, 6.795357227325439
0, 1, 17, 5.388545036315918
0, 1, 18, 10.9140157699585
0, 1, 19, 39.71587753295898
0, 1, 20, 125.9103240966797
0, 1, 21, 178.4935913085938
0, 1, 22, 194.1644287109375
0, 1, 23, 186.2674713134766
0, 1, 24, 180.4608612060547
0, 1, 25, 191.5443420410156
0, 1, 26, 197.2260894775391
0, 1, 27, 186.2138977050781
0, 1, 28, 190.2623291015625
0, 1, 29, 183.3501586914062
0, 1, 30, 179.1293334960938
0, 1, 31, 180.5300598144531
0, 1, 32, 188.7252502441406
0, 1, 33, 190.5227203369141
0, 1, 34, 184.3581237792969
0, 1, 35, 192.5820465087891
0, 1, 36, 206.3685150146484
0, 1, 37, 186.0215148925781
0, 1, 38, 165.1447906494141
0, 1, 39, 171.8309783935547
0, 1, 40, 179.1766357421875
0, 1, 41, 184.5051879882812
0, 1, 42, 182.4467010498047
0, 1, 43, 184.6949157714844
0, 1, 44, 167.5951843261719
0, 1, 45, 185.8982849121094
0, 1, 46, 170.7957763671875
0, 1, 47, 184.9398193359375
0, 1, 48, 188.2356262207031
0, 1, 49, 186.4253692626953
0, 1, 50, 176.5875549316406
0, 1, 51, 190.4550933837891
0, 1, 52, 195.6026000976562
0, 1, 53, 198.0014495849609
0, 1, 54, 184.5943145751953
0, 1, 55, 165.1750335693359
0, 1, 56, 179.6885528564453
0, 1, 57, 178.2805938720703
0, 1, 58, 188.416015625
0, 1, 59, 193.3470458984375
0, 1, 60, 188.5098266601562
0, 1, 61, 177.1766662597656
0, 1, 62, 204.442138671875
0, 1, 63, 174.5025177001953
0, 1, 64, 172.7962493896484
0, 1, 65, 185.2562255859375
0, 1, 66, 204.4209899902344
0, 1, 67, 182.7523803710938
0, 1, 68, 186.537841796875
0, 1, 69, 189.2005462646484
0, 1, 70, 185.5818023681641
0, 1, 71, 171.1765747070312
0, 1, 72, 187.9348602294922
0, 1, 73, 190.4276123046875
0, 1, 74, 201.8804931640625
0, 1, 75, 188.1650390625
0, 1, 76, 174.48876953125
0, 1, 77, 191.3349304199219
0, 1, 78, 188.8154296875
0, 1, 79, 202.100830078125
0, 1, 80, 187.1644897460938
0, 1, 81, 175.7650604248047
0, 1, 82, 207.2194519042969
0, 1, 83, 213.3915863037109
0, 1, 84, 179.8490142822266
0, 1, 85, 169.2608184814453
0, 1, 86, 167.7509613037109
0, 1, 87, 183.781982421875
0, 1, 88, 174.3192596435547
0, 1, 89, 186.4286041259766
0, 1, 90, 213.6885833740234
0, 1, 91, 181.2843170166016
0, 1, 92, 183.8397521972656
0, 1, 93, 181.6711273193359
0, 1, 94, 185.2550964355469
0, 1, 95, 183.969970703125
0, 1, 96, 196.8744049072266
0, 1, 97, 183.7178802490234
0, 1, 98, 186.7747192382812
0, 1, 99, 178.3707733154297
0, 1, 100, 172.109375
0, 1, 101, 178.3833465576172
0, 1, 102, 182.3603515625
0, 1, 103, 173.2293548583984
0, 1, 104, 189.1652069091797
0, 1, 105, 180.6702575683594
0, 1, 106, 164.5718231201172
0, 1, 107, 122.4292221069336
0, 1, 108, 47.50691223144531
0, 1, 109, 9.957171440124512
0, 1, 110, 7.072628498077393
0, 1, 111, 5.909709930419922
0, 1, 112, 8.240689277648926
0, 1, 113, 6.792115211486816
0, 1, 114, 7.077232837677002
0, 1, 115, 2.845200300216675
0, 1, 116, 2.343370914459229
0, 1, 117, 2.187257051467896
0, 1, 118, 3.51093864440918
0, 1, 119, 1.119256854057312
0, 1, 120, 2.770660161972046
0, 1, 121, 4.171508312225342
0, 1, 122, 2.698199987411499
0, 1, 123, 3.854740381240845
0, 1, 124, 2.114804029464722
0, 1, 125, 2.053900480270386
0, 1, 126, 2.683293104171753
0, 1, 127, 1.158381223678589
0, 2, 0, 2.220338106155396
0, 2, 1, 1.932953953742981
0, 2, 2, 2.422733783721924
0, 2, 3, 0.9996829628944397
0, 2, 4, 0.6545600891113281
0, 2, 5, 0.5874663591384888
0, 2, 6, 2.795207500457764
0, 2, 7, 1.779274940490723
0, 2, 8, 2.609702587127686
0, 2, 9, 2.791642665863037
0, 2, 10, 5.339593410491943
0, 2, 11, 3.642490386962891
0, 2, 12, 3.273397445678711
0, 2, 13, 4.151275157928467
0, 2, 14, 3.990338802337646
0, 2, 15, 5.737534046173096
0, 2, 16, 6.491626262664795
0, 2, 17, 9.316511154174805
0, 2, 18, 13.82041931152344
0, 2, 19, 78.24002838134766
0, 2, 20, 162.8339385986328
0, 2, 21, 184.2226715087891
0, 2, 22, 194.6173706054688
0, 2, 23, 185.6554260253906
0, 2, 24, 173.3378601074219
0, 2, 25, 183.4591979980469
0, 2, 26, 181.878662109375
0, 2, 27, 190.6245727539062
0, 2, 28, 172.0556793212891
0, 2, 29, 169.5905456542969
0, 2, 30, 184.8486328125
0, 2, 31, 182.1686096191406
0, 2, 32, 183.3277740478516
0, 2, 33, 190.4089050292969
0, 2, 34, 198.0668487548828
0, 2, 35, 181.1849975585938
0, 2, 36, 185.7196502685547
0, 2, 37, 181.2765197753906
0, 2, 38, 186.2471618652344
0, 2, 39, 167.3033142089844
0, 2, 40, 184.7638397216797
0, 2, 41, 184.7438812255859
0, 2, 42, 190.1192932128906
0, 2, 43, 193.2402648925781
0, 2, 44, 191.3069458007812
0, 2, 45, 190.0698699951172
0, 2, 46, 195.8021545410156
0, 2, 47, 188.4862213134766
0, 2, 48, 177.3141937255859
0, 2, 49, 197.4254150390625
0, 2, 50, 167.0209045410156
0, 2, 51, 183.3005218505859
0, 2, 52, 187.3318634033203
0, 2, 53, 194.6603240966797
0, 2, 54, 176.1166687011719
0, 2, 55, 174.4335021972656
0, 2, 56, 181.409423828125
0, 2, 57, 199.8504333496094
0, 2, 58, 187.2503814697266
0, 2, 59, 189.9549865722656
0, 2, 60, 196.7307586669922
0, 2, 61, 193.5171051025391
0, 2, 62, 189.9848785400391
0, 2, 63, 171.2833251953125
0, 2, 64, 189.3300170898438
0, 2, 65, 202.7572784423828
0, 2, 66, 196.9393920898438
0, 2, 67, 185.0243377685547
0, 2, 68, 182.5887908935547
0, 2, 69, 187.6760559082031
0, 2, 70, 202.9352722167969
0, 2, 71, 174.8990478515625
0, 2, 72, 186.4669647216797
0, 2, 73, 177.2891693115234
0, 2, 74, 180.6823883056641
0, 2, 75, 196.0450439453125
0, 2, 76, 183.7219848632812
0, 2, 77, 176.5359954833984
0, 2, 78, 198.3981475830078
0, 2, 79, 177.4863739013672
0, 2, 80, 186.3128814697266
0, 2, 81, 188.2202758789062
0, 2, 82, 205.5932464599609
0, 2, 83, 203.8149108886719
0, 2, 84, 188.31201171875
0, 2, 85, 170.657958984375
0, 2, 86, 194.3984222412109
0, 2, 87, 173.4279022216797
0, 2, 88, 179.1526489257812
0, 2, 89, 184.1893615722656
0, 2, 90, 178.4207458496094
0, 2, 91, 174.2724304199219
0, 2, 92, 196.9063262939453
0, 2, 93, 192.9120941162109
0, 2, 94, 198.3091735839844
0, 2, 95, 194.1973419189453
0, 2, 96, 190.1007385253906
0, 2, 97, 173.5851440429688
0, 2, 98, 173.9589538574219
0, 2, 99, 162.5780792236328
0, 2, 100, 186.7197113037109
0, 2, 101, 197.5789184570312
0, 2, 102, 177.0447998046875
0, 2, 103, 199.4651184082031
0, 2, 104, 188.6829986572266
0, 2, 105, 199.8870849609375
0, 2, 106, 194.1541595458984
0, 2, 107, 150.6350402832031
0, 2, 108, 79.25766754150391
0, 2, 109, 17.59743118286133
0, 2, 110, 7.073404788970947
0, 2, 111, 5.588942527770996
0, 2, 112, 4.175979614257812
0, 2, 113, 6.607208251953125
0, 2, 114, 7.641130447387695
0, 2, 115, 2.994268178939819
0, 2, 116, 1.443654298782349
0, 2, 117, 1.892297387123108
0, 2, 118, 3.065187454223633
0, 2, 119, 2.812005996704102
0, 2, 120, 1.592432737350464
0, 2, 121, 3.778874635696411
0, 2, 122, 2.290425777435303
0, 2, 123, 3.679637670516968
0, 2, 124, 2.580146312713623
0, 2, 125, 3.629924535751343
0, 2, 126, 2.79171085357666
0, 2, 127, 2.960073232650757
0, 3, 0, 1.746639728546143
0, 3, 1, 1.622306227684021
0, 3, 2, 2.122163772583008
0, 3, 3, 0.5778952240943909
0, 3, 4, 4.382959365844727
0, 3, 5, 2.94505763053894
0, 3, 6, 1.683024168014526
0, 3, 7, 1.463244915008545
0, 3, 8, 2.516052007675171
0, 3, 9, 3.161857604980469
0, 3, 10, 3.00922417640686
0, 3, 11, 3.799645900726318
0, 3, 12, 3.276200532913208
0, 3, 13, 3.344053983688354
0, 3, 14, 4.912916660308838
0, 3, 15, 5.819936752319336
0, 3, 16, 7.149136066436768
0, 3, 17, 5.670996189117432
0, 3, 18, 32.70755767822266
0, 3, 19, 115.8504257202148
0, 3, 20, 180.5793304443359
0, 3, 21, 172.2685546875
0, 3, 22, 177.3271942138672
0, 3, 23, 187.6096954345703
0, 3, 24, 178.500732421875
0, 3, 25, 168.6465606689453
0, 3, 26, 180.9304351806641
0, 3, 27, 190.2895202636719
0, 3, 28, 181.2028350830078
0, 3, 29, 198.3809356689453
0, 3, 30, 184.901123046875
0, 3, 31, 193.5740509033203
0, 3, 32, 205.8902435302734
0, 3, 33, 196.9077758789062
0, 3, 34, 187.4933471679688
0, 3, 35, 177.7081146240234
0, 3, 36, 185.9829864501953
0, 3, 37, 200.77490234375
0, 3, 38, 190.9847259521484
0, 3, 39, 184.3161163330078
0, 3, 40, 165.8077850341797
0, 3, 41, 174.34033203125
0, 3, 42, 185.1289978027344
0, 3, 43, 182.7815246582031
0, 3, 44, 202.1677856445312
0, 3, 45, 207.0814361572266
0, 3, 46, 198.8931732177734
0, 3, 47, 195.7454681396484
0, 3, 48, 195.6342010498047
0, 3, 49, 180.8630218505859
0, 3, 50, 188.6722564697266
0, 3, 51, 173.3558197021484
0, 3, 52, 188.0305633544922
0, 3, 53, 177.8668823242188
0, 3, 54, 179.7430114746094
0, 3, 55, 177.7178649902344
0, 3, 56, 182.7355041503906
0, 3, 57, 174.8123168945312
0, 3, 58, 201.7687530517578
0, 3, 59, 195.6952514648438
0, 3, 60, 185.6582183837891
0, 3, 61, 181.3660736083984
0, 3, 62, 182.9550476074219
0, 3, 63, 184.8784790039062
0, 3, 64, 188.5897827148438
0, 3, 65, 190.4170532226562
0, 3, 66, 175.585205078125
0, 3, 67, 189.3698272705078
0, 3, 68, 211.3285675048828
0, 3, 69, 190.3499908447266
0, 3, 70, 185.0030212402344
0, 3, 71, 197.0420989990234
0, 3, 72, 186.3113555908203
0, 3, 73, 186.4098358154297
0, 3, 74, 194.3438873291016
0, 3, 75, 192.8462371826172
0, 3, 76, 190.3020935058594
0, 3, 77, 200.3511505126953
0, 3, 78, 188.5875549316406
0, 3, 79, 186.1303405761719
0, 3, 80, 189.5088348388672
0, 3, 81, 183.9924468994141
0, 3, 82, 179.0310668945312
0, 3, 83, 194.8016357421875
0, 3, 84, 200.5942535400391
0, 3, 85, 191.9795837402344
0, 3, 86, 203.9094696044922
0, 3, 87, 196.4542999267578
0, 3, 88, 191.9169311523438
0, 3, 89, 193.6615142822266
0, 3, 90, 174.3251953125
0, 3, 91, 155.6591491699219
0, 3, 92, 207.0773468017578
0, 3, 93, 196.0991516113281
0, 3, 94, 192.0498199462891
0, 3, 95, 210.8991851806641
0, 3, 96, 209.3446502685547
0, 3, 97, 170.3324737548828
0, 3, 98, 168.1418151855469
0, 3, 99, 180.5022430419922
0, 3, 100, 176.1813049316406
0, 3, 101, 197.9076080322266
0, 3, 102, 195.1092529296875
0, 3, 103, 193.4313201904297
0, 3, 104, 202.5655212402344
0, 3, 105, 176.4542388916016
0, 3, 106, 182.081298828125
0, 3, 107, 170.9467468261719
0, 3, 108, 107.3125457763672
0, 3, 109, 27.51295471191406
0, 3, 110, 7.210592269897461
0, 3, 111, 7.077495574951172
0, 3, 112, 3.306558609008789
0, 3, 113, 8.357756614685059
0, 3, 114, 5.891912937164307
0, 3, 115, 5.580525875091553
0, 3, 116, 5.876538753509521
0, 3, 117, 4.621525764465332
0, 3, 118, 3.311945199966431
0, 3, 119, 2.467967510223389
0, 3, 120, 3.094274282455444
0, 3, 121, 1.54601001739502
0, 3, 122, 3.535925388336182
0, 3, 123, 1.276843786239624
0, 3, 124, 1.970329403877258
0, 3, 125, 2.450649738311768
0, 3, 126, 1.416672229766846
0, 3, 127, 1.036877036094666
0, 4, 0, 1.230285167694092
0, 4, 1, 2.3422532081604
0, 4, 2, 2.21543550491333
0, 4, 3, 3.657525777816772
0, 4, 4, 1.698739767074585
0, 4, 5, 1.184598922729492
0, 4, 6, 2.58802604675293
0, 4, 7, 2.180790662765503
0, 4, 8, 1.980207920074463
0, 4, 9, 2.022855997085571
0, 4, 10, 3.105474472045898
0, 4, 11, 3.744211196899414
0, 4, 12, 3.953684329986572
0, 4, 13, 4.135308742523193
0, 4, 14, 3.767022848129272
0, 4, 15, 8.530278205871582
0, 4, 16, 6.07662296295166
0, 4, 17, 11.23538112640381
0, 4, 18, 54.92937850952148
0, 4, 19, 150.8455657958984
0, 4, 20, 192.9942626953125
0, 4, 21, 169.380615234375
0, 4, 22, 187.4830322265625
0, 4, 23, 197.4135589599609
0, 4, 24, 192.8165740966797
0, 4, 25, 200.2789916992188
0, 4, 26, 183.5845794677734
0, 4, 27, 190.4608612060547
0, 4, 28, 179.6371765136719
0, 4, 29, 205.7408599853516
0, 4, 30, 194.5531463623047
0, 4, 31, 191.8335266113281
0, 4, 32, 209.8530883789062
0, 4, 33, 189.5694274902344
0, 4, 34, 191.7343902587891
0, 4, 35, 213.6002655029297
0, 4, 36, 192.4593505859375
0, 4, 37, 176.6575012207031
0, 4, 38, 194.5530395507812
0, 4, 39, 190.7283172607422
0, 4, 40, 185.2923736572266
0, 4, 41, 191.1029052734375
0, 4, 42, 207.4294891357422
0, 4, 43, 174.5643005371094
0, 4, 44, 184.3323516845703
0, 4, 45, 196.9902038574219
0, 4, 46, 185.6946716308594
0, 4, 47, 178.6089782714844
0, 4, 48, 185.4460144042969
0, 4, 49, 174.9111480712891
0, 4, 50, 186.5020141601562
0, 4, 51, 199.7371368408203
0, 4, 52, 223.7530059814453
0, 4, 53, 206.1166076660156
0, 4, 54, 190.7003784179688
0, 4, 55, 174.2271728515625
0, 4, 56, 191.237548828125
0, 4, 57, 191.9122314453125
0, 4, 58, 187.6215209960938
0, 4, 59, 189.3585968017578
0, 4, 60, 195.5733947753906
0, 4, 61, 192.8063659667969
0, 4, 62, 190.8398132324219
0, 4, 63, 178.5590209960938
0, 4, 64, 213.7257690429688
0, 4, 65, 193.1521453857422
0, 4, 66, 200.6296539306641
0, 4, 67, 200.4350128173828
0, 4, 68, 200.8638610839844
0, 4, 69, 199.8142395019531
0, 4, 70, 205.5762481689453
0, 4, 71, 208.3738555908203
0, 4, 72, 215.7917633056641
0, 4, 73, 185.3519287109375
0, 4, 74, 180.4394836425781
0, 4, 75, 186.5541839599609
0, 4, 76, 191.7078094482422
0, 4, 77, 182.7445373535156
0, 4, 78, 194.7767791748047
0, 4, 79, 204.3802795410156
0, 4, 80, 211.8697662353516
0, 4, 81, 198.6863861083984
0, 4, 82, 181.4998779296875
0, 4, 83, 172.8017730712891
0, 4, 84, 194.0587768554688
0, 4, 85, 195.6759338378906
0, 4, 86, 181.4489898681641
0, 4, 87, 183.1728973388672
0, 4, 88, 204.2174377441406
0, 4, 89, 187.585693359375
0, 4, 90, 211.1918182373047
0, 4, 91, 189.7992706298828
0, 4, 92, 195.9242095947266
0, 4, 93, 194.9686889648438
0, 4, 94, 182.0030517578125
0, 4, 95, 173.9314422607422
0, 4, 96, 189.8979949951172
0, 4, 97, 193.4644775390625
0, 4, 98, 201.8920135498047
0, 4, 99, 183.4786987304688
0, 4, 100, 182.9774017333984
0, 4, 101, 176.1249694824219
0, 4, 102, 172.1493072509766
0, 4, 103, 185.3359069824219
0, 4, 104, 208.97412109375
0, 4, 105, 189.6821136474609
0, 4, 106, 179.8283538818359
0, 4, 107, 182.3915557861328
0, 4, 108, 151.5332946777344
0, 4, 109, 48.84879302978516
0, 4, 110, 11.31416511535645
0, 4, 111, 8.840106964111328
0, 4, 112, 5.712722301483154
0, 4, 113, 6.901532649993896
0, 4, 114, 4.946022033691406
0, 4, 115, 4.499180793762207
0, 4, 116, 5.032280921936035
0, 4, 117, 2.042380571365356
0, 4, 118, 3.965698003768921
0, 4, 119, 3.805791616439819
0, 4, 120, 3.153905391693115
0, 4, 121, 1.653983116149902
0, 4, 122, 3.377844333648682
0, 4, 123, 2.512741088867188
0, 4, 124, 3.827584981918335
0, 4, 125, 2.813512563705444
0, 4, 126, 1.636675119400024
0, 4, 127, 2.286513805389404
0, 5, 0, 2.428263425827026
0, 5, 1, 2.35193657875061
0, 5, 2, 5.470353126525879
0, 5, 3, 3.757611274719238
0, 5, 4, 3.599663972854614
0, 5, 5, 4.907793045043945
0, 5, 6, 2.893328428268433
0, 5, 7, 3.623621225357056
0, 5, 8, 1.945093631744385
0, 5, 9, 2.197797775268555
0, 5, 10, 3.714010238647461
0, 5, 11, 2.659083843231201
0, 5, 12, 4.309101104736328
0, 5, 13, 3.69112491607666
0, 5, 14, 5.718565464019775
0, 5, 15, 8.210551261901855
0, 5, 16, 7.923998832702637
0, 5, 17, 22.27250480651855
0, 5, 18, 83.09999084472656
0, 5, 19, 163.6282348632812
0, 5, 20, 183.7792663574219
0, 5, 21, 177.8215942382812
0, 5, 22, 171.4735565185547
0, 5, 23, 201.86181640625
0, 5, 24, 187.289794921875
0, 5, 25, 208.7896728515625
0, 5, 26, 184.3115081787109
0, 5, 27, 193.5421600341797
0, 5, 28, 189.2674255371094
0, 5, 29, 195.3726959228516
0, 5, 30, 178.9232788085938
0, 5, 31, 180.7234039306641
0, 5, 32, 186.5055389404297
0, 5, 33, 169.3332977294922
0, 5, 34, 194.5585327148438
0, 5, 35, 196.2126159667969
0, 5, 36, 167.9891815185547
0, 5, 37, 197.3011627197266
0, 5, 38, 180.5730590820312
0, 5, 39, 186.646240234375
0, 5, 40, 196.594970703125
0, 5, 41, 177.1559753417969
0, 5, 42, 187.5989379882812
0, 5, 43, 192.2009429931641
0, 5, 44, 199.5134124755859
0, 5, 45, 185.7937774658203
0, 5, 46, 192.6810302734375
0, 5, 47, 182.3139190673828
0, 5, 48, 177.7527923583984
0, 5, 49, 178.582275390625
0, 5, 50, 185.6187438964844
0, 5, 51, 171.3597106933594
0, 5, 52, 167.8427581787109
0, 5, 53, 180.9559631347656
0, 5, 54, 174.6069488525391
0, 5, 55, 216.1743621826172
0, 5, 56, 181.30419921875
0, 5, 57, 206.3121185302734
0, 5, 58, 180.5500183105469
0, 5, 59, 181.1149139404297
0, 5, 60, 217.9128875732422
0, 5, 61, 184.6339569091797
0, 5, 62, 178.8470001220703
0, 5, 63, 180.3617401123047
0, 5, 64, 193.6368865966797
0, 5, 65, 211.0684509277344
0, 5, 66, 193.1017608642578
0, 5, 67, 199.1783142089844
0, 5, 68, 187.5544586181641
0, 5, 69, 187.4466857910156
0, 5, 70, 185.2308197021484
0, 5, 71, 192.5477905273438
0, 5, 72, 197.7509460449219
0, 5, 73, 201.9117279052734
0, 5, 74, 179.2816009521484
0, 5, 75, 203.3691711425781
0, 5, 76, 214.5285491943359
0, 5, 77, 182.2071685791016
0, 5, 78, 194.4527435302734
0, 5, 79, 191.5465393066406
0, 5, 80, 197.1679840087891
0, 5, 81, 202.8371429443359
0, 5, 82, 203.7453155517578
0, 5, 83, 188.3683471679688
0, 5, 84, 205.4428253173828
0, 5, 85, 175.3192291259766
0, 5, 86, 194.7977905273438
0, 5, 87, 188.935791015625
0, 5, 88, 176.7669525146484
0, 5, 89, 193.9635009765625
0, 5, 90, 198.3688812255859
0, 5, 91, 194.3023986816406
0, 5, 92, 190.8959808349609
0, 5, 93, 193.0797882080078
0, 5, 94, 209.1708374023438
0, 5, 95, 176.6974029541016
0, 5, 96, 181.8637237548828
0, 5, 97, 192.49169921875
0, 5, 98, 189.0485534667969
0, 5, 99, 194.222412109375
0, 5, 100, 186.4159393310547
0, 5, 101, 195.5717468261719
0, 5, 102, 182.193603515625
0, 5, 103, 176.6321105957031
0, 5, 104, 191.9811096191406
0, 5, 105, 189.0928802490234
0, 5, 106, 177.2592926025391
0, 5, 107, 182.2014923095703
0, 5, 108, 177.4214630126953
0, 5, 109, 91.45592498779297
0, 5, 110, 30.26285743713379
0, 5, 111, 9.480507850646973
0, 5, 112, 6.028931617736816
0, 5, 113, 8.460253715515137
0, 5, 114, 7.005599975585938
0, 5, 115, 7.708865642547607
0, 5, 116, 4.144737243652344
0, 5, 117, 4.041707038879395
0, 5, 118, 3.906827688217163
0, 5, 119, 4.417311191558838
0, 5, 120, 1.172275304794312
0, 5, 121, 1.260761380195618
0, 5, 122, 3.499398708343506
0, 5, 123, 5.567044258117676
0, 5, 124, 2.741914987564087
0, 5, 125, 1.572813749313354
0, 5, 126, 1.540652632713318
0, 5, 127, 4.029338836669922
0, 6, 0, 4.140013694763184
0, 6, 1, 2.480209827423096
0, 6, 2, 4.825663089752197
0, 6, 3, 1.603202939033508
0, 6, 4, 4.321197032928467
0, 6, 5, 3.280315399169922
0, 6, 6, 2.016489028930664
0, 6, 7, 3.761001825332642
0, 6, 8, 4.55057954788208
0, 6, 9, 3.096846342086792
0, 6, 10, 3.622839450836182
0, 6, 11, 5.192813396453857
0, 6, 12, 4.445897579193115
0, 6, 13, 5.536672592163086
0, 6, 14, 4.599753379821777
0, 6, 15, 6.42359447479248
0, 6, 16, 13.5435791015625
0, 6, 17, 30.42754936218262
0, 6, 18, 112.07080078125
0, 6, 19, 192.6387634277344
0, 6, 20, 197.0798492431641
0, 6, 21, 197.9356536865234
0, 6, 22, 190.0899353027344
0, 6, 23, 190.3831481933594
0, 6, 24, 200.4085845947266
0, 6, 25, 184.9017486572266
0, 6, 26, 187.2316131591797
0, 6, 27, 192.4386444091797
0, 6, 28, 188.5141296386719
0, 6, 29, 211.3774719238281
0, 6, 30, 189.7570953369141
0, 6, 31, 193.7779998779297
0, 6, 32, 206.3726806640625
0, 6, 33, 183.7383575439453
0, 6, 34, 197.1564788818359
0, 6, 35, 187.1061401367188
0, 6, 36, 180.8685302734375
0, 6, 37, 182.41650390625
0, 6, 38, 184.9544372558594
0, 6, 39, 194.1343994140625
0, 6, 40, 174.3373260498047
0, 6, 41, 184.7688293457031
0, 6, 42, 174.7312316894531
0, 6, 43, 210.3450012207031
0, 6, 44, 209.8293762207031
0, 6, 45, 193.0835876464844
0, 6, 46, 188.1538848876953
0, 6, 47, 204.8757019042969
0, 6, 48, 189.7253875732422
0, 6, 49, 178.5395812988281
0, 6, 50, 181.8908233642578
0, 6, 51, 195.4804992675781
0, 6, 52, 197.7658081054688
0, 6, 53, 184.5787200927734
0, 6, 54, 176.5088043212891
0, 6, 55, 194.7701721191406
0, 6, 56, 202.7044677734375
0, 6, 57, 192.1826324462891
0, 6, 58, 178.2828674316406
0, 6, 59, 192.5576171875
0, 6, 60, 183.7264404296875
0, 6, 61, 193.9386444091797
0, 6, 62, 196.2046356201172
0, 6, 63, 188.3919677734375
0, 6, 64, 168.3080902099609
0, 6, 65, 186.6708374023438
0, 6, 66, 201.6165008544922
0, 6, 67, 214.8300933837891
0, 6, 68, 179.9600067138672
0, 6, 69, 170.7023010253906
0, 6, 70, 188.0581970214844
0, 6, 71, 170.1471557617188
0, 6, 72, 175.9229736328125
0, 6, 73, 176.5466613769531
0, 6, 74, 209.5826263427734
0, 6, 75, 226.6527862548828
0, 6, 76, 184.6201171875
0, 6, 77, 173.7003021240234
0, 6, 78, 174.9336090087891
0, 6, 79, 186.5837860107422
0, 6, 80, 187.6865234375
0, 6, 81, 209.8909454345703
0, 6, 82, 194.7886657714844
0, 6, 83, 195.8370513916016
0, 6, 84, 197.087158203125
0, 6, 85, 182.3364562988281
0, 6, 86, 201.1046600341797
0, 6, 87, 184.6726226806641
0, 6, 88, 193.1996002197266
0, 6, 89, 188.5823822021484
0, 6, 90, 206.4245758056641
0, 6, 91, 200.5811462402344
0, 6, 92, 173.356201171875
0, 6, 93, 192.2042541503906
0, 6, 94, 190.8656921386719
0, 6, 95, 186.1003723144531
0, 6, 96, 189.3418579101562
0, 6, 97, 195.0314788818359
0, 6, 98, 182.5393829345703
0, 6, 99, 174.8863983154297
0, 6, 100, 200.9657592773438
0, 6, 101, 167.5306854248047
0, 6, 102, 201.7346954345703
0, 6, 103, 195.7332305908203
0, 6, 104, 185.7481384277344
0, 6, 105, 196.3482666015625
0, 6, 106, 177.6731719970703
0, 6, 107, 194.45263671875
0, 6, 108, 170.4670715332031
0, 6, 109, 115.1933822631836
0, 6, 110, 33.32392501831055
0, 6, 111, 9.316694259643555
0, 6, 112, 8.141700744628906
0, 6, 113, 5.918048858642578
0, 6, 114, 4.435833930969238
0, 6, 115, 5.851309776306152
0, 6, 116, 3.68305492401123
0, 6, 117, 2.83937931060791
0, 6, 118, 2.734414339065552
0, 6, 119, 3.78618049621582
0, 6, 120, 1.253866910934448
0, 6, 121, 6.147524356842041
0, 6, 122, 2.781934261322021
0, 6, 123, 2.013968944549561
0, 6, 124, 1.733890533447266
0, 6, 125, 2.500265121459961
0, 6, 126, 2.071893692016602
0, 6, 127, 2.38353705406189
0, 7, 0, 3.38453197479248
0, 7, 1, 1.294756889343262
0, 7, 2, 2.831311225891113
0, 7, 3, 2.205488204956055
0, 7, 4, 0.9319047927856445
0, 7, 5, 2.049507856369019
0, 7, 6, 2.279269456863403
0, 7, 7, 1.26351797580719
0, 7, 8, 2.542628049850464
0, 7, 9, 5.749747753143311
0, 7, 10, 4.957889556884766
0, 7, 11, 3.203491687774658
0, 7, 12, 3.477133274078369
0, 7, 13, 5.962537288665771
0, 7, 14, 8.715007781982422
0, 7, 15, 7.268325328826904
0, 7, 16, 17.51964950561523
0, 7, 17, 51.47607803344727
0, 7, 18, 161.3270721435547
0, 7, 19, 183.3089599609375
0, 7, 20, 178.1749420166016
0, 7, 21, 180.3753051757812
0, 7, 22, 191.1888427734375
0, 7, 23, 202.7490081787109
0, 7, 24, 180.8565063476562
0, 7, 25, 212.1097106933594
0, 7, 26, 190.159912109375
0, 7, 27, 182.2920074462891
0, 7, 28, 183.6864013671875
0, 7, 29, 208.2702026367188
0, 7, 30, 194.5092315673828
0, 7, 31, 176.8301391601562
0, 7, 32, 191.9909820556641
0, 7, 33, 180.6678009033203
0, 7, 34, 195.3255615234375
0, 7, 35, 196.689208984375
0, 7, 36, 186.5705871582031
0, 7, 37, 212.0829620361328
0, 7, 38, 191.1802062988281
0, 7, 39, 173.3398132324219
0, 7, 40, 183.4956970214844
0, 7, 41, 184.54052734375
0, 7, 42, 179.2930297851562
0, 7, 43, 177.6819915771484
0, 7, 44, 178.9003753662109
0, 7, 45, 175.4959869384766
0, 7, 46, 190.2974700927734
0, 7, 47, 197.7993011474609
0, 7, 48, 185.657958984375
0, 7, 49, 197.9062042236328
0, 7, 50, 189.4028930664062
0, 7, 51, 204.3759765625
0, 7, 52, 204.8708953857422
0, 7, 53, 191.4856872558594
0, 7, 54, 195.0729370117188
0, 7, 55, 202.6648559570312
0, 7, 56, 182.8095245361328
0, 7, 57, 183.8513793945312
0, 7, 58, 193.6410369873047
0, 7, 59, 187.6447296142578
0, 7, 60, 203.7456970214844
0, 7, 61, 170.7105865478516
0, 7, 62, 202.5797729492188
0, 7, 63, 190.7512817382812
0, 7, 64, 199.7109680175781
0, 7, 65, 194.7194671630859
0, 7, 66, 206.1188659667969
0, 7, 67, 220.8194580078125
0, 7, 68, 162.5730895996094
0, 7, 69, 194.6093292236328
0, 7, 70, 216.7933197021484
0, 7, 71, 184.397705078125
0, 7, 72, 180.7431488037109
0, 7, 73, 178.7486877441406
0, 7, 74, 208.2840881347656
0, 7, 75, 205.2101287841797
0, 7, 76, 214.8870697021484
0, 7, 77, 173.4106597900391
0, 7, 78, 176.4404449462891
0, 7, 79, 192.4313659667969
0, 7, 80, 195.7934875488281
0, 7, 81, 214.4653015136719
0, 7, 82, 184.6004791259766
0, 7, 83, 205.3027648925781
0, 7, 84, 193.2557830810547
0, 7, 85, 187.0010070800781
0, 7, 86, 200.5991058349609
0, 7, 87, 225.8658142089844
0, 7, 88, 194.7308959960938
0, 7, 89, 176.1202545166016
0, 7, 90, 182.0864715576172
0, 7, 91, 194.271484375
0, 7, 92, 193.0869293212891
0, 7, 93, 199.2355194091797
0, 7, 94, 178.5653076171875
0, 7, 95, 197.6558074951172
0, 7, 96, 208.3330078125
0, 7, 97, 188.3024139404297
0, 7, 98, 178.9430541992188
0, 7, 99, 196.5628051757812
0, 7, 100, 182.3219604492188
0, 7, 101, 199.3808746337891
0, 7, 102, 185.8961334228516
0, 7, 103, 181.6454010009766
0, 7, 104, 174.1138153076172
0, 7, 105, 195.0136566162109
0, 7, 106, 206.0906219482422
0, 7, 107, 174.5292816162109
0, 7, 108, 177.5755157470703
0, 7, 109, 136.8845520019531
0, 7, 110, 54.65139389038086
0, 7, 111, 8.486187934875488
0, 7, 112, 7.46238899230957
0, 7, 113, 9.150510787963867
0, 7, 114, 6.376376628875732
0, 7, 115, 4.877009391784668
0, 7, 116, 3.645725011825562
0, 7, 117, 5.451754093170166
0, 7, 118, 3.058304309844971
0, 7, 119, 2.945957183837891
0, 7, 120, 6.545499324798584
0, 7, 121, 4.532111644744873
0, 7, 122, 1.475605726242065
0, 7, 123, 1.497039794921875
0, 7, 124, 1.575978755950928
0, 7, 125, 1.344138383865356
0, 7, 126, 2.595325231552124
0, 7, 127, 0.8725785613059998
0, 8, 0, 4.54848575592041
0, 8, 1, 3.485895395278931
0, 8, 2, 2.55280590057373
0, 8, 3, 2.597135782241821
0, 8, 4, 1.731321811676025
0, 8, 5, 2.733093500137329
0, 8, 6, 1.567721009254456
0, 8, 7, 2.0639967918396
0, 8, 8, 3.612201690673828
0, 8, 9, 3.038818120956421
0, 8, 10, 3.558427095413208
0, 8, 11, 2.363078117370605
0, 8, 12, 3.559351444244385
0, 8, 13, 4.270728588104248
0, 8, 14, 5.72522497177124
0, 8, 15, 8.985312461853027
0, 8, 16, 20.83196640014648
0, 8, 17, 75.14930725097656
0, 8, 18, 142.4424133300781
0, 8, 19, 179.1445007324219
0, 8, 20, 193.1042633056641
0, 8, 21, 191.8300628662109
0, 8, 22, 180.43212890625
0, 8, 23, 172.3361663818359
0, 8, 24, 193.0225219726562
0, 8, 25, 185.2072296142578
0, 8, 26, 192.8003845214844
0, 8, 27, 186.7017669677734
0, 8, 28, 189.3001403808594
0, 8, 29, 207.5004425048828
0, 8, 30, 196.4217834472656
0, 8, 31, 182.9949035644531
0, 8, 32, 198.3009490966797
0, 8, 33, 206.5838775634766
0, 8, 34, 203.1854095458984
0, 8, 35, 186.8126373291016
0, 8, 36, 181.1982269287109
0, 8, 37, 198.8727722167969
0, 8, 38, 198.2522583007812
