# TOPAS Version: 3.1.p3
# Parameter File: batch_inserts_44.txt
# Results for scorer Readout_Adipose
# Scored in component: MyBox
# X in 1 bin  of 0.65 cm
# Y in 512 bins of 0.0783984 cm
# Z in 128 bins of 0.078125 cm
# EnergyDeposit ( MeV ) : Sum   
0, 0, 0, 1.562692046165466
0, 0, 1, 3.426278114318848
0, 0, 2, 1.165485024452209
0, 0, 3, 1.064209699630737
0, 0, 4, 2.48670220375061
0, 0, 5, 0.5590798258781433
0, 0, 6, 1.255332469940186
0, 0, 7, 1.638019204139709
0, 0, 8, 1.85647714138031
0, 0, 9, 2.727526426315308
0, 0, 10, 2.328683614730835
0, 0, 11, 3.040806293487549
0, 0, 12, 3.597792387008667
0, 0, 13, 2.921117782592773
0, 0, 14, 4.65788745880127
0, 0, 15, 6.483802318572998
0, 0, 16, 3.862282991409302
0, 0, 17, 6.947033405303955
0, 0, 18, 6.717020034790039
0, 0, 19, 22.83916473388672
0, 0, 20, 94.56007385253906
0, 0, 21, 152.2589721679688
0, 0, 22, 156.1875457763672
0, 0, 23, 143.6732940673828
0, 0, 24, 159.82861328125
0, 0, 25, 166.5449676513672
0, 0, 26, 167.1400909423828
0, 0, 27, 173.9403686523438
0, 0, 28, 177.8494873046875
0, 0, 29, 175.6078338623047
0, 0, 30, 173.2441711425781
0, 0, 31, 165.9410247802734
0, 0, 32, 164.8767242431641
0, 0, 33, 166.6968688964844
0, 0, 34, 177.3187713623047
0, 0, 35, 173.6188354492188
0, 0, 36, 158.8911285400391
0, 0, 37, 161.3504486083984
0, 0, 38, 168.2844543457031
0, 0, 39, 159.2852783203125
0, 0, 40, 164.0689849853516
0, 0, 41, 165.9484558105469
0, 0, 42, 143.1317443847656
0, 0, 43, 168.2084350585938
0, 0, 44, 178.1423950195312
0, 0, 45, 172.749267578125
0, 0, 46, 168.0429840087891
0, 0, 47, 167.6910095214844
0, 0, 48, 169.9918670654297
0, 0, 49, 184.1376953125
0, 0, 50, 168.0441131591797
0, 0, 51, 162.3331146240234
0, 0, 52, 161.9932098388672
0, 0, 53, 174.2533721923828
0, 0, 54, 159.3225250244141
0, 0, 55, 164.0741424560547
0, 0, 56, 188.8083038330078
0, 0, 57, 170.2507934570312
0, 0, 58, 161.2004241943359
0, 0, 59, 172.2256622314453
0, 0, 60, 170.0870513916016
0, 0, 61, 172.6788482666016
0, 0, 62, 183.8088073730469
0, 0, 63, 168.2516021728516
0, 0, 64, 163.7430572509766
0, 0, 65, 174.7742919921875
0, 0, 66, 177.6024475097656
0, 0, 67, 163.3928985595703
0, 0, 68, 158.7071685791016
0, 0, 69, 158.8071746826172
0, 0, 70, 170.8520202636719
0, 0, 71, 158.5400543212891
0, 0, 72, 161.0104827880859
0, 0, 73, 172.0877227783203
0, 0, 74, 161.610595703125
0, 0, 75, 164.0406188964844
0, 0, 76, 163.6614227294922
0, 0, 77, 172.7762451171875
0, 0, 78, 182.7922210693359
0, 0, 79, 175.5380401611328
0, 0, 80, 160.8356018066406
0, 0, 81, 159.9808502197266
0, 0, 82, 181.7061462402344
0, 0, 83, 173.0042572021484
0, 0, 84, 159.3725280761719
0, 0, 85, 182.1817321777344
0, 0, 86, 159.5328063964844
0, 0, 87, 177.7590179443359
0, 0, 88, 176.8948211669922
0, 0, 89, 175.4901885986328
0, 0, 90, 161.4295196533203
0, 0, 91, 187.6092529296875
0, 0, 92, 164.0504302978516
0, 0, 93, 156.1594085693359
0, 0, 94, 169.1581726074219
0, 0, 95, 173.1433715820312
0, 0, 96, 183.7843017578125
0, 0, 97, 184.1455993652344
0, 0, 98, 186.7193145751953
0, 0, 99, 170.8195648193359
0, 0, 100, 158.0426635742188
0, 0, 101, 166.6924285888672
0, 0, 102, 170.0301971435547
0, 0, 103, 170.3778076171875
0, 0, 104, 170.8993530273438
0, 0, 105, 177.7758178710938
0, 0, 106, 158.7099609375
0, 0, 107, 85.17346954345703
0, 0, 108, 21.33999824523926
0, 0, 109, 10.82946395874023
0, 0, 110, 5.204951763153076
0, 0, 111, 6.288207054138184
0, 0, 112, 3.373042583465576
0, 0, 113, 2.305800199508667
0, 0, 114, 3.857707262039185
0, 0, 115, 2.905851125717163
0, 0, 116, 3.638318061828613
0, 0, 117, 5.542539119720459
0, 0, 118, 3.117618560791016
0, 0, 119, 2.043903112411499
0, 0, 120, 1.372709393501282
0, 0, 121, 4.194427013397217
0, 0, 122, 5.34222412109375
0, 0, 123, 3.316190719604492
0, 0, 124, 1.604345560073853
0, 0, 125, 2.168174505233765
0, 0, 126, 1.19623076915741
0, 0, 127, 2.085912466049194
0, 1, 0, 0.6290199756622314
0, 1, 1, 3.478659152984619
0, 1, 2, 6.111096858978271
0, 1, 3, 1.758214831352234
0, 1, 4, 0.3739944100379944
0, 1, 5, 1.223047137260437
0, 1, 6, 1.194986581802368
0, 1, 7, 1.87793231010437
0, 1, 8, 3.578237295150757
0, 1, 9, 2.530441284179688
0, 1, 10, 2.894366979598999
0, 1, 11, 4.196287155151367
0, 1, 12, 3.037201642990112
0, 1, 13, 3.613430500030518
0, 1, 14, 5.80946683883667
0, 1, 15, 5.596394538879395
0, 1, 16, 8.122272491455078
0, 1, 17, 5.290489673614502
0, 1, 18, 10.4901819229126
0, 1, 19, 38.37255096435547
0, 1, 20, 125.6990051269531
0, 1, 21, 176.9867401123047
0, 1, 22, 192.4986724853516
0, 1, 23, 186.8351287841797
0, 1, 24, 180.6567840576172
0, 1, 25, 192.3321990966797
0, 1, 26, 198.1670074462891
0, 1, 27, 185.4926452636719
0, 1, 28, 188.0844268798828
0, 1, 29, 183.1863098144531
0, 1, 30, 179.2992706298828
0, 1, 31, 180.9281311035156
0, 1, 32, 189.9376983642578
0, 1, 33, 190.1408538818359
0, 1, 34, 184.3547668457031
0, 1, 35, 194.6242828369141
0, 1, 36, 205.8575286865234
0, 1, 37, 183.7250366210938
0, 1, 38, 167.7327880859375
0, 1, 39, 172.0268707275391
0, 1, 40, 180.7637939453125
0, 1, 41, 186.1013488769531
0, 1, 42, 183.7488098144531
0, 1, 43, 186.1519317626953
0, 1, 44, 168.1202545166016
0, 1, 45, 186.2322692871094
0, 1, 46, 170.6239318847656
0, 1, 47, 184.8485412597656
0, 1, 48, 186.4757537841797
0, 1, 49, 187.0144958496094
0, 1, 50, 178.3969268798828
0, 1, 51, 190.5646667480469
0, 1, 52, 195.4232330322266
0, 1, 53, 196.4224700927734
0, 1, 54, 185.2207489013672
0, 1, 55, 165.1494598388672
0, 1, 56, 178.6589508056641
0, 1, 57, 178.3850402832031
0, 1, 58, 188.6895599365234
0, 1, 59, 193.5703125
0, 1, 60, 188.0389251708984
0, 1, 61, 178.0314331054688
0, 1, 62, 205.9169006347656
0, 1, 63, 174.2075653076172
0, 1, 64, 173.1701049804688
0, 1, 65, 186.0138244628906
0, 1, 66, 203.7958831787109
0, 1, 67, 182.8189392089844
0, 1, 68, 186.9124298095703
0, 1, 69, 188.9479675292969
0, 1, 70, 185.0097503662109
0, 1, 71, 171.4983062744141
0, 1, 72, 193.2598571777344
0, 1, 73, 189.9365081787109
0, 1, 74, 201.2742462158203
0, 1, 75, 185.3260040283203
0, 1, 76, 174.3868865966797
0, 1, 77, 191.97314453125
0, 1, 78, 187.9336242675781
0, 1, 79, 202.0847473144531
0, 1, 80, 188.9827880859375
0, 1, 81, 174.30810546875
0, 1, 82, 208.1567840576172
0, 1, 83, 212.9359283447266
0, 1, 84, 180.0764770507812
0, 1, 85, 168.9860534667969
0, 1, 86, 168.2155914306641
0, 1, 87, 184.6157836914062
0, 1, 88, 175.8272857666016
0, 1, 89, 187.0327911376953
0, 1, 90, 211.9806365966797
0, 1, 91, 181.6606903076172
0, 1, 92, 183.9484710693359
0, 1, 93, 182.0373077392578
0, 1, 94, 187.7322540283203
0, 1, 95, 182.1626434326172
0, 1, 96, 195.7200317382812
0, 1, 97, 182.1212615966797
0, 1, 98, 187.6533050537109
0, 1, 99, 176.3110504150391
0, 1, 100, 172.0458221435547
0, 1, 101, 177.8877410888672
0, 1, 102, 182.4537811279297
0, 1, 103, 172.9511108398438
0, 1, 104, 190.181640625
0, 1, 105, 182.2742004394531
0, 1, 106, 163.1261901855469
0, 1, 107, 123.7549285888672
0, 1, 108, 45.88045120239258
0, 1, 109, 9.294598579406738
0, 1, 110, 7.382998943328857
0, 1, 111, 7.519522666931152
0, 1, 112, 7.516204833984375
0, 1, 113, 6.643170833587646
0, 1, 114, 5.712106227874756
0, 1, 115, 4.190009117126465
0, 1, 116, 2.702646255493164
0, 1, 117, 2.488922357559204
0, 1, 118, 3.60639500617981
0, 1, 119, 1.14555811882019
0, 1, 120, 3.409766912460327
0, 1, 121, 5.628766059875488
0, 1, 122, 2.122243165969849
0, 1, 123, 1.617944121360779
0, 1, 124, 3.156667947769165
0, 1, 125, 2.012990474700928
0, 1, 126, 1.703877091407776
0, 1, 127, 3.132020711898804
0, 2, 0, 1.101350426673889
0, 2, 1, 3.652437686920166
0, 2, 2, 2.009946584701538
0, 2, 3, 0.7783154249191284
0, 2, 4, 1.007773160934448
0, 2, 5, 0.9619448184967041
0, 2, 6, 2.922670125961304
0, 2, 7, 2.263156890869141
0, 2, 8, 1.324018239974976
0, 2, 9, 1.606666564941406
0, 2, 10, 4.196962833404541
0, 2, 11, 4.378791332244873
0, 2, 12, 3.914414167404175
0, 2, 13, 5.91273832321167
0, 2, 14, 4.748937606811523
0, 2, 15, 6.217745304107666
0, 2, 16, 5.724361896514893
0, 2, 17, 8.740121841430664
0, 2, 18, 14.26023483276367
0, 2, 19, 76.34461975097656
0, 2, 20, 163.57568359375
0, 2, 21, 183.0160217285156
0, 2, 22, 194.9301452636719
0, 2, 23, 183.9723510742188
0, 2, 24, 173.4287567138672
0, 2, 25, 184.1051177978516
0, 2, 26, 181.5300598144531
0, 2, 27, 192.0316467285156
0, 2, 28, 170.9286956787109
0, 2, 29, 169.3577270507812
0, 2, 30, 187.4936218261719
0, 2, 31, 182.6118011474609
0, 2, 32, 182.93994140625
0, 2, 33, 190.4239349365234
0, 2, 34, 197.4678039550781
0, 2, 35, 181.9936065673828
0, 2, 36, 188.8468475341797
0, 2, 37, 180.7046508789062
0, 2, 38, 183.6982727050781
0, 2, 39, 166.20703125
0, 2, 40, 183.5828552246094
0, 2, 41, 184.0299835205078
0, 2, 42, 189.9678039550781
0, 2, 43, 193.1222076416016
0, 2, 44, 190.9367828369141
0, 2, 45, 188.9197845458984
0, 2, 46, 196.6560516357422
0, 2, 47, 189.5436553955078
0, 2, 48, 178.2257995605469
0, 2, 49, 198.5427856445312
0, 2, 50, 168.0038604736328
0, 2, 51, 185.1953125
0, 2, 52, 186.4539337158203
0, 2, 53, 197.4912261962891
0, 2, 54, 175.9062957763672
0, 2, 55, 173.4819641113281
0, 2, 56, 182.2245635986328
0, 2, 57, 199.5683288574219
0, 2, 58, 185.8299865722656
0, 2, 59, 189.2527313232422
0, 2, 60, 197.8523559570312
0, 2, 61, 193.5932006835938
0, 2, 62, 189.4142913818359
0, 2, 63, 169.6304168701172
0, 2, 64, 189.7450256347656
0, 2, 65, 203.1059417724609
0, 2, 66, 195.6861572265625
0, 2, 67, 185.07421875
0, 2, 68, 183.7413940429688
0, 2, 69, 187.4277038574219
0, 2, 70, 203.7050933837891
0, 2, 71, 175.1103057861328
0, 2, 72, 185.4037322998047
0, 2, 73, 177.7018737792969
0, 2, 74, 180.3816070556641
0, 2, 75, 197.1674957275391
0, 2, 76, 183.2030944824219
0, 2, 77, 176.5961761474609
0, 2, 78, 198.9144134521484
0, 2, 79, 177.9173431396484
0, 2, 80, 186.9785919189453
0, 2, 81, 187.9415588378906
0, 2, 82, 205.9753570556641
0, 2, 83, 204.1400756835938
0, 2, 84, 190.0560913085938
0, 2, 85, 171.8491821289062
0, 2, 86, 194.9639587402344
0, 2, 87, 171.3206634521484
0, 2, 88, 178.7676849365234
0, 2, 89, 184.2380676269531
0, 2, 90, 178.0682525634766
0, 2, 91, 174.0401916503906
0, 2, 92, 196.2447967529297
0, 2, 93, 194.8407135009766
0, 2, 94, 199.578369140625
0, 2, 95, 193.8018951416016
0, 2, 96, 188.4822845458984
0, 2, 97, 173.5444183349609
0, 2, 98, 173.6481170654297
0, 2, 99, 163.5170288085938
0, 2, 100, 187.2201843261719
0, 2, 101, 197.2366790771484
0, 2, 102, 176.5029754638672
0, 2, 103, 199.0270080566406
0, 2, 104, 187.1062774658203
0, 2, 105, 200.4086761474609
0, 2, 106, 195.7494659423828
0, 2, 107, 148.8939666748047
0, 2, 108, 78.73898315429688
0, 2, 109, 18.30574798583984
0, 2, 110, 8.232562065124512
0, 2, 111, 6.131510257720947
0, 2, 112, 4.212720394134521
0, 2, 113, 4.28316068649292
0, 2, 114, 6.739963531494141
0, 2, 115, 4.732376098632812
0, 2, 116, 2.243412733078003
0, 2, 117, 1.695896029472351
0, 2, 118, 3.396584749221802
0, 2, 119, 3.407496690750122
0, 2, 120, 1.371625900268555
0, 2, 121, 2.597446918487549
0, 2, 122, 1.544302105903625
0, 2, 123, 5.750956058502197
0, 2, 124, 2.34809136390686
0, 2, 125, 3.481889009475708
0, 2, 126, 2.560095310211182
0, 2, 127, 0.9010834097862244
0, 3, 0, 1.462839841842651
0, 3, 1, 2.249631881713867
0, 3, 2, 2.010532379150391
0, 3, 3, 0.9516569972038269
0, 3, 4, 4.891763210296631
0, 3, 5, 1.495123863220215
0, 3, 6, 0.7108870148658752
0, 3, 7, 2.685946464538574
0, 3, 8, 1.500914573669434
0, 3, 9, 2.583065748214722
0, 3, 10, 3.972982168197632
0, 3, 11, 3.605060815811157
0, 3, 12, 4.439979076385498
0, 3, 13, 3.456738471984863
0, 3, 14, 4.131528377532959
0, 3, 15, 7.25029468536377
0, 3, 16, 6.752702713012695
0, 3, 17, 7.472833156585693
0, 3, 18, 34.14310455322266
0, 3, 19, 115.2625045776367
0, 3, 20, 179.6477203369141
0, 3, 21, 172.6001739501953
0, 3, 22, 177.6320037841797
0, 3, 23, 187.8355865478516
0, 3, 24, 178.0438842773438
0, 3, 25, 170.7471466064453
0, 3, 26, 180.9052734375
0, 3, 27, 190.8558807373047
0, 3, 28, 181.6674652099609
0, 3, 29, 197.4064483642578
0, 3, 30, 184.9437408447266
0, 3, 31, 194.4077911376953
0, 3, 32, 205.951416015625
0, 3, 33, 194.9179382324219
0, 3, 34, 188.6077728271484
0, 3, 35, 175.4343109130859
0, 3, 36, 185.9145660400391
0, 3, 37, 199.6544647216797
0, 3, 38, 190.4635467529297
0, 3, 39, 184.5443420410156
0, 3, 40, 166.4122619628906
0, 3, 41, 173.8769226074219
0, 3, 42, 185.2583618164062
0, 3, 43, 181.59130859375
0, 3, 44, 202.3644409179688
0, 3, 45, 208.7735137939453
0, 3, 46, 198.95458984375
0, 3, 47, 194.1923828125
0, 3, 48, 195.5934448242188
0, 3, 49, 180.9956359863281
0, 3, 50, 186.1771697998047
0, 3, 51, 173.6755828857422
0, 3, 52, 187.4284210205078
0, 3, 53, 177.3176574707031
0, 3, 54, 178.9210815429688
0, 3, 55, 177.0693817138672
0, 3, 56, 182.1672210693359
0, 3, 57, 175.9566040039062
0, 3, 58, 201.2949829101562
0, 3, 59, 196.0932922363281
0, 3, 60, 185.6845550537109
0, 3, 61, 181.3055419921875
0, 3, 62, 181.6188201904297
0, 3, 63, 185.4625091552734
0, 3, 64, 190.0987701416016
0, 3, 65, 187.4216613769531
0, 3, 66, 175.3583374023438
0, 3, 67, 191.8773040771484
0, 3, 68, 211.2886352539062
0, 3, 69, 189.8777465820312
0, 3, 70, 185.3467559814453
0, 3, 71, 196.2104797363281
0, 3, 72, 185.5649261474609
0, 3, 73, 186.2164306640625
0, 3, 74, 193.7074279785156
0, 3, 75, 192.0570068359375
0, 3, 76, 190.9111022949219
0, 3, 77, 199.6013488769531
0, 3, 78, 188.0754699707031
0, 3, 79, 184.6206665039062
0, 3, 80, 190.7884368896484
0, 3, 81, 183.3796691894531
0, 3, 82, 181.0075073242188
0, 3, 83, 195.4379577636719
0, 3, 84, 199.2763519287109
0, 3, 85, 192.7791290283203
0, 3, 86, 204.3652954101562
0, 3, 87, 196.9487152099609
0, 3, 88, 191.9936218261719
0, 3, 89, 192.7381134033203
0, 3, 90, 174.50048828125
0, 3, 91, 155.8688201904297
0, 3, 92, 207.8581695556641
0, 3, 93, 195.8981170654297
0, 3, 94, 192.8564758300781
0, 3, 95, 211.5837554931641
0, 3, 96, 210.0433959960938
0, 3, 97, 167.6094970703125
0, 3, 98, 167.2686920166016
0, 3, 99, 179.8743133544922
0, 3, 100, 177.0219268798828
0, 3, 101, 197.8385162353516
0, 3, 102, 197.2613067626953
0, 3, 103, 193.6115112304688
0, 3, 104, 202.5955657958984
0, 3, 105, 174.6916809082031
0, 3, 106, 181.07568359375
0, 3, 107, 169.8618927001953
0, 3, 108, 107.6236572265625
0, 3, 109, 27.5499382019043
0, 3, 110, 7.627702713012695
0, 3, 111, 6.671168327331543
0, 3, 112, 5.637026786804199
0, 3, 113, 7.829798698425293
0, 3, 114, 4.299068450927734
0, 3, 115, 4.79645299911499
0, 3, 116, 7.052442073822021
0, 3, 117, 3.114235639572144
0, 3, 118, 1.700011372566223
0, 3, 119, 2.805939197540283
0, 3, 120, 4.348485946655273
0, 3, 121, 1.142060279846191
0, 3, 122, 2.379920482635498
0, 3, 123, 2.454032897949219
0, 3, 124, 1.534988760948181
0, 3, 125, 1.179687738418579
0, 3, 126, 1.652044534683228
0, 3, 127, 1.110789179801941
0, 4, 0, 0.9897485971450806
0, 4, 1, 1.897289395332336
0, 4, 2, 2.568612575531006
0, 4, 3, 4.559690952301025
0, 4, 4, 2.786212205886841
0, 4, 5, 0.9775007963180542
0, 4, 6, 2.897216796875
0, 4, 7, 2.729960441589355
0, 4, 8, 2.352968454360962
0, 4, 9, 3.363610029220581
0, 4, 10, 3.213665723800659
0, 4, 11, 2.970155000686646
0, 4, 12, 3.149754762649536
0, 4, 13, 4.62578821182251
0, 4, 14, 4.669117450714111
0, 4, 15, 9.386064529418945
0, 4, 16, 6.957908153533936
0, 4, 17, 11.04876232147217
0, 4, 18, 55.72988510131836
0, 4, 19, 151.4689483642578
0, 4, 20, 192.8417358398438
0, 4, 21, 169.1922302246094
0, 4, 22, 187.3709106445312
0, 4, 23, 195.5070343017578
0, 4, 24, 192.4140167236328
0, 4, 25, 199.177490234375
0, 4, 26, 183.6433410644531
0, 4, 27, 191.9044494628906
0, 4, 28, 177.8406677246094
0, 4, 29, 205.3059234619141
0, 4, 30, 194.8152008056641
0, 4, 31, 192.5222625732422
0, 4, 32, 208.8503723144531
0, 4, 33, 190.650146484375
0, 4, 34, 191.9211883544922
0, 4, 35, 213.0711669921875
0, 4, 36, 192.2466430664062
0, 4, 37, 176.705322265625
0, 4, 38, 194.1045837402344
0, 4, 39, 189.497802734375
0, 4, 40, 187.478515625
0, 4, 41, 189.69140625
0, 4, 42, 206.7652435302734
0, 4, 43, 174.6578826904297
0, 4, 44, 183.7064208984375
0, 4, 45, 196.4053039550781
0, 4, 46, 185.7531585693359
0, 4, 47, 179.1602020263672
0, 4, 48, 188.1561584472656
0, 4, 49, 174.6063232421875
0, 4, 50, 186.1192626953125
0, 4, 51, 197.4542999267578
0, 4, 52, 223.9834289550781
0, 4, 53, 207.1763763427734
0, 4, 54, 190.2059020996094
0, 4, 55, 175.0975494384766
0, 4, 56, 191.859619140625
0, 4, 57, 190.7070922851562
0, 4, 58, 188.0489654541016
0, 4, 59, 191.4932403564453
0, 4, 60, 195.937255859375
0, 4, 61, 192.9818115234375
0, 4, 62, 189.3890075683594
0, 4, 63, 179.8386383056641
0, 4, 64, 213.2227935791016
0, 4, 65, 192.8786315917969
0, 4, 66, 201.2470550537109
0, 4, 67, 200.4009094238281
0, 4, 68, 201.6609191894531
0, 4, 69, 200.0124206542969
0, 4, 70, 205.8399505615234
0, 4, 71, 206.4808197021484
0, 4, 72, 214.5786895751953
0, 4, 73, 186.5296325683594
0, 4, 74, 180.6920928955078
0, 4, 75, 186.2669830322266
0, 4, 76, 191.7967071533203
0, 4, 77, 183.8216247558594
0, 4, 78, 195.1055450439453
0, 4, 79, 204.1303405761719
0, 4, 80, 211.8940887451172
0, 4, 81, 197.4953155517578
0, 4, 82, 181.7107696533203
0, 4, 83, 169.0037689208984
0, 4, 84, 192.7896270751953
0, 4, 85, 196.5692443847656
0, 4, 86, 180.2889862060547
0, 4, 87, 184.3240966796875
0, 4, 88, 204.220458984375
0, 4, 89, 187.9652862548828
0, 4, 90, 213.1453552246094
0, 4, 91, 190.8313446044922
0, 4, 92, 195.6225738525391
0, 4, 93, 196.0106353759766
0, 4, 94, 181.3897552490234
0, 4, 95, 173.6578826904297
0, 4, 96, 189.5928955078125
0, 4, 97, 191.8436431884766
0, 4, 98, 200.5248565673828
0, 4, 99, 182.9810333251953
0, 4, 100, 182.4756469726562
0, 4, 101, 177.4214172363281
0, 4, 102, 173.5057525634766
0, 4, 103, 185.2056274414062
0, 4, 104, 210.3720703125
0, 4, 105, 191.6028442382812
0, 4, 106, 180.267578125
0, 4, 107, 181.0926361083984
0, 4, 108, 152.2509918212891
0, 4, 109, 49.8469123840332
0, 4, 110, 11.28279495239258
0, 4, 111, 8.029900550842285
0, 4, 112, 6.078725337982178
0, 4, 113, 6.623085498809814
0, 4, 114, 4.530786037445068
0, 4, 115, 4.157942295074463
0, 4, 116, 4.264222621917725
0, 4, 117, 3.268253087997437
0, 4, 118, 3.015331983566284
0, 4, 119, 3.640129566192627
0, 4, 120, 2.077261686325073
0, 4, 121, 2.383175373077393
0, 4, 122, 3.63688588142395
0, 4, 123, 1.60902738571167
0, 4, 124, 4.926718235015869
0, 4, 125, 3.175975799560547
0, 4, 126, 2.810017585754395
0, 4, 127, 1.747183084487915
0, 5, 0, 1.95855438709259
0, 5, 1, 1.872939109802246
0, 5, 2, 5.07609224319458
0, 5, 3, 3.375112533569336
0, 5, 4, 1.683582305908203
0, 5, 5, 1.422737598419189
0, 5, 6, 2.686936616897583
0, 5, 7, 3.077736616134644
0, 5, 8, 2.320803642272949
0, 5, 9, 2.556014776229858
0, 5, 10, 3.080785036087036
0, 5, 11, 4.074943542480469
0, 5, 12, 6.046328067779541
0, 5, 13, 3.659719944000244
0, 5, 14, 5.558930397033691
0, 5, 15, 8.918536186218262
0, 5, 16, 7.075348377227783
0, 5, 17, 21.66517639160156
0, 5, 18, 83.28022003173828
0, 5, 19, 163.8192138671875
0, 5, 20, 182.6891174316406
0, 5, 21, 177.1150817871094
0, 5, 22, 171.2065277099609
0, 5, 23, 201.5320129394531
0, 5, 24, 186.9639892578125
0, 5, 25, 208.1738891601562
0, 5, 26, 183.4990539550781
0, 5, 27, 193.6194000244141
0, 5, 28, 190.3302459716797
0, 5, 29, 196.1354217529297
0, 5, 30, 177.2696533203125
0, 5, 31, 179.9457702636719
0, 5, 32, 187.0847625732422
0, 5, 33, 168.4389801025391
0, 5, 34, 194.9370422363281
0, 5, 35, 196.9745178222656
0, 5, 36, 168.213134765625
0, 5, 37, 198.8196105957031
0, 5, 38, 180.3189086914062
0, 5, 39, 187.0622711181641
0, 5, 40, 197.2263641357422
0, 5, 41, 177.0177307128906
0, 5, 42, 186.7629547119141
0, 5, 43, 192.64453125
0, 5, 44, 200.0793914794922
0, 5, 45, 185.5644378662109
0, 5, 46, 193.2345581054688
0, 5, 47, 181.363525390625
0, 5, 48, 177.8704528808594
0, 5, 49, 177.5801391601562
0, 5, 50, 186.373046875
0, 5, 51, 171.3710174560547
0, 5, 52, 168.2806396484375
0, 5, 53, 181.2397766113281
0, 5, 54, 172.4581604003906
0, 5, 55, 217.5835571289062
0, 5, 56, 182.0335998535156
0, 5, 57, 207.7756195068359
0, 5, 58, 182.9534454345703
0, 5, 59, 180.5986938476562
0, 5, 60, 218.2156677246094
0, 5, 61, 184.5446319580078
0, 5, 62, 178.7811126708984
0, 5, 63, 179.5952758789062
0, 5, 64, 194.895751953125
0, 5, 65, 209.5947265625
0, 5, 66, 192.1346130371094
0, 5, 67, 198.9560394287109
0, 5, 68, 186.2639617919922
0, 5, 69, 184.8715667724609
0, 5, 70, 185.3762512207031
0, 5, 71, 193.7530212402344
0, 5, 72, 197.4013824462891
0, 5, 73, 200.9971008300781
0, 5, 74, 181.5032806396484
0, 5, 75, 201.9697570800781
0, 5, 76, 216.1638336181641
0, 5, 77, 181.6248931884766
0, 5, 78, 194.9095458984375
0, 5, 79, 189.8681640625
0, 5, 80, 197.9533233642578
0, 5, 81, 202.5119781494141
0, 5, 82, 203.0035247802734
0, 5, 83, 187.73046875
0, 5, 84, 205.8776550292969
0, 5, 85, 175.7369232177734
0, 5, 86, 197.9836883544922
0, 5, 87, 188.0724334716797
0, 5, 88, 177.1243286132812
0, 5, 89, 193.9727325439453
0, 5, 90, 198.2963256835938
0, 5, 91, 194.2193908691406
0, 5, 92, 190.8990631103516
0, 5, 93, 190.7860565185547
0, 5, 94, 208.2015991210938
0, 5, 95, 177.548828125
0, 5, 96, 184.2753601074219
0, 5, 97, 191.6086730957031
0, 5, 98, 188.3682403564453
0, 5, 99, 194.6700897216797
0, 5, 100, 187.0774993896484
0, 5, 101, 196.4970245361328
0, 5, 102, 181.2349243164062
0, 5, 103, 176.3966522216797
0, 5, 104, 192.5336456298828
0, 5, 105, 190.0611419677734
0, 5, 106, 176.8671417236328
0, 5, 107, 182.3375396728516
0, 5, 108, 176.6338653564453
0, 5, 109, 90.44069671630859
0, 5, 110, 30.26772308349609
0, 5, 111, 9.521768569946289
0, 5, 112, 6.53905725479126
0, 5, 113, 5.833868980407715
0, 5, 114, 6.787606716156006
0, 5, 115, 5.924439907073975
0, 5, 116, 4.592968463897705
0, 5, 117, 4.57724142074585
0, 5, 118, 3.617775201797485
0, 5, 119, 3.474650382995605
0, 5, 120, 1.279482960700989
0, 5, 121, 3.645314455032349
0, 5, 122, 2.662777423858643
0, 5, 123, 3.595562934875488
0, 5, 124, 3.722310304641724
0, 5, 125, 0.6732001900672913
0, 5, 126, 2.50240421295166
0, 5, 127, 4.184412479400635
0, 6, 0, 3.905954122543335
0, 6, 1, 2.681553840637207
0, 6, 2, 2.958556652069092
0, 6, 3, 1.14333975315094
0, 6, 4, 3.241399765014648
0, 6, 5, 2.881984949111938
0, 6, 6, 2.365188837051392
0, 6, 7, 3.714657068252563
0, 6, 8, 4.371713638305664
0, 6, 9, 2.682500600814819
0, 6, 10, 5.138836860656738
0, 6, 11, 4.735452651977539
0, 6, 12, 3.508854866027832
0, 6, 13, 5.756234645843506
0, 6, 14, 5.120002746582031
0, 6, 15, 6.780191898345947
0, 6, 16, 13.36467170715332
0, 6, 17, 28.79846382141113
0, 6, 18, 111.68798828125
0, 6, 19, 190.2572631835938
0, 6, 20, 198.5443420410156
0, 6, 21, 197.9900817871094
0, 6, 22, 191.4810333251953
0, 6, 23, 190.1576080322266
0, 6, 24, 200.3646392822266
0, 6, 25, 181.0154418945312
0, 6, 26, 187.0231323242188
0, 6, 27, 191.4269104003906
0, 6, 28, 188.3386840820312
0, 6, 29, 210.8854217529297
0, 6, 30, 189.0316772460938
0, 6, 31, 192.5867767333984
0, 6, 32, 208.8423309326172
0, 6, 33, 184.4971618652344
0, 6, 34, 196.3784027099609
0, 6, 35, 187.5923156738281
0, 6, 36, 180.5880889892578
0, 6, 37, 184.154296875
0, 6, 38, 187.9200744628906
0, 6, 39, 194.3840637207031
0, 6, 40, 173.1820220947266
0, 6, 41, 185.8209991455078
0, 6, 42, 174.3993988037109
0, 6, 43, 212.2719879150391
0, 6, 44, 209.2500762939453
0, 6, 45, 194.8807373046875
0, 6, 46, 187.6841735839844
0, 6, 47, 204.8089599609375
0, 6, 48, 190.1748199462891
0, 6, 49, 179.8087005615234
0, 6, 50, 181.68115234375
0, 6, 51, 195.8530883789062
0, 6, 52, 197.1803894042969
0, 6, 53, 184.1686096191406
0, 6, 54, 174.830810546875
0, 6, 55, 193.9689483642578
0, 6, 56, 202.6871337890625
0, 6, 57, 191.7922515869141
0, 6, 58, 179.9374237060547
0, 6, 59, 192.6575012207031
0, 6, 60, 184.4281463623047
0, 6, 61, 195.4069061279297
0, 6, 62, 197.55322265625
0, 6, 63, 187.6502075195312
0, 6, 64, 169.7415313720703
0, 6, 65, 185.2194366455078
0, 6, 66, 197.4568328857422
0, 6, 67, 214.2102813720703
0, 6, 68, 180.8403015136719
0, 6, 69, 170.5991973876953
0, 6, 70, 187.5683288574219
0, 6, 71, 170.4443359375
0, 6, 72, 177.3312072753906
0, 6, 73, 176.5678253173828
0, 6, 74, 209.9225616455078
0, 6, 75, 227.1098022460938
0, 6, 76, 184.3323822021484
0, 6, 77, 172.214111328125
0, 6, 78, 175.3973999023438
0, 6, 79, 186.5497131347656
0, 6, 80, 188.6437530517578
0, 6, 81, 210.6098480224609
0, 6, 82, 195.0319976806641
0, 6, 83, 195.591552734375
0, 6, 84, 199.6289672851562
0, 6, 85, 183.3602752685547
0, 6, 86, 201.4834899902344
0, 6, 87, 184.1998138427734
0, 6, 88, 192.8762817382812
0, 6, 89, 188.0975341796875
0, 6, 90, 205.5654907226562
0, 6, 91, 199.7298736572266
0, 6, 92, 174.7064208984375
0, 6, 93, 192.6591339111328
0, 6, 94, 189.2649383544922
0, 6, 95, 184.7759094238281
0, 6, 96, 188.7469940185547
0, 6, 97, 194.8728637695312
0, 6, 98, 183.9071502685547
0, 6, 99, 174.4123077392578
0, 6, 100, 201.4223785400391
0, 6, 101, 167.9820861816406
0, 6, 102, 201.6077728271484
0, 6, 103, 196.4384918212891
0, 6, 104, 184.0441131591797
0, 6, 105, 196.1922607421875
0, 6, 106, 176.9308013916016
0, 6, 107, 195.3260040283203
0, 6, 108, 174.4078521728516
0, 6, 109, 115.790885925293
0, 6, 110, 34.65183258056641
0, 6, 111, 10.66788864135742
0, 6, 112, 8.357095718383789
0, 6, 113, 5.332405567169189
0, 6, 114, 5.120969772338867
0, 6, 115, 7.108551979064941
0, 6, 116, 4.360198020935059
0, 6, 117, 4.612101554870605
0, 6, 118, 3.110029458999634
0, 6, 119, 3.752804517745972
0, 6, 120, 2.095526695251465
0, 6, 121, 3.874142169952393
0, 6, 122, 2.744495153427124
0, 6, 123, 2.667737007141113
0, 6, 124, 1.882640600204468
0, 6, 125, 2.270607471466064
0, 6, 126, 2.169919013977051
0, 6, 127, 3.638991355895996
0, 7, 0, 2.991034984588623
0, 7, 1, 1.465676307678223
0, 7, 2, 3.396727323532104
0, 7, 3, 3.367719411849976
0, 7, 4, 1.642790079116821
0, 7, 5, 2.221743106842041
0, 7, 6, 2.875493049621582
0, 7, 7, 1.11517870426178
0, 7, 8, 2.383507490158081
0, 7, 9, 3.234253644943237
0, 7, 10, 5.030229091644287
0, 7, 11, 4.296505451202393
0, 7, 12, 4.994654178619385
0, 7, 13, 6.105244636535645
0, 7, 14, 6.556594848632812
0, 7, 15, 6.850986957550049
0, 7, 16, 17.90064811706543
0, 7, 17, 49.62944030761719
0, 7, 18, 160.5743713378906
0, 7, 19, 183.0442199707031
0, 7, 20, 180.7926330566406
0, 7, 21, 181.4157409667969
0, 7, 22, 190.9762268066406
0, 7, 23, 202.6794738769531
0, 7, 24, 179.8380889892578
0, 7, 25, 213.3200225830078
0, 7, 26, 189.1826324462891
0, 7, 27, 182.1172943115234
0, 7, 28, 182.3667144775391
0, 7, 29, 208.7001800537109
0, 7, 30, 192.1588745117188
0, 7, 31, 178.8100128173828
0, 7, 32, 190.3829803466797
0, 7, 33, 178.9501495361328
0, 7, 34, 194.2870483398438
0, 7, 35, 196.6955871582031
0, 7, 36, 186.3734588623047
0, 7, 37, 213.1623840332031
0, 7, 38, 190.8548126220703
0, 7, 39, 173.8185729980469
0, 7, 40, 182.9444885253906
0, 7, 41, 184.7753143310547
0, 7, 42, 177.9017333984375
0, 7, 43, 179.1132049560547
0, 7, 44, 179.1129760742188
0, 7, 45, 174.8396301269531
0, 7, 46, 187.9021453857422
0, 7, 47, 197.5477600097656
0, 7, 48, 184.9303588867188
0, 7, 49, 197.9967041015625
0, 7, 50, 187.9356384277344
0, 7, 51, 204.7991027832031
0, 7, 52, 203.6162719726562
0, 7, 53, 191.7336120605469
0, 7, 54, 194.988525390625
0, 7, 55, 203.5975036621094
0, 7, 56, 183.0249633789062
0, 7, 57, 182.605712890625
0, 7, 58, 190.7424163818359
0, 7, 59, 187.3614349365234
0, 7, 60, 202.2420501708984
0, 7, 61, 171.5210571289062
0, 7, 62, 202.802978515625
0, 7, 63, 188.5567169189453
0, 7, 64, 199.2259979248047
0, 7, 65, 198.8252563476562
0, 7, 66, 206.3708038330078
0, 7, 67, 219.5575866699219
0, 7, 68, 162.3148498535156
0, 7, 69, 195.3815307617188
0, 7, 70, 216.7040252685547
0, 7, 71, 183.8061370849609
0, 7, 72, 180.7388763427734
0, 7, 73, 178.3588104248047
0, 7, 74, 209.0418090820312
0, 7, 75, 203.9810180664062
0, 7, 76, 214.8747863769531
0, 7, 77, 173.3630218505859
0, 7, 78, 176.7023773193359
0, 7, 79, 192.2275848388672
0, 7, 80, 194.9380035400391
0, 7, 81, 214.7394561767578
0, 7, 82, 184.3354187011719
0, 7, 83, 204.8076934814453
0, 7, 84, 191.6720275878906
0, 7, 85, 186.0231323242188
0, 7, 86, 200.2611236572266
0, 7, 87, 225.4962463378906
0, 7, 88, 195.0362701416016
0, 7, 89, 178.6419067382812
0, 7, 90, 183.3030853271484
0, 7, 91, 193.8862915039062
0, 7, 92, 195.0791625976562
0, 7, 93, 198.8212738037109
0, 7, 94, 177.2001495361328
0, 7, 95, 198.6931304931641
0, 7, 96, 208.4769287109375
0, 7, 97, 189.2430114746094
0, 7, 98, 177.1207885742188
0, 7, 99, 198.6392669677734
0, 7, 100, 182.2811126708984
0, 7, 101, 200.4974517822266
0, 7, 102, 186.6357269287109
0, 7, 103, 181.7951202392578
0, 7, 104, 174.3390045166016
0, 7, 105, 195.2172698974609
0, 7, 106, 205.141845703125
0, 7, 107, 173.6518859863281
0, 7, 108, 176.4870452880859
0, 7, 109, 137.4532928466797
0, 7, 110, 55.00904083251953
0, 7, 111, 9.178561210632324
0, 7, 112, 8.933411598205566
0, 7, 113, 9.234614372253418
0, 7, 114, 8.20323657989502
0, 7, 115, 5.161461353302002
0, 7, 116, 3.850847721099854
0, 7, 117, 1.932485580444336
0, 7, 118, 2.905107021331787
0, 7, 119, 3.838893890380859
0, 7, 120, 2.327247619628906
0, 7, 121, 1.93160605430603
0, 7, 122, 2.805061817169189
0, 7, 123, 1.469884634017944
0, 7, 124, 1.124249219894409
0, 7, 125, 2.407214403152466
0, 7, 126, 1.597950577735901
0, 7, 127, 1.534784436225891
0, 8, 0, 3.475304365158081
0, 8, 1, 1.968480587005615
0, 8, 2, 4.031322479248047
0, 8, 3, 2.927868127822876
0, 8, 4, 1.249731421470642
0, 8, 5, 3.437913417816162
0, 8, 6, 1.758772850036621
0, 8, 7, 2.385650157928467
0, 8, 8, 3.625058889389038
0, 8, 9, 6.104785919189453
0, 8, 10, 3.541945219039917
0, 8, 11, 1.869744539260864
0, 8, 12, 3.511165380477905
0, 8, 13, 4.363078117370605
0, 8, 14, 7.820417404174805
0, 8, 15, 8.837376594543457
0, 8, 16, 19.29524040222168
0, 8, 17, 75.86035919189453
0, 8, 18, 142.2518615722656
0, 8, 19, 178.7962799072266
0, 8, 20, 193.9819030761719
0, 8, 21, 193.8674163818359
0, 8, 22, 181.0403747558594
0, 8, 23, 172.5274658203125
0, 8, 24, 192.7032012939453
0, 8, 25, 186.6163024902344
0, 8, 26, 193.8581085205078
0, 8, 27, 186.0250854492188
0, 8, 28, 185.4409790039062
0, 8, 29, 206.745361328125
0, 8, 30, 198.3787078857422
0, 8, 31, 182.1725463867188
0, 8, 32, 198.0911407470703
0, 8, 33, 206.8892517089844
0, 8, 34, 204.0003051757812
0, 8, 35, 184.9021148681641
0, 8, 36, 182.6787567138672
0, 8, 37, 198.3158721923828
0, 8, 38, 198.4363250732422
