# TOPAS Version: 3.1.p3
# Parameter File: batch_inserts_252.txt
# Results for scorer Readout_Adipose
# Scored in component: MyBox
# X in 1 bin  of 0.65 cm
# Y in 512 bins of 0.0783984 cm
# Z in 128 bins of 0.078125 cm
# EnergyDeposit ( MeV ) : Sum   
0, 0, 0, 2.651501178741455
0, 0, 1, 3.495180606842041
0, 0, 2, 1.005541086196899
0, 0, 3, 1.120695114135742
0, 0, 4, 1.014296531677246
0, 0, 5, 0.8715299367904663
0, 0, 6, 1.611817002296448
0, 0, 7, 1.61170756816864
0, 0, 8, 1.8333820104599
0, 0, 9, 2.656099557876587
0, 0, 10, 1.410912752151489
0, 0, 11, 4.453429698944092
0, 0, 12, 3.185852766036987
0, 0, 13, 2.226653099060059
0, 0, 14, 4.888259887695312
0, 0, 15, 5.51757287979126
0, 0, 16, 3.83908224105835
0, 0, 17, 6.013309955596924
0, 0, 18, 6.139247894287109
0, 0, 19, 22.29766273498535
0, 0, 20, 93.46268463134766
0, 0, 21, 152.9246978759766
0, 0, 22, 155.3026885986328
0, 0, 23, 144.8416290283203
0, 0, 24, 159.2342987060547
0, 0, 25, 166.064453125
0, 0, 26, 167.2236328125
0, 0, 27, 175.1636505126953
0, 0, 28, 177.8980560302734
0, 0, 29, 174.9486846923828
0, 0, 30, 173.3117980957031
0, 0, 31, 166.4597320556641
0, 0, 32, 164.1716918945312
0, 0, 33, 166.6158752441406
0, 0, 34, 177.7649841308594
0, 0, 35, 175.1874084472656
0, 0, 36, 159.1263275146484
0, 0, 37, 161.1228332519531
0, 0, 38, 166.5149078369141
0, 0, 39, 161.0437164306641
0, 0, 40, 164.3536529541016
0, 0, 41, 165.4468994140625
0, 0, 42, 143.9989166259766
0, 0, 43, 170.1985931396484
0, 0, 44, 178.5682983398438
0, 0, 45, 173.0599060058594
0, 0, 46, 166.1331176757812
0, 0, 47, 167.6724853515625
0, 0, 48, 168.7193145751953
0, 0, 49, 182.6114654541016
0, 0, 50, 168.6902160644531
0, 0, 51, 161.3861389160156
0, 0, 52, 163.8583679199219
0, 0, 53, 172.8147735595703
0, 0, 54, 159.7863311767578
0, 0, 55, 165.0762329101562
0, 0, 56, 188.7530975341797
0, 0, 57, 170.8942565917969
0, 0, 58, 161.7232513427734
0, 0, 59, 172.4114074707031
0, 0, 60, 169.5232238769531
0, 0, 61, 170.4484252929688
0, 0, 62, 182.6708679199219
0, 0, 63, 167.2192535400391
0, 0, 64, 163.5269165039062
0, 0, 65, 174.5355072021484
0, 0, 66, 177.9276428222656
0, 0, 67, 164.3260345458984
0, 0, 68, 158.3704528808594
0, 0, 69, 159.3717803955078
0, 0, 70, 170.0904693603516
0, 0, 71, 159.5489349365234
0, 0, 72, 162.3256683349609
0, 0, 73, 171.1948547363281
0, 0, 74, 163.3824005126953
0, 0, 75, 163.2295074462891
0, 0, 76, 162.5955505371094
0, 0, 77, 171.6988677978516
0, 0, 78, 181.4960632324219
0, 0, 79, 175.6681213378906
0, 0, 80, 160.3057403564453
0, 0, 81, 160.5497283935547
0, 0, 82, 182.2286987304688
0, 0, 83, 173.8101654052734
0, 0, 84, 159.7448577880859
0, 0, 85, 181.4829711914062
0, 0, 86, 159.6838073730469
0, 0, 87, 176.6239929199219
0, 0, 88, 177.0921478271484
0, 0, 89, 180.2106475830078
0, 0, 90, 162.3192901611328
0, 0, 91, 185.8015747070312
0, 0, 92, 164.0971527099609
0, 0, 93, 156.0315399169922
0, 0, 94, 168.9302062988281
0, 0, 95, 173.3843994140625
0, 0, 96, 183.6565093994141
0, 0, 97, 184.6820068359375
0, 0, 98, 185.6400604248047
0, 0, 99, 170.7085876464844
0, 0, 100, 158.7324676513672
0, 0, 101, 166.5333709716797
0, 0, 102, 170.0750732421875
0, 0, 103, 171.2626647949219
0, 0, 104, 169.0175170898438
0, 0, 105, 179.4211120605469
0, 0, 106, 158.6950073242188
0, 0, 107, 86.45866394042969
0, 0, 108, 21.61820220947266
0, 0, 109, 10.38178443908691
0, 0, 110, 5.269046306610107
0, 0, 111, 6.361995220184326
0, 0, 112, 3.735057830810547
0, 0, 113, 3.345358610153198
0, 0, 114, 2.581405401229858
0, 0, 115, 1.864851713180542
0, 0, 116, 1.982083082199097
0, 0, 117, 3.287408828735352
0, 0, 118, 2.660668611526489
0, 0, 119, 1.977015137672424
0, 0, 120, 1.553611993789673
0, 0, 121, 4.459064483642578
0, 0, 122, 3.87226128578186
0, 0, 123, 3.227282047271729
0, 0, 124, 1.187176823616028
0, 0, 125, 2.519561529159546
0, 0, 126, 2.074293375015259
0, 0, 127, 3.689684867858887
0, 1, 0, 1.26513397693634
0, 1, 1, 4.587505340576172
0, 1, 2, 1.84395706653595
0, 1, 3, 1.177096366882324
0, 1, 4, 1.200387597084045
0, 1, 5, 1.856132030487061
0, 1, 6, 1.20054042339325
0, 1, 7, 2.220661640167236
0, 1, 8, 1.48945677280426
0, 1, 9, 2.435697793960571
0, 1, 10, 3.609493970870972
0, 1, 11, 2.870942831039429
0, 1, 12, 5.010107517242432
0, 1, 13, 4.923887729644775
0, 1, 14, 5.632379531860352
0, 1, 15, 6.410366058349609
0, 1, 16, 6.371751308441162
0, 1, 17, 6.013259410858154
0, 1, 18, 11.00008296966553
0, 1, 19, 41.75824737548828
0, 1, 20, 126.1811904907227
0, 1, 21, 177.7489166259766
0, 1, 22, 193.253173828125
0, 1, 23, 186.2697296142578
0, 1, 24, 179.8009948730469
0, 1, 25, 192.9015655517578
0, 1, 26, 197.6237487792969
0, 1, 27, 185.8812561035156
0, 1, 28, 188.0661773681641
0, 1, 29, 183.0414276123047
0, 1, 30, 179.9146575927734
0, 1, 31, 181.4831848144531
0, 1, 32, 188.4089050292969
0, 1, 33, 191.5417175292969
0, 1, 34, 184.2041168212891
0, 1, 35, 193.0162506103516
0, 1, 36, 205.5447692871094
0, 1, 37, 184.8633728027344
0, 1, 38, 164.3908081054688
0, 1, 39, 171.4020233154297
0, 1, 40, 179.6099853515625
0, 1, 41, 185.5709533691406
0, 1, 42, 182.3191986083984
0, 1, 43, 185.4627075195312
0, 1, 44, 167.4226837158203
0, 1, 45, 188.3354187011719
0, 1, 46, 170.6183319091797
0, 1, 47, 184.8942260742188
0, 1, 48, 185.9475402832031
0, 1, 49, 186.45947265625
0, 1, 50, 178.0656890869141
0, 1, 51, 191.6597900390625
0, 1, 52, 195.3629913330078
0, 1, 53, 195.77001953125
0, 1, 54, 185.3765258789062
0, 1, 55, 164.5686187744141
0, 1, 56, 179.4454345703125
0, 1, 57, 179.0526733398438
0, 1, 58, 188.4268646240234
0, 1, 59, 193.2187957763672
0, 1, 60, 188.3202972412109
0, 1, 61, 178.2294616699219
0, 1, 62, 204.7255401611328
0, 1, 63, 175.3859558105469
0, 1, 64, 174.10302734375
0, 1, 65, 184.6980438232422
0, 1, 66, 203.7794342041016
0, 1, 67, 182.1925506591797
0, 1, 68, 187.2453918457031
0, 1, 69, 188.9078216552734
0, 1, 70, 187.0375823974609
0, 1, 71, 171.6303863525391
0, 1, 72, 188.774169921875
0, 1, 73, 190.4414825439453
0, 1, 74, 201.3688659667969
0, 1, 75, 183.5078735351562
0, 1, 76, 174.2252197265625
0, 1, 77, 191.9197845458984
0, 1, 78, 189.2059020996094
0, 1, 79, 203.4615173339844
0, 1, 80, 185.6638031005859
0, 1, 81, 175.1242523193359
0, 1, 82, 209.4083862304688
0, 1, 83, 211.942138671875
0, 1, 84, 180.1763610839844
0, 1, 85, 169.8652191162109
0, 1, 86, 167.2681884765625
0, 1, 87, 184.3279876708984
0, 1, 88, 175.3226013183594
0, 1, 89, 187.1129455566406
0, 1, 90, 212.3583526611328
0, 1, 91, 182.4815979003906
0, 1, 92, 184.3620910644531
0, 1, 93, 182.0709381103516
0, 1, 94, 184.9984588623047
0, 1, 95, 184.6312866210938
0, 1, 96, 196.4401092529297
0, 1, 97, 182.85107421875
0, 1, 98, 186.3509063720703
0, 1, 99, 175.3658599853516
0, 1, 100, 171.1132507324219
0, 1, 101, 178.2553863525391
0, 1, 102, 182.2007904052734
0, 1, 103, 173.2880859375
0, 1, 104, 189.411865234375
0, 1, 105, 182.7889251708984
0, 1, 106, 164.0207672119141
0, 1, 107, 124.163818359375
0, 1, 108, 49.34489059448242
0, 1, 109, 10.66807556152344
0, 1, 110, 9.109701156616211
0, 1, 111, 6.673059463500977
0, 1, 112, 6.712510108947754
0, 1, 113, 6.414403915405273
0, 1, 114, 4.335605144500732
0, 1, 115, 3.173158884048462
0, 1, 116, 3.197440385818481
0, 1, 117, 1.933463454246521
0, 1, 118, 3.158123254776001
0, 1, 119, 1.416467428207397
0, 1, 120, 4.288604736328125
0, 1, 121, 3.775459289550781
0, 1, 122, 1.878031373023987
0, 1, 123, 2.480334281921387
0, 1, 124, 2.083564758300781
0, 1, 125, 2.788309097290039
0, 1, 126, 1.462576985359192
0, 1, 127, 2.556612014770508
0, 2, 0, 1.165079951286316
0, 2, 1, 3.065173149108887
0, 2, 2, 3.866052389144897
0, 2, 3, 1.666401386260986
0, 2, 4, 1.258886575698853
0, 2, 5, 1.026095032691956
0, 2, 6, 1.881931662559509
0, 2, 7, 2.012566328048706
0, 2, 8, 0.9353101253509521
0, 2, 9, 3.696148633956909
0, 2, 10, 5.077221870422363
0, 2, 11, 3.768779754638672
0, 2, 12, 3.758958578109741
0, 2, 13, 2.888296127319336
0, 2, 14, 4.241940021514893
0, 2, 15, 5.907798290252686
0, 2, 16, 7.159505367279053
0, 2, 17, 9.323264122009277
0, 2, 18, 15.68606472015381
0, 2, 19, 77.56099700927734
0, 2, 20, 162.2310943603516
0, 2, 21, 183.4108276367188
0, 2, 22, 194.6114501953125
0, 2, 23, 183.2873229980469
0, 2, 24, 173.9902191162109
0, 2, 25, 183.8727569580078
0, 2, 26, 178.6678314208984
0, 2, 27, 189.9822235107422
0, 2, 28, 172.6693420410156
0, 2, 29, 168.6876068115234
0, 2, 30, 186.1038665771484
0, 2, 31, 182.6787719726562
0, 2, 32, 184.1304016113281
0, 2, 33, 191.0044555664062
0, 2, 34, 199.7713623046875
0, 2, 35, 181.2829437255859
0, 2, 36, 186.2947692871094
0, 2, 37, 182.0015106201172
0, 2, 38, 185.7605743408203
0, 2, 39, 166.0526580810547
0, 2, 40, 184.5784149169922
0, 2, 41, 184.7267913818359
0, 2, 42, 190.2256011962891
0, 2, 43, 194.1064605712891
0, 2, 44, 190.4732055664062
0, 2, 45, 189.7625579833984
0, 2, 46, 195.6042175292969
0, 2, 47, 189.7869262695312
0, 2, 48, 176.8479766845703
0, 2, 49, 198.6857147216797
0, 2, 50, 168.71728515625
0, 2, 51, 184.8035430908203
0, 2, 52, 186.8031311035156
0, 2, 53, 195.8503875732422
0, 2, 54, 175.2678833007812
0, 2, 55, 174.0613250732422
0, 2, 56, 182.3316955566406
0, 2, 57, 200.424560546875
0, 2, 58, 186.0680541992188
0, 2, 59, 190.7868957519531
0, 2, 60, 196.5085754394531
0, 2, 61, 193.2682647705078
0, 2, 62, 191.4373779296875
0, 2, 63, 170.8014526367188
0, 2, 64, 188.8349304199219
0, 2, 65, 202.5282135009766
0, 2, 66, 195.990234375
0, 2, 67, 183.9604797363281
0, 2, 68, 182.155517578125
0, 2, 69, 187.6001739501953
0, 2, 70, 204.2488708496094
0, 2, 71, 174.6065521240234
0, 2, 72, 185.8766937255859
0, 2, 73, 177.4273529052734
0, 2, 74, 180.6085662841797
0, 2, 75, 196.7163391113281
0, 2, 76, 184.1727294921875
0, 2, 77, 178.6606292724609
0, 2, 78, 198.3827972412109
0, 2, 79, 179.4315490722656
0, 2, 80, 186.6539611816406
0, 2, 81, 187.2754669189453
0, 2, 82, 204.7558135986328
0, 2, 83, 204.3401947021484
0, 2, 84, 189.0712127685547
0, 2, 85, 171.8828887939453
0, 2, 86, 195.8303985595703
0, 2, 87, 171.7448577880859
0, 2, 88, 179.4854431152344
0, 2, 89, 184.1993713378906
0, 2, 90, 178.0136260986328
0, 2, 91, 174.9651489257812
0, 2, 92, 196.4443664550781
0, 2, 93, 193.6130676269531
0, 2, 94, 200.3586730957031
0, 2, 95, 193.2263946533203
0, 2, 96, 186.2763977050781
0, 2, 97, 171.8519592285156
0, 2, 98, 173.2888336181641
0, 2, 99, 163.5015258789062
0, 2, 100, 187.55224609375
0, 2, 101, 196.1726379394531
0, 2, 102, 176.5400085449219
0, 2, 103, 199.0707550048828
0, 2, 104, 186.8102416992188
0, 2, 105, 202.9353332519531
0, 2, 106, 193.6963348388672
0, 2, 107, 150.8370971679688
0, 2, 108, 79.24856567382812
0, 2, 109, 19.64298248291016
0, 2, 110, 8.282465934753418
0, 2, 111, 5.603107452392578
0, 2, 112, 5.710871696472168
0, 2, 113, 4.308414936065674
0, 2, 114, 7.046200275421143
0, 2, 115, 5.000776290893555
0, 2, 116, 4.067399978637695
0, 2, 117, 1.70176112651825
0, 2, 118, 2.043291091918945
0, 2, 119, 2.461779594421387
0, 2, 120, 2.670508861541748
0, 2, 121, 4.018259048461914
0, 2, 122, 2.349062919616699
0, 2, 123, 3.320639610290527
0, 2, 124, 2.492092847824097
0, 2, 125, 2.495635986328125
0, 2, 126, 2.71088981628418
0, 2, 127, 0.7647851705551147
0, 3, 0, 1.45787239074707
0, 3, 1, 1.048828363418579
0, 3, 2, 1.177600145339966
0, 3, 3, 1.2032790184021
0, 3, 4, 4.793930053710938
0, 3, 5, 2.060232162475586
0, 3, 6, 1.014155626296997
0, 3, 7, 1.690621972084045
0, 3, 8, 2.226657629013062
0, 3, 9, 2.910544633865356
0, 3, 10, 2.722967147827148
0, 3, 11, 3.502832174301147
0, 3, 12, 3.963843584060669
0, 3, 13, 3.400510311126709
0, 3, 14, 4.28432559967041
0, 3, 15, 9.123770713806152
0, 3, 16, 7.676378726959229
0, 3, 17, 6.358011245727539
0, 3, 18, 33.08010864257812
0, 3, 19, 115.0901336669922
0, 3, 20, 181.9469604492188
0, 3, 21, 172.7829437255859
0, 3, 22, 177.8572235107422
0, 3, 23, 187.8911285400391
0, 3, 24, 177.8006896972656
0, 3, 25, 168.1769409179688
0, 3, 26, 180.6618499755859
0, 3, 27, 189.5231170654297
0, 3, 28, 183.0121917724609
0, 3, 29, 198.0966339111328
0, 3, 30, 186.7429046630859
0, 3, 31, 194.0573120117188
0, 3, 32, 205.8510437011719
0, 3, 33, 196.3778839111328
0, 3, 34, 189.1719818115234
0, 3, 35, 173.4688110351562
0, 3, 36, 185.2735137939453
0, 3, 37, 201.6350402832031
0, 3, 38, 190.5565948486328
0, 3, 39, 185.7343444824219
0, 3, 40, 165.7269592285156
0, 3, 41, 173.9038696289062
0, 3, 42, 185.3952789306641
0, 3, 43, 181.4227905273438
0, 3, 44, 202.8517608642578
0, 3, 45, 208.0469055175781
0, 3, 46, 198.8312225341797
0, 3, 47, 194.7208709716797
0, 3, 48, 196.9972229003906
0, 3, 49, 179.9779968261719
0, 3, 50, 186.5316619873047
0, 3, 51, 174.3690948486328
0, 3, 52, 188.1635437011719
0, 3, 53, 178.4472045898438
0, 3, 54, 178.7241363525391
0, 3, 55, 176.6147766113281
0, 3, 56, 182.0340881347656
0, 3, 57, 174.5631561279297
0, 3, 58, 202.583984375
0, 3, 59, 197.1542663574219
0, 3, 60, 186.3257141113281
0, 3, 61, 182.7157135009766
0, 3, 62, 182.1579132080078
0, 3, 63, 187.6610107421875
0, 3, 64, 191.3121948242188
0, 3, 65, 188.4920043945312
0, 3, 66, 175.6573333740234
0, 3, 67, 189.6663665771484
0, 3, 68, 211.5585784912109
0, 3, 69, 190.5161743164062
0, 3, 70, 185.1437835693359
0, 3, 71, 196.8935699462891
0, 3, 72, 185.4899139404297
0, 3, 73, 186.3348999023438
0, 3, 74, 192.1830139160156
0, 3, 75, 192.3690643310547
0, 3, 76, 190.7303924560547
0, 3, 77, 197.7596282958984
0, 3, 78, 188.8727569580078
0, 3, 79, 186.5695495605469
0, 3, 80, 189.0489196777344
0, 3, 81, 183.5055389404297
0, 3, 82, 179.3973999023438
0, 3, 83, 196.2352142333984
0, 3, 84, 199.3048095703125
0, 3, 85, 192.3316497802734
0, 3, 86, 204.2257995605469
0, 3, 87, 197.3763275146484
0, 3, 88, 191.2098846435547
0, 3, 89, 194.8978729248047
0, 3, 90, 173.7892608642578
0, 3, 91, 159.0718688964844
0, 3, 92, 206.1541290283203
0, 3, 93, 197.4276428222656
0, 3, 94, 192.9431915283203
0, 3, 95, 211.5455932617188
0, 3, 96, 208.2840270996094
0, 3, 97, 167.9339904785156
0, 3, 98, 167.5181884765625
0, 3, 99, 180.0045471191406
0, 3, 100, 176.6299896240234
0, 3, 101, 196.7946624755859
0, 3, 102, 195.5419464111328
0, 3, 103, 193.1227111816406
0, 3, 104, 202.3304443359375
0, 3, 105, 175.1974639892578
0, 3, 106, 181.3917846679688
0, 3, 107, 169.1050415039062
0, 3, 108, 108.286247253418
0, 3, 109, 27.56497955322266
0, 3, 110, 8.455892562866211
0, 3, 111, 7.171875476837158
0, 3, 112, 3.972735166549683
0, 3, 113, 6.795506954193115
0, 3, 114, 5.635476112365723
0, 3, 115, 4.614222049713135
0, 3, 116, 6.385875225067139
0, 3, 117, 4.006698131561279
0, 3, 118, 3.664292812347412
0, 3, 119, 2.400978326797485
0, 3, 120, 4.275079727172852
0, 3, 121, 2.364698171615601
0, 3, 122, 2.161467790603638
0, 3, 123, 2.146989345550537
0, 3, 124, 1.470916986465454
0, 3, 125, 1.544071674346924
0, 3, 126, 2.16222620010376
0, 3, 127, 1.069517612457275
0, 4, 0, 1.89717423915863
0, 4, 1, 0.5343317985534668
0, 4, 2, 2.803118467330933
0, 4, 3, 4.940923690795898
0, 4, 4, 2.069118499755859
0, 4, 5, 0.8198634386062622
0, 4, 6, 2.782789468765259
0, 4, 7, 2.786517858505249
0, 4, 8, 1.229304313659668
0, 4, 9, 3.382549524307251
0, 4, 10, 4.246233940124512
0, 4, 11, 3.60650634765625
0, 4, 12, 3.723891973495483
0, 4, 13, 4.266613006591797
0, 4, 14, 4.185305595397949
0, 4, 15, 8.066048622131348
0, 4, 16, 5.808270454406738
0, 4, 17, 11.15650177001953
0, 4, 18, 55.62825393676758
0, 4, 19, 150.7361907958984
0, 4, 20, 192.8366851806641
0, 4, 21, 169.6819458007812
0, 4, 22, 187.7368011474609
0, 4, 23, 195.7625274658203
0, 4, 24, 192.6122436523438
0, 4, 25, 199.5967559814453
0, 4, 26, 182.9357299804688
0, 4, 27, 190.4762420654297
0, 4, 28, 180.0244750976562
0, 4, 29, 205.4417724609375
0, 4, 30, 195.5139770507812
0, 4, 31, 193.5093231201172
0, 4, 32, 208.8111877441406
0, 4, 33, 189.8701324462891
0, 4, 34, 192.6350402832031
0, 4, 35, 214.1026458740234
0, 4, 36, 192.6941070556641
0, 4, 37, 177.1771850585938
0, 4, 38, 193.7445373535156
0, 4, 39, 190.0999603271484
0, 4, 40, 185.2025299072266
0, 4, 41, 189.6848449707031
0, 4, 42, 205.77197265625
0, 4, 43, 173.4500579833984
0, 4, 44, 183.2555389404297
0, 4, 45, 195.6348876953125
0, 4, 46, 185.5973510742188
0, 4, 47, 179.5359191894531
0, 4, 48, 184.9911041259766
0, 4, 49, 175.2364044189453
0, 4, 50, 186.127685546875
0, 4, 51, 198.3192901611328
0, 4, 52, 222.7274017333984
0, 4, 53, 205.8727264404297
0, 4, 54, 189.8930206298828
0, 4, 55, 174.0410308837891
0, 4, 56, 190.4439849853516
0, 4, 57, 191.4595031738281
0, 4, 58, 188.0204467773438
0, 4, 59, 189.0158386230469
0, 4, 60, 196.082763671875
0, 4, 61, 193.0680236816406
0, 4, 62, 191.2583618164062
0, 4, 63, 178.3616790771484
0, 4, 64, 212.326904296875
0, 4, 65, 191.673095703125
0, 4, 66, 200.1258850097656
0, 4, 67, 200.2931060791016
0, 4, 68, 203.0089874267578
0, 4, 69, 199.0660400390625
0, 4, 70, 204.9041595458984
0, 4, 71, 207.5400085449219
0, 4, 72, 214.9415588378906
0, 4, 73, 185.4723052978516
0, 4, 74, 180.7231140136719
0, 4, 75, 184.8592071533203
0, 4, 76, 190.5565490722656
0, 4, 77, 183.4888458251953
0, 4, 78, 195.5171813964844
0, 4, 79, 205.3552551269531
0, 4, 80, 211.0316162109375
0, 4, 81, 199.4738006591797
0, 4, 82, 182.5702362060547
0, 4, 83, 168.6700134277344
0, 4, 84, 192.7746124267578
0, 4, 85, 195.6760101318359
0, 4, 86, 180.5914916992188
0, 4, 87, 182.9469146728516
0, 4, 88, 204.4517669677734
0, 4, 89, 187.3226318359375
0, 4, 90, 212.0295715332031
0, 4, 91, 189.7449188232422
0, 4, 92, 196.8159790039062
0, 4, 93, 195.7163543701172
0, 4, 94, 181.9555969238281
0, 4, 95, 174.7062835693359
0, 4, 96, 190.0881500244141
0, 4, 97, 193.9906005859375
0, 4, 98, 200.8152008056641
0, 4, 99, 183.4808197021484
0, 4, 100, 181.7191772460938
0, 4, 101, 179.1939697265625
0, 4, 102, 174.9255523681641
0, 4, 103, 184.7836608886719
0, 4, 104, 210.8411102294922
0, 4, 105, 193.0357971191406
0, 4, 106, 179.6428070068359
0, 4, 107, 181.4729309082031
0, 4, 108, 151.7696533203125
0, 4, 109, 50.18542861938477
0, 4, 110, 12.10195922851562
0, 4, 111, 8.553885459899902
0, 4, 112, 6.4609375
0, 4, 113, 5.827264785766602
0, 4, 114, 4.995091915130615
0, 4, 115, 3.235243320465088
0, 4, 116, 4.445231437683105
0, 4, 117, 2.874239921569824
0, 4, 118, 3.528069734573364
0, 4, 119, 3.281939268112183
0, 4, 120, 2.247097015380859
0, 4, 121, 1.471752285957336
0, 4, 122, 2.574285268783569
0, 4, 123, 1.430959939956665
0, 4, 124, 4.138647556304932
0, 4, 125, 3.504756450653076
0, 4, 126, 2.5250403881073
0, 4, 127, 2.011187791824341
0, 5, 0, 1.468859553337097
0, 5, 1, 2.882483959197998
0, 5, 2, 5.18041467666626
0, 5, 3, 3.768579483032227
0, 5, 4, 2.871767044067383
0, 5, 5, 2.213026523590088
0, 5, 6, 2.892501831054688
0, 5, 7, 2.686324596405029
0, 5, 8, 1.5827956199646
0, 5, 9, 2.231860876083374
0, 5, 10, 3.300286054611206
0, 5, 11, 2.996069669723511
0, 5, 12, 5.484155178070068
0, 5, 13, 5.361257553100586
0, 5, 14, 4.842798233032227
0, 5, 15, 9.344825744628906
0, 5, 16, 7.039322853088379
0, 5, 17, 21.10807228088379
0, 5, 18, 82.82299041748047
0, 5, 19, 164.3809051513672
0, 5, 20, 183.7401580810547
0, 5, 21, 177.4096221923828
0, 5, 22, 172.0437622070312
0, 5, 23, 201.0484313964844
0, 5, 24, 187.3317565917969
0, 5, 25, 207.7866973876953
0, 5, 26, 183.1542510986328
0, 5, 27, 196.2796173095703
0, 5, 28, 189.1838226318359
0, 5, 29, 195.229248046875
0, 5, 30, 177.6430358886719
0, 5, 31, 179.9765167236328
0, 5, 32, 186.3723297119141
0, 5, 33, 170.0144958496094
0, 5, 34, 195.0505523681641
0, 5, 35, 197.8693084716797
0, 5, 36, 168.3366088867188
0, 5, 37, 196.95849609375
0, 5, 38, 180.197509765625
0, 5, 39, 186.8936767578125
0, 5, 40, 196.9067077636719
0, 5, 41, 176.8767852783203
0, 5, 42, 186.921630859375
0, 5, 43, 191.8793334960938
0, 5, 44, 199.8911285400391
0, 5, 45, 186.697021484375
0, 5, 46, 193.0373077392578
0, 5, 47, 181.2765655517578
0, 5, 48, 177.3645172119141
0, 5, 49, 178.7971801757812
0, 5, 50, 185.9533233642578
0, 5, 51, 171.9203643798828
0, 5, 52, 168.6879577636719
0, 5, 53, 182.9188690185547
0, 5, 54, 173.5623321533203
0, 5, 55, 216.5188903808594
0, 5, 56, 181.4741821289062
0, 5, 57, 208.9749755859375
0, 5, 58, 180.6607360839844
0, 5, 59, 180.5933532714844
0, 5, 60, 218.6625518798828
0, 5, 61, 183.9668426513672
0, 5, 62, 179.0568237304688
0, 5, 63, 180.1457977294922
0, 5, 64, 194.0407867431641
0, 5, 65, 209.2572479248047
0, 5, 66, 192.9142761230469
0, 5, 67, 199.5551910400391
0, 5, 68, 185.4361419677734
0, 5, 69, 185.9794921875
0, 5, 70, 185.1707458496094
0, 5, 71, 192.8199768066406
0, 5, 72, 197.4012145996094
0, 5, 73, 201.1708679199219
0, 5, 74, 179.7046813964844
0, 5, 75, 201.8291015625
0, 5, 76, 213.7097930908203
0, 5, 77, 180.5759429931641
0, 5, 78, 194.6882629394531
0, 5, 79, 191.2939910888672
0, 5, 80, 197.2377624511719
0, 5, 81, 203.0280303955078
0, 5, 82, 201.0850219726562
0, 5, 83, 188.6435546875
0, 5, 84, 205.0644378662109
0, 5, 85, 176.8223114013672
0, 5, 86, 195.2389526367188
0, 5, 87, 188.1593475341797
0, 5, 88, 177.6965179443359
0, 5, 89, 193.9389190673828
0, 5, 90, 198.6407775878906
0, 5, 91, 195.1450347900391
0, 5, 92, 191.0714569091797
0, 5, 93, 189.3686828613281
0, 5, 94, 207.8481140136719
0, 5, 95, 177.0180053710938
0, 5, 96, 182.6712341308594
0, 5, 97, 190.9866943359375
0, 5, 98, 188.6574859619141
0, 5, 99, 195.333251953125
0, 5, 100, 186.1654052734375
0, 5, 101, 196.1027526855469
0, 5, 102, 181.5431823730469
0, 5, 103, 176.0556945800781
0, 5, 104, 191.3977203369141
0, 5, 105, 190.0928649902344
0, 5, 106, 176.8264923095703
0, 5, 107, 181.0875549316406
0, 5, 108, 176.8235168457031
0, 5, 109, 90.58956146240234
0, 5, 110, 30.2237491607666
0, 5, 111, 9.635287284851074
0, 5, 112, 7.422883987426758
0, 5, 113, 7.981710433959961
0, 5, 114, 7.930190563201904
0, 5, 115, 7.340842247009277
0, 5, 116, 6.991065979003906
0, 5, 117, 3.602666616439819
0, 5, 118, 3.086561679840088
0, 5, 119, 3.035307645797729
0, 5, 120, 1.793007135391235
0, 5, 121, 1.700173139572144
0, 5, 122, 2.638757944107056
0, 5, 123, 5.489284038543701
0, 5, 124, 3.500553369522095
0, 5, 125, 2.267095327377319
0, 5, 126, 1.92577075958252
0, 5, 127, 2.055145740509033
0, 6, 0, 4.605811595916748
0, 6, 1, 4.411208152770996
0, 6, 2, 4.385161399841309
0, 6, 3, 1.834817409515381
0, 6, 4, 3.559893846511841
0, 6, 5, 5.024276733398438
0, 6, 6, 3.042568922042847
0, 6, 7, 3.100475549697876
0, 6, 8, 3.672086954116821
0, 6, 9, 2.699376821517944
0, 6, 10, 4.160896778106689
0, 6, 11, 3.518276453018188
0, 6, 12, 6.309328556060791
0, 6, 13, 5.644909381866455
0, 6, 14, 5.953981399536133
0, 6, 15, 7.245421409606934
0, 6, 16, 12.48587131500244
0, 6, 17, 28.73988914489746
0, 6, 18, 111.7441787719727
0, 6, 19, 191.2780609130859
0, 6, 20, 195.4987487792969
0, 6, 21, 198.9514312744141
0, 6, 22, 190.7997894287109
0, 6, 23, 190.3955993652344
0, 6, 24, 200.3430786132812
0, 6, 25, 183.5546875
0, 6, 26, 186.6688842773438
0, 6, 27, 193.5592651367188
0, 6, 28, 189.1908111572266
0, 6, 29, 210.3588104248047
0, 6, 30, 189.2124786376953
0, 6, 31, 192.7110748291016
0, 6, 32, 206.2824249267578
0, 6, 33, 186.2591552734375
0, 6, 34, 198.406005859375
0, 6, 35, 188.9732055664062
0, 6, 36, 179.4317474365234
0, 6, 37, 183.0892028808594
0, 6, 38, 185.1346740722656
0, 6, 39, 195.2878723144531
0, 6, 40, 173.8752899169922
0, 6, 41, 185.1811218261719
0, 6, 42, 174.2877807617188
0, 6, 43, 208.7878723144531
0, 6, 44, 209.5293121337891
0, 6, 45, 193.6700286865234
0, 6, 46, 187.2078247070312
0, 6, 47, 205.3540496826172
0, 6, 48, 188.7082824707031
0, 6, 49, 178.7656860351562
0, 6, 50, 182.2001495361328
0, 6, 51, 195.8197784423828
0, 6, 52, 197.2256622314453
0, 6, 53, 184.6049499511719
0, 6, 54, 175.3905029296875
0, 6, 55, 194.8832550048828
0, 6, 56, 203.4692077636719
0, 6, 57, 190.7458343505859
0, 6, 58, 178.2060546875
0, 6, 59, 191.9034271240234
0, 6, 60, 185.1042175292969
0, 6, 61, 193.6365814208984
0, 6, 62, 196.4723663330078
0, 6, 63, 186.9246978759766
0, 6, 64, 167.6289672851562
0, 6, 65, 185.0240173339844
0, 6, 66, 197.6517486572266
0, 6, 67, 214.7226867675781
0, 6, 68, 180.4556579589844
0, 6, 69, 171.1568908691406
0, 6, 70, 187.4808502197266
0, 6, 71, 170.4829254150391
0, 6, 72, 175.4598541259766
0, 6, 73, 177.2276458740234
0, 6, 74, 211.8625030517578
0, 6, 75, 228.0753784179688
0, 6, 76, 183.893798828125
0, 6, 77, 174.6614990234375
0, 6, 78, 175.1432647705078
0, 6, 79, 188.2154846191406
0, 6, 80, 187.5669403076172
0, 6, 81, 209.9380645751953
0, 6, 82, 195.1426391601562
0, 6, 83, 195.3187255859375
0, 6, 84, 196.9251251220703
0, 6, 85, 181.1988677978516
0, 6, 86, 203.0263824462891
0, 6, 87, 183.3444061279297
0, 6, 88, 193.2503814697266
0, 6, 89, 188.7568664550781
0, 6, 90, 205.7347717285156
0, 6, 91, 200.3258972167969
0, 6, 92, 173.1700897216797
0, 6, 93, 192.2861480712891
0, 6, 94, 188.9452667236328
0, 6, 95, 184.8120880126953
0, 6, 96, 188.1249694824219
0, 6, 97, 196.1947631835938
0, 6, 98, 183.3845672607422
0, 6, 99, 174.7883758544922
0, 6, 100, 201.2397003173828
0, 6, 101, 169.2594909667969
0, 6, 102, 202.1030120849609
0, 6, 103, 197.4326019287109
0, 6, 104, 183.6558227539062
0, 6, 105, 193.5564575195312
0, 6, 106, 177.4186096191406
0, 6, 107, 195.3472137451172
0, 6, 108, 170.2893829345703
0, 6, 109, 114.511360168457
0, 6, 110, 35.10175704956055
0, 6, 111, 8.668784141540527
0, 6, 112, 8.111330986022949
0, 6, 113, 5.154504776000977
0, 6, 114, 5.25177001953125
0, 6, 115, 4.657795906066895
0, 6, 116, 4.441017150878906
0, 6, 117, 4.360446929931641
0, 6, 118, 3.366238117218018
0, 6, 119, 3.565901756286621
0, 6, 120, 1.913386344909668
0, 6, 121, 3.501612424850464
0, 6, 122, 4.532225608825684
0, 6, 123, 2.580833196640015
0, 6, 124, 1.698796391487122
0, 6, 125, 2.635296583175659
0, 6, 126, 2.775276660919189
0, 6, 127, 1.838087797164917
0, 7, 0, 3.942621469497681
0, 7, 1, 1.485435009002686
0, 7, 2, 1.810711264610291
0, 7, 3, 3.361633777618408
0, 7, 4, 0.8761124014854431
0, 7, 5, 1.985465884208679
0, 7, 6, 3.017879962921143
0, 7, 7, 1.95120370388031
0, 7, 8, 2.629221200942993
0, 7, 9, 3.95155668258667
0, 7, 10, 4.859584808349609
0, 7, 11, 3.326275110244751
0, 7, 12, 3.256280422210693
0, 7, 13, 5.497851848602295
0, 7, 14, 6.635746955871582
0, 7, 15, 7.402909755706787
0, 7, 16, 15.35918140411377
0, 7, 17, 51.25716781616211
0, 7, 18, 162.8528594970703
0, 7, 19, 183.3515625
0, 7, 20, 178.799560546875
0, 7, 21, 180.1788787841797
0, 7, 22, 191.1111602783203
0, 7, 23, 202.4638824462891
0, 7, 24, 179.6993103027344
0, 7, 25, 213.0103149414062
0, 7, 26, 190.980224609375
0, 7, 27, 181.7207489013672
0, 7, 28, 182.9016265869141
0, 7, 29, 209.5619354248047
0, 7, 30, 193.4918518066406
0, 7, 31, 175.4073028564453
0, 7, 32, 191.613037109375
0, 7, 33, 178.8920745849609
0, 7, 34, 193.9835662841797
0, 7, 35, 197.0445404052734
0, 7, 36, 188.4435729980469
0, 7, 37, 214.1369018554688
0, 7, 38, 190.3061218261719
0, 7, 39, 172.9642333984375
0, 7, 40, 183.2141876220703
0, 7, 41, 184.2865295410156
0, 7, 42, 178.3648223876953
0, 7, 43, 178.6760711669922
0, 7, 44, 180.0223541259766
0, 7, 45, 175.5066528320312
0, 7, 46, 189.7691040039062
0, 7, 47, 198.8954315185547
0, 7, 48, 186.044921875
0, 7, 49, 199.8021850585938
0, 7, 50, 187.8451538085938
0, 7, 51, 205.7869110107422
0, 7, 52, 203.5463104248047
0, 7, 53, 191.6968231201172
0, 7, 54, 195.4875183105469
0, 7, 55, 203.5284576416016
0, 7, 56, 183.5454559326172
0, 7, 57, 183.0668334960938
0, 7, 58, 195.84033203125
0, 7, 59, 188.2758941650391
0, 7, 60, 204.6150817871094
0, 7, 61, 171.0617065429688
0, 7, 62, 203.3113250732422
0, 7, 63, 188.4216156005859
0, 7, 64, 198.6316223144531
0, 7, 65, 198.1861419677734
0, 7, 66, 206.0497894287109
0, 7, 67, 220.4699859619141
0, 7, 68, 163.0454406738281
0, 7, 69, 194.3904876708984
0, 7, 70, 217.7570343017578
0, 7, 71, 184.0230407714844
0, 7, 72, 180.5869903564453
0, 7, 73, 176.8736724853516
0, 7, 74, 207.1997985839844
0, 7, 75, 206.2503814697266
0, 7, 76, 214.8728332519531
0, 7, 77, 173.8145751953125
0, 7, 78, 177.6428375244141
0, 7, 79, 192.8588409423828
0, 7, 80, 196.0303802490234
0, 7, 81, 216.9944305419922
0, 7, 82, 185.6889343261719
0, 7, 83, 204.958251953125
0, 7, 84, 192.3831481933594
0, 7, 85, 186.7845001220703
0, 7, 86, 200.6275177001953
0, 7, 87, 225.3319396972656
0, 7, 88, 195.9892730712891
0, 7, 89, 176.7243347167969
0, 7, 90, 182.1812896728516
0, 7, 91, 194.035888671875
0, 7, 92, 194.4864807128906
0, 7, 93, 197.7360992431641
0, 7, 94, 177.9704132080078
0, 7, 95, 197.38232421875
0, 7, 96, 207.7357177734375
0, 7, 97, 189.5518798828125
0, 7, 98, 176.7061004638672
0, 7, 99, 196.8368530273438
0, 7, 100, 182.0317230224609
0, 7, 101, 199.1159820556641
0, 7, 102, 185.6849365234375
0, 7, 103, 182.2642059326172
0, 7, 104, 174.8022766113281
0, 7, 105, 195.0121459960938
0, 7, 106, 205.7131195068359
0, 7, 107, 173.063232421875
0, 7, 108, 177.0470581054688
0, 7, 109, 136.5258178710938
0, 7, 110, 53.35995101928711
0, 7, 111, 8.802432060241699
0, 7, 112, 8.217808723449707
0, 7, 113, 9.056270599365234
0, 7, 114, 7.689456939697266
0, 7, 115, 5.133486747741699
0, 7, 116, 5.314569473266602
0, 7, 117, 2.44223690032959
0, 7, 118, 3.679662466049194
0, 7, 119, 3.489136934280396
0, 7, 120, 2.268697500228882
0, 7, 121, 2.596777677536011
0, 7, 122, 2.748980283737183
0, 7, 123, 1.736597418785095
0, 7, 124, 1.043228030204773
0, 7, 125, 1.761473536491394
0, 7, 126, 2.963924646377563
0, 7, 127, 1.019112348556519
0, 8, 0, 4.253097534179688
0, 8, 1, 1.801282286643982
0, 8, 2, 2.920756578445435
0, 8, 3, 1.607020616531372
0, 8, 4, 2.029562473297119
0, 8, 5, 3.003464698791504
0, 8, 6, 1.732055068016052
0, 8, 7, 2.877678394317627
0, 8, 8, 3.794233560562134
0, 8, 9, 6.317458152770996
0, 8, 10, 2.736225843429565
0, 8, 11, 2.479238986968994
0, 8, 12, 3.573071479797363
0, 8, 13, 4.846541404724121
0, 8, 14, 7.295547962188721
0, 8, 15, 8.286359786987305
0, 8, 16, 18.59316825866699
0, 8, 17, 75.50291442871094
0, 8, 18, 142.0835876464844
0, 8, 19, 179.3449249267578
0, 8, 20, 191.1704406738281
0, 8, 21, 194.4232635498047
0, 8, 22, 179.3450164794922
0, 8, 23, 172.5821533203125
0, 8, 24, 191.4819488525391
0, 8, 25, 185.5785675048828
0, 8, 26, 192.4695892333984
0, 8, 27, 186.6436767578125
0, 8, 28, 188.5455780029297
0, 8, 29, 207.5232543945312
0, 8, 30, 196.8182525634766
0, 8, 31, 182.5106353759766
0, 8, 32, 198.2582244873047
0, 8, 33, 206.5873718261719
0, 8, 34, 202.5213165283203
0, 8, 35, 184.9959869384766
0, 8, 36, 182.0177154541016
0, 8, 37, 200.0408020019531
