# TOPAS Version: 3.1.p3
# Parameter File: batch_inserts_160.txt
# Results for scorer Readout_Adipose
# Scored in component: MyBox
# X in 1 bin  of 0.65 cm
# Y in 512 bins of 0.0783984 cm
# Z in 128 bins of 0.078125 cm
# EnergyDeposit ( MeV ) : Sum   
0, 0, 0, 2.832745552062988
0, 0, 1, 4.538816452026367
0, 0, 2, 0.840092658996582
0, 0, 3, 0.9088287949562073
0, 0, 4, 1.12295126914978
0, 0, 5, 0.7972525954246521
0, 0, 6, 0.9140007495880127
0, 0, 7, 1.730038642883301
0, 0, 8, 1.620681285858154
0, 0, 9, 3.00116491317749
0, 0, 10, 1.799849510192871
0, 0, 11, 3.208239555358887
0, 0, 12, 4.050917148590088
0, 0, 13, 2.421078205108643
0, 0, 14, 4.83218240737915
0, 0, 15, 6.563614845275879
0, 0, 16, 3.803258180618286
0, 0, 17, 6.265017986297607
0, 0, 18, 7.354255199432373
0, 0, 19, 25.23744773864746
0, 0, 20, 93.86246490478516
0, 0, 21, 153.780029296875
0, 0, 22, 154.1861419677734
0, 0, 23, 143.9580688476562
0, 0, 24, 159.5114135742188
0, 0, 25, 166.4790496826172
0, 0, 26, 166.6899566650391
0, 0, 27, 174.7724151611328
0, 0, 28, 178.505126953125
0, 0, 29, 177.0252685546875
0, 0, 30, 172.3252563476562
0, 0, 31, 166.9563903808594
0, 0, 32, 163.9833068847656
0, 0, 33, 168.1053466796875
0, 0, 34, 178.0662231445312
0, 0, 35, 173.7449493408203
0, 0, 36, 158.7501831054688
0, 0, 37, 161.5247344970703
0, 0, 38, 167.5891876220703
0, 0, 39, 160.0254821777344
0, 0, 40, 165.0138854980469
0, 0, 41, 165.3590545654297
0, 0, 42, 143.4504089355469
0, 0, 43, 168.2099456787109
0, 0, 44, 177.0828857421875
0, 0, 45, 173.2780609130859
0, 0, 46, 166.2140350341797
0, 0, 47, 168.3866729736328
0, 0, 48, 168.9745483398438
0, 0, 49, 182.9055633544922
0, 0, 50, 169.3568725585938
0, 0, 51, 162.6186370849609
0, 0, 52, 162.2554626464844
0, 0, 53, 172.6537017822266
0, 0, 54, 160.1422576904297
0, 0, 55, 165.2308044433594
0, 0, 56, 190.3481140136719
0, 0, 57, 170.1021575927734
0, 0, 58, 161.2042999267578
0, 0, 59, 172.5994415283203
0, 0, 60, 169.7804870605469
0, 0, 61, 171.583740234375
0, 0, 62, 183.6549682617188
0, 0, 63, 166.4338226318359
0, 0, 64, 164.0194854736328
0, 0, 65, 173.6321411132812
0, 0, 66, 177.3670806884766
0, 0, 67, 164.0876922607422
0, 0, 68, 159.0836334228516
0, 0, 69, 159.1221313476562
0, 0, 70, 170.4545745849609
0, 0, 71, 158.9318542480469
0, 0, 72, 163.2954254150391
0, 0, 73, 172.8766326904297
0, 0, 74, 161.9133758544922
0, 0, 75, 163.0241851806641
0, 0, 76, 163.5518798828125
0, 0, 77, 171.9653472900391
0, 0, 78, 181.3592071533203
0, 0, 79, 175.0292663574219
0, 0, 80, 160.6657257080078
0, 0, 81, 159.8000793457031
0, 0, 82, 183.0107269287109
0, 0, 83, 173.268310546875
0, 0, 84, 159.6343383789062
0, 0, 85, 181.2833099365234
0, 0, 86, 158.4669952392578
0, 0, 87, 176.7906799316406
0, 0, 88, 175.8694915771484
0, 0, 89, 174.1755218505859
0, 0, 90, 161.7628021240234
0, 0, 91, 185.4708404541016
0, 0, 92, 163.9304351806641
0, 0, 93, 155.7894592285156
0, 0, 94, 170.9505462646484
0, 0, 95, 173.5329437255859
0, 0, 96, 185.2913208007812
0, 0, 97, 183.5171203613281
0, 0, 98, 185.1342315673828
0, 0, 99, 172.2193603515625
0, 0, 100, 158.6692962646484
0, 0, 101, 166.3239593505859
0, 0, 102, 170.9950561523438
0, 0, 103, 170.2142333984375
0, 0, 104, 167.9571228027344
0, 0, 105, 179.5040740966797
0, 0, 106, 159.0765380859375
0, 0, 107, 86.88636779785156
0, 0, 108, 21.46477699279785
0, 0, 109, 11.59094619750977
0, 0, 110, 5.757966041564941
0, 0, 111, 7.307996273040771
0, 0, 112, 2.750826120376587
0, 0, 113, 2.913086891174316
0, 0, 114, 1.729772448539734
0, 0, 115, 3.54880952835083
0, 0, 116, 2.049669981002808
0, 0, 117, 3.035629272460938
0, 0, 118, 3.351401090621948
0, 0, 119, 3.487442493438721
0, 0, 120, 2.367998838424683
0, 0, 121, 3.914595365524292
0, 0, 122, 4.475359439849854
0, 0, 123, 4.144673347473145
0, 0, 124, 0.8295350074768066
0, 0, 125, 2.44104790687561
0, 0, 126, 2.522669076919556
0, 0, 127, 2.311429500579834
0, 1, 0, 1.92814564704895
0, 1, 1, 4.558335781097412
0, 1, 2, 5.288741111755371
0, 1, 3, 2.70043158531189
0, 1, 4, 0.4068368375301361
0, 1, 5, 1.574475288391113
0, 1, 6, 1.431920170783997
0, 1, 7, 2.008758783340454
0, 1, 8, 1.540264010429382
0, 1, 9, 1.673324942588806
0, 1, 10, 3.021144390106201
0, 1, 11, 4.252362251281738
0, 1, 12, 2.985499620437622
0, 1, 13, 3.847013235092163
0, 1, 14, 5.967679977416992
0, 1, 15, 6.166077136993408
0, 1, 16, 8.144633293151855
0, 1, 17, 5.533366680145264
0, 1, 18, 10.7307710647583
0, 1, 19, 39.60579681396484
0, 1, 20, 125.9635162353516
0, 1, 21, 178.1471252441406
0, 1, 22, 192.0510406494141
0, 1, 23, 188.5564575195312
0, 1, 24, 179.6276702880859
0, 1, 25, 190.97314453125
0, 1, 26, 197.2793579101562
0, 1, 27, 186.0694580078125
0, 1, 28, 189.7680358886719
0, 1, 29, 184.06689453125
0, 1, 30, 180.1716613769531
0, 1, 31, 181.8329620361328
0, 1, 32, 188.6981658935547
0, 1, 33, 189.9453277587891
0, 1, 34, 185.8836059570312
0, 1, 35, 194.4616546630859
0, 1, 36, 205.2704467773438
0, 1, 37, 183.5326843261719
0, 1, 38, 165.5249786376953
0, 1, 39, 171.41796875
0, 1, 40, 179.2406921386719
0, 1, 41, 184.7417755126953
0, 1, 42, 182.5249481201172
0, 1, 43, 186.1051940917969
0, 1, 44, 167.4545593261719
0, 1, 45, 186.5030975341797
0, 1, 46, 171.8886260986328
0, 1, 47, 184.2943878173828
0, 1, 48, 186.9502105712891
0, 1, 49, 185.9386901855469
0, 1, 50, 178.6778106689453
0, 1, 51, 190.7291870117188
0, 1, 52, 195.8755340576172
0, 1, 53, 195.6830444335938
0, 1, 54, 184.8125305175781
0, 1, 55, 165.7238464355469
0, 1, 56, 178.9821929931641
0, 1, 57, 177.6097106933594
0, 1, 58, 189.7820739746094
0, 1, 59, 193.3090209960938
0, 1, 60, 188.1036987304688
0, 1, 61, 177.39892578125
0, 1, 62, 206.5141296386719
0, 1, 63, 174.6334686279297
0, 1, 64, 172.5276794433594
0, 1, 65, 185.8178253173828
0, 1, 66, 205.352783203125
0, 1, 67, 185.5006866455078
0, 1, 68, 186.5483703613281
0, 1, 69, 188.2833404541016
0, 1, 70, 185.1856994628906
0, 1, 71, 170.9736785888672
0, 1, 72, 187.9995880126953
0, 1, 73, 190.5390625
0, 1, 74, 201.1520690917969
0, 1, 75, 185.1885528564453
0, 1, 76, 176.3964385986328
0, 1, 77, 191.8986053466797
0, 1, 78, 187.6015472412109
0, 1, 79, 202.0040893554688
0, 1, 80, 185.5997772216797
0, 1, 81, 175.0223083496094
0, 1, 82, 207.2640533447266
0, 1, 83, 212.10791015625
0, 1, 84, 180.5696868896484
0, 1, 85, 170.2391967773438
0, 1, 86, 167.3391876220703
0, 1, 87, 184.9026336669922
0, 1, 88, 176.9861145019531
0, 1, 89, 187.695556640625
0, 1, 90, 212.7962493896484
0, 1, 91, 181.5828704833984
0, 1, 92, 183.6238708496094
0, 1, 93, 180.3661804199219
0, 1, 94, 185.1835327148438
0, 1, 95, 184.2410278320312
0, 1, 96, 196.8239440917969
0, 1, 97, 182.0079345703125
0, 1, 98, 186.9559173583984
0, 1, 99, 175.4170532226562
0, 1, 100, 170.5125274658203
0, 1, 101, 179.4637908935547
0, 1, 102, 181.8670806884766
0, 1, 103, 173.1326141357422
0, 1, 104, 188.3608551025391
0, 1, 105, 180.5760192871094
0, 1, 106, 163.3523101806641
0, 1, 107, 123.2295608520508
0, 1, 108, 47.00914001464844
0, 1, 109, 12.87853145599365
0, 1, 110, 6.689549922943115
0, 1, 111, 6.798198223114014
0, 1, 112, 6.982835292816162
0, 1, 113, 7.087033748626709
0, 1, 114, 9.289088249206543
0, 1, 115, 4.334955215454102
0, 1, 116, 4.365562438964844
0, 1, 117, 3.276869058609009
0, 1, 118, 3.089658975601196
0, 1, 119, 2.130376815795898
0, 1, 120, 3.469215393066406
0, 1, 121, 3.479579210281372
0, 1, 122, 1.862672209739685
0, 1, 123, 2.852960586547852
0, 1, 124, 2.919326543807983
0, 1, 125, 2.331957578659058
0, 1, 126, 1.585586905479431
0, 1, 127, 1.254583835601807
0, 2, 0, 1.685998439788818
0, 2, 1, 2.234340906143188
0, 2, 2, 3.290428400039673
0, 2, 3, 1.531699657440186
0, 2, 4, 3.285758018493652
0, 2, 5, 2.183450222015381
0, 2, 6, 3.46218466758728
0, 2, 7, 1.553822159767151
0, 2, 8, 1.344982504844666
0, 2, 9, 2.874690055847168
0, 2, 10, 5.863902568817139
0, 2, 11, 4.695844173431396
0, 2, 12, 3.467423677444458
0, 2, 13, 3.526894807815552
0, 2, 14, 4.006313323974609
0, 2, 15, 4.66303539276123
0, 2, 16, 6.213695526123047
0, 2, 17, 9.223997116088867
0, 2, 18, 15.14775276184082
0, 2, 19, 76.94583129882812
0, 2, 20, 160.5842437744141
0, 2, 21, 183.0229949951172
0, 2, 22, 194.0502471923828
0, 2, 23, 183.6218414306641
0, 2, 24, 173.8177947998047
0, 2, 25, 183.84375
0, 2, 26, 179.1457672119141
0, 2, 27, 191.6584625244141
0, 2, 28, 172.1143035888672
0, 2, 29, 168.9710540771484
0, 2, 30, 186.2738494873047
0, 2, 31, 182.5536651611328
0, 2, 32, 185.0870208740234
0, 2, 33, 190.3005065917969
0, 2, 34, 198.9416656494141
0, 2, 35, 184.1196136474609
0, 2, 36, 186.5882263183594
0, 2, 37, 180.9183044433594
0, 2, 38, 185.8315734863281
0, 2, 39, 166.4792022705078
0, 2, 40, 183.5565185546875
0, 2, 41, 185.2744140625
0, 2, 42, 193.6112823486328
0, 2, 43, 195.4707489013672
0, 2, 44, 193.1813659667969
0, 2, 45, 189.4654693603516
0, 2, 46, 195.7582550048828
0, 2, 47, 189.3953247070312
0, 2, 48, 176.9014129638672
0, 2, 49, 199.0278167724609
0, 2, 50, 169.0981597900391
0, 2, 51, 185.5720672607422
0, 2, 52, 186.7201385498047
0, 2, 53, 195.5178680419922
0, 2, 54, 176.2406616210938
0, 2, 55, 174.1863555908203
0, 2, 56, 181.630126953125
0, 2, 57, 200.3910827636719
0, 2, 58, 186.0634002685547
0, 2, 59, 188.9800109863281
0, 2, 60, 196.9967041015625
0, 2, 61, 192.7216339111328
0, 2, 62, 189.6254577636719
0, 2, 63, 169.2007446289062
0, 2, 64, 189.5212249755859
0, 2, 65, 203.0751190185547
0, 2, 66, 196.5530395507812
0, 2, 67, 187.6721801757812
0, 2, 68, 182.6799468994141
0, 2, 69, 187.0839385986328
0, 2, 70, 203.0639190673828
0, 2, 71, 174.8248443603516
0, 2, 72, 187.7624359130859
0, 2, 73, 178.0419311523438
0, 2, 74, 181.0022888183594
0, 2, 75, 196.4044494628906
0, 2, 76, 183.1799774169922
0, 2, 77, 177.0437622070312
0, 2, 78, 197.2826385498047
0, 2, 79, 177.6825714111328
0, 2, 80, 188.5360870361328
0, 2, 81, 186.8484191894531
0, 2, 82, 204.8416900634766
0, 2, 83, 204.4740295410156
0, 2, 84, 188.5036468505859
0, 2, 85, 170.0653686523438
0, 2, 86, 196.3859558105469
0, 2, 87, 171.6703338623047
0, 2, 88, 177.3320465087891
0, 2, 89, 184.6029357910156
0, 2, 90, 178.1040344238281
0, 2, 91, 172.5924682617188
0, 2, 92, 197.5367126464844
0, 2, 93, 196.7650756835938
0, 2, 94, 201.1566009521484
0, 2, 95, 192.702880859375
0, 2, 96, 186.0843048095703
0, 2, 97, 171.9952545166016
0, 2, 98, 174.4077606201172
0, 2, 99, 162.9392547607422
0, 2, 100, 187.462158203125
0, 2, 101, 197.1825408935547
0, 2, 102, 176.4986877441406
0, 2, 103, 199.8387603759766
0, 2, 104, 187.3911895751953
0, 2, 105, 200.7232208251953
0, 2, 106, 194.8288116455078
0, 2, 107, 149.7660522460938
0, 2, 108, 78.72974395751953
0, 2, 109, 17.4632682800293
0, 2, 110, 8.427987098693848
0, 2, 111, 5.168769359588623
0, 2, 112, 3.365137338638306
0, 2, 113, 4.034040451049805
0, 2, 114, 6.234318733215332
0, 2, 115, 5.1011061668396
0, 2, 116, 3.504603624343872
0, 2, 117, 3.505063533782959
0, 2, 118, 4.57650899887085
0, 2, 119, 3.62329363822937
0, 2, 120, 1.619977474212646
0, 2, 121, 3.354655027389526
0, 2, 122, 1.962737321853638
0, 2, 123, 3.248166799545288
0, 2, 124, 2.339766502380371
0, 2, 125, 2.266938924789429
0, 2, 126, 3.467178583145142
0, 2, 127, 1.462023258209229
0, 3, 0, 2.926557064056396
0, 3, 1, 1.234278798103333
0, 3, 2, 1.409875750541687
0, 3, 3, 2.21239709854126
0, 3, 4, 5.265394687652588
0, 3, 5, 1.734007835388184
0, 3, 6, 1.351261973381042
0, 3, 7, 3.233922719955444
0, 3, 8, 1.631156206130981
0, 3, 9, 1.41102921962738
0, 3, 10, 1.786738038063049
0, 3, 11, 4.089560031890869
0, 3, 12, 3.109812259674072
0, 3, 13, 4.927653312683105
0, 3, 14, 4.146434783935547
0, 3, 15, 10.95308685302734
0, 3, 16, 8.61445140838623
0, 3, 17, 6.717440605163574
0, 3, 18, 33.59756088256836
0, 3, 19, 113.979377746582
0, 3, 20, 180.20263671875
0, 3, 21, 174.0225524902344
0, 3, 22, 177.8757781982422
0, 3, 23, 188.7669067382812
0, 3, 24, 177.2210998535156
0, 3, 25, 168.1522827148438
0, 3, 26, 181.1525115966797
0, 3, 27, 189.2738189697266
0, 3, 28, 182.9712219238281
0, 3, 29, 196.8650054931641
0, 3, 30, 185.2667388916016
0, 3, 31, 194.1488037109375
0, 3, 32, 206.1464233398438
0, 3, 33, 196.6581573486328
0, 3, 34, 188.4035339355469
0, 3, 35, 174.5573577880859
0, 3, 36, 186.6535186767578
0, 3, 37, 200.6140747070312
0, 3, 38, 190.7646484375
0, 3, 39, 184.2340698242188
0, 3, 40, 166.0581817626953
0, 3, 41, 175.2131958007812
0, 3, 42, 184.7572937011719
0, 3, 43, 181.7090606689453
0, 3, 44, 202.2603759765625
0, 3, 45, 207.2052764892578
0, 3, 46, 198.2312774658203
0, 3, 47, 194.25537109375
0, 3, 48, 195.9134368896484
0, 3, 49, 182.1616821289062
0, 3, 50, 187.02197265625
0, 3, 51, 174.00830078125
0, 3, 52, 187.7610931396484
0, 3, 53, 177.1134185791016
0, 3, 54, 180.8214416503906
0, 3, 55, 176.3901519775391
0, 3, 56, 182.0461730957031
0, 3, 57, 174.1267852783203
0, 3, 58, 200.8790435791016
0, 3, 59, 195.1761322021484
0, 3, 60, 186.1642913818359
0, 3, 61, 181.183349609375
0, 3, 62, 182.9014739990234
0, 3, 63, 184.3438262939453
0, 3, 64, 192.2126770019531
0, 3, 65, 189.5495910644531
0, 3, 66, 175.6741485595703
0, 3, 67, 191.0931701660156
0, 3, 68, 212.1009063720703
0, 3, 69, 189.3672943115234
0, 3, 70, 186.0445861816406
0, 3, 71, 196.3529663085938
0, 3, 72, 185.6662292480469
0, 3, 73, 186.4472351074219
0, 3, 74, 192.3948669433594
0, 3, 75, 192.28564453125
0, 3, 76, 190.4579620361328
0, 3, 77, 199.2342681884766
0, 3, 78, 187.7024841308594
0, 3, 79, 185.5331573486328
0, 3, 80, 189.8369140625
0, 3, 81, 183.4182891845703
0, 3, 82, 180.2852325439453
0, 3, 83, 196.7495880126953
0, 3, 84, 199.3341674804688
0, 3, 85, 192.1277618408203
0, 3, 86, 203.8765258789062
0, 3, 87, 198.5008087158203
0, 3, 88, 192.568115234375
0, 3, 89, 193.0591735839844
0, 3, 90, 175.8094787597656
0, 3, 91, 157.7286682128906
0, 3, 92, 206.2947387695312
0, 3, 93, 196.0924835205078
0, 3, 94, 191.5862884521484
0, 3, 95, 211.6727752685547
0, 3, 96, 208.1522979736328
0, 3, 97, 167.4717712402344
0, 3, 98, 166.8299102783203
0, 3, 99, 180.4160003662109
0, 3, 100, 176.7795562744141
0, 3, 101, 198.2258758544922
0, 3, 102, 196.3693542480469
0, 3, 103, 193.9683837890625
0, 3, 104, 202.477294921875
0, 3, 105, 175.3504486083984
0, 3, 106, 180.7777862548828
0, 3, 107, 170.9481658935547
0, 3, 108, 107.646598815918
0, 3, 109, 27.40242195129395
0, 3, 110, 7.37360668182373
0, 3, 111, 6.719200134277344
0, 3, 112, 2.889933586120605
0, 3, 113, 7.258830070495605
0, 3, 114, 5.167354583740234
0, 3, 115, 4.260640144348145
0, 3, 116, 5.375900745391846
0, 3, 117, 4.561403274536133
0, 3, 118, 2.63935399055481
0, 3, 119, 2.601080656051636
0, 3, 120, 3.326500415802002
0, 3, 121, 1.054374814033508
0, 3, 122, 4.343227863311768
0, 3, 123, 2.384008169174194
0, 3, 124, 1.224926471710205
0, 3, 125, 1.223735332489014
0, 3, 126, 1.57500159740448
0, 3, 127, 0.8709258437156677
0, 4, 0, 1.723069190979004
0, 4, 1, 0.923046350479126
0, 4, 2, 3.509904861450195
0, 4, 3, 5.756663799285889
0, 4, 4, 2.120053768157959
0, 4, 5, 2.377254724502563
0, 4, 6, 2.20996356010437
0, 4, 7, 2.374473094940186
0, 4, 8, 2.65248703956604
0, 4, 9, 3.17348575592041
0, 4, 10, 3.242053985595703
0, 4, 11, 3.529955863952637
0, 4, 12, 4.672810554504395
0, 4, 13, 4.601181030273438
0, 4, 14, 3.937917947769165
0, 4, 15, 8.93122386932373
0, 4, 16, 6.217457294464111
0, 4, 17, 11.82091236114502
0, 4, 18, 53.67733383178711
0, 4, 19, 150.7170715332031
0, 4, 20, 192.986328125
0, 4, 21, 171.4026489257812
0, 4, 22, 186.7220458984375
0, 4, 23, 195.2347259521484
0, 4, 24, 192.6331634521484
0, 4, 25, 200.7686157226562
0, 4, 26, 184.0831451416016
0, 4, 27, 191.7025604248047
0, 4, 28, 177.491943359375
0, 4, 29, 205.22607421875
0, 4, 30, 195.1779479980469
0, 4, 31, 192.9828033447266
0, 4, 32, 210.9125671386719
0, 4, 33, 190.0882568359375
0, 4, 34, 193.1493988037109
0, 4, 35, 213.658447265625
0, 4, 36, 192.5556945800781
0, 4, 37, 176.7584686279297
0, 4, 38, 193.9293212890625
0, 4, 39, 189.9049224853516
0, 4, 40, 186.2725982666016
0, 4, 41, 189.266845703125
0, 4, 42, 206.8748626708984
0, 4, 43, 173.7024841308594
0, 4, 44, 183.2162170410156
0, 4, 45, 196.4096984863281
0, 4, 46, 187.0231781005859
0, 4, 47, 179.7355651855469
0, 4, 48, 185.6335601806641
0, 4, 49, 174.0936584472656
0, 4, 50, 184.9694213867188
0, 4, 51, 197.8214263916016
0, 4, 52, 223.7901306152344
0, 4, 53, 206.2404174804688
0, 4, 54, 190.2022705078125
0, 4, 55, 176.4127502441406
0, 4, 56, 190.5193176269531
0, 4, 57, 192.2115783691406
0, 4, 58, 187.7393035888672
0, 4, 59, 190.0268859863281
0, 4, 60, 195.3936157226562
0, 4, 61, 193.6962432861328
0, 4, 62, 189.3247680664062
0, 4, 63, 180.5499725341797
0, 4, 64, 212.7249755859375
0, 4, 65, 190.8339385986328
0, 4, 66, 201.0786437988281
0, 4, 67, 198.8997039794922
0, 4, 68, 200.8007354736328
0, 4, 69, 198.9789123535156
0, 4, 70, 205.29052734375
0, 4, 71, 207.6157531738281
0, 4, 72, 215.3411407470703
0, 4, 73, 187.2073669433594
0, 4, 74, 180.3747863769531
0, 4, 75, 184.1803131103516
0, 4, 76, 191.0334625244141
0, 4, 77, 185.4595184326172
0, 4, 78, 195.9434814453125
0, 4, 79, 205.1956024169922
0, 4, 80, 211.3200378417969
0, 4, 81, 199.4372711181641
0, 4, 82, 182.1249237060547
0, 4, 83, 170.5258178710938
0, 4, 84, 192.6318817138672
0, 4, 85, 196.0615386962891
0, 4, 86, 180.9055633544922
0, 4, 87, 183.1054992675781
0, 4, 88, 203.9951324462891
0, 4, 89, 187.16552734375
0, 4, 90, 212.4527587890625
0, 4, 91, 189.9248504638672
0, 4, 92, 196.1902465820312
0, 4, 93, 195.8284606933594
0, 4, 94, 184.1900329589844
0, 4, 95, 174.5131530761719
0, 4, 96, 190.9506072998047
0, 4, 97, 194.4457702636719
0, 4, 98, 200.81640625
0, 4, 99, 182.9310607910156
0, 4, 100, 183.1299438476562
0, 4, 101, 177.6876373291016
0, 4, 102, 172.3618774414062
0, 4, 103, 185.8600921630859
0, 4, 104, 210.4076690673828
0, 4, 105, 190.4173736572266
0, 4, 106, 180.1758422851562
0, 4, 107, 180.8777008056641
0, 4, 108, 152.7486419677734
0, 4, 109, 48.33927154541016
0, 4, 110, 10.62189102172852
0, 4, 111, 8.81978702545166
0, 4, 112, 5.929256439208984
0, 4, 113, 4.909282207489014
0, 4, 114, 5.324995994567871
0, 4, 115, 3.306265354156494
0, 4, 116, 4.684315204620361
0, 4, 117, 3.599351406097412
0, 4, 118, 3.420957803726196
0, 4, 119, 3.528775930404663
0, 4, 120, 1.782182693481445
0, 4, 121, 5.171073913574219
0, 4, 122, 2.45997953414917
0, 4, 123, 1.739583015441895
0, 4, 124, 3.763357400894165
0, 4, 125, 3.53192925453186
0, 4, 126, 1.800177097320557
0, 4, 127, 1.83194899559021
0, 5, 0, 1.108961582183838
0, 5, 1, 3.343117475509644
0, 5, 2, 5.551127910614014
0, 5, 3, 4.903722286224365
0, 5, 4, 3.053891181945801
0, 5, 5, 1.650877714157104
0, 5, 6, 2.525553226470947
0, 5, 7, 2.91471266746521
0, 5, 8, 2.50029468536377
0, 5, 9, 2.461437463760376
0, 5, 10, 3.487293243408203
0, 5, 11, 2.931685924530029
0, 5, 12, 6.382850170135498
0, 5, 13, 5.53583812713623
0, 5, 14, 5.051158428192139
0, 5, 15, 9.07254695892334
0, 5, 16, 8.863327980041504
0, 5, 17, 20.88490295410156
0, 5, 18, 82.77347564697266
0, 5, 19, 163.6135559082031
0, 5, 20, 183.8106384277344
0, 5, 21, 178.4563903808594
0, 5, 22, 169.7098236083984
0, 5, 23, 200.3533325195312
0, 5, 24, 186.9973297119141
0, 5, 25, 207.1820983886719
0, 5, 26, 182.5708160400391
0, 5, 27, 193.6106567382812
0, 5, 28, 189.7067108154297
0, 5, 29, 195.7389678955078
0, 5, 30, 177.6119995117188
0, 5, 31, 179.8417358398438
0, 5, 32, 187.4395751953125
0, 5, 33, 169.6746826171875
0, 5, 34, 195.0268402099609
0, 5, 35, 196.7763366699219
0, 5, 36, 167.5879058837891
0, 5, 37, 197.3321380615234
0, 5, 38, 181.2188415527344
0, 5, 39, 185.9122467041016
0, 5, 40, 196.2569580078125
0, 5, 41, 177.0918884277344
0, 5, 42, 186.9162292480469
0, 5, 43, 192.8908081054688
0, 5, 44, 200.0881042480469
0, 5, 45, 186.2223815917969
0, 5, 46, 192.7684326171875
0, 5, 47, 181.1046295166016
0, 5, 48, 179.6174926757812
0, 5, 49, 178.3004150390625
0, 5, 50, 185.8361358642578
0, 5, 51, 171.9148864746094
0, 5, 52, 168.0042266845703
0, 5, 53, 181.6429595947266
0, 5, 54, 171.6289215087891
0, 5, 55, 215.2480773925781
0, 5, 56, 181.9798736572266
0, 5, 57, 206.7869415283203
0, 5, 58, 181.4087066650391
0, 5, 59, 181.1583404541016
0, 5, 60, 219.0028228759766
0, 5, 61, 184.8351135253906
0, 5, 62, 179.05419921875
0, 5, 63, 180.0447235107422
0, 5, 64, 195.4763946533203
0, 5, 65, 209.6912689208984
0, 5, 66, 192.8141784667969
0, 5, 67, 198.6815795898438
0, 5, 68, 188.6754913330078
0, 5, 69, 185.7959442138672
0, 5, 70, 185.6628723144531
0, 5, 71, 192.6876220703125
0, 5, 72, 197.0046234130859
0, 5, 73, 200.9940643310547
0, 5, 74, 178.6881408691406
0, 5, 75, 203.7843780517578
0, 5, 76, 214.5861968994141
0, 5, 77, 183.4310760498047
0, 5, 78, 194.9006805419922
0, 5, 79, 190.4981536865234
0, 5, 80, 198.0839080810547
0, 5, 81, 203.5062713623047
0, 5, 82, 202.2357788085938
0, 5, 83, 187.8927001953125
0, 5, 84, 205.5751495361328
0, 5, 85, 179.591796875
0, 5, 86, 195.0451354980469
0, 5, 87, 188.8744049072266
0, 5, 88, 176.8209686279297
0, 5, 89, 195.0554351806641
0, 5, 90, 198.4700317382812
0, 5, 91, 194.4711151123047
0, 5, 92, 191.1517028808594
0, 5, 93, 188.8836822509766
0, 5, 94, 207.7752838134766
0, 5, 95, 176.3398895263672
0, 5, 96, 182.4358367919922
0, 5, 97, 191.4420928955078
0, 5, 98, 189.2436828613281
0, 5, 99, 194.1959838867188
0, 5, 100, 185.9798431396484
0, 5, 101, 195.8376922607422
0, 5, 102, 180.8325500488281
0, 5, 103, 176.2215423583984
0, 5, 104, 190.2000885009766
0, 5, 105, 190.4379425048828
0, 5, 106, 177.3366241455078
0, 5, 107, 182.0518188476562
0, 5, 108, 176.8991546630859
0, 5, 109, 89.86914825439453
0, 5, 110, 31.1470890045166
0, 5, 111, 9.700092315673828
0, 5, 112, 7.128882884979248
0, 5, 113, 5.928407669067383
0, 5, 114, 5.67697286605835
0, 5, 115, 7.468369483947754
0, 5, 116, 4.233354091644287
0, 5, 117, 2.466311931610107
0, 5, 118, 3.220801830291748
0, 5, 119, 3.235819578170776
0, 5, 120, 0.9923714399337769
0, 5, 121, 1.914372682571411
0, 5, 122, 2.265748739242554
0, 5, 123, 3.359879732131958
0, 5, 124, 2.883282899856567
0, 5, 125, 1.498838186264038
0, 5, 126, 2.943359136581421
0, 5, 127, 3.125747442245483
0, 6, 0, 4.292251110076904
0, 6, 1, 2.988343954086304
0, 6, 2, 3.986968040466309
0, 6, 3, 1.43446671962738
0, 6, 4, 4.229914665222168
0, 6, 5, 2.603560447692871
0, 6, 6, 2.794591665267944
0, 6, 7, 3.774826288223267
0, 6, 8, 3.979476451873779
0, 6, 9, 2.789812564849854
0, 6, 10, 5.135672092437744
0, 6, 11, 4.632791519165039
0, 6, 12, 5.995729923248291
0, 6, 13, 6.034742832183838
0, 6, 14, 5.722525596618652
0, 6, 15, 6.41713809967041
0, 6, 16, 13.1617488861084
0, 6, 17, 28.31091117858887
0, 6, 18, 111.6847763061523
0, 6, 19, 191.4595947265625
0, 6, 20, 195.9512481689453
0, 6, 21, 198.10986328125
0, 6, 22, 191.484619140625
0, 6, 23, 190.7282867431641
0, 6, 24, 200.3675079345703
0, 6, 25, 181.7965087890625
0, 6, 26, 187.3450317382812
0, 6, 27, 192.63916015625
0, 6, 28, 189.3661804199219
0, 6, 29, 211.0068054199219
0, 6, 30, 190.5297241210938
0, 6, 31, 195.3289947509766
0, 6, 32, 206.4107055664062
0, 6, 33, 183.1515350341797
0, 6, 34, 196.8699188232422
0, 6, 35, 187.5212097167969
0, 6, 36, 180.7422790527344
0, 6, 37, 182.5596771240234
0, 6, 38, 185.6439361572266
0, 6, 39, 194.6204986572266
0, 6, 40, 174.364501953125
0, 6, 41, 185.1488037109375
0, 6, 42, 173.8102111816406
0, 6, 43, 208.7688446044922
0, 6, 44, 209.2052154541016
0, 6, 45, 193.2073211669922
0, 6, 46, 189.3060150146484
0, 6, 47, 203.6611938476562
0, 6, 48, 188.8514404296875
0, 6, 49, 178.6500549316406
0, 6, 50, 181.8119659423828
0, 6, 51, 196.8086242675781
0, 6, 52, 197.6398773193359
0, 6, 53, 184.4762268066406
0, 6, 54, 174.9378509521484
0, 6, 55, 195.8576507568359
0, 6, 56, 202.7605285644531
0, 6, 57, 190.9733734130859
0, 6, 58, 177.7895355224609
0, 6, 59, 191.9553680419922
0, 6, 60, 184.4649200439453
0, 6, 61, 194.4235382080078
0, 6, 62, 196.6372222900391
0, 6, 63, 187.2869262695312
0, 6, 64, 170.1085662841797
0, 6, 65, 186.9026947021484
0, 6, 66, 197.4141387939453
0, 6, 67, 214.0892791748047
0, 6, 68, 181.4323120117188
0, 6, 69, 170.5294494628906
0, 6, 70, 187.0014038085938
0, 6, 71, 170.4477844238281
0, 6, 72, 176.6074676513672
0, 6, 73, 176.3133392333984
0, 6, 74, 211.066162109375
0, 6, 75, 228.3162994384766
0, 6, 76, 184.7948150634766
0, 6, 77, 172.5544281005859
0, 6, 78, 176.7382202148438
0, 6, 79, 186.5929260253906
0, 6, 80, 187.5642700195312
0, 6, 81, 210.3345336914062
0, 6, 82, 194.4900054931641
0, 6, 83, 195.8235015869141
0, 6, 84, 198.0079193115234
0, 6, 85, 183.3034362792969
0, 6, 86, 201.0186004638672
0, 6, 87, 183.3228607177734
0, 6, 88, 191.5656890869141
0, 6, 89, 188.7127532958984
0, 6, 90, 205.2565155029297
0, 6, 91, 199.5111389160156
0, 6, 92, 172.0268402099609
0, 6, 93, 193.2548065185547
0, 6, 94, 190.3402099609375
0, 6, 95, 186.2501220703125
0, 6, 96, 189.0998687744141
0, 6, 97, 192.59765625
0, 6, 98, 182.8872680664062
0, 6, 99, 177.2773284912109
0, 6, 100, 203.7509765625
0, 6, 101, 168.0857696533203
0, 6, 102, 201.5628662109375
0, 6, 103, 197.2395324707031
0, 6, 104, 184.1748504638672
0, 6, 105, 193.6565856933594
0, 6, 106, 177.6111297607422
0, 6, 107, 195.3947448730469
0, 6, 108, 170.1438903808594
0, 6, 109, 116.44873046875
0, 6, 110, 33.76015472412109
0, 6, 111, 10.82323837280273
0, 6, 112, 9.017233848571777
0, 6, 113, 4.945723533630371
0, 6, 114, 5.409247398376465
0, 6, 115, 5.261815547943115
0, 6, 116, 7.417979717254639
0, 6, 117, 4.086014270782471
0, 6, 118, 3.353228330612183
0, 6, 119, 3.799820184707642
0, 6, 120, 1.774101853370667
0, 6, 121, 4.182437896728516
0, 6, 122, 3.385938882827759
0, 6, 123, 2.488423824310303
0, 6, 124, 2.49994945526123
0, 6, 125, 2.870494842529297
0, 6, 126, 1.615332365036011
0, 6, 127, 3.885352373123169
0, 7, 0, 3.383805274963379
0, 7, 1, 1.752182960510254
0, 7, 2, 2.873034715652466
0, 7, 3, 2.454858303070068
0, 7, 4, 0.9062756896018982
0, 7, 5, 1.424498319625854
0, 7, 6, 1.636276006698608
0, 7, 7, 2.576534271240234
0, 7, 8, 4.615251064300537
0, 7, 9, 3.057119369506836
0, 7, 10, 5.48344898223877
0, 7, 11, 2.858237981796265
0, 7, 12, 3.431984424591064
0, 7, 13, 5.961106300354004
0, 7, 14, 6.33265495300293
0, 7, 15, 6.944166660308838
0, 7, 16, 15.05985546112061
0, 7, 17, 49.76801300048828
0, 7, 18, 161.7093505859375
0, 7, 19, 182.5872192382812
0, 7, 20, 178.9680786132812
0, 7, 21, 181.2035827636719
0, 7, 22, 191.1714019775391
0, 7, 23, 202.0625
0, 7, 24, 177.7231903076172
0, 7, 25, 214.1681518554688
0, 7, 26, 189.220703125
0, 7, 27, 184.1636962890625
0, 7, 28, 182.6786193847656
0, 7, 29, 209.2879180908203
0, 7, 30, 193.3777770996094
0, 7, 31, 176.8611755371094
0, 7, 32, 190.4391326904297
0, 7, 33, 182.4525451660156
0, 7, 34, 192.7417907714844
0, 7, 35, 196.055419921875
0, 7, 36, 186.8211212158203
0, 7, 37, 212.885009765625
0, 7, 38, 191.9441833496094
0, 7, 39, 173.0093841552734
0, 7, 40, 184.2017517089844
0, 7, 41, 185.3898010253906
0, 7, 42, 177.6165618896484
0, 7, 43, 177.10791015625
0, 7, 44, 178.9066314697266
0, 7, 45, 175.4355010986328
0, 7, 46, 188.2987365722656
0, 7, 47, 197.9470520019531
0, 7, 48, 184.9503784179688
0, 7, 49, 200.4709014892578
0, 7, 50, 187.9361572265625
0, 7, 51, 204.7819061279297
0, 7, 52, 203.4967346191406
0, 7, 53, 191.7284088134766
0, 7, 54, 194.2254180908203
0, 7, 55, 202.8878326416016
0, 7, 56, 183.4420166015625
0, 7, 57, 184.8198699951172
0, 7, 58, 193.4752655029297
0, 7, 59, 186.9594116210938
0, 7, 60, 203.7373504638672
0, 7, 61, 171.6320953369141
0, 7, 62, 202.8822937011719
0, 7, 63, 188.7994232177734
0, 7, 64, 199.3339080810547
0, 7, 65, 198.0306243896484
0, 7, 66, 205.0435485839844
0, 7, 67, 221.6642761230469
0, 7, 68, 162.7654876708984
0, 7, 69, 195.0526275634766
0, 7, 70, 217.4672241210938
0, 7, 71, 184.1189270019531
0, 7, 72, 180.5091400146484
0, 7, 73, 176.6588134765625
0, 7, 74, 207.5174713134766
0, 7, 75, 203.6300048828125
0, 7, 76, 214.6380767822266
0, 7, 77, 176.2391662597656
0, 7, 78, 177.1380462646484
0, 7, 79, 192.5820007324219
0, 7, 80, 195.9951934814453
0, 7, 81, 214.53173828125
0, 7, 82, 184.4919586181641
0, 7, 83, 206.9651947021484
0, 7, 84, 195.2489929199219
0, 7, 85, 187.5413513183594
0, 7, 86, 200.8586730957031
0, 7, 87, 224.6448974609375
0, 7, 88, 195.1194000244141
0, 7, 89, 176.1873321533203
0, 7, 90, 183.9446411132812
0, 7, 91, 195.1480255126953
0, 7, 92, 193.5139465332031
0, 7, 93, 198.8363494873047
0, 7, 94, 178.6351776123047
0, 7, 95, 199.4039459228516
0, 7, 96, 208.2943725585938
0, 7, 97, 187.9981689453125
0, 7, 98, 176.3720092773438
0, 7, 99, 196.4221954345703
0, 7, 100, 181.6298828125
0, 7, 101, 199.7588195800781
0, 7, 102, 185.186279296875
0, 7, 103, 181.3034210205078
0, 7, 104, 174.5651092529297
0, 7, 105, 195.2453155517578
0, 7, 106, 205.3789672851562
0, 7, 107, 174.5457458496094
0, 7, 108, 177.8594818115234
0, 7, 109, 136.9112854003906
0, 7, 110, 54.33731842041016
0, 7, 111, 8.542336463928223
0, 7, 112, 7.516157627105713
0, 7, 113, 8.772100448608398
0, 7, 114, 8.20404052734375
0, 7, 115, 5.243176460266113
0, 7, 116, 4.06322193145752
0, 7, 117, 2.726515293121338
0, 7, 118, 3.173487663269043
0, 7, 119, 3.032472133636475
0, 7, 120, 4.710135459899902
0, 7, 121, 2.137258529663086
0, 7, 122, 2.471740484237671
0, 7, 123, 1.573594927787781
0, 7, 124, 1.152108430862427
0, 7, 125, 2.217504024505615
0, 7, 126, 2.798657655715942
0, 7, 127, 1.091825246810913
0, 8, 0, 4.608717918395996
0, 8, 1, 3.685488939285278
0, 8, 2, 3.026742458343506
0, 8, 3, 1.602782487869263
0, 8, 4, 0.9258658885955811
0, 8, 5, 3.393474817276001
0, 8, 6, 2.823405027389526
0, 8, 7, 2.369030237197876
0, 8, 8, 3.729198455810547
0, 8, 9, 4.306611061096191
0, 8, 10, 2.897808074951172
0, 8, 11, 3.0292809009552
0, 8, 12, 4.527884960174561
0, 8, 13, 4.584374904632568
0, 8, 14, 6.287796020507812
0, 8, 15, 8.352327346801758
0, 8, 16, 19.18486213684082
0, 8, 17, 77.68961334228516
0, 8, 18, 144.6490631103516
0, 8, 19, 179.9601135253906
0, 8, 20, 190.47216796875
0, 8, 21, 193.0503082275391
0, 8, 22, 178.7808837890625
0, 8, 23, 174.6181335449219
0, 8, 24, 192.3400421142578
0, 8, 25, 185.277099609375
0, 8, 26, 192.2571105957031
0, 8, 27, 187.9313354492188
0, 8, 28, 186.5885467529297
0, 8, 29, 207.7523040771484
0, 8, 30, 195.9119873046875
0, 8, 31, 182.88427734375
0, 8, 32, 197.49951171875
0, 8, 33, 206.3659515380859
0, 8, 34, 202.9291381835938
0, 8, 35, 185.4246063232422
0, 8, 36, 182.0525360107422
0, 8, 37, 199.2049560546875
0, 8, 38, 197.7543792724609
