# TOPAS Version: 3.1.p3
# Parameter File: batch_inserts_182.txt
# Results for scorer Readout_Adipose
# Scored in component: MyBox
# X in 1 bin  of 0.65 cm
# Y in 512 bins of 0.0783984 cm
# Z in 128 bins of 0.078125 cm
# EnergyDeposit ( MeV ) : Sum   
0, 0, 0, 1.318823099136353
0, 0, 1, 4.235571384429932
0, 0, 2, 1.364760756492615
0, 0, 3, 0.5655227303504944
0, 0, 4, 1.7106614112854
0, 0, 5, 1.126327276229858
0, 0, 6, 1.480268239974976
0, 0, 7, 3.995879888534546
0, 0, 8, 1.768840193748474
0, 0, 9, 3.21379542350769
0, 0, 10, 2.228789329528809
0, 0, 11, 3.363435506820679
0, 0, 12, 4.180270671844482
0, 0, 13, 2.670117378234863
0, 0, 14, 4.977212429046631
0, 0, 15, 5.674691677093506
0, 0, 16, 4.059861660003662
0, 0, 17, 6.105727195739746
0, 0, 18, 6.667311668395996
0, 0, 19, 23.35396766662598
0, 0, 20, 95.07949066162109
0, 0, 21, 152.0556182861328
0, 0, 22, 154.9226531982422
0, 0, 23, 145.3678894042969
0, 0, 24, 159.7226104736328
0, 0, 25, 166.2442932128906
0, 0, 26, 166.3947448730469
0, 0, 27, 173.8416442871094
0, 0, 28, 178.3205718994141
0, 0, 29, 176.2683715820312
0, 0, 30, 172.1419830322266
0, 0, 31, 166.0363311767578
0, 0, 32, 164.4372100830078
0, 0, 33, 168.2537231445312
0, 0, 34, 177.3370819091797
0, 0, 35, 173.7891693115234
0, 0, 36, 158.726318359375
0, 0, 37, 161.3202667236328
0, 0, 38, 165.9321441650391
0, 0, 39, 158.6955261230469
0, 0, 40, 164.2565460205078
0, 0, 41, 165.8067321777344
0, 0, 42, 143.0490112304688
0, 0, 43, 167.9358520507812
0, 0, 44, 177.9192199707031
0, 0, 45, 172.9964904785156
0, 0, 46, 166.3600616455078
0, 0, 47, 167.6108245849609
0, 0, 48, 169.830078125
0, 0, 49, 182.5245666503906
0, 0, 50, 168.9636993408203
0, 0, 51, 162.6633453369141
0, 0, 52, 164.0226898193359
0, 0, 53, 171.4555816650391
0, 0, 54, 161.7615966796875
0, 0, 55, 163.9767761230469
0, 0, 56, 191.0213317871094
0, 0, 57, 170.5257568359375
0, 0, 58, 161.3410034179688
0, 0, 59, 173.8442687988281
0, 0, 60, 169.9016876220703
0, 0, 61, 170.3063812255859
0, 0, 62, 182.4942169189453
0, 0, 63, 166.6218414306641
0, 0, 64, 163.8936920166016
0, 0, 65, 175.2771606445312
0, 0, 66, 177.7848052978516
0, 0, 67, 163.9925231933594
0, 0, 68, 158.4288330078125
0, 0, 69, 158.4775848388672
0, 0, 70, 169.5509643554688
0, 0, 71, 158.6372680664062
0, 0, 72, 162.0363464355469
0, 0, 73, 171.4349975585938
0, 0, 74, 163.2786407470703
0, 0, 75, 164.8792114257812
0, 0, 76, 163.3774261474609
0, 0, 77, 173.2466735839844
0, 0, 78, 181.5514831542969
0, 0, 79, 175.9673614501953
0, 0, 80, 160.6518096923828
0, 0, 81, 160.3350219726562
0, 0, 82, 181.877685546875
0, 0, 83, 173.3366851806641
0, 0, 84, 159.3319549560547
0, 0, 85, 181.390869140625
0, 0, 86, 159.3102416992188
0, 0, 87, 176.9423217773438
0, 0, 88, 175.9678649902344
0, 0, 89, 175.5491333007812
0, 0, 90, 161.6925201416016
0, 0, 91, 185.3633575439453
0, 0, 92, 164.7363586425781
0, 0, 93, 157.06787109375
0, 0, 94, 169.134033203125
0, 0, 95, 172.9286651611328
0, 0, 96, 183.9208526611328
0, 0, 97, 182.9112091064453
0, 0, 98, 185.8484802246094
0, 0, 99, 172.0414581298828
0, 0, 100, 158.0489654541016
0, 0, 101, 166.7680511474609
0, 0, 102, 170.8695068359375
0, 0, 103, 170.7354278564453
0, 0, 104, 168.1072692871094
0, 0, 105, 180.1972503662109
0, 0, 106, 159.252685546875
0, 0, 107, 86.55508422851562
0, 0, 108, 21.35242652893066
0, 0, 109, 9.234698295593262
0, 0, 110, 6.723896980285645
0, 0, 111, 6.085770130157471
0, 0, 112, 4.14716625213623
0, 0, 113, 2.621896028518677
0, 0, 114, 2.606705188751221
0, 0, 115, 2.898942470550537
0, 0, 116, 2.816218137741089
0, 0, 117, 2.374171733856201
0, 0, 118, 3.914489269256592
0, 0, 119, 4.083122730255127
0, 0, 120, 1.945000648498535
0, 0, 121, 3.551905870437622
0, 0, 122, 5.100020408630371
0, 0, 123, 4.595541954040527
0, 0, 124, 1.59752631187439
0, 0, 125, 2.904151439666748
0, 0, 126, 3.490172624588013
0, 0, 127, 1.733603239059448
0, 1, 0, 1.103991746902466
0, 1, 1, 4.836959838867188
0, 1, 2, 2.825701475143433
0, 1, 3, 1.790192484855652
0, 1, 4, 2.223736524581909
0, 1, 5, 2.188986778259277
0, 1, 6, 1.164108753204346
0, 1, 7, 2.208416938781738
0, 1, 8, 1.230549573898315
0, 1, 9, 1.22309935092926
0, 1, 10, 2.970088958740234
0, 1, 11, 4.047793388366699
0, 1, 12, 4.628152847290039
0, 1, 13, 3.478105783462524
0, 1, 14, 5.144613265991211
0, 1, 15, 6.038574695587158
0, 1, 16, 8.330715179443359
0, 1, 17, 5.642743587493896
0, 1, 18, 10.45255661010742
0, 1, 19, 38.82948303222656
0, 1, 20, 125.8610763549805
0, 1, 21, 177.2551574707031
0, 1, 22, 193.0978546142578
0, 1, 23, 184.5167236328125
0, 1, 24, 180.5866851806641
0, 1, 25, 191.2321319580078
0, 1, 26, 197.3605499267578
0, 1, 27, 187.6774139404297
0, 1, 28, 189.3454895019531
0, 1, 29, 184.9222106933594
0, 1, 30, 179.5840606689453
0, 1, 31, 180.5752716064453
0, 1, 32, 188.6199951171875
0, 1, 33, 189.8051452636719
0, 1, 34, 184.3294525146484
0, 1, 35, 195.5379333496094
0, 1, 36, 205.5966186523438
0, 1, 37, 186.2354736328125
0, 1, 38, 165.2465972900391
0, 1, 39, 171.5137481689453
0, 1, 40, 179.0728607177734
0, 1, 41, 185.5970458984375
0, 1, 42, 181.8565368652344
0, 1, 43, 186.7139129638672
0, 1, 44, 168.1824645996094
0, 1, 45, 187.6454162597656
0, 1, 46, 170.0462493896484
0, 1, 47, 185.3448181152344
0, 1, 48, 187.0678558349609
0, 1, 49, 186.499267578125
0, 1, 50, 178.4619293212891
0, 1, 51, 190.4580078125
0, 1, 52, 195.3804321289062
0, 1, 53, 195.7919769287109
0, 1, 54, 185.1921691894531
0, 1, 55, 165.1441192626953
0, 1, 56, 181.2105407714844
0, 1, 57, 177.7063140869141
0, 1, 58, 188.2424774169922
0, 1, 59, 194.6499176025391
0, 1, 60, 188.4782409667969
0, 1, 61, 177.6982116699219
0, 1, 62, 205.0307159423828
0, 1, 63, 173.5004577636719
0, 1, 64, 173.8551483154297
0, 1, 65, 185.8718414306641
0, 1, 66, 204.2261962890625
0, 1, 67, 183.0437164306641
0, 1, 68, 186.6109619140625
0, 1, 69, 188.87939453125
0, 1, 70, 186.2524261474609
0, 1, 71, 171.7494049072266
0, 1, 72, 187.7440643310547
0, 1, 73, 190.7895050048828
0, 1, 74, 200.9280853271484
0, 1, 75, 183.4820251464844
0, 1, 76, 174.2131958007812
0, 1, 77, 191.6840515136719
0, 1, 78, 188.0565948486328
0, 1, 79, 201.6186828613281
0, 1, 80, 185.4149322509766
0, 1, 81, 174.3862457275391
0, 1, 82, 208.6279144287109
0, 1, 83, 213.0930938720703
0, 1, 84, 180.6615142822266
0, 1, 85, 170.4283142089844
0, 1, 86, 167.8769073486328
0, 1, 87, 184.5024719238281
0, 1, 88, 174.6718139648438
0, 1, 89, 188.4615325927734
0, 1, 90, 213.3818969726562
0, 1, 91, 183.912109375
0, 1, 92, 185.4243927001953
0, 1, 93, 180.531982421875
0, 1, 94, 184.8245697021484
0, 1, 95, 184.6541137695312
0, 1, 96, 196.4173889160156
0, 1, 97, 182.910888671875
0, 1, 98, 187.8404235839844
0, 1, 99, 175.3363342285156
0, 1, 100, 170.9775543212891
0, 1, 101, 177.4352874755859
0, 1, 102, 182.7631530761719
0, 1, 103, 173.1017150878906
0, 1, 104, 189.1846618652344
0, 1, 105, 182.3346252441406
0, 1, 106, 163.7536926269531
0, 1, 107, 123.86474609375
0, 1, 108, 46.61441421508789
0, 1, 109, 9.620898246765137
0, 1, 110, 8.054508209228516
0, 1, 111, 8.575870513916016
0, 1, 112, 6.650884628295898
0, 1, 113, 6.862267017364502
0, 1, 114, 7.17917013168335
0, 1, 115, 5.536413669586182
0, 1, 116, 3.236716270446777
0, 1, 117, 2.492777824401855
0, 1, 118, 2.592739820480347
0, 1, 119, 1.153781056404114
0, 1, 120, 2.939887046813965
0, 1, 121, 4.099465847015381
0, 1, 122, 2.305369138717651
0, 1, 123, 3.544123411178589
0, 1, 124, 2.268412113189697
0, 1, 125, 3.365595102310181
0, 1, 126, 1.579938769340515
0, 1, 127, 1.836495876312256
0, 2, 0, 1.671712636947632
0, 2, 1, 2.452588319778442
0, 2, 2, 2.637239217758179
0, 2, 3, 1.391217589378357
0, 2, 4, 1.194545149803162
0, 2, 5, 0.8946035504341125
0, 2, 6, 3.16954779624939
0, 2, 7, 2.279773950576782
0, 2, 8, 0.756943941116333
0, 2, 9, 2.478595733642578
0, 2, 10, 6.284125804901123
0, 2, 11, 4.112777233123779
0, 2, 12, 4.610689163208008
0, 2, 13, 6.604536533355713
0, 2, 14, 4.595120906829834
0, 2, 15, 4.866563320159912
0, 2, 16, 4.890184879302979
0, 2, 17, 9.134727478027344
0, 2, 18, 14.25995826721191
0, 2, 19, 79.67871856689453
0, 2, 20, 162.9506378173828
0, 2, 21, 184.0771484375
0, 2, 22, 194.2154693603516
0, 2, 23, 185.4156494140625
0, 2, 24, 173.44091796875
0, 2, 25, 183.7405090332031
0, 2, 26, 179.1624145507812
0, 2, 27, 190.9201965332031
0, 2, 28, 170.6526184082031
0, 2, 29, 169.1628265380859
0, 2, 30, 187.3230438232422
0, 2, 31, 184.5768585205078
0, 2, 32, 183.3267822265625
0, 2, 33, 189.8683013916016
0, 2, 34, 196.614013671875
0, 2, 35, 184.4152221679688
0, 2, 36, 185.9071197509766
0, 2, 37, 181.4694519042969
0, 2, 38, 184.7900085449219
0, 2, 39, 166.1670227050781
0, 2, 40, 184.0795288085938
0, 2, 41, 185.0286254882812
0, 2, 42, 190.1006469726562
0, 2, 43, 192.9023284912109
0, 2, 44, 190.5310668945312
0, 2, 45, 190.3520355224609
0, 2, 46, 195.949462890625
0, 2, 47, 189.6609649658203
0, 2, 48, 177.3525695800781
0, 2, 49, 198.5808410644531
0, 2, 50, 167.8015441894531
0, 2, 51, 186.3504943847656
0, 2, 52, 185.7534942626953
0, 2, 53, 196.9991607666016
0, 2, 54, 175.6226654052734
0, 2, 55, 173.2528991699219
0, 2, 56, 181.4583129882812
0, 2, 57, 199.5613250732422
0, 2, 58, 186.0707092285156
0, 2, 59, 189.5130157470703
0, 2, 60, 196.0079040527344
0, 2, 61, 192.8396453857422
0, 2, 62, 190.6203460693359
0, 2, 63, 170.2825012207031
0, 2, 64, 189.707275390625
0, 2, 65, 203.2639617919922
0, 2, 66, 195.3471984863281
0, 2, 67, 185.2586059570312
0, 2, 68, 183.057861328125
0, 2, 69, 187.876708984375
0, 2, 70, 202.7688751220703
0, 2, 71, 175.8352355957031
0, 2, 72, 188.0930023193359
0, 2, 73, 178.1270751953125
0, 2, 74, 180.2006988525391
0, 2, 75, 195.5748901367188
0, 2, 76, 184.1468658447266
0, 2, 77, 177.4458465576172
0, 2, 78, 197.1792907714844
0, 2, 79, 177.2642059326172
0, 2, 80, 187.3194274902344
0, 2, 81, 186.9292602539062
0, 2, 82, 205.7507781982422
0, 2, 83, 203.8276519775391
0, 2, 84, 188.533935546875
0, 2, 85, 169.991943359375
0, 2, 86, 195.6032867431641
0, 2, 87, 172.4879302978516
0, 2, 88, 176.7918853759766
0, 2, 89, 186.0869293212891
0, 2, 90, 179.1669311523438
0, 2, 91, 172.8319396972656
0, 2, 92, 196.4961547851562
0, 2, 93, 195.4402618408203
0, 2, 94, 201.4287872314453
0, 2, 95, 193.655029296875
0, 2, 96, 187.2598419189453
0, 2, 97, 171.7680053710938
0, 2, 98, 173.9373474121094
0, 2, 99, 163.0825347900391
0, 2, 100, 186.8892822265625
0, 2, 101, 196.7673187255859
0, 2, 102, 176.4126281738281
0, 2, 103, 199.4804840087891
0, 2, 104, 188.007568359375
0, 2, 105, 201.1517944335938
0, 2, 106, 194.6174621582031
0, 2, 107, 149.4042205810547
0, 2, 108, 79.69410705566406
0, 2, 109, 17.58328628540039
0, 2, 110, 9.206595420837402
0, 2, 111, 5.432420253753662
0, 2, 112, 3.291450977325439
0, 2, 113, 4.321088790893555
0, 2, 114, 8.20061206817627
0, 2, 115, 5.344311714172363
0, 2, 116, 3.383591175079346
0, 2, 117, 2.245344877243042
0, 2, 118, 2.67429780960083
0, 2, 119, 2.655482292175293
0, 2, 120, 1.87797224521637
0, 2, 121, 4.142331123352051
0, 2, 122, 2.108811140060425
0, 2, 123, 2.472955942153931
0, 2, 124, 1.7452712059021
0, 2, 125, 3.323070287704468
0, 2, 126, 2.819566249847412
0, 2, 127, 0.3195463120937347
0, 3, 0, 1.534279108047485
0, 3, 1, 1.780035614967346
0, 3, 2, 1.877554416656494
0, 3, 3, 2.856770992279053
0, 3, 4, 3.823769807815552
0, 3, 5, 1.031640291213989
0, 3, 6, 1.33480441570282
0, 3, 7, 1.586362481117249
0, 3, 8, 1.994145035743713
0, 3, 9, 1.586780905723572
0, 3, 10, 2.707184076309204
0, 3, 11, 5.229635238647461
0, 3, 12, 3.119918823242188
0, 3, 13, 3.675395250320435
0, 3, 14, 4.361349582672119
0, 3, 15, 8.535712242126465
0, 3, 16, 7.390239715576172
0, 3, 17, 6.847553253173828
0, 3, 18, 33.50312423706055
0, 3, 19, 114.7016220092773
0, 3, 20, 179.6529235839844
0, 3, 21, 171.9024810791016
0, 3, 22, 178.4548950195312
0, 3, 23, 188.4730987548828
0, 3, 24, 177.5823516845703
0, 3, 25, 169.4165191650391
0, 3, 26, 180.4172058105469
0, 3, 27, 188.98193359375
0, 3, 28, 183.549072265625
0, 3, 29, 197.0006561279297
0, 3, 30, 185.1403961181641
0, 3, 31, 193.9218902587891
0, 3, 32, 206.0008850097656
0, 3, 33, 196.7795257568359
0, 3, 34, 187.2851104736328
0, 3, 35, 173.3373870849609
0, 3, 36, 185.8634490966797
0, 3, 37, 199.9934844970703
0, 3, 38, 191.2126770019531
0, 3, 39, 184.52587890625
0, 3, 40, 167.2935791015625
0, 3, 41, 175.1563110351562
0, 3, 42, 185.3713989257812
0, 3, 43, 181.2903442382812
0, 3, 44, 202.6414642333984
0, 3, 45, 207.2305755615234
0, 3, 46, 198.2518310546875
0, 3, 47, 195.8907775878906
0, 3, 48, 196.097412109375
0, 3, 49, 180.7700042724609
0, 3, 50, 185.8627471923828
0, 3, 51, 175.050537109375
0, 3, 52, 187.1891326904297
0, 3, 53, 176.6562347412109
0, 3, 54, 178.7876739501953
0, 3, 55, 177.6851959228516
0, 3, 56, 181.864990234375
0, 3, 57, 176.3785705566406
0, 3, 58, 202.2662506103516
0, 3, 59, 195.4431762695312
0, 3, 60, 185.4411315917969
0, 3, 61, 180.9844970703125
0, 3, 62, 184.2351531982422
0, 3, 63, 184.0769348144531
0, 3, 64, 190.0924530029297
0, 3, 65, 187.3195343017578
0, 3, 66, 175.3400115966797
0, 3, 67, 190.3874206542969
0, 3, 68, 212.8708038330078
0, 3, 69, 189.9745178222656
0, 3, 70, 185.9045562744141
0, 3, 71, 196.4300537109375
0, 3, 72, 185.3568267822266
0, 3, 73, 187.6076202392578
0, 3, 74, 192.2328796386719
0, 3, 75, 192.6854400634766
0, 3, 76, 190.8161773681641
0, 3, 77, 198.5859222412109
0, 3, 78, 187.6812133789062
0, 3, 79, 185.3304748535156
0, 3, 80, 190.8201293945312
0, 3, 81, 183.8782958984375
0, 3, 82, 179.5825500488281
0, 3, 83, 194.1803894042969
0, 3, 84, 198.2093811035156
0, 3, 85, 191.6316223144531
0, 3, 86, 203.4793090820312
0, 3, 87, 196.9229888916016
0, 3, 88, 191.2355041503906
0, 3, 89, 192.7785186767578
0, 3, 90, 174.178466796875
0, 3, 91, 156.3482208251953
0, 3, 92, 206.3999328613281
0, 3, 93, 199.5573120117188
0, 3, 94, 192.7102966308594
0, 3, 95, 210.7557678222656
0, 3, 96, 208.6990203857422
0, 3, 97, 168.9306335449219
0, 3, 98, 167.4985046386719
0, 3, 99, 179.7923278808594
0, 3, 100, 177.1885375976562
0, 3, 101, 197.8023834228516
0, 3, 102, 194.8624267578125
0, 3, 103, 192.6155548095703
0, 3, 104, 203.2826995849609
0, 3, 105, 176.6696014404297
0, 3, 106, 181.2794799804688
0, 3, 107, 170.3811340332031
0, 3, 108, 108.0597610473633
0, 3, 109, 26.79451370239258
0, 3, 110, 8.69069766998291
0, 3, 111, 6.59285831451416
0, 3, 112, 3.470321655273438
0, 3, 113, 7.733512401580811
0, 3, 114, 4.34166955947876
0, 3, 115, 4.394091129302979
0, 3, 116, 4.815149307250977
0, 3, 117, 4.219789981842041
0, 3, 118, 3.732706069946289
0, 3, 119, 2.973767280578613
0, 3, 120, 3.848811388015747
0, 3, 121, 1.527079343795776
0, 3, 122, 3.54695200920105
0, 3, 123, 1.488492727279663
0, 3, 124, 2.157787322998047
0, 3, 125, 1.432744979858398
0, 3, 126, 1.979476094245911
0, 3, 127, 1.554103374481201
0, 4, 0, 1.356648802757263
0, 4, 1, 0.2868909239768982
0, 4, 2, 2.255647420883179
0, 4, 3, 4.729531764984131
0, 4, 4, 3.008648157119751
0, 4, 5, 0.9899779558181763
0, 4, 6, 2.541563510894775
0, 4, 7, 2.205553531646729
0, 4, 8, 2.127747297286987
0, 4, 9, 3.532768487930298
0, 4, 10, 4.130682945251465
0, 4, 11, 3.499952077865601
0, 4, 12, 3.802361011505127
0, 4, 13, 4.356578350067139
0, 4, 14, 4.662069797515869
0, 4, 15, 7.9574875831604
0, 4, 16, 6.746445655822754
0, 4, 17, 11.45679759979248
0, 4, 18, 54.10094833374023
0, 4, 19, 150.8355865478516
0, 4, 20, 192.9568481445312
0, 4, 21, 169.5539855957031
0, 4, 22, 188.2051544189453
0, 4, 23, 195.1718139648438
0, 4, 24, 192.4516296386719
0, 4, 25, 200.2446746826172
0, 4, 26, 183.9917602539062
0, 4, 27, 190.9578857421875
0, 4, 28, 178.96044921875
0, 4, 29, 205.3769226074219
0, 4, 30, 194.6583709716797
0, 4, 31, 192.8089904785156
0, 4, 32, 209.4129943847656
0, 4, 33, 191.3589782714844
0, 4, 34, 192.2501678466797
0, 4, 35, 214.4480285644531
0, 4, 36, 192.2821960449219
0, 4, 37, 177.0426025390625
0, 4, 38, 196.6935424804688
0, 4, 39, 190.2104034423828
0, 4, 40, 186.8006896972656
0, 4, 41, 190.5296630859375
0, 4, 42, 206.5013275146484
0, 4, 43, 174.5577697753906
0, 4, 44, 183.0913848876953
0, 4, 45, 195.6096038818359
0, 4, 46, 186.6179504394531
0, 4, 47, 180.3819274902344
0, 4, 48, 185.3694610595703
0, 4, 49, 174.2383880615234
0, 4, 50, 185.8258666992188
0, 4, 51, 197.0459289550781
0, 4, 52, 223.2919921875
0, 4, 53, 207.1352691650391
0, 4, 54, 189.0796508789062
0, 4, 55, 174.394287109375
0, 4, 56, 191.000244140625
0, 4, 57, 191.543701171875
0, 4, 58, 187.6492919921875
0, 4, 59, 188.9476013183594
0, 4, 60, 195.866455078125
0, 4, 61, 194.4397125244141
0, 4, 62, 189.3022003173828
0, 4, 63, 178.1339721679688
0, 4, 64, 214.6646881103516
0, 4, 65, 190.3457946777344
0, 4, 66, 201.4169616699219
0, 4, 67, 198.9954833984375
0, 4, 68, 200.8085479736328
0, 4, 69, 198.5332794189453
0, 4, 70, 204.5643157958984
0, 4, 71, 206.2089385986328
0, 4, 72, 215.4763031005859
0, 4, 73, 186.3463287353516
0, 4, 74, 180.4318084716797
0, 4, 75, 183.96826171875
0, 4, 76, 190.3499145507812
0, 4, 77, 183.4270935058594
0, 4, 78, 194.6531524658203
0, 4, 79, 205.9872436523438
0, 4, 80, 211.4428100585938
0, 4, 81, 198.3674468994141
0, 4, 82, 182.1146850585938
0, 4, 83, 170.8179779052734
0, 4, 84, 194.4053649902344
0, 4, 85, 196.4909057617188
0, 4, 86, 183.1868896484375
0, 4, 87, 183.4466094970703
0, 4, 88, 204.5909576416016
0, 4, 89, 187.4817199707031
0, 4, 90, 211.6520385742188
0, 4, 91, 189.6004638671875
0, 4, 92, 196.5831909179688
0, 4, 93, 198.7597503662109
0, 4, 94, 183.6378173828125
0, 4, 95, 174.8808746337891
0, 4, 96, 191.5352020263672
0, 4, 97, 192.9137878417969
0, 4, 98, 200.8900299072266
0, 4, 99, 183.1639099121094
0, 4, 100, 185.4435577392578
0, 4, 101, 177.5633850097656
0, 4, 102, 173.0573120117188
0, 4, 103, 186.0006866455078
0, 4, 104, 209.6787109375
0, 4, 105, 190.1420288085938
0, 4, 106, 180.5446014404297
0, 4, 107, 181.0361328125
0, 4, 108, 153.5322265625
0, 4, 109, 51.39684677124023
0, 4, 110, 10.46784591674805
0, 4, 111, 8.363376617431641
0, 4, 112, 6.270498752593994
0, 4, 113, 5.555868148803711
0, 4, 114, 5.090762138366699
0, 4, 115, 3.411808729171753
0, 4, 116, 4.743921756744385
0, 4, 117, 3.072169780731201
0, 4, 118, 3.040221214294434
0, 4, 119, 3.335794448852539
0, 4, 120, 3.064758777618408
0, 4, 121, 1.154569983482361
0, 4, 122, 3.14134693145752
0, 4, 123, 1.399663686752319
0, 4, 124, 3.835504293441772
0, 4, 125, 2.865707397460938
0, 4, 126, 2.725322484970093
0, 4, 127, 1.859498381614685
0, 5, 0, 1.602239012718201
0, 5, 1, 3.296687126159668
0, 5, 2, 5.763091087341309
0, 5, 3, 5.081283092498779
0, 5, 4, 2.597058773040771
0, 5, 5, 2.183649301528931
0, 5, 6, 3.012614488601685
0, 5, 7, 2.565693855285645
0, 5, 8, 1.812833786010742
0, 5, 9, 2.683008909225464
0, 5, 10, 3.407990217208862
0, 5, 11, 5.22638988494873
0, 5, 12, 3.119254112243652
0, 5, 13, 4.95123815536499
0, 5, 14, 5.022448062896729
0, 5, 15, 9.218976974487305
0, 5, 16, 9.170805931091309
0, 5, 17, 21.31933212280273
0, 5, 18, 82.85994720458984
0, 5, 19, 165.5451202392578
0, 5, 20, 183.1919097900391
0, 5, 21, 178.6369476318359
0, 5, 22, 170.7952880859375
0, 5, 23, 200.85693359375
0, 5, 24, 187.0614013671875
0, 5, 25, 207.0941009521484
0, 5, 26, 182.4356842041016
0, 5, 27, 193.6161041259766
0, 5, 28, 189.3722229003906
0, 5, 29, 195.8356018066406
0, 5, 30, 177.0172424316406
0, 5, 31, 179.7915954589844
0, 5, 32, 186.6267547607422
0, 5, 33, 171.4878234863281
0, 5, 34, 195.6965637207031
0, 5, 35, 197.6274871826172
0, 5, 36, 167.7640533447266
0, 5, 37, 197.3179321289062
0, 5, 38, 180.4791564941406
0, 5, 39, 188.0694122314453
0, 5, 40, 196.7931213378906
0, 5, 41, 176.6497497558594
0, 5, 42, 187.7628936767578
0, 5, 43, 192.0805053710938
0, 5, 44, 199.9685211181641
0, 5, 45, 186.9480133056641
0, 5, 46, 193.0335083007812
0, 5, 47, 179.8389434814453
0, 5, 48, 178.0601806640625
0, 5, 49, 177.4458618164062
0, 5, 50, 186.7601165771484
0, 5, 51, 174.6289367675781
0, 5, 52, 167.7018127441406
0, 5, 53, 181.5788269042969
0, 5, 54, 172.2803955078125
0, 5, 55, 215.8363037109375
0, 5, 56, 182.1252136230469
0, 5, 57, 206.9293670654297
0, 5, 58, 181.2082977294922
0, 5, 59, 180.9270935058594
0, 5, 60, 218.999755859375
0, 5, 61, 184.2794036865234
0, 5, 62, 177.9886474609375
0, 5, 63, 180.7710418701172
0, 5, 64, 195.7320861816406
0, 5, 65, 209.6868286132812
0, 5, 66, 191.500244140625
0, 5, 67, 199.0370178222656
0, 5, 68, 186.3607330322266
0, 5, 69, 186.1602325439453
0, 5, 70, 184.8374481201172
0, 5, 71, 194.7119750976562
0, 5, 72, 197.9944000244141
0, 5, 73, 201.4717102050781
0, 5, 74, 180.5307922363281
0, 5, 75, 203.4253082275391
0, 5, 76, 216.0736541748047
0, 5, 77, 181.2094421386719
0, 5, 78, 194.0592193603516
0, 5, 79, 190.4964904785156
0, 5, 80, 197.6229095458984
0, 5, 81, 203.6905517578125
0, 5, 82, 201.2085418701172
0, 5, 83, 189.3319549560547
0, 5, 84, 207.1975402832031
0, 5, 85, 176.8492736816406
0, 5, 86, 195.1517333984375
0, 5, 87, 188.41552734375
0, 5, 88, 176.7949829101562
0, 5, 89, 194.2793579101562
0, 5, 90, 199.0824890136719
0, 5, 91, 194.7563934326172
0, 5, 92, 190.8139038085938
0, 5, 93, 191.0963897705078
0, 5, 94, 207.7835235595703
0, 5, 95, 176.3241424560547
0, 5, 96, 182.2584228515625
0, 5, 97, 191.9490203857422
0, 5, 98, 189.0641021728516
0, 5, 99, 195.6307220458984
0, 5, 100, 185.6507568359375
0, 5, 101, 196.2638702392578
0, 5, 102, 181.5917053222656
0, 5, 103, 176.1110229492188
0, 5, 104, 189.9136047363281
0, 5, 105, 189.6742248535156
0, 5, 106, 176.9214477539062
0, 5, 107, 181.5751953125
0, 5, 108, 175.1829833984375
0, 5, 109, 89.95670318603516
0, 5, 110, 30.86075592041016
0, 5, 111, 9.381558418273926
0, 5, 112, 6.297167301177979
0, 5, 113, 7.11308765411377
0, 5, 114, 6.411306381225586
0, 5, 115, 7.359939098358154
0, 5, 116, 6.046839237213135
0, 5, 117, 3.425859212875366
0, 5, 118, 3.568145275115967
0, 5, 119, 3.300064086914062
0, 5, 120, 4.99117374420166
0, 5, 121, 1.963818788528442
0, 5, 122, 3.196279048919678
0, 5, 123, 3.423076152801514
0, 5, 124, 3.520464897155762
0, 5, 125, 1.550297141075134
0, 5, 126, 2.036153793334961
0, 5, 127, 2.714257717132568
0, 6, 0, 6.176616668701172
0, 6, 1, 3.164443731307983
0, 6, 2, 3.113154888153076
0, 6, 3, 1.744879364967346
0, 6, 4, 2.857463598251343
0, 6, 5, 5.147221088409424
0, 6, 6, 2.467403173446655
0, 6, 7, 5.170976638793945
0, 6, 8, 4.655489444732666
0, 6, 9, 3.682018756866455
0, 6, 10, 5.031761169433594
0, 6, 11, 3.575381517410278
0, 6, 12, 4.118764877319336
0, 6, 13, 6.090490341186523
0, 6, 14, 5.26957893371582
0, 6, 15, 6.882573127746582
0, 6, 16, 12.75110149383545
0, 6, 17, 28.23472785949707
0, 6, 18, 111.9190444946289
0, 6, 19, 192.8144683837891
0, 6, 20, 195.111083984375
0, 6, 21, 197.9081268310547
0, 6, 22, 191.4357147216797
0, 6, 23, 190.8003692626953
0, 6, 24, 200.9795684814453
0, 6, 25, 183.34619140625
0, 6, 26, 187.3569183349609
0, 6, 27, 192.0467529296875
0, 6, 28, 188.8447113037109
0, 6, 29, 210.9717712402344
0, 6, 30, 190.5145416259766
0, 6, 31, 193.8892059326172
0, 6, 32, 206.1531372070312
0, 6, 33, 184.0883026123047
0, 6, 34, 196.7147369384766
0, 6, 35, 188.7620849609375
0, 6, 36, 180.4449768066406
0, 6, 37, 183.1051635742188
0, 6, 38, 185.096923828125
0, 6, 39, 195.4879455566406
0, 6, 40, 174.9264068603516
0, 6, 41, 186.7704925537109
0, 6, 42, 174.3404083251953
0, 6, 43, 211.5936431884766
0, 6, 44, 209.4642181396484
0, 6, 45, 194.3974456787109
0, 6, 46, 188.0829467773438
0, 6, 47, 203.9939880371094
0, 6, 48, 188.9131927490234
0, 6, 49, 178.6665344238281
0, 6, 50, 181.7700042724609
0, 6, 51, 196.3738098144531
0, 6, 52, 197.2351379394531
0, 6, 53, 185.0244293212891
0, 6, 54, 174.9408264160156
0, 6, 55, 195.0205535888672
0, 6, 56, 205.0470123291016
0, 6, 57, 191.3016052246094
0, 6, 58, 178.0437164306641
0, 6, 59, 192.088134765625
0, 6, 60, 183.7391967773438
0, 6, 61, 193.8129119873047
0, 6, 62, 196.4390106201172
0, 6, 63, 187.3131713867188
0, 6, 64, 169.7743835449219
0, 6, 65, 185.6845397949219
0, 6, 66, 197.1560211181641
0, 6, 67, 213.9640045166016
0, 6, 68, 180.849365234375
0, 6, 69, 170.5075988769531
0, 6, 70, 188.0413208007812
0, 6, 71, 170.433349609375
0, 6, 72, 175.79248046875
0, 6, 73, 176.4879608154297
0, 6, 74, 210.4987182617188
0, 6, 75, 227.3214569091797
0, 6, 76, 183.9574127197266
0, 6, 77, 172.9500274658203
0, 6, 78, 175.8999633789062
0, 6, 79, 188.6923065185547
0, 6, 80, 186.5991668701172
0, 6, 81, 208.3396301269531
0, 6, 82, 195.4646606445312
0, 6, 83, 194.2389221191406
0, 6, 84, 198.3505249023438
0, 6, 85, 182.8526306152344
0, 6, 86, 202.1856079101562
0, 6, 87, 183.1733551025391
0, 6, 88, 192.0427856445312
0, 6, 89, 188.6398773193359
0, 6, 90, 205.2767028808594
0, 6, 91, 200.5395202636719
0, 6, 92, 173.6922149658203
0, 6, 93, 193.6238403320312
0, 6, 94, 189.3720245361328
0, 6, 95, 185.3688201904297
0, 6, 96, 189.9865875244141
0, 6, 97, 194.1802062988281
0, 6, 98, 182.8828277587891
0, 6, 99, 174.6789855957031
0, 6, 100, 201.9337768554688
0, 6, 101, 168.8654937744141
0, 6, 102, 201.4259796142578
0, 6, 103, 197.1373138427734
0, 6, 104, 183.5657806396484
0, 6, 105, 194.2877197265625
0, 6, 106, 177.8179321289062
0, 6, 107, 195.1935272216797
0, 6, 108, 171.3831329345703
0, 6, 109, 114.9349899291992
0, 6, 110, 33.26168823242188
0, 6, 111, 8.585333824157715
0, 6, 112, 8.391485214233398
0, 6, 113, 5.184385299682617
0, 6, 114, 7.739591121673584
0, 6, 115, 5.265835285186768
0, 6, 116, 4.245865345001221
0, 6, 117, 3.949563264846802
0, 6, 118, 3.028611660003662
0, 6, 119, 3.60728645324707
0, 6, 120, 3.029907703399658
0, 6, 121, 5.809273719787598
0, 6, 122, 2.963590621948242
0, 6, 123, 2.12606406211853
0, 6, 124, 2.068498611450195
0, 6, 125, 4.264960765838623
0, 6, 126, 1.582384467124939
0, 6, 127, 2.955730676651001
0, 7, 0, 2.625410795211792
0, 7, 1, 2.181407690048218
0, 7, 2, 3.697414875030518
0, 7, 3, 2.906094074249268
0, 7, 4, 1.015006303787231
0, 7, 5, 1.536969900131226
0, 7, 6, 2.365317344665527
0, 7, 7, 2.055036306381226
0, 7, 8, 3.673960208892822
0, 7, 9, 3.1104896068573
0, 7, 10, 4.882755279541016
0, 7, 11, 2.580072641372681
0, 7, 12, 3.645476579666138
0, 7, 13, 6.371654987335205
0, 7, 14, 6.359951019287109
0, 7, 15, 7.90980863571167
0, 7, 16, 15.93540287017822
0, 7, 17, 50.11940002441406
0, 7, 18, 161.9862670898438
0, 7, 19, 182.0205688476562
0, 7, 20, 178.9119262695312
0, 7, 21, 179.8278503417969
0, 7, 22, 191.8352203369141
0, 7, 23, 203.2807769775391
0, 7, 24, 180.0937042236328
0, 7, 25, 212.2081909179688
0, 7, 26, 189.3774108886719
0, 7, 27, 181.5869140625
0, 7, 28, 183.5503387451172
0, 7, 29, 208.8856201171875
0, 7, 30, 193.7034606933594
0, 7, 31, 176.3322448730469
0, 7, 32, 190.0997772216797
0, 7, 33, 181.8150177001953
0, 7, 34, 192.9052276611328
0, 7, 35, 197.0194091796875
0, 7, 36, 186.28076171875
0, 7, 37, 213.1150970458984
0, 7, 38, 191.6940002441406
0, 7, 39, 173.1196441650391
0, 7, 40, 182.9164123535156
0, 7, 41, 184.5543823242188
0, 7, 42, 177.5955810546875
0, 7, 43, 177.1507415771484
0, 7, 44, 180.3656158447266
0, 7, 45, 176.6895751953125
0, 7, 46, 187.5709075927734
0, 7, 47, 196.9384613037109
0, 7, 48, 184.7431793212891
0, 7, 49, 200.50830078125
0, 7, 50, 188.2003631591797
0, 7, 51, 206.2887268066406
0, 7, 52, 203.9579467773438
0, 7, 53, 193.1466674804688
0, 7, 54, 195.3611297607422
0, 7, 55, 203.0499725341797
0, 7, 56, 183.9322967529297
0, 7, 57, 184.5973663330078
0, 7, 58, 193.5917053222656
0, 7, 59, 186.7049560546875
0, 7, 60, 203.8773956298828
0, 7, 61, 171.7150573730469
0, 7, 62, 205.0441589355469
0, 7, 63, 190.5413360595703
0, 7, 64, 199.3131408691406
0, 7, 65, 196.9320526123047
0, 7, 66, 206.4918060302734
0, 7, 67, 220.4217071533203
0, 7, 68, 165.3512725830078
0, 7, 69, 194.8600921630859
0, 7, 70, 216.984619140625
0, 7, 71, 184.5684509277344
0, 7, 72, 181.0234680175781
0, 7, 73, 176.8980560302734
0, 7, 74, 207.9697723388672
0, 7, 75, 205.2921752929688
0, 7, 76, 214.5875396728516
0, 7, 77, 175.6468811035156
0, 7, 78, 177.1537780761719
0, 7, 79, 191.1136932373047
0, 7, 80, 195.3330078125
0, 7, 81, 214.9957885742188
0, 7, 82, 184.4505615234375
0, 7, 83, 205.1976470947266
0, 7, 84, 194.2242431640625
0, 7, 85, 187.5776519775391
0, 7, 86, 200.6857452392578
0, 7, 87, 224.8564453125
0, 7, 88, 194.9709930419922
0, 7, 89, 176.6100769042969
0, 7, 90, 182.1155395507812
0, 7, 91, 194.1530609130859
0, 7, 92, 194.7184753417969
0, 7, 93, 197.8305511474609
0, 7, 94, 178.5629730224609
0, 7, 95, 198.69677734375
0, 7, 96, 209.3594207763672
0, 7, 97, 190.1207580566406
0, 7, 98, 177.1935577392578
0, 7, 99, 196.4239807128906
0, 7, 100, 181.8547973632812
0, 7, 101, 199.1577758789062
0, 7, 102, 184.8631591796875
0, 7, 103, 180.5645446777344
0, 7, 104, 174.3603210449219
0, 7, 105, 195.8423156738281
0, 7, 106, 205.9088439941406
0, 7, 107, 174.2958374023438
0, 7, 108, 176.5509796142578
0, 7, 109, 136.9017486572266
0, 7, 110, 54.32966995239258
0, 7, 111, 8.671466827392578
0, 7, 112, 8.011041641235352
0, 7, 113, 8.953835487365723
0, 7, 114, 7.943735599517822
0, 7, 115, 5.630943775177002
0, 7, 116, 4.460822582244873
0, 7, 117, 2.408825159072876
0, 7, 118, 3.305010080337524
0, 7, 119, 2.485156059265137
0, 7, 120, 2.594237565994263
0, 7, 121, 3.717986345291138
0, 7, 122, 2.890098333358765
0, 7, 123, 1.175443530082703
0, 7, 124, 1.288451671600342
0, 7, 125, 2.00212025642395
0, 7, 126, 2.015849590301514
0, 7, 127, 1.136921048164368
0, 8, 0, 5.281653881072998
0, 8, 1, 2.507041454315186
0, 8, 2, 2.579271793365479
0, 8, 3, 2.363144874572754
0, 8, 4, 1.773503541946411
0, 8, 5, 2.669482707977295
0, 8, 6, 1.341614246368408
0, 8, 7, 2.58430552482605
0, 8, 8, 4.017752170562744
0, 8, 9, 4.452127933502197
0, 8, 10, 2.270547389984131
0, 8, 11, 2.436334133148193
0, 8, 12, 4.300898551940918
0, 8, 13, 4.866551876068115
0, 8, 14, 6.383890628814697
0, 8, 15, 9.43757152557373
0, 8, 16, 19.48956871032715
0, 8, 17, 75.89788055419922
0, 8, 18, 142.6455535888672
0, 8, 19, 178.4388580322266
0, 8, 20, 191.6361083984375
0, 8, 21, 193.8401489257812
0, 8, 22, 179.3896484375
0, 8, 23, 172.5587005615234
0, 8, 24, 191.7738952636719
0, 8, 25, 186.1967163085938
0, 8, 26, 193.0003967285156
0, 8, 27, 187.8316802978516
0, 8, 28, 188.1519775390625
0, 8, 29, 208.0732879638672
0, 8, 30, 196.7388763427734
0, 8, 31, 184.0373077392578
0, 8, 32, 198.1926879882812
0, 8, 33, 208.7603302001953
0, 8, 34, 203.6879119873047
0, 8, 35, 186.0417022705078
0, 8, 36, 183.0785827636719
0, 8, 37, 198.2205963134766
