# TOPAS Version: 3.1.p3
# Parameter File: batch_inserts_300.txt
# Results for scorer Readout_Adipose
# Scored in component: MyBox
# X in 1 bin  of 0.65 cm
# Y in 512 bins of 0.0783984 cm
# Z in 128 bins of 0.078125 cm
# EnergyDeposit ( MeV ) : Sum   
0, 0, 0, 2.007977724075317
0, 0, 1, 3.075723648071289
0, 0, 2, 1.192201375961304
0, 0, 3, 1.261837482452393
0, 0, 4, 2.806042194366455
0, 0, 5, 0.5150308609008789
0, 0, 6, 1.541600227355957
0, 0, 7, 3.283279180526733
0, 0, 8, 2.306425809860229
0, 0, 9, 2.902804613113403
0, 0, 10, 1.485966086387634
0, 0, 11, 3.166554689407349
0, 0, 12, 5.806212902069092
0, 0, 13, 2.699099540710449
0, 0, 14, 5.161111354827881
0, 0, 15, 5.958621025085449
0, 0, 16, 4.09639310836792
0, 0, 17, 5.937350273132324
0, 0, 18, 8.421090126037598
0, 0, 19, 23.93056106567383
0, 0, 20, 94.74104309082031
0, 0, 21, 154.4529113769531
0, 0, 22, 156.2092590332031
0, 0, 23, 143.7365570068359
0, 0, 24, 159.4474487304688
0, 0, 25, 166.6284332275391
0, 0, 26, 167.2975006103516
0, 0, 27, 174.5653076171875
0, 0, 28, 177.1515655517578
0, 0, 29, 175.2483062744141
0, 0, 30, 173.1627960205078
0, 0, 31, 165.6819305419922
0, 0, 32, 164.3684539794922
0, 0, 33, 166.1698913574219
0, 0, 34, 177.0279388427734
0, 0, 35, 174.1152801513672
0, 0, 36, 159.0425262451172
0, 0, 37, 161.1323699951172
0, 0, 38, 166.0094909667969
0, 0, 39, 158.5699615478516
0, 0, 40, 164.467529296875
0, 0, 41, 165.4175262451172
0, 0, 42, 145.1595001220703
0, 0, 43, 168.8875427246094
0, 0, 44, 177.9782867431641
0, 0, 45, 174.5542297363281
0, 0, 46, 166.7149047851562
0, 0, 47, 167.3463745117188
0, 0, 48, 169.7828674316406
0, 0, 49, 182.3539581298828
0, 0, 50, 169.0879516601562
0, 0, 51, 162.9505615234375
0, 0, 52, 162.4883728027344
0, 0, 53, 171.3169860839844
0, 0, 54, 159.0523223876953
0, 0, 55, 163.8747253417969
0, 0, 56, 189.27783203125
0, 0, 57, 170.6366729736328
0, 0, 58, 161.8634643554688
0, 0, 59, 172.3685607910156
0, 0, 60, 169.5100708007812
0, 0, 61, 169.3731079101562
0, 0, 62, 183.7019958496094
0, 0, 63, 169.1803131103516
0, 0, 64, 164.3098754882812
0, 0, 65, 173.7030639648438
0, 0, 66, 178.7877960205078
0, 0, 67, 163.9898834228516
0, 0, 68, 158.0865936279297
0, 0, 69, 158.8177032470703
0, 0, 70, 169.3853454589844
0, 0, 71, 158.4062347412109
0, 0, 72, 163.2714385986328
0, 0, 73, 171.2290954589844
0, 0, 74, 162.9913635253906
0, 0, 75, 163.13232421875
0, 0, 76, 162.9512176513672
0, 0, 77, 171.8344879150391
0, 0, 78, 181.2608184814453
0, 0, 79, 174.5885314941406
0, 0, 80, 160.1253967285156
0, 0, 81, 159.4235382080078
0, 0, 82, 181.3274688720703
0, 0, 83, 174.3642425537109
0, 0, 84, 161.2510528564453
0, 0, 85, 181.8236694335938
0, 0, 86, 158.7267303466797
0, 0, 87, 177.3776397705078
0, 0, 88, 176.8510284423828
0, 0, 89, 178.2897033691406
0, 0, 90, 160.3217926025391
0, 0, 91, 184.2845001220703
0, 0, 92, 163.4764404296875
0, 0, 93, 157.2099761962891
0, 0, 94, 168.9856414794922
0, 0, 95, 172.8594970703125
0, 0, 96, 184.0849151611328
0, 0, 97, 184.0837097167969
0, 0, 98, 185.3414764404297
0, 0, 99, 171.7980651855469
0, 0, 100, 157.6627655029297
0, 0, 101, 166.4210052490234
0, 0, 102, 170.9226837158203
0, 0, 103, 170.9794464111328
0, 0, 104, 169.2855682373047
0, 0, 105, 177.4511108398438
0, 0, 106, 158.3358154296875
0, 0, 107, 86.53639221191406
0, 0, 108, 22.13142204284668
0, 0, 109, 9.845178604125977
0, 0, 110, 8.326725959777832
0, 0, 111, 6.313994884490967
0, 0, 112, 4.548476219177246
0, 0, 113, 2.817774057388306
0, 0, 114, 2.389636278152466
0, 0, 115, 2.756788969039917
0, 0, 116, 2.468882083892822
0, 0, 117, 3.482640743255615
0, 0, 118, 4.227824211120605
0, 0, 119, 2.447875261306763
0, 0, 120, 2.146332502365112
0, 0, 121, 4.343161106109619
0, 0, 122, 4.27458381652832
0, 0, 123, 4.370258331298828
0, 0, 124, 2.652775049209595
0, 0, 125, 2.423909187316895
0, 0, 126, 0.4973509013652802
0, 0, 127, 1.904831647872925
0, 1, 0, 0.6172409057617188
0, 1, 1, 3.641023635864258
0, 1, 2, 4.2592453956604
0, 1, 3, 1.129262089729309
0, 1, 4, 1.09577476978302
0, 1, 5, 2.736000537872314
0, 1, 6, 1.687692999839783
0, 1, 7, 3.46116042137146
0, 1, 8, 1.703519344329834
0, 1, 9, 1.714080095291138
0, 1, 10, 1.902053117752075
0, 1, 11, 3.811383724212646
0, 1, 12, 4.599608421325684
0, 1, 13, 4.685202598571777
0, 1, 14, 5.33653450012207
0, 1, 15, 5.773995876312256
0, 1, 16, 8.754546165466309
0, 1, 17, 5.895284175872803
0, 1, 18, 11.29238986968994
0, 1, 19, 39.5213623046875
0, 1, 20, 126.1562728881836
0, 1, 21, 178.5129852294922
0, 1, 22, 194.1549224853516
0, 1, 23, 186.3100433349609
0, 1, 24, 180.1073760986328
0, 1, 25, 191.7880706787109
0, 1, 26, 199.0958251953125
0, 1, 27, 186.39453125
0, 1, 28, 188.5615234375
0, 1, 29, 183.6803894042969
0, 1, 30, 179.5526885986328
0, 1, 31, 182.3824615478516
0, 1, 32, 189.8168182373047
0, 1, 33, 189.9565582275391
0, 1, 34, 183.8554840087891
0, 1, 35, 192.7980041503906
0, 1, 36, 205.9347991943359
0, 1, 37, 185.2323150634766
0, 1, 38, 165.4232330322266
0, 1, 39, 171.6423797607422
0, 1, 40, 180.1971588134766
0, 1, 41, 184.9962005615234
0, 1, 42, 183.8964233398438
0, 1, 43, 184.6368408203125
0, 1, 44, 168.1097259521484
0, 1, 45, 187.0362091064453
0, 1, 46, 170.6959381103516
0, 1, 47, 185.1521453857422
0, 1, 48, 186.3221588134766
0, 1, 49, 186.5036315917969
0, 1, 50, 177.9973297119141
0, 1, 51, 190.617919921875
0, 1, 52, 195.3688507080078
0, 1, 53, 196.08056640625
0, 1, 54, 184.8173828125
0, 1, 55, 165.0466156005859
0, 1, 56, 178.8201599121094
0, 1, 57, 179.6112670898438
0, 1, 58, 188.4899597167969
0, 1, 59, 193.7232055664062
0, 1, 60, 188.0204467773438
0, 1, 61, 177.4436187744141
0, 1, 62, 205.7228546142578
0, 1, 63, 174.8760681152344
0, 1, 64, 174.0085754394531
0, 1, 65, 184.5558166503906
0, 1, 66, 204.5634307861328
0, 1, 67, 182.6982574462891
0, 1, 68, 186.2551574707031
0, 1, 69, 188.9130401611328
0, 1, 70, 185.2332763671875
0, 1, 71, 171.1352691650391
0, 1, 72, 188.1838684082031
0, 1, 73, 190.6085052490234
0, 1, 74, 201.6069030761719
0, 1, 75, 183.9642639160156
0, 1, 76, 174.6942749023438
0, 1, 77, 191.5632476806641
0, 1, 78, 188.6932678222656
0, 1, 79, 202.3662872314453
0, 1, 80, 186.56201171875
0, 1, 81, 174.7806854248047
0, 1, 82, 207.7610931396484
0, 1, 83, 211.1879119873047
0, 1, 84, 180.0538940429688
0, 1, 85, 170.0265197753906
0, 1, 86, 167.3048095703125
0, 1, 87, 184.4757843017578
0, 1, 88, 175.1408233642578
0, 1, 89, 187.5974426269531
0, 1, 90, 212.9428405761719
0, 1, 91, 181.5546264648438
0, 1, 92, 183.684814453125
0, 1, 93, 180.6716003417969
0, 1, 94, 185.1572570800781
0, 1, 95, 183.4829711914062
0, 1, 96, 196.7124328613281
0, 1, 97, 183.4418487548828
0, 1, 98, 186.1938018798828
0, 1, 99, 175.4020233154297
0, 1, 100, 174.1984405517578
0, 1, 101, 177.8310241699219
0, 1, 102, 182.0803833007812
0, 1, 103, 172.6346588134766
0, 1, 104, 188.5709533691406
0, 1, 105, 182.4220275878906
0, 1, 106, 164.1314544677734
0, 1, 107, 123.9872894287109
0, 1, 108, 47.1438102722168
0, 1, 109, 10.2195873260498
0, 1, 110, 7.718030452728271
0, 1, 111, 7.992995738983154
0, 1, 112, 9.495492935180664
0, 1, 113, 7.032390594482422
0, 1, 114, 4.830573558807373
0, 1, 115, 5.253095149993896
0, 1, 116, 4.038596630096436
0, 1, 117, 4.746337890625
0, 1, 118, 4.586386203765869
0, 1, 119, 0.9307637214660645
0, 1, 120, 3.010550737380981
0, 1, 121, 4.5145263671875
0, 1, 122, 1.746379375457764
0, 1, 123, 4.098732948303223
0, 1, 124, 2.929610967636108
0, 1, 125, 2.630139350891113
0, 1, 126, 2.06088924407959
0, 1, 127, 1.226992607116699
0, 2, 0, 0.6729532480239868
0, 2, 1, 1.647382020950317
0, 2, 2, 4.21971321105957
0, 2, 3, 1.94337010383606
0, 2, 4, 1.63431453704834
0, 2, 5, 0.9102176427841187
0, 2, 6, 1.925010800361633
0, 2, 7, 0.6891551613807678
0, 2, 8, 1.808431267738342
0, 2, 9, 3.268271684646606
0, 2, 10, 6.52011775970459
0, 2, 11, 3.451129198074341
0, 2, 12, 2.835361480712891
0, 2, 13, 2.88179874420166
0, 2, 14, 4.662379264831543
0, 2, 15, 7.52936315536499
0, 2, 16, 6.110869884490967
0, 2, 17, 9.425407409667969
0, 2, 18, 14.12234973907471
0, 2, 19, 77.22110748291016
0, 2, 20, 164.1274719238281
0, 2, 21, 185.4872131347656
0, 2, 22, 194.0958709716797
0, 2, 23, 183.9312591552734
0, 2, 24, 173.4102478027344
0, 2, 25, 184.4146423339844
0, 2, 26, 180.5581207275391
0, 2, 27, 190.3205261230469
0, 2, 28, 170.3705902099609
0, 2, 29, 168.5722045898438
0, 2, 30, 184.4552764892578
0, 2, 31, 182.6221618652344
0, 2, 32, 182.6146697998047
0, 2, 33, 189.8208312988281
0, 2, 34, 196.0168914794922
0, 2, 35, 180.9665222167969
0, 2, 36, 186.7850189208984
0, 2, 37, 181.0367279052734
0, 2, 38, 184.1804046630859
0, 2, 39, 166.6565093994141
0, 2, 40, 184.0438079833984
0, 2, 41, 183.1546630859375
0, 2, 42, 188.9561004638672
0, 2, 43, 193.2889862060547
0, 2, 44, 190.6558380126953
0, 2, 45, 190.1816253662109
0, 2, 46, 195.7434539794922
0, 2, 47, 188.4498901367188
0, 2, 48, 180.8676910400391
0, 2, 49, 197.2842254638672
0, 2, 50, 168.2641906738281
0, 2, 51, 184.8504333496094
0, 2, 52, 187.39794921875
0, 2, 53, 194.6336517333984
0, 2, 54, 175.9537658691406
0, 2, 55, 173.7061462402344
0, 2, 56, 182.1527557373047
0, 2, 57, 199.4582214355469
0, 2, 58, 185.9438323974609
0, 2, 59, 189.2214202880859
0, 2, 60, 196.3965301513672
0, 2, 61, 193.0218811035156
0, 2, 62, 188.8766326904297
0, 2, 63, 170.1542053222656
0, 2, 64, 189.3809051513672
0, 2, 65, 201.9510803222656
0, 2, 66, 195.4090728759766
0, 2, 67, 184.8019256591797
0, 2, 68, 183.3243103027344
0, 2, 69, 187.5763854980469
0, 2, 70, 202.8913269042969
0, 2, 71, 174.6717071533203
0, 2, 72, 186.1543884277344
0, 2, 73, 177.2916107177734
0, 2, 74, 179.9755554199219
0, 2, 75, 195.7834777832031
0, 2, 76, 184.5255584716797
0, 2, 77, 176.9978485107422
0, 2, 78, 198.8602905273438
0, 2, 79, 177.9762268066406
0, 2, 80, 187.7609710693359
0, 2, 81, 187.2096862792969
0, 2, 82, 206.3972320556641
0, 2, 83, 204.1025085449219
0, 2, 84, 188.1647033691406
0, 2, 85, 170.4362487792969
0, 2, 86, 194.6400451660156
0, 2, 87, 172.3033142089844
0, 2, 88, 179.0724487304688
0, 2, 89, 187.1437072753906
0, 2, 90, 178.0137786865234
0, 2, 91, 174.3345489501953
0, 2, 92, 196.6733703613281
0, 2, 93, 191.6593627929688
0, 2, 94, 200.6464385986328
0, 2, 95, 194.4334564208984
0, 2, 96, 186.6737823486328
0, 2, 97, 171.9082641601562
0, 2, 98, 173.4337768554688
0, 2, 99, 162.0466003417969
0, 2, 100, 187.761962890625
0, 2, 101, 196.5969085693359
0, 2, 102, 176.6017150878906
0, 2, 103, 200.3097839355469
0, 2, 104, 187.270263671875
0, 2, 105, 199.9866333007812
0, 2, 106, 194.6447601318359
0, 2, 107, 150.5391235351562
0, 2, 108, 78.52761077880859
0, 2, 109, 17.5511302947998
0, 2, 110, 7.66411018371582
0, 2, 111, 5.430687427520752
0, 2, 112, 3.82435154914856
0, 2, 113, 4.508699893951416
0, 2, 114, 7.283337116241455
0, 2, 115, 3.649955987930298
0, 2, 116, 1.259823441505432
0, 2, 117, 1.531714797019958
0, 2, 118, 1.867490887641907
0, 2, 119, 2.44949197769165
0, 2, 120, 1.693107485771179
0, 2, 121, 3.177679777145386
0, 2, 122, 1.753844022750854
0, 2, 123, 2.333611965179443
0, 2, 124, 3.602466344833374
0, 2, 125, 1.738985896110535
0, 2, 126, 3.808899879455566
0, 2, 127, 0.4647262394428253
0, 3, 0, 1.788705110549927
0, 3, 1, 2.401022434234619
0, 3, 2, 1.516674995422363
0, 3, 3, 2.745540618896484
0, 3, 4, 3.753257274627686
0, 3, 5, 2.052473545074463
0, 3, 6, 1.368464231491089
0, 3, 7, 1.861986994743347
0, 3, 8, 3.571897745132446
0, 3, 9, 2.302498817443848
0, 3, 10, 2.264540433883667
0, 3, 11, 4.390897274017334
0, 3, 12, 3.209174871444702
0, 3, 13, 3.786884784698486
0, 3, 14, 4.833765029907227
0, 3, 15, 5.845250606536865
0, 3, 16, 7.167141914367676
0, 3, 17, 7.384813785552979
0, 3, 18, 32.87817001342773
0, 3, 19, 117.3772430419922
0, 3, 20, 180.873046875
0, 3, 21, 172.2633056640625
0, 3, 22, 177.8222198486328
0, 3, 23, 187.2249908447266
0, 3, 24, 178.2674865722656
0, 3, 25, 168.2390594482422
0, 3, 26, 180.9150848388672
0, 3, 27, 190.2984924316406
0, 3, 28, 180.8420257568359
0, 3, 29, 197.9873809814453
0, 3, 30, 185.0122222900391
0, 3, 31, 192.4981079101562
0, 3, 32, 205.7138366699219
0, 3, 33, 197.0218505859375
0, 3, 34, 187.3268890380859
0, 3, 35, 175.5541839599609
0, 3, 36, 185.1488189697266
0, 3, 37, 202.3671875
0, 3, 38, 192.9592132568359
0, 3, 39, 184.4516906738281
0, 3, 40, 165.2313385009766
0, 3, 41, 174.5823059082031
0, 3, 42, 185.0102844238281
0, 3, 43, 181.3308868408203
0, 3, 44, 202.3045806884766
0, 3, 45, 207.1334228515625
0, 3, 46, 200.0490264892578
0, 3, 47, 194.5429229736328
0, 3, 48, 196.3017883300781
0, 3, 49, 181.4335632324219
0, 3, 50, 187.5052642822266
0, 3, 51, 174.2474975585938
0, 3, 52, 187.7015533447266
0, 3, 53, 177.7629852294922
0, 3, 54, 179.647216796875
0, 3, 55, 177.3379821777344
0, 3, 56, 181.8136291503906
0, 3, 57, 177.2120666503906
0, 3, 58, 202.7091064453125
0, 3, 59, 196.4626007080078
0, 3, 60, 186.8116149902344
0, 3, 61, 180.8315887451172
0, 3, 62, 183.2440032958984
0, 3, 63, 183.7345581054688
0, 3, 64, 192.3691558837891
0, 3, 65, 187.4710083007812
0, 3, 66, 175.6929016113281
0, 3, 67, 189.7159423828125
0, 3, 68, 211.6362152099609
0, 3, 69, 189.7650909423828
0, 3, 70, 185.3533477783203
0, 3, 71, 197.9689178466797
0, 3, 72, 184.9350128173828
0, 3, 73, 186.8138732910156
0, 3, 74, 194.745849609375
0, 3, 75, 191.8013610839844
0, 3, 76, 190.0288391113281
0, 3, 77, 200.9317321777344
0, 3, 78, 188.2882080078125
0, 3, 79, 186.6385955810547
0, 3, 80, 188.8991851806641
0, 3, 81, 182.6726531982422
0, 3, 82, 180.4075927734375
0, 3, 83, 194.2301330566406
0, 3, 84, 199.2884674072266
0, 3, 85, 193.0016174316406
0, 3, 86, 203.9951782226562
0, 3, 87, 196.7717742919922
0, 3, 88, 191.1732025146484
0, 3, 89, 194.0975189208984
0, 3, 90, 174.4508514404297
0, 3, 91, 157.1024932861328
0, 3, 92, 208.3836059570312
0, 3, 93, 196.4647979736328
0, 3, 94, 192.9219665527344
0, 3, 95, 210.6940765380859
0, 3, 96, 208.5023040771484
0, 3, 97, 167.4981842041016
0, 3, 98, 168.5343933105469
0, 3, 99, 181.8806610107422
0, 3, 100, 178.1091918945312
0, 3, 101, 197.1461486816406
0, 3, 102, 194.1388397216797
0, 3, 103, 192.5401306152344
0, 3, 104, 202.4772186279297
0, 3, 105, 175.0997009277344
0, 3, 106, 180.939453125
0, 3, 107, 170.1446228027344
0, 3, 108, 108.4968185424805
0, 3, 109, 27.46855354309082
0, 3, 110, 7.612383365631104
0, 3, 111, 6.633802890777588
0, 3, 112, 2.999231100082397
0, 3, 113, 6.614658832550049
0, 3, 114, 4.787722110748291
0, 3, 115, 5.194728374481201
0, 3, 116, 4.217910766601562
0, 3, 117, 4.014640808105469
0, 3, 118, 1.705887913703918
0, 3, 119, 2.216089248657227
0, 3, 120, 3.730725765228271
0, 3, 121, 3.068426847457886
0, 3, 122, 3.436073780059814
0, 3, 123, 2.356289148330688
0, 3, 124, 2.36745810508728
0, 3, 125, 1.00481641292572
0, 3, 126, 2.210320711135864
0, 3, 127, 0.7116153240203857
0, 4, 0, 0.8343773484230042
0, 4, 1, 0.3788022696971893
0, 4, 2, 2.567982196807861
0, 4, 3, 5.730304718017578
0, 4, 4, 2.340818166732788
0, 4, 5, 0.8651367425918579
0, 4, 6, 2.518072605133057
0, 4, 7, 2.824219465255737
0, 4, 8, 1.742758274078369
0, 4, 9, 1.5442955493927
0, 4, 10, 4.872915267944336
0, 4, 11, 3.88283634185791
0, 4, 12, 3.418777704238892
0, 4, 13, 4.335366725921631
0, 4, 14, 3.891036987304688
0, 4, 15, 8.371906280517578
0, 4, 16, 6.656057357788086
0, 4, 17, 11.52895450592041
0, 4, 18, 55.10091781616211
0, 4, 19, 150.8808746337891
0, 4, 20, 192.2962188720703
0, 4, 21, 169.2227172851562
0, 4, 22, 189.683349609375
0, 4, 23, 195.9678955078125
0, 4, 24, 192.5448913574219
0, 4, 25, 199.2049865722656
0, 4, 26, 184.522705078125
0, 4, 27, 191.8209228515625
0, 4, 28, 179.2532348632812
0, 4, 29, 206.9949951171875
0, 4, 30, 197.7329559326172
0, 4, 31, 194.3027648925781
0, 4, 32, 211.106201171875
0, 4, 33, 190.3626403808594
0, 4, 34, 192.2590942382812
0, 4, 35, 212.7841644287109
0, 4, 36, 193.2453308105469
0, 4, 37, 177.7236633300781
0, 4, 38, 193.7076416015625
0, 4, 39, 189.42822265625
0, 4, 40, 185.65478515625
0, 4, 41, 188.9446258544922
0, 4, 42, 205.9099273681641
0, 4, 43, 173.0564422607422
0, 4, 44, 184.2580718994141
0, 4, 45, 197.2449645996094
0, 4, 46, 185.7644805908203
0, 4, 47, 180.3718872070312
0, 4, 48, 186.5417327880859
0, 4, 49, 175.2697143554688
0, 4, 50, 186.3770141601562
0, 4, 51, 196.2758483886719
0, 4, 52, 223.1243896484375
0, 4, 53, 206.5320892333984
0, 4, 54, 190.0759582519531
0, 4, 55, 174.8864898681641
0, 4, 56, 190.9532012939453
0, 4, 57, 192.6945648193359
0, 4, 58, 187.1178588867188
0, 4, 59, 189.5044097900391
0, 4, 60, 196.318115234375
0, 4, 61, 194.7627410888672
0, 4, 62, 192.3025970458984
0, 4, 63, 179.1424713134766
0, 4, 64, 211.5909118652344
0, 4, 65, 191.7035217285156
0, 4, 66, 202.0217437744141
0, 4, 67, 201.3261566162109
0, 4, 68, 202.6491851806641
0, 4, 69, 200.3741149902344
0, 4, 70, 203.895263671875
0, 4, 71, 206.8294982910156
0, 4, 72, 214.7825775146484
0, 4, 73, 185.4160308837891
0, 4, 74, 180.3067474365234
0, 4, 75, 184.8069915771484
0, 4, 76, 189.3062591552734
0, 4, 77, 182.6807250976562
0, 4, 78, 194.6011962890625
0, 4, 79, 203.8024139404297
0, 4, 80, 211.1569519042969
0, 4, 81, 199.135498046875
0, 4, 82, 180.4985046386719
0, 4, 83, 169.6676788330078
0, 4, 84, 192.6173706054688
0, 4, 85, 196.3385467529297
0, 4, 86, 181.3723297119141
0, 4, 87, 183.2477874755859
0, 4, 88, 204.0431518554688
0, 4, 89, 187.5469818115234
0, 4, 90, 210.8522338867188
0, 4, 91, 189.7407684326172
0, 4, 92, 196.2120819091797
0, 4, 93, 196.3395690917969
0, 4, 94, 181.5643920898438
0, 4, 95, 174.1879730224609
0, 4, 96, 189.7593078613281
0, 4, 97, 193.4636993408203
0, 4, 98, 200.6254272460938
0, 4, 99, 183.422607421875
0, 4, 100, 183.0445251464844
0, 4, 101, 177.6587066650391
0, 4, 102, 172.5362091064453
0, 4, 103, 185.4508209228516
0, 4, 104, 209.5957336425781
0, 4, 105, 190.4136505126953
0, 4, 106, 180.3831939697266
0, 4, 107, 181.3326263427734
0, 4, 108, 151.9549255371094
0, 4, 109, 48.67333984375
0, 4, 110, 11.0982027053833
0, 4, 111, 7.606979370117188
0, 4, 112, 6.834299564361572
0, 4, 113, 8.396356582641602
0, 4, 114, 6.715093612670898
0, 4, 115, 3.863599300384521
0, 4, 116, 6.471213340759277
0, 4, 117, 2.498795747756958
0, 4, 118, 2.887509107589722
0, 4, 119, 4.03766393661499
0, 4, 120, 2.41123104095459
0, 4, 121, 2.155829191207886
0, 4, 122, 2.795189380645752
0, 4, 123, 1.556732892990112
0, 4, 124, 3.583089590072632
0, 4, 125, 2.377961874008179
0, 4, 126, 2.056695699691772
0, 4, 127, 1.646384358406067
0, 5, 0, 3.345360517501831
0, 5, 1, 2.887054681777954
0, 5, 2, 5.167633533477783
0, 5, 3, 3.467405080795288
0, 5, 4, 2.965825319290161
0, 5, 5, 2.86247706413269
0, 5, 6, 2.627882719039917
0, 5, 7, 3.159238576889038
0, 5, 8, 2.507680654525757
0, 5, 9, 2.418123960494995
0, 5, 10, 3.091256618499756
0, 5, 11, 3.463103055953979
0, 5, 12, 4.664503574371338
0, 5, 13, 4.946096420288086
0, 5, 14, 6.04753303527832
0, 5, 15, 8.559639930725098
0, 5, 16, 7.034196376800537
0, 5, 17, 21.68805313110352
0, 5, 18, 84.28424835205078
0, 5, 19, 164.4746856689453
0, 5, 20, 184.13916015625
0, 5, 21, 177.6681365966797
0, 5, 22, 171.2826690673828
0, 5, 23, 200.5099029541016
0, 5, 24, 186.8206329345703
0, 5, 25, 208.4513549804688
0, 5, 26, 182.945068359375
0, 5, 27, 196.1749877929688
0, 5, 28, 189.3397369384766
0, 5, 29, 195.9052734375
0, 5, 30, 178.2604370117188
0, 5, 31, 180.5884094238281
0, 5, 32, 187.1645812988281
0, 5, 33, 171.2501831054688
0, 5, 34, 194.9970092773438
0, 5, 35, 197.3596801757812
0, 5, 36, 168.4930267333984
0, 5, 37, 196.9355773925781
0, 5, 38, 181.0996856689453
0, 5, 39, 187.8404541015625
0, 5, 40, 196.5472564697266
0, 5, 41, 176.3895568847656
0, 5, 42, 187.3354949951172
0, 5, 43, 192.6107330322266
0, 5, 44, 199.5780944824219
0, 5, 45, 185.8870391845703
0, 5, 46, 193.0002136230469
0, 5, 47, 180.1646575927734
0, 5, 48, 178.18701171875
0, 5, 49, 176.5740661621094
0, 5, 50, 186.0548553466797
0, 5, 51, 172.3703308105469
0, 5, 52, 168.4261016845703
0, 5, 53, 181.6603393554688
0, 5, 54, 172.6801300048828
0, 5, 55, 216.4033050537109
0, 5, 56, 182.8535766601562
0, 5, 57, 206.7101440429688
0, 5, 58, 182.5005645751953
0, 5, 59, 180.4184265136719
0, 5, 60, 218.728515625
0, 5, 61, 184.5333862304688
0, 5, 62, 178.0312805175781
0, 5, 63, 180.1950988769531
0, 5, 64, 196.3017120361328
0, 5, 65, 209.8641967773438
0, 5, 66, 194.0419158935547
0, 5, 67, 200.6392822265625
0, 5, 68, 185.4287261962891
0, 5, 69, 185.7098999023438
0, 5, 70, 184.4156799316406
0, 5, 71, 193.0871734619141
0, 5, 72, 197.5277709960938
0, 5, 73, 201.9432525634766
0, 5, 74, 182.2432556152344
0, 5, 75, 203.0028839111328
0, 5, 76, 214.9627532958984
0, 5, 77, 182.1532745361328
0, 5, 78, 194.6171569824219
0, 5, 79, 190.2030181884766
0, 5, 80, 198.4827575683594
0, 5, 81, 202.8342590332031
0, 5, 82, 200.9217376708984
0, 5, 83, 188.2185821533203
0, 5, 84, 206.14111328125
0, 5, 85, 176.2312469482422
0, 5, 86, 197.4718170166016
0, 5, 87, 190.4539337158203
0, 5, 88, 176.7309112548828
0, 5, 89, 195.4141998291016
0, 5, 90, 198.8561401367188
0, 5, 91, 193.9627990722656
0, 5, 92, 190.6242218017578
0, 5, 93, 193.5905609130859
0, 5, 94, 206.9930267333984
0, 5, 95, 176.7798156738281
0, 5, 96, 182.6781768798828
0, 5, 97, 191.0925598144531
0, 5, 98, 190.3118743896484
0, 5, 99, 195.8660736083984
0, 5, 100, 187.4185333251953
0, 5, 101, 196.0436401367188
0, 5, 102, 183.2612609863281
0, 5, 103, 177.1549224853516
0, 5, 104, 189.8342742919922
0, 5, 105, 189.9859313964844
0, 5, 106, 176.5835571289062
0, 5, 107, 183.1190795898438
0, 5, 108, 176.0117034912109
0, 5, 109, 93.7279052734375
0, 5, 110, 29.97775459289551
0, 5, 111, 9.987638473510742
0, 5, 112, 6.271825313568115
0, 5, 113, 8.74067211151123
0, 5, 114, 6.011017322540283
0, 5, 115, 7.509873867034912
0, 5, 116, 4.160864353179932
0, 5, 117, 3.303692579269409
0, 5, 118, 3.62758731842041
0, 5, 119, 3.271471738815308
0, 5, 120, 1.699410080909729
0, 5, 121, 1.509211540222168
0, 5, 122, 2.305607318878174
0, 5, 123, 6.279237747192383
0, 5, 124, 2.499343395233154
0, 5, 125, 0.9414092302322388
0, 5, 126, 0.8395174145698547
0, 5, 127, 2.44261622428894
0, 6, 0, 5.537383556365967
0, 6, 1, 4.092763900756836
0, 6, 2, 3.822378158569336
0, 6, 3, 1.778655767440796
0, 6, 4, 2.881173610687256
0, 6, 5, 3.567997455596924
0, 6, 6, 5.32994556427002
0, 6, 7, 3.281420230865479
0, 6, 8, 3.069283962249756
0, 6, 9, 3.0483238697052
0, 6, 10, 4.579756736755371
0, 6, 11, 3.878350496292114
0, 6, 12, 6.198855876922607
0, 6, 13, 7.230879783630371
0, 6, 14, 5.221998691558838
0, 6, 15, 6.654984951019287
0, 6, 16, 12.22859668731689
0, 6, 17, 29.13954544067383
0, 6, 18, 112.0323104858398
0, 6, 19, 192.9210205078125
0, 6, 20, 195.4441528320312
0, 6, 21, 198.1129302978516
0, 6, 22, 190.6782379150391
0, 6, 23, 191.1217346191406
0, 6, 24, 200.0238647460938
0, 6, 25, 182.9677124023438
0, 6, 26, 188.9456329345703
0, 6, 27, 193.3500366210938
0, 6, 28, 188.5527496337891
0, 6, 29, 210.2882690429688
0, 6, 30, 191.3477172851562
0, 6, 31, 193.7193145751953
0, 6, 32, 206.3253936767578
0, 6, 33, 186.2335815429688
0, 6, 34, 199.068115234375
0, 6, 35, 189.7972106933594
0, 6, 36, 180.6094970703125
0, 6, 37, 182.5567932128906
0, 6, 38, 185.7429504394531
0, 6, 39, 193.9160308837891
0, 6, 40, 174.5113677978516
0, 6, 41, 185.3777008056641
0, 6, 42, 173.7492828369141
0, 6, 43, 211.3457489013672
0, 6, 44, 208.9800109863281
0, 6, 45, 195.7765960693359
0, 6, 46, 187.9237365722656
0, 6, 47, 204.0693359375
0, 6, 48, 189.5896606445312
0, 6, 49, 179.8585815429688
0, 6, 50, 181.8108215332031
0, 6, 51, 197.03759765625
0, 6, 52, 197.8153381347656
0, 6, 53, 184.6858367919922
0, 6, 54, 175.6277465820312
0, 6, 55, 193.9766387939453
0, 6, 56, 202.5929718017578
0, 6, 57, 190.9754638671875
0, 6, 58, 179.4896392822266
0, 6, 59, 193.8844146728516
0, 6, 60, 184.3665008544922
0, 6, 61, 194.3883666992188
0, 6, 62, 196.8557586669922
0, 6, 63, 186.7720794677734
0, 6, 64, 168.4791717529297
0, 6, 65, 186.9176940917969
0, 6, 66, 197.9206390380859
0, 6, 67, 214.5528411865234
0, 6, 68, 179.7221527099609
0, 6, 69, 172.9129638671875
0, 6, 70, 187.5443420410156
0, 6, 71, 170.0758056640625
0, 6, 72, 176.7723236083984
0, 6, 73, 176.5242462158203
0, 6, 74, 209.6693115234375
0, 6, 75, 228.7850799560547
0, 6, 76, 184.0980987548828
0, 6, 77, 172.5499725341797
0, 6, 78, 175.5883941650391
0, 6, 79, 186.7750854492188
0, 6, 80, 188.8130798339844
0, 6, 81, 209.5192413330078
0, 6, 82, 195.7715759277344
0, 6, 83, 195.2294311523438
0, 6, 84, 198.235595703125
0, 6, 85, 182.7044677734375
0, 6, 86, 203.8173217773438
0, 6, 87, 182.7830810546875
0, 6, 88, 191.6306610107422
0, 6, 89, 188.3392944335938
0, 6, 90, 205.6069030761719
0, 6, 91, 200.19091796875
0, 6, 92, 173.0430450439453
0, 6, 93, 192.082763671875
0, 6, 94, 189.7783813476562
0, 6, 95, 186.3424987792969
0, 6, 96, 188.1593780517578
0, 6, 97, 195.2536926269531
0, 6, 98, 183.5095367431641
0, 6, 99, 174.6491546630859
0, 6, 100, 201.861083984375
0, 6, 101, 167.5963745117188
0, 6, 102, 202.6582946777344
0, 6, 103, 195.8288269042969
0, 6, 104, 183.6938171386719
0, 6, 105, 194.3724365234375
0, 6, 106, 177.6669006347656
0, 6, 107, 195.3829345703125
0, 6, 108, 171.5887145996094
0, 6, 109, 114.708122253418
0, 6, 110, 34.45867538452148
0, 6, 111, 8.661360740661621
0, 6, 112, 8.585047721862793
0, 6, 113, 5.08833646774292
0, 6, 114, 4.94847583770752
0, 6, 115, 6.354255199432373
0, 6, 116, 4.686827182769775
0, 6, 117, 5.428215503692627
0, 6, 118, 4.188865661621094
0, 6, 119, 4.523114681243896
0, 6, 120, 2.195751190185547
0, 6, 121, 4.700942516326904
0, 6, 122, 4.287683010101318
0, 6, 123, 1.497847199440002
0, 6, 124, 1.843901038169861
0, 6, 125, 3.044519186019897
0, 6, 126, 2.313852787017822
0, 6, 127, 1.629056215286255
0, 7, 0, 2.126458168029785
0, 7, 1, 1.905875444412231
0, 7, 2, 2.880834579467773
0, 7, 3, 3.278424024581909
0, 7, 4, 1.348799824714661
0, 7, 5, 1.531395435333252
0, 7, 6, 3.182031154632568
0, 7, 7, 1.535653233528137
0, 7, 8, 3.408221960067749
0, 7, 9, 3.28877854347229
0, 7, 10, 4.275446891784668
0, 7, 11, 5.137189388275146
0, 7, 12, 3.601641654968262
0, 7, 13, 6.509475231170654
0, 7, 14, 6.650866508483887
0, 7, 15, 6.672253608703613
0, 7, 16, 15.8640079498291
0, 7, 17, 50.52565765380859
0, 7, 18, 161.5567779541016
0, 7, 19, 184.2245941162109
0, 7, 20, 180.785400390625
0, 7, 21, 180.095703125
0, 7, 22, 191.2108612060547
0, 7, 23, 202.8646087646484
0, 7, 24, 179.1118621826172
0, 7, 25, 212.2198028564453
0, 7, 26, 188.6576080322266
0, 7, 27, 181.9592132568359
0, 7, 28, 181.8985137939453
0, 7, 29, 208.837158203125
0, 7, 30, 193.3468170166016
0, 7, 31, 176.1451721191406
0, 7, 32, 190.7170104980469
0, 7, 33, 178.8379364013672
0, 7, 34, 193.6325073242188
0, 7, 35, 198.7169647216797
0, 7, 36, 186.9655914306641
0, 7, 37, 212.3612976074219
0, 7, 38, 191.4118499755859
0, 7, 39, 175.1993713378906
0, 7, 40, 183.4056549072266
0, 7, 41, 184.4066009521484
0, 7, 42, 177.4068298339844
0, 7, 43, 177.5112762451172
0, 7, 44, 178.3143615722656
0, 7, 45, 174.8321685791016
0, 7, 46, 189.8167877197266
0, 7, 47, 197.3986511230469
0, 7, 48, 186.2282257080078
0, 7, 49, 197.7535247802734
0, 7, 50, 188.5458221435547
0, 7, 51, 205.9995422363281
0, 7, 52, 204.3127288818359
0, 7, 53, 191.125
0, 7, 54, 197.3009185791016
0, 7, 55, 203.5197448730469
0, 7, 56, 183.1011810302734
0, 7, 57, 183.0266571044922
0, 7, 58, 192.0422210693359
0, 7, 59, 187.8193969726562
0, 7, 60, 202.0001983642578
0, 7, 61, 170.4414672851562
0, 7, 62, 202.5387878417969
0, 7, 63, 190.2349548339844
0, 7, 64, 200.5566864013672
0, 7, 65, 194.8564605712891
0, 7, 66, 205.2603454589844
0, 7, 67, 219.7611846923828
0, 7, 68, 162.6019134521484
0, 7, 69, 196.1650695800781
0, 7, 70, 217.6940002441406
0, 7, 71, 184.0117950439453
0, 7, 72, 181.8345031738281
0, 7, 73, 176.8922424316406
0, 7, 74, 207.7729034423828
0, 7, 75, 206.9405975341797
0, 7, 76, 215.2566680908203
0, 7, 77, 173.2205963134766
0, 7, 78, 176.7654418945312
0, 7, 79, 192.5635833740234
0, 7, 80, 196.5938262939453
0, 7, 81, 214.5971221923828
0, 7, 82, 185.2384185791016
0, 7, 83, 204.8029174804688
0, 7, 84, 191.4649353027344
0, 7, 85, 185.8501892089844
0, 7, 86, 200.2663726806641
0, 7, 87, 224.7526702880859
0, 7, 88, 194.8149108886719
0, 7, 89, 177.9963531494141
0, 7, 90, 182.2898254394531
0, 7, 91, 194.1269073486328
0, 7, 92, 193.2724151611328
0, 7, 93, 198.2335510253906
0, 7, 94, 178.4657287597656
0, 7, 95, 200.2936401367188
0, 7, 96, 208.7838287353516
0, 7, 97, 189.5244293212891
0, 7, 98, 177.7573089599609
0, 7, 99, 196.8623809814453
0, 7, 100, 182.0410003662109
0, 7, 101, 199.8392486572266
0, 7, 102, 185.9879302978516
0, 7, 103, 181.5285797119141
0, 7, 104, 174.9156799316406
0, 7, 105, 196.4584655761719
0, 7, 106, 204.6831817626953
0, 7, 107, 174.6314697265625
0, 7, 108, 176.7137145996094
0, 7, 109, 136.8342590332031
0, 7, 110, 55.14830780029297
0, 7, 111, 8.598978996276855
0, 7, 112, 7.379398345947266
0, 7, 113, 10.83095169067383
0, 7, 114, 7.015263557434082
0, 7, 115, 5.079119682312012
0, 7, 116, 3.91145658493042
0, 7, 117, 2.555493593215942
0, 7, 118, 3.165071487426758
0, 7, 119, 2.925121068954468
0, 7, 120, 4.364461421966553
0, 7, 121, 3.463407278060913
0, 7, 122, 5.313512802124023
0, 7, 123, 2.809346914291382
0, 7, 124, 2.165282487869263
0, 7, 125, 1.920203685760498
0, 7, 126, 4.274337768554688
0, 7, 127, 2.281951427459717
0, 8, 0, 5.512038230895996
0, 8, 1, 1.968496918678284
0, 8, 2, 2.905674934387207
0, 8, 3, 2.219446897506714
0, 8, 4, 1.657082319259644
0, 8, 5, 3.423864364624023
0, 8, 6, 1.478949904441833
0, 8, 7, 3.145743370056152
0, 8, 8, 4.041744232177734
0, 8, 9, 4.487525463104248
0, 8, 10, 2.173313617706299
0, 8, 11, 2.281983852386475
0, 8, 12, 3.251418113708496
0, 8, 13, 5.280908107757568
0, 8, 14, 6.804140090942383
0, 8, 15, 8.24388599395752
0, 8, 16, 21.73313522338867
0, 8, 17, 75.93218231201172
0, 8, 18, 142.4037322998047
0, 8, 19, 178.3531188964844
0, 8, 20, 194.3026275634766
0, 8, 21, 192.4779205322266
0, 8, 22, 179.6198883056641
0, 8, 23, 172.6161956787109
0, 8, 24, 191.2854919433594
0, 8, 25, 186.1035766601562
0, 8, 26, 192.5285186767578
0, 8, 27, 185.5473175048828
0, 8, 28, 187.6119384765625
0, 8, 29, 207.6224822998047
0, 8, 30, 197.4683227539062
0, 8, 31, 181.93994140625
0, 8, 32, 197.7160797119141
0, 8, 33, 207.0562286376953
0, 8, 34, 202.5709686279297
0, 8, 35, 184.4259338378906
0, 8, 36, 181.5398864746094
0, 8, 37, 198.7982330322266
