# TOPAS Version: 3.1.p3
# Parameter File: batch_inserts_198.txt
# Results for scorer Readout_Adipose
# Scored in component: MyBox
# X in 1 bin  of 0.65 cm
# Y in 512 bins of 0.0783984 cm
# Z in 128 bins of 0.078125 cm
# EnergyDeposit ( MeV ) : Sum   
0, 0, 0, 2.00896954536438
0, 0, 1, 3.690342664718628
0, 0, 2, 2.354305267333984
0, 0, 3, 1.317362070083618
0, 0, 4, 2.071455240249634
0, 0, 5, 1.052690863609314
0, 0, 6, 1.021538257598877
0, 0, 7, 3.792981624603271
0, 0, 8, 1.827404618263245
0, 0, 9, 2.584998607635498
0, 0, 10, 2.813829183578491
0, 0, 11, 3.338454246520996
0, 0, 12, 4.311928272247314
0, 0, 13, 2.202950000762939
0, 0, 14, 5.094444751739502
0, 0, 15, 6.292148590087891
0, 0, 16, 3.955904722213745
0, 0, 17, 7.38065242767334
0, 0, 18, 6.739660263061523
0, 0, 19, 24.83481025695801
0, 0, 20, 94.79385375976562
0, 0, 21, 151.8931121826172
0, 0, 22, 154.3292999267578
0, 0, 23, 144.265869140625
0, 0, 24, 161.5985717773438
0, 0, 25, 165.9592590332031
0, 0, 26, 166.9375915527344
0, 0, 27, 175.3359222412109
0, 0, 28, 177.9996032714844
0, 0, 29, 174.6703643798828
0, 0, 30, 172.0544128417969
0, 0, 31, 166.7922058105469
0, 0, 32, 164.1519622802734
0, 0, 33, 167.0456085205078
0, 0, 34, 176.8338623046875
0, 0, 35, 174.7021026611328
0, 0, 36, 159.7547454833984
0, 0, 37, 161.6482696533203
0, 0, 38, 167.5894622802734
0, 0, 39, 158.9407653808594
0, 0, 40, 165.3858947753906
0, 0, 41, 165.4961547851562
0, 0, 42, 144.0595550537109
0, 0, 43, 168.8255615234375
0, 0, 44, 177.8372039794922
0, 0, 45, 173.5718383789062
0, 0, 46, 166.0464935302734
0, 0, 47, 167.1071472167969
0, 0, 48, 169.1151733398438
0, 0, 49, 183.1847534179688
0, 0, 50, 169.3491363525391
0, 0, 51, 162.5010833740234
0, 0, 52, 163.4021301269531
0, 0, 53, 171.7238311767578
0, 0, 54, 160.7693786621094
0, 0, 55, 166.2814331054688
0, 0, 56, 190.0875854492188
0, 0, 57, 170.4032287597656
0, 0, 58, 160.6902770996094
0, 0, 59, 172.0266876220703
0, 0, 60, 169.3132934570312
0, 0, 61, 170.4141693115234
0, 0, 62, 184.0559692382812
0, 0, 63, 167.1062774658203
0, 0, 64, 165.0856018066406
0, 0, 65, 176.3157196044922
0, 0, 66, 177.7841796875
0, 0, 67, 163.9492797851562
0, 0, 68, 158.6571044921875
0, 0, 69, 158.2591705322266
0, 0, 70, 170.2978668212891
0, 0, 71, 158.7312622070312
0, 0, 72, 162.4467315673828
0, 0, 73, 171.5818481445312
0, 0, 74, 163.1482086181641
0, 0, 75, 163.0257110595703
0, 0, 76, 163.7686309814453
0, 0, 77, 172.3790740966797
0, 0, 78, 181.2666015625
0, 0, 79, 175.0610961914062
0, 0, 80, 160.1419982910156
0, 0, 81, 160.091552734375
0, 0, 82, 182.3109283447266
0, 0, 83, 174.6343078613281
0, 0, 84, 159.5684356689453
0, 0, 85, 181.1099243164062
0, 0, 86, 158.8812408447266
0, 0, 87, 176.6456909179688
0, 0, 88, 177.7265625
0, 0, 89, 177.4927368164062
0, 0, 90, 161.3283538818359
0, 0, 91, 186.2222442626953
0, 0, 92, 164.8699798583984
0, 0, 93, 158.3089599609375
0, 0, 94, 169.0102233886719
0, 0, 95, 175.0881042480469
0, 0, 96, 184.0701751708984
0, 0, 97, 183.8208923339844
0, 0, 98, 186.3218231201172
0, 0, 99, 172.1664428710938
0, 0, 100, 157.4998168945312
0, 0, 101, 167.5603942871094
0, 0, 102, 170.9720611572266
0, 0, 103, 170.4652252197266
0, 0, 104, 168.0626678466797
0, 0, 105, 176.9976654052734
0, 0, 106, 158.5303497314453
0, 0, 107, 87.00914764404297
0, 0, 108, 21.82194900512695
0, 0, 109, 9.265218734741211
0, 0, 110, 5.865833759307861
0, 0, 111, 6.358437538146973
0, 0, 112, 3.545592069625854
0, 0, 113, 2.652987003326416
0, 0, 114, 2.838078022003174
0, 0, 115, 3.609226226806641
0, 0, 116, 2.023123264312744
0, 0, 117, 4.355357646942139
0, 0, 118, 2.923295736312866
0, 0, 119, 2.677980422973633
0, 0, 120, 1.684222936630249
0, 0, 121, 3.599591970443726
0, 0, 122, 3.969845294952393
0, 0, 123, 3.478960037231445
0, 0, 124, 1.054294466972351
0, 0, 125, 4.251560211181641
0, 0, 126, 3.142418384552002
0, 0, 127, 1.441919088363647
0, 1, 0, 1.268588423728943
0, 1, 1, 2.968370199203491
0, 1, 2, 4.013163089752197
0, 1, 3, 1.259115815162659
0, 1, 4, 1.348337650299072
0, 1, 5, 1.975839853286743
0, 1, 6, 1.258716464042664
0, 1, 7, 4.468868732452393
0, 1, 8, 2.149633407592773
0, 1, 9, 1.356444001197815
0, 1, 10, 3.077282905578613
0, 1, 11, 4.119843482971191
0, 1, 12, 4.65967845916748
0, 1, 13, 3.713231086730957
0, 1, 14, 5.162993907928467
0, 1, 15, 5.589155673980713
0, 1, 16, 7.897329807281494
0, 1, 17, 5.254805088043213
0, 1, 18, 11.32344913482666
0, 1, 19, 41.52301788330078
0, 1, 20, 125.8719863891602
0, 1, 21, 177.9441833496094
0, 1, 22, 194.6894073486328
0, 1, 23, 185.8697357177734
0, 1, 24, 179.6136932373047
0, 1, 25, 193.8712005615234
0, 1, 26, 197.0797271728516
0, 1, 27, 187.5663909912109
0, 1, 28, 188.3829345703125
0, 1, 29, 184.2104644775391
0, 1, 30, 180.5558319091797
0, 1, 31, 181.9354858398438
0, 1, 32, 188.1631317138672
0, 1, 33, 191.8335113525391
0, 1, 34, 184.644287109375
0, 1, 35, 193.8611297607422
0, 1, 36, 206.4701080322266
0, 1, 37, 184.4185180664062
0, 1, 38, 165.1524963378906
0, 1, 39, 171.3408813476562
0, 1, 40, 178.6615905761719
0, 1, 41, 185.1208190917969
0, 1, 42, 184.0792999267578
0, 1, 43, 186.5545043945312
0, 1, 44, 167.7643432617188
0, 1, 45, 187.7886047363281
0, 1, 46, 170.2819366455078
0, 1, 47, 185.0982360839844
0, 1, 48, 186.5335540771484
0, 1, 49, 186.0694885253906
0, 1, 50, 178.1132354736328
0, 1, 51, 191.7071075439453
0, 1, 52, 196.4853057861328
0, 1, 53, 195.5319213867188
0, 1, 54, 185.1428833007812
0, 1, 55, 165.0425109863281
0, 1, 56, 178.7056274414062
0, 1, 57, 177.5741424560547
0, 1, 58, 188.6483764648438
0, 1, 59, 194.2583160400391
0, 1, 60, 187.78125
0, 1, 61, 177.4514312744141
0, 1, 62, 205.0253601074219
0, 1, 63, 174.6304779052734
0, 1, 64, 174.7950134277344
0, 1, 65, 184.6435852050781
0, 1, 66, 204.0705108642578
0, 1, 67, 182.0592803955078
0, 1, 68, 186.6413726806641
0, 1, 69, 188.2351989746094
0, 1, 70, 185.4647369384766
0, 1, 71, 171.3099975585938
0, 1, 72, 187.8098449707031
0, 1, 73, 191.2787475585938
0, 1, 74, 201.0550537109375
0, 1, 75, 183.6697387695312
0, 1, 76, 173.7937469482422
0, 1, 77, 193.0701293945312
0, 1, 78, 187.6727294921875
0, 1, 79, 201.8040618896484
0, 1, 80, 186.2489776611328
0, 1, 81, 175.6166076660156
0, 1, 82, 208.0790405273438
0, 1, 83, 212.6405639648438
0, 1, 84, 180.2323913574219
0, 1, 85, 169.7242431640625
0, 1, 86, 167.5127105712891
0, 1, 87, 184.7874298095703
0, 1, 88, 174.8237609863281
0, 1, 89, 188.2400665283203
0, 1, 90, 212.9002075195312
0, 1, 91, 181.8444213867188
0, 1, 92, 185.1919250488281
0, 1, 93, 180.8201751708984
0, 1, 94, 186.3167266845703
0, 1, 95, 182.5021667480469
0, 1, 96, 195.8713226318359
0, 1, 97, 182.9042053222656
0, 1, 98, 186.7530212402344
0, 1, 99, 175.2574005126953
0, 1, 100, 171.1491851806641
0, 1, 101, 177.8013916015625
0, 1, 102, 182.2620697021484
0, 1, 103, 173.0548858642578
0, 1, 104, 190.3840484619141
0, 1, 105, 184.5804595947266
0, 1, 106, 163.9680023193359
0, 1, 107, 123.868278503418
0, 1, 108, 46.42090606689453
0, 1, 109, 11.08127498626709
0, 1, 110, 8.126585006713867
0, 1, 111, 7.33449125289917
0, 1, 112, 7.144117832183838
0, 1, 113, 6.815709590911865
0, 1, 114, 5.892914772033691
0, 1, 115, 3.360017538070679
0, 1, 116, 2.991453170776367
0, 1, 117, 2.429852247238159
0, 1, 118, 4.21125316619873
0, 1, 119, 1.224743604660034
0, 1, 120, 3.315181732177734
0, 1, 121, 4.437912940979004
0, 1, 122, 1.598058819770813
0, 1, 123, 3.363838672637939
0, 1, 124, 3.098807334899902
0, 1, 125, 3.373218536376953
0, 1, 126, 2.444181680679321
0, 1, 127, 2.756254196166992
0, 2, 0, 2.565607309341431
0, 2, 1, 2.098181486129761
0, 2, 2, 2.649073600769043
0, 2, 3, 1.70929753780365
0, 2, 4, 1.116229176521301
0, 2, 5, 1.454242467880249
0, 2, 6, 3.361356496810913
0, 2, 7, 1.975324273109436
0, 2, 8, 0.493579238653183
0, 2, 9, 2.742377996444702
0, 2, 10, 6.090093612670898
0, 2, 11, 4.113059520721436
0, 2, 12, 3.511617422103882
0, 2, 13, 3.398860692977905
0, 2, 14, 4.455460071563721
0, 2, 15, 5.618187427520752
0, 2, 16, 4.395464420318604
0, 2, 17, 8.996383666992188
0, 2, 18, 15.55606365203857
0, 2, 19, 77.01707458496094
0, 2, 20, 160.0605773925781
0, 2, 21, 185.4432830810547
0, 2, 22, 194.9647827148438
0, 2, 23, 184.9562377929688
0, 2, 24, 173.4606781005859
0, 2, 25, 183.8811950683594
0, 2, 26, 179.2924652099609
0, 2, 27, 191.0853881835938
0, 2, 28, 170.7994384765625
0, 2, 29, 170.2144012451172
0, 2, 30, 186.7475280761719
0, 2, 31, 182.5756683349609
0, 2, 32, 184.4355773925781
0, 2, 33, 190.1116638183594
0, 2, 34, 196.6634063720703
0, 2, 35, 181.3303680419922
0, 2, 36, 186.9141387939453
0, 2, 37, 180.5814361572266
0, 2, 38, 184.2547454833984
0, 2, 39, 167.5767059326172
0, 2, 40, 184.9374847412109
0, 2, 41, 184.33349609375
0, 2, 42, 189.8615112304688
0, 2, 43, 193.4514007568359
0, 2, 44, 192.2891998291016
0, 2, 45, 190.3990783691406
0, 2, 46, 195.8317413330078
0, 2, 47, 189.4956207275391
0, 2, 48, 179.2285003662109
0, 2, 49, 198.2648620605469
0, 2, 50, 168.2321624755859
0, 2, 51, 186.4009857177734
0, 2, 52, 185.8534088134766
0, 2, 53, 194.8341369628906
0, 2, 54, 175.3115692138672
0, 2, 55, 173.0229187011719
0, 2, 56, 182.1358642578125
0, 2, 57, 199.5195770263672
0, 2, 58, 186.0647888183594
0, 2, 59, 189.5536193847656
0, 2, 60, 196.5145263671875
0, 2, 61, 193.3396453857422
0, 2, 62, 189.4601898193359
0, 2, 63, 169.0350952148438
0, 2, 64, 189.9119110107422
0, 2, 65, 202.1920166015625
0, 2, 66, 195.9025573730469
0, 2, 67, 184.4246063232422
0, 2, 68, 183.9897766113281
0, 2, 69, 187.2257690429688
0, 2, 70, 202.9286651611328
0, 2, 71, 174.9471282958984
0, 2, 72, 187.2858428955078
0, 2, 73, 177.2935943603516
0, 2, 74, 180.8882446289062
0, 2, 75, 195.9913940429688
0, 2, 76, 184.4312286376953
0, 2, 77, 178.6401824951172
0, 2, 78, 197.7193298339844
0, 2, 79, 177.6231994628906
0, 2, 80, 187.1187591552734
0, 2, 81, 187.8409271240234
0, 2, 82, 205.6938018798828
0, 2, 83, 203.7332153320312
0, 2, 84, 188.7288360595703
0, 2, 85, 170.1378784179688
0, 2, 86, 196.7995452880859
0, 2, 87, 171.5946044921875
0, 2, 88, 177.5943603515625
0, 2, 89, 185.5314788818359
0, 2, 90, 178.3028717041016
0, 2, 91, 175.1311950683594
0, 2, 92, 197.7350158691406
0, 2, 93, 195.0247497558594
0, 2, 94, 200.5238952636719
0, 2, 95, 193.898681640625
0, 2, 96, 187.2439575195312
0, 2, 97, 171.2717437744141
0, 2, 98, 173.0305938720703
0, 2, 99, 162.1247711181641
0, 2, 100, 188.1126861572266
0, 2, 101, 196.0883483886719
0, 2, 102, 176.283935546875
0, 2, 103, 200.0783538818359
0, 2, 104, 186.9474639892578
0, 2, 105, 200.4478302001953
0, 2, 106, 194.4099426269531
0, 2, 107, 149.6216888427734
0, 2, 108, 81.51409912109375
0, 2, 109, 19.33857345581055
0, 2, 110, 8.791106224060059
0, 2, 111, 5.670586109161377
0, 2, 112, 4.032700061798096
0, 2, 113, 4.224212646484375
0, 2, 114, 5.901464462280273
0, 2, 115, 4.151479721069336
0, 2, 116, 3.027754545211792
0, 2, 117, 4.572840690612793
0, 2, 118, 3.879099369049072
0, 2, 119, 2.791064500808716
0, 2, 120, 1.611137866973877
0, 2, 121, 4.179797172546387
0, 2, 122, 2.643409729003906
0, 2, 123, 3.754289627075195
0, 2, 124, 3.233737230300903
0, 2, 125, 1.908182144165039
0, 2, 126, 3.00645112991333
0, 2, 127, 0.4561325013637543
0, 3, 0, 1.215647459030151
0, 3, 1, 1.326824069023132
0, 3, 2, 1.285161852836609
0, 3, 3, 2.916681528091431
0, 3, 4, 4.691473960876465
0, 3, 5, 3.415042400360107
0, 3, 6, 0.7648919224739075
0, 3, 7, 1.409462094306946
0, 3, 8, 2.266626358032227
0, 3, 9, 1.455056548118591
0, 3, 10, 1.758499264717102
0, 3, 11, 3.717926263809204
0, 3, 12, 3.986335515975952
0, 3, 13, 3.494339942932129
0, 3, 14, 3.83007287979126
0, 3, 15, 7.259928226470947
0, 3, 16, 6.565550804138184
0, 3, 17, 6.971744537353516
0, 3, 18, 31.86837387084961
0, 3, 19, 116.2126159667969
0, 3, 20, 182.6231842041016
0, 3, 21, 173.7635650634766
0, 3, 22, 178.4857635498047
0, 3, 23, 188.544677734375
0, 3, 24, 177.3869781494141
0, 3, 25, 168.621826171875
0, 3, 26, 180.6649780273438
0, 3, 27, 189.2329406738281
0, 3, 28, 183.7548522949219
0, 3, 29, 197.1422424316406
0, 3, 30, 185.0724945068359
0, 3, 31, 193.5532684326172
0, 3, 32, 210.1776428222656
0, 3, 33, 196.9381408691406
0, 3, 34, 186.7036895751953
0, 3, 35, 175.0583038330078
0, 3, 36, 186.3722076416016
0, 3, 37, 199.8151702880859
0, 3, 38, 192.1023254394531
0, 3, 39, 184.5784759521484
0, 3, 40, 165.3103179931641
0, 3, 41, 174.2812347412109
0, 3, 42, 185.1050872802734
0, 3, 43, 181.7001342773438
0, 3, 44, 202.3440856933594
0, 3, 45, 207.7247467041016
0, 3, 46, 198.3787536621094
0, 3, 47, 195.3908538818359
0, 3, 48, 194.835205078125
0, 3, 49, 180.431640625
0, 3, 50, 186.7831726074219
0, 3, 51, 175.234130859375
0, 3, 52, 187.3856506347656
0, 3, 53, 178.6451263427734
0, 3, 54, 178.9494934082031
0, 3, 55, 177.3724670410156
0, 3, 56, 182.5209808349609
0, 3, 57, 175.8428192138672
0, 3, 58, 201.4010009765625
0, 3, 59, 195.3339080810547
0, 3, 60, 185.6339721679688
0, 3, 61, 181.5326843261719
0, 3, 62, 183.1598052978516
0, 3, 63, 183.3026580810547
0, 3, 64, 189.9160461425781
0, 3, 65, 187.0254211425781
0, 3, 66, 175.4652862548828
0, 3, 67, 189.4842071533203
0, 3, 68, 212.8516387939453
0, 3, 69, 189.5297698974609
0, 3, 70, 184.9865112304688
0, 3, 71, 196.5741119384766
0, 3, 72, 186.2470092773438
0, 3, 73, 187.2989807128906
0, 3, 74, 192.0709075927734
0, 3, 75, 192.3595581054688
0, 3, 76, 190.4736480712891
0, 3, 77, 196.7908630371094
0, 3, 78, 188.1410217285156
0, 3, 79, 186.8421020507812
0, 3, 80, 192.3904266357422
0, 3, 81, 183.213134765625
0, 3, 82, 179.4732666015625
0, 3, 83, 194.7167053222656
0, 3, 84, 198.95703125
0, 3, 85, 191.3088684082031
0, 3, 86, 203.6042327880859
0, 3, 87, 197.3970642089844
0, 3, 88, 191.6242828369141
0, 3, 89, 193.5696563720703
0, 3, 90, 173.424072265625
0, 3, 91, 156.1798553466797
0, 3, 92, 206.6882629394531
0, 3, 93, 197.1447601318359
0, 3, 94, 193.4533081054688
0, 3, 95, 211.6287994384766
0, 3, 96, 210.2292633056641
0, 3, 97, 168.1575622558594
0, 3, 98, 168.0084075927734
0, 3, 99, 179.6952362060547
0, 3, 100, 176.7314758300781
0, 3, 101, 197.7992858886719
0, 3, 102, 194.5830993652344
0, 3, 103, 192.387939453125
0, 3, 104, 202.4847259521484
0, 3, 105, 176.637939453125
0, 3, 106, 182.0167541503906
0, 3, 107, 170.3401336669922
0, 3, 108, 108.9226684570312
0, 3, 109, 27.0100154876709
0, 3, 110, 7.326674461364746
0, 3, 111, 6.490139961242676
0, 3, 112, 4.533383846282959
0, 3, 113, 7.923088073730469
0, 3, 114, 5.476484775543213
0, 3, 115, 4.960005283355713
0, 3, 116, 5.034985065460205
0, 3, 117, 4.693403244018555
0, 3, 118, 2.744816780090332
0, 3, 119, 3.139504194259644
0, 3, 120, 3.932647228240967
0, 3, 121, 1.640895366668701
0, 3, 122, 4.82139253616333
0, 3, 123, 1.285311579704285
0, 3, 124, 1.904316544532776
0, 3, 125, 1.548678159713745
0, 3, 126, 1.340533852577209
0, 3, 127, 0.8307507038116455
0, 4, 0, 1.368245482444763
0, 4, 1, 2.329973936080933
0, 4, 2, 2.703872442245483
0, 4, 3, 4.426291942596436
0, 4, 4, 1.969590425491333
0, 4, 5, 0.9548567533493042
0, 4, 6, 2.632195949554443
0, 4, 7, 2.36359715461731
0, 4, 8, 1.674277663230896
0, 4, 9, 3.194317817687988
0, 4, 10, 3.106280088424683
0, 4, 11, 3.474438667297363
0, 4, 12, 3.782489061355591
0, 4, 13, 4.718445301055908
0, 4, 14, 3.770992517471313
0, 4, 15, 9.255453109741211
0, 4, 16, 7.132900238037109
0, 4, 17, 11.52049922943115
0, 4, 18, 54.79427719116211
0, 4, 19, 150.4174346923828
0, 4, 20, 193.9305267333984
0, 4, 21, 172.0803375244141
0, 4, 22, 187.2885894775391
0, 4, 23, 195.763916015625
0, 4, 24, 192.7329864501953
0, 4, 25, 199.2283630371094
0, 4, 26, 183.5575256347656
0, 4, 27, 190.5585632324219
0, 4, 28, 179.1639251708984
0, 4, 29, 205.5018157958984
0, 4, 30, 195.6850280761719
0, 4, 31, 192.8395233154297
0, 4, 32, 209.673828125
0, 4, 33, 190.6225738525391
0, 4, 34, 192.3655548095703
0, 4, 35, 212.8531036376953
0, 4, 36, 193.5207672119141
0, 4, 37, 177.9361877441406
0, 4, 38, 193.8972778320312
0, 4, 39, 189.359130859375
0, 4, 40, 186.0425415039062
0, 4, 41, 189.4017791748047
0, 4, 42, 207.1483917236328
0, 4, 43, 174.4585723876953
0, 4, 44, 183.6467132568359
0, 4, 45, 195.9055786132812
0, 4, 46, 185.90234375
0, 4, 47, 179.2461853027344
0, 4, 48, 185.7044219970703
0, 4, 49, 174.5595855712891
0, 4, 50, 185.5232238769531
0, 4, 51, 197.5700073242188
0, 4, 52, 222.7143402099609
0, 4, 53, 207.597412109375
0, 4, 54, 189.3976440429688
0, 4, 55, 174.7156677246094
0, 4, 56, 190.9400634765625
0, 4, 57, 192.9713287353516
0, 4, 58, 187.4316711425781
0, 4, 59, 189.0480804443359
0, 4, 60, 195.4315032958984
0, 4, 61, 193.0720520019531
0, 4, 62, 191.6797790527344
0, 4, 63, 178.7842559814453
0, 4, 64, 216.6225891113281
0, 4, 65, 191.0489959716797
0, 4, 66, 201.6702728271484
0, 4, 67, 201.8986053466797
0, 4, 68, 200.9510498046875
0, 4, 69, 200.2619171142578
0, 4, 70, 205.9915161132812
0, 4, 71, 206.5355377197266
0, 4, 72, 215.2205505371094
0, 4, 73, 184.9529876708984
0, 4, 74, 180.2127685546875
0, 4, 75, 185.6781005859375
0, 4, 76, 190.0514068603516
0, 4, 77, 185.4070739746094
0, 4, 78, 194.7335968017578
0, 4, 79, 205.5701446533203
0, 4, 80, 211.2811889648438
0, 4, 81, 198.7422485351562
0, 4, 82, 181.770751953125
0, 4, 83, 171.250732421875
0, 4, 84, 194.3586730957031
0, 4, 85, 197.6468200683594
0, 4, 86, 180.9271697998047
0, 4, 87, 184.3506317138672
0, 4, 88, 203.9456634521484
0, 4, 89, 187.156005859375
0, 4, 90, 212.2198028564453
0, 4, 91, 189.1888732910156
0, 4, 92, 196.4920501708984
0, 4, 93, 196.0340881347656
0, 4, 94, 181.3653411865234
0, 4, 95, 174.093505859375
0, 4, 96, 190.7422943115234
0, 4, 97, 192.8429718017578
0, 4, 98, 200.9807434082031
0, 4, 99, 184.0561676025391
0, 4, 100, 182.5466461181641
0, 4, 101, 177.2705841064453
0, 4, 102, 174.0321044921875
0, 4, 103, 185.0753173828125
0, 4, 104, 210.5821380615234
0, 4, 105, 189.6713714599609
0, 4, 106, 179.0618743896484
0, 4, 107, 181.5086822509766
0, 4, 108, 151.923095703125
0, 4, 109, 49.0990104675293
0, 4, 110, 11.2558765411377
0, 4, 111, 8.024372100830078
0, 4, 112, 7.124094486236572
0, 4, 113, 5.1873459815979
0, 4, 114, 4.978762626647949
0, 4, 115, 3.220215320587158
0, 4, 116, 5.397096633911133
0, 4, 117, 3.860260725021362
0, 4, 118, 4.30009126663208
0, 4, 119, 2.955480813980103
0, 4, 120, 4.820757865905762
0, 4, 121, 1.507698774337769
0, 4, 122, 1.895520806312561
0, 4, 123, 1.245015144348145
0, 4, 124, 3.429087400436401
0, 4, 125, 2.22358250617981
0, 4, 126, 1.627608180046082
0, 4, 127, 2.306524515151978
0, 5, 0, 1.230058789253235
0, 5, 1, 2.925395727157593
0, 5, 2, 5.799672603607178
0, 5, 3, 4.835475921630859
0, 5, 4, 3.302311420440674
0, 5, 5, 1.779218435287476
0, 5, 6, 2.455169677734375
0, 5, 7, 2.878638029098511
0, 5, 8, 1.90919554233551
0, 5, 9, 2.316457271575928
0, 5, 10, 3.152553558349609
0, 5, 11, 5.039238929748535
0, 5, 12, 2.711718559265137
0, 5, 13, 3.534323453903198
0, 5, 14, 5.086115837097168
0, 5, 15, 9.628569602966309
0, 5, 16, 8.346109390258789
0, 5, 17, 20.94884872436523
0, 5, 18, 82.5833740234375
0, 5, 19, 163.955322265625
0, 5, 20, 182.7539672851562
0, 5, 21, 177.6612091064453
0, 5, 22, 169.7933349609375
0, 5, 23, 200.3370666503906
0, 5, 24, 187.4870147705078
0, 5, 25, 207.0551300048828
0, 5, 26, 182.7622833251953
0, 5, 27, 194.9099884033203
0, 5, 28, 188.673583984375
0, 5, 29, 195.2717742919922
0, 5, 30, 177.4346618652344
0, 5, 31, 179.5202789306641
0, 5, 32, 187.1869964599609
0, 5, 33, 168.6718444824219
0, 5, 34, 194.7385101318359
0, 5, 35, 198.1646270751953
0, 5, 36, 168.9822387695312
0, 5, 37, 196.5941314697266
0, 5, 38, 181.7555084228516
0, 5, 39, 186.9306793212891
0, 5, 40, 197.0076904296875
0, 5, 41, 176.5190124511719
0, 5, 42, 188.3690490722656
0, 5, 43, 193.4297485351562
0, 5, 44, 199.8172760009766
0, 5, 45, 185.8040161132812
0, 5, 46, 193.7878875732422
0, 5, 47, 179.6708068847656
0, 5, 48, 177.7290344238281
0, 5, 49, 179.7373046875
0, 5, 50, 186.3219451904297
0, 5, 51, 173.0766754150391
0, 5, 52, 167.811279296875
0, 5, 53, 182.4553070068359
0, 5, 54, 172.3335266113281
0, 5, 55, 215.5723724365234
0, 5, 56, 181.3817291259766
0, 5, 57, 206.7429046630859
0, 5, 58, 181.3060607910156
0, 5, 59, 181.1158752441406
0, 5, 60, 218.7993469238281
0, 5, 61, 185.6915740966797
0, 5, 62, 178.9966430664062
0, 5, 63, 180.3836669921875
0, 5, 64, 194.1895141601562
0, 5, 65, 210.0108489990234
0, 5, 66, 192.0130157470703
0, 5, 67, 199.1912536621094
0, 5, 68, 188.4959259033203
0, 5, 69, 186.5255432128906
0, 5, 70, 184.9872589111328
0, 5, 71, 193.6204071044922
0, 5, 72, 198.5340423583984
0, 5, 73, 201.1437530517578
0, 5, 74, 180.6109008789062
0, 5, 75, 203.2133026123047
0, 5, 76, 214.8893737792969
0, 5, 77, 182.6713562011719
0, 5, 78, 194.7380981445312
0, 5, 79, 190.1533966064453
0, 5, 80, 198.0267639160156
0, 5, 81, 204.6297760009766
0, 5, 82, 201.2838439941406
0, 5, 83, 187.9186859130859
0, 5, 84, 205.5261840820312
0, 5, 85, 177.4170989990234
0, 5, 86, 194.9017028808594
0, 5, 87, 188.416259765625
0, 5, 88, 177.2467803955078
0, 5, 89, 194.6629028320312
0, 5, 90, 199.1544036865234
0, 5, 91, 194.4994659423828
0, 5, 92, 190.7381286621094
0, 5, 93, 191.5359954833984
0, 5, 94, 207.1477661132812
0, 5, 95, 177.5247802734375
0, 5, 96, 181.6388549804688
0, 5, 97, 191.3507995605469
0, 5, 98, 188.6254577636719
0, 5, 99, 196.442138671875
0, 5, 100, 185.2991943359375
0, 5, 101, 196.2902221679688
0, 5, 102, 181.1449432373047
0, 5, 103, 175.7596740722656
0, 5, 104, 189.8997192382812
0, 5, 105, 189.3959808349609
0, 5, 106, 178.6826019287109
0, 5, 107, 181.6249389648438
0, 5, 108, 175.6621551513672
0, 5, 109, 91.50847625732422
0, 5, 110, 30.35838317871094
0, 5, 111, 9.936385154724121
0, 5, 112, 7.533234596252441
0, 5, 113, 7.146662712097168
0, 5, 114, 7.020712852478027
0, 5, 115, 7.921698570251465
0, 5, 116, 3.521981716156006
0, 5, 117, 2.785051107406616
0, 5, 118, 4.577789783477783
0, 5, 119, 3.437969207763672
0, 5, 120, 1.538923144340515
0, 5, 121, 0.9048659801483154
0, 5, 122, 3.677396059036255
0, 5, 123, 4.509942054748535
0, 5, 124, 3.375869750976562
0, 5, 125, 1.278620481491089
0, 5, 126, 2.478341579437256
0, 5, 127, 1.87214732170105
0, 6, 0, 3.783971548080444
0, 6, 1, 4.89590311050415
0, 6, 2, 3.712435483932495
0, 6, 3, 1.721831440925598
0, 6, 4, 2.690785884857178
0, 6, 5, 3.429262399673462
0, 6, 6, 3.918951511383057
0, 6, 7, 4.011715888977051
0, 6, 8, 6.238508701324463
0, 6, 9, 3.929200887680054
0, 6, 10, 4.947991371154785
0, 6, 11, 4.394439697265625
0, 6, 12, 4.072157859802246
0, 6, 13, 5.052118301391602
0, 6, 14, 5.514039039611816
0, 6, 15, 6.417023658752441
0, 6, 16, 12.91512680053711
0, 6, 17, 28.219970703125
0, 6, 18, 113.7795867919922
0, 6, 19, 191.0294952392578
0, 6, 20, 195.6613464355469
0, 6, 21, 198.4972991943359
0, 6, 22, 190.5614013671875
0, 6, 23, 190.9243774414062
0, 6, 24, 200.8700408935547
0, 6, 25, 181.9290313720703
0, 6, 26, 187.2728576660156
0, 6, 27, 191.8707733154297
0, 6, 28, 188.7142486572266
0, 6, 29, 210.7243804931641
0, 6, 30, 189.7186126708984
0, 6, 31, 192.7503204345703
0, 6, 32, 206.0159606933594
0, 6, 33, 183.447509765625
0, 6, 34, 196.9478759765625
0, 6, 35, 187.2505798339844
0, 6, 36, 181.4735107421875
0, 6, 37, 183.6153411865234
0, 6, 38, 185.0429992675781
0, 6, 39, 194.9078369140625
0, 6, 40, 176.4498443603516
0, 6, 41, 185.9458618164062
0, 6, 42, 175.1059722900391
0, 6, 43, 209.2773895263672
0, 6, 44, 209.0859222412109
0, 6, 45, 193.7050018310547
0, 6, 46, 188.5912017822266
0, 6, 47, 204.3254547119141
0, 6, 48, 189.7746734619141
0, 6, 49, 179.2662200927734
0, 6, 50, 182.7227172851562
0, 6, 51, 196.9857482910156
0, 6, 52, 197.2723846435547
0, 6, 53, 184.9932250976562
0, 6, 54, 174.8059997558594
0, 6, 55, 194.8104553222656
0, 6, 56, 202.5981597900391
0, 6, 57, 191.2006530761719
0, 6, 58, 178.4646759033203
0, 6, 59, 191.802734375
0, 6, 60, 185.0523986816406
0, 6, 61, 193.5633697509766
0, 6, 62, 196.7691955566406
0, 6, 63, 186.4927978515625
0, 6, 64, 168.4398651123047
0, 6, 65, 188.0265350341797
0, 6, 66, 197.5133514404297
0, 6, 67, 213.9070281982422
0, 6, 68, 181.6268768310547
0, 6, 69, 170.7003631591797
0, 6, 70, 187.3293762207031
0, 6, 71, 170.6521759033203
0, 6, 72, 175.9565734863281
0, 6, 73, 176.2200469970703
0, 6, 74, 210.4335632324219
0, 6, 75, 226.9740295410156
0, 6, 76, 184.1183166503906
0, 6, 77, 172.8232116699219
0, 6, 78, 175.5998687744141
0, 6, 79, 185.9703979492188
0, 6, 80, 187.0421905517578
0, 6, 81, 208.7098541259766
0, 6, 82, 195.00634765625
0, 6, 83, 195.3406982421875
0, 6, 84, 197.7970428466797
0, 6, 85, 180.4110260009766
0, 6, 86, 204.1867065429688
0, 6, 87, 182.8451080322266
0, 6, 88, 191.2853240966797
0, 6, 89, 189.1036224365234
0, 6, 90, 205.2098999023438
0, 6, 91, 199.9570159912109
0, 6, 92, 173.2317504882812
0, 6, 93, 192.6844024658203
0, 6, 94, 191.0068206787109
0, 6, 95, 186.9438018798828
0, 6, 96, 189.1662902832031
0, 6, 97, 193.0543518066406
0, 6, 98, 182.5856018066406
0, 6, 99, 174.3990173339844
0, 6, 100, 201.9784698486328
0, 6, 101, 168.4389038085938
0, 6, 102, 201.5611419677734
0, 6, 103, 196.9735717773438
0, 6, 104, 183.2242126464844
0, 6, 105, 193.9051055908203
0, 6, 106, 177.6152191162109
0, 6, 107, 194.9584503173828
0, 6, 108, 172.6905670166016
0, 6, 109, 115.452018737793
0, 6, 110, 34.22895050048828
0, 6, 111, 9.231802940368652
0, 6, 112, 8.345363616943359
0, 6, 113, 4.849692344665527
0, 6, 114, 6.756304264068604
0, 6, 115, 5.760521411895752
0, 6, 116, 4.421841144561768
0, 6, 117, 5.911641120910645
0, 6, 118, 3.862399339675903
0, 6, 119, 3.702034950256348
0, 6, 120, 2.486955642700195
0, 6, 121, 6.958041667938232
0, 6, 122, 3.945979118347168
0, 6, 123, 3.790548801422119
0, 6, 124, 2.882442712783813
0, 6, 125, 4.451261043548584
0, 6, 126, 1.508164644241333
0, 6, 127, 1.772791981697083
0, 7, 0, 2.821377038955688
0, 7, 1, 2.467226982116699
0, 7, 2, 2.445639371871948
0, 7, 3, 2.477256774902344
0, 7, 4, 1.056596755981445
0, 7, 5, 1.383456110954285
0, 7, 6, 2.303565979003906
0, 7, 7, 1.069042682647705
0, 7, 8, 3.88175368309021
0, 7, 9, 3.167736768722534
0, 7, 10, 5.001002311706543
0, 7, 11, 2.680605173110962
0, 7, 12, 3.772154092788696
0, 7, 13, 7.134767055511475
0, 7, 14, 6.466849803924561
0, 7, 15, 7.611231803894043
0, 7, 16, 14.9782829284668
0, 7, 17, 52.0596809387207
0, 7, 18, 162.3136138916016
0, 7, 19, 183.9880828857422
0, 7, 20, 178.6181335449219
0, 7, 21, 180.1792602539062
0, 7, 22, 191.1553802490234
0, 7, 23, 201.8430786132812
0, 7, 24, 177.7574157714844
0, 7, 25, 212.8910980224609
0, 7, 26, 188.887939453125
0, 7, 27, 182.3769226074219
0, 7, 28, 183.8122406005859
0, 7, 29, 208.3965148925781
0, 7, 30, 193.0343475341797
0, 7, 31, 177.2209625244141
0, 7, 32, 190.7414703369141
0, 7, 33, 183.2819366455078
0, 7, 34, 192.9371185302734
0, 7, 35, 200.1376800537109
0, 7, 36, 187.6554412841797
0, 7, 37, 212.9921722412109
0, 7, 38, 190.9774475097656
0, 7, 39, 174.9935760498047
0, 7, 40, 183.0066223144531
0, 7, 41, 185.5199584960938
0, 7, 42, 177.8948364257812
0, 7, 43, 177.4751586914062
0, 7, 44, 178.8657836914062
0, 7, 45, 175.4144134521484
0, 7, 46, 187.4589385986328
0, 7, 47, 197.4115905761719
0, 7, 48, 186.5855560302734
0, 7, 49, 198.6839294433594
0, 7, 50, 187.775634765625
0, 7, 51, 204.9264678955078
0, 7, 52, 203.712646484375
0, 7, 53, 191.0179595947266
0, 7, 54, 195.16455078125
0, 7, 55, 203.3781280517578
0, 7, 56, 183.4188842773438
0, 7, 57, 184.0733032226562
0, 7, 58, 193.449951171875
0, 7, 59, 186.7766418457031
0, 7, 60, 202.0193634033203
0, 7, 61, 172.7240600585938
0, 7, 62, 203.1799163818359
0, 7, 63, 188.8593292236328
0, 7, 64, 198.9178009033203
0, 7, 65, 195.9758605957031
0, 7, 66, 205.7869110107422
0, 7, 67, 221.8590850830078
0, 7, 68, 163.6525726318359
0, 7, 69, 195.0555877685547
0, 7, 70, 218.2782440185547
0, 7, 71, 183.7736968994141
0, 7, 72, 181.1799926757812
0, 7, 73, 176.9188385009766
0, 7, 74, 207.9347229003906
0, 7, 75, 205.1694488525391
0, 7, 76, 214.1522979736328
0, 7, 77, 174.6369476318359
0, 7, 78, 176.7366180419922
0, 7, 79, 193.5771636962891
0, 7, 80, 195.405517578125
0, 7, 81, 215.6028442382812
0, 7, 82, 185.9170989990234
0, 7, 83, 204.8767547607422
0, 7, 84, 192.6424713134766
0, 7, 85, 187.6425170898438
0, 7, 86, 201.7670593261719
0, 7, 87, 224.5445556640625
0, 7, 88, 195.3039703369141
0, 7, 89, 179.0608978271484
0, 7, 90, 182.3121795654297
0, 7, 91, 194.0646209716797
0, 7, 92, 193.3739013671875
0, 7, 93, 198.0354309082031
0, 7, 94, 176.0767669677734
0, 7, 95, 197.6544952392578
0, 7, 96, 209.042724609375
0, 7, 97, 188.7588958740234
0, 7, 98, 176.0052795410156
0, 7, 99, 196.5293731689453
0, 7, 100, 182.2030944824219
0, 7, 101, 199.6912689208984
0, 7, 102, 185.4912414550781
0, 7, 103, 180.4396820068359
0, 7, 104, 175.1395111083984
0, 7, 105, 195.6909790039062
0, 7, 106, 204.9137573242188
0, 7, 107, 175.1450500488281
0, 7, 108, 177.5930023193359
0, 7, 109, 136.4069671630859
0, 7, 110, 53.7172737121582
0, 7, 111, 8.615196228027344
0, 7, 112, 7.871480464935303
0, 7, 113, 9.041040420532227
0, 7, 114, 7.04496955871582
0, 7, 115, 5.157164096832275
0, 7, 116, 5.436641216278076
0, 7, 117, 2.501845598220825
0, 7, 118, 5.584097385406494
0, 7, 119, 4.079834938049316
0, 7, 120, 5.474744319915771
0, 7, 121, 3.0119788646698
0, 7, 122, 3.159278154373169
0, 7, 123, 1.171369314193726
0, 7, 124, 2.42826247215271
0, 7, 125, 2.949990749359131
0, 7, 126, 3.080173254013062
0, 7, 127, 0.7996053695678711
0, 8, 0, 3.778053760528564
0, 8, 1, 2.101700782775879
0, 8, 2, 3.545184135437012
0, 8, 3, 2.569804906845093
0, 8, 4, 1.26528537273407
0, 8, 5, 2.717435121536255
0, 8, 6, 1.204185605049133
0, 8, 7, 2.712417364120483
0, 8, 8, 2.97039532661438
0, 8, 9, 5.08263111114502
0, 8, 10, 2.694203853607178
0, 8, 11, 2.363951683044434
0, 8, 12, 3.101489543914795
0, 8, 13, 6.158892154693604
0, 8, 14, 5.973137855529785
0, 8, 15, 8.956843376159668
0, 8, 16, 21.21568489074707
0, 8, 17, 75.16189575195312
0, 8, 18, 142.412353515625
0, 8, 19, 179.3752593994141
0, 8, 20, 191.9159545898438
0, 8, 21, 192.1000671386719
0, 8, 22, 180.3677368164062
0, 8, 23, 174.9193267822266
0, 8, 24, 192.4240112304688
0, 8, 25, 185.5532989501953
0, 8, 26, 193.4004669189453
0, 8, 27, 187.395751953125
0, 8, 28, 186.7207489013672
0, 8, 29, 207.3493041992188
0, 8, 30, 197.2156066894531
0, 8, 31, 182.9531402587891
0, 8, 32, 199.1002960205078
0, 8, 33, 206.4662475585938
0, 8, 34, 202.685546875
0, 8, 35, 185.6365509033203
0, 8, 36, 181.6918487548828
0, 8, 37, 198.820068359375
