# TOPAS Version: 3.1.p3
# Parameter File: batch_inserts_308.txt
# Results for scorer Readout_Adipose
# Scored in component: MyBox
# X in 1 bin  of 0.65 cm
# Y in 512 bins of 0.0783984 cm
# Z in 128 bins of 0.078125 cm
# EnergyDeposit ( MeV ) : Sum   
0, 0, 0, 1.54880702495575
0, 0, 1, 3.915910720825195
0, 0, 2, 1.421916842460632
0, 0, 3, 0.5605946779251099
0, 0, 4, 1.620449662208557
0, 0, 5, 1.228640079498291
0, 0, 6, 1.660427689552307
0, 0, 7, 2.636309146881104
0, 0, 8, 1.65065598487854
0, 0, 9, 2.286739349365234
0, 0, 10, 1.807659864425659
0, 0, 11, 2.878026723861694
0, 0, 12, 4.502103328704834
0, 0, 13, 3.133601427078247
0, 0, 14, 5.196147441864014
0, 0, 15, 5.763730049133301
0, 0, 16, 5.217771053314209
0, 0, 17, 6.436011791229248
0, 0, 18, 5.686069965362549
0, 0, 19, 24.23595809936523
0, 0, 20, 94.38884735107422
0, 0, 21, 154.3774566650391
0, 0, 22, 153.8217620849609
0, 0, 23, 144.3191375732422
0, 0, 24, 159.4415435791016
0, 0, 25, 166.2167510986328
0, 0, 26, 166.862060546875
0, 0, 27, 174.5163116455078
0, 0, 28, 177.2204284667969
0, 0, 29, 174.6763153076172
0, 0, 30, 173.1739501953125
0, 0, 31, 166.1398010253906
0, 0, 32, 164.5877532958984
0, 0, 33, 166.9074249267578
0, 0, 34, 179.1109924316406
0, 0, 35, 173.7556304931641
0, 0, 36, 158.712646484375
0, 0, 37, 161.3784942626953
0, 0, 38, 166.7766265869141
0, 0, 39, 160.3849945068359
0, 0, 40, 164.9170989990234
0, 0, 41, 166.8480987548828
0, 0, 42, 143.5523681640625
0, 0, 43, 167.5144348144531
0, 0, 44, 178.5874481201172
0, 0, 45, 172.4552459716797
0, 0, 46, 166.8901672363281
0, 0, 47, 167.2415008544922
0, 0, 48, 169.513916015625
0, 0, 49, 183.5902709960938
0, 0, 50, 172.1793823242188
0, 0, 51, 161.9594421386719
0, 0, 52, 160.8825073242188
0, 0, 53, 170.8958587646484
0, 0, 54, 159.5250701904297
0, 0, 55, 164.21728515625
0, 0, 56, 188.6756591796875
0, 0, 57, 171.8104705810547
0, 0, 58, 161.3708801269531
0, 0, 59, 172.2006225585938
0, 0, 60, 169.7257690429688
0, 0, 61, 169.3570098876953
0, 0, 62, 183.6632385253906
0, 0, 63, 167.0190887451172
0, 0, 64, 166.0879058837891
0, 0, 65, 176.5197601318359
0, 0, 66, 179.5345611572266
0, 0, 67, 163.5750579833984
0, 0, 68, 158.0243072509766
0, 0, 69, 158.7591857910156
0, 0, 70, 169.2336578369141
0, 0, 71, 158.4923095703125
0, 0, 72, 161.7323303222656
0, 0, 73, 171.8336791992188
0, 0, 74, 162.9133911132812
0, 0, 75, 162.9794158935547
0, 0, 76, 162.9191741943359
0, 0, 77, 172.1695251464844
0, 0, 78, 182.0277709960938
0, 0, 79, 174.3251190185547
0, 0, 80, 159.1126098632812
0, 0, 81, 160.4787445068359
0, 0, 82, 182.9505157470703
0, 0, 83, 174.1784973144531
0, 0, 84, 160.0288238525391
0, 0, 85, 180.7444305419922
0, 0, 86, 158.3075866699219
0, 0, 87, 176.9749298095703
0, 0, 88, 177.3865203857422
0, 0, 89, 176.3688659667969
0, 0, 90, 160.7363433837891
0, 0, 91, 184.30859375
0, 0, 92, 165.1161499023438
0, 0, 93, 159.1028289794922
0, 0, 94, 169.2588958740234
0, 0, 95, 175.8104095458984
0, 0, 96, 182.9932708740234
0, 0, 97, 184.057861328125
0, 0, 98, 186.7154235839844
0, 0, 99, 171.0877990722656
0, 0, 100, 159.4153137207031
0, 0, 101, 166.7942810058594
0, 0, 102, 169.9363403320312
0, 0, 103, 170.1021728515625
0, 0, 104, 169.8596038818359
0, 0, 105, 179.2374725341797
0, 0, 106, 158.4850463867188
0, 0, 107, 86.47037506103516
0, 0, 108, 21.26523971557617
0, 0, 109, 8.980148315429688
0, 0, 110, 6.967878341674805
0, 0, 111, 7.622696399688721
0, 0, 112, 4.252913475036621
0, 0, 113, 2.348708868026733
0, 0, 114, 2.077122926712036
0, 0, 115, 2.75724196434021
0, 0, 116, 3.018543243408203
0, 0, 117, 2.550972938537598
0, 0, 118, 3.081548929214478
0, 0, 119, 2.624083042144775
0, 0, 120, 1.270946621894836
0, 0, 121, 5.092302322387695
0, 0, 122, 4.806538581848145
0, 0, 123, 4.52607536315918
0, 0, 124, 1.239244103431702
0, 0, 125, 3.766548633575439
0, 0, 126, 1.053642630577087
0, 0, 127, 2.104490995407104
0, 1, 0, 1.506325840950012
0, 1, 1, 5.035339832305908
0, 1, 2, 3.088091135025024
0, 1, 3, 1.08469820022583
0, 1, 4, 2.129795789718628
0, 1, 5, 2.372912883758545
0, 1, 6, 1.055186629295349
0, 1, 7, 2.01639723777771
0, 1, 8, 1.934091448783875
0, 1, 9, 2.027541160583496
0, 1, 10, 2.985696077346802
0, 1, 11, 3.555693626403809
0, 1, 12, 3.552666187286377
0, 1, 13, 3.978227853775024
0, 1, 14, 5.845990657806396
0, 1, 15, 6.668976306915283
0, 1, 16, 8.176248550415039
0, 1, 17, 6.057150840759277
0, 1, 18, 12.88646984100342
0, 1, 19, 40.23548889160156
0, 1, 20, 125.9817276000977
0, 1, 21, 179.4944763183594
0, 1, 22, 192.3611755371094
0, 1, 23, 184.5385894775391
0, 1, 24, 180.7570648193359
0, 1, 25, 192.6430511474609
0, 1, 26, 197.9803161621094
0, 1, 27, 185.0349884033203
0, 1, 28, 189.0558624267578
0, 1, 29, 184.0289764404297
0, 1, 30, 179.1158294677734
0, 1, 31, 182.5942687988281
0, 1, 32, 189.1441040039062
0, 1, 33, 189.5928192138672
0, 1, 34, 185.0160217285156
0, 1, 35, 194.1652984619141
0, 1, 36, 206.0205841064453
0, 1, 37, 184.2538604736328
0, 1, 38, 164.5909423828125
0, 1, 39, 171.6369476318359
0, 1, 40, 180.3868255615234
0, 1, 41, 185.1161804199219
0, 1, 42, 182.342529296875
0, 1, 43, 187.0898742675781
0, 1, 44, 167.4018249511719
0, 1, 45, 185.7602844238281
0, 1, 46, 170.5242919921875
0, 1, 47, 185.6829528808594
0, 1, 48, 186.3090515136719
0, 1, 49, 186.1678619384766
0, 1, 50, 177.2130737304688
0, 1, 51, 189.8748321533203
0, 1, 52, 196.5441131591797
0, 1, 53, 195.5630340576172
0, 1, 54, 185.3455505371094
0, 1, 55, 165.0611572265625
0, 1, 56, 178.4563903808594
0, 1, 57, 179.6204528808594
0, 1, 58, 188.0862121582031
0, 1, 59, 195.3279571533203
0, 1, 60, 187.8380584716797
0, 1, 61, 178.4835052490234
0, 1, 62, 205.5509033203125
0, 1, 63, 176.2683715820312
0, 1, 64, 175.99267578125
0, 1, 65, 183.6600189208984
0, 1, 66, 203.6363220214844
0, 1, 67, 183.7613220214844
0, 1, 68, 186.3449859619141
0, 1, 69, 188.9175262451172
0, 1, 70, 185.4464416503906
0, 1, 71, 170.8126068115234
0, 1, 72, 188.2042388916016
0, 1, 73, 190.9127349853516
0, 1, 74, 202.3780975341797
0, 1, 75, 183.5369567871094
0, 1, 76, 174.1554260253906
0, 1, 77, 192.4697418212891
0, 1, 78, 188.5081329345703
0, 1, 79, 202.9461212158203
0, 1, 80, 188.6268768310547
0, 1, 81, 176.4554595947266
0, 1, 82, 206.7076110839844
0, 1, 83, 210.9635467529297
0, 1, 84, 180.0370483398438
0, 1, 85, 170.5406036376953
0, 1, 86, 167.9783020019531
0, 1, 87, 184.7338256835938
0, 1, 88, 175.8413238525391
0, 1, 89, 189.0187835693359
0, 1, 90, 212.5655975341797
0, 1, 91, 183.6563873291016
0, 1, 92, 184.4334259033203
0, 1, 93, 181.9220886230469
0, 1, 94, 185.0034942626953
0, 1, 95, 183.2131042480469
0, 1, 96, 196.7276000976562
0, 1, 97, 183.772705078125
0, 1, 98, 186.2873840332031
0, 1, 99, 175.7727355957031
0, 1, 100, 172.5958251953125
0, 1, 101, 178.0556640625
0, 1, 102, 181.8641357421875
0, 1, 103, 173.9974822998047
0, 1, 104, 191.0842132568359
0, 1, 105, 181.2335205078125
0, 1, 106, 164.3663482666016
0, 1, 107, 122.1283111572266
0, 1, 108, 46.27725982666016
0, 1, 109, 9.682628631591797
0, 1, 110, 8.861372947692871
0, 1, 111, 6.958748817443848
0, 1, 112, 7.564062118530273
0, 1, 113, 7.88702392578125
0, 1, 114, 5.718146324157715
0, 1, 115, 2.777646780014038
0, 1, 116, 3.082356691360474
0, 1, 117, 2.13162899017334
0, 1, 118, 3.419060707092285
0, 1, 119, 2.304728746414185
0, 1, 120, 3.637456178665161
0, 1, 121, 4.209909439086914
0, 1, 122, 1.921614646911621
0, 1, 123, 2.487345933914185
0, 1, 124, 3.314369440078735
0, 1, 125, 2.736537933349609
0, 1, 126, 1.758409380912781
0, 1, 127, 2.153048753738403
0, 2, 0, 1.730667948722839
0, 2, 1, 2.220495700836182
0, 2, 2, 3.046921014785767
0, 2, 3, 1.336915135383606
0, 2, 4, 1.716064095497131
0, 2, 5, 0.8380284905433655
0, 2, 6, 2.272767543792725
0, 2, 7, 1.960593461990356
0, 2, 8, 1.544364809989929
0, 2, 9, 3.217829704284668
0, 2, 10, 6.009407997131348
0, 2, 11, 3.523355484008789
0, 2, 12, 3.419689893722534
0, 2, 13, 4.145154476165771
0, 2, 14, 4.550744533538818
0, 2, 15, 5.125287055969238
0, 2, 16, 5.347606658935547
0, 2, 17, 8.807614326477051
0, 2, 18, 14.1795711517334
0, 2, 19, 77.06098175048828
0, 2, 20, 162.5659790039062
0, 2, 21, 183.7341461181641
0, 2, 22, 194.1081695556641
0, 2, 23, 184.2480926513672
0, 2, 24, 173.3465881347656
0, 2, 25, 183.8554382324219
0, 2, 26, 180.8761444091797
0, 2, 27, 189.4090728759766
0, 2, 28, 171.8842315673828
0, 2, 29, 168.6260528564453
0, 2, 30, 184.9462432861328
0, 2, 31, 182.1623840332031
0, 2, 32, 182.4348754882812
0, 2, 33, 192.1963043212891
0, 2, 34, 197.4444122314453
0, 2, 35, 181.9733276367188
0, 2, 36, 186.2403106689453
0, 2, 37, 180.7821807861328
0, 2, 38, 184.7545013427734
0, 2, 39, 165.7168426513672
0, 2, 40, 184.2635192871094
0, 2, 41, 183.5187225341797
0, 2, 42, 189.2198638916016
0, 2, 43, 193.974853515625
0, 2, 44, 191.9042358398438
0, 2, 45, 190.6647644042969
0, 2, 46, 195.4977874755859
0, 2, 47, 188.7008056640625
0, 2, 48, 177.2333221435547
0, 2, 49, 197.6737823486328
0, 2, 50, 168.5158996582031
0, 2, 51, 183.6304016113281
0, 2, 52, 186.0823516845703
0, 2, 53, 195.7855529785156
0, 2, 54, 175.4008636474609
0, 2, 55, 173.1406707763672
0, 2, 56, 181.8064422607422
0, 2, 57, 199.2964172363281
0, 2, 58, 187.4749603271484
0, 2, 59, 189.1618957519531
0, 2, 60, 197.0018005371094
0, 2, 61, 195.1703338623047
0, 2, 62, 190.6297454833984
0, 2, 63, 170.6300354003906
0, 2, 64, 188.8412170410156
0, 2, 65, 203.2526702880859
0, 2, 66, 195.9430084228516
0, 2, 67, 185.1266479492188
0, 2, 68, 182.9218292236328
0, 2, 69, 187.5144653320312
0, 2, 70, 202.9604797363281
0, 2, 71, 174.7546539306641
0, 2, 72, 186.2092437744141
0, 2, 73, 177.1714477539062
0, 2, 74, 180.4974822998047
0, 2, 75, 196.0582733154297
0, 2, 76, 185.1124420166016
0, 2, 77, 179.34716796875
0, 2, 78, 198.1563110351562
0, 2, 79, 178.0706634521484
0, 2, 80, 185.2993011474609
0, 2, 81, 186.8330688476562
0, 2, 82, 204.6661224365234
0, 2, 83, 203.3616027832031
0, 2, 84, 187.9176940917969
0, 2, 85, 169.7699127197266
0, 2, 86, 194.8569793701172
0, 2, 87, 171.9832000732422
0, 2, 88, 178.3297424316406
0, 2, 89, 184.5136566162109
0, 2, 90, 177.2161865234375
0, 2, 91, 175.4872131347656
0, 2, 92, 196.7268829345703
0, 2, 93, 191.6278228759766
0, 2, 94, 199.2797241210938
0, 2, 95, 192.2894287109375
0, 2, 96, 189.4489440917969
0, 2, 97, 171.5952911376953
0, 2, 98, 173.3705596923828
0, 2, 99, 163.3282928466797
0, 2, 100, 187.8558959960938
0, 2, 101, 196.3593292236328
0, 2, 102, 176.3368225097656
0, 2, 103, 200.4050140380859
0, 2, 104, 187.3121337890625
0, 2, 105, 199.7310180664062
0, 2, 106, 194.8873596191406
0, 2, 107, 150.3610229492188
0, 2, 108, 78.68399810791016
0, 2, 109, 17.73702621459961
0, 2, 110, 8.936851501464844
0, 2, 111, 5.323131561279297
0, 2, 112, 4.970953941345215
0, 2, 113, 4.254504680633545
0, 2, 114, 6.535860061645508
0, 2, 115, 5.531610488891602
0, 2, 116, 1.011394023895264
0, 2, 117, 2.868917226791382
0, 2, 118, 2.168417453765869
0, 2, 119, 2.71226978302002
0, 2, 120, 2.106956005096436
0, 2, 121, 4.286490917205811
0, 2, 122, 1.134719610214233
0, 2, 123, 2.409699678421021
0, 2, 124, 2.617768526077271
0, 2, 125, 1.651693105697632
0, 2, 126, 2.468428373336792
0, 2, 127, 0.1870568096637726
0, 3, 0, 1.390759944915771
0, 3, 1, 1.19361686706543
0, 3, 2, 1.344193696975708
0, 3, 3, 2.467164278030396
0, 3, 4, 4.992373943328857
0, 3, 5, 1.24365496635437
0, 3, 6, 2.054606437683105
0, 3, 7, 1.999729752540588
0, 3, 8, 2.026062488555908
0, 3, 9, 1.905521869659424
0, 3, 10, 1.693891167640686
0, 3, 11, 4.285951614379883
0, 3, 12, 3.286302328109741
0, 3, 13, 5.841378688812256
0, 3, 14, 3.834832429885864
0, 3, 15, 8.056407928466797
0, 3, 16, 6.768172740936279
0, 3, 17, 7.726515769958496
0, 3, 18, 32.8549919128418
0, 3, 19, 115.7829360961914
0, 3, 20, 180.4400329589844
0, 3, 21, 172.6937713623047
0, 3, 22, 177.7429504394531
0, 3, 23, 188.3764038085938
0, 3, 24, 177.7625732421875
0, 3, 25, 169.0152740478516
0, 3, 26, 181.0107879638672
0, 3, 27, 191.1468353271484
0, 3, 28, 182.7881164550781
0, 3, 29, 196.9331207275391
0, 3, 30, 185.1633148193359
0, 3, 31, 194.5609741210938
0, 3, 32, 206.7522735595703
0, 3, 33, 196.1411285400391
0, 3, 34, 186.4820861816406
0, 3, 35, 173.4882202148438
0, 3, 36, 185.7256317138672
0, 3, 37, 200.1001434326172
0, 3, 38, 192.0680847167969
0, 3, 39, 184.6627349853516
0, 3, 40, 166.1932678222656
0, 3, 41, 174.0178527832031
0, 3, 42, 185.1803741455078
0, 3, 43, 181.1935729980469
0, 3, 44, 202.6279602050781
0, 3, 45, 208.6893310546875
0, 3, 46, 198.9331359863281
0, 3, 47, 194.7005157470703
0, 3, 48, 195.2317047119141
0, 3, 49, 179.7969512939453
0, 3, 50, 185.8260498046875
0, 3, 51, 174.6111755371094
0, 3, 52, 187.6443939208984
0, 3, 53, 179.3737030029297
0, 3, 54, 178.0345611572266
0, 3, 55, 176.3529815673828
0, 3, 56, 181.7269134521484
0, 3, 57, 175.0753021240234
0, 3, 58, 201.7543029785156
0, 3, 59, 197.0272827148438
0, 3, 60, 186.3537445068359
0, 3, 61, 181.2278289794922
0, 3, 62, 182.7176513671875
0, 3, 63, 183.3874969482422
0, 3, 64, 187.6752471923828
0, 3, 65, 188.0010681152344
0, 3, 66, 175.3736572265625
0, 3, 67, 190.018310546875
0, 3, 68, 213.2051696777344
0, 3, 69, 189.6181793212891
0, 3, 70, 184.9933166503906
0, 3, 71, 196.3410339355469
0, 3, 72, 185.9095458984375
0, 3, 73, 185.6487884521484
0, 3, 74, 193.8046264648438
0, 3, 75, 193.7183837890625
0, 3, 76, 191.9409332275391
0, 3, 77, 196.8005828857422
0, 3, 78, 188.3143615722656
0, 3, 79, 185.8679504394531
0, 3, 80, 190.1413726806641
0, 3, 81, 183.0246429443359
0, 3, 82, 180.1328277587891
0, 3, 83, 194.8985443115234
0, 3, 84, 199.0469970703125
0, 3, 85, 191.8257904052734
0, 3, 86, 203.9640197753906
0, 3, 87, 199.0310211181641
0, 3, 88, 191.3435211181641
0, 3, 89, 194.1579132080078
0, 3, 90, 173.8984375
0, 3, 91, 158.6282196044922
0, 3, 92, 206.6284484863281
0, 3, 93, 195.8893890380859
0, 3, 94, 193.1214752197266
0, 3, 95, 212.5920562744141
0, 3, 96, 209.7429504394531
0, 3, 97, 167.45166015625
0, 3, 98, 167.8748626708984
0, 3, 99, 179.4989471435547
0, 3, 100, 176.1306457519531
0, 3, 101, 198.7626953125
0, 3, 102, 194.8581695556641
0, 3, 103, 193.9131469726562
0, 3, 104, 201.8102569580078
0, 3, 105, 174.420166015625
0, 3, 106, 182.6593322753906
0, 3, 107, 169.2531127929688
0, 3, 108, 107.7354049682617
0, 3, 109, 29.16881561279297
0, 3, 110, 7.838267803192139
0, 3, 111, 6.859897136688232
0, 3, 112, 3.081717252731323
0, 3, 113, 6.152573108673096
0, 3, 114, 4.717329502105713
0, 3, 115, 4.776836395263672
0, 3, 116, 6.292530536651611
0, 3, 117, 4.025200843811035
0, 3, 118, 1.848240375518799
0, 3, 119, 2.262383937835693
0, 3, 120, 5.810351371765137
0, 3, 121, 2.83475136756897
0, 3, 122, 2.807697772979736
0, 3, 123, 2.555754661560059
0, 3, 124, 1.36291491985321
0, 3, 125, 1.395012021064758
0, 3, 126, 1.166116833686829
0, 3, 127, 1.052152156829834
0, 4, 0, 0.8800828456878662
0, 4, 1, 1.15373158454895
0, 4, 2, 3.192434072494507
0, 4, 3, 3.794437408447266
0, 4, 4, 3.805202722549438
0, 4, 5, 0.8426127433776855
0, 4, 6, 2.493890047073364
0, 4, 7, 2.741369962692261
0, 4, 8, 1.365057349205017
0, 4, 9, 2.884949445724487
0, 4, 10, 2.237181901931763
0, 4, 11, 3.652400493621826
0, 4, 12, 3.922042846679688
0, 4, 13, 4.391122817993164
0, 4, 14, 6.553834915161133
0, 4, 15, 8.884916305541992
0, 4, 16, 5.837889194488525
0, 4, 17, 12.13111877441406
0, 4, 18, 53.17004013061523
0, 4, 19, 151.9856414794922
0, 4, 20, 192.4725646972656
0, 4, 21, 169.3979187011719
0, 4, 22, 187.4391326904297
0, 4, 23, 195.6170349121094
0, 4, 24, 193.3501129150391
0, 4, 25, 201.3900909423828
0, 4, 26, 183.7320251464844
0, 4, 27, 190.9953308105469
0, 4, 28, 178.2456207275391
0, 4, 29, 205.4291839599609
0, 4, 30, 195.4465637207031
0, 4, 31, 192.4910888671875
0, 4, 32, 209.6341400146484
0, 4, 33, 190.6000061035156
0, 4, 34, 193.6741638183594
0, 4, 35, 213.8490905761719
0, 4, 36, 192.5430297851562
0, 4, 37, 177.3676605224609
0, 4, 38, 196.2815093994141
0, 4, 39, 189.2294921875
0, 4, 40, 185.8774871826172
0, 4, 41, 189.3624114990234
0, 4, 42, 205.8429565429688
0, 4, 43, 173.3296813964844
0, 4, 44, 183.4019775390625
0, 4, 45, 196.9292755126953
0, 4, 46, 185.8564605712891
0, 4, 47, 180.1417236328125
0, 4, 48, 185.6150360107422
0, 4, 49, 175.0868682861328
0, 4, 50, 186.2831878662109
0, 4, 51, 196.6824645996094
0, 4, 52, 223.8684234619141
0, 4, 53, 205.8797302246094
0, 4, 54, 190.6501770019531
0, 4, 55, 174.7529907226562
0, 4, 56, 191.1853485107422
0, 4, 57, 190.7467041015625
0, 4, 58, 187.2450866699219
0, 4, 59, 189.326416015625
0, 4, 60, 196.8282623291016
0, 4, 61, 194.9983367919922
0, 4, 62, 190.0383453369141
0, 4, 63, 179.2108001708984
0, 4, 64, 211.0707397460938
0, 4, 65, 190.9220581054688
0, 4, 66, 200.5827331542969
0, 4, 67, 200.6372680664062
0, 4, 68, 202.6959381103516
0, 4, 69, 198.1528015136719
0, 4, 70, 204.4668884277344
0, 4, 71, 206.2450103759766
0, 4, 72, 217.0196075439453
0, 4, 73, 187.8343200683594
0, 4, 74, 179.4997100830078
0, 4, 75, 184.2207183837891
0, 4, 76, 189.9022521972656
0, 4, 77, 184.0116271972656
0, 4, 78, 195.3118743896484
0, 4, 79, 205.6277770996094
0, 4, 80, 211.2190399169922
0, 4, 81, 198.4706115722656
0, 4, 82, 184.0230865478516
0, 4, 83, 170.0231475830078
0, 4, 84, 194.0296936035156
0, 4, 85, 195.0851287841797
0, 4, 86, 183.9952087402344
0, 4, 87, 183.4214172363281
0, 4, 88, 204.7950744628906
0, 4, 89, 188.7781066894531
0, 4, 90, 211.1947937011719
0, 4, 91, 189.0748596191406
0, 4, 92, 195.6604461669922
0, 4, 93, 195.7918090820312
0, 4, 94, 182.8623809814453
0, 4, 95, 173.8737945556641
0, 4, 96, 190.3033599853516
0, 4, 97, 193.6843109130859
0, 4, 98, 200.5916900634766
0, 4, 99, 184.3959655761719
0, 4, 100, 183.2524719238281
0, 4, 101, 177.0377044677734
0, 4, 102, 173.5251312255859
0, 4, 103, 184.9047241210938
0, 4, 104, 209.3600158691406
0, 4, 105, 189.5373687744141
0, 4, 106, 178.6791381835938
0, 4, 107, 181.1590423583984
0, 4, 108, 151.6464538574219
0, 4, 109, 49.77882385253906
0, 4, 110, 10.9690637588501
0, 4, 111, 10.25227928161621
0, 4, 112, 6.760060787200928
0, 4, 113, 7.540307998657227
0, 4, 114, 5.26521635055542
0, 4, 115, 3.300278902053833
0, 4, 116, 5.36780309677124
0, 4, 117, 3.216330766677856
0, 4, 118, 3.287540435791016
0, 4, 119, 3.450102090835571
0, 4, 120, 2.10869026184082
0, 4, 121, 1.612226605415344
0, 4, 122, 3.899101972579956
0, 4, 123, 1.916038751602173
0, 4, 124, 3.644002199172974
0, 4, 125, 2.331778049468994
0, 4, 126, 1.77106249332428
0, 4, 127, 2.85137152671814
0, 5, 0, 1.856064796447754
0, 5, 1, 4.355735301971436
0, 5, 2, 5.395068645477295
0, 5, 3, 3.176352262496948
0, 5, 4, 3.190121173858643
0, 5, 5, 2.373171329498291
0, 5, 6, 2.743827104568481
0, 5, 7, 2.494894742965698
0, 5, 8, 1.62229859828949
0, 5, 9, 2.280538320541382
0, 5, 10, 3.97791600227356
0, 5, 11, 3.009102344512939
0, 5, 12, 4.262401103973389
0, 5, 13, 3.69093918800354
0, 5, 14, 5.806555271148682
0, 5, 15, 8.538216590881348
0, 5, 16, 7.81368350982666
0, 5, 17, 21.63739585876465
0, 5, 18, 83.43378448486328
0, 5, 19, 163.4428405761719
0, 5, 20, 182.7789001464844
0, 5, 21, 177.9823760986328
0, 5, 22, 171.2243041992188
0, 5, 23, 200.5658874511719
0, 5, 24, 187.1800384521484
0, 5, 25, 207.4245758056641
0, 5, 26, 182.6280212402344
0, 5, 27, 196.2460327148438
0, 5, 28, 189.5991363525391
0, 5, 29, 195.3050079345703
0, 5, 30, 177.6895294189453
0, 5, 31, 180.95947265625
0, 5, 32, 187.4040069580078
0, 5, 33, 169.8365783691406
0, 5, 34, 195.5902862548828
0, 5, 35, 196.8719329833984
0, 5, 36, 169.1042022705078
0, 5, 37, 197.273681640625
0, 5, 38, 182.1686553955078
0, 5, 39, 187.3695678710938
0, 5, 40, 196.1613311767578
0, 5, 41, 177.5308685302734
0, 5, 42, 189.0684356689453
0, 5, 43, 194.30029296875
0, 5, 44, 199.3034515380859
0, 5, 45, 185.7037658691406
0, 5, 46, 192.8951873779297
0, 5, 47, 180.5416564941406
0, 5, 48, 182.9365692138672
0, 5, 49, 176.6713104248047
0, 5, 50, 185.9039001464844
0, 5, 51, 172.1110076904297
0, 5, 52, 167.4159851074219
0, 5, 53, 181.7531280517578
0, 5, 54, 174.4582366943359
0, 5, 55, 215.9890441894531
0, 5, 56, 181.564208984375
0, 5, 57, 208.9983520507812
0, 5, 58, 182.2918395996094
0, 5, 59, 180.6329498291016
0, 5, 60, 217.5935516357422
0, 5, 61, 184.6709442138672
0, 5, 62, 178.2677154541016
0, 5, 63, 180.9230651855469
0, 5, 64, 193.7314453125
0, 5, 65, 209.0341033935547
0, 5, 66, 192.7580413818359
0, 5, 67, 200.3455200195312
0, 5, 68, 185.2542114257812
0, 5, 69, 186.3817443847656
0, 5, 70, 184.178955078125
0, 5, 71, 195.8887329101562
0, 5, 72, 200.109130859375
0, 5, 73, 201.7268829345703
0, 5, 74, 182.3559722900391
0, 5, 75, 203.5277252197266
0, 5, 76, 213.95458984375
0, 5, 77, 181.3113098144531
0, 5, 78, 194.0282745361328
0, 5, 79, 189.7693328857422
0, 5, 80, 198.4253540039062
0, 5, 81, 203.2327423095703
0, 5, 82, 201.7316284179688
0, 5, 83, 189.0699768066406
0, 5, 84, 205.7801818847656
0, 5, 85, 178.4818725585938
0, 5, 86, 195.6280975341797
0, 5, 87, 188.3755340576172
0, 5, 88, 177.4848175048828
0, 5, 89, 194.288818359375
0, 5, 90, 199.0040130615234
0, 5, 91, 194.2668914794922
0, 5, 92, 191.2117462158203
0, 5, 93, 189.9724884033203
0, 5, 94, 207.7831573486328
0, 5, 95, 176.7771301269531
0, 5, 96, 181.4478454589844
0, 5, 97, 191.0291900634766
0, 5, 98, 189.0834655761719
0, 5, 99, 194.7406768798828
0, 5, 100, 185.0080261230469
0, 5, 101, 196.1838836669922
0, 5, 102, 183.5349731445312
0, 5, 103, 177.5386505126953
0, 5, 104, 190.2828674316406
0, 5, 105, 189.4954833984375
0, 5, 106, 177.2057037353516
0, 5, 107, 181.2375335693359
0, 5, 108, 175.1246032714844
0, 5, 109, 87.97564697265625
0, 5, 110, 29.95806694030762
0, 5, 111, 8.253442764282227
0, 5, 112, 6.312725067138672
0, 5, 113, 8.247343063354492
0, 5, 114, 7.084813594818115
0, 5, 115, 6.941241264343262
0, 5, 116, 3.312381505966187
0, 5, 117, 2.25564169883728
0, 5, 118, 4.110024452209473
0, 5, 119, 3.670361518859863
0, 5, 120, 1.546587347984314
0, 5, 121, 1.354682922363281
0, 5, 122, 2.890628099441528
0, 5, 123, 4.508405208587646
0, 5, 124, 2.481902122497559
0, 5, 125, 0.7283918857574463
0, 5, 126, 2.285907983779907
0, 5, 127, 2.707330226898193
0, 6, 0, 3.436825513839722
0, 6, 1, 2.598740577697754
0, 6, 2, 2.493521213531494
0, 6, 3, 1.397388696670532
0, 6, 4, 3.518041610717773
0, 6, 5, 2.461321830749512
0, 6, 6, 2.363492012023926
0, 6, 7, 3.73380446434021
0, 6, 8, 4.212926387786865
0, 6, 9, 2.625312805175781
0, 6, 10, 3.950626373291016
0, 6, 11, 4.559141635894775
0, 6, 12, 6.163093090057373
0, 6, 13, 5.1341872215271
0, 6, 14, 5.776463031768799
0, 6, 15, 6.507581233978271
0, 6, 16, 12.48235893249512
0, 6, 17, 29.37826347351074
0, 6, 18, 112.0138320922852
0, 6, 19, 190.9082794189453
0, 6, 20, 195.1974945068359
0, 6, 21, 198.0380859375
0, 6, 22, 190.4307403564453
0, 6, 23, 190.1651611328125
0, 6, 24, 200.7627716064453
0, 6, 25, 180.9742889404297
0, 6, 26, 187.1549987792969
0, 6, 27, 194.2756958007812
0, 6, 28, 188.8613586425781
0, 6, 29, 211.5953979492188
0, 6, 30, 189.8821411132812
0, 6, 31, 193.1570739746094
0, 6, 32, 206.2588043212891
0, 6, 33, 187.8707427978516
0, 6, 34, 199.9212493896484
0, 6, 35, 188.7550048828125
0, 6, 36, 180.4522552490234
0, 6, 37, 182.5122528076172
0, 6, 38, 185.3181610107422
0, 6, 39, 194.6619415283203
0, 6, 40, 173.6419067382812
0, 6, 41, 184.8186187744141
0, 6, 42, 174.5954284667969
0, 6, 43, 211.8750457763672
0, 6, 44, 209.4747619628906
0, 6, 45, 194.6235198974609
0, 6, 46, 187.4215240478516
0, 6, 47, 203.8920288085938
0, 6, 48, 189.7635650634766
0, 6, 49, 181.5665740966797
0, 6, 50, 182.5106964111328
0, 6, 51, 195.9907379150391
0, 6, 52, 197.6693878173828
0, 6, 53, 184.3228302001953
0, 6, 54, 175.2198028564453
0, 6, 55, 194.2290496826172
0, 6, 56, 202.4659423828125
0, 6, 57, 191.2388458251953
0, 6, 58, 180.3446960449219
0, 6, 59, 192.7395324707031
0, 6, 60, 184.6274108886719
0, 6, 61, 194.059814453125
0, 6, 62, 196.6602783203125
0, 6, 63, 186.4708862304688
0, 6, 64, 168.6152191162109
0, 6, 65, 185.76708984375
0, 6, 66, 197.7656860351562
0, 6, 67, 214.0495147705078
0, 6, 68, 180.6383361816406
0, 6, 69, 172.3723602294922
0, 6, 70, 187.9653625488281
0, 6, 71, 170.3959808349609
0, 6, 72, 176.6152801513672
0, 6, 73, 176.3950958251953
0, 6, 74, 209.5383148193359
0, 6, 75, 227.6716461181641
0, 6, 76, 183.8831329345703
0, 6, 77, 173.1141204833984
0, 6, 78, 175.0867156982422
0, 6, 79, 186.675048828125
0, 6, 80, 187.21630859375
0, 6, 81, 210.0525054931641
0, 6, 82, 198.4409332275391
0, 6, 83, 194.8076629638672
0, 6, 84, 197.8084106445312
0, 6, 85, 180.4508514404297
0, 6, 86, 201.4134368896484
0, 6, 87, 182.6915893554688
0, 6, 88, 191.8923645019531
0, 6, 89, 188.0153961181641
0, 6, 90, 205.6276245117188
0, 6, 91, 199.4777679443359
0, 6, 92, 172.5097351074219
0, 6, 93, 191.1996459960938
0, 6, 94, 189.1900024414062
0, 6, 95, 184.9965057373047
0, 6, 96, 188.4143218994141
0, 6, 97, 195.9902954101562
0, 6, 98, 185.1274871826172
0, 6, 99, 175.5712585449219
0, 6, 100, 202.8468475341797
0, 6, 101, 169.746337890625
0, 6, 102, 204.1007995605469
0, 6, 103, 196.0716857910156
0, 6, 104, 184.1940460205078
0, 6, 105, 193.0488739013672
0, 6, 106, 177.4561462402344
0, 6, 107, 195.2934112548828
0, 6, 108, 172.885986328125
0, 6, 109, 116.1087265014648
0, 6, 110, 35.40813827514648
0, 6, 111, 8.753793716430664
0, 6, 112, 9.59372615814209
0, 6, 113, 7.165880680084229
0, 6, 114, 4.396742343902588
0, 6, 115, 4.688498497009277
0, 6, 116, 3.95246148109436
0, 6, 117, 4.458639621734619
0, 6, 118, 3.613449335098267
0, 6, 119, 3.453367471694946
0, 6, 120, 4.17300271987915
0, 6, 121, 5.097410202026367
0, 6, 122, 1.867905378341675
0, 6, 123, 2.21764063835144
0, 6, 124, 2.082293510437012
0, 6, 125, 2.320067405700684
0, 6, 126, 1.445736408233643
0, 6, 127, 2.651846885681152
0, 7, 0, 3.033297777175903
0, 7, 1, 1.697133660316467
0, 7, 2, 1.876241683959961
0, 7, 3, 4.299624919891357
0, 7, 4, 3.314432859420776
0, 7, 5, 1.258215427398682
0, 7, 6, 3.407709836959839
0, 7, 7, 1.436334490776062
0, 7, 8, 4.574267864227295
0, 7, 9, 3.640987634658813
0, 7, 10, 6.510171413421631
0, 7, 11, 2.921363115310669
0, 7, 12, 3.404374837875366
0, 7, 13, 6.130846977233887
0, 7, 14, 7.525322914123535
0, 7, 15, 7.03326416015625
0, 7, 16, 16.37504196166992
0, 7, 17, 53.00001907348633
0, 7, 18, 162.5702056884766
0, 7, 19, 183.8958587646484
0, 7, 20, 179.8080444335938
0, 7, 21, 179.3502807617188
0, 7, 22, 191.4061431884766
0, 7, 23, 202.6876831054688
0, 7, 24, 179.7938537597656
0, 7, 25, 215.2689666748047
0, 7, 26, 189.3332214355469
0, 7, 27, 181.584716796875
0, 7, 28, 182.6764221191406
0, 7, 29, 209.1558227539062
0, 7, 30, 192.0442047119141
0, 7, 31, 175.8299560546875
0, 7, 32, 190.5425262451172
0, 7, 33, 179.4658966064453
0, 7, 34, 192.8450469970703
0, 7, 35, 196.5413665771484
0, 7, 36, 186.8558044433594
0, 7, 37, 212.8360900878906
0, 7, 38, 191.4654235839844
0, 7, 39, 174.4374237060547
0, 7, 40, 183.6973114013672
0, 7, 41, 185.0920562744141
0, 7, 42, 177.5196228027344
0, 7, 43, 176.8929138183594
0, 7, 44, 179.3540496826172
0, 7, 45, 173.9523010253906
0, 7, 46, 189.7223815917969
0, 7, 47, 197.9661712646484
0, 7, 48, 186.4125823974609
0, 7, 49, 197.9974822998047
0, 7, 50, 188.1484527587891
0, 7, 51, 205.6405334472656
0, 7, 52, 204.7643737792969
0, 7, 53, 191.1246337890625
0, 7, 54, 196.2353210449219
0, 7, 55, 205.3845672607422
0, 7, 56, 183.2605590820312
0, 7, 57, 182.6092681884766
0, 7, 58, 190.3365936279297
0, 7, 59, 187.0617828369141
0, 7, 60, 203.5201110839844
0, 7, 61, 172.1543273925781
0, 7, 62, 202.5938873291016
0, 7, 63, 189.7116546630859
0, 7, 64, 200.9361724853516
0, 7, 65, 198.4999084472656
0, 7, 66, 207.5956115722656
0, 7, 67, 219.4190521240234
0, 7, 68, 162.4036712646484
0, 7, 69, 193.8335113525391
0, 7, 70, 218.6080322265625
0, 7, 71, 184.9363708496094
0, 7, 72, 180.6441192626953
0, 7, 73, 176.6073608398438
0, 7, 74, 207.6929931640625
0, 7, 75, 204.2103881835938
0, 7, 76, 215.556396484375
0, 7, 77, 174.4459991455078
0, 7, 78, 177.1467132568359
0, 7, 79, 194.4131164550781
0, 7, 80, 195.7987060546875
0, 7, 81, 214.7502136230469
0, 7, 82, 185.9178314208984
0, 7, 83, 204.8190460205078
0, 7, 84, 191.4419097900391
0, 7, 85, 186.7406921386719
0, 7, 86, 199.9466552734375
0, 7, 87, 224.9757995605469
0, 7, 88, 195.7332611083984
0, 7, 89, 179.7380218505859
0, 7, 90, 183.0955352783203
0, 7, 91, 194.7496490478516
0, 7, 92, 193.8564453125
0, 7, 93, 198.7383117675781
0, 7, 94, 178.5304412841797
0, 7, 95, 198.9897308349609
0, 7, 96, 209.4610290527344
0, 7, 97, 190.0964508056641
0, 7, 98, 177.6769866943359
0, 7, 99, 198.3818664550781
0, 7, 100, 183.9406127929688
0, 7, 101, 200.4827880859375
0, 7, 102, 184.8693389892578
0, 7, 103, 183.1574096679688
0, 7, 104, 175.1244659423828
0, 7, 105, 195.8523406982422
0, 7, 106, 205.2509307861328
0, 7, 107, 173.0290374755859
0, 7, 108, 176.9589996337891
0, 7, 109, 136.6145172119141
0, 7, 110, 54.16842269897461
0, 7, 111, 8.651449203491211
0, 7, 112, 7.939748764038086
0, 7, 113, 8.056750297546387
0, 7, 114, 6.558104991912842
0, 7, 115, 5.460624694824219
0, 7, 116, 4.833929538726807
0, 7, 117, 5.083322525024414
0, 7, 118, 3.575422286987305
0, 7, 119, 3.184820890426636
0, 7, 120, 1.887600421905518
0, 7, 121, 5.265223979949951
0, 7, 122, 2.508061408996582
0, 7, 123, 2.624219417572021
0, 7, 124, 1.64924144744873
0, 7, 125, 2.564834356307983
0, 7, 126, 3.438196420669556
0, 7, 127, 3.066741943359375
0, 8, 0, 4.562244892120361
0, 8, 1, 2.621984243392944
0, 8, 2, 2.293865919113159
0, 8, 3, 1.922597169876099
0, 8, 4, 3.102032899856567
0, 8, 5, 3.222914457321167
0, 8, 6, 2.425156116485596
0, 8, 7, 3.165385007858276
0, 8, 8, 4.14878511428833
0, 8, 9, 4.603615283966064
0, 8, 10, 2.776678800582886
0, 8, 11, 2.16696834564209
0, 8, 12, 5.401577949523926
0, 8, 13, 7.382211208343506
0, 8, 14, 8.076735496520996
0, 8, 15, 8.501166343688965
0, 8, 16, 19.52490615844727
0, 8, 17, 74.54153442382812
0, 8, 18, 141.9652557373047
0, 8, 19, 178.7677001953125
0, 8, 20, 194.1810302734375
0, 8, 21, 193.2152404785156
0, 8, 22, 180.2630767822266
0, 8, 23, 172.6200103759766
0, 8, 24, 191.8513336181641
0, 8, 25, 185.1407928466797
0, 8, 26, 192.9119873046875
0, 8, 27, 185.9036712646484
0, 8, 28, 185.5187683105469
0, 8, 29, 207.1946411132812
0, 8, 30, 197.4146728515625
0, 8, 31, 182.0225067138672
0, 8, 32, 197.840087890625
0, 8, 33, 206.8085479736328
0, 8, 34, 202.5820465087891
0, 8, 35, 185.1551513671875
0, 8, 36, 180.9158020019531
