# TOPAS Version: 3.1.p3
# Parameter File: batch_inserts_168.txt
# Results for scorer Readout_Adipose
# Scored in component: MyBox
# X in 1 bin  of 0.65 cm
# Y in 512 bins of 0.0783984 cm
# Z in 128 bins of 0.078125 cm
# EnergyDeposit ( MeV ) : Sum   
0, 0, 0, 2.214139223098755
0, 0, 1, 5.751213073730469
0, 0, 2, 0.8661988377571106
0, 0, 3, 1.259563088417053
0, 0, 4, 2.135117292404175
0, 0, 5, 1.143808841705322
0, 0, 6, 1.033486723899841
0, 0, 7, 1.59304416179657
0, 0, 8, 2.028600931167603
0, 0, 9, 3.425993204116821
0, 0, 10, 2.254982233047485
0, 0, 11, 3.795818567276001
0, 0, 12, 4.245104312896729
0, 0, 13, 2.512044906616211
0, 0, 14, 5.051638603210449
0, 0, 15, 5.433043956756592
0, 0, 16, 4.027551174163818
0, 0, 17, 6.905635833740234
0, 0, 18, 7.340766429901123
0, 0, 19, 23.95316314697266
0, 0, 20, 94.89707946777344
0, 0, 21, 151.8074493408203
0, 0, 22, 152.9769134521484
0, 0, 23, 143.7834625244141
0, 0, 24, 159.3055419921875
0, 0, 25, 167.2732238769531
0, 0, 26, 167.6696319580078
0, 0, 27, 174.1815185546875
0, 0, 28, 178.0008239746094
0, 0, 29, 175.3891296386719
0, 0, 30, 172.5808258056641
0, 0, 31, 166.1271514892578
0, 0, 32, 165.2658081054688
0, 0, 33, 167.5007781982422
0, 0, 34, 178.4013519287109
0, 0, 35, 175.0142211914062
0, 0, 36, 160.246826171875
0, 0, 37, 162.2866058349609
0, 0, 38, 166.4987335205078
0, 0, 39, 159.8637390136719
0, 0, 40, 163.9011383056641
0, 0, 41, 167.1692352294922
0, 0, 42, 143.3586120605469
0, 0, 43, 167.7606201171875
0, 0, 44, 177.2640533447266
0, 0, 45, 173.1982879638672
0, 0, 46, 166.0751495361328
0, 0, 47, 167.3714752197266
0, 0, 48, 169.5508575439453
0, 0, 49, 183.8964233398438
0, 0, 50, 169.0478973388672
0, 0, 51, 161.2772216796875
0, 0, 52, 162.11572265625
0, 0, 53, 172.2384185791016
0, 0, 54, 160.7399444580078
0, 0, 55, 165.6961212158203
0, 0, 56, 189.924560546875
0, 0, 57, 170.6422729492188
0, 0, 58, 161.9982299804688
0, 0, 59, 173.3512268066406
0, 0, 60, 169.3189392089844
0, 0, 61, 171.1514739990234
0, 0, 62, 183.1150665283203
0, 0, 63, 168.0319061279297
0, 0, 64, 163.9168395996094
0, 0, 65, 177.2322845458984
0, 0, 66, 177.5720062255859
0, 0, 67, 164.1548919677734
0, 0, 68, 158.2552490234375
0, 0, 69, 158.6804656982422
0, 0, 70, 169.9606018066406
0, 0, 71, 158.2805023193359
0, 0, 72, 162.2994689941406
0, 0, 73, 173.3685455322266
0, 0, 74, 162.7193603515625
0, 0, 75, 164.0632629394531
0, 0, 76, 164.67919921875
0, 0, 77, 172.3295745849609
0, 0, 78, 182.1965484619141
0, 0, 79, 175.2822113037109
0, 0, 80, 160.5513305664062
0, 0, 81, 159.2795257568359
0, 0, 82, 182.2932281494141
0, 0, 83, 174.8129272460938
0, 0, 84, 160.0494842529297
0, 0, 85, 181.0376892089844
0, 0, 86, 158.8287506103516
0, 0, 87, 176.6852569580078
0, 0, 88, 176.1257019042969
0, 0, 89, 174.7821350097656
0, 0, 90, 161.3997650146484
0, 0, 91, 185.5159454345703
0, 0, 92, 163.7552337646484
0, 0, 93, 157.7103729248047
0, 0, 94, 169.8162078857422
0, 0, 95, 174.5742034912109
0, 0, 96, 183.3475952148438
0, 0, 97, 184.0843658447266
0, 0, 98, 185.3829345703125
0, 0, 99, 173.4541625976562
0, 0, 100, 158.1804351806641
0, 0, 101, 166.4243316650391
0, 0, 102, 171.2659912109375
0, 0, 103, 170.3443145751953
0, 0, 104, 169.3181457519531
0, 0, 105, 177.8890380859375
0, 0, 106, 158.9271850585938
0, 0, 107, 87.56388854980469
0, 0, 108, 20.56942176818848
0, 0, 109, 9.589670181274414
0, 0, 110, 7.171117305755615
0, 0, 111, 6.381568431854248
0, 0, 112, 4.159487247467041
0, 0, 113, 2.739579439163208
0, 0, 114, 2.550915718078613
0, 0, 115, 3.377581834793091
0, 0, 116, 2.874527931213379
0, 0, 117, 2.244810581207275
0, 0, 118, 3.550039052963257
0, 0, 119, 2.235988616943359
0, 0, 120, 2.265682220458984
0, 0, 121, 3.691986799240112
0, 0, 122, 5.57529354095459
0, 0, 123, 4.534116744995117
0, 0, 124, 1.091228723526001
0, 0, 125, 2.486794948577881
0, 0, 126, 2.437980175018311
0, 0, 127, 1.432548642158508
0, 1, 0, 1.578030347824097
0, 1, 1, 3.378310680389404
0, 1, 2, 3.968785285949707
0, 1, 3, 1.086743474006653
0, 1, 4, 1.455741167068481
0, 1, 5, 1.455202579498291
0, 1, 6, 1.580218315124512
0, 1, 7, 2.214715003967285
0, 1, 8, 3.019675254821777
0, 1, 9, 1.799806833267212
0, 1, 10, 2.102641344070435
0, 1, 11, 3.415673732757568
0, 1, 12, 4.597013473510742
0, 1, 13, 2.527711391448975
0, 1, 14, 5.505916118621826
0, 1, 15, 6.504970073699951
0, 1, 16, 7.980880260467529
0, 1, 17, 5.719401359558105
0, 1, 18, 10.7229175567627
0, 1, 19, 39.98666763305664
0, 1, 20, 125.7031555175781
0, 1, 21, 176.8016204833984
0, 1, 22, 192.5312194824219
0, 1, 23, 186.8347625732422
0, 1, 24, 180.0431060791016
0, 1, 25, 190.889404296875
0, 1, 26, 198.1382446289062
0, 1, 27, 187.1760711669922
0, 1, 28, 187.7085723876953
0, 1, 29, 185.0707397460938
0, 1, 30, 179.7664184570312
0, 1, 31, 181.2445373535156
0, 1, 32, 188.0730438232422
0, 1, 33, 189.7106170654297
0, 1, 34, 184.2496185302734
0, 1, 35, 193.8554229736328
0, 1, 36, 205.3039093017578
0, 1, 37, 183.5877227783203
0, 1, 38, 165.5430450439453
0, 1, 39, 171.3271636962891
0, 1, 40, 178.7566528320312
0, 1, 41, 185.076171875
0, 1, 42, 182.9494323730469
0, 1, 43, 185.2871704101562
0, 1, 44, 168.1714782714844
0, 1, 45, 188.0105743408203
0, 1, 46, 171.1429748535156
0, 1, 47, 183.8463439941406
0, 1, 48, 188.3782196044922
0, 1, 49, 186.9027404785156
0, 1, 50, 178.9332122802734
0, 1, 51, 193.3502197265625
0, 1, 52, 195.3878784179688
0, 1, 53, 195.9216461181641
0, 1, 54, 187.1160430908203
0, 1, 55, 167.1495513916016
0, 1, 56, 178.7201843261719
0, 1, 57, 177.6372222900391
0, 1, 58, 188.4994964599609
0, 1, 59, 193.4713897705078
0, 1, 60, 188.1884307861328
0, 1, 61, 176.9960327148438
0, 1, 62, 205.1159057617188
0, 1, 63, 173.4930572509766
0, 1, 64, 172.5526580810547
0, 1, 65, 184.4547271728516
0, 1, 66, 204.3487548828125
0, 1, 67, 183.2453002929688
0, 1, 68, 187.5921783447266
0, 1, 69, 188.2462005615234
0, 1, 70, 186.0411071777344
0, 1, 71, 171.8072204589844
0, 1, 72, 189.7128601074219
0, 1, 73, 190.8578338623047
0, 1, 74, 200.7243041992188
0, 1, 75, 184.9814147949219
0, 1, 76, 174.9212341308594
0, 1, 77, 191.7384338378906
0, 1, 78, 187.6936645507812
0, 1, 79, 201.8412628173828
0, 1, 80, 187.3955230712891
0, 1, 81, 175.0681762695312
0, 1, 82, 207.6716461181641
0, 1, 83, 211.251708984375
0, 1, 84, 180.8030242919922
0, 1, 85, 169.6695098876953
0, 1, 86, 167.6386108398438
0, 1, 87, 184.9928588867188
0, 1, 88, 175.2696075439453
0, 1, 89, 187.8910522460938
0, 1, 90, 212.6641998291016
0, 1, 91, 181.2486877441406
0, 1, 92, 184.5549621582031
0, 1, 93, 180.6403198242188
0, 1, 94, 185.1202697753906
0, 1, 95, 183.7622222900391
0, 1, 96, 196.0322570800781
0, 1, 97, 183.0247497558594
0, 1, 98, 187.0007476806641
0, 1, 99, 175.7824096679688
0, 1, 100, 171.0698852539062
0, 1, 101, 178.1339569091797
0, 1, 102, 182.4633636474609
0, 1, 103, 172.8143463134766
0, 1, 104, 189.2878723144531
0, 1, 105, 182.3456878662109
0, 1, 106, 163.178466796875
0, 1, 107, 123.5895843505859
0, 1, 108, 47.01240158081055
0, 1, 109, 9.749876976013184
0, 1, 110, 7.253509521484375
0, 1, 111, 7.315674304962158
0, 1, 112, 6.771048069000244
0, 1, 113, 6.99821138381958
0, 1, 114, 6.717846870422363
0, 1, 115, 3.226083993911743
0, 1, 116, 3.940577030181885
0, 1, 117, 2.188065767288208
0, 1, 118, 3.408994674682617
0, 1, 119, 2.45548939704895
0, 1, 120, 3.843441963195801
0, 1, 121, 3.661499738693237
0, 1, 122, 1.695740938186646
0, 1, 123, 4.787714958190918
0, 1, 124, 1.884619355201721
0, 1, 125, 2.617794752120972
0, 1, 126, 1.574325442314148
0, 1, 127, 1.960005879402161
0, 2, 0, 1.41606616973877
0, 2, 1, 2.223849534988403
0, 2, 2, 3.009600162506104
0, 2, 3, 1.895897507667542
0, 2, 4, 3.573511838912964
0, 2, 5, 2.120272159576416
0, 2, 6, 5.56735372543335
0, 2, 7, 1.282140135765076
0, 2, 8, 0.8044136166572571
0, 2, 9, 2.268271446228027
0, 2, 10, 4.418558120727539
0, 2, 11, 3.956774711608887
0, 2, 12, 3.568155527114868
0, 2, 13, 5.167140007019043
0, 2, 14, 4.186522006988525
0, 2, 15, 5.5074143409729
0, 2, 16, 5.14880895614624
0, 2, 17, 9.463274955749512
0, 2, 18, 14.27089977264404
0, 2, 19, 76.47963714599609
0, 2, 20, 162.1685028076172
0, 2, 21, 183.114501953125
0, 2, 22, 193.8321075439453
0, 2, 23, 184.4369812011719
0, 2, 24, 174.741455078125
0, 2, 25, 183.4254913330078
0, 2, 26, 179.2571105957031
0, 2, 27, 191.1092224121094
0, 2, 28, 171.4867706298828
0, 2, 29, 169.1551208496094
0, 2, 30, 186.9907379150391
0, 2, 31, 182.5839385986328
0, 2, 32, 183.3771820068359
0, 2, 33, 189.6772155761719
0, 2, 34, 197.3504638671875
0, 2, 35, 183.1585235595703
0, 2, 36, 186.2986602783203
0, 2, 37, 183.2673797607422
0, 2, 38, 184.2179565429688
0, 2, 39, 167.2317199707031
0, 2, 40, 184.4431457519531
0, 2, 41, 184.0052795410156
0, 2, 42, 189.0938568115234
0, 2, 43, 194.462158203125
0, 2, 44, 190.2019958496094
0, 2, 45, 190.0219421386719
0, 2, 46, 196.0727996826172
0, 2, 47, 189.2114562988281
0, 2, 48, 179.2404937744141
0, 2, 49, 198.9541473388672
0, 2, 50, 168.3957366943359
0, 2, 51, 185.531982421875
0, 2, 52, 186.1850433349609
0, 2, 53, 194.9752502441406
0, 2, 54, 176.1996154785156
0, 2, 55, 173.3518218994141
0, 2, 56, 181.5544738769531
0, 2, 57, 200.8144683837891
0, 2, 58, 186.6081085205078
0, 2, 59, 190.2059936523438
0, 2, 60, 196.2111358642578
0, 2, 61, 192.5508880615234
0, 2, 62, 190.2324371337891
0, 2, 63, 169.4881591796875
0, 2, 64, 191.7580108642578
0, 2, 65, 202.7505493164062
0, 2, 66, 195.1466064453125
0, 2, 67, 184.8163909912109
0, 2, 68, 182.1658935546875
0, 2, 69, 186.7389526367188
0, 2, 70, 203.3218994140625
0, 2, 71, 175.6740264892578
0, 2, 72, 186.0814514160156
0, 2, 73, 177.83349609375
0, 2, 74, 181.0892944335938
0, 2, 75, 196.2651214599609
0, 2, 76, 183.5711975097656
0, 2, 77, 177.2431945800781
0, 2, 78, 197.5003051757812
0, 2, 79, 178.7663116455078
0, 2, 80, 186.5088348388672
0, 2, 81, 186.9150695800781
0, 2, 82, 204.7441711425781
0, 2, 83, 203.5758819580078
0, 2, 84, 188.0889434814453
0, 2, 85, 170.6017608642578
0, 2, 86, 195.6165618896484
0, 2, 87, 171.0858154296875
0, 2, 88, 176.6882629394531
0, 2, 89, 185.2917022705078
0, 2, 90, 177.7171020507812
0, 2, 91, 173.7426300048828
0, 2, 92, 197.6459045410156
0, 2, 93, 194.9951629638672
0, 2, 94, 201.930908203125
0, 2, 95, 193.6722869873047
0, 2, 96, 187.0410461425781
0, 2, 97, 172.9327239990234
0, 2, 98, 173.3745574951172
0, 2, 99, 164.138671875
0, 2, 100, 187.5920715332031
0, 2, 101, 196.912109375
0, 2, 102, 176.2421569824219
0, 2, 103, 199.873779296875
0, 2, 104, 187.3289184570312
0, 2, 105, 200.8340454101562
0, 2, 106, 194.4808807373047
0, 2, 107, 149.2888793945312
0, 2, 108, 78.94715118408203
0, 2, 109, 17.46537399291992
0, 2, 110, 8.384215354919434
0, 2, 111, 5.880910873413086
0, 2, 112, 3.412037134170532
0, 2, 113, 4.109040260314941
0, 2, 114, 7.486459255218506
0, 2, 115, 5.135409355163574
0, 2, 116, 5.191001892089844
0, 2, 117, 3.572217464447021
0, 2, 118, 3.081975221633911
0, 2, 119, 3.547385931015015
0, 2, 120, 1.811518669128418
0, 2, 121, 2.984439134597778
0, 2, 122, 2.03235387802124
0, 2, 123, 3.556209087371826
0, 2, 124, 2.199185371398926
0, 2, 125, 1.91550350189209
0, 2, 126, 3.084429979324341
0, 2, 127, 0.6158947348594666
0, 3, 0, 1.512682795524597
0, 3, 1, 2.9458167552948
0, 3, 2, 1.346786379814148
0, 3, 3, 1.09112823009491
0, 3, 4, 3.791679382324219
0, 3, 5, 1.244522571563721
0, 3, 6, 1.703800201416016
0, 3, 7, 1.220436573028564
0, 3, 8, 1.766916155815125
0, 3, 9, 2.273411989212036
0, 3, 10, 4.268575668334961
0, 3, 11, 5.16838264465332
0, 3, 12, 4.470780849456787
0, 3, 13, 4.802439212799072
0, 3, 14, 4.19440221786499
0, 3, 15, 8.913677215576172
0, 3, 16, 7.39665412902832
0, 3, 17, 6.704919815063477
0, 3, 18, 32.96235275268555
0, 3, 19, 114.3795928955078
0, 3, 20, 180.2779846191406
0, 3, 21, 171.9358520507812
0, 3, 22, 177.9348754882812
0, 3, 23, 189.2018432617188
0, 3, 24, 177.5449981689453
0, 3, 25, 168.1107635498047
0, 3, 26, 180.9069213867188
0, 3, 27, 189.9971160888672
0, 3, 28, 181.6826019287109
0, 3, 29, 197.263671875
0, 3, 30, 185.1282653808594
0, 3, 31, 194.2784576416016
0, 3, 32, 205.5888214111328
0, 3, 33, 196.5897521972656
0, 3, 34, 187.5419769287109
0, 3, 35, 173.6154937744141
0, 3, 36, 187.0457611083984
0, 3, 37, 199.8959350585938
0, 3, 38, 191.0638275146484
0, 3, 39, 184.9947204589844
0, 3, 40, 166.9830322265625
0, 3, 41, 176.6255035400391
0, 3, 42, 185.8043365478516
0, 3, 43, 182.7288970947266
0, 3, 44, 203.9926300048828
0, 3, 45, 208.1056060791016
0, 3, 46, 199.2680358886719
0, 3, 47, 195.3728332519531
0, 3, 48, 196.8505706787109
0, 3, 49, 181.4942779541016
0, 3, 50, 186.7731018066406
0, 3, 51, 174.6400604248047
0, 3, 52, 187.4448852539062
0, 3, 53, 176.7011260986328
0, 3, 54, 178.96435546875
0, 3, 55, 177.4525451660156
0, 3, 56, 183.8855133056641
0, 3, 57, 175.0990600585938
0, 3, 58, 199.9481506347656
0, 3, 59, 196.1019287109375
0, 3, 60, 185.7993011474609
0, 3, 61, 180.7696380615234
0, 3, 62, 182.2779998779297
0, 3, 63, 185.2378692626953
0, 3, 64, 189.8377380371094
0, 3, 65, 186.4814758300781
0, 3, 66, 175.2693176269531
0, 3, 67, 190.4805450439453
0, 3, 68, 211.2433624267578
0, 3, 69, 190.0476837158203
0, 3, 70, 185.7269439697266
0, 3, 71, 198.6424865722656
0, 3, 72, 185.7844848632812
0, 3, 73, 186.7400360107422
0, 3, 74, 193.5105285644531
0, 3, 75, 192.9172973632812
0, 3, 76, 190.3619537353516
0, 3, 77, 198.4060211181641
0, 3, 78, 187.9631805419922
0, 3, 79, 185.8015289306641
0, 3, 80, 191.6220550537109
0, 3, 81, 183.6094207763672
0, 3, 82, 179.8122711181641
0, 3, 83, 194.200439453125
0, 3, 84, 198.9960021972656
0, 3, 85, 191.6577911376953
0, 3, 86, 203.3440399169922
0, 3, 87, 197.3217620849609
0, 3, 88, 191.2142639160156
0, 3, 89, 193.5772857666016
0, 3, 90, 173.5605010986328
0, 3, 91, 156.2916107177734
0, 3, 92, 206.6588439941406
0, 3, 93, 197.47900390625
0, 3, 94, 191.9936981201172
0, 3, 95, 210.7135162353516
0, 3, 96, 209.1912536621094
0, 3, 97, 168.1380920410156
0, 3, 98, 167.2425689697266
0, 3, 99, 180.4047546386719
0, 3, 100, 176.5561981201172
0, 3, 101, 197.8263549804688
0, 3, 102, 195.06787109375
0, 3, 103, 192.7740020751953
0, 3, 104, 203.5605773925781
0, 3, 105, 176.7515411376953
0, 3, 106, 181.9534149169922
0, 3, 107, 170.3725433349609
0, 3, 108, 108.0736083984375
0, 3, 109, 27.62991905212402
0, 3, 110, 9.575090408325195
0, 3, 111, 6.815848827362061
0, 3, 112, 2.801790952682495
0, 3, 113, 8.661690711975098
0, 3, 114, 5.257424831390381
0, 3, 115, 4.466601371765137
0, 3, 116, 3.924539089202881
0, 3, 117, 4.757682323455811
0, 3, 118, 1.636264801025391
0, 3, 119, 2.732724189758301
0, 3, 120, 3.550668716430664
0, 3, 121, 2.773184061050415
0, 3, 122, 3.330853462219238
0, 3, 123, 1.814594149589539
0, 3, 124, 2.488993406295776
0, 3, 125, 1.922744154930115
0, 3, 126, 1.368651747703552
0, 3, 127, 0.8653441667556763
0, 4, 0, 1.603901147842407
0, 4, 1, 0.7175938487052917
0, 4, 2, 2.885889530181885
0, 4, 3, 4.827468872070312
0, 4, 4, 1.859819173812866
0, 4, 5, 0.8561952114105225
0, 4, 6, 2.215034246444702
0, 4, 7, 2.340132474899292
0, 4, 8, 1.779940962791443
0, 4, 9, 2.108000993728638
0, 4, 10, 3.872135639190674
0, 4, 11, 4.689315319061279
0, 4, 12, 3.932445049285889
0, 4, 13, 4.649078845977783
0, 4, 14, 5.134081363677979
0, 4, 15, 9.158454895019531
0, 4, 16, 5.71349048614502
0, 4, 17, 11.58002948760986
0, 4, 18, 53.72285079956055
0, 4, 19, 150.2837982177734
0, 4, 20, 193.5439605712891
0, 4, 21, 169.7934722900391
0, 4, 22, 187.69140625
0, 4, 23, 196.1583404541016
0, 4, 24, 193.0394287109375
0, 4, 25, 201.8480834960938
0, 4, 26, 183.7121734619141
0, 4, 27, 190.7710418701172
0, 4, 28, 179.3026275634766
0, 4, 29, 206.0444183349609
0, 4, 30, 195.1678924560547
0, 4, 31, 193.1470031738281
0, 4, 32, 209.5599670410156
0, 4, 33, 191.8727874755859
0, 4, 34, 192.0974731445312
0, 4, 35, 213.9073486328125
0, 4, 36, 192.8230743408203
0, 4, 37, 176.9272766113281
0, 4, 38, 193.8259124755859
0, 4, 39, 189.1996765136719
0, 4, 40, 185.4009552001953
0, 4, 41, 189.3638000488281
0, 4, 42, 206.2993621826172
0, 4, 43, 174.8409881591797
0, 4, 44, 183.4590148925781
0, 4, 45, 195.6674957275391
0, 4, 46, 186.2360534667969
0, 4, 47, 179.7440032958984
0, 4, 48, 187.9534301757812
0, 4, 49, 175.9146728515625
0, 4, 50, 185.5289001464844
0, 4, 51, 197.3084259033203
0, 4, 52, 222.7150268554688
0, 4, 53, 207.2177734375
0, 4, 54, 189.1258544921875
0, 4, 55, 174.9630737304688
0, 4, 56, 190.5151062011719
0, 4, 57, 192.6228942871094
0, 4, 58, 187.4156494140625
0, 4, 59, 189.2129516601562
0, 4, 60, 196.1327362060547
0, 4, 61, 193.5076751708984
0, 4, 62, 190.2832946777344
0, 4, 63, 178.7101135253906
0, 4, 64, 213.5851593017578
0, 4, 65, 191.1039276123047
0, 4, 66, 204.0985260009766
0, 4, 67, 199.6343994140625
0, 4, 68, 201.3483276367188
0, 4, 69, 198.5811767578125
0, 4, 70, 204.4491577148438
0, 4, 71, 206.3126983642578
0, 4, 72, 215.414306640625
0, 4, 73, 186.5105743408203
0, 4, 74, 180.1298522949219
0, 4, 75, 185.6958618164062
0, 4, 76, 190.5612335205078
0, 4, 77, 185.1263427734375
0, 4, 78, 194.9582214355469
0, 4, 79, 204.4588470458984
0, 4, 80, 211.9066009521484
0, 4, 81, 199.2772216796875
0, 4, 82, 181.9145965576172
0, 4, 83, 170.6596984863281
0, 4, 84, 193.1687316894531
0, 4, 85, 196.0558776855469
0, 4, 86, 180.6317291259766
0, 4, 87, 183.9051818847656
0, 4, 88, 205.0490417480469
0, 4, 89, 187.0308227539062
0, 4, 90, 211.8318481445312
0, 4, 91, 189.6581420898438
0, 4, 92, 196.6442108154297
0, 4, 93, 196.9580383300781
0, 4, 94, 184.6036834716797
0, 4, 95, 174.2131958007812
0, 4, 96, 190.3009490966797
0, 4, 97, 193.0404663085938
0, 4, 98, 202.0812225341797
0, 4, 99, 184.7406311035156
0, 4, 100, 182.7268524169922
0, 4, 101, 177.3397064208984
0, 4, 102, 173.5346527099609
0, 4, 103, 184.9415130615234
0, 4, 104, 210.7205047607422
0, 4, 105, 190.5985870361328
0, 4, 106, 178.6533813476562
0, 4, 107, 180.7990570068359
0, 4, 108, 153.3689422607422
0, 4, 109, 53.85089111328125
0, 4, 110, 12.00136852264404
0, 4, 111, 8.407294273376465
0, 4, 112, 6.137102127075195
0, 4, 113, 6.379458427429199
0, 4, 114, 5.683791637420654
0, 4, 115, 3.155864238739014
0, 4, 116, 4.358791828155518
0, 4, 117, 2.815277099609375
0, 4, 118, 3.699016332626343
0, 4, 119, 3.557676076889038
0, 4, 120, 1.930287837982178
0, 4, 121, 1.58743679523468
0, 4, 122, 2.556229114532471
0, 4, 123, 1.679020285606384
0, 4, 124, 3.751452684402466
0, 4, 125, 3.918287992477417
0, 4, 126, 0.7920928597450256
0, 4, 127, 1.298554301261902
0, 5, 0, 1.219659447669983
0, 5, 1, 4.243142604827881
0, 5, 2, 6.236256122589111
0, 5, 3, 4.576273441314697
0, 5, 4, 2.441146373748779
0, 5, 5, 1.47371768951416
0, 5, 6, 2.219536066055298
0, 5, 7, 2.975326776504517
0, 5, 8, 3.294602632522583
0, 5, 9, 2.404057502746582
0, 5, 10, 3.245561599731445
0, 5, 11, 4.649792671203613
0, 5, 12, 2.730899572372437
0, 5, 13, 4.406304359436035
0, 5, 14, 5.030874729156494
0, 5, 15, 10.02547645568848
0, 5, 16, 8.895968437194824
0, 5, 17, 20.91950225830078
0, 5, 18, 82.92777252197266
0, 5, 19, 163.7029266357422
0, 5, 20, 183.6877899169922
0, 5, 21, 178.3772735595703
0, 5, 22, 171.4069519042969
0, 5, 23, 200.8331909179688
0, 5, 24, 187.1891632080078
0, 5, 25, 206.9246063232422
0, 5, 26, 182.7056427001953
0, 5, 27, 193.0813293457031
0, 5, 28, 189.1310882568359
0, 5, 29, 196.2632904052734
0, 5, 30, 177.3523559570312
0, 5, 31, 179.3767852783203
0, 5, 32, 187.3748474121094
0, 5, 33, 168.6008148193359
0, 5, 34, 195.2547912597656
0, 5, 35, 197.9079132080078
0, 5, 36, 167.5000915527344
0, 5, 37, 197.3901214599609
0, 5, 38, 182.4551391601562
0, 5, 39, 186.2758331298828
0, 5, 40, 196.0225067138672
0, 5, 41, 176.59326171875
0, 5, 42, 187.0544891357422
0, 5, 43, 192.1914520263672
0, 5, 44, 200.2703094482422
0, 5, 45, 186.4010314941406
0, 5, 46, 193.6593627929688
0, 5, 47, 180.5926055908203
0, 5, 48, 177.6799774169922
0, 5, 49, 179.2947845458984
0, 5, 50, 186.1462707519531
0, 5, 51, 171.9019012451172
0, 5, 52, 168.9456787109375
0, 5, 53, 182.3350219726562
0, 5, 54, 171.7554473876953
0, 5, 55, 217.2340393066406
0, 5, 56, 182.4819488525391
0, 5, 57, 206.7522430419922
0, 5, 58, 181.1826629638672
0, 5, 59, 180.7059783935547
0, 5, 60, 218.5347595214844
0, 5, 61, 184.8709869384766
0, 5, 62, 179.3032531738281
0, 5, 63, 179.8635864257812
0, 5, 64, 195.0350952148438
0, 5, 65, 210.1170349121094
0, 5, 66, 191.8533172607422
0, 5, 67, 199.0567626953125
0, 5, 68, 186.6157989501953
0, 5, 69, 185.1802520751953
0, 5, 70, 185.3554840087891
0, 5, 71, 192.8390960693359
0, 5, 72, 197.1436004638672
0, 5, 73, 201.5863494873047
0, 5, 74, 179.7107543945312
0, 5, 75, 202.7283325195312
0, 5, 76, 213.5457000732422
0, 5, 77, 182.5600738525391
0, 5, 78, 194.9920501708984
0, 5, 79, 190.2713928222656
0, 5, 80, 197.5170440673828
0, 5, 81, 203.1009826660156
0, 5, 82, 202.5020751953125
0, 5, 83, 189.1785888671875
0, 5, 84, 205.0605926513672
0, 5, 85, 176.7639465332031
0, 5, 86, 194.7938079833984
0, 5, 87, 188.1537017822266
0, 5, 88, 177.2321929931641
0, 5, 89, 194.7365112304688
0, 5, 90, 199.2178802490234
0, 5, 91, 194.969970703125
0, 5, 92, 189.9462127685547
0, 5, 93, 189.7030944824219
0, 5, 94, 207.2758941650391
0, 5, 95, 177.4804382324219
0, 5, 96, 182.4848937988281
0, 5, 97, 190.5550537109375
0, 5, 98, 188.6378326416016
0, 5, 99, 194.5351715087891
0, 5, 100, 185.2596435546875
0, 5, 101, 195.1670227050781
0, 5, 102, 181.7616424560547
0, 5, 103, 176.2532653808594
0, 5, 104, 189.9433135986328
0, 5, 105, 189.5974426269531
0, 5, 106, 177.3582153320312
0, 5, 107, 182.0254058837891
0, 5, 108, 175.4650115966797
0, 5, 109, 89.50959777832031
0, 5, 110, 30.53220748901367
0, 5, 111, 9.410784721374512
0, 5, 112, 6.087176322937012
0, 5, 113, 5.354156970977783
0, 5, 114, 6.059479713439941
0, 5, 115, 6.834699153900146
0, 5, 116, 4.085258007049561
0, 5, 117, 2.418103456497192
0, 5, 118, 3.150721311569214
0, 5, 119, 3.002584457397461
0, 5, 120, 1.313895225524902
0, 5, 121, 1.131247878074646
0, 5, 122, 3.797394275665283
0, 5, 123, 3.311718702316284
0, 5, 124, 4.030733108520508
0, 5, 125, 1.667885422706604
0, 5, 126, 1.146185398101807
0, 5, 127, 2.528250694274902
0, 6, 0, 3.992705345153809
0, 6, 1, 3.509595394134521
0, 6, 2, 3.713336706161499
0, 6, 3, 1.860594630241394
0, 6, 4, 3.277175903320312
0, 6, 5, 4.264735221862793
0, 6, 6, 2.827646493911743
0, 6, 7, 3.626792669296265
0, 6, 8, 4.198109149932861
0, 6, 9, 3.001762628555298
0, 6, 10, 4.946746349334717
0, 6, 11, 4.556856155395508
0, 6, 12, 5.935812950134277
0, 6, 13, 5.281106948852539
0, 6, 14, 5.490796566009521
0, 6, 15, 7.043526172637939
0, 6, 16, 12.49285221099854
0, 6, 17, 29.26682281494141
0, 6, 18, 112.4186553955078
0, 6, 19, 190.7434387207031
0, 6, 20, 195.5844573974609
0, 6, 21, 198.7228698730469
0, 6, 22, 191.7877807617188
0, 6, 23, 190.6121673583984
0, 6, 24, 200.5614318847656
0, 6, 25, 181.4542694091797
0, 6, 26, 186.4550323486328
0, 6, 27, 192.8444366455078
0, 6, 28, 188.5961303710938
0, 6, 29, 212.3148498535156
0, 6, 30, 189.6609802246094
0, 6, 31, 193.5901031494141
0, 6, 32, 206.28369140625
0, 6, 33, 182.9062347412109
0, 6, 34, 196.5094909667969
0, 6, 35, 189.5701599121094
0, 6, 36, 180.8948516845703
0, 6, 37, 182.3296966552734
0, 6, 38, 185.3313293457031
0, 6, 39, 195.2574310302734
0, 6, 40, 174.6736755371094
0, 6, 41, 187.0299377441406
0, 6, 42, 174.5575256347656
0, 6, 43, 209.5440826416016
0, 6, 44, 209.6036529541016
0, 6, 45, 193.1159210205078
0, 6, 46, 189.8738555908203
0, 6, 47, 204.1153564453125
0, 6, 48, 189.0212097167969
0, 6, 49, 179.1752166748047
0, 6, 50, 181.7817077636719
0, 6, 51, 196.3762359619141
0, 6, 52, 197.0290985107422
0, 6, 53, 184.3656158447266
0, 6, 54, 174.9151611328125
0, 6, 55, 194.5757598876953
0, 6, 56, 202.2756805419922
0, 6, 57, 191.5660400390625
0, 6, 58, 178.3957977294922
0, 6, 59, 191.8947296142578
0, 6, 60, 184.777587890625
0, 6, 61, 194.3992614746094
0, 6, 62, 196.4033355712891
0, 6, 63, 187.0579071044922
0, 6, 64, 169.4999694824219
0, 6, 65, 186.2163848876953
0, 6, 66, 197.2835083007812
0, 6, 67, 213.5656890869141
0, 6, 68, 180.5387725830078
0, 6, 69, 170.8526611328125
0, 6, 70, 188.1192169189453
0, 6, 71, 170.6442413330078
0, 6, 72, 176.1885070800781
0, 6, 73, 176.1974334716797
0, 6, 74, 211.6673736572266
0, 6, 75, 227.3412780761719
0, 6, 76, 185.7509460449219
0, 6, 77, 172.6207275390625
0, 6, 78, 176.1770172119141
0, 6, 79, 186.7310791015625
0, 6, 80, 187.0877532958984
0, 6, 81, 208.8254852294922
0, 6, 82, 195.4287719726562
0, 6, 83, 195.2912445068359
0, 6, 84, 198.1438903808594
0, 6, 85, 182.9886932373047
0, 6, 86, 201.7178344726562
0, 6, 87, 183.2581939697266
0, 6, 88, 191.291259765625
0, 6, 89, 188.5319519042969
0, 6, 90, 205.1955261230469
0, 6, 91, 200.3726043701172
0, 6, 92, 172.8797149658203
0, 6, 93, 192.2582855224609
0, 6, 94, 189.4357299804688
0, 6, 95, 185.2335510253906
0, 6, 96, 188.3555450439453
0, 6, 97, 195.6674652099609
0, 6, 98, 182.8886108398438
0, 6, 99, 176.1497497558594
0, 6, 100, 202.9988250732422
0, 6, 101, 168.9666137695312
0, 6, 102, 201.5374450683594
0, 6, 103, 196.7783355712891
0, 6, 104, 183.5153350830078
0, 6, 105, 193.5656433105469
0, 6, 106, 177.3716125488281
0, 6, 107, 196.1605987548828
0, 6, 108, 172.3993072509766
0, 6, 109, 117.6599655151367
0, 6, 110, 33.1182975769043
0, 6, 111, 8.94598388671875
0, 6, 112, 9.074985504150391
0, 6, 113, 4.967956066131592
0, 6, 114, 6.264910221099854
0, 6, 115, 5.431925296783447
0, 6, 116, 6.59568977355957
0, 6, 117, 2.778966188430786
0, 6, 118, 3.121446847915649
0, 6, 119, 3.915585041046143
0, 6, 120, 2.279513835906982
0, 6, 121, 6.724094390869141
0, 6, 122, 2.705354452133179
0, 6, 123, 3.314674139022827
0, 6, 124, 1.655979156494141
0, 6, 125, 3.833721160888672
0, 6, 126, 2.636050701141357
0, 6, 127, 2.476906061172485
0, 7, 0, 2.6209876537323
0, 7, 1, 2.612774848937988
0, 7, 2, 1.166796326637268
0, 7, 3, 2.051552295684814
0, 7, 4, 1.165491700172424
0, 7, 5, 1.468766570091248
0, 7, 6, 2.385499954223633
0, 7, 7, 2.528764963150024
0, 7, 8, 3.043531894683838
0, 7, 9, 2.940142631530762
0, 7, 10, 5.445178508758545
0, 7, 11, 2.916093111038208
0, 7, 12, 3.501773118972778
0, 7, 13, 5.519979000091553
0, 7, 14, 6.355446815490723
0, 7, 15, 7.374050140380859
0, 7, 16, 16.94308280944824
0, 7, 17, 52.05216217041016
0, 7, 18, 163.863037109375
0, 7, 19, 181.3847808837891
0, 7, 20, 179.2005767822266
0, 7, 21, 180.7186584472656
0, 7, 22, 191.1973571777344
0, 7, 23, 203.0841522216797
0, 7, 24, 181.1631774902344
0, 7, 25, 213.7959747314453
0, 7, 26, 192.2418670654297
0, 7, 27, 183.0086364746094
0, 7, 28, 183.6295013427734
0, 7, 29, 208.8754119873047
0, 7, 30, 193.2422027587891
0, 7, 31, 176.583251953125
0, 7, 32, 189.90673828125
0, 7, 33, 182.8639221191406
0, 7, 34, 193.0817565917969
0, 7, 35, 197.1455841064453
0, 7, 36, 188.6958770751953
0, 7, 37, 213.7019348144531
0, 7, 38, 193.8989562988281
0, 7, 39, 173.9371032714844
0, 7, 40, 183.0825805664062
0, 7, 41, 186.318359375
0, 7, 42, 177.8146667480469
0, 7, 43, 177.6199493408203
0, 7, 44, 179.4364929199219
0, 7, 45, 175.3569793701172
0, 7, 46, 187.3383941650391
0, 7, 47, 197.2183685302734
0, 7, 48, 184.6558532714844
0, 7, 49, 199.4080047607422
0, 7, 50, 187.8749084472656
0, 7, 51, 206.0101013183594
0, 7, 52, 203.6080627441406
0, 7, 53, 192.0159149169922
0, 7, 54, 195.3963928222656
0, 7, 55, 203.3610229492188
0, 7, 56, 183.3204193115234
0, 7, 57, 183.3585662841797
0, 7, 58, 193.6672058105469
0, 7, 59, 187.9584655761719
0, 7, 60, 203.0355224609375
0, 7, 61, 171.4802856445312
0, 7, 62, 203.0216979980469
0, 7, 63, 189.1587371826172
0, 7, 64, 201.4318084716797
0, 7, 65, 196.8447113037109
0, 7, 66, 206.0245513916016
0, 7, 67, 221.758056640625
0, 7, 68, 164.1075744628906
0, 7, 69, 195.3281402587891
0, 7, 70, 218.1428527832031
0, 7, 71, 184.3690338134766
0, 7, 72, 181.9965972900391
0, 7, 73, 176.5546417236328
0, 7, 74, 207.7666168212891
0, 7, 75, 205.0125885009766
0, 7, 76, 214.8222808837891
0, 7, 77, 175.7567138671875
0, 7, 78, 177.3511962890625
0, 7, 79, 192.5146026611328
0, 7, 80, 197.3130187988281
0, 7, 81, 214.5619049072266
0, 7, 82, 184.8616333007812
0, 7, 83, 205.6107482910156
0, 7, 84, 192.6894073486328
0, 7, 85, 187.1182556152344
0, 7, 86, 200.2962188720703
0, 7, 87, 225.6496124267578
0, 7, 88, 195.0598449707031
0, 7, 89, 176.0019836425781
0, 7, 90, 183.1589813232422
0, 7, 91, 194.7732543945312
0, 7, 92, 194.7054595947266
0, 7, 93, 203.3757171630859
0, 7, 94, 177.4642639160156
0, 7, 95, 198.8735198974609
0, 7, 96, 208.3906402587891
0, 7, 97, 188.6814880371094
0, 7, 98, 176.3651275634766
0, 7, 99, 196.3403625488281
0, 7, 100, 181.6725311279297
0, 7, 101, 199.750244140625
0, 7, 102, 185.2643890380859
0, 7, 103, 181.5150756835938
0, 7, 104, 174.7172546386719
0, 7, 105, 195.0966949462891
0, 7, 106, 205.3667449951172
0, 7, 107, 173.9454345703125
0, 7, 108, 177.1221160888672
0, 7, 109, 136.6836700439453
0, 7, 110, 54.85413360595703
0, 7, 111, 9.809347152709961
0, 7, 112, 7.793948650360107
0, 7, 113, 8.751962661743164
0, 7, 114, 7.15182638168335
0, 7, 115, 4.598414897918701
0, 7, 116, 4.660487174987793
0, 7, 117, 3.979498147964478
0, 7, 118, 3.447319746017456
0, 7, 119, 3.742843627929688
0, 7, 120, 3.376269340515137
0, 7, 121, 2.424021005630493
0, 7, 122, 3.550760507583618
0, 7, 123, 1.532366991043091
0, 7, 124, 1.868239879608154
0, 7, 125, 2.117391347885132
0, 7, 126, 1.860220551490784
0, 7, 127, 1.357746243476868
0, 8, 0, 5.245259761810303
0, 8, 1, 2.08693265914917
0, 8, 2, 3.030467510223389
0, 8, 3, 1.692547917366028
0, 8, 4, 1.167258977890015
0, 8, 5, 4.575949192047119
0, 8, 6, 3.157967329025269
0, 8, 7, 2.533200979232788
0, 8, 8, 4.388498783111572
0, 8, 9, 5.349250316619873
0, 8, 10, 2.228344678878784
0, 8, 11, 3.201566219329834
0, 8, 12, 3.57021951675415
0, 8, 13, 4.511743068695068
0, 8, 14, 5.452648162841797
0, 8, 15, 8.840419769287109
0, 8, 16, 19.3259105682373
0, 8, 17, 77.65837860107422
0, 8, 18, 144.2047882080078
0, 8, 19, 178.3029937744141
0, 8, 20, 192.3120880126953
0, 8, 21, 192.5144500732422
0, 8, 22, 179.3825531005859
0, 8, 23, 173.3759307861328
0, 8, 24, 193.1723175048828
0, 8, 25, 184.8122100830078
0, 8, 26, 192.7971801757812
0, 8, 27, 186.2061309814453
0, 8, 28, 187.7755584716797
0, 8, 29, 207.37451171875
0, 8, 30, 197.4531707763672
0, 8, 31, 184.7706909179688
0, 8, 32, 199.0054626464844
0, 8, 33, 207.3355407714844
0, 8, 34, 203.4783782958984
0, 8, 35, 184.6310577392578
