# TOPAS Version: 3.1.p3
# Parameter File: batch_inserts_244.txt
# Results for scorer Readout_Adipose
# Scored in component: MyBox
# X in 1 bin  of 0.65 cm
# Y in 512 bins of 0.0783984 cm
# Z in 128 bins of 0.078125 cm
# EnergyDeposit ( MeV ) : Sum   
0, 0, 0, 1.811909556388855
0, 0, 1, 2.825121164321899
0, 0, 2, 1.289118409156799
0, 0, 3, 1.182220458984375
0, 0, 4, 1.815663933753967
0, 0, 5, 1.570781350135803
0, 0, 6, 4.001103401184082
0, 0, 7, 3.257917881011963
0, 0, 8, 1.369607329368591
0, 0, 9, 2.498589038848877
0, 0, 10, 2.023115396499634
0, 0, 11, 3.089768886566162
0, 0, 12, 4.016211032867432
0, 0, 13, 2.23203706741333
0, 0, 14, 4.957650661468506
0, 0, 15, 5.636290550231934
0, 0, 16, 3.660981893539429
0, 0, 17, 6.107874870300293
0, 0, 18, 5.951656341552734
0, 0, 19, 22.60161590576172
0, 0, 20, 93.675537109375
0, 0, 21, 152.1214141845703
0, 0, 22, 153.7442474365234
0, 0, 23, 144.0494537353516
0, 0, 24, 160.2363586425781
0, 0, 25, 166.921142578125
0, 0, 26, 166.4432678222656
0, 0, 27, 173.7318572998047
0, 0, 28, 178.5472259521484
0, 0, 29, 175.0976867675781
0, 0, 30, 173.5939788818359
0, 0, 31, 166.5462493896484
0, 0, 32, 165.6546020507812
0, 0, 33, 167.3576965332031
0, 0, 34, 177.4881591796875
0, 0, 35, 174.827880859375
0, 0, 36, 159.0618286132812
0, 0, 37, 161.4925079345703
0, 0, 38, 168.5085144042969
0, 0, 39, 159.8872833251953
0, 0, 40, 164.0919036865234
0, 0, 41, 165.8477325439453
0, 0, 42, 144.8771057128906
0, 0, 43, 167.7913055419922
0, 0, 44, 177.2624206542969
0, 0, 45, 174.0402221679688
0, 0, 46, 166.8818359375
0, 0, 47, 169.0036926269531
0, 0, 48, 169.1141204833984
0, 0, 49, 183.1990356445312
0, 0, 50, 168.7547912597656
0, 0, 51, 162.2695770263672
0, 0, 52, 165.1349334716797
0, 0, 53, 171.3823699951172
0, 0, 54, 159.7873840332031
0, 0, 55, 166.2836761474609
0, 0, 56, 190.0550994873047
0, 0, 57, 169.8098449707031
0, 0, 58, 162.1067504882812
0, 0, 59, 172.7369842529297
0, 0, 60, 169.2302551269531
0, 0, 61, 170.2274017333984
0, 0, 62, 182.7952423095703
0, 0, 63, 166.9830474853516
0, 0, 64, 165.0333099365234
0, 0, 65, 174.5852966308594
0, 0, 66, 178.5248870849609
0, 0, 67, 164.0528106689453
0, 0, 68, 158.2093200683594
0, 0, 69, 158.6122894287109
0, 0, 70, 169.5710144042969
0, 0, 71, 158.3368225097656
0, 0, 72, 163.1489562988281
0, 0, 73, 172.3144226074219
0, 0, 74, 162.87841796875
0, 0, 75, 163.2163848876953
0, 0, 76, 163.0380859375
0, 0, 77, 172.1480255126953
0, 0, 78, 181.187744140625
0, 0, 79, 174.9120483398438
0, 0, 80, 159.48779296875
0, 0, 81, 159.9136199951172
0, 0, 82, 181.8556365966797
0, 0, 83, 175.1990814208984
0, 0, 84, 159.0077362060547
0, 0, 85, 180.7845001220703
0, 0, 86, 158.2766876220703
0, 0, 87, 176.5782775878906
0, 0, 88, 176.3251342773438
0, 0, 89, 178.0635986328125
0, 0, 90, 161.5539245605469
0, 0, 91, 184.5186157226562
0, 0, 92, 164.68310546875
0, 0, 93, 154.2584533691406
0, 0, 94, 168.85107421875
0, 0, 95, 173.5030670166016
0, 0, 96, 183.6347198486328
0, 0, 97, 184.3571472167969
0, 0, 98, 187.5753021240234
0, 0, 99, 171.3861846923828
0, 0, 100, 157.8321075439453
0, 0, 101, 166.6045074462891
0, 0, 102, 171.0945434570312
0, 0, 103, 171.1517639160156
0, 0, 104, 168.5946502685547
0, 0, 105, 178.3544311523438
0, 0, 106, 161.5704193115234
0, 0, 107, 86.40986633300781
0, 0, 108, 21.27461433410645
0, 0, 109, 10.13715171813965
0, 0, 110, 6.135214328765869
0, 0, 111, 6.747256755828857
0, 0, 112, 3.326557159423828
0, 0, 113, 3.447372436523438
0, 0, 114, 3.015709638595581
0, 0, 115, 2.518985033035278
0, 0, 116, 1.073954105377197
0, 0, 117, 2.991509199142456
0, 0, 118, 2.858741044998169
0, 0, 119, 2.158432722091675
0, 0, 120, 1.86304771900177
0, 0, 121, 4.578491687774658
0, 0, 122, 3.464966773986816
0, 0, 123, 3.032615900039673
0, 0, 124, 1.398691534996033
0, 0, 125, 3.572660207748413
0, 0, 126, 2.127677202224731
0, 0, 127, 1.701551675796509
0, 1, 0, 0.9228843450546265
0, 1, 1, 4.715329170227051
0, 1, 2, 2.120100021362305
0, 1, 3, 1.113334894180298
0, 1, 4, 3.578165531158447
0, 1, 5, 1.846835255622864
0, 1, 6, 2.673229455947876
0, 1, 7, 2.29600977897644
0, 1, 8, 2.800205945968628
0, 1, 9, 1.220832467079163
0, 1, 10, 1.846725821495056
0, 1, 11, 3.444351196289062
0, 1, 12, 4.098663330078125
0, 1, 13, 3.975231170654297
0, 1, 14, 5.239327907562256
0, 1, 15, 5.448607921600342
0, 1, 16, 7.459882736206055
0, 1, 17, 6.400374412536621
0, 1, 18, 11.78384685516357
0, 1, 19, 39.96498870849609
0, 1, 20, 127.1079483032227
0, 1, 21, 177.1725921630859
0, 1, 22, 193.1662750244141
0, 1, 23, 184.9166412353516
0, 1, 24, 180.6739807128906
0, 1, 25, 193.1066741943359
0, 1, 26, 198.0074768066406
0, 1, 27, 186.4898376464844
0, 1, 28, 188.2800750732422
0, 1, 29, 183.2973937988281
0, 1, 30, 179.4686737060547
0, 1, 31, 182.0989837646484
0, 1, 32, 188.2056274414062
0, 1, 33, 191.0263519287109
0, 1, 34, 185.250732421875
0, 1, 35, 192.8335571289062
0, 1, 36, 204.8975677490234
0, 1, 37, 184.7003021240234
0, 1, 38, 165.8054504394531
0, 1, 39, 171.3133239746094
0, 1, 40, 179.7462921142578
0, 1, 41, 184.8271636962891
0, 1, 42, 183.247314453125
0, 1, 43, 185.8526458740234
0, 1, 44, 168.7077789306641
0, 1, 45, 189.7467041015625
0, 1, 46, 170.2670745849609
0, 1, 47, 184.6344299316406
0, 1, 48, 185.98974609375
0, 1, 49, 186.3887176513672
0, 1, 50, 179.21435546875
0, 1, 51, 190.3589935302734
0, 1, 52, 195.2857055664062
0, 1, 53, 196.0418243408203
0, 1, 54, 184.0728912353516
0, 1, 55, 165.3257293701172
0, 1, 56, 178.4103546142578
0, 1, 57, 177.8931121826172
0, 1, 58, 188.6765441894531
0, 1, 59, 193.2111206054688
0, 1, 60, 188.6228790283203
0, 1, 61, 177.9170379638672
0, 1, 62, 205.3333282470703
0, 1, 63, 174.6609802246094
0, 1, 64, 172.7461395263672
0, 1, 65, 184.46484375
0, 1, 66, 204.3051452636719
0, 1, 67, 181.7360229492188
0, 1, 68, 186.4669494628906
0, 1, 69, 188.7347259521484
0, 1, 70, 185.5364685058594
0, 1, 71, 171.2436981201172
0, 1, 72, 187.3123931884766
0, 1, 73, 190.1833801269531
0, 1, 74, 201.1603088378906
0, 1, 75, 184.5824890136719
0, 1, 76, 173.9434204101562
0, 1, 77, 193.3838958740234
0, 1, 78, 187.8692169189453
0, 1, 79, 203.4815979003906
0, 1, 80, 186.7677154541016
0, 1, 81, 176.5476379394531
0, 1, 82, 208.879638671875
0, 1, 83, 211.7846527099609
0, 1, 84, 180.8255920410156
0, 1, 85, 169.7957763671875
0, 1, 86, 167.2959594726562
0, 1, 87, 184.2663116455078
0, 1, 88, 175.5152282714844
0, 1, 89, 187.6601104736328
0, 1, 90, 214.6725158691406
0, 1, 91, 181.1250762939453
0, 1, 92, 183.8897552490234
0, 1, 93, 180.3569641113281
0, 1, 94, 183.7207183837891
0, 1, 95, 183.9889831542969
0, 1, 96, 195.7509765625
0, 1, 97, 182.6751403808594
0, 1, 98, 188.7599334716797
0, 1, 99, 175.1875762939453
0, 1, 100, 172.3902130126953
0, 1, 101, 177.5061798095703
0, 1, 102, 182.0955963134766
0, 1, 103, 174.2262268066406
0, 1, 104, 191.2424926757812
0, 1, 105, 182.0818481445312
0, 1, 106, 166.7322082519531
0, 1, 107, 123.9728622436523
0, 1, 108, 46.63420104980469
0, 1, 109, 9.292052268981934
0, 1, 110, 9.270607948303223
0, 1, 111, 6.447726726531982
0, 1, 112, 8.219518661499023
0, 1, 113, 6.95473051071167
0, 1, 114, 5.56222677230835
0, 1, 115, 3.618223190307617
0, 1, 116, 4.009093761444092
0, 1, 117, 2.657729387283325
0, 1, 118, 3.509047269821167
0, 1, 119, 2.147386074066162
0, 1, 120, 3.497060060501099
0, 1, 121, 3.821130752563477
0, 1, 122, 2.522847414016724
0, 1, 123, 3.979240894317627
0, 1, 124, 2.602604389190674
0, 1, 125, 2.352471590042114
0, 1, 126, 2.370233535766602
0, 1, 127, 1.856361508369446
0, 2, 0, 1.068817853927612
0, 2, 1, 1.852786660194397
0, 2, 2, 2.48593807220459
0, 2, 3, 1.9390949010849
0, 2, 4, 1.012048602104187
0, 2, 5, 0.6484060287475586
0, 2, 6, 2.977661609649658
0, 2, 7, 3.798763990402222
0, 2, 8, 1.231501340866089
0, 2, 9, 2.963503122329712
0, 2, 10, 5.746127128601074
0, 2, 11, 4.705972194671631
0, 2, 12, 3.241594076156616
0, 2, 13, 2.664994955062866
0, 2, 14, 5.137361526489258
0, 2, 15, 6.26906681060791
0, 2, 16, 3.968025922775269
0, 2, 17, 9.081829071044922
0, 2, 18, 14.23640155792236
0, 2, 19, 79.15155029296875
0, 2, 20, 163.1578216552734
0, 2, 21, 184.7273406982422
0, 2, 22, 196.0471801757812
0, 2, 23, 185.387451171875
0, 2, 24, 173.3639373779297
0, 2, 25, 183.745849609375
0, 2, 26, 178.9978485107422
0, 2, 27, 189.5128021240234
0, 2, 28, 170.9180908203125
0, 2, 29, 169.7401428222656
0, 2, 30, 185.7908325195312
0, 2, 31, 182.8163604736328
0, 2, 32, 183.9410247802734
0, 2, 33, 191.0918121337891
0, 2, 34, 197.6981048583984
0, 2, 35, 181.2109222412109
0, 2, 36, 186.3572082519531
0, 2, 37, 180.8280181884766
0, 2, 38, 186.7215423583984
0, 2, 39, 166.6093597412109
0, 2, 40, 184.1868591308594
0, 2, 41, 185.2925109863281
0, 2, 42, 191.0529174804688
0, 2, 43, 194.6657409667969
0, 2, 44, 192.0296478271484
0, 2, 45, 190.6933898925781
0, 2, 46, 196.5271148681641
0, 2, 47, 189.4609375
0, 2, 48, 177.0659027099609
0, 2, 49, 197.7521667480469
0, 2, 50, 167.1674041748047
0, 2, 51, 185.2117156982422
0, 2, 52, 186.5527801513672
0, 2, 53, 195.5843505859375
0, 2, 54, 176.008056640625
0, 2, 55, 172.9044342041016
0, 2, 56, 182.2735900878906
0, 2, 57, 199.7219543457031
0, 2, 58, 187.1089324951172
0, 2, 59, 189.2750091552734
0, 2, 60, 196.5363006591797
0, 2, 61, 193.4227447509766
0, 2, 62, 190.2047271728516
0, 2, 63, 169.9981384277344
0, 2, 64, 189.3539428710938
0, 2, 65, 201.7704772949219
0, 2, 66, 195.34814453125
0, 2, 67, 185.3412933349609
0, 2, 68, 182.7951049804688
0, 2, 69, 187.0794677734375
0, 2, 70, 203.2070007324219
0, 2, 71, 175.0968933105469
0, 2, 72, 186.4386138916016
0, 2, 73, 177.8744049072266
0, 2, 74, 180.3086700439453
0, 2, 75, 196.0580902099609
0, 2, 76, 184.3239898681641
0, 2, 77, 177.4611663818359
0, 2, 78, 197.5157623291016
0, 2, 79, 180.4689025878906
0, 2, 80, 189.8380737304688
0, 2, 81, 188.4798736572266
0, 2, 82, 205.0261688232422
0, 2, 83, 205.2693634033203
0, 2, 84, 189.0833129882812
0, 2, 85, 171.6658935546875
0, 2, 86, 196.0959777832031
0, 2, 87, 171.5759735107422
0, 2, 88, 178.6010589599609
0, 2, 89, 184.2310943603516
0, 2, 90, 179.8426055908203
0, 2, 91, 173.9497375488281
0, 2, 92, 196.3847808837891
0, 2, 93, 193.6913604736328
0, 2, 94, 201.4703521728516
0, 2, 95, 194.2199401855469
0, 2, 96, 187.5626831054688
0, 2, 97, 171.991943359375
0, 2, 98, 173.2251129150391
0, 2, 99, 161.9853973388672
0, 2, 100, 187.0854949951172
0, 2, 101, 196.0725860595703
0, 2, 102, 177.5293273925781
0, 2, 103, 199.1912689208984
0, 2, 104, 188.4974517822266
0, 2, 105, 202.2826843261719
0, 2, 106, 193.8240814208984
0, 2, 107, 150.9527587890625
0, 2, 108, 80.72536468505859
0, 2, 109, 17.4029655456543
0, 2, 110, 7.837805271148682
0, 2, 111, 5.911324977874756
0, 2, 112, 3.293551206588745
0, 2, 113, 4.226167678833008
0, 2, 114, 6.177112579345703
0, 2, 115, 4.395133972167969
0, 2, 116, 2.343555688858032
0, 2, 117, 1.802138686180115
0, 2, 118, 2.709873199462891
0, 2, 119, 2.213893413543701
0, 2, 120, 1.712162613868713
0, 2, 121, 3.727306842803955
0, 2, 122, 2.343549251556396
0, 2, 123, 3.455445051193237
0, 2, 124, 2.496642589569092
0, 2, 125, 1.901834487915039
0, 2, 126, 2.699974060058594
0, 2, 127, 1.745145320892334
0, 3, 0, 1.382503747940063
0, 3, 1, 1.296132802963257
0, 3, 2, 1.829338073730469
0, 3, 3, 2.05843186378479
0, 3, 4, 3.431469917297363
0, 3, 5, 2.583199501037598
0, 3, 6, 2.190409183502197
0, 3, 7, 1.056530833244324
0, 3, 8, 1.630534052848816
0, 3, 9, 1.347484230995178
0, 3, 10, 2.321135759353638
0, 3, 11, 3.813727617263794
0, 3, 12, 4.897353649139404
0, 3, 13, 3.825459718704224
0, 3, 14, 3.856542110443115
0, 3, 15, 7.49806022644043
0, 3, 16, 7.520889282226562
0, 3, 17, 6.854678153991699
0, 3, 18, 31.96011161804199
0, 3, 19, 115.8180618286133
0, 3, 20, 180.3915252685547
0, 3, 21, 172.7668914794922
0, 3, 22, 177.7440490722656
0, 3, 23, 187.9702301025391
0, 3, 24, 178.5190582275391
0, 3, 25, 169.1805267333984
0, 3, 26, 180.7655181884766
0, 3, 27, 189.4251098632812
0, 3, 28, 184.1960754394531
0, 3, 29, 196.6913909912109
0, 3, 30, 185.0188293457031
0, 3, 31, 194.7019805908203
0, 3, 32, 206.1905822753906
0, 3, 33, 195.1129760742188
0, 3, 34, 187.9120635986328
0, 3, 35, 173.5392456054688
0, 3, 36, 185.1148223876953
0, 3, 37, 200.1714324951172
0, 3, 38, 191.0420074462891
0, 3, 39, 185.3019256591797
0, 3, 40, 165.4975891113281
0, 3, 41, 174.3045959472656
0, 3, 42, 184.7933044433594
0, 3, 43, 182.4163818359375
0, 3, 44, 203.9625854492188
0, 3, 45, 207.4421234130859
0, 3, 46, 198.7665252685547
0, 3, 47, 194.7027587890625
0, 3, 48, 195.124267578125
0, 3, 49, 180.2027893066406
0, 3, 50, 187.5524597167969
0, 3, 51, 173.6019134521484
0, 3, 52, 188.58642578125
0, 3, 53, 178.34521484375
0, 3, 54, 178.5890655517578
0, 3, 55, 176.3915100097656
0, 3, 56, 182.4222106933594
0, 3, 57, 175.6923675537109
0, 3, 58, 201.4436187744141
0, 3, 59, 196.0267181396484
0, 3, 60, 186.6925506591797
0, 3, 61, 180.6224212646484
0, 3, 62, 181.6005096435547
0, 3, 63, 184.2116546630859
0, 3, 64, 190.4993743896484
0, 3, 65, 188.1584167480469
0, 3, 66, 175.7120513916016
0, 3, 67, 189.7735137939453
0, 3, 68, 211.447998046875
0, 3, 69, 190.3383331298828
0, 3, 70, 186.661376953125
0, 3, 71, 197.6956481933594
0, 3, 72, 185.5940856933594
0, 3, 73, 186.046875
0, 3, 74, 192.3054504394531
0, 3, 75, 192.1644287109375
0, 3, 76, 190.8255157470703
0, 3, 77, 199.2140350341797
0, 3, 78, 188.4844360351562
0, 3, 79, 185.4381713867188
0, 3, 80, 189.0242919921875
0, 3, 81, 184.2669982910156
0, 3, 82, 179.0683441162109
0, 3, 83, 195.1888885498047
0, 3, 84, 199.2126007080078
0, 3, 85, 192.5908966064453
0, 3, 86, 203.9593963623047
0, 3, 87, 197.6531524658203
0, 3, 88, 192.2981262207031
0, 3, 89, 194.6541900634766
0, 3, 90, 173.7763519287109
0, 3, 91, 159.8445587158203
0, 3, 92, 206.1751708984375
0, 3, 93, 196.9315185546875
0, 3, 94, 191.2634429931641
0, 3, 95, 211.4920196533203
0, 3, 96, 208.2136077880859
0, 3, 97, 168.2974243164062
0, 3, 98, 167.2426910400391
0, 3, 99, 179.4822692871094
0, 3, 100, 178.2241363525391
0, 3, 101, 197.1865081787109
0, 3, 102, 194.4601440429688
0, 3, 103, 192.6377105712891
0, 3, 104, 202.5921173095703
0, 3, 105, 175.6746520996094
0, 3, 106, 181.4831085205078
0, 3, 107, 170.9848022460938
0, 3, 108, 107.7325744628906
0, 3, 109, 27.93522262573242
0, 3, 110, 7.656042098999023
0, 3, 111, 6.797009944915771
0, 3, 112, 3.473254680633545
0, 3, 113, 9.650392532348633
0, 3, 114, 4.522677898406982
0, 3, 115, 4.693149089813232
0, 3, 116, 6.044044971466064
0, 3, 117, 4.911696910858154
0, 3, 118, 3.57055401802063
0, 3, 119, 2.445735692977905
0, 3, 120, 3.690747976303101
0, 3, 121, 2.031324148178101
0, 3, 122, 3.949149608612061
0, 3, 123, 1.281775593757629
0, 3, 124, 1.881664276123047
0, 3, 125, 2.178509950637817
0, 3, 126, 2.204479694366455
0, 3, 127, 1.150946259498596
0, 4, 0, 0.6829511523246765
0, 4, 1, 0.6261519193649292
0, 4, 2, 1.540879964828491
0, 4, 3, 4.241857051849365
0, 4, 4, 2.047914981842041
0, 4, 5, 2.739781618118286
0, 4, 6, 3.122608423233032
0, 4, 7, 3.009985685348511
0, 4, 8, 1.941185593605042
0, 4, 9, 2.516669988632202
0, 4, 10, 4.08067798614502
0, 4, 11, 4.122035503387451
0, 4, 12, 4.026296138763428
0, 4, 13, 4.443020820617676
0, 4, 14, 4.659542560577393
0, 4, 15, 9.188149452209473
0, 4, 16, 5.727917671203613
0, 4, 17, 11.46515846252441
0, 4, 18, 55.66197967529297
0, 4, 19, 153.8081665039062
0, 4, 20, 194.1713409423828
0, 4, 21, 169.3030853271484
0, 4, 22, 187.5804748535156
0, 4, 23, 195.8574523925781
0, 4, 24, 192.1935272216797
0, 4, 25, 199.1763916015625
0, 4, 26, 182.8419647216797
0, 4, 27, 192.0735778808594
0, 4, 28, 177.8307800292969
0, 4, 29, 205.8045654296875
0, 4, 30, 196.3199920654297
0, 4, 31, 191.4435729980469
0, 4, 32, 208.9703674316406
0, 4, 33, 189.9981689453125
0, 4, 34, 192.8755493164062
0, 4, 35, 214.6215667724609
0, 4, 36, 192.6730651855469
0, 4, 37, 177.1255798339844
0, 4, 38, 193.7629699707031
0, 4, 39, 190.4901885986328
0, 4, 40, 185.5343627929688
0, 4, 41, 188.8814392089844
0, 4, 42, 206.5807342529297
0, 4, 43, 173.6254730224609
0, 4, 44, 183.4287872314453
0, 4, 45, 197.2198486328125
0, 4, 46, 185.7466735839844
0, 4, 47, 180.02880859375
0, 4, 48, 186.7656402587891
0, 4, 49, 174.645751953125
0, 4, 50, 186.7608642578125
0, 4, 51, 197.9996490478516
0, 4, 52, 223.2463684082031
0, 4, 53, 205.8222961425781
0, 4, 54, 190.1701202392578
0, 4, 55, 175.1793365478516
0, 4, 56, 191.3396453857422
0, 4, 57, 190.9912414550781
0, 4, 58, 188.1765899658203
0, 4, 59, 189.2783660888672
0, 4, 60, 196.2508697509766
0, 4, 61, 193.3175964355469
0, 4, 62, 191.4008026123047
0, 4, 63, 180.3852386474609
0, 4, 64, 211.0888061523438
0, 4, 65, 190.6990509033203
0, 4, 66, 200.3053741455078
0, 4, 67, 201.5944976806641
0, 4, 68, 200.6164703369141
0, 4, 69, 198.5999908447266
0, 4, 70, 206.054931640625
0, 4, 71, 206.9246520996094
0, 4, 72, 215.2294006347656
0, 4, 73, 185.5233917236328
0, 4, 74, 181.1588287353516
0, 4, 75, 186.0032501220703
0, 4, 76, 190.2518615722656
0, 4, 77, 184.1104583740234
0, 4, 78, 194.8323364257812
0, 4, 79, 203.6182098388672
0, 4, 80, 211.4808807373047
0, 4, 81, 198.9156188964844
0, 4, 82, 182.4636077880859
0, 4, 83, 169.3928833007812
0, 4, 84, 192.5811767578125
0, 4, 85, 195.7834625244141
0, 4, 86, 181.0748291015625
0, 4, 87, 183.3242797851562
0, 4, 88, 205.1522064208984
0, 4, 89, 187.7756652832031
0, 4, 90, 212.0284271240234
0, 4, 91, 189.6421966552734
0, 4, 92, 197.6463165283203
0, 4, 93, 196.5197601318359
0, 4, 94, 184.1728363037109
0, 4, 95, 175.7028656005859
0, 4, 96, 190.257568359375
0, 4, 97, 194.2351684570312
0, 4, 98, 200.402099609375
0, 4, 99, 185.1478729248047
0, 4, 100, 182.6579284667969
0, 4, 101, 178.13818359375
0, 4, 102, 175.1941375732422
0, 4, 103, 185.274169921875
0, 4, 104, 209.3453674316406
0, 4, 105, 189.7744445800781
0, 4, 106, 180.2226867675781
0, 4, 107, 182.3425903320312
0, 4, 108, 151.3073577880859
0, 4, 109, 48.4189453125
0, 4, 110, 10.58858394622803
0, 4, 111, 8.017269134521484
0, 4, 112, 6.153436660766602
0, 4, 113, 6.077471733093262
0, 4, 114, 6.816052436828613
0, 4, 115, 4.164337158203125
0, 4, 116, 4.424023151397705
0, 4, 117, 3.711802005767822
0, 4, 118, 3.914923429489136
0, 4, 119, 3.290651321411133
0, 4, 120, 1.993240594863892
0, 4, 121, 1.315021634101868
0, 4, 122, 1.991500020027161
0, 4, 123, 2.02203893661499
0, 4, 124, 3.624311923980713
0, 4, 125, 3.37322211265564
0, 4, 126, 4.389560699462891
0, 4, 127, 1.171633124351501
0, 5, 0, 2.370393991470337
0, 5, 1, 2.897922992706299
0, 5, 2, 4.862886428833008
0, 5, 3, 3.813086748123169
0, 5, 4, 2.988856792449951
0, 5, 5, 1.234515190124512
0, 5, 6, 2.78767204284668
0, 5, 7, 3.06509804725647
0, 5, 8, 1.841317296028137
0, 5, 9, 2.245306253433228
0, 5, 10, 3.662207365036011
0, 5, 11, 2.600326299667358
0, 5, 12, 4.227845668792725
0, 5, 13, 3.709734678268433
0, 5, 14, 5.011422157287598
0, 5, 15, 10.34060859680176
0, 5, 16, 7.355481147766113
0, 5, 17, 21.78623008728027
0, 5, 18, 82.92604827880859
0, 5, 19, 163.049072265625
0, 5, 20, 183.0139007568359
0, 5, 21, 177.7329406738281
0, 5, 22, 171.5892181396484
0, 5, 23, 200.5641479492188
0, 5, 24, 187.0358123779297
0, 5, 25, 208.1073760986328
0, 5, 26, 183.0380249023438
0, 5, 27, 194.2133026123047
0, 5, 28, 191.0859375
0, 5, 29, 195.5305938720703
0, 5, 30, 177.3987121582031
0, 5, 31, 180.5111846923828
0, 5, 32, 186.2644958496094
0, 5, 33, 168.87451171875
0, 5, 34, 196.2219390869141
0, 5, 35, 198.1159973144531
0, 5, 36, 168.5353088378906
0, 5, 37, 197.3822021484375
0, 5, 38, 181.1245574951172
0, 5, 39, 186.3623504638672
0, 5, 40, 196.3522491455078
0, 5, 41, 176.7602691650391
0, 5, 42, 187.1560974121094
0, 5, 43, 191.7389526367188
0, 5, 44, 199.8395233154297
0, 5, 45, 187.3854675292969
0, 5, 46, 192.8444213867188
0, 5, 47, 181.3403778076172
0, 5, 48, 177.8235626220703
0, 5, 49, 178.0578460693359
0, 5, 50, 186.3209838867188
0, 5, 51, 171.5872192382812
0, 5, 52, 167.389404296875
0, 5, 53, 181.9245300292969
0, 5, 54, 172.7964782714844
0, 5, 55, 216.4864807128906
0, 5, 56, 181.5806274414062
0, 5, 57, 206.3684692382812
0, 5, 58, 181.1321716308594
0, 5, 59, 180.5700073242188
0, 5, 60, 218.6173553466797
0, 5, 61, 184.159912109375
0, 5, 62, 179.1358184814453
0, 5, 63, 180.3996276855469
0, 5, 64, 194.4600830078125
0, 5, 65, 209.4640960693359
0, 5, 66, 191.9604797363281
0, 5, 67, 199.3569030761719
0, 5, 68, 185.3335418701172
0, 5, 69, 186.1374664306641
0, 5, 70, 185.4163513183594
0, 5, 71, 193.1613006591797
0, 5, 72, 197.9139099121094
0, 5, 73, 202.9569854736328
0, 5, 74, 178.7230072021484
0, 5, 75, 202.8139801025391
0, 5, 76, 216.9579772949219
0, 5, 77, 180.0877532958984
0, 5, 78, 194.1371002197266
0, 5, 79, 189.7546539306641
0, 5, 80, 197.2064971923828
0, 5, 81, 203.1254119873047
0, 5, 82, 201.2047271728516
0, 5, 83, 189.0667114257812
0, 5, 84, 204.8884429931641
0, 5, 85, 176.6828002929688
0, 5, 86, 195.3999786376953
0, 5, 87, 189.4009246826172
0, 5, 88, 176.9697875976562
0, 5, 89, 194.2048950195312
0, 5, 90, 198.4159240722656
0, 5, 91, 194.0951385498047
0, 5, 92, 190.6515045166016
0, 5, 93, 189.6069793701172
0, 5, 94, 207.4884643554688
0, 5, 95, 176.9180145263672
0, 5, 96, 182.4044036865234
0, 5, 97, 191.2198333740234
0, 5, 98, 189.6452484130859
0, 5, 99, 194.9756469726562
0, 5, 100, 185.9664611816406
0, 5, 101, 196.0677642822266
0, 5, 102, 182.0526428222656
0, 5, 103, 175.8062744140625
0, 5, 104, 190.3955078125
0, 5, 105, 189.5012054443359
0, 5, 106, 176.8073577880859
0, 5, 107, 183.9837951660156
0, 5, 108, 177.1011962890625
0, 5, 109, 91.76305389404297
0, 5, 110, 29.85892868041992
0, 5, 111, 9.999070167541504
0, 5, 112, 6.222671031951904
0, 5, 113, 7.724483489990234
0, 5, 114, 7.118515968322754
0, 5, 115, 6.161581039428711
0, 5, 116, 3.850488185882568
0, 5, 117, 3.340826749801636
0, 5, 118, 3.395271301269531
0, 5, 119, 3.208230495452881
0, 5, 120, 3.310436725616455
0, 5, 121, 2.686336994171143
0, 5, 122, 2.07961893081665
0, 5, 123, 4.559545516967773
0, 5, 124, 3.628509283065796
0, 5, 125, 1.984300017356873
0, 5, 126, 1.447729825973511
0, 5, 127, 1.821680068969727
0, 6, 0, 4.295047283172607
0, 6, 1, 4.044455528259277
0, 6, 2, 4.423829555511475
0, 6, 3, 1.393543839454651
0, 6, 4, 3.015149354934692
0, 6, 5, 3.868940591812134
0, 6, 6, 2.728925228118896
0, 6, 7, 3.771971940994263
0, 6, 8, 3.658188819885254
0, 6, 9, 3.220069169998169
0, 6, 10, 3.746346712112427
0, 6, 11, 3.483673334121704
0, 6, 12, 5.132883548736572
0, 6, 13, 5.308976650238037
0, 6, 14, 5.057512283325195
0, 6, 15, 6.574694633483887
0, 6, 16, 13.58828258514404
0, 6, 17, 28.5112190246582
0, 6, 18, 112.0642166137695
0, 6, 19, 191.6033782958984
0, 6, 20, 196.3354797363281
0, 6, 21, 198.1936187744141
0, 6, 22, 190.8307800292969
0, 6, 23, 190.3625946044922
0, 6, 24, 201.0331115722656
0, 6, 25, 182.8759155273438
0, 6, 26, 187.7104034423828
0, 6, 27, 192.8334197998047
0, 6, 28, 189.2860717773438
0, 6, 29, 209.9479370117188
0, 6, 30, 189.7147979736328
0, 6, 31, 193.5363159179688
0, 6, 32, 206.2747955322266
0, 6, 33, 184.8622741699219
0, 6, 34, 196.9158325195312
0, 6, 35, 188.3092956542969
0, 6, 36, 181.2033386230469
0, 6, 37, 182.8220672607422
0, 6, 38, 185.4872436523438
0, 6, 39, 195.6057891845703
0, 6, 40, 174.7961578369141
0, 6, 41, 185.6853637695312
0, 6, 42, 174.4141540527344
0, 6, 43, 208.8197021484375
0, 6, 44, 209.5660400390625
0, 6, 45, 194.2065582275391
0, 6, 46, 187.9669342041016
0, 6, 47, 204.3916320800781
0, 6, 48, 188.5856628417969
0, 6, 49, 178.5772705078125
0, 6, 50, 181.7764587402344
0, 6, 51, 195.8566589355469
0, 6, 52, 197.6296691894531
0, 6, 53, 184.7503509521484
0, 6, 54, 175.7626037597656
0, 6, 55, 194.2712249755859
0, 6, 56, 203.5094299316406
0, 6, 57, 193.6634368896484
0, 6, 58, 177.5421600341797
0, 6, 59, 192.5812377929688
0, 6, 60, 184.4491119384766
0, 6, 61, 194.1592254638672
0, 6, 62, 196.8959808349609
0, 6, 63, 186.5928192138672
0, 6, 64, 167.5209197998047
0, 6, 65, 185.1789703369141
0, 6, 66, 197.7263641357422
0, 6, 67, 214.5906829833984
0, 6, 68, 179.9421844482422
0, 6, 69, 171.19873046875
0, 6, 70, 187.4661865234375
0, 6, 71, 170.9273834228516
0, 6, 72, 176.2192077636719
0, 6, 73, 177.1754760742188
0, 6, 74, 210.9699401855469
0, 6, 75, 227.2401885986328
0, 6, 76, 184.1732940673828
0, 6, 77, 172.9626922607422
0, 6, 78, 176.4150085449219
0, 6, 79, 188.4921875
0, 6, 80, 187.2823333740234
0, 6, 81, 209.9208831787109
0, 6, 82, 194.6281433105469
0, 6, 83, 195.7964935302734
0, 6, 84, 196.8525390625
0, 6, 85, 181.4715881347656
0, 6, 86, 202.4002380371094
0, 6, 87, 185.4865417480469
0, 6, 88, 193.5169525146484
0, 6, 89, 188.7072906494141
0, 6, 90, 205.2514038085938
0, 6, 91, 200.3808135986328
0, 6, 92, 173.3594360351562
0, 6, 93, 192.5955963134766
0, 6, 94, 189.5824737548828
0, 6, 95, 186.6111297607422
0, 6, 96, 189.0627288818359
0, 6, 97, 195.3386535644531
0, 6, 98, 182.7063598632812
0, 6, 99, 175.4542083740234
0, 6, 100, 201.4041442871094
0, 6, 101, 169.0542297363281
0, 6, 102, 201.6192626953125
0, 6, 103, 196.5893249511719
0, 6, 104, 183.8461608886719
0, 6, 105, 194.0338287353516
0, 6, 106, 177.0155334472656
0, 6, 107, 194.4263153076172
0, 6, 108, 171.2626647949219
0, 6, 109, 114.9191436767578
0, 6, 110, 34.58800506591797
0, 6, 111, 9.021698951721191
0, 6, 112, 7.931120872497559
0, 6, 113, 5.542437553405762
0, 6, 114, 5.550168037414551
0, 6, 115, 5.706580638885498
0, 6, 116, 4.381687164306641
0, 6, 117, 4.706066608428955
0, 6, 118, 3.65543532371521
0, 6, 119, 3.770985841751099
0, 6, 120, 1.318593144416809
0, 6, 121, 3.873305320739746
0, 6, 122, 2.844282150268555
0, 6, 123, 2.33759069442749
0, 6, 124, 2.08722186088562
0, 6, 125, 4.142919063568115
0, 6, 126, 2.545335054397583
0, 6, 127, 2.037580966949463
0, 7, 0, 3.155044317245483
0, 7, 1, 1.388914823532104
0, 7, 2, 3.121216058731079
0, 7, 3, 3.911221027374268
0, 7, 4, 0.8838736414909363
0, 7, 5, 3.842523813247681
0, 7, 6, 3.712596416473389
0, 7, 7, 1.578931570053101
0, 7, 8, 2.857324838638306
0, 7, 9, 2.935066938400269
0, 7, 10, 4.364903926849365
0, 7, 11, 3.775885105133057
0, 7, 12, 3.487514495849609
0, 7, 13, 5.47278881072998
0, 7, 14, 7.143263816833496
0, 7, 15, 7.436735153198242
0, 7, 16, 17.4304027557373
0, 7, 17, 49.82463455200195
0, 7, 18, 161.4401702880859
0, 7, 19, 181.4544372558594
0, 7, 20, 178.8425140380859
0, 7, 21, 181.2762451171875
0, 7, 22, 190.6560974121094
0, 7, 23, 202.0985260009766
0, 7, 24, 179.4279632568359
0, 7, 25, 213.0016021728516
0, 7, 26, 189.7693634033203
0, 7, 27, 181.7674865722656
0, 7, 28, 183.5780029296875
0, 7, 29, 209.4922027587891
0, 7, 30, 193.0496520996094
0, 7, 31, 175.2460632324219
0, 7, 32, 191.3895721435547
0, 7, 33, 180.9247894287109
0, 7, 34, 195.5717468261719
0, 7, 35, 197.4156188964844
0, 7, 36, 186.7142486572266
0, 7, 37, 213.4493560791016
0, 7, 38, 191.3372650146484
0, 7, 39, 173.3341827392578
0, 7, 40, 183.9355773925781
0, 7, 41, 184.8811645507812
0, 7, 42, 177.3736724853516
0, 7, 43, 178.1190795898438
0, 7, 44, 180.3063049316406
0, 7, 45, 175.5395965576172
0, 7, 46, 189.8049621582031
0, 7, 47, 197.9077758789062
0, 7, 48, 185.6472625732422
0, 7, 49, 199.8504028320312
0, 7, 50, 189.5050201416016
0, 7, 51, 204.4714660644531
0, 7, 52, 204.1645660400391
0, 7, 53, 191.1275787353516
0, 7, 54, 196.1376647949219
0, 7, 55, 202.6920166015625
0, 7, 56, 183.3868865966797
0, 7, 57, 182.6417236328125
0, 7, 58, 193.1573028564453
0, 7, 59, 187.9703674316406
0, 7, 60, 204.3471527099609
0, 7, 61, 171.4862365722656
0, 7, 62, 202.826416015625
0, 7, 63, 189.1976013183594
0, 7, 64, 199.4801177978516
0, 7, 65, 197.2205200195312
0, 7, 66, 206.3021545410156
0, 7, 67, 221.5062255859375
0, 7, 68, 165.2113494873047
0, 7, 69, 194.4116363525391
0, 7, 70, 218.0313568115234
0, 7, 71, 184.0966949462891
0, 7, 72, 181.3047943115234
0, 7, 73, 176.5944976806641
0, 7, 74, 208.3326110839844
0, 7, 75, 205.4794921875
0, 7, 76, 215.4440155029297
0, 7, 77, 174.4910430908203
0, 7, 78, 177.1871795654297
0, 7, 79, 192.2113342285156
0, 7, 80, 195.3084411621094
0, 7, 81, 214.7391815185547
0, 7, 82, 185.0237731933594
0, 7, 83, 204.9156494140625
0, 7, 84, 192.0388031005859
0, 7, 85, 187.2998046875
0, 7, 86, 201.6197357177734
0, 7, 87, 227.5667419433594
0, 7, 88, 194.5227203369141
0, 7, 89, 176.3133850097656
0, 7, 90, 182.1839447021484
0, 7, 91, 195.5192413330078
0, 7, 92, 194.2713165283203
0, 7, 93, 199.9496154785156
0, 7, 94, 180.5585021972656
0, 7, 95, 200.1440887451172
0, 7, 96, 208.4020538330078
0, 7, 97, 189.0641174316406
0, 7, 98, 176.9562835693359
0, 7, 99, 197.0501861572266
0, 7, 100, 182.5237731933594
0, 7, 101, 200.1051025390625
0, 7, 102, 185.0170288085938
0, 7, 103, 181.5997467041016
0, 7, 104, 174.827392578125
0, 7, 105, 195.4539947509766
0, 7, 106, 204.8682250976562
0, 7, 107, 173.7920532226562
0, 7, 108, 177.2997131347656
0, 7, 109, 136.78125
0, 7, 110, 53.4433708190918
0, 7, 111, 8.773046493530273
0, 7, 112, 8.353315353393555
0, 7, 113, 8.92940616607666
0, 7, 114, 8.136302947998047
0, 7, 115, 4.599326610565186
0, 7, 116, 4.309597969055176
0, 7, 117, 2.42724347114563
0, 7, 118, 3.513562202453613
0, 7, 119, 2.349377155303955
0, 7, 120, 2.688438892364502
0, 7, 121, 7.086335182189941
0, 7, 122, 2.025219917297363
0, 7, 123, 1.442559838294983
0, 7, 124, 1.688029408454895
0, 7, 125, 2.09147572517395
0, 7, 126, 3.221199989318848
0, 7, 127, 2.114975452423096
0, 8, 0, 4.019882678985596
0, 8, 1, 1.984480857849121
0, 8, 2, 3.36366081237793
0, 8, 3, 1.860363960266113
0, 8, 4, 1.536437273025513
0, 8, 5, 2.822043418884277
0, 8, 6, 2.292082786560059
0, 8, 7, 4.962302207946777
0, 8, 8, 3.721975326538086
0, 8, 9, 4.404296398162842
0, 8, 10, 3.375900983810425
0, 8, 11, 2.219285488128662
0, 8, 12, 3.397441148757935
0, 8, 13, 5.751692295074463
0, 8, 14, 5.835554122924805
0, 8, 15, 9.556785583496094
0, 8, 16, 19.03045654296875
0, 8, 17, 77.2916259765625
0, 8, 18, 142.9457397460938
0, 8, 19, 179.8037261962891
0, 8, 20, 194.8524322509766
0, 8, 21, 192.0512542724609
0, 8, 22, 179.3816070556641
0, 8, 23, 172.1614685058594
0, 8, 24, 191.6474914550781
0, 8, 25, 185.2776031494141
0, 8, 26, 192.9385681152344
0, 8, 27, 185.8892059326172
0, 8, 28, 187.6693878173828
0, 8, 29, 207.9755401611328
0, 8, 30, 196.9708404541016
0, 8, 31, 181.4576721191406
0, 8, 32, 197.5363006591797
0, 8, 33, 206.9480133056641
0, 8, 34, 203.063232421875
0, 8, 35, 186.6061859130859
0, 8, 36, 182.6280059814453
0, 8, 37, 198.3725128173828
