# TOPAS Version: 3.1.p3
# Parameter File: batch_inserts_274.txt
# Results for scorer Readout_Adipose
# Scored in component: MyBox
# X in 1 bin  of 0.65 cm
# Y in 512 bins of 0.0783984 cm
# Z in 128 bins of 0.078125 cm
# EnergyDeposit ( MeV ) : Sum   
0, 0, 0, 1.877629280090332
0, 0, 1, 3.158319234848022
0, 0, 2, 1.054801225662231
0, 0, 3, 1.092744588851929
0, 0, 4, 3.552371978759766
0, 0, 5, 0.4512155950069427
0, 0, 6, 1.737525820732117
0, 0, 7, 1.931975245475769
0, 0, 8, 1.369832396507263
0, 0, 9, 2.421217203140259
0, 0, 10, 3.258028030395508
0, 0, 11, 3.527267456054688
0, 0, 12, 5.294528484344482
0, 0, 13, 2.51384711265564
0, 0, 14, 5.132713794708252
0, 0, 15, 5.923345565795898
0, 0, 16, 3.69770073890686
0, 0, 17, 7.13865327835083
0, 0, 18, 7.827383041381836
0, 0, 19, 22.89587211608887
0, 0, 20, 94.60234832763672
0, 0, 21, 152.5447692871094
0, 0, 22, 153.6743621826172
0, 0, 23, 143.9155578613281
0, 0, 24, 160.6839599609375
0, 0, 25, 166.3222808837891
0, 0, 26, 167.0281524658203
0, 0, 27, 174.8006286621094
0, 0, 28, 178.1930389404297
0, 0, 29, 174.8445434570312
0, 0, 30, 172.5841522216797
0, 0, 31, 166.186279296875
0, 0, 32, 164.82861328125
0, 0, 33, 168.4810791015625
0, 0, 34, 177.97265625
0, 0, 35, 175.3320922851562
0, 0, 36, 160.2187347412109
0, 0, 37, 161.9132385253906
0, 0, 38, 166.6515808105469
0, 0, 39, 159.6429901123047
0, 0, 40, 164.5113067626953
0, 0, 41, 166.1257019042969
0, 0, 42, 144.0580291748047
0, 0, 43, 167.7009429931641
0, 0, 44, 177.731201171875
0, 0, 45, 174.3381652832031
0, 0, 46, 168.1226043701172
0, 0, 47, 168.6126556396484
0, 0, 48, 170.1004638671875
0, 0, 49, 182.6631469726562
0, 0, 50, 169.0850219726562
0, 0, 51, 161.3409729003906
0, 0, 52, 165.4460906982422
0, 0, 53, 172.9058380126953
0, 0, 54, 159.2476654052734
0, 0, 55, 164.9329986572266
0, 0, 56, 189.0937805175781
0, 0, 57, 170.8942413330078
0, 0, 58, 164.5393829345703
0, 0, 59, 172.1834564208984
0, 0, 60, 169.4661407470703
0, 0, 61, 169.4357147216797
0, 0, 62, 182.7333221435547
0, 0, 63, 167.6159057617188
0, 0, 64, 163.9611511230469
0, 0, 65, 175.847412109375
0, 0, 66, 177.8227844238281
0, 0, 67, 163.4826507568359
0, 0, 68, 158.1472625732422
0, 0, 69, 158.5583343505859
0, 0, 70, 169.8401336669922
0, 0, 71, 158.9826202392578
0, 0, 72, 162.449462890625
0, 0, 73, 171.6202697753906
0, 0, 74, 163.9378509521484
0, 0, 75, 163.3641662597656
0, 0, 76, 162.8494415283203
0, 0, 77, 173.1429443359375
0, 0, 78, 183.2289276123047
0, 0, 79, 175.1802368164062
0, 0, 80, 159.9065399169922
0, 0, 81, 161.1363830566406
0, 0, 82, 182.1345520019531
0, 0, 83, 174.8313903808594
0, 0, 84, 160.7403411865234
0, 0, 85, 181.6495361328125
0, 0, 86, 158.7496032714844
0, 0, 87, 176.9785461425781
0, 0, 88, 177.0708465576172
0, 0, 89, 177.1100006103516
0, 0, 90, 162.8092498779297
0, 0, 91, 185.4003448486328
0, 0, 92, 164.0448913574219
0, 0, 93, 156.5009918212891
0, 0, 94, 168.5737762451172
0, 0, 95, 173.624267578125
0, 0, 96, 184.0975341796875
0, 0, 97, 183.4544982910156
0, 0, 98, 186.3864288330078
0, 0, 99, 171.2794036865234
0, 0, 100, 159.6319427490234
0, 0, 101, 166.7034912109375
0, 0, 102, 170.0141906738281
0, 0, 103, 170.6414031982422
0, 0, 104, 168.6956024169922
0, 0, 105, 179.0167083740234
0, 0, 106, 159.3497161865234
0, 0, 107, 85.65132141113281
0, 0, 108, 23.26195907592773
0, 0, 109, 8.754894256591797
0, 0, 110, 6.212143898010254
0, 0, 111, 6.306253433227539
0, 0, 112, 3.395622730255127
0, 0, 113, 3.027479648590088
0, 0, 114, 2.464321374893188
0, 0, 115, 2.027637720108032
0, 0, 116, 1.969608306884766
0, 0, 117, 2.774923324584961
0, 0, 118, 3.10285210609436
0, 0, 119, 1.719480991363525
0, 0, 120, 2.56620454788208
0, 0, 121, 4.652839660644531
0, 0, 122, 4.123079299926758
0, 0, 123, 4.455307006835938
0, 0, 124, 1.60042405128479
0, 0, 125, 2.90946102142334
0, 0, 126, 1.47305154800415
0, 0, 127, 2.650315523147583
0, 1, 0, 3.177889585494995
0, 1, 1, 4.723265171051025
0, 1, 2, 2.193930625915527
0, 1, 3, 1.827539920806885
0, 1, 4, 1.118916392326355
0, 1, 5, 3.073994398117065
0, 1, 6, 1.447929978370667
0, 1, 7, 1.973186135292053
0, 1, 8, 3.156404972076416
0, 1, 9, 1.517059803009033
0, 1, 10, 2.625959396362305
0, 1, 11, 4.007326126098633
0, 1, 12, 3.784709453582764
0, 1, 13, 3.819526195526123
0, 1, 14, 5.486908912658691
0, 1, 15, 5.419641494750977
0, 1, 16, 8.131097793579102
0, 1, 17, 5.362313270568848
0, 1, 18, 10.71742916107178
0, 1, 19, 39.40635681152344
0, 1, 20, 125.2700576782227
0, 1, 21, 177.0868072509766
0, 1, 22, 192.9030609130859
0, 1, 23, 186.8426971435547
0, 1, 24, 180.4053192138672
0, 1, 25, 192.5511627197266
0, 1, 26, 197.7034912109375
0, 1, 27, 186.1934356689453
0, 1, 28, 188.4898071289062
0, 1, 29, 184.0454864501953
0, 1, 30, 179.6902465820312
0, 1, 31, 182.6345520019531
0, 1, 32, 188.7661590576172
0, 1, 33, 191.9604034423828
0, 1, 34, 184.5578002929688
0, 1, 35, 193.5465393066406
0, 1, 36, 204.8952026367188
0, 1, 37, 185.1917114257812
0, 1, 38, 165.0001068115234
0, 1, 39, 171.3948822021484
0, 1, 40, 181.7015533447266
0, 1, 41, 185.6809387207031
0, 1, 42, 184.2908325195312
0, 1, 43, 186.3332977294922
0, 1, 44, 169.0859527587891
0, 1, 45, 187.1840209960938
0, 1, 46, 170.0122985839844
0, 1, 47, 184.8817901611328
0, 1, 48, 187.4324188232422
0, 1, 49, 186.7532043457031
0, 1, 50, 178.0348205566406
0, 1, 51, 191.7198638916016
0, 1, 52, 195.0942077636719
0, 1, 53, 195.4981689453125
0, 1, 54, 185.4196929931641
0, 1, 55, 165.471923828125
0, 1, 56, 178.8300018310547
0, 1, 57, 177.9826049804688
0, 1, 58, 188.6241455078125
0, 1, 59, 195.0648040771484
0, 1, 60, 188.53125
0, 1, 61, 178.8448333740234
0, 1, 62, 205.7721710205078
0, 1, 63, 176.2502746582031
0, 1, 64, 172.4230346679688
0, 1, 65, 185.3084869384766
0, 1, 66, 203.4433288574219
0, 1, 67, 183.0517730712891
0, 1, 68, 186.8080444335938
0, 1, 69, 188.7939605712891
0, 1, 70, 185.4680938720703
0, 1, 71, 170.8470764160156
0, 1, 72, 187.4201812744141
0, 1, 73, 189.4971923828125
0, 1, 74, 201.1828002929688
0, 1, 75, 183.9530181884766
0, 1, 76, 173.8873901367188
0, 1, 77, 192.2288208007812
0, 1, 78, 187.3824768066406
0, 1, 79, 201.6804962158203
0, 1, 80, 185.5595397949219
0, 1, 81, 174.8906707763672
0, 1, 82, 207.0403442382812
0, 1, 83, 211.4949493408203
0, 1, 84, 180.9357147216797
0, 1, 85, 170.1026763916016
0, 1, 86, 168.9141235351562
0, 1, 87, 184.2072906494141
0, 1, 88, 176.0353393554688
0, 1, 89, 187.0178680419922
0, 1, 90, 212.5830841064453
0, 1, 91, 184.1957855224609
0, 1, 92, 184.8049468994141
0, 1, 93, 180.7855529785156
0, 1, 94, 187.7278900146484
0, 1, 95, 182.9071655273438
0, 1, 96, 195.5399475097656
0, 1, 97, 182.6526641845703
0, 1, 98, 186.1737213134766
0, 1, 99, 175.3246154785156
0, 1, 100, 170.6903533935547
0, 1, 101, 177.7437286376953
0, 1, 102, 182.3591156005859
0, 1, 103, 173.0896148681641
0, 1, 104, 189.1182861328125
0, 1, 105, 183.6463165283203
0, 1, 106, 163.5215454101562
0, 1, 107, 123.257942199707
0, 1, 108, 45.93327331542969
0, 1, 109, 9.911728858947754
0, 1, 110, 7.91830587387085
0, 1, 111, 6.570846080780029
0, 1, 112, 8.156173706054688
0, 1, 113, 7.076358795166016
0, 1, 114, 4.532415866851807
0, 1, 115, 4.403189659118652
0, 1, 116, 2.170972347259521
0, 1, 117, 1.971955895423889
0, 1, 118, 3.384864807128906
0, 1, 119, 0.9088698029518127
0, 1, 120, 3.800475120544434
0, 1, 121, 3.612953424453735
0, 1, 122, 2.744584321975708
0, 1, 123, 4.681454181671143
0, 1, 124, 3.304557323455811
0, 1, 125, 2.175347328186035
0, 1, 126, 1.677579164505005
0, 1, 127, 2.151401519775391
0, 2, 0, 1.337163329124451
0, 2, 1, 2.272000551223755
0, 2, 2, 3.989747762680054
0, 2, 3, 1.994380712509155
0, 2, 4, 1.073148488998413
0, 2, 5, 1.322692513465881
0, 2, 6, 2.845409870147705
0, 2, 7, 2.195443630218506
0, 2, 8, 0.9102327227592468
0, 2, 9, 1.510710597038269
0, 2, 10, 6.294349193572998
0, 2, 11, 5.058596134185791
0, 2, 12, 4.559041023254395
0, 2, 13, 3.710791349411011
0, 2, 14, 4.066730976104736
0, 2, 15, 5.627957820892334
0, 2, 16, 5.041426181793213
0, 2, 17, 8.780756950378418
0, 2, 18, 14.16166687011719
0, 2, 19, 77.64228057861328
0, 2, 20, 162.1574401855469
0, 2, 21, 183.6918334960938
0, 2, 22, 194.6231231689453
0, 2, 23, 184.4486846923828
0, 2, 24, 173.1501922607422
0, 2, 25, 184.0547943115234
0, 2, 26, 178.5953216552734
0, 2, 27, 189.3330383300781
0, 2, 28, 171.0161743164062
0, 2, 29, 169.5356292724609
0, 2, 30, 188.0472259521484
0, 2, 31, 183.7855682373047
0, 2, 32, 184.5031890869141
0, 2, 33, 191.9790496826172
0, 2, 34, 198.1979522705078
0, 2, 35, 181.5046234130859
0, 2, 36, 185.8905792236328
0, 2, 37, 180.4294281005859
0, 2, 38, 184.1042327880859
0, 2, 39, 166.2928161621094
0, 2, 40, 183.9913787841797
0, 2, 41, 185.2959899902344
0, 2, 42, 191.0333099365234
0, 2, 43, 193.7701873779297
0, 2, 44, 190.5972900390625
0, 2, 45, 189.7440795898438
0, 2, 46, 196.0934448242188
0, 2, 47, 191.6710510253906
0, 2, 48, 178.9415588378906
0, 2, 49, 197.5124664306641
0, 2, 50, 167.66455078125
0, 2, 51, 184.4296722412109
0, 2, 52, 186.8074951171875
0, 2, 53, 196.7784271240234
0, 2, 54, 174.3502197265625
0, 2, 55, 173.6715545654297
0, 2, 56, 181.6270751953125
0, 2, 57, 199.8047790527344
0, 2, 58, 186.7010955810547
0, 2, 59, 189.6761169433594
0, 2, 60, 196.4688262939453
0, 2, 61, 193.7315979003906
0, 2, 62, 189.3660278320312
0, 2, 63, 169.8072509765625
0, 2, 64, 190.9568634033203
0, 2, 65, 202.0563659667969
0, 2, 66, 197.3564147949219
0, 2, 67, 184.3776092529297
0, 2, 68, 182.3007659912109
0, 2, 69, 187.9591979980469
0, 2, 70, 203.0002288818359
0, 2, 71, 175.1643676757812
0, 2, 72, 186.3285217285156
0, 2, 73, 177.3733673095703
0, 2, 74, 180.9545288085938
0, 2, 75, 196.0640411376953
0, 2, 76, 183.4833068847656
0, 2, 77, 177.5498504638672
0, 2, 78, 198.7928009033203
0, 2, 79, 177.6684875488281
0, 2, 80, 187.0633087158203
0, 2, 81, 186.870361328125
0, 2, 82, 205.7184295654297
0, 2, 83, 203.4718627929688
0, 2, 84, 187.9992980957031
0, 2, 85, 170.7235870361328
0, 2, 86, 194.7469024658203
0, 2, 87, 172.4507293701172
0, 2, 88, 179.7977142333984
0, 2, 89, 184.1624908447266
0, 2, 90, 178.3132934570312
0, 2, 91, 173.6721038818359
0, 2, 92, 197.0446319580078
0, 2, 93, 193.5340576171875
0, 2, 94, 198.9354553222656
0, 2, 95, 194.8848724365234
0, 2, 96, 188.2000274658203
0, 2, 97, 171.8545074462891
0, 2, 98, 173.6251678466797
0, 2, 99, 161.8704071044922
0, 2, 100, 187.8109893798828
0, 2, 101, 196.0766448974609
0, 2, 102, 176.8904724121094
0, 2, 103, 198.99267578125
0, 2, 104, 188.3362274169922
0, 2, 105, 201.5272064208984
0, 2, 106, 194.9874725341797
0, 2, 107, 149.469482421875
0, 2, 108, 79.27745819091797
0, 2, 109, 17.94296646118164
0, 2, 110, 8.727849960327148
0, 2, 111, 5.995931148529053
0, 2, 112, 4.40473461151123
0, 2, 113, 5.944128513336182
0, 2, 114, 7.889676094055176
0, 2, 115, 5.625481128692627
0, 2, 116, 1.371590852737427
0, 2, 117, 1.581790328025818
0, 2, 118, 3.912205696105957
0, 2, 119, 2.322966575622559
0, 2, 120, 1.519483089447021
0, 2, 121, 3.157588958740234
0, 2, 122, 3.006574869155884
0, 2, 123, 2.251296281814575
0, 2, 124, 2.301234245300293
0, 2, 125, 1.326364159584045
0, 2, 126, 2.519495248794556
0, 2, 127, 0.3068105578422546
0, 3, 0, 1.59680962562561
0, 3, 1, 1.039014339447021
0, 3, 2, 1.649919390678406
0, 3, 3, 1.28649377822876
0, 3, 4, 4.282134056091309
0, 3, 5, 2.824185609817505
0, 3, 6, 1.927144646644592
0, 3, 7, 1.591053247451782
0, 3, 8, 2.044395446777344
0, 3, 9, 3.526663780212402
0, 3, 10, 2.788627624511719
0, 3, 11, 3.832004547119141
0, 3, 12, 3.74065375328064
0, 3, 13, 3.984102725982666
0, 3, 14, 4.505747318267822
0, 3, 15, 6.034797191619873
0, 3, 16, 9.837151527404785
0, 3, 17, 6.885349750518799
0, 3, 18, 32.60002517700195
0, 3, 19, 114.9922714233398
0, 3, 20, 179.8865509033203
0, 3, 21, 172.7478179931641
0, 3, 22, 177.8184967041016
0, 3, 23, 187.4300994873047
0, 3, 24, 177.2973327636719
0, 3, 25, 168.4483184814453
0, 3, 26, 180.5448150634766
0, 3, 27, 189.6272735595703
0, 3, 28, 182.037353515625
0, 3, 29, 197.1442108154297
0, 3, 30, 185.2770080566406
0, 3, 31, 194.5747833251953
0, 3, 32, 205.6627960205078
0, 3, 33, 197.5160369873047
0, 3, 34, 187.9330902099609
0, 3, 35, 175.4391784667969
0, 3, 36, 184.9720611572266
0, 3, 37, 200.2942962646484
0, 3, 38, 190.4541931152344
0, 3, 39, 185.5670013427734
0, 3, 40, 165.9666442871094
0, 3, 41, 175.1904449462891
0, 3, 42, 185.8699798583984
0, 3, 43, 182.2979125976562
0, 3, 44, 202.7904510498047
0, 3, 45, 208.2529602050781
0, 3, 46, 198.0219879150391
0, 3, 47, 193.9989318847656
0, 3, 48, 196.1450805664062
0, 3, 49, 180.3896789550781
0, 3, 50, 187.9978637695312
0, 3, 51, 173.6376190185547
0, 3, 52, 187.2144927978516
0, 3, 53, 179.3058471679688
0, 3, 54, 178.6808624267578
0, 3, 55, 176.2626800537109
0, 3, 56, 182.0195617675781
0, 3, 57, 177.4840240478516
0, 3, 58, 202.1849975585938
0, 3, 59, 196.1208953857422
0, 3, 60, 186.8912506103516
0, 3, 61, 181.4307708740234
0, 3, 62, 182.7543182373047
0, 3, 63, 184.5013885498047
0, 3, 64, 189.1255798339844
0, 3, 65, 186.6047058105469
0, 3, 66, 176.0503082275391
0, 3, 67, 189.8880615234375
0, 3, 68, 212.3589172363281
0, 3, 69, 190.8991241455078
0, 3, 70, 185.6408538818359
0, 3, 71, 196.4644622802734
0, 3, 72, 186.9766845703125
0, 3, 73, 186.6296081542969
0, 3, 74, 193.2990112304688
0, 3, 75, 192.4289245605469
0, 3, 76, 190.1067657470703
0, 3, 77, 197.1177978515625
0, 3, 78, 188.7879028320312
0, 3, 79, 183.9549407958984
0, 3, 80, 189.2677154541016
0, 3, 81, 183.1800689697266
0, 3, 82, 181.8476715087891
0, 3, 83, 194.6126861572266
0, 3, 84, 199.4853515625
0, 3, 85, 191.4752502441406
0, 3, 86, 204.2734375
0, 3, 87, 198.4040222167969
0, 3, 88, 191.1171112060547
0, 3, 89, 195.4249420166016
0, 3, 90, 174.1031188964844
0, 3, 91, 159.1161956787109
0, 3, 92, 207.6033172607422
0, 3, 93, 196.1612243652344
0, 3, 94, 193.1886444091797
0, 3, 95, 212.3735504150391
0, 3, 96, 209.5703887939453
0, 3, 97, 169.6393890380859
0, 3, 98, 166.9615936279297
0, 3, 99, 179.5990753173828
0, 3, 100, 176.4928894042969
0, 3, 101, 198.0902557373047
0, 3, 102, 194.8872833251953
0, 3, 103, 193.87744140625
0, 3, 104, 202.6629333496094
0, 3, 105, 175.1074371337891
0, 3, 106, 182.7018890380859
0, 3, 107, 169.0479125976562
0, 3, 108, 107.7331161499023
0, 3, 109, 29.7469596862793
0, 3, 110, 7.258018970489502
0, 3, 111, 6.806881427764893
0, 3, 112, 4.556583881378174
0, 3, 113, 6.729365825653076
0, 3, 114, 6.425704002380371
0, 3, 115, 6.860299587249756
0, 3, 116, 6.982510566711426
0, 3, 117, 2.993403911590576
0, 3, 118, 2.293970108032227
0, 3, 119, 2.221096754074097
0, 3, 120, 4.119562149047852
0, 3, 121, 1.458794236183167
0, 3, 122, 2.80729866027832
0, 3, 123, 2.313330411911011
0, 3, 124, 1.217090129852295
0, 3, 125, 1.194536447525024
0, 3, 126, 2.319022417068481
0, 3, 127, 1.051230192184448
0, 4, 0, 1.493493318557739
0, 4, 1, 1.467734694480896
0, 4, 2, 3.386866807937622
0, 4, 3, 3.334314107894897
0, 4, 4, 2.162719249725342
0, 4, 5, 0.7075246572494507
0, 4, 6, 2.927028656005859
0, 4, 7, 2.824567556381226
0, 4, 8, 1.609849572181702
0, 4, 9, 2.448995590209961
0, 4, 10, 2.908609628677368
0, 4, 11, 4.458828926086426
0, 4, 12, 4.230562210083008
0, 4, 13, 3.906975984573364
0, 4, 14, 4.868217468261719
0, 4, 15, 10.1462230682373
0, 4, 16, 5.881998538970947
0, 4, 17, 11.55876636505127
0, 4, 18, 55.40578842163086
0, 4, 19, 151.5135498046875
0, 4, 20, 192.8944702148438
0, 4, 21, 169.0770874023438
0, 4, 22, 187.66259765625
0, 4, 23, 195.7097015380859
0, 4, 24, 192.5856475830078
0, 4, 25, 198.9522247314453
0, 4, 26, 182.7899780273438
0, 4, 27, 190.3405151367188
0, 4, 28, 178.4947662353516
0, 4, 29, 205.2439880371094
0, 4, 30, 195.6405487060547
0, 4, 31, 191.8486022949219
0, 4, 32, 210.2833099365234
0, 4, 33, 189.9301300048828
0, 4, 34, 192.0594635009766
0, 4, 35, 212.36083984375
0, 4, 36, 192.1769714355469
0, 4, 37, 176.6522827148438
0, 4, 38, 193.7760467529297
0, 4, 39, 189.7925567626953
0, 4, 40, 185.6042175292969
0, 4, 41, 189.9747009277344
0, 4, 42, 206.3287811279297
0, 4, 43, 173.4879760742188
0, 4, 44, 183.4863891601562
0, 4, 45, 196.2694396972656
0, 4, 46, 185.8460693359375
0, 4, 47, 180.7348785400391
0, 4, 48, 184.7651977539062
0, 4, 49, 174.9361724853516
0, 4, 50, 187.4736022949219
0, 4, 51, 198.0620727539062
0, 4, 52, 223.3445587158203
0, 4, 53, 205.9756164550781
0, 4, 54, 189.6517028808594
0, 4, 55, 175.57568359375
0, 4, 56, 191.8982391357422
0, 4, 57, 192.3785247802734
0, 4, 58, 187.4977874755859
0, 4, 59, 189.609619140625
0, 4, 60, 196.2463836669922
0, 4, 61, 193.0195007324219
0, 4, 62, 190.9338226318359
0, 4, 63, 179.9657592773438
0, 4, 64, 212.7689514160156
0, 4, 65, 191.6089324951172
0, 4, 66, 200.7564392089844
0, 4, 67, 199.7003173828125
0, 4, 68, 204.2684936523438
0, 4, 69, 200.4653778076172
0, 4, 70, 205.7661743164062
0, 4, 71, 208.8603210449219
0, 4, 72, 215.13330078125
0, 4, 73, 185.8395690917969
0, 4, 74, 181.0329437255859
0, 4, 75, 185.4822998046875
0, 4, 76, 190.2853546142578
0, 4, 77, 186.5124969482422
0, 4, 78, 195.0244293212891
0, 4, 79, 204.3873596191406
0, 4, 80, 211.4981689453125
0, 4, 81, 197.6590423583984
0, 4, 82, 180.7205963134766
0, 4, 83, 171.5413818359375
0, 4, 84, 192.8456420898438
0, 4, 85, 195.9858856201172
0, 4, 86, 181.5858764648438
0, 4, 87, 182.7528228759766
0, 4, 88, 203.8831481933594
0, 4, 89, 187.4799194335938
0, 4, 90, 211.8009643554688
0, 4, 91, 190.3944091796875
0, 4, 92, 195.94580078125
0, 4, 93, 196.3600463867188
0, 4, 94, 181.4664611816406
0, 4, 95, 173.7963714599609
0, 4, 96, 190.4179382324219
0, 4, 97, 193.2106170654297
0, 4, 98, 201.9084014892578
0, 4, 99, 183.2090148925781
0, 4, 100, 182.7530670166016
0, 4, 101, 178.6233520507812
0, 4, 102, 175.2455596923828
0, 4, 103, 184.9905242919922
0, 4, 104, 210.3588562011719
0, 4, 105, 189.5661468505859
0, 4, 106, 178.9927520751953
0, 4, 107, 180.7241973876953
0, 4, 108, 151.6725158691406
0, 4, 109, 50.74792861938477
0, 4, 110, 12.4435338973999
0, 4, 111, 8.755953788757324
0, 4, 112, 9.854647636413574
0, 4, 113, 6.263742446899414
0, 4, 114, 7.308498382568359
0, 4, 115, 2.648024559020996
0, 4, 116, 4.846756935119629
0, 4, 117, 3.44538426399231
0, 4, 118, 3.604072570800781
0, 4, 119, 3.286742210388184
0, 4, 120, 2.238658428192139
0, 4, 121, 2.054169178009033
0, 4, 122, 2.941192388534546
0, 4, 123, 1.442287802696228
0, 4, 124, 4.461443901062012
0, 4, 125, 2.401864528656006
0, 4, 126, 1.960509657859802
0, 4, 127, 1.407563924789429
0, 5, 0, 1.705302834510803
0, 5, 1, 3.551235675811768
0, 5, 2, 6.581358909606934
0, 5, 3, 3.689473390579224
0, 5, 4, 1.550289988517761
0, 5, 5, 1.469447374343872
0, 5, 6, 2.066868543624878
0, 5, 7, 2.978116750717163
0, 5, 8, 2.122878551483154
0, 5, 9, 2.240968465805054
0, 5, 10, 3.918038845062256
0, 5, 11, 2.248151779174805
0, 5, 12, 4.274197578430176
0, 5, 13, 5.077696800231934
0, 5, 14, 6.114954471588135
0, 5, 15, 9.384871482849121
0, 5, 16, 9.159563064575195
0, 5, 17, 21.9858570098877
0, 5, 18, 82.79599761962891
0, 5, 19, 164.3978424072266
0, 5, 20, 182.9251556396484
0, 5, 21, 177.1997528076172
0, 5, 22, 171.6005096435547
0, 5, 23, 200.6348114013672
0, 5, 24, 187.1080017089844
0, 5, 25, 207.9442138671875
0, 5, 26, 182.0100402832031
0, 5, 27, 194.7101898193359
0, 5, 28, 190.6060943603516
0, 5, 29, 195.4395446777344
0, 5, 30, 177.4355163574219
0, 5, 31, 181.4600067138672
0, 5, 32, 186.3056640625
0, 5, 33, 169.85205078125
0, 5, 34, 194.5324401855469
0, 5, 35, 196.2141571044922
0, 5, 36, 168.5034637451172
0, 5, 37, 197.4011688232422
0, 5, 38, 181.9302673339844
0, 5, 39, 187.3255004882812
0, 5, 40, 197.6946868896484
0, 5, 41, 176.7005462646484
0, 5, 42, 189.0456237792969
0, 5, 43, 192.2738800048828
0, 5, 44, 199.9124755859375
0, 5, 45, 186.4881134033203
0, 5, 46, 192.8502044677734
0, 5, 47, 180.9552459716797
0, 5, 48, 178.2392120361328
0, 5, 49, 175.96337890625
0, 5, 50, 185.6907958984375
0, 5, 51, 171.7879028320312
0, 5, 52, 167.4226379394531
0, 5, 53, 181.8529357910156
0, 5, 54, 172.5427703857422
0, 5, 55, 216.4771575927734
0, 5, 56, 181.5121917724609
0, 5, 57, 208.8904724121094
0, 5, 58, 181.0012817382812
0, 5, 59, 180.7227783203125
0, 5, 60, 218.3643188476562
0, 5, 61, 186.1974945068359
0, 5, 62, 179.0031433105469
0, 5, 63, 180.0478668212891
0, 5, 64, 197.69677734375
0, 5, 65, 209.8438873291016
0, 5, 66, 191.8714141845703
0, 5, 67, 198.0172729492188
0, 5, 68, 186.9759674072266
0, 5, 69, 186.3346557617188
0, 5, 70, 184.8780975341797
0, 5, 71, 194.6291198730469
0, 5, 72, 198.7070770263672
0, 5, 73, 201.9986572265625
0, 5, 74, 179.8188171386719
0, 5, 75, 202.5684814453125
0, 5, 76, 213.9490966796875
0, 5, 77, 180.0149078369141
0, 5, 78, 194.4440765380859
0, 5, 79, 189.9715270996094
0, 5, 80, 197.8108062744141
0, 5, 81, 202.8636627197266
0, 5, 82, 201.4363403320312
0, 5, 83, 190.1380004882812
0, 5, 84, 206.6629638671875
0, 5, 85, 176.737060546875
0, 5, 86, 196.0164337158203
0, 5, 87, 187.5543212890625
0, 5, 88, 177.3639068603516
0, 5, 89, 195.5754241943359
0, 5, 90, 198.9019470214844
0, 5, 91, 193.8204650878906
0, 5, 92, 191.4893951416016
0, 5, 93, 191.2986602783203
0, 5, 94, 207.5632171630859
0, 5, 95, 177.3684234619141
0, 5, 96, 182.3541564941406
0, 5, 97, 191.3214721679688
0, 5, 98, 189.2139739990234
0, 5, 99, 197.5718841552734
0, 5, 100, 186.1533966064453
0, 5, 101, 196.3298034667969
0, 5, 102, 180.7011108398438
0, 5, 103, 176.2551727294922
0, 5, 104, 189.9582366943359
0, 5, 105, 189.9318389892578
0, 5, 106, 176.7293853759766
0, 5, 107, 181.2803192138672
0, 5, 108, 176.1332397460938
0, 5, 109, 88.43084716796875
0, 5, 110, 29.82085609436035
0, 5, 111, 9.305080413818359
0, 5, 112, 6.213058948516846
0, 5, 113, 7.425548553466797
0, 5, 114, 6.964776039123535
0, 5, 115, 6.499938488006592
0, 5, 116, 3.74217677116394
0, 5, 117, 1.964985013008118
0, 5, 118, 3.75927734375
0, 5, 119, 2.999716520309448
0, 5, 120, 2.885495662689209
0, 5, 121, 1.535785913467407
0, 5, 122, 2.567505598068237
0, 5, 123, 3.431660175323486
0, 5, 124, 3.198859930038452
0, 5, 125, 1.14078152179718
0, 5, 126, 1.677228689193726
0, 5, 127, 2.449113845825195
0, 6, 0, 3.807437658309937
0, 6, 1, 3.308867454528809
0, 6, 2, 3.513105392456055
0, 6, 3, 1.796790719032288
0, 6, 4, 3.788839340209961
0, 6, 5, 5.44622802734375
0, 6, 6, 2.847639560699463
0, 6, 7, 4.30791711807251
0, 6, 8, 3.376952409744263
0, 6, 9, 2.906187057495117
0, 6, 10, 3.735237121582031
0, 6, 11, 4.690569877624512
0, 6, 12, 4.849202632904053
0, 6, 13, 5.242866039276123
0, 6, 14, 6.066276073455811
0, 6, 15, 7.315515995025635
0, 6, 16, 11.99978733062744
0, 6, 17, 29.67571067810059
0, 6, 18, 112.2789459228516
0, 6, 19, 191.5565185546875
0, 6, 20, 196.683837890625
0, 6, 21, 198.4088592529297
0, 6, 22, 191.4781341552734
0, 6, 23, 190.7298889160156
0, 6, 24, 200.3158416748047
0, 6, 25, 183.6752014160156
0, 6, 26, 187.3087768554688
0, 6, 27, 193.0615997314453
0, 6, 28, 188.2217712402344
0, 6, 29, 211.4818420410156
0, 6, 30, 189.6455993652344
0, 6, 31, 192.9309997558594
0, 6, 32, 208.6649780273438
0, 6, 33, 183.8744201660156
0, 6, 34, 196.9339294433594
0, 6, 35, 187.2537994384766
0, 6, 36, 180.7752075195312
0, 6, 37, 184.1085357666016
0, 6, 38, 186.0376586914062
0, 6, 39, 194.5515899658203
0, 6, 40, 173.3123016357422
0, 6, 41, 185.4940643310547
0, 6, 42, 174.3531188964844
0, 6, 43, 210.0358276367188
0, 6, 44, 208.9891662597656
0, 6, 45, 194.6701049804688
0, 6, 46, 187.5066986083984
0, 6, 47, 204.1400909423828
0, 6, 48, 189.3196258544922
0, 6, 49, 179.3957977294922
0, 6, 50, 182.0601196289062
0, 6, 51, 196.1200408935547
0, 6, 52, 198.5453491210938
0, 6, 53, 185.0298767089844
0, 6, 54, 175.5847625732422
0, 6, 55, 194.8444976806641
0, 6, 56, 202.8054962158203
0, 6, 57, 192.3713684082031
0, 6, 58, 179.6695251464844
0, 6, 59, 192.4706726074219
0, 6, 60, 185.2097930908203
0, 6, 61, 194.7920074462891
0, 6, 62, 197.0019378662109
0, 6, 63, 186.2014007568359
0, 6, 64, 167.6026153564453
0, 6, 65, 186.3301391601562
0, 6, 66, 199.0041351318359
0, 6, 67, 216.2453460693359
0, 6, 68, 179.7862091064453
0, 6, 69, 171.1469879150391
0, 6, 70, 187.1309509277344
0, 6, 71, 170.3616638183594
0, 6, 72, 175.5406951904297
0, 6, 73, 176.5025787353516
0, 6, 74, 210.863037109375
0, 6, 75, 227.0101013183594
0, 6, 76, 184.5046539306641
0, 6, 77, 172.7425079345703
0, 6, 78, 174.8391571044922
0, 6, 79, 186.93994140625
0, 6, 80, 187.8294219970703
0, 6, 81, 210.4548797607422
0, 6, 82, 196.7237396240234
0, 6, 83, 195.5959777832031
0, 6, 84, 197.5370941162109
0, 6, 85, 180.5588531494141
0, 6, 86, 202.8433990478516
0, 6, 87, 184.1142730712891
0, 6, 88, 192.0079803466797
0, 6, 89, 187.8121490478516
0, 6, 90, 205.300537109375
0, 6, 91, 199.6511993408203
0, 6, 92, 173.0575408935547
0, 6, 93, 192.3243865966797
0, 6, 94, 189.4039916992188
0, 6, 95, 184.7788848876953
0, 6, 96, 187.9825744628906
0, 6, 97, 194.6872406005859
0, 6, 98, 183.4499206542969
0, 6, 99, 174.9826202392578
0, 6, 100, 201.3023376464844
0, 6, 101, 171.3382720947266
0, 6, 102, 201.5580902099609
0, 6, 103, 195.9952392578125
0, 6, 104, 183.96533203125
0, 6, 105, 193.2476196289062
0, 6, 106, 177.2171783447266
0, 6, 107, 195.5833740234375
0, 6, 108, 171.6331329345703
0, 6, 109, 116.3601608276367
0, 6, 110, 35.71214294433594
0, 6, 111, 9.525901794433594
0, 6, 112, 8.20628547668457
0, 6, 113, 6.01729679107666
0, 6, 114, 4.990219593048096
0, 6, 115, 3.873535871505737
0, 6, 116, 3.466650724411011
0, 6, 117, 4.835397243499756
0, 6, 118, 4.314376354217529
0, 6, 119, 3.943824291229248
0, 6, 120, 1.978848338127136
0, 6, 121, 3.694629430770874
0, 6, 122, 2.926219463348389
0, 6, 123, 3.546901702880859
0, 6, 124, 1.514526128768921
0, 6, 125, 3.235461473464966
0, 6, 126, 1.541164517402649
0, 6, 127, 2.835208892822266
0, 7, 0, 3.056342840194702
0, 7, 1, 1.431151270866394
0, 7, 2, 3.237008571624756
0, 7, 3, 1.807639479637146
0, 7, 4, 0.745790421962738
0, 7, 5, 1.288353800773621
0, 7, 6, 2.342717170715332
0, 7, 7, 1.595917463302612
0, 7, 8, 2.822654724121094
0, 7, 9, 3.242994070053101
0, 7, 10, 5.001811027526855
0, 7, 11, 2.850424766540527
0, 7, 12, 3.692431449890137
0, 7, 13, 5.6329345703125
0, 7, 14, 7.196356773376465
0, 7, 15, 7.121023178100586
0, 7, 16, 15.94427108764648
0, 7, 17, 50.47256088256836
0, 7, 18, 161.4011840820312
0, 7, 19, 182.7666320800781
0, 7, 20, 179.6190490722656
0, 7, 21, 180.3291778564453
0, 7, 22, 189.8202362060547
0, 7, 23, 202.2483062744141
0, 7, 24, 179.8609619140625
0, 7, 25, 212.7394561767578
0, 7, 26, 190.6315307617188
0, 7, 27, 183.1544952392578
0, 7, 28, 182.4397735595703
0, 7, 29, 209.7169036865234
0, 7, 30, 192.3964233398438
0, 7, 31, 176.0331878662109
0, 7, 32, 190.5457916259766
0, 7, 33, 179.1653900146484
0, 7, 34, 193.6578216552734
0, 7, 35, 198.6745300292969
0, 7, 36, 186.9240875244141
0, 7, 37, 213.2357788085938
0, 7, 38, 190.9011383056641
0, 7, 39, 173.3924865722656
0, 7, 40, 183.6371154785156
0, 7, 41, 185.4701995849609
0, 7, 42, 178.7133941650391
0, 7, 43, 178.0887756347656
0, 7, 44, 182.3919067382812
0, 7, 45, 174.5939636230469
0, 7, 46, 189.9400634765625
0, 7, 47, 197.7872619628906
0, 7, 48, 186.9406280517578
0, 7, 49, 201.8279418945312
0, 7, 50, 187.791015625
0, 7, 51, 204.1363525390625
0, 7, 52, 204.8063049316406
0, 7, 53, 191.6479034423828
0, 7, 54, 194.9220428466797
0, 7, 55, 203.8027496337891
0, 7, 56, 182.9971313476562
0, 7, 57, 183.9658660888672
0, 7, 58, 191.9427642822266
0, 7, 59, 187.5076293945312
0, 7, 60, 202.1794738769531
0, 7, 61, 170.5522003173828
0, 7, 62, 202.9834289550781
0, 7, 63, 189.19091796875
0, 7, 64, 199.0082855224609
0, 7, 65, 198.3654632568359
0, 7, 66, 205.2205352783203
0, 7, 67, 220.2683715820312
0, 7, 68, 161.7693328857422
0, 7, 69, 194.8939514160156
0, 7, 70, 217.1871795654297
0, 7, 71, 184.5467376708984
0, 7, 72, 180.7406005859375
0, 7, 73, 176.9806060791016
0, 7, 74, 208.4168853759766
0, 7, 75, 205.9619598388672
0, 7, 76, 214.3473205566406
0, 7, 77, 176.3066864013672
0, 7, 78, 177.7310943603516
0, 7, 79, 192.7281188964844
0, 7, 80, 195.2421264648438
0, 7, 81, 215.6222534179688
0, 7, 82, 185.7607421875
0, 7, 83, 204.6914978027344
0, 7, 84, 191.7960052490234
0, 7, 85, 187.2373962402344
0, 7, 86, 200.2600250244141
0, 7, 87, 226.3503723144531
0, 7, 88, 195.0855712890625
0, 7, 89, 178.2978668212891
0, 7, 90, 181.9048004150391
0, 7, 91, 193.7423400878906
0, 7, 92, 194.4042053222656
0, 7, 93, 198.6117553710938
0, 7, 94, 179.4520874023438
0, 7, 95, 198.4281311035156
0, 7, 96, 208.5727844238281
0, 7, 97, 189.722900390625
0, 7, 98, 175.8883056640625
0, 7, 99, 196.9042205810547
0, 7, 100, 182.3911895751953
0, 7, 101, 200.2158660888672
0, 7, 102, 184.9610137939453
0, 7, 103, 181.9254760742188
0, 7, 104, 173.8022003173828
0, 7, 105, 195.5203247070312
0, 7, 106, 205.5367126464844
0, 7, 107, 173.5231781005859
0, 7, 108, 176.7869110107422
0, 7, 109, 136.2937622070312
0, 7, 110, 54.66170883178711
0, 7, 111, 8.956628799438477
0, 7, 112, 7.879787921905518
0, 7, 113, 8.428402900695801
0, 7, 114, 8.885563850402832
0, 7, 115, 5.77034854888916
0, 7, 116, 5.428580284118652
0, 7, 117, 2.659225940704346
0, 7, 118, 4.132469177246094
0, 7, 119, 3.648472309112549
0, 7, 120, 2.307387351989746
0, 7, 121, 3.169694423675537
0, 7, 122, 3.69268536567688
0, 7, 123, 2.405399560928345
0, 7, 124, 1.533358573913574
0, 7, 125, 1.683536410331726
0, 7, 126, 3.706363916397095
0, 7, 127, 2.384477376937866
0, 8, 0, 3.856127023696899
0, 8, 1, 1.902896404266357
0, 8, 2, 5.113109111785889
0, 8, 3, 2.655983924865723
0, 8, 4, 1.084541201591492
0, 8, 5, 3.38932466506958
0, 8, 6, 2.797372341156006
0, 8, 7, 3.265417575836182
0, 8, 8, 3.398607015609741
0, 8, 9, 5.828744411468506
0, 8, 10, 1.992048144340515
0, 8, 11, 3.05145001411438
0, 8, 12, 3.297483682632446
0, 8, 13, 5.834291934967041
0, 8, 14, 6.776313304901123
0, 8, 15, 8.042899131774902
0, 8, 16, 18.74320983886719
0, 8, 17, 75.96366882324219
0, 8, 18, 141.8916931152344
0, 8, 19, 183.7962646484375
0, 8, 20, 192.974609375
0, 8, 21, 194.3333740234375
0, 8, 22, 179.3153228759766
0, 8, 23, 172.7698059082031
0, 8, 24, 191.7582092285156
0, 8, 25, 184.8093414306641
0, 8, 26, 192.6969909667969
0, 8, 27, 186.4958190917969
0, 8, 28, 187.8236541748047
0, 8, 29, 208.4029541015625
0, 8, 30, 196.1982421875
0, 8, 31, 181.9305725097656
0, 8, 32, 198.1257171630859
0, 8, 33, 206.5521545410156
0, 8, 34, 203.3872985839844
0, 8, 35, 184.8714599609375
0, 8, 36, 183.7163238525391
