# TOPAS Version: 3.1.p3
# Parameter File: batch_inserts_0.txt
# Results for scorer Readout_Adipose
# Scored in component: MyBox
# X in 1 bin  of 0.65 cm
# Y in 512 bins of 0.0783984 cm
# Z in 128 bins of 0.078125 cm
# EnergyDeposit ( MeV ) : Sum   
0, 0, 0, 1.129395842552185
0, 0, 1, 3.714794397354126
0, 0, 2, 1.342727899551392
0, 0, 3, 0.7173888087272644
0, 0, 4, 2.678741693496704
0, 0, 5, 1.052386164665222
0, 0, 6, 1.076526284217834
0, 0, 7, 1.547778725624084
0, 0, 8, 1.91071617603302
0, 0, 9, 2.313257217407227
0, 0, 10, 1.680569291114807
0, 0, 11, 3.462626457214355
0, 0, 12, 6.584806442260742
0, 0, 13, 1.977063655853271
0, 0, 14, 6.434526920318604
0, 0, 15, 4.966823577880859
0, 0, 16, 4.171942710876465
0, 0, 17, 8.021150588989258
0, 0, 18, 7.643024921417236
0, 0, 19, 22.24060249328613
0, 0, 20, 94.04461669921875
0, 0, 21, 152.0899505615234
0, 0, 22, 155.3453063964844
0, 0, 23, 144.65771484375
0, 0, 24, 160.3546142578125
0, 0, 25, 166.22705078125
0, 0, 26, 166.1948852539062
0, 0, 27, 173.5826110839844
0, 0, 28, 178.0077667236328
0, 0, 29, 175.9860382080078
0, 0, 30, 175.1819915771484
0, 0, 31, 165.9304504394531
0, 0, 32, 164.2490692138672
0, 0, 33, 166.6960906982422
0, 0, 34, 176.6860198974609
0, 0, 35, 173.5905456542969
0, 0, 36, 158.5265197753906
0, 0, 37, 161.2640075683594
0, 0, 38, 168.4589538574219
0, 0, 39, 162.48828125
0, 0, 40, 164.6579132080078
0, 0, 41, 165.9602203369141
0, 0, 42, 143.2750701904297
0, 0, 43, 168.394287109375
0, 0, 44, 177.7152709960938
0, 0, 45, 172.2232818603516
0, 0, 46, 167.7153930664062
0, 0, 47, 168.2743682861328
0, 0, 48, 169.3527526855469
0, 0, 49, 183.2638702392578
0, 0, 50, 170.5940704345703
0, 0, 51, 162.3544006347656
0, 0, 52, 164.1148986816406
0, 0, 53, 171.3994293212891
0, 0, 54, 160.2083740234375
0, 0, 55, 163.4654235839844
0, 0, 56, 188.6487731933594
0, 0, 57, 170.2951812744141
0, 0, 58, 162.0135955810547
0, 0, 59, 172.2751770019531
0, 0, 60, 168.7962646484375
0, 0, 61, 168.9930725097656
0, 0, 62, 183.0549468994141
0, 0, 63, 167.861328125
0, 0, 64, 165.0644989013672
0, 0, 65, 174.0201416015625
0, 0, 66, 177.6410675048828
0, 0, 67, 163.5806884765625
0, 0, 68, 158.2619018554688
0, 0, 69, 158.6965484619141
0, 0, 70, 169.2275085449219
0, 0, 71, 158.4404144287109
0, 0, 72, 163.2214965820312
0, 0, 73, 170.8318786621094
0, 0, 74, 161.9823760986328
0, 0, 75, 163.2210388183594
0, 0, 76, 163.1809387207031
0, 0, 77, 172.5431518554688
0, 0, 78, 183.38134765625
0, 0, 79, 175.0630187988281
0, 0, 80, 159.0557556152344
0, 0, 81, 159.6088714599609
0, 0, 82, 181.9352111816406
0, 0, 83, 173.3294677734375
0, 0, 84, 159.948486328125
0, 0, 85, 183.7942810058594
0, 0, 86, 157.6629180908203
0, 0, 87, 177.132568359375
0, 0, 88, 176.8052062988281
0, 0, 89, 177.8805236816406
0, 0, 90, 162.9145202636719
0, 0, 91, 185.7758483886719
0, 0, 92, 163.7232971191406
0, 0, 93, 155.2078857421875
0, 0, 94, 168.9535675048828
0, 0, 95, 173.6635131835938
0, 0, 96, 183.6695251464844
0, 0, 97, 183.1524047851562
0, 0, 98, 186.6268768310547
0, 0, 99, 172.5611419677734
0, 0, 100, 158.9871215820312
0, 0, 101, 166.342041015625
0, 0, 102, 171.570068359375
0, 0, 103, 171.7284088134766
0, 0, 104, 167.9933471679688
0, 0, 105, 176.8151245117188
0, 0, 106, 158.3469390869141
0, 0, 107, 85.38941955566406
0, 0, 108, 23.29387855529785
0, 0, 109, 8.753246307373047
0, 0, 110, 5.535056591033936
0, 0, 111, 6.269482135772705
0, 0, 112, 5.172800540924072
0, 0, 113, 2.871917724609375
0, 0, 114, 2.038988590240479
0, 0, 115, 2.314536333084106
0, 0, 116, 2.096494436264038
0, 0, 117, 3.304311513900757
0, 0, 118, 2.247588396072388
0, 0, 119, 3.005586862564087
0, 0, 120, 2.035620450973511
0, 0, 121, 3.47767162322998
0, 0, 122, 4.766357421875
0, 0, 123, 4.973940849304199
0, 0, 124, 2.039533853530884
0, 0, 125, 1.906830549240112
0, 0, 126, 2.869391679763794
0, 0, 127, 2.414944171905518
0, 1, 0, 0.7956132888793945
0, 1, 1, 5.71349573135376
0, 1, 2, 1.876475811004639
0, 1, 3, 1.60443115234375
0, 1, 4, 0.802988588809967
0, 1, 5, 1.369923114776611
0, 1, 6, 1.654163837432861
0, 1, 7, 2.572439432144165
0, 1, 8, 1.548990607261658
0, 1, 9, 1.060109972953796
0, 1, 10, 1.915421724319458
0, 1, 11, 3.717067003250122
0, 1, 12, 3.101444721221924
0, 1, 13, 3.344064474105835
0, 1, 14, 7.33563756942749
0, 1, 15, 8.072694778442383
0, 1, 16, 6.590259075164795
0, 1, 17, 6.236037731170654
0, 1, 18, 11.09189701080322
0, 1, 19, 39.48703384399414
0, 1, 20, 125.7276458740234
0, 1, 21, 178.47998046875
0, 1, 22, 192.2422027587891
0, 1, 23, 188.060546875
0, 1, 24, 179.8662719726562
0, 1, 25, 191.5989685058594
0, 1, 26, 197.2523651123047
0, 1, 27, 186.0264129638672
0, 1, 28, 188.7049865722656
0, 1, 29, 183.8687133789062
0, 1, 30, 180.0855407714844
0, 1, 31, 180.4206085205078
0, 1, 32, 188.5445404052734
0, 1, 33, 189.9992218017578
0, 1, 34, 185.7058563232422
0, 1, 35, 194.1094360351562
0, 1, 36, 205.4999237060547
0, 1, 37, 185.085205078125
0, 1, 38, 166.0447845458984
0, 1, 39, 172.6952819824219
0, 1, 40, 180.0571594238281
0, 1, 41, 185.3387756347656
0, 1, 42, 182.6757354736328
0, 1, 43, 184.9216918945312
0, 1, 44, 167.1900177001953
0, 1, 45, 186.1898193359375
0, 1, 46, 171.31201171875
0, 1, 47, 185.3723449707031
0, 1, 48, 188.1698913574219
0, 1, 49, 186.1250457763672
0, 1, 50, 177.0923461914062
0, 1, 51, 190.8130493164062
0, 1, 52, 195.5020599365234
0, 1, 53, 198.1335296630859
0, 1, 54, 184.8877258300781
0, 1, 55, 166.3264770507812
0, 1, 56, 179.0895843505859
0, 1, 57, 179.3082275390625
0, 1, 58, 188.6194458007812
0, 1, 59, 193.3902893066406
0, 1, 60, 187.6280212402344
0, 1, 61, 178.1495208740234
0, 1, 62, 203.8299102783203
0, 1, 63, 173.501708984375
0, 1, 64, 173.0198059082031
0, 1, 65, 185.3162689208984
0, 1, 66, 204.7012786865234
0, 1, 67, 183.7573699951172
0, 1, 68, 187.0039825439453
0, 1, 69, 189.1625823974609
0, 1, 70, 185.6327972412109
0, 1, 71, 171.1987609863281
0, 1, 72, 187.6323394775391
0, 1, 73, 190.6645050048828
0, 1, 74, 201.8362579345703
0, 1, 75, 185.3597564697266
0, 1, 76, 173.9577789306641
0, 1, 77, 191.9063415527344
0, 1, 78, 188.0417633056641
0, 1, 79, 203.5886840820312
0, 1, 80, 185.5848388671875
0, 1, 81, 174.5350952148438
0, 1, 82, 207.4798431396484
0, 1, 83, 211.8572387695312
0, 1, 84, 180.1669158935547
0, 1, 85, 170.3077239990234
0, 1, 86, 167.5691680908203
0, 1, 87, 184.4015655517578
0, 1, 88, 174.3893280029297
0, 1, 89, 188.3264770507812
0, 1, 90, 212.097900390625
0, 1, 91, 182.3324584960938
0, 1, 92, 183.4846038818359
0, 1, 93, 180.5251922607422
0, 1, 94, 184.6508178710938
0, 1, 95, 187.4720153808594
0, 1, 96, 196.8901519775391
0, 1, 97, 182.6371765136719
0, 1, 98, 186.5841827392578
0, 1, 99, 175.5940093994141
0, 1, 100, 173.3214874267578
0, 1, 101, 179.0386810302734
0, 1, 102, 181.5632171630859
0, 1, 103, 173.1059722900391
0, 1, 104, 188.3414459228516
0, 1, 105, 181.0494689941406
0, 1, 106, 164.2857666015625
0, 1, 107, 122.6936645507812
0, 1, 108, 47.3116569519043
0, 1, 109, 9.536529541015625
0, 1, 110, 7.122270584106445
0, 1, 111, 7.236834526062012
0, 1, 112, 7.844950675964355
0, 1, 113, 6.902299880981445
0, 1, 114, 6.466621398925781
0, 1, 115, 3.870110273361206
0, 1, 116, 2.742624998092651
0, 1, 117, 1.877123236656189
0, 1, 118, 3.480315923690796
0, 1, 119, 0.9260631799697876
0, 1, 120, 2.840633630752563
0, 1, 121, 4.520294666290283
0, 1, 122, 1.871274471282959
0, 1, 123, 4.096764087677002
0, 1, 124, 1.868828892707825
0, 1, 125, 2.303728103637695
0, 1, 126, 1.456040740013123
0, 1, 127, 1.607170820236206
0, 2, 0, 1.776643037796021
0, 2, 1, 1.779370188713074
0, 2, 2, 2.273038625717163
0, 2, 3, 1.540143132209778
0, 2, 4, 1.159729599952698
0, 2, 5, 1.129523158073425
0, 2, 6, 2.230273962020874
0, 2, 7, 1.37162446975708
0, 2, 8, 3.859495639801025
0, 2, 9, 2.189266204833984
0, 2, 10, 6.08225679397583
0, 2, 11, 3.540565013885498
0, 2, 12, 3.338609457015991
0, 2, 13, 3.252201080322266
0, 2, 14, 4.08341646194458
0, 2, 15, 5.524744510650635
0, 2, 16, 6.479817867279053
0, 2, 17, 9.376532554626465
0, 2, 18, 14.32492160797119
0, 2, 19, 77.94394683837891
0, 2, 20, 163.9526214599609
0, 2, 21, 183.0162506103516
0, 2, 22, 193.9868927001953
0, 2, 23, 183.4920806884766
0, 2, 24, 173.4591827392578
0, 2, 25, 183.4444580078125
0, 2, 26, 180.7464904785156
0, 2, 27, 191.0328521728516
0, 2, 28, 171.0102386474609
0, 2, 29, 169.0486602783203
0, 2, 30, 185.3381500244141
0, 2, 31, 182.5478363037109
0, 2, 32, 183.2566833496094
0, 2, 33, 192.5663299560547
0, 2, 34, 197.2882690429688
0, 2, 35, 182.5380401611328
0, 2, 36, 186.2669677734375
0, 2, 37, 182.6685791015625
0, 2, 38, 184.5430908203125
0, 2, 39, 166.0623016357422
0, 2, 40, 184.6768951416016
0, 2, 41, 183.9024810791016
0, 2, 42, 189.4065399169922
0, 2, 43, 194.0653686523438
0, 2, 44, 191.7335662841797
0, 2, 45, 190.9058074951172
0, 2, 46, 195.8147583007812
0, 2, 47, 188.4949188232422
0, 2, 48, 177.2003326416016
0, 2, 49, 197.0063171386719
0, 2, 50, 168.5963592529297
0, 2, 51, 183.3619995117188
0, 2, 52, 186.8591003417969
0, 2, 53, 194.8309936523438
0, 2, 54, 176.1022186279297
0, 2, 55, 173.6291961669922
0, 2, 56, 180.8099670410156
0, 2, 57, 200.2255249023438
0, 2, 58, 186.2837677001953
0, 2, 59, 188.8060607910156
0, 2, 60, 196.5121765136719
0, 2, 61, 193.0200500488281
0, 2, 62, 192.4510345458984
0, 2, 63, 170.8285675048828
0, 2, 64, 189.2097473144531
0, 2, 65, 202.4043121337891
0, 2, 66, 196.3878631591797
0, 2, 67, 184.6874237060547
0, 2, 68, 182.6623229980469
0, 2, 69, 188.6650390625
0, 2, 70, 202.3895568847656
0, 2, 71, 175.2477264404297
0, 2, 72, 186.7648620605469
0, 2, 73, 177.446533203125
0, 2, 74, 180.2688293457031
0, 2, 75, 196.0380401611328
0, 2, 76, 183.7456970214844
0, 2, 77, 177.7333221435547
0, 2, 78, 197.9062194824219
0, 2, 79, 179.0884094238281
0, 2, 80, 187.0780944824219
0, 2, 81, 188.9783020019531
0, 2, 82, 204.8421783447266
0, 2, 83, 206.4186859130859
0, 2, 84, 188.5551147460938
0, 2, 85, 171.2345275878906
0, 2, 86, 194.4526824951172
0, 2, 87, 172.1552581787109
0, 2, 88, 177.14892578125
0, 2, 89, 184.6526184082031
0, 2, 90, 178.2169036865234
0, 2, 91, 173.4084014892578
0, 2, 92, 196.8940887451172
0, 2, 93, 193.0325469970703
0, 2, 94, 199.1180572509766
0, 2, 95, 195.0571899414062
0, 2, 96, 186.6943206787109
0, 2, 97, 172.6729278564453
0, 2, 98, 173.391357421875
0, 2, 99, 163.5654602050781
0, 2, 100, 187.056884765625
0, 2, 101, 196.377197265625
0, 2, 102, 175.6849517822266
0, 2, 103, 200.1584320068359
0, 2, 104, 187.9355010986328
0, 2, 105, 200.3629913330078
0, 2, 106, 194.9958801269531
0, 2, 107, 150.7605438232422
0, 2, 108, 78.68927764892578
0, 2, 109, 17.8609504699707
0, 2, 110, 7.472539901733398
0, 2, 111, 5.845633029937744
0, 2, 112, 3.459029912948608
0, 2, 113, 4.760869026184082
0, 2, 114, 7.23045015335083
0, 2, 115, 2.645374536514282
0, 2, 116, 1.427578806877136
0, 2, 117, 2.142464399337769
0, 2, 118, 3.398230075836182
0, 2, 119, 3.032751083374023
0, 2, 120, 1.241658449172974
0, 2, 121, 5.343273639678955
0, 2, 122, 2.659133195877075
0, 2, 123, 1.701552510261536
0, 2, 124, 2.760123729705811
0, 2, 125, 1.804314374923706
0, 2, 126, 2.787822723388672
0, 2, 127, 0.9718108177185059
0, 3, 0, 1.848666906356812
0, 3, 1, 2.580272912979126
0, 3, 2, 1.882267713546753
0, 3, 3, 0.6642909646034241
0, 3, 4, 4.028684139251709
0, 3, 5, 2.718871116638184
0, 3, 6, 1.616623520851135
0, 3, 7, 1.316494107246399
0, 3, 8, 1.511560797691345
0, 3, 9, 1.847079992294312
0, 3, 10, 1.294297814369202
0, 3, 11, 3.656294822692871
0, 3, 12, 3.111272096633911
0, 3, 13, 3.125868558883667
0, 3, 14, 4.08104133605957
0, 3, 15, 6.563111782073975
0, 3, 16, 6.823964595794678
0, 3, 17, 5.490433692932129
0, 3, 18, 33.74602127075195
0, 3, 19, 115.206787109375
0, 3, 20, 181.1738433837891
0, 3, 21, 172.2316436767578
0, 3, 22, 177.4845733642578
0, 3, 23, 187.580810546875
0, 3, 24, 177.8971099853516
0, 3, 25, 168.6768035888672
0, 3, 26, 181.4143524169922
0, 3, 27, 189.8627319335938
0, 3, 28, 181.1569976806641
0, 3, 29, 196.9708099365234
0, 3, 30, 185.2957916259766
0, 3, 31, 194.7170104980469
0, 3, 32, 206.2223510742188
0, 3, 33, 196.7185668945312
0, 3, 34, 188.7897186279297
0, 3, 35, 173.9454345703125
0, 3, 36, 185.8406829833984
0, 3, 37, 202.6929779052734
0, 3, 38, 191.1874694824219
0, 3, 39, 184.6269683837891
0, 3, 40, 165.7247314453125
0, 3, 41, 173.5253448486328
0, 3, 42, 185.3059234619141
0, 3, 43, 184.2458038330078
0, 3, 44, 203.7861633300781
0, 3, 45, 207.1291961669922
0, 3, 46, 198.2094268798828
0, 3, 47, 194.8919830322266
0, 3, 48, 195.1047210693359
0, 3, 49, 180.3411407470703
0, 3, 50, 187.2559509277344
0, 3, 51, 174.0619201660156
0, 3, 52, 187.6914215087891
0, 3, 53, 177.9962005615234
0, 3, 54, 179.577880859375
0, 3, 55, 176.9287567138672
0, 3, 56, 182.67529296875
0, 3, 57, 174.7154541015625
0, 3, 58, 201.7404327392578
0, 3, 59, 196.5062255859375
0, 3, 60, 186.1300659179688
0, 3, 61, 181.5071563720703
0, 3, 62, 183.3600311279297
0, 3, 63, 184.4917449951172
0, 3, 64, 190.6546630859375
0, 3, 65, 189.3442840576172
0, 3, 66, 175.4406280517578
0, 3, 67, 189.3154907226562
0, 3, 68, 211.1768646240234
0, 3, 69, 190.5897521972656
0, 3, 70, 184.8913879394531
0, 3, 71, 196.8440246582031
0, 3, 72, 185.5811920166016
0, 3, 73, 186.6361236572266
0, 3, 74, 193.8785095214844
0, 3, 75, 193.9514770507812
0, 3, 76, 190.1002960205078
0, 3, 77, 197.96240234375
0, 3, 78, 188.6066284179688
0, 3, 79, 185.9306640625
0, 3, 80, 189.6874694824219
0, 3, 81, 184.4432373046875
0, 3, 82, 178.8250885009766
0, 3, 83, 194.0422973632812
0, 3, 84, 199.1465759277344
0, 3, 85, 192.6370849609375
0, 3, 86, 204.4827880859375
0, 3, 87, 197.0819549560547
0, 3, 88, 192.6844787597656
0, 3, 89, 193.5106658935547
0, 3, 90, 173.7034454345703
0, 3, 91, 155.9455261230469
0, 3, 92, 207.2997131347656
0, 3, 93, 196.0505828857422
0, 3, 94, 192.5443725585938
0, 3, 95, 211.4301910400391
0, 3, 96, 208.0589752197266
0, 3, 97, 168.4066314697266
0, 3, 98, 168.1219940185547
0, 3, 99, 180.4019622802734
0, 3, 100, 176.8579559326172
0, 3, 101, 197.9388275146484
0, 3, 102, 197.6198272705078
0, 3, 103, 193.7792663574219
0, 3, 104, 202.4585876464844
0, 3, 105, 176.5611114501953
0, 3, 106, 181.8221588134766
0, 3, 107, 171.5675964355469
0, 3, 108, 108.014045715332
0, 3, 109, 27.94348526000977
0, 3, 110, 7.016635894775391
0, 3, 111, 6.940922737121582
0, 3, 112, 3.023322343826294
0, 3, 113, 7.514472007751465
0, 3, 114, 5.353476524353027
0, 3, 115, 5.742795467376709
0, 3, 116, 6.265751361846924
0, 3, 117, 4.164474487304688
0, 3, 118, 3.175643444061279
0, 3, 119, 3.006989002227783
0, 3, 120, 3.895885705947876
0, 3, 121, 1.58533763885498
0, 3, 122, 3.629576206207275
0, 3, 123, 1.643990635871887
0, 3, 124, 2.376079559326172
0, 3, 125, 1.74338436126709
0, 3, 126, 2.095723390579224
0, 3, 127, 2.538639307022095
0, 4, 0, 1.351417660713196
0, 4, 1, 0.6374043226242065
0, 4, 2, 3.455492496490479
0, 4, 3, 3.48362398147583
0, 4, 4, 4.054092884063721
0, 4, 5, 1.006418704986572
0, 4, 6, 2.611248254776001
0, 4, 7, 2.34054970741272
0, 4, 8, 1.533271193504333
0, 4, 9, 1.912832736968994
0, 4, 10, 3.646148681640625
0, 4, 11, 3.848069429397583
0, 4, 12, 3.175423145294189
0, 4, 13, 4.08655309677124
0, 4, 14, 4.807109355926514
0, 4, 15, 8.654374122619629
0, 4, 16, 6.204806804656982
0, 4, 17, 11.7528190612793
0, 4, 18, 55.03310394287109
0, 4, 19, 153.384765625
0, 4, 20, 192.6244049072266
0, 4, 21, 169.1123199462891
0, 4, 22, 187.6845550537109
0, 4, 23, 195.8034210205078
0, 4, 24, 192.5111999511719
0, 4, 25, 200.1033172607422
0, 4, 26, 183.7221374511719
0, 4, 27, 191.0646209716797
0, 4, 28, 178.6544189453125
0, 4, 29, 205.5018463134766
0, 4, 30, 195.7231292724609
0, 4, 31, 191.941650390625
0, 4, 32, 208.8765411376953
0, 4, 33, 190.120849609375
0, 4, 34, 192.1310882568359
0, 4, 35, 215.1844787597656
0, 4, 36, 192.5261688232422
0, 4, 37, 176.4567108154297
0, 4, 38, 193.533203125
0, 4, 39, 189.1324005126953
0, 4, 40, 185.4688415527344
0, 4, 41, 190.6067199707031
0, 4, 42, 208.4646606445312
0, 4, 43, 174.3792877197266
0, 4, 44, 184.7004241943359
0, 4, 45, 196.1483154296875
0, 4, 46, 185.8714294433594
0, 4, 47, 179.509033203125
0, 4, 48, 185.4742736816406
0, 4, 49, 175.1820068359375
0, 4, 50, 187.2938690185547
0, 4, 51, 197.5587463378906
0, 4, 52, 223.1808624267578
0, 4, 53, 206.6426391601562
0, 4, 54, 190.9413909912109
0, 4, 55, 174.4627227783203
0, 4, 56, 191.038330078125
0, 4, 57, 191.2944030761719
0, 4, 58, 187.3047332763672
0, 4, 59, 190.4860076904297
0, 4, 60, 195.5664215087891
0, 4, 61, 192.846923828125
0, 4, 62, 190.2097320556641
0, 4, 63, 180.1396026611328
0, 4, 64, 214.4205780029297
0, 4, 65, 192.6679840087891
0, 4, 66, 200.4094848632812
0, 4, 67, 201.0925445556641
0, 4, 68, 200.1811065673828
0, 4, 69, 198.2668151855469
0, 4, 70, 204.3051910400391
0, 4, 71, 206.8035125732422
0, 4, 72, 214.5707702636719
0, 4, 73, 185.6770935058594
0, 4, 74, 180.6131134033203
0, 4, 75, 185.9182891845703
0, 4, 76, 190.6197662353516
0, 4, 77, 182.3442993164062
0, 4, 78, 194.8858184814453
0, 4, 79, 204.2734375
0, 4, 80, 211.1002502441406
0, 4, 81, 198.2773132324219
0, 4, 82, 181.7180786132812
0, 4, 83, 170.7294158935547
0, 4, 84, 194.95849609375
0, 4, 85, 195.9894409179688
0, 4, 86, 182.4560546875
0, 4, 87, 184.4442596435547
0, 4, 88, 204.0458984375
0, 4, 89, 187.7767333984375
0, 4, 90, 212.4055480957031
0, 4, 91, 188.7779541015625
0, 4, 92, 195.9013977050781
0, 4, 93, 194.6785888671875
0, 4, 94, 181.9730834960938
0, 4, 95, 173.6398620605469
0, 4, 96, 190.0742645263672
0, 4, 97, 192.9188537597656
0, 4, 98, 202.3345489501953
0, 4, 99, 183.4718322753906
0, 4, 100, 182.4478607177734
0, 4, 101, 176.1682586669922
0, 4, 102, 173.1797027587891
0, 4, 103, 184.8098907470703
0, 4, 104, 209.4273071289062
0, 4, 105, 189.5808410644531
0, 4, 106, 180.8638610839844
0, 4, 107, 180.7837219238281
0, 4, 108, 152.650390625
0, 4, 109, 48.80710220336914
0, 4, 110, 10.93337249755859
0, 4, 111, 8.582469940185547
0, 4, 112, 5.605474948883057
0, 4, 113, 6.353052139282227
0, 4, 114, 4.354161739349365
0, 4, 115, 4.53239631652832
0, 4, 116, 5.402693748474121
0, 4, 117, 3.233545780181885
0, 4, 118, 3.553785085678101
0, 4, 119, 3.629279851913452
0, 4, 120, 1.922163963317871
0, 4, 121, 2.988277912139893
0, 4, 122, 3.203059434890747
0, 4, 123, 1.781646966934204
0, 4, 124, 3.522608757019043
0, 4, 125, 2.758821964263916
0, 4, 126, 1.41891622543335
0, 4, 127, 1.355464577674866
0, 5, 0, 2.450752973556519
0, 5, 1, 2.402836322784424
0, 5, 2, 5.351513862609863
0, 5, 3, 4.419841289520264
0, 5, 4, 3.73195743560791
0, 5, 5, 3.448662757873535
0, 5, 6, 2.851738452911377
0, 5, 7, 2.90492582321167
0, 5, 8, 2.08076000213623
0, 5, 9, 3.071101665496826
0, 5, 10, 3.706729888916016
0, 5, 11, 2.543582201004028
0, 5, 12, 4.049450397491455
0, 5, 13, 3.870104789733887
0, 5, 14, 5.467800617218018
0, 5, 15, 8.202781677246094
0, 5, 16, 6.880465030670166
0, 5, 17, 22.18384552001953
0, 5, 18, 82.63427734375
0, 5, 19, 164.286865234375
0, 5, 20, 183.6066741943359
0, 5, 21, 177.9243774414062
0, 5, 22, 170.9896087646484
0, 5, 23, 201.0210418701172
0, 5, 24, 186.8556976318359
0, 5, 25, 208.4129638671875
0, 5, 26, 183.3812103271484
0, 5, 27, 193.2422943115234
0, 5, 28, 190.8059387207031
0, 5, 29, 195.2840881347656
0, 5, 30, 179.0431976318359
0, 5, 31, 180.3414611816406
0, 5, 32, 186.6129760742188
0, 5, 33, 168.9066925048828
0, 5, 34, 195.3888092041016
0, 5, 35, 198.8328704833984
0, 5, 36, 167.6603698730469
0, 5, 37, 198.2952270507812
0, 5, 38, 180.3733673095703
0, 5, 39, 186.8409881591797
0, 5, 40, 196.8193817138672
0, 5, 41, 177.4806213378906
0, 5, 42, 187.4262847900391
0, 5, 43, 192.4937286376953
0, 5, 44, 199.7214508056641
0, 5, 45, 185.7051696777344
0, 5, 46, 193.1962738037109
0, 5, 47, 182.0396575927734
0, 5, 48, 178.5373992919922
0, 5, 49, 178.4888610839844
0, 5, 50, 185.7362060546875
0, 5, 51, 171.7449493408203
0, 5, 52, 167.6589813232422
0, 5, 53, 180.4807434082031
0, 5, 54, 172.9695739746094
0, 5, 55, 215.3563232421875
0, 5, 56, 181.6142578125
0, 5, 57, 207.5495758056641
0, 5, 58, 182.0629119873047
0, 5, 59, 180.2655944824219
0, 5, 60, 218.0281219482422
0, 5, 61, 184.6332244873047
0, 5, 62, 178.5337524414062
0, 5, 63, 180.6617889404297
0, 5, 64, 193.7980651855469
0, 5, 65, 210.7829132080078
0, 5, 66, 192.9537506103516
0, 5, 67, 200.3623657226562
0, 5, 68, 186.6975860595703
0, 5, 69, 186.1860046386719
0, 5, 70, 185.1626739501953
0, 5, 71, 192.6834411621094
0, 5, 72, 197.6506500244141
0, 5, 73, 201.1871490478516
0, 5, 74, 179.6401824951172
0, 5, 75, 202.5092468261719
0, 5, 76, 214.0778503417969
0, 5, 77, 182.1522216796875
0, 5, 78, 194.1143798828125
0, 5, 79, 189.9675750732422
0, 5, 80, 198.1772155761719
0, 5, 81, 202.9179382324219
0, 5, 82, 202.5387420654297
0, 5, 83, 188.3922424316406
0, 5, 84, 204.8087158203125
0, 5, 85, 177.6692962646484
0, 5, 86, 196.0846099853516
0, 5, 87, 187.5504608154297
0, 5, 88, 176.8981170654297
0, 5, 89, 194.0286407470703
0, 5, 90, 198.7055816650391
0, 5, 91, 194.2825469970703
0, 5, 92, 190.3922424316406
0, 5, 93, 189.0662841796875
0, 5, 94, 207.9015350341797
0, 5, 95, 176.8876953125
0, 5, 96, 182.0281372070312
0, 5, 97, 191.6163482666016
0, 5, 98, 189.3937377929688
0, 5, 99, 194.6794891357422
0, 5, 100, 186.7112579345703
0, 5, 101, 196.0145721435547
0, 5, 102, 181.0811614990234
0, 5, 103, 176.5249176025391
0, 5, 104, 189.9868316650391
0, 5, 105, 189.3488922119141
0, 5, 106, 177.3230590820312
0, 5, 107, 182.0705413818359
0, 5, 108, 177.5563201904297
0, 5, 109, 92.25797271728516
0, 5, 110, 30.96566581726074
0, 5, 111, 8.842108726501465
0, 5, 112, 6.245448112487793
0, 5, 113, 9.61036205291748
0, 5, 114, 7.089991569519043
0, 5, 115, 5.318142414093018
0, 5, 116, 3.90737771987915
0, 5, 117, 2.079972743988037
0, 5, 118, 5.403216361999512
0, 5, 119, 4.220344543457031
0, 5, 120, 2.543909311294556
0, 5, 121, 1.533082127571106
0, 5, 122, 3.439552068710327
0, 5, 123, 5.909022331237793
0, 5, 124, 2.880595445632935
0, 5, 125, 1.509985327720642
0, 5, 126, 0.9476146697998047
0, 5, 127, 1.830887317657471
0, 6, 0, 4.711605548858643
0, 6, 1, 2.675469636917114
0, 6, 2, 6.811836719512939
0, 6, 3, 2.080037355422974
0, 6, 4, 4.516378402709961
0, 6, 5, 2.396135568618774
0, 6, 6, 1.755502581596375
0, 6, 7, 3.740558385848999
0, 6, 8, 4.42990779876709
0, 6, 9, 2.964706182479858
0, 6, 10, 4.442386627197266
0, 6, 11, 4.754140853881836
0, 6, 12, 6.739525318145752
0, 6, 13, 4.78978443145752
0, 6, 14, 4.600407123565674
0, 6, 15, 6.336559295654297
0, 6, 16, 14.67150211334229
0, 6, 17, 28.40123748779297
0, 6, 18, 114.4031829833984
0, 6, 19, 192.4804077148438
0, 6, 20, 194.8132781982422
0, 6, 21, 198.2320556640625
0, 6, 22, 189.8194274902344
0, 6, 23, 190.2761535644531
0, 6, 24, 200.5197296142578
0, 6, 25, 181.5249328613281
0, 6, 26, 188.1694641113281
0, 6, 27, 192.3607635498047
0, 6, 28, 188.6015777587891
0, 6, 29, 210.5350494384766
0, 6, 30, 189.5853576660156
0, 6, 31, 194.6408386230469
0, 6, 32, 207.2435302734375
0, 6, 33, 183.9478149414062
0, 6, 34, 196.6209411621094
0, 6, 35, 187.5676422119141
0, 6, 36, 182.3862609863281
0, 6, 37, 182.5559234619141
0, 6, 38, 185.199951171875
0, 6, 39, 194.3577575683594
0, 6, 40, 173.6721649169922
0, 6, 41, 184.8818664550781
0, 6, 42, 175.0310516357422
0, 6, 43, 209.1428833007812
0, 6, 44, 209.5124053955078
0, 6, 45, 193.0462036132812
0, 6, 46, 187.9377136230469
0, 6, 47, 204.3055877685547
0, 6, 48, 188.4069061279297
0, 6, 49, 178.9187164306641
0, 6, 50, 181.8152008056641
0, 6, 51, 195.6172027587891
0, 6, 52, 197.5740966796875
0, 6, 53, 185.2007751464844
0, 6, 54, 176.547119140625
0, 6, 55, 195.1152954101562
0, 6, 56, 201.8362121582031
0, 6, 57, 192.2188720703125
0, 6, 58, 179.8271484375
0, 6, 59, 193.1776123046875
0, 6, 60, 186.0580291748047
0, 6, 61, 193.8335418701172
0, 6, 62, 196.5392456054688
0, 6, 63, 187.444091796875
0, 6, 64, 168.1929321289062
0, 6, 65, 185.6283111572266
0, 6, 66, 197.9641265869141
0, 6, 67, 213.9626312255859
0, 6, 68, 180.7697601318359
0, 6, 69, 170.2154541015625
0, 6, 70, 189.0827178955078
0, 6, 71, 170.8052673339844
0, 6, 72, 176.8330841064453
0, 6, 73, 177.3212127685547
0, 6, 74, 209.6805572509766
0, 6, 75, 227.4388122558594
0, 6, 76, 184.6304473876953
0, 6, 77, 172.466796875
0, 6, 78, 177.9215240478516
0, 6, 79, 186.5728454589844
0, 6, 80, 187.6410827636719
0, 6, 81, 210.4001770019531
0, 6, 82, 195.3169097900391
0, 6, 83, 196.1692962646484
0, 6, 84, 196.7981567382812
0, 6, 85, 181.4368438720703
0, 6, 86, 200.5009155273438
0, 6, 87, 184.3759918212891
0, 6, 88, 193.3821258544922
0, 6, 89, 188.9345550537109
0, 6, 90, 205.0687713623047
0, 6, 91, 199.8217315673828
0, 6, 92, 172.7943725585938
0, 6, 93, 193.9920349121094
0, 6, 94, 192.7368774414062
0, 6, 95, 186.5616760253906
0, 6, 96, 189.3009643554688
0, 6, 97, 194.6632385253906
0, 6, 98, 183.7377014160156
0, 6, 99, 174.1915283203125
0, 6, 100, 200.9715118408203
0, 6, 101, 167.9802093505859
0, 6, 102, 203.3226623535156
0, 6, 103, 196.0831146240234
0, 6, 104, 185.6992950439453
0, 6, 105, 193.9356689453125
0, 6, 106, 178.2637023925781
0, 6, 107, 194.4140319824219
0, 6, 108, 169.9731903076172
0, 6, 109, 115.2883377075195
0, 6, 110, 34.67671585083008
0, 6, 111, 8.915972709655762
0, 6, 112, 7.941917419433594
0, 6, 113, 5.518566608428955
0, 6, 114, 6.074663162231445
0, 6, 115, 5.13685131072998
0, 6, 116, 4.281344413757324
0, 6, 117, 2.570935964584351
0, 6, 118, 3.643354654312134
0, 6, 119, 3.596498250961304
0, 6, 120, 1.245179772377014
0, 6, 121, 4.960763454437256
0, 6, 122, 3.348465919494629
0, 6, 123, 2.611127853393555
0, 6, 124, 1.743723273277283
0, 6, 125, 2.803384780883789
0, 6, 126, 1.346644163131714
0, 6, 127, 2.969439506530762
0, 7, 0, 3.441155672073364
0, 7, 1, 1.35838520526886
0, 7, 2, 2.659565448760986
0, 7, 3, 2.643298625946045
0, 7, 4, 0.7428662180900574
0, 7, 5, 1.105281233787537
0, 7, 6, 2.196464061737061
0, 7, 7, 1.697491526603699
0, 7, 8, 3.930411338806152
0, 7, 9, 3.943072319030762
0, 7, 10, 4.566040992736816
0, 7, 11, 3.842029809951782
0, 7, 12, 3.873231649398804
0, 7, 13, 6.454167366027832
0, 7, 14, 9.492446899414062
0, 7, 15, 7.270706176757812
0, 7, 16, 15.85581016540527
0, 7, 17, 49.65505981445312
0, 7, 18, 161.9259796142578
0, 7, 19, 183.7043151855469
0, 7, 20, 180.0061645507812
0, 7, 21, 179.6189727783203
0, 7, 22, 191.8293762207031
0, 7, 23, 205.3946075439453
0, 7, 24, 179.4119873046875
0, 7, 25, 213.1816864013672
0, 7, 26, 189.2579498291016
0, 7, 27, 182.2722473144531
0, 7, 28, 184.9890899658203
0, 7, 29, 208.7175598144531
0, 7, 30, 193.2745361328125
0, 7, 31, 177.2535705566406
0, 7, 32, 190.3512420654297
0, 7, 33, 181.0529632568359
0, 7, 34, 195.0739440917969
0, 7, 35, 196.2650604248047
0, 7, 36, 186.0365600585938
0, 7, 37, 212.6309509277344
0, 7, 38, 190.0535430908203
0, 7, 39, 173.7669830322266
0, 7, 40, 183.4252319335938
0, 7, 41, 184.8866271972656
0, 7, 42, 177.5399627685547
0, 7, 43, 178.2859039306641
0, 7, 44, 179.0713806152344
0, 7, 45, 174.3791351318359
0, 7, 46, 190.9050903320312
0, 7, 47, 198.2211151123047
0, 7, 48, 185.2987976074219
0, 7, 49, 197.8945007324219
0, 7, 50, 190.3951416015625
0, 7, 51, 206.1533660888672
0, 7, 52, 204.6877899169922
0, 7, 53, 190.6840362548828
0, 7, 54, 194.2243499755859
0, 7, 55, 202.7896423339844
0, 7, 56, 183.5446014404297
0, 7, 57, 183.4376525878906
0, 7, 58, 191.7360382080078
0, 7, 59, 187.724609375
0, 7, 60, 202.7747344970703
0, 7, 61, 171.2199554443359
0, 7, 62, 203.1607360839844
0, 7, 63, 188.5541687011719
0, 7, 64, 199.6060028076172
0, 7, 65, 195.4496002197266
0, 7, 66, 206.4370727539062
0, 7, 67, 221.4267730712891
0, 7, 68, 163.2772979736328
0, 7, 69, 194.736328125
0, 7, 70, 217.8443756103516
0, 7, 71, 184.1946716308594
0, 7, 72, 179.7606201171875
0, 7, 73, 177.7198181152344
0, 7, 74, 207.725341796875
0, 7, 75, 206.2292633056641
0, 7, 76, 214.3748168945312
0, 7, 77, 174.7218322753906
0, 7, 78, 176.671142578125
0, 7, 79, 194.5083770751953
0, 7, 80, 196.1558990478516
0, 7, 81, 214.1560821533203
0, 7, 82, 184.8849182128906
0, 7, 83, 205.0835266113281
0, 7, 84, 191.7778625488281
0, 7, 85, 186.8893890380859
0, 7, 86, 200.6308135986328
0, 7, 87, 226.2078704833984
0, 7, 88, 194.5524291992188
0, 7, 89, 175.8148193359375
0, 7, 90, 183.2074737548828
0, 7, 91, 195.645263671875
0, 7, 92, 194.3452911376953
0, 7, 93, 197.6290435791016
0, 7, 94, 177.4172210693359
0, 7, 95, 197.2944030761719
0, 7, 96, 209.16650390625
0, 7, 97, 188.349853515625
0, 7, 98, 177.6730041503906
0, 7, 99, 196.4111175537109
0, 7, 100, 182.5802917480469
0, 7, 101, 199.5082855224609
0, 7, 102, 186.5374603271484
0, 7, 103, 182.6250305175781
0, 7, 104, 174.4527587890625
0, 7, 105, 195.5628814697266
0, 7, 106, 205.3969573974609
0, 7, 107, 173.6824645996094
0, 7, 108, 177.0556030273438
0, 7, 109, 137.1779937744141
0, 7, 110, 55.08428955078125
0, 7, 111, 8.450634956359863
0, 7, 112, 8.476103782653809
0, 7, 113, 9.25553035736084
0, 7, 114, 7.77237606048584
0, 7, 115, 4.998758316040039
0, 7, 116, 4.588863849639893
0, 7, 117, 4.639533042907715
0, 7, 118, 3.699819564819336
0, 7, 119, 3.351071834564209
0, 7, 120, 4.87688159942627
0, 7, 121, 3.842675447463989
0, 7, 122, 1.907605051994324
0, 7, 123, 1.824616074562073
0, 7, 124, 1.339577913284302
0, 7, 125, 1.88670825958252
0, 7, 126, 2.926740884780884
0, 7, 127, 0.9367861151695251
0, 8, 0, 4.656271457672119
0, 8, 1, 1.707879900932312
0, 8, 2, 3.408570528030396
0, 8, 3, 1.338047623634338
0, 8, 4, 1.790067791938782
0, 8, 5, 2.815495014190674
0, 8, 6, 3.083093643188477
0, 8, 7, 2.535465478897095
0, 8, 8, 2.007232427597046
0, 8, 9, 4.832079410552979
0, 8, 10, 3.258677959442139
0, 8, 11, 2.931410551071167
0, 8, 12, 3.858763694763184
0, 8, 13, 4.727614402770996
0, 8, 14, 6.344841957092285
0, 8, 15, 8.47300910949707
0, 8, 16, 20.57196807861328
0, 8, 17, 76.69953155517578
0, 8, 18, 142.4173126220703
0, 8, 19, 178.9497833251953
0, 8, 20, 195.5833740234375
0, 8, 21, 192.9180908203125
0, 8, 22, 183.8953399658203
0, 8, 23, 172.7071685791016
0, 8, 24, 192.4390869140625
0, 8, 25, 186.4988861083984
0, 8, 26, 192.5654602050781
0, 8, 27, 186.240966796875
0, 8, 28, 186.5275268554688
0, 8, 29, 206.8139343261719
0, 8, 30, 197.0433654785156
0, 8, 31, 183.1789093017578
0, 8, 32, 199.7000427246094
0, 8, 33, 206.6423034667969
0, 8, 34, 202.9636077880859
0, 8, 35, 184.9894561767578
0, 8, 36, 181.1039733886719
0, 8, 37, 198.7593383789062
