# TOPAS Version: 3.1.p3
# Parameter File: batch_inserts_328.txt
# Results for scorer Readout_Adipose
# Scored in component: MyBox
# X in 1 bin  of 0.65 cm
# Y in 512 bins of 0.0783984 cm
# Z in 128 bins of 0.078125 cm
# EnergyDeposit ( MeV ) : Sum   
0, 0, 0, 1.748253464698792
0, 0, 1, 4.040535449981689
0, 0, 2, 0.7613105177879333
0, 0, 3, 0.3711012899875641
0, 0, 4, 2.283660173416138
0, 0, 5, 0.7950494289398193
0, 0, 6, 2.038210868835449
0, 0, 7, 1.931291222572327
0, 0, 8, 2.30388355255127
0, 0, 9, 2.382215261459351
0, 0, 10, 2.708408832550049
0, 0, 11, 3.7032310962677
0, 0, 12, 3.506330251693726
0, 0, 13, 2.102780342102051
0, 0, 14, 6.020355224609375
0, 0, 15, 5.093446731567383
0, 0, 16, 4.610562801361084
0, 0, 17, 6.468958854675293
0, 0, 18, 6.946638584136963
0, 0, 19, 22.5703125
0, 0, 20, 94.49761199951172
0, 0, 21, 151.8815002441406
0, 0, 22, 154.1935272216797
0, 0, 23, 144.4717559814453
0, 0, 24, 159.7154998779297
0, 0, 25, 166.4913330078125
0, 0, 26, 166.8293304443359
0, 0, 27, 175.1888580322266
0, 0, 28, 178.09228515625
0, 0, 29, 174.0962677001953
0, 0, 30, 173.6465454101562
0, 0, 31, 168.0054321289062
0, 0, 32, 165.2290344238281
0, 0, 33, 167.7702026367188
0, 0, 34, 176.7324829101562
0, 0, 35, 173.8408813476562
0, 0, 36, 161.3355560302734
0, 0, 37, 161.4110717773438
0, 0, 38, 166.083984375
0, 0, 39, 159.6643218994141
0, 0, 40, 165.1771545410156
0, 0, 41, 165.6774291992188
0, 0, 42, 143.1483154296875
0, 0, 43, 168.7957153320312
0, 0, 44, 178.5127105712891
0, 0, 45, 172.5766448974609
0, 0, 46, 165.1243896484375
0, 0, 47, 167.5065460205078
0, 0, 48, 169.7983551025391
0, 0, 49, 182.3442077636719
0, 0, 50, 169.2050933837891
0, 0, 51, 162.9243774414062
0, 0, 52, 162.1841125488281
0, 0, 53, 170.8054962158203
0, 0, 54, 159.7272186279297
0, 0, 55, 163.9078979492188
0, 0, 56, 188.5714416503906
0, 0, 57, 170.1817779541016
0, 0, 58, 162.2940673828125
0, 0, 59, 172.88623046875
0, 0, 60, 169.5243682861328
0, 0, 61, 170.4014892578125
0, 0, 62, 184.6619262695312
0, 0, 63, 167.0168762207031
0, 0, 64, 163.8980865478516
0, 0, 65, 174.9985809326172
0, 0, 66, 178.2262725830078
0, 0, 67, 163.6784973144531
0, 0, 68, 159.2493133544922
0, 0, 69, 159.5689086914062
0, 0, 70, 169.5217590332031
0, 0, 71, 158.8763732910156
0, 0, 72, 163.4512023925781
0, 0, 73, 171.4297790527344
0, 0, 74, 163.4311676025391
0, 0, 75, 164.0598907470703
0, 0, 76, 162.8003997802734
0, 0, 77, 171.9131164550781
0, 0, 78, 181.3429718017578
0, 0, 79, 174.8103485107422
0, 0, 80, 159.7156982421875
0, 0, 81, 161.8745422363281
0, 0, 82, 181.62939453125
0, 0, 83, 173.646728515625
0, 0, 84, 159.4188690185547
0, 0, 85, 181.1639251708984
0, 0, 86, 160.2577056884766
0, 0, 87, 177.7184906005859
0, 0, 88, 178.7683410644531
0, 0, 89, 176.6582183837891
0, 0, 90, 160.8874816894531
0, 0, 91, 184.8794097900391
0, 0, 92, 165.7185363769531
0, 0, 93, 156.3431701660156
0, 0, 94, 170.9542846679688
0, 0, 95, 173.4956207275391
0, 0, 96, 184.0300598144531
0, 0, 97, 183.7765655517578
0, 0, 98, 186.0419311523438
0, 0, 99, 171.4712982177734
0, 0, 100, 158.2131042480469
0, 0, 101, 166.4026031494141
0, 0, 102, 170.1713104248047
0, 0, 103, 171.1989593505859
0, 0, 104, 167.7071228027344
0, 0, 105, 176.5315399169922
0, 0, 106, 160.0538177490234
0, 0, 107, 87.57068634033203
0, 0, 108, 23.25961875915527
0, 0, 109, 10.10013961791992
0, 0, 110, 6.984312534332275
0, 0, 111, 6.425794124603271
0, 0, 112, 3.57601261138916
0, 0, 113, 2.579850912094116
0, 0, 114, 2.187708854675293
0, 0, 115, 3.680151700973511
0, 0, 116, 2.009539842605591
0, 0, 117, 2.184391975402832
0, 0, 118, 6.097723484039307
0, 0, 119, 4.209363460540771
0, 0, 120, 2.123636245727539
0, 0, 121, 3.690554141998291
0, 0, 122, 4.442167282104492
0, 0, 123, 3.971293449401855
0, 0, 124, 1.189260601997375
0, 0, 125, 2.063462257385254
0, 0, 126, 0.5048759579658508
0, 0, 127, 1.235568404197693
0, 1, 0, 1.301193118095398
0, 1, 1, 4.814938068389893
0, 1, 2, 5.823964595794678
0, 1, 3, 1.643083572387695
0, 1, 4, 1.148381352424622
0, 1, 5, 1.803788304328918
0, 1, 6, 0.9911788702011108
0, 1, 7, 2.004095315933228
0, 1, 8, 3.227474451065063
0, 1, 9, 2.443393468856812
0, 1, 10, 3.92088770866394
0, 1, 11, 4.206990718841553
0, 1, 12, 4.334691524505615
0, 1, 13, 3.423806190490723
0, 1, 14, 7.52759313583374
0, 1, 15, 6.477779865264893
0, 1, 16, 8.665666580200195
0, 1, 17, 5.137100696563721
0, 1, 18, 10.90439128875732
0, 1, 19, 38.93647384643555
0, 1, 20, 125.8122787475586
0, 1, 21, 177.0770416259766
0, 1, 22, 192.8336486816406
0, 1, 23, 185.2621459960938
0, 1, 24, 180.5061950683594
0, 1, 25, 192.4199829101562
0, 1, 26, 197.5383911132812
0, 1, 27, 185.4258270263672
0, 1, 28, 189.2187805175781
0, 1, 29, 183.5909729003906
0, 1, 30, 179.0309448242188
0, 1, 31, 180.6888580322266
0, 1, 32, 188.2536010742188
0, 1, 33, 191.1853942871094
0, 1, 34, 185.1596984863281
0, 1, 35, 193.9835662841797
0, 1, 36, 205.4474639892578
0, 1, 37, 184.4733276367188
0, 1, 38, 165.0530090332031
0, 1, 39, 171.7349090576172
0, 1, 40, 181.5679321289062
0, 1, 41, 187.2373352050781
0, 1, 42, 183.7192687988281
0, 1, 43, 184.7463684082031
0, 1, 44, 167.3676910400391
0, 1, 45, 186.4401397705078
0, 1, 46, 170.2738647460938
0, 1, 47, 185.0216674804688
0, 1, 48, 186.5527954101562
0, 1, 49, 186.9894561767578
0, 1, 50, 177.922607421875
0, 1, 51, 190.5844421386719
0, 1, 52, 196.9959259033203
0, 1, 53, 198.2088775634766
0, 1, 54, 185.5751495361328
0, 1, 55, 164.9819030761719
0, 1, 56, 179.3644714355469
0, 1, 57, 179.6833801269531
0, 1, 58, 190.3397369384766
0, 1, 59, 193.1968688964844
0, 1, 60, 187.5772552490234
0, 1, 61, 178.8397216796875
0, 1, 62, 204.0982818603516
0, 1, 63, 173.4765014648438
0, 1, 64, 174.3399810791016
0, 1, 65, 184.7245483398438
0, 1, 66, 204.0948791503906
0, 1, 67, 182.0313720703125
0, 1, 68, 186.4837036132812
0, 1, 69, 188.7479553222656
0, 1, 70, 185.5296783447266
0, 1, 71, 171.1866760253906
0, 1, 72, 187.7397613525391
0, 1, 73, 189.8255920410156
0, 1, 74, 202.1914367675781
0, 1, 75, 183.3870544433594
0, 1, 76, 173.6073150634766
0, 1, 77, 191.5947113037109
0, 1, 78, 188.2955932617188
0, 1, 79, 204.8218841552734
0, 1, 80, 187.0043640136719
0, 1, 81, 175.4139404296875
0, 1, 82, 206.1857604980469
0, 1, 83, 212.3218994140625
0, 1, 84, 180.3026123046875
0, 1, 85, 170.6025238037109
0, 1, 86, 168.5013732910156
0, 1, 87, 185.6007080078125
0, 1, 88, 175.6315765380859
0, 1, 89, 187.4224853515625
0, 1, 90, 212.0950622558594
0, 1, 91, 181.3650360107422
0, 1, 92, 183.4028472900391
0, 1, 93, 180.54345703125
0, 1, 94, 185.4452972412109
0, 1, 95, 182.6750030517578
0, 1, 96, 196.8336639404297
0, 1, 97, 181.4838409423828
0, 1, 98, 187.8708343505859
0, 1, 99, 175.9658355712891
0, 1, 100, 172.5213165283203
0, 1, 101, 179.42041015625
0, 1, 102, 182.0124206542969
0, 1, 103, 172.6222229003906
0, 1, 104, 190.1468200683594
0, 1, 105, 182.0648345947266
0, 1, 106, 163.8633728027344
0, 1, 107, 122.5333023071289
0, 1, 108, 47.96757888793945
0, 1, 109, 9.809359550476074
0, 1, 110, 7.536534786224365
0, 1, 111, 6.064333438873291
0, 1, 112, 7.990144729614258
0, 1, 113, 6.392020702362061
0, 1, 114, 5.449967861175537
0, 1, 115, 2.902250289916992
0, 1, 116, 3.458919048309326
0, 1, 117, 2.290550470352173
0, 1, 118, 3.476260662078857
0, 1, 119, 1.414147138595581
0, 1, 120, 3.608923673629761
0, 1, 121, 4.733481884002686
0, 1, 122, 1.440156698226929
0, 1, 123, 3.823055744171143
0, 1, 124, 2.924842834472656
0, 1, 125, 2.444066047668457
0, 1, 126, 1.570940256118774
0, 1, 127, 2.279715538024902
0, 2, 0, 1.534423470497131
0, 2, 1, 2.116276979446411
0, 2, 2, 3.309279203414917
0, 2, 3, 1.993896245956421
0, 2, 4, 1.570955991744995
0, 2, 5, 2.354103803634644
0, 2, 6, 2.626453638076782
0, 2, 7, 1.80725634098053
0, 2, 8, 1.811129450798035
0, 2, 9, 2.446580648422241
0, 2, 10, 4.428211688995361
0, 2, 11, 3.760654926300049
0, 2, 12, 3.743114948272705
0, 2, 13, 3.173676252365112
0, 2, 14, 4.12224817276001
0, 2, 15, 4.820589065551758
0, 2, 16, 4.988550186157227
0, 2, 17, 8.774425506591797
0, 2, 18, 14.82125663757324
0, 2, 19, 76.70882415771484
0, 2, 20, 163.4524993896484
0, 2, 21, 182.5898590087891
0, 2, 22, 194.0314331054688
0, 2, 23, 183.6608276367188
0, 2, 24, 173.6175079345703
0, 2, 25, 183.6838531494141
0, 2, 26, 178.7710571289062
0, 2, 27, 189.1760101318359
0, 2, 28, 172.0741882324219
0, 2, 29, 168.6719818115234
0, 2, 30, 185.2453002929688
0, 2, 31, 181.6962280273438
0, 2, 32, 182.6541290283203
0, 2, 33, 190.9013214111328
0, 2, 34, 198.8695068359375
0, 2, 35, 181.5593566894531
0, 2, 36, 186.5092163085938
0, 2, 37, 181.1536254882812
0, 2, 38, 185.3017578125
0, 2, 39, 166.8133544921875
0, 2, 40, 184.7351684570312
0, 2, 41, 184.479736328125
0, 2, 42, 189.3524780273438
0, 2, 43, 193.4209594726562
0, 2, 44, 191.4803009033203
0, 2, 45, 190.3572387695312
0, 2, 46, 196.9842987060547
0, 2, 47, 189.5802307128906
0, 2, 48, 179.1045532226562
0, 2, 49, 197.3459167480469
0, 2, 50, 167.46875
0, 2, 51, 184.7701110839844
0, 2, 52, 186.4686737060547
0, 2, 53, 195.8759918212891
0, 2, 54, 174.6464691162109
0, 2, 55, 173.4523010253906
0, 2, 56, 181.3940277099609
0, 2, 57, 199.9373626708984
0, 2, 58, 185.6837310791016
0, 2, 59, 189.3790740966797
0, 2, 60, 198.1005249023438
0, 2, 61, 193.1852111816406
0, 2, 62, 190.3216094970703
0, 2, 63, 172.8573150634766
0, 2, 64, 190.0055847167969
0, 2, 65, 202.2743835449219
0, 2, 66, 195.9317626953125
0, 2, 67, 183.8650360107422
0, 2, 68, 182.5005798339844
0, 2, 69, 186.9485168457031
0, 2, 70, 203.0454711914062
0, 2, 71, 174.9720153808594
0, 2, 72, 185.4499969482422
0, 2, 73, 176.9886627197266
0, 2, 74, 180.3184204101562
0, 2, 75, 196.2380523681641
0, 2, 76, 184.2650909423828
0, 2, 77, 176.8598785400391
0, 2, 78, 198.9310150146484
0, 2, 79, 177.4308319091797
0, 2, 80, 185.9543304443359
0, 2, 81, 187.7874298095703
0, 2, 82, 204.8123931884766
0, 2, 83, 202.9606170654297
0, 2, 84, 188.447021484375
0, 2, 85, 171.5691223144531
0, 2, 86, 194.682373046875
0, 2, 87, 171.3799133300781
0, 2, 88, 179.0384979248047
0, 2, 89, 186.5009918212891
0, 2, 90, 177.7476654052734
0, 2, 91, 173.9870452880859
0, 2, 92, 196.5659790039062
0, 2, 93, 193.4244537353516
0, 2, 94, 199.4972839355469
0, 2, 95, 193.0181121826172
0, 2, 96, 186.7258453369141
0, 2, 97, 171.1958770751953
0, 2, 98, 173.060546875
0, 2, 99, 162.0783233642578
0, 2, 100, 186.8248291015625
0, 2, 101, 195.8878479003906
0, 2, 102, 176.0427703857422
0, 2, 103, 199.2683715820312
0, 2, 104, 187.7032012939453
0, 2, 105, 200.3604125976562
0, 2, 106, 194.9886322021484
0, 2, 107, 148.9274291992188
0, 2, 108, 78.57859039306641
0, 2, 109, 19.96357154846191
0, 2, 110, 7.809328079223633
0, 2, 111, 6.011314868927002
0, 2, 112, 4.746186256408691
0, 2, 113, 4.586117267608643
0, 2, 114, 7.415947437286377
0, 2, 115, 4.410982608795166
0, 2, 116, 1.247040390968323
0, 2, 117, 4.047828197479248
0, 2, 118, 1.664463996887207
0, 2, 119, 2.410336256027222
0, 2, 120, 1.429753303527832
0, 2, 121, 3.034264087677002
0, 2, 122, 2.301800012588501
0, 2, 123, 1.533728957176208
0, 2, 124, 2.701948165893555
0, 2, 125, 2.056244134902954
0, 2, 126, 3.328959941864014
0, 2, 127, 3.2436203956604
0, 3, 0, 1.689168572425842
0, 3, 1, 1.043211817741394
0, 3, 2, 1.414974093437195
0, 3, 3, 0.7553149461746216
0, 3, 4, 3.306764602661133
0, 3, 5, 2.396919012069702
0, 3, 6, 1.023761749267578
0, 3, 7, 1.254426002502441
0, 3, 8, 1.737520098686218
0, 3, 9, 2.205086469650269
0, 3, 10, 0.9036229252815247
0, 3, 11, 3.599719524383545
0, 3, 12, 3.287218570709229
0, 3, 13, 3.295694351196289
0, 3, 14, 4.26021671295166
0, 3, 15, 5.697082042694092
0, 3, 16, 7.030416965484619
0, 3, 17, 6.774416923522949
0, 3, 18, 33.19637298583984
0, 3, 19, 115.0130004882812
0, 3, 20, 180.8030700683594
0, 3, 21, 172.8134765625
0, 3, 22, 178.4626159667969
0, 3, 23, 187.8913421630859
0, 3, 24, 178.0099334716797
0, 3, 25, 169.7058410644531
0, 3, 26, 180.4742584228516
0, 3, 27, 192.0498199462891
0, 3, 28, 181.5870056152344
0, 3, 29, 197.1945495605469
0, 3, 30, 185.2490997314453
0, 3, 31, 192.8923645019531
0, 3, 32, 205.8894653320312
0, 3, 33, 196.3879089355469
0, 3, 34, 187.3428955078125
0, 3, 35, 173.5478057861328
0, 3, 36, 185.2245178222656
0, 3, 37, 200.4986267089844
0, 3, 38, 191.0321350097656
0, 3, 39, 186.087646484375
0, 3, 40, 166.4697723388672
0, 3, 41, 175.8844146728516
0, 3, 42, 185.0543823242188
0, 3, 43, 181.5408782958984
0, 3, 44, 202.3797760009766
0, 3, 45, 208.0868225097656
0, 3, 46, 199.7821960449219
0, 3, 47, 194.5350646972656
0, 3, 48, 196.24072265625
0, 3, 49, 179.6269378662109
0, 3, 50, 186.6896667480469
0, 3, 51, 174.0101623535156
0, 3, 52, 186.9680328369141
0, 3, 53, 179.3558349609375
0, 3, 54, 180.0573883056641
0, 3, 55, 177.2755737304688
0, 3, 56, 184.2523956298828
0, 3, 57, 176.1126098632812
0, 3, 58, 201.9261779785156
0, 3, 59, 196.7306213378906
0, 3, 60, 185.8335723876953
0, 3, 61, 180.6484375
0, 3, 62, 182.5272369384766
0, 3, 63, 183.8596954345703
0, 3, 64, 190.0010833740234
0, 3, 65, 187.2600402832031
0, 3, 66, 175.2266693115234
0, 3, 67, 192.1431274414062
0, 3, 68, 213.3743743896484
0, 3, 69, 193.7416534423828
0, 3, 70, 186.0143890380859
0, 3, 71, 197.1311492919922
0, 3, 72, 185.2108306884766
0, 3, 73, 186.3327026367188
0, 3, 74, 193.7723999023438
0, 3, 75, 192.1159515380859
0, 3, 76, 190.1726379394531
0, 3, 77, 200.4570465087891
0, 3, 78, 188.7978820800781
0, 3, 79, 184.7577514648438
0, 3, 80, 189.0701599121094
0, 3, 81, 183.8565368652344
0, 3, 82, 182.5024871826172
0, 3, 83, 195.1494598388672
0, 3, 84, 199.226806640625
0, 3, 85, 191.5263519287109
0, 3, 86, 204.2467651367188
0, 3, 87, 197.9199829101562
0, 3, 88, 192.5935974121094
0, 3, 89, 194.1727294921875
0, 3, 90, 174.9264221191406
0, 3, 91, 158.2758331298828
0, 3, 92, 206.8651885986328
0, 3, 93, 195.7040863037109
0, 3, 94, 193.0991516113281
0, 3, 95, 212.4015197753906
0, 3, 96, 208.7384490966797
0, 3, 97, 169.3855285644531
0, 3, 98, 166.9886932373047
0, 3, 99, 179.9028167724609
0, 3, 100, 177.1289520263672
0, 3, 101, 197.1763458251953
0, 3, 102, 196.0776977539062
0, 3, 103, 194.6562042236328
0, 3, 104, 201.8105621337891
0, 3, 105, 175.144775390625
0, 3, 106, 181.1624908447266
0, 3, 107, 169.0274505615234
0, 3, 108, 107.8415985107422
0, 3, 109, 27.6564769744873
0, 3, 110, 7.204309463500977
0, 3, 111, 6.775603771209717
0, 3, 112, 4.301561832427979
0, 3, 113, 6.241677284240723
0, 3, 114, 5.733129501342773
0, 3, 115, 4.289117813110352
0, 3, 116, 6.113561630249023
0, 3, 117, 4.549028873443604
0, 3, 118, 1.692250728607178
0, 3, 119, 2.37688136100769
0, 3, 120, 3.153380870819092
0, 3, 121, 3.91336727142334
0, 3, 122, 2.398330211639404
0, 3, 123, 1.74061131477356
0, 3, 124, 2.942358493804932
0, 3, 125, 1.144382476806641
0, 3, 126, 1.164015769958496
0, 3, 127, 1.257931113243103
0, 4, 0, 0.7853941321372986
0, 4, 1, 2.28316330909729
0, 4, 2, 3.179925203323364
0, 4, 3, 4.021301746368408
0, 4, 4, 3.118277788162231
0, 4, 5, 0.5683007836341858
0, 4, 6, 3.009343147277832
0, 4, 7, 2.077859401702881
0, 4, 8, 1.678623914718628
0, 4, 9, 2.638044595718384
0, 4, 10, 2.942502975463867
0, 4, 11, 3.908952236175537
0, 4, 12, 3.077118158340454
0, 4, 13, 4.334089756011963
0, 4, 14, 5.072300434112549
0, 4, 15, 8.98679256439209
0, 4, 16, 6.647375583648682
0, 4, 17, 11.21817684173584
0, 4, 18, 55.17952346801758
0, 4, 19, 152.3003997802734
0, 4, 20, 193.1397705078125
0, 4, 21, 169.1432037353516
0, 4, 22, 187.1680908203125
0, 4, 23, 196.1702117919922
0, 4, 24, 192.5996398925781
0, 4, 25, 199.4971771240234
0, 4, 26, 182.6382293701172
0, 4, 27, 191.9612426757812
0, 4, 28, 179.9557647705078
0, 4, 29, 205.1942291259766
0, 4, 30, 196.5369415283203
0, 4, 31, 192.7965545654297
0, 4, 32, 210.1914367675781
0, 4, 33, 191.3341827392578
0, 4, 34, 193.7155914306641
0, 4, 35, 214.587890625
0, 4, 36, 193.0493927001953
0, 4, 37, 176.7566986083984
0, 4, 38, 196.2179718017578
0, 4, 39, 189.4636688232422
0, 4, 40, 185.1983032226562
0, 4, 41, 188.9686279296875
0, 4, 42, 206.0795593261719
0, 4, 43, 174.5521240234375
0, 4, 44, 184.2787170410156
0, 4, 45, 197.1017150878906
0, 4, 46, 185.6727905273438
0, 4, 47, 180.6566467285156
0, 4, 48, 185.3540344238281
0, 4, 49, 175.0456390380859
0, 4, 50, 187.4274749755859
0, 4, 51, 198.3680572509766
0, 4, 52, 223.0057830810547
0, 4, 53, 205.1269378662109
0, 4, 54, 190.4193572998047
0, 4, 55, 174.61767578125
0, 4, 56, 190.8335723876953
0, 4, 57, 191.8792114257812
0, 4, 58, 186.7579345703125
0, 4, 59, 190.6907348632812
0, 4, 60, 195.6007843017578
0, 4, 61, 193.5899810791016
0, 4, 62, 189.7910919189453
0, 4, 63, 178.0370788574219
0, 4, 64, 212.8121948242188
0, 4, 65, 191.6509246826172
0, 4, 66, 201.4557342529297
0, 4, 67, 200.3309173583984
0, 4, 68, 203.0188446044922
0, 4, 69, 200.1005249023438
0, 4, 70, 205.9320831298828
0, 4, 71, 207.2234497070312
0, 4, 72, 216.0849151611328
0, 4, 73, 185.9170684814453
0, 4, 74, 180.2318267822266
0, 4, 75, 185.9655303955078
0, 4, 76, 190.1649322509766
0, 4, 77, 183.0674438476562
0, 4, 78, 194.9553833007812
0, 4, 79, 205.4847106933594
0, 4, 80, 211.8399963378906
0, 4, 81, 198.6700286865234
0, 4, 82, 181.1441802978516
0, 4, 83, 171.9167175292969
0, 4, 84, 192.4861297607422
0, 4, 85, 196.4218597412109
0, 4, 86, 182.8363800048828
0, 4, 87, 184.4754333496094
0, 4, 88, 204.4373168945312
0, 4, 89, 187.5828857421875
0, 4, 90, 211.6929016113281
0, 4, 91, 189.1116485595703
0, 4, 92, 196.0059356689453
0, 4, 93, 195.2001495361328
0, 4, 94, 181.0855102539062
0, 4, 95, 174.0765228271484
0, 4, 96, 189.6488342285156
0, 4, 97, 192.9941101074219
0, 4, 98, 201.1822967529297
0, 4, 99, 184.7372436523438
0, 4, 100, 181.9488677978516
0, 4, 101, 177.3288116455078
0, 4, 102, 173.5411682128906
0, 4, 103, 185.8447418212891
0, 4, 104, 210.4219665527344
0, 4, 105, 189.6124572753906
0, 4, 106, 179.8916473388672
0, 4, 107, 182.4224090576172
0, 4, 108, 151.4425201416016
0, 4, 109, 49.00981903076172
0, 4, 110, 12.09185028076172
0, 4, 111, 7.472120761871338
0, 4, 112, 6.068026542663574
0, 4, 113, 7.632559776306152
0, 4, 114, 6.106418132781982
0, 4, 115, 2.797609329223633
0, 4, 116, 4.409869194030762
0, 4, 117, 3.566158056259155
0, 4, 118, 4.067081451416016
0, 4, 119, 4.116266250610352
0, 4, 120, 2.066293716430664
0, 4, 121, 3.619315624237061
0, 4, 122, 2.522536277770996
0, 4, 123, 1.472243070602417
0, 4, 124, 4.048703193664551
0, 4, 125, 2.172646045684814
0, 4, 126, 1.460823535919189
0, 4, 127, 1.94945228099823
0, 5, 0, 1.452861189842224
0, 5, 1, 4.04168176651001
0, 5, 2, 5.815150260925293
0, 5, 3, 4.026018142700195
0, 5, 4, 1.934982419013977
0, 5, 5, 2.552659034729004
0, 5, 6, 2.765168905258179
0, 5, 7, 2.041893482208252
0, 5, 8, 2.786905765533447
0, 5, 9, 2.699837684631348
0, 5, 10, 2.878973484039307
0, 5, 11, 3.193809509277344
0, 5, 12, 3.033876180648804
0, 5, 13, 3.261952638626099
0, 5, 14, 5.995827198028564
0, 5, 15, 8.415998458862305
0, 5, 16, 7.422637462615967
0, 5, 17, 23.14531707763672
0, 5, 18, 82.91091156005859
0, 5, 19, 163.4723205566406
0, 5, 20, 183.6524810791016
0, 5, 21, 178.0433044433594
0, 5, 22, 173.1744842529297
0, 5, 23, 200.5062255859375
0, 5, 24, 187.2700500488281
0, 5, 25, 208.8122406005859
0, 5, 26, 183.5813598632812
0, 5, 27, 193.6204223632812
0, 5, 28, 190.6544189453125
0, 5, 29, 195.0511169433594
0, 5, 30, 179.4868469238281
0, 5, 31, 180.9513092041016
0, 5, 32, 189.2470703125
0, 5, 33, 169.9200134277344
0, 5, 34, 195.7783966064453
0, 5, 35, 198.2123413085938
0, 5, 36, 167.9156494140625
0, 5, 37, 197.1371917724609
0, 5, 38, 182.0468597412109
0, 5, 39, 187.1220703125
0, 5, 40, 196.4084625244141
0, 5, 41, 176.7502746582031
0, 5, 42, 187.3050231933594
0, 5, 43, 193.08984375
0, 5, 44, 200.9209136962891
0, 5, 45, 186.2685852050781
0, 5, 46, 192.4258575439453
0, 5, 47, 179.8782958984375
0, 5, 48, 177.4770355224609
0, 5, 49, 176.8434448242188
0, 5, 50, 186.9925537109375
0, 5, 51, 171.1181182861328
0, 5, 52, 168.7169036865234
0, 5, 53, 182.0782165527344
0, 5, 54, 172.0392150878906
0, 5, 55, 215.2489624023438
0, 5, 56, 181.7192077636719
0, 5, 57, 207.3507995605469
0, 5, 58, 182.5979309082031
0, 5, 59, 182.2327880859375
0, 5, 60, 218.4944763183594
0, 5, 61, 185.0007019042969
0, 5, 62, 178.3285217285156
0, 5, 63, 179.8524475097656
0, 5, 64, 195.4457244873047
0, 5, 65, 209.2299041748047
0, 5, 66, 192.8086090087891
0, 5, 67, 199.1289672851562
0, 5, 68, 185.8957824707031
0, 5, 69, 184.7712249755859
0, 5, 70, 184.4730987548828
0, 5, 71, 192.3554229736328
0, 5, 72, 197.6990203857422
0, 5, 73, 201.0814361572266
0, 5, 74, 180.5188446044922
0, 5, 75, 203.3923492431641
0, 5, 76, 215.7091369628906
0, 5, 77, 182.1891479492188
0, 5, 78, 195.802490234375
0, 5, 79, 189.8497467041016
0, 5, 80, 197.6168212890625
0, 5, 81, 202.3469085693359
0, 5, 82, 201.52197265625
0, 5, 83, 188.2484283447266
0, 5, 84, 206.2985229492188
0, 5, 85, 177.1874542236328
0, 5, 86, 194.8608245849609
0, 5, 87, 189.3919830322266
0, 5, 88, 177.1919555664062
0, 5, 89, 194.4824981689453
0, 5, 90, 198.7122802734375
0, 5, 91, 193.8650665283203
0, 5, 92, 191.2425842285156
0, 5, 93, 193.1511840820312
0, 5, 94, 207.9077606201172
0, 5, 95, 176.3884735107422
0, 5, 96, 181.9230651855469
0, 5, 97, 190.6242218017578
0, 5, 98, 189.9419097900391
0, 5, 99, 195.9214324951172
0, 5, 100, 187.0188903808594
0, 5, 101, 196.2433929443359
0, 5, 102, 181.1458282470703
0, 5, 103, 175.9850006103516
0, 5, 104, 190.9319152832031
0, 5, 105, 190.5219421386719
0, 5, 106, 176.4178619384766
0, 5, 107, 180.8483428955078
0, 5, 108, 177.0650787353516
0, 5, 109, 90.34111022949219
0, 5, 110, 30.77413940429688
0, 5, 111, 8.08847713470459
0, 5, 112, 6.271688938140869
0, 5, 113, 6.981126308441162
0, 5, 114, 5.894250869750977
0, 5, 115, 9.49885082244873
0, 5, 116, 4.644021034240723
0, 5, 117, 2.286909103393555
0, 5, 118, 3.757135629653931
0, 5, 119, 3.00327205657959
0, 5, 120, 2.734208822250366
0, 5, 121, 1.276340842247009
0, 5, 122, 3.519041776657104
0, 5, 123, 4.69316291809082
0, 5, 124, 2.429155588150024
0, 5, 125, 2.214339971542358
0, 5, 126, 2.62077522277832
0, 5, 127, 2.105404615402222
0, 6, 0, 4.113256931304932
0, 6, 1, 2.460434198379517
0, 6, 2, 3.513315439224243
0, 6, 3, 1.47419285774231
0, 6, 4, 2.413544416427612
0, 6, 5, 4.288490772247314
0, 6, 6, 3.553805351257324
0, 6, 7, 3.193051815032959
0, 6, 8, 4.07160758972168
0, 6, 9, 2.544614315032959
0, 6, 10, 3.705953598022461
0, 6, 11, 5.123889923095703
0, 6, 12, 4.372173309326172
0, 6, 13, 5.019223690032959
0, 6, 14, 5.952556610107422
0, 6, 15, 6.497300148010254
0, 6, 16, 13.25077056884766
0, 6, 17, 29.04985618591309
0, 6, 18, 111.8980178833008
0, 6, 19, 192.9411773681641
0, 6, 20, 195.1007537841797
0, 6, 21, 198.8990631103516
0, 6, 22, 189.9638671875
0, 6, 23, 190.0385894775391
0, 6, 24, 201.1886291503906
0, 6, 25, 182.8719482421875
0, 6, 26, 187.5942535400391
0, 6, 27, 192.7136383056641
0, 6, 28, 188.8512725830078
0, 6, 29, 211.0990295410156
0, 6, 30, 189.83642578125
0, 6, 31, 192.7125091552734
0, 6, 32, 205.6882629394531
0, 6, 33, 184.7784576416016
0, 6, 34, 197.0357513427734
0, 6, 35, 187.9215850830078
0, 6, 36, 179.6953125
0, 6, 37, 182.2253875732422
0, 6, 38, 184.4452667236328
0, 6, 39, 195.927978515625
0, 6, 40, 174.2741546630859
0, 6, 41, 185.2397003173828
0, 6, 42, 173.9955139160156
0, 6, 43, 210.1327056884766
0, 6, 44, 209.8370513916016
0, 6, 45, 192.8599548339844
0, 6, 46, 187.7899932861328
0, 6, 47, 204.5616455078125
0, 6, 48, 190.3119659423828
0, 6, 49, 178.2136535644531
0, 6, 50, 181.6903839111328
0, 6, 51, 196.7252502441406
0, 6, 52, 198.0450744628906
0, 6, 53, 184.6155090332031
0, 6, 54, 176.1476593017578
0, 6, 55, 195.22509765625
0, 6, 56, 202.9125061035156
0, 6, 57, 191.1915283203125
0, 6, 58, 179.7790222167969
0, 6, 59, 191.6850738525391
0, 6, 60, 185.4627075195312
0, 6, 61, 194.158935546875
0, 6, 62, 196.5724487304688
0, 6, 63, 186.3811492919922
0, 6, 64, 167.812255859375
0, 6, 65, 185.6125793457031
0, 6, 66, 197.8494567871094
0, 6, 67, 214.0077514648438
0, 6, 68, 179.4724731445312
0, 6, 69, 171.5935821533203
0, 6, 70, 187.563720703125
0, 6, 71, 171.1664428710938
0, 6, 72, 175.6625518798828
0, 6, 73, 176.739990234375
0, 6, 74, 210.1316528320312
0, 6, 75, 228.3038482666016
0, 6, 76, 184.5500946044922
0, 6, 77, 175.5586395263672
0, 6, 78, 175.6553192138672
0, 6, 79, 187.2715606689453
0, 6, 80, 187.9386749267578
0, 6, 81, 209.2577056884766
0, 6, 82, 196.14306640625
0, 6, 83, 195.3410186767578
0, 6, 84, 197.6373443603516
0, 6, 85, 180.5087127685547
0, 6, 86, 201.5641784667969
0, 6, 87, 183.4091186523438
0, 6, 88, 192.2998809814453
0, 6, 89, 188.0562133789062
0, 6, 90, 205.5374450683594
0, 6, 91, 200.0033111572266
0, 6, 92, 173.7787628173828
0, 6, 93, 192.5716400146484
0, 6, 94, 189.4634399414062
0, 6, 95, 186.5276336669922
0, 6, 96, 188.3888854980469
0, 6, 97, 195.0879516601562
0, 6, 98, 183.3973541259766
0, 6, 99, 174.1313323974609
0, 6, 100, 201.1573333740234
0, 6, 101, 168.8215637207031
0, 6, 102, 202.2251281738281
0, 6, 103, 196.0763244628906
0, 6, 104, 183.4666595458984
0, 6, 105, 194.3668823242188
0, 6, 106, 178.4406280517578
0, 6, 107, 194.9616088867188
0, 6, 108, 171.162353515625
0, 6, 109, 115.9609527587891
0, 6, 110, 35.67982864379883
0, 6, 111, 8.989344596862793
0, 6, 112, 8.153389930725098
0, 6, 113, 6.206785202026367
0, 6, 114, 7.605392932891846
0, 6, 115, 4.44962739944458
0, 6, 116, 4.905359268188477
0, 6, 117, 4.488523483276367
0, 6, 118, 3.202457427978516
0, 6, 119, 4.066331386566162
0, 6, 120, 2.015164852142334
0, 6, 121, 6.000193119049072
0, 6, 122, 2.041560649871826
0, 6, 123, 3.253843784332275
0, 6, 124, 2.411169290542603
0, 6, 125, 3.291525602340698
0, 6, 126, 1.71114182472229
0, 6, 127, 2.717765808105469
0, 7, 0, 3.82307767868042
0, 7, 1, 1.407570242881775
0, 7, 2, 1.896884083747864
0, 7, 3, 3.406200170516968
0, 7, 4, 1.670302867889404
0, 7, 5, 1.370751738548279
0, 7, 6, 3.335529565811157
0, 7, 7, 1.749663949012756
0, 7, 8, 3.377786874771118
0, 7, 9, 5.076176166534424
0, 7, 10, 4.445921421051025
0, 7, 11, 3.342000961303711
0, 7, 12, 4.133326530456543
0, 7, 13, 6.102139949798584
0, 7, 14, 6.978633403778076
0, 7, 15, 7.644645214080811
0, 7, 16, 15.80982971191406
0, 7, 17, 52.20270538330078
0, 7, 18, 160.8677520751953
0, 7, 19, 183.9323577880859
0, 7, 20, 181.4536285400391
0, 7, 21, 180.172607421875
0, 7, 22, 192.11962890625
0, 7, 23, 203.6029205322266
0, 7, 24, 179.8679504394531
0, 7, 25, 213.2125854492188
0, 7, 26, 188.3714599609375
0, 7, 27, 182.1648406982422
0, 7, 28, 183.5702972412109
0, 7, 29, 209.2796630859375
0, 7, 30, 192.7783203125
0, 7, 31, 175.3100280761719
0, 7, 32, 190.4874877929688
0, 7, 33, 178.8668212890625
0, 7, 34, 193.2694854736328
0, 7, 35, 197.9791870117188
0, 7, 36, 187.3562164306641
0, 7, 37, 214.4052886962891
0, 7, 38, 191.1237640380859
0, 7, 39, 173.5356750488281
0, 7, 40, 183.2483978271484
0, 7, 41, 184.9757537841797
0, 7, 42, 177.6830291748047
0, 7, 43, 176.9626617431641
0, 7, 44, 178.7776641845703
0, 7, 45, 173.5533752441406
0, 7, 46, 189.8839874267578
0, 7, 47, 198.6525726318359
0, 7, 48, 186.4940338134766
0, 7, 49, 200.8676910400391
0, 7, 50, 189.9865875244141
0, 7, 51, 204.4950103759766
0, 7, 52, 203.9057006835938
0, 7, 53, 191.0780944824219
0, 7, 54, 196.2810516357422
0, 7, 55, 203.5491485595703
0, 7, 56, 183.4808197021484
0, 7, 57, 182.2195892333984
0, 7, 58, 190.6096496582031
0, 7, 59, 187.3899536132812
0, 7, 60, 202.5157928466797
0, 7, 61, 171.12744140625
0, 7, 62, 202.8901519775391
0, 7, 63, 188.8308563232422
0, 7, 64, 198.9364013671875
0, 7, 65, 197.1946411132812
0, 7, 66, 205.8743438720703
0, 7, 67, 219.8388977050781
0, 7, 68, 164.1059722900391
0, 7, 69, 193.8525695800781
0, 7, 70, 217.2272644042969
0, 7, 71, 184.1948089599609
0, 7, 72, 182.2783966064453
0, 7, 73, 176.4261474609375
0, 7, 74, 208.4479827880859
0, 7, 75, 204.9418029785156
0, 7, 76, 214.7135467529297
0, 7, 77, 174.555908203125
0, 7, 78, 176.4068908691406
0, 7, 79, 193.9160461425781
0, 7, 80, 195.2463684082031
0, 7, 81, 214.8181915283203
0, 7, 82, 184.8501586914062
0, 7, 83, 204.7352294921875
0, 7, 84, 192.8847198486328
0, 7, 85, 186.0438232421875
0, 7, 86, 200.0925445556641
0, 7, 87, 229.2675323486328
0, 7, 88, 194.9945526123047
0, 7, 89, 176.8933410644531
0, 7, 90, 182.1616973876953
0, 7, 91, 194.1769561767578
0, 7, 92, 194.2687835693359
0, 7, 93, 197.6431121826172
0, 7, 94, 176.2263946533203
0, 7, 95, 196.7738342285156
0, 7, 96, 208.6977844238281
0, 7, 97, 189.1422576904297
0, 7, 98, 176.4593963623047
0, 7, 99, 196.9083099365234
0, 7, 100, 182.3068389892578
0, 7, 101, 199.6143798828125
0, 7, 102, 185.4264678955078
0, 7, 103, 182.5130157470703
0, 7, 104, 174.3070678710938
0, 7, 105, 196.7819213867188
0, 7, 106, 207.3818664550781
0, 7, 107, 174.44482421875
0, 7, 108, 176.542724609375
0, 7, 109, 136.82861328125
0, 7, 110, 53.93362808227539
0, 7, 111, 9.743965148925781
0, 7, 112, 8.11409854888916
0, 7, 113, 8.195351600646973
0, 7, 114, 8.490985870361328
0, 7, 115, 4.519601345062256
0, 7, 116, 4.066467761993408
0, 7, 117, 3.08993673324585
0, 7, 118, 3.432296991348267
0, 7, 119, 2.638288736343384
0, 7, 120, 4.378878593444824
0, 7, 121, 3.302409410476685
0, 7, 122, 3.473763704299927
0, 7, 123, 1.594656705856323
0, 7, 124, 2.122470378875732
0, 7, 125, 1.618780374526978
0, 7, 126, 2.349829912185669
0, 7, 127, 0.9306010603904724
0, 8, 0, 4.287412643432617
0, 8, 1, 2.794594287872314
0, 8, 2, 2.679435253143311
0, 8, 3, 2.339033842086792
0, 8, 4, 1.826558589935303
0, 8, 5, 3.154073238372803
0, 8, 6, 2.611352920532227
0, 8, 7, 2.83435320854187
0, 8, 8, 1.804900884628296
0, 8, 9, 2.956243753433228
0, 8, 10, 1.99935245513916
0, 8, 11, 2.697548627853394
0, 8, 12, 3.693629741668701
0, 8, 13, 7.457611560821533
0, 8, 14, 5.638909816741943
0, 8, 15, 8.545501708984375
0, 8, 16, 21.31133270263672
0, 8, 17, 74.3729248046875
0, 8, 18, 142.5032653808594
0, 8, 19, 178.8774719238281
0, 8, 20, 192.1757659912109
0, 8, 21, 192.8526306152344
0, 8, 22, 179.5506286621094
0, 8, 23, 172.6098480224609
0, 8, 24, 192.3248138427734
0, 8, 25, 184.4576568603516
0, 8, 26, 192.5719451904297
0, 8, 27, 186.8851318359375
0, 8, 28, 187.6233062744141
0, 8, 29, 207.8169250488281
0, 8, 30, 196.8470153808594
0, 8, 31, 182.2452087402344
0, 8, 32, 199.4655609130859
0, 8, 33, 207.1397857666016
0, 8, 34, 203.5932769775391
0, 8, 35, 185.8585815429688
0, 8, 36, 181.2405853271484
0, 8, 37, 198.6729583740234
