# TOPAS Version: 3.1.p3
# Parameter File: batch_inserts_110.txt
# Results for scorer Readout_Adipose
# Scored in component: MyBox
# X in 1 bin  of 0.65 cm
# Y in 512 bins of 0.0783984 cm
# Z in 128 bins of 0.078125 cm
# EnergyDeposit ( MeV ) : Sum   
0, 0, 0, 1.505515098571777
0, 0, 1, 3.51461124420166
0, 0, 2, 2.396950244903564
0, 0, 3, 1.221644759178162
0, 0, 4, 1.29610812664032
0, 0, 5, 1.4016273021698
0, 0, 6, 0.9598521590232849
0, 0, 7, 2.393228530883789
0, 0, 8, 2.353356599807739
0, 0, 9, 2.233544588088989
0, 0, 10, 3.18469762802124
0, 0, 11, 3.372517585754395
0, 0, 12, 5.506072998046875
0, 0, 13, 3.056398630142212
0, 0, 14, 4.953156471252441
0, 0, 15, 6.166119575500488
0, 0, 16, 4.01667594909668
0, 0, 17, 6.01897144317627
0, 0, 18, 8.092184066772461
0, 0, 19, 23.38703727722168
0, 0, 20, 94.75267028808594
0, 0, 21, 152.5474700927734
0, 0, 22, 152.9463195800781
0, 0, 23, 143.8707580566406
0, 0, 24, 159.5945281982422
0, 0, 25, 166.6911163330078
0, 0, 26, 166.7798614501953
0, 0, 27, 174.1564483642578
0, 0, 28, 177.7997436523438
0, 0, 29, 174.9761352539062
0, 0, 30, 173.4177703857422
0, 0, 31, 166.5756378173828
0, 0, 32, 164.4471435546875
0, 0, 33, 167.9141693115234
0, 0, 34, 176.8682861328125
0, 0, 35, 174.9089965820312
0, 0, 36, 159.9147186279297
0, 0, 37, 163.3477630615234
0, 0, 38, 167.0598602294922
0, 0, 39, 159.7911834716797
0, 0, 40, 165.276123046875
0, 0, 41, 166.5773773193359
0, 0, 42, 144.1153869628906
0, 0, 43, 167.7206420898438
0, 0, 44, 177.8477783203125
0, 0, 45, 172.1384735107422
0, 0, 46, 165.1810455322266
0, 0, 47, 167.5197906494141
0, 0, 48, 169.1153411865234
0, 0, 49, 182.2336883544922
0, 0, 50, 168.6581268310547
0, 0, 51, 161.6238861083984
0, 0, 52, 164.0585784912109
0, 0, 53, 172.0801544189453
0, 0, 54, 160.2102813720703
0, 0, 55, 164.9273986816406
0, 0, 56, 189.0894775390625
0, 0, 57, 171.5248107910156
0, 0, 58, 163.1947631835938
0, 0, 59, 172.4891967773438
0, 0, 60, 169.3560485839844
0, 0, 61, 169.0691833496094
0, 0, 62, 183.7256469726562
0, 0, 63, 168.2729644775391
0, 0, 64, 164.9781951904297
0, 0, 65, 174.7693023681641
0, 0, 66, 177.9174957275391
0, 0, 67, 165.1465606689453
0, 0, 68, 158.6941070556641
0, 0, 69, 158.4078674316406
0, 0, 70, 169.4241943359375
0, 0, 71, 158.2541656494141
0, 0, 72, 161.1052093505859
0, 0, 73, 172.5033874511719
0, 0, 74, 164.2904052734375
0, 0, 75, 163.2742156982422
0, 0, 76, 163.5608062744141
0, 0, 77, 173.6017456054688
0, 0, 78, 181.3392333984375
0, 0, 79, 174.3529968261719
0, 0, 80, 159.2466278076172
0, 0, 81, 161.3939666748047
0, 0, 82, 182.0136566162109
0, 0, 83, 174.1114044189453
0, 0, 84, 159.6436920166016
0, 0, 85, 182.2125396728516
0, 0, 86, 158.9533233642578
0, 0, 87, 177.3721923828125
0, 0, 88, 177.4664611816406
0, 0, 89, 174.175048828125
0, 0, 90, 160.9885101318359
0, 0, 91, 185.0834045410156
0, 0, 92, 165.4048919677734
0, 0, 93, 156.547607421875
0, 0, 94, 168.1463012695312
0, 0, 95, 173.508056640625
0, 0, 96, 184.2263336181641
0, 0, 97, 183.8567504882812
0, 0, 98, 185.5962524414062
0, 0, 99, 171.7943420410156
0, 0, 100, 159.7306213378906
0, 0, 101, 166.8828735351562
0, 0, 102, 171.7973937988281
0, 0, 103, 170.4128112792969
0, 0, 104, 167.9758911132812
0, 0, 105, 178.0475463867188
0, 0, 106, 158.7326049804688
0, 0, 107, 88.52919769287109
0, 0, 108, 21.07551765441895
0, 0, 109, 9.28548526763916
0, 0, 110, 5.34783411026001
0, 0, 111, 6.189867496490479
0, 0, 112, 2.820485591888428
0, 0, 113, 4.168907642364502
0, 0, 114, 2.339487314224243
0, 0, 115, 2.818375587463379
0, 0, 116, 3.367514610290527
0, 0, 117, 2.189170122146606
0, 0, 118, 3.985892534255981
0, 0, 119, 2.011142253875732
0, 0, 120, 1.141325235366821
0, 0, 121, 4.874083995819092
0, 0, 122, 3.845503568649292
0, 0, 123, 4.439631462097168
0, 0, 124, 1.228500843048096
0, 0, 125, 2.55980920791626
0, 0, 126, 0.8193053603172302
0, 0, 127, 2.259241342544556
0, 1, 0, 1.054258942604065
0, 1, 1, 2.786198854446411
0, 1, 2, 1.975731372833252
0, 1, 3, 1.275297880172729
0, 1, 4, 0.885182797908783
0, 1, 5, 1.231000065803528
0, 1, 6, 1.488705515861511
0, 1, 7, 2.924520492553711
0, 1, 8, 1.084918022155762
0, 1, 9, 1.437999725341797
0, 1, 10, 3.865366697311401
0, 1, 11, 3.863395214080811
0, 1, 12, 3.606040716171265
0, 1, 13, 3.762325763702393
0, 1, 14, 7.027220726013184
0, 1, 15, 6.257960319519043
0, 1, 16, 7.663932800292969
0, 1, 17, 5.365442276000977
0, 1, 18, 9.999081611633301
0, 1, 19, 38.49233245849609
0, 1, 20, 126.1328964233398
0, 1, 21, 176.4011383056641
0, 1, 22, 192.9398651123047
0, 1, 23, 186.0126953125
0, 1, 24, 180.4162902832031
0, 1, 25, 191.1695098876953
0, 1, 26, 197.5274047851562
0, 1, 27, 186.4875030517578
0, 1, 28, 188.0327453613281
0, 1, 29, 183.8714294433594
0, 1, 30, 179.6993560791016
0, 1, 31, 181.9812164306641
0, 1, 32, 188.8512420654297
0, 1, 33, 191.1494903564453
0, 1, 34, 186.1480102539062
0, 1, 35, 193.3050842285156
0, 1, 36, 205.9455871582031
0, 1, 37, 186.1089935302734
0, 1, 38, 164.5081329345703
0, 1, 39, 171.5289764404297
0, 1, 40, 179.1414642333984
0, 1, 41, 184.8309173583984
0, 1, 42, 181.8035888671875
0, 1, 43, 184.7941284179688
0, 1, 44, 168.8857727050781
0, 1, 45, 187.1859741210938
0, 1, 46, 172.6370849609375
0, 1, 47, 184.3008422851562
0, 1, 48, 186.5346527099609
0, 1, 49, 186.3037872314453
0, 1, 50, 177.7588653564453
0, 1, 51, 191.5142974853516
0, 1, 52, 195.70263671875
0, 1, 53, 196.4226837158203
0, 1, 54, 185.7373352050781
0, 1, 55, 165.6039886474609
0, 1, 56, 178.5818634033203
0, 1, 57, 178.1252593994141
0, 1, 58, 189.7535858154297
0, 1, 59, 195.1102600097656
0, 1, 60, 188.177734375
0, 1, 61, 177.6001892089844
0, 1, 62, 204.6011962890625
0, 1, 63, 175.5387115478516
0, 1, 64, 173.4113311767578
0, 1, 65, 184.7590026855469
0, 1, 66, 203.7474365234375
0, 1, 67, 182.0589752197266
0, 1, 68, 187.0369262695312
0, 1, 69, 189.2342224121094
0, 1, 70, 185.919189453125
0, 1, 71, 171.5162048339844
0, 1, 72, 189.9674835205078
0, 1, 73, 190.4902954101562
0, 1, 74, 201.1641082763672
0, 1, 75, 183.6387786865234
0, 1, 76, 173.6055297851562
0, 1, 77, 192.9617919921875
0, 1, 78, 188.4633178710938
0, 1, 79, 201.358154296875
0, 1, 80, 185.7504119873047
0, 1, 81, 173.9535217285156
0, 1, 82, 207.5685424804688
0, 1, 83, 213.675537109375
0, 1, 84, 180.6013793945312
0, 1, 85, 169.1094055175781
0, 1, 86, 168.8959808349609
0, 1, 87, 184.616943359375
0, 1, 88, 174.4831390380859
0, 1, 89, 187.8907318115234
0, 1, 90, 213.1259918212891
0, 1, 91, 181.3814697265625
0, 1, 92, 184.6551818847656
0, 1, 93, 181.7683563232422
0, 1, 94, 185.2852783203125
0, 1, 95, 183.0024719238281
0, 1, 96, 198.0187377929688
0, 1, 97, 183.2353210449219
0, 1, 98, 187.345703125
0, 1, 99, 175.3324584960938
0, 1, 100, 171.0894622802734
0, 1, 101, 177.8975219726562
0, 1, 102, 181.8617095947266
0, 1, 103, 172.9689483642578
0, 1, 104, 189.4175109863281
0, 1, 105, 182.0870208740234
0, 1, 106, 163.9010467529297
0, 1, 107, 122.9308776855469
0, 1, 108, 48.49288558959961
0, 1, 109, 9.228673934936523
0, 1, 110, 7.925830364227295
0, 1, 111, 6.392381191253662
0, 1, 112, 7.394481658935547
0, 1, 113, 7.293132305145264
0, 1, 114, 4.88665771484375
0, 1, 115, 3.158893823623657
0, 1, 116, 1.901570439338684
0, 1, 117, 2.088241338729858
0, 1, 118, 4.903459072113037
0, 1, 119, 1.544663429260254
0, 1, 120, 3.986575126647949
0, 1, 121, 3.637967109680176
0, 1, 122, 1.971977591514587
0, 1, 123, 3.657355308532715
0, 1, 124, 2.198652982711792
0, 1, 125, 2.336707353591919
0, 1, 126, 1.536887168884277
0, 1, 127, 2.130196094512939
0, 2, 0, 1.303524732589722
0, 2, 1, 2.455300092697144
0, 2, 2, 3.105409622192383
0, 2, 3, 1.156776189804077
0, 2, 4, 2.22571325302124
0, 2, 5, 0.9785792231559753
0, 2, 6, 2.442573070526123
0, 2, 7, 1.626878142356873
0, 2, 8, 1.462030410766602
0, 2, 9, 3.345696926116943
0, 2, 10, 5.572094440460205
0, 2, 11, 3.520994424819946
0, 2, 12, 3.089146137237549
0, 2, 13, 3.095800161361694
0, 2, 14, 4.065379619598389
0, 2, 15, 5.667917251586914
0, 2, 16, 5.165672779083252
0, 2, 17, 9.2283935546875
0, 2, 18, 14.39532279968262
0, 2, 19, 78.80372619628906
0, 2, 20, 163.0653076171875
0, 2, 21, 185.3162231445312
0, 2, 22, 195.5350189208984
0, 2, 23, 183.310302734375
0, 2, 24, 173.9822998046875
0, 2, 25, 184.5162506103516
0, 2, 26, 178.9419250488281
0, 2, 27, 189.7786102294922
0, 2, 28, 173.0426940917969
0, 2, 29, 169.0356903076172
0, 2, 30, 184.1441955566406
0, 2, 31, 181.9130401611328
0, 2, 32, 183.1783752441406
0, 2, 33, 191.7099609375
0, 2, 34, 197.7141265869141
0, 2, 35, 181.4989471435547
0, 2, 36, 184.5514221191406
0, 2, 37, 180.7926025390625
0, 2, 38, 185.1110992431641
0, 2, 39, 166.0475311279297
0, 2, 40, 183.7662048339844
0, 2, 41, 183.9698638916016
0, 2, 42, 190.1118469238281
0, 2, 43, 193.1720123291016
0, 2, 44, 191.1299591064453
0, 2, 45, 190.6192321777344
0, 2, 46, 196.921630859375
0, 2, 47, 189.7580108642578
0, 2, 48, 177.5151214599609
0, 2, 49, 196.8757171630859
0, 2, 50, 167.6715240478516
0, 2, 51, 184.603515625
0, 2, 52, 185.5690460205078
0, 2, 53, 197.0849151611328
0, 2, 54, 175.0702362060547
0, 2, 55, 174.7067108154297
0, 2, 56, 181.4945068359375
0, 2, 57, 199.8771667480469
0, 2, 58, 185.7264099121094
0, 2, 59, 189.8581848144531
0, 2, 60, 196.431396484375
0, 2, 61, 193.0912780761719
0, 2, 62, 189.3990173339844
0, 2, 63, 169.6653594970703
0, 2, 64, 188.7386627197266
0, 2, 65, 203.7608947753906
0, 2, 66, 195.3965148925781
0, 2, 67, 184.7046356201172
0, 2, 68, 181.8931121826172
0, 2, 69, 186.7319030761719
0, 2, 70, 203.3718414306641
0, 2, 71, 175.9224700927734
0, 2, 72, 187.1136322021484
0, 2, 73, 178.2993316650391
0, 2, 74, 180.4295196533203
0, 2, 75, 195.6071014404297
0, 2, 76, 183.1955108642578
0, 2, 77, 177.1341400146484
0, 2, 78, 197.7126159667969
0, 2, 79, 178.6383056640625
0, 2, 80, 186.3507232666016
0, 2, 81, 186.8329162597656
0, 2, 82, 204.9209289550781
0, 2, 83, 204.1985168457031
0, 2, 84, 188.5274963378906
0, 2, 85, 170.2122497558594
0, 2, 86, 195.1363677978516
0, 2, 87, 171.80224609375
0, 2, 88, 177.0253448486328
0, 2, 89, 185.6264343261719
0, 2, 90, 178.7381896972656
0, 2, 91, 173.5793914794922
0, 2, 92, 196.8612213134766
0, 2, 93, 192.404296875
0, 2, 94, 202.6093597412109
0, 2, 95, 192.74951171875
0, 2, 96, 186.4517364501953
0, 2, 97, 172.3634796142578
0, 2, 98, 173.0718536376953
0, 2, 99, 162.1925506591797
0, 2, 100, 188.8223571777344
0, 2, 101, 196.5542907714844
0, 2, 102, 178.9267730712891
0, 2, 103, 199.2997283935547
0, 2, 104, 187.5107574462891
0, 2, 105, 199.6024627685547
0, 2, 106, 194.3812866210938
0, 2, 107, 149.5861053466797
0, 2, 108, 78.87471008300781
0, 2, 109, 17.96893501281738
0, 2, 110, 7.079535007476807
0, 2, 111, 5.737987995147705
0, 2, 112, 3.914097785949707
0, 2, 113, 5.172155380249023
0, 2, 114, 6.143901824951172
0, 2, 115, 4.601931571960449
0, 2, 116, 1.851174473762512
0, 2, 117, 1.808115124702454
0, 2, 118, 3.508591413497925
0, 2, 119, 3.547413349151611
0, 2, 120, 2.473265647888184
0, 2, 121, 3.61534309387207
0, 2, 122, 2.656102180480957
0, 2, 123, 4.0293288230896
0, 2, 124, 2.068121194839478
0, 2, 125, 1.937672019004822
0, 2, 126, 3.048098802566528
0, 2, 127, 0.4783610999584198
0, 3, 0, 1.516662836074829
0, 3, 1, 0.9019399881362915
0, 3, 2, 1.20953381061554
0, 3, 3, 0.9713925719261169
0, 3, 4, 5.44952917098999
0, 3, 5, 2.745201349258423
0, 3, 6, 1.066003680229187
0, 3, 7, 1.659834265708923
0, 3, 8, 1.64492404460907
0, 3, 9, 1.485171914100647
0, 3, 10, 1.829431653022766
0, 3, 11, 3.725776195526123
0, 3, 12, 3.395248413085938
0, 3, 13, 3.461814165115356
0, 3, 14, 3.736670255661011
0, 3, 15, 6.343402862548828
0, 3, 16, 8.029729843139648
0, 3, 17, 7.559329032897949
0, 3, 18, 32.13578796386719
0, 3, 19, 114.9252166748047
0, 3, 20, 179.0850524902344
0, 3, 21, 172.8875122070312
0, 3, 22, 178.3829498291016
0, 3, 23, 187.5310821533203
0, 3, 24, 178.0510864257812
0, 3, 25, 169.0526885986328
0, 3, 26, 180.8377532958984
0, 3, 27, 188.3527679443359
0, 3, 28, 183.0778350830078
0, 3, 29, 198.0881500244141
0, 3, 30, 184.7223510742188
0, 3, 31, 192.8717193603516
0, 3, 32, 205.61474609375
0, 3, 33, 195.9476318359375
0, 3, 34, 187.0440216064453
0, 3, 35, 173.4029235839844
0, 3, 36, 185.8752136230469
0, 3, 37, 200.2324981689453
0, 3, 38, 192.9944000244141
0, 3, 39, 184.5224456787109
0, 3, 40, 166.6867370605469
0, 3, 41, 175.0652770996094
0, 3, 42, 184.8840179443359
0, 3, 43, 181.7605590820312
0, 3, 44, 202.3258209228516
0, 3, 45, 207.1643524169922
0, 3, 46, 198.2707061767578
0, 3, 47, 193.9292144775391
0, 3, 48, 195.3929290771484
0, 3, 49, 180.6571960449219
0, 3, 50, 188.1042938232422
0, 3, 51, 174.2353363037109
0, 3, 52, 187.0080871582031
0, 3, 53, 177.7083435058594
0, 3, 54, 179.4041442871094
0, 3, 55, 176.4553985595703
0, 3, 56, 181.6834716796875
0, 3, 57, 174.7784118652344
0, 3, 58, 201.6407623291016
0, 3, 59, 195.3657684326172
0, 3, 60, 186.2326507568359
0, 3, 61, 181.8707275390625
0, 3, 62, 183.2313232421875
0, 3, 63, 183.8883361816406
0, 3, 64, 187.3532562255859
0, 3, 65, 187.0355987548828
0, 3, 66, 175.5855407714844
0, 3, 67, 189.7492065429688
0, 3, 68, 211.5788421630859
0, 3, 69, 189.988525390625
0, 3, 70, 185.2194519042969
0, 3, 71, 196.4856872558594
0, 3, 72, 185.7710876464844
0, 3, 73, 187.3238220214844
0, 3, 74, 192.5948791503906
0, 3, 75, 192.6232299804688
0, 3, 76, 191.7650604248047
0, 3, 77, 197.5899505615234
0, 3, 78, 188.8794250488281
0, 3, 79, 185.0516815185547
0, 3, 80, 193.0063629150391
0, 3, 81, 182.7773132324219
0, 3, 82, 179.7373352050781
0, 3, 83, 194.4978790283203
0, 3, 84, 199.1427764892578
0, 3, 85, 192.6958160400391
0, 3, 86, 205.5178070068359
0, 3, 87, 199.3287658691406
0, 3, 88, 190.3600921630859
0, 3, 89, 196.5778350830078
0, 3, 90, 173.4382476806641
0, 3, 91, 156.8339691162109
0, 3, 92, 206.0323333740234
0, 3, 93, 198.0908966064453
0, 3, 94, 192.0197601318359
0, 3, 95, 211.2012176513672
0, 3, 96, 208.1268005371094
0, 3, 97, 167.5439453125
0, 3, 98, 167.1747436523438
0, 3, 99, 182.2354125976562
0, 3, 100, 177.4533843994141
0, 3, 101, 196.8072204589844
0, 3, 102, 194.6655426025391
0, 3, 103, 192.2666168212891
0, 3, 104, 203.8426055908203
0, 3, 105, 175.90966796875
0, 3, 106, 181.0463562011719
0, 3, 107, 169.5757141113281
0, 3, 108, 108.3400497436523
0, 3, 109, 26.94183158874512
0, 3, 110, 7.550753116607666
0, 3, 111, 6.578044891357422
0, 3, 112, 4.120184421539307
0, 3, 113, 8.626086235046387
0, 3, 114, 6.333992004394531
0, 3, 115, 4.516838550567627
0, 3, 116, 5.616867542266846
0, 3, 117, 3.549689054489136
0, 3, 118, 2.038661479949951
0, 3, 119, 2.432209968566895
0, 3, 120, 4.07868766784668
0, 3, 121, 2.888040065765381
0, 3, 122, 3.728324174880981
0, 3, 123, 2.548333644866943
0, 3, 124, 1.63469123840332
0, 3, 125, 1.468274831771851
0, 3, 126, 2.254318237304688
0, 3, 127, 1.984097123146057
0, 4, 0, 1.818034887313843
0, 4, 1, 0.5074725151062012
0, 4, 2, 2.470951795578003
0, 4, 3, 3.512204170227051
0, 4, 4, 2.06347393989563
0, 4, 5, 1.21226167678833
0, 4, 6, 2.506366968154907
0, 4, 7, 2.106070518493652
0, 4, 8, 1.773946404457092
0, 4, 9, 1.840803384780884
0, 4, 10, 3.341659784317017
0, 4, 11, 3.310457229614258
0, 4, 12, 4.94624137878418
0, 4, 13, 3.744528293609619
0, 4, 14, 4.955963611602783
0, 4, 15, 8.182113647460938
0, 4, 16, 6.868866443634033
0, 4, 17, 11.68005275726318
0, 4, 18, 53.81609344482422
0, 4, 19, 151.0794525146484
0, 4, 20, 195.3304443359375
0, 4, 21, 170.3567962646484
0, 4, 22, 188.5195159912109
0, 4, 23, 195.9883880615234
0, 4, 24, 192.2642974853516
0, 4, 25, 198.9575958251953
0, 4, 26, 182.7329864501953
0, 4, 27, 190.6459655761719
0, 4, 28, 177.0823822021484
0, 4, 29, 205.8444671630859
0, 4, 30, 194.8139038085938
0, 4, 31, 192.4688415527344
0, 4, 32, 211.3686981201172
0, 4, 33, 189.0689086914062
0, 4, 34, 192.3193817138672
0, 4, 35, 213.1793670654297
0, 4, 36, 194.4468231201172
0, 4, 37, 177.1843109130859
0, 4, 38, 194.3219299316406
0, 4, 39, 190.1229705810547
0, 4, 40, 186.9875183105469
0, 4, 41, 189.0742340087891
0, 4, 42, 205.8965454101562
0, 4, 43, 173.7045288085938
0, 4, 44, 183.1339874267578
0, 4, 45, 196.5210723876953
0, 4, 46, 185.6905517578125
0, 4, 47, 179.5337677001953
0, 4, 48, 187.5634918212891
0, 4, 49, 175.7110595703125
0, 4, 50, 186.5816192626953
0, 4, 51, 198.3203125
0, 4, 52, 224.4176025390625
0, 4, 53, 207.0096435546875
0, 4, 54, 189.3955383300781
0, 4, 55, 175.0394134521484
0, 4, 56, 192.2958984375
0, 4, 57, 192.7230224609375
0, 4, 58, 188.8991546630859
0, 4, 59, 189.1847381591797
0, 4, 60, 195.6636352539062
0, 4, 61, 193.9292907714844
0, 4, 62, 189.4756469726562
0, 4, 63, 177.97802734375
0, 4, 64, 211.4476470947266
0, 4, 65, 192.8621368408203
0, 4, 66, 202.2090606689453
0, 4, 67, 199.3972930908203
0, 4, 68, 202.27099609375
0, 4, 69, 200.391845703125
0, 4, 70, 205.4236297607422
0, 4, 71, 207.1782379150391
0, 4, 72, 215.8606567382812
0, 4, 73, 187.3745422363281
0, 4, 74, 180.9664306640625
0, 4, 75, 184.9386138916016
0, 4, 76, 190.4416198730469
0, 4, 77, 182.8063201904297
0, 4, 78, 195.0996551513672
0, 4, 79, 204.9315490722656
0, 4, 80, 212.5813293457031
0, 4, 81, 198.5340728759766
0, 4, 82, 182.3330078125
0, 4, 83, 168.2266693115234
0, 4, 84, 192.4963226318359
0, 4, 85, 196.1665802001953
0, 4, 86, 182.1320495605469
0, 4, 87, 183.9147338867188
0, 4, 88, 203.7470245361328
0, 4, 89, 187.3743743896484
0, 4, 90, 210.8998107910156
0, 4, 91, 189.9898223876953
0, 4, 92, 196.3285827636719
0, 4, 93, 196.1063232421875
0, 4, 94, 181.47265625
0, 4, 95, 173.7528991699219
0, 4, 96, 189.6406860351562
0, 4, 97, 192.3263854980469
0, 4, 98, 200.5030212402344
0, 4, 99, 183.4364776611328
0, 4, 100, 182.8272705078125
0, 4, 101, 178.4942626953125
0, 4, 102, 172.4566802978516
0, 4, 103, 185.0469055175781
0, 4, 104, 209.8060455322266
0, 4, 105, 189.3275604248047
0, 4, 106, 179.9024810791016
0, 4, 107, 181.3547515869141
0, 4, 108, 152.5922393798828
0, 4, 109, 51.95325088500977
0, 4, 110, 11.36996650695801
0, 4, 111, 8.747194290161133
0, 4, 112, 5.828835964202881
0, 4, 113, 5.028948783874512
0, 4, 114, 6.146986961364746
0, 4, 115, 3.03520941734314
0, 4, 116, 4.819601058959961
0, 4, 117, 1.565715670585632
0, 4, 118, 3.517366886138916
0, 4, 119, 5.268036842346191
0, 4, 120, 4.154619216918945
0, 4, 121, 2.754461050033569
0, 4, 122, 1.909790754318237
0, 4, 123, 1.395656824111938
0, 4, 124, 3.370089292526245
0, 4, 125, 2.642262935638428
0, 4, 126, 2.023440837860107
0, 4, 127, 1.826594233512878
0, 5, 0, 1.226597309112549
0, 5, 1, 4.513458728790283
0, 5, 2, 6.182122707366943
0, 5, 3, 5.296069145202637
0, 5, 4, 3.242798566818237
0, 5, 5, 2.314799785614014
0, 5, 6, 4.846735000610352
0, 5, 7, 2.398428201675415
0, 5, 8, 2.666121244430542
0, 5, 9, 2.680856227874756
0, 5, 10, 3.055653095245361
0, 5, 11, 5.903904438018799
0, 5, 12, 3.634610176086426
0, 5, 13, 3.912097454071045
0, 5, 14, 6.269821643829346
0, 5, 15, 9.115571022033691
0, 5, 16, 7.340072631835938
0, 5, 17, 21.03570556640625
0, 5, 18, 82.50148773193359
0, 5, 19, 163.8017425537109
0, 5, 20, 183.4878387451172
0, 5, 21, 180.7408447265625
0, 5, 22, 175.4658203125
0, 5, 23, 202.5686798095703
0, 5, 24, 186.5803527832031
0, 5, 25, 207.6425323486328
0, 5, 26, 183.6130828857422
0, 5, 27, 194.0099029541016
0, 5, 28, 190.6669769287109
0, 5, 29, 195.7916412353516
0, 5, 30, 177.6297149658203
0, 5, 31, 179.4292144775391
0, 5, 32, 188.3622589111328
0, 5, 33, 169.1191101074219
0, 5, 34, 195.5103149414062
0, 5, 35, 196.0988006591797
0, 5, 36, 168.2345733642578
0, 5, 37, 196.2777709960938
0, 5, 38, 180.2666625976562
0, 5, 39, 188.5845794677734
0, 5, 40, 195.8201141357422
0, 5, 41, 177.3325042724609
0, 5, 42, 187.1984558105469
0, 5, 43, 192.131591796875
0, 5, 44, 199.4777069091797
0, 5, 45, 187.0208435058594
0, 5, 46, 193.2511444091797
0, 5, 47, 179.8493499755859
0, 5, 48, 177.8585205078125
0, 5, 49, 176.9391479492188
0, 5, 50, 186.0801086425781
0, 5, 51, 173.0153198242188
0, 5, 52, 167.4264221191406
0, 5, 53, 182.0514984130859
0, 5, 54, 172.8704528808594
0, 5, 55, 215.7575225830078
0, 5, 56, 181.9955902099609
0, 5, 57, 206.7142333984375
0, 5, 58, 182.6134338378906
0, 5, 59, 181.1233978271484
0, 5, 60, 218.2083587646484
0, 5, 61, 184.4114990234375
0, 5, 62, 179.1610260009766
0, 5, 63, 180.8816528320312
0, 5, 64, 196.7852630615234
0, 5, 65, 209.9426727294922
0, 5, 66, 191.4145050048828
0, 5, 67, 200.6212768554688
0, 5, 68, 186.4561462402344
0, 5, 69, 184.9175567626953
0, 5, 70, 187.16357421875
0, 5, 71, 193.4222259521484
0, 5, 72, 197.1228942871094
0, 5, 73, 201.9163818359375
0, 5, 74, 179.7403869628906
0, 5, 75, 203.1161041259766
0, 5, 76, 213.7561187744141
0, 5, 77, 180.8179626464844
0, 5, 78, 194.0634155273438
0, 5, 79, 190.1209106445312
0, 5, 80, 196.9883422851562
0, 5, 81, 204.623046875
0, 5, 82, 201.8375091552734
0, 5, 83, 188.93017578125
0, 5, 84, 206.2493591308594
0, 5, 85, 177.5471954345703
0, 5, 86, 195.1279296875
0, 5, 87, 190.2008056640625
0, 5, 88, 176.7248229980469
0, 5, 89, 194.1774139404297
0, 5, 90, 200.2860565185547
0, 5, 91, 193.8766021728516
0, 5, 92, 191.1338500976562
0, 5, 93, 192.0331420898438
0, 5, 94, 207.6318054199219
0, 5, 95, 177.2816467285156
0, 5, 96, 181.8607177734375
0, 5, 97, 191.7727966308594
0, 5, 98, 190.5612030029297
0, 5, 99, 195.1263885498047
0, 5, 100, 186.2294616699219
0, 5, 101, 195.298583984375
0, 5, 102, 181.7040100097656
0, 5, 103, 176.6338348388672
0, 5, 104, 190.4398040771484
0, 5, 105, 190.4966888427734
0, 5, 106, 177.0709838867188
0, 5, 107, 181.7122192382812
0, 5, 108, 175.0453338623047
0, 5, 109, 89.56130218505859
0, 5, 110, 32.01882553100586
0, 5, 111, 9.518294334411621
0, 5, 112, 6.43803596496582
0, 5, 113, 7.341801166534424
0, 5, 114, 5.500751972198486
0, 5, 115, 5.858057975769043
0, 5, 116, 3.791000127792358
0, 5, 117, 3.825969934463501
0, 5, 118, 4.306118488311768
0, 5, 119, 4.825416564941406
0, 5, 120, 2.235719919204712
0, 5, 121, 1.9289710521698
0, 5, 122, 2.742692470550537
0, 5, 123, 4.143131256103516
0, 5, 124, 3.733741998672485
0, 5, 125, 1.95091438293457
0, 5, 126, 3.053481817245483
0, 5, 127, 2.300512313842773
0, 6, 0, 3.465050220489502
0, 6, 1, 4.117130756378174
0, 6, 2, 4.233206748962402
0, 6, 3, 2.177592277526855
0, 6, 4, 3.08409571647644
0, 6, 5, 3.368878841400146
0, 6, 6, 2.208404779434204
0, 6, 7, 3.737435817718506
0, 6, 8, 3.419886589050293
0, 6, 9, 2.344856739044189
0, 6, 10, 5.653848648071289
0, 6, 11, 4.366925716400146
0, 6, 12, 4.197108268737793
0, 6, 13, 5.230287551879883
0, 6, 14, 5.494706630706787
0, 6, 15, 7.23176097869873
0, 6, 16, 13.2700080871582
0, 6, 17, 28.0648365020752
0, 6, 18, 111.7606353759766
0, 6, 19, 190.7410430908203
0, 6, 20, 195.6246948242188
0, 6, 21, 199.561279296875
0, 6, 22, 190.1886444091797
0, 6, 23, 191.2984466552734
0, 6, 24, 200.9109344482422
0, 6, 25, 182.5986633300781
0, 6, 26, 186.8382873535156
0, 6, 27, 191.916748046875
0, 6, 28, 188.4528045654297
0, 6, 29, 210.4963073730469
0, 6, 30, 191.02978515625
0, 6, 31, 192.8204193115234
0, 6, 32, 206.6909332275391
0, 6, 33, 183.7109222412109
0, 6, 34, 196.4595947265625
0, 6, 35, 187.6457672119141
0, 6, 36, 180.9814453125
0, 6, 37, 182.9122772216797
0, 6, 38, 184.7222442626953
0, 6, 39, 194.1324615478516
0, 6, 40, 174.0517425537109
0, 6, 41, 184.792724609375
0, 6, 42, 174.358154296875
0, 6, 43, 210.2082977294922
0, 6, 44, 209.9231414794922
0, 6, 45, 193.6243133544922
0, 6, 46, 188.0142974853516
0, 6, 47, 204.6035919189453
0, 6, 48, 188.6092681884766
0, 6, 49, 178.4738159179688
0, 6, 50, 181.6115264892578
0, 6, 51, 196.5106658935547
0, 6, 52, 198.7704925537109
0, 6, 53, 185.3626098632812
0, 6, 54, 175.8352203369141
0, 6, 55, 195.8310699462891
0, 6, 56, 202.4873962402344
0, 6, 57, 190.8132019042969
0, 6, 58, 178.3815155029297
0, 6, 59, 191.6898498535156
0, 6, 60, 184.3957977294922
0, 6, 61, 193.9834594726562
0, 6, 62, 196.8632354736328
0, 6, 63, 186.0921325683594
0, 6, 64, 167.7544097900391
0, 6, 65, 185.7622375488281
0, 6, 66, 199.0104827880859
0, 6, 67, 213.9739379882812
0, 6, 68, 182.7494812011719
0, 6, 69, 170.8578796386719
0, 6, 70, 187.0857696533203
0, 6, 71, 170.1501312255859
0, 6, 72, 176.3090515136719
0, 6, 73, 176.3890533447266
0, 6, 74, 211.5687408447266
0, 6, 75, 226.8633880615234
0, 6, 76, 183.6740264892578
0, 6, 77, 172.6919860839844
0, 6, 78, 175.1514434814453
0, 6, 79, 186.8988494873047
0, 6, 80, 187.9913024902344
0, 6, 81, 207.7513580322266
0, 6, 82, 195.3190307617188
0, 6, 83, 194.6532897949219
0, 6, 84, 197.05078125
0, 6, 85, 180.9638366699219
0, 6, 86, 201.3788757324219
0, 6, 87, 183.8211822509766
0, 6, 88, 191.5616607666016
0, 6, 89, 189.0261383056641
0, 6, 90, 206.3473358154297
0, 6, 91, 200.5578155517578
0, 6, 92, 172.6686706542969
0, 6, 93, 191.9901275634766
0, 6, 94, 189.8346252441406
0, 6, 95, 185.3126068115234
0, 6, 96, 191.0657501220703
0, 6, 97, 193.7467651367188
0, 6, 98, 184.4640655517578
0, 6, 99, 176.26318359375
0, 6, 100, 200.9130554199219
0, 6, 101, 168.5608978271484
0, 6, 102, 203.2415618896484
0, 6, 103, 198.1343383789062
0, 6, 104, 183.3708343505859
0, 6, 105, 196.0160217285156
0, 6, 106, 178.4864044189453
0, 6, 107, 196.0251159667969
0, 6, 108, 172.0354766845703
0, 6, 109, 115.2906951904297
0, 6, 110, 33.97518539428711
0, 6, 111, 9.323736190795898
0, 6, 112, 9.864437103271484
0, 6, 113, 6.224737167358398
0, 6, 114, 6.080124378204346
0, 6, 115, 5.704708099365234
0, 6, 116, 3.711763381958008
0, 6, 117, 4.973193168640137
0, 6, 118, 3.199258804321289
0, 6, 119, 3.541347980499268
0, 6, 120, 3.185529470443726
0, 6, 121, 2.869932413101196
0, 6, 122, 6.097996234893799
0, 6, 123, 2.68912935256958
0, 6, 124, 1.569495320320129
0, 6, 125, 3.145709991455078
0, 6, 126, 1.54452383518219
0, 6, 127, 2.846114635467529
0, 7, 0, 2.302839040756226
0, 7, 1, 2.376516819000244
0, 7, 2, 3.278729677200317
0, 7, 3, 2.043806791305542
0, 7, 4, 0.8304615020751953
0, 7, 5, 2.694212436676025
0, 7, 6, 2.135961294174194
0, 7, 7, 2.345458745956421
0, 7, 8, 4.27306604385376
0, 7, 9, 4.341084003448486
0, 7, 10, 6.663083553314209
0, 7, 11, 3.543648958206177
0, 7, 12, 3.804894924163818
0, 7, 13, 6.620648860931396
0, 7, 14, 7.330595016479492
0, 7, 15, 8.326288223266602
0, 7, 16, 15.1411714553833
0, 7, 17, 52.73752212524414
0, 7, 18, 161.1873626708984
0, 7, 19, 184.2319488525391
0, 7, 20, 179.6485137939453
0, 7, 21, 179.6701354980469
0, 7, 22, 190.1727142333984
0, 7, 23, 203.273193359375
0, 7, 24, 179.7326965332031
0, 7, 25, 213.2100372314453
0, 7, 26, 189.5895538330078
0, 7, 27, 181.94384765625
0, 7, 28, 182.7250518798828
0, 7, 29, 211.1653900146484
0, 7, 30, 192.5966644287109
0, 7, 31, 177.1717071533203
0, 7, 32, 190.14453125
0, 7, 33, 179.3633270263672
0, 7, 34, 192.5242614746094
0, 7, 35, 196.4524078369141
0, 7, 36, 188.1480407714844
0, 7, 37, 212.9211730957031
0, 7, 38, 190.5068054199219
0, 7, 39, 173.2351226806641
0, 7, 40, 183.6346740722656
0, 7, 41, 184.8361968994141
0, 7, 42, 177.3559417724609
0, 7, 43, 178.4709930419922
0, 7, 44, 179.5780181884766
0, 7, 45, 174.416259765625
0, 7, 46, 189.6994323730469
0, 7, 47, 197.7828979492188
0, 7, 48, 188.0791473388672
0, 7, 49, 198.3696594238281
0, 7, 50, 187.8780975341797
0, 7, 51, 205.0309448242188
0, 7, 52, 203.6378936767578
0, 7, 53, 191.0159759521484
0, 7, 54, 197.7496643066406
0, 7, 55, 205.014892578125
0, 7, 56, 184.7887115478516
0, 7, 57, 183.3431549072266
0, 7, 58, 191.7171478271484
0, 7, 59, 186.7718200683594
0, 7, 60, 202.1279449462891
0, 7, 61, 170.6777801513672
0, 7, 62, 203.5958404541016
0, 7, 63, 189.1341552734375
0, 7, 64, 199.6278533935547
0, 7, 65, 195.9982147216797
0, 7, 66, 205.1941375732422
0, 7, 67, 221.8507690429688
0, 7, 68, 162.4127349853516
0, 7, 69, 195.3966369628906
0, 7, 70, 217.2049407958984
0, 7, 71, 184.8172607421875
0, 7, 72, 180.6708221435547
0, 7, 73, 177.3729705810547
0, 7, 74, 207.8232116699219
0, 7, 75, 205.3480529785156
0, 7, 76, 214.3468475341797
0, 7, 77, 173.9597625732422
0, 7, 78, 178.3098754882812
0, 7, 79, 192.7987060546875
0, 7, 80, 195.4305877685547
0, 7, 81, 215.8363342285156
0, 7, 82, 185.2377471923828
0, 7, 83, 205.5905456542969
0, 7, 84, 191.1449127197266
0, 7, 85, 186.053466796875
0, 7, 86, 199.8449554443359
0, 7, 87, 226.2102355957031
0, 7, 88, 194.8159027099609
0, 7, 89, 177.1756591796875
0, 7, 90, 183.0531311035156
0, 7, 91, 194.0513305664062
0, 7, 92, 194.1100921630859
0, 7, 93, 198.0648498535156
0, 7, 94, 177.8068389892578
0, 7, 95, 198.6122283935547
0, 7, 96, 208.9932556152344
0, 7, 97, 188.7875213623047
0, 7, 98, 176.3034820556641
0, 7, 99, 196.3633728027344
0, 7, 100, 182.1280975341797
0, 7, 101, 201.2555236816406
0, 7, 102, 185.1700439453125
0, 7, 103, 182.0072631835938
0, 7, 104, 174.7093353271484
0, 7, 105, 194.889404296875
0, 7, 106, 205.2782440185547
0, 7, 107, 176.8117065429688
0, 7, 108, 176.2169036865234
0, 7, 109, 137.3901824951172
0, 7, 110, 55.13881683349609
0, 7, 111, 9.278629302978516
0, 7, 112, 8.293160438537598
0, 7, 113, 8.267565727233887
0, 7, 114, 7.572455883026123
0, 7, 115, 4.94735050201416
0, 7, 116, 6.18649959564209
0, 7, 117, 3.741090297698975
0, 7, 118, 3.025229930877686
0, 7, 119, 2.340190887451172
0, 7, 120, 2.398609638214111
0, 7, 121, 3.005996942520142
0, 7, 122, 2.286582231521606
0, 7, 123, 1.659719705581665
0, 7, 124, 1.389694333076477
0, 7, 125, 1.217195153236389
0, 7, 126, 2.830028295516968
0, 7, 127, 2.536948442459106
0, 8, 0, 4.707987308502197
0, 8, 1, 2.903470516204834
0, 8, 2, 2.864320755004883
0, 8, 3, 3.153521299362183
0, 8, 4, 1.352469682693481
0, 8, 5, 2.888616800308228
0, 8, 6, 2.539783477783203
0, 8, 7, 4.029573917388916
0, 8, 8, 2.898699283599854
0, 8, 9, 5.065498828887939
0, 8, 10, 1.654528856277466
0, 8, 11, 2.849230766296387
0, 8, 12, 4.284418106079102
0, 8, 13, 5.676745891571045
0, 8, 14, 6.168290138244629
0, 8, 15, 9.209798812866211
0, 8, 16, 19.49502563476562
0, 8, 17, 74.4832763671875
0, 8, 18, 142.9216461181641
0, 8, 19, 179.2072296142578
0, 8, 20, 192.5738372802734
0, 8, 21, 195.0433807373047
0, 8, 22, 179.9117889404297
0, 8, 23, 172.7303771972656
0, 8, 24, 192.2996673583984
0, 8, 25, 184.4366302490234
0, 8, 26, 192.7663269042969
0, 8, 27, 186.3586730957031
0, 8, 28, 187.1248931884766
0, 8, 29, 206.6231384277344
0, 8, 30, 196.2429656982422
0, 8, 31, 181.8327789306641
0, 8, 32, 197.9192657470703
0, 8, 33, 206.6182250976562
0, 8, 34, 203.3752899169922
0, 8, 35, 187.2595367431641
0, 8, 36, 181.3462829589844
0, 8, 37, 199.0886993408203
