# TOPAS Version: 3.1.p3
# Parameter File: batch_inserts_164.txt
# Results for scorer Readout_Adipose
# Scored in component: MyBox
# X in 1 bin  of 0.65 cm
# Y in 512 bins of 0.0783984 cm
# Z in 128 bins of 0.078125 cm
# EnergyDeposit ( MeV ) : Sum   
0, 0, 0, 2.075241565704346
0, 0, 1, 5.386045932769775
0, 0, 2, 0.664793848991394
0, 0, 3, 0.5684018135070801
0, 0, 4, 1.483336329460144
0, 0, 5, 1.155431985855103
0, 0, 6, 1.084104657173157
0, 0, 7, 1.889654874801636
0, 0, 8, 1.521337389945984
0, 0, 9, 2.984239101409912
0, 0, 10, 2.106642723083496
0, 0, 11, 3.71773886680603
0, 0, 12, 4.335454940795898
0, 0, 13, 2.002796649932861
0, 0, 14, 4.948224544525146
0, 0, 15, 6.172080039978027
0, 0, 16, 4.224535465240479
0, 0, 17, 6.662539005279541
0, 0, 18, 7.394336700439453
0, 0, 19, 23.8292179107666
0, 0, 20, 94.36579895019531
0, 0, 21, 152.1648101806641
0, 0, 22, 152.944091796875
0, 0, 23, 144.5046844482422
0, 0, 24, 159.9202423095703
0, 0, 25, 166.0581359863281
0, 0, 26, 166.9611358642578
0, 0, 27, 173.9069213867188
0, 0, 28, 177.7040863037109
0, 0, 29, 175.312744140625
0, 0, 30, 172.8079833984375
0, 0, 31, 166.8477478027344
0, 0, 32, 164.3027954101562
0, 0, 33, 167.9315490722656
0, 0, 34, 177.2909088134766
0, 0, 35, 173.7761688232422
0, 0, 36, 159.1880187988281
0, 0, 37, 161.4535980224609
0, 0, 38, 167.1277465820312
0, 0, 39, 159.0348815917969
0, 0, 40, 164.9636535644531
0, 0, 41, 165.9606323242188
0, 0, 42, 143.1316070556641
0, 0, 43, 168.0738830566406
0, 0, 44, 177.9456329345703
0, 0, 45, 173.8710174560547
0, 0, 46, 165.084228515625
0, 0, 47, 168.0884399414062
0, 0, 48, 169.0561065673828
0, 0, 49, 183.0095520019531
0, 0, 50, 169.4826965332031
0, 0, 51, 162.6216430664062
0, 0, 52, 163.0181121826172
0, 0, 53, 171.5556793212891
0, 0, 54, 160.7697906494141
0, 0, 55, 165.62548828125
0, 0, 56, 189.4969635009766
0, 0, 57, 170.3800964355469
0, 0, 58, 161.2158050537109
0, 0, 59, 172.631103515625
0, 0, 60, 170.1040649414062
0, 0, 61, 170.8203735351562
0, 0, 62, 183.6132507324219
0, 0, 63, 166.6348571777344
0, 0, 64, 163.7346801757812
0, 0, 65, 175.3021697998047
0, 0, 66, 177.3548278808594
0, 0, 67, 165.1527404785156
0, 0, 68, 158.4577178955078
0, 0, 69, 158.9248504638672
0, 0, 70, 169.9430236816406
0, 0, 71, 158.6028289794922
0, 0, 72, 161.7918243408203
0, 0, 73, 171.3186950683594
0, 0, 74, 162.2440185546875
0, 0, 75, 163.3122711181641
0, 0, 76, 164.0093536376953
0, 0, 77, 173.8994293212891
0, 0, 78, 182.7485198974609
0, 0, 79, 175.6603393554688
0, 0, 80, 161.0918426513672
0, 0, 81, 160.58935546875
0, 0, 82, 182.6851654052734
0, 0, 83, 173.0963439941406
0, 0, 84, 159.2481994628906
0, 0, 85, 180.9723510742188
0, 0, 86, 159.3756103515625
0, 0, 87, 177.8886871337891
0, 0, 88, 175.93017578125
0, 0, 89, 174.4077758789062
0, 0, 90, 161.3810729980469
0, 0, 91, 186.7322692871094
0, 0, 92, 163.8619995117188
0, 0, 93, 155.7956848144531
0, 0, 94, 169.2125244140625
0, 0, 95, 174.4478607177734
0, 0, 96, 184.0171051025391
0, 0, 97, 183.5048065185547
0, 0, 98, 185.9924774169922
0, 0, 99, 171.8842163085938
0, 0, 100, 158.7376708984375
0, 0, 101, 166.9952545166016
0, 0, 102, 171.0923156738281
0, 0, 103, 170.4508361816406
0, 0, 104, 168.0521545410156
0, 0, 105, 176.9532623291016
0, 0, 106, 158.4282684326172
0, 0, 107, 86.80173492431641
0, 0, 108, 21.52227020263672
0, 0, 109, 10.13120937347412
0, 0, 110, 6.767765522003174
0, 0, 111, 6.196601390838623
0, 0, 112, 3.980806112289429
0, 0, 113, 2.635080337524414
0, 0, 114, 3.544148683547974
0, 0, 115, 3.361149787902832
0, 0, 116, 2.704583883285522
0, 0, 117, 2.650353908538818
0, 0, 118, 3.662353992462158
0, 0, 119, 2.387951135635376
0, 0, 120, 1.556837677955627
0, 0, 121, 4.193761348724365
0, 0, 122, 4.383260250091553
0, 0, 123, 3.959264755249023
0, 0, 124, 1.224490404129028
0, 0, 125, 3.213500022888184
0, 0, 126, 3.605557918548584
0, 0, 127, 1.414863109588623
0, 1, 0, 0.920405387878418
0, 1, 1, 3.443932056427002
0, 1, 2, 3.687927007675171
0, 1, 3, 2.144945383071899
0, 1, 4, 1.698221683502197
0, 1, 5, 1.288398623466492
0, 1, 6, 2.457690238952637
0, 1, 7, 1.899170160293579
0, 1, 8, 1.900128483772278
0, 1, 9, 1.730246305465698
0, 1, 10, 2.697457075119019
0, 1, 11, 4.169384956359863
0, 1, 12, 3.897634267807007
0, 1, 13, 3.239933729171753
0, 1, 14, 5.086534023284912
0, 1, 15, 5.837411880493164
0, 1, 16, 7.496749401092529
0, 1, 17, 5.026819229125977
0, 1, 18, 10.68832969665527
0, 1, 19, 40.80912399291992
0, 1, 20, 125.5404891967773
0, 1, 21, 177.0358276367188
0, 1, 22, 192.3435516357422
0, 1, 23, 186.2601013183594
0, 1, 24, 180.5992889404297
0, 1, 25, 191.8871307373047
0, 1, 26, 198.37353515625
0, 1, 27, 187.0186004638672
0, 1, 28, 189.2154541015625
0, 1, 29, 186.0321044921875
0, 1, 30, 180.4371795654297
0, 1, 31, 180.8690185546875
0, 1, 32, 189.0205841064453
0, 1, 33, 190.2977600097656
0, 1, 34, 185.2475891113281
0, 1, 35, 197.2847900390625
0, 1, 36, 205.2998352050781
0, 1, 37, 183.6184539794922
0, 1, 38, 165.5120086669922
0, 1, 39, 172.25341796875
0, 1, 40, 178.4398040771484
0, 1, 41, 185.1499786376953
0, 1, 42, 181.9671783447266
0, 1, 43, 185.3331146240234
0, 1, 44, 168.5186462402344
0, 1, 45, 187.0002136230469
0, 1, 46, 171.8852691650391
0, 1, 47, 184.4123992919922
0, 1, 48, 185.8689117431641
0, 1, 49, 186.0960388183594
0, 1, 50, 179.5168762207031
0, 1, 51, 190.2086029052734
0, 1, 52, 195.2473297119141
0, 1, 53, 195.7306518554688
0, 1, 54, 185.1556854248047
0, 1, 55, 165.5669097900391
0, 1, 56, 179.8706359863281
0, 1, 57, 179.2761535644531
0, 1, 58, 190.0630798339844
0, 1, 59, 193.4172821044922
0, 1, 60, 187.4892883300781
0, 1, 61, 177.4352874755859
0, 1, 62, 207.1936950683594
0, 1, 63, 174.2611389160156
0, 1, 64, 172.1902923583984
0, 1, 65, 184.8073577880859
0, 1, 66, 203.9181365966797
0, 1, 67, 182.7609405517578
0, 1, 68, 187.8310241699219
0, 1, 69, 188.8509979248047
0, 1, 70, 185.8126678466797
0, 1, 71, 171.2969207763672
0, 1, 72, 191.7468109130859
0, 1, 73, 190.9141235351562
0, 1, 74, 200.8341217041016
0, 1, 75, 184.833740234375
0, 1, 76, 175.0597839355469
0, 1, 77, 191.7298583984375
0, 1, 78, 188.2775726318359
0, 1, 79, 202.5888824462891
0, 1, 80, 186.5190124511719
0, 1, 81, 174.0429992675781
0, 1, 82, 207.3762969970703
0, 1, 83, 212.3910369873047
0, 1, 84, 180.6812133789062
0, 1, 85, 169.5729675292969
0, 1, 86, 168.7205505371094
0, 1, 87, 185.4729309082031
0, 1, 88, 176.0107879638672
0, 1, 89, 187.4064483642578
0, 1, 90, 213.1383209228516
0, 1, 91, 182.0618743896484
0, 1, 92, 185.15283203125
0, 1, 93, 180.7612609863281
0, 1, 94, 185.1723480224609
0, 1, 95, 183.6089477539062
0, 1, 96, 196.1045989990234
0, 1, 97, 182.8644561767578
0, 1, 98, 187.7355041503906
0, 1, 99, 175.9277954101562
0, 1, 100, 171.7407073974609
0, 1, 101, 177.4157409667969
0, 1, 102, 182.0456085205078
0, 1, 103, 173.3074340820312
0, 1, 104, 189.7592620849609
0, 1, 105, 182.1952972412109
0, 1, 106, 163.6479644775391
0, 1, 107, 123.1942367553711
0, 1, 108, 46.38243103027344
0, 1, 109, 9.285679817199707
0, 1, 110, 7.944921970367432
0, 1, 111, 7.088021278381348
0, 1, 112, 7.307829856872559
0, 1, 113, 6.437556743621826
0, 1, 114, 8.805049896240234
0, 1, 115, 3.827136278152466
0, 1, 116, 3.45124077796936
0, 1, 117, 2.558730125427246
0, 1, 118, 2.659541130065918
0, 1, 119, 1.061063766479492
0, 1, 120, 3.542546510696411
0, 1, 121, 3.547650814056396
0, 1, 122, 2.708359479904175
0, 1, 123, 2.41660213470459
0, 1, 124, 2.799690961837769
0, 1, 125, 2.629029273986816
0, 1, 126, 2.64452075958252
0, 1, 127, 1.617167115211487
0, 2, 0, 1.587926387786865
0, 2, 1, 3.811437368392944
0, 2, 2, 4.027838706970215
0, 2, 3, 2.07629656791687
0, 2, 4, 1.118237614631653
0, 2, 5, 0.7953419089317322
0, 2, 6, 3.303918361663818
0, 2, 7, 1.582119941711426
0, 2, 8, 1.513797044754028
0, 2, 9, 2.093572616577148
0, 2, 10, 6.948482513427734
0, 2, 11, 4.179532051086426
0, 2, 12, 4.030336856842041
0, 2, 13, 5.279493808746338
0, 2, 14, 3.706981420516968
0, 2, 15, 5.64679479598999
0, 2, 16, 5.041998863220215
0, 2, 17, 9.418075561523438
0, 2, 18, 14.403733253479
0, 2, 19, 76.32130432128906
0, 2, 20, 162.4340972900391
0, 2, 21, 182.8307952880859
0, 2, 22, 195.7525482177734
0, 2, 23, 185.9285736083984
0, 2, 24, 173.627197265625
0, 2, 25, 184.6056976318359
0, 2, 26, 179.506103515625
0, 2, 27, 192.5056610107422
0, 2, 28, 171.5121612548828
0, 2, 29, 169.4281463623047
0, 2, 30, 186.8987731933594
0, 2, 31, 182.3404388427734
0, 2, 32, 183.2716369628906
0, 2, 33, 190.4346008300781
0, 2, 34, 198.9868316650391
0, 2, 35, 184.0579376220703
0, 2, 36, 186.7591705322266
0, 2, 37, 181.7816772460938
0, 2, 38, 186.3392486572266
0, 2, 39, 165.9653167724609
0, 2, 40, 184.8495330810547
0, 2, 41, 184.8281860351562
0, 2, 42, 190.5953826904297
0, 2, 43, 195.0552215576172
0, 2, 44, 190.5953674316406
0, 2, 45, 189.1444396972656
0, 2, 46, 195.9959411621094
0, 2, 47, 189.3849487304688
0, 2, 48, 179.361328125
0, 2, 49, 199.1183929443359
0, 2, 50, 167.5645751953125
0, 2, 51, 186.3268737792969
0, 2, 52, 185.334228515625
0, 2, 53, 195.1007995605469
0, 2, 54, 176.0655517578125
0, 2, 55, 173.4115142822266
0, 2, 56, 181.9727478027344
0, 2, 57, 200.2554168701172
0, 2, 58, 185.8372802734375
0, 2, 59, 189.3021545410156
0, 2, 60, 196.5179443359375
0, 2, 61, 193.1900329589844
0, 2, 62, 191.1883239746094
0, 2, 63, 168.9787750244141
0, 2, 64, 189.8111267089844
0, 2, 65, 203.1548004150391
0, 2, 66, 195.4697570800781
0, 2, 67, 185.1747589111328
0, 2, 68, 182.7034149169922
0, 2, 69, 186.9384307861328
0, 2, 70, 202.8172912597656
0, 2, 71, 175.9720306396484
0, 2, 72, 187.009765625
0, 2, 73, 178.1166381835938
0, 2, 74, 180.7174072265625
0, 2, 75, 197.0068664550781
0, 2, 76, 183.3236999511719
0, 2, 77, 178.7978057861328
0, 2, 78, 197.6903076171875
0, 2, 79, 178.0001983642578
0, 2, 80, 188.3657836914062
0, 2, 81, 187.1670684814453
0, 2, 82, 205.6399230957031
0, 2, 83, 205.3723754882812
0, 2, 84, 188.1639862060547
0, 2, 85, 171.1576538085938
0, 2, 86, 195.5391082763672
0, 2, 87, 172.40478515625
0, 2, 88, 176.8316192626953
0, 2, 89, 184.8841400146484
0, 2, 90, 178.3543090820312
0, 2, 91, 172.4574737548828
0, 2, 92, 196.7771301269531
0, 2, 93, 197.2894897460938
0, 2, 94, 200.5060882568359
0, 2, 95, 193.3751983642578
0, 2, 96, 185.9234619140625
0, 2, 97, 172.4811706542969
0, 2, 98, 173.9395446777344
0, 2, 99, 163.7298889160156
0, 2, 100, 188.8512115478516
0, 2, 101, 197.2544097900391
0, 2, 102, 176.5957641601562
0, 2, 103, 199.5878753662109
0, 2, 104, 187.5942993164062
0, 2, 105, 200.854736328125
0, 2, 106, 194.5499725341797
0, 2, 107, 148.8769226074219
0, 2, 108, 79.28131866455078
0, 2, 109, 17.59819984436035
0, 2, 110, 8.380208015441895
0, 2, 111, 5.979264259338379
0, 2, 112, 3.291175842285156
0, 2, 113, 4.147939682006836
0, 2, 114, 9.252395629882812
0, 2, 115, 4.885958671569824
0, 2, 116, 3.323580503463745
0, 2, 117, 1.813176512718201
0, 2, 118, 3.562009334564209
0, 2, 119, 3.461393117904663
0, 2, 120, 3.078284740447998
0, 2, 121, 3.250027418136597
0, 2, 122, 1.973301768302917
0, 2, 123, 4.7763352394104
0, 2, 124, 2.911559343338013
0, 2, 125, 2.628585815429688
0, 2, 126, 3.091662883758545
0, 2, 127, 0.7658644914627075
0, 3, 0, 1.730053663253784
0, 3, 1, 1.759232044219971
0, 3, 2, 1.700923681259155
0, 3, 3, 3.139923334121704
0, 3, 4, 5.453431606292725
0, 3, 5, 2.200862407684326
0, 3, 6, 1.073262214660645
0, 3, 7, 1.119192600250244
0, 3, 8, 1.718443036079407
0, 3, 9, 1.790206789970398
0, 3, 10, 1.243703007698059
0, 3, 11, 4.678327083587646
0, 3, 12, 4.417636394500732
0, 3, 13, 3.585655689239502
0, 3, 14, 4.575284004211426
0, 3, 15, 8.749101638793945
0, 3, 16, 6.776155948638916
0, 3, 17, 6.069488048553467
0, 3, 18, 33.19668960571289
0, 3, 19, 114.0737075805664
0, 3, 20, 179.37353515625
0, 3, 21, 172.4839935302734
0, 3, 22, 177.880859375
0, 3, 23, 188.8653106689453
0, 3, 24, 177.3624725341797
0, 3, 25, 169.7182464599609
0, 3, 26, 180.6696319580078
0, 3, 27, 189.5139007568359
0, 3, 28, 183.3862457275391
0, 3, 29, 197.1831817626953
0, 3, 30, 185.3739624023438
0, 3, 31, 194.6342926025391
0, 3, 32, 207.0582427978516
0, 3, 33, 196.7870025634766
0, 3, 34, 187.2496795654297
0, 3, 35, 174.8544616699219
0, 3, 36, 186.3204040527344
0, 3, 37, 200.7824859619141
0, 3, 38, 190.6602325439453
0, 3, 39, 184.7461853027344
0, 3, 40, 166.7369384765625
0, 3, 41, 174.9937896728516
0, 3, 42, 184.9533081054688
0, 3, 43, 182.2282104492188
0, 3, 44, 202.6050720214844
0, 3, 45, 208.0849151611328
0, 3, 46, 198.6567230224609
0, 3, 47, 196.322509765625
0, 3, 48, 197.6789855957031
0, 3, 49, 180.638427734375
0, 3, 50, 187.0391387939453
0, 3, 51, 174.5088806152344
0, 3, 52, 187.1863555908203
0, 3, 53, 176.8411712646484
0, 3, 54, 178.7972412109375
0, 3, 55, 176.9478302001953
0, 3, 56, 182.8771514892578
0, 3, 57, 174.5247344970703
0, 3, 58, 201.2634429931641
0, 3, 59, 195.9947052001953
0, 3, 60, 186.2516021728516
0, 3, 61, 180.8819732666016
0, 3, 62, 182.2821655273438
0, 3, 63, 184.2870483398438
0, 3, 64, 190.3436279296875
0, 3, 65, 189.0365295410156
0, 3, 66, 175.7987060546875
0, 3, 67, 192.9694061279297
0, 3, 68, 212.4736328125
0, 3, 69, 190.2349395751953
0, 3, 70, 185.1684417724609
0, 3, 71, 196.2402801513672
0, 3, 72, 186.1302032470703
0, 3, 73, 186.7779083251953
0, 3, 74, 192.8262481689453
0, 3, 75, 192.144775390625
0, 3, 76, 191.0563201904297
0, 3, 77, 198.6581726074219
0, 3, 78, 188.1357116699219
0, 3, 79, 185.1399078369141
0, 3, 80, 190.4110260009766
0, 3, 81, 183.6692810058594
0, 3, 82, 178.9033508300781
0, 3, 83, 194.435302734375
0, 3, 84, 198.9485931396484
0, 3, 85, 191.7939453125
0, 3, 86, 203.5796661376953
0, 3, 87, 197.1320343017578
0, 3, 88, 191.3999176025391
0, 3, 89, 193.4148254394531
0, 3, 90, 175.4828643798828
0, 3, 91, 156.943359375
0, 3, 92, 206.5919189453125
0, 3, 93, 196.7628479003906
0, 3, 94, 194.6572418212891
0, 3, 95, 211.0749664306641
0, 3, 96, 208.7069549560547
0, 3, 97, 167.4583129882812
0, 3, 98, 168.1775207519531
0, 3, 99, 179.689208984375
0, 3, 100, 176.7547149658203
0, 3, 101, 198.1160430908203
0, 3, 102, 196.3015747070312
0, 3, 103, 193.5685882568359
0, 3, 104, 203.0912780761719
0, 3, 105, 175.8442230224609
0, 3, 106, 180.8832244873047
0, 3, 107, 170.8065948486328
0, 3, 108, 107.8463134765625
0, 3, 109, 27.21182060241699
0, 3, 110, 7.740883827209473
0, 3, 111, 6.513934135437012
0, 3, 112, 2.999276399612427
0, 3, 113, 7.357368946075439
0, 3, 114, 4.449068546295166
0, 3, 115, 4.478787899017334
0, 3, 116, 4.171053409576416
0, 3, 117, 3.990782499313354
0, 3, 118, 1.758805632591248
0, 3, 119, 2.676832914352417
0, 3, 120, 5.33427619934082
0, 3, 121, 2.594818592071533
0, 3, 122, 3.316328525543213
0, 3, 123, 2.077881097793579
0, 3, 124, 1.564086079597473
0, 3, 125, 1.21097207069397
0, 3, 126, 1.585054516792297
0, 3, 127, 1.383360147476196
0, 4, 0, 1.828431963920593
0, 4, 1, 0.1646616011857986
0, 4, 2, 2.421722888946533
0, 4, 3, 5.036436557769775
0, 4, 4, 2.066050052642822
0, 4, 5, 0.9297623634338379
0, 4, 6, 2.360413074493408
0, 4, 7, 2.657828807830811
0, 4, 8, 1.656414389610291
0, 4, 9, 3.289121150970459
0, 4, 10, 3.11933708190918
0, 4, 11, 3.173528671264648
0, 4, 12, 5.393757343292236
0, 4, 13, 4.660411357879639
0, 4, 14, 4.064099788665771
0, 4, 15, 8.344333648681641
0, 4, 16, 6.551214218139648
0, 4, 17, 13.59400272369385
0, 4, 18, 55.09547805786133
0, 4, 19, 151.0630493164062
0, 4, 20, 193.7806701660156
0, 4, 21, 169.4875183105469
0, 4, 22, 187.9869842529297
0, 4, 23, 195.4788818359375
0, 4, 24, 192.3838806152344
0, 4, 25, 200.7481842041016
0, 4, 26, 183.927490234375
0, 4, 27, 192.4582366943359
0, 4, 28, 177.1512756347656
0, 4, 29, 204.9933929443359
0, 4, 30, 194.8908996582031
0, 4, 31, 192.8656616210938
0, 4, 32, 210.5289916992188
0, 4, 33, 190.1482849121094
0, 4, 34, 192.2236328125
0, 4, 35, 211.8982543945312
0, 4, 36, 192.4597320556641
0, 4, 37, 176.6546936035156
0, 4, 38, 193.7054595947266
0, 4, 39, 189.2264404296875
0, 4, 40, 185.2275085449219
0, 4, 41, 189.0658874511719
0, 4, 42, 206.3395538330078
0, 4, 43, 173.9636535644531
0, 4, 44, 183.2350616455078
0, 4, 45, 198.8232574462891
0, 4, 46, 185.7703704833984
0, 4, 47, 179.4321746826172
0, 4, 48, 186.9113464355469
0, 4, 49, 174.3348083496094
0, 4, 50, 184.9598236083984
0, 4, 51, 197.9942169189453
0, 4, 52, 223.4109344482422
0, 4, 53, 207.08984375
0, 4, 54, 190.0913696289062
0, 4, 55, 174.5936889648438
0, 4, 56, 191.337158203125
0, 4, 57, 192.0647125244141
0, 4, 58, 188.2557373046875
0, 4, 59, 190.2903137207031
0, 4, 60, 195.1806640625
0, 4, 61, 193.6710662841797
0, 4, 62, 189.3004302978516
0, 4, 63, 179.4945220947266
0, 4, 64, 215.1299285888672
0, 4, 65, 191.7306976318359
0, 4, 66, 202.72265625
0, 4, 67, 199.9356079101562
0, 4, 68, 200.7957916259766
0, 4, 69, 199.0434722900391
0, 4, 70, 204.1562805175781
0, 4, 71, 206.2682800292969
0, 4, 72, 215.9782867431641
0, 4, 73, 188.70068359375
0, 4, 74, 180.9730987548828
0, 4, 75, 186.8044738769531
0, 4, 76, 190.6887359619141
0, 4, 77, 182.6689910888672
0, 4, 78, 195.1896362304688
0, 4, 79, 204.6427307128906
0, 4, 80, 212.4244232177734
0, 4, 81, 201.264404296875
0, 4, 82, 183.249755859375
0, 4, 83, 171.4051055908203
0, 4, 84, 192.5750732421875
0, 4, 85, 196.7647705078125
0, 4, 86, 180.8739624023438
0, 4, 87, 183.5969390869141
0, 4, 88, 204.0722045898438
0, 4, 89, 187.6551055908203
0, 4, 90, 214.3428192138672
0, 4, 91, 191.9847259521484
0, 4, 92, 196.2180938720703
0, 4, 93, 196.0549926757812
0, 4, 94, 182.7490692138672
0, 4, 95, 173.9437103271484
0, 4, 96, 190.9805908203125
0, 4, 97, 192.7525939941406
0, 4, 98, 200.8675537109375
0, 4, 99, 187.7206573486328
0, 4, 100, 182.9224700927734
0, 4, 101, 177.6995544433594
0, 4, 102, 173.7058715820312
0, 4, 103, 185.3101654052734
0, 4, 104, 209.1624298095703
0, 4, 105, 190.2837524414062
0, 4, 106, 180.0650634765625
0, 4, 107, 182.2153015136719
0, 4, 108, 153.2095184326172
0, 4, 109, 50.34894561767578
0, 4, 110, 10.7898588180542
0, 4, 111, 8.616855621337891
0, 4, 112, 6.963276386260986
0, 4, 113, 4.988442897796631
0, 4, 114, 5.292705059051514
0, 4, 115, 3.504026174545288
0, 4, 116, 4.599241733551025
0, 4, 117, 3.131585359573364
0, 4, 118, 3.268123865127563
0, 4, 119, 3.767679214477539
0, 4, 120, 1.999429702758789
0, 4, 121, 2.673985481262207
0, 4, 122, 2.875232696533203
0, 4, 123, 1.150488138198853
0, 4, 124, 3.396337270736694
0, 4, 125, 2.796359062194824
0, 4, 126, 0.8833284974098206
0, 4, 127, 1.610676169395447
0, 5, 0, 1.551782608032227
0, 5, 1, 3.121763229370117
0, 5, 2, 6.454053401947021
0, 5, 3, 4.599815368652344
0, 5, 4, 3.058078527450562
0, 5, 5, 1.406596660614014
0, 5, 6, 2.27979302406311
0, 5, 7, 2.70638370513916
0, 5, 8, 3.384353637695312
0, 5, 9, 2.15817666053772
0, 5, 10, 3.305438756942749
0, 5, 11, 3.069657564163208
0, 5, 12, 5.224790096282959
0, 5, 13, 4.017077922821045
0, 5, 14, 5.092272758483887
0, 5, 15, 9.781106948852539
0, 5, 16, 7.966734886169434
0, 5, 17, 21.70907211303711
0, 5, 18, 84.31704711914062
0, 5, 19, 164.8158721923828
0, 5, 20, 183.0767822265625
0, 5, 21, 178.6449584960938
0, 5, 22, 171.4678039550781
0, 5, 23, 200.4219207763672
0, 5, 24, 186.5581512451172
0, 5, 25, 207.2259368896484
0, 5, 26, 182.8343963623047
0, 5, 27, 194.1540679931641
0, 5, 28, 188.5595855712891
0, 5, 29, 195.3560028076172
0, 5, 30, 177.6107940673828
0, 5, 31, 179.7680053710938
0, 5, 32, 186.2616119384766
0, 5, 33, 168.5060882568359
0, 5, 34, 195.2439270019531
0, 5, 35, 197.0684967041016
0, 5, 36, 167.5760345458984
0, 5, 37, 197.2663269042969
0, 5, 38, 179.7174530029297
0, 5, 39, 186.5298919677734
0, 5, 40, 197.0678863525391
0, 5, 41, 176.6651611328125
0, 5, 42, 187.9818267822266
0, 5, 43, 193.4238433837891
0, 5, 44, 199.5567474365234
0, 5, 45, 186.1064147949219
0, 5, 46, 193.5503997802734
0, 5, 47, 180.3016204833984
0, 5, 48, 178.4632568359375
0, 5, 49, 177.6953125
0, 5, 50, 185.7684020996094
0, 5, 51, 171.9125671386719
0, 5, 52, 167.9949188232422
0, 5, 53, 181.0506744384766
0, 5, 54, 172.1438140869141
0, 5, 55, 217.0171966552734
0, 5, 56, 181.9897155761719
0, 5, 57, 207.0969696044922
0, 5, 58, 181.7915802001953
0, 5, 59, 180.5209808349609
0, 5, 60, 218.5350341796875
0, 5, 61, 184.630126953125
0, 5, 62, 180.9837951660156
0, 5, 63, 180.2979583740234
0, 5, 64, 195.0281372070312
0, 5, 65, 210.2855987548828
0, 5, 66, 191.9591674804688
0, 5, 67, 199.4014434814453
0, 5, 68, 186.5850524902344
0, 5, 69, 185.0348968505859
0, 5, 70, 186.9180755615234
0, 5, 71, 193.7176513671875
0, 5, 72, 197.3357696533203
0, 5, 73, 200.9289855957031
0, 5, 74, 179.1573944091797
0, 5, 75, 206.0530090332031
0, 5, 76, 216.8060607910156
0, 5, 77, 181.9721984863281
0, 5, 78, 194.0761871337891
0, 5, 79, 190.1415252685547
0, 5, 80, 197.9678497314453
0, 5, 81, 203.0219116210938
0, 5, 82, 201.3487243652344
0, 5, 83, 187.8287200927734
0, 5, 84, 204.7380065917969
0, 5, 85, 176.4806365966797
0, 5, 86, 195.8695678710938
0, 5, 87, 188.0946197509766
0, 5, 88, 178.5287322998047
0, 5, 89, 193.9103393554688
0, 5, 90, 199.5909729003906
0, 5, 91, 194.7683563232422
0, 5, 92, 190.5711669921875
0, 5, 93, 190.1993865966797
0, 5, 94, 207.386962890625
0, 5, 95, 177.1633453369141
0, 5, 96, 182.0303192138672
0, 5, 97, 191.0433959960938
0, 5, 98, 188.5747680664062
0, 5, 99, 196.6549835205078
0, 5, 100, 185.7393951416016
0, 5, 101, 195.5508117675781
0, 5, 102, 181.8919219970703
0, 5, 103, 176.0356140136719
0, 5, 104, 190.1567077636719
0, 5, 105, 189.6526947021484
0, 5, 106, 177.2338714599609
0, 5, 107, 181.5387878417969
0, 5, 108, 176.861083984375
0, 5, 109, 91.66742706298828
0, 5, 110, 29.9146842956543
0, 5, 111, 9.717743873596191
0, 5, 112, 6.153773307800293
0, 5, 113, 5.264693737030029
0, 5, 114, 6.349429607391357
0, 5, 115, 7.72900390625
0, 5, 116, 5.123322010040283
0, 5, 117, 3.2152099609375
0, 5, 118, 3.531606674194336
0, 5, 119, 3.812167644500732
0, 5, 120, 1.185568690299988
0, 5, 121, 2.468047618865967
0, 5, 122, 2.758589029312134
0, 5, 123, 3.300993680953979
0, 5, 124, 4.177803039550781
0, 5, 125, 2.517299175262451
0, 5, 126, 3.387018442153931
0, 5, 127, 3.18632173538208
0, 6, 0, 4.375828266143799
0, 6, 1, 2.604791164398193
0, 6, 2, 3.166296243667603
0, 6, 3, 1.597225069999695
0, 6, 4, 3.668596744537354
0, 6, 5, 2.591818332672119
0, 6, 6, 2.862365007400513
0, 6, 7, 3.76854681968689
0, 6, 8, 4.418891906738281
0, 6, 9, 4.299489498138428
0, 6, 10, 5.481734752655029
0, 6, 11, 4.797869205474854
0, 6, 12, 4.387757778167725
0, 6, 13, 5.211427688598633
0, 6, 14, 5.900173187255859
0, 6, 15, 6.878471374511719
0, 6, 16, 13.39126014709473
0, 6, 17, 28.05876159667969
0, 6, 18, 111.8275375366211
0, 6, 19, 191.1108093261719
0, 6, 20, 195.864013671875
0, 6, 21, 198.2568817138672
0, 6, 22, 191.5347137451172
0, 6, 23, 190.7342224121094
0, 6, 24, 200.2406616210938
0, 6, 25, 181.4088897705078
0, 6, 26, 187.189453125
0, 6, 27, 191.9029235839844
0, 6, 28, 189.0500335693359
0, 6, 29, 212.3926391601562
0, 6, 30, 189.235595703125
0, 6, 31, 192.5610198974609
0, 6, 32, 206.3788452148438
0, 6, 33, 182.8211517333984
0, 6, 34, 196.6729583740234
0, 6, 35, 187.5606384277344
0, 6, 36, 180.2139892578125
0, 6, 37, 182.5123596191406
0, 6, 38, 186.7354583740234
0, 6, 39, 194.5550079345703
0, 6, 40, 173.8909301757812
0, 6, 41, 185.2139587402344
0, 6, 42, 175.5895233154297
0, 6, 43, 208.8202514648438
0, 6, 44, 209.4972229003906
0, 6, 45, 193.6381530761719
0, 6, 46, 188.9020233154297
0, 6, 47, 204.0834808349609
0, 6, 48, 188.9941864013672
0, 6, 49, 180.3720245361328
0, 6, 50, 181.9947967529297
0, 6, 51, 195.7313690185547
0, 6, 52, 198.2617340087891
0, 6, 53, 184.8360137939453
0, 6, 54, 176.0643157958984
0, 6, 55, 194.7591094970703
0, 6, 56, 202.7021484375
0, 6, 57, 191.5903778076172
0, 6, 58, 178.7222442626953
0, 6, 59, 192.9177856445312
0, 6, 60, 186.4647979736328
0, 6, 61, 194.7273406982422
0, 6, 62, 198.1450958251953
0, 6, 63, 186.5233764648438
0, 6, 64, 170.5900726318359
0, 6, 65, 185.1435241699219
0, 6, 66, 197.7146911621094
0, 6, 67, 213.2352142333984
0, 6, 68, 179.8177185058594
0, 6, 69, 171.1162261962891
0, 6, 70, 187.0102386474609
0, 6, 71, 170.4151306152344
0, 6, 72, 175.5145721435547
0, 6, 73, 176.6339416503906
0, 6, 74, 210.1782073974609
0, 6, 75, 226.9131011962891
0, 6, 76, 185.3709564208984
0, 6, 77, 172.4888153076172
0, 6, 78, 176.5762481689453
0, 6, 79, 186.6095275878906
0, 6, 80, 187.1652374267578
0, 6, 81, 209.2793273925781
0, 6, 82, 194.6445617675781
0, 6, 83, 195.8508758544922
0, 6, 84, 199.7132263183594
0, 6, 85, 181.0008392333984
0, 6, 86, 202.5923156738281
0, 6, 87, 183.2667236328125
0, 6, 88, 191.74853515625
0, 6, 89, 189.2446441650391
0, 6, 90, 207.2930145263672
0, 6, 91, 201.2070159912109
0, 6, 92, 172.5237274169922
0, 6, 93, 193.2712554931641
0, 6, 94, 189.3364562988281
0, 6, 95, 184.8245391845703
0, 6, 96, 189.3703918457031
0, 6, 97, 193.4101867675781
0, 6, 98, 182.8031311035156
0, 6, 99, 176.0944061279297
0, 6, 100, 202.4779510498047
0, 6, 101, 168.9607238769531
0, 6, 102, 201.5177612304688
0, 6, 103, 197.6114349365234
0, 6, 104, 183.4040985107422
0, 6, 105, 193.7926940917969
0, 6, 106, 177.4673156738281
0, 6, 107, 195.2413940429688
0, 6, 108, 171.0447082519531
0, 6, 109, 115.7698135375977
0, 6, 110, 34.73991012573242
0, 6, 111, 10.05037212371826
0, 6, 112, 8.498915672302246
0, 6, 113, 4.866490364074707
0, 6, 114, 5.808871746063232
0, 6, 115, 5.409671783447266
0, 6, 116, 7.272016525268555
0, 6, 117, 4.069559574127197
0, 6, 118, 3.155930519104004
0, 6, 119, 4.313469886779785
0, 6, 120, 2.327457666397095
0, 6, 121, 3.138442754745483
0, 6, 122, 3.391060590744019
0, 6, 123, 2.552465200424194
0, 6, 124, 3.041802167892456
0, 6, 125, 2.461207628250122
0, 6, 126, 1.274568319320679
0, 6, 127, 3.118375539779663
0, 7, 0, 2.446172714233398
0, 7, 1, 2.458045244216919
0, 7, 2, 4.315106868743896
0, 7, 3, 2.64091944694519
0, 7, 4, 1.250234365463257
0, 7, 5, 1.550644516944885
0, 7, 6, 2.140929460525513
0, 7, 7, 2.531112909317017
0, 7, 8, 4.291746139526367
0, 7, 9, 3.488920211791992
0, 7, 10, 6.173433303833008
0, 7, 11, 2.879303455352783
0, 7, 12, 3.407144546508789
0, 7, 13, 5.645344734191895
0, 7, 14, 6.79558277130127
0, 7, 15, 7.049862861633301
0, 7, 16, 15.64132499694824
0, 7, 17, 49.7167854309082
0, 7, 18, 162.2303009033203
0, 7, 19, 181.7550354003906
0, 7, 20, 179.9665832519531
0, 7, 21, 180.8924560546875
0, 7, 22, 191.3758544921875
0, 7, 23, 202.8947448730469
0, 7, 24, 179.7050628662109
0, 7, 25, 212.1435546875
0, 7, 26, 189.1010131835938
0, 7, 27, 182.1462707519531
0, 7, 28, 182.4557952880859
0, 7, 29, 208.6458740234375
0, 7, 30, 192.5125427246094
0, 7, 31, 176.7002410888672
0, 7, 32, 189.8442230224609
0, 7, 33, 182.3497772216797
0, 7, 34, 193.1803283691406
0, 7, 35, 195.9999847412109
0, 7, 36, 187.6595306396484
0, 7, 37, 214.2944793701172
0, 7, 38, 191.8901977539062
0, 7, 39, 173.1238708496094
0, 7, 40, 183.5511169433594
0, 7, 41, 184.4309539794922
0, 7, 42, 177.7139434814453
0, 7, 43, 177.0162658691406
0, 7, 44, 178.9620971679688
0, 7, 45, 174.5857543945312
0, 7, 46, 187.5919494628906
0, 7, 47, 198.9305725097656
0, 7, 48, 184.5832672119141
0, 7, 49, 198.6936798095703
0, 7, 50, 187.7740631103516
0, 7, 51, 205.2533874511719
0, 7, 52, 203.3430786132812
0, 7, 53, 191.5417327880859
0, 7, 54, 195.0539093017578
0, 7, 55, 203.5995483398438
0, 7, 56, 182.9362640380859
0, 7, 57, 183.8902435302734
0, 7, 58, 193.3497009277344
0, 7, 59, 186.5726623535156
0, 7, 60, 202.4990692138672
0, 7, 61, 171.9660491943359
0, 7, 62, 202.8152465820312
0, 7, 63, 188.6654205322266
0, 7, 64, 199.9742431640625
0, 7, 65, 196.1671295166016
0, 7, 66, 205.7026824951172
0, 7, 67, 222.1553955078125
0, 7, 68, 163.7449035644531
0, 7, 69, 194.6014709472656
0, 7, 70, 216.6361541748047
0, 7, 71, 185.0634613037109
0, 7, 72, 180.5661315917969
0, 7, 73, 176.3955078125
0, 7, 74, 208.8598480224609
0, 7, 75, 204.4157257080078
0, 7, 76, 214.7714385986328
0, 7, 77, 175.2837982177734
0, 7, 78, 177.3825378417969
0, 7, 79, 192.2328338623047
0, 7, 80, 196.9181365966797
0, 7, 81, 215.1972198486328
0, 7, 82, 184.314697265625
0, 7, 83, 207.5043640136719
0, 7, 84, 193.1727752685547
0, 7, 85, 187.4281311035156
0, 7, 86, 200.4008026123047
0, 7, 87, 225.3233947753906
0, 7, 88, 194.5530395507812
0, 7, 89, 175.8458709716797
0, 7, 90, 181.9783020019531
0, 7, 91, 194.1992492675781
0, 7, 92, 196.7530822753906
0, 7, 93, 198.4968719482422
0, 7, 94, 179.8872222900391
0, 7, 95, 199.1842803955078
0, 7, 96, 209.0178527832031
0, 7, 97, 189.1271820068359
0, 7, 98, 176.1962890625
0, 7, 99, 196.7095489501953
0, 7, 100, 182.2906799316406
0, 7, 101, 199.6208038330078
0, 7, 102, 184.7041015625
0, 7, 103, 180.4566497802734
0, 7, 104, 176.3724822998047
0, 7, 105, 194.9544372558594
0, 7, 106, 204.6738891601562
0, 7, 107, 174.4994964599609
0, 7, 108, 176.6485137939453
0, 7, 109, 136.7689666748047
0, 7, 110, 54.77548217773438
0, 7, 111, 9.572906494140625
0, 7, 112, 7.534923553466797
0, 7, 113, 9.243772506713867
0, 7, 114, 6.679520606994629
0, 7, 115, 5.603891372680664
0, 7, 116, 4.109046459197998
0, 7, 117, 2.658863544464111
0, 7, 118, 3.238555908203125
0, 7, 119, 2.59794807434082
0, 7, 120, 6.186846256256104
0, 7, 121, 1.206549167633057
0, 7, 122, 2.650882959365845
0, 7, 123, 1.465815424919128
0, 7, 124, 2.357263326644897
0, 7, 125, 2.448359251022339
0, 7, 126, 2.116797208786011
0, 7, 127, 1.43730366230011
0, 8, 0, 4.862054824829102
0, 8, 1, 2.637840032577515
0, 8, 2, 4.81826114654541
0, 8, 3, 1.848573565483093
0, 8, 4, 1.615057349205017
0, 8, 5, 2.608615636825562
0, 8, 6, 2.369685888290405
0, 8, 7, 2.844364166259766
0, 8, 8, 4.224483013153076
0, 8, 9, 4.725353717803955
0, 8, 10, 2.786482095718384
0, 8, 11, 3.085489988327026
0, 8, 12, 3.398155450820923
0, 8, 13, 4.473737239837646
0, 8, 14, 5.778029441833496
0, 8, 15, 8.126863479614258
0, 8, 16, 19.95494651794434
0, 8, 17, 75.55127716064453
0, 8, 18, 142.7395477294922
0, 8, 19, 178.1835479736328
0, 8, 20, 191.5674133300781
0, 8, 21, 191.8910522460938
0, 8, 22, 180.0422821044922
0, 8, 23, 172.2393035888672
0, 8, 24, 193.1266632080078
0, 8, 25, 186.3083343505859
0, 8, 26, 192.4665069580078
0, 8, 27, 186.4116516113281
0, 8, 28, 186.9838409423828
0, 8, 29, 207.6758880615234
0, 8, 30, 196.3814392089844
0, 8, 31, 184.1215515136719
0, 8, 32, 198.9596557617188
0, 8, 33, 206.9736175537109
0, 8, 34, 203.3407745361328
0, 8, 35, 184.1864929199219
0, 8, 36, 181.1257171630859
0, 8, 37, 199.7058715820312
