# TOPAS Version: 3.1.p3
# Parameter File: batch_inserts_74.txt
# Results for scorer Readout_Adipose
# Scored in component: MyBox
# X in 1 bin  of 0.65 cm
# Y in 512 bins of 0.0783984 cm
# Z in 128 bins of 0.078125 cm
# EnergyDeposit ( MeV ) : Sum   
0, 0, 0, 1.951608896255493
0, 0, 1, 2.808844804763794
0, 0, 2, 1.648019671440125
0, 0, 3, 1.895933866500854
0, 0, 4, 1.871760010719299
0, 0, 5, 1.137103319168091
0, 0, 6, 1.769156575202942
0, 0, 7, 2.155664443969727
0, 0, 8, 2.035342693328857
0, 0, 9, 2.039866209030151
0, 0, 10, 3.146360397338867
0, 0, 11, 4.382604598999023
0, 0, 12, 4.211960315704346
0, 0, 13, 3.450797557830811
0, 0, 14, 5.580811977386475
0, 0, 15, 5.849735736846924
0, 0, 16, 3.476378202438354
0, 0, 17, 6.100738048553467
0, 0, 18, 6.79610538482666
0, 0, 19, 24.16534042358398
0, 0, 20, 93.60309600830078
0, 0, 21, 155.2957305908203
0, 0, 22, 154.8417816162109
0, 0, 23, 143.7749938964844
0, 0, 24, 159.4580841064453
0, 0, 25, 167.0583038330078
0, 0, 26, 166.7968902587891
0, 0, 27, 173.8756561279297
0, 0, 28, 177.2310485839844
0, 0, 29, 174.3999481201172
0, 0, 30, 173.8819427490234
0, 0, 31, 167.6590728759766
0, 0, 32, 164.0453186035156
0, 0, 33, 166.5643463134766
0, 0, 34, 176.1563262939453
0, 0, 35, 173.1806793212891
0, 0, 36, 159.9860382080078
0, 0, 37, 161.0694274902344
0, 0, 38, 166.1705322265625
0, 0, 39, 159.7509918212891
0, 0, 40, 166.67138671875
0, 0, 41, 166.8689117431641
0, 0, 42, 143.9953308105469
0, 0, 43, 169.0257873535156
0, 0, 44, 177.5145568847656
0, 0, 45, 172.6528167724609
0, 0, 46, 165.4591827392578
0, 0, 47, 167.498046875
0, 0, 48, 169.7631530761719
0, 0, 49, 182.3368988037109
0, 0, 50, 169.0487976074219
0, 0, 51, 162.4361724853516
0, 0, 52, 164.1429443359375
0, 0, 53, 171.0006103515625
0, 0, 54, 159.7149200439453
0, 0, 55, 164.3086242675781
0, 0, 56, 189.6705627441406
0, 0, 57, 169.9659881591797
0, 0, 58, 160.8721313476562
0, 0, 59, 172.7311706542969
0, 0, 60, 168.4479522705078
0, 0, 61, 169.9072418212891
0, 0, 62, 183.2253875732422
0, 0, 63, 167.0608367919922
0, 0, 64, 163.5218963623047
0, 0, 65, 174.0469360351562
0, 0, 66, 179.2316741943359
0, 0, 67, 166.1071472167969
0, 0, 68, 159.0075836181641
0, 0, 69, 158.7904357910156
0, 0, 70, 169.6282653808594
0, 0, 71, 158.6598815917969
0, 0, 72, 161.8921813964844
0, 0, 73, 171.1174468994141
0, 0, 74, 164.0044555664062
0, 0, 75, 163.4104156494141
0, 0, 76, 163.7833404541016
0, 0, 77, 172.6366424560547
0, 0, 78, 181.4701232910156
0, 0, 79, 174.6779022216797
0, 0, 80, 160.7236328125
0, 0, 81, 160.3481750488281
0, 0, 82, 183.0520477294922
0, 0, 83, 173.4403228759766
0, 0, 84, 160.5716247558594
0, 0, 85, 181.7785339355469
0, 0, 86, 158.1780090332031
0, 0, 87, 177.3350677490234
0, 0, 88, 176.9819030761719
0, 0, 89, 175.8929748535156
0, 0, 90, 161.5693969726562
0, 0, 91, 183.7432403564453
0, 0, 92, 163.8592376708984
0, 0, 93, 156.93115234375
0, 0, 94, 169.256103515625
0, 0, 95, 175.6142425537109
0, 0, 96, 183.20751953125
0, 0, 97, 183.4624633789062
0, 0, 98, 187.8828125
0, 0, 99, 171.2103424072266
0, 0, 100, 157.8304748535156
0, 0, 101, 167.0545654296875
0, 0, 102, 169.9450988769531
0, 0, 103, 170.5204315185547
0, 0, 104, 170.1282501220703
0, 0, 105, 176.8519744873047
0, 0, 106, 159.1842346191406
0, 0, 107, 86.32093048095703
0, 0, 108, 22.07548141479492
0, 0, 109, 10.39053726196289
0, 0, 110, 5.070103168487549
0, 0, 111, 7.494737148284912
0, 0, 112, 3.559524059295654
0, 0, 113, 3.217429637908936
0, 0, 114, 2.023302316665649
0, 0, 115, 4.780797004699707
0, 0, 116, 2.279683113098145
0, 0, 117, 1.701022624969482
0, 0, 118, 2.993623018264771
0, 0, 119, 2.019382953643799
0, 0, 120, 1.494804382324219
0, 0, 121, 4.024907112121582
0, 0, 122, 3.893286228179932
0, 0, 123, 3.905376434326172
0, 0, 124, 2.704848766326904
0, 0, 125, 3.18686318397522
0, 0, 126, 0.7611545324325562
0, 0, 127, 3.761939764022827
0, 1, 0, 1.704159140586853
0, 1, 1, 3.755262613296509
0, 1, 2, 4.007987499237061
0, 1, 3, 1.886536240577698
0, 1, 4, 1.91499662399292
0, 1, 5, 1.229127287864685
0, 1, 6, 1.74781596660614
0, 1, 7, 3.067420721054077
0, 1, 8, 2.171677827835083
0, 1, 9, 2.007638454437256
0, 1, 10, 2.852619171142578
0, 1, 11, 2.891833066940308
0, 1, 12, 3.187105417251587
0, 1, 13, 4.231713771820068
0, 1, 14, 6.714010238647461
0, 1, 15, 6.65556526184082
0, 1, 16, 7.251904964447021
0, 1, 17, 4.914421558380127
0, 1, 18, 10.2211446762085
0, 1, 19, 39.10755157470703
0, 1, 20, 126.9475479125977
0, 1, 21, 177.9180297851562
0, 1, 22, 192.9614562988281
0, 1, 23, 186.0498504638672
0, 1, 24, 180.6071166992188
0, 1, 25, 191.60009765625
0, 1, 26, 197.566162109375
0, 1, 27, 186.9529571533203
0, 1, 28, 188.6812438964844
0, 1, 29, 183.8252868652344
0, 1, 30, 179.3348999023438
0, 1, 31, 181.4690246582031
0, 1, 32, 189.1523132324219
0, 1, 33, 190.8885498046875
0, 1, 34, 182.8548278808594
0, 1, 35, 193.0942840576172
0, 1, 36, 205.1368560791016
0, 1, 37, 185.3299865722656
0, 1, 38, 165.9258880615234
0, 1, 39, 172.1217041015625
0, 1, 40, 179.6458435058594
0, 1, 41, 184.5061340332031
0, 1, 42, 182.7399291992188
0, 1, 43, 184.7842102050781
0, 1, 44, 168.2946472167969
0, 1, 45, 190.6509552001953
0, 1, 46, 170.1868896484375
0, 1, 47, 185.2508850097656
0, 1, 48, 186.8406066894531
0, 1, 49, 186.8407897949219
0, 1, 50, 178.7292327880859
0, 1, 51, 190.7625732421875
0, 1, 52, 200.1458282470703
0, 1, 53, 195.8970947265625
0, 1, 54, 184.8118591308594
0, 1, 55, 165.8927612304688
0, 1, 56, 180.0818481445312
0, 1, 57, 178.0744781494141
0, 1, 58, 189.77685546875
0, 1, 59, 194.9448699951172
0, 1, 60, 187.6776733398438
0, 1, 61, 177.8948669433594
0, 1, 62, 203.8122406005859
0, 1, 63, 174.7611846923828
0, 1, 64, 173.5517578125
0, 1, 65, 184.3960723876953
0, 1, 66, 204.3874816894531
0, 1, 67, 184.3672943115234
0, 1, 68, 187.8366546630859
0, 1, 69, 188.8264007568359
0, 1, 70, 186.930908203125
0, 1, 71, 172.2279815673828
0, 1, 72, 189.6864624023438
0, 1, 73, 190.6840515136719
0, 1, 74, 201.0501556396484
0, 1, 75, 183.6252746582031
0, 1, 76, 176.9788665771484
0, 1, 77, 192.9430847167969
0, 1, 78, 188.7400970458984
0, 1, 79, 201.7035675048828
0, 1, 80, 187.9880523681641
0, 1, 81, 175.7365570068359
0, 1, 82, 207.5006103515625
0, 1, 83, 211.9722595214844
0, 1, 84, 180.906982421875
0, 1, 85, 170.0019378662109
0, 1, 86, 168.3511047363281
0, 1, 87, 184.4404144287109
0, 1, 88, 176.2865753173828
0, 1, 89, 186.8441772460938
0, 1, 90, 213.2638549804688
0, 1, 91, 183.7941284179688
0, 1, 92, 184.0451965332031
0, 1, 93, 182.2357940673828
0, 1, 94, 186.4501953125
0, 1, 95, 181.1620635986328
0, 1, 96, 196.7036437988281
0, 1, 97, 182.6823883056641
0, 1, 98, 185.797607421875
0, 1, 99, 174.9651031494141
0, 1, 100, 171.6107940673828
0, 1, 101, 178.0116119384766
0, 1, 102, 182.7267913818359
0, 1, 103, 173.3508758544922
0, 1, 104, 188.9668426513672
0, 1, 105, 181.7098541259766
0, 1, 106, 164.5490112304688
0, 1, 107, 123.1357650756836
0, 1, 108, 46.40125274658203
0, 1, 109, 10.90189647674561
0, 1, 110, 8.057876586914062
0, 1, 111, 5.756046772003174
0, 1, 112, 7.745351314544678
0, 1, 113, 7.737096786499023
0, 1, 114, 4.84751558303833
0, 1, 115, 3.417472362518311
0, 1, 116, 1.797323942184448
0, 1, 117, 1.9457688331604
0, 1, 118, 3.344132423400879
0, 1, 119, 0.8711069226264954
0, 1, 120, 3.910002708435059
0, 1, 121, 4.760880470275879
0, 1, 122, 1.610199570655823
0, 1, 123, 1.967908263206482
0, 1, 124, 3.065027236938477
0, 1, 125, 2.141684293746948
0, 1, 126, 1.953345060348511
0, 1, 127, 2.011730909347534
0, 2, 0, 2.625295877456665
0, 2, 1, 2.010769844055176
0, 2, 2, 3.80017352104187
0, 2, 3, 1.033726930618286
0, 2, 4, 1.993484616279602
0, 2, 5, 1.852034568786621
0, 2, 6, 2.856796979904175
0, 2, 7, 1.617374062538147
0, 2, 8, 3.404299259185791
0, 2, 9, 3.786730289459229
0, 2, 10, 6.119331836700439
0, 2, 11, 4.165015697479248
0, 2, 12, 2.925143480300903
0, 2, 13, 3.643795013427734
0, 2, 14, 4.571773052215576
0, 2, 15, 7.054172992706299
0, 2, 16, 4.495471477508545
0, 2, 17, 8.972927093505859
0, 2, 18, 14.64546680450439
0, 2, 19, 78.16860198974609
0, 2, 20, 162.2325134277344
0, 2, 21, 182.5575866699219
0, 2, 22, 193.8650054931641
0, 2, 23, 184.0030975341797
0, 2, 24, 173.4244079589844
0, 2, 25, 184.3176879882812
0, 2, 26, 178.6571197509766
0, 2, 27, 190.4065093994141
0, 2, 28, 170.9992828369141
0, 2, 29, 168.6049499511719
0, 2, 30, 183.9314575195312
0, 2, 31, 182.1022033691406
0, 2, 32, 183.4906616210938
0, 2, 33, 190.4759826660156
0, 2, 34, 194.9711151123047
0, 2, 35, 181.1862335205078
0, 2, 36, 185.0303192138672
0, 2, 37, 180.9131469726562
0, 2, 38, 183.4322204589844
0, 2, 39, 166.4051971435547
0, 2, 40, 183.3334503173828
0, 2, 41, 183.4134826660156
0, 2, 42, 190.0220794677734
0, 2, 43, 193.3622894287109
0, 2, 44, 190.8509521484375
0, 2, 45, 190.2608642578125
0, 2, 46, 195.5567779541016
0, 2, 47, 188.9844055175781
0, 2, 48, 179.0706481933594
0, 2, 49, 198.4263458251953
0, 2, 50, 168.8611297607422
0, 2, 51, 183.7713317871094
0, 2, 52, 185.9966430664062
0, 2, 53, 195.5174560546875
0, 2, 54, 175.3756561279297
0, 2, 55, 173.3708648681641
0, 2, 56, 180.9420318603516
0, 2, 57, 199.4936828613281
0, 2, 58, 186.3440551757812
0, 2, 59, 188.7178344726562
0, 2, 60, 197.4033355712891
0, 2, 61, 192.4491882324219
0, 2, 62, 190.1789855957031
0, 2, 63, 169.5101776123047
0, 2, 64, 189.4778747558594
0, 2, 65, 203.6967926025391
0, 2, 66, 195.5325927734375
0, 2, 67, 185.7161712646484
0, 2, 68, 182.5375366210938
0, 2, 69, 188.1877746582031
0, 2, 70, 204.0824584960938
0, 2, 71, 174.5704498291016
0, 2, 72, 187.7977447509766
0, 2, 73, 178.1368560791016
0, 2, 74, 180.2383728027344
0, 2, 75, 196.2914886474609
0, 2, 76, 184.5404052734375
0, 2, 77, 179.7566528320312
0, 2, 78, 198.1847381591797
0, 2, 79, 177.4552764892578
0, 2, 80, 186.5800933837891
0, 2, 81, 187.4484405517578
0, 2, 82, 204.9604187011719
0, 2, 83, 205.9542846679688
0, 2, 84, 187.8504638671875
0, 2, 85, 170.7471313476562
0, 2, 86, 196.0413360595703
0, 2, 87, 171.7411499023438
0, 2, 88, 178.7099151611328
0, 2, 89, 186.5035247802734
0, 2, 90, 177.5726013183594
0, 2, 91, 172.6184692382812
0, 2, 92, 197.2904968261719
0, 2, 93, 193.2372131347656
0, 2, 94, 199.0960998535156
0, 2, 95, 194.7290954589844
0, 2, 96, 186.9400939941406
0, 2, 97, 172.0260009765625
0, 2, 98, 172.9015960693359
0, 2, 99, 162.6694641113281
0, 2, 100, 187.9049835205078
0, 2, 101, 196.2367858886719
0, 2, 102, 176.4196166992188
0, 2, 103, 198.9326171875
0, 2, 104, 187.7595367431641
0, 2, 105, 200.8404388427734
0, 2, 106, 195.9089660644531
0, 2, 107, 150.6109466552734
0, 2, 108, 78.86209869384766
0, 2, 109, 19.62896156311035
0, 2, 110, 6.941298961639404
0, 2, 111, 5.281445980072021
0, 2, 112, 3.470083236694336
0, 2, 113, 4.055565357208252
0, 2, 114, 8.761226654052734
0, 2, 115, 3.005618810653687
0, 2, 116, 1.294229030609131
0, 2, 117, 1.558891892433167
0, 2, 118, 3.391532182693481
0, 2, 119, 2.996244192123413
0, 2, 120, 3.943201780319214
0, 2, 121, 3.234317779541016
0, 2, 122, 1.852956771850586
0, 2, 123, 2.004952907562256
0, 2, 124, 2.731181621551514
0, 2, 125, 1.617287039756775
0, 2, 126, 2.97202205657959
0, 2, 127, 1.68489670753479
0, 3, 0, 1.219840168952942
0, 3, 1, 1.809240341186523
0, 3, 2, 1.442652344703674
0, 3, 3, 1.245964169502258
0, 3, 4, 3.992377996444702
0, 3, 5, 1.108779072761536
0, 3, 6, 0.9599916338920593
0, 3, 7, 1.325952529907227
0, 3, 8, 1.738426089286804
0, 3, 9, 1.307255506515503
0, 3, 10, 1.656978249549866
0, 3, 11, 3.684389114379883
0, 3, 12, 4.281848907470703
0, 3, 13, 3.629161834716797
0, 3, 14, 4.41318416595459
0, 3, 15, 5.879827976226807
0, 3, 16, 7.330679416656494
0, 3, 17, 7.261578559875488
0, 3, 18, 34.1025390625
0, 3, 19, 115.5124816894531
0, 3, 20, 180.3239440917969
0, 3, 21, 172.867431640625
0, 3, 22, 180.4593353271484
0, 3, 23, 188.9850463867188
0, 3, 24, 177.7581329345703
0, 3, 25, 168.2855987548828
0, 3, 26, 180.7601776123047
0, 3, 27, 191.6672210693359
0, 3, 28, 183.7119598388672
0, 3, 29, 198.2389068603516
0, 3, 30, 185.2051849365234
0, 3, 31, 192.8071136474609
0, 3, 32, 205.5469818115234
0, 3, 33, 195.9260406494141
0, 3, 34, 187.9806823730469
0, 3, 35, 175.5503692626953
0, 3, 36, 185.8023071289062
0, 3, 37, 199.7218475341797
0, 3, 38, 190.9540252685547
0, 3, 39, 186.7426452636719
0, 3, 40, 166.9377746582031
0, 3, 41, 174.6488647460938
0, 3, 42, 185.3314514160156
0, 3, 43, 181.4600067138672
0, 3, 44, 202.5215148925781
0, 3, 45, 208.4547882080078
0, 3, 46, 198.5378875732422
0, 3, 47, 194.2375946044922
0, 3, 48, 196.0750122070312
0, 3, 49, 180.8280792236328
0, 3, 50, 186.6041107177734
0, 3, 51, 173.7446441650391
0, 3, 52, 187.0771331787109
0, 3, 53, 177.0360717773438
0, 3, 54, 179.8031158447266
0, 3, 55, 176.4327392578125
0, 3, 56, 183.4168548583984
0, 3, 57, 175.6963348388672
0, 3, 58, 201.2113952636719
0, 3, 59, 196.6846160888672
0, 3, 60, 186.3345336914062
0, 3, 61, 181.8032684326172
0, 3, 62, 184.7217102050781
0, 3, 63, 184.5797882080078
0, 3, 64, 191.1752624511719
0, 3, 65, 187.9831237792969
0, 3, 66, 175.6540222167969
0, 3, 67, 190.6272430419922
0, 3, 68, 212.5955200195312
0, 3, 69, 190.4039916992188
0, 3, 70, 184.8373413085938
0, 3, 71, 197.3754730224609
0, 3, 72, 185.6375885009766
0, 3, 73, 186.4228363037109
0, 3, 74, 192.7228698730469
0, 3, 75, 194.3904113769531
0, 3, 76, 191.4196624755859
0, 3, 77, 201.0874938964844
0, 3, 78, 189.3677215576172
0, 3, 79, 185.7868194580078
0, 3, 80, 189.1968994140625
0, 3, 81, 182.7767486572266
0, 3, 82, 178.9411468505859
0, 3, 83, 194.2819976806641
0, 3, 84, 198.9289855957031
0, 3, 85, 191.6942901611328
0, 3, 86, 203.7736053466797
0, 3, 87, 196.9076538085938
0, 3, 88, 190.9897918701172
0, 3, 89, 194.4842529296875
0, 3, 90, 174.7415771484375
0, 3, 91, 157.9268188476562
0, 3, 92, 206.4025268554688
0, 3, 93, 197.0494232177734
0, 3, 94, 192.5602722167969
0, 3, 95, 210.8657073974609
0, 3, 96, 208.6341094970703
0, 3, 97, 168.5910339355469
0, 3, 98, 167.7956085205078
0, 3, 99, 179.4935302734375
0, 3, 100, 176.6668548583984
0, 3, 101, 198.6727447509766
0, 3, 102, 194.0410003662109
0, 3, 103, 194.5853271484375
0, 3, 104, 201.6604461669922
0, 3, 105, 175.3717651367188
0, 3, 106, 181.3827362060547
0, 3, 107, 169.6127014160156
0, 3, 108, 108.7760391235352
0, 3, 109, 28.46567344665527
0, 3, 110, 8.454327583312988
0, 3, 111, 7.045398712158203
0, 3, 112, 4.379909038543701
0, 3, 113, 6.175742149353027
0, 3, 114, 5.026901245117188
0, 3, 115, 5.442022323608398
0, 3, 116, 6.711201667785645
0, 3, 117, 3.864679098129272
0, 3, 118, 2.667606353759766
0, 3, 119, 2.286832332611084
0, 3, 120, 3.656601667404175
0, 3, 121, 2.621139287948608
0, 3, 122, 5.084982395172119
0, 3, 123, 1.416406154632568
0, 3, 124, 2.028645277023315
0, 3, 125, 1.862693428993225
0, 3, 126, 2.156936883926392
0, 3, 127, 2.396129846572876
0, 4, 0, 0.9990220665931702
0, 4, 1, 1.225568294525146
0, 4, 2, 2.632805109024048
0, 4, 3, 4.094801902770996
0, 4, 4, 2.241273641586304
0, 4, 5, 1.084623098373413
0, 4, 6, 3.207760095596313
0, 4, 7, 2.911092042922974
0, 4, 8, 1.504486918449402
0, 4, 9, 1.562549829483032
0, 4, 10, 3.512845277786255
0, 4, 11, 2.969005346298218
0, 4, 12, 4.32201099395752
0, 4, 13, 5.038666725158691
0, 4, 14, 6.969419479370117
0, 4, 15, 8.062697410583496
0, 4, 16, 6.18468713760376
0, 4, 17, 11.190016746521
0, 4, 18, 54.61528778076172
0, 4, 19, 152.4397735595703
0, 4, 20, 192.7689361572266
0, 4, 21, 170.3280029296875
0, 4, 22, 187.013427734375
0, 4, 23, 196.6960754394531
0, 4, 24, 192.6269073486328
0, 4, 25, 199.7017974853516
0, 4, 26, 182.3513031005859
0, 4, 27, 192.2577056884766
0, 4, 28, 178.5512237548828
0, 4, 29, 207.6143188476562
0, 4, 30, 194.6582489013672
0, 4, 31, 192.5281829833984
0, 4, 32, 208.5981750488281
0, 4, 33, 190.4784240722656
0, 4, 34, 191.9098052978516
0, 4, 35, 213.0464782714844
0, 4, 36, 194.1779022216797
0, 4, 37, 177.0079040527344
0, 4, 38, 195.2935028076172
0, 4, 39, 190.0656433105469
0, 4, 40, 185.646240234375
0, 4, 41, 188.8042602539062
0, 4, 42, 206.3230285644531
0, 4, 43, 173.5309600830078
0, 4, 44, 183.3997192382812
0, 4, 45, 196.1385040283203
0, 4, 46, 185.7196502685547
0, 4, 47, 179.6033325195312
0, 4, 48, 185.3502197265625
0, 4, 49, 174.9753875732422
0, 4, 50, 185.9998626708984
0, 4, 51, 197.3566131591797
0, 4, 52, 223.3886413574219
0, 4, 53, 205.9269866943359
0, 4, 54, 190.3115234375
0, 4, 55, 174.8072814941406
0, 4, 56, 191.7361297607422
0, 4, 57, 193.4461212158203
0, 4, 58, 187.2631378173828
0, 4, 59, 188.8535919189453
0, 4, 60, 196.0465087890625
0, 4, 61, 193.4936981201172
0, 4, 62, 189.3386688232422
0, 4, 63, 178.1858825683594
0, 4, 64, 213.7227172851562
0, 4, 65, 191.7164154052734
0, 4, 66, 201.0532989501953
0, 4, 67, 199.9431457519531
0, 4, 68, 200.4381103515625
0, 4, 69, 199.4631500244141
0, 4, 70, 204.1800537109375
0, 4, 71, 206.0533752441406
0, 4, 72, 214.6103363037109
0, 4, 73, 185.4810791015625
0, 4, 74, 179.3911743164062
0, 4, 75, 186.3602142333984
0, 4, 76, 189.9764099121094
0, 4, 77, 183.4508361816406
0, 4, 78, 196.0111236572266
0, 4, 79, 204.4512634277344
0, 4, 80, 210.9683532714844
0, 4, 81, 199.3825073242188
0, 4, 82, 180.9317169189453
0, 4, 83, 169.3952026367188
0, 4, 84, 192.5245361328125
0, 4, 85, 198.2789459228516
0, 4, 86, 182.0588073730469
0, 4, 87, 183.4471130371094
0, 4, 88, 203.7059936523438
0, 4, 89, 187.3298492431641
0, 4, 90, 211.8833770751953
0, 4, 91, 189.1546020507812
0, 4, 92, 196.3750457763672
0, 4, 93, 195.3827514648438
0, 4, 94, 181.1720275878906
0, 4, 95, 173.2281188964844
0, 4, 96, 190.0639495849609
0, 4, 97, 193.1770324707031
0, 4, 98, 200.2715148925781
0, 4, 99, 183.0280151367188
0, 4, 100, 184.0302886962891
0, 4, 101, 178.4454956054688
0, 4, 102, 173.5292816162109
0, 4, 103, 185.1502685546875
0, 4, 104, 210.1206817626953
0, 4, 105, 189.9194946289062
0, 4, 106, 178.7344512939453
0, 4, 107, 181.5660400390625
0, 4, 108, 152.3774566650391
0, 4, 109, 50.02883911132812
0, 4, 110, 11.17696380615234
0, 4, 111, 7.137973308563232
0, 4, 112, 5.867894172668457
0, 4, 113, 7.982398509979248
0, 4, 114, 4.993339538574219
0, 4, 115, 4.621811389923096
0, 4, 116, 4.549091339111328
0, 4, 117, 3.349502086639404
0, 4, 118, 3.492109537124634
0, 4, 119, 3.855829000473022
0, 4, 120, 2.520754814147949
0, 4, 121, 2.312340021133423
0, 4, 122, 3.042366027832031
0, 4, 123, 1.487077355384827
0, 4, 124, 3.45060133934021
0, 4, 125, 2.501525640487671
0, 4, 126, 2.12005352973938
0, 4, 127, 1.400488018989563
0, 5, 0, 1.422773957252502
0, 5, 1, 2.356812953948975
0, 5, 2, 5.918651103973389
0, 5, 3, 3.829059362411499
0, 5, 4, 2.818084239959717
0, 5, 5, 3.253637790679932
0, 5, 6, 2.289492607116699
0, 5, 7, 2.175355911254883
0, 5, 8, 3.143680095672607
0, 5, 9, 2.708537817001343
0, 5, 10, 3.429109573364258
0, 5, 11, 3.566791772842407
0, 5, 12, 4.8473801612854
0, 5, 13, 3.688692569732666
0, 5, 14, 7.990211486816406
0, 5, 15, 9.821994781494141
0, 5, 16, 6.918842792510986
0, 5, 17, 22.20395088195801
0, 5, 18, 83.45365142822266
0, 5, 19, 163.2762756347656
0, 5, 20, 185.0580444335938
0, 5, 21, 177.8242340087891
0, 5, 22, 171.836669921875
0, 5, 23, 200.8780670166016
0, 5, 24, 187.5848846435547
0, 5, 25, 209.6352996826172
0, 5, 26, 182.5543365478516
0, 5, 27, 195.5654907226562
0, 5, 28, 189.6063690185547
0, 5, 29, 195.5223541259766
0, 5, 30, 178.3895263671875
0, 5, 31, 179.8444061279297
0, 5, 32, 188.2190551757812
0, 5, 33, 169.192138671875
0, 5, 34, 195.7849578857422
0, 5, 35, 200.899169921875
0, 5, 36, 169.9224548339844
0, 5, 37, 197.2084197998047
0, 5, 38, 181.3665924072266
0, 5, 39, 185.6011505126953
0, 5, 40, 196.8081359863281
0, 5, 41, 177.3269805908203
0, 5, 42, 187.9018859863281
0, 5, 43, 191.9990997314453
0, 5, 44, 199.4143371582031
0, 5, 45, 186.2540588378906
0, 5, 46, 192.8876647949219
0, 5, 47, 182.5561676025391
0, 5, 48, 178.4020690917969
0, 5, 49, 177.7630004882812
0, 5, 50, 186.1628723144531
0, 5, 51, 171.8968353271484
0, 5, 52, 167.8451080322266
0, 5, 53, 181.8180694580078
0, 5, 54, 172.8623962402344
0, 5, 55, 215.7316284179688
0, 5, 56, 181.0075378417969
0, 5, 57, 208.8584594726562
0, 5, 58, 182.2191772460938
0, 5, 59, 182.130126953125
0, 5, 60, 218.793212890625
0, 5, 61, 185.4945831298828
0, 5, 62, 178.2558135986328
0, 5, 63, 180.6993713378906
0, 5, 64, 195.4716033935547
0, 5, 65, 210.3165893554688
0, 5, 66, 191.9011840820312
0, 5, 67, 199.9940948486328
0, 5, 68, 186.5189514160156
0, 5, 69, 185.682861328125
0, 5, 70, 184.4954071044922
0, 5, 71, 194.5252380371094
0, 5, 72, 197.57861328125
0, 5, 73, 201.9569549560547
0, 5, 74, 179.794677734375
0, 5, 75, 202.6949005126953
0, 5, 76, 214.2892913818359
0, 5, 77, 181.8176574707031
0, 5, 78, 195.1729888916016
0, 5, 79, 189.5537567138672
0, 5, 80, 196.9945831298828
0, 5, 81, 204.8870239257812
0, 5, 82, 203.6335296630859
0, 5, 83, 188.09375
0, 5, 84, 204.8659362792969
0, 5, 85, 177.9280853271484
0, 5, 86, 196.5396118164062
0, 5, 87, 189.1649322509766
0, 5, 88, 176.7722320556641
0, 5, 89, 195.5627288818359
0, 5, 90, 198.1837921142578
0, 5, 91, 195.1679229736328
0, 5, 92, 190.1136169433594
0, 5, 93, 189.474365234375
0, 5, 94, 207.4640655517578
0, 5, 95, 178.0149383544922
0, 5, 96, 181.9405670166016
0, 5, 97, 191.0412750244141
0, 5, 98, 189.2019348144531
0, 5, 99, 196.7440032958984
0, 5, 100, 187.4680480957031
0, 5, 101, 195.5748138427734
0, 5, 102, 182.5855255126953
0, 5, 103, 176.3955688476562
0, 5, 104, 190.0995025634766
0, 5, 105, 189.7517547607422
0, 5, 106, 178.2152557373047
0, 5, 107, 181.1395416259766
0, 5, 108, 176.62060546875
0, 5, 109, 89.50657653808594
0, 5, 110, 30.38185882568359
0, 5, 111, 8.426671028137207
0, 5, 112, 5.934772491455078
0, 5, 113, 5.308402538299561
0, 5, 114, 6.304331302642822
0, 5, 115, 6.656875133514404
0, 5, 116, 5.257339477539062
0, 5, 117, 5.246299266815186
0, 5, 118, 3.533775091171265
0, 5, 119, 2.969573736190796
0, 5, 120, 1.466038584709167
0, 5, 121, 0.5857850313186646
0, 5, 122, 2.211304187774658
0, 5, 123, 5.109250068664551
0, 5, 124, 2.464811563491821
0, 5, 125, 0.6413865089416504
0, 5, 126, 1.297319173812866
0, 5, 127, 2.428438186645508
0, 6, 0, 3.978372573852539
0, 6, 1, 4.102217674255371
0, 6, 2, 3.007838010787964
0, 6, 3, 1.807107090950012
0, 6, 4, 2.762162923812866
0, 6, 5, 4.551155567169189
0, 6, 6, 3.316816568374634
0, 6, 7, 3.957295417785645
0, 6, 8, 3.281309843063354
0, 6, 9, 2.314509868621826
0, 6, 10, 4.222662448883057
0, 6, 11, 4.256340503692627
0, 6, 12, 6.136618614196777
0, 6, 13, 6.455906391143799
0, 6, 14, 5.780497550964355
0, 6, 15, 6.917554378509521
0, 6, 16, 13.98320865631104
0, 6, 17, 28.08638572692871
0, 6, 18, 112.3380584716797
0, 6, 19, 192.8401184082031
0, 6, 20, 195.5708770751953
0, 6, 21, 199.6825561523438
0, 6, 22, 192.2320098876953
0, 6, 23, 191.0524597167969
0, 6, 24, 201.3145141601562
0, 6, 25, 183.5963897705078
0, 6, 26, 187.1302795410156
0, 6, 27, 192.99365234375
0, 6, 28, 188.1520538330078
0, 6, 29, 210.5020599365234
0, 6, 30, 189.3734893798828
0, 6, 31, 193.2254486083984
0, 6, 32, 209.1454010009766
0, 6, 33, 183.4654541015625
0, 6, 34, 196.9577789306641
0, 6, 35, 186.7808532714844
0, 6, 36, 180.6473693847656
0, 6, 37, 183.2866363525391
0, 6, 38, 186.2323150634766
0, 6, 39, 194.3891754150391
0, 6, 40, 174.8338165283203
0, 6, 41, 185.9536285400391
0, 6, 42, 174.9476928710938
0, 6, 43, 209.2205047607422
0, 6, 44, 208.5346527099609
0, 6, 45, 194.627197265625
0, 6, 46, 187.2990417480469
0, 6, 47, 203.7066802978516
0, 6, 48, 189.2757568359375
0, 6, 49, 178.6637878417969
0, 6, 50, 181.3665161132812
0, 6, 51, 195.7526702880859
0, 6, 52, 197.760009765625
0, 6, 53, 185.2158355712891
0, 6, 54, 176.4469909667969
0, 6, 55, 195.6483917236328
0, 6, 56, 201.9084320068359
0, 6, 57, 190.9028778076172
0, 6, 58, 181.3577880859375
0, 6, 59, 192.2264251708984
0, 6, 60, 183.7376098632812
0, 6, 61, 193.7127532958984
0, 6, 62, 196.2331848144531
0, 6, 63, 187.7447509765625
0, 6, 64, 168.3233947753906
0, 6, 65, 187.3516387939453
0, 6, 66, 197.4893035888672
0, 6, 67, 212.8760986328125
0, 6, 68, 179.8739013671875
0, 6, 69, 171.5798492431641
0, 6, 70, 187.0961608886719
0, 6, 71, 170.3597564697266
0, 6, 72, 176.5987396240234
0, 6, 73, 176.5147247314453
0, 6, 74, 212.0732421875
0, 6, 75, 227.5291595458984
0, 6, 76, 183.9150390625
0, 6, 77, 172.9232177734375
0, 6, 78, 176.9284973144531
0, 6, 79, 186.5626220703125
0, 6, 80, 188.5057830810547
0, 6, 81, 210.7298889160156
0, 6, 82, 195.1584625244141
0, 6, 83, 195.4590148925781
0, 6, 84, 197.7701263427734
0, 6, 85, 180.6552124023438
0, 6, 86, 200.80419921875
0, 6, 87, 182.4947814941406
0, 6, 88, 191.8794860839844
0, 6, 89, 188.1891479492188
0, 6, 90, 205.5153198242188
0, 6, 91, 199.8497924804688
0, 6, 92, 172.9867401123047
0, 6, 93, 196.1214904785156
0, 6, 94, 190.7362060546875
0, 6, 95, 185.4458465576172
0, 6, 96, 189.26904296875
0, 6, 97, 195.0873565673828
0, 6, 98, 182.7414855957031
0, 6, 99, 175.4959106445312
0, 6, 100, 201.7285766601562
0, 6, 101, 168.0604553222656
0, 6, 102, 201.9989318847656
0, 6, 103, 195.9485473632812
0, 6, 104, 183.3292846679688
0, 6, 105, 193.9454040527344
0, 6, 106, 176.9937896728516
0, 6, 107, 195.6172637939453
0, 6, 108, 170.9228820800781
0, 6, 109, 115.8303146362305
0, 6, 110, 34.6361083984375
0, 6, 111, 9.086885452270508
0, 6, 112, 8.663496017456055
0, 6, 113, 5.258447170257568
0, 6, 114, 4.620662212371826
0, 6, 115, 5.06694507598877
0, 6, 116, 5.412109375
0, 6, 117, 3.117255449295044
0, 6, 118, 2.996896505355835
0, 6, 119, 4.784118175506592
0, 6, 120, 2.438173770904541
0, 6, 121, 3.925304651260376
0, 6, 122, 3.109045028686523
0, 6, 123, 3.248417139053345
0, 6, 124, 2.998857498168945
0, 6, 125, 2.794748544692993
0, 6, 126, 2.571572065353394
0, 6, 127, 2.243100166320801
0, 7, 0, 3.147021055221558
0, 7, 1, 2.025442361831665
0, 7, 2, 1.787723302841187
0, 7, 3, 2.104586601257324
0, 7, 4, 2.883588075637817
0, 7, 5, 1.691282749176025
0, 7, 6, 1.528730511665344
0, 7, 7, 1.414228558540344
0, 7, 8, 2.910893201828003
0, 7, 9, 3.058809518814087
0, 7, 10, 4.372866153717041
0, 7, 11, 3.359223604202271
0, 7, 12, 5.598555564880371
0, 7, 13, 7.369683742523193
0, 7, 14, 6.560161113739014
0, 7, 15, 7.148405075073242
0, 7, 16, 15.17715835571289
0, 7, 17, 52.464111328125
0, 7, 18, 161.3569793701172
0, 7, 19, 183.2791595458984
0, 7, 20, 178.5353240966797
0, 7, 21, 180.718994140625
0, 7, 22, 191.3947296142578
0, 7, 23, 202.7728424072266
0, 7, 24, 178.7065734863281
0, 7, 25, 211.7810821533203
0, 7, 26, 188.4445953369141
0, 7, 27, 181.7875671386719
0, 7, 28, 182.5596008300781
0, 7, 29, 210.2594909667969
0, 7, 30, 192.0972290039062
0, 7, 31, 176.4221038818359
0, 7, 32, 189.8896331787109
0, 7, 33, 180.6492919921875
0, 7, 34, 193.3734588623047
0, 7, 35, 197.3717041015625
0, 7, 36, 188.0986175537109
0, 7, 37, 212.7644500732422
0, 7, 38, 191.3611755371094
0, 7, 39, 174.1667175292969
0, 7, 40, 183.3208465576172
0, 7, 41, 184.9998931884766
0, 7, 42, 177.1907348632812
0, 7, 43, 177.9458160400391
0, 7, 44, 179.4251251220703
0, 7, 45, 174.7244873046875
0, 7, 46, 187.9989471435547
0, 7, 47, 197.2131805419922
0, 7, 48, 184.9260864257812
0, 7, 49, 198.1099853515625
0, 7, 50, 188.7302703857422
0, 7, 51, 205.0888824462891
0, 7, 52, 204.6854705810547
0, 7, 53, 192.3173675537109
0, 7, 54, 195.6807861328125
0, 7, 55, 204.3271789550781
0, 7, 56, 183.8493957519531
0, 7, 57, 182.851318359375
0, 7, 58, 191.9694976806641
0, 7, 59, 187.9625854492188
0, 7, 60, 201.5418701171875
0, 7, 61, 172.1085968017578
0, 7, 62, 203.1898040771484
0, 7, 63, 188.5465087890625
0, 7, 64, 199.3173065185547
0, 7, 65, 195.2611236572266
0, 7, 66, 205.5011749267578
0, 7, 67, 219.9949035644531
0, 7, 68, 161.8326568603516
0, 7, 69, 193.4837188720703
0, 7, 70, 219.0428466796875
0, 7, 71, 183.7262725830078
0, 7, 72, 181.4976501464844
0, 7, 73, 176.8547821044922
0, 7, 74, 207.4350738525391
0, 7, 75, 202.9895629882812
0, 7, 76, 216.0119171142578
0, 7, 77, 173.5955047607422
0, 7, 78, 176.9343872070312
0, 7, 79, 195.0199127197266
0, 7, 80, 196.9944000244141
0, 7, 81, 214.9169616699219
0, 7, 82, 184.3449249267578
0, 7, 83, 206.0040130615234
0, 7, 84, 191.2585144042969
0, 7, 85, 185.3240051269531
0, 7, 86, 199.9851684570312
0, 7, 87, 226.8147888183594
0, 7, 88, 195.3384857177734
0, 7, 89, 177.5105285644531
0, 7, 90, 182.5169372558594
0, 7, 91, 194.0174713134766
0, 7, 92, 195.1652374267578
0, 7, 93, 198.3373413085938
0, 7, 94, 177.2131958007812
0, 7, 95, 197.1817169189453
0, 7, 96, 209.0906829833984
0, 7, 97, 188.6433258056641
0, 7, 98, 176.7662811279297
0, 7, 99, 196.1605377197266
0, 7, 100, 181.9383697509766
0, 7, 101, 199.5669708251953
0, 7, 102, 184.9029388427734
0, 7, 103, 182.2719573974609
0, 7, 104, 175.5325775146484
0, 7, 105, 198.7564849853516
0, 7, 106, 204.8046417236328
0, 7, 107, 175.0107879638672
0, 7, 108, 177.8869171142578
0, 7, 109, 138.7649078369141
0, 7, 110, 54.89897918701172
0, 7, 111, 8.332881927490234
0, 7, 112, 8.747383117675781
0, 7, 113, 8.528139114379883
0, 7, 114, 7.362905025482178
0, 7, 115, 4.949110507965088
0, 7, 116, 4.956755638122559
0, 7, 117, 2.433712005615234
0, 7, 118, 3.432275772094727
0, 7, 119, 2.329248905181885
0, 7, 120, 2.446816682815552
0, 7, 121, 3.790903091430664
0, 7, 122, 2.563852548599243
0, 7, 123, 1.528154611587524
0, 7, 124, 2.173855781555176
0, 7, 125, 2.135646104812622
0, 7, 126, 4.036479949951172
0, 7, 127, 1.708876132965088
0, 8, 0, 4.672016143798828
0, 8, 1, 1.781193971633911
0, 8, 2, 2.918054819107056
0, 8, 3, 3.568346500396729
0, 8, 4, 1.762989401817322
0, 8, 5, 2.622697830200195
0, 8, 6, 2.415406227111816
0, 8, 7, 2.716027021408081
0, 8, 8, 2.72218656539917
0, 8, 9, 3.744966268539429
0, 8, 10, 3.750989198684692
0, 8, 11, 3.379808902740479
0, 8, 12, 3.517352342605591
0, 8, 13, 6.767641544342041
0, 8, 14, 6.677315235137939
0, 8, 15, 8.163064956665039
0, 8, 16, 19.14624977111816
0, 8, 17, 75.26370239257812
0, 8, 18, 144.7498016357422
0, 8, 19, 178.8722229003906
0, 8, 20, 192.6738586425781
0, 8, 21, 195.7344055175781
0, 8, 22, 179.3551940917969
0, 8, 23, 172.3873443603516
0, 8, 24, 192.5206146240234
0, 8, 25, 185.1975708007812
0, 8, 26, 192.8647613525391
0, 8, 27, 186.2792663574219
0, 8, 28, 185.3680267333984
0, 8, 29, 207.0214691162109
0, 8, 30, 197.9008483886719
0, 8, 31, 182.8337707519531
0, 8, 32, 197.8914642333984
0, 8, 33, 208.1483764648438
0, 8, 34, 202.2199249267578
0, 8, 35, 184.8608551025391
0, 8, 36, 181.5098266601562
