# TOPAS Version: 3.1.p3
# Parameter File: batch_inserts_356.txt
# Results for scorer Readout_Adipose
# Scored in component: MyBox
# X in 1 bin  of 0.65 cm
# Y in 512 bins of 0.0783984 cm
# Z in 128 bins of 0.078125 cm
# EnergyDeposit ( MeV ) : Sum   
0, 0, 0, 1.432441830635071
0, 0, 1, 3.105248212814331
0, 0, 2, 1.050358295440674
0, 0, 3, 0.606162428855896
0, 0, 4, 1.210148334503174
0, 0, 5, 2.136214017868042
0, 0, 6, 0.9632810950279236
0, 0, 7, 2.065780639648438
0, 0, 8, 1.550084590911865
0, 0, 9, 2.531343698501587
0, 0, 10, 2.760756969451904
0, 0, 11, 4.497722625732422
0, 0, 12, 4.586122035980225
0, 0, 13, 1.879454493522644
0, 0, 14, 5.550174713134766
0, 0, 15, 5.112724781036377
0, 0, 16, 4.77561092376709
0, 0, 17, 6.032091617584229
0, 0, 18, 6.99613094329834
0, 0, 19, 22.96368217468262
0, 0, 20, 94.02576446533203
0, 0, 21, 152.0820922851562
0, 0, 22, 153.8363952636719
0, 0, 23, 145.086181640625
0, 0, 24, 159.7993927001953
0, 0, 25, 166.7352447509766
0, 0, 26, 167.3340148925781
0, 0, 27, 173.5073089599609
0, 0, 28, 178.0587921142578
0, 0, 29, 174.8990783691406
0, 0, 30, 174.4533081054688
0, 0, 31, 166.7051544189453
0, 0, 32, 164.4159240722656
0, 0, 33, 166.2205505371094
0, 0, 34, 179.6414337158203
0, 0, 35, 174.5740661621094
0, 0, 36, 159.1076049804688
0, 0, 37, 161.7997436523438
0, 0, 38, 166.4174652099609
0, 0, 39, 159.7540588378906
0, 0, 40, 164.8525085449219
0, 0, 41, 165.6932525634766
0, 0, 42, 143.8075561523438
0, 0, 43, 167.9500427246094
0, 0, 44, 177.5185394287109
0, 0, 45, 171.9359283447266
0, 0, 46, 167.3346557617188
0, 0, 47, 167.5760040283203
0, 0, 48, 168.8563079833984
0, 0, 49, 183.6041870117188
0, 0, 50, 170.1522216796875
0, 0, 51, 161.7245788574219
0, 0, 52, 162.360595703125
0, 0, 53, 171.6145782470703
0, 0, 54, 159.5393676757812
0, 0, 55, 163.5541687011719
0, 0, 56, 189.5522003173828
0, 0, 57, 170.22216796875
0, 0, 58, 161.3438110351562
0, 0, 59, 173.0589599609375
0, 0, 60, 169.1928100585938
0, 0, 61, 169.4392852783203
0, 0, 62, 183.2481842041016
0, 0, 63, 168.0492095947266
0, 0, 64, 165.9700622558594
0, 0, 65, 176.7912292480469
0, 0, 66, 177.415771484375
0, 0, 67, 164.0630340576172
0, 0, 68, 158.4212951660156
0, 0, 69, 158.2834014892578
0, 0, 70, 170.58837890625
0, 0, 71, 158.5778503417969
0, 0, 72, 161.9720306396484
0, 0, 73, 171.8458709716797
0, 0, 74, 163.5908813476562
0, 0, 75, 163.4559631347656
0, 0, 76, 162.9669494628906
0, 0, 77, 171.8069458007812
0, 0, 78, 181.7863159179688
0, 0, 79, 175.6470794677734
0, 0, 80, 160.174560546875
0, 0, 81, 159.1344757080078
0, 0, 82, 181.05029296875
0, 0, 83, 172.4683990478516
0, 0, 84, 160.2538604736328
0, 0, 85, 181.8590850830078
0, 0, 86, 159.3230438232422
0, 0, 87, 177.4961853027344
0, 0, 88, 177.4433441162109
0, 0, 89, 175.8113250732422
0, 0, 90, 160.5138244628906
0, 0, 91, 184.7958221435547
0, 0, 92, 163.7185974121094
0, 0, 93, 156.5326843261719
0, 0, 94, 169.2466430664062
0, 0, 95, 174.8352813720703
0, 0, 96, 183.4228057861328
0, 0, 97, 182.97314453125
0, 0, 98, 185.0183410644531
0, 0, 99, 170.5784454345703
0, 0, 100, 159.6830902099609
0, 0, 101, 167.0438232421875
0, 0, 102, 171.1773529052734
0, 0, 103, 170.7015838623047
0, 0, 104, 170.5403900146484
0, 0, 105, 179.4315185546875
0, 0, 106, 159.1683654785156
0, 0, 107, 86.63719940185547
0, 0, 108, 22.35933876037598
0, 0, 109, 9.392672538757324
0, 0, 110, 6.143913269042969
0, 0, 111, 8.826728820800781
0, 0, 112, 3.122863054275513
0, 0, 113, 4.394918441772461
0, 0, 114, 2.338806629180908
0, 0, 115, 4.145785808563232
0, 0, 116, 1.832467913627625
0, 0, 117, 2.467340230941772
0, 0, 118, 2.294122695922852
0, 0, 119, 2.380483627319336
0, 0, 120, 1.413122653961182
0, 0, 121, 3.158105850219727
0, 0, 122, 4.671821594238281
0, 0, 123, 5.779763698577881
0, 0, 124, 1.967720508575439
0, 0, 125, 1.960844755172729
0, 0, 126, 3.171109199523926
0, 0, 127, 2.200125932693481
0, 1, 0, 2.67500638961792
0, 1, 1, 3.218202829360962
0, 1, 2, 3.210557460784912
0, 1, 3, 1.561498641967773
0, 1, 4, 0.7594535946846008
0, 1, 5, 1.889410257339478
0, 1, 6, 1.118093609809875
0, 1, 7, 3.579564809799194
0, 1, 8, 2.067306518554688
0, 1, 9, 1.657647490501404
0, 1, 10, 4.257115840911865
0, 1, 11, 3.579901456832886
0, 1, 12, 3.267209768295288
0, 1, 13, 4.200919151306152
0, 1, 14, 5.872345447540283
0, 1, 15, 6.374763965606689
0, 1, 16, 8.117783546447754
0, 1, 17, 5.215917587280273
0, 1, 18, 11.02990436553955
0, 1, 19, 39.43096923828125
0, 1, 20, 126.6459579467773
0, 1, 21, 176.8227844238281
0, 1, 22, 192.6878356933594
0, 1, 23, 186.7611389160156
0, 1, 24, 179.6349182128906
0, 1, 25, 193.3037872314453
0, 1, 26, 196.9713592529297
0, 1, 27, 185.9215087890625
0, 1, 28, 189.2016754150391
0, 1, 29, 183.2183227539062
0, 1, 30, 178.7770538330078
0, 1, 31, 180.5819091796875
0, 1, 32, 188.5361938476562
0, 1, 33, 190.1271209716797
0, 1, 34, 184.5715484619141
0, 1, 35, 193.6875152587891
0, 1, 36, 206.0219573974609
0, 1, 37, 185.7319793701172
0, 1, 38, 166.5123748779297
0, 1, 39, 172.8509521484375
0, 1, 40, 179.2945251464844
0, 1, 41, 184.6825408935547
0, 1, 42, 182.1707916259766
0, 1, 43, 184.9199981689453
0, 1, 44, 167.4337158203125
0, 1, 45, 186.3875427246094
0, 1, 46, 170.8621673583984
0, 1, 47, 185.3988342285156
0, 1, 48, 186.1760101318359
0, 1, 49, 185.9519500732422
0, 1, 50, 177.4457702636719
0, 1, 51, 192.3670959472656
0, 1, 52, 198.0907135009766
0, 1, 53, 196.8824310302734
0, 1, 54, 185.4218292236328
0, 1, 55, 165.1460876464844
0, 1, 56, 179.0751953125
0, 1, 57, 177.9883117675781
0, 1, 58, 188.5869140625
0, 1, 59, 193.1640625
0, 1, 60, 188.0417175292969
0, 1, 61, 178.2043609619141
0, 1, 62, 206.6690521240234
0, 1, 63, 174.4341278076172
0, 1, 64, 172.5780487060547
0, 1, 65, 184.8317565917969
0, 1, 66, 204.5755004882812
0, 1, 67, 183.020751953125
0, 1, 68, 187.2106018066406
0, 1, 69, 189.8468017578125
0, 1, 70, 185.1964721679688
0, 1, 71, 171.1498413085938
0, 1, 72, 187.0835113525391
0, 1, 73, 190.3624114990234
0, 1, 74, 201.8897094726562
0, 1, 75, 183.7219390869141
0, 1, 76, 174.8622131347656
0, 1, 77, 192.3303680419922
0, 1, 78, 187.399658203125
0, 1, 79, 203.844970703125
0, 1, 80, 185.4046325683594
0, 1, 81, 174.3642120361328
0, 1, 82, 206.7068176269531
0, 1, 83, 213.6458435058594
0, 1, 84, 179.8294067382812
0, 1, 85, 170.1861267089844
0, 1, 86, 167.4848480224609
0, 1, 87, 184.5735626220703
0, 1, 88, 175.2711334228516
0, 1, 89, 187.6128387451172
0, 1, 90, 213.3738555908203
0, 1, 91, 180.3974761962891
0, 1, 92, 183.7020263671875
0, 1, 93, 180.1468048095703
0, 1, 94, 184.1157684326172
0, 1, 95, 184.3730621337891
0, 1, 96, 196.638671875
0, 1, 97, 183.0030364990234
0, 1, 98, 187.8851928710938
0, 1, 99, 176.7952117919922
0, 1, 100, 172.2283172607422
0, 1, 101, 178.2348785400391
0, 1, 102, 181.8354034423828
0, 1, 103, 172.7597961425781
0, 1, 104, 187.9200134277344
0, 1, 105, 181.2157440185547
0, 1, 106, 164.0299682617188
0, 1, 107, 122.460205078125
0, 1, 108, 48.02049255371094
0, 1, 109, 9.784578323364258
0, 1, 110, 7.785549640655518
0, 1, 111, 5.876101493835449
0, 1, 112, 7.944193363189697
0, 1, 113, 6.661502361297607
0, 1, 114, 5.117489337921143
0, 1, 115, 4.890194892883301
0, 1, 116, 2.472135782241821
0, 1, 117, 2.332561731338501
0, 1, 118, 3.210650444030762
0, 1, 119, 1.454047560691833
0, 1, 120, 3.813328981399536
0, 1, 121, 4.280015468597412
0, 1, 122, 2.862782001495361
0, 1, 123, 2.486161231994629
0, 1, 124, 1.828194737434387
0, 1, 125, 2.449299812316895
0, 1, 126, 1.306991577148438
0, 1, 127, 1.171605944633484
0, 2, 0, 1.395192742347717
0, 2, 1, 2.175279378890991
0, 2, 2, 3.511651754379272
0, 2, 3, 1.82389771938324
0, 2, 4, 1.889353036880493
0, 2, 5, 0.9796506762504578
0, 2, 6, 2.721432685852051
0, 2, 7, 1.527194619178772
0, 2, 8, 2.359173774719238
0, 2, 9, 2.504850625991821
0, 2, 10, 4.223828792572021
0, 2, 11, 4.455835819244385
0, 2, 12, 3.435826301574707
0, 2, 13, 2.784151315689087
0, 2, 14, 3.540204286575317
0, 2, 15, 5.139734268188477
0, 2, 16, 4.856553554534912
0, 2, 17, 8.735037803649902
0, 2, 18, 14.07765197753906
0, 2, 19, 77.70243835449219
0, 2, 20, 162.1508941650391
0, 2, 21, 184.0048980712891
0, 2, 22, 194.1186676025391
0, 2, 23, 183.6984100341797
0, 2, 24, 173.4341430664062
0, 2, 25, 184.089599609375
0, 2, 26, 179.2438201904297
0, 2, 27, 189.255126953125
0, 2, 28, 171.99365234375
0, 2, 29, 169.9999084472656
0, 2, 30, 184.6080474853516
0, 2, 31, 181.9377136230469
0, 2, 32, 183.3806610107422
0, 2, 33, 191.9170379638672
0, 2, 34, 199.2133483886719
0, 2, 35, 184.3148040771484
0, 2, 36, 184.8787994384766
0, 2, 37, 180.8674468994141
0, 2, 38, 186.7937622070312
0, 2, 39, 167.4128112792969
0, 2, 40, 183.7624816894531
0, 2, 41, 185.3313903808594
0, 2, 42, 189.9987945556641
0, 2, 43, 193.2896423339844
0, 2, 44, 191.5575103759766
0, 2, 45, 190.4224090576172
0, 2, 46, 195.9163818359375
0, 2, 47, 189.8533477783203
0, 2, 48, 176.6079559326172
0, 2, 49, 196.7681427001953
0, 2, 50, 167.7024841308594
0, 2, 51, 183.7460479736328
0, 2, 52, 186.1607513427734
0, 2, 53, 195.9998779296875
0, 2, 54, 176.7147064208984
0, 2, 55, 174.1326446533203
0, 2, 56, 183.1366424560547
0, 2, 57, 199.8562316894531
0, 2, 58, 186.0873107910156
0, 2, 59, 189.0091552734375
0, 2, 60, 196.8252868652344
0, 2, 61, 194.3050384521484
0, 2, 62, 190.3002777099609
0, 2, 63, 170.9190979003906
0, 2, 64, 189.042724609375
0, 2, 65, 204.2899169921875
0, 2, 66, 196.6701202392578
0, 2, 67, 184.9070587158203
0, 2, 68, 181.9529418945312
0, 2, 69, 187.468994140625
0, 2, 70, 203.4225769042969
0, 2, 71, 175.4808807373047
0, 2, 72, 188.6730194091797
0, 2, 73, 177.1424713134766
0, 2, 74, 180.8752593994141
0, 2, 75, 196.3484191894531
0, 2, 76, 183.1591186523438
0, 2, 77, 177.1134643554688
0, 2, 78, 199.1567840576172
0, 2, 79, 177.5816345214844
0, 2, 80, 187.6917877197266
0, 2, 81, 189.0144500732422
0, 2, 82, 204.9420166015625
0, 2, 83, 203.0281982421875
0, 2, 84, 187.9264678955078
0, 2, 85, 171.3015899658203
0, 2, 86, 194.7317962646484
0, 2, 87, 171.4677886962891
0, 2, 88, 177.6594390869141
0, 2, 89, 185.1555938720703
0, 2, 90, 177.3731842041016
0, 2, 91, 173.5126953125
0, 2, 92, 196.1718139648438
0, 2, 93, 193.6252746582031
0, 2, 94, 199.4861907958984
0, 2, 95, 192.7124786376953
0, 2, 96, 186.7938232421875
0, 2, 97, 172.1670227050781
0, 2, 98, 174.0353088378906
0, 2, 99, 163.7318115234375
0, 2, 100, 187.7678680419922
0, 2, 101, 196.2699584960938
0, 2, 102, 177.6864166259766
0, 2, 103, 199.8598175048828
0, 2, 104, 187.2342376708984
0, 2, 105, 200.9377288818359
0, 2, 106, 194.1061248779297
0, 2, 107, 151.9233093261719
0, 2, 108, 78.48687744140625
0, 2, 109, 18.89781951904297
0, 2, 110, 7.631787776947021
0, 2, 111, 6.824841976165771
0, 2, 112, 3.854803800582886
0, 2, 113, 5.184554576873779
0, 2, 114, 7.216798782348633
0, 2, 115, 3.307017087936401
0, 2, 116, 1.982816457748413
0, 2, 117, 2.840406656265259
0, 2, 118, 2.694879531860352
0, 2, 119, 2.768990039825439
0, 2, 120, 2.532617092132568
0, 2, 121, 3.04524302482605
0, 2, 122, 1.748835682868958
0, 2, 123, 1.179210782051086
0, 2, 124, 2.684337615966797
0, 2, 125, 2.215416431427002
0, 2, 126, 2.887622833251953
0, 2, 127, 2.582463026046753
0, 3, 0, 1.573726058006287
0, 3, 1, 2.012415647506714
0, 3, 2, 1.658555626869202
0, 3, 3, 2.100050449371338
0, 3, 4, 5.495655059814453
0, 3, 5, 1.087848901748657
0, 3, 6, 0.8121047019958496
0, 3, 7, 1.504702806472778
0, 3, 8, 2.850303173065186
0, 3, 9, 1.345354199409485
0, 3, 10, 2.295096874237061
0, 3, 11, 3.811245679855347
0, 3, 12, 3.00535774230957
0, 3, 13, 3.451263904571533
0, 3, 14, 4.22158670425415
0, 3, 15, 6.926018714904785
0, 3, 16, 7.741889953613281
0, 3, 17, 6.782446384429932
0, 3, 18, 33.58204650878906
0, 3, 19, 114.9912185668945
0, 3, 20, 180.3249664306641
0, 3, 21, 171.9654235839844
0, 3, 22, 177.1691284179688
0, 3, 23, 187.0452270507812
0, 3, 24, 178.0979461669922
0, 3, 25, 168.6766357421875
0, 3, 26, 180.8104553222656
0, 3, 27, 189.3936462402344
0, 3, 28, 181.4030609130859
0, 3, 29, 197.3500518798828
0, 3, 30, 185.4154815673828
0, 3, 31, 193.3258361816406
0, 3, 32, 205.8076629638672
0, 3, 33, 196.7085266113281
0, 3, 34, 187.2059173583984
0, 3, 35, 173.3180389404297
0, 3, 36, 185.9592590332031
0, 3, 37, 201.0870971679688
0, 3, 38, 191.2142791748047
0, 3, 39, 186.5760498046875
0, 3, 40, 166.7005157470703
0, 3, 41, 174.5041656494141
0, 3, 42, 185.2627105712891
0, 3, 43, 183.4107666015625
0, 3, 44, 203.2314300537109
0, 3, 45, 207.1598968505859
0, 3, 46, 198.0173950195312
0, 3, 47, 194.8596649169922
0, 3, 48, 197.6233520507812
0, 3, 49, 179.8185729980469
0, 3, 50, 186.1855316162109
0, 3, 51, 173.8780975341797
0, 3, 52, 187.0800628662109
0, 3, 53, 177.0587921142578
0, 3, 54, 178.6162109375
0, 3, 55, 176.7793884277344
0, 3, 56, 183.2473907470703
0, 3, 57, 175.1926422119141
0, 3, 58, 201.4164581298828
0, 3, 59, 196.3468780517578
0, 3, 60, 186.2671051025391
0, 3, 61, 180.7300872802734
0, 3, 62, 182.2350769042969
0, 3, 63, 184.3429107666016
0, 3, 64, 188.2639770507812
0, 3, 65, 189.9434661865234
0, 3, 66, 176.1907653808594
0, 3, 67, 189.8452301025391
0, 3, 68, 211.3209381103516
0, 3, 69, 191.6545257568359
0, 3, 70, 185.6826019287109
0, 3, 71, 197.0949249267578
0, 3, 72, 185.7650451660156
0, 3, 73, 187.0594482421875
0, 3, 74, 194.4334259033203
0, 3, 75, 193.7873687744141
0, 3, 76, 190.9583587646484
0, 3, 77, 198.1664581298828
0, 3, 78, 188.6031188964844
0, 3, 79, 185.6930236816406
0, 3, 80, 189.1240081787109
0, 3, 81, 183.1049499511719
0, 3, 82, 180.1649475097656
0, 3, 83, 194.3494567871094
0, 3, 84, 200.2952880859375
0, 3, 85, 191.8483428955078
0, 3, 86, 204.2184448242188
0, 3, 87, 198.2772979736328
0, 3, 88, 190.9038696289062
0, 3, 89, 193.3623199462891
0, 3, 90, 174.7071685791016
0, 3, 91, 155.3959655761719
0, 3, 92, 207.1556396484375
0, 3, 93, 195.0093383789062
0, 3, 94, 192.840576171875
0, 3, 95, 211.7220153808594
0, 3, 96, 208.3281097412109
0, 3, 97, 168.5720520019531
0, 3, 98, 167.0273742675781
0, 3, 99, 180.4243621826172
0, 3, 100, 177.0177612304688
0, 3, 101, 197.0447235107422
0, 3, 102, 194.8202819824219
0, 3, 103, 193.9293518066406
0, 3, 104, 202.2543334960938
0, 3, 105, 175.8159790039062
0, 3, 106, 181.7422180175781
0, 3, 107, 170.7208862304688
0, 3, 108, 107.8013229370117
0, 3, 109, 28.4195671081543
0, 3, 110, 7.939734935760498
0, 3, 111, 6.910378932952881
0, 3, 112, 3.510140419006348
0, 3, 113, 7.14571475982666
0, 3, 114, 6.250215530395508
0, 3, 115, 5.921607494354248
0, 3, 116, 5.841419219970703
0, 3, 117, 4.96826171875
0, 3, 118, 2.838717460632324
0, 3, 119, 2.492053031921387
0, 3, 120, 3.657900810241699
0, 3, 121, 2.563618898391724
0, 3, 122, 2.019084215164185
0, 3, 123, 1.55136251449585
0, 3, 124, 2.737070798873901
0, 3, 125, 1.576315760612488
0, 3, 126, 1.250364065170288
0, 3, 127, 0.7659837007522583
0, 4, 0, 0.9682177901268005
0, 4, 1, 1.822584629058838
0, 4, 2, 2.157592058181763
0, 4, 3, 3.320010662078857
0, 4, 4, 2.855808734893799
0, 4, 5, 1.045289397239685
0, 4, 6, 2.906610250473022
0, 4, 7, 2.591935157775879
0, 4, 8, 2.946855068206787
0, 4, 9, 1.741262793540955
0, 4, 10, 3.497639656066895
0, 4, 11, 5.073166370391846
0, 4, 12, 3.334863424301147
0, 4, 13, 4.491930961608887
0, 4, 14, 5.500782489776611
0, 4, 15, 10.6973705291748
0, 4, 16, 5.871891975402832
0, 4, 17, 12.05519866943359
0, 4, 18, 54.69490432739258
0, 4, 19, 151.5905151367188
0, 4, 20, 193.1534576416016
0, 4, 21, 169.8658905029297
0, 4, 22, 187.3168792724609
0, 4, 23, 195.3918304443359
0, 4, 24, 192.4792785644531
0, 4, 25, 199.0921630859375
0, 4, 26, 182.6381683349609
0, 4, 27, 191.8214416503906
0, 4, 28, 177.7309417724609
0, 4, 29, 204.8952178955078
0, 4, 30, 194.5516662597656
0, 4, 31, 193.1859893798828
0, 4, 32, 210.0732421875
0, 4, 33, 189.6723327636719
0, 4, 34, 191.8909912109375
0, 4, 35, 213.4378967285156
0, 4, 36, 192.6150512695312
0, 4, 37, 177.3162841796875
0, 4, 38, 194.4188690185547
0, 4, 39, 188.3775024414062
0, 4, 40, 185.3513488769531
0, 4, 41, 189.9230804443359
0, 4, 42, 206.4243469238281
0, 4, 43, 173.6349792480469
0, 4, 44, 183.4732055664062
0, 4, 45, 195.7280578613281
0, 4, 46, 185.9761962890625
0, 4, 47, 179.082275390625
0, 4, 48, 186.2915649414062
0, 4, 49, 174.5429077148438
0, 4, 50, 187.7032165527344
0, 4, 51, 198.4696350097656
0, 4, 52, 222.7025604248047
0, 4, 53, 206.0976715087891
0, 4, 54, 189.5435333251953
0, 4, 55, 174.7068023681641
0, 4, 56, 191.553955078125
0, 4, 57, 191.8032836914062
0, 4, 58, 187.5413818359375
0, 4, 59, 189.9451141357422
0, 4, 60, 195.3601531982422
0, 4, 61, 193.8115844726562
0, 4, 62, 192.1822662353516
0, 4, 63, 179.3815155029297
0, 4, 64, 212.1012878417969
0, 4, 65, 191.1185913085938
0, 4, 66, 200.8815155029297
0, 4, 67, 200.4140014648438
0, 4, 68, 202.1302032470703
0, 4, 69, 200.5501861572266
0, 4, 70, 204.0075073242188
0, 4, 71, 206.5896148681641
0, 4, 72, 214.9605712890625
0, 4, 73, 187.2179107666016
0, 4, 74, 181.9767303466797
0, 4, 75, 184.2684936523438
0, 4, 76, 189.3787689208984
0, 4, 77, 182.377197265625
0, 4, 78, 195.5588684082031
0, 4, 79, 203.6417388916016
0, 4, 80, 211.1858367919922
0, 4, 81, 198.0456848144531
0, 4, 82, 181.9472351074219
0, 4, 83, 169.4979705810547
0, 4, 84, 192.5552978515625
0, 4, 85, 196.193603515625
0, 4, 86, 182.8499603271484
0, 4, 87, 184.5653381347656
0, 4, 88, 204.4647827148438
0, 4, 89, 187.0564880371094
0, 4, 90, 211.8392486572266
0, 4, 91, 188.9894409179688
0, 4, 92, 195.904541015625
0, 4, 93, 196.3108367919922
0, 4, 94, 182.1614990234375
0, 4, 95, 174.33251953125
0, 4, 96, 189.7733764648438
0, 4, 97, 192.7812957763672
0, 4, 98, 201.2085418701172
0, 4, 99, 182.7909851074219
0, 4, 100, 181.9153594970703
0, 4, 101, 177.7260589599609
0, 4, 102, 173.9632110595703
0, 4, 103, 184.9443969726562
0, 4, 104, 209.1990966796875
0, 4, 105, 189.9177398681641
0, 4, 106, 179.1576080322266
0, 4, 107, 181.1074676513672
0, 4, 108, 151.2193603515625
0, 4, 109, 48.4856071472168
0, 4, 110, 10.83556652069092
0, 4, 111, 7.963147163391113
0, 4, 112, 7.710137844085693
0, 4, 113, 7.095782279968262
0, 4, 114, 6.086132049560547
0, 4, 115, 2.504607439041138
0, 4, 116, 4.83229398727417
0, 4, 117, 2.287111520767212
0, 4, 118, 3.622466325759888
0, 4, 119, 3.251912355422974
0, 4, 120, 2.980648994445801
0, 4, 121, 1.852174282073975
0, 4, 122, 4.99501371383667
0, 4, 123, 2.1183762550354
0, 4, 124, 3.348146915435791
0, 4, 125, 3.064704418182373
0, 4, 126, 0.9267333745956421
0, 4, 127, 2.355162620544434
0, 5, 0, 1.938310384750366
0, 5, 1, 3.021643161773682
0, 5, 2, 5.529291152954102
0, 5, 3, 4.000332832336426
0, 5, 4, 1.604550838470459
0, 5, 5, 2.647744655609131
0, 5, 6, 4.083863258361816
0, 5, 7, 2.865383386611938
0, 5, 8, 1.830037355422974
0, 5, 9, 3.12813663482666
0, 5, 10, 4.283628940582275
0, 5, 11, 3.648597002029419
0, 5, 12, 4.382906913757324
0, 5, 13, 4.173313140869141
0, 5, 14, 6.4776930809021
0, 5, 15, 7.999579906463623
0, 5, 16, 7.009759902954102
0, 5, 17, 21.93309593200684
0, 5, 18, 82.75959777832031
0, 5, 19, 167.3235778808594
0, 5, 20, 184.9696197509766
0, 5, 21, 177.2160797119141
0, 5, 22, 172.7969970703125
0, 5, 23, 201.2627716064453
0, 5, 24, 186.9262847900391
0, 5, 25, 209.5543060302734
0, 5, 26, 181.6111297607422
0, 5, 27, 194.8313751220703
0, 5, 28, 190.0741882324219
0, 5, 29, 196.4694976806641
0, 5, 30, 178.4182586669922
0, 5, 31, 180.9064636230469
0, 5, 32, 187.8487243652344
0, 5, 33, 168.8761596679688
0, 5, 34, 194.5613555908203
0, 5, 35, 197.6656799316406
0, 5, 36, 167.3548889160156
0, 5, 37, 197.23388671875
0, 5, 38, 180.4426422119141
0, 5, 39, 185.72705078125
0, 5, 40, 196.3518524169922
0, 5, 41, 177.5551605224609
0, 5, 42, 187.1916809082031
0, 5, 43, 193.5528869628906
0, 5, 44, 199.5386657714844
0, 5, 45, 186.1329498291016
0, 5, 46, 192.4533081054688
0, 5, 47, 185.1361541748047
0, 5, 48, 177.4041137695312
0, 5, 49, 180.8914794921875
0, 5, 50, 186.2533569335938
0, 5, 51, 171.2569122314453
0, 5, 52, 167.6831817626953
0, 5, 53, 181.7230377197266
0, 5, 54, 172.6430053710938
0, 5, 55, 216.6396942138672
0, 5, 56, 181.4639587402344
0, 5, 57, 207.5877990722656
0, 5, 58, 181.5968780517578
0, 5, 59, 180.9801177978516
0, 5, 60, 218.2999572753906
0, 5, 61, 185.8145141601562
0, 5, 62, 178.2854461669922
0, 5, 63, 180.0699310302734
0, 5, 64, 195.5872650146484
0, 5, 65, 210.4666290283203
0, 5, 66, 192.0997009277344
0, 5, 67, 199.9643859863281
0, 5, 68, 185.2988891601562
0, 5, 69, 184.7239379882812
0, 5, 70, 185.0784912109375
0, 5, 71, 192.5245819091797
0, 5, 72, 197.7952423095703
0, 5, 73, 201.9635314941406
0, 5, 74, 179.7248077392578
0, 5, 75, 202.6746978759766
0, 5, 76, 213.4249420166016
0, 5, 77, 179.9017791748047
0, 5, 78, 194.2456970214844
0, 5, 79, 190.1647491455078
0, 5, 80, 197.2202301025391
0, 5, 81, 202.7178955078125
0, 5, 82, 203.7957916259766
0, 5, 83, 188.244140625
0, 5, 84, 205.7967224121094
0, 5, 85, 176.7279510498047
0, 5, 86, 195.0167236328125
0, 5, 87, 188.2581939697266
0, 5, 88, 176.5798645019531
0, 5, 89, 194.4897308349609
0, 5, 90, 199.0158996582031
0, 5, 91, 196.5928192138672
0, 5, 92, 190.5508728027344
0, 5, 93, 191.2710113525391
0, 5, 94, 207.0281677246094
0, 5, 95, 177.3766479492188
0, 5, 96, 181.6364898681641
0, 5, 97, 191.0812072753906
0, 5, 98, 189.0631256103516
0, 5, 99, 195.6114654541016
0, 5, 100, 186.6668243408203
0, 5, 101, 195.8330841064453
0, 5, 102, 182.3607330322266
0, 5, 103, 176.5154876708984
0, 5, 104, 191.6981201171875
0, 5, 105, 189.5741119384766
0, 5, 106, 178.44873046875
0, 5, 107, 182.0591888427734
0, 5, 108, 177.7768402099609
0, 5, 109, 89.75820922851562
0, 5, 110, 30.50091743469238
0, 5, 111, 9.198847770690918
0, 5, 112, 8.022678375244141
0, 5, 113, 7.281394958496094
0, 5, 114, 5.178073406219482
0, 5, 115, 5.052494525909424
0, 5, 116, 4.67411470413208
0, 5, 117, 3.959979772567749
0, 5, 118, 5.156493186950684
0, 5, 119, 2.934060335159302
0, 5, 120, 1.655536770820618
0, 5, 121, 2.582973003387451
0, 5, 122, 3.431741714477539
0, 5, 123, 5.7555832862854
0, 5, 124, 2.825311422348022
0, 5, 125, 1.214640140533447
0, 5, 126, 1.336516618728638
0, 5, 127, 1.672571778297424
0, 6, 0, 4.290568351745605
0, 6, 1, 2.674687385559082
0, 6, 2, 4.803599834442139
0, 6, 3, 1.337236523628235
0, 6, 4, 3.02332067489624
0, 6, 5, 2.180242300033569
0, 6, 6, 1.958444714546204
0, 6, 7, 3.817626714706421
0, 6, 8, 4.514379978179932
0, 6, 9, 3.638566017150879
0, 6, 10, 4.491750240325928
0, 6, 11, 3.421900510787964
0, 6, 12, 4.562937259674072
0, 6, 13, 5.003401279449463
0, 6, 14, 5.236798763275146
0, 6, 15, 6.718310356140137
0, 6, 16, 14.18429374694824
0, 6, 17, 29.3265266418457
0, 6, 18, 112.5826263427734
0, 6, 19, 192.1145782470703
0, 6, 20, 194.4269104003906
0, 6, 21, 199.9890899658203
0, 6, 22, 190.2951049804688
0, 6, 23, 190.1920928955078
0, 6, 24, 200.8884887695312
0, 6, 25, 182.7688140869141
0, 6, 26, 187.7575988769531
0, 6, 27, 191.8838348388672
0, 6, 28, 188.5679168701172
0, 6, 29, 210.1912078857422
0, 6, 30, 189.4626770019531
0, 6, 31, 193.5468444824219
0, 6, 32, 205.7653656005859
0, 6, 33, 184.8179473876953
0, 6, 34, 197.3137054443359
0, 6, 35, 188.6769409179688
0, 6, 36, 180.7295227050781
0, 6, 37, 182.7018432617188
0, 6, 38, 185.2615051269531
0, 6, 39, 194.7559814453125
0, 6, 40, 174.0557861328125
0, 6, 41, 184.8510284423828
0, 6, 42, 173.7824096679688
0, 6, 43, 209.0703735351562
0, 6, 44, 208.7935028076172
0, 6, 45, 192.8897552490234
0, 6, 46, 187.8517913818359
0, 6, 47, 205.0229949951172
0, 6, 48, 188.3975982666016
0, 6, 49, 179.6485595703125
0, 6, 50, 182.1252593994141
0, 6, 51, 195.9680633544922
0, 6, 52, 198.3250732421875
0, 6, 53, 185.2978515625
0, 6, 54, 176.8939514160156
0, 6, 55, 194.6756439208984
0, 6, 56, 203.0714416503906
0, 6, 57, 191.5626525878906
0, 6, 58, 179.3936462402344
0, 6, 59, 192.3208160400391
0, 6, 60, 183.8422088623047
0, 6, 61, 195.3223419189453
0, 6, 62, 197.1459503173828
0, 6, 63, 187.9985198974609
0, 6, 64, 168.7606048583984
0, 6, 65, 185.8601837158203
0, 6, 66, 196.8462829589844
0, 6, 67, 213.7727661132812
0, 6, 68, 179.6557006835938
0, 6, 69, 171.7829437255859
0, 6, 70, 188.4957427978516
0, 6, 71, 171.1287384033203
0, 6, 72, 176.6689453125
0, 6, 73, 176.2624053955078
0, 6, 74, 209.5357818603516
0, 6, 75, 227.9380950927734
0, 6, 76, 184.5042419433594
0, 6, 77, 173.5492858886719
0, 6, 78, 175.3704833984375
0, 6, 79, 185.3115844726562
0, 6, 80, 187.7840576171875
0, 6, 81, 210.4787292480469
0, 6, 82, 196.0732421875
0, 6, 83, 196.0214691162109
0, 6, 84, 197.2841949462891
0, 6, 85, 181.6952667236328
0, 6, 86, 201.3297729492188
0, 6, 87, 184.2692108154297
0, 6, 88, 192.91943359375
0, 6, 89, 189.2669372558594
0, 6, 90, 204.8581848144531
0, 6, 91, 201.0335845947266
0, 6, 92, 172.6695709228516
0, 6, 93, 190.6273803710938
0, 6, 94, 189.2545928955078
0, 6, 95, 184.7319946289062
0, 6, 96, 190.5105438232422
0, 6, 97, 194.4920806884766
0, 6, 98, 182.9703521728516
0, 6, 99, 174.8610687255859
0, 6, 100, 201.7018127441406
0, 6, 101, 167.9149017333984
0, 6, 102, 201.6947174072266
0, 6, 103, 195.5489196777344
0, 6, 104, 185.3518371582031
0, 6, 105, 194.3000946044922
0, 6, 106, 177.8327789306641
0, 6, 107, 194.1530151367188
0, 6, 108, 170.74365234375
0, 6, 109, 115.2311630249023
0, 6, 110, 36.53160095214844
0, 6, 111, 10.67425918579102
0, 6, 112, 9.57376766204834
0, 6, 113, 5.090452194213867
0, 6, 114, 4.959456443786621
0, 6, 115, 6.063689708709717
0, 6, 116, 3.566453456878662
0, 6, 117, 2.826617002487183
0, 6, 118, 4.051965713500977
0, 6, 119, 3.867615938186646
0, 6, 120, 1.493008136749268
0, 6, 121, 4.510152339935303
0, 6, 122, 3.475065946578979
0, 6, 123, 3.195684432983398
0, 6, 124, 2.433623552322388
0, 6, 125, 2.619323492050171
0, 6, 126, 1.532339215278625
0, 6, 127, 2.035083770751953
0, 7, 0, 3.430266380310059
0, 7, 1, 1.505357027053833
0, 7, 2, 3.019056797027588
0, 7, 3, 2.078240633010864
0, 7, 4, 1.600136160850525
0, 7, 5, 1.875267267227173
0, 7, 6, 1.861402034759521
0, 7, 7, 1.470282316207886
0, 7, 8, 4.161120414733887
0, 7, 9, 3.487035512924194
0, 7, 10, 4.267810821533203
0, 7, 11, 4.580058097839355
0, 7, 12, 2.644882202148438
0, 7, 13, 5.667009353637695
0, 7, 14, 7.194088935852051
0, 7, 15, 8.224184989929199
0, 7, 16, 15.24444484710693
0, 7, 17, 50.41341018676758
0, 7, 18, 161.5744781494141
0, 7, 19, 184.1884613037109
0, 7, 20, 178.50341796875
0, 7, 21, 181.097900390625
0, 7, 22, 190.9548187255859
0, 7, 23, 203.668212890625
0, 7, 24, 179.1213073730469
0, 7, 25, 211.7931213378906
0, 7, 26, 190.06640625
0, 7, 27, 182.2792358398438
0, 7, 28, 182.8221588134766
0, 7, 29, 209.2857208251953
0, 7, 30, 193.9098052978516
0, 7, 31, 176.6840667724609
0, 7, 32, 189.9124755859375
0, 7, 33, 179.4216613769531
0, 7, 34, 196.4170684814453
0, 7, 35, 196.2460632324219
0, 7, 36, 186.8120574951172
0, 7, 37, 212.6258544921875
0, 7, 38, 190.4303283691406
0, 7, 39, 173.1618194580078
0, 7, 40, 183.5496673583984
0, 7, 41, 184.4894866943359
0, 7, 42, 178.4808197021484
0, 7, 43, 177.1825408935547
0, 7, 44, 178.5430603027344
0, 7, 45, 174.2448577880859
0, 7, 46, 190.6875762939453
0, 7, 47, 198.1735992431641
0, 7, 48, 184.9653930664062
0, 7, 49, 197.7960052490234
0, 7, 50, 188.0183410644531
0, 7, 51, 205.4460296630859
0, 7, 52, 205.5934906005859
0, 7, 53, 190.9138336181641
0, 7, 54, 194.8605651855469
0, 7, 55, 203.0123138427734
0, 7, 56, 184.8879241943359
0, 7, 57, 183.6373901367188
0, 7, 58, 191.0829162597656
0, 7, 59, 187.1679840087891
0, 7, 60, 203.9678955078125
0, 7, 61, 170.4824066162109
0, 7, 62, 202.8876342773438
0, 7, 63, 190.8512420654297
0, 7, 64, 199.3007202148438
0, 7, 65, 194.6869812011719
0, 7, 66, 205.1126861572266
0, 7, 67, 220.8279724121094
0, 7, 68, 164.4612579345703
0, 7, 69, 194.7166137695312
0, 7, 70, 216.8663787841797
0, 7, 71, 183.9651489257812
0, 7, 72, 179.6250152587891
0, 7, 73, 177.9855651855469
0, 7, 74, 209.3116760253906
0, 7, 75, 204.3840637207031
0, 7, 76, 214.0599060058594
0, 7, 77, 174.6905975341797
0, 7, 78, 177.7850494384766
0, 7, 79, 194.6417388916016
0, 7, 80, 195.8262176513672
0, 7, 81, 215.5059051513672
0, 7, 82, 185.1580047607422
0, 7, 83, 206.1127014160156
0, 7, 84, 192.2901153564453
0, 7, 85, 186.9064483642578
0, 7, 86, 200.8226928710938
0, 7, 87, 226.1817626953125
0, 7, 88, 195.2221527099609
0, 7, 89, 176.1469421386719
0, 7, 90, 182.7460174560547
0, 7, 91, 194.5765380859375
0, 7, 92, 194.2018432617188
0, 7, 93, 199.8988037109375
0, 7, 94, 177.8494873046875
0, 7, 95, 197.5361175537109
0, 7, 96, 208.298095703125
0, 7, 97, 189.5288238525391
0, 7, 98, 177.8349456787109
0, 7, 99, 196.4512939453125
0, 7, 100, 181.4353485107422
0, 7, 101, 198.8149566650391
0, 7, 102, 185.2072906494141
0, 7, 103, 181.9671936035156
0, 7, 104, 174.7976226806641
0, 7, 105, 195.4384155273438
0, 7, 106, 205.5253295898438
0, 7, 107, 173.7638092041016
0, 7, 108, 176.6390533447266
0, 7, 109, 137.6550598144531
0, 7, 110, 56.2530632019043
0, 7, 111, 9.295058250427246
0, 7, 112, 7.639016628265381
0, 7, 113, 8.680296897888184
0, 7, 114, 7.405649662017822
0, 7, 115, 5.147253513336182
0, 7, 116, 5.416011333465576
0, 7, 117, 3.899158239364624
0, 7, 118, 4.63068962097168
0, 7, 119, 3.400592088699341
0, 7, 120, 5.450701236724854
0, 7, 121, 3.387304544448853
0, 7, 122, 2.101614475250244
0, 7, 123, 1.17793345451355
0, 7, 124, 0.8081606030464172
0, 7, 125, 1.953177928924561
0, 7, 126, 3.299708843231201
0, 7, 127, 1.119354963302612
0, 8, 0, 3.923065423965454
0, 8, 1, 3.152037620544434
0, 8, 2, 3.183718204498291
0, 8, 3, 1.615666389465332
0, 8, 4, 1.611900210380554
0, 8, 5, 3.803219556808472
0, 8, 6, 4.86346960067749
0, 8, 7, 2.542875051498413
0, 8, 8, 2.687048196792603
0, 8, 9, 7.482508659362793
0, 8, 10, 1.885425925254822
0, 8, 11, 2.599397659301758
0, 8, 12, 3.195988178253174
0, 8, 13, 5.945108413696289
0, 8, 14, 6.990488052368164
0, 8, 15, 9.060074806213379
0, 8, 16, 20.48415565490723
0, 8, 17, 75.97061157226562
0, 8, 18, 142.1615142822266
0, 8, 19, 180.8055267333984
0, 8, 20, 192.3381042480469
0, 8, 21, 194.1459197998047
0, 8, 22, 182.1661682128906
0, 8, 23, 173.4000091552734
0, 8, 24, 192.8538665771484
0, 8, 25, 185.4386901855469
0, 8, 26, 192.8684539794922
0, 8, 27, 185.9673004150391
0, 8, 28, 187.1869659423828
0, 8, 29, 208.2317199707031
0, 8, 30, 195.9963989257812
0, 8, 31, 183.4057159423828
0, 8, 32, 198.305419921875
0, 8, 33, 206.9990081787109
0, 8, 34, 202.9663238525391
0, 8, 35, 185.2871551513672
0, 8, 36, 180.9848937988281
