# TOPAS Version: 3.1.p3
# Parameter File: batch_inserts_322.txt
# Results for scorer Readout_Adipose
# Scored in component: MyBox
# X in 1 bin  of 0.65 cm
# Y in 512 bins of 0.0783984 cm
# Z in 128 bins of 0.078125 cm
# EnergyDeposit ( MeV ) : Sum   
0, 0, 0, 1.924692749977112
0, 0, 1, 3.902545928955078
0, 0, 2, 1.174666047096252
0, 0, 3, 1.088216423988342
0, 0, 4, 2.868932485580444
0, 0, 5, 0.7499262094497681
0, 0, 6, 0.8504191040992737
0, 0, 7, 2.316957950592041
0, 0, 8, 1.545833468437195
0, 0, 9, 2.256452798843384
0, 0, 10, 2.038564205169678
0, 0, 11, 3.988014221191406
0, 0, 12, 5.631889343261719
0, 0, 13, 2.493561029434204
0, 0, 14, 5.435424327850342
0, 0, 15, 5.693715572357178
0, 0, 16, 4.543716430664062
0, 0, 17, 6.735244274139404
0, 0, 18, 5.914152145385742
0, 0, 19, 22.87822532653809
0, 0, 20, 95.02144622802734
0, 0, 21, 154.2929229736328
0, 0, 22, 155.3702545166016
0, 0, 23, 144.3839111328125
0, 0, 24, 160.5249786376953
0, 0, 25, 165.976806640625
0, 0, 26, 167.4185333251953
0, 0, 27, 173.3932952880859
0, 0, 28, 178.2950439453125
0, 0, 29, 174.1130828857422
0, 0, 30, 172.7514801025391
0, 0, 31, 167.6921081542969
0, 0, 32, 164.8045959472656
0, 0, 33, 166.1423950195312
0, 0, 34, 176.6526947021484
0, 0, 35, 173.0774383544922
0, 0, 36, 160.4710693359375
0, 0, 37, 161.58740234375
0, 0, 38, 168.4922027587891
0, 0, 39, 159.2841186523438
0, 0, 40, 165.7106475830078
0, 0, 41, 167.1639099121094
0, 0, 42, 143.8669281005859
0, 0, 43, 167.4898681640625
0, 0, 44, 177.8072967529297
0, 0, 45, 172.1463165283203
0, 0, 46, 166.1869354248047
0, 0, 47, 169.3734130859375
0, 0, 48, 170.6838836669922
0, 0, 49, 183.7055511474609
0, 0, 50, 170.3483428955078
0, 0, 51, 162.6595306396484
0, 0, 52, 163.3620758056641
0, 0, 53, 170.9456787109375
0, 0, 54, 159.5735015869141
0, 0, 55, 164.0149841308594
0, 0, 56, 188.7463989257812
0, 0, 57, 170.9331970214844
0, 0, 58, 162.9539184570312
0, 0, 59, 172.4830017089844
0, 0, 60, 169.2755126953125
0, 0, 61, 168.884765625
0, 0, 62, 184.5999755859375
0, 0, 63, 166.4111785888672
0, 0, 64, 164.0671081542969
0, 0, 65, 176.9435424804688
0, 0, 66, 178.9703826904297
0, 0, 67, 163.7594757080078
0, 0, 68, 158.3331604003906
0, 0, 69, 158.3743438720703
0, 0, 70, 169.9371185302734
0, 0, 71, 158.1586456298828
0, 0, 72, 163.7001342773438
0, 0, 73, 172.480712890625
0, 0, 74, 161.9796295166016
0, 0, 75, 162.8408660888672
0, 0, 76, 163.088623046875
0, 0, 77, 172.7701110839844
0, 0, 78, 181.38671875
0, 0, 79, 174.8170623779297
0, 0, 80, 160.0813751220703
0, 0, 81, 161.9824066162109
0, 0, 82, 181.1178131103516
0, 0, 83, 173.2090454101562
0, 0, 84, 159.2591247558594
0, 0, 85, 181.9857940673828
0, 0, 86, 160.1896820068359
0, 0, 87, 177.4170989990234
0, 0, 88, 176.8811340332031
0, 0, 89, 175.0858917236328
0, 0, 90, 160.8926391601562
0, 0, 91, 184.5254669189453
0, 0, 92, 164.7682189941406
0, 0, 93, 159.2962188720703
0, 0, 94, 168.6598815917969
0, 0, 95, 173.9279937744141
0, 0, 96, 184.0301666259766
0, 0, 97, 183.6907653808594
0, 0, 98, 186.3536834716797
0, 0, 99, 171.1069946289062
0, 0, 100, 158.5875854492188
0, 0, 101, 166.7479705810547
0, 0, 102, 169.9767303466797
0, 0, 103, 170.4356231689453
0, 0, 104, 169.9441680908203
0, 0, 105, 177.9541931152344
0, 0, 106, 158.675048828125
0, 0, 107, 85.97003173828125
0, 0, 108, 23.2740535736084
0, 0, 109, 9.598835945129395
0, 0, 110, 7.577685832977295
0, 0, 111, 8.277664184570312
0, 0, 112, 2.790951490402222
0, 0, 113, 2.702956199645996
0, 0, 114, 2.343714237213135
0, 0, 115, 2.387003898620605
0, 0, 116, 2.476348638534546
0, 0, 117, 2.305274486541748
0, 0, 118, 2.909859657287598
0, 0, 119, 1.593392968177795
0, 0, 120, 1.921834468841553
0, 0, 121, 3.95162034034729
0, 0, 122, 5.408105850219727
0, 0, 123, 5.901388645172119
0, 0, 124, 2.603924036026001
0, 0, 125, 3.444411039352417
0, 0, 126, 1.170616745948792
0, 0, 127, 2.280303239822388
0, 1, 0, 1.43394660949707
0, 1, 1, 5.07562780380249
0, 1, 2, 2.289024591445923
0, 1, 3, 1.977648973464966
0, 1, 4, 1.242845416069031
0, 1, 5, 1.669394969940186
0, 1, 6, 2.229215860366821
0, 1, 7, 1.540490984916687
0, 1, 8, 1.953283786773682
0, 1, 9, 1.298112988471985
0, 1, 10, 3.185278177261353
0, 1, 11, 3.671547651290894
0, 1, 12, 2.783774375915527
0, 1, 13, 3.386189460754395
0, 1, 14, 6.0757155418396
0, 1, 15, 6.210451602935791
0, 1, 16, 7.598941326141357
0, 1, 17, 5.481502056121826
0, 1, 18, 10.47973251342773
0, 1, 19, 38.69888687133789
0, 1, 20, 128.2790222167969
0, 1, 21, 177.1491088867188
0, 1, 22, 192.9089508056641
0, 1, 23, 184.470703125
0, 1, 24, 180.4569549560547
0, 1, 25, 191.781982421875
0, 1, 26, 198.1353302001953
0, 1, 27, 185.3847808837891
0, 1, 28, 188.2186737060547
0, 1, 29, 183.5005340576172
0, 1, 30, 179.3880615234375
0, 1, 31, 181.1252136230469
0, 1, 32, 188.6268310546875
0, 1, 33, 190.6475830078125
0, 1, 34, 184.8663024902344
0, 1, 35, 193.5626678466797
0, 1, 36, 206.268798828125
0, 1, 37, 184.3476867675781
0, 1, 38, 164.5513916015625
0, 1, 39, 172.0599670410156
0, 1, 40, 180.6048583984375
0, 1, 41, 185.6324005126953
0, 1, 42, 184.6078643798828
0, 1, 43, 186.5902099609375
0, 1, 44, 168.0122375488281
0, 1, 45, 186.5421142578125
0, 1, 46, 170.4359130859375
0, 1, 47, 187.3902130126953
0, 1, 48, 186.1806640625
0, 1, 49, 186.8076934814453
0, 1, 50, 178.4196319580078
0, 1, 51, 192.7534637451172
0, 1, 52, 196.5421295166016
0, 1, 53, 195.9312133789062
0, 1, 54, 185.3407440185547
0, 1, 55, 166.1373596191406
0, 1, 56, 179.2814788818359
0, 1, 57, 179.7017669677734
0, 1, 58, 188.1469573974609
0, 1, 59, 195.1967926025391
0, 1, 60, 188.7118225097656
0, 1, 61, 178.0328369140625
0, 1, 62, 205.7890930175781
0, 1, 63, 174.8059844970703
0, 1, 64, 176.3467254638672
0, 1, 65, 186.8011932373047
0, 1, 66, 209.6819610595703
0, 1, 67, 183.0538177490234
0, 1, 68, 186.7409973144531
0, 1, 69, 189.8162994384766
0, 1, 70, 185.3920745849609
0, 1, 71, 171.3593597412109
0, 1, 72, 188.6848907470703
0, 1, 73, 189.98193359375
0, 1, 74, 201.7406463623047
0, 1, 75, 184.6772308349609
0, 1, 76, 173.8040161132812
0, 1, 77, 191.0164642333984
0, 1, 78, 187.5169525146484
0, 1, 79, 202.02734375
0, 1, 80, 188.8536987304688
0, 1, 81, 176.6369781494141
0, 1, 82, 206.8968048095703
0, 1, 83, 210.9609985351562
0, 1, 84, 179.5194549560547
0, 1, 85, 169.5648040771484
0, 1, 86, 167.4136657714844
0, 1, 87, 184.9634094238281
0, 1, 88, 174.9952545166016
0, 1, 89, 187.4848022460938
0, 1, 90, 213.2223663330078
0, 1, 91, 180.1237945556641
0, 1, 92, 184.6760406494141
0, 1, 93, 179.9012603759766
0, 1, 94, 185.7483520507812
0, 1, 95, 183.167236328125
0, 1, 96, 196.7949981689453
0, 1, 97, 181.9988708496094
0, 1, 98, 186.9315490722656
0, 1, 99, 176.0935211181641
0, 1, 100, 173.0823364257812
0, 1, 101, 177.8954772949219
0, 1, 102, 181.7956237792969
0, 1, 103, 172.9285430908203
0, 1, 104, 188.9750823974609
0, 1, 105, 182.0311431884766
0, 1, 106, 164.3239135742188
0, 1, 107, 123.5482635498047
0, 1, 108, 46.59941864013672
0, 1, 109, 9.742959022521973
0, 1, 110, 7.983456134796143
0, 1, 111, 5.783971309661865
0, 1, 112, 7.460135936737061
0, 1, 113, 6.568745613098145
0, 1, 114, 4.89892053604126
0, 1, 115, 5.804351806640625
0, 1, 116, 4.419348239898682
0, 1, 117, 1.939293384552002
0, 1, 118, 4.054820537567139
0, 1, 119, 2.037938117980957
0, 1, 120, 3.307391881942749
0, 1, 121, 4.36862850189209
0, 1, 122, 2.313222885131836
0, 1, 123, 5.692014694213867
0, 1, 124, 3.398395776748657
0, 1, 125, 2.171646356582642
0, 1, 126, 1.533678650856018
0, 1, 127, 2.819432735443115
0, 2, 0, 1.696454167366028
0, 2, 1, 2.091402292251587
0, 2, 2, 2.50159764289856
0, 2, 3, 2.295549869537354
0, 2, 4, 2.204583883285522
0, 2, 5, 1.519680023193359
0, 2, 6, 2.094086170196533
0, 2, 7, 1.571890234947205
0, 2, 8, 0.6495473980903625
0, 2, 9, 1.978178381919861
0, 2, 10, 4.534092903137207
0, 2, 11, 4.886365413665771
0, 2, 12, 4.89500904083252
0, 2, 13, 3.020263195037842
0, 2, 14, 4.66802978515625
0, 2, 15, 5.525394916534424
0, 2, 16, 5.460821151733398
0, 2, 17, 9.183067321777344
0, 2, 18, 13.88342475891113
0, 2, 19, 77.52388763427734
0, 2, 20, 163.3918151855469
0, 2, 21, 183.6975250244141
0, 2, 22, 193.8614959716797
0, 2, 23, 184.1951751708984
0, 2, 24, 173.4192504882812
0, 2, 25, 183.5519256591797
0, 2, 26, 179.1593933105469
0, 2, 27, 190.8880462646484
0, 2, 28, 171.4337768554688
0, 2, 29, 168.9993591308594
0, 2, 30, 184.4660186767578
0, 2, 31, 182.7612915039062
0, 2, 32, 182.4750671386719
0, 2, 33, 191.0400390625
0, 2, 34, 197.2541656494141
0, 2, 35, 181.8963623046875
0, 2, 36, 186.3149108886719
0, 2, 37, 180.5462646484375
0, 2, 38, 184.3135528564453
0, 2, 39, 165.8294982910156
0, 2, 40, 184.5625457763672
0, 2, 41, 184.3213195800781
0, 2, 42, 190.3648986816406
0, 2, 43, 194.3305511474609
0, 2, 44, 191.0913543701172
0, 2, 45, 190.8432922363281
0, 2, 46, 196.9089202880859
0, 2, 47, 189.569091796875
0, 2, 48, 176.6447448730469
0, 2, 49, 198.0407104492188
0, 2, 50, 167.5036926269531
0, 2, 51, 184.1638793945312
0, 2, 52, 186.0033721923828
0, 2, 53, 195.0263977050781
0, 2, 54, 174.80322265625
0, 2, 55, 173.3854827880859
0, 2, 56, 182.2119903564453
0, 2, 57, 200.1172180175781
0, 2, 58, 185.4292907714844
0, 2, 59, 189.7368621826172
0, 2, 60, 196.9652252197266
0, 2, 61, 193.321533203125
0, 2, 62, 189.8302154541016
0, 2, 63, 171.020751953125
0, 2, 64, 190.2834777832031
0, 2, 65, 203.9021759033203
0, 2, 66, 196.2014923095703
0, 2, 67, 185.0874633789062
0, 2, 68, 182.3623657226562
0, 2, 69, 187.1517791748047
0, 2, 70, 202.9214935302734
0, 2, 71, 175.5601806640625
0, 2, 72, 185.64013671875
0, 2, 73, 177.234130859375
0, 2, 74, 180.1813812255859
0, 2, 75, 195.8338165283203
0, 2, 76, 185.0780181884766
0, 2, 77, 177.805908203125
0, 2, 78, 199.2805786132812
0, 2, 79, 178.9915924072266
0, 2, 80, 187.5174865722656
0, 2, 81, 187.7324676513672
0, 2, 82, 204.2866516113281
0, 2, 83, 203.7205200195312
0, 2, 84, 188.4458312988281
0, 2, 85, 171.0079193115234
0, 2, 86, 194.9362640380859
0, 2, 87, 172.8549499511719
0, 2, 88, 179.9598999023438
0, 2, 89, 184.3768615722656
0, 2, 90, 177.5173950195312
0, 2, 91, 174.8039855957031
0, 2, 92, 197.1723937988281
0, 2, 93, 193.4133148193359
0, 2, 94, 202.0189819335938
0, 2, 95, 192.6390380859375
0, 2, 96, 187.0055694580078
0, 2, 97, 171.3952789306641
0, 2, 98, 173.4954376220703
0, 2, 99, 161.9959716796875
0, 2, 100, 187.0398864746094
0, 2, 101, 196.3718719482422
0, 2, 102, 176.3708953857422
0, 2, 103, 200.498291015625
0, 2, 104, 187.5408172607422
0, 2, 105, 200.1486663818359
0, 2, 106, 194.6374359130859
0, 2, 107, 149.1643524169922
0, 2, 108, 78.57638549804688
0, 2, 109, 17.40707015991211
0, 2, 110, 8.417140007019043
0, 2, 111, 7.828132152557373
0, 2, 112, 4.781569004058838
0, 2, 113, 3.960440635681152
0, 2, 114, 6.944439888000488
0, 2, 115, 3.936694622039795
0, 2, 116, 1.286696434020996
0, 2, 117, 3.319512128829956
0, 2, 118, 1.920200705528259
0, 2, 119, 2.556686878204346
0, 2, 120, 3.092868328094482
0, 2, 121, 3.419232130050659
0, 2, 122, 1.508026957511902
0, 2, 123, 1.747097253799438
0, 2, 124, 2.162031650543213
0, 2, 125, 2.333300113677979
0, 2, 126, 2.651731967926025
0, 2, 127, 1.370288252830505
0, 3, 0, 2.273360252380371
0, 3, 1, 0.8424569964408875
0, 3, 2, 1.869323134422302
0, 3, 3, 2.216448307037354
0, 3, 4, 3.904515266418457
0, 3, 5, 2.505653619766235
0, 3, 6, 1.105964660644531
0, 3, 7, 1.863806962966919
0, 3, 8, 1.62552547454834
0, 3, 9, 1.714600324630737
0, 3, 10, 2.386693000793457
0, 3, 11, 4.709157466888428
0, 3, 12, 3.70487380027771
0, 3, 13, 3.940202713012695
0, 3, 14, 4.131733417510986
0, 3, 15, 7.066418170928955
0, 3, 16, 8.015848159790039
0, 3, 17, 5.624011993408203
0, 3, 18, 32.93906021118164
0, 3, 19, 114.5872497558594
0, 3, 20, 179.5924835205078
0, 3, 21, 171.9432220458984
0, 3, 22, 177.3250885009766
0, 3, 23, 187.6963500976562
0, 3, 24, 177.6781921386719
0, 3, 25, 168.8383178710938
0, 3, 26, 180.543212890625
0, 3, 27, 189.4963531494141
0, 3, 28, 181.0753479003906
0, 3, 29, 197.0716094970703
0, 3, 30, 184.5690460205078
0, 3, 31, 194.1594848632812
0, 3, 32, 205.7265014648438
0, 3, 33, 197.4689636230469
0, 3, 34, 187.3504333496094
0, 3, 35, 176.4742126464844
0, 3, 36, 186.1041107177734
0, 3, 37, 200.1132354736328
0, 3, 38, 190.6542205810547
0, 3, 39, 186.1390991210938
0, 3, 40, 165.9611053466797
0, 3, 41, 174.2223205566406
0, 3, 42, 186.2541198730469
0, 3, 43, 181.3761138916016
0, 3, 44, 202.7049865722656
0, 3, 45, 206.9434661865234
0, 3, 46, 198.2122497558594
0, 3, 47, 195.1833648681641
0, 3, 48, 195.3253021240234
0, 3, 49, 179.8825988769531
0, 3, 50, 186.7976379394531
0, 3, 51, 174.0688781738281
0, 3, 52, 187.4475250244141
0, 3, 53, 179.3700103759766
0, 3, 54, 179.4861145019531
0, 3, 55, 176.1268005371094
0, 3, 56, 181.8437042236328
0, 3, 57, 174.8928680419922
0, 3, 58, 203.0666961669922
0, 3, 59, 196.3437652587891
0, 3, 60, 187.6687316894531
0, 3, 61, 181.0890350341797
0, 3, 62, 183.7204895019531
0, 3, 63, 183.9941711425781
0, 3, 64, 188.1088409423828
0, 3, 65, 187.4819183349609
0, 3, 66, 175.1103515625
0, 3, 67, 190.5263061523438
0, 3, 68, 214.2695007324219
0, 3, 69, 190.0143127441406
0, 3, 70, 185.8798522949219
0, 3, 71, 196.6039733886719
0, 3, 72, 185.6024780273438
0, 3, 73, 186.2109680175781
0, 3, 74, 193.8407745361328
0, 3, 75, 192.4188385009766
0, 3, 76, 190.8722991943359
0, 3, 77, 200.0840454101562
0, 3, 78, 188.389892578125
0, 3, 79, 186.1128540039062
0, 3, 80, 189.1664733886719
0, 3, 81, 183.4975891113281
0, 3, 82, 181.5214385986328
0, 3, 83, 196.5662689208984
0, 3, 84, 199.7276763916016
0, 3, 85, 191.9496459960938
0, 3, 86, 203.9155120849609
0, 3, 87, 197.7792358398438
0, 3, 88, 191.1855010986328
0, 3, 89, 193.8738250732422
0, 3, 90, 173.5455017089844
0, 3, 91, 158.5094604492188
0, 3, 92, 207.0958709716797
0, 3, 93, 196.4828643798828
0, 3, 94, 193.5487365722656
0, 3, 95, 211.5491027832031
0, 3, 96, 208.1298065185547
0, 3, 97, 169.5538177490234
0, 3, 98, 168.0241851806641
0, 3, 99, 180.133544921875
0, 3, 100, 176.4827117919922
0, 3, 101, 198.6174011230469
0, 3, 102, 195.3266296386719
0, 3, 103, 192.8144989013672
0, 3, 104, 202.6499786376953
0, 3, 105, 175.0498809814453
0, 3, 106, 182.3766937255859
0, 3, 107, 169.6091613769531
0, 3, 108, 108.2550811767578
0, 3, 109, 27.72685241699219
0, 3, 110, 7.787984848022461
0, 3, 111, 6.708587646484375
0, 3, 112, 3.901739358901978
0, 3, 113, 6.529673099517822
0, 3, 114, 4.525163173675537
0, 3, 115, 5.662546157836914
0, 3, 116, 5.732047080993652
0, 3, 117, 2.681833982467651
0, 3, 118, 1.475677371025085
0, 3, 119, 2.050617933273315
0, 3, 120, 3.729535579681396
0, 3, 121, 1.573667764663696
0, 3, 122, 2.572325706481934
0, 3, 123, 1.828889489173889
0, 3, 124, 1.280622482299805
0, 3, 125, 1.743489623069763
0, 3, 126, 2.050562858581543
0, 3, 127, 1.125080108642578
0, 4, 0, 1.665680646896362
0, 4, 1, 1.025652408599854
0, 4, 2, 2.650126218795776
0, 4, 3, 3.251066446304321
0, 4, 4, 3.215978622436523
0, 4, 5, 1.139014482498169
0, 4, 6, 2.165399551391602
0, 4, 7, 3.021414041519165
0, 4, 8, 1.508833646774292
0, 4, 9, 3.434212446212769
0, 4, 10, 4.554036140441895
0, 4, 11, 3.877232074737549
0, 4, 12, 4.109377861022949
0, 4, 13, 5.138089179992676
0, 4, 14, 4.781322956085205
0, 4, 15, 8.345720291137695
0, 4, 16, 8.534090995788574
0, 4, 17, 12.32693862915039
0, 4, 18, 55.26848602294922
0, 4, 19, 151.6144714355469
0, 4, 20, 193.2487945556641
0, 4, 21, 169.4234466552734
0, 4, 22, 187.2826232910156
0, 4, 23, 195.9734344482422
0, 4, 24, 193.5444488525391
0, 4, 25, 200.7677154541016
0, 4, 26, 182.976318359375
0, 4, 27, 190.7816314697266
0, 4, 28, 178.4265899658203
0, 4, 29, 205.7813568115234
0, 4, 30, 195.7481384277344
0, 4, 31, 193.2324829101562
0, 4, 32, 210.1810760498047
0, 4, 33, 190.8874053955078
0, 4, 34, 193.6959686279297
0, 4, 35, 213.4542236328125
0, 4, 36, 192.5408782958984
0, 4, 37, 177.4613952636719
0, 4, 38, 196.9172058105469
0, 4, 39, 189.6945343017578
0, 4, 40, 185.5711364746094
0, 4, 41, 189.4788055419922
0, 4, 42, 206.1099090576172
0, 4, 43, 174.3895263671875
0, 4, 44, 184.1738891601562
0, 4, 45, 195.5251312255859
0, 4, 46, 185.7606964111328
0, 4, 47, 181.7688598632812
0, 4, 48, 187.6287231445312
0, 4, 49, 175.5391235351562
0, 4, 50, 186.5375366210938
0, 4, 51, 196.2604522705078
0, 4, 52, 222.7748413085938
0, 4, 53, 205.1412811279297
0, 4, 54, 190.7872467041016
0, 4, 55, 176.5243835449219
0, 4, 56, 191.9974975585938
0, 4, 57, 191.255126953125
0, 4, 58, 187.4284057617188
0, 4, 59, 189.4497222900391
0, 4, 60, 196.3857116699219
0, 4, 61, 193.2613220214844
0, 4, 62, 189.5899963378906
0, 4, 63, 178.3201446533203
0, 4, 64, 212.4358673095703
0, 4, 65, 190.8472900390625
0, 4, 66, 201.1678619384766
0, 4, 67, 200.8603820800781
0, 4, 68, 201.0259552001953
0, 4, 69, 199.34326171875
0, 4, 70, 204.8893890380859
0, 4, 71, 207.1219329833984
0, 4, 72, 214.4531860351562
0, 4, 73, 185.7093353271484
0, 4, 74, 179.8284454345703
0, 4, 75, 184.5271148681641
0, 4, 76, 189.4758605957031
0, 4, 77, 184.3093719482422
0, 4, 78, 194.970947265625
0, 4, 79, 203.7579803466797
0, 4, 80, 211.5001831054688
0, 4, 81, 199.1476440429688
0, 4, 82, 181.9675445556641
0, 4, 83, 170.1031646728516
0, 4, 84, 194.5796661376953
0, 4, 85, 195.4049072265625
0, 4, 86, 180.9725341796875
0, 4, 87, 183.2490997314453
0, 4, 88, 204.4700622558594
0, 4, 89, 187.4981384277344
0, 4, 90, 211.1654205322266
0, 4, 91, 189.0729522705078
0, 4, 92, 197.3576507568359
0, 4, 93, 196.0789337158203
0, 4, 94, 181.7279663085938
0, 4, 95, 173.7533416748047
0, 4, 96, 189.5968170166016
0, 4, 97, 192.2801818847656
0, 4, 98, 201.9671478271484
0, 4, 99, 182.8173675537109
0, 4, 100, 182.8926086425781
0, 4, 101, 176.6723175048828
0, 4, 102, 171.4954376220703
0, 4, 103, 185.1926727294922
0, 4, 104, 209.2626495361328
0, 4, 105, 189.8568878173828
0, 4, 106, 178.6634368896484
0, 4, 107, 181.1992950439453
0, 4, 108, 151.5750732421875
0, 4, 109, 51.8060188293457
0, 4, 110, 11.82777500152588
0, 4, 111, 7.849772453308105
0, 4, 112, 5.24958610534668
0, 4, 113, 7.719252109527588
0, 4, 114, 6.58591890335083
0, 4, 115, 2.742667675018311
0, 4, 116, 4.3358473777771
0, 4, 117, 2.717209339141846
0, 4, 118, 3.111066102981567
0, 4, 119, 3.918425559997559
0, 4, 120, 2.485333919525146
0, 4, 121, 1.458225131034851
0, 4, 122, 4.016094207763672
0, 4, 123, 1.605473399162292
0, 4, 124, 3.578515529632568
0, 4, 125, 2.415542125701904
0, 4, 126, 1.219591736793518
0, 4, 127, 1.685770750045776
0, 5, 0, 1.280855417251587
0, 5, 1, 3.777724504470825
0, 5, 2, 5.382560729980469
0, 5, 3, 3.63163423538208
0, 5, 4, 1.981829762458801
0, 5, 5, 1.499723076820374
0, 5, 6, 3.517519950866699
0, 5, 7, 3.004762172698975
0, 5, 8, 2.284364223480225
0, 5, 9, 3.051639318466187
0, 5, 10, 3.032957315444946
0, 5, 11, 2.793400764465332
0, 5, 12, 5.299755573272705
0, 5, 13, 3.520352840423584
0, 5, 14, 6.024882316589355
0, 5, 15, 8.129740715026855
0, 5, 16, 7.038020610809326
0, 5, 17, 22.0373706817627
0, 5, 18, 82.69347381591797
0, 5, 19, 165.2167358398438
0, 5, 20, 182.6549987792969
0, 5, 21, 177.78759765625
0, 5, 22, 171.3536376953125
0, 5, 23, 200.6622924804688
0, 5, 24, 187.0340118408203
0, 5, 25, 208.7399139404297
0, 5, 26, 182.6192016601562
0, 5, 27, 194.6696014404297
0, 5, 28, 190.5848693847656
0, 5, 29, 196.6254119873047
0, 5, 30, 178.0281829833984
0, 5, 31, 180.6189575195312
0, 5, 32, 188.2584381103516
0, 5, 33, 171.1363067626953
0, 5, 34, 194.6893615722656
0, 5, 35, 197.4137268066406
0, 5, 36, 170.7361907958984
0, 5, 37, 197.3461608886719
0, 5, 38, 181.5172119140625
0, 5, 39, 186.2995910644531
0, 5, 40, 196.8385314941406
0, 5, 41, 176.957763671875
0, 5, 42, 188.3999633789062
0, 5, 43, 192.3345794677734
0, 5, 44, 200.3800506591797
0, 5, 45, 186.64306640625
0, 5, 46, 193.1452789306641
0, 5, 47, 180.341796875
0, 5, 48, 177.6762084960938
0, 5, 49, 180.3418579101562
0, 5, 50, 186.6055450439453
0, 5, 51, 172.3045654296875
0, 5, 52, 168.2108001708984
0, 5, 53, 181.0377502441406
0, 5, 54, 172.3773651123047
0, 5, 55, 215.3679962158203
0, 5, 56, 181.9385986328125
0, 5, 57, 208.0590362548828
0, 5, 58, 183.1928863525391
0, 5, 59, 180.5058441162109
0, 5, 60, 218.3737487792969
0, 5, 61, 185.0269775390625
0, 5, 62, 178.5936584472656
0, 5, 63, 180.1343231201172
0, 5, 64, 193.4654693603516
0, 5, 65, 211.8002777099609
0, 5, 66, 193.1771392822266
0, 5, 67, 199.3002777099609
0, 5, 68, 185.1570281982422
0, 5, 69, 185.4237823486328
0, 5, 70, 184.1735382080078
0, 5, 71, 192.76904296875
0, 5, 72, 198.0309753417969
0, 5, 73, 201.2162322998047
0, 5, 74, 181.5588684082031
0, 5, 75, 202.2427215576172
0, 5, 76, 214.5013122558594
0, 5, 77, 180.2282104492188
0, 5, 78, 194.4384765625
0, 5, 79, 190.2477874755859
0, 5, 80, 198.0782623291016
0, 5, 81, 203.3716430664062
0, 5, 82, 200.9314575195312
0, 5, 83, 188.0272064208984
0, 5, 84, 207.3552398681641
0, 5, 85, 176.0115661621094
0, 5, 86, 197.0709838867188
0, 5, 87, 187.0175323486328
0, 5, 88, 176.9016265869141
0, 5, 89, 194.4323883056641
0, 5, 90, 199.6762084960938
0, 5, 91, 194.8512268066406
0, 5, 92, 190.5667266845703
0, 5, 93, 188.9462585449219
0, 5, 94, 207.454345703125
0, 5, 95, 177.1861419677734
0, 5, 96, 181.7188415527344
0, 5, 97, 191.4613647460938
0, 5, 98, 189.5419769287109
0, 5, 99, 195.876708984375
0, 5, 100, 186.1285705566406
0, 5, 101, 195.9730834960938
0, 5, 102, 180.5201873779297
0, 5, 103, 176.5154418945312
0, 5, 104, 190.4361572265625
0, 5, 105, 189.5300598144531
0, 5, 106, 177.4707641601562
0, 5, 107, 181.0798950195312
0, 5, 108, 176.7012023925781
0, 5, 109, 89.39504241943359
0, 5, 110, 30.56137847900391
0, 5, 111, 10.07327079772949
0, 5, 112, 6.781967163085938
0, 5, 113, 5.320869922637939
0, 5, 114, 5.578666210174561
0, 5, 115, 5.55787992477417
0, 5, 116, 4.405151844024658
0, 5, 117, 4.608948230743408
0, 5, 118, 4.004429340362549
0, 5, 119, 2.833816051483154
0, 5, 120, 1.207140803337097
0, 5, 121, 1.888254642486572
0, 5, 122, 2.491060018539429
0, 5, 123, 4.312387466430664
0, 5, 124, 3.227905988693237
0, 5, 125, 1.16638970375061
0, 5, 126, 2.021672248840332
0, 5, 127, 3.637058019638062
0, 6, 0, 4.291037559509277
0, 6, 1, 3.185353755950928
0, 6, 2, 3.592761754989624
0, 6, 3, 1.126232385635376
0, 6, 4, 3.084994792938232
0, 6, 5, 3.275083541870117
0, 6, 6, 2.540705680847168
0, 6, 7, 3.39198899269104
0, 6, 8, 4.0429368019104
0, 6, 9, 2.419620990753174
0, 6, 10, 4.088281154632568
0, 6, 11, 4.022984027862549
0, 6, 12, 4.092381954193115
0, 6, 13, 5.108479499816895
0, 6, 14, 4.948582649230957
0, 6, 15, 8.018247604370117
0, 6, 16, 12.7651252746582
0, 6, 17, 28.10631942749023
0, 6, 18, 111.675537109375
0, 6, 19, 191.9857330322266
0, 6, 20, 194.2407531738281
0, 6, 21, 197.9235992431641
0, 6, 22, 190.3580474853516
0, 6, 23, 190.2980651855469
0, 6, 24, 200.9725799560547
0, 6, 25, 181.8858489990234
0, 6, 26, 186.4525604248047
0, 6, 27, 194.3133697509766
0, 6, 28, 188.1422729492188
0, 6, 29, 211.1771392822266
0, 6, 30, 189.4146270751953
0, 6, 31, 193.9556274414062
0, 6, 32, 206.1029815673828
0, 6, 33, 184.9314727783203
0, 6, 34, 197.3271484375
0, 6, 35, 187.1444396972656
0, 6, 36, 179.5525665283203
0, 6, 37, 182.883056640625
0, 6, 38, 184.6335601806641
0, 6, 39, 195.2969665527344
0, 6, 40, 172.7305755615234
0, 6, 41, 186.0953979492188
0, 6, 42, 173.7976989746094
0, 6, 43, 210.1682739257812
0, 6, 44, 209.7679901123047
0, 6, 45, 193.3341827392578
0, 6, 46, 188.6388702392578
0, 6, 47, 204.2246704101562
0, 6, 48, 187.9171752929688
0, 6, 49, 178.2910003662109
0, 6, 50, 182.5787506103516
0, 6, 51, 195.7070770263672
0, 6, 52, 197.6341247558594
0, 6, 53, 185.9903106689453
0, 6, 54, 175.2212524414062
0, 6, 55, 194.9777221679688
0, 6, 56, 202.6324462890625
0, 6, 57, 190.3856201171875
0, 6, 58, 181.0406951904297
0, 6, 59, 192.4255828857422
0, 6, 60, 185.1063079833984
0, 6, 61, 194.1341094970703
0, 6, 62, 196.7404632568359
0, 6, 63, 186.1627807617188
0, 6, 64, 170.0573425292969
0, 6, 65, 185.7336120605469
0, 6, 66, 196.9046173095703
0, 6, 67, 212.7503204345703
0, 6, 68, 179.9802703857422
0, 6, 69, 172.0756530761719
0, 6, 70, 186.7236480712891
0, 6, 71, 170.8997192382812
0, 6, 72, 176.6069641113281
0, 6, 73, 176.6966400146484
0, 6, 74, 210.7335510253906
0, 6, 75, 229.1150054931641
0, 6, 76, 183.7033386230469
0, 6, 77, 174.1438903808594
0, 6, 78, 174.7360992431641
0, 6, 79, 186.6383819580078
0, 6, 80, 187.6765289306641
0, 6, 81, 208.3657684326172
0, 6, 82, 195.9986572265625
0, 6, 83, 195.8242340087891
0, 6, 84, 197.7254180908203
0, 6, 85, 180.1445007324219
0, 6, 86, 201.8933715820312
0, 6, 87, 184.1234130859375
0, 6, 88, 191.7351379394531
0, 6, 89, 190.3474731445312
0, 6, 90, 205.5112457275391
0, 6, 91, 199.3120422363281
0, 6, 92, 172.8426666259766
0, 6, 93, 193.1568298339844
0, 6, 94, 189.8842315673828
0, 6, 95, 184.6879577636719
0, 6, 96, 188.3098602294922
0, 6, 97, 194.6961822509766
0, 6, 98, 183.3414611816406
0, 6, 99, 175.2512512207031
0, 6, 100, 201.86572265625
0, 6, 101, 168.3335876464844
0, 6, 102, 202.5793304443359
0, 6, 103, 196.6729888916016
0, 6, 104, 183.8562164306641
0, 6, 105, 194.3367767333984
0, 6, 106, 177.6011505126953
0, 6, 107, 195.4756774902344
0, 6, 108, 170.7083282470703
0, 6, 109, 115.9323501586914
0, 6, 110, 34.18308639526367
0, 6, 111, 8.931182861328125
0, 6, 112, 8.088630676269531
0, 6, 113, 6.192550659179688
0, 6, 114, 4.518701553344727
0, 6, 115, 5.318781852722168
0, 6, 116, 4.485306739807129
0, 6, 117, 4.306082248687744
0, 6, 118, 3.920173406600952
0, 6, 119, 4.151512145996094
0, 6, 120, 5.479843616485596
0, 6, 121, 7.419989585876465
0, 6, 122, 3.936809778213501
0, 6, 123, 3.529475450515747
0, 6, 124, 1.863462448120117
0, 6, 125, 2.289692163467407
0, 6, 126, 1.504470109939575
0, 6, 127, 2.966740131378174
0, 7, 0, 4.082545280456543
0, 7, 1, 2.950685262680054
0, 7, 2, 1.776823401451111
0, 7, 3, 2.708116054534912
0, 7, 4, 0.8721775412559509
0, 7, 5, 1.239269137382507
0, 7, 6, 4.731772899627686
0, 7, 7, 1.173044085502625
0, 7, 8, 3.305772542953491
0, 7, 9, 5.133416652679443
0, 7, 10, 4.56418514251709
0, 7, 11, 3.270989179611206
0, 7, 12, 3.946933031082153
0, 7, 13, 6.203826904296875
0, 7, 14, 6.988724708557129
0, 7, 15, 7.108519554138184
0, 7, 16, 17.17789268493652
0, 7, 17, 49.99878311157227
0, 7, 18, 163.3135986328125
0, 7, 19, 184.9061431884766
0, 7, 20, 178.9568176269531
0, 7, 21, 179.5950317382812
0, 7, 22, 190.0523071289062
0, 7, 23, 203.6317291259766
0, 7, 24, 180.1151428222656
0, 7, 25, 213.4994964599609
0, 7, 26, 190.5875549316406
0, 7, 27, 181.8105010986328
0, 7, 28, 183.4776306152344
0, 7, 29, 209.4305572509766
0, 7, 30, 193.9446411132812
0, 7, 31, 175.3353271484375
0, 7, 32, 191.2534484863281
0, 7, 33, 179.5587768554688
0, 7, 34, 193.3438873291016
0, 7, 35, 198.2897491455078
0, 7, 36, 188.0812377929688
0, 7, 37, 213.0393371582031
0, 7, 38, 190.9696197509766
0, 7, 39, 174.0357818603516
0, 7, 40, 183.5293579101562
0, 7, 41, 184.8321380615234
0, 7, 42, 177.2930603027344
0, 7, 43, 176.6137542724609
0, 7, 44, 179.2035369873047
0, 7, 45, 174.3960418701172
0, 7, 46, 187.5587310791016
0, 7, 47, 198.5054321289062
0, 7, 48, 185.4199676513672
0, 7, 49, 199.1465911865234
0, 7, 50, 188.1611480712891
0, 7, 51, 205.3321685791016
0, 7, 52, 204.5073394775391
0, 7, 53, 191.1914672851562
0, 7, 54, 196.4375
0, 7, 55, 202.2516784667969
0, 7, 56, 183.5348358154297
0, 7, 57, 182.716064453125
0, 7, 58, 191.2566223144531
0, 7, 59, 186.3174438476562
0, 7, 60, 202.3854675292969
0, 7, 61, 170.7740020751953
0, 7, 62, 202.9361724853516
0, 7, 63, 189.5145263671875
0, 7, 64, 199.0687103271484
0, 7, 65, 195.2866668701172
0, 7, 66, 206.82470703125
0, 7, 67, 220.1295623779297
0, 7, 68, 162.1416320800781
0, 7, 69, 194.6866455078125
0, 7, 70, 218.9508056640625
0, 7, 71, 184.0362091064453
0, 7, 72, 181.2125701904297
0, 7, 73, 176.7460021972656
0, 7, 74, 207.8142700195312
0, 7, 75, 203.9616546630859
0, 7, 76, 214.6295318603516
0, 7, 77, 173.6025695800781
0, 7, 78, 177.0404510498047
0, 7, 79, 192.4488220214844
0, 7, 80, 195.9437408447266
0, 7, 81, 217.1254272460938
0, 7, 82, 186.0300140380859
0, 7, 83, 205.2546539306641
0, 7, 84, 192.6812744140625
0, 7, 85, 186.9415893554688
0, 7, 86, 202.8069152832031
0, 7, 87, 227.2865600585938
0, 7, 88, 195.7397308349609
0, 7, 89, 179.3077545166016
0, 7, 90, 181.9998779296875
0, 7, 91, 194.2077331542969
0, 7, 92, 193.7020721435547
0, 7, 93, 198.3447113037109
0, 7, 94, 179.6156158447266
0, 7, 95, 197.5890655517578
0, 7, 96, 208.6554260253906
0, 7, 97, 189.9443511962891
0, 7, 98, 177.4064025878906
0, 7, 99, 196.8219757080078
0, 7, 100, 181.6216583251953
0, 7, 101, 199.6386566162109
0, 7, 102, 185.1007385253906
0, 7, 103, 182.1289367675781
0, 7, 104, 176.2496337890625
0, 7, 105, 194.5459136962891
0, 7, 106, 207.5076904296875
0, 7, 107, 172.8445129394531
0, 7, 108, 176.6551971435547
0, 7, 109, 137.4191589355469
0, 7, 110, 54.35935211181641
0, 7, 111, 8.668100357055664
0, 7, 112, 7.712648391723633
0, 7, 113, 7.895718574523926
0, 7, 114, 6.614746570587158
0, 7, 115, 5.445152759552002
0, 7, 116, 4.762809276580811
0, 7, 117, 2.29344367980957
0, 7, 118, 3.193345546722412
0, 7, 119, 3.759823083877563
0, 7, 120, 2.960842609405518
0, 7, 121, 2.404542684555054
0, 7, 122, 3.093077659606934
0, 7, 123, 1.370812773704529
0, 7, 124, 2.317041635513306
0, 7, 125, 2.515556573867798
0, 7, 126, 2.353230953216553
0, 7, 127, 2.305041313171387
0, 8, 0, 3.828258752822876
0, 8, 1, 3.600374937057495
0, 8, 2, 4.06243896484375
0, 8, 3, 1.844062685966492
0, 8, 4, 1.932863593101501
0, 8, 5, 3.120615482330322
0, 8, 6, 2.427763938903809
0, 8, 7, 4.684084892272949
0, 8, 8, 3.644062042236328
0, 8, 9, 4.186825752258301
0, 8, 10, 1.982713222503662
0, 8, 11, 3.227030277252197
0, 8, 12, 5.083473682403564
0, 8, 13, 6.202627658843994
0, 8, 14, 6.362548828125
0, 8, 15, 9.043344497680664
0, 8, 16, 18.68363189697266
0, 8, 17, 76.63574981689453
0, 8, 18, 141.8448944091797
0, 8, 19, 179.4477844238281
0, 8, 20, 194.4503936767578
0, 8, 21, 194.551025390625
0, 8, 22, 182.3242340087891
0, 8, 23, 171.8726654052734
0, 8, 24, 192.1068878173828
0, 8, 25, 185.3249206542969
0, 8, 26, 192.79443359375
0, 8, 27, 185.7514038085938
0, 8, 28, 185.4733276367188
0, 8, 29, 206.908203125
0, 8, 30, 196.5518035888672
0, 8, 31, 181.6956481933594
0, 8, 32, 197.7714538574219
0, 8, 33, 206.6547241210938
0, 8, 34, 202.8020935058594
0, 8, 35, 185.9803009033203
0, 8, 36, 181.4616851806641
0, 8, 37, 198.9996185302734
