# TOPAS Version: 3.1.p3
# Parameter File: batch_inserts_92.txt
# Results for scorer Readout_Adipose
# Scored in component: MyBox
# X in 1 bin  of 0.65 cm
# Y in 512 bins of 0.0783984 cm
# Z in 128 bins of 0.078125 cm
# EnergyDeposit ( MeV ) : Sum   
0, 0, 0, 0.9620847105979919
0, 0, 1, 3.799327850341797
0, 0, 2, 3.549342393875122
0, 0, 3, 1.316199421882629
0, 0, 4, 2.258449077606201
0, 0, 5, 0.90816330909729
0, 0, 6, 3.338160991668701
0, 0, 7, 2.406219720840454
0, 0, 8, 2.396259546279907
0, 0, 9, 2.95292592048645
0, 0, 10, 2.465395450592041
0, 0, 11, 3.63411808013916
0, 0, 12, 5.639648914337158
0, 0, 13, 2.756160974502563
0, 0, 14, 5.175275325775146
0, 0, 15, 5.860257148742676
0, 0, 16, 3.303508043289185
0, 0, 17, 5.689206123352051
0, 0, 18, 6.145198822021484
0, 0, 19, 23.76542282104492
0, 0, 20, 94.08277893066406
0, 0, 21, 152.1921234130859
0, 0, 22, 154.8070983886719
0, 0, 23, 146.0049438476562
0, 0, 24, 159.5655822753906
0, 0, 25, 166.6226196289062
0, 0, 26, 169.0122375488281
0, 0, 27, 173.8457946777344
0, 0, 28, 177.9605102539062
0, 0, 29, 174.8433380126953
0, 0, 30, 172.9794921875
0, 0, 31, 167.0036010742188
0, 0, 32, 164.3656463623047
0, 0, 33, 165.6775207519531
0, 0, 34, 177.3566589355469
0, 0, 35, 174.487060546875
0, 0, 36, 159.2134246826172
0, 0, 37, 161.3273468017578
0, 0, 38, 166.2612762451172
0, 0, 39, 158.8419952392578
0, 0, 40, 164.8186340332031
0, 0, 41, 166.3268127441406
0, 0, 42, 143.1277160644531
0, 0, 43, 168.3142242431641
0, 0, 44, 177.4031524658203
0, 0, 45, 173.0471343994141
0, 0, 46, 166.66552734375
0, 0, 47, 167.8669891357422
0, 0, 48, 169.0596008300781
0, 0, 49, 183.0247497558594
0, 0, 50, 170.7215118408203
0, 0, 51, 162.7876892089844
0, 0, 52, 163.5554656982422
0, 0, 53, 170.9875030517578
0, 0, 54, 161.1255187988281
0, 0, 55, 165.9088134765625
0, 0, 56, 189.8690643310547
0, 0, 57, 170.5652160644531
0, 0, 58, 161.6198577880859
0, 0, 59, 172.1685333251953
0, 0, 60, 168.3813018798828
0, 0, 61, 168.6700744628906
0, 0, 62, 183.6669921875
0, 0, 63, 167.6561431884766
0, 0, 64, 165.7265930175781
0, 0, 65, 175.7017669677734
0, 0, 66, 179.1234741210938
0, 0, 67, 164.0385589599609
0, 0, 68, 158.4697265625
0, 0, 69, 159.1356201171875
0, 0, 70, 169.7747192382812
0, 0, 71, 158.3787384033203
0, 0, 72, 161.8064422607422
0, 0, 73, 171.1587982177734
0, 0, 74, 163.312744140625
0, 0, 75, 163.3064270019531
0, 0, 76, 162.9884948730469
0, 0, 77, 173.4650268554688
0, 0, 78, 181.1122894287109
0, 0, 79, 175.0985260009766
0, 0, 80, 159.3815002441406
0, 0, 81, 160.0966339111328
0, 0, 82, 184.4839477539062
0, 0, 83, 172.1084136962891
0, 0, 84, 159.6026000976562
0, 0, 85, 181.22119140625
0, 0, 86, 157.7483520507812
0, 0, 87, 176.6122436523438
0, 0, 88, 178.4515228271484
0, 0, 89, 175.0892181396484
0, 0, 90, 161.9312286376953
0, 0, 91, 184.7967987060547
0, 0, 92, 164.1981048583984
0, 0, 93, 157.0018005371094
0, 0, 94, 169.1505737304688
0, 0, 95, 173.7406311035156
0, 0, 96, 183.8913726806641
0, 0, 97, 183.4713745117188
0, 0, 98, 187.0399169921875
0, 0, 99, 170.9451141357422
0, 0, 100, 157.8559417724609
0, 0, 101, 166.4456634521484
0, 0, 102, 171.0081481933594
0, 0, 103, 170.3900604248047
0, 0, 104, 168.6005554199219
0, 0, 105, 178.5878295898438
0, 0, 106, 158.5014495849609
0, 0, 107, 87.66045379638672
0, 0, 108, 20.80456924438477
0, 0, 109, 9.564266204833984
0, 0, 110, 5.858813762664795
0, 0, 111, 7.220839023590088
0, 0, 112, 4.723292827606201
0, 0, 113, 3.154806852340698
0, 0, 114, 2.007050037384033
0, 0, 115, 2.995670080184937
0, 0, 116, 2.776679039001465
0, 0, 117, 1.656322836875916
0, 0, 118, 2.236672163009644
0, 0, 119, 2.195137739181519
0, 0, 120, 1.810021162033081
0, 0, 121, 4.152352333068848
0, 0, 122, 4.194473266601562
0, 0, 123, 4.093287467956543
0, 0, 124, 1.250631928443909
0, 0, 125, 2.609703540802002
0, 0, 126, 1.647324681282043
0, 0, 127, 2.133876800537109
0, 1, 0, 1.117997288703918
0, 1, 1, 4.446505546569824
0, 1, 2, 2.226953268051147
0, 1, 3, 1.510693669319153
0, 1, 4, 1.525221228599548
0, 1, 5, 0.8949434161186218
0, 1, 6, 1.625040650367737
0, 1, 7, 1.883382558822632
0, 1, 8, 1.498640060424805
0, 1, 9, 1.135996699333191
0, 1, 10, 3.68179726600647
0, 1, 11, 3.458865880966187
0, 1, 12, 3.386920690536499
0, 1, 13, 3.613345861434937
0, 1, 14, 6.320876121520996
0, 1, 15, 5.872458457946777
0, 1, 16, 7.443802833557129
0, 1, 17, 4.978191375732422
0, 1, 18, 10.64581680297852
0, 1, 19, 39.68064880371094
0, 1, 20, 126.7788925170898
0, 1, 21, 177.2693786621094
0, 1, 22, 192.6954193115234
0, 1, 23, 186.7247314453125
0, 1, 24, 180.0571136474609
0, 1, 25, 194.8100433349609
0, 1, 26, 197.9717254638672
0, 1, 27, 186.9808654785156
0, 1, 28, 188.1758270263672
0, 1, 29, 183.3380889892578
0, 1, 30, 178.65625
0, 1, 31, 181.0689086914062
0, 1, 32, 188.5479888916016
0, 1, 33, 191.8976135253906
0, 1, 34, 186.8537445068359
0, 1, 35, 193.5156555175781
0, 1, 36, 205.6041717529297
0, 1, 37, 185.5779724121094
0, 1, 38, 165.0383911132812
0, 1, 39, 172.0290374755859
0, 1, 40, 179.224853515625
0, 1, 41, 185.1143341064453
0, 1, 42, 182.5101776123047
0, 1, 43, 184.7930755615234
0, 1, 44, 166.5999603271484
0, 1, 45, 187.5126190185547
0, 1, 46, 170.5311584472656
0, 1, 47, 185.3874969482422
0, 1, 48, 186.6015472412109
0, 1, 49, 186.3240051269531
0, 1, 50, 179.2344512939453
0, 1, 51, 190.7950286865234
0, 1, 52, 195.5552215576172
0, 1, 53, 196.5343170166016
0, 1, 54, 185.2070007324219
0, 1, 55, 164.9626617431641
0, 1, 56, 178.7128143310547
0, 1, 57, 179.5342254638672
0, 1, 58, 188.7237548828125
0, 1, 59, 195.6137542724609
0, 1, 60, 187.7816772460938
0, 1, 61, 178.099853515625
0, 1, 62, 204.0134429931641
0, 1, 63, 173.5261688232422
0, 1, 64, 173.5792083740234
0, 1, 65, 186.2074279785156
0, 1, 66, 203.5562438964844
0, 1, 67, 182.8859252929688
0, 1, 68, 186.5132293701172
0, 1, 69, 188.9956665039062
0, 1, 70, 185.9001159667969
0, 1, 71, 171.0973205566406
0, 1, 72, 190.5517730712891
0, 1, 73, 189.8649749755859
0, 1, 74, 201.0921630859375
0, 1, 75, 183.8223724365234
0, 1, 76, 174.2210845947266
0, 1, 77, 192.2920074462891
0, 1, 78, 189.8508605957031
0, 1, 79, 202.4301147460938
0, 1, 80, 185.7633056640625
0, 1, 81, 174.5548400878906
0, 1, 82, 208.5391540527344
0, 1, 83, 212.2677001953125
0, 1, 84, 179.7037048339844
0, 1, 85, 169.3232269287109
0, 1, 86, 170.5869293212891
0, 1, 87, 184.3716430664062
0, 1, 88, 175.1602783203125
0, 1, 89, 188.4420013427734
0, 1, 90, 212.5230255126953
0, 1, 91, 183.0421447753906
0, 1, 92, 184.2314910888672
0, 1, 93, 181.4148864746094
0, 1, 94, 185.1222076416016
0, 1, 95, 184.7004089355469
0, 1, 96, 197.6184844970703
0, 1, 97, 182.7962188720703
0, 1, 98, 189.1647491455078
0, 1, 99, 175.1223297119141
0, 1, 100, 170.9774322509766
0, 1, 101, 178.1332702636719
0, 1, 102, 181.9085998535156
0, 1, 103, 173.157470703125
0, 1, 104, 188.5032806396484
0, 1, 105, 181.4530792236328
0, 1, 106, 163.7280883789062
0, 1, 107, 123.8384628295898
0, 1, 108, 46.9231071472168
0, 1, 109, 9.360604286193848
0, 1, 110, 7.558097839355469
0, 1, 111, 5.247478485107422
0, 1, 112, 8.557172775268555
0, 1, 113, 8.189390182495117
0, 1, 114, 5.15866231918335
0, 1, 115, 2.961974620819092
0, 1, 116, 2.751243352890015
0, 1, 117, 2.562642335891724
0, 1, 118, 8.868678092956543
0, 1, 119, 3.812160015106201
0, 1, 120, 4.118658065795898
0, 1, 121, 3.356367111206055
0, 1, 122, 1.825884342193604
0, 1, 123, 4.656529426574707
0, 1, 124, 1.916432738304138
0, 1, 125, 1.807097434997559
0, 1, 126, 1.535902142524719
0, 1, 127, 2.211525201797485
0, 2, 0, 1.558184146881104
0, 2, 1, 2.27617073059082
0, 2, 2, 2.139375686645508
0, 2, 3, 1.131494760513306
0, 2, 4, 1.207350492477417
0, 2, 5, 1.327430367469788
0, 2, 6, 2.462632656097412
0, 2, 7, 2.257107257843018
0, 2, 8, 2.354880332946777
0, 2, 9, 2.651607275009155
0, 2, 10, 4.274545669555664
0, 2, 11, 3.792536973953247
0, 2, 12, 3.036951065063477
0, 2, 13, 3.451955080032349
0, 2, 14, 6.273667812347412
0, 2, 15, 6.841657161712646
0, 2, 16, 4.456385612487793
0, 2, 17, 8.982848167419434
0, 2, 18, 14.15631103515625
0, 2, 19, 78.98370361328125
0, 2, 20, 163.9676055908203
0, 2, 21, 183.5646209716797
0, 2, 22, 194.2219390869141
0, 2, 23, 183.3946380615234
0, 2, 24, 173.6265563964844
0, 2, 25, 184.3627014160156
0, 2, 26, 178.6195983886719
0, 2, 27, 189.1507415771484
0, 2, 28, 171.2532806396484
0, 2, 29, 168.6845245361328
0, 2, 30, 184.2006530761719
0, 2, 31, 182.4467468261719
0, 2, 32, 183.9544067382812
0, 2, 33, 191.2458038330078
0, 2, 34, 198.5360717773438
0, 2, 35, 181.0663452148438
0, 2, 36, 186.4587554931641
0, 2, 37, 180.6202545166016
0, 2, 38, 184.4322357177734
0, 2, 39, 166.5011901855469
0, 2, 40, 183.7872924804688
0, 2, 41, 183.2501373291016
0, 2, 42, 190.3114166259766
0, 2, 43, 192.9505157470703
0, 2, 44, 190.2704620361328
0, 2, 45, 189.5669403076172
0, 2, 46, 196.2180633544922
0, 2, 47, 189.0700531005859
0, 2, 48, 177.4815216064453
0, 2, 49, 197.0012054443359
0, 2, 50, 168.7023468017578
0, 2, 51, 183.690185546875
0, 2, 52, 185.7603454589844
0, 2, 53, 196.2593078613281
0, 2, 54, 174.9049224853516
0, 2, 55, 173.4392547607422
0, 2, 56, 181.3167724609375
0, 2, 57, 200.0391998291016
0, 2, 58, 188.3562927246094
0, 2, 59, 189.0146484375
0, 2, 60, 196.4427490234375
0, 2, 61, 193.1154937744141
0, 2, 62, 190.3184356689453
0, 2, 63, 170.9424285888672
0, 2, 64, 189.7362213134766
0, 2, 65, 202.8722839355469
0, 2, 66, 195.4585876464844
0, 2, 67, 184.8905487060547
0, 2, 68, 182.8438415527344
0, 2, 69, 189.5305938720703
0, 2, 70, 202.7374877929688
0, 2, 71, 174.9876556396484
0, 2, 72, 187.3233795166016
0, 2, 73, 178.8557891845703
0, 2, 74, 180.6500854492188
0, 2, 75, 196.2251892089844
0, 2, 76, 184.1257629394531
0, 2, 77, 176.9745483398438
0, 2, 78, 197.8107299804688
0, 2, 79, 177.2609405517578
0, 2, 80, 186.9942932128906
0, 2, 81, 188.3624420166016
0, 2, 82, 204.7471160888672
0, 2, 83, 203.2896423339844
0, 2, 84, 187.8058776855469
0, 2, 85, 170.7433319091797
0, 2, 86, 194.8790740966797
0, 2, 87, 171.8353271484375
0, 2, 88, 177.5816192626953
0, 2, 89, 184.3385162353516
0, 2, 90, 177.8275604248047
0, 2, 91, 173.1506958007812
0, 2, 92, 197.1101379394531
0, 2, 93, 193.4612121582031
0, 2, 94, 201.0722961425781
0, 2, 95, 195.5857696533203
0, 2, 96, 186.4326477050781
0, 2, 97, 172.4163818359375
0, 2, 98, 173.0333862304688
0, 2, 99, 162.0736389160156
0, 2, 100, 186.5728302001953
0, 2, 101, 198.2361450195312
0, 2, 102, 176.3877410888672
0, 2, 103, 199.5925903320312
0, 2, 104, 186.7893829345703
0, 2, 105, 199.8864135742188
0, 2, 106, 194.5889282226562
0, 2, 107, 149.1157379150391
0, 2, 108, 79.24573516845703
0, 2, 109, 17.66398048400879
0, 2, 110, 7.395905494689941
0, 2, 111, 6.133476734161377
0, 2, 112, 4.08221435546875
0, 2, 113, 4.611374378204346
0, 2, 114, 7.579715251922607
0, 2, 115, 4.882917881011963
0, 2, 116, 2.773584127426147
0, 2, 117, 1.447067975997925
0, 2, 118, 1.88104248046875
0, 2, 119, 3.582403421401978
0, 2, 120, 1.910207271575928
0, 2, 121, 3.391925811767578
0, 2, 122, 2.900264739990234
0, 2, 123, 3.756457805633545
0, 2, 124, 1.952540278434753
0, 2, 125, 1.510635137557983
0, 2, 126, 2.616926431655884
0, 2, 127, 1.314514994621277
0, 3, 0, 2.142189502716064
0, 3, 1, 1.160552382469177
0, 3, 2, 1.379123330116272
0, 3, 3, 1.273025512695312
0, 3, 4, 5.291460990905762
0, 3, 5, 1.273997187614441
0, 3, 6, 1.540229320526123
0, 3, 7, 1.504187226295471
0, 3, 8, 1.472340941429138
0, 3, 9, 4.431317806243896
0, 3, 10, 2.984247207641602
0, 3, 11, 3.961296558380127
0, 3, 12, 3.366119146347046
0, 3, 13, 4.023025512695312
0, 3, 14, 3.914901494979858
0, 3, 15, 5.874336719512939
0, 3, 16, 7.406676769256592
0, 3, 17, 5.522590637207031
0, 3, 18, 32.75388717651367
0, 3, 19, 113.8907623291016
0, 3, 20, 180.0722961425781
0, 3, 21, 172.5458984375
0, 3, 22, 178.3509216308594
0, 3, 23, 187.5303344726562
0, 3, 24, 177.7521820068359
0, 3, 25, 169.0338439941406
0, 3, 26, 180.8506774902344
0, 3, 27, 189.7586975097656
0, 3, 28, 182.5390472412109
0, 3, 29, 198.0775756835938
0, 3, 30, 186.1305084228516
0, 3, 31, 193.8311004638672
0, 3, 32, 205.7682189941406
0, 3, 33, 196.4754486083984
0, 3, 34, 187.8362274169922
0, 3, 35, 173.3502807617188
0, 3, 36, 184.6635589599609
0, 3, 37, 199.7597045898438
0, 3, 38, 193.3813018798828
0, 3, 39, 185.55859375
0, 3, 40, 165.474853515625
0, 3, 41, 174.5127410888672
0, 3, 42, 184.9507598876953
0, 3, 43, 181.1629791259766
0, 3, 44, 203.1676025390625
0, 3, 45, 208.2768859863281
0, 3, 46, 199.0423889160156
0, 3, 47, 194.0305328369141
0, 3, 48, 194.9907531738281
0, 3, 49, 179.8539276123047
0, 3, 50, 186.6512603759766
0, 3, 51, 173.5750579833984
0, 3, 52, 187.8209533691406
0, 3, 53, 176.8004302978516
0, 3, 54, 178.2591094970703
0, 3, 55, 176.4726867675781
0, 3, 56, 183.3240814208984
0, 3, 57, 174.7865905761719
0, 3, 58, 201.2742767333984
0, 3, 59, 195.6250610351562
0, 3, 60, 186.2907867431641
0, 3, 61, 181.5911712646484
0, 3, 62, 181.5920715332031
0, 3, 63, 183.3374481201172
0, 3, 64, 187.3463592529297
0, 3, 65, 187.1724090576172
0, 3, 66, 175.059814453125
0, 3, 67, 191.1956634521484
0, 3, 68, 211.3282012939453
0, 3, 69, 190.9657592773438
0, 3, 70, 185.1455688476562
0, 3, 71, 197.8378295898438
0, 3, 72, 185.9407653808594
0, 3, 73, 186.3972625732422
0, 3, 74, 193.0625457763672
0, 3, 75, 192.6389617919922
0, 3, 76, 191.6724090576172
0, 3, 77, 200.8216247558594
0, 3, 78, 187.9898223876953
0, 3, 79, 186.1330108642578
0, 3, 80, 190.821044921875
0, 3, 81, 184.2581634521484
0, 3, 82, 179.2342376708984
0, 3, 83, 195.2652740478516
0, 3, 84, 199.3715515136719
0, 3, 85, 192.4041595458984
0, 3, 86, 204.5597229003906
0, 3, 87, 197.6185760498047
0, 3, 88, 190.8838653564453
0, 3, 89, 193.1030731201172
0, 3, 90, 173.4486541748047
0, 3, 91, 159.4522094726562
0, 3, 92, 206.3433227539062
0, 3, 93, 197.1252899169922
0, 3, 94, 192.5709533691406
0, 3, 95, 212.1922760009766
0, 3, 96, 208.3901977539062
0, 3, 97, 167.8506469726562
0, 3, 98, 168.8170928955078
0, 3, 99, 180.500732421875
0, 3, 100, 177.2809295654297
0, 3, 101, 198.0074157714844
0, 3, 102, 196.9129180908203
0, 3, 103, 193.9328765869141
0, 3, 104, 202.5758666992188
0, 3, 105, 175.9904174804688
0, 3, 106, 182.0728607177734
0, 3, 107, 169.1853942871094
0, 3, 108, 107.8194732666016
0, 3, 109, 27.84714317321777
0, 3, 110, 7.014397144317627
0, 3, 111, 6.507731914520264
0, 3, 112, 4.273084163665771
0, 3, 113, 6.596049308776855
0, 3, 114, 4.409381866455078
0, 3, 115, 4.616641044616699
0, 3, 116, 6.350513458251953
0, 3, 117, 3.98358678817749
0, 3, 118, 2.209357976913452
0, 3, 119, 2.488675355911255
0, 3, 120, 2.819575548171997
0, 3, 121, 3.13661527633667
0, 3, 122, 2.297828435897827
0, 3, 123, 3.256154775619507
0, 3, 124, 2.530574798583984
0, 3, 125, 1.89358389377594
0, 3, 126, 1.603754639625549
0, 3, 127, 1.247647404670715
0, 4, 0, 1.216365575790405
0, 4, 1, 0.547477126121521
0, 4, 2, 2.438937425613403
0, 4, 3, 3.440932035446167
0, 4, 4, 1.267160058021545
0, 4, 5, 1.801905989646912
0, 4, 6, 2.006050586700439
0, 4, 7, 2.739575386047363
0, 4, 8, 1.648860454559326
0, 4, 9, 1.956049919128418
0, 4, 10, 2.31868052482605
0, 4, 11, 3.80400276184082
0, 4, 12, 3.280467987060547
0, 4, 13, 4.121912002563477
0, 4, 14, 4.722445011138916
0, 4, 15, 7.800922870635986
0, 4, 16, 6.04767894744873
0, 4, 17, 11.63220691680908
0, 4, 18, 55.76604080200195
0, 4, 19, 150.7251129150391
0, 4, 20, 193.0662384033203
0, 4, 21, 169.5812377929688
0, 4, 22, 188.5193023681641
0, 4, 23, 196.6581878662109
0, 4, 24, 193.1698760986328
0, 4, 25, 199.455078125
0, 4, 26, 183.3632965087891
0, 4, 27, 190.9744415283203
0, 4, 28, 177.4052276611328
0, 4, 29, 205.9862518310547
0, 4, 30, 195.1439208984375
0, 4, 31, 193.5306396484375
0, 4, 32, 212.7447814941406
0, 4, 33, 189.5211181640625
0, 4, 34, 192.2474365234375
0, 4, 35, 214.0529632568359
0, 4, 36, 193.1061248779297
0, 4, 37, 176.4875793457031
0, 4, 38, 195.1529541015625
0, 4, 39, 189.5265197753906
0, 4, 40, 184.8556518554688
0, 4, 41, 188.8155670166016
0, 4, 42, 206.3572540283203
0, 4, 43, 173.3769226074219
0, 4, 44, 183.2420806884766
0, 4, 45, 196.7339019775391
0, 4, 46, 185.7488708496094
0, 4, 47, 179.2206878662109
0, 4, 48, 187.091552734375
0, 4, 49, 175.7939605712891
0, 4, 50, 187.3343963623047
0, 4, 51, 199.1248321533203
0, 4, 52, 222.9107208251953
0, 4, 53, 205.6177368164062
0, 4, 54, 190.5451507568359
0, 4, 55, 175.0195007324219
0, 4, 56, 190.9245758056641
0, 4, 57, 192.2295532226562
0, 4, 58, 187.5312347412109
0, 4, 59, 189.0911407470703
0, 4, 60, 196.3882141113281
0, 4, 61, 193.7511444091797
0, 4, 62, 190.28857421875
0, 4, 63, 178.5862579345703
0, 4, 64, 211.2104797363281
0, 4, 65, 190.8498687744141
0, 4, 66, 201.4319763183594
0, 4, 67, 199.8722839355469
0, 4, 68, 201.3764343261719
0, 4, 69, 200.3667144775391
0, 4, 70, 204.1095123291016
0, 4, 71, 205.9814758300781
0, 4, 72, 216.0800323486328
0, 4, 73, 185.9982452392578
0, 4, 74, 179.5138397216797
0, 4, 75, 184.9913024902344
0, 4, 76, 190.5021362304688
0, 4, 77, 183.9085693359375
0, 4, 78, 196.7760467529297
0, 4, 79, 203.9275360107422
0, 4, 80, 211.5690155029297
0, 4, 81, 200.4216918945312
0, 4, 82, 181.4255828857422
0, 4, 83, 169.0655059814453
0, 4, 84, 193.5546875
0, 4, 85, 197.1761169433594
0, 4, 86, 183.9167327880859
0, 4, 87, 184.5301055908203
0, 4, 88, 203.8659362792969
0, 4, 89, 187.8340148925781
0, 4, 90, 211.2731018066406
0, 4, 91, 189.5519866943359
0, 4, 92, 198.6516418457031
0, 4, 93, 195.5334930419922
0, 4, 94, 181.3260498046875
0, 4, 95, 173.6388244628906
0, 4, 96, 190.1432495117188
0, 4, 97, 191.9867553710938
0, 4, 98, 200.9401092529297
0, 4, 99, 183.5161743164062
0, 4, 100, 183.0417327880859
0, 4, 101, 178.6494903564453
0, 4, 102, 173.3800964355469
0, 4, 103, 185.2418670654297
0, 4, 104, 209.3130645751953
0, 4, 105, 189.8843383789062
0, 4, 106, 179.8496398925781
0, 4, 107, 181.4126129150391
0, 4, 108, 152.0408020019531
0, 4, 109, 50.28868103027344
0, 4, 110, 11.24859428405762
0, 4, 111, 7.237899780273438
0, 4, 112, 5.628348827362061
0, 4, 113, 4.927426338195801
0, 4, 114, 5.735645294189453
0, 4, 115, 3.349047660827637
0, 4, 116, 4.71364164352417
0, 4, 117, 1.514744281768799
0, 4, 118, 4.329279899597168
0, 4, 119, 3.912351846694946
0, 4, 120, 2.272599458694458
0, 4, 121, 2.200050830841064
0, 4, 122, 3.327337503433228
0, 4, 123, 4.085046291351318
0, 4, 124, 3.901040554046631
0, 4, 125, 2.962223768234253
0, 4, 126, 1.02085292339325
0, 4, 127, 1.310198187828064
0, 5, 0, 1.14200484752655
0, 5, 1, 3.878469467163086
0, 5, 2, 5.688495635986328
0, 5, 3, 3.71470308303833
0, 5, 4, 2.723812818527222
0, 5, 5, 4.050875663757324
0, 5, 6, 2.395258665084839
0, 5, 7, 2.730786800384521
0, 5, 8, 2.325854778289795
0, 5, 9, 2.517811059951782
0, 5, 10, 4.192535877227783
0, 5, 11, 5.728690624237061
0, 5, 12, 3.974251747131348
0, 5, 13, 3.705525875091553
0, 5, 14, 5.388720512390137
0, 5, 15, 9.830121994018555
0, 5, 16, 6.973814964294434
0, 5, 17, 21.55498886108398
0, 5, 18, 83.01496887207031
0, 5, 19, 164.5740356445312
0, 5, 20, 184.5317077636719
0, 5, 21, 177.7000885009766
0, 5, 22, 172.4585113525391
0, 5, 23, 200.4747772216797
0, 5, 24, 186.4943084716797
0, 5, 25, 208.9629364013672
0, 5, 26, 182.1723480224609
0, 5, 27, 193.8846435546875
0, 5, 28, 190.8297882080078
0, 5, 29, 195.6041412353516
0, 5, 30, 177.7201995849609
0, 5, 31, 180.1872406005859
0, 5, 32, 186.6737670898438
0, 5, 33, 170.10400390625
0, 5, 34, 195.4770202636719
0, 5, 35, 200.1432037353516
0, 5, 36, 170.0334014892578
0, 5, 37, 197.1940155029297
0, 5, 38, 181.7810516357422
0, 5, 39, 186.7936553955078
0, 5, 40, 197.6865997314453
0, 5, 41, 177.5235290527344
0, 5, 42, 187.1714019775391
0, 5, 43, 191.7095031738281
0, 5, 44, 199.4514007568359
0, 5, 45, 187.3265533447266
0, 5, 46, 192.7972717285156
0, 5, 47, 180.1651306152344
0, 5, 48, 177.5610809326172
0, 5, 49, 175.9955749511719
0, 5, 50, 186.0355224609375
0, 5, 51, 171.5414276123047
0, 5, 52, 167.5136871337891
0, 5, 53, 181.7507781982422
0, 5, 54, 172.6480407714844
0, 5, 55, 215.5055084228516
0, 5, 56, 181.60986328125
0, 5, 57, 208.4196472167969
0, 5, 58, 181.7140197753906
0, 5, 59, 181.2734222412109
0, 5, 60, 219.1509246826172
0, 5, 61, 184.7766265869141
0, 5, 62, 179.1823577880859
0, 5, 63, 180.1451873779297
0, 5, 64, 195.2685089111328
0, 5, 65, 209.4857940673828
0, 5, 66, 192.8975372314453
0, 5, 67, 199.9399871826172
0, 5, 68, 186.8514556884766
0, 5, 69, 186.2339630126953
0, 5, 70, 186.2212371826172
0, 5, 71, 193.8798370361328
0, 5, 72, 197.6809844970703
0, 5, 73, 201.6776123046875
0, 5, 74, 181.7638549804688
0, 5, 75, 203.2546691894531
0, 5, 76, 214.6207733154297
0, 5, 77, 181.3481292724609
0, 5, 78, 194.9245147705078
0, 5, 79, 190.3700714111328
0, 5, 80, 197.3229064941406
0, 5, 81, 203.4427185058594
0, 5, 82, 201.8667449951172
0, 5, 83, 189.8071136474609
0, 5, 84, 205.7726440429688
0, 5, 85, 177.3943328857422
0, 5, 86, 195.709716796875
0, 5, 87, 187.5913543701172
0, 5, 88, 177.1448516845703
0, 5, 89, 194.3355865478516
0, 5, 90, 199.027099609375
0, 5, 91, 194.1453247070312
0, 5, 92, 190.4169464111328
0, 5, 93, 188.9444885253906
0, 5, 94, 207.1574249267578
0, 5, 95, 178.8595581054688
0, 5, 96, 182.6765899658203
0, 5, 97, 192.0298004150391
0, 5, 98, 188.6212768554688
0, 5, 99, 195.8562469482422
0, 5, 100, 185.2229614257812
0, 5, 101, 195.1649017333984
0, 5, 102, 181.1089935302734
0, 5, 103, 176.0432434082031
0, 5, 104, 190.4363708496094
0, 5, 105, 189.5833282470703
0, 5, 106, 176.8406219482422
0, 5, 107, 182.4425506591797
0, 5, 108, 176.5205535888672
0, 5, 109, 90.6785888671875
0, 5, 110, 32.39000701904297
0, 5, 111, 8.313929557800293
0, 5, 112, 6.631168365478516
0, 5, 113, 6.332131862640381
0, 5, 114, 5.52626895904541
0, 5, 115, 5.68373966217041
0, 5, 116, 4.281596660614014
0, 5, 117, 3.485203266143799
0, 5, 118, 3.806382656097412
0, 5, 119, 3.380874633789062
0, 5, 120, 3.318470239639282
0, 5, 121, 1.988080263137817
0, 5, 122, 4.415867805480957
0, 5, 123, 4.27197790145874
0, 5, 124, 3.417157649993896
0, 5, 125, 1.511569023132324
0, 5, 126, 2.865154266357422
0, 5, 127, 2.14950156211853
0, 6, 0, 4.121290683746338
0, 6, 1, 2.656791925430298
0, 6, 2, 2.865588188171387
0, 6, 3, 1.383959174156189
0, 6, 4, 3.804318189620972
0, 6, 5, 2.367275714874268
0, 6, 6, 3.459673881530762
0, 6, 7, 3.902873992919922
0, 6, 8, 3.698284149169922
0, 6, 9, 4.083786964416504
0, 6, 10, 3.923362493515015
0, 6, 11, 4.079033374786377
0, 6, 12, 5.882498741149902
0, 6, 13, 6.123265743255615
0, 6, 14, 7.191580772399902
0, 6, 15, 6.856346130371094
0, 6, 16, 14.36165523529053
0, 6, 17, 29.32289123535156
0, 6, 18, 112.2142639160156
0, 6, 19, 193.0511169433594
0, 6, 20, 197.9139251708984
0, 6, 21, 198.3474578857422
0, 6, 22, 190.6529846191406
0, 6, 23, 190.96875
0, 6, 24, 200.3857116699219
0, 6, 25, 181.6484375
0, 6, 26, 186.7010955810547
0, 6, 27, 191.6131286621094
0, 6, 28, 188.8738861083984
0, 6, 29, 211.1206359863281
0, 6, 30, 189.765380859375
0, 6, 31, 192.6320343017578
0, 6, 32, 205.7061309814453
0, 6, 33, 184.2478637695312
0, 6, 34, 197.0201568603516
0, 6, 35, 188.6806945800781
0, 6, 36, 180.7100677490234
0, 6, 37, 183.7629089355469
0, 6, 38, 185.7454223632812
0, 6, 39, 194.9500579833984
0, 6, 40, 175.3348846435547
0, 6, 41, 184.8372192382812
0, 6, 42, 174.8043518066406
0, 6, 43, 210.8448791503906
0, 6, 44, 209.4242706298828
0, 6, 45, 193.1229705810547
0, 6, 46, 187.3842620849609
0, 6, 47, 205.2999725341797
0, 6, 48, 189.1175231933594
0, 6, 49, 179.2918395996094
0, 6, 50, 181.6982116699219
0, 6, 51, 197.0225982666016
0, 6, 52, 198.0928497314453
0, 6, 53, 184.7079162597656
0, 6, 54, 175.2874603271484
0, 6, 55, 195.2612915039062
0, 6, 56, 202.3325042724609
0, 6, 57, 194.1052093505859
0, 6, 58, 179.8589019775391
0, 6, 59, 193.3147277832031
0, 6, 60, 184.8046722412109
0, 6, 61, 194.1967620849609
0, 6, 62, 198.6679382324219
0, 6, 63, 186.8336944580078
0, 6, 64, 171.0248413085938
0, 6, 65, 188.2054901123047
0, 6, 66, 198.2126770019531
0, 6, 67, 213.0252380371094
0, 6, 68, 179.7608947753906
0, 6, 69, 170.4876708984375
0, 6, 70, 187.8301849365234
0, 6, 71, 170.1273651123047
0, 6, 72, 175.5974578857422
0, 6, 73, 177.2851104736328
0, 6, 74, 209.6378631591797
0, 6, 75, 228.7975769042969
0, 6, 76, 184.1000061035156
0, 6, 77, 172.0593414306641
0, 6, 78, 175.4184417724609
0, 6, 79, 186.2199096679688
0, 6, 80, 188.088134765625
0, 6, 81, 208.6033020019531
0, 6, 82, 197.9478149414062
0, 6, 83, 194.2375335693359
0, 6, 84, 197.3400115966797
0, 6, 85, 180.4632415771484
0, 6, 86, 200.6963806152344
0, 6, 87, 183.3139190673828
0, 6, 88, 192.7560577392578
0, 6, 89, 187.9071197509766
0, 6, 90, 205.4482574462891
0, 6, 91, 200.0326232910156
0, 6, 92, 172.3143920898438
0, 6, 93, 194.9343414306641
0, 6, 94, 191.1633758544922
0, 6, 95, 184.9143981933594
0, 6, 96, 189.1812896728516
0, 6, 97, 194.1304626464844
0, 6, 98, 183.2300567626953
0, 6, 99, 175.0073699951172
0, 6, 100, 200.4974212646484
0, 6, 101, 168.0911712646484
0, 6, 102, 201.7668609619141
0, 6, 103, 195.60546875
0, 6, 104, 184.1631317138672
0, 6, 105, 193.9796752929688
0, 6, 106, 177.0582580566406
0, 6, 107, 194.2377014160156
0, 6, 108, 170.7800445556641
0, 6, 109, 114.2974166870117
0, 6, 110, 33.09955978393555
0, 6, 111, 9.459959983825684
0, 6, 112, 10.52164936065674
0, 6, 113, 5.491295337677002
0, 6, 114, 6.199859142303467
0, 6, 115, 4.447536945343018
0, 6, 116, 3.461223840713501
0, 6, 117, 4.330655574798584
0, 6, 118, 3.28527569770813
0, 6, 119, 3.643558502197266
0, 6, 120, 3.632297992706299
0, 6, 121, 3.740846872329712
0, 6, 122, 2.159732103347778
0, 6, 123, 2.534252882003784
0, 6, 124, 2.279008626937866
0, 6, 125, 3.71558141708374
0, 6, 126, 3.972888231277466
0, 6, 127, 2.078992605209351
0, 7, 0, 3.758731842041016
0, 7, 1, 1.424112796783447
0, 7, 2, 3.566545248031616
0, 7, 3, 3.062460899353027
0, 7, 4, 0.8197546005249023
0, 7, 5, 1.010685205459595
0, 7, 6, 1.731490731239319
0, 7, 7, 1.597190380096436
0, 7, 8, 2.493500947952271
0, 7, 9, 3.042928695678711
0, 7, 10, 4.420645713806152
0, 7, 11, 3.211079359054565
0, 7, 12, 2.918670654296875
0, 7, 13, 5.151392459869385
0, 7, 14, 7.039698123931885
0, 7, 15, 7.530479431152344
0, 7, 16, 16.38991546630859
0, 7, 17, 50.92797088623047
0, 7, 18, 160.8684844970703
0, 7, 19, 181.9740447998047
0, 7, 20, 179.5438842773438
0, 7, 21, 180.0864410400391
0, 7, 22, 190.4549713134766
0, 7, 23, 202.6611022949219
0, 7, 24, 180.1839752197266
0, 7, 25, 212.8274383544922
0, 7, 26, 189.1821136474609
0, 7, 27, 181.9836273193359
0, 7, 28, 182.0052185058594
0, 7, 29, 209.0251617431641
0, 7, 30, 193.0049896240234
0, 7, 31, 175.522216796875
0, 7, 32, 190.8598937988281
0, 7, 33, 180.5944061279297
0, 7, 34, 193.4944610595703
0, 7, 35, 197.2230834960938
0, 7, 36, 187.6265869140625
0, 7, 37, 213.0272674560547
0, 7, 38, 191.1220550537109
0, 7, 39, 173.4398651123047
0, 7, 40, 182.9026947021484
0, 7, 41, 184.7781372070312
0, 7, 42, 178.1219177246094
0, 7, 43, 177.8323974609375
0, 7, 44, 179.16748046875
0, 7, 45, 174.1741485595703
0, 7, 46, 189.6810607910156
0, 7, 47, 198.6921997070312
0, 7, 48, 185.8363647460938
0, 7, 49, 200.7740936279297
0, 7, 50, 188.1932678222656
0, 7, 51, 205.2072906494141
0, 7, 52, 203.6532897949219
0, 7, 53, 191.8936462402344
0, 7, 54, 195.9340057373047
0, 7, 55, 203.6110229492188
0, 7, 56, 183.1872863769531
0, 7, 57, 184.1309661865234
0, 7, 58, 191.08349609375
0, 7, 59, 186.74755859375
0, 7, 60, 202.4922332763672
0, 7, 61, 170.8549499511719
0, 7, 62, 203.8998870849609
0, 7, 63, 188.8455963134766
0, 7, 64, 199.3250427246094
0, 7, 65, 195.5798492431641
0, 7, 66, 205.6383666992188
0, 7, 67, 219.3440551757812
0, 7, 68, 162.0658569335938
0, 7, 69, 195.1031341552734
0, 7, 70, 217.8097991943359
0, 7, 71, 183.9046325683594
0, 7, 72, 180.1686096191406
0, 7, 73, 176.6941680908203
0, 7, 74, 207.2747344970703
0, 7, 75, 203.8976593017578
0, 7, 76, 215.5402526855469
0, 7, 77, 173.2659759521484
0, 7, 78, 176.3537750244141
0, 7, 79, 194.1782073974609
0, 7, 80, 195.4669799804688
0, 7, 81, 214.2172088623047
0, 7, 82, 184.6028900146484
0, 7, 83, 205.071044921875
0, 7, 84, 192.7578582763672
0, 7, 85, 186.6902923583984
0, 7, 86, 200.6375579833984
0, 7, 87, 226.1304473876953
0, 7, 88, 194.6304321289062
0, 7, 89, 178.0182952880859
0, 7, 90, 182.3941802978516
0, 7, 91, 194.221923828125
0, 7, 92, 194.9148864746094
0, 7, 93, 198.2313385009766
0, 7, 94, 177.0199127197266
0, 7, 95, 198.4508361816406
0, 7, 96, 209.2996063232422
0, 7, 97, 190.0612487792969
0, 7, 98, 176.1352233886719
0, 7, 99, 197.8632202148438
0, 7, 100, 182.0411376953125
0, 7, 101, 199.5944366455078
0, 7, 102, 184.9075012207031
0, 7, 103, 181.8678283691406
0, 7, 104, 174.3267974853516
0, 7, 105, 196.9554595947266
0, 7, 106, 205.3903503417969
0, 7, 107, 174.3957061767578
0, 7, 108, 176.7860107421875
0, 7, 109, 138.5145416259766
0, 7, 110, 53.7200927734375
0, 7, 111, 8.827920913696289
0, 7, 112, 8.292941093444824
0, 7, 113, 9.289710998535156
0, 7, 114, 6.995766639709473
0, 7, 115, 5.291547775268555
0, 7, 116, 3.965151786804199
0, 7, 117, 3.560927867889404
0, 7, 118, 3.309776544570923
0, 7, 119, 2.789514541625977
0, 7, 120, 2.551730632781982
0, 7, 121, 2.738061428070068
0, 7, 122, 4.00886058807373
0, 7, 123, 1.436717629432678
0, 7, 124, 1.100168228149414
0, 7, 125, 1.381255745887756
0, 7, 126, 3.732557773590088
0, 7, 127, 2.429919958114624
0, 8, 0, 4.439276218414307
0, 8, 1, 2.103821277618408
0, 8, 2, 2.179274559020996
0, 8, 3, 3.000770330429077
0, 8, 4, 1.458784818649292
0, 8, 5, 3.622172832489014
0, 8, 6, 2.843332290649414
0, 8, 7, 2.653687477111816
0, 8, 8, 4.557255268096924
0, 8, 9, 4.399095058441162
0, 8, 10, 2.241324663162231
0, 8, 11, 2.817524433135986
0, 8, 12, 3.768608331680298
0, 8, 13, 4.860801219940186
0, 8, 14, 6.326355457305908
0, 8, 15, 8.305074691772461
0, 8, 16, 19.23587989807129
0, 8, 17, 73.79416656494141
0, 8, 18, 142.0846405029297
0, 8, 19, 178.9071350097656
0, 8, 20, 192.5647888183594
0, 8, 21, 191.9555206298828
0, 8, 22, 180.4888610839844
0, 8, 23, 172.7067108154297
0, 8, 24, 191.9188995361328
0, 8, 25, 184.4656677246094
0, 8, 26, 192.4493255615234
0, 8, 27, 186.2819976806641
0, 8, 28, 186.9100952148438
0, 8, 29, 206.3450775146484
0, 8, 30, 196.9612731933594
0, 8, 31, 183.1743774414062
0, 8, 32, 197.6033477783203
0, 8, 33, 206.1262359619141
0, 8, 34, 204.1200561523438
0, 8, 35, 185.5011291503906
0, 8, 36, 181.6575927734375
