# TOPAS Version: 3.1.p3
# Parameter File: batch_inserts_206.txt
# Results for scorer Readout_Adipose
# Scored in component: MyBox
# X in 1 bin  of 0.65 cm
# Y in 512 bins of 0.0783984 cm
# Z in 128 bins of 0.078125 cm
# EnergyDeposit ( MeV ) : Sum   
0, 0, 0, 1.611389398574829
0, 0, 1, 5.028816699981689
0, 0, 2, 1.346136569976807
0, 0, 3, 1.723951578140259
0, 0, 4, 1.220510601997375
0, 0, 5, 2.149927616119385
0, 0, 6, 1.202451229095459
0, 0, 7, 3.156928062438965
0, 0, 8, 2.453050851821899
0, 0, 9, 3.651491165161133
0, 0, 10, 2.164381265640259
0, 0, 11, 4.139798164367676
0, 0, 12, 4.325589656829834
0, 0, 13, 2.632118463516235
0, 0, 14, 5.511852741241455
0, 0, 15, 6.350988864898682
0, 0, 16, 4.592883110046387
0, 0, 17, 6.444142818450928
0, 0, 18, 6.017566680908203
0, 0, 19, 23.56370162963867
0, 0, 20, 94.25962829589844
0, 0, 21, 152.5420227050781
0, 0, 22, 155.2641906738281
0, 0, 23, 145.1758270263672
0, 0, 24, 159.1559448242188
0, 0, 25, 166.2632904052734
0, 0, 26, 166.6649627685547
0, 0, 27, 175.3806915283203
0, 0, 28, 177.7302093505859
0, 0, 29, 174.8072204589844
0, 0, 30, 171.9115600585938
0, 0, 31, 166.3877105712891
0, 0, 32, 164.5504760742188
0, 0, 33, 167.8363647460938
0, 0, 34, 176.8078308105469
0, 0, 35, 174.7854766845703
0, 0, 36, 158.9214935302734
0, 0, 37, 161.0591888427734
0, 0, 38, 166.5395660400391
0, 0, 39, 159.6281127929688
0, 0, 40, 164.6044158935547
0, 0, 41, 165.6611785888672
0, 0, 42, 143.2799682617188
0, 0, 43, 167.3608245849609
0, 0, 44, 177.5716247558594
0, 0, 45, 173.3818969726562
0, 0, 46, 165.9886627197266
0, 0, 47, 167.3533630371094
0, 0, 48, 169.1352996826172
0, 0, 49, 183.0693359375
0, 0, 50, 168.9252014160156
0, 0, 51, 161.9949035644531
0, 0, 52, 162.5362396240234
0, 0, 53, 172.4292144775391
0, 0, 54, 161.3581848144531
0, 0, 55, 165.9700164794922
0, 0, 56, 189.5709381103516
0, 0, 57, 169.6654815673828
0, 0, 58, 161.0977325439453
0, 0, 59, 172.3444366455078
0, 0, 60, 168.692626953125
0, 0, 61, 171.5048065185547
0, 0, 62, 183.2260589599609
0, 0, 63, 168.5438842773438
0, 0, 64, 164.0825042724609
0, 0, 65, 175.7946472167969
0, 0, 66, 177.7951049804688
0, 0, 67, 165.4115142822266
0, 0, 68, 157.9718627929688
0, 0, 69, 158.1889495849609
0, 0, 70, 169.7046508789062
0, 0, 71, 158.2859802246094
0, 0, 72, 165.0285949707031
0, 0, 73, 172.2360076904297
0, 0, 74, 161.8694000244141
0, 0, 75, 164.0791778564453
0, 0, 76, 163.4589080810547
0, 0, 77, 171.7556762695312
0, 0, 78, 181.5311737060547
0, 0, 79, 176.5140991210938
0, 0, 80, 159.4009857177734
0, 0, 81, 159.44873046875
0, 0, 82, 183.6322937011719
0, 0, 83, 174.5149230957031
0, 0, 84, 159.9671478271484
0, 0, 85, 181.0578918457031
0, 0, 86, 159.0024261474609
0, 0, 87, 176.6528015136719
0, 0, 88, 176.6587677001953
0, 0, 89, 175.0502777099609
0, 0, 90, 160.8571624755859
0, 0, 91, 187.9039611816406
0, 0, 92, 164.4253845214844
0, 0, 93, 157.1208038330078
0, 0, 94, 169.7535705566406
0, 0, 95, 172.9418487548828
0, 0, 96, 183.9077911376953
0, 0, 97, 183.2279968261719
0, 0, 98, 185.8188629150391
0, 0, 99, 171.5219116210938
0, 0, 100, 158.9405059814453
0, 0, 101, 166.6582489013672
0, 0, 102, 171.3464660644531
0, 0, 103, 171.4239349365234
0, 0, 104, 168.3497467041016
0, 0, 105, 177.8498229980469
0, 0, 106, 158.5195770263672
0, 0, 107, 86.06253814697266
0, 0, 108, 21.10446166992188
0, 0, 109, 9.559082984924316
0, 0, 110, 5.393806934356689
0, 0, 111, 6.620886325836182
0, 0, 112, 3.78855562210083
0, 0, 113, 2.715709447860718
0, 0, 114, 1.540838360786438
0, 0, 115, 3.339662790298462
0, 0, 116, 3.052598237991333
0, 0, 117, 2.963670253753662
0, 0, 118, 3.184090852737427
0, 0, 119, 3.387730598449707
0, 0, 120, 1.584563255310059
0, 0, 121, 3.333542346954346
0, 0, 122, 5.119815349578857
0, 0, 123, 4.061963558197021
0, 0, 124, 0.8779417872428894
0, 0, 125, 2.88277792930603
0, 0, 126, 2.862496137619019
0, 0, 127, 1.552584886550903
0, 1, 0, 1.296895623207092
0, 1, 1, 4.146805286407471
0, 1, 2, 3.378546476364136
0, 1, 3, 1.654002785682678
0, 1, 4, 0.6237213015556335
0, 1, 5, 1.062349557876587
0, 1, 6, 2.16718602180481
0, 1, 7, 2.342540264129639
0, 1, 8, 1.647875666618347
0, 1, 9, 1.632463455200195
0, 1, 10, 4.921548843383789
0, 1, 11, 5.026725769042969
0, 1, 12, 3.360839605331421
0, 1, 13, 2.298151016235352
0, 1, 14, 5.164945125579834
0, 1, 15, 6.104276657104492
0, 1, 16, 7.356924057006836
0, 1, 17, 5.509727001190186
0, 1, 18, 10.38679790496826
0, 1, 19, 39.26537322998047
0, 1, 20, 125.4025802612305
0, 1, 21, 178.0760040283203
0, 1, 22, 193.5550384521484
0, 1, 23, 187.0570373535156
0, 1, 24, 179.7526245117188
0, 1, 25, 191.9641723632812
0, 1, 26, 197.8254089355469
0, 1, 27, 187.4261627197266
0, 1, 28, 187.8934631347656
0, 1, 29, 183.3378448486328
0, 1, 30, 180.2196197509766
0, 1, 31, 182.31396484375
0, 1, 32, 188.2757720947266
0, 1, 33, 191.3062438964844
0, 1, 34, 185.1891021728516
0, 1, 35, 192.9480895996094
0, 1, 36, 205.2077941894531
0, 1, 37, 185.0358428955078
0, 1, 38, 165.1195678710938
0, 1, 39, 171.3251647949219
0, 1, 40, 179.5009918212891
0, 1, 41, 185.849609375
0, 1, 42, 183.2040100097656
0, 1, 43, 188.2758636474609
0, 1, 44, 167.3438720703125
0, 1, 45, 188.6535186767578
0, 1, 46, 170.6229858398438
0, 1, 47, 184.0021514892578
0, 1, 48, 188.7639923095703
0, 1, 49, 185.8092346191406
0, 1, 50, 178.9598541259766
0, 1, 51, 191.4469909667969
0, 1, 52, 195.3806304931641
0, 1, 53, 197.1968383789062
0, 1, 54, 184.869140625
0, 1, 55, 165.0403747558594
0, 1, 56, 179.6231536865234
0, 1, 57, 177.7373809814453
0, 1, 58, 189.9592742919922
0, 1, 59, 193.2517547607422
0, 1, 60, 189.6737213134766
0, 1, 61, 177.5765228271484
0, 1, 62, 204.7365570068359
0, 1, 63, 173.4245758056641
0, 1, 64, 172.6399230957031
0, 1, 65, 186.2049560546875
0, 1, 66, 204.1375579833984
0, 1, 67, 182.3491821289062
0, 1, 68, 186.5009307861328
0, 1, 69, 188.7232513427734
0, 1, 70, 185.6439361572266
0, 1, 71, 171.1517486572266
0, 1, 72, 189.0663604736328
0, 1, 73, 191.0832977294922
0, 1, 74, 201.1994171142578
0, 1, 75, 184.7528839111328
0, 1, 76, 174.7536468505859
0, 1, 77, 191.3110809326172
0, 1, 78, 188.0632171630859
0, 1, 79, 203.4970092773438
0, 1, 80, 185.205078125
0, 1, 81, 175.6212310791016
0, 1, 82, 206.7765655517578
0, 1, 83, 212.3349609375
0, 1, 84, 179.8460845947266
0, 1, 85, 169.7564239501953
0, 1, 86, 168.8684234619141
0, 1, 87, 186.3991241455078
0, 1, 88, 177.3217468261719
0, 1, 89, 187.630615234375
0, 1, 90, 212.9708251953125
0, 1, 91, 180.4320220947266
0, 1, 92, 184.4218139648438
0, 1, 93, 182.7917633056641
0, 1, 94, 185.6858673095703
0, 1, 95, 184.6230163574219
0, 1, 96, 196.2361297607422
0, 1, 97, 183.1270599365234
0, 1, 98, 186.9408874511719
0, 1, 99, 175.4202423095703
0, 1, 100, 171.3545989990234
0, 1, 101, 177.2829895019531
0, 1, 102, 181.9047241210938
0, 1, 103, 173.5317993164062
0, 1, 104, 190.2315216064453
0, 1, 105, 182.9202423095703
0, 1, 106, 164.4073944091797
0, 1, 107, 123.4152450561523
0, 1, 108, 48.60016632080078
0, 1, 109, 10.38515853881836
0, 1, 110, 6.900173664093018
0, 1, 111, 7.270037651062012
0, 1, 112, 7.863656997680664
0, 1, 113, 6.90534496307373
0, 1, 114, 5.13645076751709
0, 1, 115, 6.127645492553711
0, 1, 116, 3.327193021774292
0, 1, 117, 2.461171865463257
0, 1, 118, 3.691236972808838
0, 1, 119, 1.35942280292511
0, 1, 120, 3.402280807495117
0, 1, 121, 4.732699871063232
0, 1, 122, 1.865770220756531
0, 1, 123, 3.632807016372681
0, 1, 124, 2.774280309677124
0, 1, 125, 2.828358173370361
0, 1, 126, 1.598493814468384
0, 1, 127, 1.403968453407288
0, 2, 0, 0.5675415396690369
0, 2, 1, 2.092522859573364
0, 2, 2, 3.153136968612671
0, 2, 3, 1.400638818740845
0, 2, 4, 3.273167610168457
0, 2, 5, 2.485152244567871
0, 2, 6, 3.158322811126709
0, 2, 7, 3.263296604156494
0, 2, 8, 0.8247562050819397
0, 2, 9, 2.220960140228271
0, 2, 10, 4.414926528930664
0, 2, 11, 4.113461971282959
0, 2, 12, 3.944554567337036
0, 2, 13, 5.314783096313477
0, 2, 14, 5.287394046783447
0, 2, 15, 5.475477695465088
0, 2, 16, 3.94135570526123
0, 2, 17, 9.081171035766602
0, 2, 18, 14.14531230926514
0, 2, 19, 77.76885986328125
0, 2, 20, 161.3087768554688
0, 2, 21, 183.4739990234375
0, 2, 22, 194.3585357666016
0, 2, 23, 184.1397705078125
0, 2, 24, 174.3810272216797
0, 2, 25, 184.3059234619141
0, 2, 26, 179.4086608886719
0, 2, 27, 190.2681579589844
0, 2, 28, 170.4472351074219
0, 2, 29, 169.0504760742188
0, 2, 30, 186.9785919189453
0, 2, 31, 182.5287017822266
0, 2, 32, 183.0758819580078
0, 2, 33, 190.7448425292969
0, 2, 34, 199.7676239013672
0, 2, 35, 181.3132781982422
0, 2, 36, 186.9545593261719
0, 2, 37, 181.1101531982422
0, 2, 38, 185.1878662109375
0, 2, 39, 167.0213470458984
0, 2, 40, 184.3260955810547
0, 2, 41, 183.9004058837891
0, 2, 42, 190.1222534179688
0, 2, 43, 193.6938171386719
0, 2, 44, 190.3731231689453
0, 2, 45, 191.3824462890625
0, 2, 46, 195.7511901855469
0, 2, 47, 189.6167755126953
0, 2, 48, 177.0735168457031
0, 2, 49, 198.3178405761719
0, 2, 50, 169.6282501220703
0, 2, 51, 185.0275115966797
0, 2, 52, 186.0244445800781
0, 2, 53, 196.5426940917969
0, 2, 54, 175.166259765625
0, 2, 55, 173.0699310302734
0, 2, 56, 181.7776336669922
0, 2, 57, 199.5781402587891
0, 2, 58, 186.0590667724609
0, 2, 59, 189.2247467041016
0, 2, 60, 197.3389892578125
0, 2, 61, 192.7115478515625
0, 2, 62, 189.8063049316406
0, 2, 63, 169.4595336914062
0, 2, 64, 190.5602722167969
0, 2, 65, 205.4250183105469
0, 2, 66, 195.3655700683594
0, 2, 67, 184.3666076660156
0, 2, 68, 182.7141265869141
0, 2, 69, 188.2364196777344
0, 2, 70, 202.8580169677734
0, 2, 71, 175.2214508056641
0, 2, 72, 186.1629333496094
0, 2, 73, 177.3054504394531
0, 2, 74, 180.3260498046875
0, 2, 75, 197.9662170410156
0, 2, 76, 183.6894226074219
0, 2, 77, 177.5009002685547
0, 2, 78, 197.8482513427734
0, 2, 79, 178.4491271972656
0, 2, 80, 187.2563629150391
0, 2, 81, 186.5612182617188
0, 2, 82, 205.5125885009766
0, 2, 83, 203.5058746337891
0, 2, 84, 188.1884460449219
0, 2, 85, 170.7893371582031
0, 2, 86, 194.8881530761719
0, 2, 87, 171.6260833740234
0, 2, 88, 178.6383361816406
0, 2, 89, 185.5877838134766
0, 2, 90, 177.7801513671875
0, 2, 91, 175.0540008544922
0, 2, 92, 196.7798614501953
0, 2, 93, 195.6822052001953
0, 2, 94, 200.1505889892578
0, 2, 95, 193.433837890625
0, 2, 96, 186.9367218017578
0, 2, 97, 171.4857788085938
0, 2, 98, 173.4784698486328
0, 2, 99, 161.7017364501953
0, 2, 100, 187.1504516601562
0, 2, 101, 196.4568176269531
0, 2, 102, 177.1569213867188
0, 2, 103, 199.6983795166016
0, 2, 104, 187.7915344238281
0, 2, 105, 201.9036712646484
0, 2, 106, 194.6360321044922
0, 2, 107, 148.9526977539062
0, 2, 108, 79.49872589111328
0, 2, 109, 17.74258613586426
0, 2, 110, 10.37709617614746
0, 2, 111, 5.689925193786621
0, 2, 112, 3.361568927764893
0, 2, 113, 4.261835098266602
0, 2, 114, 7.397277355194092
0, 2, 115, 3.468979597091675
0, 2, 116, 4.052859306335449
0, 2, 117, 2.30910587310791
0, 2, 118, 2.529963493347168
0, 2, 119, 2.55760931968689
0, 2, 120, 2.20050573348999
0, 2, 121, 3.742947101593018
0, 2, 122, 2.569468975067139
0, 2, 123, 4.657466411590576
0, 2, 124, 2.245359659194946
0, 2, 125, 2.572685480117798
0, 2, 126, 2.91947865486145
0, 2, 127, 2.543124437332153
0, 3, 0, 2.449724912643433
0, 3, 1, 2.006707906723022
0, 3, 2, 1.716849803924561
0, 3, 3, 2.771637678146362
0, 3, 4, 3.969056367874146
0, 3, 5, 1.482641577720642
0, 3, 6, 1.280240654945374
0, 3, 7, 3.014847278594971
0, 3, 8, 1.864195346832275
0, 3, 9, 1.500723004341125
0, 3, 10, 1.849696159362793
0, 3, 11, 3.589228630065918
0, 3, 12, 4.091433525085449
0, 3, 13, 3.360656499862671
0, 3, 14, 3.984058856964111
0, 3, 15, 8.904574394226074
0, 3, 16, 7.128445625305176
0, 3, 17, 6.688172817230225
0, 3, 18, 32.24969482421875
0, 3, 19, 114.9337692260742
0, 3, 20, 179.7696380615234
0, 3, 21, 173.7726287841797
0, 3, 22, 178.4223785400391
0, 3, 23, 188.3566436767578
0, 3, 24, 177.9779510498047
0, 3, 25, 168.2420806884766
0, 3, 26, 180.9629516601562
0, 3, 27, 188.9526519775391
0, 3, 28, 183.1808166503906
0, 3, 29, 197.7904052734375
0, 3, 30, 185.5879821777344
0, 3, 31, 193.9839172363281
0, 3, 32, 205.6969909667969
0, 3, 33, 198.3704223632812
0, 3, 34, 187.1241607666016
0, 3, 35, 173.3069763183594
0, 3, 36, 184.7425842285156
0, 3, 37, 200.4389343261719
0, 3, 38, 191.1771545410156
0, 3, 39, 185.1738128662109
0, 3, 40, 165.9917144775391
0, 3, 41, 174.7141723632812
0, 3, 42, 185.1030426025391
0, 3, 43, 182.7718811035156
0, 3, 44, 202.4358062744141
0, 3, 45, 208.0232086181641
0, 3, 46, 198.8673706054688
0, 3, 47, 194.0540466308594
0, 3, 48, 194.9184417724609
0, 3, 49, 180.3862152099609
0, 3, 50, 187.2311096191406
0, 3, 51, 175.3062896728516
0, 3, 52, 186.9314117431641
0, 3, 53, 178.4198303222656
0, 3, 54, 180.9418182373047
0, 3, 55, 178.1358489990234
0, 3, 56, 181.8335571289062
0, 3, 57, 175.0569000244141
0, 3, 58, 201.6538238525391
0, 3, 59, 196.6817169189453
0, 3, 60, 187.3139953613281
0, 3, 61, 182.1902923583984
0, 3, 62, 183.1339874267578
0, 3, 63, 185.0862731933594
0, 3, 64, 188.8406066894531
0, 3, 65, 189.3860931396484
0, 3, 66, 175.3069915771484
0, 3, 67, 189.9381103515625
0, 3, 68, 211.94677734375
0, 3, 69, 190.5591278076172
0, 3, 70, 186.171142578125
0, 3, 71, 196.3670349121094
0, 3, 72, 187.5631408691406
0, 3, 73, 187.4500427246094
0, 3, 74, 192.3997344970703
0, 3, 75, 192.8694152832031
0, 3, 76, 192.2345886230469
0, 3, 77, 200.642578125
0, 3, 78, 187.5871124267578
0, 3, 79, 185.9144744873047
0, 3, 80, 189.6064605712891
0, 3, 81, 183.3815002441406
0, 3, 82, 178.4160308837891
0, 3, 83, 194.8727569580078
0, 3, 84, 199.3079833984375
0, 3, 85, 193.3668365478516
0, 3, 86, 204.3560791015625
0, 3, 87, 198.4337768554688
0, 3, 88, 192.04931640625
0, 3, 89, 193.27685546875
0, 3, 90, 173.5677795410156
0, 3, 91, 157.4140319824219
0, 3, 92, 207.2773132324219
0, 3, 93, 195.9985504150391
0, 3, 94, 192.1475372314453
0, 3, 95, 212.0136260986328
0, 3, 96, 209.1348876953125
0, 3, 97, 167.2286224365234
0, 3, 98, 166.8687438964844
0, 3, 99, 180.2694702148438
0, 3, 100, 177.1183013916016
0, 3, 101, 197.5688018798828
0, 3, 102, 194.5751495361328
0, 3, 103, 193.7924957275391
0, 3, 104, 202.7918243408203
0, 3, 105, 176.1812286376953
0, 3, 106, 181.2146759033203
0, 3, 107, 170.5778503417969
0, 3, 108, 109.0540390014648
0, 3, 109, 28.57176399230957
0, 3, 110, 8.916816711425781
0, 3, 111, 6.303139686584473
0, 3, 112, 3.1836097240448
0, 3, 113, 7.473959445953369
0, 3, 114, 4.446712017059326
0, 3, 115, 5.079602718353271
0, 3, 116, 5.085784912109375
0, 3, 117, 4.699621677398682
0, 3, 118, 2.509178638458252
0, 3, 119, 2.750495433807373
0, 3, 120, 4.353115081787109
0, 3, 121, 3.312703609466553
0, 3, 122, 4.757650375366211
0, 3, 123, 1.25705099105835
0, 3, 124, 1.450958609580994
0, 3, 125, 1.047615170478821
0, 3, 126, 1.650082230567932
0, 3, 127, 1.156227469444275
0, 4, 0, 1.53112804889679
0, 4, 1, 0.8216940760612488
0, 4, 2, 1.857155203819275
0, 4, 3, 4.629777431488037
0, 4, 4, 1.63215959072113
0, 4, 5, 1.53191876411438
0, 4, 6, 2.417666435241699
0, 4, 7, 2.569570302963257
0, 4, 8, 1.933881163597107
0, 4, 9, 2.801471471786499
0, 4, 10, 2.66917872428894
0, 4, 11, 4.880652904510498
0, 4, 12, 3.851232051849365
0, 4, 13, 4.70258092880249
0, 4, 14, 4.054820537567139
0, 4, 15, 8.01395320892334
0, 4, 16, 6.186718940734863
0, 4, 17, 12.07912063598633
0, 4, 18, 53.89145278930664
0, 4, 19, 150.0291137695312
0, 4, 20, 193.2872467041016
0, 4, 21, 171.8556976318359
0, 4, 22, 187.0520172119141
0, 4, 23, 195.2470855712891
0, 4, 24, 192.6430358886719
0, 4, 25, 201.8126678466797
0, 4, 26, 183.4819183349609
0, 4, 27, 190.4736633300781
0, 4, 28, 179.9214630126953
0, 4, 29, 205.7120819091797
0, 4, 30, 195.8746795654297
0, 4, 31, 192.2243347167969
0, 4, 32, 209.9708099365234
0, 4, 33, 190.50830078125
0, 4, 34, 192.8991088867188
0, 4, 35, 214.4336090087891
0, 4, 36, 192.9867401123047
0, 4, 37, 177.4109497070312
0, 4, 38, 193.8897247314453
0, 4, 39, 189.5513153076172
0, 4, 40, 185.0701141357422
0, 4, 41, 190.0906982421875
0, 4, 42, 205.8735809326172
0, 4, 43, 173.45361328125
0, 4, 44, 183.4524688720703
0, 4, 45, 195.4670104980469
0, 4, 46, 186.2383880615234
0, 4, 47, 179.9294891357422
0, 4, 48, 185.2889862060547
0, 4, 49, 174.1812133789062
0, 4, 50, 185.7877960205078
0, 4, 51, 197.9058074951172
0, 4, 52, 222.8254547119141
0, 4, 53, 206.8004302978516
0, 4, 54, 189.7689361572266
0, 4, 55, 174.8875122070312
0, 4, 56, 190.6331024169922
0, 4, 57, 192.6878509521484
0, 4, 58, 188.6792449951172
0, 4, 59, 189.390869140625
0, 4, 60, 195.1199645996094
0, 4, 61, 192.9396667480469
0, 4, 62, 189.5779571533203
0, 4, 63, 179.6084136962891
0, 4, 64, 213.4336853027344
0, 4, 65, 192.7813568115234
0, 4, 66, 200.6204528808594
0, 4, 67, 199.7078094482422
0, 4, 68, 200.6426544189453
0, 4, 69, 198.3506011962891
0, 4, 70, 205.4280395507812
0, 4, 71, 207.2902069091797
0, 4, 72, 215.8320007324219
0, 4, 73, 185.5942993164062
0, 4, 74, 181.3436737060547
0, 4, 75, 184.9835510253906
0, 4, 76, 189.5421905517578
0, 4, 77, 183.0396728515625
0, 4, 78, 195.1689758300781
0, 4, 79, 205.0285034179688
0, 4, 80, 213.3399505615234
0, 4, 81, 197.7822875976562
0, 4, 82, 182.1867065429688
0, 4, 83, 170.4470977783203
0, 4, 84, 194.6809234619141
0, 4, 85, 198.1934356689453
0, 4, 86, 181.3055419921875
0, 4, 87, 183.2711486816406
0, 4, 88, 203.8263854980469
0, 4, 89, 187.99462890625
0, 4, 90, 211.1233062744141
0, 4, 91, 190.9357147216797
0, 4, 92, 195.9606475830078
0, 4, 93, 196.5772552490234
0, 4, 94, 183.6445007324219
0, 4, 95, 174.2178649902344
0, 4, 96, 189.322509765625
0, 4, 97, 193.4949188232422
0, 4, 98, 200.1550903320312
0, 4, 99, 182.9613494873047
0, 4, 100, 182.7465057373047
0, 4, 101, 179.3892364501953
0, 4, 102, 172.6650238037109
0, 4, 103, 185.7524871826172
0, 4, 104, 212.1488800048828
0, 4, 105, 189.4510650634766
0, 4, 106, 179.9566955566406
0, 4, 107, 181.0070343017578
0, 4, 108, 151.4502105712891
0, 4, 109, 50.07085418701172
0, 4, 110, 10.75718307495117
0, 4, 111, 8.542967796325684
0, 4, 112, 6.597519874572754
0, 4, 113, 6.878611087799072
0, 4, 114, 5.552361011505127
0, 4, 115, 3.247880458831787
0, 4, 116, 5.15241527557373
0, 4, 117, 3.047547817230225
0, 4, 118, 2.953131437301636
0, 4, 119, 3.615232229232788
0, 4, 120, 3.416248559951782
0, 4, 121, 1.130003690719604
0, 4, 122, 1.38586962223053
0, 4, 123, 1.870322704315186
0, 4, 124, 3.807323217391968
0, 4, 125, 2.24796462059021
0, 4, 126, 2.113148212432861
0, 4, 127, 1.606723785400391
0, 5, 0, 1.312323570251465
0, 5, 1, 1.906416654586792
0, 5, 2, 6.73100471496582
0, 5, 3, 4.899643421173096
0, 5, 4, 4.589768409729004
0, 5, 5, 2.774530649185181
0, 5, 6, 2.736474990844727
0, 5, 7, 3.252404451370239
0, 5, 8, 1.742385149002075
0, 5, 9, 2.755483388900757
0, 5, 10, 3.296588897705078
0, 5, 11, 2.158717393875122
0, 5, 12, 4.227481842041016
0, 5, 13, 3.927489280700684
0, 5, 14, 5.880756855010986
0, 5, 15, 10.52019500732422
0, 5, 16, 10.21544456481934
0, 5, 17, 21.58090019226074
0, 5, 18, 83.55182647705078
0, 5, 19, 166.2577209472656
0, 5, 20, 182.9098205566406
0, 5, 21, 177.8283843994141
0, 5, 22, 169.5893859863281
0, 5, 23, 200.4049530029297
0, 5, 24, 187.1775512695312
0, 5, 25, 208.8095550537109
0, 5, 26, 183.4596557617188
0, 5, 27, 194.0082244873047
0, 5, 28, 188.8269958496094
0, 5, 29, 195.1100616455078
0, 5, 30, 177.8279418945312
0, 5, 31, 179.6790008544922
0, 5, 32, 187.0779113769531
0, 5, 33, 168.7158203125
0, 5, 34, 194.9254150390625
0, 5, 35, 196.5787353515625
0, 5, 36, 168.5010223388672
0, 5, 37, 197.5774078369141
0, 5, 38, 182.1484069824219
0, 5, 39, 185.6806335449219
0, 5, 40, 196.3089294433594
0, 5, 41, 176.8789215087891
0, 5, 42, 186.6994781494141
0, 5, 43, 191.9482879638672
0, 5, 44, 200.1288757324219
0, 5, 45, 186.5654296875
0, 5, 46, 192.7290649414062
0, 5, 47, 179.9184722900391
0, 5, 48, 177.5229797363281
0, 5, 49, 178.5139007568359
0, 5, 50, 186.3109283447266
0, 5, 51, 172.0653533935547
0, 5, 52, 168.8541717529297
0, 5, 53, 182.154296875
0, 5, 54, 172.1001586914062
0, 5, 55, 215.7908630371094
0, 5, 56, 181.3835144042969
0, 5, 57, 206.7166442871094
0, 5, 58, 180.1386871337891
0, 5, 59, 180.276611328125
0, 5, 60, 218.6287994384766
0, 5, 61, 184.3147430419922
0, 5, 62, 178.8406677246094
0, 5, 63, 180.4412994384766
0, 5, 64, 193.7676391601562
0, 5, 65, 209.5904998779297
0, 5, 66, 192.8373107910156
0, 5, 67, 199.7215728759766
0, 5, 68, 187.940673828125
0, 5, 69, 186.6319885253906
0, 5, 70, 186.6718292236328
0, 5, 71, 193.7853698730469
0, 5, 72, 199.2654418945312
0, 5, 73, 200.9350280761719
0, 5, 74, 178.9610290527344
0, 5, 75, 202.9384613037109
0, 5, 76, 213.8711242675781
0, 5, 77, 181.4726409912109
0, 5, 78, 199.2198944091797
0, 5, 79, 191.7856140136719
0, 5, 80, 198.2812347412109
0, 5, 81, 202.7935791015625
0, 5, 82, 201.6422882080078
0, 5, 83, 190.5628509521484
0, 5, 84, 205.4571838378906
0, 5, 85, 175.9128265380859
0, 5, 86, 194.9566345214844
0, 5, 87, 188.9232635498047
0, 5, 88, 176.123291015625
0, 5, 89, 194.2017364501953
0, 5, 90, 199.0691833496094
0, 5, 91, 195.4759674072266
0, 5, 92, 190.0426635742188
0, 5, 93, 190.8393859863281
0, 5, 94, 207.3775634765625
0, 5, 95, 176.9325408935547
0, 5, 96, 182.3408203125
0, 5, 97, 191.029296875
0, 5, 98, 188.6037292480469
0, 5, 99, 194.5233459472656
0, 5, 100, 185.9703369140625
0, 5, 101, 195.4903869628906
0, 5, 102, 183.4635314941406
0, 5, 103, 176.14697265625
0, 5, 104, 190.6963043212891
0, 5, 105, 190.2970123291016
0, 5, 106, 177.9480743408203
0, 5, 107, 182.1083831787109
0, 5, 108, 175.663330078125
0, 5, 109, 88.23435211181641
0, 5, 110, 32.55063629150391
0, 5, 111, 9.64711856842041
0, 5, 112, 6.948198318481445
0, 5, 113, 6.584006309509277
0, 5, 114, 7.789547443389893
0, 5, 115, 6.810323715209961
0, 5, 116, 3.588391304016113
0, 5, 117, 2.778027534484863
0, 5, 118, 3.499478101730347
0, 5, 119, 3.017005681991577
0, 5, 120, 3.325060606002808
0, 5, 121, 1.911680579185486
0, 5, 122, 2.309683322906494
0, 5, 123, 3.602874994277954
0, 5, 124, 3.018136978149414
0, 5, 125, 1.55378794670105
0, 5, 126, 3.097755670547485
0, 5, 127, 1.997333884239197
0, 6, 0, 3.711036205291748
0, 6, 1, 3.154314756393433
0, 6, 2, 3.524813890457153
0, 6, 3, 1.647437930107117
0, 6, 4, 4.221311092376709
0, 6, 5, 4.934030532836914
0, 6, 6, 3.237587451934814
0, 6, 7, 3.314383268356323
0, 6, 8, 3.457267999649048
0, 6, 9, 5.1554856300354
0, 6, 10, 5.26718282699585
0, 6, 11, 4.381194114685059
0, 6, 12, 5.380306243896484
0, 6, 13, 5.798038482666016
0, 6, 14, 6.06829309463501
0, 6, 15, 6.725893020629883
0, 6, 16, 12.99825191497803
0, 6, 17, 28.42326164245605
0, 6, 18, 111.9630355834961
0, 6, 19, 190.8600769042969
0, 6, 20, 194.6227264404297
0, 6, 21, 198.5883941650391
0, 6, 22, 191.0263977050781
0, 6, 23, 191.9953460693359
0, 6, 24, 200.6375579833984
0, 6, 25, 181.2768402099609
0, 6, 26, 186.9420166015625
0, 6, 27, 193.1672821044922
0, 6, 28, 188.7842864990234
0, 6, 29, 210.5814208984375
0, 6, 30, 189.5281372070312
0, 6, 31, 194.0211029052734
0, 6, 32, 207.3631286621094
0, 6, 33, 183.9183654785156
0, 6, 34, 197.01025390625
0, 6, 35, 186.9151306152344
0, 6, 36, 180.6345062255859
0, 6, 37, 182.2407684326172
0, 6, 38, 185.5956878662109
0, 6, 39, 196.0680236816406
0, 6, 40, 174.4739379882812
0, 6, 41, 185.5961456298828
0, 6, 42, 175.3105316162109
0, 6, 43, 208.8953552246094
0, 6, 44, 209.1736907958984
0, 6, 45, 193.1683502197266
0, 6, 46, 188.2270660400391
0, 6, 47, 204.1846466064453
0, 6, 48, 189.6015167236328
0, 6, 49, 179.0175628662109
0, 6, 50, 182.6066436767578
0, 6, 51, 197.2374114990234
0, 6, 52, 197.6228332519531
0, 6, 53, 184.5349884033203
0, 6, 54, 175.3832244873047
0, 6, 55, 193.9826507568359
0, 6, 56, 204.0065307617188
0, 6, 57, 191.8666229248047
0, 6, 58, 179.4955291748047
0, 6, 59, 192.3281097412109
0, 6, 60, 183.9185028076172
0, 6, 61, 193.5204772949219
0, 6, 62, 197.1131591796875
0, 6, 63, 186.6249694824219
0, 6, 64, 168.0677642822266
0, 6, 65, 186.7731323242188
0, 6, 66, 197.16357421875
0, 6, 67, 212.8531494140625
0, 6, 68, 179.8500518798828
0, 6, 69, 170.5477905273438
0, 6, 70, 187.5461730957031
0, 6, 71, 170.235595703125
0, 6, 72, 175.5799407958984
0, 6, 73, 176.3585815429688
0, 6, 74, 213.4549102783203
0, 6, 75, 228.4509124755859
0, 6, 76, 183.8361663818359
0, 6, 77, 171.9197540283203
0, 6, 78, 175.9990844726562
0, 6, 79, 186.9418792724609
0, 6, 80, 188.1943817138672
0, 6, 81, 209.2497253417969
0, 6, 82, 196.8928680419922
0, 6, 83, 194.5032958984375
0, 6, 84, 197.8858489990234
0, 6, 85, 180.8598480224609
0, 6, 86, 203.3605651855469
0, 6, 87, 184.3237915039062
0, 6, 88, 192.6480865478516
0, 6, 89, 188.7283477783203
0, 6, 90, 205.3795776367188
0, 6, 91, 200.1727447509766
0, 6, 92, 172.2593383789062
0, 6, 93, 191.7840576171875
0, 6, 94, 189.8347930908203
0, 6, 95, 186.6999816894531
0, 6, 96, 189.3544311523438
0, 6, 97, 191.9192657470703
0, 6, 98, 182.7564849853516
0, 6, 99, 175.2857360839844
0, 6, 100, 201.8179931640625
0, 6, 101, 169.6351318359375
0, 6, 102, 201.6387634277344
0, 6, 103, 197.0016021728516
0, 6, 104, 184.9192199707031
0, 6, 105, 193.9158630371094
0, 6, 106, 177.484619140625
0, 6, 107, 194.3467712402344
0, 6, 108, 171.4362182617188
0, 6, 109, 114.7259292602539
0, 6, 110, 33.42280578613281
0, 6, 111, 9.50349235534668
0, 6, 112, 8.630536079406738
0, 6, 113, 5.244887828826904
0, 6, 114, 5.270558834075928
0, 6, 115, 6.523072719573975
0, 6, 116, 5.246901512145996
0, 6, 117, 3.375149488449097
0, 6, 118, 3.826421022415161
0, 6, 119, 4.903035163879395
0, 6, 120, 2.879286050796509
0, 6, 121, 6.000175952911377
0, 6, 122, 3.170786619186401
0, 6, 123, 3.638089656829834
0, 6, 124, 3.445875406265259
0, 6, 125, 3.797365188598633
0, 6, 126, 1.738054275512695
0, 6, 127, 2.364843130111694
0, 7, 0, 2.168325901031494
0, 7, 1, 1.93203330039978
0, 7, 2, 3.427453756332397
0, 7, 3, 2.005605936050415
0, 7, 4, 0.7522538900375366
0, 7, 5, 1.3918217420578
0, 7, 6, 2.453358888626099
0, 7, 7, 2.845725297927856
0, 7, 8, 4.052186489105225
0, 7, 9, 3.739209413528442
0, 7, 10, 5.483246803283691
0, 7, 11, 3.256459712982178
0, 7, 12, 2.898718357086182
0, 7, 13, 6.176435947418213
0, 7, 14, 6.500836849212646
0, 7, 15, 7.26935338973999
0, 7, 16, 14.98138427734375
0, 7, 17, 50.36345291137695
0, 7, 18, 161.7726593017578
0, 7, 19, 183.0028533935547
0, 7, 20, 178.1937103271484
0, 7, 21, 181.4131011962891
0, 7, 22, 191.4905242919922
0, 7, 23, 202.2476348876953
0, 7, 24, 178.4972381591797
0, 7, 25, 214.9759368896484
0, 7, 26, 188.6436004638672
0, 7, 27, 182.9529418945312
0, 7, 28, 182.7007598876953
0, 7, 29, 208.9769744873047
0, 7, 30, 193.4392852783203
0, 7, 31, 176.8528442382812
0, 7, 32, 191.7650146484375
0, 7, 33, 185.0566101074219
0, 7, 34, 193.078857421875
0, 7, 35, 198.1765594482422
0, 7, 36, 188.1320037841797
0, 7, 37, 214.3783264160156
0, 7, 38, 191.2746429443359
0, 7, 39, 173.0179901123047
0, 7, 40, 183.5724945068359
0, 7, 41, 184.5149688720703
0, 7, 42, 177.8052062988281
0, 7, 43, 177.2235260009766
0, 7, 44, 178.7401733398438
0, 7, 45, 173.6315155029297
0, 7, 46, 187.7587738037109
0, 7, 47, 196.7338409423828
0, 7, 48, 186.3935699462891
0, 7, 49, 199.9199066162109
0, 7, 50, 188.5552825927734
0, 7, 51, 204.1543121337891
0, 7, 52, 204.1027374267578
0, 7, 53, 191.6867065429688
0, 7, 54, 194.3752593994141
0, 7, 55, 202.9056396484375
0, 7, 56, 183.1155700683594
0, 7, 57, 183.0727233886719
0, 7, 58, 194.6661834716797
0, 7, 59, 186.7197113037109
0, 7, 60, 203.5229187011719
0, 7, 61, 171.5697784423828
0, 7, 62, 202.4781036376953
0, 7, 63, 188.9676666259766
0, 7, 64, 199.2559051513672
0, 7, 65, 197.9873504638672
0, 7, 66, 206.0613555908203
0, 7, 67, 221.9244384765625
0, 7, 68, 162.8692779541016
0, 7, 69, 194.4844207763672
0, 7, 70, 217.3477630615234
0, 7, 71, 184.5813751220703
0, 7, 72, 180.7752227783203
0, 7, 73, 176.6821746826172
0, 7, 74, 207.9290924072266
0, 7, 75, 204.7546691894531
0, 7, 76, 214.7076416015625
0, 7, 77, 173.2140502929688
0, 7, 78, 177.3493041992188
0, 7, 79, 193.0701751708984
0, 7, 80, 195.0835266113281
0, 7, 81, 215.0243377685547
0, 7, 82, 186.2484893798828
0, 7, 83, 205.6572265625
0, 7, 84, 192.6846618652344
0, 7, 85, 186.9976348876953
0, 7, 86, 199.8149108886719
0, 7, 87, 227.3955078125
0, 7, 88, 195.1698608398438
0, 7, 89, 176.5403442382812
0, 7, 90, 182.0102233886719
0, 7, 91, 194.328857421875
0, 7, 92, 194.81201171875
0, 7, 93, 198.0450592041016
0, 7, 94, 178.6431579589844
0, 7, 95, 196.9645538330078
0, 7, 96, 208.2441101074219
0, 7, 97, 189.3259429931641
0, 7, 98, 176.5078125
0, 7, 99, 198.3811340332031
0, 7, 100, 182.6764678955078
0, 7, 101, 201.1551208496094
0, 7, 102, 185.6799774169922
0, 7, 103, 180.5276489257812
0, 7, 104, 174.0770721435547
0, 7, 105, 195.1814727783203
0, 7, 106, 205.3741455078125
0, 7, 107, 173.9786376953125
0, 7, 108, 176.9961395263672
0, 7, 109, 137.0969085693359
0, 7, 110, 53.69811248779297
0, 7, 111, 8.46065616607666
0, 7, 112, 7.503981590270996
0, 7, 113, 9.302600860595703
0, 7, 114, 8.423020362854004
0, 7, 115, 4.49738073348999
0, 7, 116, 4.906108379364014
0, 7, 117, 3.772111177444458
0, 7, 118, 3.10734224319458
0, 7, 119, 2.999800205230713
0, 7, 120, 2.561464548110962
0, 7, 121, 1.312650918960571
0, 7, 122, 2.676951885223389
0, 7, 123, 1.683312296867371
0, 7, 124, 1.935039758682251
0, 7, 125, 2.560084342956543
0, 7, 126, 2.58821439743042
0, 7, 127, 0.878243625164032
0, 8, 0, 4.031118869781494
0, 8, 1, 2.654539108276367
0, 8, 2, 3.876436233520508
0, 8, 3, 3.706884145736694
0, 8, 4, 2.432169437408447
0, 8, 5, 2.77368426322937
0, 8, 6, 1.411562323570251
0, 8, 7, 2.955085039138794
0, 8, 8, 3.875478029251099
0, 8, 9, 5.008104801177979
0, 8, 10, 1.501123785972595
0, 8, 11, 3.047130107879639
0, 8, 12, 3.312311410903931
0, 8, 13, 5.227273464202881
0, 8, 14, 6.370465278625488
0, 8, 15, 8.419581413269043
0, 8, 16, 20.35877418518066
0, 8, 17, 75.18872833251953
0, 8, 18, 142.9725799560547
0, 8, 19, 178.0597991943359
0, 8, 20, 193.1567840576172
0, 8, 21, 192.9942169189453
0, 8, 22, 179.2358703613281
0, 8, 23, 174.8092041015625
0, 8, 24, 192.1094665527344
0, 8, 25, 184.4963684082031
0, 8, 26, 192.8417510986328
0, 8, 27, 187.0162353515625
0, 8, 28, 185.3980560302734
0, 8, 29, 206.73046875
0, 8, 30, 198.0007934570312
0, 8, 31, 181.3329162597656
0, 8, 32, 199.5796356201172
0, 8, 33, 207.6121978759766
0, 8, 34, 203.1508178710938
0, 8, 35, 186.0530853271484
0, 8, 36, 181.8610687255859
0, 8, 37, 199.6738891601562
