# TOPAS Version: 3.1.p3
# Parameter File: batch_inserts_284.txt
# Results for scorer Readout_Adipose
# Scored in component: MyBox
# X in 1 bin  of 0.65 cm
# Y in 512 bins of 0.0783984 cm
# Z in 128 bins of 0.078125 cm
# EnergyDeposit ( MeV ) : Sum   
0, 0, 0, 1.751826643943787
0, 0, 1, 3.914528608322144
0, 0, 2, 1.520646572113037
0, 0, 3, 0.2512892782688141
0, 0, 4, 0.8939779996871948
0, 0, 5, 0.5488694906234741
0, 0, 6, 1.144283890724182
0, 0, 7, 2.749676704406738
0, 0, 8, 1.760573029518127
0, 0, 9, 3.514954328536987
0, 0, 10, 3.259935140609741
0, 0, 11, 3.404752492904663
0, 0, 12, 4.757431983947754
0, 0, 13, 2.35088038444519
0, 0, 14, 4.743384838104248
0, 0, 15, 5.64265251159668
0, 0, 16, 3.800348043441772
0, 0, 17, 8.834181785583496
0, 0, 18, 8.329833030700684
0, 0, 19, 22.3437328338623
0, 0, 20, 94.14626312255859
0, 0, 21, 152.8465270996094
0, 0, 22, 155.2790374755859
0, 0, 23, 143.5579681396484
0, 0, 24, 159.6141204833984
0, 0, 25, 166.1205139160156
0, 0, 26, 166.9792327880859
0, 0, 27, 174.1830902099609
0, 0, 28, 178.4371337890625
0, 0, 29, 175.6693115234375
0, 0, 30, 174.0650482177734
0, 0, 31, 166.9422912597656
0, 0, 32, 164.5755767822266
0, 0, 33, 166.1951293945312
0, 0, 34, 177.0994720458984
0, 0, 35, 174.6418151855469
0, 0, 36, 158.7463531494141
0, 0, 37, 161.5866394042969
0, 0, 38, 166.3535919189453
0, 0, 39, 160.0525665283203
0, 0, 40, 163.0951995849609
0, 0, 41, 166.1597595214844
0, 0, 42, 145.5800018310547
0, 0, 43, 169.3351593017578
0, 0, 44, 178.6963653564453
0, 0, 45, 174.4845275878906
0, 0, 46, 167.3569488525391
0, 0, 47, 169.21728515625
0, 0, 48, 169.9186553955078
0, 0, 49, 182.1475524902344
0, 0, 50, 168.8415679931641
0, 0, 51, 162.869140625
0, 0, 52, 163.0453338623047
0, 0, 53, 170.8528137207031
0, 0, 54, 159.9255218505859
0, 0, 55, 164.3875274658203
0, 0, 56, 188.5779418945312
0, 0, 57, 170.6621398925781
0, 0, 58, 161.4937133789062
0, 0, 59, 172.2623138427734
0, 0, 60, 170.3589172363281
0, 0, 61, 170.0807952880859
0, 0, 62, 183.300537109375
0, 0, 63, 167.402099609375
0, 0, 64, 163.7917022705078
0, 0, 65, 174.2574005126953
0, 0, 66, 177.7529907226562
0, 0, 67, 164.4693298339844
0, 0, 68, 157.9032745361328
0, 0, 69, 158.3820495605469
0, 0, 70, 169.7636413574219
0, 0, 71, 158.5853881835938
0, 0, 72, 161.8049468994141
0, 0, 73, 171.5540161132812
0, 0, 74, 163.513427734375
0, 0, 75, 162.9441375732422
0, 0, 76, 162.4851226806641
0, 0, 77, 172.1437225341797
0, 0, 78, 183.0283203125
0, 0, 79, 174.4826812744141
0, 0, 80, 159.9569549560547
0, 0, 81, 160.5655670166016
0, 0, 82, 181.952880859375
0, 0, 83, 173.1508941650391
0, 0, 84, 159.7820587158203
0, 0, 85, 181.6228179931641
0, 0, 86, 160.0288848876953
0, 0, 87, 176.8964538574219
0, 0, 88, 176.8166809082031
0, 0, 89, 176.4225616455078
0, 0, 90, 162.5277404785156
0, 0, 91, 184.4931945800781
0, 0, 92, 164.484130859375
0, 0, 93, 158.9386596679688
0, 0, 94, 168.8814239501953
0, 0, 95, 174.4671325683594
0, 0, 96, 184.0989379882812
0, 0, 97, 183.9798431396484
0, 0, 98, 185.7103576660156
0, 0, 99, 171.4481506347656
0, 0, 100, 158.2465667724609
0, 0, 101, 166.7463684082031
0, 0, 102, 169.7714538574219
0, 0, 103, 170.4645538330078
0, 0, 104, 168.7868194580078
0, 0, 105, 176.7544097900391
0, 0, 106, 158.6109008789062
0, 0, 107, 84.91319274902344
0, 0, 108, 21.84182167053223
0, 0, 109, 9.664337158203125
0, 0, 110, 6.80756950378418
0, 0, 111, 7.65891695022583
0, 0, 112, 3.257437467575073
0, 0, 113, 2.544888496398926
0, 0, 114, 3.765309572219849
0, 0, 115, 3.022380828857422
0, 0, 116, 2.126211404800415
0, 0, 117, 3.652967691421509
0, 0, 118, 2.768855094909668
0, 0, 119, 2.545888423919678
0, 0, 120, 1.91857373714447
0, 0, 121, 4.098825931549072
0, 0, 122, 4.393702030181885
0, 0, 123, 5.353098392486572
0, 0, 124, 1.868654131889343
0, 0, 125, 4.201008796691895
0, 0, 126, 1.310640811920166
0, 0, 127, 1.510003447532654
0, 1, 0, 1.035585999488831
0, 1, 1, 3.33132004737854
0, 1, 2, 5.572522163391113
0, 1, 3, 2.129986047744751
0, 1, 4, 0.8532414436340332
0, 1, 5, 2.210301637649536
0, 1, 6, 1.225695371627808
0, 1, 7, 1.842584371566772
0, 1, 8, 3.161303997039795
0, 1, 9, 2.568180561065674
0, 1, 10, 1.706472992897034
0, 1, 11, 3.946831941604614
0, 1, 12, 4.427219390869141
0, 1, 13, 4.110816955566406
0, 1, 14, 5.536563396453857
0, 1, 15, 5.599212646484375
0, 1, 16, 8.249560356140137
0, 1, 17, 7.072171688079834
0, 1, 18, 10.76477432250977
0, 1, 19, 38.58723449707031
0, 1, 20, 125.7288589477539
0, 1, 21, 176.7306671142578
0, 1, 22, 192.1202392578125
0, 1, 23, 187.5488891601562
0, 1, 24, 179.7389373779297
0, 1, 25, 192.9276275634766
0, 1, 26, 198.58837890625
0, 1, 27, 186.3996734619141
0, 1, 28, 189.3434753417969
0, 1, 29, 183.7840881347656
0, 1, 30, 179.8575592041016
0, 1, 31, 182.0195007324219
0, 1, 32, 190.2833251953125
0, 1, 33, 189.7916412353516
0, 1, 34, 184.4008636474609
0, 1, 35, 193.5600128173828
0, 1, 36, 205.0863342285156
0, 1, 37, 184.3599548339844
0, 1, 38, 164.4649200439453
0, 1, 39, 171.3957214355469
0, 1, 40, 180.3576507568359
0, 1, 41, 185.2215118408203
0, 1, 42, 182.4851989746094
0, 1, 43, 185.3454742431641
0, 1, 44, 168.2108154296875
0, 1, 45, 185.9638061523438
0, 1, 46, 169.9069061279297
0, 1, 47, 184.93603515625
0, 1, 48, 186.7988891601562
0, 1, 49, 186.6275329589844
0, 1, 50, 178.0431518554688
0, 1, 51, 191.5742645263672
0, 1, 52, 195.8752593994141
0, 1, 53, 195.9112701416016
0, 1, 54, 184.1626586914062
0, 1, 55, 164.9153747558594
0, 1, 56, 178.7941131591797
0, 1, 57, 177.6684722900391
0, 1, 58, 188.3174591064453
0, 1, 59, 193.1522064208984
0, 1, 60, 188.3146209716797
0, 1, 61, 180.0470581054688
0, 1, 62, 204.7342834472656
0, 1, 63, 176.5939636230469
0, 1, 64, 173.7604675292969
0, 1, 65, 184.8579406738281
0, 1, 66, 203.6185150146484
0, 1, 67, 181.8932952880859
0, 1, 68, 186.7252349853516
0, 1, 69, 189.0791015625
0, 1, 70, 185.4010314941406
0, 1, 71, 171.3912506103516
0, 1, 72, 187.6939849853516
0, 1, 73, 189.9986267089844
0, 1, 74, 200.9928588867188
0, 1, 75, 183.4375610351562
0, 1, 76, 174.2223815917969
0, 1, 77, 191.7069396972656
0, 1, 78, 187.3996276855469
0, 1, 79, 201.4441528320312
0, 1, 80, 187.4633178710938
0, 1, 81, 174.1011047363281
0, 1, 82, 207.9594573974609
0, 1, 83, 211.5091552734375
0, 1, 84, 180.1265258789062
0, 1, 85, 169.9458618164062
0, 1, 86, 167.4445190429688
0, 1, 87, 184.3184814453125
0, 1, 88, 176.6774291992188
0, 1, 89, 188.1086883544922
0, 1, 90, 213.6266784667969
0, 1, 91, 180.5972290039062
0, 1, 92, 184.3748779296875
0, 1, 93, 181.0829620361328
0, 1, 94, 186.7970886230469
0, 1, 95, 182.6934356689453
0, 1, 96, 195.2849426269531
0, 1, 97, 182.9556121826172
0, 1, 98, 186.8487243652344
0, 1, 99, 175.2408599853516
0, 1, 100, 172.0632019042969
0, 1, 101, 178.6946716308594
0, 1, 102, 182.6455993652344
0, 1, 103, 173.1706085205078
0, 1, 104, 190.9031219482422
0, 1, 105, 183.6209259033203
0, 1, 106, 163.7473602294922
0, 1, 107, 123.6627426147461
0, 1, 108, 46.7426643371582
0, 1, 109, 10.81838798522949
0, 1, 110, 8.065963745117188
0, 1, 111, 6.036111354827881
0, 1, 112, 8.608980178833008
0, 1, 113, 8.74244213104248
0, 1, 114, 7.311368465423584
0, 1, 115, 4.345762252807617
0, 1, 116, 1.953279137611389
0, 1, 117, 1.814827084541321
0, 1, 118, 4.5487060546875
0, 1, 119, 0.8486016988754272
0, 1, 120, 4.307792186737061
0, 1, 121, 3.673302173614502
0, 1, 122, 1.424629926681519
0, 1, 123, 4.531590461730957
0, 1, 124, 2.920973062515259
0, 1, 125, 2.23577094078064
0, 1, 126, 1.506094455718994
0, 1, 127, 2.353842973709106
0, 2, 0, 0.6353762149810791
0, 2, 1, 2.245587110519409
0, 2, 2, 1.982427597045898
0, 2, 3, 1.715686440467834
0, 2, 4, 1.561673879623413
0, 2, 5, 1.16625964641571
0, 2, 6, 3.130949974060059
0, 2, 7, 1.817052960395813
0, 2, 8, 1.091254830360413
0, 2, 9, 1.75529670715332
0, 2, 10, 5.819207191467285
0, 2, 11, 3.620612859725952
0, 2, 12, 3.099318027496338
0, 2, 13, 3.176982402801514
0, 2, 14, 3.856006860733032
0, 2, 15, 6.660412788391113
0, 2, 16, 4.397448539733887
0, 2, 17, 8.775134086608887
0, 2, 18, 13.72218227386475
0, 2, 19, 78.19477844238281
0, 2, 20, 162.4784088134766
0, 2, 21, 184.0861358642578
0, 2, 22, 194.3673095703125
0, 2, 23, 184.2210998535156
0, 2, 24, 173.6570434570312
0, 2, 25, 184.8392181396484
0, 2, 26, 179.5929718017578
0, 2, 27, 190.8504943847656
0, 2, 28, 170.0269165039062
0, 2, 29, 169.1643829345703
0, 2, 30, 186.3197326660156
0, 2, 31, 184.3271179199219
0, 2, 32, 183.0415344238281
0, 2, 33, 190.0096588134766
0, 2, 34, 198.3687744140625
0, 2, 35, 181.1148376464844
0, 2, 36, 188.6994018554688
0, 2, 37, 182.6784057617188
0, 2, 38, 183.3027496337891
0, 2, 39, 165.8741455078125
0, 2, 40, 185.1140441894531
0, 2, 41, 185.7467498779297
0, 2, 42, 190.4546966552734
0, 2, 43, 193.8333892822266
0, 2, 44, 190.283203125
0, 2, 45, 190.2004241943359
0, 2, 46, 196.6028289794922
0, 2, 47, 189.8256072998047
0, 2, 48, 177.8784027099609
0, 2, 49, 197.5356292724609
0, 2, 50, 168.0882415771484
0, 2, 51, 185.5425872802734
0, 2, 52, 185.8419647216797
0, 2, 53, 195.1714935302734
0, 2, 54, 176.1546630859375
0, 2, 55, 173.5626831054688
0, 2, 56, 180.9146423339844
0, 2, 57, 200.7383117675781
0, 2, 58, 185.9621276855469
0, 2, 59, 190.6089019775391
0, 2, 60, 196.4247131347656
0, 2, 61, 192.7746887207031
0, 2, 62, 190.3346405029297
0, 2, 63, 169.4235076904297
0, 2, 64, 191.0026092529297
0, 2, 65, 203.1175079345703
0, 2, 66, 195.8157348632812
0, 2, 67, 184.0087432861328
0, 2, 68, 182.6475067138672
0, 2, 69, 186.9684143066406
0, 2, 70, 203.1975708007812
0, 2, 71, 177.4373779296875
0, 2, 72, 185.6556549072266
0, 2, 73, 177.159423828125
0, 2, 74, 180.3921051025391
0, 2, 75, 196.158203125
0, 2, 76, 183.6342010498047
0, 2, 77, 177.1670989990234
0, 2, 78, 198.6869201660156
0, 2, 79, 177.5818939208984
0, 2, 80, 186.9647216796875
0, 2, 81, 187.8638916015625
0, 2, 82, 205.7830657958984
0, 2, 83, 203.6802673339844
0, 2, 84, 187.9377136230469
0, 2, 85, 171.0234069824219
0, 2, 86, 194.4565887451172
0, 2, 87, 171.8936767578125
0, 2, 88, 178.4941864013672
0, 2, 89, 185.5440063476562
0, 2, 90, 178.1523132324219
0, 2, 91, 175.9601898193359
0, 2, 92, 196.8462371826172
0, 2, 93, 193.3109741210938
0, 2, 94, 202.2526397705078
0, 2, 95, 193.8232574462891
0, 2, 96, 186.7451629638672
0, 2, 97, 171.6014556884766
0, 2, 98, 173.8206634521484
0, 2, 99, 162.0973358154297
0, 2, 100, 188.2305450439453
0, 2, 101, 196.4267272949219
0, 2, 102, 176.0377807617188
0, 2, 103, 199.2223358154297
0, 2, 104, 186.9338073730469
0, 2, 105, 201.2386779785156
0, 2, 106, 195.5444641113281
0, 2, 107, 148.9320068359375
0, 2, 108, 78.66960144042969
0, 2, 109, 18.81491661071777
0, 2, 110, 7.746918678283691
0, 2, 111, 5.777935981750488
0, 2, 112, 3.701566696166992
0, 2, 113, 4.571375370025635
0, 2, 114, 7.884896278381348
0, 2, 115, 4.844677448272705
0, 2, 116, 1.484753131866455
0, 2, 117, 1.617868304252625
0, 2, 118, 1.387227892875671
0, 2, 119, 2.485480070114136
0, 2, 120, 1.584916949272156
0, 2, 121, 2.605500221252441
0, 2, 122, 1.443261504173279
0, 2, 123, 3.735631704330444
0, 2, 124, 2.860888719558716
0, 2, 125, 1.834508061408997
0, 2, 126, 3.436339855194092
0, 2, 127, 0.6240994930267334
0, 3, 0, 1.950473785400391
0, 3, 1, 1.55329155921936
0, 3, 2, 0.9303674101829529
0, 3, 3, 2.410912990570068
0, 3, 4, 4.697627067565918
0, 3, 5, 3.430763721466064
0, 3, 6, 1.41399097442627
0, 3, 7, 1.582942605018616
0, 3, 8, 2.463122606277466
0, 3, 9, 1.640602350234985
0, 3, 10, 3.424453258514404
0, 3, 11, 3.725738525390625
0, 3, 12, 3.139407873153687
0, 3, 13, 3.688737869262695
0, 3, 14, 3.685299634933472
0, 3, 15, 8.428737640380859
0, 3, 16, 6.684067249298096
0, 3, 17, 6.567419528961182
0, 3, 18, 32.96247100830078
0, 3, 19, 115.2751770019531
0, 3, 20, 179.3244323730469
0, 3, 21, 172.754150390625
0, 3, 22, 177.7395782470703
0, 3, 23, 187.0485534667969
0, 3, 24, 178.3330230712891
0, 3, 25, 168.3822784423828
0, 3, 26, 180.3925170898438
0, 3, 27, 188.9731140136719
0, 3, 28, 182.2176666259766
0, 3, 29, 197.6786346435547
0, 3, 30, 184.7583618164062
0, 3, 31, 194.25830078125
0, 3, 32, 205.9835205078125
0, 3, 33, 196.8099670410156
0, 3, 34, 188.0295867919922
0, 3, 35, 175.1400604248047
0, 3, 36, 185.3987274169922
0, 3, 37, 199.770263671875
0, 3, 38, 190.7316741943359
0, 3, 39, 184.9332885742188
0, 3, 40, 165.8913879394531
0, 3, 41, 174.8504486083984
0, 3, 42, 184.8822479248047
0, 3, 43, 182.7777709960938
0, 3, 44, 203.5511932373047
0, 3, 45, 207.4503173828125
0, 3, 46, 198.5982208251953
0, 3, 47, 193.9082794189453
0, 3, 48, 196.4066009521484
0, 3, 49, 180.6944885253906
0, 3, 50, 186.5260314941406
0, 3, 51, 173.8455352783203
0, 3, 52, 187.4641723632812
0, 3, 53, 179.7085876464844
0, 3, 54, 178.3773498535156
0, 3, 55, 177.5014801025391
0, 3, 56, 182.3356628417969
0, 3, 57, 175.5592498779297
0, 3, 58, 202.6294860839844
0, 3, 59, 195.7612762451172
0, 3, 60, 186.7759399414062
0, 3, 61, 180.9497375488281
0, 3, 62, 182.3656005859375
0, 3, 63, 185.1903839111328
0, 3, 64, 189.1635131835938
0, 3, 65, 189.0095062255859
0, 3, 66, 175.6563873291016
0, 3, 67, 191.6652984619141
0, 3, 68, 211.5741119384766
0, 3, 69, 190.3549041748047
0, 3, 70, 185.6813354492188
0, 3, 71, 196.5049133300781
0, 3, 72, 185.7556304931641
0, 3, 73, 186.9986572265625
0, 3, 74, 194.3931579589844
0, 3, 75, 192.6069183349609
0, 3, 76, 190.0793609619141
0, 3, 77, 199.8754119873047
0, 3, 78, 188.3571014404297
0, 3, 79, 184.2086334228516
0, 3, 80, 189.5521240234375
0, 3, 81, 182.8973541259766
0, 3, 82, 180.5818939208984
0, 3, 83, 194.5980072021484
0, 3, 84, 199.2419586181641
0, 3, 85, 192.6248168945312
0, 3, 86, 204.4855651855469
0, 3, 87, 197.6182708740234
0, 3, 88, 192.1052398681641
0, 3, 89, 193.2914123535156
0, 3, 90, 173.4306945800781
0, 3, 91, 156.4069061279297
0, 3, 92, 206.986083984375
0, 3, 93, 196.0437164306641
0, 3, 94, 193.6204986572266
0, 3, 95, 212.2477874755859
0, 3, 96, 208.4258270263672
0, 3, 97, 167.7733612060547
0, 3, 98, 167.5290069580078
0, 3, 99, 179.5857391357422
0, 3, 100, 177.5054626464844
0, 3, 101, 196.6784057617188
0, 3, 102, 194.8523559570312
0, 3, 103, 193.6577453613281
0, 3, 104, 202.4111480712891
0, 3, 105, 174.9088134765625
0, 3, 106, 181.2636871337891
0, 3, 107, 169.6706237792969
0, 3, 108, 107.6407089233398
0, 3, 109, 29.16006278991699
0, 3, 110, 8.26796817779541
0, 3, 111, 7.29288911819458
0, 3, 112, 5.362096309661865
0, 3, 113, 6.917995452880859
0, 3, 114, 4.280240058898926
0, 3, 115, 4.514895915985107
0, 3, 116, 5.888142108917236
0, 3, 117, 3.170923233032227
0, 3, 118, 2.489438533782959
0, 3, 119, 2.364773750305176
0, 3, 120, 4.15934944152832
0, 3, 121, 1.525470852851868
0, 3, 122, 3.236372709274292
0, 3, 123, 1.813588500022888
0, 3, 124, 1.613455414772034
0, 3, 125, 0.944399893283844
0, 3, 126, 2.499550104141235
0, 3, 127, 0.5351135730743408
0, 4, 0, 1.008092164993286
0, 4, 1, 1.457442045211792
0, 4, 2, 1.981725096702576
0, 4, 3, 3.739775419235229
0, 4, 4, 2.24988865852356
0, 4, 5, 0.6850572824478149
0, 4, 6, 3.001217842102051
0, 4, 7, 2.709006547927856
0, 4, 8, 1.464979290962219
0, 4, 9, 2.377623081207275
0, 4, 10, 3.105079650878906
0, 4, 11, 3.291666269302368
0, 4, 12, 4.43753719329834
0, 4, 13, 5.600923538208008
0, 4, 14, 3.893393039703369
0, 4, 15, 8.297258377075195
0, 4, 16, 6.026609897613525
0, 4, 17, 12.47876453399658
0, 4, 18, 55.76774215698242
0, 4, 19, 151.10693359375
0, 4, 20, 194.0242767333984
0, 4, 21, 168.9924926757812
0, 4, 22, 187.2030487060547
0, 4, 23, 195.6115875244141
0, 4, 24, 192.8394470214844
0, 4, 25, 199.3130645751953
0, 4, 26, 183.5037841796875
0, 4, 27, 190.8424530029297
0, 4, 28, 177.94775390625
0, 4, 29, 206.0163269042969
0, 4, 30, 195.7485961914062
0, 4, 31, 194.0245971679688
0, 4, 32, 209.7441101074219
0, 4, 33, 190.4882659912109
0, 4, 34, 192.0696105957031
0, 4, 35, 212.3151397705078
0, 4, 36, 192.3811798095703
0, 4, 37, 176.6914367675781
0, 4, 38, 194.8757629394531
0, 4, 39, 190.2212066650391
0, 4, 40, 186.0608673095703
0, 4, 41, 190.260498046875
0, 4, 42, 205.6749572753906
0, 4, 43, 173.3604431152344
0, 4, 44, 183.8241577148438
0, 4, 45, 196.8505249023438
0, 4, 46, 186.0442352294922
0, 4, 47, 179.2315368652344
0, 4, 48, 186.2254333496094
0, 4, 49, 174.5096893310547
0, 4, 50, 186.3539886474609
0, 4, 51, 196.6819915771484
0, 4, 52, 223.2759094238281
0, 4, 53, 206.6283874511719
0, 4, 54, 189.5080871582031
0, 4, 55, 174.9281311035156
0, 4, 56, 191.6366271972656
0, 4, 57, 191.76416015625
0, 4, 58, 187.5119171142578
0, 4, 59, 189.3539123535156
0, 4, 60, 196.2774810791016
0, 4, 61, 192.8943481445312
0, 4, 62, 189.5977172851562
0, 4, 63, 179.4017486572266
0, 4, 64, 213.8484802246094
0, 4, 65, 191.6138916015625
0, 4, 66, 201.3330230712891
0, 4, 67, 199.2175140380859
0, 4, 68, 200.6990814208984
0, 4, 69, 198.2789611816406
0, 4, 70, 204.1065216064453
0, 4, 71, 206.5436248779297
0, 4, 72, 214.2602996826172
0, 4, 73, 185.4691467285156
0, 4, 74, 180.8890533447266
0, 4, 75, 184.5059204101562
0, 4, 76, 190.4677276611328
0, 4, 77, 184.9078674316406
0, 4, 78, 194.7608032226562
0, 4, 79, 204.7978515625
0, 4, 80, 211.5580596923828
0, 4, 81, 197.5425872802734
0, 4, 82, 180.2917022705078
0, 4, 83, 169.7347869873047
0, 4, 84, 192.4491882324219
0, 4, 85, 196.1965942382812
0, 4, 86, 181.4165191650391
0, 4, 87, 184.0484313964844
0, 4, 88, 203.9761810302734
0, 4, 89, 188.0615081787109
0, 4, 90, 212.6801300048828
0, 4, 91, 189.86865234375
0, 4, 92, 197.7223815917969
0, 4, 93, 195.4535675048828
0, 4, 94, 181.36376953125
0, 4, 95, 173.6619262695312
0, 4, 96, 189.7899932861328
0, 4, 97, 193.3080902099609
0, 4, 98, 200.8405456542969
0, 4, 99, 183.2783966064453
0, 4, 100, 181.8901824951172
0, 4, 101, 179.1622314453125
0, 4, 102, 172.5289459228516
0, 4, 103, 185.4258270263672
0, 4, 104, 212.1932983398438
0, 4, 105, 189.8544464111328
0, 4, 106, 179.9983520507812
0, 4, 107, 180.9861297607422
0, 4, 108, 152.1277465820312
0, 4, 109, 50.20952224731445
0, 4, 110, 12.96894836425781
0, 4, 111, 9.851581573486328
0, 4, 112, 6.430306911468506
0, 4, 113, 6.333386421203613
0, 4, 114, 5.642403602600098
0, 4, 115, 4.532934665679932
0, 4, 116, 4.602522373199463
0, 4, 117, 3.40751051902771
0, 4, 118, 3.070050239562988
0, 4, 119, 2.989556312561035
0, 4, 120, 2.65715503692627
0, 4, 121, 1.383047461509705
0, 4, 122, 1.694134473800659
0, 4, 123, 2.047930955886841
0, 4, 124, 4.055352687835693
0, 4, 125, 2.462358713150024
0, 4, 126, 1.681488037109375
0, 4, 127, 1.867509484291077
0, 5, 0, 1.680754065513611
0, 5, 1, 2.659363031387329
0, 5, 2, 4.917579650878906
0, 5, 3, 3.769845247268677
0, 5, 4, 2.773969173431396
0, 5, 5, 1.928370594978333
0, 5, 6, 3.957959651947021
0, 5, 7, 3.546082735061646
0, 5, 8, 1.959399580955505
0, 5, 9, 1.724239945411682
0, 5, 10, 3.062965631484985
0, 5, 11, 3.038299322128296
0, 5, 12, 5.470406055450439
0, 5, 13, 3.32347846031189
0, 5, 14, 6.502802848815918
0, 5, 15, 8.830438613891602
0, 5, 16, 7.584795951843262
0, 5, 17, 21.38114738464355
0, 5, 18, 82.84499359130859
0, 5, 19, 164.6429290771484
0, 5, 20, 182.8431243896484
0, 5, 21, 177.0108184814453
0, 5, 22, 171.6470031738281
0, 5, 23, 200.4329986572266
0, 5, 24, 188.0135803222656
0, 5, 25, 209.1666564941406
0, 5, 26, 184.127197265625
0, 5, 27, 193.8221588134766
0, 5, 28, 190.9068603515625
0, 5, 29, 195.7683258056641
0, 5, 30, 179.2390899658203
0, 5, 31, 179.7695159912109
0, 5, 32, 186.2998504638672
0, 5, 33, 168.5807952880859
0, 5, 34, 195.5543212890625
0, 5, 35, 197.4389343261719
0, 5, 36, 167.7411499023438
0, 5, 37, 197.1356964111328
0, 5, 38, 182.1025390625
0, 5, 39, 187.4878997802734
0, 5, 40, 197.8290405273438
0, 5, 41, 177.4198913574219
0, 5, 42, 186.9421081542969
0, 5, 43, 192.3563385009766
0, 5, 44, 200.1282501220703
0, 5, 45, 186.1772918701172
0, 5, 46, 193.3982543945312
0, 5, 47, 182.8021697998047
0, 5, 48, 177.6032562255859
0, 5, 49, 176.7294006347656
0, 5, 50, 186.5484161376953
0, 5, 51, 172.4108734130859
0, 5, 52, 167.4934387207031
0, 5, 53, 181.1972198486328
0, 5, 54, 173.4891967773438
0, 5, 55, 215.8479156494141
0, 5, 56, 182.1534118652344
0, 5, 57, 207.6667785644531
0, 5, 58, 182.5504150390625
0, 5, 59, 180.3949127197266
0, 5, 60, 218.5724334716797
0, 5, 61, 184.4388122558594
0, 5, 62, 178.5953521728516
0, 5, 63, 179.9446105957031
0, 5, 64, 194.2236480712891
0, 5, 65, 209.4442749023438
0, 5, 66, 193.2061614990234
0, 5, 67, 199.2572021484375
0, 5, 68, 185.7957153320312
0, 5, 69, 186.7172241210938
0, 5, 70, 185.2463989257812
0, 5, 71, 193.2821655273438
0, 5, 72, 198.2703857421875
0, 5, 73, 201.0140533447266
0, 5, 74, 180.4924621582031
0, 5, 75, 202.6391906738281
0, 5, 76, 216.5522766113281
0, 5, 77, 181.1458892822266
0, 5, 78, 194.2864990234375
0, 5, 79, 189.9806213378906
0, 5, 80, 197.2409362792969
0, 5, 81, 203.8056488037109
0, 5, 82, 201.4332122802734
0, 5, 83, 188.6384735107422
0, 5, 84, 204.8431701660156
0, 5, 85, 175.6671295166016
0, 5, 86, 196.1600036621094
0, 5, 87, 188.6364440917969
0, 5, 88, 177.4705963134766
0, 5, 89, 194.2285461425781
0, 5, 90, 199.6097106933594
0, 5, 91, 195.5380554199219
0, 5, 92, 191.1390533447266
0, 5, 93, 192.4122161865234
0, 5, 94, 208.4367523193359
0, 5, 95, 176.7466583251953
0, 5, 96, 181.5150451660156
0, 5, 97, 190.5429992675781
0, 5, 98, 188.3704223632812
0, 5, 99, 195.8955993652344
0, 5, 100, 186.4886322021484
0, 5, 101, 196.1209106445312
0, 5, 102, 181.3609771728516
0, 5, 103, 176.5761413574219
0, 5, 104, 190.0153198242188
0, 5, 105, 189.7087554931641
0, 5, 106, 176.8442687988281
0, 5, 107, 182.0854797363281
0, 5, 108, 176.3488464355469
0, 5, 109, 88.88380432128906
0, 5, 110, 29.3813648223877
0, 5, 111, 8.930855751037598
0, 5, 112, 6.490175247192383
0, 5, 113, 7.650555610656738
0, 5, 114, 5.798356056213379
0, 5, 115, 6.854833602905273
0, 5, 116, 3.949956655502319
0, 5, 117, 2.01434588432312
0, 5, 118, 3.832191228866577
0, 5, 119, 3.314960241317749
0, 5, 120, 2.878545999526978
0, 5, 121, 2.384233951568604
0, 5, 122, 3.398152589797974
0, 5, 123, 5.10907506942749
0, 5, 124, 3.191891431808472
0, 5, 125, 1.137717485427856
0, 5, 126, 0.8660697340965271
0, 5, 127, 3.121052265167236
0, 6, 0, 4.287807464599609
0, 6, 1, 3.838543891906738
0, 6, 2, 3.19408917427063
0, 6, 3, 1.978019714355469
0, 6, 4, 3.975605964660645
0, 6, 5, 5.167052268981934
0, 6, 6, 3.161025285720825
0, 6, 7, 4.894332885742188
0, 6, 8, 4.078700065612793
0, 6, 9, 2.709731340408325
0, 6, 10, 4.42520809173584
0, 6, 11, 4.089181423187256
0, 6, 12, 4.460744857788086
0, 6, 13, 5.247311592102051
0, 6, 14, 5.669821739196777
0, 6, 15, 7.362704277038574
0, 6, 16, 12.56087207794189
0, 6, 17, 28.68291282653809
0, 6, 18, 111.734260559082
0, 6, 19, 190.3205261230469
0, 6, 20, 197.4647521972656
0, 6, 21, 198.1444702148438
0, 6, 22, 191.0970916748047
0, 6, 23, 190.8786468505859
0, 6, 24, 200.1463470458984
0, 6, 25, 182.6077117919922
0, 6, 26, 188.4345397949219
0, 6, 27, 192.364990234375
0, 6, 28, 188.2588348388672
0, 6, 29, 210.0950469970703
0, 6, 30, 189.6312408447266
0, 6, 31, 193.2638092041016
0, 6, 32, 208.4638366699219
0, 6, 33, 184.3381042480469
0, 6, 34, 197.2080688476562
0, 6, 35, 188.9422760009766
0, 6, 36, 181.0661773681641
0, 6, 37, 182.7338409423828
0, 6, 38, 185.6605224609375
0, 6, 39, 195.068603515625
0, 6, 40, 173.4831237792969
0, 6, 41, 185.5636444091797
0, 6, 42, 174.8545074462891
0, 6, 43, 210.6001892089844
0, 6, 44, 209.3540649414062
0, 6, 45, 193.9769287109375
0, 6, 46, 187.3425750732422
0, 6, 47, 203.8673400878906
0, 6, 48, 189.0518035888672
0, 6, 49, 180.0325317382812
0, 6, 50, 181.9035034179688
0, 6, 51, 196.5479125976562
0, 6, 52, 197.3301849365234
0, 6, 53, 185.9801025390625
0, 6, 54, 175.7051849365234
0, 6, 55, 193.8392028808594
0, 6, 56, 202.9849548339844
0, 6, 57, 190.8256530761719
0, 6, 58, 179.4376678466797
0, 6, 59, 193.0267028808594
0, 6, 60, 184.1407775878906
0, 6, 61, 193.7171173095703
0, 6, 62, 197.3225708007812
0, 6, 63, 186.2400207519531
0, 6, 64, 168.8421783447266
0, 6, 65, 185.6055603027344
0, 6, 66, 198.8026123046875
0, 6, 67, 215.3534545898438
0, 6, 68, 180.2023162841797
0, 6, 69, 170.3684387207031
0, 6, 70, 187.0957794189453
0, 6, 71, 170.4855194091797
0, 6, 72, 176.9165954589844
0, 6, 73, 176.4358673095703
0, 6, 74, 210.9027099609375
0, 6, 75, 227.4877166748047
0, 6, 76, 183.8214416503906
0, 6, 77, 173.41259765625
0, 6, 78, 177.16845703125
0, 6, 79, 186.7003326416016
0, 6, 80, 187.4882354736328
0, 6, 81, 209.8311614990234
0, 6, 82, 195.0547332763672
0, 6, 83, 195.8142242431641
0, 6, 84, 197.3750457763672
0, 6, 85, 182.0333251953125
0, 6, 86, 201.9395599365234
0, 6, 87, 183.5103912353516
0, 6, 88, 193.626708984375
0, 6, 89, 188.0474090576172
0, 6, 90, 205.9067993164062
0, 6, 91, 200.05029296875
0, 6, 92, 173.8310699462891
0, 6, 93, 192.9781494140625
0, 6, 94, 188.6366424560547
0, 6, 95, 185.8868408203125
0, 6, 96, 189.6178436279297
0, 6, 97, 196.2142486572266
0, 6, 98, 184.6874084472656
0, 6, 99, 176.0303192138672
0, 6, 100, 201.1994476318359
0, 6, 101, 168.6475830078125
0, 6, 102, 201.7646331787109
0, 6, 103, 195.4891967773438
0, 6, 104, 183.75732421875
0, 6, 105, 193.9876708984375
0, 6, 106, 177.019775390625
0, 6, 107, 195.2427520751953
0, 6, 108, 171.7148284912109
0, 6, 109, 115.9712142944336
0, 6, 110, 34.53496551513672
0, 6, 111, 8.857837677001953
0, 6, 112, 8.305708885192871
0, 6, 113, 5.492112159729004
0, 6, 114, 4.734616756439209
0, 6, 115, 5.366913318634033
0, 6, 116, 4.389809608459473
0, 6, 117, 5.534470081329346
0, 6, 118, 3.082093954086304
0, 6, 119, 3.768713712692261
0, 6, 120, 2.040470123291016
0, 6, 121, 4.054011821746826
0, 6, 122, 3.216971635818481
0, 6, 123, 2.088652849197388
0, 6, 124, 1.466184258460999
0, 6, 125, 3.016487836837769
0, 6, 126, 1.515833020210266
0, 6, 127, 3.647389888763428
0, 7, 0, 2.857534646987915
0, 7, 1, 1.062161564826965
0, 7, 2, 2.52839207649231
0, 7, 3, 2.565550804138184
0, 7, 4, 2.006609916687012
0, 7, 5, 1.830410838127136
0, 7, 6, 4.785067558288574
0, 7, 7, 1.958904027938843
0, 7, 8, 3.10124659538269
0, 7, 9, 2.83643364906311
0, 7, 10, 4.624731063842773
0, 7, 11, 4.873259544372559
0, 7, 12, 4.536055088043213
0, 7, 13, 5.791690349578857
0, 7, 14, 6.41944694519043
0, 7, 15, 6.846597671508789
0, 7, 16, 15.88364410400391
0, 7, 17, 50.67081832885742
0, 7, 18, 161.2032623291016
0, 7, 19, 183.0171813964844
0, 7, 20, 179.0178375244141
0, 7, 21, 180.6650543212891
0, 7, 22, 191.0221099853516
0, 7, 23, 202.7189483642578
0, 7, 24, 179.5006408691406
0, 7, 25, 213.6020660400391
0, 7, 26, 189.6171722412109
0, 7, 27, 181.6083984375
0, 7, 28, 183.5206756591797
0, 7, 29, 209.5856170654297
0, 7, 30, 192.893310546875
0, 7, 31, 175.7337799072266
0, 7, 32, 190.4544067382812
0, 7, 33, 179.9779205322266
0, 7, 34, 193.9830474853516
0, 7, 35, 196.6279602050781
0, 7, 36, 187.6257781982422
0, 7, 37, 212.9346008300781
0, 7, 38, 191.3710479736328
0, 7, 39, 173.4507293701172
0, 7, 40, 182.7522735595703
0, 7, 41, 184.6167449951172
0, 7, 42, 177.8234252929688
0, 7, 43, 178.03369140625
0, 7, 44, 179.0417175292969
0, 7, 45, 174.3629913330078
0, 7, 46, 188.1357879638672
0, 7, 47, 197.4665069580078
0, 7, 48, 185.4185333251953
0, 7, 49, 198.2181701660156
0, 7, 50, 187.7942962646484
0, 7, 51, 204.0594329833984
0, 7, 52, 204.8802642822266
0, 7, 53, 192.0222015380859
0, 7, 54, 196.0174255371094
0, 7, 55, 203.3746032714844
0, 7, 56, 183.6149749755859
0, 7, 57, 182.5752868652344
0, 7, 58, 192.1346588134766
0, 7, 59, 187.4051055908203
0, 7, 60, 202.0707092285156
0, 7, 61, 171.2681884765625
0, 7, 62, 202.9875335693359
0, 7, 63, 188.9216003417969
0, 7, 64, 199.5420532226562
0, 7, 65, 197.6696472167969
0, 7, 66, 206.1256103515625
0, 7, 67, 219.4208068847656
0, 7, 68, 162.4963226318359
0, 7, 69, 194.6811218261719
0, 7, 70, 217.2270355224609
0, 7, 71, 183.8009643554688
0, 7, 72, 180.9999389648438
0, 7, 73, 177.7288970947266
0, 7, 74, 208.6918029785156
0, 7, 75, 205.8588104248047
0, 7, 76, 214.416015625
0, 7, 77, 172.9362030029297
0, 7, 78, 176.2150268554688
0, 7, 79, 194.599853515625
0, 7, 80, 196.1458129882812
0, 7, 81, 215.0113830566406
0, 7, 82, 187.0815124511719
0, 7, 83, 204.8968200683594
0, 7, 84, 191.8052368164062
0, 7, 85, 185.5314178466797
0, 7, 86, 200.7406005859375
0, 7, 87, 225.4950561523438
0, 7, 88, 194.4712677001953
0, 7, 89, 176.3316802978516
0, 7, 90, 182.0179901123047
0, 7, 91, 195.9029388427734
0, 7, 92, 194.9319152832031
0, 7, 93, 198.7006225585938
0, 7, 94, 178.8252716064453
0, 7, 95, 197.8936614990234
0, 7, 96, 208.8520812988281
0, 7, 97, 189.7503509521484
0, 7, 98, 177.7651519775391
0, 7, 99, 196.9992980957031
0, 7, 100, 182.3456878662109
0, 7, 101, 199.843505859375
0, 7, 102, 185.6483612060547
0, 7, 103, 181.9741058349609
0, 7, 104, 174.5453338623047
0, 7, 105, 194.6480102539062
0, 7, 106, 204.9423980712891
0, 7, 107, 172.5265045166016
0, 7, 108, 176.3685607910156
0, 7, 109, 136.8862152099609
0, 7, 110, 55.88855361938477
0, 7, 111, 8.907869338989258
0, 7, 112, 7.577528476715088
0, 7, 113, 8.388802528381348
0, 7, 114, 7.200421333312988
0, 7, 115, 4.593490600585938
0, 7, 116, 4.04648494720459
0, 7, 117, 1.944344282150269
0, 7, 118, 4.839296340942383
0, 7, 119, 4.074407577514648
0, 7, 120, 2.911304473876953
0, 7, 121, 4.574948310852051
0, 7, 122, 2.614885091781616
0, 7, 123, 0.9195396304130554
0, 7, 124, 1.142952680587769
0, 7, 125, 2.134470462799072
0, 7, 126, 3.407011747360229
0, 7, 127, 2.104565620422363
0, 8, 0, 3.409497976303101
0, 8, 1, 2.17013955116272
0, 8, 2, 4.244170665740967
0, 8, 3, 4.245491504669189
0, 8, 4, 1.576320648193359
0, 8, 5, 3.154128313064575
0, 8, 6, 2.607879877090454
0, 8, 7, 3.004672288894653
0, 8, 8, 4.149138927459717
0, 8, 9, 5.57433557510376
0, 8, 10, 2.063558578491211
0, 8, 11, 2.007188081741333
0, 8, 12, 3.13664436340332
0, 8, 13, 4.501950263977051
0, 8, 14, 7.303946971893311
0, 8, 15, 8.247836112976074
0, 8, 16, 18.70768547058105
0, 8, 17, 75.27455139160156
0, 8, 18, 142.2525939941406
0, 8, 19, 180.0875244140625
0, 8, 20, 196.0470275878906
0, 8, 21, 193.4554901123047
0, 8, 22, 179.3115386962891
0, 8, 23, 172.6431274414062
0, 8, 24, 193.1900939941406
0, 8, 25, 185.9485473632812
0, 8, 26, 193.2726287841797
0, 8, 27, 187.1926422119141
0, 8, 28, 188.7585296630859
0, 8, 29, 207.4690093994141
0, 8, 30, 198.0897521972656
0, 8, 31, 182.5759887695312
0, 8, 32, 197.6053771972656
0, 8, 33, 206.5039825439453
0, 8, 34, 202.4725036621094
0, 8, 35, 184.3226318359375
0, 8, 36, 181.5169677734375
