# TOPAS Version: 3.1.p3
# Parameter File: batch_inserts_90.txt
# Results for scorer Readout_Adipose
# Scored in component: MyBox
# X in 1 bin  of 0.65 cm
# Y in 512 bins of 0.0783984 cm
# Z in 128 bins of 0.078125 cm
# EnergyDeposit ( MeV ) : Sum   
0, 0, 0, 1.414886474609375
0, 0, 1, 3.588871240615845
0, 0, 2, 3.268938541412354
0, 0, 3, 2.063670635223389
0, 0, 4, 2.065723180770874
0, 0, 5, 1.491166949272156
0, 0, 6, 1.111859321594238
0, 0, 7, 2.614990711212158
0, 0, 8, 2.430300712585449
0, 0, 9, 2.865673542022705
0, 0, 10, 4.582652568817139
0, 0, 11, 3.454955101013184
0, 0, 12, 4.82144832611084
0, 0, 13, 2.583582162857056
0, 0, 14, 5.834041118621826
0, 0, 15, 5.283845901489258
0, 0, 16, 3.516807556152344
0, 0, 17, 5.761560440063477
0, 0, 18, 7.319475173950195
0, 0, 19, 23.67626571655273
0, 0, 20, 94.00478363037109
0, 0, 21, 153.5943145751953
0, 0, 22, 154.2558441162109
0, 0, 23, 144.6664428710938
0, 0, 24, 160.2205963134766
0, 0, 25, 165.6841278076172
0, 0, 26, 168.1012878417969
0, 0, 27, 173.9213256835938
0, 0, 28, 179.0115661621094
0, 0, 29, 175.6167449951172
0, 0, 30, 172.9810943603516
0, 0, 31, 167.1836395263672
0, 0, 32, 164.7033996582031
0, 0, 33, 166.5275573730469
0, 0, 34, 176.8477325439453
0, 0, 35, 172.9316253662109
0, 0, 36, 159.4176788330078
0, 0, 37, 161.3868560791016
0, 0, 38, 166.0413208007812
0, 0, 39, 159.4747161865234
0, 0, 40, 165.0031433105469
0, 0, 41, 166.4105682373047
0, 0, 42, 143.2105102539062
0, 0, 43, 169.3170776367188
0, 0, 44, 177.1924438476562
0, 0, 45, 174.2407684326172
0, 0, 46, 165.7385711669922
0, 0, 47, 168.4032287597656
0, 0, 48, 169.9328308105469
0, 0, 49, 182.6079254150391
0, 0, 50, 168.4382781982422
0, 0, 51, 162.3866271972656
0, 0, 52, 161.8278045654297
0, 0, 53, 170.9448547363281
0, 0, 54, 160.7292938232422
0, 0, 55, 166.9386291503906
0, 0, 56, 190.3540344238281
0, 0, 57, 169.8822326660156
0, 0, 58, 162.2326812744141
0, 0, 59, 172.3946228027344
0, 0, 60, 168.1612701416016
0, 0, 61, 170.5189666748047
0, 0, 62, 183.9110870361328
0, 0, 63, 167.8531341552734
0, 0, 64, 163.8848114013672
0, 0, 65, 174.3311157226562
0, 0, 66, 177.6973114013672
0, 0, 67, 163.794189453125
0, 0, 68, 158.8306579589844
0, 0, 69, 158.7253570556641
0, 0, 70, 170.1733245849609
0, 0, 71, 158.3358306884766
0, 0, 72, 161.2094573974609
0, 0, 73, 170.8048095703125
0, 0, 74, 163.5728149414062
0, 0, 75, 163.7484436035156
0, 0, 76, 162.9243316650391
0, 0, 77, 171.9916076660156
0, 0, 78, 181.6470031738281
0, 0, 79, 175.2498474121094
0, 0, 80, 159.7664337158203
0, 0, 81, 159.5553283691406
0, 0, 82, 183.3463439941406
0, 0, 83, 172.5068054199219
0, 0, 84, 159.2444152832031
0, 0, 85, 181.4627075195312
0, 0, 86, 159.1514892578125
0, 0, 87, 176.8733978271484
0, 0, 88, 178.1533050537109
0, 0, 89, 176.6076812744141
0, 0, 90, 163.1410369873047
0, 0, 91, 185.7841491699219
0, 0, 92, 163.5738983154297
0, 0, 93, 156.7212219238281
0, 0, 94, 168.3781890869141
0, 0, 95, 174.23876953125
0, 0, 96, 183.8179168701172
0, 0, 97, 184.4837188720703
0, 0, 98, 186.8585357666016
0, 0, 99, 171.1440734863281
0, 0, 100, 158.5225219726562
0, 0, 101, 167.8955383300781
0, 0, 102, 171.5384674072266
0, 0, 103, 171.0950164794922
0, 0, 104, 168.5723571777344
0, 0, 105, 177.6087341308594
0, 0, 106, 159.0470886230469
0, 0, 107, 86.05667114257812
0, 0, 108, 21.02795600891113
0, 0, 109, 10.05050945281982
0, 0, 110, 5.005488395690918
0, 0, 111, 6.181226253509521
0, 0, 112, 3.654636144638062
0, 0, 113, 2.83609414100647
0, 0, 114, 2.001682758331299
0, 0, 115, 3.575932264328003
0, 0, 116, 1.450072288513184
0, 0, 117, 2.391172885894775
0, 0, 118, 3.104994058609009
0, 0, 119, 2.467235326766968
0, 0, 120, 2.041595697402954
0, 0, 121, 3.901334762573242
0, 0, 122, 4.344115734100342
0, 0, 123, 3.526679039001465
0, 0, 124, 1.195176124572754
0, 0, 125, 3.046734809875488
0, 0, 126, 0.7523690462112427
0, 0, 127, 2.478146314620972
0, 1, 0, 0.9590741991996765
0, 1, 1, 3.550125122070312
0, 1, 2, 6.137742519378662
0, 1, 3, 1.308298826217651
0, 1, 4, 0.9046956300735474
0, 1, 5, 1.753867745399475
0, 1, 6, 2.008259534835815
0, 1, 7, 2.242813587188721
0, 1, 8, 1.470149040222168
0, 1, 9, 2.087757110595703
0, 1, 10, 1.996579885482788
0, 1, 11, 3.84306788444519
0, 1, 12, 3.159934520721436
0, 1, 13, 3.892834901809692
0, 1, 14, 7.344014644622803
0, 1, 15, 5.730652809143066
0, 1, 16, 7.174370765686035
0, 1, 17, 5.543030738830566
0, 1, 18, 11.52801322937012
0, 1, 19, 40.5394172668457
0, 1, 20, 126.9937438964844
0, 1, 21, 176.9980316162109
0, 1, 22, 193.2145843505859
0, 1, 23, 186.5850524902344
0, 1, 24, 179.8039093017578
0, 1, 25, 193.2453765869141
0, 1, 26, 197.5621337890625
0, 1, 27, 186.3550415039062
0, 1, 28, 188.3414916992188
0, 1, 29, 183.7200469970703
0, 1, 30, 178.7692413330078
0, 1, 31, 181.0155181884766
0, 1, 32, 188.4748229980469
0, 1, 33, 192.094482421875
0, 1, 34, 186.3412933349609
0, 1, 35, 193.7819976806641
0, 1, 36, 205.4283752441406
0, 1, 37, 185.0495300292969
0, 1, 38, 164.3537902832031
0, 1, 39, 171.6163635253906
0, 1, 40, 178.9245452880859
0, 1, 41, 185.0060119628906
0, 1, 42, 182.6250610351562
0, 1, 43, 184.3462982177734
0, 1, 44, 166.9551544189453
0, 1, 45, 186.821533203125
0, 1, 46, 170.1735076904297
0, 1, 47, 184.7097930908203
0, 1, 48, 186.3725891113281
0, 1, 49, 186.7547607421875
0, 1, 50, 179.2955627441406
0, 1, 51, 190.8497772216797
0, 1, 52, 195.6413269042969
0, 1, 53, 195.6427154541016
0, 1, 54, 184.4227294921875
0, 1, 55, 165.1684875488281
0, 1, 56, 178.5358123779297
0, 1, 57, 178.6654205322266
0, 1, 58, 188.3722534179688
0, 1, 59, 194.925048828125
0, 1, 60, 188.2710418701172
0, 1, 61, 177.8813171386719
0, 1, 62, 203.7306213378906
0, 1, 63, 173.4743347167969
0, 1, 64, 175.6123504638672
0, 1, 65, 186.6707153320312
0, 1, 66, 203.5936431884766
0, 1, 67, 182.1592254638672
0, 1, 68, 186.5141296386719
0, 1, 69, 189.2620239257812
0, 1, 70, 185.4299468994141
0, 1, 71, 171.1928253173828
0, 1, 72, 190.4521789550781
0, 1, 73, 190.5387268066406
0, 1, 74, 201.4917755126953
0, 1, 75, 183.7050170898438
0, 1, 76, 175.2673187255859
0, 1, 77, 191.9405822753906
0, 1, 78, 188.9210357666016
0, 1, 79, 201.3315734863281
0, 1, 80, 186.3757019042969
0, 1, 81, 174.1124114990234
0, 1, 82, 207.0954437255859
0, 1, 83, 212.2289581298828
0, 1, 84, 180.1819305419922
0, 1, 85, 169.0457000732422
0, 1, 86, 169.2821807861328
0, 1, 87, 185.0599822998047
0, 1, 88, 174.7043151855469
0, 1, 89, 187.1753387451172
0, 1, 90, 213.12060546875
0, 1, 91, 181.8383026123047
0, 1, 92, 186.7084503173828
0, 1, 93, 181.1077728271484
0, 1, 94, 186.6394805908203
0, 1, 95, 182.1449584960938
0, 1, 96, 196.9678192138672
0, 1, 97, 182.6368560791016
0, 1, 98, 187.3908081054688
0, 1, 99, 175.0435791015625
0, 1, 100, 170.7762603759766
0, 1, 101, 178.4733276367188
0, 1, 102, 182.2644653320312
0, 1, 103, 173.1167144775391
0, 1, 104, 191.0979461669922
0, 1, 105, 181.2216339111328
0, 1, 106, 164.3644409179688
0, 1, 107, 125.8456802368164
0, 1, 108, 46.5505485534668
0, 1, 109, 9.513958930969238
0, 1, 110, 6.836836814880371
0, 1, 111, 6.24891185760498
0, 1, 112, 8.385611534118652
0, 1, 113, 7.73553466796875
0, 1, 114, 4.843923568725586
0, 1, 115, 2.974450349807739
0, 1, 116, 2.025605916976929
0, 1, 117, 1.960162878036499
0, 1, 118, 4.13715934753418
0, 1, 119, 1.107459664344788
0, 1, 120, 3.997186660766602
0, 1, 121, 3.751335382461548
0, 1, 122, 2.597460508346558
0, 1, 123, 4.804190158843994
0, 1, 124, 2.685164928436279
0, 1, 125, 1.824934124946594
0, 1, 126, 1.693890571594238
0, 1, 127, 2.613920211791992
0, 2, 0, 2.283787727355957
0, 2, 1, 2.07887864112854
0, 2, 2, 2.173476457595825
0, 2, 3, 1.100634098052979
0, 2, 4, 2.180974960327148
0, 2, 5, 0.9599937200546265
0, 2, 6, 2.622122764587402
0, 2, 7, 1.479578375816345
0, 2, 8, 2.080423593521118
0, 2, 9, 2.314032793045044
0, 2, 10, 5.690775394439697
0, 2, 11, 4.094858169555664
0, 2, 12, 4.971249580383301
0, 2, 13, 3.0389404296875
0, 2, 14, 4.672930717468262
0, 2, 15, 5.835474967956543
0, 2, 16, 4.400440216064453
0, 2, 17, 8.916022300720215
0, 2, 18, 14.24379348754883
0, 2, 19, 76.47589874267578
0, 2, 20, 162.6549072265625
0, 2, 21, 183.8010711669922
0, 2, 22, 194.0166320800781
0, 2, 23, 183.6669311523438
0, 2, 24, 174.9240875244141
0, 2, 25, 183.3596649169922
0, 2, 26, 180.6741790771484
0, 2, 27, 189.1646270751953
0, 2, 28, 171.5876159667969
0, 2, 29, 169.3817443847656
0, 2, 30, 184.3022613525391
0, 2, 31, 182.1359405517578
0, 2, 32, 182.8458557128906
0, 2, 33, 190.8390808105469
0, 2, 34, 198.4283294677734
0, 2, 35, 181.9103088378906
0, 2, 36, 186.727294921875
0, 2, 37, 180.6220550537109
0, 2, 38, 186.1871185302734
0, 2, 39, 166.4713134765625
0, 2, 40, 184.1394195556641
0, 2, 41, 183.1633148193359
0, 2, 42, 191.066162109375
0, 2, 43, 193.3130493164062
0, 2, 44, 191.140380859375
0, 2, 45, 189.8014984130859
0, 2, 46, 196.0871734619141
0, 2, 47, 189.3491058349609
0, 2, 48, 178.6558990478516
0, 2, 49, 198.1573791503906
0, 2, 50, 168.9803314208984
0, 2, 51, 184.6006774902344
0, 2, 52, 186.5060729980469
0, 2, 53, 195.6974792480469
0, 2, 54, 175.0186004638672
0, 2, 55, 173.4812164306641
0, 2, 56, 181.1010131835938
0, 2, 57, 199.8817138671875
0, 2, 58, 187.1716461181641
0, 2, 59, 189.79638671875
0, 2, 60, 197.0930786132812
0, 2, 61, 193.4297180175781
0, 2, 62, 190.104736328125
0, 2, 63, 170.7377319335938
0, 2, 64, 190.5591888427734
0, 2, 65, 203.4658660888672
0, 2, 66, 195.5712432861328
0, 2, 67, 184.4673309326172
0, 2, 68, 182.4487609863281
0, 2, 69, 188.1737365722656
0, 2, 70, 202.9754180908203
0, 2, 71, 177.3946685791016
0, 2, 72, 186.8406677246094
0, 2, 73, 177.0981597900391
0, 2, 74, 180.4830627441406
0, 2, 75, 196.3147277832031
0, 2, 76, 184.7550354003906
0, 2, 77, 177.2012481689453
0, 2, 78, 197.9624481201172
0, 2, 79, 177.1230010986328
0, 2, 80, 188.0352630615234
0, 2, 81, 189.4314880371094
0, 2, 82, 207.6830291748047
0, 2, 83, 204.4047088623047
0, 2, 84, 187.7393646240234
0, 2, 85, 170.914306640625
0, 2, 86, 195.4021911621094
0, 2, 87, 171.5718231201172
0, 2, 88, 178.4140014648438
0, 2, 89, 184.3551330566406
0, 2, 90, 177.7557220458984
0, 2, 91, 175.4533081054688
0, 2, 92, 197.3659362792969
0, 2, 93, 192.1745147705078
0, 2, 94, 200.3451690673828
0, 2, 95, 195.4815826416016
0, 2, 96, 185.9916381835938
0, 2, 97, 171.4022521972656
0, 2, 98, 173.6566772460938
0, 2, 99, 162.4621124267578
0, 2, 100, 187.269775390625
0, 2, 101, 196.6235656738281
0, 2, 102, 176.9143981933594
0, 2, 103, 199.6130065917969
0, 2, 104, 187.3994598388672
0, 2, 105, 199.8020324707031
0, 2, 106, 194.1511993408203
0, 2, 107, 150.6975402832031
0, 2, 108, 78.81405639648438
0, 2, 109, 17.85228157043457
0, 2, 110, 8.227367401123047
0, 2, 111, 5.883922576904297
0, 2, 112, 4.536788463592529
0, 2, 113, 3.902311563491821
0, 2, 114, 6.255795001983643
0, 2, 115, 3.083317041397095
0, 2, 116, 2.141256093978882
0, 2, 117, 2.643569946289062
0, 2, 118, 1.837208271026611
0, 2, 119, 2.599698305130005
0, 2, 120, 1.663122415542603
0, 2, 121, 4.007170677185059
0, 2, 122, 3.248184204101562
0, 2, 123, 3.562848329544067
0, 2, 124, 2.012692213058472
0, 2, 125, 1.887690663337708
0, 2, 126, 3.0245521068573
0, 2, 127, 0.5561445951461792
0, 3, 0, 1.7283935546875
0, 3, 1, 1.057597279548645
0, 3, 2, 0.9101302623748779
0, 3, 3, 0.9587129354476929
0, 3, 4, 3.32719349861145
0, 3, 5, 1.201859831809998
0, 3, 6, 1.163843870162964
0, 3, 7, 1.461558222770691
0, 3, 8, 3.592193603515625
0, 3, 9, 1.748556971549988
0, 3, 10, 1.82438600063324
0, 3, 11, 5.027591228485107
0, 3, 12, 3.53643536567688
0, 3, 13, 3.72147536277771
0, 3, 14, 3.995616674423218
0, 3, 15, 6.275741577148438
0, 3, 16, 7.888983249664307
0, 3, 17, 5.867448806762695
0, 3, 18, 32.47920227050781
0, 3, 19, 114.4197769165039
0, 3, 20, 180.0780334472656
0, 3, 21, 172.6278686523438
0, 3, 22, 178.4687194824219
0, 3, 23, 187.382080078125
0, 3, 24, 179.08349609375
0, 3, 25, 169.6275634765625
0, 3, 26, 181.1613616943359
0, 3, 27, 193.5258331298828
0, 3, 28, 181.3390960693359
0, 3, 29, 197.6020660400391
0, 3, 30, 184.7210998535156
0, 3, 31, 192.5648651123047
0, 3, 32, 205.558837890625
0, 3, 33, 196.3776092529297
0, 3, 34, 187.5079956054688
0, 3, 35, 173.2898712158203
0, 3, 36, 185.0325927734375
0, 3, 37, 199.7957763671875
0, 3, 38, 192.8457794189453
0, 3, 39, 184.9643859863281
0, 3, 40, 165.1492614746094
0, 3, 41, 174.6909790039062
0, 3, 42, 184.7403259277344
0, 3, 43, 181.8358459472656
0, 3, 44, 202.8923797607422
0, 3, 45, 208.9149169921875
0, 3, 46, 198.8518371582031
0, 3, 47, 195.6575012207031
0, 3, 48, 196.0832366943359
0, 3, 49, 180.3723602294922
0, 3, 50, 187.1256256103516
0, 3, 51, 174.7876739501953
0, 3, 52, 187.0892639160156
0, 3, 53, 176.8944396972656
0, 3, 54, 180.4024047851562
0, 3, 55, 176.6271362304688
0, 3, 56, 183.7221221923828
0, 3, 57, 174.8647918701172
0, 3, 58, 200.6328887939453
0, 3, 59, 195.9206237792969
0, 3, 60, 185.4588928222656
0, 3, 61, 181.8721466064453
0, 3, 62, 181.8384552001953
0, 3, 63, 188.1840209960938
0, 3, 64, 190.4506225585938
0, 3, 65, 189.4350433349609
0, 3, 66, 175.2553253173828
0, 3, 67, 190.9316558837891
0, 3, 68, 211.8925170898438
0, 3, 69, 191.7519226074219
0, 3, 70, 184.8267669677734
0, 3, 71, 198.1800842285156
0, 3, 72, 185.7429046630859
0, 3, 73, 186.6950836181641
0, 3, 74, 193.1558227539062
0, 3, 75, 192.7423858642578
0, 3, 76, 190.3394165039062
0, 3, 77, 200.4871520996094
0, 3, 78, 189.1275787353516
0, 3, 79, 186.0997619628906
0, 3, 80, 188.9647521972656
0, 3, 81, 183.6949005126953
0, 3, 82, 179.9247741699219
0, 3, 83, 194.5773620605469
0, 3, 84, 200.183837890625
0, 3, 85, 192.6868286132812
0, 3, 86, 204.3000946044922
0, 3, 87, 197.8590545654297
0, 3, 88, 192.206787109375
0, 3, 89, 192.9194946289062
0, 3, 90, 173.9125823974609
0, 3, 91, 158.2633514404297
0, 3, 92, 206.5916900634766
0, 3, 93, 196.3063354492188
0, 3, 94, 191.8272399902344
0, 3, 95, 210.7758178710938
0, 3, 96, 210.2172546386719
0, 3, 97, 167.6395416259766
0, 3, 98, 167.9254913330078
0, 3, 99, 180.606689453125
0, 3, 100, 176.9129486083984
0, 3, 101, 197.5785980224609
0, 3, 102, 197.4826202392578
0, 3, 103, 193.5643768310547
0, 3, 104, 201.9287109375
0, 3, 105, 176.2545013427734
0, 3, 106, 181.2294464111328
0, 3, 107, 168.9754180908203
0, 3, 108, 107.4954528808594
0, 3, 109, 27.81469345092773
0, 3, 110, 7.153364181518555
0, 3, 111, 7.075829029083252
0, 3, 112, 4.968770980834961
0, 3, 113, 6.872003555297852
0, 3, 114, 5.71268367767334
0, 3, 115, 5.814818382263184
0, 3, 116, 5.871991634368896
0, 3, 117, 3.854621171951294
0, 3, 118, 2.694788932800293
0, 3, 119, 2.898630380630493
0, 3, 120, 3.190006256103516
0, 3, 121, 2.215173721313477
0, 3, 122, 3.412676095962524
0, 3, 123, 2.682652235031128
0, 3, 124, 2.589274644851685
0, 3, 125, 1.200959324836731
0, 3, 126, 1.645705342292786
0, 3, 127, 1.462270021438599
0, 4, 0, 1.198337316513062
0, 4, 1, 1.536620259284973
0, 4, 2, 2.966431856155396
0, 4, 3, 3.615254640579224
0, 4, 4, 2.526767015457153
0, 4, 5, 2.391210556030273
0, 4, 6, 3.423980712890625
0, 4, 7, 2.333294153213501
0, 4, 8, 2.03645396232605
0, 4, 9, 1.328125
0, 4, 10, 3.060734748840332
0, 4, 11, 3.766937732696533
0, 4, 12, 4.37007474899292
0, 4, 13, 4.534252166748047
0, 4, 14, 4.642286777496338
0, 4, 15, 8.077799797058105
0, 4, 16, 6.851057529449463
0, 4, 17, 11.42715072631836
0, 4, 18, 55.62207412719727
0, 4, 19, 152.1679840087891
0, 4, 20, 192.5509185791016
0, 4, 21, 169.6700592041016
0, 4, 22, 187.2722015380859
0, 4, 23, 197.0018310546875
0, 4, 24, 192.0197143554688
0, 4, 25, 199.7634582519531
0, 4, 26, 183.6464080810547
0, 4, 27, 192.0137329101562
0, 4, 28, 178.1923522949219
0, 4, 29, 205.8323059082031
0, 4, 30, 195.6143341064453
0, 4, 31, 193.5211944580078
0, 4, 32, 209.3234100341797
0, 4, 33, 189.8580932617188
0, 4, 34, 192.5291748046875
0, 4, 35, 212.8455963134766
0, 4, 36, 194.2259521484375
0, 4, 37, 177.0082702636719
0, 4, 38, 194.6574096679688
0, 4, 39, 189.1749572753906
0, 4, 40, 185.3804626464844
0, 4, 41, 188.9759368896484
0, 4, 42, 205.7776641845703
0, 4, 43, 173.2202606201172
0, 4, 44, 183.3453979492188
0, 4, 45, 195.9352722167969
0, 4, 46, 185.7836303710938
0, 4, 47, 179.6191864013672
0, 4, 48, 185.1354064941406
0, 4, 49, 175.4304351806641
0, 4, 50, 186.6598052978516
0, 4, 51, 198.2038726806641
0, 4, 52, 223.8075256347656
0, 4, 53, 205.4811401367188
0, 4, 54, 189.482421875
0, 4, 55, 174.9508056640625
0, 4, 56, 190.1426239013672
0, 4, 57, 192.7378540039062
0, 4, 58, 188.1007537841797
0, 4, 59, 188.9069366455078
0, 4, 60, 195.7995758056641
0, 4, 61, 193.4557952880859
0, 4, 62, 191.7199401855469
0, 4, 63, 178.09521484375
0, 4, 64, 211.2481689453125
0, 4, 65, 190.6332397460938
0, 4, 66, 201.2811279296875
0, 4, 67, 200.0592651367188
0, 4, 68, 201.4572601318359
0, 4, 69, 200.8598937988281
0, 4, 70, 204.224853515625
0, 4, 71, 206.7779693603516
0, 4, 72, 215.8904418945312
0, 4, 73, 185.6097869873047
0, 4, 74, 179.8420104980469
0, 4, 75, 185.6024322509766
0, 4, 76, 190.291015625
0, 4, 77, 184.5703430175781
0, 4, 78, 196.9122619628906
0, 4, 79, 204.5753326416016
0, 4, 80, 211.8897094726562
0, 4, 81, 200.2765197753906
0, 4, 82, 181.0546875
0, 4, 83, 169.3103332519531
0, 4, 84, 193.0779876708984
0, 4, 85, 196.6204833984375
0, 4, 86, 182.0681610107422
0, 4, 87, 184.3559265136719
0, 4, 88, 204.4598388671875
0, 4, 89, 187.3722076416016
0, 4, 90, 210.9197845458984
0, 4, 91, 188.9683227539062
0, 4, 92, 196.2239685058594
0, 4, 93, 197.2774505615234
0, 4, 94, 181.0489196777344
0, 4, 95, 173.204345703125
0, 4, 96, 189.7159729003906
0, 4, 97, 193.0028381347656
0, 4, 98, 200.6917419433594
0, 4, 99, 183.8527374267578
0, 4, 100, 182.1012573242188
0, 4, 101, 177.3915100097656
0, 4, 102, 173.8035736083984
0, 4, 103, 185.4561920166016
0, 4, 104, 209.1499176025391
0, 4, 105, 189.7979583740234
0, 4, 106, 180.0685119628906
0, 4, 107, 182.1757049560547
0, 4, 108, 152.0717315673828
0, 4, 109, 49.95484161376953
0, 4, 110, 10.88192749023438
0, 4, 111, 7.049484252929688
0, 4, 112, 6.003777027130127
0, 4, 113, 5.541531085968018
0, 4, 114, 4.663851261138916
0, 4, 115, 3.692699193954468
0, 4, 116, 5.588537693023682
0, 4, 117, 2.444735050201416
0, 4, 118, 3.749660730361938
0, 4, 119, 3.867432594299316
0, 4, 120, 2.355310201644897
0, 4, 121, 3.561100482940674
0, 4, 122, 3.109833002090454
0, 4, 123, 2.569384098052979
0, 4, 124, 3.552306890487671
0, 4, 125, 2.714691638946533
0, 4, 126, 1.110188126564026
0, 4, 127, 1.362465500831604
0, 5, 0, 1.607401013374329
0, 5, 1, 3.32433557510376
0, 5, 2, 5.565884590148926
0, 5, 3, 3.83852744102478
0, 5, 4, 2.930220127105713
0, 5, 5, 3.110181331634521
0, 5, 6, 3.955515384674072
0, 5, 7, 2.843976736068726
0, 5, 8, 2.397758483886719
0, 5, 9, 3.148091077804565
0, 5, 10, 3.77778959274292
0, 5, 11, 5.372105598449707
0, 5, 12, 4.246713638305664
0, 5, 13, 3.400678634643555
0, 5, 14, 5.25747013092041
0, 5, 15, 9.509975433349609
0, 5, 16, 7.407912254333496
0, 5, 17, 22.7334098815918
0, 5, 18, 83.06571960449219
0, 5, 19, 164.6996765136719
0, 5, 20, 182.5756225585938
0, 5, 21, 178.3789825439453
0, 5, 22, 172.1837615966797
0, 5, 23, 200.3509521484375
0, 5, 24, 187.2784271240234
0, 5, 25, 208.8259735107422
0, 5, 26, 181.6310882568359
0, 5, 27, 195.1796417236328
0, 5, 28, 189.7299194335938
0, 5, 29, 197.5617523193359
0, 5, 30, 177.9467010498047
0, 5, 31, 179.8210144042969
0, 5, 32, 188.6342315673828
0, 5, 33, 171.6261901855469
0, 5, 34, 195.7022094726562
0, 5, 35, 197.341064453125
0, 5, 36, 167.3514251708984
0, 5, 37, 196.9827117919922
0, 5, 38, 180.9598846435547
0, 5, 39, 186.8643188476562
0, 5, 40, 196.9720306396484
0, 5, 41, 177.7291564941406
0, 5, 42, 187.5442962646484
0, 5, 43, 193.7321319580078
0, 5, 44, 199.3529205322266
0, 5, 45, 186.8790435791016
0, 5, 46, 192.6563873291016
0, 5, 47, 180.9696044921875
0, 5, 48, 178.2621154785156
0, 5, 49, 175.9543304443359
0, 5, 50, 185.7618255615234
0, 5, 51, 171.8032989501953
0, 5, 52, 167.6390686035156
0, 5, 53, 181.5103607177734
0, 5, 54, 172.5832061767578
0, 5, 55, 215.3682098388672
0, 5, 56, 182.040283203125
0, 5, 57, 207.3978729248047
0, 5, 58, 183.3880767822266
0, 5, 59, 181.4400787353516
0, 5, 60, 219.5042266845703
0, 5, 61, 184.2335205078125
0, 5, 62, 178.0510711669922
0, 5, 63, 180.1567993164062
0, 5, 64, 195.5373840332031
0, 5, 65, 209.5448455810547
0, 5, 66, 192.2553863525391
0, 5, 67, 199.1409454345703
0, 5, 68, 185.7145233154297
0, 5, 69, 185.1065979003906
0, 5, 70, 185.5632171630859
0, 5, 71, 193.0496063232422
0, 5, 72, 198.6643524169922
0, 5, 73, 201.4064788818359
0, 5, 74, 180.7593231201172
0, 5, 75, 204.5326080322266
0, 5, 76, 215.1656341552734
0, 5, 77, 179.5338287353516
0, 5, 78, 194.6241455078125
0, 5, 79, 189.4763946533203
0, 5, 80, 197.7322998046875
0, 5, 81, 203.14892578125
0, 5, 82, 203.5280609130859
0, 5, 83, 188.4498291015625
0, 5, 84, 205.0067901611328
0, 5, 85, 177.1677856445312
0, 5, 86, 197.6430511474609
0, 5, 87, 187.9052124023438
0, 5, 88, 176.9903411865234
0, 5, 89, 194.1628265380859
0, 5, 90, 200.0294494628906
0, 5, 91, 194.8789978027344
0, 5, 92, 191.2680969238281
0, 5, 93, 188.7891693115234
0, 5, 94, 208.5344543457031
0, 5, 95, 177.8091125488281
0, 5, 96, 182.1985473632812
0, 5, 97, 191.8619689941406
0, 5, 98, 188.2436676025391
0, 5, 99, 193.7707672119141
0, 5, 100, 185.4119110107422
0, 5, 101, 195.1161651611328
0, 5, 102, 181.0454711914062
0, 5, 103, 176.0039520263672
0, 5, 104, 189.7633209228516
0, 5, 105, 189.6448974609375
0, 5, 106, 176.7750854492188
0, 5, 107, 181.5303192138672
0, 5, 108, 175.9106140136719
0, 5, 109, 91.07676696777344
0, 5, 110, 31.9085693359375
0, 5, 111, 8.758197784423828
0, 5, 112, 6.748528003692627
0, 5, 113, 9.132504463195801
0, 5, 114, 6.195417881011963
0, 5, 115, 6.743752479553223
0, 5, 116, 4.787352085113525
0, 5, 117, 3.316538095474243
0, 5, 118, 3.076627492904663
0, 5, 119, 3.819626092910767
0, 5, 120, 1.888599038124084
0, 5, 121, 3.147244691848755
0, 5, 122, 4.106569766998291
0, 5, 123, 4.652740001678467
0, 5, 124, 3.196021795272827
0, 5, 125, 1.872502684593201
0, 5, 126, 2.857329368591309
0, 5, 127, 2.278174638748169
0, 6, 0, 3.737046241760254
0, 6, 1, 2.554518699645996
0, 6, 2, 3.486997127532959
0, 6, 3, 1.78221607208252
0, 6, 4, 2.750324964523315
0, 6, 5, 2.53861927986145
0, 6, 6, 2.93909478187561
0, 6, 7, 3.827057123184204
0, 6, 8, 4.216384410858154
0, 6, 9, 2.755818367004395
0, 6, 10, 4.843447208404541
0, 6, 11, 4.255445957183838
0, 6, 12, 3.911037683486938
0, 6, 13, 5.484554767608643
0, 6, 14, 4.951897144317627
0, 6, 15, 6.38126277923584
0, 6, 16, 14.44550132751465
0, 6, 17, 28.07133674621582
0, 6, 18, 112.064453125
0, 6, 19, 191.4628448486328
0, 6, 20, 194.6626586914062
0, 6, 21, 197.7995452880859
0, 6, 22, 190.7503204345703
0, 6, 23, 190.8513641357422
0, 6, 24, 200.3057098388672
0, 6, 25, 181.5291900634766
0, 6, 26, 187.1388397216797
0, 6, 27, 191.5637512207031
0, 6, 28, 189.5162658691406
0, 6, 29, 210.8243560791016
0, 6, 30, 190.0948486328125
0, 6, 31, 193.1465606689453
0, 6, 32, 206.3877410888672
0, 6, 33, 184.1524353027344
0, 6, 34, 196.8427276611328
0, 6, 35, 188.2139892578125
0, 6, 36, 180.7283630371094
0, 6, 37, 183.6754302978516
0, 6, 38, 186.7492370605469
0, 6, 39, 195.3437347412109
0, 6, 40, 173.5290222167969
0, 6, 41, 185.7184600830078
0, 6, 42, 173.93115234375
0, 6, 43, 209.70263671875
0, 6, 44, 209.6434783935547
0, 6, 45, 193.2398681640625
0, 6, 46, 187.3663177490234
0, 6, 47, 204.693115234375
0, 6, 48, 189.3502502441406
0, 6, 49, 178.9170684814453
0, 6, 50, 181.4593048095703
0, 6, 51, 196.4236602783203
0, 6, 52, 198.3380584716797
0, 6, 53, 185.002197265625
0, 6, 54, 176.1318664550781
0, 6, 55, 194.8863983154297
0, 6, 56, 202.5570068359375
0, 6, 57, 190.9613189697266
0, 6, 58, 179.3320007324219
0, 6, 59, 192.7387542724609
0, 6, 60, 185.2665557861328
0, 6, 61, 194.1679229736328
0, 6, 62, 196.3561859130859
0, 6, 63, 186.5382385253906
0, 6, 64, 170.9767456054688
0, 6, 65, 185.9614715576172
0, 6, 66, 197.4321136474609
0, 6, 67, 214.5387420654297
0, 6, 68, 179.982421875
0, 6, 69, 171.0459594726562
0, 6, 70, 188.8763427734375
0, 6, 71, 170.7741394042969
0, 6, 72, 175.9397735595703
0, 6, 73, 176.9402313232422
0, 6, 74, 210.4542846679688
0, 6, 75, 228.4767761230469
0, 6, 76, 184.3060913085938
0, 6, 77, 172.3692626953125
0, 6, 78, 175.6585845947266
0, 6, 79, 187.6075439453125
0, 6, 80, 187.6905822753906
0, 6, 81, 208.9253692626953
0, 6, 82, 196.2814331054688
0, 6, 83, 195.2294311523438
0, 6, 84, 197.6355743408203
0, 6, 85, 180.0505065917969
0, 6, 86, 200.6790466308594
0, 6, 87, 184.2225189208984
0, 6, 88, 193.1586456298828
0, 6, 89, 188.4332885742188
0, 6, 90, 207.0213317871094
0, 6, 91, 199.8842010498047
0, 6, 92, 173.1547241210938
0, 6, 93, 195.8785400390625
0, 6, 94, 190.5081787109375
0, 6, 95, 185.5716247558594
0, 6, 96, 191.5729370117188
0, 6, 97, 194.5165405273438
0, 6, 98, 183.1624298095703
0, 6, 99, 175.7075042724609
0, 6, 100, 200.8934173583984
0, 6, 101, 168.1324462890625
0, 6, 102, 202.6125640869141
0, 6, 103, 195.7553558349609
0, 6, 104, 184.3144073486328
0, 6, 105, 193.5209655761719
0, 6, 106, 176.9044494628906
0, 6, 107, 194.0438232421875
0, 6, 108, 171.5479431152344
0, 6, 109, 114.7646179199219
0, 6, 110, 33.85212707519531
0, 6, 111, 8.710892677307129
0, 6, 112, 8.448667526245117
0, 6, 113, 6.801808834075928
0, 6, 114, 5.978487968444824
0, 6, 115, 5.291882514953613
0, 6, 116, 3.524899005889893
0, 6, 117, 4.995678424835205
0, 6, 118, 3.190520048141479
0, 6, 119, 3.79618501663208
0, 6, 120, 2.204661846160889
0, 6, 121, 3.126118421554565
0, 6, 122, 2.021176815032959
0, 6, 123, 2.699820756912231
0, 6, 124, 1.461366653442383
0, 6, 125, 3.652263641357422
0, 6, 126, 2.906713485717773
0, 6, 127, 2.041472673416138
0, 7, 0, 3.045171499252319
0, 7, 1, 1.278731107711792
0, 7, 2, 2.488365888595581
0, 7, 3, 3.081176280975342
0, 7, 4, 1.199832201004028
0, 7, 5, 2.237464666366577
0, 7, 6, 1.685015082359314
0, 7, 7, 1.676322221755981
0, 7, 8, 2.752171516418457
0, 7, 9, 2.754294395446777
0, 7, 10, 5.134077548980713
0, 7, 11, 3.52193808555603
0, 7, 12, 2.718824148178101
0, 7, 13, 5.639066696166992
0, 7, 14, 6.166378021240234
0, 7, 15, 8.201122283935547
0, 7, 16, 16.06658172607422
0, 7, 17, 52.10203170776367
0, 7, 18, 160.8201751708984
0, 7, 19, 181.9376068115234
0, 7, 20, 178.5021514892578
0, 7, 21, 180.6243133544922
0, 7, 22, 191.2725372314453
0, 7, 23, 202.9872741699219
0, 7, 24, 181.5610046386719
0, 7, 25, 212.7028656005859
0, 7, 26, 188.6444549560547
0, 7, 27, 182.3724365234375
0, 7, 28, 182.9147796630859
0, 7, 29, 208.5708160400391
0, 7, 30, 192.1611785888672
0, 7, 31, 175.6174926757812
0, 7, 32, 191.5119171142578
0, 7, 33, 179.2205963134766
0, 7, 34, 193.1284637451172
0, 7, 35, 198.4086761474609
0, 7, 36, 186.2169494628906
0, 7, 37, 213.7330627441406
0, 7, 38, 190.6361846923828
0, 7, 39, 172.9633178710938
0, 7, 40, 183.468017578125
0, 7, 41, 185.9902038574219
0, 7, 42, 178.3917388916016
0, 7, 43, 177.9959411621094
0, 7, 44, 178.9229888916016
0, 7, 45, 173.4387512207031
0, 7, 46, 189.5558776855469
0, 7, 47, 198.6666259765625
0, 7, 48, 185.3949127197266
0, 7, 49, 200.6622772216797
0, 7, 50, 189.1347045898438
0, 7, 51, 205.0030517578125
0, 7, 52, 204.0709075927734
0, 7, 53, 192.4635009765625
0, 7, 54, 197.9485626220703
0, 7, 55, 203.4802703857422
0, 7, 56, 182.7632141113281
0, 7, 57, 183.1002807617188
0, 7, 58, 190.972900390625
0, 7, 59, 187.4536743164062
0, 7, 60, 201.6744232177734
0, 7, 61, 170.9495086669922
0, 7, 62, 203.1168365478516
0, 7, 63, 189.0733337402344
0, 7, 64, 199.4865875244141
0, 7, 65, 198.0354461669922
0, 7, 66, 205.8260650634766
0, 7, 67, 219.4795989990234
0, 7, 68, 162.2308349609375
0, 7, 69, 193.4860382080078
0, 7, 70, 217.084228515625
0, 7, 71, 184.4021911621094
0, 7, 72, 180.2661285400391
0, 7, 73, 176.4477081298828
0, 7, 74, 207.8569641113281
0, 7, 75, 203.2174224853516
0, 7, 76, 214.578857421875
0, 7, 77, 172.4111328125
0, 7, 78, 176.1413726806641
0, 7, 79, 191.9217834472656
0, 7, 80, 197.2593231201172
0, 7, 81, 214.8429718017578
0, 7, 82, 183.6003875732422
0, 7, 83, 204.9076385498047
0, 7, 84, 191.7097625732422
0, 7, 85, 185.7858581542969
0, 7, 86, 199.8082122802734
0, 7, 87, 227.4128112792969
0, 7, 88, 194.4843597412109
0, 7, 89, 177.3611602783203
0, 7, 90, 182.2734527587891
0, 7, 91, 193.7421264648438
0, 7, 92, 194.1954345703125
0, 7, 93, 198.3792419433594
0, 7, 94, 176.6308288574219
0, 7, 95, 197.5838012695312
0, 7, 96, 209.3357696533203
0, 7, 97, 189.5278930664062
0, 7, 98, 177.4909362792969
0, 7, 99, 196.9562225341797
0, 7, 100, 181.9369659423828
0, 7, 101, 199.4913482666016
0, 7, 102, 184.9393920898438
0, 7, 103, 181.2589111328125
0, 7, 104, 173.8806762695312
0, 7, 105, 196.9727783203125
0, 7, 106, 206.0952758789062
0, 7, 107, 176.5402221679688
0, 7, 108, 176.5755310058594
0, 7, 109, 136.4422454833984
0, 7, 110, 53.9329719543457
0, 7, 111, 9.791318893432617
0, 7, 112, 8.673956871032715
0, 7, 113, 7.904548168182373
0, 7, 114, 8.177029609680176
0, 7, 115, 5.344100475311279
0, 7, 116, 5.400166988372803
0, 7, 117, 2.955143451690674
0, 7, 118, 3.002463340759277
0, 7, 119, 3.068397045135498
0, 7, 120, 5.10163688659668
0, 7, 121, 3.923545360565186
0, 7, 122, 2.172329187393188
0, 7, 123, 1.231176614761353
0, 7, 124, 0.7935299277305603
0, 7, 125, 1.119595170021057
0, 7, 126, 1.950944423675537
0, 7, 127, 1.857859253883362
0, 8, 0, 3.968866348266602
0, 8, 1, 3.426555395126343
0, 8, 2, 2.596961975097656
0, 8, 3, 3.361857652664185
0, 8, 4, 1.372379064559937
0, 8, 5, 2.788090944290161
0, 8, 6, 2.845258951187134
0, 8, 7, 2.32041335105896
0, 8, 8, 4.642355442047119
0, 8, 9, 4.621016025543213
0, 8, 10, 2.013419151306152
0, 8, 11, 2.284733533859253
0, 8, 12, 4.062936782836914
0, 8, 13, 6.768796920776367
0, 8, 14, 6.833451747894287
0, 8, 15, 8.589076042175293
0, 8, 16, 19.89892578125
0, 8, 17, 75.64531707763672
0, 8, 18, 142.9121398925781
0, 8, 19, 178.6660461425781
0, 8, 20, 191.0242309570312
0, 8, 21, 192.1382598876953
0, 8, 22, 179.1785430908203
0, 8, 23, 172.6869354248047
0, 8, 24, 192.2858581542969
0, 8, 25, 184.6275482177734
0, 8, 26, 193.1005401611328
0, 8, 27, 186.4371948242188
0, 8, 28, 186.5860595703125
0, 8, 29, 207.4937438964844
0, 8, 30, 197.6260375976562
0, 8, 31, 182.7521514892578
0, 8, 32, 197.7487640380859
0, 8, 33, 207.6781311035156
0, 8, 34, 203.4019927978516
0, 8, 35, 186.2451477050781
0, 8, 36, 181.4989318847656
