# TOPAS Version: 3.1.p3
# Parameter File: batch_inserts_156.txt
# Results for scorer Readout_Adipose
# Scored in component: MyBox
# X in 1 bin  of 0.65 cm
# Y in 512 bins of 0.0783984 cm
# Z in 128 bins of 0.078125 cm
# EnergyDeposit ( MeV ) : Sum   
0, 0, 0, 1.14686381816864
0, 0, 1, 5.08496618270874
0, 0, 2, 0.7068910598754883
0, 0, 3, 0.5618956685066223
0, 0, 4, 1.128227114677429
0, 0, 5, 0.5644773244857788
0, 0, 6, 1.520739674568176
0, 0, 7, 2.178329706192017
0, 0, 8, 1.498581767082214
0, 0, 9, 2.597203493118286
0, 0, 10, 1.873425960540771
0, 0, 11, 4.205937385559082
0, 0, 12, 3.811926364898682
0, 0, 13, 2.519856691360474
0, 0, 14, 5.487744808197021
0, 0, 15, 5.842261791229248
0, 0, 16, 3.819664239883423
0, 0, 17, 7.362121105194092
0, 0, 18, 7.732178688049316
0, 0, 19, 24.2712287902832
0, 0, 20, 93.87425231933594
0, 0, 21, 152.3251647949219
0, 0, 22, 153.2339782714844
0, 0, 23, 144.0059509277344
0, 0, 24, 159.2541809082031
0, 0, 25, 166.3247528076172
0, 0, 26, 166.8316955566406
0, 0, 27, 175.6747283935547
0, 0, 28, 177.5457763671875
0, 0, 29, 176.4559631347656
0, 0, 30, 173.0237731933594
0, 0, 31, 167.4940032958984
0, 0, 32, 164.8904113769531
0, 0, 33, 167.2694854736328
0, 0, 34, 176.5812225341797
0, 0, 35, 173.1596069335938
0, 0, 36, 159.9569702148438
0, 0, 37, 161.2064514160156
0, 0, 38, 166.9375152587891
0, 0, 39, 158.7305908203125
0, 0, 40, 164.3353118896484
0, 0, 41, 166.6140747070312
0, 0, 42, 143.3678588867188
0, 0, 43, 168.3284301757812
0, 0, 44, 178.2128601074219
0, 0, 45, 173.22900390625
0, 0, 46, 166.4489135742188
0, 0, 47, 168.5437927246094
0, 0, 48, 169.1365203857422
0, 0, 49, 182.7293395996094
0, 0, 50, 168.56787109375
0, 0, 51, 162.3608093261719
0, 0, 52, 164.0453186035156
0, 0, 53, 171.8680419921875
0, 0, 54, 160.1964874267578
0, 0, 55, 164.3859558105469
0, 0, 56, 189.8691711425781
0, 0, 57, 170.8791961669922
0, 0, 58, 160.9247131347656
0, 0, 59, 172.5269165039062
0, 0, 60, 169.9734039306641
0, 0, 61, 170.2321319580078
0, 0, 62, 182.5807189941406
0, 0, 63, 166.3010101318359
0, 0, 64, 163.8403625488281
0, 0, 65, 176.4063873291016
0, 0, 66, 178.2688446044922
0, 0, 67, 165.3839111328125
0, 0, 68, 158.9134979248047
0, 0, 69, 158.4601593017578
0, 0, 70, 170.9884033203125
0, 0, 71, 158.586181640625
0, 0, 72, 162.8901824951172
0, 0, 73, 171.9697265625
0, 0, 74, 162.0387420654297
0, 0, 75, 163.5799102783203
0, 0, 76, 163.4283294677734
0, 0, 77, 172.2220001220703
0, 0, 78, 182.6561431884766
0, 0, 79, 176.2081146240234
0, 0, 80, 158.7790985107422
0, 0, 81, 159.6197662353516
0, 0, 82, 184.913330078125
0, 0, 83, 172.9468841552734
0, 0, 84, 159.9569549560547
0, 0, 85, 180.8126831054688
0, 0, 86, 159.2142791748047
0, 0, 87, 176.6085662841797
0, 0, 88, 175.9916839599609
0, 0, 89, 175.9318542480469
0, 0, 90, 161.1986846923828
0, 0, 91, 186.5606689453125
0, 0, 92, 164.1980133056641
0, 0, 93, 155.9304504394531
0, 0, 94, 169.2918701171875
0, 0, 95, 173.0171966552734
0, 0, 96, 183.3886871337891
0, 0, 97, 182.9926300048828
0, 0, 98, 185.7330017089844
0, 0, 99, 171.6586456298828
0, 0, 100, 157.929931640625
0, 0, 101, 166.8560333251953
0, 0, 102, 171.5358428955078
0, 0, 103, 170.3209228515625
0, 0, 104, 169.3965911865234
0, 0, 105, 177.4463195800781
0, 0, 106, 158.5239105224609
0, 0, 107, 86.29988861083984
0, 0, 108, 21.35387802124023
0, 0, 109, 9.860852241516113
0, 0, 110, 6.620044708251953
0, 0, 111, 6.334815502166748
0, 0, 112, 4.083231925964355
0, 0, 113, 3.123117923736572
0, 0, 114, 2.284457683563232
0, 0, 115, 3.053255558013916
0, 0, 116, 1.891837954521179
0, 0, 117, 5.275469779968262
0, 0, 118, 3.656317949295044
0, 0, 119, 2.217814683914185
0, 0, 120, 2.087430238723755
0, 0, 121, 4.10760498046875
0, 0, 122, 4.358108043670654
0, 0, 123, 3.775966644287109
0, 0, 124, 1.040159106254578
0, 0, 125, 2.652725696563721
0, 0, 126, 3.922231912612915
0, 0, 127, 2.078728199005127
0, 1, 0, 1.156331658363342
0, 1, 1, 4.490959167480469
0, 1, 2, 4.220615386962891
0, 1, 3, 3.024224519729614
0, 1, 4, 0.633886456489563
0, 1, 5, 1.707512259483337
0, 1, 6, 1.494922399520874
0, 1, 7, 2.569951057434082
0, 1, 8, 2.573192358016968
0, 1, 9, 2.200464487075806
0, 1, 10, 1.77182674407959
0, 1, 11, 3.13750147819519
0, 1, 12, 4.788305282592773
0, 1, 13, 3.854761600494385
0, 1, 14, 5.353757381439209
0, 1, 15, 6.041447639465332
0, 1, 16, 9.331242561340332
0, 1, 17, 5.564603328704834
0, 1, 18, 11.01502227783203
0, 1, 19, 39.19377517700195
0, 1, 20, 126.5256881713867
0, 1, 21, 177.2050628662109
0, 1, 22, 192.1996154785156
0, 1, 23, 185.0335540771484
0, 1, 24, 180.2282867431641
0, 1, 25, 191.1385498046875
0, 1, 26, 197.9235687255859
0, 1, 27, 186.8859405517578
0, 1, 28, 188.5758514404297
0, 1, 29, 184.8405303955078
0, 1, 30, 180.2172698974609
0, 1, 31, 182.4699096679688
0, 1, 32, 188.7724609375
0, 1, 33, 191.3876190185547
0, 1, 34, 185.5065155029297
0, 1, 35, 193.6077575683594
0, 1, 36, 205.4328765869141
0, 1, 37, 185.5943298339844
0, 1, 38, 164.7853546142578
0, 1, 39, 171.3503265380859
0, 1, 40, 178.9075622558594
0, 1, 41, 184.5568237304688
0, 1, 42, 181.9125213623047
0, 1, 43, 185.7033843994141
0, 1, 44, 168.5709838867188
0, 1, 45, 186.834228515625
0, 1, 46, 171.1647033691406
0, 1, 47, 184.7285766601562
0, 1, 48, 186.0331268310547
0, 1, 49, 186.8075714111328
0, 1, 50, 178.6465606689453
0, 1, 51, 191.2453308105469
0, 1, 52, 194.5834350585938
0, 1, 53, 195.4096069335938
0, 1, 54, 184.1871185302734
0, 1, 55, 165.4751129150391
0, 1, 56, 178.9627532958984
0, 1, 57, 177.5484008789062
0, 1, 58, 189.6297607421875
0, 1, 59, 193.2677612304688
0, 1, 60, 187.5200042724609
0, 1, 61, 176.9557800292969
0, 1, 62, 207.3667602539062
0, 1, 63, 175.9810791015625
0, 1, 64, 172.7751007080078
0, 1, 65, 184.5596466064453
0, 1, 66, 203.4737701416016
0, 1, 67, 182.3973693847656
0, 1, 68, 187.0536651611328
0, 1, 69, 188.3741149902344
0, 1, 70, 185.2806091308594
0, 1, 71, 171.3816680908203
0, 1, 72, 192.6697845458984
0, 1, 73, 190.5051727294922
0, 1, 74, 201.8575897216797
0, 1, 75, 184.9065399169922
0, 1, 76, 176.2898101806641
0, 1, 77, 191.9478454589844
0, 1, 78, 188.2351531982422
0, 1, 79, 202.5435638427734
0, 1, 80, 185.5473327636719
0, 1, 81, 173.9217834472656
0, 1, 82, 207.0544281005859
0, 1, 83, 212.3659515380859
0, 1, 84, 182.0273742675781
0, 1, 85, 169.0612487792969
0, 1, 86, 168.7453765869141
0, 1, 87, 184.9454956054688
0, 1, 88, 175.5162506103516
0, 1, 89, 187.5885925292969
0, 1, 90, 213.2296142578125
0, 1, 91, 181.0204772949219
0, 1, 92, 183.5682983398438
0, 1, 93, 182.5194396972656
0, 1, 94, 184.5065612792969
0, 1, 95, 184.2946319580078
0, 1, 96, 196.0673980712891
0, 1, 97, 183.1558685302734
0, 1, 98, 187.1260375976562
0, 1, 99, 175.7245788574219
0, 1, 100, 170.8351440429688
0, 1, 101, 178.1401672363281
0, 1, 102, 182.2307281494141
0, 1, 103, 173.5819244384766
0, 1, 104, 188.3059387207031
0, 1, 105, 181.5003662109375
0, 1, 106, 163.4882659912109
0, 1, 107, 123.3668823242188
0, 1, 108, 46.53289794921875
0, 1, 109, 9.922119140625
0, 1, 110, 6.582939147949219
0, 1, 111, 6.710852146148682
0, 1, 112, 6.527644634246826
0, 1, 113, 6.982119560241699
0, 1, 114, 6.054909229278564
0, 1, 115, 7.979147911071777
0, 1, 116, 3.045380115509033
0, 1, 117, 2.867012023925781
0, 1, 118, 2.776401281356812
0, 1, 119, 1.208105683326721
0, 1, 120, 3.280886173248291
0, 1, 121, 4.197185516357422
0, 1, 122, 1.822998404502869
0, 1, 123, 3.024244785308838
0, 1, 124, 2.33991265296936
0, 1, 125, 2.639102220535278
0, 1, 126, 2.062741994857788
0, 1, 127, 1.48159396648407
0, 2, 0, 1.690581798553467
0, 2, 1, 2.948476314544678
0, 2, 2, 2.484059572219849
0, 2, 3, 1.644879102706909
0, 2, 4, 3.05060601234436
0, 2, 5, 1.241591453552246
0, 2, 6, 2.457405567169189
0, 2, 7, 1.378109931945801
0, 2, 8, 1.4169921875
0, 2, 9, 2.288814067840576
0, 2, 10, 4.474705696105957
0, 2, 11, 3.406815528869629
0, 2, 12, 3.061743021011353
0, 2, 13, 4.238502502441406
0, 2, 14, 3.813795804977417
0, 2, 15, 5.412570476531982
0, 2, 16, 5.560309410095215
0, 2, 17, 9.623796463012695
0, 2, 18, 14.80894088745117
0, 2, 19, 78.01192474365234
0, 2, 20, 161.9094085693359
0, 2, 21, 183.0751647949219
0, 2, 22, 194.3328094482422
0, 2, 23, 183.9441680908203
0, 2, 24, 173.2500915527344
0, 2, 25, 184.1372680664062
0, 2, 26, 179.0565490722656
0, 2, 27, 191.4846038818359
0, 2, 28, 172.9320831298828
0, 2, 29, 169.0563507080078
0, 2, 30, 186.3891906738281
0, 2, 31, 182.4141693115234
0, 2, 32, 183.7132720947266
0, 2, 33, 189.8999481201172
0, 2, 34, 198.7670288085938
0, 2, 35, 183.3555603027344
0, 2, 36, 186.41455078125
0, 2, 37, 180.7126007080078
0, 2, 38, 184.2841491699219
0, 2, 39, 166.2242736816406
0, 2, 40, 183.9351654052734
0, 2, 41, 185.0829315185547
0, 2, 42, 191.2441558837891
0, 2, 43, 195.4947052001953
0, 2, 44, 190.7206268310547
0, 2, 45, 189.2411804199219
0, 2, 46, 196.3224182128906
0, 2, 47, 190.0449981689453
0, 2, 48, 179.4405517578125
0, 2, 49, 198.5768737792969
0, 2, 50, 167.3336486816406
0, 2, 51, 185.7406768798828
0, 2, 52, 186.1990356445312
0, 2, 53, 194.8146820068359
0, 2, 54, 176.1119232177734
0, 2, 55, 173.0899505615234
0, 2, 56, 181.6137847900391
0, 2, 57, 199.5170440673828
0, 2, 58, 186.3096160888672
0, 2, 59, 190.3036193847656
0, 2, 60, 197.5500030517578
0, 2, 61, 193.9956359863281
0, 2, 62, 191.6103515625
0, 2, 63, 169.7568817138672
0, 2, 64, 189.4321746826172
0, 2, 65, 202.2424163818359
0, 2, 66, 195.7028656005859
0, 2, 67, 185.5256652832031
0, 2, 68, 182.208740234375
0, 2, 69, 186.7019195556641
0, 2, 70, 203.2018432617188
0, 2, 71, 175.1897125244141
0, 2, 72, 186.6339416503906
0, 2, 73, 177.4835510253906
0, 2, 74, 180.4331817626953
0, 2, 75, 196.0246276855469
0, 2, 76, 183.5660400390625
0, 2, 77, 177.2434234619141
0, 2, 78, 197.5619964599609
0, 2, 79, 176.8856811523438
0, 2, 80, 187.2685546875
0, 2, 81, 186.9645538330078
0, 2, 82, 205.7165679931641
0, 2, 83, 204.2794342041016
0, 2, 84, 188.3101501464844
0, 2, 85, 170.2379760742188
0, 2, 86, 194.6206359863281
0, 2, 87, 172.4870452880859
0, 2, 88, 176.6912384033203
0, 2, 89, 184.5830078125
0, 2, 90, 177.7268218994141
0, 2, 91, 174.1579284667969
0, 2, 92, 197.700927734375
0, 2, 93, 193.7596282958984
0, 2, 94, 201.3426361083984
0, 2, 95, 192.5171508789062
0, 2, 96, 185.9842681884766
0, 2, 97, 174.3303833007812
0, 2, 98, 173.6971740722656
0, 2, 99, 162.5186462402344
0, 2, 100, 187.2270050048828
0, 2, 101, 197.3153228759766
0, 2, 102, 176.7081604003906
0, 2, 103, 199.3229675292969
0, 2, 104, 188.5706787109375
0, 2, 105, 200.8919830322266
0, 2, 106, 194.5875854492188
0, 2, 107, 149.8295745849609
0, 2, 108, 79.41180419921875
0, 2, 109, 17.58843994140625
0, 2, 110, 8.483057022094727
0, 2, 111, 5.53226900100708
0, 2, 112, 3.78939414024353
0, 2, 113, 3.992446422576904
0, 2, 114, 7.696303367614746
0, 2, 115, 3.20582127571106
0, 2, 116, 3.660804271697998
0, 2, 117, 5.120012283325195
0, 2, 118, 3.547437191009521
0, 2, 119, 3.004672765731812
0, 2, 120, 1.8435298204422
0, 2, 121, 3.573415756225586
0, 2, 122, 3.751125812530518
0, 2, 123, 2.585858345031738
0, 2, 124, 1.912635326385498
0, 2, 125, 1.948093295097351
0, 2, 126, 2.574232339859009
0, 2, 127, 0.7211470603942871
0, 3, 0, 1.966792464256287
0, 3, 1, 1.013827800750732
0, 3, 2, 2.081793069839478
0, 3, 3, 2.751932621002197
0, 3, 4, 4.854944229125977
0, 3, 5, 1.580466508865356
0, 3, 6, 2.260306358337402
0, 3, 7, 1.582679271697998
0, 3, 8, 3.610802888870239
0, 3, 9, 2.140437126159668
0, 3, 10, 2.462340116500854
0, 3, 11, 4.626465320587158
0, 3, 12, 4.957763195037842
0, 3, 13, 3.726305246353149
0, 3, 14, 3.998740911483765
0, 3, 15, 8.021066665649414
0, 3, 16, 8.646860122680664
0, 3, 17, 8.033223152160645
0, 3, 18, 34.66591644287109
0, 3, 19, 114.9244155883789
0, 3, 20, 180.3765106201172
0, 3, 21, 171.9893035888672
0, 3, 22, 177.5801391601562
0, 3, 23, 188.8213806152344
0, 3, 24, 177.2201690673828
0, 3, 25, 169.4490966796875
0, 3, 26, 180.7955627441406
0, 3, 27, 190.5657958984375
0, 3, 28, 181.3957977294922
0, 3, 29, 197.3415679931641
0, 3, 30, 185.2730102539062
0, 3, 31, 194.285400390625
0, 3, 32, 205.7513122558594
0, 3, 33, 196.4505767822266
0, 3, 34, 188.2909698486328
0, 3, 35, 176.4436645507812
0, 3, 36, 187.642822265625
0, 3, 37, 199.6574401855469
0, 3, 38, 191.5821533203125
0, 3, 39, 184.5441436767578
0, 3, 40, 165.884521484375
0, 3, 41, 174.7440795898438
0, 3, 42, 184.6118316650391
0, 3, 43, 181.4744720458984
0, 3, 44, 202.7979125976562
0, 3, 45, 207.0765838623047
0, 3, 46, 198.1138763427734
0, 3, 47, 194.5675811767578
0, 3, 48, 195.4419097900391
0, 3, 49, 182.0044708251953
0, 3, 50, 186.2950439453125
0, 3, 51, 173.6404113769531
0, 3, 52, 188.4902496337891
0, 3, 53, 177.3732452392578
0, 3, 54, 178.4120330810547
0, 3, 55, 178.4060516357422
0, 3, 56, 182.3003845214844
0, 3, 57, 174.8873596191406
0, 3, 58, 200.5121765136719
0, 3, 59, 196.4334716796875
0, 3, 60, 186.2082824707031
0, 3, 61, 181.2676239013672
0, 3, 62, 182.8656463623047
0, 3, 63, 184.7196655273438
0, 3, 64, 189.7675476074219
0, 3, 65, 187.8022155761719
0, 3, 66, 175.8480834960938
0, 3, 67, 190.2744750976562
0, 3, 68, 211.7165069580078
0, 3, 69, 191.6624298095703
0, 3, 70, 185.6451110839844
0, 3, 71, 196.5089111328125
0, 3, 72, 185.7561187744141
0, 3, 73, 186.7358093261719
0, 3, 74, 191.6901397705078
0, 3, 75, 192.8455200195312
0, 3, 76, 190.4649963378906
0, 3, 77, 200.6999969482422
0, 3, 78, 187.9088897705078
0, 3, 79, 186.0098419189453
0, 3, 80, 192.3896179199219
0, 3, 81, 183.9580230712891
0, 3, 82, 180.338134765625
0, 3, 83, 194.3317108154297
0, 3, 84, 199.6051177978516
0, 3, 85, 193.2092437744141
0, 3, 86, 203.4648590087891
0, 3, 87, 196.6889038085938
0, 3, 88, 191.2064208984375
0, 3, 89, 194.2540588378906
0, 3, 90, 173.8659362792969
0, 3, 91, 158.4039764404297
0, 3, 92, 206.3272247314453
0, 3, 93, 196.2859344482422
0, 3, 94, 192.2887420654297
0, 3, 95, 211.3589019775391
0, 3, 96, 210.0565032958984
0, 3, 97, 167.60693359375
0, 3, 98, 167.6171112060547
0, 3, 99, 179.9399261474609
0, 3, 100, 177.2587738037109
0, 3, 101, 197.5305023193359
0, 3, 102, 194.7169189453125
0, 3, 103, 192.3009338378906
0, 3, 104, 202.9513397216797
0, 3, 105, 177.5288696289062
0, 3, 106, 182.1872406005859
0, 3, 107, 170.6873168945312
0, 3, 108, 107.9890213012695
0, 3, 109, 28.16227340698242
0, 3, 110, 7.784843444824219
0, 3, 111, 6.281057357788086
0, 3, 112, 3.387754917144775
0, 3, 113, 7.881629943847656
0, 3, 114, 4.536081314086914
0, 3, 115, 4.763187408447266
0, 3, 116, 4.322009086608887
0, 3, 117, 4.865112781524658
0, 3, 118, 2.147345066070557
0, 3, 119, 2.457815647125244
0, 3, 120, 3.921020746231079
0, 3, 121, 2.088499307632446
0, 3, 122, 3.033456087112427
0, 3, 123, 2.715234994888306
0, 3, 124, 2.506874322891235
0, 3, 125, 1.603495597839355
0, 3, 126, 2.704319953918457
0, 3, 127, 1.541849851608276
0, 4, 0, 1.839573740959167
0, 4, 1, 0.2928080260753632
0, 4, 2, 2.692726135253906
0, 4, 3, 5.609443664550781
0, 4, 4, 1.830338716506958
0, 4, 5, 1.659616231918335
0, 4, 6, 2.493628263473511
0, 4, 7, 2.594369411468506
0, 4, 8, 1.607374906539917
0, 4, 9, 2.607148170471191
0, 4, 10, 2.933126449584961
0, 4, 11, 3.645393133163452
0, 4, 12, 4.638341426849365
0, 4, 13, 4.617745399475098
0, 4, 14, 4.40437650680542
0, 4, 15, 8.998342514038086
0, 4, 16, 5.964124202728271
0, 4, 17, 11.58983612060547
0, 4, 18, 53.40881729125977
0, 4, 19, 151.73046875
0, 4, 20, 193.0942535400391
0, 4, 21, 169.69970703125
0, 4, 22, 187.1861877441406
0, 4, 23, 196.1424560546875
0, 4, 24, 192.1847534179688
0, 4, 25, 200.8214874267578
0, 4, 26, 183.3487548828125
0, 4, 27, 191.3320465087891
0, 4, 28, 178.4469299316406
0, 4, 29, 205.0113067626953
0, 4, 30, 195.5767974853516
0, 4, 31, 193.0223693847656
0, 4, 32, 210.4662170410156
0, 4, 33, 190.5067291259766
0, 4, 34, 192.7954254150391
0, 4, 35, 214.1516571044922
0, 4, 36, 192.7406005859375
0, 4, 37, 176.7127990722656
0, 4, 38, 194.0553588867188
0, 4, 39, 190.5547637939453
0, 4, 40, 185.4069213867188
0, 4, 41, 191.3663635253906
0, 4, 42, 205.6302795410156
0, 4, 43, 173.3070526123047
0, 4, 44, 183.638427734375
0, 4, 45, 196.1042785644531
0, 4, 46, 186.1631774902344
0, 4, 47, 179.3045654296875
0, 4, 48, 185.7211456298828
0, 4, 49, 174.1382598876953
0, 4, 50, 185.5538330078125
0, 4, 51, 198.0626983642578
0, 4, 52, 223.1070861816406
0, 4, 53, 206.3561096191406
0, 4, 54, 189.3463745117188
0, 4, 55, 176.0662994384766
0, 4, 56, 190.966064453125
0, 4, 57, 191.1377258300781
0, 4, 58, 188.4027862548828
0, 4, 59, 188.9177551269531
0, 4, 60, 195.0886840820312
0, 4, 61, 192.9436187744141
0, 4, 62, 189.5597076416016
0, 4, 63, 179.0599822998047
0, 4, 64, 213.0633697509766
0, 4, 65, 190.6695709228516
0, 4, 66, 201.5252685546875
0, 4, 67, 202.5164184570312
0, 4, 68, 201.9279174804688
0, 4, 69, 196.9643402099609
0, 4, 70, 205.1829071044922
0, 4, 71, 207.3170013427734
0, 4, 72, 215.2622528076172
0, 4, 73, 186.5227355957031
0, 4, 74, 181.1010131835938
0, 4, 75, 184.8577117919922
0, 4, 76, 191.0637512207031
0, 4, 77, 183.9199981689453
0, 4, 78, 195.2593078613281
0, 4, 79, 204.6674041748047
0, 4, 80, 213.3697814941406
0, 4, 81, 198.6827087402344
0, 4, 82, 183.7599487304688
0, 4, 83, 170.1109771728516
0, 4, 84, 192.7989501953125
0, 4, 85, 195.6888122558594
0, 4, 86, 181.1620178222656
0, 4, 87, 183.3965759277344
0, 4, 88, 204.2367248535156
0, 4, 89, 187.4499664306641
0, 4, 90, 211.5054473876953
0, 4, 91, 189.7487335205078
0, 4, 92, 195.9451293945312
0, 4, 93, 195.7506256103516
0, 4, 94, 185.9641265869141
0, 4, 95, 174.4043121337891
0, 4, 96, 191.3778686523438
0, 4, 97, 192.5324859619141
0, 4, 98, 202.9422912597656
0, 4, 99, 182.6869049072266
0, 4, 100, 183.0399017333984
0, 4, 101, 177.7165679931641
0, 4, 102, 172.25341796875
0, 4, 103, 184.9816741943359
0, 4, 104, 210.5406036376953
0, 4, 105, 189.7160034179688
0, 4, 106, 178.7302703857422
0, 4, 107, 181.2551879882812
0, 4, 108, 153.1429901123047
0, 4, 109, 48.38006591796875
0, 4, 110, 11.56738948822021
0, 4, 111, 8.768784523010254
0, 4, 112, 7.247444629669189
0, 4, 113, 5.792694568634033
0, 4, 114, 5.168919563293457
0, 4, 115, 3.054060697555542
0, 4, 116, 5.298647403717041
0, 4, 117, 2.192018270492554
0, 4, 118, 4.281794548034668
0, 4, 119, 3.334199190139771
0, 4, 120, 2.803719043731689
0, 4, 121, 2.322046756744385
0, 4, 122, 1.956122636795044
0, 4, 123, 1.386682629585266
0, 4, 124, 4.305557727813721
0, 4, 125, 3.208809614181519
0, 4, 126, 1.394262671470642
0, 4, 127, 2.240814685821533
0, 5, 0, 1.238775968551636
0, 5, 1, 3.283634424209595
0, 5, 2, 4.860835552215576
0, 5, 3, 5.342987060546875
0, 5, 4, 2.685311794281006
0, 5, 5, 1.343012690544128
0, 5, 6, 2.454326868057251
0, 5, 7, 3.022698879241943
0, 5, 8, 1.840985655784607
0, 5, 9, 2.573596477508545
0, 5, 10, 3.623097658157349
0, 5, 11, 6.259510040283203
0, 5, 12, 3.463506698608398
0, 5, 13, 4.24929666519165
0, 5, 14, 5.114198207855225
0, 5, 15, 10.21305179595947
0, 5, 16, 7.158720016479492
0, 5, 17, 21.03470802307129
0, 5, 18, 82.66147613525391
0, 5, 19, 163.4144287109375
0, 5, 20, 186.9970855712891
0, 5, 21, 178.7437896728516
0, 5, 22, 171.9163360595703
0, 5, 23, 200.2735290527344
0, 5, 24, 186.7342071533203
0, 5, 25, 206.8401336669922
0, 5, 26, 182.9995727539062
0, 5, 27, 193.9280700683594
0, 5, 28, 188.7235717773438
0, 5, 29, 196.2452697753906
0, 5, 30, 178.1700897216797
0, 5, 31, 179.7760772705078
0, 5, 32, 186.3506622314453
0, 5, 33, 168.3198089599609
0, 5, 34, 196.6472320556641
0, 5, 35, 196.6732025146484
0, 5, 36, 167.9865112304688
0, 5, 37, 197.9041137695312
0, 5, 38, 179.8832244873047
0, 5, 39, 186.3153076171875
0, 5, 40, 197.5470581054688
0, 5, 41, 176.6519622802734
0, 5, 42, 187.6282806396484
0, 5, 43, 193.7335815429688
0, 5, 44, 199.4287109375
0, 5, 45, 186.2176361083984
0, 5, 46, 193.0499267578125
0, 5, 47, 179.7551422119141
0, 5, 48, 179.3479919433594
0, 5, 49, 179.0262451171875
0, 5, 50, 186.12109375
0, 5, 51, 172.590576171875
0, 5, 52, 167.6138610839844
0, 5, 53, 181.4889221191406
0, 5, 54, 173.15625
0, 5, 55, 215.6778869628906
0, 5, 56, 181.2203216552734
0, 5, 57, 208.0470733642578
0, 5, 58, 182.17041015625
0, 5, 59, 180.2551422119141
0, 5, 60, 217.9507904052734
0, 5, 61, 184.4166107177734
0, 5, 62, 178.213623046875
0, 5, 63, 180.0470886230469
0, 5, 64, 196.7446441650391
0, 5, 65, 209.8587646484375
0, 5, 66, 191.6668548583984
0, 5, 67, 200.9669342041016
0, 5, 68, 188.7623138427734
0, 5, 69, 186.1178588867188
0, 5, 70, 186.2225036621094
0, 5, 71, 193.1345825195312
0, 5, 72, 198.1866760253906
0, 5, 73, 201.3458709716797
0, 5, 74, 178.3817291259766
0, 5, 75, 204.4960021972656
0, 5, 76, 216.1046447753906
0, 5, 77, 182.5378112792969
0, 5, 78, 194.7669677734375
0, 5, 79, 190.3391876220703
0, 5, 80, 198.4076538085938
0, 5, 81, 202.7606353759766
0, 5, 82, 201.2051086425781
0, 5, 83, 188.2912750244141
0, 5, 84, 205.0099334716797
0, 5, 85, 177.3687286376953
0, 5, 86, 195.0999145507812
0, 5, 87, 188.8114929199219
0, 5, 88, 177.8504486083984
0, 5, 89, 194.1938018798828
0, 5, 90, 198.5091552734375
0, 5, 91, 193.7960357666016
0, 5, 92, 190.2503051757812
0, 5, 93, 189.404052734375
0, 5, 94, 208.2436676025391
0, 5, 95, 177.1223602294922
0, 5, 96, 183.9840240478516
0, 5, 97, 191.6545715332031
0, 5, 98, 188.4984588623047
0, 5, 99, 195.61572265625
0, 5, 100, 185.1329956054688
0, 5, 101, 195.6418304443359
0, 5, 102, 181.2901611328125
0, 5, 103, 176.0531921386719
0, 5, 104, 190.4194030761719
0, 5, 105, 189.8904113769531
0, 5, 106, 178.1517944335938
0, 5, 107, 180.9675903320312
0, 5, 108, 175.0498962402344
0, 5, 109, 89.79586791992188
0, 5, 110, 30.00503730773926
0, 5, 111, 9.411839485168457
0, 5, 112, 6.67740535736084
0, 5, 113, 7.177207946777344
0, 5, 114, 6.168321132659912
0, 5, 115, 7.139883041381836
0, 5, 116, 3.932670831680298
0, 5, 117, 4.487698078155518
0, 5, 118, 3.589147090911865
0, 5, 119, 4.252301216125488
0, 5, 120, 1.109455466270447
0, 5, 121, 4.022950172424316
0, 5, 122, 2.500608921051025
0, 5, 123, 3.28589916229248
0, 5, 124, 3.08102560043335
0, 5, 125, 1.256305694580078
0, 5, 126, 2.086291551589966
0, 5, 127, 2.433565378189087
0, 6, 0, 4.459918975830078
0, 6, 1, 4.180230140686035
0, 6, 2, 4.373494625091553
0, 6, 3, 1.730890512466431
0, 6, 4, 3.921631336212158
0, 6, 5, 2.063611268997192
0, 6, 6, 3.120734691619873
0, 6, 7, 5.096073627471924
0, 6, 8, 5.161453247070312
0, 6, 9, 3.519439697265625
0, 6, 10, 5.185869216918945
0, 6, 11, 4.526696681976318
0, 6, 12, 4.453029632568359
0, 6, 13, 4.978311538696289
0, 6, 14, 5.409709930419922
0, 6, 15, 6.37313175201416
0, 6, 16, 14.28388977050781
0, 6, 17, 28.70825576782227
0, 6, 18, 111.6847763061523
0, 6, 19, 192.2018890380859
0, 6, 20, 197.1700134277344
0, 6, 21, 198.5757904052734
0, 6, 22, 190.0963745117188
0, 6, 23, 190.3181304931641
0, 6, 24, 200.0619354248047
0, 6, 25, 182.5216522216797
0, 6, 26, 186.4588623046875
0, 6, 27, 191.6623077392578
0, 6, 28, 188.5587158203125
0, 6, 29, 211.0542144775391
0, 6, 30, 189.2385711669922
0, 6, 31, 195.9819793701172
0, 6, 32, 206.3782653808594
0, 6, 33, 183.1746978759766
0, 6, 34, 197.9050140380859
0, 6, 35, 187.5141754150391
0, 6, 36, 181.3088684082031
0, 6, 37, 182.4172058105469
0, 6, 38, 187.2310333251953
0, 6, 39, 196.8345489501953
0, 6, 40, 173.7000274658203
0, 6, 41, 184.9464569091797
0, 6, 42, 175.6871795654297
0, 6, 43, 209.718994140625
0, 6, 44, 208.9204406738281
0, 6, 45, 193.2287902832031
0, 6, 46, 188.0930938720703
0, 6, 47, 205.3239288330078
0, 6, 48, 190.5203552246094
0, 6, 49, 179.1041259765625
0, 6, 50, 181.8821868896484
0, 6, 51, 196.9869689941406
0, 6, 52, 197.6210479736328
0, 6, 53, 185.0037231445312
0, 6, 54, 174.8217926025391
0, 6, 55, 194.6600036621094
0, 6, 56, 202.2466888427734
0, 6, 57, 192.7964935302734
0, 6, 58, 178.0117034912109
0, 6, 59, 192.1463470458984
0, 6, 60, 184.6136169433594
0, 6, 61, 194.0200805664062
0, 6, 62, 196.0930938720703
0, 6, 63, 187.7980041503906
0, 6, 64, 169.6266479492188
0, 6, 65, 185.9178314208984
0, 6, 66, 197.7016448974609
0, 6, 67, 214.1104125976562
0, 6, 68, 181.0702819824219
0, 6, 69, 173.9291229248047
0, 6, 70, 187.9460601806641
0, 6, 71, 170.4638214111328
0, 6, 72, 175.6700592041016
0, 6, 73, 177.6227569580078
0, 6, 74, 210.0423126220703
0, 6, 75, 227.5735321044922
0, 6, 76, 184.0864868164062
0, 6, 77, 171.4427642822266
0, 6, 78, 175.7645721435547
0, 6, 79, 185.9893798828125
0, 6, 80, 187.2558746337891
0, 6, 81, 209.7075805664062
0, 6, 82, 196.2707977294922
0, 6, 83, 195.2066802978516
0, 6, 84, 197.0745849609375
0, 6, 85, 182.5580139160156
0, 6, 86, 202.3232727050781
0, 6, 87, 184.5871734619141
0, 6, 88, 191.4351501464844
0, 6, 89, 188.5385284423828
0, 6, 90, 205.2190246582031
0, 6, 91, 200.4353485107422
0, 6, 92, 172.8171539306641
0, 6, 93, 193.2465362548828
0, 6, 94, 190.2797546386719
0, 6, 95, 185.8141021728516
0, 6, 96, 189.3251190185547
0, 6, 97, 194.0913696289062
0, 6, 98, 182.3510437011719
0, 6, 99, 176.6261901855469
0, 6, 100, 201.5596618652344
0, 6, 101, 169.0705871582031
0, 6, 102, 201.6188507080078
0, 6, 103, 197.6293792724609
0, 6, 104, 183.3444671630859
0, 6, 105, 194.9364013671875
0, 6, 106, 179.5033416748047
0, 6, 107, 195.8202056884766
0, 6, 108, 171.9244537353516
0, 6, 109, 115.5339126586914
0, 6, 110, 33.516357421875
0, 6, 111, 8.767162322998047
0, 6, 112, 8.591955184936523
0, 6, 113, 4.906280040740967
0, 6, 114, 5.546243667602539
0, 6, 115, 6.156854629516602
0, 6, 116, 5.156540393829346
0, 6, 117, 3.324254274368286
0, 6, 118, 3.383279323577881
0, 6, 119, 5.149759769439697
0, 6, 120, 4.012088298797607
0, 6, 121, 3.600602388381958
0, 6, 122, 4.393359661102295
0, 6, 123, 1.976750016212463
0, 6, 124, 2.50959849357605
0, 6, 125, 4.073209762573242
0, 6, 126, 1.691231489181519
0, 6, 127, 2.425809860229492
0, 7, 0, 2.512331962585449
0, 7, 1, 3.093537569046021
0, 7, 2, 3.534849166870117
0, 7, 3, 2.523504972457886
0, 7, 4, 0.8745719790458679
0, 7, 5, 1.866517186164856
0, 7, 6, 2.850907325744629
0, 7, 7, 2.725857734680176
0, 7, 8, 2.994207143783569
0, 7, 9, 2.988097429275513
0, 7, 10, 5.060604572296143
0, 7, 11, 3.043383359909058
0, 7, 12, 3.970207214355469
0, 7, 13, 6.254644870758057
0, 7, 14, 6.751060009002686
0, 7, 15, 8.692390441894531
0, 7, 16, 15.95477294921875
0, 7, 17, 49.9222412109375
0, 7, 18, 161.7819671630859
0, 7, 19, 182.2755737304688
0, 7, 20, 178.4132080078125
0, 7, 21, 180.0420074462891
0, 7, 22, 191.2343444824219
0, 7, 23, 202.9169616699219
0, 7, 24, 180.6408996582031
0, 7, 25, 212.2603607177734
0, 7, 26, 188.8641815185547
0, 7, 27, 182.4656372070312
0, 7, 28, 182.5961303710938
0, 7, 29, 209.4401550292969
0, 7, 30, 193.3662719726562
0, 7, 31, 176.158935546875
0, 7, 32, 190.4629058837891
0, 7, 33, 182.7099151611328
0, 7, 34, 195.2412414550781
0, 7, 35, 196.032470703125
0, 7, 36, 186.5227203369141
0, 7, 37, 212.4606628417969
0, 7, 38, 193.6906127929688
0, 7, 39, 173.7868957519531
0, 7, 40, 184.4825897216797
0, 7, 41, 185.2076263427734
0, 7, 42, 177.6056213378906
0, 7, 43, 176.4228973388672
0, 7, 44, 178.8652954101562
0, 7, 45, 176.2957000732422
0, 7, 46, 190.2974853515625
0, 7, 47, 197.60986328125
0, 7, 48, 184.9579467773438
0, 7, 49, 200.5799407958984
0, 7, 50, 189.2009735107422
0, 7, 51, 204.8544616699219
0, 7, 52, 203.4284057617188
0, 7, 53, 191.4896697998047
0, 7, 54, 195.84375
0, 7, 55, 203.4487609863281
0, 7, 56, 183.0497436523438
0, 7, 57, 183.9744415283203
0, 7, 58, 193.7933654785156
0, 7, 59, 186.4048461914062
0, 7, 60, 202.4202575683594
0, 7, 61, 171.7727355957031
0, 7, 62, 202.6201629638672
0, 7, 63, 188.6148071289062
0, 7, 64, 199.6829528808594
0, 7, 65, 197.1934967041016
0, 7, 66, 206.3192749023438
0, 7, 67, 221.9130096435547
0, 7, 68, 162.9103546142578
0, 7, 69, 195.2204132080078
0, 7, 70, 216.4173736572266
0, 7, 71, 184.9947052001953
0, 7, 72, 180.7987976074219
0, 7, 73, 176.7354736328125
0, 7, 74, 208.3766021728516
0, 7, 75, 205.3013305664062
0, 7, 76, 214.7887115478516
0, 7, 77, 174.9536285400391
0, 7, 78, 177.2376098632812
0, 7, 79, 193.4768218994141
0, 7, 80, 196.9913940429688
0, 7, 81, 214.93359375
0, 7, 82, 184.2091674804688
0, 7, 83, 206.6447296142578
0, 7, 84, 192.8953094482422
0, 7, 85, 187.5060882568359
0, 7, 86, 201.0613403320312
0, 7, 87, 225.3227844238281
0, 7, 88, 194.5938262939453
0, 7, 89, 176.0890808105469
0, 7, 90, 182.4028167724609
0, 7, 91, 194.0914001464844
0, 7, 92, 193.2004547119141
0, 7, 93, 199.8271636962891
0, 7, 94, 177.7116546630859
0, 7, 95, 199.1674499511719
0, 7, 96, 208.7680816650391
0, 7, 97, 188.6946716308594
0, 7, 98, 176.6975860595703
0, 7, 99, 196.8019714355469
0, 7, 100, 181.7784729003906
0, 7, 101, 199.3616485595703
0, 7, 102, 185.4015960693359
0, 7, 103, 181.2605133056641
0, 7, 104, 174.6999053955078
0, 7, 105, 194.8044891357422
0, 7, 106, 205.0909576416016
0, 7, 107, 175.1117553710938
0, 7, 108, 178.1179351806641
0, 7, 109, 136.7611694335938
0, 7, 110, 54.36795425415039
0, 7, 111, 8.984142303466797
0, 7, 112, 8.081124305725098
0, 7, 113, 8.556796073913574
0, 7, 114, 7.197385311126709
0, 7, 115, 5.274948120117188
0, 7, 116, 6.253923892974854
0, 7, 117, 3.480903148651123
0, 7, 118, 4.085596561431885
0, 7, 119, 2.751203060150146
0, 7, 120, 2.12700366973877
0, 7, 121, 2.369041681289673
0, 7, 122, 2.848566770553589
0, 7, 123, 1.039861798286438
0, 7, 124, 1.031220555305481
0, 7, 125, 3.189825057983398
0, 7, 126, 2.519629955291748
0, 7, 127, 0.7957115173339844
0, 8, 0, 4.664388656616211
0, 8, 1, 3.218737840652466
0, 8, 2, 3.560202836990356
0, 8, 3, 1.537234425544739
0, 8, 4, 0.9931600689888
0, 8, 5, 3.17621636390686
0, 8, 6, 2.600048542022705
0, 8, 7, 2.42578911781311
0, 8, 8, 3.198023557662964
0, 8, 9, 4.624745845794678
0, 8, 10, 3.468277215957642
0, 8, 11, 3.229899883270264
0, 8, 12, 3.202298879623413
0, 8, 13, 6.081987380981445
0, 8, 14, 5.545527458190918
0, 8, 15, 8.596644401550293
0, 8, 16, 20.21000289916992
0, 8, 17, 76.15852355957031
0, 8, 18, 142.4993896484375
0, 8, 19, 178.4443054199219
0, 8, 20, 191.8641204833984
0, 8, 21, 192.1353149414062
0, 8, 22, 178.94482421875
0, 8, 23, 172.6390991210938
0, 8, 24, 192.3686676025391
0, 8, 25, 184.3162078857422
0, 8, 26, 192.3138732910156
0, 8, 27, 185.8527221679688
0, 8, 28, 186.7806243896484
0, 8, 29, 208.1698303222656
0, 8, 30, 197.286865234375
0, 8, 31, 183.1387939453125
0, 8, 32, 197.6469268798828
0, 8, 33, 206.9997253417969
0, 8, 34, 203.1209564208984
0, 8, 35, 185.1090850830078
0, 8, 36, 181.9297637939453
