# TOPAS Version: 3.1.p3
# Parameter File: batch_inserts_276.txt
# Results for scorer Readout_Adipose
# Scored in component: MyBox
# X in 1 bin  of 0.65 cm
# Y in 512 bins of 0.0783984 cm
# Z in 128 bins of 0.078125 cm
# EnergyDeposit ( MeV ) : Sum   
0, 0, 0, 1.37912130355835
0, 0, 1, 3.142751932144165
0, 0, 2, 1.618974447250366
0, 0, 3, 0.4598161280155182
0, 0, 4, 4.086360931396484
0, 0, 5, 0.6857261657714844
0, 0, 6, 1.128266096115112
0, 0, 7, 2.175141572952271
0, 0, 8, 1.431550741195679
0, 0, 9, 2.947159290313721
0, 0, 10, 1.613293290138245
0, 0, 11, 3.308014869689941
0, 0, 12, 4.787006378173828
0, 0, 13, 1.985233426094055
0, 0, 14, 4.760031700134277
0, 0, 15, 4.975333213806152
0, 0, 16, 3.84857177734375
0, 0, 17, 7.059074878692627
0, 0, 18, 7.86573600769043
0, 0, 19, 23.83672523498535
0, 0, 20, 94.01525115966797
0, 0, 21, 153.0615386962891
0, 0, 22, 154.2271118164062
0, 0, 23, 143.4866485595703
0, 0, 24, 160.5765228271484
0, 0, 25, 166.8104095458984
0, 0, 26, 166.7913818359375
0, 0, 27, 174.0097503662109
0, 0, 28, 178.1802062988281
0, 0, 29, 174.9731140136719
0, 0, 30, 174.6928253173828
0, 0, 31, 167.6111602783203
0, 0, 32, 164.6885681152344
0, 0, 33, 166.4673919677734
0, 0, 34, 178.7501525878906
0, 0, 35, 175.4269256591797
0, 0, 36, 158.7448883056641
0, 0, 37, 161.7520904541016
0, 0, 38, 166.301513671875
0, 0, 39, 159.0041656494141
0, 0, 40, 164.2870483398438
0, 0, 41, 166.2714996337891
0, 0, 42, 144.0986328125
0, 0, 43, 167.5889587402344
0, 0, 44, 177.85546875
0, 0, 45, 173.0599060058594
0, 0, 46, 166.5251159667969
0, 0, 47, 167.4254455566406
0, 0, 48, 169.1128234863281
0, 0, 49, 182.4899749755859
0, 0, 50, 169.1000518798828
0, 0, 51, 161.6339721679688
0, 0, 52, 165.6311492919922
0, 0, 53, 173.1227264404297
0, 0, 54, 159.2490386962891
0, 0, 55, 164.9186248779297
0, 0, 56, 188.6730499267578
0, 0, 57, 170.6179656982422
0, 0, 58, 162.964111328125
0, 0, 59, 172.7189788818359
0, 0, 60, 170.0187683105469
0, 0, 61, 168.7829132080078
0, 0, 62, 183.9124145507812
0, 0, 63, 167.5070495605469
0, 0, 64, 163.9733581542969
0, 0, 65, 175.8172302246094
0, 0, 66, 177.1494750976562
0, 0, 67, 163.5294036865234
0, 0, 68, 158.3807525634766
0, 0, 69, 158.9764404296875
0, 0, 70, 169.4449920654297
0, 0, 71, 158.4852142333984
0, 0, 72, 162.5541381835938
0, 0, 73, 171.5378875732422
0, 0, 74, 163.6439514160156
0, 0, 75, 163.3339691162109
0, 0, 76, 162.9061584472656
0, 0, 77, 172.3965911865234
0, 0, 78, 181.6023559570312
0, 0, 79, 174.8513336181641
0, 0, 80, 159.6323394775391
0, 0, 81, 160.7958374023438
0, 0, 82, 182.1748504638672
0, 0, 83, 173.749267578125
0, 0, 84, 159.4183807373047
0, 0, 85, 180.9803466796875
0, 0, 86, 158.5079345703125
0, 0, 87, 176.6909942626953
0, 0, 88, 177.2701721191406
0, 0, 89, 177.489501953125
0, 0, 90, 161.5600280761719
0, 0, 91, 185.9450378417969
0, 0, 92, 163.7796936035156
0, 0, 93, 157.6396789550781
0, 0, 94, 168.4805450439453
0, 0, 95, 173.6507873535156
0, 0, 96, 186.6149291992188
0, 0, 97, 183.4587554931641
0, 0, 98, 185.3504943847656
0, 0, 99, 170.9599609375
0, 0, 100, 159.3043823242188
0, 0, 101, 166.3486480712891
0, 0, 102, 169.8586730957031
0, 0, 103, 170.3581390380859
0, 0, 104, 169.3168334960938
0, 0, 105, 177.203857421875
0, 0, 106, 159.3749237060547
0, 0, 107, 86.47300720214844
0, 0, 108, 22.58871078491211
0, 0, 109, 9.408970832824707
0, 0, 110, 6.137999057769775
0, 0, 111, 7.88129997253418
0, 0, 112, 3.223602533340454
0, 0, 113, 2.751211404800415
0, 0, 114, 2.746274709701538
0, 0, 115, 3.691970825195312
0, 0, 116, 3.158618688583374
0, 0, 117, 3.328169584274292
0, 0, 118, 3.114432811737061
0, 0, 119, 2.25342321395874
0, 0, 120, 1.579174041748047
0, 0, 121, 4.026528835296631
0, 0, 122, 4.000872611999512
0, 0, 123, 4.527043342590332
0, 0, 124, 1.24325704574585
0, 0, 125, 3.421562671661377
0, 0, 126, 1.571753621101379
0, 0, 127, 1.414689898490906
0, 1, 0, 1.774651169776917
0, 1, 1, 4.521050930023193
0, 1, 2, 5.677675724029541
0, 1, 3, 2.313074111938477
0, 1, 4, 2.189563274383545
0, 1, 5, 1.86777937412262
0, 1, 6, 1.189415812492371
0, 1, 7, 1.64265239238739
0, 1, 8, 1.434317350387573
0, 1, 9, 1.78709864616394
0, 1, 10, 2.673117637634277
0, 1, 11, 5.735621452331543
0, 1, 12, 5.376267910003662
0, 1, 13, 5.271171092987061
0, 1, 14, 6.076181411743164
0, 1, 15, 6.457017421722412
0, 1, 16, 8.402362823486328
0, 1, 17, 5.625792980194092
0, 1, 18, 12.83037281036377
0, 1, 19, 38.80772018432617
0, 1, 20, 125.3399124145508
0, 1, 21, 176.9115447998047
0, 1, 22, 194.4878387451172
0, 1, 23, 186.692138671875
0, 1, 24, 179.4276275634766
0, 1, 25, 190.7332458496094
0, 1, 26, 198.4605560302734
0, 1, 27, 186.8886871337891
0, 1, 28, 188.5525665283203
0, 1, 29, 184.1610412597656
0, 1, 30, 180.0112762451172
0, 1, 31, 182.5512237548828
0, 1, 32, 190.4130706787109
0, 1, 33, 191.7088012695312
0, 1, 34, 184.4560089111328
0, 1, 35, 193.3497467041016
0, 1, 36, 205.2772369384766
0, 1, 37, 185.5725402832031
0, 1, 38, 164.5556030273438
0, 1, 39, 171.77294921875
0, 1, 40, 180.0635223388672
0, 1, 41, 185.1938781738281
0, 1, 42, 183.1488189697266
0, 1, 43, 186.0426330566406
0, 1, 44, 169.0553741455078
0, 1, 45, 187.9006195068359
0, 1, 46, 171.5079956054688
0, 1, 47, 184.1580657958984
0, 1, 48, 186.9939422607422
0, 1, 49, 186.5652618408203
0, 1, 50, 176.9504699707031
0, 1, 51, 191.6549835205078
0, 1, 52, 195.1112823486328
0, 1, 53, 195.8081817626953
0, 1, 54, 186.9028472900391
0, 1, 55, 165.0975646972656
0, 1, 56, 178.7652130126953
0, 1, 57, 178.1663360595703
0, 1, 58, 188.8213195800781
0, 1, 59, 194.5131683349609
0, 1, 60, 188.2171630859375
0, 1, 61, 178.5600738525391
0, 1, 62, 204.1961212158203
0, 1, 63, 175.2533874511719
0, 1, 64, 172.3102111816406
0, 1, 65, 186.2252197265625
0, 1, 66, 203.8364105224609
0, 1, 67, 182.6004638671875
0, 1, 68, 187.6873321533203
0, 1, 69, 188.5820617675781
0, 1, 70, 185.4604339599609
0, 1, 71, 170.7960510253906
0, 1, 72, 188.0472412109375
0, 1, 73, 189.4291381835938
0, 1, 74, 200.9947509765625
0, 1, 75, 183.6339874267578
0, 1, 76, 173.4181671142578
0, 1, 77, 192.7302703857422
0, 1, 78, 187.8525543212891
0, 1, 79, 202.2006683349609
0, 1, 80, 186.4019622802734
0, 1, 81, 175.1545867919922
0, 1, 82, 207.022216796875
0, 1, 83, 211.8214874267578
0, 1, 84, 180.0906982421875
0, 1, 85, 170.7695770263672
0, 1, 86, 169.2022705078125
0, 1, 87, 184.1466369628906
0, 1, 88, 176.1427307128906
0, 1, 89, 186.6585235595703
0, 1, 90, 212.6676635742188
0, 1, 91, 181.4849548339844
0, 1, 92, 184.7964782714844
0, 1, 93, 181.5689544677734
0, 1, 94, 185.8034057617188
0, 1, 95, 182.9638214111328
0, 1, 96, 196.33935546875
0, 1, 97, 182.6496887207031
0, 1, 98, 186.5286407470703
0, 1, 99, 175.6255493164062
0, 1, 100, 171.1580657958984
0, 1, 101, 177.9475402832031
0, 1, 102, 182.193115234375
0, 1, 103, 173.4679718017578
0, 1, 104, 189.3330230712891
0, 1, 105, 183.1757507324219
0, 1, 106, 163.047607421875
0, 1, 107, 123.4169464111328
0, 1, 108, 46.10149002075195
0, 1, 109, 9.651300430297852
0, 1, 110, 8.926894187927246
0, 1, 111, 6.838423728942871
0, 1, 112, 9.818265914916992
0, 1, 113, 7.647341728210449
0, 1, 114, 5.248016357421875
0, 1, 115, 4.045484066009521
0, 1, 116, 2.749865055084229
0, 1, 117, 2.684607982635498
0, 1, 118, 3.902429103851318
0, 1, 119, 1.278115391731262
0, 1, 120, 4.014956951141357
0, 1, 121, 3.423079252243042
0, 1, 122, 1.956110000610352
0, 1, 123, 2.709344863891602
0, 1, 124, 2.841245412826538
0, 1, 125, 2.516587972640991
0, 1, 126, 1.405829787254333
0, 1, 127, 2.275270223617554
0, 2, 0, 1.226299405097961
0, 2, 1, 2.386440992355347
0, 2, 2, 2.251661539077759
0, 2, 3, 0.9343377351760864
0, 2, 4, 1.382547974586487
0, 2, 5, 1.027415752410889
0, 2, 6, 2.367624998092651
0, 2, 7, 2.216088771820068
0, 2, 8, 1.034939408302307
0, 2, 9, 1.687376141548157
0, 2, 10, 6.958610534667969
0, 2, 11, 5.351883411407471
0, 2, 12, 4.61360502243042
0, 2, 13, 2.931044578552246
0, 2, 14, 4.836252212524414
0, 2, 15, 5.721974849700928
0, 2, 16, 5.322635650634766
0, 2, 17, 9.377490997314453
0, 2, 18, 13.79179000854492
0, 2, 19, 77.17582702636719
0, 2, 20, 162.121826171875
0, 2, 21, 183.4694213867188
0, 2, 22, 194.8343200683594
0, 2, 23, 183.8486175537109
0, 2, 24, 173.8873748779297
0, 2, 25, 184.2401428222656
0, 2, 26, 178.6354370117188
0, 2, 27, 189.2216186523438
0, 2, 28, 171.0427398681641
0, 2, 29, 168.8578491210938
0, 2, 30, 185.8836669921875
0, 2, 31, 182.8857269287109
0, 2, 32, 183.6536865234375
0, 2, 33, 191.0694274902344
0, 2, 34, 198.5742950439453
0, 2, 35, 182.6776123046875
0, 2, 36, 186.2350769042969
0, 2, 37, 180.3180999755859
0, 2, 38, 183.9919128417969
0, 2, 39, 165.9523468017578
0, 2, 40, 183.8253479003906
0, 2, 41, 186.0217437744141
0, 2, 42, 189.4103546142578
0, 2, 43, 193.8007659912109
0, 2, 44, 192.0359649658203
0, 2, 45, 189.5678253173828
0, 2, 46, 196.8562927246094
0, 2, 47, 191.609619140625
0, 2, 48, 177.5168914794922
0, 2, 49, 196.9509124755859
0, 2, 50, 169.8990783691406
0, 2, 51, 184.5929870605469
0, 2, 52, 186.0914916992188
0, 2, 53, 195.6658935546875
0, 2, 54, 174.7866668701172
0, 2, 55, 173.4256744384766
0, 2, 56, 181.7215576171875
0, 2, 57, 199.5016326904297
0, 2, 58, 186.6051483154297
0, 2, 59, 189.17822265625
0, 2, 60, 196.3060760498047
0, 2, 61, 194.2985534667969
0, 2, 62, 191.0655822753906
0, 2, 63, 169.5494995117188
0, 2, 64, 188.7528839111328
0, 2, 65, 202.0319976806641
0, 2, 66, 195.8160400390625
0, 2, 67, 184.4159698486328
0, 2, 68, 184.0876770019531
0, 2, 69, 187.3800048828125
0, 2, 70, 202.9273681640625
0, 2, 71, 175.6156616210938
0, 2, 72, 186.2690734863281
0, 2, 73, 177.5360412597656
0, 2, 74, 180.9087829589844
0, 2, 75, 195.578125
0, 2, 76, 183.4245147705078
0, 2, 77, 177.2939910888672
0, 2, 78, 197.9597625732422
0, 2, 79, 177.5116424560547
0, 2, 80, 186.8051300048828
0, 2, 81, 186.9679718017578
0, 2, 82, 204.4166412353516
0, 2, 83, 204.1067504882812
0, 2, 84, 188.7403869628906
0, 2, 85, 170.1323547363281
0, 2, 86, 194.349365234375
0, 2, 87, 172.0478057861328
0, 2, 88, 181.0779724121094
0, 2, 89, 185.2101287841797
0, 2, 90, 177.8740386962891
0, 2, 91, 173.7451477050781
0, 2, 92, 197.167236328125
0, 2, 93, 193.2528991699219
0, 2, 94, 199.0617218017578
0, 2, 95, 193.3951873779297
0, 2, 96, 187.0376281738281
0, 2, 97, 171.3738555908203
0, 2, 98, 173.5367279052734
0, 2, 99, 161.8561096191406
0, 2, 100, 187.5790710449219
0, 2, 101, 196.1177673339844
0, 2, 102, 176.5926513671875
0, 2, 103, 200.2781219482422
0, 2, 104, 187.99560546875
0, 2, 105, 202.7202911376953
0, 2, 106, 196.4284362792969
0, 2, 107, 149.0302886962891
0, 2, 108, 79.10218811035156
0, 2, 109, 18.0826530456543
0, 2, 110, 8.618379592895508
0, 2, 111, 6.141766548156738
0, 2, 112, 5.037599563598633
0, 2, 113, 5.351681709289551
0, 2, 114, 6.007065296173096
0, 2, 115, 5.17172384262085
0, 2, 116, 1.349011182785034
0, 2, 117, 1.726125478744507
0, 2, 118, 3.779797554016113
0, 2, 119, 2.408807516098022
0, 2, 120, 1.609521985054016
0, 2, 121, 3.266540050506592
0, 2, 122, 3.346778154373169
0, 2, 123, 4.701823711395264
0, 2, 124, 2.020849227905273
0, 2, 125, 1.321304321289062
0, 2, 126, 2.678923606872559
0, 2, 127, 1.033090710639954
0, 3, 0, 1.52901291847229
0, 3, 1, 1.036646962165833
0, 3, 2, 1.409464478492737
0, 3, 3, 1.374366760253906
0, 3, 4, 3.554693460464478
0, 3, 5, 1.873323678970337
0, 3, 6, 2.542765855789185
0, 3, 7, 1.449333667755127
0, 3, 8, 1.579679012298584
0, 3, 9, 1.634002447128296
0, 3, 10, 2.445703268051147
0, 3, 11, 3.890385389328003
0, 3, 12, 3.423903703689575
0, 3, 13, 3.515772819519043
0, 3, 14, 4.120508670806885
0, 3, 15, 6.786044120788574
0, 3, 16, 6.984107494354248
0, 3, 17, 6.017524719238281
0, 3, 18, 32.89763641357422
0, 3, 19, 114.8929977416992
0, 3, 20, 179.8945465087891
0, 3, 21, 172.3040466308594
0, 3, 22, 178.2222137451172
0, 3, 23, 187.1549682617188
0, 3, 24, 178.6614837646484
0, 3, 25, 168.4981536865234
0, 3, 26, 180.9850311279297
0, 3, 27, 191.7457122802734
0, 3, 28, 182.7877807617188
0, 3, 29, 197.2483215332031
0, 3, 30, 185.4968566894531
0, 3, 31, 194.1551055908203
0, 3, 32, 206.7623748779297
0, 3, 33, 197.3265686035156
0, 3, 34, 187.9249267578125
0, 3, 35, 175.5182647705078
0, 3, 36, 185.5301513671875
0, 3, 37, 199.6951904296875
0, 3, 38, 190.6447906494141
0, 3, 39, 186.4689178466797
0, 3, 40, 167.2726593017578
0, 3, 41, 174.1284332275391
0, 3, 42, 185.1285858154297
0, 3, 43, 181.5316772460938
0, 3, 44, 203.4270782470703
0, 3, 45, 208.6183319091797
0, 3, 46, 199.7222900390625
0, 3, 47, 194.4818420410156
0, 3, 48, 196.8769073486328
0, 3, 49, 180.4944763183594
0, 3, 50, 187.7100830078125
0, 3, 51, 174.2859497070312
0, 3, 52, 187.4463500976562
0, 3, 53, 178.9419097900391
0, 3, 54, 178.1740875244141
0, 3, 55, 177.0941925048828
0, 3, 56, 181.9140625
0, 3, 57, 175.8057556152344
0, 3, 58, 203.4604644775391
0, 3, 59, 196.2689208984375
0, 3, 60, 186.5221405029297
0, 3, 61, 181.3587341308594
0, 3, 62, 182.4017639160156
0, 3, 63, 184.8567047119141
0, 3, 64, 189.0379791259766
0, 3, 65, 189.1755828857422
0, 3, 66, 175.9258880615234
0, 3, 67, 189.4389801025391
0, 3, 68, 211.5428924560547
0, 3, 69, 190.0048675537109
0, 3, 70, 185.3282012939453
0, 3, 71, 196.7100677490234
0, 3, 72, 185.1225738525391
0, 3, 73, 186.3962554931641
0, 3, 74, 193.1850738525391
0, 3, 75, 191.9694976806641
0, 3, 76, 190.4271545410156
0, 3, 77, 197.9449157714844
0, 3, 78, 188.4351196289062
0, 3, 79, 184.3905487060547
0, 3, 80, 189.2555847167969
0, 3, 81, 183.9834899902344
0, 3, 82, 182.0197296142578
0, 3, 83, 194.4142303466797
0, 3, 84, 199.3535308837891
0, 3, 85, 191.8607635498047
0, 3, 86, 204.1747894287109
0, 3, 87, 198.6693572998047
0, 3, 88, 190.9537048339844
0, 3, 89, 194.0478515625
0, 3, 90, 173.8710021972656
0, 3, 91, 158.537109375
0, 3, 92, 206.2558898925781
0, 3, 93, 195.6755828857422
0, 3, 94, 194.5073394775391
0, 3, 95, 211.1490020751953
0, 3, 96, 208.0886993408203
0, 3, 97, 168.7884674072266
0, 3, 98, 166.8766784667969
0, 3, 99, 179.4427490234375
0, 3, 100, 176.9704742431641
0, 3, 101, 196.7716369628906
0, 3, 102, 195.0806884765625
0, 3, 103, 193.8139190673828
0, 3, 104, 202.8797302246094
0, 3, 105, 174.6450500488281
0, 3, 106, 182.4895935058594
0, 3, 107, 169.3152008056641
0, 3, 108, 107.6967849731445
0, 3, 109, 28.97356986999512
0, 3, 110, 7.896395206451416
0, 3, 111, 6.875997543334961
0, 3, 112, 4.271074771881104
0, 3, 113, 7.111405849456787
0, 3, 114, 4.933324813842773
0, 3, 115, 5.800394535064697
0, 3, 116, 6.683140754699707
0, 3, 117, 2.669053554534912
0, 3, 118, 2.856045722961426
0, 3, 119, 2.626926898956299
0, 3, 120, 3.467011451721191
0, 3, 121, 2.58841347694397
0, 3, 122, 2.533671140670776
0, 3, 123, 1.087770938873291
0, 3, 124, 1.728894352912903
0, 3, 125, 1.46474289894104
0, 3, 126, 2.116753339767456
0, 3, 127, 1.036524057388306
0, 4, 0, 1.331538677215576
0, 4, 1, 0.3698582053184509
0, 4, 2, 2.362716913223267
0, 4, 3, 3.813620567321777
0, 4, 4, 2.289851427078247
0, 4, 5, 0.6899753212928772
0, 4, 6, 2.99804949760437
0, 4, 7, 3.185922384262085
0, 4, 8, 1.06717050075531
0, 4, 9, 3.499056577682495
0, 4, 10, 3.175374031066895
0, 4, 11, 3.37056040763855
0, 4, 12, 3.297281265258789
0, 4, 13, 4.346122741699219
0, 4, 14, 4.557243347167969
0, 4, 15, 9.385890960693359
0, 4, 16, 6.067429542541504
0, 4, 17, 12.66159915924072
0, 4, 18, 55.1606559753418
0, 4, 19, 151.8743133544922
0, 4, 20, 192.8921508789062
0, 4, 21, 169.1327819824219
0, 4, 22, 187.1410369873047
0, 4, 23, 195.5043792724609
0, 4, 24, 191.9816284179688
0, 4, 25, 199.2797241210938
0, 4, 26, 183.0855865478516
0, 4, 27, 190.4037017822266
0, 4, 28, 177.7067413330078
0, 4, 29, 205.9249267578125
0, 4, 30, 195.6348571777344
0, 4, 31, 192.8045501708984
0, 4, 32, 210.0646057128906
0, 4, 33, 191.469482421875
0, 4, 34, 193.0593719482422
0, 4, 35, 212.8234710693359
0, 4, 36, 192.4973907470703
0, 4, 37, 176.6402130126953
0, 4, 38, 194.9259338378906
0, 4, 39, 189.6514587402344
0, 4, 40, 185.4365539550781
0, 4, 41, 190.1689605712891
0, 4, 42, 205.94873046875
0, 4, 43, 173.9949340820312
0, 4, 44, 183.3374328613281
0, 4, 45, 195.5409698486328
0, 4, 46, 185.6927490234375
0, 4, 47, 180.6829681396484
0, 4, 48, 184.9042053222656
0, 4, 49, 175.1023864746094
0, 4, 50, 186.0557861328125
0, 4, 51, 197.4813385009766
0, 4, 52, 223.7133331298828
0, 4, 53, 205.9263458251953
0, 4, 54, 189.6084442138672
0, 4, 55, 175.4717712402344
0, 4, 56, 190.9342346191406
0, 4, 57, 191.8671569824219
0, 4, 58, 187.3858184814453
0, 4, 59, 189.4830627441406
0, 4, 60, 196.2637176513672
0, 4, 61, 193.0767364501953
0, 4, 62, 190.6948547363281
0, 4, 63, 179.2964782714844
0, 4, 64, 215.1449584960938
0, 4, 65, 191.8083343505859
0, 4, 66, 200.5749206542969
0, 4, 67, 200.0841217041016
0, 4, 68, 201.5197143554688
0, 4, 69, 198.6488952636719
0, 4, 70, 206.1105346679688
0, 4, 71, 206.4885864257812
0, 4, 72, 214.5939636230469
0, 4, 73, 185.2080688476562
0, 4, 74, 181.2086029052734
0, 4, 75, 185.4176635742188
0, 4, 76, 190.8179016113281
0, 4, 77, 182.5330810546875
0, 4, 78, 195.1907196044922
0, 4, 79, 204.1113891601562
0, 4, 80, 211.3017272949219
0, 4, 81, 197.3139801025391
0, 4, 82, 180.3663177490234
0, 4, 83, 170.5214691162109
0, 4, 84, 193.9473114013672
0, 4, 85, 195.6308898925781
0, 4, 86, 181.6314086914062
0, 4, 87, 182.5427093505859
0, 4, 88, 203.8755035400391
0, 4, 89, 187.3093566894531
0, 4, 90, 212.2180633544922
0, 4, 91, 190.4579925537109
0, 4, 92, 197.1296234130859
0, 4, 93, 195.5478057861328
0, 4, 94, 182.0319366455078
0, 4, 95, 173.8332977294922
0, 4, 96, 190.3319396972656
0, 4, 97, 193.7973327636719
0, 4, 98, 201.3199462890625
0, 4, 99, 183.3326110839844
0, 4, 100, 182.0502777099609
0, 4, 101, 178.5136108398438
0, 4, 102, 174.1447296142578
0, 4, 103, 185.3095550537109
0, 4, 104, 210.03759765625
0, 4, 105, 189.9752349853516
0, 4, 106, 179.1042175292969
0, 4, 107, 181.0847625732422
0, 4, 108, 151.6792144775391
0, 4, 109, 49.90139389038086
0, 4, 110, 11.50412750244141
0, 4, 111, 8.210197448730469
0, 4, 112, 6.889577388763428
0, 4, 113, 8.507523536682129
0, 4, 114, 6.290064334869385
0, 4, 115, 3.048600912094116
0, 4, 116, 4.869600772857666
0, 4, 117, 3.908403158187866
0, 4, 118, 2.99446439743042
0, 4, 119, 3.638540983200073
0, 4, 120, 3.020329713821411
0, 4, 121, 1.72948956489563
0, 4, 122, 2.349225759506226
0, 4, 123, 1.346392273902893
0, 4, 124, 3.565005779266357
0, 4, 125, 2.535906314849854
0, 4, 126, 1.770327806472778
0, 4, 127, 1.219916224479675
0, 5, 0, 2.758173227310181
0, 5, 1, 4.044795036315918
0, 5, 2, 6.235803604125977
0, 5, 3, 5.659516334533691
0, 5, 4, 1.90180778503418
0, 5, 5, 2.282296657562256
0, 5, 6, 2.452541828155518
0, 5, 7, 3.036598443984985
0, 5, 8, 2.268243074417114
0, 5, 9, 2.479977607727051
0, 5, 10, 3.716387510299683
0, 5, 11, 3.078874826431274
0, 5, 12, 4.386340618133545
0, 5, 13, 3.574930667877197
0, 5, 14, 6.12436580657959
0, 5, 15, 9.206423759460449
0, 5, 16, 8.051924705505371
0, 5, 17, 21.09465026855469
0, 5, 18, 83.19951629638672
0, 5, 19, 164.1369323730469
0, 5, 20, 182.7275085449219
0, 5, 21, 176.8457794189453
0, 5, 22, 171.4988098144531
0, 5, 23, 200.5986328125
0, 5, 24, 187.4001922607422
0, 5, 25, 206.6714477539062
0, 5, 26, 181.7226715087891
0, 5, 27, 195.6699066162109
0, 5, 28, 190.3766632080078
0, 5, 29, 195.3495178222656
0, 5, 30, 177.809326171875
0, 5, 31, 179.7015533447266
0, 5, 32, 186.8346099853516
0, 5, 33, 168.8372955322266
0, 5, 34, 194.5401153564453
0, 5, 35, 196.2427978515625
0, 5, 36, 168.7258605957031
0, 5, 37, 197.1347198486328
0, 5, 38, 182.0891876220703
0, 5, 39, 186.1568450927734
0, 5, 40, 197.1676635742188
0, 5, 41, 177.0719451904297
0, 5, 42, 187.5341491699219
0, 5, 43, 192.4764404296875
0, 5, 44, 199.5804901123047
0, 5, 45, 186.9770202636719
0, 5, 46, 192.5846862792969
0, 5, 47, 180.7499847412109
0, 5, 48, 178.3897705078125
0, 5, 49, 176.0394287109375
0, 5, 50, 186.38427734375
0, 5, 51, 171.6332397460938
0, 5, 52, 167.4150695800781
0, 5, 53, 182.1233520507812
0, 5, 54, 172.5221099853516
0, 5, 55, 215.9103546142578
0, 5, 56, 181.7157287597656
0, 5, 57, 209.2154998779297
0, 5, 58, 181.7950134277344
0, 5, 59, 180.7050476074219
0, 5, 60, 218.2943267822266
0, 5, 61, 184.1374206542969
0, 5, 62, 178.458984375
0, 5, 63, 180.4325714111328
0, 5, 64, 194.3793029785156
0, 5, 65, 210.0351715087891
0, 5, 66, 192.4096221923828
0, 5, 67, 199.3824005126953
0, 5, 68, 186.9353790283203
0, 5, 69, 185.6004791259766
0, 5, 70, 185.0707702636719
0, 5, 71, 193.2472686767578
0, 5, 72, 197.5790100097656
0, 5, 73, 202.0498199462891
0, 5, 74, 179.1116180419922
0, 5, 75, 203.1801452636719
0, 5, 76, 215.0701141357422
0, 5, 77, 181.0981903076172
0, 5, 78, 194.0797882080078
0, 5, 79, 189.7094573974609
0, 5, 80, 197.5707550048828
0, 5, 81, 204.5293579101562
0, 5, 82, 200.9705352783203
0, 5, 83, 188.6432800292969
0, 5, 84, 204.7746276855469
0, 5, 85, 176.4848785400391
0, 5, 86, 195.5855865478516
0, 5, 87, 187.4400024414062
0, 5, 88, 177.8273162841797
0, 5, 89, 195.1699676513672
0, 5, 90, 199.0838165283203
0, 5, 91, 194.6961212158203
0, 5, 92, 190.4901428222656
0, 5, 93, 191.1068878173828
0, 5, 94, 209.2769317626953
0, 5, 95, 176.3527069091797
0, 5, 96, 184.3347625732422
0, 5, 97, 190.5541687011719
0, 5, 98, 188.3609466552734
0, 5, 99, 196.5229949951172
0, 5, 100, 187.3969116210938
0, 5, 101, 196.3062286376953
0, 5, 102, 181.8400421142578
0, 5, 103, 176.1217041015625
0, 5, 104, 189.8882141113281
0, 5, 105, 190.7920684814453
0, 5, 106, 176.8729248046875
0, 5, 107, 181.2737579345703
0, 5, 108, 176.2630462646484
0, 5, 109, 89.27178955078125
0, 5, 110, 30.70604515075684
0, 5, 111, 9.122483253479004
0, 5, 112, 6.727614402770996
0, 5, 113, 8.132195472717285
0, 5, 114, 5.819699287414551
0, 5, 115, 5.906376361846924
0, 5, 116, 3.868753433227539
0, 5, 117, 2.123907089233398
0, 5, 118, 4.008362770080566
0, 5, 119, 2.811390161514282
0, 5, 120, 2.346505641937256
0, 5, 121, 1.424874901771545
0, 5, 122, 2.229407787322998
0, 5, 123, 4.477663040161133
0, 5, 124, 2.922674655914307
0, 5, 125, 1.515483260154724
0, 5, 126, 2.031364917755127
0, 5, 127, 2.559861898422241
0, 6, 0, 3.572385549545288
0, 6, 1, 3.333234071731567
0, 6, 2, 4.255827903747559
0, 6, 3, 1.263203620910645
0, 6, 4, 2.48926305770874
0, 6, 5, 3.396251440048218
0, 6, 6, 3.775328159332275
0, 6, 7, 4.161993980407715
0, 6, 8, 3.715272665023804
0, 6, 9, 3.521668672561646
0, 6, 10, 3.9168541431427
0, 6, 11, 4.407337188720703
0, 6, 12, 4.642049789428711
0, 6, 13, 5.196742534637451
0, 6, 14, 6.548801898956299
0, 6, 15, 7.097463607788086
0, 6, 16, 11.96424007415771
0, 6, 17, 28.63860893249512
0, 6, 18, 111.712158203125
0, 6, 19, 190.8599548339844
0, 6, 20, 197.0391998291016
0, 6, 21, 198.4595642089844
0, 6, 22, 191.4149932861328
0, 6, 23, 190.7704772949219
0, 6, 24, 200.3111877441406
0, 6, 25, 183.0101470947266
0, 6, 26, 186.8215179443359
0, 6, 27, 193.4301300048828
0, 6, 28, 188.3026885986328
0, 6, 29, 211.8321990966797
0, 6, 30, 188.9597930908203
0, 6, 31, 193.3887634277344
0, 6, 32, 205.3015289306641
0, 6, 33, 183.8329010009766
0, 6, 34, 196.9528656005859
0, 6, 35, 187.2449493408203
0, 6, 36, 179.8728942871094
0, 6, 37, 182.8651580810547
0, 6, 38, 186.1612243652344
0, 6, 39, 194.83447265625
0, 6, 40, 173.8597564697266
0, 6, 41, 185.6143341064453
0, 6, 42, 174.1342163085938
0, 6, 43, 208.4218292236328
0, 6, 44, 209.1007080078125
0, 6, 45, 192.8740234375
0, 6, 46, 187.6781311035156
0, 6, 47, 204.1966247558594
0, 6, 48, 189.9680633544922
0, 6, 49, 178.8742218017578
0, 6, 50, 181.8506317138672
0, 6, 51, 195.6355133056641
0, 6, 52, 197.0496215820312
0, 6, 53, 184.7947082519531
0, 6, 54, 175.5155487060547
0, 6, 55, 194.93212890625
0, 6, 56, 202.6343383789062
0, 6, 57, 190.2396392822266
0, 6, 58, 179.9608154296875
0, 6, 59, 191.4859771728516
0, 6, 60, 185.1728210449219
0, 6, 61, 193.5557403564453
0, 6, 62, 197.6370697021484
0, 6, 63, 187.0959625244141
0, 6, 64, 167.5121917724609
0, 6, 65, 187.4024200439453
0, 6, 66, 196.6423034667969
0, 6, 67, 214.3651580810547
0, 6, 68, 179.9909210205078
0, 6, 69, 171.0993499755859
0, 6, 70, 187.5329895019531
0, 6, 71, 170.7221069335938
0, 6, 72, 177.6663208007812
0, 6, 73, 177.1984252929688
0, 6, 74, 211.1049652099609
0, 6, 75, 227.8995208740234
0, 6, 76, 184.1737823486328
0, 6, 77, 172.62451171875
0, 6, 78, 176.2563018798828
0, 6, 79, 190.3934631347656
0, 6, 80, 187.3612060546875
0, 6, 81, 208.7852172851562
0, 6, 82, 197.7047576904297
0, 6, 83, 195.8685607910156
0, 6, 84, 197.484130859375
0, 6, 85, 183.2727813720703
0, 6, 86, 200.8845062255859
0, 6, 87, 183.5177001953125
0, 6, 88, 191.7223663330078
0, 6, 89, 187.9373016357422
0, 6, 90, 205.4638366699219
0, 6, 91, 199.6936950683594
0, 6, 92, 173.0318908691406
0, 6, 93, 192.1594085693359
0, 6, 94, 189.0663604736328
0, 6, 95, 184.7948608398438
0, 6, 96, 189.5767517089844
0, 6, 97, 195.4291381835938
0, 6, 98, 183.7932586669922
0, 6, 99, 175.0037536621094
0, 6, 100, 200.8692474365234
0, 6, 101, 168.7058868408203
0, 6, 102, 203.5233917236328
0, 6, 103, 196.4028930664062
0, 6, 104, 183.3190155029297
0, 6, 105, 193.3499908447266
0, 6, 106, 177.3608703613281
0, 6, 107, 194.8863983154297
0, 6, 108, 169.9650268554688
0, 6, 109, 114.6908187866211
0, 6, 110, 35.2968864440918
0, 6, 111, 9.394230842590332
0, 6, 112, 8.352443695068359
0, 6, 113, 4.987171649932861
0, 6, 114, 5.020890712738037
0, 6, 115, 4.530478477478027
0, 6, 116, 3.461020469665527
0, 6, 117, 4.504057884216309
0, 6, 118, 3.481564998626709
0, 6, 119, 4.142537117004395
0, 6, 120, 1.527578473091125
0, 6, 121, 4.036896228790283
0, 6, 122, 3.421823501586914
0, 6, 123, 2.611912488937378
0, 6, 124, 3.003506660461426
0, 6, 125, 3.006514072418213
0, 6, 126, 1.159461617469788
0, 6, 127, 2.85126519203186
0, 7, 0, 2.997849464416504
0, 7, 1, 1.207610964775085
0, 7, 2, 2.156824350357056
0, 7, 3, 2.081943273544312
0, 7, 4, 1.149543523788452
0, 7, 5, 1.440357327461243
0, 7, 6, 2.356922149658203
0, 7, 7, 2.094075679779053
0, 7, 8, 2.630904674530029
0, 7, 9, 3.13001823425293
0, 7, 10, 4.475922107696533
0, 7, 11, 2.735465526580811
0, 7, 12, 3.463826417922974
0, 7, 13, 5.407453060150146
0, 7, 14, 6.468608379364014
0, 7, 15, 6.963857173919678
0, 7, 16, 15.69882202148438
0, 7, 17, 51.82679748535156
0, 7, 18, 161.7406005859375
0, 7, 19, 183.1502532958984
0, 7, 20, 179.0451812744141
0, 7, 21, 179.9665679931641
0, 7, 22, 190.3258972167969
0, 7, 23, 202.8457489013672
0, 7, 24, 179.7437744140625
0, 7, 25, 213.0356597900391
0, 7, 26, 189.5776824951172
0, 7, 27, 181.9097290039062
0, 7, 28, 182.6038055419922
0, 7, 29, 208.53857421875
0, 7, 30, 192.6808776855469
0, 7, 31, 175.8056182861328
0, 7, 32, 191.7811279296875
0, 7, 33, 180.3936309814453
0, 7, 34, 193.4292297363281
0, 7, 35, 198.4926300048828
0, 7, 36, 187.6540374755859
0, 7, 37, 212.4366302490234
0, 7, 38, 190.7152709960938
0, 7, 39, 173.6847076416016
0, 7, 40, 183.6729278564453
0, 7, 41, 187.739501953125
0, 7, 42, 178.0611877441406
0, 7, 43, 178.9970397949219
0, 7, 44, 179.6775512695312
0, 7, 45, 175.7944488525391
0, 7, 46, 190.5111846923828
0, 7, 47, 198.4022064208984
0, 7, 48, 185.1587066650391
0, 7, 49, 199.0363922119141
0, 7, 50, 188.0374755859375
0, 7, 51, 204.8168792724609
0, 7, 52, 204.5712432861328
0, 7, 53, 191.2480010986328
0, 7, 54, 195.3682403564453
0, 7, 55, 204.575439453125
0, 7, 56, 183.0601501464844
0, 7, 57, 182.3694152832031
0, 7, 58, 191.543701171875
0, 7, 59, 186.69189453125
0, 7, 60, 202.3184051513672
0, 7, 61, 170.7667388916016
0, 7, 62, 203.5619812011719
0, 7, 63, 188.7709655761719
0, 7, 64, 199.239990234375
0, 7, 65, 197.0545349121094
0, 7, 66, 206.9890899658203
0, 7, 67, 219.5639038085938
0, 7, 68, 162.1833648681641
0, 7, 69, 194.5977020263672
0, 7, 70, 217.2348785400391
0, 7, 71, 183.7299652099609
0, 7, 72, 180.78955078125
0, 7, 73, 177.0777435302734
0, 7, 74, 208.4363098144531
0, 7, 75, 205.9766845703125
0, 7, 76, 214.4298248291016
0, 7, 77, 175.7286071777344
0, 7, 78, 176.6125640869141
0, 7, 79, 194.5438842773438
0, 7, 80, 197.2322082519531
0, 7, 81, 215.1829071044922
0, 7, 82, 185.9738464355469
0, 7, 83, 205.2044677734375
0, 7, 84, 192.1127777099609
0, 7, 85, 185.8234558105469
0, 7, 86, 201.4165191650391
0, 7, 87, 227.2082977294922
0, 7, 88, 195.3834381103516
0, 7, 89, 178.0164642333984
0, 7, 90, 182.14794921875
0, 7, 91, 194.3465576171875
0, 7, 92, 193.8490142822266
0, 7, 93, 199.5404357910156
0, 7, 94, 178.7843780517578
0, 7, 95, 198.3198089599609
0, 7, 96, 208.0768432617188
0, 7, 97, 189.7012634277344
0, 7, 98, 176.7457733154297
0, 7, 99, 196.8232421875
0, 7, 100, 182.5348663330078
0, 7, 101, 199.3601226806641
0, 7, 102, 185.306640625
0, 7, 103, 181.3814086914062
0, 7, 104, 174.8051910400391
0, 7, 105, 195.3649444580078
0, 7, 106, 206.138916015625
0, 7, 107, 173.1783142089844
0, 7, 108, 177.0332641601562
0, 7, 109, 135.8239288330078
0, 7, 110, 53.74114608764648
0, 7, 111, 8.416080474853516
0, 7, 112, 8.100188255310059
0, 7, 113, 8.656828880310059
0, 7, 114, 7.155672073364258
0, 7, 115, 5.711934089660645
0, 7, 116, 4.034828186035156
0, 7, 117, 3.144835233688354
0, 7, 118, 3.386605739593506
0, 7, 119, 3.657498359680176
0, 7, 120, 2.35098123550415
0, 7, 121, 4.458396911621094
0, 7, 122, 2.641179800033569
0, 7, 123, 1.982995748519897
0, 7, 124, 1.050538301467896
0, 7, 125, 3.132078647613525
0, 7, 126, 5.324614524841309
0, 7, 127, 3.294070959091187
0, 8, 0, 3.447491407394409
0, 8, 1, 1.863073945045471
0, 8, 2, 3.911517381668091
0, 8, 3, 3.459570169448853
0, 8, 4, 0.9929794073104858
0, 8, 5, 3.034079313278198
0, 8, 6, 2.845598697662354
0, 8, 7, 2.952069282531738
0, 8, 8, 3.844629287719727
0, 8, 9, 6.671778202056885
0, 8, 10, 2.402997732162476
0, 8, 11, 2.741339921951294
0, 8, 12, 3.736182689666748
0, 8, 13, 5.644153594970703
0, 8, 14, 8.22315788269043
0, 8, 15, 7.928290843963623
0, 8, 16, 18.5949649810791
0, 8, 17, 76.42996215820312
0, 8, 18, 142.3364715576172
0, 8, 19, 181.630126953125
0, 8, 20, 193.1087799072266
0, 8, 21, 194.7224426269531
0, 8, 22, 179.6834259033203
0, 8, 23, 172.5836181640625
0, 8, 24, 191.9070129394531
0, 8, 25, 185.2216186523438
0, 8, 26, 192.4218444824219
0, 8, 27, 186.3304901123047
0, 8, 28, 187.8434143066406
0, 8, 29, 208.1662139892578
0, 8, 30, 196.4016418457031
0, 8, 31, 183.5264587402344
0, 8, 32, 198.8640594482422
0, 8, 33, 206.3329620361328
0, 8, 34, 202.9093475341797
0, 8, 35, 185.7322387695312
0, 8, 36, 181.289306640625
0, 8, 37, 198.5511474609375
