# TOPAS Version: 3.1.p3
# Parameter File: batch_inserts_346.txt
# Results for scorer Readout_Adipose
# Scored in component: MyBox
# X in 1 bin  of 0.65 cm
# Y in 512 bins of 0.0783984 cm
# Z in 128 bins of 0.078125 cm
# EnergyDeposit ( MeV ) : Sum   
0, 0, 0, 1.572724223136902
0, 0, 1, 6.937625408172607
0, 0, 2, 3.20866870880127
0, 0, 3, 0.3595280945301056
0, 0, 4, 1.614826560020447
0, 0, 5, 2.099812507629395
0, 0, 6, 1.055337071418762
0, 0, 7, 1.871819734573364
0, 0, 8, 1.513170480728149
0, 0, 9, 2.441715478897095
0, 0, 10, 2.280007600784302
0, 0, 11, 3.85103702545166
0, 0, 12, 5.721470355987549
0, 0, 13, 2.552225828170776
0, 0, 14, 7.110085487365723
0, 0, 15, 5.828289031982422
0, 0, 16, 4.31888484954834
0, 0, 17, 5.540278434753418
0, 0, 18, 7.799514770507812
0, 0, 19, 23.5472354888916
0, 0, 20, 93.77420806884766
0, 0, 21, 153.2688446044922
0, 0, 22, 154.8013305664062
0, 0, 23, 144.0989379882812
0, 0, 24, 159.5394134521484
0, 0, 25, 167.1725158691406
0, 0, 26, 166.7509002685547
0, 0, 27, 173.2761840820312
0, 0, 28, 178.2016754150391
0, 0, 29, 174.8550567626953
0, 0, 30, 171.9888153076172
0, 0, 31, 166.2995452880859
0, 0, 32, 164.5890808105469
0, 0, 33, 166.3231353759766
0, 0, 34, 178.1191253662109
0, 0, 35, 173.9691619873047
0, 0, 36, 159.6450042724609
0, 0, 37, 161.2388610839844
0, 0, 38, 166.2764739990234
0, 0, 39, 159.2646179199219
0, 0, 40, 164.6508331298828
0, 0, 41, 165.9616546630859
0, 0, 42, 143.8268737792969
0, 0, 43, 167.3290710449219
0, 0, 44, 177.6657562255859
0, 0, 45, 172.5493621826172
0, 0, 46, 165.8035736083984
0, 0, 47, 167.4585113525391
0, 0, 48, 169.103759765625
0, 0, 49, 183.9127502441406
0, 0, 50, 170.3629760742188
0, 0, 51, 162.2646331787109
0, 0, 52, 161.9882202148438
0, 0, 53, 170.9927368164062
0, 0, 54, 159.8656768798828
0, 0, 55, 164.0552825927734
0, 0, 56, 189.7835998535156
0, 0, 57, 170.30810546875
0, 0, 58, 161.5727996826172
0, 0, 59, 171.7045745849609
0, 0, 60, 169.6936492919922
0, 0, 61, 171.3592987060547
0, 0, 62, 183.3903656005859
0, 0, 63, 167.8199462890625
0, 0, 64, 163.9563446044922
0, 0, 65, 173.7260894775391
0, 0, 66, 179.9079132080078
0, 0, 67, 165.0591278076172
0, 0, 68, 158.7143096923828
0, 0, 69, 159.3167572021484
0, 0, 70, 169.7310180664062
0, 0, 71, 158.6766662597656
0, 0, 72, 163.1634368896484
0, 0, 73, 171.5181121826172
0, 0, 74, 162.5490417480469
0, 0, 75, 163.8163757324219
0, 0, 76, 162.9686126708984
0, 0, 77, 171.5913391113281
0, 0, 78, 183.4200592041016
0, 0, 79, 175.2671051025391
0, 0, 80, 159.4999847412109
0, 0, 81, 159.7920684814453
0, 0, 82, 180.9290618896484
0, 0, 83, 172.1370086669922
0, 0, 84, 159.1082916259766
0, 0, 85, 181.2034301757812
0, 0, 86, 159.9488525390625
0, 0, 87, 177.3689880371094
0, 0, 88, 176.9983367919922
0, 0, 89, 174.7686767578125
0, 0, 90, 163.7559204101562
0, 0, 91, 186.6222839355469
0, 0, 92, 163.5940246582031
0, 0, 93, 158.0052642822266
0, 0, 94, 168.7137756347656
0, 0, 95, 176.2045440673828
0, 0, 96, 183.4512023925781
0, 0, 97, 184.1299133300781
0, 0, 98, 186.9979858398438
0, 0, 99, 172.2890625
0, 0, 100, 159.6071624755859
0, 0, 101, 166.7862548828125
0, 0, 102, 171.6015625
0, 0, 103, 171.7094116210938
0, 0, 104, 171.3609008789062
0, 0, 105, 176.6516265869141
0, 0, 106, 159.4402160644531
0, 0, 107, 85.51183319091797
0, 0, 108, 21.6020679473877
0, 0, 109, 8.787274360656738
0, 0, 110, 6.485836029052734
0, 0, 111, 6.203630924224854
0, 0, 112, 4.248496532440186
0, 0, 113, 3.054709434509277
0, 0, 114, 2.122081995010376
0, 0, 115, 2.94231915473938
0, 0, 116, 2.529041528701782
0, 0, 117, 1.635006427764893
0, 0, 118, 2.773048400878906
0, 0, 119, 2.080161571502686
0, 0, 120, 1.813660621643066
0, 0, 121, 5.517480850219727
0, 0, 122, 4.420585632324219
0, 0, 123, 4.85451602935791
0, 0, 124, 3.181321382522583
0, 0, 125, 2.361045598983765
0, 0, 126, 1.190469264984131
0, 0, 127, 2.636831760406494
0, 1, 0, 1.02629292011261
0, 1, 1, 3.046943426132202
0, 1, 2, 2.457612991333008
0, 1, 3, 0.825477659702301
0, 1, 4, 1.686836361885071
0, 1, 5, 1.090016007423401
0, 1, 6, 1.298449873924255
0, 1, 7, 3.533836841583252
0, 1, 8, 1.365414142608643
0, 1, 9, 1.688787817955017
0, 1, 10, 2.759398221969604
0, 1, 11, 4.145489692687988
0, 1, 12, 4.781317234039307
0, 1, 13, 2.28967547416687
0, 1, 14, 6.712479114532471
0, 1, 15, 7.09745979309082
0, 1, 16, 8.513165473937988
0, 1, 17, 4.834518432617188
0, 1, 18, 10.87629699707031
0, 1, 19, 38.62278747558594
0, 1, 20, 126.8366241455078
0, 1, 21, 177.6568145751953
0, 1, 22, 192.3470764160156
0, 1, 23, 186.9889373779297
0, 1, 24, 180.1229553222656
0, 1, 25, 191.0078277587891
0, 1, 26, 198.2821044921875
0, 1, 27, 186.2326049804688
0, 1, 28, 188.1859588623047
0, 1, 29, 184.1033477783203
0, 1, 30, 179.5532836914062
0, 1, 31, 182.2513580322266
0, 1, 32, 189.3275451660156
0, 1, 33, 190.2730255126953
0, 1, 34, 185.7637634277344
0, 1, 35, 193.3487396240234
0, 1, 36, 205.4869537353516
0, 1, 37, 184.5583953857422
0, 1, 38, 166.3893737792969
0, 1, 39, 172.0892486572266
0, 1, 40, 180.0374603271484
0, 1, 41, 184.4267730712891
0, 1, 42, 183.2088165283203
0, 1, 43, 186.6883544921875
0, 1, 44, 168.7343139648438
0, 1, 45, 187.1209869384766
0, 1, 46, 170.8336486816406
0, 1, 47, 185.3202972412109
0, 1, 48, 186.2688293457031
0, 1, 49, 185.9379425048828
0, 1, 50, 177.7412567138672
0, 1, 51, 190.8002777099609
0, 1, 52, 195.5631866455078
0, 1, 53, 197.0862884521484
0, 1, 54, 184.9517822265625
0, 1, 55, 164.3762817382812
0, 1, 56, 178.748779296875
0, 1, 57, 177.9162139892578
0, 1, 58, 188.7240600585938
0, 1, 59, 195.6333160400391
0, 1, 60, 188.0034942626953
0, 1, 61, 178.4110260009766
0, 1, 62, 205.59326171875
0, 1, 63, 175.3527984619141
0, 1, 64, 172.9827423095703
0, 1, 65, 184.6332550048828
0, 1, 66, 203.4256286621094
0, 1, 67, 182.6731414794922
0, 1, 68, 186.6178741455078
0, 1, 69, 189.1967468261719
0, 1, 70, 185.7754974365234
0, 1, 71, 172.6578826904297
0, 1, 72, 189.2110595703125
0, 1, 73, 189.8683471679688
0, 1, 74, 201.4309539794922
0, 1, 75, 187.7730560302734
0, 1, 76, 173.4455871582031
0, 1, 77, 191.7273559570312
0, 1, 78, 189.5451354980469
0, 1, 79, 203.1121520996094
0, 1, 80, 187.0469665527344
0, 1, 81, 174.9968872070312
0, 1, 82, 207.4675445556641
0, 1, 83, 212.7133026123047
0, 1, 84, 180.9025268554688
0, 1, 85, 168.9792938232422
0, 1, 86, 167.5892028808594
0, 1, 87, 185.0713195800781
0, 1, 88, 174.6371154785156
0, 1, 89, 187.0684661865234
0, 1, 90, 212.2593536376953
0, 1, 91, 181.0600891113281
0, 1, 92, 186.4175872802734
0, 1, 93, 181.8425903320312
0, 1, 94, 185.0880584716797
0, 1, 95, 183.558349609375
0, 1, 96, 199.4556427001953
0, 1, 97, 182.7885284423828
0, 1, 98, 186.6988372802734
0, 1, 99, 175.3053894042969
0, 1, 100, 171.487548828125
0, 1, 101, 177.7866821289062
0, 1, 102, 181.3082275390625
0, 1, 103, 172.8572845458984
0, 1, 104, 189.8461151123047
0, 1, 105, 180.746337890625
0, 1, 106, 164.6467590332031
0, 1, 107, 123.1474456787109
0, 1, 108, 46.98393249511719
0, 1, 109, 9.388750076293945
0, 1, 110, 6.939966201782227
0, 1, 111, 5.974485874176025
0, 1, 112, 9.182394027709961
0, 1, 113, 7.613123893737793
0, 1, 114, 5.370109558105469
0, 1, 115, 3.450879812240601
0, 1, 116, 3.240156412124634
0, 1, 117, 1.924373626708984
0, 1, 118, 5.079879760742188
0, 1, 119, 1.437905788421631
0, 1, 120, 3.627424955368042
0, 1, 121, 4.228322982788086
0, 1, 122, 1.975068926811218
0, 1, 123, 1.914036989212036
0, 1, 124, 1.205310106277466
0, 1, 125, 2.550423145294189
0, 1, 126, 2.316838979721069
0, 1, 127, 1.843610644340515
0, 2, 0, 1.701461315155029
0, 2, 1, 2.0240159034729
0, 2, 2, 3.058454036712646
0, 2, 3, 1.420796275138855
0, 2, 4, 1.756064414978027
0, 2, 5, 0.7353902459144592
0, 2, 6, 2.352770090103149
0, 2, 7, 1.644981503486633
0, 2, 8, 1.201986908912659
0, 2, 9, 3.827713489532471
0, 2, 10, 3.889029026031494
0, 2, 11, 3.535631418228149
0, 2, 12, 3.155245304107666
0, 2, 13, 4.302233695983887
0, 2, 14, 4.106051921844482
0, 2, 15, 5.607037544250488
0, 2, 16, 4.520102977752686
0, 2, 17, 9.43370246887207
0, 2, 18, 13.70365524291992
0, 2, 19, 76.50218963623047
0, 2, 20, 162.194580078125
0, 2, 21, 185.2328186035156
0, 2, 22, 194.6501770019531
0, 2, 23, 184.1984405517578
0, 2, 24, 173.7209625244141
0, 2, 25, 184.4908905029297
0, 2, 26, 180.7722015380859
0, 2, 27, 189.2963256835938
0, 2, 28, 171.822021484375
0, 2, 29, 170.2048645019531
0, 2, 30, 184.1317443847656
0, 2, 31, 183.3557586669922
0, 2, 32, 183.4208068847656
0, 2, 33, 191.3097076416016
0, 2, 34, 199.9764709472656
0, 2, 35, 183.6799926757812
0, 2, 36, 186.5231323242188
0, 2, 37, 182.0291595458984
0, 2, 38, 184.6888580322266
0, 2, 39, 167.5701446533203
0, 2, 40, 183.7069396972656
0, 2, 41, 184.4604187011719
0, 2, 42, 189.5990600585938
0, 2, 43, 193.2820434570312
0, 2, 44, 191.1787414550781
0, 2, 45, 189.1711883544922
0, 2, 46, 195.9006500244141
0, 2, 47, 189.4445190429688
0, 2, 48, 177.4064331054688
0, 2, 49, 197.2194061279297
0, 2, 50, 167.6863403320312
0, 2, 51, 183.9962463378906
0, 2, 52, 188.0026702880859
0, 2, 53, 194.7613525390625
0, 2, 54, 177.7925872802734
0, 2, 55, 173.2269134521484
0, 2, 56, 181.4526214599609
0, 2, 57, 200.0889739990234
0, 2, 58, 187.2331085205078
0, 2, 59, 190.1163177490234
0, 2, 60, 196.3085327148438
0, 2, 61, 194.6682434082031
0, 2, 62, 190.633056640625
0, 2, 63, 169.5226898193359
0, 2, 64, 188.7816314697266
0, 2, 65, 202.3561401367188
0, 2, 66, 195.7102661132812
0, 2, 67, 184.619140625
0, 2, 68, 182.3785858154297
0, 2, 69, 186.8556671142578
0, 2, 70, 203.7070465087891
0, 2, 71, 174.8477478027344
0, 2, 72, 185.9862823486328
0, 2, 73, 177.5456085205078
0, 2, 74, 180.2577056884766
0, 2, 75, 196.7073974609375
0, 2, 76, 183.9379425048828
0, 2, 77, 178.2353363037109
0, 2, 78, 197.3904724121094
0, 2, 79, 178.6080627441406
0, 2, 80, 186.8023681640625
0, 2, 81, 188.1250915527344
0, 2, 82, 205.4629364013672
0, 2, 83, 203.4086608886719
0, 2, 84, 188.7540740966797
0, 2, 85, 172.1782989501953
0, 2, 86, 194.7762298583984
0, 2, 87, 172.6171569824219
0, 2, 88, 177.8545379638672
0, 2, 89, 186.0223999023438
0, 2, 90, 177.3827667236328
0, 2, 91, 173.4256439208984
0, 2, 92, 197.9152679443359
0, 2, 93, 192.654541015625
0, 2, 94, 198.5185394287109
0, 2, 95, 193.7024536132812
0, 2, 96, 185.9039001464844
0, 2, 97, 173.1128082275391
0, 2, 98, 173.722900390625
0, 2, 99, 162.4268798828125
0, 2, 100, 187.2786712646484
0, 2, 101, 196.0941009521484
0, 2, 102, 177.2637176513672
0, 2, 103, 199.4230499267578
0, 2, 104, 187.5296173095703
0, 2, 105, 199.7107391357422
0, 2, 106, 194.1489105224609
0, 2, 107, 150.7464752197266
0, 2, 108, 78.9632568359375
0, 2, 109, 17.49675941467285
0, 2, 110, 7.89011287689209
0, 2, 111, 5.953278064727783
0, 2, 112, 3.82945990562439
0, 2, 113, 4.425531387329102
0, 2, 114, 6.874207496643066
0, 2, 115, 3.453977823257446
0, 2, 116, 2.126089096069336
0, 2, 117, 3.611513137817383
0, 2, 118, 1.781866669654846
0, 2, 119, 2.320927619934082
0, 2, 120, 1.000458121299744
0, 2, 121, 4.631359577178955
0, 2, 122, 2.300764799118042
0, 2, 123, 1.868315935134888
0, 2, 124, 2.64108943939209
0, 2, 125, 2.163759231567383
0, 2, 126, 2.491706132888794
0, 2, 127, 0.7940229773521423
0, 3, 0, 1.679323673248291
0, 3, 1, 1.655105352401733
0, 3, 2, 1.262267231941223
0, 3, 3, 1.259127616882324
0, 3, 4, 5.428436279296875
0, 3, 5, 2.30703592300415
0, 3, 6, 0.9763868451118469
0, 3, 7, 1.792366981506348
0, 3, 8, 1.80108904838562
0, 3, 9, 2.825646638870239
0, 3, 10, 3.762203693389893
0, 3, 11, 4.098447322845459
0, 3, 12, 3.232680559158325
0, 3, 13, 3.608879327774048
0, 3, 14, 4.341085433959961
0, 3, 15, 5.96364688873291
0, 3, 16, 7.059863090515137
0, 3, 17, 6.609219074249268
0, 3, 18, 34.56213760375977
0, 3, 19, 114.6567764282227
0, 3, 20, 179.8621063232422
0, 3, 21, 173.4606781005859
0, 3, 22, 177.6141204833984
0, 3, 23, 187.5997619628906
0, 3, 24, 178.2784729003906
0, 3, 25, 168.4786682128906
0, 3, 26, 181.0832061767578
0, 3, 27, 191.5548858642578
0, 3, 28, 181.6573638916016
0, 3, 29, 197.017578125
0, 3, 30, 185.6607360839844
0, 3, 31, 193.5569763183594
0, 3, 32, 206.3401184082031
0, 3, 33, 194.7653961181641
0, 3, 34, 187.2805328369141
0, 3, 35, 173.3687438964844
0, 3, 36, 186.2239685058594
0, 3, 37, 201.5370330810547
0, 3, 38, 191.0947875976562
0, 3, 39, 185.3006744384766
0, 3, 40, 166.6081848144531
0, 3, 41, 175.4276885986328
0, 3, 42, 185.1559600830078
0, 3, 43, 181.7360687255859
0, 3, 44, 203.0342559814453
0, 3, 45, 208.3042144775391
0, 3, 46, 198.3458099365234
0, 3, 47, 194.4206237792969
0, 3, 48, 195.4078674316406
0, 3, 49, 182.1238555908203
0, 3, 50, 188.2668914794922
0, 3, 51, 175.0584106445312
0, 3, 52, 187.6489562988281
0, 3, 53, 177.4938507080078
0, 3, 54, 179.9925384521484
0, 3, 55, 177.688232421875
0, 3, 56, 183.0410003662109
0, 3, 57, 176.3854370117188
0, 3, 58, 201.6272735595703
0, 3, 59, 196.1548004150391
0, 3, 60, 186.2424011230469
0, 3, 61, 182.6116180419922
0, 3, 62, 182.0315093994141
0, 3, 63, 184.2220153808594
0, 3, 64, 190.1484527587891
0, 3, 65, 188.4811706542969
0, 3, 66, 175.8849487304688
0, 3, 67, 189.8077392578125
0, 3, 68, 212.4403533935547
0, 3, 69, 190.0501708984375
0, 3, 70, 185.8555145263672
0, 3, 71, 197.3867950439453
0, 3, 72, 185.5080718994141
0, 3, 73, 186.7585601806641
0, 3, 74, 194.0210723876953
0, 3, 75, 192.70654296875
0, 3, 76, 190.5580902099609
0, 3, 77, 198.0695953369141
0, 3, 78, 188.3014068603516
0, 3, 79, 186.7667541503906
0, 3, 80, 189.1830902099609
0, 3, 81, 185.5840454101562
0, 3, 82, 181.3466949462891
0, 3, 83, 195.0826568603516
0, 3, 84, 200.4949188232422
0, 3, 85, 193.3136749267578
0, 3, 86, 204.0453033447266
0, 3, 87, 201.3847351074219
0, 3, 88, 191.0307769775391
0, 3, 89, 193.4568634033203
0, 3, 90, 174.09716796875
0, 3, 91, 158.1043090820312
0, 3, 92, 206.4946899414062
0, 3, 93, 196.0850830078125
0, 3, 94, 192.1161804199219
0, 3, 95, 211.7763671875
0, 3, 96, 208.3245239257812
0, 3, 97, 169.0144500732422
0, 3, 98, 167.7274322509766
0, 3, 99, 181.0484771728516
0, 3, 100, 176.1025695800781
0, 3, 101, 197.1596221923828
0, 3, 102, 194.2940063476562
0, 3, 103, 193.7319641113281
0, 3, 104, 203.3474426269531
0, 3, 105, 175.5322723388672
0, 3, 106, 181.9707794189453
0, 3, 107, 169.6940307617188
0, 3, 108, 107.5950241088867
0, 3, 109, 27.46338844299316
0, 3, 110, 8.184678077697754
0, 3, 111, 6.336730003356934
0, 3, 112, 3.153628587722778
0, 3, 113, 7.294132232666016
0, 3, 114, 6.301679134368896
0, 3, 115, 4.935707092285156
0, 3, 116, 6.413134098052979
0, 3, 117, 3.074010372161865
0, 3, 118, 4.007680892944336
0, 3, 119, 2.630097389221191
0, 3, 120, 3.436183929443359
0, 3, 121, 3.138663291931152
0, 3, 122, 4.495381355285645
0, 3, 123, 2.117142200469971
0, 3, 124, 1.812384486198425
0, 3, 125, 1.780278444290161
0, 3, 126, 1.15246593952179
0, 3, 127, 0.9162505865097046
0, 4, 0, 1.94226861000061
0, 4, 1, 0.4881632030010223
0, 4, 2, 2.284006357192993
0, 4, 3, 3.600755453109741
0, 4, 4, 1.387503266334534
0, 4, 5, 2.331610441207886
0, 4, 6, 3.581531763076782
0, 4, 7, 2.663458108901978
0, 4, 8, 1.561180114746094
0, 4, 9, 2.887482166290283
0, 4, 10, 4.326218605041504
0, 4, 11, 3.887142896652222
0, 4, 12, 3.538325548171997
0, 4, 13, 3.822912454605103
0, 4, 14, 3.847187757492065
0, 4, 15, 9.269914627075195
0, 4, 16, 7.235850811004639
0, 4, 17, 11.88360118865967
0, 4, 18, 53.7880859375
0, 4, 19, 152.1729583740234
0, 4, 20, 193.8029174804688
0, 4, 21, 170.0036926269531
0, 4, 22, 187.7964324951172
0, 4, 23, 196.1253814697266
0, 4, 24, 192.150390625
0, 4, 25, 199.5147705078125
0, 4, 26, 184.1853485107422
0, 4, 27, 190.8078765869141
0, 4, 28, 177.4365081787109
0, 4, 29, 206.1842803955078
0, 4, 30, 195.7245788574219
0, 4, 31, 194.7843780517578
0, 4, 32, 210.9269714355469
0, 4, 33, 189.9325714111328
0, 4, 34, 192.1798553466797
0, 4, 35, 212.32470703125
0, 4, 36, 192.6126708984375
0, 4, 37, 178.7987060546875
0, 4, 38, 196.0011291503906
0, 4, 39, 189.9231567382812
0, 4, 40, 185.4979858398438
0, 4, 41, 189.3557891845703
0, 4, 42, 206.4692535400391
0, 4, 43, 174.4891662597656
0, 4, 44, 183.1574249267578
0, 4, 45, 197.3514556884766
0, 4, 46, 185.6062469482422
0, 4, 47, 180.3587951660156
0, 4, 48, 185.7528381347656
0, 4, 49, 174.1769256591797
0, 4, 50, 187.4839477539062
0, 4, 51, 197.6579437255859
0, 4, 52, 223.0391540527344
0, 4, 53, 206.4081268310547
0, 4, 54, 189.0446014404297
0, 4, 55, 174.8556823730469
0, 4, 56, 190.4562072753906
0, 4, 57, 192.3767547607422
0, 4, 58, 187.15185546875
0, 4, 59, 190.1942596435547
0, 4, 60, 196.7413482666016
0, 4, 61, 193.1262664794922
0, 4, 62, 189.9877624511719
0, 4, 63, 178.9004058837891
0, 4, 64, 213.1175689697266
0, 4, 65, 191.0760650634766
0, 4, 66, 201.5517120361328
0, 4, 67, 201.0996246337891
0, 4, 68, 202.41064453125
0, 4, 69, 200.7434692382812
0, 4, 70, 204.1550750732422
0, 4, 71, 206.6896362304688
0, 4, 72, 215.5184020996094
0, 4, 73, 185.5624084472656
0, 4, 74, 181.6649475097656
0, 4, 75, 185.7224273681641
0, 4, 76, 189.8934326171875
0, 4, 77, 183.0874176025391
0, 4, 78, 195.4149017333984
0, 4, 79, 204.8077239990234
0, 4, 80, 210.8610382080078
0, 4, 81, 197.3828582763672
0, 4, 82, 180.8276672363281
0, 4, 83, 170.0391387939453
0, 4, 84, 192.6580810546875
0, 4, 85, 197.051025390625
0, 4, 86, 183.8236999511719
0, 4, 87, 186.2862701416016
0, 4, 88, 204.3965911865234
0, 4, 89, 187.1570129394531
0, 4, 90, 211.1252288818359
0, 4, 91, 189.2622375488281
0, 4, 92, 195.6582641601562
0, 4, 93, 195.039794921875
0, 4, 94, 181.9999389648438
0, 4, 95, 173.113037109375
0, 4, 96, 189.4306640625
0, 4, 97, 193.4208068847656
0, 4, 98, 200.4826812744141
0, 4, 99, 184.0065612792969
0, 4, 100, 181.8554077148438
0, 4, 101, 176.6371459960938
0, 4, 102, 171.9854583740234
0, 4, 103, 185.0103759765625
0, 4, 104, 209.2870635986328
0, 4, 105, 191.0449676513672
0, 4, 106, 179.3248291015625
0, 4, 107, 181.4609680175781
0, 4, 108, 151.5785827636719
0, 4, 109, 50.46647262573242
0, 4, 110, 10.55863189697266
0, 4, 111, 9.217100143432617
0, 4, 112, 5.433149337768555
0, 4, 113, 9.64256477355957
0, 4, 114, 5.343357086181641
0, 4, 115, 3.90053653717041
0, 4, 116, 4.739833831787109
0, 4, 117, 2.028391599655151
0, 4, 118, 3.575085878372192
0, 4, 119, 4.065191268920898
0, 4, 120, 2.303723573684692
0, 4, 121, 2.880013465881348
0, 4, 122, 4.112388134002686
0, 4, 123, 1.54219913482666
0, 4, 124, 3.389874696731567
0, 4, 125, 5.226100444793701
0, 4, 126, 3.245290756225586
0, 4, 127, 2.464040040969849
0, 5, 0, 1.047713160514832
0, 5, 1, 2.469547510147095
0, 5, 2, 5.642210483551025
0, 5, 3, 4.046347141265869
0, 5, 4, 3.557102680206299
0, 5, 5, 2.746763706207275
0, 5, 6, 1.982383370399475
0, 5, 7, 2.849274873733521
0, 5, 8, 3.845870971679688
0, 5, 9, 2.330727100372314
0, 5, 10, 2.913636445999146
0, 5, 11, 2.100979566574097
0, 5, 12, 4.325841426849365
0, 5, 13, 3.299862384796143
0, 5, 14, 7.041886329650879
0, 5, 15, 7.998011589050293
0, 5, 16, 7.093706130981445
0, 5, 17, 20.99969291687012
0, 5, 18, 84.12734985351562
0, 5, 19, 165.3705139160156
0, 5, 20, 182.2089538574219
0, 5, 21, 178.0213317871094
0, 5, 22, 170.4951477050781
0, 5, 23, 200.9586639404297
0, 5, 24, 187.9132080078125
0, 5, 25, 207.6510009765625
0, 5, 26, 181.5863037109375
0, 5, 27, 194.2770843505859
0, 5, 28, 189.7692413330078
0, 5, 29, 196.4490509033203
0, 5, 30, 178.4810791015625
0, 5, 31, 179.8545379638672
0, 5, 32, 187.7782745361328
0, 5, 33, 169.9611511230469
0, 5, 34, 194.6177062988281
0, 5, 35, 197.3809967041016
0, 5, 36, 167.5565185546875
0, 5, 37, 196.8927917480469
0, 5, 38, 180.0307006835938
0, 5, 39, 187.3470458984375
0, 5, 40, 196.31982421875
0, 5, 41, 176.7643890380859
0, 5, 42, 187.3296661376953
0, 5, 43, 191.6974487304688
0, 5, 44, 200.1057891845703
0, 5, 45, 185.7543487548828
0, 5, 46, 192.7671203613281
0, 5, 47, 181.2810363769531
0, 5, 48, 177.5997161865234
0, 5, 49, 177.4293518066406
0, 5, 50, 185.9503936767578
0, 5, 51, 172.309814453125
0, 5, 52, 167.8500823974609
0, 5, 53, 181.0297088623047
0, 5, 54, 172.9013824462891
0, 5, 55, 215.9939727783203
0, 5, 56, 182.0868072509766
0, 5, 57, 206.9490509033203
0, 5, 58, 181.9215240478516
0, 5, 59, 181.6402740478516
0, 5, 60, 217.7931060791016
0, 5, 61, 185.2213287353516
0, 5, 62, 178.4886169433594
0, 5, 63, 180.0535430908203
0, 5, 64, 198.0517272949219
0, 5, 65, 210.2711181640625
0, 5, 66, 192.8787078857422
0, 5, 67, 200.1329498291016
0, 5, 68, 186.8003234863281
0, 5, 69, 185.1922760009766
0, 5, 70, 184.9484252929688
0, 5, 71, 192.7525787353516
0, 5, 72, 198.0137786865234
0, 5, 73, 201.3207550048828
0, 5, 74, 180.08251953125
0, 5, 75, 203.3810272216797
0, 5, 76, 214.0186157226562
0, 5, 77, 180.2960662841797
0, 5, 78, 194.1022491455078
0, 5, 79, 190.5421905517578
0, 5, 80, 198.3873291015625
0, 5, 81, 202.8850860595703
0, 5, 82, 203.8607635498047
0, 5, 83, 188.6496124267578
0, 5, 84, 205.3582000732422
0, 5, 85, 175.9933776855469
0, 5, 86, 194.5189971923828
0, 5, 87, 188.2650604248047
0, 5, 88, 176.4797210693359
0, 5, 89, 193.8655395507812
0, 5, 90, 198.7879333496094
0, 5, 91, 193.9394226074219
0, 5, 92, 191.0644226074219
0, 5, 93, 189.1741790771484
0, 5, 94, 207.9522094726562
0, 5, 95, 176.7992401123047
0, 5, 96, 183.0110168457031
0, 5, 97, 190.8814392089844
0, 5, 98, 190.1037750244141
0, 5, 99, 194.4268341064453
0, 5, 100, 186.3739166259766
0, 5, 101, 196.5439758300781
0, 5, 102, 182.6943817138672
0, 5, 103, 176.5234069824219
0, 5, 104, 190.1428833007812
0, 5, 105, 189.1402740478516
0, 5, 106, 177.5577239990234
0, 5, 107, 182.1320037841797
0, 5, 108, 177.8086242675781
0, 5, 109, 90.62667846679688
0, 5, 110, 31.08569526672363
0, 5, 111, 8.832152366638184
0, 5, 112, 6.223721504211426
0, 5, 113, 6.158243656158447
0, 5, 114, 5.281501293182373
0, 5, 115, 5.323549747467041
0, 5, 116, 3.665473461151123
0, 5, 117, 3.276795625686646
0, 5, 118, 3.253893375396729
0, 5, 119, 3.20108437538147
0, 5, 120, 1.851261496543884
0, 5, 121, 1.526079416275024
0, 5, 122, 2.969530582427979
0, 5, 123, 3.689023971557617
0, 5, 124, 2.811609983444214
0, 5, 125, 1.942391276359558
0, 5, 126, 1.853015899658203
0, 5, 127, 5.079759120941162
0, 6, 0, 4.384230136871338
0, 6, 1, 2.858169078826904
0, 6, 2, 4.206230640411377
0, 6, 3, 0.9899083971977234
0, 6, 4, 3.092447280883789
0, 6, 5, 2.275745868682861
0, 6, 6, 2.793033123016357
0, 6, 7, 3.773796796798706
0, 6, 8, 3.858109712600708
0, 6, 9, 2.905461311340332
0, 6, 10, 4.164170265197754
0, 6, 11, 3.509867429733276
0, 6, 12, 6.159996032714844
0, 6, 13, 5.13658618927002
0, 6, 14, 4.465298175811768
0, 6, 15, 6.39420747756958
0, 6, 16, 14.00766372680664
0, 6, 17, 29.10519790649414
0, 6, 18, 112.2121734619141
0, 6, 19, 193.2795715332031
0, 6, 20, 195.6562347412109
0, 6, 21, 197.9518127441406
0, 6, 22, 191.2223205566406
0, 6, 23, 190.246826171875
0, 6, 24, 202.1281127929688
0, 6, 25, 182.0485992431641
0, 6, 26, 187.8250579833984
0, 6, 27, 192.0574951171875
0, 6, 28, 189.4017791748047
0, 6, 29, 210.92041015625
0, 6, 30, 189.2660369873047
0, 6, 31, 192.8505554199219
0, 6, 32, 205.3475036621094
0, 6, 33, 183.9315338134766
0, 6, 34, 197.6112976074219
0, 6, 35, 190.3041687011719
0, 6, 36, 181.4385681152344
0, 6, 37, 183.1215972900391
0, 6, 38, 185.3103179931641
0, 6, 39, 193.5643310546875
0, 6, 40, 173.7527313232422
0, 6, 41, 185.0410003662109
0, 6, 42, 173.7143249511719
0, 6, 43, 210.2711944580078
0, 6, 44, 209.4032287597656
0, 6, 45, 193.7556457519531
0, 6, 46, 187.4618988037109
0, 6, 47, 204.8829040527344
0, 6, 48, 190.0367889404297
0, 6, 49, 180.3045349121094
0, 6, 50, 182.0005340576172
0, 6, 51, 197.0515747070312
0, 6, 52, 198.1544799804688
0, 6, 53, 186.1584930419922
0, 6, 54, 175.1738586425781
0, 6, 55, 196.4158630371094
0, 6, 56, 202.3163452148438
0, 6, 57, 190.7843627929688
0, 6, 58, 179.3445587158203
0, 6, 59, 191.8621368408203
0, 6, 60, 183.9991149902344
0, 6, 61, 193.9060974121094
0, 6, 62, 196.102294921875
0, 6, 63, 186.0736236572266
0, 6, 64, 168.9849090576172
0, 6, 65, 186.0524291992188
0, 6, 66, 197.8432312011719
0, 6, 67, 214.0765380859375
0, 6, 68, 179.4793853759766
0, 6, 69, 171.6306915283203
0, 6, 70, 187.0376129150391
0, 6, 71, 170.3071441650391
0, 6, 72, 176.8156280517578
0, 6, 73, 177.8490905761719
0, 6, 74, 209.9213104248047
0, 6, 75, 229.7174835205078
0, 6, 76, 184.4842834472656
0, 6, 77, 173.1047515869141
0, 6, 78, 175.3608245849609
0, 6, 79, 186.9861145019531
0, 6, 80, 187.2737121582031
0, 6, 81, 208.8390350341797
0, 6, 82, 196.3759765625
0, 6, 83, 194.1985778808594
0, 6, 84, 196.9653015136719
0, 6, 85, 181.01513671875
0, 6, 86, 200.8851013183594
0, 6, 87, 183.6665802001953
0, 6, 88, 192.4060516357422
0, 6, 89, 189.6481323242188
0, 6, 90, 206.8011474609375
0, 6, 91, 199.8222808837891
0, 6, 92, 174.0276184082031
0, 6, 93, 193.7952575683594
0, 6, 94, 188.9094696044922
0, 6, 95, 185.3849029541016
0, 6, 96, 188.0772857666016
0, 6, 97, 197.0942535400391
0, 6, 98, 183.6228637695312
0, 6, 99, 175.859130859375
0, 6, 100, 201.9507751464844
0, 6, 101, 167.048095703125
0, 6, 102, 201.6239624023438
0, 6, 103, 196.4318695068359
0, 6, 104, 183.5559539794922
0, 6, 105, 193.4324645996094
0, 6, 106, 176.6975860595703
0, 6, 107, 194.2651824951172
0, 6, 108, 170.6310119628906
0, 6, 109, 114.6576461791992
0, 6, 110, 35.14118194580078
0, 6, 111, 9.255343437194824
0, 6, 112, 8.894901275634766
0, 6, 113, 5.77360200881958
0, 6, 114, 4.948744773864746
0, 6, 115, 5.856311798095703
0, 6, 116, 3.754187822341919
0, 6, 117, 3.156647682189941
0, 6, 118, 2.999805927276611
0, 6, 119, 4.010477066040039
0, 6, 120, 1.442444205284119
0, 6, 121, 4.328942775726318
0, 6, 122, 4.157696723937988
0, 6, 123, 3.202668905258179
0, 6, 124, 2.010757446289062
0, 6, 125, 2.824930906295776
0, 6, 126, 4.0321044921875
0, 6, 127, 5.254571914672852
0, 7, 0, 4.286444664001465
0, 7, 1, 1.621710300445557
0, 7, 2, 1.903850674629211
0, 7, 3, 1.821804165840149
0, 7, 4, 2.416659355163574
0, 7, 5, 1.721030592918396
0, 7, 6, 1.240472078323364
0, 7, 7, 1.151138186454773
0, 7, 8, 5.60686731338501
0, 7, 9, 5.578073978424072
0, 7, 10, 5.081880569458008
0, 7, 11, 3.026751041412354
0, 7, 12, 3.515831470489502
0, 7, 13, 6.715582847595215
0, 7, 14, 6.725292682647705
0, 7, 15, 6.896992206573486
0, 7, 16, 15.87059116363525
0, 7, 17, 51.85773086547852
0, 7, 18, 161.8444519042969
0, 7, 19, 184.2170867919922
0, 7, 20, 178.4655456542969
0, 7, 21, 179.8769378662109
0, 7, 22, 190.3439636230469
0, 7, 23, 203.0000305175781
0, 7, 24, 179.3168029785156
0, 7, 25, 213.707763671875
0, 7, 26, 189.4299163818359
0, 7, 27, 181.8863525390625
0, 7, 28, 182.8256072998047
0, 7, 29, 209.9513549804688
0, 7, 30, 194.4140777587891
0, 7, 31, 176.0184936523438
0, 7, 32, 190.0677642822266
0, 7, 33, 179.4514770507812
0, 7, 34, 193.4489288330078
0, 7, 35, 197.0458221435547
0, 7, 36, 186.1788482666016
0, 7, 37, 213.2603149414062
0, 7, 38, 190.2504730224609
0, 7, 39, 173.6638488769531
0, 7, 40, 182.7925720214844
0, 7, 41, 185.1217193603516
0, 7, 42, 177.8515625
0, 7, 43, 178.4492034912109
0, 7, 44, 178.9949951171875
0, 7, 45, 173.8117523193359
0, 7, 46, 189.6970062255859
0, 7, 47, 199.0419006347656
0, 7, 48, 185.4620971679688
0, 7, 49, 197.9976806640625
0, 7, 50, 188.0540161132812
0, 7, 51, 205.1909027099609
0, 7, 52, 204.3309631347656
0, 7, 53, 193.3864135742188
0, 7, 54, 196.6706085205078
0, 7, 55, 204.1820220947266
0, 7, 56, 183.0687561035156
0, 7, 57, 183.5613403320312
0, 7, 58, 191.2057952880859
0, 7, 59, 186.6507263183594
0, 7, 60, 203.1336212158203
0, 7, 61, 170.2803649902344
0, 7, 62, 203.5248260498047
0, 7, 63, 188.8162078857422
0, 7, 64, 198.9985046386719
0, 7, 65, 197.1037750244141
0, 7, 66, 206.2984771728516
0, 7, 67, 220.2073822021484
0, 7, 68, 162.885009765625
0, 7, 69, 195.6653289794922
0, 7, 70, 218.5685882568359
0, 7, 71, 185.3534088134766
0, 7, 72, 180.8334045410156
0, 7, 73, 176.2390441894531
0, 7, 74, 207.8116149902344
0, 7, 75, 203.8744201660156
0, 7, 76, 214.3978576660156
0, 7, 77, 175.4238891601562
0, 7, 78, 177.6079254150391
0, 7, 79, 193.5839233398438
0, 7, 80, 195.2200927734375
0, 7, 81, 215.4559936523438
0, 7, 82, 185.5433502197266
0, 7, 83, 205.5194854736328
0, 7, 84, 191.5722198486328
0, 7, 85, 185.2957916259766
0, 7, 86, 200.4101715087891
0, 7, 87, 227.3109130859375
0, 7, 88, 194.9442291259766
0, 7, 89, 177.0795593261719
0, 7, 90, 182.3819427490234
0, 7, 91, 194.6126403808594
0, 7, 92, 193.4874725341797
0, 7, 93, 198.2651214599609
0, 7, 94, 176.9122314453125
0, 7, 95, 198.9116516113281
0, 7, 96, 209.6542510986328
0, 7, 97, 188.5944519042969
0, 7, 98, 177.1239929199219
0, 7, 99, 197.1928253173828
0, 7, 100, 182.9054870605469
0, 7, 101, 199.6979217529297
0, 7, 102, 185.7497100830078
0, 7, 103, 183.3069763183594
0, 7, 104, 174.8368988037109
0, 7, 105, 195.1439056396484
0, 7, 106, 206.1201477050781
0, 7, 107, 175.5114135742188
0, 7, 108, 176.4669647216797
0, 7, 109, 137.939208984375
0, 7, 110, 54.22028350830078
0, 7, 111, 8.863015174865723
0, 7, 112, 7.669150829315186
0, 7, 113, 8.972345352172852
0, 7, 114, 6.926566123962402
0, 7, 115, 4.8320631980896
0, 7, 116, 3.588413238525391
0, 7, 117, 2.367875337600708
0, 7, 118, 3.677060604095459
0, 7, 119, 2.200095415115356
0, 7, 120, 4.998459339141846
0, 7, 121, 5.754778861999512
0, 7, 122, 1.665238618850708
0, 7, 123, 1.224023818969727
0, 7, 124, 2.012405633926392
0, 7, 125, 1.405188798904419
0, 7, 126, 2.20973801612854
0, 7, 127, 0.9550920128822327
0, 8, 0, 3.902312517166138
0, 8, 1, 2.157605171203613
0, 8, 2, 3.170421123504639
0, 8, 3, 2.646559000015259
0, 8, 4, 2.649682760238647
0, 8, 5, 4.345923900604248
0, 8, 6, 1.974331259727478
0, 8, 7, 5.202315807342529
0, 8, 8, 2.558073043823242
0, 8, 9, 3.476932048797607
0, 8, 10, 2.751388788223267
0, 8, 11, 2.205599546432495
0, 8, 12, 3.711648941040039
0, 8, 13, 4.98591423034668
0, 8, 14, 7.24694299697876
0, 8, 15, 8.567252159118652
0, 8, 16, 21.4588451385498
0, 8, 17, 74.90011596679688
0, 8, 18, 142.0060272216797
0, 8, 19, 178.1075897216797
0, 8, 20, 194.1732330322266
0, 8, 21, 191.8783264160156
0, 8, 22, 179.452392578125
0, 8, 23, 172.0130310058594
0, 8, 24, 191.9350891113281
0, 8, 25, 186.6917419433594
0, 8, 26, 192.6343383789062
0, 8, 27, 186.1525726318359
0, 8, 28, 186.5967864990234
0, 8, 29, 207.5130310058594
0, 8, 30, 195.9556732177734
0, 8, 31, 181.8618469238281
0, 8, 32, 197.7376556396484
0, 8, 33, 206.7710571289062
0, 8, 34, 203.8633422851562
0, 8, 35, 185.3957061767578
0, 8, 36, 181.3991394042969
