# TOPAS Version: 3.1.p3
# Parameter File: batch_inserts_262.txt
# Results for scorer Readout_Adipose
# Scored in component: MyBox
# X in 1 bin  of 0.65 cm
# Y in 512 bins of 0.0783984 cm
# Z in 128 bins of 0.078125 cm
# EnergyDeposit ( MeV ) : Sum   
0, 0, 0, 1.454175353050232
0, 0, 1, 3.469540596008301
0, 0, 2, 1.228852510452271
0, 0, 3, 0.790666937828064
0, 0, 4, 1.069677829742432
0, 0, 5, 0.7547344565391541
0, 0, 6, 2.099997997283936
0, 0, 7, 1.42439866065979
0, 0, 8, 1.346981644630432
0, 0, 9, 2.799700736999512
0, 0, 10, 1.679843664169312
0, 0, 11, 2.794283628463745
0, 0, 12, 4.795509815216064
0, 0, 13, 1.93448543548584
0, 0, 14, 5.052676200866699
0, 0, 15, 5.218058109283447
0, 0, 16, 5.224924087524414
0, 0, 17, 7.527971744537354
0, 0, 18, 6.152060508728027
0, 0, 19, 22.7982349395752
0, 0, 20, 94.24851226806641
0, 0, 21, 152.7910461425781
0, 0, 22, 155.0182037353516
0, 0, 23, 144.0146942138672
0, 0, 24, 159.7816314697266
0, 0, 25, 166.1623229980469
0, 0, 26, 166.4015197753906
0, 0, 27, 174.9901580810547
0, 0, 28, 177.5850219726562
0, 0, 29, 174.5977325439453
0, 0, 30, 174.6502990722656
0, 0, 31, 166.5785827636719
0, 0, 32, 164.1645355224609
0, 0, 33, 168.3072662353516
0, 0, 34, 178.6812591552734
0, 0, 35, 176.2303924560547
0, 0, 36, 160.2532196044922
0, 0, 37, 161.0221252441406
0, 0, 38, 166.4850311279297
0, 0, 39, 158.9490509033203
0, 0, 40, 164.2575836181641
0, 0, 41, 166.3423919677734
0, 0, 42, 144.0132598876953
0, 0, 43, 168.6451110839844
0, 0, 44, 177.6473083496094
0, 0, 45, 173.8095245361328
0, 0, 46, 166.8944549560547
0, 0, 47, 167.3251953125
0, 0, 48, 169.2519683837891
0, 0, 49, 183.3194427490234
0, 0, 50, 168.7714233398438
0, 0, 51, 161.5321350097656
0, 0, 52, 163.2770233154297
0, 0, 53, 173.7413482666016
0, 0, 54, 159.5299377441406
0, 0, 55, 164.7628936767578
0, 0, 56, 189.3992309570312
0, 0, 57, 170.3996734619141
0, 0, 58, 161.5546569824219
0, 0, 59, 171.9706878662109
0, 0, 60, 168.7445068359375
0, 0, 61, 170.2667846679688
0, 0, 62, 183.2686004638672
0, 0, 63, 166.8401031494141
0, 0, 64, 163.9651489257812
0, 0, 65, 175.5165100097656
0, 0, 66, 177.8461761474609
0, 0, 67, 164.1947937011719
0, 0, 68, 159.6404266357422
0, 0, 69, 160.4845733642578
0, 0, 70, 169.9837951660156
0, 0, 71, 158.2505340576172
0, 0, 72, 164.0233917236328
0, 0, 73, 171.4357452392578
0, 0, 74, 163.2359161376953
0, 0, 75, 163.6163787841797
0, 0, 76, 163.2032928466797
0, 0, 77, 173.9811706542969
0, 0, 78, 183.5992584228516
0, 0, 79, 175.2462005615234
0, 0, 80, 160.4517364501953
0, 0, 81, 159.8097686767578
0, 0, 82, 182.2663116455078
0, 0, 83, 174.0272827148438
0, 0, 84, 160.2326812744141
0, 0, 85, 181.5508575439453
0, 0, 86, 158.4911041259766
0, 0, 87, 176.6473693847656
0, 0, 88, 176.3470306396484
0, 0, 89, 177.8875122070312
0, 0, 90, 161.281494140625
0, 0, 91, 184.9777984619141
0, 0, 92, 163.3779449462891
0, 0, 93, 155.3945159912109
0, 0, 94, 168.4404754638672
0, 0, 95, 173.7926788330078
0, 0, 96, 183.7041931152344
0, 0, 97, 184.2279510498047
0, 0, 98, 185.7802734375
0, 0, 99, 171.2936096191406
0, 0, 100, 159.4423522949219
0, 0, 101, 166.5007476806641
0, 0, 102, 170.3948364257812
0, 0, 103, 170.0783081054688
0, 0, 104, 168.5199127197266
0, 0, 105, 177.7601165771484
0, 0, 106, 159.3083801269531
0, 0, 107, 86.06987762451172
0, 0, 108, 21.76884841918945
0, 0, 109, 9.124859809875488
0, 0, 110, 5.858633518218994
0, 0, 111, 7.842946529388428
0, 0, 112, 3.867480278015137
0, 0, 113, 2.732242822647095
0, 0, 114, 3.187806844711304
0, 0, 115, 2.006461620330811
0, 0, 116, 1.987963676452637
0, 0, 117, 2.828947782516479
0, 0, 118, 2.026055812835693
0, 0, 119, 2.80805230140686
0, 0, 120, 1.406610727310181
0, 0, 121, 4.928633213043213
0, 0, 122, 4.752059459686279
0, 0, 123, 4.10269832611084
0, 0, 124, 1.738031148910522
0, 0, 125, 2.196748733520508
0, 0, 126, 0.8659467101097107
0, 0, 127, 2.126532316207886
0, 1, 0, 0.7617241740226746
0, 1, 1, 3.670354843139648
0, 1, 2, 3.643501758575439
0, 1, 3, 1.843390345573425
0, 1, 4, 1.028952836990356
0, 1, 5, 2.121141672134399
0, 1, 6, 1.669473767280579
0, 1, 7, 2.50159478187561
0, 1, 8, 2.75621771812439
0, 1, 9, 3.961395025253296
0, 1, 10, 3.992247343063354
0, 1, 11, 3.597211837768555
0, 1, 12, 4.276811599731445
0, 1, 13, 5.21241569519043
0, 1, 14, 5.909903049468994
0, 1, 15, 6.452910423278809
0, 1, 16, 6.433888912200928
0, 1, 17, 4.776566982269287
0, 1, 18, 11.4616870880127
0, 1, 19, 40.87346649169922
0, 1, 20, 126.1609497070312
0, 1, 21, 176.6400604248047
0, 1, 22, 192.7806091308594
0, 1, 23, 184.9690246582031
0, 1, 24, 180.6536254882812
0, 1, 25, 192.9925994873047
0, 1, 26, 198.3876800537109
0, 1, 27, 188.0442504882812
0, 1, 28, 188.7930297851562
0, 1, 29, 183.5807342529297
0, 1, 30, 179.6206817626953
0, 1, 31, 182.4733734130859
0, 1, 32, 188.7844696044922
0, 1, 33, 192.6576538085938
0, 1, 34, 183.7613525390625
0, 1, 35, 193.2817077636719
0, 1, 36, 204.9099578857422
0, 1, 37, 184.6772003173828
0, 1, 38, 164.3603363037109
0, 1, 39, 171.6102142333984
0, 1, 40, 179.6011810302734
0, 1, 41, 185.0175628662109
0, 1, 42, 183.4773559570312
0, 1, 43, 187.3902740478516
0, 1, 44, 169.0960235595703
0, 1, 45, 186.2959594726562
0, 1, 46, 170.4428863525391
0, 1, 47, 185.5237121582031
0, 1, 48, 186.4207916259766
0, 1, 49, 186.0393524169922
0, 1, 50, 178.0581512451172
0, 1, 51, 191.6652221679688
0, 1, 52, 194.6559600830078
0, 1, 53, 197.2176666259766
0, 1, 54, 185.9692840576172
0, 1, 55, 165.2537841796875
0, 1, 56, 179.2701721191406
0, 1, 57, 177.8599243164062
0, 1, 58, 189.0347290039062
0, 1, 59, 193.3069915771484
0, 1, 60, 188.4835968017578
0, 1, 61, 178.1404418945312
0, 1, 62, 204.1816101074219
0, 1, 63, 174.4915161132812
0, 1, 64, 172.334716796875
0, 1, 65, 185.0415191650391
0, 1, 66, 203.3951568603516
0, 1, 67, 182.8601531982422
0, 1, 68, 186.9112243652344
0, 1, 69, 188.9003601074219
0, 1, 70, 187.0353088378906
0, 1, 71, 171.4665069580078
0, 1, 72, 189.1720428466797
0, 1, 73, 190.0435485839844
0, 1, 74, 201.3240051269531
0, 1, 75, 183.5951995849609
0, 1, 76, 173.7377014160156
0, 1, 77, 192.3486175537109
0, 1, 78, 190.5321502685547
0, 1, 79, 202.2682495117188
0, 1, 80, 185.9401397705078
0, 1, 81, 178.1224365234375
0, 1, 82, 209.3718566894531
0, 1, 83, 211.7608489990234
0, 1, 84, 179.9731597900391
0, 1, 85, 169.6475982666016
0, 1, 86, 168.8536682128906
0, 1, 87, 183.7312164306641
0, 1, 88, 175.8193206787109
0, 1, 89, 186.3440246582031
0, 1, 90, 212.7636871337891
0, 1, 91, 180.6684112548828
0, 1, 92, 186.0079040527344
0, 1, 93, 182.4509887695312
0, 1, 94, 187.3916625976562
0, 1, 95, 183.2273254394531
0, 1, 96, 196.3923950195312
0, 1, 97, 182.5440521240234
0, 1, 98, 187.0962982177734
0, 1, 99, 175.1282043457031
0, 1, 100, 171.1779632568359
0, 1, 101, 177.39794921875
0, 1, 102, 182.3465118408203
0, 1, 103, 172.6682891845703
0, 1, 104, 189.4778594970703
0, 1, 105, 183.4316101074219
0, 1, 106, 164.5961303710938
0, 1, 107, 122.867317199707
0, 1, 108, 47.24672317504883
0, 1, 109, 9.378565788269043
0, 1, 110, 9.374714851379395
0, 1, 111, 6.378104686737061
0, 1, 112, 6.980685710906982
0, 1, 113, 7.087231636047363
0, 1, 114, 4.605201244354248
0, 1, 115, 4.780939102172852
0, 1, 116, 3.439931154251099
0, 1, 117, 2.105437517166138
0, 1, 118, 3.750405073165894
0, 1, 119, 1.975426316261292
0, 1, 120, 3.741833925247192
0, 1, 121, 3.66225004196167
0, 1, 122, 2.103131532669067
0, 1, 123, 3.624520540237427
0, 1, 124, 2.399335145950317
0, 1, 125, 2.095946073532104
0, 1, 126, 1.684464335441589
0, 1, 127, 2.268089294433594
0, 2, 0, 0.755250871181488
0, 2, 1, 1.726128816604614
0, 2, 2, 3.633506774902344
0, 2, 3, 0.8633393049240112
0, 2, 4, 2.877793788909912
0, 2, 5, 1.396358728408813
0, 2, 6, 2.270907163619995
0, 2, 7, 2.228634595870972
0, 2, 8, 1.295643210411072
0, 2, 9, 1.982276439666748
0, 2, 10, 4.281858444213867
0, 2, 11, 4.799338817596436
0, 2, 12, 3.383825302124023
0, 2, 13, 3.203762054443359
0, 2, 14, 5.585930824279785
0, 2, 15, 5.338943004608154
0, 2, 16, 5.878905296325684
0, 2, 17, 9.490298271179199
0, 2, 18, 15.759765625
0, 2, 19, 77.89045715332031
0, 2, 20, 163.7854919433594
0, 2, 21, 184.1926574707031
0, 2, 22, 193.8839874267578
0, 2, 23, 183.3735809326172
0, 2, 24, 173.6912384033203
0, 2, 25, 184.4073944091797
0, 2, 26, 178.6480560302734
0, 2, 27, 189.3592376708984
0, 2, 28, 170.9196624755859
0, 2, 29, 169.0282897949219
0, 2, 30, 186.0184936523438
0, 2, 31, 182.6560821533203
0, 2, 32, 185.1509704589844
0, 2, 33, 190.0110015869141
0, 2, 34, 197.9249877929688
0, 2, 35, 181.1854248046875
0, 2, 36, 188.3087310791016
0, 2, 37, 180.6607666015625
0, 2, 38, 183.9521484375
0, 2, 39, 167.1031494140625
0, 2, 40, 184.5742645263672
0, 2, 41, 184.6060638427734
0, 2, 42, 190.2975921630859
0, 2, 43, 194.5101776123047
0, 2, 44, 190.3527526855469
0, 2, 45, 190.5970916748047
0, 2, 46, 195.7454833984375
0, 2, 47, 189.7293395996094
0, 2, 48, 177.0601959228516
0, 2, 49, 197.2634429931641
0, 2, 50, 167.6212158203125
0, 2, 51, 185.8998260498047
0, 2, 52, 188.0163269042969
0, 2, 53, 197.0930786132812
0, 2, 54, 175.9771728515625
0, 2, 55, 172.9520263671875
0, 2, 56, 181.3359222412109
0, 2, 57, 199.8357543945312
0, 2, 58, 185.8397521972656
0, 2, 59, 190.0706939697266
0, 2, 60, 196.971435546875
0, 2, 61, 194.4444732666016
0, 2, 62, 191.0114440917969
0, 2, 63, 172.908447265625
0, 2, 64, 188.8586273193359
0, 2, 65, 202.2780914306641
0, 2, 66, 195.9654235839844
0, 2, 67, 184.8430023193359
0, 2, 68, 182.5062866210938
0, 2, 69, 186.7948303222656
0, 2, 70, 203.0593414306641
0, 2, 71, 175.8166198730469
0, 2, 72, 185.8419647216797
0, 2, 73, 177.7021484375
0, 2, 74, 180.6416473388672
0, 2, 75, 196.4232788085938
0, 2, 76, 183.406005859375
0, 2, 77, 177.0837249755859
0, 2, 78, 197.3855438232422
0, 2, 79, 179.2784576416016
0, 2, 80, 186.6146545410156
0, 2, 81, 187.6936187744141
0, 2, 82, 205.4284515380859
0, 2, 83, 203.4692840576172
0, 2, 84, 188.6974792480469
0, 2, 85, 171.7672882080078
0, 2, 86, 194.64892578125
0, 2, 87, 172.0464630126953
0, 2, 88, 179.8983154296875
0, 2, 89, 185.4376678466797
0, 2, 90, 177.5404205322266
0, 2, 91, 174.8014526367188
0, 2, 92, 196.1318664550781
0, 2, 93, 193.70751953125
0, 2, 94, 199.7586517333984
0, 2, 95, 194.2787628173828
0, 2, 96, 187.2918548583984
0, 2, 97, 171.5157470703125
0, 2, 98, 173.6478271484375
0, 2, 99, 162.4173889160156
0, 2, 100, 187.0413513183594
0, 2, 101, 196.4971160888672
0, 2, 102, 176.9541320800781
0, 2, 103, 199.4749755859375
0, 2, 104, 188.3488311767578
0, 2, 105, 202.3437194824219
0, 2, 106, 195.9695587158203
0, 2, 107, 150.8989410400391
0, 2, 108, 79.54388427734375
0, 2, 109, 18.70095252990723
0, 2, 110, 8.853025436401367
0, 2, 111, 5.750385761260986
0, 2, 112, 5.747643947601318
0, 2, 113, 4.164647579193115
0, 2, 114, 5.779356002807617
0, 2, 115, 5.522907733917236
0, 2, 116, 3.002008199691772
0, 2, 117, 1.65403151512146
0, 2, 118, 3.116557121276855
0, 2, 119, 3.501253843307495
0, 2, 120, 2.60162878036499
0, 2, 121, 3.803660869598389
0, 2, 122, 0.9605170488357544
0, 2, 123, 4.63463020324707
0, 2, 124, 2.383257389068604
0, 2, 125, 1.562469601631165
0, 2, 126, 3.286491632461548
0, 2, 127, 0.729421079158783
0, 3, 0, 1.964671850204468
0, 3, 1, 1.024544715881348
0, 3, 2, 3.066882610321045
0, 3, 3, 1.253258109092712
0, 3, 4, 5.80659008026123
0, 3, 5, 0.9856460690498352
0, 3, 6, 1.947799324989319
0, 3, 7, 1.715300798416138
0, 3, 8, 1.895805954933167
0, 3, 9, 2.44973349571228
0, 3, 10, 2.586289882659912
0, 3, 11, 3.9918372631073
0, 3, 12, 4.567880153656006
0, 3, 13, 5.082424640655518
0, 3, 14, 4.261228561401367
0, 3, 15, 6.086423873901367
0, 3, 16, 9.595137596130371
0, 3, 17, 5.692431926727295
0, 3, 18, 34.4953727722168
0, 3, 19, 119.0634689331055
0, 3, 20, 179.6445770263672
0, 3, 21, 172.8289031982422
0, 3, 22, 178.2577056884766
0, 3, 23, 187.6258850097656
0, 3, 24, 177.5154724121094
0, 3, 25, 168.4814300537109
0, 3, 26, 179.9497680664062
0, 3, 27, 188.9329986572266
0, 3, 28, 181.8104400634766
0, 3, 29, 197.6734619140625
0, 3, 30, 185.2985687255859
0, 3, 31, 194.535888671875
0, 3, 32, 205.9876861572266
0, 3, 33, 195.3319396972656
0, 3, 34, 187.3533935546875
0, 3, 35, 174.9434967041016
0, 3, 36, 185.8394775390625
0, 3, 37, 200.0755920410156
0, 3, 38, 190.8506317138672
0, 3, 39, 186.4510498046875
0, 3, 40, 165.6649322509766
0, 3, 41, 172.620361328125
0, 3, 42, 186.3553009033203
0, 3, 43, 181.3016357421875
0, 3, 44, 202.8627319335938
0, 3, 45, 208.2849273681641
0, 3, 46, 198.5010375976562
0, 3, 47, 193.9391937255859
0, 3, 48, 196.4756469726562
0, 3, 49, 180.4778900146484
0, 3, 50, 186.098876953125
0, 3, 51, 174.1322479248047
0, 3, 52, 188.5387115478516
0, 3, 53, 178.9005889892578
0, 3, 54, 178.9414672851562
0, 3, 55, 176.2712860107422
0, 3, 56, 182.660888671875
0, 3, 57, 175.3796691894531
0, 3, 58, 202.3755950927734
0, 3, 59, 195.6006317138672
0, 3, 60, 186.4043273925781
0, 3, 61, 182.0186614990234
0, 3, 62, 182.7633819580078
0, 3, 63, 184.1559143066406
0, 3, 64, 190.1059112548828
0, 3, 65, 187.7647399902344
0, 3, 66, 175.67626953125
0, 3, 67, 190.1252136230469
0, 3, 68, 211.2351989746094
0, 3, 69, 190.1572875976562
0, 3, 70, 184.7102355957031
0, 3, 71, 196.5843048095703
0, 3, 72, 185.1416778564453
0, 3, 73, 186.3154296875
0, 3, 74, 192.1075286865234
0, 3, 75, 192.6266021728516
0, 3, 76, 190.6446838378906
0, 3, 77, 198.0434417724609
0, 3, 78, 188.6329956054688
0, 3, 79, 186.2405548095703
0, 3, 80, 189.1525115966797
0, 3, 81, 183.0561370849609
0, 3, 82, 178.4191284179688
0, 3, 83, 194.4043731689453
0, 3, 84, 199.7238922119141
0, 3, 85, 192
0, 3, 86, 204.1769561767578
0, 3, 87, 198.1182098388672
0, 3, 88, 191.5433654785156
0, 3, 89, 193.7672424316406
0, 3, 90, 174.0766906738281
0, 3, 91, 158.6590423583984
0, 3, 92, 206.7172088623047
0, 3, 93, 195.6668548583984
0, 3, 94, 193.6682739257812
0, 3, 95, 211.2081298828125
0, 3, 96, 207.9657897949219
0, 3, 97, 167.6175842285156
0, 3, 98, 167.6256103515625
0, 3, 99, 179.4444580078125
0, 3, 100, 176.5287017822266
0, 3, 101, 197.3048706054688
0, 3, 102, 194.1927795410156
0, 3, 103, 192.7044830322266
0, 3, 104, 202.9606781005859
0, 3, 105, 175.706787109375
0, 3, 106, 182.0931243896484
0, 3, 107, 169.1364440917969
0, 3, 108, 108.3502883911133
0, 3, 109, 29.45940017700195
0, 3, 110, 8.164450645446777
0, 3, 111, 6.6336989402771
0, 3, 112, 2.942812919616699
0, 3, 113, 7.097737789154053
0, 3, 114, 4.599411964416504
0, 3, 115, 4.993549346923828
0, 3, 116, 5.682415008544922
0, 3, 117, 2.991312980651855
0, 3, 118, 2.918912172317505
0, 3, 119, 2.276908159255981
0, 3, 120, 3.855932712554932
0, 3, 121, 3.311653852462769
0, 3, 122, 2.564826726913452
0, 3, 123, 1.64776074886322
0, 3, 124, 1.463589549064636
0, 3, 125, 1.284433126449585
0, 3, 126, 1.817920088768005
0, 3, 127, 1.286950469017029
0, 4, 0, 1.398297786712646
0, 4, 1, 0.1842139661312103
0, 4, 2, 2.281931638717651
0, 4, 3, 3.402633905410767
0, 4, 4, 2.150179862976074
0, 4, 5, 2.156611442565918
0, 4, 6, 2.972867488861084
0, 4, 7, 2.559387922286987
0, 4, 8, 1.189928889274597
0, 4, 9, 1.924952626228333
0, 4, 10, 2.99785852432251
0, 4, 11, 3.102141857147217
0, 4, 12, 3.555515289306641
0, 4, 13, 4.639602184295654
0, 4, 14, 4.741405487060547
0, 4, 15, 8.437121391296387
0, 4, 16, 7.004230976104736
0, 4, 17, 11.32051467895508
0, 4, 18, 55.75045013427734
0, 4, 19, 151.6524658203125
0, 4, 20, 192.8926696777344
0, 4, 21, 169.6597290039062
0, 4, 22, 187.383544921875
0, 4, 23, 196.0188903808594
0, 4, 24, 192.9529266357422
0, 4, 25, 199.2603149414062
0, 4, 26, 183.8800506591797
0, 4, 27, 189.9706878662109
0, 4, 28, 178.5303039550781
0, 4, 29, 205.7813262939453
0, 4, 30, 195.6256256103516
0, 4, 31, 192.0264739990234
0, 4, 32, 209.1305847167969
0, 4, 33, 190.3052520751953
0, 4, 34, 192.4843292236328
0, 4, 35, 213.0539093017578
0, 4, 36, 192.6607971191406
0, 4, 37, 177.5707244873047
0, 4, 38, 195.0333709716797
0, 4, 39, 190.2498626708984
0, 4, 40, 185.3848724365234
0, 4, 41, 190.8844146728516
0, 4, 42, 207.0436859130859
0, 4, 43, 173.8795623779297
0, 4, 44, 183.3663482666016
0, 4, 45, 195.9708099365234
0, 4, 46, 185.7256927490234
0, 4, 47, 179.3786926269531
0, 4, 48, 187.7816162109375
0, 4, 49, 175.1675262451172
0, 4, 50, 186.2941436767578
0, 4, 51, 197.6254119873047
0, 4, 52, 222.9483337402344
0, 4, 53, 205.9263458251953
0, 4, 54, 189.5710754394531
0, 4, 55, 175.6551513671875
0, 4, 56, 190.3763122558594
0, 4, 57, 192.0052795410156
0, 4, 58, 187.9960632324219
0, 4, 59, 190.5973358154297
0, 4, 60, 195.802001953125
0, 4, 61, 192.8391723632812
0, 4, 62, 192.8451843261719
0, 4, 63, 179.0291748046875
0, 4, 64, 211.2761077880859
0, 4, 65, 191.5787353515625
0, 4, 66, 201.5666656494141
0, 4, 67, 202.0406036376953
0, 4, 68, 201.1062927246094
0, 4, 69, 198.9357147216797
0, 4, 70, 205.4123992919922
0, 4, 71, 206.9207000732422
0, 4, 72, 214.9190063476562
0, 4, 73, 185.1872253417969
0, 4, 74, 181.0625305175781
0, 4, 75, 184.4095153808594
0, 4, 76, 190.9135894775391
0, 4, 77, 183.7785797119141
0, 4, 78, 194.8362274169922
0, 4, 79, 203.5935516357422
0, 4, 80, 212.0201416015625
0, 4, 81, 197.3223876953125
0, 4, 82, 182.9755096435547
0, 4, 83, 170.4580841064453
0, 4, 84, 194.9444885253906
0, 4, 85, 196.7972106933594
0, 4, 86, 180.9776458740234
0, 4, 87, 182.7229156494141
0, 4, 88, 204.2947845458984
0, 4, 89, 187.0887756347656
0, 4, 90, 211.4278259277344
0, 4, 91, 190.6597290039062
0, 4, 92, 195.8033142089844
0, 4, 93, 196.2795867919922
0, 4, 94, 181.0426330566406
0, 4, 95, 174.0313262939453
0, 4, 96, 192.2958526611328
0, 4, 97, 194.0236663818359
0, 4, 98, 201.7245788574219
0, 4, 99, 182.9977874755859
0, 4, 100, 182.4245147705078
0, 4, 101, 179.25
0, 4, 102, 174.8503723144531
0, 4, 103, 187.2682037353516
0, 4, 104, 209.7968444824219
0, 4, 105, 189.9152679443359
0, 4, 106, 179.3699951171875
0, 4, 107, 181.8769836425781
0, 4, 108, 151.7761840820312
0, 4, 109, 49.81875228881836
0, 4, 110, 10.3346996307373
0, 4, 111, 8.640443801879883
0, 4, 112, 6.293645858764648
0, 4, 113, 6.443481922149658
0, 4, 114, 7.612068176269531
0, 4, 115, 4.347591400146484
0, 4, 116, 5.166561603546143
0, 4, 117, 3.260435819625854
0, 4, 118, 3.163166284561157
0, 4, 119, 3.340057134628296
0, 4, 120, 3.40554404258728
0, 4, 121, 2.395615577697754
0, 4, 122, 2.726693391799927
0, 4, 123, 1.743590950965881
0, 4, 124, 4.865858554840088
0, 4, 125, 2.584764242172241
0, 4, 126, 1.775198221206665
0, 4, 127, 1.246286392211914
0, 5, 0, 1.450260162353516
0, 5, 1, 3.420550584793091
0, 5, 2, 5.852603912353516
0, 5, 3, 4.090812206268311
0, 5, 4, 2.042533874511719
0, 5, 5, 2.304483890533447
0, 5, 6, 2.370587587356567
0, 5, 7, 3.21745228767395
0, 5, 8, 2.083070516586304
0, 5, 9, 2.489926338195801
0, 5, 10, 2.482425212860107
0, 5, 11, 3.07670783996582
0, 5, 12, 2.398314714431763
0, 5, 13, 3.519490718841553
0, 5, 14, 5.04771089553833
0, 5, 15, 10.3669319152832
0, 5, 16, 6.757294178009033
0, 5, 17, 21.01297569274902
0, 5, 18, 82.40580749511719
0, 5, 19, 164.2331695556641
0, 5, 20, 183.2716369628906
0, 5, 21, 178.0363464355469
0, 5, 22, 171.3758850097656
0, 5, 23, 200.7062530517578
0, 5, 24, 186.9387359619141
0, 5, 25, 207.681396484375
0, 5, 26, 183.0495300292969
0, 5, 27, 195.3990173339844
0, 5, 28, 189.8973693847656
0, 5, 29, 195.8147888183594
0, 5, 30, 178.2207336425781
0, 5, 31, 180.8550872802734
0, 5, 32, 185.8575286865234
0, 5, 33, 168.7515106201172
0, 5, 34, 194.7458190917969
0, 5, 35, 197.7422180175781
0, 5, 36, 167.6211395263672
0, 5, 37, 196.4983215332031
0, 5, 38, 183.6342163085938
0, 5, 39, 189.1864318847656
0, 5, 40, 196.613037109375
0, 5, 41, 177.5639801025391
0, 5, 42, 188.8368072509766
0, 5, 43, 192.1428833007812
0, 5, 44, 199.9585113525391
0, 5, 45, 186.9807434082031
0, 5, 46, 192.5036926269531
0, 5, 47, 181.7021942138672
0, 5, 48, 179.0005187988281
0, 5, 49, 177.4713287353516
0, 5, 50, 186.4044647216797
0, 5, 51, 172.2881774902344
0, 5, 52, 168.4496307373047
0, 5, 53, 181.8925476074219
0, 5, 54, 172.7975921630859
0, 5, 55, 215.8777770996094
0, 5, 56, 182.0068511962891
0, 5, 57, 207.3901824951172
0, 5, 58, 180.5723114013672
0, 5, 59, 181.4618225097656
0, 5, 60, 218.6639099121094
0, 5, 61, 184.1938629150391
0, 5, 62, 179.2844696044922
0, 5, 63, 180.8792572021484
0, 5, 64, 194.3576812744141
0, 5, 65, 209.4485168457031
0, 5, 66, 192.1305694580078
0, 5, 67, 198.5281219482422
0, 5, 68, 185.7190093994141
0, 5, 69, 185.9801788330078
0, 5, 70, 184.9853210449219
0, 5, 71, 193.0765380859375
0, 5, 72, 197.7770538330078
0, 5, 73, 201.6515197753906
0, 5, 74, 178.8802032470703
0, 5, 75, 201.96240234375
0, 5, 76, 214.2433929443359
0, 5, 77, 180.0493469238281
0, 5, 78, 194.1236724853516
0, 5, 79, 191.0080718994141
0, 5, 80, 198.4952545166016
0, 5, 81, 204.2288970947266
0, 5, 82, 201.1676177978516
0, 5, 83, 193.1685028076172
0, 5, 84, 205.0536193847656
0, 5, 85, 177.2828063964844
0, 5, 86, 195.4144592285156
0, 5, 87, 188.9209289550781
0, 5, 88, 178.8388977050781
0, 5, 89, 193.9090576171875
0, 5, 90, 198.9994201660156
0, 5, 91, 195.1351623535156
0, 5, 92, 192.1626434326172
0, 5, 93, 188.7478485107422
0, 5, 94, 207.3481750488281
0, 5, 95, 176.8085174560547
0, 5, 96, 181.8661956787109
0, 5, 97, 191.5533142089844
0, 5, 98, 189.1521606445312
0, 5, 99, 197.9792938232422
0, 5, 100, 187.5107116699219
0, 5, 101, 196.0590667724609
0, 5, 102, 180.4579467773438
0, 5, 103, 175.7942352294922
0, 5, 104, 190.3542938232422
0, 5, 105, 189.2108612060547
0, 5, 106, 176.6137542724609
0, 5, 107, 180.7133026123047
0, 5, 108, 177.10546875
0, 5, 109, 89.2840576171875
0, 5, 110, 30.80253982543945
0, 5, 111, 9.7899169921875
0, 5, 112, 6.484890937805176
0, 5, 113, 6.151336193084717
0, 5, 114, 6.437434196472168
0, 5, 115, 6.591454982757568
0, 5, 116, 3.83640718460083
0, 5, 117, 2.637948751449585
0, 5, 118, 3.358631134033203
0, 5, 119, 4.170530319213867
0, 5, 120, 3.738804578781128
0, 5, 121, 2.199886083602905
0, 5, 122, 2.204350471496582
0, 5, 123, 5.086674690246582
0, 5, 124, 3.084125995635986
0, 5, 125, 1.507647037506104
0, 5, 126, 3.031809568405151
0, 5, 127, 1.803645491600037
0, 6, 0, 4.338008880615234
0, 6, 1, 3.305896520614624
0, 6, 2, 4.201831340789795
0, 6, 3, 2.49707555770874
0, 6, 4, 2.604504585266113
0, 6, 5, 4.692099571228027
0, 6, 6, 2.720896482467651
0, 6, 7, 3.814682245254517
0, 6, 8, 3.392703771591187
0, 6, 9, 2.819002151489258
0, 6, 10, 3.899127244949341
0, 6, 11, 3.664557933807373
0, 6, 12, 5.200606346130371
0, 6, 13, 5.258431434631348
0, 6, 14, 6.338934898376465
0, 6, 15, 6.417216777801514
0, 6, 16, 13.59811592102051
0, 6, 17, 28.71044921875
0, 6, 18, 112.1647415161133
0, 6, 19, 191.3199920654297
0, 6, 20, 195.6134948730469
0, 6, 21, 197.5035095214844
0, 6, 22, 191.5829772949219
0, 6, 23, 190.8956298828125
0, 6, 24, 200.6919860839844
0, 6, 25, 183.0435791015625
0, 6, 26, 186.4721069335938
0, 6, 27, 191.3873291015625
0, 6, 28, 188.4790496826172
0, 6, 29, 211.2785491943359
0, 6, 30, 191.5573883056641
0, 6, 31, 193.6121673583984
0, 6, 32, 207.2294311523438
0, 6, 33, 185.3661804199219
0, 6, 34, 198.7039947509766
0, 6, 35, 188.2254943847656
0, 6, 36, 180.7929229736328
0, 6, 37, 183.9316558837891
0, 6, 38, 185.6856689453125
0, 6, 39, 194.1190032958984
0, 6, 40, 173.3629150390625
0, 6, 41, 184.9019927978516
0, 6, 42, 175.371826171875
0, 6, 43, 208.5813293457031
0, 6, 44, 209.1803283691406
0, 6, 45, 194.1470031738281
0, 6, 46, 187.6395111083984
0, 6, 47, 205.2631988525391
0, 6, 48, 188.3306884765625
0, 6, 49, 179.9497680664062
0, 6, 50, 181.7151947021484
0, 6, 51, 196.2249450683594
0, 6, 52, 197.4734954833984
0, 6, 53, 184.8117065429688
0, 6, 54, 175.0147094726562
0, 6, 55, 194.6929016113281
0, 6, 56, 203.5462799072266
0, 6, 57, 191.0777893066406
0, 6, 58, 178.1753997802734
0, 6, 59, 192.6534271240234
0, 6, 60, 184.6920318603516
0, 6, 61, 194.2166900634766
0, 6, 62, 197.0323791503906
0, 6, 63, 186.3832550048828
0, 6, 64, 169.2869873046875
0, 6, 65, 186.509033203125
0, 6, 66, 197.1341400146484
0, 6, 67, 214.0534515380859
0, 6, 68, 181.6579284667969
0, 6, 69, 171.0216979980469
0, 6, 70, 189.4674835205078
0, 6, 71, 170.4779815673828
0, 6, 72, 175.9932861328125
0, 6, 73, 176.9322662353516
0, 6, 74, 211.6370544433594
0, 6, 75, 226.7843627929688
0, 6, 76, 183.9817047119141
0, 6, 77, 173.0799865722656
0, 6, 78, 175.9141540527344
0, 6, 79, 186.7705688476562
0, 6, 80, 187.9513702392578
0, 6, 81, 208.5888214111328
0, 6, 82, 195.2060241699219
0, 6, 83, 195.5087280273438
0, 6, 84, 197.5510559082031
0, 6, 85, 182.4220733642578
0, 6, 86, 202.0476226806641
0, 6, 87, 184.1038513183594
0, 6, 88, 193.3436584472656
0, 6, 89, 188.8722839355469
0, 6, 90, 206.1092224121094
0, 6, 91, 199.887451171875
0, 6, 92, 175.5726165771484
0, 6, 93, 193.0369873046875
0, 6, 94, 188.6647644042969
0, 6, 95, 184.9354705810547
0, 6, 96, 188.8048400878906
0, 6, 97, 194.7360229492188
0, 6, 98, 183.2361450195312
0, 6, 99, 176.0692291259766
0, 6, 100, 201.4285278320312
0, 6, 101, 171.0341491699219
0, 6, 102, 202.8966827392578
0, 6, 103, 195.6669006347656
0, 6, 104, 185.4828033447266
0, 6, 105, 193.6118774414062
0, 6, 106, 177.0152893066406
0, 6, 107, 194.9987030029297
0, 6, 108, 170.7887268066406
0, 6, 109, 114.9341049194336
0, 6, 110, 34.54191589355469
0, 6, 111, 9.014358520507812
0, 6, 112, 7.953984260559082
0, 6, 113, 5.604191303253174
0, 6, 114, 5.46195650100708
0, 6, 115, 4.579126834869385
0, 6, 116, 3.966608762741089
0, 6, 117, 5.371724128723145
0, 6, 118, 3.407699823379517
0, 6, 119, 3.688549041748047
0, 6, 120, 1.432860970497131
0, 6, 121, 3.789499044418335
0, 6, 122, 3.680056095123291
0, 6, 123, 2.231862306594849
0, 6, 124, 1.420897841453552
0, 6, 125, 3.442831039428711
0, 6, 126, 2.276777982711792
0, 6, 127, 3.307945728302002
0, 7, 0, 3.150424957275391
0, 7, 1, 2.581791639328003
0, 7, 2, 3.527927398681641
0, 7, 3, 2.572033882141113
0, 7, 4, 0.9996259808540344
0, 7, 5, 1.428092241287231
0, 7, 6, 2.233656406402588
0, 7, 7, 1.914183616638184
0, 7, 8, 3.609858989715576
0, 7, 9, 3.882650852203369
0, 7, 10, 5.435542106628418
0, 7, 11, 3.093671798706055
0, 7, 12, 3.957435369491577
0, 7, 13, 5.525837898254395
0, 7, 14, 6.551631450653076
0, 7, 15, 7.619738101959229
0, 7, 16, 14.99393463134766
0, 7, 17, 51.69551086425781
0, 7, 18, 161.3308563232422
0, 7, 19, 182.7942657470703
0, 7, 20, 180.7241973876953
0, 7, 21, 181.5450286865234
0, 7, 22, 191.0393676757812
0, 7, 23, 202.2955932617188
0, 7, 24, 179.577880859375
0, 7, 25, 212.7360992431641
0, 7, 26, 191.0696868896484
0, 7, 27, 181.5558013916016
0, 7, 28, 184.3971099853516
0, 7, 29, 208.5295867919922
0, 7, 30, 192.2089385986328
0, 7, 31, 175.2257232666016
0, 7, 32, 190.070556640625
0, 7, 33, 179.6752014160156
0, 7, 34, 195.3979949951172
0, 7, 35, 197.8587188720703
0, 7, 36, 187.6922454833984
0, 7, 37, 212.9718933105469
0, 7, 38, 191.5958709716797
0, 7, 39, 173.5793304443359
0, 7, 40, 183.5719604492188
0, 7, 41, 185.2430572509766
0, 7, 42, 178.4326171875
0, 7, 43, 179.1387329101562
0, 7, 44, 179.1597900390625
0, 7, 45, 174.8809356689453
0, 7, 46, 189.7214965820312
0, 7, 47, 197.7892913818359
0, 7, 48, 185.2761077880859
0, 7, 49, 198.5137634277344
0, 7, 50, 187.9876708984375
0, 7, 51, 205.3851623535156
0, 7, 52, 204.5364532470703
0, 7, 53, 191.28125
0, 7, 54, 195.9759979248047
0, 7, 55, 203.0774536132812
0, 7, 56, 183.1893157958984
0, 7, 57, 182.8996887207031
0, 7, 58, 193.4602966308594
0, 7, 59, 187.4550170898438
0, 7, 60, 202.1860046386719
0, 7, 61, 170.0856628417969
0, 7, 62, 203.255615234375
0, 7, 63, 189.5380096435547
0, 7, 64, 198.9881591796875
0, 7, 65, 199.3724212646484
0, 7, 66, 206.5853881835938
0, 7, 67, 220.5825347900391
0, 7, 68, 162.8155517578125
0, 7, 69, 194.61376953125
0, 7, 70, 217.0969848632812
0, 7, 71, 184.4992980957031
0, 7, 72, 180.9653625488281
0, 7, 73, 176.5015869140625
0, 7, 74, 208.3607940673828
0, 7, 75, 206.5816650390625
0, 7, 76, 215.0936737060547
0, 7, 77, 175.0089263916016
0, 7, 78, 177.6845092773438
0, 7, 79, 193.1324920654297
0, 7, 80, 195.6399078369141
0, 7, 81, 216.31298828125
0, 7, 82, 185.9164276123047
0, 7, 83, 205.0160369873047
0, 7, 84, 191.4806060791016
0, 7, 85, 186.0056457519531
0, 7, 86, 201.9277496337891
0, 7, 87, 227.0237274169922
0, 7, 88, 194.4693145751953
0, 7, 89, 177.3287200927734
0, 7, 90, 182.4570007324219
0, 7, 91, 194.0011291503906
0, 7, 92, 194.7678527832031
0, 7, 93, 200.2927856445312
0, 7, 94, 180.5797576904297
0, 7, 95, 197.2513275146484
0, 7, 96, 209.42236328125
0, 7, 97, 190.1821899414062
0, 7, 98, 176.8254699707031
0, 7, 99, 196.6724700927734
0, 7, 100, 181.9815368652344
0, 7, 101, 199.2834930419922
0, 7, 102, 186.2695465087891
0, 7, 103, 183.05419921875
0, 7, 104, 174.4489135742188
0, 7, 105, 195.6051635742188
0, 7, 106, 205.2920532226562
0, 7, 107, 172.8413848876953
0, 7, 108, 176.5531158447266
0, 7, 109, 137.3753356933594
0, 7, 110, 53.60135269165039
0, 7, 111, 10.07233428955078
0, 7, 112, 8.172920227050781
0, 7, 113, 8.720685005187988
0, 7, 114, 7.109978199005127
0, 7, 115, 5.173385143280029
0, 7, 116, 7.381180286407471
0, 7, 117, 2.838632106781006
0, 7, 118, 3.251739501953125
0, 7, 119, 3.032555103302002
0, 7, 120, 2.429908037185669
0, 7, 121, 4.303908824920654
0, 7, 122, 2.136407375335693
0, 7, 123, 1.63288152217865
0, 7, 124, 0.8599660396575928
0, 7, 125, 2.797593355178833
0, 7, 126, 4.186740398406982
0, 7, 127, 0.9453299641609192
0, 8, 0, 3.905876636505127
0, 8, 1, 3.282316207885742
0, 8, 2, 3.947132110595703
0, 8, 3, 3.150867938995361
0, 8, 4, 1.178846955299377
0, 8, 5, 2.921831607818604
0, 8, 6, 2.536664485931396
0, 8, 7, 2.678663015365601
0, 8, 8, 4.323534965515137
0, 8, 9, 4.857592105865479
0, 8, 10, 2.718984603881836
0, 8, 11, 3.013040065765381
0, 8, 12, 4.100492000579834
0, 8, 13, 6.030805587768555
0, 8, 14, 6.040256023406982
0, 8, 15, 8.026340484619141
0, 8, 16, 18.69596099853516
0, 8, 17, 74.33173370361328
0, 8, 18, 142.2432403564453
0, 8, 19, 181.9573059082031
0, 8, 20, 193.1589965820312
0, 8, 21, 191.8948364257812
0, 8, 22, 179.9078369140625
0, 8, 23, 174.1871032714844
0, 8, 24, 191.6548919677734
0, 8, 25, 185.7725677490234
0, 8, 26, 192.6753692626953
0, 8, 27, 185.6721649169922
0, 8, 28, 187.8242645263672
0, 8, 29, 208.0560607910156
0, 8, 30, 195.7117462158203
0, 8, 31, 182.0745239257812
0, 8, 32, 198.2619476318359
0, 8, 33, 206.4553527832031
0, 8, 34, 203.0982055664062
0, 8, 35, 186.4062805175781
0, 8, 36, 184.3067321777344
0, 8, 37, 199.1018524169922
