# TOPAS Version: 3.1.p3
# Parameter File: batch_inserts_128.txt
# Results for scorer Readout_Adipose
# Scored in component: MyBox
# X in 1 bin  of 0.65 cm
# Y in 512 bins of 0.0783984 cm
# Z in 128 bins of 0.078125 cm
# EnergyDeposit ( MeV ) : Sum   
0, 0, 0, 1.421196818351746
0, 0, 1, 2.430768251419067
0, 0, 2, 1.084806561470032
0, 0, 3, 0.8321102857589722
0, 0, 4, 1.316223382949829
0, 0, 5, 0.6866225600242615
0, 0, 6, 0.865694522857666
0, 0, 7, 3.934060096740723
0, 0, 8, 1.680499076843262
0, 0, 9, 2.556188583374023
0, 0, 10, 4.112520217895508
0, 0, 11, 3.279530048370361
0, 0, 12, 6.037069320678711
0, 0, 13, 3.797478199005127
0, 0, 14, 6.943929195404053
0, 0, 15, 5.065118312835693
0, 0, 16, 3.799928903579712
0, 0, 17, 5.914642810821533
0, 0, 18, 7.53201961517334
0, 0, 19, 24.18775939941406
0, 0, 20, 93.49918365478516
0, 0, 21, 151.9650726318359
0, 0, 22, 153.2239837646484
0, 0, 23, 143.9410705566406
0, 0, 24, 159.7707214355469
0, 0, 25, 166.1653442382812
0, 0, 26, 166.4348602294922
0, 0, 27, 175.6935424804688
0, 0, 28, 178.2168426513672
0, 0, 29, 177.5916442871094
0, 0, 30, 172.9238586425781
0, 0, 31, 167.3787078857422
0, 0, 32, 164.3226318359375
0, 0, 33, 167.9711761474609
0, 0, 34, 178.9204254150391
0, 0, 35, 173.9865875244141
0, 0, 36, 159.8765106201172
0, 0, 37, 161.9136199951172
0, 0, 38, 167.1363525390625
0, 0, 39, 159.2268371582031
0, 0, 40, 165.1458129882812
0, 0, 41, 165.7136077880859
0, 0, 42, 144.6302337646484
0, 0, 43, 168.3736572265625
0, 0, 44, 177.6404571533203
0, 0, 45, 173.2533569335938
0, 0, 46, 167.0439147949219
0, 0, 47, 167.5508728027344
0, 0, 48, 169.140625
0, 0, 49, 182.6140899658203
0, 0, 50, 169.2150421142578
0, 0, 51, 162.5474395751953
0, 0, 52, 166.1261291503906
0, 0, 53, 171.7041931152344
0, 0, 54, 160.5773315429688
0, 0, 55, 165.0374450683594
0, 0, 56, 188.5999298095703
0, 0, 57, 170.3488616943359
0, 0, 58, 161.3933563232422
0, 0, 59, 172.3080444335938
0, 0, 60, 168.8833618164062
0, 0, 61, 169.1797180175781
0, 0, 62, 184.4714508056641
0, 0, 63, 166.8162536621094
0, 0, 64, 163.4648742675781
0, 0, 65, 174.6785430908203
0, 0, 66, 177.4476776123047
0, 0, 67, 164.1922607421875
0, 0, 68, 158.2481536865234
0, 0, 69, 159.0572814941406
0, 0, 70, 169.3077087402344
0, 0, 71, 158.5892791748047
0, 0, 72, 160.7518310546875
0, 0, 73, 170.8946685791016
0, 0, 74, 163.5903167724609
0, 0, 75, 163.2131042480469
0, 0, 76, 162.9441070556641
0, 0, 77, 171.9074554443359
0, 0, 78, 182.888671875
0, 0, 79, 174.8058319091797
0, 0, 80, 158.5779113769531
0, 0, 81, 159.2073516845703
0, 0, 82, 184.1454772949219
0, 0, 83, 174.6209106445312
0, 0, 84, 159.7733306884766
0, 0, 85, 182.3566131591797
0, 0, 86, 159.7796478271484
0, 0, 87, 176.4736175537109
0, 0, 88, 176.4229736328125
0, 0, 89, 174.2382965087891
0, 0, 90, 160.1907043457031
0, 0, 91, 185.3921508789062
0, 0, 92, 163.6350708007812
0, 0, 93, 156.0255126953125
0, 0, 94, 169.6594085693359
0, 0, 95, 173.4394226074219
0, 0, 96, 183.6185760498047
0, 0, 97, 183.3782653808594
0, 0, 98, 185.81640625
0, 0, 99, 171.7787475585938
0, 0, 100, 158.4024200439453
0, 0, 101, 166.7958374023438
0, 0, 102, 171.0940856933594
0, 0, 103, 171.041015625
0, 0, 104, 169.1441650390625
0, 0, 105, 177.4036865234375
0, 0, 106, 158.8176116943359
0, 0, 107, 86.369384765625
0, 0, 108, 20.34975051879883
0, 0, 109, 9.576066970825195
0, 0, 110, 8.343969345092773
0, 0, 111, 7.203933715820312
0, 0, 112, 2.679963350296021
0, 0, 113, 2.62094783782959
0, 0, 114, 2.124453544616699
0, 0, 115, 2.615580797195435
0, 0, 116, 2.129822969436646
0, 0, 117, 1.943670392036438
0, 0, 118, 3.461590766906738
0, 0, 119, 1.769706845283508
0, 0, 120, 2.080609321594238
0, 0, 121, 4.447155475616455
0, 0, 122, 4.524760246276855
0, 0, 123, 5.658995628356934
0, 0, 124, 1.139990091323853
0, 0, 125, 2.982961893081665
0, 0, 126, 0.4020956158638
0, 0, 127, 1.780119061470032
0, 1, 0, 1.383586764335632
0, 1, 1, 4.160428047180176
0, 1, 2, 3.388134241104126
0, 1, 3, 1.603118181228638
0, 1, 4, 0.3434910476207733
0, 1, 5, 3.078459739685059
0, 1, 6, 0.9305497407913208
0, 1, 7, 1.870948910713196
0, 1, 8, 1.096871852874756
0, 1, 9, 2.635807037353516
0, 1, 10, 2.735114097595215
0, 1, 11, 4.350508689880371
0, 1, 12, 2.337910890579224
0, 1, 13, 4.335861682891846
0, 1, 14, 5.134464740753174
0, 1, 15, 7.106089115142822
0, 1, 16, 7.516721248626709
0, 1, 17, 5.687692165374756
0, 1, 18, 10.14826202392578
0, 1, 19, 40.47248077392578
0, 1, 20, 128.1558685302734
0, 1, 21, 176.6980438232422
0, 1, 22, 194.5067443847656
0, 1, 23, 190.7904510498047
0, 1, 24, 179.2591400146484
0, 1, 25, 191.0887451171875
0, 1, 26, 198.2400054931641
0, 1, 27, 186.2635650634766
0, 1, 28, 189.0894317626953
0, 1, 29, 183.2129669189453
0, 1, 30, 179.33251953125
0, 1, 31, 181.090576171875
0, 1, 32, 188.0691986083984
0, 1, 33, 191.8014373779297
0, 1, 34, 185.6950836181641
0, 1, 35, 193.4935150146484
0, 1, 36, 205.0802612304688
0, 1, 37, 185.1728668212891
0, 1, 38, 164.8028717041016
0, 1, 39, 171.3621520996094
0, 1, 40, 180.4526062011719
0, 1, 41, 185.6286315917969
0, 1, 42, 182.5819396972656
0, 1, 43, 185.5996551513672
0, 1, 44, 169.2536010742188
0, 1, 45, 186.6027221679688
0, 1, 46, 170.7337646484375
0, 1, 47, 184.8003234863281
0, 1, 48, 186.2842102050781
0, 1, 49, 185.7227935791016
0, 1, 50, 176.9707794189453
0, 1, 51, 191.8960571289062
0, 1, 52, 194.8757629394531
0, 1, 53, 195.4561920166016
0, 1, 54, 184.2955932617188
0, 1, 55, 166.3587036132812
0, 1, 56, 179.3903961181641
0, 1, 57, 181.3016357421875
0, 1, 58, 188.4442138671875
0, 1, 59, 193.3242492675781
0, 1, 60, 188.2389373779297
0, 1, 61, 177.6792602539062
0, 1, 62, 205.3041687011719
0, 1, 63, 174.0884094238281
0, 1, 64, 172.3952178955078
0, 1, 65, 184.5413055419922
0, 1, 66, 204.0060577392578
0, 1, 67, 182.4774169921875
0, 1, 68, 186.6477508544922
0, 1, 69, 189.1277618408203
0, 1, 70, 185.5306854248047
0, 1, 71, 170.8704376220703
0, 1, 72, 189.2930450439453
0, 1, 73, 189.8184051513672
0, 1, 74, 201.0454711914062
0, 1, 75, 183.3905181884766
0, 1, 76, 173.777587890625
0, 1, 77, 194.4096374511719
0, 1, 78, 187.1931915283203
0, 1, 79, 201.9909057617188
0, 1, 80, 187.2349090576172
0, 1, 81, 174.2615051269531
0, 1, 82, 206.7442016601562
0, 1, 83, 212.6714172363281
0, 1, 84, 180.2865600585938
0, 1, 85, 169.9444580078125
0, 1, 86, 169.2012634277344
0, 1, 87, 184.6194152832031
0, 1, 88, 174.9033813476562
0, 1, 89, 187.2942199707031
0, 1, 90, 212.3981170654297
0, 1, 91, 181.2382049560547
0, 1, 92, 183.9745483398438
0, 1, 93, 180.6249542236328
0, 1, 94, 185.0065307617188
0, 1, 95, 182.8160705566406
0, 1, 96, 196.2819519042969
0, 1, 97, 182.9587249755859
0, 1, 98, 186.6443939208984
0, 1, 99, 175.4652099609375
0, 1, 100, 171.736083984375
0, 1, 101, 177.8477172851562
0, 1, 102, 181.4476165771484
0, 1, 103, 174.2654724121094
0, 1, 104, 189.3374328613281
0, 1, 105, 182.4098510742188
0, 1, 106, 163.8880157470703
0, 1, 107, 122.9784240722656
0, 1, 108, 46.80317687988281
0, 1, 109, 9.427364349365234
0, 1, 110, 8.283676147460938
0, 1, 111, 7.444793224334717
0, 1, 112, 6.635053157806396
0, 1, 113, 6.828174114227295
0, 1, 114, 6.471758842468262
0, 1, 115, 6.041532516479492
0, 1, 116, 1.421671986579895
0, 1, 117, 3.117738246917725
0, 1, 118, 5.064278602600098
0, 1, 119, 2.367127418518066
0, 1, 120, 3.382169008255005
0, 1, 121, 4.944792747497559
0, 1, 122, 5.841936111450195
0, 1, 123, 2.852408170700073
0, 1, 124, 2.99053692817688
0, 1, 125, 2.727970123291016
0, 1, 126, 1.376242637634277
0, 1, 127, 2.002178430557251
0, 2, 0, 1.299562573432922
0, 2, 1, 2.221290111541748
0, 2, 2, 3.000643014907837
0, 2, 3, 1.643369436264038
0, 2, 4, 5.443014144897461
0, 2, 5, 0.8400552272796631
0, 2, 6, 3.839918613433838
0, 2, 7, 2.317120313644409
0, 2, 8, 0.7799249887466431
0, 2, 9, 1.707377433776855
0, 2, 10, 4.518033504486084
0, 2, 11, 3.773976802825928
0, 2, 12, 3.316962242126465
0, 2, 13, 2.844871520996094
0, 2, 14, 3.694899797439575
0, 2, 15, 5.879428863525391
0, 2, 16, 5.406369686126709
0, 2, 17, 9.240852355957031
0, 2, 18, 14.24309635162354
0, 2, 19, 76.9857177734375
0, 2, 20, 163.7133331298828
0, 2, 21, 183.2525329589844
0, 2, 22, 194.6473541259766
0, 2, 23, 185.0283050537109
0, 2, 24, 173.761962890625
0, 2, 25, 183.9735260009766
0, 2, 26, 179.0623779296875
0, 2, 27, 191.1832122802734
0, 2, 28, 172.1503143310547
0, 2, 29, 169.1789855957031
0, 2, 30, 186.0458068847656
0, 2, 31, 182.9485168457031
0, 2, 32, 183.6830902099609
0, 2, 33, 190.9050140380859
0, 2, 34, 197.9938812255859
0, 2, 35, 181.267578125
0, 2, 36, 185.3549499511719
0, 2, 37, 181.0378265380859
0, 2, 38, 183.8914337158203
0, 2, 39, 167.1100769042969
0, 2, 40, 185.0381164550781
0, 2, 41, 184.0216979980469
0, 2, 42, 189.4393157958984
0, 2, 43, 193.3545074462891
0, 2, 44, 190.6160430908203
0, 2, 45, 189.4254760742188
0, 2, 46, 196.6608123779297
0, 2, 47, 189.5794830322266
0, 2, 48, 177.0617370605469
0, 2, 49, 197.7596435546875
0, 2, 50, 168.3471832275391
0, 2, 51, 187.1956939697266
0, 2, 52, 186.1652374267578
0, 2, 53, 194.9671936035156
0, 2, 54, 175.9482116699219
0, 2, 55, 173.3006591796875
0, 2, 56, 182.0948333740234
0, 2, 57, 199.6573486328125
0, 2, 58, 186.9268341064453
0, 2, 59, 190.1754760742188
0, 2, 60, 196.3634948730469
0, 2, 61, 193.472900390625
0, 2, 62, 190.1154327392578
0, 2, 63, 169.2584533691406
0, 2, 64, 189.3354797363281
0, 2, 65, 202.4997253417969
0, 2, 66, 195.8599700927734
0, 2, 67, 186.1226959228516
0, 2, 68, 182.0670623779297
0, 2, 69, 189.2367706298828
0, 2, 70, 202.9336242675781
0, 2, 71, 175.2600708007812
0, 2, 72, 185.8269805908203
0, 2, 73, 177.8707733154297
0, 2, 74, 180.7678527832031
0, 2, 75, 195.7852478027344
0, 2, 76, 185.6088104248047
0, 2, 77, 177.9259948730469
0, 2, 78, 197.8196716308594
0, 2, 79, 177.0334777832031
0, 2, 80, 187.3322296142578
0, 2, 81, 186.8843688964844
0, 2, 82, 206.6593475341797
0, 2, 83, 203.7691497802734
0, 2, 84, 188.2148742675781
0, 2, 85, 170.9379119873047
0, 2, 86, 194.6511535644531
0, 2, 87, 171.7318725585938
0, 2, 88, 176.7357482910156
0, 2, 89, 185.6474761962891
0, 2, 90, 177.572021484375
0, 2, 91, 173.4612884521484
0, 2, 92, 196.5823974609375
0, 2, 93, 194.4605560302734
0, 2, 94, 202.0333099365234
0, 2, 95, 193.6488647460938
0, 2, 96, 186.5159454345703
0, 2, 97, 172.3993072509766
0, 2, 98, 172.9507904052734
0, 2, 99, 163.1264953613281
0, 2, 100, 186.6552124023438
0, 2, 101, 196.6689453125
0, 2, 102, 177.5022583007812
0, 2, 103, 200.4243011474609
0, 2, 104, 186.5917816162109
0, 2, 105, 200.5722045898438
0, 2, 106, 195.0700988769531
0, 2, 107, 149.383544921875
0, 2, 108, 79.06999969482422
0, 2, 109, 17.47776031494141
0, 2, 110, 7.35323429107666
0, 2, 111, 5.598089694976807
0, 2, 112, 3.489168405532837
0, 2, 113, 4.15326976776123
0, 2, 114, 8.536616325378418
0, 2, 115, 5.8488450050354
0, 2, 116, 4.362206935882568
0, 2, 117, 2.012190818786621
0, 2, 118, 1.925236344337463
0, 2, 119, 4.838243961334229
0, 2, 120, 2.016258955001831
0, 2, 121, 3.329248905181885
0, 2, 122, 3.902539014816284
0, 2, 123, 1.986215472221375
0, 2, 124, 2.648540258407593
0, 2, 125, 2.261021375656128
0, 2, 126, 2.975993871688843
0, 2, 127, 0.7651903033256531
0, 3, 0, 1.5376957654953
0, 3, 1, 2.068552255630493
0, 3, 2, 1.60469114780426
0, 3, 3, 2.843182325363159
0, 3, 4, 3.884250402450562
0, 3, 5, 1.405905723571777
0, 3, 6, 1.980738162994385
0, 3, 7, 1.480813503265381
0, 3, 8, 2.061630964279175
0, 3, 9, 1.372206091880798
0, 3, 10, 1.342679023742676
0, 3, 11, 3.482114315032959
0, 3, 12, 4.409876346588135
0, 3, 13, 3.680972337722778
0, 3, 14, 4.498942852020264
0, 3, 15, 6.258101463317871
0, 3, 16, 7.080325126647949
0, 3, 17, 6.977958679199219
0, 3, 18, 33.17526626586914
0, 3, 19, 114.0892944335938
0, 3, 20, 179.4531402587891
0, 3, 21, 172.6908874511719
0, 3, 22, 178.0368194580078
0, 3, 23, 188.1741485595703
0, 3, 24, 177.8630981445312
0, 3, 25, 170.70751953125
0, 3, 26, 180.9105987548828
0, 3, 27, 188.7141418457031
0, 3, 28, 181.8238525390625
0, 3, 29, 197.6066284179688
0, 3, 30, 185.7077484130859
0, 3, 31, 193.8367309570312
0, 3, 32, 206.3487701416016
0, 3, 33, 195.5977935791016
0, 3, 34, 188.0552368164062
0, 3, 35, 174.4808502197266
0, 3, 36, 185.078857421875
0, 3, 37, 200.4318084716797
0, 3, 38, 190.5120391845703
0, 3, 39, 185.84326171875
0, 3, 40, 167.1796875
0, 3, 41, 176.6802062988281
0, 3, 42, 185.2247009277344
0, 3, 43, 181.5772705078125
0, 3, 44, 202.6448059082031
0, 3, 45, 207.2195739746094
0, 3, 46, 198.4250793457031
0, 3, 47, 194.6755828857422
0, 3, 48, 198.3763580322266
0, 3, 49, 181.2203826904297
0, 3, 50, 186.3876495361328
0, 3, 51, 174.4881896972656
0, 3, 52, 187.1049499511719
0, 3, 53, 177.0497131347656
0, 3, 54, 178.4450988769531
0, 3, 55, 177.502197265625
0, 3, 56, 183.0046691894531
0, 3, 57, 174.6952209472656
0, 3, 58, 200.9281311035156
0, 3, 59, 195.4985198974609
0, 3, 60, 186.0882415771484
0, 3, 61, 180.7357177734375
0, 3, 62, 183.4937591552734
0, 3, 63, 184.8482666015625
0, 3, 64, 187.7641754150391
0, 3, 65, 187.1917877197266
0, 3, 66, 175.0463562011719
0, 3, 67, 189.1648864746094
0, 3, 68, 211.4710998535156
0, 3, 69, 190.2718200683594
0, 3, 70, 186.5903472900391
0, 3, 71, 197.5575256347656
0, 3, 72, 185.777099609375
0, 3, 73, 189.7241973876953
0, 3, 74, 195.2413940429688
0, 3, 75, 193.7050170898438
0, 3, 76, 191.2388763427734
0, 3, 77, 198.5107727050781
0, 3, 78, 187.9796600341797
0, 3, 79, 184.5936889648438
0, 3, 80, 191.4407958984375
0, 3, 81, 183.6786804199219
0, 3, 82, 180.8233032226562
0, 3, 83, 194.4536590576172
0, 3, 84, 199.1458282470703
0, 3, 85, 193.1737060546875
0, 3, 86, 203.6993408203125
0, 3, 87, 196.9542846679688
0, 3, 88, 191.118408203125
0, 3, 89, 193.2971954345703
0, 3, 90, 173.4083709716797
0, 3, 91, 155.887451171875
0, 3, 92, 206.2268371582031
0, 3, 93, 196.7236022949219
0, 3, 94, 192.0631713867188
0, 3, 95, 210.8731079101562
0, 3, 96, 208.2388458251953
0, 3, 97, 167.9019317626953
0, 3, 98, 168.334228515625
0, 3, 99, 180.4176635742188
0, 3, 100, 176.9399719238281
0, 3, 101, 197.4918823242188
0, 3, 102, 195.4375610351562
0, 3, 103, 193.4701843261719
0, 3, 104, 203.6792144775391
0, 3, 105, 175.4638061523438
0, 3, 106, 182.0252532958984
0, 3, 107, 171.4136657714844
0, 3, 108, 107.6258163452148
0, 3, 109, 28.98210716247559
0, 3, 110, 8.194638252258301
0, 3, 111, 6.499490737915039
0, 3, 112, 2.777745723724365
0, 3, 113, 8.140199661254883
0, 3, 114, 4.774062156677246
0, 3, 115, 4.973605632781982
0, 3, 116, 5.446616649627686
0, 3, 117, 4.8136887550354
0, 3, 118, 3.450624465942383
0, 3, 119, 2.2216796875
0, 3, 120, 3.373125553131104
0, 3, 121, 1.600504159927368
0, 3, 122, 2.770193099975586
0, 3, 123, 1.915945291519165
0, 3, 124, 2.241581678390503
0, 3, 125, 1.335462689399719
0, 3, 126, 1.237458944320679
0, 3, 127, 1.008998036384583
0, 4, 0, 2.478378534317017
0, 4, 1, 1.555037498474121
0, 4, 2, 2.30286693572998
0, 4, 3, 4.542227268218994
0, 4, 4, 1.684507846832275
0, 4, 5, 1.039852857589722
0, 4, 6, 2.876757383346558
0, 4, 7, 2.469217538833618
0, 4, 8, 1.670811653137207
0, 4, 9, 1.752967238426208
0, 4, 10, 5.135979175567627
0, 4, 11, 3.077954769134521
0, 4, 12, 3.018883943557739
0, 4, 13, 3.984744548797607
0, 4, 14, 4.125030040740967
0, 4, 15, 7.846405982971191
0, 4, 16, 6.747303009033203
0, 4, 17, 12.96446895599365
0, 4, 18, 53.50000381469727
0, 4, 19, 150.2294006347656
0, 4, 20, 193.0092010498047
0, 4, 21, 169.9916381835938
0, 4, 22, 187.1279602050781
0, 4, 23, 195.4282836914062
0, 4, 24, 192.3598175048828
0, 4, 25, 201.2011413574219
0, 4, 26, 183.0912475585938
0, 4, 27, 192.1248931884766
0, 4, 28, 179.6790161132812
0, 4, 29, 204.8973541259766
0, 4, 30, 195.7024078369141
0, 4, 31, 192.5276794433594
0, 4, 32, 210.1176452636719
0, 4, 33, 189.4328308105469
0, 4, 34, 194.1412506103516
0, 4, 35, 211.7617034912109
0, 4, 36, 192.4245452880859
0, 4, 37, 177.4916076660156
0, 4, 38, 196.0055541992188
0, 4, 39, 189.2472534179688
0, 4, 40, 185.0361022949219
0, 4, 41, 188.9903717041016
0, 4, 42, 206.6407012939453
0, 4, 43, 174.3197174072266
0, 4, 44, 183.3673858642578
0, 4, 45, 196.8958587646484
0, 4, 46, 185.8384552001953
0, 4, 47, 179.5296173095703
0, 4, 48, 185.7726135253906
0, 4, 49, 174.3153839111328
0, 4, 50, 187.5453643798828
0, 4, 51, 197.8073272705078
0, 4, 52, 224.0659790039062
0, 4, 53, 206.8566284179688
0, 4, 54, 191.3094329833984
0, 4, 55, 174.2497100830078
0, 4, 56, 190.4898986816406
0, 4, 57, 192.3461761474609
0, 4, 58, 187.6659851074219
0, 4, 59, 189.2118682861328
0, 4, 60, 194.9873352050781
0, 4, 61, 193.4666748046875
0, 4, 62, 189.4962463378906
0, 4, 63, 180.2585906982422
0, 4, 64, 212.2398834228516
0, 4, 65, 191.3447570800781
0, 4, 66, 202.4490966796875
0, 4, 67, 200.1626434326172
0, 4, 68, 200.8773803710938
0, 4, 69, 199.5513916015625
0, 4, 70, 203.9940643310547
0, 4, 71, 206.4523010253906
0, 4, 72, 216.2266387939453
0, 4, 73, 187.1687927246094
0, 4, 74, 181.8386993408203
0, 4, 75, 184.9780731201172
0, 4, 76, 190.2199249267578
0, 4, 77, 182.474365234375
0, 4, 78, 194.8214263916016
0, 4, 79, 205.1569061279297
0, 4, 80, 211.9329833984375
0, 4, 81, 198.7281188964844
0, 4, 82, 183.4564056396484
0, 4, 83, 168.2335205078125
0, 4, 84, 192.5411834716797
0, 4, 85, 195.6273956298828
0, 4, 86, 181.1616058349609
0, 4, 87, 182.7933349609375
0, 4, 88, 204.1280822753906
0, 4, 89, 188.0842437744141
0, 4, 90, 211.2242126464844
0, 4, 91, 189.5264587402344
0, 4, 92, 195.9319458007812
0, 4, 93, 197.9683227539062
0, 4, 94, 183.6063232421875
0, 4, 95, 173.9453887939453
0, 4, 96, 190.4668426513672
0, 4, 97, 193.4288177490234
0, 4, 98, 200.9987640380859
0, 4, 99, 183.7133331298828
0, 4, 100, 183.1525421142578
0, 4, 101, 179.2592926025391
0, 4, 102, 171.8950347900391
0, 4, 103, 184.796142578125
0, 4, 104, 209.4854278564453
0, 4, 105, 189.9032897949219
0, 4, 106, 178.9859008789062
0, 4, 107, 180.9169616699219
0, 4, 108, 152.7223815917969
0, 4, 109, 49.6695442199707
0, 4, 110, 11.45534515380859
0, 4, 111, 8.491332054138184
0, 4, 112, 6.743614673614502
0, 4, 113, 6.081261157989502
0, 4, 114, 6.938925743103027
0, 4, 115, 4.655557155609131
0, 4, 116, 5.996719360351562
0, 4, 117, 2.456508159637451
0, 4, 118, 3.165551900863647
0, 4, 119, 4.058604717254639
0, 4, 120, 2.491753339767456
0, 4, 121, 2.137943506240845
0, 4, 122, 2.068276405334473
0, 4, 123, 3.430359125137329
0, 4, 124, 4.617342472076416
0, 4, 125, 3.314441442489624
0, 4, 126, 3.06615161895752
0, 4, 127, 1.539736270904541
0, 5, 0, 1.835699439048767
0, 5, 1, 3.729030132293701
0, 5, 2, 5.069677829742432
0, 5, 3, 4.70850658416748
0, 5, 4, 1.900526762008667
0, 5, 5, 1.259002685546875
0, 5, 6, 2.619215488433838
0, 5, 7, 2.812684297561646
0, 5, 8, 2.809682846069336
0, 5, 9, 2.608754634857178
0, 5, 10, 3.336591958999634
0, 5, 11, 5.563363552093506
0, 5, 12, 2.72533392906189
0, 5, 13, 3.378962993621826
0, 5, 14, 4.701473236083984
0, 5, 15, 7.831402778625488
0, 5, 16, 7.366502285003662
0, 5, 17, 20.85462760925293
0, 5, 18, 82.72978210449219
0, 5, 19, 164.2291717529297
0, 5, 20, 184.1676330566406
0, 5, 21, 179.0077972412109
0, 5, 22, 171.4457855224609
0, 5, 23, 200.4636688232422
0, 5, 24, 186.9498748779297
0, 5, 25, 209.5833740234375
0, 5, 26, 183.3172454833984
0, 5, 27, 193.9962005615234
0, 5, 28, 188.8025360107422
0, 5, 29, 195.6228332519531
0, 5, 30, 177.151611328125
0, 5, 31, 179.9439697265625
0, 5, 32, 186.1455535888672
0, 5, 33, 168.7686309814453
0, 5, 34, 196.2672576904297
0, 5, 35, 199.0946502685547
0, 5, 36, 167.9058380126953
0, 5, 37, 196.9123229980469
0, 5, 38, 180.3014068603516
0, 5, 39, 186.8256683349609
0, 5, 40, 195.7823028564453
0, 5, 41, 177.0575103759766
0, 5, 42, 187.8641357421875
0, 5, 43, 192.7996063232422
0, 5, 44, 200.0139312744141
0, 5, 45, 188.6194152832031
0, 5, 46, 193.0060882568359
0, 5, 47, 180.8429260253906
0, 5, 48, 179.7151489257812
0, 5, 49, 177.8099060058594
0, 5, 50, 185.3692016601562
0, 5, 51, 172.3981170654297
0, 5, 52, 167.6399383544922
0, 5, 53, 182.1719818115234
0, 5, 54, 171.9715118408203
0, 5, 55, 215.4284973144531
0, 5, 56, 181.2984466552734
0, 5, 57, 206.7698364257812
0, 5, 58, 180.4740295410156
0, 5, 59, 180.9770812988281
0, 5, 60, 217.7504119873047
0, 5, 61, 185.5359954833984
0, 5, 62, 179.1086120605469
0, 5, 63, 180.4584045410156
0, 5, 64, 196.3945922851562
0, 5, 65, 210.0243072509766
0, 5, 66, 193.2365875244141
0, 5, 67, 197.7001495361328
0, 5, 68, 186.9100952148438
0, 5, 69, 185.0598754882812
0, 5, 70, 186.7189788818359
0, 5, 71, 192.9547882080078
0, 5, 72, 197.1732025146484
0, 5, 73, 201.2681427001953
0, 5, 74, 178.8354034423828
0, 5, 75, 202.4676361083984
0, 5, 76, 220.4552917480469
0, 5, 77, 181.2567596435547
0, 5, 78, 194.0510559082031
0, 5, 79, 189.8634490966797
0, 5, 80, 198.0255432128906
0, 5, 81, 204.6031188964844
0, 5, 82, 201.1269378662109
0, 5, 83, 190.2209320068359
0, 5, 84, 205.7064208984375
0, 5, 85, 176.4761047363281
0, 5, 86, 194.8517150878906
0, 5, 87, 189
0, 5, 88, 176.8466491699219
0, 5, 89, 194.1227416992188
0, 5, 90, 199.1353607177734
0, 5, 91, 194.1338958740234
0, 5, 92, 190.6313323974609
0, 5, 93, 191.1985626220703
0, 5, 94, 207.5171966552734
0, 5, 95, 177.2565307617188
0, 5, 96, 181.7799224853516
0, 5, 97, 191.4869689941406
0, 5, 98, 188.3790588378906
0, 5, 99, 194.5819854736328
0, 5, 100, 185.8538818359375
0, 5, 101, 194.9870300292969
0, 5, 102, 181.1582183837891
0, 5, 103, 176.2376098632812
0, 5, 104, 190.6808929443359
0, 5, 105, 189.8665008544922
0, 5, 106, 180.6173400878906
0, 5, 107, 181.5385437011719
0, 5, 108, 177.9312438964844
0, 5, 109, 88.48001098632812
0, 5, 110, 31.06094932556152
0, 5, 111, 8.913318634033203
0, 5, 112, 6.316831111907959
0, 5, 113, 6.261308670043945
0, 5, 114, 5.900248050689697
0, 5, 115, 5.786050319671631
0, 5, 116, 5.134016990661621
0, 5, 117, 4.026089668273926
0, 5, 118, 3.452594757080078
0, 5, 119, 2.737302303314209
0, 5, 120, 2.713653564453125
0, 5, 121, 1.500431895256042
0, 5, 122, 2.605672359466553
0, 5, 123, 4.251891136169434
0, 5, 124, 5.141097068786621
0, 5, 125, 1.356285929679871
0, 5, 126, 2.995083570480347
0, 5, 127, 2.242833852767944
0, 6, 0, 4.676626205444336
0, 6, 1, 3.798440933227539
0, 6, 2, 4.384183883666992
0, 6, 3, 2.257992506027222
0, 6, 4, 4.516170024871826
0, 6, 5, 3.856711864471436
0, 6, 6, 2.848293542861938
0, 6, 7, 4.06782054901123
0, 6, 8, 4.169355869293213
0, 6, 9, 4.415742874145508
0, 6, 10, 5.758006572723389
0, 6, 11, 3.867471694946289
0, 6, 12, 4.689303398132324
0, 6, 13, 6.831847190856934
0, 6, 14, 5.385724544525146
0, 6, 15, 9.28901195526123
0, 6, 16, 14.76629066467285
0, 6, 17, 29.9284553527832
0, 6, 18, 113.2857894897461
0, 6, 19, 191.588623046875
0, 6, 20, 196.5941925048828
0, 6, 21, 198.1876068115234
0, 6, 22, 190.2446899414062
0, 6, 23, 190.5855712890625
0, 6, 24, 200.8850860595703
0, 6, 25, 181.4032287597656
0, 6, 26, 186.8393096923828
0, 6, 27, 191.5634155273438
0, 6, 28, 190.1098937988281
0, 6, 29, 211.1691436767578
0, 6, 30, 190.8694000244141
0, 6, 31, 192.6006927490234
0, 6, 32, 206.4274444580078
0, 6, 33, 183.6805114746094
0, 6, 34, 196.7042541503906
0, 6, 35, 187.3226928710938
0, 6, 36, 181.3248748779297
0, 6, 37, 182.5724639892578
0, 6, 38, 185.001220703125
0, 6, 39, 195.0321502685547
0, 6, 40, 176.1436309814453
0, 6, 41, 185.0053100585938
0, 6, 42, 173.5094909667969
0, 6, 43, 209.8360137939453
0, 6, 44, 209.6156311035156
0, 6, 45, 193.4113464355469
0, 6, 46, 188.8898010253906
0, 6, 47, 204.2302856445312
0, 6, 48, 189.5140228271484
0, 6, 49, 178.9263763427734
0, 6, 50, 182.1397094726562
0, 6, 51, 197.8834838867188
0, 6, 52, 197.4156951904297
0, 6, 53, 185.5773773193359
0, 6, 54, 175.4774627685547
0, 6, 55, 195.8208160400391
0, 6, 56, 202.9051513671875
0, 6, 57, 190.3422088623047
0, 6, 58, 179.266357421875
0, 6, 59, 191.67333984375
0, 6, 60, 184.2976989746094
0, 6, 61, 194.1390228271484
0, 6, 62, 197.1289825439453
0, 6, 63, 186.2517395019531
0, 6, 64, 168.0543670654297
0, 6, 65, 187.9302215576172
0, 6, 66, 197.8730163574219
0, 6, 67, 213.4369812011719
0, 6, 68, 180.0009155273438
0, 6, 69, 170.5073547363281
0, 6, 70, 188.0928039550781
0, 6, 71, 169.8837585449219
0, 6, 72, 175.7048492431641
0, 6, 73, 176.9351654052734
0, 6, 74, 211.5907745361328
0, 6, 75, 229.8489837646484
0, 6, 76, 183.8654479980469
0, 6, 77, 172.8829345703125
0, 6, 78, 175.4545593261719
0, 6, 79, 186.2303619384766
0, 6, 80, 187.8544006347656
0, 6, 81, 208.6223754882812
0, 6, 82, 195.6880798339844
0, 6, 83, 194.5151672363281
0, 6, 84, 197.7015075683594
0, 6, 85, 181.3350982666016
0, 6, 86, 202.8471221923828
0, 6, 87, 184.0972595214844
0, 6, 88, 192.5082702636719
0, 6, 89, 188.6565246582031
0, 6, 90, 205.2880859375
0, 6, 91, 200.9907989501953
0, 6, 92, 173.2572326660156
0, 6, 93, 192.6482696533203
0, 6, 94, 190.8204650878906
0, 6, 95, 185.1014251708984
0, 6, 96, 188.3280792236328
0, 6, 97, 195.0712432861328
0, 6, 98, 183.1547546386719
0, 6, 99, 175.6927490234375
0, 6, 100, 202.9536590576172
0, 6, 101, 168.4015808105469
0, 6, 102, 201.8282318115234
0, 6, 103, 196.9001770019531
0, 6, 104, 186.2322998046875
0, 6, 105, 193.5803985595703
0, 6, 106, 176.5646362304688
0, 6, 107, 195.1808319091797
0, 6, 108, 171.3479919433594
0, 6, 109, 114.6952972412109
0, 6, 110, 33.51431274414062
0, 6, 111, 9.236645698547363
0, 6, 112, 9.626632690429688
0, 6, 113, 4.983817100524902
0, 6, 114, 5.483987808227539
0, 6, 115, 4.140431880950928
0, 6, 116, 4.509131908416748
0, 6, 117, 2.991942405700684
0, 6, 118, 3.335493087768555
0, 6, 119, 4.986202239990234
0, 6, 120, 1.898073196411133
0, 6, 121, 3.39037561416626
0, 6, 122, 4.081295967102051
0, 6, 123, 2.678555488586426
0, 6, 124, 2.280346870422363
0, 6, 125, 2.865322589874268
0, 6, 126, 2.075916528701782
0, 6, 127, 2.52698278427124
0, 7, 0, 3.815257787704468
0, 7, 1, 2.448243856430054
0, 7, 2, 1.301933526992798
0, 7, 3, 3.708674669265747
0, 7, 4, 3.145368576049805
0, 7, 5, 3.350781917572021
0, 7, 6, 2.583656787872314
0, 7, 7, 2.300615787506104
0, 7, 8, 4.942286491394043
0, 7, 9, 3.984728813171387
0, 7, 10, 5.197020053863525
0, 7, 11, 3.975008964538574
0, 7, 12, 3.83165168762207
0, 7, 13, 6.446969509124756
0, 7, 14, 6.326360702514648
0, 7, 15, 7.871573925018311
0, 7, 16, 14.58215618133545
0, 7, 17, 50.37823486328125
0, 7, 18, 162.3550109863281
0, 7, 19, 184.2887268066406
0, 7, 20, 180.1419830322266
0, 7, 21, 181.4210510253906
0, 7, 22, 192.8716278076172
0, 7, 23, 202.7783203125
0, 7, 24, 180.2754211425781
0, 7, 25, 211.9847106933594
0, 7, 26, 190.5762786865234
0, 7, 27, 182.0888519287109
0, 7, 28, 182.6950378417969
0, 7, 29, 209.7267150878906
0, 7, 30, 193.2206878662109
0, 7, 31, 176.2220306396484
0, 7, 32, 189.2897644042969
0, 7, 33, 181.2794342041016
0, 7, 34, 193.2426605224609
0, 7, 35, 196.3922271728516
0, 7, 36, 187.7728424072266
0, 7, 37, 212.9917602539062
0, 7, 38, 191.8124389648438
0, 7, 39, 173.2393951416016
0, 7, 40, 184.3734893798828
0, 7, 41, 184.8337860107422
0, 7, 42, 177.4698181152344
0, 7, 43, 178.4201049804688
0, 7, 44, 179.5357513427734
0, 7, 45, 175.3701934814453
0, 7, 46, 189.9286804199219
0, 7, 47, 198.0169982910156
0, 7, 48, 187.518798828125
0, 7, 49, 198.9983520507812
0, 7, 50, 187.7383728027344
0, 7, 51, 205.8278503417969
0, 7, 52, 204.0567169189453
0, 7, 53, 192.0302581787109
0, 7, 54, 196.4303131103516
0, 7, 55, 203.9770050048828
0, 7, 56, 182.8737335205078
0, 7, 57, 183.3208465576172
0, 7, 58, 193.8495941162109
0, 7, 59, 186.8564910888672
0, 7, 60, 202.6722564697266
0, 7, 61, 171.4141540527344
0, 7, 62, 203.6964721679688
0, 7, 63, 188.7771911621094
0, 7, 64, 199.4995269775391
0, 7, 65, 195.0270690917969
0, 7, 66, 205.4829406738281
0, 7, 67, 222.6835632324219
0, 7, 68, 162.3700103759766
0, 7, 69, 196.1068572998047
0, 7, 70, 217.2759857177734
0, 7, 71, 184.7515869140625
0, 7, 72, 182.5662689208984
0, 7, 73, 177.7991485595703
0, 7, 74, 208.1775207519531
0, 7, 75, 205.4661712646484
0, 7, 76, 214.6241455078125
0, 7, 77, 174.6526947021484
0, 7, 78, 176.7433471679688
0, 7, 79, 193.8261566162109
0, 7, 80, 197.2839050292969
0, 7, 81, 214.2812805175781
0, 7, 82, 184.8715667724609
0, 7, 83, 205.8073883056641
0, 7, 84, 193.0936584472656
0, 7, 85, 187.8716125488281
0, 7, 86, 201.7542114257812
0, 7, 87, 225.5366668701172
0, 7, 88, 194.4878234863281
0, 7, 89, 178.924560546875
0, 7, 90, 182.3562469482422
0, 7, 91, 194.1404266357422
0, 7, 92, 193.4397735595703
0, 7, 93, 198.4705657958984
0, 7, 94, 176.6839599609375
0, 7, 95, 197.9289398193359
0, 7, 96, 208.1971282958984
0, 7, 97, 190.0658416748047
0, 7, 98, 176.8334503173828
0, 7, 99, 197.8407592773438
0, 7, 100, 182.3148345947266
0, 7, 101, 199.8508758544922
0, 7, 102, 184.8638153076172
0, 7, 103, 181.1070251464844
0, 7, 104, 174.8404541015625
0, 7, 105, 194.8193359375
0, 7, 106, 204.7705230712891
0, 7, 107, 174.5191802978516
0, 7, 108, 176.7219696044922
0, 7, 109, 136.8282623291016
0, 7, 110, 54.67265701293945
0, 7, 111, 8.504684448242188
0, 7, 112, 7.639302730560303
0, 7, 113, 9.689855575561523
0, 7, 114, 6.421140193939209
0, 7, 115, 6.320593357086182
0, 7, 116, 7.401882648468018
0, 7, 117, 3.269756555557251
0, 7, 118, 4.361300945281982
0, 7, 119, 3.417066335678101
0, 7, 120, 2.494663953781128
0, 7, 121, 2.486196517944336
0, 7, 122, 2.226784467697144
0, 7, 123, 1.108507513999939
0, 7, 124, 1.258231043815613
0, 7, 125, 2.978437900543213
0, 7, 126, 2.555583000183105
0, 7, 127, 1.36204731464386
0, 8, 0, 5.187280654907227
0, 8, 1, 2.680189371109009
0, 8, 2, 2.765414953231812
0, 8, 3, 2.82335352897644
0, 8, 4, 2.009096145629883
0, 8, 5, 6.123118877410889
0, 8, 6, 2.68571949005127
0, 8, 7, 3.111652851104736
0, 8, 8, 4.286003112792969
0, 8, 9, 3.232633590698242
0, 8, 10, 2.729114770889282
0, 8, 11, 5.661916732788086
0, 8, 12, 4.916866302490234
0, 8, 13, 4.436110019683838
0, 8, 14, 6.376859664916992
0, 8, 15, 8.307756423950195
0, 8, 16, 19.25871849060059
0, 8, 17, 76.34712982177734
0, 8, 18, 142.2684631347656
0, 8, 19, 179.1878204345703
0, 8, 20, 190.9768371582031
0, 8, 21, 193.6067199707031
0, 8, 22, 178.785400390625
0, 8, 23, 172.9947967529297
0, 8, 24, 192.0222625732422
0, 8, 25, 185.4108734130859
0, 8, 26, 192.3948364257812
0, 8, 27, 187.8745574951172
0, 8, 28, 186.7441711425781
0, 8, 29, 207.6589813232422
0, 8, 30, 195.9966125488281
0, 8, 31, 183.3203735351562
0, 8, 32, 197.4718780517578
0, 8, 33, 206.8191680908203
0, 8, 34, 203.455322265625
0, 8, 35, 185.9334564208984
0, 8, 36, 181.8114471435547
