# TOPAS Version: 3.1.p3
# Parameter File: batch_inserts_46.txt
# Results for scorer Readout_Adipose
# Scored in component: MyBox
# X in 1 bin  of 0.65 cm
# Y in 512 bins of 0.0783984 cm
# Z in 128 bins of 0.078125 cm
# EnergyDeposit ( MeV ) : Sum   
0, 0, 0, 1.069184899330139
0, 0, 1, 3.402527570724487
0, 0, 2, 1.160408616065979
0, 0, 3, 1.368635058403015
0, 0, 4, 2.037636280059814
0, 0, 5, 0.7112036943435669
0, 0, 6, 2.065461158752441
0, 0, 7, 1.505800724029541
0, 0, 8, 2.168564319610596
0, 0, 9, 2.714192152023315
0, 0, 10, 1.6846022605896
0, 0, 11, 3.776615381240845
0, 0, 12, 5.229685306549072
0, 0, 13, 1.80071759223938
0, 0, 14, 5.110555648803711
0, 0, 15, 5.582819938659668
0, 0, 16, 3.277531385421753
0, 0, 17, 6.790069103240967
0, 0, 18, 6.793705940246582
0, 0, 19, 23.69456672668457
0, 0, 20, 93.38795471191406
0, 0, 21, 151.7471008300781
0, 0, 22, 154.2160034179688
0, 0, 23, 143.6334991455078
0, 0, 24, 159.9136047363281
0, 0, 25, 167.6569213867188
0, 0, 26, 166.8271789550781
0, 0, 27, 175.6456604003906
0, 0, 28, 177.6592102050781
0, 0, 29, 175.4842529296875
0, 0, 30, 173.2308349609375
0, 0, 31, 165.7566528320312
0, 0, 32, 164.3233337402344
0, 0, 33, 167.2035675048828
0, 0, 34, 176.9797515869141
0, 0, 35, 173.5829315185547
0, 0, 36, 159.56884765625
0, 0, 37, 161.7508087158203
0, 0, 38, 166.5045166015625
0, 0, 39, 159.0254669189453
0, 0, 40, 164.0298614501953
0, 0, 41, 165.8603210449219
0, 0, 42, 143.3954620361328
0, 0, 43, 169.4468688964844
0, 0, 44, 178.4152984619141
0, 0, 45, 173.3047027587891
0, 0, 46, 168.0087127685547
0, 0, 47, 168.1969299316406
0, 0, 48, 169.5478973388672
0, 0, 49, 183.95654296875
0, 0, 50, 168.6494750976562
0, 0, 51, 162.3568572998047
0, 0, 52, 162.6436614990234
0, 0, 53, 170.8121032714844
0, 0, 54, 159.7131805419922
0, 0, 55, 164.6251525878906
0, 0, 56, 189.0267944335938
0, 0, 57, 170.4666290283203
0, 0, 58, 161.3823699951172
0, 0, 59, 172.7319488525391
0, 0, 60, 169.5455780029297
0, 0, 61, 170.0741424560547
0, 0, 62, 183.0111389160156
0, 0, 63, 168.9378662109375
0, 0, 64, 163.7789764404297
0, 0, 65, 174.6441650390625
0, 0, 66, 178.0202789306641
0, 0, 67, 165.5071716308594
0, 0, 68, 159.2499084472656
0, 0, 69, 159.5207366943359
0, 0, 70, 169.6649017333984
0, 0, 71, 160.0704193115234
0, 0, 72, 163.0157470703125
0, 0, 73, 171.4911804199219
0, 0, 74, 161.9294281005859
0, 0, 75, 163.7813720703125
0, 0, 76, 163.5484619140625
0, 0, 77, 172.4864654541016
0, 0, 78, 181.8428802490234
0, 0, 79, 175.2217407226562
0, 0, 80, 159.3685913085938
0, 0, 81, 160.4040679931641
0, 0, 82, 181.6390533447266
0, 0, 83, 174.4479370117188
0, 0, 84, 159.7987365722656
0, 0, 85, 181.5531616210938
0, 0, 86, 157.8506011962891
0, 0, 87, 177.6970672607422
0, 0, 88, 176.7077789306641
0, 0, 89, 177.1250762939453
0, 0, 90, 160.52978515625
0, 0, 91, 183.9084320068359
0, 0, 92, 163.6949768066406
0, 0, 93, 155.3124084472656
0, 0, 94, 169.0393524169922
0, 0, 95, 172.9949951171875
0, 0, 96, 183.4909820556641
0, 0, 97, 182.8652191162109
0, 0, 98, 186.4738159179688
0, 0, 99, 171.3387298583984
0, 0, 100, 158.2194976806641
0, 0, 101, 166.5173187255859
0, 0, 102, 170.3970489501953
0, 0, 103, 170.3266296386719
0, 0, 104, 168.1531982421875
0, 0, 105, 178.7699432373047
0, 0, 106, 158.9371948242188
0, 0, 107, 86.62137603759766
0, 0, 108, 22.01507949829102
0, 0, 109, 9.6990966796875
0, 0, 110, 5.074451923370361
0, 0, 111, 6.495659828186035
0, 0, 112, 3.472569704055786
0, 0, 113, 2.714637517929077
0, 0, 114, 2.817921876907349
0, 0, 115, 4.32223653793335
0, 0, 116, 1.516496181488037
0, 0, 117, 3.772282123565674
0, 0, 118, 1.995880126953125
0, 0, 119, 2.139544486999512
0, 0, 120, 1.717396974563599
0, 0, 121, 3.700203418731689
0, 0, 122, 5.36674690246582
0, 0, 123, 6.017553806304932
0, 0, 124, 1.368640065193176
0, 0, 125, 1.71364438533783
0, 0, 126, 2.338931083679199
0, 0, 127, 1.765123605728149
0, 1, 0, 1.187213540077209
0, 1, 1, 2.942962884902954
0, 1, 2, 4.895551204681396
0, 1, 3, 1.338626027107239
0, 1, 4, 0.3549923300743103
0, 1, 5, 1.025739908218384
0, 1, 6, 1.712022066116333
0, 1, 7, 1.759726405143738
0, 1, 8, 3.270027160644531
0, 1, 9, 1.416165947914124
0, 1, 10, 2.478301763534546
0, 1, 11, 2.886253356933594
0, 1, 12, 2.96071195602417
0, 1, 13, 2.980288982391357
0, 1, 14, 6.243257999420166
0, 1, 15, 6.253514766693115
0, 1, 16, 8.801694869995117
0, 1, 17, 5.399223804473877
0, 1, 18, 11.05597496032715
0, 1, 19, 38.7802619934082
0, 1, 20, 126.0061645507812
0, 1, 21, 176.7054748535156
0, 1, 22, 193.6553955078125
0, 1, 23, 186.1431274414062
0, 1, 24, 179.9846649169922
0, 1, 25, 192.37451171875
0, 1, 26, 199.2985534667969
0, 1, 27, 186.373291015625
0, 1, 28, 188.0990905761719
0, 1, 29, 183.6789855957031
0, 1, 30, 179.4281921386719
0, 1, 31, 180.927734375
0, 1, 32, 188.8909912109375
0, 1, 33, 190.9385223388672
0, 1, 34, 183.1890411376953
0, 1, 35, 193.4149322509766
0, 1, 36, 205.5072784423828
0, 1, 37, 183.9183197021484
0, 1, 38, 165.3304748535156
0, 1, 39, 172.3000335693359
0, 1, 40, 179.574951171875
0, 1, 41, 186.1484680175781
0, 1, 42, 183.931640625
0, 1, 43, 184.8288726806641
0, 1, 44, 167.9271392822266
0, 1, 45, 186.1238250732422
0, 1, 46, 169.7409210205078
0, 1, 47, 185.0211639404297
0, 1, 48, 186.1771392822266
0, 1, 49, 189.0762329101562
0, 1, 50, 177.4398345947266
0, 1, 51, 190.8757171630859
0, 1, 52, 195.1327056884766
0, 1, 53, 197.2171783447266
0, 1, 54, 185.9487915039062
0, 1, 55, 165.4080505371094
0, 1, 56, 178.6220245361328
0, 1, 57, 177.6891784667969
0, 1, 58, 188.4998321533203
0, 1, 59, 193.5148468017578
0, 1, 60, 188.8767242431641
0, 1, 61, 178.3531341552734
0, 1, 62, 208.1916351318359
0, 1, 63, 173.9406433105469
0, 1, 64, 174.7454376220703
0, 1, 65, 184.6483306884766
0, 1, 66, 203.951416015625
0, 1, 67, 183.2644805908203
0, 1, 68, 187.2360229492188
0, 1, 69, 188.8896942138672
0, 1, 70, 185.2579498291016
0, 1, 71, 171.7351379394531
0, 1, 72, 189.0982513427734
0, 1, 73, 190.6352386474609
0, 1, 74, 201.1138610839844
0, 1, 75, 185.0624237060547
0, 1, 76, 174.0267028808594
0, 1, 77, 192.6494598388672
0, 1, 78, 187.3233947753906
0, 1, 79, 201.7180786132812
0, 1, 80, 188.6331787109375
0, 1, 81, 174.4025421142578
0, 1, 82, 208.1360931396484
0, 1, 83, 211.95166015625
0, 1, 84, 179.8249206542969
0, 1, 85, 169.53271484375
0, 1, 86, 167.79345703125
0, 1, 87, 184.2577362060547
0, 1, 88, 175.8711090087891
0, 1, 89, 187.0294494628906
0, 1, 90, 212.5072784423828
0, 1, 91, 181.5848846435547
0, 1, 92, 184.6864624023438
0, 1, 93, 180.2905883789062
0, 1, 94, 188.2302856445312
0, 1, 95, 181.9324798583984
0, 1, 96, 196.8183288574219
0, 1, 97, 183.2732238769531
0, 1, 98, 186.7701263427734
0, 1, 99, 175.6681213378906
0, 1, 100, 172.3309020996094
0, 1, 101, 178.0134887695312
0, 1, 102, 181.8244781494141
0, 1, 103, 172.8529205322266
0, 1, 104, 189.6529998779297
0, 1, 105, 181.6196746826172
0, 1, 106, 164.2796936035156
0, 1, 107, 124.0288925170898
0, 1, 108, 45.48101043701172
0, 1, 109, 9.74790096282959
0, 1, 110, 7.480582714080811
0, 1, 111, 6.336949825286865
0, 1, 112, 7.423189163208008
0, 1, 113, 6.865143775939941
0, 1, 114, 4.559320449829102
0, 1, 115, 5.260983467102051
0, 1, 116, 2.916328191757202
0, 1, 117, 1.948554396629333
0, 1, 118, 2.850788593292236
0, 1, 119, 2.236553430557251
0, 1, 120, 3.983052015304565
0, 1, 121, 3.605765342712402
0, 1, 122, 2.170450687408447
0, 1, 123, 2.421610832214355
0, 1, 124, 2.04200291633606
0, 1, 125, 2.907191276550293
0, 1, 126, 1.457120060920715
0, 1, 127, 3.896052122116089
0, 2, 0, 0.6059277057647705
0, 2, 1, 2.50115704536438
0, 2, 2, 2.37744665145874
0, 2, 3, 1.87033212184906
0, 2, 4, 0.949657142162323
0, 2, 5, 0.9774231314659119
0, 2, 6, 2.551626920700073
0, 2, 7, 2.08197021484375
0, 2, 8, 1.35342812538147
0, 2, 9, 3.377861022949219
0, 2, 10, 4.5245680809021
0, 2, 11, 3.712875604629517
0, 2, 12, 3.177910089492798
0, 2, 13, 6.026986122131348
0, 2, 14, 4.277016639709473
0, 2, 15, 9.351248741149902
0, 2, 16, 5.357507228851318
0, 2, 17, 8.66753101348877
0, 2, 18, 15.28877925872803
0, 2, 19, 76.40560913085938
0, 2, 20, 162.7322540283203
0, 2, 21, 182.7310180664062
0, 2, 22, 194.1417694091797
0, 2, 23, 183.9516906738281
0, 2, 24, 175.4230194091797
0, 2, 25, 184.0292205810547
0, 2, 26, 180.6388854980469
0, 2, 27, 190.6679229736328
0, 2, 28, 171.188720703125
0, 2, 29, 169.0923461914062
0, 2, 30, 184.6981353759766
0, 2, 31, 181.75146484375
0, 2, 32, 184.1375579833984
0, 2, 33, 190.3594207763672
0, 2, 34, 199.2384338378906
0, 2, 35, 182.7838439941406
0, 2, 36, 187.8001708984375
0, 2, 37, 181.0027160644531
0, 2, 38, 183.2843780517578
0, 2, 39, 168.1487121582031
0, 2, 40, 185.3533477783203
0, 2, 41, 184.1402282714844
0, 2, 42, 188.9968872070312
0, 2, 43, 194.3969421386719
0, 2, 44, 190.9341125488281
0, 2, 45, 189.0006408691406
0, 2, 46, 195.8646545410156
0, 2, 47, 188.9178009033203
0, 2, 48, 177.7094268798828
0, 2, 49, 199.685546875
0, 2, 50, 170.4949493408203
0, 2, 51, 185.1587829589844
0, 2, 52, 186.3368072509766
0, 2, 53, 196.4387969970703
0, 2, 54, 174.9105224609375
0, 2, 55, 172.8229370117188
0, 2, 56, 180.7504730224609
0, 2, 57, 199.7924499511719
0, 2, 58, 186.3507232666016
0, 2, 59, 189.4721221923828
0, 2, 60, 197.4850311279297
0, 2, 61, 194.7877349853516
0, 2, 62, 190.8865661621094
0, 2, 63, 169.5731201171875
0, 2, 64, 192.1272277832031
0, 2, 65, 202.6789245605469
0, 2, 66, 196.2306976318359
0, 2, 67, 185.6265411376953
0, 2, 68, 182.8547515869141
0, 2, 69, 189.7401580810547
0, 2, 70, 204.5602111816406
0, 2, 71, 174.7778930664062
0, 2, 72, 187.2503509521484
0, 2, 73, 177.4758911132812
0, 2, 74, 180.8485565185547
0, 2, 75, 195.4002075195312
0, 2, 76, 183.1535034179688
0, 2, 77, 176.6494750976562
0, 2, 78, 199.1419830322266
0, 2, 79, 177.5845184326172
0, 2, 80, 187.7857055664062
0, 2, 81, 188.0268249511719
0, 2, 82, 206.3020629882812
0, 2, 83, 203.6892700195312
0, 2, 84, 188.5122528076172
0, 2, 85, 173.3853302001953
0, 2, 86, 195.9377899169922
0, 2, 87, 171.9136352539062
0, 2, 88, 178.5927124023438
0, 2, 89, 184.3676910400391
0, 2, 90, 177.5429840087891
0, 2, 91, 174.0301513671875
0, 2, 92, 196.3217163085938
0, 2, 93, 195.2117767333984
0, 2, 94, 198.7610778808594
0, 2, 95, 193.0477142333984
0, 2, 96, 185.50732421875
0, 2, 97, 171.6988372802734
0, 2, 98, 174.6575012207031
0, 2, 99, 161.8727264404297
0, 2, 100, 187.1260681152344
0, 2, 101, 196.7835083007812
0, 2, 102, 177.5787658691406
0, 2, 103, 199.1374053955078
0, 2, 104, 187.8939056396484
0, 2, 105, 199.6617126464844
0, 2, 106, 194.4595794677734
0, 2, 107, 149.0023345947266
0, 2, 108, 78.68511199951172
0, 2, 109, 18.05761528015137
0, 2, 110, 8.306696891784668
0, 2, 111, 6.843191146850586
0, 2, 112, 4.251005172729492
0, 2, 113, 4.528546333312988
0, 2, 114, 8.057645797729492
0, 2, 115, 5.231887817382812
0, 2, 116, 1.625527143478394
0, 2, 117, 1.389161944389343
0, 2, 118, 2.159317016601562
0, 2, 119, 3.76787281036377
0, 2, 120, 1.708351373672485
0, 2, 121, 3.40221095085144
0, 2, 122, 0.8350809812545776
0, 2, 123, 5.512895584106445
0, 2, 124, 2.845754384994507
0, 2, 125, 2.078166961669922
0, 2, 126, 2.742016553878784
0, 2, 127, 1.654801487922668
0, 3, 0, 1.474967956542969
0, 3, 1, 2.726311922073364
0, 3, 2, 2.157041311264038
0, 3, 3, 1.091221332550049
0, 3, 4, 3.736866235733032
0, 3, 5, 1.702558875083923
0, 3, 6, 0.9728334546089172
0, 3, 7, 2.029698133468628
0, 3, 8, 3.73216700553894
0, 3, 9, 2.731391668319702
0, 3, 10, 3.155574798583984
0, 3, 11, 3.879644870758057
0, 3, 12, 5.387601375579834
0, 3, 13, 4.3575758934021
0, 3, 14, 3.96616268157959
0, 3, 15, 6.190189838409424
0, 3, 16, 7.488508224487305
0, 3, 17, 6.724652290344238
0, 3, 18, 32.49370193481445
0, 3, 19, 115.1418685913086
0, 3, 20, 180.6626586914062
0, 3, 21, 172.4810180664062
0, 3, 22, 178.2760467529297
0, 3, 23, 188.5000152587891
0, 3, 24, 178.5208892822266
0, 3, 25, 168.8611297607422
0, 3, 26, 181.0054779052734
0, 3, 27, 190.3154449462891
0, 3, 28, 183.3936920166016
0, 3, 29, 197.0022125244141
0, 3, 30, 185.1538696289062
0, 3, 31, 193.2696990966797
0, 3, 32, 205.9245147705078
0, 3, 33, 195.9634857177734
0, 3, 34, 186.7978973388672
0, 3, 35, 175.1943054199219
0, 3, 36, 185.8154144287109
0, 3, 37, 199.6833648681641
0, 3, 38, 190.5187835693359
0, 3, 39, 184.3725128173828
0, 3, 40, 165.8683166503906
0, 3, 41, 174.6421661376953
0, 3, 42, 185.3551330566406
0, 3, 43, 181.4911346435547
0, 3, 44, 202.135009765625
0, 3, 45, 207.6175384521484
0, 3, 46, 199.1648712158203
0, 3, 47, 194.0680084228516
0, 3, 48, 196.4244537353516
0, 3, 49, 179.9085998535156
0, 3, 50, 186.7794952392578
0, 3, 51, 174.5433807373047
0, 3, 52, 188.2965393066406
0, 3, 53, 177.8168640136719
0, 3, 54, 179.7591094970703
0, 3, 55, 177.7751159667969
0, 3, 56, 181.6667785644531
0, 3, 57, 175.3766174316406
0, 3, 58, 200.7919158935547
0, 3, 59, 195.6710968017578
0, 3, 60, 185.6339111328125
0, 3, 61, 181.4196014404297
0, 3, 62, 181.4179840087891
0, 3, 63, 184.2904357910156
0, 3, 64, 191.1224975585938
0, 3, 65, 186.79052734375
0, 3, 66, 175.2293243408203
0, 3, 67, 190.0818023681641
0, 3, 68, 211.9401702880859
0, 3, 69, 190.0559997558594
0, 3, 70, 184.9444732666016
0, 3, 71, 196.59765625
0, 3, 72, 185.5437316894531
0, 3, 73, 186.2912902832031
0, 3, 74, 193.3292388916016
0, 3, 75, 192.6930694580078
0, 3, 76, 189.9982147216797
0, 3, 77, 198.9841003417969
0, 3, 78, 188.4990539550781
0, 3, 79, 184.9321136474609
0, 3, 80, 189.7791442871094
0, 3, 81, 183.3485565185547
0, 3, 82, 179.8561706542969
0, 3, 83, 195.7315979003906
0, 3, 84, 199.0735168457031
0, 3, 85, 192.5007629394531
0, 3, 86, 203.8472290039062
0, 3, 87, 196.6536865234375
0, 3, 88, 190.8819885253906
0, 3, 89, 192.61328125
0, 3, 90, 173.5859832763672
0, 3, 91, 157.43994140625
0, 3, 92, 207.2414398193359
0, 3, 93, 196.2428588867188
0, 3, 94, 194.4237670898438
0, 3, 95, 211.8085479736328
0, 3, 96, 210.6444244384766
0, 3, 97, 167.5594177246094
0, 3, 98, 167.2386627197266
0, 3, 99, 179.4089965820312
0, 3, 100, 176.8025207519531
0, 3, 101, 198.1443634033203
0, 3, 102, 195.4135437011719
0, 3, 103, 193.5904083251953
0, 3, 104, 203.7378692626953
0, 3, 105, 175.484375
0, 3, 106, 180.951416015625
0, 3, 107, 169.3203125
0, 3, 108, 107.838249206543
0, 3, 109, 27.1601390838623
0, 3, 110, 7.297417163848877
0, 3, 111, 6.682325839996338
0, 3, 112, 5.327720165252686
0, 3, 113, 6.643703937530518
0, 3, 114, 5.016849517822266
0, 3, 115, 6.803715229034424
0, 3, 116, 5.241547107696533
0, 3, 117, 3.591026306152344
0, 3, 118, 1.866954922676086
0, 3, 119, 2.810612916946411
0, 3, 120, 3.860162019729614
0, 3, 121, 2.726265430450439
0, 3, 122, 3.630275726318359
0, 3, 123, 1.260308742523193
0, 3, 124, 1.716223478317261
0, 3, 125, 1.226647615432739
0, 3, 126, 1.386067032814026
0, 3, 127, 1.080762147903442
0, 4, 0, 0.7851136922836304
0, 4, 1, 2.60133171081543
0, 4, 2, 2.16745400428772
0, 4, 3, 4.949366092681885
0, 4, 4, 3.186690330505371
0, 4, 5, 1.995751619338989
0, 4, 6, 2.983575582504272
0, 4, 7, 3.080777883529663
0, 4, 8, 2.990466356277466
0, 4, 9, 1.883525967597961
0, 4, 10, 2.582600355148315
0, 4, 11, 3.819737434387207
0, 4, 12, 4.721465587615967
0, 4, 13, 4.064702987670898
0, 4, 14, 4.570863246917725
0, 4, 15, 9.971261024475098
0, 4, 16, 6.708007335662842
0, 4, 17, 11.25924587249756
0, 4, 18, 55.45444869995117
0, 4, 19, 150.8552703857422
0, 4, 20, 193.2713775634766
0, 4, 21, 169.3657073974609
0, 4, 22, 187.876220703125
0, 4, 23, 196.7849884033203
0, 4, 24, 193.2392883300781
0, 4, 25, 199.2987823486328
0, 4, 26, 184.3192138671875
0, 4, 27, 192.3104553222656
0, 4, 28, 177.2187194824219
0, 4, 29, 205.1923980712891
0, 4, 30, 194.7059326171875
0, 4, 31, 193.0521850585938
0, 4, 32, 208.7815856933594
0, 4, 33, 189.5044860839844
0, 4, 34, 191.7887268066406
0, 4, 35, 212.2606048583984
0, 4, 36, 192.8928527832031
0, 4, 37, 176.6761474609375
0, 4, 38, 194.7419128417969
0, 4, 39, 189.7925415039062
0, 4, 40, 185.7539672851562
0, 4, 41, 188.7700653076172
0, 4, 42, 209.1522064208984
0, 4, 43, 175.0364990234375
0, 4, 44, 183.244873046875
0, 4, 45, 196.3555450439453
0, 4, 46, 185.4706420898438
0, 4, 47, 179.3155364990234
0, 4, 48, 188.1971893310547
0, 4, 49, 174.6667022705078
0, 4, 50, 186.5527038574219
0, 4, 51, 196.7587738037109
0, 4, 52, 223.6227111816406
0, 4, 53, 206.9721527099609
0, 4, 54, 189.5061645507812
0, 4, 55, 174.6458892822266
0, 4, 56, 190.3315734863281
0, 4, 57, 192.9166259765625
0, 4, 58, 187.1451721191406
0, 4, 59, 190.7795104980469
0, 4, 60, 196.3209991455078
0, 4, 61, 193.0211639404297
0, 4, 62, 190.6363830566406
0, 4, 63, 178.144775390625
0, 4, 64, 215.5869903564453
0, 4, 65, 192.2563018798828
0, 4, 66, 201.1686859130859
0, 4, 67, 199.0623168945312
0, 4, 68, 202.5522918701172
0, 4, 69, 201.7456512451172
0, 4, 70, 205.1818389892578
0, 4, 71, 206.4376983642578
0, 4, 72, 214.6658477783203
0, 4, 73, 185.9533843994141
0, 4, 74, 179.8574523925781
0, 4, 75, 185.2578735351562
0, 4, 76, 191.7173004150391
0, 4, 77, 184.9681854248047
0, 4, 78, 194.6326599121094
0, 4, 79, 204.4122161865234
0, 4, 80, 213.1467132568359
0, 4, 81, 197.6937866210938
0, 4, 82, 182.4054870605469
0, 4, 83, 169.83447265625
0, 4, 84, 194.0705871582031
0, 4, 85, 196.1083068847656
0, 4, 86, 180.5912628173828
0, 4, 87, 183.5699310302734
0, 4, 88, 203.8142700195312
0, 4, 89, 187.4541625976562
0, 4, 90, 211.8739318847656
0, 4, 91, 189.9576416015625
0, 4, 92, 196.0489654541016
0, 4, 93, 194.9564208984375
0, 4, 94, 181.9174041748047
0, 4, 95, 173.4819183349609
0, 4, 96, 189.9832153320312
0, 4, 97, 192.2732543945312
0, 4, 98, 200.7760772705078
0, 4, 99, 183.7201538085938
0, 4, 100, 183.5796966552734
0, 4, 101, 176.6656036376953
0, 4, 102, 173.3168182373047
0, 4, 103, 185.4624481201172
0, 4, 104, 209.656494140625
0, 4, 105, 190.843505859375
0, 4, 106, 180.5549468994141
0, 4, 107, 181.5823822021484
0, 4, 108, 152.1138916015625
0, 4, 109, 51.51072692871094
0, 4, 110, 11.41781425476074
0, 4, 111, 8.644262313842773
0, 4, 112, 6.104876041412354
0, 4, 113, 6.781638622283936
0, 4, 114, 4.509679794311523
0, 4, 115, 2.856032848358154
0, 4, 116, 4.711754322052002
0, 4, 117, 3.413267850875854
0, 4, 118, 3.561769723892212
0, 4, 119, 3.247143507003784
0, 4, 120, 2.633872032165527
0, 4, 121, 2.669507265090942
0, 4, 122, 2.43398904800415
0, 4, 123, 1.747929930686951
0, 4, 124, 3.957155227661133
0, 4, 125, 2.67363977432251
0, 4, 126, 1.334916472434998
0, 4, 127, 1.659306168556213
0, 5, 0, 2.010553121566772
0, 5, 1, 2.438462972640991
0, 5, 2, 5.718201637268066
0, 5, 3, 3.478307962417603
0, 5, 4, 2.693183898925781
0, 5, 5, 1.389063835144043
0, 5, 6, 2.124770164489746
0, 5, 7, 3.360422134399414
0, 5, 8, 2.355319499969482
0, 5, 9, 2.038437366485596
0, 5, 10, 3.710850238800049
0, 5, 11, 4.075833320617676
0, 5, 12, 4.423539161682129
0, 5, 13, 3.566868543624878
0, 5, 14, 5.735002040863037
0, 5, 15, 8.623274803161621
0, 5, 16, 7.663840770721436
0, 5, 17, 22.5212230682373
0, 5, 18, 82.45166778564453
0, 5, 19, 165.2375335693359
0, 5, 20, 183.1168060302734
0, 5, 21, 177.2940216064453
0, 5, 22, 170.9957733154297
0, 5, 23, 201.0569610595703
0, 5, 24, 187.2262268066406
0, 5, 25, 207.8205108642578
0, 5, 26, 182.4674987792969
0, 5, 27, 194.0318298339844
0, 5, 28, 190.2863464355469
0, 5, 29, 195.1422424316406
0, 5, 30, 177.1324462890625
0, 5, 31, 179.9017486572266
0, 5, 32, 187.0821228027344
0, 5, 33, 168.8747253417969
0, 5, 34, 196.4069061279297
0, 5, 35, 197.0366821289062
0, 5, 36, 169.3247680664062
0, 5, 37, 197.1849517822266
0, 5, 38, 181.5199279785156
0, 5, 39, 187.0871429443359
0, 5, 40, 197.0822906494141
0, 5, 41, 176.9917602539062
0, 5, 42, 186.9441680908203
0, 5, 43, 193.1721496582031
0, 5, 44, 200.5564727783203
0, 5, 45, 185.8778228759766
0, 5, 46, 193.33837890625
0, 5, 47, 181.8187103271484
0, 5, 48, 178.9454498291016
0, 5, 49, 177.2041931152344
0, 5, 50, 185.8341217041016
0, 5, 51, 171.1797485351562
0, 5, 52, 167.6886596679688
0, 5, 53, 181.6717681884766
0, 5, 54, 171.7938537597656
0, 5, 55, 215.5124664306641
0, 5, 56, 181.8443450927734
0, 5, 57, 207.8862457275391
0, 5, 58, 184.6678161621094
0, 5, 59, 180.3451538085938
0, 5, 60, 218.0169525146484
0, 5, 61, 185.1058349609375
0, 5, 62, 178.4031524658203
0, 5, 63, 181.1822814941406
0, 5, 64, 194.2736206054688
0, 5, 65, 209.5940093994141
0, 5, 66, 192.0686798095703
0, 5, 67, 198.8617401123047
0, 5, 68, 185.2529144287109
0, 5, 69, 185.1616668701172
0, 5, 70, 187.8177337646484
0, 5, 71, 193.3526153564453
0, 5, 72, 197.4267425537109
0, 5, 73, 201.3868103027344
0, 5, 74, 179.0670623779297
0, 5, 75, 205.1429443359375
0, 5, 76, 214.9466857910156
0, 5, 77, 180.0361785888672
0, 5, 78, 194.8879241943359
0, 5, 79, 189.9363098144531
0, 5, 80, 198.3180847167969
0, 5, 81, 204.6922454833984
0, 5, 82, 202.0138092041016
0, 5, 83, 188.7093811035156
0, 5, 84, 205.663330078125
0, 5, 85, 176.1179046630859
0, 5, 86, 195.3303833007812
0, 5, 87, 188.3446197509766
0, 5, 88, 177.1404113769531
0, 5, 89, 194.6288452148438
0, 5, 90, 198.5100250244141
0, 5, 91, 194.3813629150391
0, 5, 92, 191.0846405029297
0, 5, 93, 190.6202087402344
0, 5, 94, 207.3598327636719
0, 5, 95, 177.4647827148438
0, 5, 96, 182.2559204101562
0, 5, 97, 191.9692687988281
0, 5, 98, 188.4871368408203
0, 5, 99, 195.3063507080078
0, 5, 100, 188.2066192626953
0, 5, 101, 195.0644683837891
0, 5, 102, 181.8228149414062
0, 5, 103, 176.8265991210938
0, 5, 104, 190.8323822021484
0, 5, 105, 189.8735504150391
0, 5, 106, 176.6288909912109
0, 5, 107, 183.3446655273438
0, 5, 108, 176.5746307373047
0, 5, 109, 90.47820281982422
0, 5, 110, 29.84209632873535
0, 5, 111, 10.54631519317627
0, 5, 112, 6.266160011291504
0, 5, 113, 5.252023220062256
0, 5, 114, 4.966281414031982
0, 5, 115, 6.679966449737549
0, 5, 116, 5.964188575744629
0, 5, 117, 2.246826171875
0, 5, 118, 3.136509418487549
0, 5, 119, 3.189432144165039
0, 5, 120, 1.08053994178772
0, 5, 121, 1.237668633460999
0, 5, 122, 3.026302099227905
0, 5, 123, 4.137500762939453
0, 5, 124, 2.782896995544434
0, 5, 125, 0.8188647627830505
0, 5, 126, 1.677541851997375
0, 5, 127, 2.305593013763428
0, 6, 0, 3.609300851821899
0, 6, 1, 2.442817211151123
0, 6, 2, 2.984862565994263
0, 6, 3, 1.393736004829407
0, 6, 4, 3.693288326263428
0, 6, 5, 2.952045679092407
0, 6, 6, 2.929714441299438
0, 6, 7, 4.105009078979492
0, 6, 8, 3.914101839065552
0, 6, 9, 2.885032892227173
0, 6, 10, 4.531567573547363
0, 6, 11, 5.095036029815674
0, 6, 12, 3.66908073425293
0, 6, 13, 5.854818344116211
0, 6, 14, 5.118636131286621
0, 6, 15, 7.023591995239258
0, 6, 16, 13.92619228363037
0, 6, 17, 28.56583404541016
0, 6, 18, 112.4134140014648
0, 6, 19, 191.3692626953125
0, 6, 20, 197.3297576904297
0, 6, 21, 197.7570343017578
0, 6, 22, 191.0541839599609
0, 6, 23, 190.623779296875
0, 6, 24, 200.3897705078125
0, 6, 25, 180.7774353027344
0, 6, 26, 187.1412200927734
0, 6, 27, 191.4633331298828
0, 6, 28, 188.2586822509766
0, 6, 29, 212.4803924560547
0, 6, 30, 190.1300048828125
0, 6, 31, 192.2607727050781
0, 6, 32, 208.8354644775391
0, 6, 33, 183.9073333740234
0, 6, 34, 198.1421813964844
0, 6, 35, 187.293701171875
0, 6, 36, 180.1632385253906
0, 6, 37, 182.482177734375
0, 6, 38, 185.8835754394531
0, 6, 39, 195.2989196777344
0, 6, 40, 175.2662658691406
0, 6, 41, 185.1718292236328
0, 6, 42, 174.6317901611328
0, 6, 43, 210.4223327636719
0, 6, 44, 208.9049530029297
0, 6, 45, 194.5613250732422
0, 6, 46, 187.5038299560547
0, 6, 47, 203.8148345947266
0, 6, 48, 188.4639434814453
0, 6, 49, 179.4542388916016
0, 6, 50, 181.5872192382812
0, 6, 51, 195.9030151367188
0, 6, 52, 197.3085479736328
0, 6, 53, 184.0948944091797
0, 6, 54, 177.6187896728516
0, 6, 55, 194.5458068847656
0, 6, 56, 202.0724487304688
0, 6, 57, 191.85888671875
0, 6, 58, 179.8956604003906
0, 6, 59, 192.3215789794922
0, 6, 60, 184.9917907714844
0, 6, 61, 194.8040161132812
0, 6, 62, 196.9873046875
0, 6, 63, 188.3084869384766
0, 6, 64, 169.4906768798828
0, 6, 65, 187.6585235595703
0, 6, 66, 197.4085083007812
0, 6, 67, 213.8436431884766
0, 6, 68, 180.1771392822266
0, 6, 69, 170.4644927978516
0, 6, 70, 188.1733856201172
0, 6, 71, 171.1030120849609
0, 6, 72, 179.2041320800781
0, 6, 73, 176.4770355224609
0, 6, 74, 210.0879516601562
0, 6, 75, 227.8432769775391
0, 6, 76, 183.9820861816406
0, 6, 77, 174.5609588623047
0, 6, 78, 175.0529632568359
0, 6, 79, 186.8248596191406
0, 6, 80, 186.9900970458984
0, 6, 81, 209.0721588134766
0, 6, 82, 195.0761566162109
0, 6, 83, 196.7968902587891
0, 6, 84, 197.0595855712891
0, 6, 85, 183.1427154541016
0, 6, 86, 201.6148071289062
0, 6, 87, 183.5380249023438
0, 6, 88, 192.6019439697266
0, 6, 89, 188.2698059082031
0, 6, 90, 205.4935455322266
0, 6, 91, 199.87158203125
0, 6, 92, 174.4587554931641
0, 6, 93, 193.3221282958984
0, 6, 94, 189.0959167480469
0, 6, 95, 185.6750640869141
0, 6, 96, 188.9711151123047
0, 6, 97, 194.8302459716797
0, 6, 98, 182.9837646484375
0, 6, 99, 174.4802856445312
0, 6, 100, 201.2279968261719
0, 6, 101, 169.0526580810547
0, 6, 102, 202.4168395996094
0, 6, 103, 196.3342132568359
0, 6, 104, 183.3276824951172
0, 6, 105, 193.8233489990234
0, 6, 106, 177.0247497558594
0, 6, 107, 193.7738494873047
0, 6, 108, 171.2630004882812
0, 6, 109, 116.5147933959961
0, 6, 110, 34.57330703735352
0, 6, 111, 10.05499076843262
0, 6, 112, 8.065485954284668
0, 6, 113, 5.461330413818359
0, 6, 114, 6.427578926086426
0, 6, 115, 5.468203067779541
0, 6, 116, 3.889955759048462
0, 6, 117, 4.069519996643066
0, 6, 118, 3.207597732543945
0, 6, 119, 4.086475372314453
0, 6, 120, 2.348140716552734
0, 6, 121, 4.32073450088501
0, 6, 122, 2.822689771652222
0, 6, 123, 2.590044021606445
0, 6, 124, 2.414043188095093
0, 6, 125, 2.483157873153687
0, 6, 126, 1.777780771255493
0, 6, 127, 3.161009311676025
0, 7, 0, 3.282764434814453
0, 7, 1, 1.054720163345337
0, 7, 2, 4.651083469390869
0, 7, 3, 2.790501117706299
0, 7, 4, 1.548287987709045
0, 7, 5, 1.298134088516235
0, 7, 6, 2.634439706802368
0, 7, 7, 1.128671407699585
0, 7, 8, 3.098710536956787
0, 7, 9, 3.27129054069519
0, 7, 10, 5.211950778961182
0, 7, 11, 4.491186141967773
0, 7, 12, 4.757179260253906
0, 7, 13, 6.023303031921387
0, 7, 14, 6.553785800933838
0, 7, 15, 7.49525260925293
0, 7, 16, 15.66251564025879
0, 7, 17, 49.9253044128418
0, 7, 18, 160.974609375
0, 7, 19, 182.3384552001953
0, 7, 20, 179.5081787109375
0, 7, 21, 180.9989929199219
0, 7, 22, 192.2861480712891
0, 7, 23, 202.7520751953125
0, 7, 24, 179.8752593994141
0, 7, 25, 213.9174194335938
0, 7, 26, 189.4940643310547
0, 7, 27, 182.8682861328125
0, 7, 28, 182.1489410400391
0, 7, 29, 209.7784881591797
0, 7, 30, 192.6725311279297
0, 7, 31, 175.5628051757812
0, 7, 32, 190.4511108398438
0, 7, 33, 179.0892486572266
0, 7, 34, 193.5122375488281
0, 7, 35, 196.2997741699219
0, 7, 36, 187.7976531982422
0, 7, 37, 212.4190368652344
0, 7, 38, 191.1945648193359
0, 7, 39, 174.1373443603516
0, 7, 40, 182.899658203125
0, 7, 41, 185.3335723876953
0, 7, 42, 177.4043579101562
0, 7, 43, 177.6106262207031
0, 7, 44, 179.4749603271484
0, 7, 45, 173.3795776367188
0, 7, 46, 187.4670867919922
0, 7, 47, 197.804443359375
0, 7, 48, 184.8906555175781
0, 7, 49, 198.7733764648438
0, 7, 50, 187.8507690429688
0, 7, 51, 204.8710479736328
0, 7, 52, 203.9394073486328
0, 7, 53, 191.5585632324219
0, 7, 54, 195.7968444824219
0, 7, 55, 203.2487945556641
0, 7, 56, 183.1830596923828
0, 7, 57, 183.2673797607422
0, 7, 58, 192.230712890625
0, 7, 59, 187.8418273925781
0, 7, 60, 202.0393371582031
0, 7, 61, 170.5476226806641
0, 7, 62, 202.7600555419922
0, 7, 63, 188.3031311035156
0, 7, 64, 200.5256042480469
0, 7, 65, 196.0652923583984
0, 7, 66, 207.2126617431641
0, 7, 67, 219.6385040283203
0, 7, 68, 163.1559753417969
0, 7, 69, 195.5409088134766
0, 7, 70, 216.8734741210938
0, 7, 71, 183.5061340332031
0, 7, 72, 179.8276062011719
0, 7, 73, 176.7533416748047
0, 7, 74, 208.9076232910156
0, 7, 75, 203.5311126708984
0, 7, 76, 216.2824401855469
0, 7, 77, 173.5073699951172
0, 7, 78, 177.3843841552734
0, 7, 79, 192.449462890625
0, 7, 80, 195.2835235595703
0, 7, 81, 214.9852600097656
0, 7, 82, 184.0906372070312
0, 7, 83, 206.9105529785156
0, 7, 84, 195.3394317626953
0, 7, 85, 186.3605041503906
0, 7, 86, 200.1222229003906
0, 7, 87, 225.7957153320312
0, 7, 88, 195.4657440185547
0, 7, 89, 176.8552551269531
0, 7, 90, 182.2636413574219
0, 7, 91, 193.6257476806641
0, 7, 92, 194.9977111816406
0, 7, 93, 201.357421875
0, 7, 94, 177.1349182128906
0, 7, 95, 197.2157897949219
0, 7, 96, 208.0301818847656
0, 7, 97, 189.927734375
0, 7, 98, 177.6897125244141
0, 7, 99, 196.4061889648438
0, 7, 100, 181.8132934570312
0, 7, 101, 199.6491394042969
0, 7, 102, 184.8805847167969
0, 7, 103, 181.3076019287109
0, 7, 104, 175.1731262207031
0, 7, 105, 196.6847991943359
0, 7, 106, 205.2570953369141
0, 7, 107, 172.6513214111328
0, 7, 108, 176.8057403564453
0, 7, 109, 137.6063690185547
0, 7, 110, 54.90118408203125
0, 7, 111, 8.728658676147461
0, 7, 112, 7.839102268218994
0, 7, 113, 8.929807662963867
0, 7, 114, 7.556937217712402
0, 7, 115, 4.535054683685303
0, 7, 116, 4.523462772369385
0, 7, 117, 2.621586799621582
0, 7, 118, 3.34290599822998
0, 7, 119, 2.965701818466187
0, 7, 120, 4.718962669372559
0, 7, 121, 3.908066511154175
0, 7, 122, 3.087561130523682
0, 7, 123, 2.137864112854004
0, 7, 124, 1.623314499855042
0, 7, 125, 2.746967077255249
0, 7, 126, 4.2930006980896
0, 7, 127, 1.17232072353363
0, 8, 0, 3.778686285018921
0, 8, 1, 3.008362770080566
0, 8, 2, 3.349354028701782
0, 8, 3, 2.597981452941895
0, 8, 4, 1.0087890625
0, 8, 5, 2.788211107254028
0, 8, 6, 3.026859760284424
0, 8, 7, 2.545186281204224
0, 8, 8, 4.446730136871338
0, 8, 9, 6.013947010040283
0, 8, 10, 2.701160430908203
0, 8, 11, 1.973180055618286
0, 8, 12, 3.681438446044922
0, 8, 13, 4.995720386505127
0, 8, 14, 7.252610683441162
0, 8, 15, 8.003575325012207
0, 8, 16, 18.97158050537109
0, 8, 17, 76.73065948486328
0, 8, 18, 142.0496215820312
0, 8, 19, 178.4627685546875
0, 8, 20, 192.2173156738281
0, 8, 21, 193.9565124511719
0, 8, 22, 178.7904205322266
0, 8, 23, 172.3866424560547
0, 8, 24, 192.1846618652344
0, 8, 25, 185.9571685791016
0, 8, 26, 192.5639038085938
0, 8, 27, 185.7459106445312
0, 8, 28, 189.5762939453125
0, 8, 29, 206.6690216064453
0, 8, 30, 198.7614898681641
0, 8, 31, 182.3414459228516
0, 8, 32, 198.4765625
0, 8, 33, 206.6337585449219
0, 8, 34, 203.2354736328125
0, 8, 35, 184.5619964599609
0, 8, 36, 183.618896484375
0, 8, 37, 199.4292144775391
0, 8, 38, 197.3065490722656
