# TOPAS Version: 3.1.p3
# Parameter File: batch_inserts_238.txt
# Results for scorer Readout_Adipose
# Scored in component: MyBox
# X in 1 bin  of 0.65 cm
# Y in 512 bins of 0.0783984 cm
# Z in 128 bins of 0.078125 cm
# EnergyDeposit ( MeV ) : Sum   
0, 0, 0, 1.435076713562012
0, 0, 1, 3.352214336395264
0, 0, 2, 1.466382026672363
0, 0, 3, 1.827975511550903
0, 0, 4, 1.828768253326416
0, 0, 5, 1.504364728927612
0, 0, 6, 1.15319561958313
0, 0, 7, 2.466171264648438
0, 0, 8, 1.913409352302551
0, 0, 9, 3.026609659194946
0, 0, 10, 1.545474171638489
0, 0, 11, 3.10713267326355
0, 0, 12, 6.266683578491211
0, 0, 13, 1.821768045425415
0, 0, 14, 4.836923122406006
0, 0, 15, 5.773378849029541
0, 0, 16, 4.576818466186523
0, 0, 17, 6.031463146209717
0, 0, 18, 6.512710094451904
0, 0, 19, 22.69749450683594
0, 0, 20, 93.94940948486328
0, 0, 21, 152.0934753417969
0, 0, 22, 154.9399719238281
0, 0, 23, 144.5955352783203
0, 0, 24, 160.5280303955078
0, 0, 25, 166.2212677001953
0, 0, 26, 168.4703521728516
0, 0, 27, 174.3455352783203
0, 0, 28, 178.3908843994141
0, 0, 29, 175.0668640136719
0, 0, 30, 174.0530853271484
0, 0, 31, 166.7341766357422
0, 0, 32, 165.5376892089844
0, 0, 33, 166.7801818847656
0, 0, 34, 177.1175231933594
0, 0, 35, 175.0420074462891
0, 0, 36, 158.8999786376953
0, 0, 37, 160.9463043212891
0, 0, 38, 166.2392120361328
0, 0, 39, 159.8697509765625
0, 0, 40, 165.7337341308594
0, 0, 41, 165.6227722167969
0, 0, 42, 144.84765625
0, 0, 43, 168.0877838134766
0, 0, 44, 178.078125
0, 0, 45, 172.6373748779297
0, 0, 46, 166.5597991943359
0, 0, 47, 167.6578216552734
0, 0, 48, 169.1075134277344
0, 0, 49, 183.5518188476562
0, 0, 50, 168.7988891601562
0, 0, 51, 161.5261535644531
0, 0, 52, 163.2287750244141
0, 0, 53, 170.8184967041016
0, 0, 54, 160.13671875
0, 0, 55, 165.7414093017578
0, 0, 56, 188.7481536865234
0, 0, 57, 170.3845367431641
0, 0, 58, 161.4169921875
0, 0, 59, 172.0392150878906
0, 0, 60, 168.5018768310547
0, 0, 61, 170.2583465576172
0, 0, 62, 182.9831848144531
0, 0, 63, 169.2966003417969
0, 0, 64, 163.4726104736328
0, 0, 65, 174.1044464111328
0, 0, 66, 177.9211730957031
0, 0, 67, 163.4384918212891
0, 0, 68, 158.4293212890625
0, 0, 69, 158.3390350341797
0, 0, 70, 169.2242279052734
0, 0, 71, 158.3333282470703
0, 0, 72, 162.9090270996094
0, 0, 73, 172.1995239257812
0, 0, 74, 162.4223937988281
0, 0, 75, 163.0410614013672
0, 0, 76, 163.97119140625
0, 0, 77, 172.5199890136719
0, 0, 78, 182.1635437011719
0, 0, 79, 175.0970153808594
0, 0, 80, 159.4163360595703
0, 0, 81, 160.40234375
0, 0, 82, 183.2917633056641
0, 0, 83, 174.724365234375
0, 0, 84, 160.3221282958984
0, 0, 85, 180.5931243896484
0, 0, 86, 158.3566284179688
0, 0, 87, 177.2254638671875
0, 0, 88, 176.8281555175781
0, 0, 89, 175.0624847412109
0, 0, 90, 162.3902740478516
0, 0, 91, 185.0120849609375
0, 0, 92, 164.1859436035156
0, 0, 93, 155.4111022949219
0, 0, 94, 169.2338714599609
0, 0, 95, 173.5088348388672
0, 0, 96, 184.5066680908203
0, 0, 97, 183.9286041259766
0, 0, 98, 185.2318725585938
0, 0, 99, 171.2723388671875
0, 0, 100, 157.9075164794922
0, 0, 101, 166.8698577880859
0, 0, 102, 170.8885803222656
0, 0, 103, 170.6347961425781
0, 0, 104, 168.0972900390625
0, 0, 105, 177.2011566162109
0, 0, 106, 158.4826507568359
0, 0, 107, 86.52210998535156
0, 0, 108, 22.3121509552002
0, 0, 109, 8.946840286254883
0, 0, 110, 5.818667411804199
0, 0, 111, 7.860998153686523
0, 0, 112, 3.646208763122559
0, 0, 113, 2.364834308624268
0, 0, 114, 2.94257664680481
0, 0, 115, 1.788567423820496
0, 0, 116, 1.993699193000793
0, 0, 117, 2.921307325363159
0, 0, 118, 3.429598569869995
0, 0, 119, 3.372855186462402
0, 0, 120, 1.753300428390503
0, 0, 121, 3.538824081420898
0, 0, 122, 3.601860046386719
0, 0, 123, 3.159363985061646
0, 0, 124, 1.033015608787537
0, 0, 125, 2.530373334884644
0, 0, 126, 3.224464893341064
0, 0, 127, 2.883377552032471
0, 1, 0, 1.547074198722839
0, 1, 1, 3.767977237701416
0, 1, 2, 3.433350324630737
0, 1, 3, 1.47228991985321
0, 1, 4, 1.043705701828003
0, 1, 5, 1.954723238945007
0, 1, 6, 0.9626255631446838
0, 1, 7, 1.89545750617981
0, 1, 8, 1.732277750968933
0, 1, 9, 1.7960444688797
0, 1, 10, 1.526787519454956
0, 1, 11, 3.641953945159912
0, 1, 12, 2.909082651138306
0, 1, 13, 4.407177925109863
0, 1, 14, 4.963643550872803
0, 1, 15, 5.90900182723999
0, 1, 16, 7.54200553894043
0, 1, 17, 5.788497924804688
0, 1, 18, 11.0043773651123
0, 1, 19, 41.27564239501953
0, 1, 20, 125.8522338867188
0, 1, 21, 177.5245971679688
0, 1, 22, 192.8524475097656
0, 1, 23, 184.8553924560547
0, 1, 24, 180.2844696044922
0, 1, 25, 193.3175811767578
0, 1, 26, 197.4763946533203
0, 1, 27, 186.1473541259766
0, 1, 28, 188.1381225585938
0, 1, 29, 183.6915588378906
0, 1, 30, 178.5092163085938
0, 1, 31, 180.5115814208984
0, 1, 32, 189.0191955566406
0, 1, 33, 190.0408630371094
0, 1, 34, 185.2495574951172
0, 1, 35, 193.4306488037109
0, 1, 36, 205.0671081542969
0, 1, 37, 183.2985992431641
0, 1, 38, 164.5772247314453
0, 1, 39, 171.1681671142578
0, 1, 40, 179.6358489990234
0, 1, 41, 185.4217376708984
0, 1, 42, 183.6396331787109
0, 1, 43, 186.0435791015625
0, 1, 44, 168.5899200439453
0, 1, 45, 187.5789489746094
0, 1, 46, 172.0057678222656
0, 1, 47, 184.2169494628906
0, 1, 48, 186.1708068847656
0, 1, 49, 187.0323944091797
0, 1, 50, 177.9753723144531
0, 1, 51, 190.7748565673828
0, 1, 52, 195.0359039306641
0, 1, 53, 197.0895385742188
0, 1, 54, 184.7532348632812
0, 1, 55, 166.2391815185547
0, 1, 56, 178.2406921386719
0, 1, 57, 178.5993957519531
0, 1, 58, 189.9568939208984
0, 1, 59, 193.2004089355469
0, 1, 60, 188.152587890625
0, 1, 61, 178.0440673828125
0, 1, 62, 204.5278930664062
0, 1, 63, 174.80908203125
0, 1, 64, 174.0066986083984
0, 1, 65, 184.7334442138672
0, 1, 66, 203.5802307128906
0, 1, 67, 182.8740081787109
0, 1, 68, 187.0050354003906
0, 1, 69, 189.3510894775391
0, 1, 70, 186.1401214599609
0, 1, 71, 171.4731903076172
0, 1, 72, 189.2250671386719
0, 1, 73, 190.8193359375
0, 1, 74, 201.4457397460938
0, 1, 75, 184.9489135742188
0, 1, 76, 173.7761077880859
0, 1, 77, 191.9215087890625
0, 1, 78, 187.5965118408203
0, 1, 79, 201.7350921630859
0, 1, 80, 185.6526489257812
0, 1, 81, 175.2541198730469
0, 1, 82, 207.4559173583984
0, 1, 83, 211.9814910888672
0, 1, 84, 180.4247283935547
0, 1, 85, 169.8857879638672
0, 1, 86, 167.5129089355469
0, 1, 87, 184.4796447753906
0, 1, 88, 175.6874694824219
0, 1, 89, 188.8849792480469
0, 1, 90, 212.5108032226562
0, 1, 91, 181.0052032470703
0, 1, 92, 184.4084320068359
0, 1, 93, 180.9882049560547
0, 1, 94, 184.5039520263672
0, 1, 95, 182.9773712158203
0, 1, 96, 195.7608947753906
0, 1, 97, 182.5168151855469
0, 1, 98, 187.0133209228516
0, 1, 99, 175.5505828857422
0, 1, 100, 172.349853515625
0, 1, 101, 177.92529296875
0, 1, 102, 182.2317199707031
0, 1, 103, 172.7278747558594
0, 1, 104, 190.4107360839844
0, 1, 105, 183.3437957763672
0, 1, 106, 164.4227600097656
0, 1, 107, 123.3690872192383
0, 1, 108, 47.52727890014648
0, 1, 109, 9.962875366210938
0, 1, 110, 8.111485481262207
0, 1, 111, 7.523184299468994
0, 1, 112, 8.896757125854492
0, 1, 113, 6.734215259552002
0, 1, 114, 5.573522567749023
0, 1, 115, 3.728788614273071
0, 1, 116, 2.755861043930054
0, 1, 117, 1.961385607719421
0, 1, 118, 3.481276512145996
0, 1, 119, 1.284905552864075
0, 1, 120, 3.402255058288574
0, 1, 121, 3.688428401947021
0, 1, 122, 2.11857795715332
0, 1, 123, 3.653165340423584
0, 1, 124, 2.635901689529419
0, 1, 125, 2.104475975036621
0, 1, 126, 1.650472402572632
0, 1, 127, 2.275154113769531
0, 2, 0, 0.7727149724960327
0, 2, 1, 1.979976654052734
0, 2, 2, 2.391209125518799
0, 2, 3, 1.624491810798645
0, 2, 4, 1.215812206268311
0, 2, 5, 1.00971794128418
0, 2, 6, 2.573347091674805
0, 2, 7, 2.294594764709473
0, 2, 8, 2.042659282684326
0, 2, 9, 2.86236310005188
0, 2, 10, 4.155564308166504
0, 2, 11, 4.758677959442139
0, 2, 12, 3.662731885910034
0, 2, 13, 3.498178243637085
0, 2, 14, 4.840759754180908
0, 2, 15, 4.717446804046631
0, 2, 16, 6.461362838745117
0, 2, 17, 10.32719993591309
0, 2, 18, 15.04540729522705
0, 2, 19, 77.22824096679688
0, 2, 20, 162.6804351806641
0, 2, 21, 184.3420867919922
0, 2, 22, 193.9762878417969
0, 2, 23, 183.3643188476562
0, 2, 24, 173.3934173583984
0, 2, 25, 183.8931274414062
0, 2, 26, 179.1690368652344
0, 2, 27, 188.8966064453125
0, 2, 28, 171.3120574951172
0, 2, 29, 169.1632385253906
0, 2, 30, 186.8728790283203
0, 2, 31, 182.8973999023438
0, 2, 32, 183.2369232177734
0, 2, 33, 191.9006805419922
0, 2, 34, 197.3333587646484
0, 2, 35, 183.1177062988281
0, 2, 36, 185.8160552978516
0, 2, 37, 180.8270874023438
0, 2, 38, 184.2711029052734
0, 2, 39, 166.4716796875
0, 2, 40, 184.2213287353516
0, 2, 41, 183.8620300292969
0, 2, 42, 189.4659881591797
0, 2, 43, 193.3091430664062
0, 2, 44, 190.3114318847656
0, 2, 45, 190.6815643310547
0, 2, 46, 196.2193450927734
0, 2, 47, 190.3361968994141
0, 2, 48, 177.0728759765625
0, 2, 49, 197.5373840332031
0, 2, 50, 167.6103973388672
0, 2, 51, 186.0704650878906
0, 2, 52, 186.2965850830078
0, 2, 53, 195.143798828125
0, 2, 54, 176.0057220458984
0, 2, 55, 174.1253967285156
0, 2, 56, 181.93310546875
0, 2, 57, 199.4661254882812
0, 2, 58, 187.1546936035156
0, 2, 59, 189.4201202392578
0, 2, 60, 196.52734375
0, 2, 61, 193.3172454833984
0, 2, 62, 190.2942504882812
0, 2, 63, 170.3290710449219
0, 2, 64, 188.8809967041016
0, 2, 65, 202.2575988769531
0, 2, 66, 196.1778564453125
0, 2, 67, 184.4311370849609
0, 2, 68, 182.1681823730469
0, 2, 69, 187.7965698242188
0, 2, 70, 202.7283325195312
0, 2, 71, 174.8636169433594
0, 2, 72, 187.6228485107422
0, 2, 73, 177.647705078125
0, 2, 74, 180.7131195068359
0, 2, 75, 195.7727203369141
0, 2, 76, 183.5989837646484
0, 2, 77, 179.4485931396484
0, 2, 78, 198.5800933837891
0, 2, 79, 177.8353271484375
0, 2, 80, 187.6973266601562
0, 2, 81, 187.7552795410156
0, 2, 82, 205.74072265625
0, 2, 83, 205.2548828125
0, 2, 84, 188.912353515625
0, 2, 85, 173.6254730224609
0, 2, 86, 195.7251281738281
0, 2, 87, 171.7177124023438
0, 2, 88, 177.4344329833984
0, 2, 89, 185.1526031494141
0, 2, 90, 177.7381134033203
0, 2, 91, 173.2571105957031
0, 2, 92, 196.2685699462891
0, 2, 93, 194.0212860107422
0, 2, 94, 201.1828460693359
0, 2, 95, 196.2204437255859
0, 2, 96, 187.8170471191406
0, 2, 97, 171.8942260742188
0, 2, 98, 173.2452545166016
0, 2, 99, 162.0994262695312
0, 2, 100, 187.0230560302734
0, 2, 101, 196.1269836425781
0, 2, 102, 175.8979949951172
0, 2, 103, 199.6800689697266
0, 2, 104, 188.2170715332031
0, 2, 105, 200.6570587158203
0, 2, 106, 194.1914672851562
0, 2, 107, 149.3362884521484
0, 2, 108, 78.91257476806641
0, 2, 109, 17.82645034790039
0, 2, 110, 8.934453010559082
0, 2, 111, 5.446602821350098
0, 2, 112, 3.642613887786865
0, 2, 113, 4.595022678375244
0, 2, 114, 6.194279193878174
0, 2, 115, 4.524940013885498
0, 2, 116, 3.064360618591309
0, 2, 117, 1.967791557312012
0, 2, 118, 2.273061037063599
0, 2, 119, 2.348947286605835
0, 2, 120, 1.817009925842285
0, 2, 121, 2.996705770492554
0, 2, 122, 2.135008573532104
0, 2, 123, 3.349895000457764
0, 2, 124, 1.861802220344543
0, 2, 125, 2.424723148345947
0, 2, 126, 3.387110948562622
0, 2, 127, 0.4840473234653473
0, 3, 0, 1.436434030532837
0, 3, 1, 1.559779524803162
0, 3, 2, 1.228244543075562
0, 3, 3, 0.9711676239967346
0, 3, 4, 4.290782928466797
0, 3, 5, 2.433625221252441
0, 3, 6, 1.17807149887085
0, 3, 7, 1.264894962310791
0, 3, 8, 2.272547245025635
0, 3, 9, 1.993592262268066
0, 3, 10, 3.309443712234497
0, 3, 11, 3.641659498214722
0, 3, 12, 3.252476453781128
0, 3, 13, 3.605761289596558
0, 3, 14, 4.101851463317871
0, 3, 15, 8.866669654846191
0, 3, 16, 6.613951206207275
0, 3, 17, 6.746464252471924
0, 3, 18, 34.22148132324219
0, 3, 19, 115.0751266479492
0, 3, 20, 180.8297576904297
0, 3, 21, 172.3911285400391
0, 3, 22, 177.8955993652344
0, 3, 23, 187.6622467041016
0, 3, 24, 177.8490905761719
0, 3, 25, 168.8088073730469
0, 3, 26, 180.8117218017578
0, 3, 27, 190.2021636962891
0, 3, 28, 182.5103759765625
0, 3, 29, 197.0660552978516
0, 3, 30, 185.5516815185547
0, 3, 31, 196.3417053222656
0, 3, 32, 205.7284240722656
0, 3, 33, 196.3111267089844
0, 3, 34, 189.3018951416016
0, 3, 35, 173.1356964111328
0, 3, 36, 185.4354248046875
0, 3, 37, 199.9709930419922
0, 3, 38, 192.667236328125
0, 3, 39, 186.1567535400391
0, 3, 40, 166.2828674316406
0, 3, 41, 174.0761413574219
0, 3, 42, 184.6150054931641
0, 3, 43, 181.8658905029297
0, 3, 44, 205.0750732421875
0, 3, 45, 208.9161834716797
0, 3, 46, 198.5084686279297
0, 3, 47, 194.0341949462891
0, 3, 48, 194.5319061279297
0, 3, 49, 180.1546020507812
0, 3, 50, 186.8989105224609
0, 3, 51, 173.8963317871094
0, 3, 52, 188.2312774658203
0, 3, 53, 178.9771728515625
0, 3, 54, 178.79736328125
0, 3, 55, 176.9680786132812
0, 3, 56, 182.1559753417969
0, 3, 57, 176.9164581298828
0, 3, 58, 201.6060028076172
0, 3, 59, 195.4075927734375
0, 3, 60, 186.1818695068359
0, 3, 61, 181.4966583251953
0, 3, 62, 182.6960296630859
0, 3, 63, 186.7420196533203
0, 3, 64, 190.4291839599609
0, 3, 65, 186.3983917236328
0, 3, 66, 175.5361938476562
0, 3, 67, 190.9438629150391
0, 3, 68, 212.2658538818359
0, 3, 69, 188.9179992675781
0, 3, 70, 185.4447479248047
0, 3, 71, 197.7494201660156
0, 3, 72, 186.3621215820312
0, 3, 73, 186.6529846191406
0, 3, 74, 192.6964111328125
0, 3, 75, 194.1980285644531
0, 3, 76, 191.6060028076172
0, 3, 77, 197.4267120361328
0, 3, 78, 189.4846343994141
0, 3, 79, 184.9218139648438
0, 3, 80, 188.8034362792969
0, 3, 81, 182.7847137451172
0, 3, 82, 178.7152862548828
0, 3, 83, 194.7644500732422
0, 3, 84, 199.9068298339844
0, 3, 85, 192.0182342529297
0, 3, 86, 204.2255859375
0, 3, 87, 197.4900512695312
0, 3, 88, 194.2621002197266
0, 3, 89, 195.9455413818359
0, 3, 90, 173.7375793457031
0, 3, 91, 159.4049530029297
0, 3, 92, 206.442138671875
0, 3, 93, 197.0114288330078
0, 3, 94, 193.560546875
0, 3, 95, 210.3700103759766
0, 3, 96, 210.2304992675781
0, 3, 97, 167.9190368652344
0, 3, 98, 167.8659362792969
0, 3, 99, 180.4695434570312
0, 3, 100, 177.3615264892578
0, 3, 101, 197.7993316650391
0, 3, 102, 196.1923522949219
0, 3, 103, 192.6287231445312
0, 3, 104, 202.3207397460938
0, 3, 105, 175.5511016845703
0, 3, 106, 181.4099884033203
0, 3, 107, 170.5100860595703
0, 3, 108, 110.2472915649414
0, 3, 109, 29.84150314331055
0, 3, 110, 8.139935493469238
0, 3, 111, 6.946855068206787
0, 3, 112, 3.231025695800781
0, 3, 113, 7.45352029800415
0, 3, 114, 4.447335720062256
0, 3, 115, 5.884596347808838
0, 3, 116, 5.719311237335205
0, 3, 117, 5.9530348777771
0, 3, 118, 1.935000658035278
0, 3, 119, 2.471853494644165
0, 3, 120, 3.403145551681519
0, 3, 121, 1.971004366874695
0, 3, 122, 3.782611846923828
0, 3, 123, 1.483205318450928
0, 3, 124, 2.031249761581421
0, 3, 125, 1.930237293243408
0, 3, 126, 1.381224751472473
0, 3, 127, 1.395981431007385
0, 4, 0, 1.615147590637207
0, 4, 1, 0.6327812075614929
0, 4, 2, 3.003824472427368
0, 4, 3, 2.986400842666626
0, 4, 4, 1.69448721408844
0, 4, 5, 1.185754179954529
0, 4, 6, 3.145405054092407
0, 4, 7, 3.008029699325562
0, 4, 8, 1.886728286743164
0, 4, 9, 2.837387800216675
0, 4, 10, 3.885306596755981
0, 4, 11, 3.220623016357422
0, 4, 12, 3.558524131774902
0, 4, 13, 3.962390184402466
0, 4, 14, 3.932745456695557
0, 4, 15, 9.737508773803711
0, 4, 16, 5.965246200561523
0, 4, 17, 11.14081192016602
0, 4, 18, 55.52816009521484
0, 4, 19, 150.4775085449219
0, 4, 20, 193.1748199462891
0, 4, 21, 169.3804931640625
0, 4, 22, 187.3078308105469
0, 4, 23, 195.4618988037109
0, 4, 24, 192.7357025146484
0, 4, 25, 199.5875396728516
0, 4, 26, 183.8262481689453
0, 4, 27, 191.6200256347656
0, 4, 28, 178.6727447509766
0, 4, 29, 205.4834899902344
0, 4, 30, 195.5252380371094
0, 4, 31, 193.0478973388672
0, 4, 32, 209.5237579345703
0, 4, 33, 191.1767730712891
0, 4, 34, 192.4327239990234
0, 4, 35, 214.7828826904297
0, 4, 36, 192.5256042480469
0, 4, 37, 177.8444519042969
0, 4, 38, 194.218017578125
0, 4, 39, 189.9909820556641
0, 4, 40, 185.3379516601562
0, 4, 41, 189.8102264404297
0, 4, 42, 206.0576019287109
0, 4, 43, 174.2641296386719
0, 4, 44, 183.4391784667969
0, 4, 45, 195.6930084228516
0, 4, 46, 185.3096618652344
0, 4, 47, 179.7288970947266
0, 4, 48, 185.4401550292969
0, 4, 49, 174.8424377441406
0, 4, 50, 187.6601867675781
0, 4, 51, 197.9734802246094
0, 4, 52, 223.4450225830078
0, 4, 53, 206.2797698974609
0, 4, 54, 189.4089050292969
0, 4, 55, 175.6593322753906
0, 4, 56, 190.7358551025391
0, 4, 57, 192.5809936523438
0, 4, 58, 187.4334411621094
0, 4, 59, 189.3704376220703
0, 4, 60, 195.4845275878906
0, 4, 61, 193.7393646240234
0, 4, 62, 191.6912689208984
0, 4, 63, 178.2338714599609
0, 4, 64, 210.9978790283203
0, 4, 65, 192.0438690185547
0, 4, 66, 201.5642242431641
0, 4, 67, 200.7982635498047
0, 4, 68, 204.0279388427734
0, 4, 69, 200.6946716308594
0, 4, 70, 203.8394317626953
0, 4, 71, 206.5198974609375
0, 4, 72, 215.0485076904297
0, 4, 73, 185.4470520019531
0, 4, 74, 181.7349090576172
0, 4, 75, 184.8999176025391
0, 4, 76, 189.8332214355469
0, 4, 77, 184.4379730224609
0, 4, 78, 195.0493469238281
0, 4, 79, 203.5254821777344
0, 4, 80, 211.6569519042969
0, 4, 81, 199.4399566650391
0, 4, 82, 183.8364715576172
0, 4, 83, 170.5537261962891
0, 4, 84, 192.5835418701172
0, 4, 85, 195.9465484619141
0, 4, 86, 180.9164276123047
0, 4, 87, 183.3157043457031
0, 4, 88, 205.4109497070312
0, 4, 89, 187.7675170898438
0, 4, 90, 211.2196655273438
0, 4, 91, 189.2515411376953
0, 4, 92, 196.7170867919922
0, 4, 93, 196.3017120361328
0, 4, 94, 182.4449615478516
0, 4, 95, 174.5567169189453
0, 4, 96, 190.7444305419922
0, 4, 97, 194.3578033447266
0, 4, 98, 201.6647033691406
0, 4, 99, 183.1878051757812
0, 4, 100, 182.4662933349609
0, 4, 101, 176.9949340820312
0, 4, 102, 174.7376098632812
0, 4, 103, 184.8560638427734
0, 4, 104, 208.9568023681641
0, 4, 105, 190.3409271240234
0, 4, 106, 180.056640625
0, 4, 107, 180.9429168701172
0, 4, 108, 151.4118041992188
0, 4, 109, 50.59785842895508
0, 4, 110, 11.74371910095215
0, 4, 111, 8.635825157165527
0, 4, 112, 6.62881326675415
0, 4, 113, 5.54716968536377
0, 4, 114, 5.546355247497559
0, 4, 115, 3.140538930892944
0, 4, 116, 5.019795894622803
0, 4, 117, 4.610171794891357
0, 4, 118, 3.94914698600769
0, 4, 119, 3.354975461959839
0, 4, 120, 2.310502052307129
0, 4, 121, 1.562300205230713
0, 4, 122, 1.781547069549561
0, 4, 123, 2.499221324920654
0, 4, 124, 4.067108154296875
0, 4, 125, 3.062514066696167
0, 4, 126, 2.736443996429443
0, 4, 127, 1.464374542236328
0, 5, 0, 1.063891768455505
0, 5, 1, 2.584173440933228
0, 5, 2, 5.567518711090088
0, 5, 3, 4.153363227844238
0, 5, 4, 2.41914701461792
0, 5, 5, 2.339666843414307
0, 5, 6, 2.683994293212891
0, 5, 7, 2.943035840988159
0, 5, 8, 1.842363238334656
0, 5, 9, 1.946767210960388
0, 5, 10, 3.426832914352417
0, 5, 11, 3.13802433013916
0, 5, 12, 2.475486040115356
0, 5, 13, 4.06135082244873
0, 5, 14, 5.131090641021729
0, 5, 15, 8.724699020385742
0, 5, 16, 7.042428970336914
0, 5, 17, 21.57714080810547
0, 5, 18, 82.63458251953125
0, 5, 19, 164.7304229736328
0, 5, 20, 183.8377227783203
0, 5, 21, 177.5317840576172
0, 5, 22, 171.2771759033203
0, 5, 23, 201.0237579345703
0, 5, 24, 186.7041473388672
0, 5, 25, 208.5202789306641
0, 5, 26, 184.3598175048828
0, 5, 27, 194.4715270996094
0, 5, 28, 188.7973022460938
0, 5, 29, 195.7870025634766
0, 5, 30, 177.6513519287109
0, 5, 31, 179.4705200195312
0, 5, 32, 186.6245880126953
0, 5, 33, 168.3402557373047
0, 5, 34, 194.7242736816406
0, 5, 35, 197.6565704345703
0, 5, 36, 168.4784545898438
0, 5, 37, 197.0359954833984
0, 5, 38, 181.0106811523438
0, 5, 39, 186.3964538574219
0, 5, 40, 196.9708404541016
0, 5, 41, 177.0347595214844
0, 5, 42, 187.1212768554688
0, 5, 43, 192.4260406494141
0, 5, 44, 199.8291473388672
0, 5, 45, 186.3560791015625
0, 5, 46, 193.3023071289062
0, 5, 47, 181.1789245605469
0, 5, 48, 179.14990234375
0, 5, 49, 177.7549591064453
0, 5, 50, 186.1671295166016
0, 5, 51, 172.2270660400391
0, 5, 52, 167.5866088867188
0, 5, 53, 182.0201416015625
0, 5, 54, 173.2410583496094
0, 5, 55, 215.5586090087891
0, 5, 56, 182.3393402099609
0, 5, 57, 208.5955505371094
0, 5, 58, 180.8751068115234
0, 5, 59, 180.47900390625
0, 5, 60, 219.3500518798828
0, 5, 61, 184.337158203125
0, 5, 62, 178.8087921142578
0, 5, 63, 180.2615356445312
0, 5, 64, 196.6169128417969
0, 5, 65, 210.5504150390625
0, 5, 66, 192.2622222900391
0, 5, 67, 199.9924468994141
0, 5, 68, 187.2238616943359
0, 5, 69, 187.1668853759766
0, 5, 70, 185.3215026855469
0, 5, 71, 193.2255706787109
0, 5, 72, 197.5442657470703
0, 5, 73, 201.6828308105469
0, 5, 74, 179.5635681152344
0, 5, 75, 203.3355102539062
0, 5, 76, 214.2395782470703
0, 5, 77, 179.8102722167969
0, 5, 78, 194.0067443847656
0, 5, 79, 189.9631042480469
0, 5, 80, 197.1195220947266
0, 5, 81, 204.03857421875
0, 5, 82, 201.1434478759766
0, 5, 83, 188.9228515625
0, 5, 84, 206.2648620605469
0, 5, 85, 176.9209747314453
0, 5, 86, 194.7837982177734
0, 5, 87, 187.3599548339844
0, 5, 88, 176.7554168701172
0, 5, 89, 193.9818115234375
0, 5, 90, 199.4779663085938
0, 5, 91, 194.1125183105469
0, 5, 92, 192.0069427490234
0, 5, 93, 189.7650909423828
0, 5, 94, 207.740234375
0, 5, 95, 177.9929504394531
0, 5, 96, 185.2494964599609
0, 5, 97, 191.9746704101562
0, 5, 98, 189.5043029785156
0, 5, 99, 195.4726257324219
0, 5, 100, 186.0950164794922
0, 5, 101, 195.8069610595703
0, 5, 102, 181.9869537353516
0, 5, 103, 176.4618225097656
0, 5, 104, 190.4624328613281
0, 5, 105, 189.6694183349609
0, 5, 106, 176.8506011962891
0, 5, 107, 181.2425231933594
0, 5, 108, 175.2936706542969
0, 5, 109, 90.65601348876953
0, 5, 110, 29.84447479248047
0, 5, 111, 9.923564910888672
0, 5, 112, 7.063224315643311
0, 5, 113, 9.328645706176758
0, 5, 114, 7.123308181762695
0, 5, 115, 7.185661792755127
0, 5, 116, 4.063842296600342
0, 5, 117, 2.826417446136475
0, 5, 118, 4.099083423614502
0, 5, 119, 2.51319146156311
0, 5, 120, 3.371137619018555
0, 5, 121, 1.910209178924561
0, 5, 122, 2.507833957672119
0, 5, 123, 4.845114231109619
0, 5, 124, 3.629996538162231
0, 5, 125, 1.413717150688171
0, 5, 126, 1.700695514678955
0, 5, 127, 1.545527338981628
0, 6, 0, 5.142109394073486
0, 6, 1, 4.663953304290771
0, 6, 2, 3.706469058990479
0, 6, 3, 1.920198798179626
0, 6, 4, 2.437667608261108
0, 6, 5, 3.310222387313843
0, 6, 6, 3.066028594970703
0, 6, 7, 3.832804441452026
0, 6, 8, 4.455635547637939
0, 6, 9, 2.92202091217041
0, 6, 10, 4.519379615783691
0, 6, 11, 3.616621255874634
0, 6, 12, 7.609493255615234
0, 6, 13, 5.382368564605713
0, 6, 14, 5.438959121704102
0, 6, 15, 9.222363471984863
0, 6, 16, 14.68393516540527
0, 6, 17, 28.19369316101074
0, 6, 18, 111.8543243408203
0, 6, 19, 190.4732360839844
0, 6, 20, 195.4201049804688
0, 6, 21, 198.0856323242188
0, 6, 22, 191.2312164306641
0, 6, 23, 190.5538940429688
0, 6, 24, 200.8040924072266
0, 6, 25, 183.0717620849609
0, 6, 26, 187.3925323486328
0, 6, 27, 192.3929901123047
0, 6, 28, 188.7318420410156
0, 6, 29, 210.0089569091797
0, 6, 30, 190.2647399902344
0, 6, 31, 193.7351837158203
0, 6, 32, 206.5957183837891
0, 6, 33, 184.5923614501953
0, 6, 34, 198.9055938720703
0, 6, 35, 189.2552490234375
0, 6, 36, 183.0634918212891
0, 6, 37, 182.8079528808594
0, 6, 38, 185.6937561035156
0, 6, 39, 194.9298553466797
0, 6, 40, 174.2452545166016
0, 6, 41, 185.0136566162109
0, 6, 42, 174.5225372314453
0, 6, 43, 208.6529235839844
0, 6, 44, 210.1000366210938
0, 6, 45, 193.6742858886719
0, 6, 46, 187.5019683837891
0, 6, 47, 206.0105895996094
0, 6, 48, 188.5583953857422
0, 6, 49, 178.8640747070312
0, 6, 50, 182.5982818603516
0, 6, 51, 195.9310302734375
0, 6, 52, 197.3293914794922
0, 6, 53, 185.4537048339844
0, 6, 54, 175.6180725097656
0, 6, 55, 194.2154846191406
0, 6, 56, 202.8938751220703
0, 6, 57, 191.9282836914062
0, 6, 58, 177.6529235839844
0, 6, 59, 192.4555053710938
0, 6, 60, 185.2965393066406
0, 6, 61, 193.9705200195312
0, 6, 62, 197.9475402832031
0, 6, 63, 186.5482635498047
0, 6, 64, 167.7556304931641
0, 6, 65, 185.2357330322266
0, 6, 66, 197.5320892333984
0, 6, 67, 213.962646484375
0, 6, 68, 179.8796234130859
0, 6, 69, 171.4900970458984
0, 6, 70, 187.1926727294922
0, 6, 71, 170.5787506103516
0, 6, 72, 176.6546478271484
0, 6, 73, 176.2730255126953
0, 6, 74, 211.3518829345703
0, 6, 75, 226.9672546386719
0, 6, 76, 183.5268249511719
0, 6, 77, 173.2333374023438
0, 6, 78, 175.3625030517578
0, 6, 79, 189.5709075927734
0, 6, 80, 187.7848815917969
0, 6, 81, 210.0870361328125
0, 6, 82, 194.4006958007812
0, 6, 83, 195.71728515625
0, 6, 84, 196.4891357421875
0, 6, 85, 181.6907196044922
0, 6, 86, 202.6642761230469
0, 6, 87, 183.5534820556641
0, 6, 88, 192.355224609375
0, 6, 89, 189.7038726806641
0, 6, 90, 205.7467193603516
0, 6, 91, 200.7897033691406
0, 6, 92, 173.052734375
0, 6, 93, 193.5045318603516
0, 6, 94, 189.0720825195312
0, 6, 95, 184.7185821533203
0, 6, 96, 188.6873626708984
0, 6, 97, 194.743896484375
0, 6, 98, 183.0105133056641
0, 6, 99, 174.6222381591797
0, 6, 100, 203.1728668212891
0, 6, 101, 167.9124298095703
0, 6, 102, 202.3230133056641
0, 6, 103, 197.2305755615234
0, 6, 104, 184.3977508544922
0, 6, 105, 193.8307800292969
0, 6, 106, 177.0728302001953
0, 6, 107, 195.1871643066406
0, 6, 108, 171.6536254882812
0, 6, 109, 114.7008285522461
0, 6, 110, 34.30418395996094
0, 6, 111, 9.144434928894043
0, 6, 112, 7.878664016723633
0, 6, 113, 5.256102561950684
0, 6, 114, 5.505012035369873
0, 6, 115, 4.655765533447266
0, 6, 116, 4.860901355743408
0, 6, 117, 4.6532883644104
0, 6, 118, 3.54886794090271
0, 6, 119, 4.123869895935059
0, 6, 120, 1.625139594078064
0, 6, 121, 3.576655626296997
0, 6, 122, 3.088248729705811
0, 6, 123, 2.955224752426147
0, 6, 124, 1.816360354423523
0, 6, 125, 3.592763423919678
0, 6, 126, 1.450223445892334
0, 6, 127, 2.208854198455811
0, 7, 0, 2.454519033432007
0, 7, 1, 1.446254372596741
0, 7, 2, 4.186728477478027
0, 7, 3, 2.398558139801025
0, 7, 4, 0.7197150588035583
0, 7, 5, 1.99388587474823
0, 7, 6, 2.266048431396484
0, 7, 7, 1.457348704338074
0, 7, 8, 2.889177560806274
0, 7, 9, 4.262119293212891
0, 7, 10, 5.144103050231934
0, 7, 11, 3.153605222702026
0, 7, 12, 6.209066867828369
0, 7, 13, 6.699650764465332
0, 7, 14, 7.274701595306396
0, 7, 15, 7.187295913696289
0, 7, 16, 15.30154132843018
0, 7, 17, 49.68358993530273
0, 7, 18, 162.0692138671875
0, 7, 19, 182.8581237792969
0, 7, 20, 178.8748474121094
0, 7, 21, 179.5790252685547
0, 7, 22, 191.4947509765625
0, 7, 23, 202.2063598632812
0, 7, 24, 179.8840942382812
0, 7, 25, 212.8370819091797
0, 7, 26, 190.4472503662109
0, 7, 27, 182.5729827880859
0, 7, 28, 183.3011474609375
0, 7, 29, 209.4532165527344
0, 7, 30, 192.8147888183594
0, 7, 31, 177.0746612548828
0, 7, 32, 191.1654815673828
0, 7, 33, 180.3654479980469
0, 7, 34, 194.8999786376953
0, 7, 35, 197.2019805908203
0, 7, 36, 187.0400390625
0, 7, 37, 213.4524841308594
0, 7, 38, 190.6098175048828
0, 7, 39, 174.4220275878906
0, 7, 40, 183.977783203125
0, 7, 41, 185.356201171875
0, 7, 42, 177.8441619873047
0, 7, 43, 179.4775543212891
0, 7, 44, 179.7389831542969
0, 7, 45, 174.0492706298828
0, 7, 46, 190.6305999755859
0, 7, 47, 198.2525482177734
0, 7, 48, 186.0880432128906
0, 7, 49, 200.8509216308594
0, 7, 50, 190.0741577148438
0, 7, 51, 204.1394805908203
0, 7, 52, 204.6410522460938
0, 7, 53, 191.6929321289062
0, 7, 54, 193.8536987304688
0, 7, 55, 203.1684417724609
0, 7, 56, 182.9445953369141
0, 7, 57, 182.6794738769531
0, 7, 58, 194.0555114746094
0, 7, 59, 187.83154296875
0, 7, 60, 201.9038391113281
0, 7, 61, 171.3317413330078
0, 7, 62, 203.6144866943359
0, 7, 63, 189.4021606445312
0, 7, 64, 199.0670776367188
0, 7, 65, 198.2292938232422
0, 7, 66, 205.5067901611328
0, 7, 67, 220.2443695068359
0, 7, 68, 164.1615600585938
0, 7, 69, 194.1490173339844
0, 7, 70, 218.3092498779297
0, 7, 71, 183.7253875732422
0, 7, 72, 180.4778900146484
0, 7, 73, 177.5444641113281
0, 7, 74, 207.4479675292969
0, 7, 75, 206.5523986816406
0, 7, 76, 215.2806701660156
0, 7, 77, 174.5684051513672
0, 7, 78, 176.4735107421875
0, 7, 79, 191.0957641601562
0, 7, 80, 195.5631408691406
0, 7, 81, 215.7285003662109
0, 7, 82, 185.5948486328125
0, 7, 83, 204.956298828125
0, 7, 84, 192.0404052734375
0, 7, 85, 185.4436492919922
0, 7, 86, 200.0296173095703
0, 7, 87, 227.3032684326172
0, 7, 88, 194.9347381591797
0, 7, 89, 178.3312683105469
0, 7, 90, 182.4528198242188
0, 7, 91, 194.8154907226562
0, 7, 92, 195.5435791015625
0, 7, 93, 198.2716827392578
0, 7, 94, 178.6734619140625
0, 7, 95, 197.6719512939453
0, 7, 96, 208.1832733154297
0, 7, 97, 189.6069488525391
0, 7, 98, 177.3941955566406
0, 7, 99, 197.9267578125
0, 7, 100, 182.576416015625
0, 7, 101, 199.2789459228516
0, 7, 102, 186.7118988037109
0, 7, 103, 181.7638397216797
0, 7, 104, 174.2637481689453
0, 7, 105, 195.2195129394531
0, 7, 106, 205.3494110107422
0, 7, 107, 174.1844940185547
0, 7, 108, 176.9935455322266
0, 7, 109, 137.1143493652344
0, 7, 110, 54.26021194458008
0, 7, 111, 8.741902351379395
0, 7, 112, 7.75845193862915
0, 7, 113, 8.513883590698242
0, 7, 114, 6.673928260803223
0, 7, 115, 5.163402080535889
0, 7, 116, 4.789966583251953
0, 7, 117, 2.231969833374023
0, 7, 118, 3.703662633895874
0, 7, 119, 2.911137104034424
0, 7, 120, 2.064727306365967
0, 7, 121, 2.923809766769409
0, 7, 122, 2.763406753540039
0, 7, 123, 2.018583297729492
0, 7, 124, 1.613421320915222
0, 7, 125, 2.11332106590271
0, 7, 126, 3.346466779708862
0, 7, 127, 1.722221970558167
0, 8, 0, 4.622363090515137
0, 8, 1, 1.910340905189514
0, 8, 2, 3.26583194732666
0, 8, 3, 2.790276050567627
0, 8, 4, 1.447993397712708
0, 8, 5, 3.21652626991272
0, 8, 6, 2.480313539505005
0, 8, 7, 2.627383232116699
0, 8, 8, 4.127518653869629
0, 8, 9, 4.859285354614258
0, 8, 10, 2.284201145172119
0, 8, 11, 2.840115547180176
0, 8, 12, 4.002458572387695
0, 8, 13, 5.275225162506104
0, 8, 14, 6.189822196960449
0, 8, 15, 8.04157829284668
0, 8, 16, 18.8519115447998
0, 8, 17, 75.40439605712891
0, 8, 18, 143.3873901367188
0, 8, 19, 179.3036193847656
0, 8, 20, 193.1834716796875
0, 8, 21, 192.7072601318359
0, 8, 22, 179.2773895263672
0, 8, 23, 172.9404296875
0, 8, 24, 191.9935760498047
0, 8, 25, 185.0685272216797
0, 8, 26, 192.4247894287109
0, 8, 27, 185.7674865722656
0, 8, 28, 186.6927337646484
0, 8, 29, 207.8042297363281
0, 8, 30, 198.2132720947266
0, 8, 31, 182.7678833007812
0, 8, 32, 197.8414001464844
0, 8, 33, 207.0215148925781
0, 8, 34, 203.9552307128906
0, 8, 35, 185.2135925292969
0, 8, 36, 180.9162902832031
0, 8, 37, 199.2781677246094
