# TOPAS Version: 3.1.p3
# Parameter File: batch_inserts_254.txt
# Results for scorer Readout_Adipose
# Scored in component: MyBox
# X in 1 bin  of 0.65 cm
# Y in 512 bins of 0.0783984 cm
# Z in 128 bins of 0.078125 cm
# EnergyDeposit ( MeV ) : Sum   
0, 0, 0, 1.497437357902527
0, 0, 1, 5.758021354675293
0, 0, 2, 2.259209394454956
0, 0, 3, 0.5160350799560547
0, 0, 4, 1.706638693809509
0, 0, 5, 0.5242518782615662
0, 0, 6, 1.794283032417297
0, 0, 7, 2.799062728881836
0, 0, 8, 2.054795503616333
0, 0, 9, 2.71155309677124
0, 0, 10, 1.813807964324951
0, 0, 11, 3.35248875617981
0, 0, 12, 4.408332347869873
0, 0, 13, 3.66044545173645
0, 0, 14, 5.303831100463867
0, 0, 15, 5.63851261138916
0, 0, 16, 3.776999235153198
0, 0, 17, 5.973232746124268
0, 0, 18, 6.393657684326172
0, 0, 19, 22.73694038391113
0, 0, 20, 94.49034118652344
0, 0, 21, 151.7374725341797
0, 0, 22, 154.2765808105469
0, 0, 23, 144.6560516357422
0, 0, 24, 160.7137298583984
0, 0, 25, 165.9976348876953
0, 0, 26, 166.9580383300781
0, 0, 27, 174.2229156494141
0, 0, 28, 178.0516510009766
0, 0, 29, 175.976806640625
0, 0, 30, 173.8507232666016
0, 0, 31, 166.1301879882812
0, 0, 32, 164.2763671875
0, 0, 33, 167.9870910644531
0, 0, 34, 178.1807403564453
0, 0, 35, 174.2369079589844
0, 0, 36, 158.4792785644531
0, 0, 37, 161.0286560058594
0, 0, 38, 166.1240844726562
0, 0, 39, 159.2752227783203
0, 0, 40, 164.2656097412109
0, 0, 41, 165.7203826904297
0, 0, 42, 144.4027862548828
0, 0, 43, 169.5073394775391
0, 0, 44, 177.7513580322266
0, 0, 45, 172.4845886230469
0, 0, 46, 166.0620422363281
0, 0, 47, 167.0423431396484
0, 0, 48, 168.9774322509766
0, 0, 49, 182.1122589111328
0, 0, 50, 168.5628662109375
0, 0, 51, 161.6073303222656
0, 0, 52, 164.6336822509766
0, 0, 53, 173.0810089111328
0, 0, 54, 159.9813690185547
0, 0, 55, 165.67431640625
0, 0, 56, 188.6468353271484
0, 0, 57, 171.2442016601562
0, 0, 58, 161.9404296875
0, 0, 59, 172.5790863037109
0, 0, 60, 169.9535675048828
0, 0, 61, 169.2126770019531
0, 0, 62, 182.7375793457031
0, 0, 63, 167.0938568115234
0, 0, 64, 163.5312347412109
0, 0, 65, 174.3281860351562
0, 0, 66, 178.2197570800781
0, 0, 67, 164.3336486816406
0, 0, 68, 158.6048889160156
0, 0, 69, 160.6783294677734
0, 0, 70, 169.7167663574219
0, 0, 71, 158.1107635498047
0, 0, 72, 162.1658020019531
0, 0, 73, 171.0267944335938
0, 0, 74, 163.6896514892578
0, 0, 75, 163.5238037109375
0, 0, 76, 162.9411315917969
0, 0, 77, 174.607666015625
0, 0, 78, 182.5509033203125
0, 0, 79, 175.3759613037109
0, 0, 80, 159.47216796875
0, 0, 81, 160.577880859375
0, 0, 82, 182.3054809570312
0, 0, 83, 173.0405120849609
0, 0, 84, 159.7287902832031
0, 0, 85, 180.6817321777344
0, 0, 86, 158.9327239990234
0, 0, 87, 176.9056396484375
0, 0, 88, 176.5095977783203
0, 0, 89, 179.048095703125
0, 0, 90, 161.1071166992188
0, 0, 91, 185.5613555908203
0, 0, 92, 164.3881530761719
0, 0, 93, 155.2700500488281
0, 0, 94, 168.4893188476562
0, 0, 95, 174.4385681152344
0, 0, 96, 183.6188049316406
0, 0, 97, 184.5382690429688
0, 0, 98, 185.7735290527344
0, 0, 99, 170.9323120117188
0, 0, 100, 158.8939666748047
0, 0, 101, 166.3889465332031
0, 0, 102, 170.1601867675781
0, 0, 103, 170.5680541992188
0, 0, 104, 168.86572265625
0, 0, 105, 180.06787109375
0, 0, 106, 158.8344421386719
0, 0, 107, 86.84541320800781
0, 0, 108, 24.16472434997559
0, 0, 109, 10.46862316131592
0, 0, 110, 5.435888290405273
0, 0, 111, 7.111255168914795
0, 0, 112, 3.691076517105103
0, 0, 113, 3.278963565826416
0, 0, 114, 2.14464259147644
0, 0, 115, 2.044333219528198
0, 0, 116, 1.734667181968689
0, 0, 117, 2.927856922149658
0, 0, 118, 2.667068719863892
0, 0, 119, 1.55336582660675
0, 0, 120, 1.406634449958801
0, 0, 121, 4.415945053100586
0, 0, 122, 4.363784790039062
0, 0, 123, 3.279127836227417
0, 0, 124, 1.301267385482788
0, 0, 125, 2.742086172103882
0, 0, 126, 1.047640919685364
0, 0, 127, 1.607305526733398
0, 1, 0, 1.389333605766296
0, 1, 1, 4.433774948120117
0, 1, 2, 1.946067214012146
0, 1, 3, 1.912617564201355
0, 1, 4, 0.9879336953163147
0, 1, 5, 1.830258846282959
0, 1, 6, 1.074581146240234
0, 1, 7, 3.316976547241211
0, 1, 8, 1.836032152175903
0, 1, 9, 1.472223401069641
0, 1, 10, 3.319099903106689
0, 1, 11, 3.152602672576904
0, 1, 12, 4.430885314941406
0, 1, 13, 3.879889726638794
0, 1, 14, 6.034261703491211
0, 1, 15, 6.190621376037598
0, 1, 16, 6.363119125366211
0, 1, 17, 8.021642684936523
0, 1, 18, 12.03767395019531
0, 1, 19, 40.49163818359375
0, 1, 20, 125.7521820068359
0, 1, 21, 176.7632598876953
0, 1, 22, 192.9106140136719
0, 1, 23, 184.6908874511719
0, 1, 24, 179.9674377441406
0, 1, 25, 193.0203552246094
0, 1, 26, 197.7165679931641
0, 1, 27, 186.0203704833984
0, 1, 28, 187.8538818359375
0, 1, 29, 184.3414306640625
0, 1, 30, 179.6563720703125
0, 1, 31, 181.5842590332031
0, 1, 32, 188.5151519775391
0, 1, 33, 191.237060546875
0, 1, 34, 183.7972412109375
0, 1, 35, 193.5140075683594
0, 1, 36, 205.5739593505859
0, 1, 37, 185.1405792236328
0, 1, 38, 164.7654876708984
0, 1, 39, 171.2007598876953
0, 1, 40, 179.9644622802734
0, 1, 41, 184.5289459228516
0, 1, 42, 182.1113739013672
0, 1, 43, 185.7952880859375
0, 1, 44, 168.6312255859375
0, 1, 45, 187.4325256347656
0, 1, 46, 170.8773803710938
0, 1, 47, 184.6952667236328
0, 1, 48, 185.9516296386719
0, 1, 49, 186.1221160888672
0, 1, 50, 177.9182739257812
0, 1, 51, 191.9161071777344
0, 1, 52, 197.7177581787109
0, 1, 53, 195.7496032714844
0, 1, 54, 184.9342346191406
0, 1, 55, 164.7264862060547
0, 1, 56, 178.6628723144531
0, 1, 57, 177.5394592285156
0, 1, 58, 188.8995666503906
0, 1, 59, 193.4356994628906
0, 1, 60, 187.8818969726562
0, 1, 61, 178.1596527099609
0, 1, 62, 205.4148101806641
0, 1, 63, 174.5440521240234
0, 1, 64, 172.6096496582031
0, 1, 65, 184.8154296875
0, 1, 66, 203.78076171875
0, 1, 67, 182.3340301513672
0, 1, 68, 187.1699523925781
0, 1, 69, 188.9498901367188
0, 1, 70, 186.1755218505859
0, 1, 71, 171.9503479003906
0, 1, 72, 188.6630554199219
0, 1, 73, 190.5773620605469
0, 1, 74, 201.6190795898438
0, 1, 75, 183.6953582763672
0, 1, 76, 173.7682800292969
0, 1, 77, 191.53662109375
0, 1, 78, 188.7862396240234
0, 1, 79, 201.7383575439453
0, 1, 80, 185.8532257080078
0, 1, 81, 174.7282409667969
0, 1, 82, 209.301513671875
0, 1, 83, 211.5589752197266
0, 1, 84, 179.9256744384766
0, 1, 85, 170.2037200927734
0, 1, 86, 169.1370697021484
0, 1, 87, 184.2664642333984
0, 1, 88, 174.7169647216797
0, 1, 89, 188.1283874511719
0, 1, 90, 212.6817932128906
0, 1, 91, 182.902099609375
0, 1, 92, 185.8567352294922
0, 1, 93, 182.8329315185547
0, 1, 94, 186.3968963623047
0, 1, 95, 182.8706817626953
0, 1, 96, 198.4213104248047
0, 1, 97, 184.8538055419922
0, 1, 98, 186.7214965820312
0, 1, 99, 175.3658599853516
0, 1, 100, 171.4472808837891
0, 1, 101, 177.6588745117188
0, 1, 102, 181.7560577392578
0, 1, 103, 172.6743927001953
0, 1, 104, 188.7463226318359
0, 1, 105, 184.0871887207031
0, 1, 106, 164.0307464599609
0, 1, 107, 124.2741470336914
0, 1, 108, 47.02299880981445
0, 1, 109, 10.03396129608154
0, 1, 110, 8.677547454833984
0, 1, 111, 6.196313381195068
0, 1, 112, 8.851778030395508
0, 1, 113, 6.851578712463379
0, 1, 114, 5.789578914642334
0, 1, 115, 2.990900278091431
0, 1, 116, 3.701809167861938
0, 1, 117, 2.178731441497803
0, 1, 118, 3.206320285797119
0, 1, 119, 1.348796486854553
0, 1, 120, 4.148224353790283
0, 1, 121, 4.174093246459961
0, 1, 122, 2.155665636062622
0, 1, 123, 2.540003538131714
0, 1, 124, 3.600210666656494
0, 1, 125, 1.908316493034363
0, 1, 126, 1.412444233894348
0, 1, 127, 1.957415103912354
0, 2, 0, 1.046174764633179
0, 2, 1, 2.003973722457886
0, 2, 2, 3.75139594078064
0, 2, 3, 1.426702260971069
0, 2, 4, 3.504477977752686
0, 2, 5, 1.031709790229797
0, 2, 6, 2.205758094787598
0, 2, 7, 1.684263229370117
0, 2, 8, 2.09893798828125
0, 2, 9, 2.273484706878662
0, 2, 10, 5.555132389068604
0, 2, 11, 3.297203779220581
0, 2, 12, 4.080766201019287
0, 2, 13, 3.12952995300293
0, 2, 14, 3.777875423431396
0, 2, 15, 4.724438190460205
0, 2, 16, 6.875727653503418
0, 2, 17, 9.084627151489258
0, 2, 18, 16.72140884399414
0, 2, 19, 77.41645812988281
0, 2, 20, 162.2171173095703
0, 2, 21, 183.7910003662109
0, 2, 22, 193.7115020751953
0, 2, 23, 183.3955993652344
0, 2, 24, 173.7838287353516
0, 2, 25, 183.6633453369141
0, 2, 26, 179.2279205322266
0, 2, 27, 188.1760101318359
0, 2, 28, 171.6473999023438
0, 2, 29, 168.7210083007812
0, 2, 30, 185.9719848632812
0, 2, 31, 183.0203094482422
0, 2, 32, 184.3374938964844
0, 2, 33, 189.4644165039062
0, 2, 34, 198.1438446044922
0, 2, 35, 181.1380920410156
0, 2, 36, 186.4302978515625
0, 2, 37, 180.769287109375
0, 2, 38, 185.7209167480469
0, 2, 39, 166.6142883300781
0, 2, 40, 183.5520172119141
0, 2, 41, 184.8588714599609
0, 2, 42, 190.7221374511719
0, 2, 43, 193.2054595947266
0, 2, 44, 190.0762634277344
0, 2, 45, 189.8001861572266
0, 2, 46, 195.6042175292969
0, 2, 47, 189.3029022216797
0, 2, 48, 176.8986663818359
0, 2, 49, 197.0013580322266
0, 2, 50, 170.3213195800781
0, 2, 51, 184.6982421875
0, 2, 52, 186.8304443359375
0, 2, 53, 195.4314270019531
0, 2, 54, 176.1349945068359
0, 2, 55, 173.4641265869141
0, 2, 56, 182.7411193847656
0, 2, 57, 200.4837799072266
0, 2, 58, 186.3239135742188
0, 2, 59, 190.5439758300781
0, 2, 60, 196.6443176269531
0, 2, 61, 193.5876922607422
0, 2, 62, 190.0001983642578
0, 2, 63, 171.1847991943359
0, 2, 64, 189.2044830322266
0, 2, 65, 202.4872131347656
0, 2, 66, 196.0780334472656
0, 2, 67, 184.7235870361328
0, 2, 68, 182.1927337646484
0, 2, 69, 187.4429321289062
0, 2, 70, 203.2763214111328
0, 2, 71, 174.7534484863281
0, 2, 72, 185.6679077148438
0, 2, 73, 177.30419921875
0, 2, 74, 180.4913177490234
0, 2, 75, 196.3659820556641
0, 2, 76, 183.1137390136719
0, 2, 77, 177.0414581298828
0, 2, 78, 199.8719024658203
0, 2, 79, 178.0936279296875
0, 2, 80, 187.1436004638672
0, 2, 81, 187.4045867919922
0, 2, 82, 204.7127532958984
0, 2, 83, 204.8377227783203
0, 2, 84, 189.2117309570312
0, 2, 85, 171.4370574951172
0, 2, 86, 194.8913269042969
0, 2, 87, 171.6259613037109
0, 2, 88, 179.7932586669922
0, 2, 89, 185.1145477294922
0, 2, 90, 177.8660125732422
0, 2, 91, 173.6903381347656
0, 2, 92, 196.3098602294922
0, 2, 93, 192.7701873779297
0, 2, 94, 199.7119445800781
0, 2, 95, 194.0453796386719
0, 2, 96, 186.5153045654297
0, 2, 97, 171.6979217529297
0, 2, 98, 173.4258728027344
0, 2, 99, 163.192138671875
0, 2, 100, 187.2669372558594
0, 2, 101, 196.3295745849609
0, 2, 102, 176.1992950439453
0, 2, 103, 199.607177734375
0, 2, 104, 187.0308227539062
0, 2, 105, 201.5459289550781
0, 2, 106, 193.7853546142578
0, 2, 107, 150.8910675048828
0, 2, 108, 80.30721282958984
0, 2, 109, 17.7264347076416
0, 2, 110, 8.777692794799805
0, 2, 111, 5.768228530883789
0, 2, 112, 3.818945407867432
0, 2, 113, 4.516992092132568
0, 2, 114, 6.32658576965332
0, 2, 115, 4.952888488769531
0, 2, 116, 1.73677134513855
0, 2, 117, 1.810730814933777
0, 2, 118, 2.776139497756958
0, 2, 119, 3.592910051345825
0, 2, 120, 1.488550543785095
0, 2, 121, 3.427610397338867
0, 2, 122, 2.461538553237915
0, 2, 123, 3.253261566162109
0, 2, 124, 3.259193181991577
0, 2, 125, 2.52733588218689
0, 2, 126, 2.78202486038208
0, 2, 127, 0.7408424019813538
0, 3, 0, 1.820648670196533
0, 3, 1, 1.292834401130676
0, 3, 2, 1.358768820762634
0, 3, 3, 1.314092516899109
0, 3, 4, 4.440130710601807
0, 3, 5, 1.256904125213623
0, 3, 6, 1.286152482032776
0, 3, 7, 2.333227634429932
0, 3, 8, 2.537183284759521
0, 3, 9, 2.887063503265381
0, 3, 10, 2.787667274475098
0, 3, 11, 3.543485403060913
0, 3, 12, 3.74651026725769
0, 3, 13, 3.128040075302124
0, 3, 14, 4.444940567016602
0, 3, 15, 9.729852676391602
0, 3, 16, 8.829776763916016
0, 3, 17, 5.852688312530518
0, 3, 18, 33.98512268066406
0, 3, 19, 114.8195037841797
0, 3, 20, 180.6507720947266
0, 3, 21, 173.2745513916016
0, 3, 22, 177.7162475585938
0, 3, 23, 187.8718566894531
0, 3, 24, 179.5677337646484
0, 3, 25, 169.5680694580078
0, 3, 26, 180.4874267578125
0, 3, 27, 189.4137268066406
0, 3, 28, 183.3755340576172
0, 3, 29, 197.0484619140625
0, 3, 30, 185.2473449707031
0, 3, 31, 194.1082153320312
0, 3, 32, 205.6455688476562
0, 3, 33, 196.7538146972656
0, 3, 34, 188.8143157958984
0, 3, 35, 173.5639038085938
0, 3, 36, 185.4791717529297
0, 3, 37, 200.0200042724609
0, 3, 38, 190.7902984619141
0, 3, 39, 186.2607421875
0, 3, 40, 165.8419799804688
0, 3, 41, 173.825927734375
0, 3, 42, 184.7978363037109
0, 3, 43, 181.3118896484375
0, 3, 44, 203.1046295166016
0, 3, 45, 207.976318359375
0, 3, 46, 199.0146179199219
0, 3, 47, 195.9375915527344
0, 3, 48, 196.9703674316406
0, 3, 49, 182.2687072753906
0, 3, 50, 187.1468048095703
0, 3, 51, 174.1884613037109
0, 3, 52, 187.4478912353516
0, 3, 53, 178.2581787109375
0, 3, 54, 178.6801910400391
0, 3, 55, 176.6211242675781
0, 3, 56, 181.9624938964844
0, 3, 57, 174.3941192626953
0, 3, 58, 202.2254486083984
0, 3, 59, 195.2162475585938
0, 3, 60, 186.6960296630859
0, 3, 61, 182.630126953125
0, 3, 62, 182.5850219726562
0, 3, 63, 185.1000823974609
0, 3, 64, 190.2655792236328
0, 3, 65, 188.5665588378906
0, 3, 66, 175.8032379150391
0, 3, 67, 189.5696258544922
0, 3, 68, 211.0311737060547
0, 3, 69, 189.4722900390625
0, 3, 70, 185.8144378662109
0, 3, 71, 197.0520172119141
0, 3, 72, 185.3572845458984
0, 3, 73, 186.3355255126953
0, 3, 74, 192.1898193359375
0, 3, 75, 192.6433563232422
0, 3, 76, 190.5483093261719
0, 3, 77, 198.2071533203125
0, 3, 78, 189.3812408447266
0, 3, 79, 186.4013824462891
0, 3, 80, 189.2530822753906
0, 3, 81, 183.7462005615234
0, 3, 82, 179.6555938720703
0, 3, 83, 196.5428161621094
0, 3, 84, 200.7999877929688
0, 3, 85, 197.1343231201172
0, 3, 86, 204.1525115966797
0, 3, 87, 197.3160552978516
0, 3, 88, 191.5911560058594
0, 3, 89, 194.4942321777344
0, 3, 90, 173.9313049316406
0, 3, 91, 159.8165130615234
0, 3, 92, 206.1017761230469
0, 3, 93, 198.0471801757812
0, 3, 94, 192.571533203125
0, 3, 95, 211.1105499267578
0, 3, 96, 208.4830017089844
0, 3, 97, 169.4024658203125
0, 3, 98, 166.9314117431641
0, 3, 99, 180.3061828613281
0, 3, 100, 176.6201629638672
0, 3, 101, 196.7552795410156
0, 3, 102, 195.2618408203125
0, 3, 103, 192.9015045166016
0, 3, 104, 202.1500854492188
0, 3, 105, 175.4120788574219
0, 3, 106, 182.8289489746094
0, 3, 107, 169.2729187011719
0, 3, 108, 107.5315475463867
0, 3, 109, 27.84851837158203
0, 3, 110, 7.881617069244385
0, 3, 111, 7.053291320800781
0, 3, 112, 3.948535203933716
0, 3, 113, 6.731431484222412
0, 3, 114, 4.496888637542725
0, 3, 115, 5.859653949737549
0, 3, 116, 6.788302898406982
0, 3, 117, 3.464733123779297
0, 3, 118, 3.708078622817993
0, 3, 119, 2.610236644744873
0, 3, 120, 4.343833923339844
0, 3, 121, 2.311722755432129
0, 3, 122, 2.344376802444458
0, 3, 123, 2.340527057647705
0, 3, 124, 1.353745341300964
0, 3, 125, 1.339385867118835
0, 3, 126, 2.916211605072021
0, 3, 127, 1.79253613948822
0, 4, 0, 1.680147767066956
0, 4, 1, 0.6245661377906799
0, 4, 2, 2.221232652664185
0, 4, 3, 3.145966529846191
0, 4, 4, 1.944806814193726
0, 4, 5, 1.798963308334351
0, 4, 6, 2.801667451858521
0, 4, 7, 3.538564443588257
0, 4, 8, 1.165977716445923
0, 4, 9, 3.110651731491089
0, 4, 10, 4.05137825012207
0, 4, 11, 4.292590141296387
0, 4, 12, 4.548430919647217
0, 4, 13, 4.310403347015381
0, 4, 14, 3.849482297897339
0, 4, 15, 8.613641738891602
0, 4, 16, 6.005635738372803
0, 4, 17, 11.37330627441406
0, 4, 18, 55.57718658447266
0, 4, 19, 150.6571350097656
0, 4, 20, 193.2035980224609
0, 4, 21, 169.7075347900391
0, 4, 22, 187.9308471679688
0, 4, 23, 195.9275360107422
0, 4, 24, 192.1584777832031
0, 4, 25, 199.3008117675781
0, 4, 26, 182.6698760986328
0, 4, 27, 190.9577484130859
0, 4, 28, 179.2546844482422
0, 4, 29, 206.3661804199219
0, 4, 30, 195.7153015136719
0, 4, 31, 193.1649475097656
0, 4, 32, 208.8981628417969
0, 4, 33, 188.9126586914062
0, 4, 34, 193.0601196289062
0, 4, 35, 213.3556671142578
0, 4, 36, 192.77001953125
0, 4, 37, 177.2887878417969
0, 4, 38, 194.0628356933594
0, 4, 39, 190.0763854980469
0, 4, 40, 185.2665252685547
0, 4, 41, 190.5122985839844
0, 4, 42, 205.7321624755859
0, 4, 43, 173.4253692626953
0, 4, 44, 184.5260009765625
0, 4, 45, 195.8033905029297
0, 4, 46, 185.5182037353516
0, 4, 47, 179.9109649658203
0, 4, 48, 185.2393493652344
0, 4, 49, 175.6352996826172
0, 4, 50, 187.2983245849609
0, 4, 51, 197.9925842285156
0, 4, 52, 223.3925628662109
0, 4, 53, 206.1462249755859
0, 4, 54, 189.9592742919922
0, 4, 55, 175.3986358642578
0, 4, 56, 190.4308013916016
0, 4, 57, 191.8425445556641
0, 4, 58, 188.8358764648438
0, 4, 59, 189.5522003173828
0, 4, 60, 196.2521209716797
0, 4, 61, 193.2133331298828
0, 4, 62, 191.525390625
0, 4, 63, 178.0481719970703
0, 4, 64, 212.2798614501953
0, 4, 65, 190.9050445556641
0, 4, 66, 200.7298278808594
0, 4, 67, 200.5323181152344
0, 4, 68, 204.1481170654297
0, 4, 69, 199.1678161621094
0, 4, 70, 205.6663513183594
0, 4, 71, 206.9669952392578
0, 4, 72, 214.9634246826172
0, 4, 73, 185.1323852539062
0, 4, 74, 180.5614624023438
0, 4, 75, 184.5183258056641
0, 4, 76, 190.4896850585938
0, 4, 77, 183.9963989257812
0, 4, 78, 195.1141510009766
0, 4, 79, 205.4663391113281
0, 4, 80, 211.2824554443359
0, 4, 81, 199.2064819335938
0, 4, 82, 181.3766479492188
0, 4, 83, 170.8588714599609
0, 4, 84, 194.0799255371094
0, 4, 85, 196.5691833496094
0, 4, 86, 183.1138000488281
0, 4, 87, 183.1260070800781
0, 4, 88, 203.5693817138672
0, 4, 89, 187.2568817138672
0, 4, 90, 211.7993621826172
0, 4, 91, 189.5499267578125
0, 4, 92, 196.6884765625
0, 4, 93, 195.3688659667969
0, 4, 94, 181.1621704101562
0, 4, 95, 174.9431304931641
0, 4, 96, 190.0467987060547
0, 4, 97, 192.7013092041016
0, 4, 98, 200.4648284912109
0, 4, 99, 183.4437713623047
0, 4, 100, 182.0978851318359
0, 4, 101, 178.0942993164062
0, 4, 102, 175.0138244628906
0, 4, 103, 184.8797760009766
0, 4, 104, 211.6779022216797
0, 4, 105, 190.397705078125
0, 4, 106, 181.2435913085938
0, 4, 107, 181.0911865234375
0, 4, 108, 151.9209442138672
0, 4, 109, 48.42277908325195
0, 4, 110, 11.78789043426514
0, 4, 111, 8.000796318054199
0, 4, 112, 6.118502616882324
0, 4, 113, 5.842963695526123
0, 4, 114, 4.338220119476318
0, 4, 115, 3.23292064666748
0, 4, 116, 4.424995422363281
0, 4, 117, 3.292545795440674
0, 4, 118, 3.558117866516113
0, 4, 119, 2.96417498588562
0, 4, 120, 2.318529367446899
0, 4, 121, 2.301762819290161
0, 4, 122, 2.608144998550415
0, 4, 123, 1.387461185455322
0, 4, 124, 4.761133670806885
0, 4, 125, 3.401573896408081
0, 4, 126, 1.763715744018555
0, 4, 127, 1.615566611289978
0, 5, 0, 1.310323596000671
0, 5, 1, 3.120623588562012
0, 5, 2, 5.866548538208008
0, 5, 3, 4.034570693969727
0, 5, 4, 2.665379047393799
0, 5, 5, 1.199738144874573
0, 5, 6, 2.941893577575684
0, 5, 7, 2.607645750045776
0, 5, 8, 2.357850313186646
0, 5, 9, 2.264253854751587
0, 5, 10, 4.083670616149902
0, 5, 11, 3.293701648712158
0, 5, 12, 2.376674652099609
0, 5, 13, 3.315778970718384
0, 5, 14, 4.808820247650146
0, 5, 15, 10.32951831817627
0, 5, 16, 7.542239189147949
0, 5, 17, 20.83842658996582
0, 5, 18, 82.76851654052734
0, 5, 19, 164.8052673339844
0, 5, 20, 183.0258941650391
0, 5, 21, 177.8309478759766
0, 5, 22, 171.8257904052734
0, 5, 23, 201.06787109375
0, 5, 24, 186.9599456787109
0, 5, 25, 207.7829132080078
0, 5, 26, 183.2883453369141
0, 5, 27, 194.4224395751953
0, 5, 28, 189.7240142822266
0, 5, 29, 195.7019958496094
0, 5, 30, 177.8856353759766
0, 5, 31, 179.8702239990234
0, 5, 32, 187.0016479492188
0, 5, 33, 168.6829528808594
0, 5, 34, 194.5653533935547
0, 5, 35, 196.6948699951172
0, 5, 36, 167.5168762207031
0, 5, 37, 196.8953094482422
0, 5, 38, 180.3282623291016
0, 5, 39, 186.4653930664062
0, 5, 40, 196.8418121337891
0, 5, 41, 176.6893005371094
0, 5, 42, 187.7516632080078
0, 5, 43, 191.7427368164062
0, 5, 44, 199.4421539306641
0, 5, 45, 186.6395874023438
0, 5, 46, 193.2062225341797
0, 5, 47, 181.1042633056641
0, 5, 48, 178.5211791992188
0, 5, 49, 178.2590637207031
0, 5, 50, 186.8239593505859
0, 5, 51, 171.8520812988281
0, 5, 52, 167.628173828125
0, 5, 53, 182.3352355957031
0, 5, 54, 173.4698638916016
0, 5, 55, 216.9396362304688
0, 5, 56, 181.6405487060547
0, 5, 57, 208.4762420654297
0, 5, 58, 181.0704345703125
0, 5, 59, 180.990966796875
0, 5, 60, 218.3633728027344
0, 5, 61, 183.9568786621094
0, 5, 62, 178.1245574951172
0, 5, 63, 180.0876770019531
0, 5, 64, 194.1319885253906
0, 5, 65, 209.3727264404297
0, 5, 66, 193.3330841064453
0, 5, 67, 200.6694793701172
0, 5, 68, 185.4160003662109
0, 5, 69, 185.9568481445312
0, 5, 70, 185.2071380615234
0, 5, 71, 193.2256469726562
0, 5, 72, 197.6195526123047
0, 5, 73, 201.7928771972656
0, 5, 74, 179.5523681640625
0, 5, 75, 203.5253295898438
0, 5, 76, 214.0333404541016
0, 5, 77, 180.9447326660156
0, 5, 78, 193.9932098388672
0, 5, 79, 189.7667846679688
0, 5, 80, 197.2399597167969
0, 5, 81, 202.3434600830078
0, 5, 82, 200.9599609375
0, 5, 83, 189.0515289306641
0, 5, 84, 205.0918884277344
0, 5, 85, 176.2761535644531
0, 5, 86, 197.7057189941406
0, 5, 87, 188.1324157714844
0, 5, 88, 177.4714965820312
0, 5, 89, 194.2450561523438
0, 5, 90, 198.2435607910156
0, 5, 91, 194.8241729736328
0, 5, 92, 191.0587158203125
0, 5, 93, 190.0046844482422
0, 5, 94, 207.4355621337891
0, 5, 95, 176.7550048828125
0, 5, 96, 182.1613006591797
0, 5, 97, 191.0154266357422
0, 5, 98, 191.2540130615234
0, 5, 99, 194.4564666748047
0, 5, 100, 186.8857421875
0, 5, 101, 195.7276458740234
0, 5, 102, 180.8428497314453
0, 5, 103, 175.8189392089844
0, 5, 104, 190.6846008300781
0, 5, 105, 190.3381958007812
0, 5, 106, 176.5263519287109
0, 5, 107, 182.2636413574219
0, 5, 108, 176.2108764648438
0, 5, 109, 91.91923522949219
0, 5, 110, 29.91258239746094
0, 5, 111, 9.786458015441895
0, 5, 112, 6.029636859893799
0, 5, 113, 9.473060607910156
0, 5, 114, 7.204104900360107
0, 5, 115, 5.61677885055542
0, 5, 116, 3.834151268005371
0, 5, 117, 3.117555618286133
0, 5, 118, 3.835499286651611
0, 5, 119, 3.37007999420166
0, 5, 120, 3.613080739974976
0, 5, 121, 1.323542475700378
0, 5, 122, 2.184194564819336
0, 5, 123, 5.084856986999512
0, 5, 124, 2.963851928710938
0, 5, 125, 2.522888422012329
0, 5, 126, 2.570852756500244
0, 5, 127, 2.606952905654907
0, 6, 0, 4.419208526611328
0, 6, 1, 2.264983654022217
0, 6, 2, 4.518238067626953
0, 6, 3, 2.01089882850647
0, 6, 4, 4.047749042510986
0, 6, 5, 4.626583099365234
0, 6, 6, 2.913592338562012
0, 6, 7, 3.017048597335815
0, 6, 8, 3.849758148193359
0, 6, 9, 2.783935070037842
0, 6, 10, 3.817305088043213
0, 6, 11, 4.893119812011719
0, 6, 12, 5.587638854980469
0, 6, 13, 5.525103569030762
0, 6, 14, 6.099135398864746
0, 6, 15, 6.923934936523438
0, 6, 16, 12.58539295196533
0, 6, 17, 28.3797664642334
0, 6, 18, 111.8152923583984
0, 6, 19, 190.3257141113281
0, 6, 20, 197.4063873291016
0, 6, 21, 198.3289337158203
0, 6, 22, 190.8533782958984
0, 6, 23, 190.0858306884766
0, 6, 24, 200.3193359375
0, 6, 25, 183.6372375488281
0, 6, 26, 186.7231750488281
0, 6, 27, 192.7863464355469
0, 6, 28, 189.0086822509766
0, 6, 29, 212.0526733398438
0, 6, 30, 189.2183227539062
0, 6, 31, 192.9859008789062
0, 6, 32, 205.8322143554688
0, 6, 33, 183.8226470947266
0, 6, 34, 197.30126953125
0, 6, 35, 188.5674591064453
0, 6, 36, 180.5303192138672
0, 6, 37, 182.8966064453125
0, 6, 38, 185.4082336425781
0, 6, 39, 195.2981567382812
0, 6, 40, 174.6366271972656
0, 6, 41, 185.0185394287109
0, 6, 42, 173.9214324951172
0, 6, 43, 208.6798095703125
0, 6, 44, 209.4484100341797
0, 6, 45, 194.0903625488281
0, 6, 46, 187.4054870605469
0, 6, 47, 204.2556457519531
0, 6, 48, 188.2799835205078
0, 6, 49, 178.9699249267578
0, 6, 50, 181.6201782226562
0, 6, 51, 195.6226043701172
0, 6, 52, 197.2526092529297
0, 6, 53, 184.7613372802734
0, 6, 54, 175.5538482666016
0, 6, 55, 194.4892272949219
0, 6, 56, 203.8739013671875
0, 6, 57, 190.8078918457031
0, 6, 58, 179.3240966796875
0, 6, 59, 192.8587493896484
0, 6, 60, 184.9699249267578
0, 6, 61, 194.1338653564453
0, 6, 62, 197.0391540527344
0, 6, 63, 186.6508331298828
0, 6, 64, 168.5867156982422
0, 6, 65, 185.3636474609375
0, 6, 66, 197.2826690673828
0, 6, 67, 214.5579528808594
0, 6, 68, 181.9000091552734
0, 6, 69, 172.6553955078125
0, 6, 70, 187.7171630859375
0, 6, 71, 170.5256652832031
0, 6, 72, 176.0748138427734
0, 6, 73, 177.1207427978516
0, 6, 74, 211.0501861572266
0, 6, 75, 227.7249298095703
0, 6, 76, 183.6946105957031
0, 6, 77, 172.6158447265625
0, 6, 78, 175.1382751464844
0, 6, 79, 185.5158081054688
0, 6, 80, 187.6526489257812
0, 6, 81, 210.47705078125
0, 6, 82, 194.8425140380859
0, 6, 83, 195.3753204345703
0, 6, 84, 197.6911315917969
0, 6, 85, 181.0421295166016
0, 6, 86, 202.33837890625
0, 6, 87, 184.040771484375
0, 6, 88, 192.4291229248047
0, 6, 89, 188.9372711181641
0, 6, 90, 205.5168304443359
0, 6, 91, 199.9387664794922
0, 6, 92, 172.9742126464844
0, 6, 93, 192.3090209960938
0, 6, 94, 189.0495452880859
0, 6, 95, 185.1909942626953
0, 6, 96, 190.0873870849609
0, 6, 97, 195.1907958984375
0, 6, 98, 182.9063720703125
0, 6, 99, 175.1413421630859
0, 6, 100, 201.0923919677734
0, 6, 101, 168.79931640625
0, 6, 102, 202.2122039794922
0, 6, 103, 197.1640472412109
0, 6, 104, 183.5225982666016
0, 6, 105, 195.4398345947266
0, 6, 106, 177.3950653076172
0, 6, 107, 194.2921295166016
0, 6, 108, 171.4373626708984
0, 6, 109, 114.6213455200195
0, 6, 110, 35.36922073364258
0, 6, 111, 9.335328102111816
0, 6, 112, 8.080953598022461
0, 6, 113, 5.542736053466797
0, 6, 114, 5.847429752349854
0, 6, 115, 5.096271991729736
0, 6, 116, 4.786903858184814
0, 6, 117, 4.603612422943115
0, 6, 118, 3.085138082504272
0, 6, 119, 3.382764339447021
0, 6, 120, 1.789499163627625
0, 6, 121, 3.689063310623169
0, 6, 122, 6.457029819488525
0, 6, 123, 2.4245445728302
0, 6, 124, 1.700679183006287
0, 6, 125, 2.826271533966064
0, 6, 126, 2.950519561767578
0, 6, 127, 2.090044498443604
0, 7, 0, 2.921056747436523
0, 7, 1, 1.831344485282898
0, 7, 2, 1.807422876358032
0, 7, 3, 2.443834781646729
0, 7, 4, 1.040692925453186
0, 7, 5, 1.396554112434387
0, 7, 6, 2.01052451133728
0, 7, 7, 1.917845487594604
0, 7, 8, 3.021253347396851
0, 7, 9, 3.591259241104126
0, 7, 10, 5.758818626403809
0, 7, 11, 3.760517358779907
0, 7, 12, 3.991421937942505
0, 7, 13, 5.96510124206543
0, 7, 14, 6.65247917175293
0, 7, 15, 7.560888767242432
0, 7, 16, 15.33724117279053
0, 7, 17, 51.78662872314453
0, 7, 18, 161.5502014160156
0, 7, 19, 182.2947235107422
0, 7, 20, 178.8562164306641
0, 7, 21, 179.6135406494141
0, 7, 22, 191.4712371826172
0, 7, 23, 202.9236907958984
0, 7, 24, 179.5183868408203
0, 7, 25, 214.0041351318359
0, 7, 26, 189.4573211669922
0, 7, 27, 181.7068023681641
0, 7, 28, 183.1213989257812
0, 7, 29, 208.8208160400391
0, 7, 30, 192.7299041748047
0, 7, 31, 175.1155548095703
0, 7, 32, 191.4480438232422
0, 7, 33, 180.4326019287109
0, 7, 34, 195.6334533691406
0, 7, 35, 197.4496917724609
0, 7, 36, 187.3379516601562
0, 7, 37, 213.8439331054688
0, 7, 38, 190.3376312255859
0, 7, 39, 172.8889007568359
0, 7, 40, 183.1560516357422
0, 7, 41, 184.8883972167969
0, 7, 42, 178.1418151855469
0, 7, 43, 178.5436248779297
0, 7, 44, 180.1312561035156
0, 7, 45, 175.6983642578125
0, 7, 46, 189.7380218505859
0, 7, 47, 198.4353179931641
0, 7, 48, 185.9656219482422
0, 7, 49, 199.9483184814453
0, 7, 50, 187.5073852539062
0, 7, 51, 205.0731201171875
0, 7, 52, 203.7600555419922
0, 7, 53, 191.4631805419922
0, 7, 54, 194.7173461914062
0, 7, 55, 203.450439453125
0, 7, 56, 183.5570678710938
0, 7, 57, 182.6206665039062
0, 7, 58, 193.0538330078125
0, 7, 59, 187.6514129638672
0, 7, 60, 203.1501159667969
0, 7, 61, 171.4633941650391
0, 7, 62, 203.2708282470703
0, 7, 63, 188.5541534423828
0, 7, 64, 199.5418243408203
0, 7, 65, 197.5528411865234
0, 7, 66, 205.9036102294922
0, 7, 67, 219.8138275146484
0, 7, 68, 162.4319610595703
0, 7, 69, 193.6561431884766
0, 7, 70, 219.4201812744141
0, 7, 71, 184.0322570800781
0, 7, 72, 180.4599304199219
0, 7, 73, 176.9629669189453
0, 7, 74, 207.5049285888672
0, 7, 75, 205.0848236083984
0, 7, 76, 214.0753479003906
0, 7, 77, 174.6795501708984
0, 7, 78, 177.0352325439453
0, 7, 79, 193.0214691162109
0, 7, 80, 195.9049224853516
0, 7, 81, 214.9065093994141
0, 7, 82, 185.4071044921875
0, 7, 83, 204.870849609375
0, 7, 84, 191.2667541503906
0, 7, 85, 186.9937744140625
0, 7, 86, 200.9952239990234
0, 7, 87, 225.8555297851562
0, 7, 88, 194.7351989746094
0, 7, 89, 176.6697235107422
0, 7, 90, 181.9628601074219
0, 7, 91, 194.583984375
0, 7, 92, 197.0297088623047
0, 7, 93, 199.6745300292969
0, 7, 94, 176.5987243652344
0, 7, 95, 197.3097076416016
0, 7, 96, 209.4633636474609
0, 7, 97, 190.1060180664062
0, 7, 98, 176.4707794189453
0, 7, 99, 197.0007934570312
0, 7, 100, 182.6387023925781
0, 7, 101, 199.4189300537109
0, 7, 102, 185.7272644042969
0, 7, 103, 182.6170196533203
0, 7, 104, 174.7342376708984
0, 7, 105, 194.9763946533203
0, 7, 106, 205.7265625
0, 7, 107, 173.6560516357422
0, 7, 108, 177.6814117431641
0, 7, 109, 136.6576538085938
0, 7, 110, 53.91886520385742
0, 7, 111, 8.420495986938477
0, 7, 112, 8.517315864562988
0, 7, 113, 9.458489418029785
0, 7, 114, 7.173351764678955
0, 7, 115, 4.56721830368042
0, 7, 116, 3.838786840438843
0, 7, 117, 2.581361055374146
0, 7, 118, 3.062289237976074
0, 7, 119, 3.436395883560181
0, 7, 120, 2.339876174926758
0, 7, 121, 4.14439868927002
0, 7, 122, 6.224508762359619
0, 7, 123, 1.798869013786316
0, 7, 124, 1.394444108009338
0, 7, 125, 2.361336469650269
0, 7, 126, 3.061398506164551
0, 7, 127, 0.8814297914505005
0, 8, 0, 3.887681007385254
0, 8, 1, 2.169724464416504
0, 8, 2, 3.40589427947998
0, 8, 3, 2.060691118240356
0, 8, 4, 1.675076007843018
0, 8, 5, 4.670066833496094
0, 8, 6, 2.993004560470581
0, 8, 7, 2.855892658233643
0, 8, 8, 3.450805902481079
0, 8, 9, 5.870203971862793
0, 8, 10, 2.614753484725952
0, 8, 11, 2.89507269859314
0, 8, 12, 4.217018127441406
0, 8, 13, 5.115601062774658
0, 8, 14, 7.1901535987854
0, 8, 15, 8.356338500976562
0, 8, 16, 19.11334228515625
0, 8, 17, 73.99892425537109
0, 8, 18, 142.5754699707031
0, 8, 19, 179.3185882568359
0, 8, 20, 191.9032135009766
0, 8, 21, 193.056884765625
0, 8, 22, 180.5719299316406
0, 8, 23, 172.465087890625
0, 8, 24, 191.5393829345703
0, 8, 25, 185.7196044921875
0, 8, 26, 192.1234741210938
0, 8, 27, 186.0843200683594
0, 8, 28, 187.4154510498047
0, 8, 29, 207.7014923095703
0, 8, 30, 196.6381683349609
0, 8, 31, 182.1688232421875
0, 8, 32, 198.4386901855469
0, 8, 33, 206.2245941162109
0, 8, 34, 202.9701385498047
0, 8, 35, 185.4777679443359
0, 8, 36, 182.0328521728516
