# TOPAS Version: 3.1.p3
# Parameter File: batch_inserts_80.txt
# Results for scorer Readout_Adipose
# Scored in component: MyBox
# X in 1 bin  of 0.65 cm
# Y in 512 bins of 0.0783984 cm
# Z in 128 bins of 0.078125 cm
# EnergyDeposit ( MeV ) : Sum   
0, 0, 0, 1.507781863212585
0, 0, 1, 2.918622732162476
0, 0, 2, 2.106200695037842
0, 0, 3, 2.061428308486938
0, 0, 4, 1.076952338218689
0, 0, 5, 0.4482163786888123
0, 0, 6, 1.438550710678101
0, 0, 7, 2.210721015930176
0, 0, 8, 1.605466842651367
0, 0, 9, 2.563999176025391
0, 0, 10, 2.373690843582153
0, 0, 11, 3.633326292037964
0, 0, 12, 3.812194108963013
0, 0, 13, 1.88979434967041
0, 0, 14, 4.866787433624268
0, 0, 15, 4.905906200408936
0, 0, 16, 5.71766185760498
0, 0, 17, 6.489097118377686
0, 0, 18, 6.063799381256104
0, 0, 19, 22.4084529876709
0, 0, 20, 93.91490173339844
0, 0, 21, 153.7589874267578
0, 0, 22, 154.1073913574219
0, 0, 23, 143.6208038330078
0, 0, 24, 159.5698852539062
0, 0, 25, 166.2053833007812
0, 0, 26, 166.2587280273438
0, 0, 27, 174.638427734375
0, 0, 28, 177.7120666503906
0, 0, 29, 174.8096466064453
0, 0, 30, 172.4082183837891
0, 0, 31, 167.0015716552734
0, 0, 32, 164.8156585693359
0, 0, 33, 167.8886871337891
0, 0, 34, 176.0689697265625
0, 0, 35, 172.5422515869141
0, 0, 36, 159.3215789794922
0, 0, 37, 160.8343963623047
0, 0, 38, 166.384033203125
0, 0, 39, 159.1309051513672
0, 0, 40, 165.5345306396484
0, 0, 41, 166.4102783203125
0, 0, 42, 144.0368804931641
0, 0, 43, 168.6736907958984
0, 0, 44, 178.40283203125
0, 0, 45, 174.0621337890625
0, 0, 46, 167.8554534912109
0, 0, 47, 168.3515167236328
0, 0, 48, 168.8333587646484
0, 0, 49, 183.7743377685547
0, 0, 50, 171.0475158691406
0, 0, 51, 163.0164031982422
0, 0, 52, 164.9209442138672
0, 0, 53, 170.9717712402344
0, 0, 54, 159.6572723388672
0, 0, 55, 164.5940399169922
0, 0, 56, 188.5905609130859
0, 0, 57, 169.9657440185547
0, 0, 58, 162.7715911865234
0, 0, 59, 172.0764770507812
0, 0, 60, 167.9710083007812
0, 0, 61, 168.4611663818359
0, 0, 62, 184.3536682128906
0, 0, 63, 166.4981079101562
0, 0, 64, 163.9757232666016
0, 0, 65, 175.7932739257812
0, 0, 66, 178.6432037353516
0, 0, 67, 164.4472503662109
0, 0, 68, 159.17333984375
0, 0, 69, 158.6528167724609
0, 0, 70, 170.3159027099609
0, 0, 71, 158.1273651123047
0, 0, 72, 163.3551940917969
0, 0, 73, 171.6781616210938
0, 0, 74, 164.7362518310547
0, 0, 75, 164.3120422363281
0, 0, 76, 163.0806121826172
0, 0, 77, 171.7492370605469
0, 0, 78, 181.2300720214844
0, 0, 79, 175.0033721923828
0, 0, 80, 160.1030731201172
0, 0, 81, 159.649169921875
0, 0, 82, 181.5848541259766
0, 0, 83, 172.552001953125
0, 0, 84, 159.5126800537109
0, 0, 85, 181.5401153564453
0, 0, 86, 159.8922576904297
0, 0, 87, 177.1020355224609
0, 0, 88, 177.4828643798828
0, 0, 89, 174.5339202880859
0, 0, 90, 161.8688507080078
0, 0, 91, 184.9415740966797
0, 0, 92, 165.0663909912109
0, 0, 93, 156.1995239257812
0, 0, 94, 169.2714080810547
0, 0, 95, 175.0888214111328
0, 0, 96, 184.2017211914062
0, 0, 97, 185.3638305664062
0, 0, 98, 186.0669860839844
0, 0, 99, 171.2825317382812
0, 0, 100, 158.5287933349609
0, 0, 101, 166.6676330566406
0, 0, 102, 169.6876983642578
0, 0, 103, 170.5073699951172
0, 0, 104, 169.3767852783203
0, 0, 105, 180.4881591796875
0, 0, 106, 158.8215637207031
0, 0, 107, 85.24283599853516
0, 0, 108, 20.83974647521973
0, 0, 109, 10.31442832946777
0, 0, 110, 5.268074989318848
0, 0, 111, 6.488349437713623
0, 0, 112, 4.547720909118652
0, 0, 113, 2.454166412353516
0, 0, 114, 2.019133806228638
0, 0, 115, 3.39544677734375
0, 0, 116, 1.619099020957947
0, 0, 117, 2.661441802978516
0, 0, 118, 1.918128132820129
0, 0, 119, 2.451306581497192
0, 0, 120, 1.196158409118652
0, 0, 121, 3.413452625274658
0, 0, 122, 4.231577396392822
0, 0, 123, 4.23070764541626
0, 0, 124, 1.198121428489685
0, 0, 125, 2.453599452972412
0, 0, 126, 0.7109629511833191
0, 0, 127, 2.055011749267578
0, 1, 0, 1.029733300209045
0, 1, 1, 5.523336887359619
0, 1, 2, 2.935563802719116
0, 1, 3, 1.964158058166504
0, 1, 4, 1.919208168983459
0, 1, 5, 1.698754072189331
0, 1, 6, 1.124423384666443
0, 1, 7, 2.240208387374878
0, 1, 8, 2.046111583709717
0, 1, 9, 1.363287091255188
0, 1, 10, 1.47835910320282
0, 1, 11, 5.228650569915771
0, 1, 12, 2.312682628631592
0, 1, 13, 3.708399295806885
0, 1, 14, 6.421858310699463
0, 1, 15, 7.189355850219727
0, 1, 16, 9.254783630371094
0, 1, 17, 4.81989860534668
0, 1, 18, 10.32821464538574
0, 1, 19, 38.47195053100586
0, 1, 20, 125.1893997192383
0, 1, 21, 176.6408843994141
0, 1, 22, 192.6675567626953
0, 1, 23, 186.4307861328125
0, 1, 24, 179.8503723144531
0, 1, 25, 191.9177551269531
0, 1, 26, 198.9664611816406
0, 1, 27, 186.2641143798828
0, 1, 28, 188.3158416748047
0, 1, 29, 183.4025573730469
0, 1, 30, 178.8113708496094
0, 1, 31, 181.65625
0, 1, 32, 188.4553833007812
0, 1, 33, 190.1639404296875
0, 1, 34, 185.1982269287109
0, 1, 35, 194.7055206298828
0, 1, 36, 205.7571105957031
0, 1, 37, 185.0833740234375
0, 1, 38, 164.4734649658203
0, 1, 39, 171.9960327148438
0, 1, 40, 179.3983917236328
0, 1, 41, 185.3179168701172
0, 1, 42, 182.1396179199219
0, 1, 43, 185.3240203857422
0, 1, 44, 166.7758483886719
0, 1, 45, 186.3656768798828
0, 1, 46, 171.0963134765625
0, 1, 47, 186.1223449707031
0, 1, 48, 186.609130859375
0, 1, 49, 186.5576019287109
0, 1, 50, 178.5980987548828
0, 1, 51, 189.7221069335938
0, 1, 52, 196.4042053222656
0, 1, 53, 195.7398071289062
0, 1, 54, 184.6384582519531
0, 1, 55, 164.8597717285156
0, 1, 56, 178.8097534179688
0, 1, 57, 179.2507781982422
0, 1, 58, 188.6870422363281
0, 1, 59, 193.7095794677734
0, 1, 60, 187.5818176269531
0, 1, 61, 177.8019714355469
0, 1, 62, 205.095947265625
0, 1, 63, 174.390625
0, 1, 64, 174.4208374023438
0, 1, 65, 186.0085296630859
0, 1, 66, 204.3609466552734
0, 1, 67, 182.4467010498047
0, 1, 68, 187.0941619873047
0, 1, 69, 190.6403198242188
0, 1, 70, 185.0895385742188
0, 1, 71, 171.6985168457031
0, 1, 72, 191.3918304443359
0, 1, 73, 190.9944305419922
0, 1, 74, 201.7581481933594
0, 1, 75, 183.6076354980469
0, 1, 76, 174.09521484375
0, 1, 77, 192.5182800292969
0, 1, 78, 187.5464477539062
0, 1, 79, 201.5559234619141
0, 1, 80, 187.6150817871094
0, 1, 81, 176.4163665771484
0, 1, 82, 208.7307891845703
0, 1, 83, 212.3289031982422
0, 1, 84, 179.7354278564453
0, 1, 85, 169.1219177246094
0, 1, 86, 168.9267425537109
0, 1, 87, 185.014404296875
0, 1, 88, 176.5780792236328
0, 1, 89, 187.6964569091797
0, 1, 90, 213.382080078125
0, 1, 91, 180.6440277099609
0, 1, 92, 184.1586608886719
0, 1, 93, 181.9967041015625
0, 1, 94, 186.1511688232422
0, 1, 95, 182.4672546386719
0, 1, 96, 197.0555877685547
0, 1, 97, 182.9034576416016
0, 1, 98, 185.9808654785156
0, 1, 99, 175.1915740966797
0, 1, 100, 170.9657745361328
0, 1, 101, 177.9796142578125
0, 1, 102, 182.1063385009766
0, 1, 103, 172.6116333007812
0, 1, 104, 188.6293029785156
0, 1, 105, 181.2001953125
0, 1, 106, 165.4717864990234
0, 1, 107, 125.0369491577148
0, 1, 108, 46.18825912475586
0, 1, 109, 10.10092353820801
0, 1, 110, 8.467962265014648
0, 1, 111, 5.689936637878418
0, 1, 112, 9.262770652770996
0, 1, 113, 6.833407402038574
0, 1, 114, 4.646638870239258
0, 1, 115, 2.917812824249268
0, 1, 116, 2.478155612945557
0, 1, 117, 1.783699870109558
0, 1, 118, 3.095216035842896
0, 1, 119, 2.585968255996704
0, 1, 120, 3.72411322593689
0, 1, 121, 4.329799652099609
0, 1, 122, 3.641279458999634
0, 1, 123, 3.532070636749268
0, 1, 124, 2.802029371261597
0, 1, 125, 2.450025320053101
0, 1, 126, 2.034478187561035
0, 1, 127, 2.042688846588135
0, 2, 0, 2.736897468566895
0, 2, 1, 1.6817626953125
0, 2, 2, 2.807495832443237
0, 2, 3, 1.098289251327515
0, 2, 4, 1.590348958969116
0, 2, 5, 1.16433322429657
0, 2, 6, 2.264280796051025
0, 2, 7, 1.562465310096741
0, 2, 8, 2.096119403839111
0, 2, 9, 3.105879068374634
0, 2, 10, 7.30393648147583
0, 2, 11, 5.124713897705078
0, 2, 12, 5.068774700164795
0, 2, 13, 4.586953163146973
0, 2, 14, 4.914429664611816
0, 2, 15, 6.329451084136963
0, 2, 16, 4.133194446563721
0, 2, 17, 8.996927261352539
0, 2, 18, 14.13462352752686
0, 2, 19, 78.12537384033203
0, 2, 20, 162.5451507568359
0, 2, 21, 183.5123443603516
0, 2, 22, 194.5190277099609
0, 2, 23, 184.572021484375
0, 2, 24, 173.6678009033203
0, 2, 25, 184.361083984375
0, 2, 26, 181.7821197509766
0, 2, 27, 190.5723114013672
0, 2, 28, 173.1131591796875
0, 2, 29, 169.0019683837891
0, 2, 30, 184.6431121826172
0, 2, 31, 182.1268310546875
0, 2, 32, 183.6798858642578
0, 2, 33, 191.2670593261719
0, 2, 34, 195.8788146972656
0, 2, 35, 182.7259521484375
0, 2, 36, 185.7295379638672
0, 2, 37, 180.8530883789062
0, 2, 38, 183.7604064941406
0, 2, 39, 166.8287048339844
0, 2, 40, 183.7059326171875
0, 2, 41, 184.07373046875
0, 2, 42, 188.7729339599609
0, 2, 43, 193.1748046875
0, 2, 44, 191.770751953125
0, 2, 45, 190.8632507324219
0, 2, 46, 195.6869201660156
0, 2, 47, 188.5658264160156
0, 2, 48, 177.0957336425781
0, 2, 49, 197.2339172363281
0, 2, 50, 167.4510345458984
0, 2, 51, 185.9883270263672
0, 2, 52, 185.5177764892578
0, 2, 53, 195.3540649414062
0, 2, 54, 176.1670837402344
0, 2, 55, 174.0331878662109
0, 2, 56, 182.0519714355469
0, 2, 57, 199.6281433105469
0, 2, 58, 186.3865966796875
0, 2, 59, 190.5382995605469
0, 2, 60, 196.5909271240234
0, 2, 61, 194.1369476318359
0, 2, 62, 191.0939788818359
0, 2, 63, 170.71337890625
0, 2, 64, 190.8289184570312
0, 2, 65, 202.1275634765625
0, 2, 66, 195.4612731933594
0, 2, 67, 185.3195648193359
0, 2, 68, 183.0848693847656
0, 2, 69, 189.5132598876953
0, 2, 70, 202.1764373779297
0, 2, 71, 174.8232269287109
0, 2, 72, 185.5399627685547
0, 2, 73, 177.3068389892578
0, 2, 74, 181.1813049316406
0, 2, 75, 196.1956176757812
0, 2, 76, 186.7535095214844
0, 2, 77, 177.1575622558594
0, 2, 78, 198.6466979980469
0, 2, 79, 177.0048828125
0, 2, 80, 188.929931640625
0, 2, 81, 187.7978515625
0, 2, 82, 205.9956207275391
0, 2, 83, 203.6229248046875
0, 2, 84, 188.2338256835938
0, 2, 85, 172.1899261474609
0, 2, 86, 198.13330078125
0, 2, 87, 171.63818359375
0, 2, 88, 179.1641845703125
0, 2, 89, 184.4653625488281
0, 2, 90, 177.5225372314453
0, 2, 91, 174.3631896972656
0, 2, 92, 196.894287109375
0, 2, 93, 195.5675659179688
0, 2, 94, 198.9544525146484
0, 2, 95, 194.3750457763672
0, 2, 96, 186.4969482421875
0, 2, 97, 171.8611907958984
0, 2, 98, 173.6841888427734
0, 2, 99, 162.0809936523438
0, 2, 100, 188.9251708984375
0, 2, 101, 196.0893859863281
0, 2, 102, 176.3073272705078
0, 2, 103, 200.493408203125
0, 2, 104, 187.0379638671875
0, 2, 105, 200.4960632324219
0, 2, 106, 195.5988311767578
0, 2, 107, 149.5085906982422
0, 2, 108, 78.6256103515625
0, 2, 109, 17.69472312927246
0, 2, 110, 8.465108871459961
0, 2, 111, 5.770545482635498
0, 2, 112, 4.269845008850098
0, 2, 113, 4.053938865661621
0, 2, 114, 8.872546195983887
0, 2, 115, 5.364237308502197
0, 2, 116, 1.483867406845093
0, 2, 117, 2.741410732269287
0, 2, 118, 1.678818464279175
0, 2, 119, 3.647055625915527
0, 2, 120, 2.917630910873413
0, 2, 121, 3.503142118453979
0, 2, 122, 1.308975696563721
0, 2, 123, 4.034567832946777
0, 2, 124, 2.036815166473389
0, 2, 125, 2.524502515792847
0, 2, 126, 3.774582386016846
0, 2, 127, 1.728483915328979
0, 3, 0, 1.084916353225708
0, 3, 1, 2.052462577819824
0, 3, 2, 1.602028250694275
0, 3, 3, 1.45798921585083
0, 3, 4, 4.115889549255371
0, 3, 5, 1.708128213882446
0, 3, 6, 0.9410615563392639
0, 3, 7, 1.102027654647827
0, 3, 8, 1.676069617271423
0, 3, 9, 2.880053281784058
0, 3, 10, 1.733766794204712
0, 3, 11, 3.801717519760132
0, 3, 12, 4.333729267120361
0, 3, 13, 3.381391763687134
0, 3, 14, 3.892351865768433
0, 3, 15, 7.050594329833984
0, 3, 16, 7.731141567230225
0, 3, 17, 5.9628005027771
0, 3, 18, 32.24937438964844
0, 3, 19, 114.6466903686523
0, 3, 20, 180.6303405761719
0, 3, 21, 173.3448638916016
0, 3, 22, 178.1725158691406
0, 3, 23, 187.4251556396484
0, 3, 24, 177.776611328125
0, 3, 25, 168.9844360351562
0, 3, 26, 180.7479095458984
0, 3, 27, 190.1464080810547
0, 3, 28, 181.1976928710938
0, 3, 29, 197.2465057373047
0, 3, 30, 184.5819702148438
0, 3, 31, 194.1920166015625
0, 3, 32, 205.6859893798828
0, 3, 33, 195.8818054199219
0, 3, 34, 186.4320373535156
0, 3, 35, 173.7297668457031
0, 3, 36, 186.4228820800781
0, 3, 37, 200.2455596923828
0, 3, 38, 191.9486846923828
0, 3, 39, 184.3780670166016
0, 3, 40, 165.3237915039062
0, 3, 41, 174.4730224609375
0, 3, 42, 185.6701049804688
0, 3, 43, 181.3261260986328
0, 3, 44, 203.1731719970703
0, 3, 45, 207.2738800048828
0, 3, 46, 199.5483551025391
0, 3, 47, 194.8193664550781
0, 3, 48, 195.1376495361328
0, 3, 49, 179.4316253662109
0, 3, 50, 187.1199951171875
0, 3, 51, 174.6185302734375
0, 3, 52, 187.0700073242188
0, 3, 53, 177.1814727783203
0, 3, 54, 179.9518890380859
0, 3, 55, 176.5261840820312
0, 3, 56, 182.3859710693359
0, 3, 57, 175.4212951660156
0, 3, 58, 201.1901397705078
0, 3, 59, 197.4470062255859
0, 3, 60, 186.5025939941406
0, 3, 61, 181.0405731201172
0, 3, 62, 181.4499969482422
0, 3, 63, 184.4596405029297
0, 3, 64, 189.3027648925781
0, 3, 65, 187.7693023681641
0, 3, 66, 175.6327209472656
0, 3, 67, 190.5624542236328
0, 3, 68, 214.9891204833984
0, 3, 69, 190.7861175537109
0, 3, 70, 185.9040374755859
0, 3, 71, 196.8239288330078
0, 3, 72, 185.4239959716797
0, 3, 73, 186.2212829589844
0, 3, 74, 192.0182647705078
0, 3, 75, 193.8850402832031
0, 3, 76, 190.5249633789062
0, 3, 77, 198.2510070800781
0, 3, 78, 189.5235595703125
0, 3, 79, 185.7979278564453
0, 3, 80, 189.1459655761719
0, 3, 81, 183.0341644287109
0, 3, 82, 179.6653289794922
0, 3, 83, 196.7721557617188
0, 3, 84, 199.1146850585938
0, 3, 85, 193.2795867919922
0, 3, 86, 206.2200164794922
0, 3, 87, 197.4510955810547
0, 3, 88, 190.8584289550781
0, 3, 89, 192.5621643066406
0, 3, 90, 174.4402160644531
0, 3, 91, 159.3387603759766
0, 3, 92, 207.0834808349609
0, 3, 93, 197.1911468505859
0, 3, 94, 194.1754913330078
0, 3, 95, 211.2278289794922
0, 3, 96, 210.1192474365234
0, 3, 97, 170.6275177001953
0, 3, 98, 169.0107269287109
0, 3, 99, 180.6305236816406
0, 3, 100, 176.0701904296875
0, 3, 101, 198.567626953125
0, 3, 102, 194.5193176269531
0, 3, 103, 192.879638671875
0, 3, 104, 201.5765991210938
0, 3, 105, 175.0734405517578
0, 3, 106, 181.8160095214844
0, 3, 107, 169.4178466796875
0, 3, 108, 107.9685211181641
0, 3, 109, 27.60033988952637
0, 3, 110, 7.333651542663574
0, 3, 111, 6.887735366821289
0, 3, 112, 3.969587564468384
0, 3, 113, 7.577794551849365
0, 3, 114, 4.903088092803955
0, 3, 115, 5.963922023773193
0, 3, 116, 5.927989482879639
0, 3, 117, 3.461981534957886
0, 3, 118, 3.017942190170288
0, 3, 119, 2.26611590385437
0, 3, 120, 3.560068368911743
0, 3, 121, 2.214400053024292
0, 3, 122, 4.903146266937256
0, 3, 123, 1.600897669792175
0, 3, 124, 2.549151420593262
0, 3, 125, 1.579977512359619
0, 3, 126, 1.896592020988464
0, 3, 127, 2.908477306365967
0, 4, 0, 2.5934157371521
0, 4, 1, 1.498231530189514
0, 4, 2, 2.48067307472229
0, 4, 3, 3.442032337188721
0, 4, 4, 2.335163116455078
0, 4, 5, 1.926095366477966
0, 4, 6, 2.717277765274048
0, 4, 7, 3.655691862106323
0, 4, 8, 4.33747673034668
0, 4, 9, 2.806559085845947
0, 4, 10, 3.165720462799072
0, 4, 11, 2.923342704772949
0, 4, 12, 3.30895209312439
0, 4, 13, 5.34201717376709
0, 4, 14, 4.027923107147217
0, 4, 15, 8.128877639770508
0, 4, 16, 7.578278541564941
0, 4, 17, 11.57287693023682
0, 4, 18, 55.36807632446289
0, 4, 19, 150.2828521728516
0, 4, 20, 193.5498809814453
0, 4, 21, 169.5098266601562
0, 4, 22, 187.3110046386719
0, 4, 23, 196.6165161132812
0, 4, 24, 192.2356262207031
0, 4, 25, 200.9675140380859
0, 4, 26, 183.6556701660156
0, 4, 27, 190.7244262695312
0, 4, 28, 177.5648651123047
0, 4, 29, 204.9638824462891
0, 4, 30, 195.5316314697266
0, 4, 31, 191.7246551513672
0, 4, 32, 209.4424285888672
0, 4, 33, 189.3230438232422
0, 4, 34, 192.4183349609375
0, 4, 35, 212.1973114013672
0, 4, 36, 194.0587005615234
0, 4, 37, 177.1196746826172
0, 4, 38, 198.0281219482422
0, 4, 39, 189.9422454833984
0, 4, 40, 185.9123992919922
0, 4, 41, 189.2578582763672
0, 4, 42, 205.9363708496094
0, 4, 43, 173.6956939697266
0, 4, 44, 184.3167724609375
0, 4, 45, 197.0659637451172
0, 4, 46, 186.413330078125
0, 4, 47, 179.3120574951172
0, 4, 48, 187.2038421630859
0, 4, 49, 175.8262634277344
0, 4, 50, 186.0583190917969
0, 4, 51, 197.6376953125
0, 4, 52, 227.4847106933594
0, 4, 53, 206.2435607910156
0, 4, 54, 189.0915985107422
0, 4, 55, 174.7533111572266
0, 4, 56, 190.6363525390625
0, 4, 57, 191.4356842041016
0, 4, 58, 187.5559997558594
0, 4, 59, 190.6892242431641
0, 4, 60, 196.1099700927734
0, 4, 61, 193.11767578125
0, 4, 62, 190.2509765625
0, 4, 63, 178.0863494873047
0, 4, 64, 211.4242553710938
0, 4, 65, 190.7842712402344
0, 4, 66, 201.5639953613281
0, 4, 67, 200.4676971435547
0, 4, 68, 200.4148254394531
0, 4, 69, 198.6194458007812
0, 4, 70, 205.1268005371094
0, 4, 71, 208.1511993408203
0, 4, 72, 214.8550872802734
0, 4, 73, 185.3274993896484
0, 4, 74, 179.5911865234375
0, 4, 75, 184.5616760253906
0, 4, 76, 190.7742919921875
0, 4, 77, 182.2801971435547
0, 4, 78, 195.3188781738281
0, 4, 79, 203.7456207275391
0, 4, 80, 211.7686767578125
0, 4, 81, 198.1215972900391
0, 4, 82, 181.1506652832031
0, 4, 83, 170.5929565429688
0, 4, 84, 192.8592681884766
0, 4, 85, 197.3522796630859
0, 4, 86, 180.830322265625
0, 4, 87, 183.1451721191406
0, 4, 88, 204.0707702636719
0, 4, 89, 187.4747314453125
0, 4, 90, 211.5254516601562
0, 4, 91, 190.2601928710938
0, 4, 92, 195.9958648681641
0, 4, 93, 196.2862854003906
0, 4, 94, 181.6556243896484
0, 4, 95, 173.7417907714844
0, 4, 96, 190.7501373291016
0, 4, 97, 192.8759002685547
0, 4, 98, 201.2739868164062
0, 4, 99, 183.9387817382812
0, 4, 100, 183.629150390625
0, 4, 101, 176.4741821289062
0, 4, 102, 172.8547058105469
0, 4, 103, 185.5394592285156
0, 4, 104, 209.3221282958984
0, 4, 105, 190.4143371582031
0, 4, 106, 179.034912109375
0, 4, 107, 181.1413269042969
0, 4, 108, 151.6421508789062
0, 4, 109, 49.92183303833008
0, 4, 110, 11.04063415527344
0, 4, 111, 7.266289710998535
0, 4, 112, 5.256195068359375
0, 4, 113, 5.772831439971924
0, 4, 114, 4.775307655334473
0, 4, 115, 2.205724477767944
0, 4, 116, 5.378721237182617
0, 4, 117, 1.628525853157043
0, 4, 118, 3.742157220840454
0, 4, 119, 3.860919713973999
0, 4, 120, 1.840503334999084
0, 4, 121, 1.003537774085999
0, 4, 122, 2.747200012207031
0, 4, 123, 2.085208892822266
0, 4, 124, 3.93181037902832
0, 4, 125, 2.276317596435547
0, 4, 126, 0.599561333656311
0, 4, 127, 1.174368023872375
0, 5, 0, 1.340319156646729
0, 5, 1, 3.202614307403564
0, 5, 2, 5.290005683898926
0, 5, 3, 3.75858211517334
0, 5, 4, 3.130438089370728
0, 5, 5, 1.467785477638245
0, 5, 6, 2.233682632446289
0, 5, 7, 3.693082571029663
0, 5, 8, 3.492318868637085
0, 5, 9, 2.981628894805908
0, 5, 10, 6.103183269500732
0, 5, 11, 3.444337129592896
0, 5, 12, 7.507492542266846
0, 5, 13, 3.592389106750488
0, 5, 14, 5.082778453826904
0, 5, 15, 9.286556243896484
0, 5, 16, 7.493698596954346
0, 5, 17, 21.26664543151855
0, 5, 18, 83.42661285400391
0, 5, 19, 165.4352264404297
0, 5, 20, 184.3115234375
0, 5, 21, 177.814697265625
0, 5, 22, 171.5532684326172
0, 5, 23, 200.9298400878906
0, 5, 24, 186.9661407470703
0, 5, 25, 212.7745666503906
0, 5, 26, 182.3477020263672
0, 5, 27, 194.8800659179688
0, 5, 28, 190.8222351074219
0, 5, 29, 195.1310729980469
0, 5, 30, 177.8768768310547
0, 5, 31, 179.6382751464844
0, 5, 32, 189.8505249023438
0, 5, 33, 170.9411163330078
0, 5, 34, 195.0069122314453
0, 5, 35, 197.0251617431641
0, 5, 36, 170.3871765136719
0, 5, 37, 197.7998352050781
0, 5, 38, 181.6371307373047
0, 5, 39, 188.3500213623047
0, 5, 40, 196.2137756347656
0, 5, 41, 178.7745666503906
0, 5, 42, 188.6621704101562
0, 5, 43, 193.0940551757812
0, 5, 44, 200.2965393066406
0, 5, 45, 186.9523468017578
0, 5, 46, 193.9711608886719
0, 5, 47, 181.2660980224609
0, 5, 48, 178.0972442626953
0, 5, 49, 177.1187591552734
0, 5, 50, 185.6481018066406
0, 5, 51, 171.9182281494141
0, 5, 52, 168.5304107666016
0, 5, 53, 182.3528137207031
0, 5, 54, 172.4923095703125
0, 5, 55, 215.4240417480469
0, 5, 56, 181.2332916259766
0, 5, 57, 207.1504516601562
0, 5, 58, 182.3433074951172
0, 5, 59, 180.1207733154297
0, 5, 60, 218.8064422607422
0, 5, 61, 184.7263488769531
0, 5, 62, 179.9191284179688
0, 5, 63, 180.1587524414062
0, 5, 64, 194.0870208740234
0, 5, 65, 211.6748657226562
0, 5, 66, 192.9061584472656
0, 5, 67, 199.0178527832031
0, 5, 68, 185.0541534423828
0, 5, 69, 184.9361267089844
0, 5, 70, 184.5501708984375
0, 5, 71, 194.2750854492188
0, 5, 72, 198.3965911865234
0, 5, 73, 202.1432952880859
0, 5, 74, 182.0545043945312
0, 5, 75, 203.5744781494141
0, 5, 76, 216.1084289550781
0, 5, 77, 182.5543365478516
0, 5, 78, 194.2783355712891
0, 5, 79, 191.58447265625
0, 5, 80, 197.975341796875
0, 5, 81, 204.1730346679688
0, 5, 82, 203.3903198242188
0, 5, 83, 187.6707000732422
0, 5, 84, 206.1582489013672
0, 5, 85, 176.0532836914062
0, 5, 86, 195.2644348144531
0, 5, 87, 186.8359680175781
0, 5, 88, 176.846435546875
0, 5, 89, 194.4635620117188
0, 5, 90, 199.9614410400391
0, 5, 91, 193.8876800537109
0, 5, 92, 191.5708923339844
0, 5, 93, 189.1456146240234
0, 5, 94, 207.1683044433594
0, 5, 95, 176.3682708740234
0, 5, 96, 182.1449584960938
0, 5, 97, 191.0595245361328
0, 5, 98, 188.7807006835938
0, 5, 99, 195.2440338134766
0, 5, 100, 186.5373382568359
0, 5, 101, 195.0710144042969
0, 5, 102, 182.0852203369141
0, 5, 103, 176.4555969238281
0, 5, 104, 190.0701904296875
0, 5, 105, 189.3954620361328
0, 5, 106, 178.1777954101562
0, 5, 107, 182.0061340332031
0, 5, 108, 175.987548828125
0, 5, 109, 90.19331359863281
0, 5, 110, 31.88397979736328
0, 5, 111, 9.508100509643555
0, 5, 112, 6.86161994934082
0, 5, 113, 7.11929988861084
0, 5, 114, 6.508597373962402
0, 5, 115, 6.647096633911133
0, 5, 116, 3.759496450424194
0, 5, 117, 4.015586853027344
0, 5, 118, 3.328947305679321
0, 5, 119, 3.855467557907104
0, 5, 120, 1.559019327163696
0, 5, 121, 2.202289342880249
0, 5, 122, 2.862383365631104
0, 5, 123, 5.436290264129639
0, 5, 124, 3.169026851654053
0, 5, 125, 1.071981310844421
0, 5, 126, 3.886228084564209
0, 5, 127, 1.69233238697052
0, 6, 0, 3.23285984992981
0, 6, 1, 3.763551950454712
0, 6, 2, 3.78572940826416
0, 6, 3, 2.181447744369507
0, 6, 4, 2.617728710174561
0, 6, 5, 3.254699945449829
0, 6, 6, 3.804555892944336
0, 6, 7, 4.026768207550049
0, 6, 8, 4.879376888275146
0, 6, 9, 2.474931716918945
0, 6, 10, 3.753692388534546
0, 6, 11, 3.587974071502686
0, 6, 12, 4.038548946380615
0, 6, 13, 5.242414474487305
0, 6, 14, 5.383790969848633
0, 6, 15, 6.354579925537109
0, 6, 16, 12.71856594085693
0, 6, 17, 29.19843482971191
0, 6, 18, 112.0161056518555
0, 6, 19, 191.885498046875
0, 6, 20, 197.2203979492188
0, 6, 21, 197.5250549316406
0, 6, 22, 190.3332061767578
0, 6, 23, 191.0978698730469
0, 6, 24, 200.9599151611328
0, 6, 25, 182.8404846191406
0, 6, 26, 186.8985443115234
0, 6, 27, 192.5044250488281
0, 6, 28, 188.0138092041016
0, 6, 29, 210.8800659179688
0, 6, 30, 189.9799041748047
0, 6, 31, 194.7359466552734
0, 6, 32, 207.882080078125
0, 6, 33, 184.1674194335938
0, 6, 34, 196.5421905517578
0, 6, 35, 188.5394134521484
0, 6, 36, 179.7691955566406
0, 6, 37, 183.1328125
0, 6, 38, 185.1504364013672
0, 6, 39, 195.1640777587891
0, 6, 40, 173.2872772216797
0, 6, 41, 185.2194671630859
0, 6, 42, 173.7534637451172
0, 6, 43, 208.9535827636719
0, 6, 44, 210.3619842529297
0, 6, 45, 193.0599212646484
0, 6, 46, 188.4696350097656
0, 6, 47, 204.1633911132812
0, 6, 48, 188.0565795898438
0, 6, 49, 179.3669738769531
0, 6, 50, 182.5287780761719
0, 6, 51, 196.3137969970703
0, 6, 52, 197.5247650146484
0, 6, 53, 184.8984222412109
0, 6, 54, 175.1159057617188
0, 6, 55, 195.007568359375
0, 6, 56, 201.9120483398438
0, 6, 57, 192.069091796875
0, 6, 58, 180.0949554443359
0, 6, 59, 192.3465881347656
0, 6, 60, 184.4949340820312
0, 6, 61, 194.9377593994141
0, 6, 62, 196.1371917724609
0, 6, 63, 186.8181304931641
0, 6, 64, 169.7127685546875
0, 6, 65, 185.2732543945312
0, 6, 66, 198.1641540527344
0, 6, 67, 213.4224243164062
0, 6, 68, 181.0843811035156
0, 6, 69, 171.5068206787109
0, 6, 70, 187.0132293701172
0, 6, 71, 170.0341796875
0, 6, 72, 177.6415557861328
0, 6, 73, 176.8289642333984
0, 6, 74, 210.7273254394531
0, 6, 75, 229.8365631103516
0, 6, 76, 184.1024017333984
0, 6, 77, 171.9074401855469
0, 6, 78, 175.7450408935547
0, 6, 79, 189.08349609375
0, 6, 80, 187.2703094482422
0, 6, 81, 209.0492401123047
0, 6, 82, 195.1416778564453
0, 6, 83, 195.5960845947266
0, 6, 84, 197.9076080322266
0, 6, 85, 182.2152404785156
0, 6, 86, 201.0396270751953
0, 6, 87, 183.0884399414062
0, 6, 88, 193.9571228027344
0, 6, 89, 187.7622833251953
0, 6, 90, 205.5821075439453
0, 6, 91, 199.9176483154297
0, 6, 92, 173.0325775146484
0, 6, 93, 192.9477081298828
0, 6, 94, 191.9331359863281
0, 6, 95, 185.5411224365234
0, 6, 96, 188.2577514648438
0, 6, 97, 196.0163116455078
0, 6, 98, 182.9835662841797
0, 6, 99, 175.2645721435547
0, 6, 100, 201.8175811767578
0, 6, 101, 168.8729705810547
0, 6, 102, 202.1464080810547
0, 6, 103, 197.3272247314453
0, 6, 104, 183.7051849365234
0, 6, 105, 193.2439880371094
0, 6, 106, 177.1264495849609
0, 6, 107, 195.2968902587891
0, 6, 108, 170.7746734619141
0, 6, 109, 115.0918807983398
0, 6, 110, 37.482177734375
0, 6, 111, 9.428465843200684
0, 6, 112, 9.739751815795898
0, 6, 113, 5.433849334716797
0, 6, 114, 5.710338592529297
0, 6, 115, 4.855516910552979
0, 6, 116, 3.683314323425293
0, 6, 117, 6.466421127319336
0, 6, 118, 4.699843883514404
0, 6, 119, 4.676485061645508
0, 6, 120, 4.291018962860107
0, 6, 121, 4.338502883911133
0, 6, 122, 3.484832525253296
0, 6, 123, 3.340537548065186
0, 6, 124, 2.52229380607605
0, 6, 125, 3.150076627731323
0, 6, 126, 1.53814971446991
0, 6, 127, 2.226839780807495
0, 7, 0, 3.84255051612854
0, 7, 1, 2.666927099227905
0, 7, 2, 1.749909281730652
0, 7, 3, 3.273481845855713
0, 7, 4, 0.82520592212677
0, 7, 5, 1.216663837432861
0, 7, 6, 1.824809789657593
0, 7, 7, 1.450016856193542
0, 7, 8, 3.95911717414856
0, 7, 9, 6.258399486541748
0, 7, 10, 4.988139629364014
0, 7, 11, 3.072513341903687
0, 7, 12, 4.368468284606934
0, 7, 13, 6.725545883178711
0, 7, 14, 6.406308174133301
0, 7, 15, 7.321317672729492
0, 7, 16, 18.04497337341309
0, 7, 17, 51.43816757202148
0, 7, 18, 163.6697387695312
0, 7, 19, 183.9057769775391
0, 7, 20, 179.1773223876953
0, 7, 21, 179.56005859375
0, 7, 22, 191.3316040039062
0, 7, 23, 203.0188598632812
0, 7, 24, 182.0812835693359
0, 7, 25, 211.8974609375
0, 7, 26, 188.6586608886719
0, 7, 27, 182.3239135742188
0, 7, 28, 183.6493835449219
0, 7, 29, 208.6087188720703
0, 7, 30, 193.4331817626953
0, 7, 31, 177.5075836181641
0, 7, 32, 190.6266326904297
0, 7, 33, 179.2582397460938
0, 7, 34, 194.0350952148438
0, 7, 35, 198.1096954345703
0, 7, 36, 187.5113372802734
0, 7, 37, 212.8634338378906
0, 7, 38, 191.0857238769531
0, 7, 39, 173.7326812744141
0, 7, 40, 183.4819030761719
0, 7, 41, 185.3898315429688
0, 7, 42, 177.9384460449219
0, 7, 43, 177.7439880371094
0, 7, 44, 179.9423980712891
0, 7, 45, 172.8580932617188
0, 7, 46, 188.1486968994141
0, 7, 47, 198.1320495605469
0, 7, 48, 184.8483581542969
0, 7, 49, 198.4940643310547
0, 7, 50, 187.9059906005859
0, 7, 51, 205.9074249267578
0, 7, 52, 203.5570678710938
0, 7, 53, 191.4658355712891
0, 7, 54, 197.3262939453125
0, 7, 55, 203.6370697021484
0, 7, 56, 183.8408203125
0, 7, 57, 182.5903625488281
0, 7, 58, 191.3781280517578
0, 7, 59, 187.1471252441406
0, 7, 60, 202.3506774902344
0, 7, 61, 171.1155242919922
0, 7, 62, 202.8619384765625
0, 7, 63, 189.1984405517578
0, 7, 64, 199.3375549316406
0, 7, 65, 196.3320617675781
0, 7, 66, 205.8616333007812
0, 7, 67, 219.4253234863281
0, 7, 68, 161.7775726318359
0, 7, 69, 194.5696258544922
0, 7, 70, 218.6588897705078
0, 7, 71, 183.4879150390625
0, 7, 72, 179.3297576904297
0, 7, 73, 176.8626403808594
0, 7, 74, 208.1755828857422
0, 7, 75, 203.1056518554688
0, 7, 76, 214.3374328613281
0, 7, 77, 175.3888702392578
0, 7, 78, 177.7715911865234
0, 7, 79, 191.3308410644531
0, 7, 80, 196.3910064697266
0, 7, 81, 213.9469757080078
0, 7, 82, 183.7709503173828
0, 7, 83, 204.9170989990234
0, 7, 84, 192.1769256591797
0, 7, 85, 187.2038726806641
0, 7, 86, 201.2630615234375
0, 7, 87, 228.9299621582031
0, 7, 88, 195.7845611572266
0, 7, 89, 176.4090881347656
0, 7, 90, 181.9371337890625
0, 7, 91, 194.307861328125
0, 7, 92, 194.0377197265625
0, 7, 93, 198.4619293212891
0, 7, 94, 177.8181610107422
0, 7, 95, 198.1517639160156
0, 7, 96, 208.7064361572266
0, 7, 97, 189.8588256835938
0, 7, 98, 177.2548980712891
0, 7, 99, 196.9757995605469
0, 7, 100, 182.3777465820312
0, 7, 101, 199.8682250976562
0, 7, 102, 185.1382904052734
0, 7, 103, 181.1437072753906
0, 7, 104, 175.6135864257812
0, 7, 105, 195.2756652832031
0, 7, 106, 204.8808135986328
0, 7, 107, 173.1380310058594
0, 7, 108, 176.7984466552734
0, 7, 109, 140.0093994140625
0, 7, 110, 55.11301803588867
0, 7, 111, 9.220060348510742
0, 7, 112, 8.368756294250488
0, 7, 113, 7.553503513336182
0, 7, 114, 7.294795513153076
0, 7, 115, 4.923255920410156
0, 7, 116, 4.319253444671631
0, 7, 117, 3.141482591629028
0, 7, 118, 4.030848503112793
0, 7, 119, 2.223088026046753
0, 7, 120, 2.452012300491333
0, 7, 121, 2.270931243896484
0, 7, 122, 4.213920116424561
0, 7, 123, 1.79082179069519
0, 7, 124, 1.664988875389099
0, 7, 125, 3.164374351501465
0, 7, 126, 3.713349342346191
0, 7, 127, 4.477252006530762
0, 8, 0, 4.261115074157715
0, 8, 1, 5.350955963134766
0, 8, 2, 4.052944183349609
0, 8, 3, 2.098549604415894
0, 8, 4, 1.586936354637146
0, 8, 5, 2.821173429489136
0, 8, 6, 3.571469068527222
0, 8, 7, 3.765111684799194
0, 8, 8, 2.690082788467407
0, 8, 9, 5.281825542449951
0, 8, 10, 3.062203407287598
0, 8, 11, 2.56358790397644
0, 8, 12, 3.267208576202393
0, 8, 13, 4.679250240325928
0, 8, 14, 7.22441291809082
0, 8, 15, 9.340714454650879
0, 8, 16, 19.09944915771484
0, 8, 17, 74.49448394775391
0, 8, 18, 141.8440704345703
0, 8, 19, 178.9620819091797
0, 8, 20, 191.0748901367188
0, 8, 21, 192.0396575927734
0, 8, 22, 184.537353515625
0, 8, 23, 172.1599884033203
0, 8, 24, 192.3918304443359
0, 8, 25, 184.9002838134766
0, 8, 26, 192.8493194580078
0, 8, 27, 186.0494995117188
0, 8, 28, 186.811767578125
0, 8, 29, 206.2037658691406
0, 8, 30, 196.8121185302734
0, 8, 31, 184.5287170410156
0, 8, 32, 197.8584899902344
0, 8, 33, 207.801513671875
0, 8, 34, 202.5820007324219
0, 8, 35, 185.9890594482422
0, 8, 36, 181.9304046630859
0, 8, 37, 198.6634521484375
