# TOPAS Version: 3.1.p3
# Parameter File: batch_inserts_310.txt
# Results for scorer Readout_Adipose
# Scored in component: MyBox
# X in 1 bin  of 0.65 cm
# Y in 512 bins of 0.0783984 cm
# Z in 128 bins of 0.078125 cm
# EnergyDeposit ( MeV ) : Sum   
0, 0, 0, 1.302955627441406
0, 0, 1, 3.365048170089722
0, 0, 2, 0.7442508339881897
0, 0, 3, 0.7410802245140076
0, 0, 4, 2.106764793395996
0, 0, 5, 0.6762260794639587
0, 0, 6, 1.139477729797363
0, 0, 7, 4.389803409576416
0, 0, 8, 1.942297697067261
0, 0, 9, 2.440967559814453
0, 0, 10, 4.06936502456665
0, 0, 11, 2.847443580627441
0, 0, 12, 3.30816125869751
0, 0, 13, 2.469117164611816
0, 0, 14, 5.095569610595703
0, 0, 15, 5.318161487579346
0, 0, 16, 5.37260627746582
0, 0, 17, 6.915957450866699
0, 0, 18, 6.043289184570312
0, 0, 19, 23.35657691955566
0, 0, 20, 94.15176391601562
0, 0, 21, 154.4529266357422
0, 0, 22, 153.9486999511719
0, 0, 23, 144.7723388671875
0, 0, 24, 159.5229034423828
0, 0, 25, 166.0196685791016
0, 0, 26, 167.1322174072266
0, 0, 27, 174.3971557617188
0, 0, 28, 177.8898010253906
0, 0, 29, 175.2986145019531
0, 0, 30, 173.1253814697266
0, 0, 31, 167.0829467773438
0, 0, 32, 164.4441375732422
0, 0, 33, 165.5000152587891
0, 0, 34, 178.6493835449219
0, 0, 35, 174.7450103759766
0, 0, 36, 159.0870361328125
0, 0, 37, 160.9071502685547
0, 0, 38, 165.8614196777344
0, 0, 39, 159.1759033203125
0, 0, 40, 165.0055236816406
0, 0, 41, 166.9643402099609
0, 0, 42, 144.1505432128906
0, 0, 43, 169.2258453369141
0, 0, 44, 178.4413299560547
0, 0, 45, 172.8115997314453
0, 0, 46, 165.6775817871094
0, 0, 47, 167.3143005371094
0, 0, 48, 169.7268524169922
0, 0, 49, 184.0064849853516
0, 0, 50, 171.0810394287109
0, 0, 51, 162.0526428222656
0, 0, 52, 161.3793792724609
0, 0, 53, 170.8284912109375
0, 0, 54, 159.490478515625
0, 0, 55, 165.7095794677734
0, 0, 56, 189.4574737548828
0, 0, 57, 172.7379913330078
0, 0, 58, 161.3105010986328
0, 0, 59, 171.7424468994141
0, 0, 60, 168.787353515625
0, 0, 61, 170.5779571533203
0, 0, 62, 182.9800262451172
0, 0, 63, 167.797607421875
0, 0, 64, 166.85546875
0, 0, 65, 176.6566772460938
0, 0, 66, 178.5649108886719
0, 0, 67, 163.7100982666016
0, 0, 68, 157.898193359375
0, 0, 69, 158.9494781494141
0, 0, 70, 169.1568908691406
0, 0, 71, 158.3480987548828
0, 0, 72, 162.7883758544922
0, 0, 73, 171.2277374267578
0, 0, 74, 162.0219879150391
0, 0, 75, 165.0618896484375
0, 0, 76, 162.7787322998047
0, 0, 77, 171.7089996337891
0, 0, 78, 181.9001770019531
0, 0, 79, 174.8069000244141
0, 0, 80, 159.3443450927734
0, 0, 81, 161.0645599365234
0, 0, 82, 182.2036437988281
0, 0, 83, 173.5020751953125
0, 0, 84, 159.3189392089844
0, 0, 85, 181.3190307617188
0, 0, 86, 157.8940277099609
0, 0, 87, 177.0574035644531
0, 0, 88, 178.1695251464844
0, 0, 89, 178.4720001220703
0, 0, 90, 160.6436920166016
0, 0, 91, 184.3713836669922
0, 0, 92, 165.2809448242188
0, 0, 93, 157.5972900390625
0, 0, 94, 170.1766662597656
0, 0, 95, 174.3817749023438
0, 0, 96, 183.6464080810547
0, 0, 97, 184.1319122314453
0, 0, 98, 186.3570556640625
0, 0, 99, 171.9491424560547
0, 0, 100, 159.1806640625
0, 0, 101, 166.6382293701172
0, 0, 102, 170.2526245117188
0, 0, 103, 170.1976623535156
0, 0, 104, 168.8147735595703
0, 0, 105, 179.2818756103516
0, 0, 106, 158.6185607910156
0, 0, 107, 86.27303314208984
0, 0, 108, 21.66792488098145
0, 0, 109, 8.754603385925293
0, 0, 110, 6.922145843505859
0, 0, 111, 6.267374515533447
0, 0, 112, 3.587994337081909
0, 0, 113, 2.433863401412964
0, 0, 114, 1.912201404571533
0, 0, 115, 3.910919427871704
0, 0, 116, 2.835805177688599
0, 0, 117, 2.642076015472412
0, 0, 118, 3.496745824813843
0, 0, 119, 1.822682738304138
0, 0, 120, 1.468472599983215
0, 0, 121, 4.943245887756348
0, 0, 122, 3.935838460922241
0, 0, 123, 4.768831729888916
0, 0, 124, 1.095823645591736
0, 0, 125, 3.232509851455688
0, 0, 126, 0.6506476998329163
0, 0, 127, 3.050712823867798
0, 1, 0, 1.44427752494812
0, 1, 1, 4.334003448486328
0, 1, 2, 2.396497011184692
0, 1, 3, 2.19257926940918
0, 1, 4, 2.869288444519043
0, 1, 5, 2.137296915054321
0, 1, 6, 1.034924507141113
0, 1, 7, 3.848160266876221
0, 1, 8, 3.730704069137573
0, 1, 9, 2.252461910247803
0, 1, 10, 1.581766963005066
0, 1, 11, 4.47722864151001
0, 1, 12, 4.606257438659668
0, 1, 13, 4.972549915313721
0, 1, 14, 5.64976692199707
0, 1, 15, 6.983110904693604
0, 1, 16, 8.043649673461914
0, 1, 17, 7.773204326629639
0, 1, 18, 11.04885768890381
0, 1, 19, 38.30240631103516
0, 1, 20, 125.4796676635742
0, 1, 21, 176.8335876464844
0, 1, 22, 192.9853668212891
0, 1, 23, 185.4005126953125
0, 1, 24, 180.6900482177734
0, 1, 25, 192.2107696533203
0, 1, 26, 197.6196136474609
0, 1, 27, 185.0824127197266
0, 1, 28, 189.8587493896484
0, 1, 29, 183.7079315185547
0, 1, 30, 178.91748046875
0, 1, 31, 181.3048248291016
0, 1, 32, 189.4411163330078
0, 1, 33, 189.5140380859375
0, 1, 34, 184.5505676269531
0, 1, 35, 194.8290710449219
0, 1, 36, 206.9025726318359
0, 1, 37, 185.0737152099609
0, 1, 38, 164.8096771240234
0, 1, 39, 172.0180358886719
0, 1, 40, 180.1558532714844
0, 1, 41, 185.3857879638672
0, 1, 42, 183.1306457519531
0, 1, 43, 186.2201690673828
0, 1, 44, 168.0559539794922
0, 1, 45, 185.9510040283203
0, 1, 46, 171.0316162109375
0, 1, 47, 185.0169219970703
0, 1, 48, 186.6361236572266
0, 1, 49, 186.7323608398438
0, 1, 50, 178.1163482666016
0, 1, 51, 189.8400726318359
0, 1, 52, 194.8161773681641
0, 1, 53, 196.2700653076172
0, 1, 54, 185.6902618408203
0, 1, 55, 164.7003784179688
0, 1, 56, 178.4496612548828
0, 1, 57, 178.3084869384766
0, 1, 58, 188.269287109375
0, 1, 59, 193.2438049316406
0, 1, 60, 188.6741485595703
0, 1, 61, 178.9387359619141
0, 1, 62, 205.1226959228516
0, 1, 63, 176.7905120849609
0, 1, 64, 172.5150146484375
0, 1, 65, 183.6189727783203
0, 1, 66, 204.8829956054688
0, 1, 67, 181.7012481689453
0, 1, 68, 187.0952758789062
0, 1, 69, 189.0089874267578
0, 1, 70, 185.5929107666016
0, 1, 71, 171.1192474365234
0, 1, 72, 188.6051940917969
0, 1, 73, 190.0619812011719
0, 1, 74, 201.5019378662109
0, 1, 75, 183.7625427246094
0, 1, 76, 174.3313140869141
0, 1, 77, 193.8111572265625
0, 1, 78, 189.9996643066406
0, 1, 79, 202.6570129394531
0, 1, 80, 187.7812042236328
0, 1, 81, 176.4585571289062
0, 1, 82, 206.9742431640625
0, 1, 83, 211.4781341552734
0, 1, 84, 179.8548583984375
0, 1, 85, 171.0061645507812
0, 1, 86, 168.1298370361328
0, 1, 87, 184.4022216796875
0, 1, 88, 176.4216156005859
0, 1, 89, 187.3896026611328
0, 1, 90, 212.3328857421875
0, 1, 91, 182.5103302001953
0, 1, 92, 183.8698120117188
0, 1, 93, 181.4962005615234
0, 1, 94, 185.0120239257812
0, 1, 95, 184.2260894775391
0, 1, 96, 196.7368927001953
0, 1, 97, 183.0043792724609
0, 1, 98, 186.8147888183594
0, 1, 99, 175.1849670410156
0, 1, 100, 172.1970367431641
0, 1, 101, 177.7044067382812
0, 1, 102, 182.2281951904297
0, 1, 103, 172.5635986328125
0, 1, 104, 190.6965484619141
0, 1, 105, 180.6925354003906
0, 1, 106, 164.3290405273438
0, 1, 107, 122.4287643432617
0, 1, 108, 46.48564147949219
0, 1, 109, 10.4701042175293
0, 1, 110, 8.906723976135254
0, 1, 111, 6.671856880187988
0, 1, 112, 8.044190406799316
0, 1, 113, 8.029201507568359
0, 1, 114, 6.541346549987793
0, 1, 115, 4.093031406402588
0, 1, 116, 2.62394380569458
0, 1, 117, 4.747702598571777
0, 1, 118, 3.337293148040771
0, 1, 119, 2.183089733123779
0, 1, 120, 3.105017900466919
0, 1, 121, 4.768694877624512
0, 1, 122, 2.478282690048218
0, 1, 123, 2.236291885375977
0, 1, 124, 2.743320465087891
0, 1, 125, 2.922189712524414
0, 1, 126, 1.456263542175293
0, 1, 127, 1.834488272666931
0, 2, 0, 2.095510005950928
0, 2, 1, 3.4676513671875
0, 2, 2, 4.305503845214844
0, 2, 3, 1.373605012893677
0, 2, 4, 1.731304287910461
0, 2, 5, 0.8468272686004639
0, 2, 6, 2.483720302581787
0, 2, 7, 2.146756410598755
0, 2, 8, 1.497861862182617
0, 2, 9, 1.912563443183899
0, 2, 10, 5.117021083831787
0, 2, 11, 3.196569204330444
0, 2, 12, 3.173396825790405
0, 2, 13, 3.216328620910645
0, 2, 14, 6.104652881622314
0, 2, 15, 5.839131832122803
0, 2, 16, 4.580220699310303
0, 2, 17, 8.816964149475098
0, 2, 18, 14.3915433883667
0, 2, 19, 77.19993591308594
0, 2, 20, 162.8871459960938
0, 2, 21, 183.6994171142578
0, 2, 22, 195.9647827148438
0, 2, 23, 183.7941284179688
0, 2, 24, 173.8913726806641
0, 2, 25, 183.9763641357422
0, 2, 26, 179.3879852294922
0, 2, 27, 189.4079895019531
0, 2, 28, 172.1171722412109
0, 2, 29, 168.9066009521484
0, 2, 30, 185.2350311279297
0, 2, 31, 182.6989135742188
0, 2, 32, 182.4691467285156
0, 2, 33, 190.1928863525391
0, 2, 34, 196.015869140625
0, 2, 35, 181.3800964355469
0, 2, 36, 185.5640106201172
0, 2, 37, 180.9651031494141
0, 2, 38, 184.6208343505859
0, 2, 39, 165.7659759521484
0, 2, 40, 184.3907165527344
0, 2, 41, 182.7568359375
0, 2, 42, 189.0542144775391
0, 2, 43, 193.4151458740234
0, 2, 44, 190.4520263671875
0, 2, 45, 190.0572204589844
0, 2, 46, 195.86328125
0, 2, 47, 189.1404418945312
0, 2, 48, 177.8715057373047
0, 2, 49, 197.2249145507812
0, 2, 50, 168.8806610107422
0, 2, 51, 184.7802581787109
0, 2, 52, 186.1067352294922
0, 2, 53, 194.8136444091797
0, 2, 54, 175.0822296142578
0, 2, 55, 174.0291290283203
0, 2, 56, 184.4019622802734
0, 2, 57, 199.5195007324219
0, 2, 58, 185.4147796630859
0, 2, 59, 189.8044891357422
0, 2, 60, 196.6149139404297
0, 2, 61, 194.2430114746094
0, 2, 62, 190.3334350585938
0, 2, 63, 172.6130676269531
0, 2, 64, 189.1010284423828
0, 2, 65, 202.2709197998047
0, 2, 66, 196.1639404296875
0, 2, 67, 185.0221099853516
0, 2, 68, 182.4703216552734
0, 2, 69, 186.7046508789062
0, 2, 70, 202.0973968505859
0, 2, 71, 174.7272033691406
0, 2, 72, 186.4937438964844
0, 2, 73, 177.2347412109375
0, 2, 74, 180.5595092773438
0, 2, 75, 195.8166656494141
0, 2, 76, 185.3051452636719
0, 2, 77, 177.7577667236328
0, 2, 78, 197.9710540771484
0, 2, 79, 177.7567901611328
0, 2, 80, 185.3179626464844
0, 2, 81, 187.3304901123047
0, 2, 82, 205.7761840820312
0, 2, 83, 203.61962890625
0, 2, 84, 188.6776733398438
0, 2, 85, 170.5029296875
0, 2, 86, 195.1622772216797
0, 2, 87, 173.9292602539062
0, 2, 88, 178.8311920166016
0, 2, 89, 185.3700103759766
0, 2, 90, 179.1916961669922
0, 2, 91, 173.8184051513672
0, 2, 92, 198.2439880371094
0, 2, 93, 192.1168975830078
0, 2, 94, 199.2400665283203
0, 2, 95, 192.5867156982422
0, 2, 96, 187.8204956054688
0, 2, 97, 171.7105712890625
0, 2, 98, 174.3577117919922
0, 2, 99, 162.0596008300781
0, 2, 100, 187.2848968505859
0, 2, 101, 197.0071868896484
0, 2, 102, 176.7778930664062
0, 2, 103, 200.2663421630859
0, 2, 104, 187.2458648681641
0, 2, 105, 199.9532623291016
0, 2, 106, 195.3601684570312
0, 2, 107, 151.0670318603516
0, 2, 108, 79.33556365966797
0, 2, 109, 20.02928161621094
0, 2, 110, 8.688077926635742
0, 2, 111, 5.439988136291504
0, 2, 112, 4.352432250976562
0, 2, 113, 4.319403648376465
0, 2, 114, 7.714047908782959
0, 2, 115, 3.502970457077026
0, 2, 116, 1.338011026382446
0, 2, 117, 3.247870683670044
0, 2, 118, 2.010055065155029
0, 2, 119, 2.634557485580444
0, 2, 120, 1.916687250137329
0, 2, 121, 3.140486717224121
0, 2, 122, 0.6822007298469543
0, 2, 123, 3.995581388473511
0, 2, 124, 2.458513021469116
0, 2, 125, 2.415931224822998
0, 2, 126, 2.624356031417847
0, 2, 127, 0.9624228477478027
0, 3, 0, 1.915126323699951
0, 3, 1, 1.301226496696472
0, 3, 2, 1.282946825027466
0, 3, 3, 1.742744088172913
0, 3, 4, 4.17758846282959
0, 3, 5, 2.561661958694458
0, 3, 6, 2.267602205276489
0, 3, 7, 1.618473768234253
0, 3, 8, 3.062089920043945
0, 3, 9, 2.124350547790527
0, 3, 10, 2.160273790359497
0, 3, 11, 4.85545825958252
0, 3, 12, 5.531949520111084
0, 3, 13, 2.950866222381592
0, 3, 14, 3.978421449661255
0, 3, 15, 6.289631366729736
0, 3, 16, 7.059980392456055
0, 3, 17, 8.283450126647949
0, 3, 18, 33.81275177001953
0, 3, 19, 116.1492767333984
0, 3, 20, 180.5328216552734
0, 3, 21, 172.9140167236328
0, 3, 22, 177.9736328125
0, 3, 23, 187.7449645996094
0, 3, 24, 178.1056213378906
0, 3, 25, 170.1381225585938
0, 3, 26, 180.8456878662109
0, 3, 27, 190.2849731445312
0, 3, 28, 181.5444946289062
0, 3, 29, 197.0020141601562
0, 3, 30, 185.4675750732422
0, 3, 31, 194.1753997802734
0, 3, 32, 206.3855133056641
0, 3, 33, 197.0224761962891
0, 3, 34, 187.5309906005859
0, 3, 35, 175.408447265625
0, 3, 36, 185.0771484375
0, 3, 37, 200.2991027832031
0, 3, 38, 192.1800079345703
0, 3, 39, 185.7411346435547
0, 3, 40, 166.793212890625
0, 3, 41, 175.1036529541016
0, 3, 42, 184.7779693603516
0, 3, 43, 181.8786163330078
0, 3, 44, 203.2972106933594
0, 3, 45, 207.5511169433594
0, 3, 46, 199.2449188232422
0, 3, 47, 195.6977233886719
0, 3, 48, 196.2598114013672
0, 3, 49, 179.3764343261719
0, 3, 50, 187.1158142089844
0, 3, 51, 174.4044494628906
0, 3, 52, 188.1722412109375
0, 3, 53, 178.7471771240234
0, 3, 54, 177.9778747558594
0, 3, 55, 176.6834106445312
0, 3, 56, 181.8080139160156
0, 3, 57, 175.7816772460938
0, 3, 58, 203.0507202148438
0, 3, 59, 196.8167724609375
0, 3, 60, 186.8249359130859
0, 3, 61, 180.8901062011719
0, 3, 62, 181.4929046630859
0, 3, 63, 183.2474365234375
0, 3, 64, 190.6352844238281
0, 3, 65, 186.7312774658203
0, 3, 66, 175.7726135253906
0, 3, 67, 192.8933868408203
0, 3, 68, 211.9240875244141
0, 3, 69, 190.2785949707031
0, 3, 70, 185.1499786376953
0, 3, 71, 197.2708282470703
0, 3, 72, 185.2174987792969
0, 3, 73, 186.3683624267578
0, 3, 74, 194.1902618408203
0, 3, 75, 193.5742797851562
0, 3, 76, 190.3314208984375
0, 3, 77, 198.9143676757812
0, 3, 78, 188.5448760986328
0, 3, 79, 186.7806243896484
0, 3, 80, 189.9525451660156
0, 3, 81, 183.5365295410156
0, 3, 82, 181.4020538330078
0, 3, 83, 196.7181396484375
0, 3, 84, 198.8911895751953
0, 3, 85, 191.8482971191406
0, 3, 86, 203.6019897460938
0, 3, 87, 197.6946868896484
0, 3, 88, 192.7727661132812
0, 3, 89, 193.2458953857422
0, 3, 90, 173.5915374755859
0, 3, 91, 158.4125366210938
0, 3, 92, 206.3396759033203
0, 3, 93, 195.9338989257812
0, 3, 94, 193.0340728759766
0, 3, 95, 213.5139770507812
0, 3, 96, 208.1950531005859
0, 3, 97, 167.2079620361328
0, 3, 98, 167.1091461181641
0, 3, 99, 180.2520751953125
0, 3, 100, 176.3707427978516
0, 3, 101, 197.9743347167969
0, 3, 102, 194.1448974609375
0, 3, 103, 192.9249114990234
0, 3, 104, 202.3276519775391
0, 3, 105, 174.6894683837891
0, 3, 106, 181.3136749267578
0, 3, 107, 169.1816864013672
0, 3, 108, 107.5935211181641
0, 3, 109, 28.92323684692383
0, 3, 110, 8.383038520812988
0, 3, 111, 6.859474658966064
0, 3, 112, 2.692284822463989
0, 3, 113, 6.320140838623047
0, 3, 114, 5.248729228973389
0, 3, 115, 5.818910598754883
0, 3, 116, 5.890642642974854
0, 3, 117, 3.334939002990723
0, 3, 118, 2.246217250823975
0, 3, 119, 2.159466981887817
0, 3, 120, 4.526899814605713
0, 3, 121, 4.282549858093262
0, 3, 122, 3.310592174530029
0, 3, 123, 1.783068418502808
0, 3, 124, 1.602876305580139
0, 3, 125, 1.089269876480103
0, 3, 126, 2.313236474990845
0, 3, 127, 1.912197709083557
0, 4, 0, 1.025881767272949
0, 4, 1, 2.141468048095703
0, 4, 2, 1.846174120903015
0, 4, 3, 3.306347131729126
0, 4, 4, 2.046984910964966
0, 4, 5, 2.932224273681641
0, 4, 6, 2.212684631347656
0, 4, 7, 3.279933214187622
0, 4, 8, 1.712334513664246
0, 4, 9, 1.627734303474426
0, 4, 10, 4.384361743927002
0, 4, 11, 4.14531421661377
0, 4, 12, 2.696630001068115
0, 4, 13, 3.915349721908569
0, 4, 14, 4.302603244781494
0, 4, 15, 8.718422889709473
0, 4, 16, 5.757095336914062
0, 4, 17, 12.05863857269287
0, 4, 18, 53.31687545776367
0, 4, 19, 151.3716888427734
0, 4, 20, 192.5140228271484
0, 4, 21, 169.0926361083984
0, 4, 22, 187.4908752441406
0, 4, 23, 196.0040893554688
0, 4, 24, 192.5514221191406
0, 4, 25, 201.1265869140625
0, 4, 26, 182.7151641845703
0, 4, 27, 190.6520690917969
0, 4, 28, 178.1116790771484
0, 4, 29, 205.343505859375
0, 4, 30, 195.3518218994141
0, 4, 31, 192.3575897216797
0, 4, 32, 209.3921203613281
0, 4, 33, 190.2934875488281
0, 4, 34, 192.7059020996094
0, 4, 35, 212.8288879394531
0, 4, 36, 192.5186767578125
0, 4, 37, 177.8877868652344
0, 4, 38, 195.5131225585938
0, 4, 39, 189.1582489013672
0, 4, 40, 185.8906402587891
0, 4, 41, 188.7221984863281
0, 4, 42, 206.2642211914062
0, 4, 43, 173.5491943359375
0, 4, 44, 183.7506408691406
0, 4, 45, 197.3434753417969
0, 4, 46, 186.1505889892578
0, 4, 47, 179.8488616943359
0, 4, 48, 186.7881164550781
0, 4, 49, 174.9899139404297
0, 4, 50, 185.4821014404297
0, 4, 51, 197.7780151367188
0, 4, 52, 222.9391784667969
0, 4, 53, 207.0435638427734
0, 4, 54, 189.9722747802734
0, 4, 55, 174.5424652099609
0, 4, 56, 190.7091979980469
0, 4, 57, 191.4586181640625
0, 4, 58, 186.9204406738281
0, 4, 59, 189.0896911621094
0, 4, 60, 195.0587768554688
0, 4, 61, 193.6415405273438
0, 4, 62, 190.3715515136719
0, 4, 63, 178.8313751220703
0, 4, 64, 213.9418487548828
0, 4, 65, 191.2595062255859
0, 4, 66, 201.2299041748047
0, 4, 67, 200.1817169189453
0, 4, 68, 202.9568939208984
0, 4, 69, 198.9858703613281
0, 4, 70, 204.1273193359375
0, 4, 71, 206.11572265625
0, 4, 72, 214.4908599853516
0, 4, 73, 185.8160705566406
0, 4, 74, 179.2873840332031
0, 4, 75, 184.2534637451172
0, 4, 76, 190.1702575683594
0, 4, 77, 183.7533874511719
0, 4, 78, 195.2243499755859
0, 4, 79, 203.9739990234375
0, 4, 80, 211.1109008789062
0, 4, 81, 198.5498962402344
0, 4, 82, 184.5357208251953
0, 4, 83, 171.2744445800781
0, 4, 84, 193.8532257080078
0, 4, 85, 195.7773284912109
0, 4, 86, 182.6767730712891
0, 4, 87, 185.0447082519531
0, 4, 88, 204.6373748779297
0, 4, 89, 189.0407867431641
0, 4, 90, 210.8647918701172
0, 4, 91, 189.1855010986328
0, 4, 92, 195.4924774169922
0, 4, 93, 196.5842590332031
0, 4, 94, 182.1820678710938
0, 4, 95, 173.4355621337891
0, 4, 96, 189.5735626220703
0, 4, 97, 194.2339630126953
0, 4, 98, 200.7875213623047
0, 4, 99, 182.9131469726562
0, 4, 100, 183.5350494384766
0, 4, 101, 177.2808380126953
0, 4, 102, 173.3623046875
0, 4, 103, 184.9157257080078
0, 4, 104, 209.30078125
0, 4, 105, 189.9434967041016
0, 4, 106, 180.0176086425781
0, 4, 107, 181.6000061035156
0, 4, 108, 151.4032440185547
0, 4, 109, 50.12693023681641
0, 4, 110, 10.63292217254639
0, 4, 111, 8.712268829345703
0, 4, 112, 6.783633708953857
0, 4, 113, 8.551112174987793
0, 4, 114, 5.491486072540283
0, 4, 115, 3.126916408538818
0, 4, 116, 4.976564407348633
0, 4, 117, 2.193690299987793
0, 4, 118, 3.718464612960815
0, 4, 119, 3.912788152694702
0, 4, 120, 2.248212337493896
0, 4, 121, 1.42593777179718
0, 4, 122, 3.416004180908203
0, 4, 123, 2.261276483535767
0, 4, 124, 3.132013559341431
0, 4, 125, 2.386403322219849
0, 4, 126, 0.5467053055763245
0, 4, 127, 2.018603563308716
0, 5, 0, 1.456649303436279
0, 5, 1, 3.629312992095947
0, 5, 2, 5.414572238922119
0, 5, 3, 3.336612939834595
0, 5, 4, 3.856744289398193
0, 5, 5, 2.258556842803955
0, 5, 6, 2.721015691757202
0, 5, 7, 2.510273694992065
0, 5, 8, 1.91156792640686
0, 5, 9, 2.175373792648315
0, 5, 10, 3.062861919403076
0, 5, 11, 3.150929689407349
0, 5, 12, 4.162984848022461
0, 5, 13, 3.454084873199463
0, 5, 14, 6.52756929397583
0, 5, 15, 8.586701393127441
0, 5, 16, 7.955825328826904
0, 5, 17, 21.31260871887207
0, 5, 18, 82.9678955078125
0, 5, 19, 164.4209594726562
0, 5, 20, 183.4333190917969
0, 5, 21, 178.1793365478516
0, 5, 22, 171.2271270751953
0, 5, 23, 200.6455841064453
0, 5, 24, 187.0751953125
0, 5, 25, 207.3420257568359
0, 5, 26, 183.1643981933594
0, 5, 27, 196.4865112304688
0, 5, 28, 190.7823028564453
0, 5, 29, 195.4660186767578
0, 5, 30, 177.8246307373047
0, 5, 31, 180.7107238769531
0, 5, 32, 187.9021148681641
0, 5, 33, 168.7740173339844
0, 5, 34, 194.8940582275391
0, 5, 35, 197.5030975341797
0, 5, 36, 171.3332672119141
0, 5, 37, 196.1111602783203
0, 5, 38, 184.2439575195312
0, 5, 39, 186.5869293212891
0, 5, 40, 196.8296813964844
0, 5, 41, 176.5122680664062
0, 5, 42, 189.0538024902344
0, 5, 43, 193.0018615722656
0, 5, 44, 199.7735748291016
0, 5, 45, 185.5826263427734
0, 5, 46, 192.7215270996094
0, 5, 47, 182.6865692138672
0, 5, 48, 180.3688812255859
0, 5, 49, 178.0966491699219
0, 5, 50, 186.0904083251953
0, 5, 51, 171.0382080078125
0, 5, 52, 169.3919067382812
0, 5, 53, 183.3933715820312
0, 5, 54, 172.676025390625
0, 5, 55, 215.9238739013672
0, 5, 56, 182.0099945068359
0, 5, 57, 207.9367065429688
0, 5, 58, 182.5003356933594
0, 5, 59, 182.1725311279297
0, 5, 60, 218.4085388183594
0, 5, 61, 185.9500427246094
0, 5, 62, 178.2625579833984
0, 5, 63, 180.2007904052734
0, 5, 64, 194.9978790283203
0, 5, 65, 209.3192749023438
0, 5, 66, 192.1551513671875
0, 5, 67, 200.7645111083984
0, 5, 68, 186.2472229003906
0, 5, 69, 186.0936584472656
0, 5, 70, 184.7275543212891
0, 5, 71, 192.5897674560547
0, 5, 72, 198.3114166259766
0, 5, 73, 200.9942626953125
0, 5, 74, 181.5504302978516
0, 5, 75, 204.0960235595703
0, 5, 76, 214.1610412597656
0, 5, 77, 181.2624816894531
0, 5, 78, 194.0706024169922
0, 5, 79, 190.1209411621094
0, 5, 80, 199.3339385986328
0, 5, 81, 201.7415924072266
0, 5, 82, 202.7375183105469
0, 5, 83, 188.8578033447266
0, 5, 84, 204.9103698730469
0, 5, 85, 178.5836791992188
0, 5, 86, 195.3057250976562
0, 5, 87, 188.5119171142578
0, 5, 88, 176.8466796875
0, 5, 89, 193.7639312744141
0, 5, 90, 199.0469665527344
0, 5, 91, 194.1062622070312
0, 5, 92, 190.9738159179688
0, 5, 93, 189.1720123291016
0, 5, 94, 207.7800598144531
0, 5, 95, 177.0736541748047
0, 5, 96, 181.7611694335938
0, 5, 97, 191.3017120361328
0, 5, 98, 188.3734741210938
0, 5, 99, 194.3324279785156
0, 5, 100, 186.2981872558594
0, 5, 101, 196.0768432617188
0, 5, 102, 182.252197265625
0, 5, 103, 176.9295959472656
0, 5, 104, 190.2905731201172
0, 5, 105, 189.29248046875
0, 5, 106, 176.5648956298828
0, 5, 107, 181.5598297119141
0, 5, 108, 175.1062927246094
0, 5, 109, 87.82634735107422
0, 5, 110, 29.4235782623291
0, 5, 111, 8.179478645324707
0, 5, 112, 6.863211154937744
0, 5, 113, 5.98305606842041
0, 5, 114, 6.248687744140625
0, 5, 115, 5.464259624481201
0, 5, 116, 3.564225912094116
0, 5, 117, 2.474472761154175
0, 5, 118, 3.526317596435547
0, 5, 119, 4.224863529205322
0, 5, 120, 2.093676328659058
0, 5, 121, 1.415525436401367
0, 5, 122, 2.544607162475586
0, 5, 123, 5.536299705505371
0, 5, 124, 3.135554552078247
0, 5, 125, 1.128239989280701
0, 5, 126, 1.110210657119751
0, 5, 127, 3.748956918716431
0, 6, 0, 3.40700888633728
0, 6, 1, 2.235931158065796
0, 6, 2, 4.828316688537598
0, 6, 3, 2.768818855285645
0, 6, 4, 2.842990159988403
0, 6, 5, 2.473670482635498
0, 6, 6, 4.553434371948242
0, 6, 7, 3.781372785568237
0, 6, 8, 4.712179660797119
0, 6, 9, 2.921303749084473
0, 6, 10, 3.764070749282837
0, 6, 11, 4.107124805450439
0, 6, 12, 6.111613273620605
0, 6, 13, 5.046868324279785
0, 6, 14, 6.342367649078369
0, 6, 15, 6.91791296005249
0, 6, 16, 13.98706912994385
0, 6, 17, 31.37799263000488
0, 6, 18, 111.9351654052734
0, 6, 19, 191.5956573486328
0, 6, 20, 196.1302642822266
0, 6, 21, 197.5655364990234
0, 6, 22, 191.5622711181641
0, 6, 23, 190.4735870361328
0, 6, 24, 200.9089050292969
0, 6, 25, 184.4442596435547
0, 6, 26, 189.1583251953125
0, 6, 27, 192.15966796875
0, 6, 28, 188.9294891357422
0, 6, 29, 212.8184967041016
0, 6, 30, 189.2155456542969
0, 6, 31, 194.0772552490234
0, 6, 32, 205.9288482666016
0, 6, 33, 184.4919738769531
0, 6, 34, 197.5453491210938
0, 6, 35, 189.0280303955078
0, 6, 36, 182.2173461914062
0, 6, 37, 182.5511932373047
0, 6, 38, 185.2313079833984
0, 6, 39, 194.1777038574219
0, 6, 40, 173.8394317626953
0, 6, 41, 187.3245391845703
0, 6, 42, 174.1005554199219
0, 6, 43, 209.4580383300781
0, 6, 44, 209.1842498779297
0, 6, 45, 194.2308197021484
0, 6, 46, 188.2868499755859
0, 6, 47, 204.0581665039062
0, 6, 48, 190.0078887939453
0, 6, 49, 179.6613616943359
0, 6, 50, 182.6905975341797
0, 6, 51, 196.2944946289062
0, 6, 52, 197.6975250244141
0, 6, 53, 184.578369140625
0, 6, 54, 175.6083984375
0, 6, 55, 194.8277740478516
0, 6, 56, 202.3583679199219
0, 6, 57, 190.8220062255859
0, 6, 58, 180.6974639892578
0, 6, 59, 193.1507873535156
0, 6, 60, 186.4773254394531
0, 6, 61, 194.7867584228516
0, 6, 62, 196.5498199462891
0, 6, 63, 186.5700836181641
0, 6, 64, 167.8866271972656
0, 6, 65, 185.3617095947266
0, 6, 66, 199.2245635986328
0, 6, 67, 213.7212219238281
0, 6, 68, 179.8570098876953
0, 6, 69, 172.1026000976562
0, 6, 70, 188.3211517333984
0, 6, 71, 171.0407409667969
0, 6, 72, 175.7955932617188
0, 6, 73, 177.0226440429688
0, 6, 74, 210.4929962158203
0, 6, 75, 227.5920867919922
0, 6, 76, 183.8908386230469
0, 6, 77, 173.1921997070312
0, 6, 78, 176.3605346679688
0, 6, 79, 185.2942352294922
0, 6, 80, 186.7580108642578
0, 6, 81, 209.6513671875
0, 6, 82, 196.6007232666016
0, 6, 83, 194.8647766113281
0, 6, 84, 197.3698120117188
0, 6, 85, 180.7993011474609
0, 6, 86, 200.9321594238281
0, 6, 87, 183.5122222900391
0, 6, 88, 192.2075347900391
0, 6, 89, 188.2986755371094
0, 6, 90, 205.5904235839844
0, 6, 91, 200.9187316894531
0, 6, 92, 173.3930969238281
0, 6, 93, 193.6701812744141
0, 6, 94, 189.7481231689453
0, 6, 95, 184.6984100341797
0, 6, 96, 188.3718109130859
0, 6, 97, 195.5206909179688
0, 6, 98, 185.0974426269531
0, 6, 99, 177.6902008056641
0, 6, 100, 202.5147705078125
0, 6, 101, 169.5623016357422
0, 6, 102, 201.5806732177734
0, 6, 103, 195.8869171142578
0, 6, 104, 184.0702819824219
0, 6, 105, 193.7432403564453
0, 6, 106, 177.0652770996094
0, 6, 107, 195.6822357177734
0, 6, 108, 172.4367980957031
0, 6, 109, 116.1814880371094
0, 6, 110, 33.65019989013672
0, 6, 111, 8.721477508544922
0, 6, 112, 8.692318916320801
0, 6, 113, 6.578988075256348
0, 6, 114, 5.881271362304688
0, 6, 115, 5.991340637207031
0, 6, 116, 3.546086311340332
0, 6, 117, 5.371899604797363
0, 6, 118, 3.763540744781494
0, 6, 119, 4.08655309677124
0, 6, 120, 1.781665086746216
0, 6, 121, 4.695283889770508
0, 6, 122, 3.302244186401367
0, 6, 123, 1.714640140533447
0, 6, 124, 3.015680551528931
0, 6, 125, 2.326847553253174
0, 6, 126, 1.62004029750824
0, 6, 127, 1.764941453933716
0, 7, 0, 2.649792194366455
0, 7, 1, 1.557452201843262
0, 7, 2, 1.904462575912476
0, 7, 3, 1.874717116355896
0, 7, 4, 0.7129430174827576
0, 7, 5, 2.488763809204102
0, 7, 6, 4.438294887542725
0, 7, 7, 2.185449123382568
0, 7, 8, 3.817879199981689
0, 7, 9, 6.149258613586426
0, 7, 10, 4.929140090942383
0, 7, 11, 3.174381256103516
0, 7, 12, 3.404837846755981
0, 7, 13, 6.749562740325928
0, 7, 14, 6.91575288772583
0, 7, 15, 6.888864040374756
0, 7, 16, 15.4976634979248
0, 7, 17, 50.81182479858398
0, 7, 18, 160.8832397460938
0, 7, 19, 184.22509765625
0, 7, 20, 181.2394256591797
0, 7, 21, 179.3156127929688
0, 7, 22, 191.3297119140625
0, 7, 23, 202.9845581054688
0, 7, 24, 179.7427368164062
0, 7, 25, 212.4886779785156
0, 7, 26, 189.1321258544922
0, 7, 27, 182.2277374267578
0, 7, 28, 182.686279296875
0, 7, 29, 209.8327026367188
0, 7, 30, 192.7315521240234
0, 7, 31, 176.6104278564453
0, 7, 32, 191.8204040527344
0, 7, 33, 181.3076477050781
0, 7, 34, 192.7960510253906
0, 7, 35, 197.3881378173828
0, 7, 36, 188.1011657714844
0, 7, 37, 213.41748046875
0, 7, 38, 191.1504974365234
0, 7, 39, 173.3368530273438
0, 7, 40, 184.4158477783203
0, 7, 41, 184.8345184326172
0, 7, 42, 178.3673095703125
0, 7, 43, 178.502685546875
0, 7, 44, 178.7019653320312
0, 7, 45, 174.5435943603516
0, 7, 46, 187.3692016601562
0, 7, 47, 197.7944030761719
0, 7, 48, 187.4089050292969
0, 7, 49, 198.979248046875
0, 7, 50, 188.2863311767578
0, 7, 51, 204.8444366455078
0, 7, 52, 204.3179779052734
0, 7, 53, 191.1400451660156
0, 7, 54, 195.7397613525391
0, 7, 55, 203.4764556884766
0, 7, 56, 183.8785552978516
0, 7, 57, 182.0282745361328
0, 7, 58, 190.7842102050781
0, 7, 59, 187.2201080322266
0, 7, 60, 202.4129791259766
0, 7, 61, 170.7373504638672
0, 7, 62, 204.5145111083984
0, 7, 63, 189.4177398681641
0, 7, 64, 200.2675323486328
0, 7, 65, 203.9291534423828
0, 7, 66, 206.500244140625
0, 7, 67, 219.9260406494141
0, 7, 68, 163.4107971191406
0, 7, 69, 195.5346527099609
0, 7, 70, 217.688720703125
0, 7, 71, 185.2292022705078
0, 7, 72, 180.7478485107422
0, 7, 73, 176.5951843261719
0, 7, 74, 207.3979339599609
0, 7, 75, 205.5656127929688
0, 7, 76, 215.3566436767578
0, 7, 77, 175.3561859130859
0, 7, 78, 177.2992553710938
0, 7, 79, 194.0535583496094
0, 7, 80, 196.4325714111328
0, 7, 81, 214.6824188232422
0, 7, 82, 185.155029296875
0, 7, 83, 205.6651763916016
0, 7, 84, 191.3137359619141
0, 7, 85, 185.0610046386719
0, 7, 86, 200.6736297607422
0, 7, 87, 224.584716796875
0, 7, 88, 195.0793609619141
0, 7, 89, 180.0115661621094
0, 7, 90, 182.9090728759766
0, 7, 91, 194.9429473876953
0, 7, 92, 194.6001739501953
0, 7, 93, 198.0389862060547
0, 7, 94, 176.0718688964844
0, 7, 95, 197.2861633300781
0, 7, 96, 209.4632415771484
0, 7, 97, 191.3616943359375
0, 7, 98, 177.5054626464844
0, 7, 99, 198.258544921875
0, 7, 100, 182.2114562988281
0, 7, 101, 199.5144958496094
0, 7, 102, 185.0385437011719
0, 7, 103, 180.8989715576172
0, 7, 104, 176.8551177978516
0, 7, 105, 196.2857360839844
0, 7, 106, 205.2038421630859
0, 7, 107, 173.6375732421875
0, 7, 108, 177.2016296386719
0, 7, 109, 136.1903076171875
0, 7, 110, 55.02993774414062
0, 7, 111, 8.791777610778809
0, 7, 112, 7.74574613571167
0, 7, 113, 8.14054012298584
0, 7, 114, 7.43673038482666
0, 7, 115, 5.047425270080566
0, 7, 116, 3.903113842010498
0, 7, 117, 3.813345670700073
0, 7, 118, 2.848442316055298
0, 7, 119, 3.122179269790649
0, 7, 120, 4.386456966400146
0, 7, 121, 2.70856237411499
0, 7, 122, 2.100090742111206
0, 7, 123, 2.766990184783936
0, 7, 124, 1.486958861351013
0, 7, 125, 2.326603412628174
0, 7, 126, 3.285570383071899
0, 7, 127, 0.798641562461853
0, 8, 0, 5.243308544158936
0, 8, 1, 3.069164514541626
0, 8, 2, 2.778959274291992
0, 8, 3, 1.852301239967346
0, 8, 4, 3.399199485778809
0, 8, 5, 3.139967441558838
0, 8, 6, 1.894802689552307
0, 8, 7, 3.577945709228516
0, 8, 8, 3.089014530181885
0, 8, 9, 3.094986438751221
0, 8, 10, 3.646153211593628
0, 8, 11, 2.342160224914551
0, 8, 12, 3.518740892410278
0, 8, 13, 6.9556565284729
0, 8, 14, 7.349750518798828
0, 8, 15, 9.170575141906738
0, 8, 16, 19.11160469055176
0, 8, 17, 76.71500396728516
0, 8, 18, 142.4637451171875
0, 8, 19, 178.1252746582031
0, 8, 20, 192.3981628417969
0, 8, 21, 195.2969360351562
0, 8, 22, 180.2649688720703
0, 8, 23, 172.2363891601562
0, 8, 24, 192.4871368408203
0, 8, 25, 185.6081085205078
0, 8, 26, 192.3541564941406
0, 8, 27, 185.7213287353516
0, 8, 28, 185.5532531738281
0, 8, 29, 206.1465759277344
0, 8, 30, 197.6663513183594
0, 8, 31, 181.7891082763672
0, 8, 32, 198.1231536865234
0, 8, 33, 208.9892120361328
0, 8, 34, 202.745361328125
0, 8, 35, 185.2209014892578
0, 8, 36, 181.1007385253906
