# TOPAS Version: 3.1.p3
# Parameter File: batch_inserts_14.txt
# Results for scorer Readout_Adipose
# Scored in component: MyBox
# X in 1 bin  of 0.65 cm
# Y in 512 bins of 0.0783984 cm
# Z in 128 bins of 0.078125 cm
# EnergyDeposit ( MeV ) : Sum   
0, 0, 0, 1.286156177520752
0, 0, 1, 5.01471996307373
0, 0, 2, 1.785189986228943
0, 0, 3, 0.9635344743728638
0, 0, 4, 1.524177074432373
0, 0, 5, 0.1321053951978683
0, 0, 6, 2.000091791152954
0, 0, 7, 1.979632616043091
0, 0, 8, 2.169258117675781
0, 0, 9, 2.592191457748413
0, 0, 10, 2.007996082305908
0, 0, 11, 4.814695835113525
0, 0, 12, 3.136820316314697
0, 0, 13, 1.82769501209259
0, 0, 14, 6.657820224761963
0, 0, 15, 4.944777965545654
0, 0, 16, 4.176418781280518
0, 0, 17, 6.887611865997314
0, 0, 18, 6.319592475891113
0, 0, 19, 22.67034912109375
0, 0, 20, 94.24411010742188
0, 0, 21, 151.82861328125
0, 0, 22, 157.1377868652344
0, 0, 23, 144.7623291015625
0, 0, 24, 160.0939025878906
0, 0, 25, 165.2309722900391
0, 0, 26, 166.7353820800781
0, 0, 27, 173.5394134521484
0, 0, 28, 178.9194030761719
0, 0, 29, 175.5211334228516
0, 0, 30, 174.2648468017578
0, 0, 31, 168.0618743896484
0, 0, 32, 164.2723693847656
0, 0, 33, 166.5574188232422
0, 0, 34, 176.2220153808594
0, 0, 35, 174.4430236816406
0, 0, 36, 158.5740051269531
0, 0, 37, 161.7001800537109
0, 0, 38, 166.2107849121094
0, 0, 39, 158.9118347167969
0, 0, 40, 164.4538269042969
0, 0, 41, 165.5822601318359
0, 0, 42, 142.9658355712891
0, 0, 43, 168.4137878417969
0, 0, 44, 177.7588043212891
0, 0, 45, 173.0150451660156
0, 0, 46, 166.1504211425781
0, 0, 47, 168.1232147216797
0, 0, 48, 168.698486328125
0, 0, 49, 182.2866363525391
0, 0, 50, 168.503173828125
0, 0, 51, 162.724609375
0, 0, 52, 163.5984497070312
0, 0, 53, 172.9550933837891
0, 0, 54, 159.2209014892578
0, 0, 55, 165.3714752197266
0, 0, 56, 189.0412750244141
0, 0, 57, 171.0510864257812
0, 0, 58, 161.1605377197266
0, 0, 59, 172.796630859375
0, 0, 60, 169.0820159912109
0, 0, 61, 170.5396423339844
0, 0, 62, 183.0621643066406
0, 0, 63, 166.1777496337891
0, 0, 64, 164.4883270263672
0, 0, 65, 174.6584014892578
0, 0, 66, 177.5857849121094
0, 0, 67, 163.0086975097656
0, 0, 68, 158.5044555664062
0, 0, 69, 159.1714172363281
0, 0, 70, 169.4020233154297
0, 0, 71, 158.2937927246094
0, 0, 72, 162.2088928222656
0, 0, 73, 172.5735015869141
0, 0, 74, 164.01953125
0, 0, 75, 163.3149871826172
0, 0, 76, 163.5342712402344
0, 0, 77, 172.6678924560547
0, 0, 78, 181.9320373535156
0, 0, 79, 175.2237854003906
0, 0, 80, 159.3314819335938
0, 0, 81, 161.2187347412109
0, 0, 82, 183.1011047363281
0, 0, 83, 173.2406311035156
0, 0, 84, 159.5183410644531
0, 0, 85, 180.9901733398438
0, 0, 86, 158.0964050292969
0, 0, 87, 177.6346588134766
0, 0, 88, 176.7852783203125
0, 0, 89, 177.8587799072266
0, 0, 90, 159.9473419189453
0, 0, 91, 185.3839416503906
0, 0, 92, 164.9185180664062
0, 0, 93, 153.8708801269531
0, 0, 94, 169.0375823974609
0, 0, 95, 174.1382598876953
0, 0, 96, 183.5963134765625
0, 0, 97, 183.9201965332031
0, 0, 98, 185.5903625488281
0, 0, 99, 171.0904541015625
0, 0, 100, 158.8957824707031
0, 0, 101, 166.9888305664062
0, 0, 102, 170.8600769042969
0, 0, 103, 170.248291015625
0, 0, 104, 168.8834838867188
0, 0, 105, 178.5085754394531
0, 0, 106, 159.7274932861328
0, 0, 107, 87.02726745605469
0, 0, 108, 24.00281715393066
0, 0, 109, 11.43659400939941
0, 0, 110, 6.225172519683838
0, 0, 111, 6.164359092712402
0, 0, 112, 3.071402072906494
0, 0, 113, 4.027941226959229
0, 0, 114, 2.011373519897461
0, 0, 115, 3.417268037796021
0, 0, 116, 1.073954105377197
0, 0, 117, 2.79988169670105
0, 0, 118, 2.274031639099121
0, 0, 119, 2.092501878738403
0, 0, 120, 3.693114042282104
0, 0, 121, 3.818674325942993
0, 0, 122, 4.14667272567749
0, 0, 123, 4.327192783355713
0, 0, 124, 1.609277367591858
0, 0, 125, 1.767484664916992
0, 0, 126, 0.8746346831321716
0, 0, 127, 1.924580693244934
0, 1, 0, 0.7153065204620361
0, 1, 1, 4.680005073547363
0, 1, 2, 1.858502388000488
0, 1, 3, 1.066496253013611
0, 1, 4, 1.201604008674622
0, 1, 5, 2.211641073226929
0, 1, 6, 1.155978441238403
0, 1, 7, 3.06334376335144
0, 1, 8, 1.579773187637329
0, 1, 9, 1.012481689453125
0, 1, 10, 2.708583831787109
0, 1, 11, 4.21087121963501
0, 1, 12, 3.032560110092163
0, 1, 13, 3.35414457321167
0, 1, 14, 5.886749267578125
0, 1, 15, 6.683773994445801
0, 1, 16, 7.516612529754639
0, 1, 17, 6.585395812988281
0, 1, 18, 12.67584228515625
0, 1, 19, 40.24909591674805
0, 1, 20, 125.4823532104492
0, 1, 21, 178.3448791503906
0, 1, 22, 192.7205810546875
0, 1, 23, 186.4342041015625
0, 1, 24, 179.5270080566406
0, 1, 25, 191.7149963378906
0, 1, 26, 197.2006530761719
0, 1, 27, 186.7119445800781
0, 1, 28, 188.5884552001953
0, 1, 29, 185.0405578613281
0, 1, 30, 180.2955932617188
0, 1, 31, 181.9526672363281
0, 1, 32, 188.1578674316406
0, 1, 33, 189.8350982666016
0, 1, 34, 184.1242218017578
0, 1, 35, 192.7616882324219
0, 1, 36, 204.8985748291016
0, 1, 37, 185.2784881591797
0, 1, 38, 165.1505737304688
0, 1, 39, 174.3477478027344
0, 1, 40, 178.9949035644531
0, 1, 41, 184.7748870849609
0, 1, 42, 182.0214538574219
0, 1, 43, 184.4290924072266
0, 1, 44, 167.8258819580078
0, 1, 45, 187.3795318603516
0, 1, 46, 171.8150329589844
0, 1, 47, 185.6045837402344
0, 1, 48, 186.0476989746094
0, 1, 49, 187.0638580322266
0, 1, 50, 177.3613433837891
0, 1, 51, 190.7820281982422
0, 1, 52, 194.7848663330078
0, 1, 53, 197.7572021484375
0, 1, 54, 185.5854644775391
0, 1, 55, 164.6901702880859
0, 1, 56, 178.4107055664062
0, 1, 57, 178.4482421875
0, 1, 58, 188.8573608398438
0, 1, 59, 194.1094970703125
0, 1, 60, 188.5907287597656
0, 1, 61, 178.953857421875
0, 1, 62, 205.5845184326172
0, 1, 63, 173.8786163330078
0, 1, 64, 172.0786590576172
0, 1, 65, 185.2105102539062
0, 1, 66, 204.5766296386719
0, 1, 67, 182.7735443115234
0, 1, 68, 188.1119995117188
0, 1, 69, 189.116455078125
0, 1, 70, 185.0428314208984
0, 1, 71, 171.4116668701172
0, 1, 72, 189.1623687744141
0, 1, 73, 189.6276092529297
0, 1, 74, 200.9973449707031
0, 1, 75, 183.4782562255859
0, 1, 76, 173.7293548583984
0, 1, 77, 191.3275299072266
0, 1, 78, 187.7434387207031
0, 1, 79, 201.6659545898438
0, 1, 80, 186.1352386474609
0, 1, 81, 174.6915588378906
0, 1, 82, 207.9874267578125
0, 1, 83, 212.2870941162109
0, 1, 84, 180.3593139648438
0, 1, 85, 169.9514007568359
0, 1, 86, 167.9514465332031
0, 1, 87, 184.6336364746094
0, 1, 88, 173.7066040039062
0, 1, 89, 187.3172760009766
0, 1, 90, 212.3894653320312
0, 1, 91, 180.8173065185547
0, 1, 92, 183.8439483642578
0, 1, 93, 181.7055816650391
0, 1, 94, 185.4695739746094
0, 1, 95, 182.1693115234375
0, 1, 96, 196.8968505859375
0, 1, 97, 183.1175689697266
0, 1, 98, 186.5818176269531
0, 1, 99, 175.5791778564453
0, 1, 100, 172.2806396484375
0, 1, 101, 178.6274871826172
0, 1, 102, 181.8636627197266
0, 1, 103, 172.7386474609375
0, 1, 104, 188.7704010009766
0, 1, 105, 182.2197570800781
0, 1, 106, 164.036376953125
0, 1, 107, 122.5544738769531
0, 1, 108, 45.78092575073242
0, 1, 109, 9.950507164001465
0, 1, 110, 8.231027603149414
0, 1, 111, 7.120334625244141
0, 1, 112, 7.804398536682129
0, 1, 113, 7.053347587585449
0, 1, 114, 6.449501514434814
0, 1, 115, 3.062420606613159
0, 1, 116, 2.334163188934326
0, 1, 117, 2.663225173950195
0, 1, 118, 3.338184118270874
0, 1, 119, 1.664528846740723
0, 1, 120, 2.863693952560425
0, 1, 121, 4.597089290618896
0, 1, 122, 4.061314105987549
0, 1, 123, 2.32127046585083
0, 1, 124, 1.747868537902832
0, 1, 125, 1.931559681892395
0, 1, 126, 1.698137283325195
0, 1, 127, 2.027154684066772
0, 2, 0, 2.664782285690308
0, 2, 1, 2.972119808197021
0, 2, 2, 2.121031999588013
0, 2, 3, 0.9467295408248901
0, 2, 4, 1.489909410476685
0, 2, 5, 1.045399308204651
0, 2, 6, 2.70940899848938
0, 2, 7, 1.778332948684692
0, 2, 8, 2.036391258239746
0, 2, 9, 2.198137998580933
0, 2, 10, 5.540979862213135
0, 2, 11, 4.70454740524292
0, 2, 12, 4.185886383056641
0, 2, 13, 3.118753671646118
0, 2, 14, 3.384526252746582
0, 2, 15, 4.923274040222168
0, 2, 16, 5.804494380950928
0, 2, 17, 9.054142951965332
0, 2, 18, 13.78201580047607
0, 2, 19, 77.93993377685547
0, 2, 20, 162.0716247558594
0, 2, 21, 182.3641967773438
0, 2, 22, 193.4218292236328
0, 2, 23, 183.4200439453125
0, 2, 24, 173.5968627929688
0, 2, 25, 185.8875274658203
0, 2, 26, 179.3264617919922
0, 2, 27, 188.8507995605469
0, 2, 28, 172.5068206787109
0, 2, 29, 168.8741149902344
0, 2, 30, 183.7014770507812
0, 2, 31, 183.8054046630859
0, 2, 32, 183.2708587646484
0, 2, 33, 190.0640869140625
0, 2, 34, 198.421142578125
0, 2, 35, 181.1267395019531
0, 2, 36, 185.8313598632812
0, 2, 37, 180.6858062744141
0, 2, 38, 185.9926300048828
0, 2, 39, 166.9048919677734
0, 2, 40, 184.3324890136719
0, 2, 41, 185.3739013671875
0, 2, 42, 191.0504913330078
0, 2, 43, 193.3103637695312
0, 2, 44, 190.2388153076172
0, 2, 45, 191.0381317138672
0, 2, 46, 196.5674438476562
0, 2, 47, 188.4181671142578
0, 2, 48, 178.1911315917969
0, 2, 49, 196.9511871337891
0, 2, 50, 170.2262725830078
0, 2, 51, 184.8252410888672
0, 2, 52, 185.5240783691406
0, 2, 53, 194.7544250488281
0, 2, 54, 175.7865600585938
0, 2, 55, 173.1864471435547
0, 2, 56, 182.1311798095703
0, 2, 57, 199.7281951904297
0, 2, 58, 186.0271606445312
0, 2, 59, 189.0390625
0, 2, 60, 196.5129852294922
0, 2, 61, 192.9423522949219
0, 2, 62, 189.6609191894531
0, 2, 63, 171.6152038574219
0, 2, 64, 189.2071380615234
0, 2, 65, 201.9228515625
0, 2, 66, 196.1459655761719
0, 2, 67, 184.6558685302734
0, 2, 68, 182.1710510253906
0, 2, 69, 188.5350799560547
0, 2, 70, 202.7280120849609
0, 2, 71, 174.5429992675781
0, 2, 72, 186.1822814941406
0, 2, 73, 176.4445953369141
0, 2, 74, 181.0403442382812
0, 2, 75, 197.5444030761719
0, 2, 76, 183.6652374267578
0, 2, 77, 177.2238922119141
0, 2, 78, 198.9663238525391
0, 2, 79, 179.2041931152344
0, 2, 80, 186.3797912597656
0, 2, 81, 186.467041015625
0, 2, 82, 204.7570648193359
0, 2, 83, 204.2819976806641
0, 2, 84, 188.8268737792969
0, 2, 85, 170.0006866455078
0, 2, 86, 195.662841796875
0, 2, 87, 172.0591430664062
0, 2, 88, 180.9383544921875
0, 2, 89, 184.1438140869141
0, 2, 90, 177.8428039550781
0, 2, 91, 174.8681030273438
0, 2, 92, 196.1797332763672
0, 2, 93, 192.4765777587891
0, 2, 94, 201.1654663085938
0, 2, 95, 192.6051483154297
0, 2, 96, 186.6364135742188
0, 2, 97, 172.7659912109375
0, 2, 98, 174.9615631103516
0, 2, 99, 163.1923522949219
0, 2, 100, 188.9837188720703
0, 2, 101, 197.0297241210938
0, 2, 102, 177.8210906982422
0, 2, 103, 200.2164611816406
0, 2, 104, 187.1637268066406
0, 2, 105, 200.3298797607422
0, 2, 106, 194.3451690673828
0, 2, 107, 150.5935974121094
0, 2, 108, 78.50115203857422
0, 2, 109, 17.49985504150391
0, 2, 110, 9.150813102722168
0, 2, 111, 6.27215576171875
0, 2, 112, 3.617615938186646
0, 2, 113, 5.205341815948486
0, 2, 114, 7.439917087554932
0, 2, 115, 3.301547765731812
0, 2, 116, 1.828314065933228
0, 2, 117, 1.780285358428955
0, 2, 118, 3.822870016098022
0, 2, 119, 3.589434146881104
0, 2, 120, 1.323163270950317
0, 2, 121, 2.870543718338013
0, 2, 122, 1.44998562335968
0, 2, 123, 1.694737911224365
0, 2, 124, 2.47755241394043
0, 2, 125, 2.045086622238159
0, 2, 126, 2.544598340988159
0, 2, 127, 0.7455582618713379
0, 3, 0, 1.518415570259094
0, 3, 1, 2.018216133117676
0, 3, 2, 2.023209095001221
0, 3, 3, 2.485561847686768
0, 3, 4, 4.495091915130615
0, 3, 5, 2.409018278121948
0, 3, 6, 1.293198227882385
0, 3, 7, 1.769604682922363
0, 3, 8, 2.720952033996582
0, 3, 9, 3.754403591156006
0, 3, 10, 1.620472073554993
0, 3, 11, 3.905638217926025
0, 3, 12, 3.553869009017944
0, 3, 13, 3.463931798934937
0, 3, 14, 4.551384925842285
0, 3, 15, 6.841500759124756
0, 3, 16, 8.18039608001709
0, 3, 17, 5.56037712097168
0, 3, 18, 32.58451843261719
0, 3, 19, 115.0655822753906
0, 3, 20, 181.9996490478516
0, 3, 21, 172.6275024414062
0, 3, 22, 177.6055450439453
0, 3, 23, 187.4462432861328
0, 3, 24, 178.0035858154297
0, 3, 25, 168.5782623291016
0, 3, 26, 180.1046752929688
0, 3, 27, 189.8263397216797
0, 3, 28, 183.3477020263672
0, 3, 29, 197.0397644042969
0, 3, 30, 184.5838928222656
0, 3, 31, 193.0670166015625
0, 3, 32, 206.0243377685547
0, 3, 33, 195.4685821533203
0, 3, 34, 188.7329406738281
0, 3, 35, 173.2682495117188
0, 3, 36, 184.80859375
0, 3, 37, 199.9449157714844
0, 3, 38, 190.6881713867188
0, 3, 39, 184.4131011962891
0, 3, 40, 166.1530303955078
0, 3, 41, 173.5773620605469
0, 3, 42, 186.2012481689453
0, 3, 43, 182.2399139404297
0, 3, 44, 202.81884765625
0, 3, 45, 207.9728240966797
0, 3, 46, 198.5427398681641
0, 3, 47, 194.8407592773438
0, 3, 48, 194.9052734375
0, 3, 49, 180.5874481201172
0, 3, 50, 186.6702117919922
0, 3, 51, 174.3291168212891
0, 3, 52, 188.3535003662109
0, 3, 53, 177.874755859375
0, 3, 54, 178.7469024658203
0, 3, 55, 176.7152862548828
0, 3, 56, 182.1636352539062
0, 3, 57, 174.9514617919922
0, 3, 58, 202.5287170410156
0, 3, 59, 195.4762115478516
0, 3, 60, 186.0204162597656
0, 3, 61, 182.2458038330078
0, 3, 62, 183.0782928466797
0, 3, 63, 185.1411895751953
0, 3, 64, 187.8823547363281
0, 3, 65, 188.6185302734375
0, 3, 66, 175.6120910644531
0, 3, 67, 190.8166046142578
0, 3, 68, 211.411376953125
0, 3, 69, 191.2472991943359
0, 3, 70, 187.139892578125
0, 3, 71, 196.7988586425781
0, 3, 72, 185.4539947509766
0, 3, 73, 187.6567230224609
0, 3, 74, 192.4682464599609
0, 3, 75, 192.4490356445312
0, 3, 76, 190.5813446044922
0, 3, 77, 197.6111297607422
0, 3, 78, 188.8391876220703
0, 3, 79, 184.7674713134766
0, 3, 80, 188.7722930908203
0, 3, 81, 183.9451599121094
0, 3, 82, 179.5480804443359
0, 3, 83, 195.0667419433594
0, 3, 84, 199.1735687255859
0, 3, 85, 192.9715576171875
0, 3, 86, 203.6844329833984
0, 3, 87, 197.1985473632812
0, 3, 88, 192.1082458496094
0, 3, 89, 193.9015197753906
0, 3, 90, 174.5731658935547
0, 3, 91, 158.1183929443359
0, 3, 92, 206.7848358154297
0, 3, 93, 196.1134185791016
0, 3, 94, 193.541748046875
0, 3, 95, 211.8555908203125
0, 3, 96, 209.2066040039062
0, 3, 97, 167.5684356689453
0, 3, 98, 167.7386169433594
0, 3, 99, 181.8494110107422
0, 3, 100, 176.7170562744141
0, 3, 101, 198.1731872558594
0, 3, 102, 194.4502868652344
0, 3, 103, 192.6647186279297
0, 3, 104, 202.0833587646484
0, 3, 105, 175.9725341796875
0, 3, 106, 182.2096557617188
0, 3, 107, 169.7042694091797
0, 3, 108, 107.5092086791992
0, 3, 109, 26.96781539916992
0, 3, 110, 7.569022178649902
0, 3, 111, 6.942441940307617
0, 3, 112, 3.949521541595459
0, 3, 113, 8.288206100463867
0, 3, 114, 4.934991836547852
0, 3, 115, 5.515295028686523
0, 3, 116, 6.476812839508057
0, 3, 117, 3.39643120765686
0, 3, 118, 2.152814388275146
0, 3, 119, 3.460049867630005
0, 3, 120, 3.101443529129028
0, 3, 121, 2.91040825843811
0, 3, 122, 3.399374008178711
0, 3, 123, 2.937559127807617
0, 3, 124, 1.865897178649902
0, 3, 125, 1.458597540855408
0, 3, 126, 2.114551544189453
0, 3, 127, 1.712455153465271
0, 4, 0, 2.432060241699219
0, 4, 1, 1.327286243438721
0, 4, 2, 2.681052207946777
0, 4, 3, 3.622926235198975
0, 4, 4, 2.442355871200562
0, 4, 5, 1.965455174446106
0, 4, 6, 3.566872596740723
0, 4, 7, 2.870179176330566
0, 4, 8, 1.769468903541565
0, 4, 9, 3.865555763244629
0, 4, 10, 3.781694412231445
0, 4, 11, 5.02364444732666
0, 4, 12, 3.445329904556274
0, 4, 13, 4.730096340179443
0, 4, 14, 4.414166450500488
0, 4, 15, 8.54523754119873
0, 4, 16, 6.322800636291504
0, 4, 17, 11.45766448974609
0, 4, 18, 56.75840377807617
0, 4, 19, 152.3389434814453
0, 4, 20, 193.137451171875
0, 4, 21, 169.3450775146484
0, 4, 22, 187.4729156494141
0, 4, 23, 195.6617431640625
0, 4, 24, 193.8546142578125
0, 4, 25, 201.5708160400391
0, 4, 26, 183.1475372314453
0, 4, 27, 190.6351318359375
0, 4, 28, 178.5220794677734
0, 4, 29, 205.0737457275391
0, 4, 30, 195.4014129638672
0, 4, 31, 192.9778442382812
0, 4, 32, 208.8573608398438
0, 4, 33, 189.2485198974609
0, 4, 34, 192.0277099609375
0, 4, 35, 214.7680206298828
0, 4, 36, 192.8993530273438
0, 4, 37, 176.8923034667969
0, 4, 38, 193.6891937255859
0, 4, 39, 189.2727966308594
0, 4, 40, 186.1037139892578
0, 4, 41, 190.5957336425781
0, 4, 42, 206.7866363525391
0, 4, 43, 173.5268096923828
0, 4, 44, 183.6779479980469
0, 4, 45, 195.8456115722656
0, 4, 46, 185.5983734130859
0, 4, 47, 180.1120147705078
0, 4, 48, 185.2718200683594
0, 4, 49, 174.5005950927734
0, 4, 50, 186.8553619384766
0, 4, 51, 200.2432098388672
0, 4, 52, 223.4614715576172
0, 4, 53, 205.2874755859375
0, 4, 54, 189.0225372314453
0, 4, 55, 174.3329162597656
0, 4, 56, 190.6487884521484
0, 4, 57, 191.8578338623047
0, 4, 58, 187.7038726806641
0, 4, 59, 189.1511688232422
0, 4, 60, 195.50341796875
0, 4, 61, 193.0245666503906
0, 4, 62, 190.7207336425781
0, 4, 63, 177.9611968994141
0, 4, 64, 212.3708953857422
0, 4, 65, 190.6010894775391
0, 4, 66, 200.3844757080078
0, 4, 67, 201.3579864501953
0, 4, 68, 204.5458374023438
0, 4, 69, 199.5347137451172
0, 4, 70, 205.0097045898438
0, 4, 71, 206.896728515625
0, 4, 72, 214.8916931152344
0, 4, 73, 185.6256713867188
0, 4, 74, 181.3387451171875
0, 4, 75, 184.5502624511719
0, 4, 76, 189.6427459716797
0, 4, 77, 183.6456756591797
0, 4, 78, 194.8234405517578
0, 4, 79, 203.5172119140625
0, 4, 80, 212.2236938476562
0, 4, 81, 199.8711395263672
0, 4, 82, 181.1072082519531
0, 4, 83, 171.1928253173828
0, 4, 84, 192.7778015136719
0, 4, 85, 196.9096069335938
0, 4, 86, 182.3949432373047
0, 4, 87, 184.637451171875
0, 4, 88, 203.8673858642578
0, 4, 89, 187.1502838134766
0, 4, 90, 211.5707855224609
0, 4, 91, 188.7624664306641
0, 4, 92, 195.0567626953125
0, 4, 93, 197.1737976074219
0, 4, 94, 182.0569305419922
0, 4, 95, 174.1973724365234
0, 4, 96, 189.7140808105469
0, 4, 97, 192.1365051269531
0, 4, 98, 203.9741668701172
0, 4, 99, 183.3862609863281
0, 4, 100, 183.291748046875
0, 4, 101, 176.7470397949219
0, 4, 102, 173.1434631347656
0, 4, 103, 184.8688049316406
0, 4, 104, 209.4680938720703
0, 4, 105, 190.6773681640625
0, 4, 106, 179.6245727539062
0, 4, 107, 181.0913238525391
0, 4, 108, 152.3525543212891
0, 4, 109, 49.01064682006836
0, 4, 110, 12.73697757720947
0, 4, 111, 8.123156547546387
0, 4, 112, 7.095266342163086
0, 4, 113, 5.72810697555542
0, 4, 114, 5.196757793426514
0, 4, 115, 3.215867519378662
0, 4, 116, 4.365678787231445
0, 4, 117, 3.485265493392944
0, 4, 118, 4.055038928985596
0, 4, 119, 3.277504682540894
0, 4, 120, 2.507286071777344
0, 4, 121, 1.60694146156311
0, 4, 122, 2.324462413787842
0, 4, 123, 2.538344383239746
0, 4, 124, 2.782172203063965
0, 4, 125, 3.396700620651245
0, 4, 126, 1.688898801803589
0, 4, 127, 1.67152464389801
0, 5, 0, 2.080204963684082
0, 5, 1, 2.93408989906311
0, 5, 2, 7.315027713775635
0, 5, 3, 3.728771209716797
0, 5, 4, 2.174910306930542
0, 5, 5, 1.523894190788269
0, 5, 6, 2.393041849136353
0, 5, 7, 2.54515814781189
0, 5, 8, 3.473277568817139
0, 5, 9, 2.882767200469971
0, 5, 10, 5.745314121246338
0, 5, 11, 4.027476787567139
0, 5, 12, 3.272858858108521
0, 5, 13, 2.972963094711304
0, 5, 14, 5.727217674255371
0, 5, 15, 8.460700988769531
0, 5, 16, 7.459117412567139
0, 5, 17, 22.64213943481445
0, 5, 18, 83.99220275878906
0, 5, 19, 164.1342926025391
0, 5, 20, 185.5314788818359
0, 5, 21, 178.9671630859375
0, 5, 22, 171.0103759765625
0, 5, 23, 201.3383178710938
0, 5, 24, 189.4021453857422
0, 5, 25, 207.1192779541016
0, 5, 26, 181.8881988525391
0, 5, 27, 193.4631652832031
0, 5, 28, 191.1622161865234
0, 5, 29, 196.4106597900391
0, 5, 30, 177.022216796875
0, 5, 31, 180.8395385742188
0, 5, 32, 186.5781555175781
0, 5, 33, 168.5320434570312
0, 5, 34, 194.8399505615234
0, 5, 35, 198.2196350097656
0, 5, 36, 167.3733673095703
0, 5, 37, 196.9494934082031
0, 5, 38, 181.7288513183594
0, 5, 39, 187.51025390625
0, 5, 40, 197.2053070068359
0, 5, 41, 176.9333648681641
0, 5, 42, 187.1715393066406
0, 5, 43, 192.8244171142578
0, 5, 44, 199.5882263183594
0, 5, 45, 186.3126678466797
0, 5, 46, 193.3950347900391
0, 5, 47, 181.4897308349609
0, 5, 48, 179.9254302978516
0, 5, 49, 179.3853912353516
0, 5, 50, 187.8203277587891
0, 5, 51, 172.1969299316406
0, 5, 52, 168.1019897460938
0, 5, 53, 182.3854064941406
0, 5, 54, 172.5261993408203
0, 5, 55, 215.7852172851562
0, 5, 56, 181.40576171875
0, 5, 57, 207.4611358642578
0, 5, 58, 181.2180328369141
0, 5, 59, 180.9898223876953
0, 5, 60, 218.1878967285156
0, 5, 61, 184.2209167480469
0, 5, 62, 180.8327941894531
0, 5, 63, 181.7046813964844
0, 5, 64, 193.9095001220703
0, 5, 65, 210.1616058349609
0, 5, 66, 191.6302795410156
0, 5, 67, 198.1082611083984
0, 5, 68, 187.3323669433594
0, 5, 69, 185.4333801269531
0, 5, 70, 184.9015350341797
0, 5, 71, 193.2389068603516
0, 5, 72, 197.5704193115234
0, 5, 73, 203.1681976318359
0, 5, 74, 178.9599456787109
0, 5, 75, 205.4361267089844
0, 5, 76, 213.6743621826172
0, 5, 77, 181.9480285644531
0, 5, 78, 194.6521301269531
0, 5, 79, 190.4992980957031
0, 5, 80, 197.5251922607422
0, 5, 81, 202.0721740722656
0, 5, 82, 201.2791595458984
0, 5, 83, 188.0812377929688
0, 5, 84, 205.6604919433594
0, 5, 85, 176.1949768066406
0, 5, 86, 196.9930572509766
0, 5, 87, 189.2441101074219
0, 5, 88, 177.6395416259766
0, 5, 89, 193.9112548828125
0, 5, 90, 198.7926330566406
0, 5, 91, 194.3121795654297
0, 5, 92, 190.7523040771484
0, 5, 93, 191.1282501220703
0, 5, 94, 207.9714965820312
0, 5, 95, 177.696044921875
0, 5, 96, 182.0797729492188
0, 5, 97, 191.0888977050781
0, 5, 98, 188.7528533935547
0, 5, 99, 193.5508117675781
0, 5, 100, 185.5233154296875
0, 5, 101, 195.3805236816406
0, 5, 102, 182.4809722900391
0, 5, 103, 175.9705505371094
0, 5, 104, 190.1066436767578
0, 5, 105, 189.9252777099609
0, 5, 106, 177.3661041259766
0, 5, 107, 181.0732574462891
0, 5, 108, 176.9594879150391
0, 5, 109, 90.53591918945312
0, 5, 110, 30.45544815063477
0, 5, 111, 8.919670104980469
0, 5, 112, 6.926557540893555
0, 5, 113, 8.581876754760742
0, 5, 114, 6.754867553710938
0, 5, 115, 5.956135272979736
0, 5, 116, 4.131105422973633
0, 5, 117, 2.597660064697266
0, 5, 118, 3.389939308166504
0, 5, 119, 3.41100549697876
0, 5, 120, 1.471655368804932
0, 5, 121, 3.022494792938232
0, 5, 122, 3.046918392181396
0, 5, 123, 5.167378902435303
0, 5, 124, 2.608073472976685
0, 5, 125, 0.8496010303497314
0, 5, 126, 0.804136335849762
0, 5, 127, 2.827085018157959
0, 6, 0, 4.330062866210938
0, 6, 1, 3.035974979400635
0, 6, 2, 4.592659950256348
0, 6, 3, 1.22760546207428
0, 6, 4, 3.51801323890686
0, 6, 5, 4.390559196472168
0, 6, 6, 2.533359289169312
0, 6, 7, 3.782697200775146
0, 6, 8, 5.676593780517578
0, 6, 9, 2.576353549957275
0, 6, 10, 4.246317863464355
0, 6, 11, 5.810954570770264
0, 6, 12, 4.59466552734375
0, 6, 13, 5.679460525512695
0, 6, 14, 5.564690113067627
0, 6, 15, 6.858538627624512
0, 6, 16, 12.90493679046631
0, 6, 17, 28.08107948303223
0, 6, 18, 112.0168151855469
0, 6, 19, 191.0359954833984
0, 6, 20, 196.8251190185547
0, 6, 21, 197.9209289550781
0, 6, 22, 189.8123474121094
0, 6, 23, 190.2463989257812
0, 6, 24, 200.7486419677734
0, 6, 25, 181.4923248291016
0, 6, 26, 186.4578399658203
0, 6, 27, 192.6127777099609
0, 6, 28, 189.1850433349609
0, 6, 29, 211.6813812255859
0, 6, 30, 189.2999420166016
0, 6, 31, 193.3262176513672
0, 6, 32, 205.4560699462891
0, 6, 33, 183.7335357666016
0, 6, 34, 196.7698669433594
0, 6, 35, 189.2630767822266
0, 6, 36, 179.9446716308594
0, 6, 37, 183.4185028076172
0, 6, 38, 185.5653228759766
0, 6, 39, 195.4061584472656
0, 6, 40, 173.6184692382812
0, 6, 41, 185.1751556396484
0, 6, 42, 173.7698211669922
0, 6, 43, 208.3328704833984
0, 6, 44, 209.2991180419922
0, 6, 45, 193.5848846435547
0, 6, 46, 187.788818359375
0, 6, 47, 205.990234375
0, 6, 48, 187.839111328125
0, 6, 49, 179.8031463623047
0, 6, 50, 182.8409576416016
0, 6, 51, 195.998046875
0, 6, 52, 197.1492614746094
0, 6, 53, 185.8157958984375
0, 6, 54, 176.4048309326172
0, 6, 55, 194.8583984375
0, 6, 56, 204.2016754150391
0, 6, 57, 190.3693084716797
0, 6, 58, 178.7850952148438
0, 6, 59, 192.1548156738281
0, 6, 60, 185.2033081054688
0, 6, 61, 194.1756591796875
0, 6, 62, 196.4281616210938
0, 6, 63, 186.5588989257812
0, 6, 64, 168.5004730224609
0, 6, 65, 186.256103515625
0, 6, 66, 200.9543609619141
0, 6, 67, 214.8347320556641
0, 6, 68, 182.6148071289062
0, 6, 69, 171.8027648925781
0, 6, 70, 187.2382202148438
0, 6, 71, 170.3558349609375
0, 6, 72, 176.2134552001953
0, 6, 73, 177.0635833740234
0, 6, 74, 210.5242919921875
0, 6, 75, 227.0187835693359
0, 6, 76, 183.7083892822266
0, 6, 77, 173.3983612060547
0, 6, 78, 175.4248809814453
0, 6, 79, 185.4887237548828
0, 6, 80, 187.6937255859375
0, 6, 81, 210.8851928710938
0, 6, 82, 195.4120483398438
0, 6, 83, 195.810546875
0, 6, 84, 197.4001159667969
0, 6, 85, 180.6056060791016
0, 6, 86, 202.0626831054688
0, 6, 87, 183.9382019042969
0, 6, 88, 192.0933837890625
0, 6, 89, 188.7712249755859
0, 6, 90, 205.2488250732422
0, 6, 91, 199.5280609130859
0, 6, 92, 172.8597106933594
0, 6, 93, 191.9745330810547
0, 6, 94, 189.2823638916016
0, 6, 95, 185.6708831787109
0, 6, 96, 190.2242584228516
0, 6, 97, 195.6131744384766
0, 6, 98, 183.335205078125
0, 6, 99, 175.0614166259766
0, 6, 100, 202.732177734375
0, 6, 101, 168.2294769287109
0, 6, 102, 201.8896789550781
0, 6, 103, 196.1336975097656
0, 6, 104, 183.8244476318359
0, 6, 105, 193.7318725585938
0, 6, 106, 176.8495635986328
0, 6, 107, 195.6750030517578
0, 6, 108, 171.7517852783203
0, 6, 109, 114.5980606079102
0, 6, 110, 36.67800140380859
0, 6, 111, 9.585790634155273
0, 6, 112, 8.39260196685791
0, 6, 113, 5.727745532989502
0, 6, 114, 4.542020797729492
0, 6, 115, 3.571488857269287
0, 6, 116, 4.017480850219727
0, 6, 117, 2.744503259658813
0, 6, 118, 3.605369329452515
0, 6, 119, 4.298881053924561
0, 6, 120, 2.825843572616577
0, 6, 121, 4.022299289703369
0, 6, 122, 6.244161605834961
0, 6, 123, 3.427191257476807
0, 6, 124, 1.848459601402283
0, 6, 125, 2.874052047729492
0, 6, 126, 2.623157501220703
0, 6, 127, 2.960785388946533
0, 7, 0, 2.821382522583008
0, 7, 1, 1.653521418571472
0, 7, 2, 1.547160506248474
0, 7, 3, 2.73291277885437
0, 7, 4, 0.7627700567245483
0, 7, 5, 1.088945746421814
0, 7, 6, 2.215852022171021
0, 7, 7, 1.938879251480103
0, 7, 8, 3.35648250579834
0, 7, 9, 3.011255502700806
0, 7, 10, 5.262985706329346
0, 7, 11, 3.002476453781128
0, 7, 12, 3.323556900024414
0, 7, 13, 6.143221378326416
0, 7, 14, 7.505041599273682
0, 7, 15, 7.836885452270508
0, 7, 16, 17.1406192779541
0, 7, 17, 51.02322006225586
0, 7, 18, 161.4939727783203
0, 7, 19, 182.4657440185547
0, 7, 20, 182.2187347412109
0, 7, 21, 180.0492706298828
0, 7, 22, 190.612060546875
0, 7, 23, 203.2324066162109
0, 7, 24, 180.4818267822266
0, 7, 25, 213.2581939697266
0, 7, 26, 190.2966766357422
0, 7, 27, 181.8336029052734
0, 7, 28, 183.3535919189453
0, 7, 29, 209.1067657470703
0, 7, 30, 193.3052368164062
0, 7, 31, 176.10986328125
0, 7, 32, 190.3850708007812
0, 7, 33, 180.1042327880859
0, 7, 34, 196.0103607177734
0, 7, 35, 197.0804290771484
0, 7, 36, 186.0764923095703
0, 7, 37, 213.1024780273438
0, 7, 38, 190.8655395507812
0, 7, 39, 174.1166687011719
0, 7, 40, 183.8021392822266
0, 7, 41, 185.0454864501953
0, 7, 42, 179.0304412841797
0, 7, 43, 176.3243255615234
0, 7, 44, 179.3556213378906
0, 7, 45, 176.1143798828125
0, 7, 46, 189.5662078857422
0, 7, 47, 200.8740997314453
0, 7, 48, 186.748779296875
0, 7, 49, 199.5833129882812
0, 7, 50, 187.8730926513672
0, 7, 51, 204.8283386230469
0, 7, 52, 204.1246795654297
0, 7, 53, 190.9974517822266
0, 7, 54, 195.0072479248047
0, 7, 55, 203.8142242431641
0, 7, 56, 183.2244262695312
0, 7, 57, 182.8416442871094
0, 7, 58, 193.7541961669922
0, 7, 59, 186.604736328125
0, 7, 60, 203.1172485351562
0, 7, 61, 170.6688842773438
0, 7, 62, 202.6490325927734
0, 7, 63, 189.5747222900391
0, 7, 64, 199.4855804443359
0, 7, 65, 196.4381866455078
0, 7, 66, 206.6826171875
0, 7, 67, 220.1404266357422
0, 7, 68, 162.7315216064453
0, 7, 69, 194.5114898681641
0, 7, 70, 218.4188232421875
0, 7, 71, 184.3518676757812
0, 7, 72, 180.2166595458984
0, 7, 73, 176.4897308349609
0, 7, 74, 208.2162017822266
0, 7, 75, 203.9965972900391
0, 7, 76, 214.7890930175781
0, 7, 77, 173.5792236328125
0, 7, 78, 177.6945343017578
0, 7, 79, 193.1780548095703
0, 7, 80, 197.3035583496094
0, 7, 81, 214.7164764404297
0, 7, 82, 184.8231811523438
0, 7, 83, 206.0792236328125
0, 7, 84, 192.3507232666016
0, 7, 85, 186.6030120849609
0, 7, 86, 200.8582153320312
0, 7, 87, 229.3453216552734
0, 7, 88, 195.2602691650391
0, 7, 89, 177.3072052001953
0, 7, 90, 182.0951232910156
0, 7, 91, 194.6956329345703
0, 7, 92, 194.9498291015625
0, 7, 93, 198.5622253417969
0, 7, 94, 176.6638336181641
0, 7, 95, 197.9618835449219
0, 7, 96, 210.1845092773438
0, 7, 97, 188.9699859619141
0, 7, 98, 176.634521484375
0, 7, 99, 196.8432922363281
0, 7, 100, 181.7264404296875
0, 7, 101, 199.9034423828125
0, 7, 102, 185.380126953125
0, 7, 103, 182.0190887451172
0, 7, 104, 173.8689117431641
0, 7, 105, 196.0365600585938
0, 7, 106, 205.1564331054688
0, 7, 107, 173.6980895996094
0, 7, 108, 177.6990966796875
0, 7, 109, 138.7581787109375
0, 7, 110, 54.67544555664062
0, 7, 111, 10.17536449432373
0, 7, 112, 7.542777061462402
0, 7, 113, 9.07218074798584
0, 7, 114, 6.370668888092041
0, 7, 115, 4.976292610168457
0, 7, 116, 3.75590705871582
0, 7, 117, 3.676289319992065
0, 7, 118, 5.044591426849365
0, 7, 119, 3.470399141311646
0, 7, 120, 2.390573740005493
0, 7, 121, 4.462897300720215
0, 7, 122, 2.915865182876587
0, 7, 123, 1.672213673591614
0, 7, 124, 1.953817367553711
0, 7, 125, 3.504151344299316
0, 7, 126, 3.073536157608032
0, 7, 127, 0.8614532351493835
0, 8, 0, 4.088776111602783
0, 8, 1, 1.569729924201965
0, 8, 2, 2.981615304946899
0, 8, 3, 2.915631055831909
0, 8, 4, 1.025972485542297
0, 8, 5, 3.031513452529907
0, 8, 6, 3.323844432830811
0, 8, 7, 2.452196598052979
0, 8, 8, 4.288497447967529
0, 8, 9, 6.864011764526367
0, 8, 10, 2.624453067779541
0, 8, 11, 2.893214225769043
0, 8, 12, 3.93496298789978
0, 8, 13, 5.91696310043335
0, 8, 14, 7.477797508239746
0, 8, 15, 9.089996337890625
0, 8, 16, 19.73224639892578
0, 8, 17, 74.07321166992188
0, 8, 18, 142.1759185791016
0, 8, 19, 178.854248046875
0, 8, 20, 192.7805786132812
0, 8, 21, 192.6863250732422
0, 8, 22, 180.7362976074219
0, 8, 23, 172.4667816162109
0, 8, 24, 191.9112243652344
0, 8, 25, 185.3580474853516
0, 8, 26, 193.0655822753906
0, 8, 27, 187.0571441650391
0, 8, 28, 187.8271179199219
0, 8, 29, 207.6943206787109
0, 8, 30, 197.7426452636719
0, 8, 31, 182.3664245605469
0, 8, 32, 199.8441772460938
0, 8, 33, 206.5761413574219
0, 8, 34, 204.7386016845703
0, 8, 35, 184.7431640625
0, 8, 36, 182.7674865722656
0, 8, 37, 199.7115936279297
