# TOPAS Version: 3.1.p3
# Parameter File: batch_inserts_136.txt
# Results for scorer Readout_Adipose
# Scored in component: MyBox
# X in 1 bin  of 0.65 cm
# Y in 512 bins of 0.0783984 cm
# Z in 128 bins of 0.078125 cm
# EnergyDeposit ( MeV ) : Sum   
0, 0, 0, 1.354529976844788
0, 0, 1, 3.616616249084473
0, 0, 2, 0.6568678617477417
0, 0, 3, 0.4666634798049927
0, 0, 4, 1.820232391357422
0, 0, 5, 0.8849957585334778
0, 0, 6, 1.805660486221313
0, 0, 7, 1.967355132102966
0, 0, 8, 1.352464318275452
0, 0, 9, 1.728405356407166
0, 0, 10, 2.205102920532227
0, 0, 11, 3.441305875778198
0, 0, 12, 3.589432716369629
0, 0, 13, 2.847556829452515
0, 0, 14, 5.104186058044434
0, 0, 15, 7.490437030792236
0, 0, 16, 4.193045139312744
0, 0, 17, 6.913792610168457
0, 0, 18, 7.921257972717285
0, 0, 19, 23.83081245422363
0, 0, 20, 94.25934600830078
0, 0, 21, 152.6691284179688
0, 0, 22, 153.6392517089844
0, 0, 23, 143.8920135498047
0, 0, 24, 160.43994140625
0, 0, 25, 166.2381744384766
0, 0, 26, 166.3030090332031
0, 0, 27, 174.6535491943359
0, 0, 28, 178.3365936279297
0, 0, 29, 175.584716796875
0, 0, 30, 172.3152160644531
0, 0, 31, 166.2092437744141
0, 0, 32, 164.53369140625
0, 0, 33, 165.8218994140625
0, 0, 34, 176.3941955566406
0, 0, 35, 173.8668365478516
0, 0, 36, 158.8924713134766
0, 0, 37, 160.8381195068359
0, 0, 38, 167.2276611328125
0, 0, 39, 159.4995574951172
0, 0, 40, 164.7859802246094
0, 0, 41, 166.6044464111328
0, 0, 42, 143.1567230224609
0, 0, 43, 167.4295349121094
0, 0, 44, 177.5352630615234
0, 0, 45, 173.1450653076172
0, 0, 46, 165.4552154541016
0, 0, 47, 167.2282409667969
0, 0, 48, 168.8416290283203
0, 0, 49, 182.5827789306641
0, 0, 50, 168.921142578125
0, 0, 51, 161.6828308105469
0, 0, 52, 162.1573486328125
0, 0, 53, 172.2696685791016
0, 0, 54, 161.1959075927734
0, 0, 55, 164.8688812255859
0, 0, 56, 189.6183013916016
0, 0, 57, 170.6402740478516
0, 0, 58, 161.1611785888672
0, 0, 59, 172.2822265625
0, 0, 60, 169.5765686035156
0, 0, 61, 170.1595611572266
0, 0, 62, 183.8546447753906
0, 0, 63, 167.5995025634766
0, 0, 64, 163.75
0, 0, 65, 174.8472900390625
0, 0, 66, 179.6179809570312
0, 0, 67, 164.5230255126953
0, 0, 68, 158.1697540283203
0, 0, 69, 158.1958312988281
0, 0, 70, 169.0537567138672
0, 0, 71, 158.20751953125
0, 0, 72, 162.4715118408203
0, 0, 73, 171.5652618408203
0, 0, 74, 163.0081787109375
0, 0, 75, 164.2315521240234
0, 0, 76, 163.0000152587891
0, 0, 77, 171.8290405273438
0, 0, 78, 182.2446136474609
0, 0, 79, 174.8463745117188
0, 0, 80, 158.6749877929688
0, 0, 81, 159.3507690429688
0, 0, 82, 183.2754821777344
0, 0, 83, 173.7169799804688
0, 0, 84, 159.7088928222656
0, 0, 85, 181.1263275146484
0, 0, 86, 160.0023651123047
0, 0, 87, 177.0036163330078
0, 0, 88, 177.9120330810547
0, 0, 89, 174.234130859375
0, 0, 90, 161.7147064208984
0, 0, 91, 185.0199432373047
0, 0, 92, 166.6671600341797
0, 0, 93, 156.1041717529297
0, 0, 94, 169.3613891601562
0, 0, 95, 173.9550323486328
0, 0, 96, 183.5752410888672
0, 0, 97, 183.3670501708984
0, 0, 98, 185.7226409912109
0, 0, 99, 172.0470581054688
0, 0, 100, 158.1462097167969
0, 0, 101, 166.3213348388672
0, 0, 102, 170.9907989501953
0, 0, 103, 170.5060729980469
0, 0, 104, 169.7847442626953
0, 0, 105, 178.2884521484375
0, 0, 106, 158.8918304443359
0, 0, 107, 86.43550872802734
0, 0, 108, 20.81088638305664
0, 0, 109, 9.09223461151123
0, 0, 110, 7.25738000869751
0, 0, 111, 7.46987247467041
0, 0, 112, 2.722120761871338
0, 0, 113, 2.472684860229492
0, 0, 114, 1.569063663482666
0, 0, 115, 2.715770959854126
0, 0, 116, 2.968855857849121
0, 0, 117, 3.062168598175049
0, 0, 118, 4.162332534790039
0, 0, 119, 2.702770948410034
0, 0, 120, 1.151736736297607
0, 0, 121, 4.125698089599609
0, 0, 122, 4.354076862335205
0, 0, 123, 3.64763879776001
0, 0, 124, 1.257166862487793
0, 0, 125, 2.560696363449097
0, 0, 126, 0.7129571437835693
0, 0, 127, 1.345827341079712
0, 1, 0, 1.13415801525116
0, 1, 1, 4.150846004486084
0, 1, 2, 3.512943744659424
0, 1, 3, 1.283100962638855
0, 1, 4, 1.729164242744446
0, 1, 5, 1.505285143852234
0, 1, 6, 1.601205110549927
0, 1, 7, 2.174285173416138
0, 1, 8, 1.632765412330627
0, 1, 9, 2.393742799758911
0, 1, 10, 4.970261573791504
0, 1, 11, 3.239967107772827
0, 1, 12, 2.847805023193359
0, 1, 13, 3.284335374832153
0, 1, 14, 5.987289428710938
0, 1, 15, 7.178241729736328
0, 1, 16, 7.423457622528076
0, 1, 17, 5.111849784851074
0, 1, 18, 10.40206336975098
0, 1, 19, 39.90808486938477
0, 1, 20, 126.5164947509766
0, 1, 21, 176.93212890625
0, 1, 22, 192.9451141357422
0, 1, 23, 185.8611145019531
0, 1, 24, 179.5941467285156
0, 1, 25, 190.8694152832031
0, 1, 26, 199.6198272705078
0, 1, 27, 185.7427215576172
0, 1, 28, 187.9185791015625
0, 1, 29, 184.2259216308594
0, 1, 30, 180.0043487548828
0, 1, 31, 182.1897735595703
0, 1, 32, 189.1247253417969
0, 1, 33, 189.8212738037109
0, 1, 34, 184.9812622070312
0, 1, 35, 194.5398864746094
0, 1, 36, 204.8982696533203
0, 1, 37, 185.5767822265625
0, 1, 38, 165.2165374755859
0, 1, 39, 172.3726501464844
0, 1, 40, 178.5704803466797
0, 1, 41, 184.6514739990234
0, 1, 42, 182.0216979980469
0, 1, 43, 186.4839782714844
0, 1, 44, 167.3448944091797
0, 1, 45, 187.2671203613281
0, 1, 46, 170.4277954101562
0, 1, 47, 184.5207672119141
0, 1, 48, 187.5177154541016
0, 1, 49, 185.9679718017578
0, 1, 50, 178.71142578125
0, 1, 51, 190.9285888671875
0, 1, 52, 196.0451202392578
0, 1, 53, 196.2709045410156
0, 1, 54, 185.0002746582031
0, 1, 55, 165.2816314697266
0, 1, 56, 178.7763214111328
0, 1, 57, 178.2011108398438
0, 1, 58, 188.8246307373047
0, 1, 59, 193.9354858398438
0, 1, 60, 187.5032501220703
0, 1, 61, 177.5881195068359
0, 1, 62, 205.3194580078125
0, 1, 63, 173.5361175537109
0, 1, 64, 172.3128051757812
0, 1, 65, 184.9960479736328
0, 1, 66, 204.0824737548828
0, 1, 67, 182.0691223144531
0, 1, 68, 186.6934661865234
0, 1, 69, 188.7197113037109
0, 1, 70, 185.9133911132812
0, 1, 71, 172.0908203125
0, 1, 72, 187.7396392822266
0, 1, 73, 190.7127227783203
0, 1, 74, 201.3852996826172
0, 1, 75, 184.1671905517578
0, 1, 76, 175.1735076904297
0, 1, 77, 191.4917297363281
0, 1, 78, 188.3168334960938
0, 1, 79, 201.4862365722656
0, 1, 80, 184.6912689208984
0, 1, 81, 174.8868865966797
0, 1, 82, 209.7559051513672
0, 1, 83, 211.3506164550781
0, 1, 84, 180.1349487304688
0, 1, 85, 169.5873718261719
0, 1, 86, 167.7813262939453
0, 1, 87, 184.5097808837891
0, 1, 88, 174.7803344726562
0, 1, 89, 188.7936706542969
0, 1, 90, 212.8081970214844
0, 1, 91, 180.7201080322266
0, 1, 92, 184.2589721679688
0, 1, 93, 180.4627075195312
0, 1, 94, 183.8640289306641
0, 1, 95, 183.8427124023438
0, 1, 96, 196.5648498535156
0, 1, 97, 183.05712890625
0, 1, 98, 186.8768157958984
0, 1, 99, 174.99755859375
0, 1, 100, 171.8731384277344
0, 1, 101, 178.0599975585938
0, 1, 102, 182.8108825683594
0, 1, 103, 172.7657165527344
0, 1, 104, 188.4832305908203
0, 1, 105, 180.4555358886719
0, 1, 106, 163.58056640625
0, 1, 107, 123.2000274658203
0, 1, 108, 46.57699203491211
0, 1, 109, 9.179218292236328
0, 1, 110, 6.719942569732666
0, 1, 111, 7.419855117797852
0, 1, 112, 8.883736610412598
0, 1, 113, 7.052216529846191
0, 1, 114, 8.022185325622559
0, 1, 115, 4.031195640563965
0, 1, 116, 2.678302049636841
0, 1, 117, 2.045742750167847
0, 1, 118, 2.846375226974487
0, 1, 119, 1.613810539245605
0, 1, 120, 3.730655193328857
0, 1, 121, 4.981640338897705
0, 1, 122, 1.724975824356079
0, 1, 123, 3.052781581878662
0, 1, 124, 1.450679421424866
0, 1, 125, 2.679797649383545
0, 1, 126, 2.838613510131836
0, 1, 127, 1.411117315292358
0, 2, 0, 1.077585816383362
0, 2, 1, 3.233965635299683
0, 2, 2, 2.836704730987549
0, 2, 3, 1.188639044761658
0, 2, 4, 2.620469093322754
0, 2, 5, 1.389955520629883
0, 2, 6, 2.948417901992798
0, 2, 7, 2.421863794326782
0, 2, 8, 0.9108197093009949
0, 2, 9, 2.225595474243164
0, 2, 10, 6.383681774139404
0, 2, 11, 4.952428340911865
0, 2, 12, 3.619815349578857
0, 2, 13, 4.725738048553467
0, 2, 14, 6.202444553375244
0, 2, 15, 6.116406917572021
0, 2, 16, 5.476406097412109
0, 2, 17, 9.697088241577148
0, 2, 18, 14.58357524871826
0, 2, 19, 76.18338012695312
0, 2, 20, 162.6960601806641
0, 2, 21, 182.7384490966797
0, 2, 22, 194.2997436523438
0, 2, 23, 184.3599548339844
0, 2, 24, 173.3381805419922
0, 2, 25, 183.562255859375
0, 2, 26, 181.5092620849609
0, 2, 27, 189.6736145019531
0, 2, 28, 172.4474639892578
0, 2, 29, 169.7819213867188
0, 2, 30, 184.0956726074219
0, 2, 31, 182.4659881591797
0, 2, 32, 183.4976348876953
0, 2, 33, 189.9120330810547
0, 2, 34, 199.0474090576172
0, 2, 35, 181.4761047363281
0, 2, 36, 185.1527099609375
0, 2, 37, 181.7125854492188
0, 2, 38, 183.7978363037109
0, 2, 39, 166.1719512939453
0, 2, 40, 183.8802642822266
0, 2, 41, 185.1959228515625
0, 2, 42, 189.6627349853516
0, 2, 43, 193.2437744140625
0, 2, 44, 192.0334777832031
0, 2, 45, 190.1243286132812
0, 2, 46, 195.6008605957031
0, 2, 47, 191.6441955566406
0, 2, 48, 179.7080841064453
0, 2, 49, 199.1192169189453
0, 2, 50, 168.0135955810547
0, 2, 51, 187.0541839599609
0, 2, 52, 186.1526794433594
0, 2, 53, 194.6643981933594
0, 2, 54, 175.0679931640625
0, 2, 55, 173.8542633056641
0, 2, 56, 181.4554290771484
0, 2, 57, 199.9048004150391
0, 2, 58, 187.1643981933594
0, 2, 59, 189.3236694335938
0, 2, 60, 197.0992736816406
0, 2, 61, 193.5834808349609
0, 2, 62, 191.4810180664062
0, 2, 63, 169.70751953125
0, 2, 64, 189.1436157226562
0, 2, 65, 202.3624267578125
0, 2, 66, 195.5472106933594
0, 2, 67, 186.7157897949219
0, 2, 68, 182.612548828125
0, 2, 69, 187.4774932861328
0, 2, 70, 202.7898559570312
0, 2, 71, 175.8381042480469
0, 2, 72, 187.7951965332031
0, 2, 73, 177.5730438232422
0, 2, 74, 180.7672882080078
0, 2, 75, 196.9259185791016
0, 2, 76, 183.6437530517578
0, 2, 77, 177.4162750244141
0, 2, 78, 197.4218902587891
0, 2, 79, 177.3803863525391
0, 2, 80, 187.4114074707031
0, 2, 81, 186.6511993408203
0, 2, 82, 205.8848266601562
0, 2, 83, 204.5866851806641
0, 2, 84, 189.1083984375
0, 2, 85, 170.655517578125
0, 2, 86, 194.9732818603516
0, 2, 87, 171.7165985107422
0, 2, 88, 177.0474243164062
0, 2, 89, 186.6690979003906
0, 2, 90, 177.6861877441406
0, 2, 91, 173.6142883300781
0, 2, 92, 196.5578765869141
0, 2, 93, 193.3978118896484
0, 2, 94, 201.3568725585938
0, 2, 95, 192.3587951660156
0, 2, 96, 186.3505706787109
0, 2, 97, 172.40283203125
0, 2, 98, 173.8346557617188
0, 2, 99, 163.4675750732422
0, 2, 100, 189.5102233886719
0, 2, 101, 197.6558685302734
0, 2, 102, 176.8768005371094
0, 2, 103, 199.4146270751953
0, 2, 104, 187.9777679443359
0, 2, 105, 200.8850402832031
0, 2, 106, 194.5956573486328
0, 2, 107, 149.9882507324219
0, 2, 108, 79.08338165283203
0, 2, 109, 19.13022994995117
0, 2, 110, 7.63337516784668
0, 2, 111, 6.300202369689941
0, 2, 112, 3.191406488418579
0, 2, 113, 5.114663600921631
0, 2, 114, 7.373788833618164
0, 2, 115, 4.311448574066162
0, 2, 116, 3.497977018356323
0, 2, 117, 1.893362045288086
0, 2, 118, 2.999202728271484
0, 2, 119, 4.082598686218262
0, 2, 120, 1.340879082679749
0, 2, 121, 5.553226470947266
0, 2, 122, 4.428497314453125
0, 2, 123, 1.965272307395935
0, 2, 124, 2.149209976196289
0, 2, 125, 1.669722199440002
0, 2, 126, 3.853736400604248
0, 2, 127, 1.027618765830994
0, 3, 0, 1.800899505615234
0, 3, 1, 3.004014730453491
0, 3, 2, 2.47581934928894
0, 3, 3, 0.8538700342178345
0, 3, 4, 4.342077255249023
0, 3, 5, 2.513489484786987
0, 3, 6, 2.197778224945068
0, 3, 7, 1.181023478507996
0, 3, 8, 1.320443630218506
0, 3, 9, 2.513325929641724
0, 3, 10, 2.554183006286621
0, 3, 11, 4.458041667938232
0, 3, 12, 3.642441749572754
0, 3, 13, 3.906038999557495
0, 3, 14, 5.045272827148438
0, 3, 15, 6.398096561431885
0, 3, 16, 6.952285289764404
0, 3, 17, 5.722440242767334
0, 3, 18, 33.75848388671875
0, 3, 19, 114.5411224365234
0, 3, 20, 179.7032775878906
0, 3, 21, 172.5208129882812
0, 3, 22, 178.04638671875
0, 3, 23, 188.312255859375
0, 3, 24, 177.4935760498047
0, 3, 25, 169.6049041748047
0, 3, 26, 182.6469268798828
0, 3, 27, 190.1220092773438
0, 3, 28, 182.5558471679688
0, 3, 29, 197.251708984375
0, 3, 30, 186.1273498535156
0, 3, 31, 193.9547119140625
0, 3, 32, 205.7451782226562
0, 3, 33, 194.7117462158203
0, 3, 34, 188.1173400878906
0, 3, 35, 175.0895233154297
0, 3, 36, 186.9848785400391
0, 3, 37, 200.3490753173828
0, 3, 38, 191.60546875
0, 3, 39, 184.1273803710938
0, 3, 40, 165.8248443603516
0, 3, 41, 175.7579040527344
0, 3, 42, 185.4031982421875
0, 3, 43, 183.3256683349609
0, 3, 44, 203.3732757568359
0, 3, 45, 207.8494720458984
0, 3, 46, 199.2899932861328
0, 3, 47, 195.4667358398438
0, 3, 48, 195.6954040527344
0, 3, 49, 180.5612640380859
0, 3, 50, 186.6802673339844
0, 3, 51, 174.8338623046875
0, 3, 52, 187.8394927978516
0, 3, 53, 177.0803985595703
0, 3, 54, 179.2841491699219
0, 3, 55, 176.5508117675781
0, 3, 56, 182.1293792724609
0, 3, 57, 176.9305572509766
0, 3, 58, 201.3260040283203
0, 3, 59, 195.6078643798828
0, 3, 60, 187.1084594726562
0, 3, 61, 180.9815979003906
0, 3, 62, 181.8347625732422
0, 3, 63, 184.3774261474609
0, 3, 64, 188.5004119873047
0, 3, 65, 187.5888366699219
0, 3, 66, 175.2754364013672
0, 3, 67, 190.3204345703125
0, 3, 68, 211.4851684570312
0, 3, 69, 189.2542724609375
0, 3, 70, 185.4435882568359
0, 3, 71, 196.5263519287109
0, 3, 72, 185.6857299804688
0, 3, 73, 186.2885437011719
0, 3, 74, 192.1972808837891
0, 3, 75, 193.8964538574219
0, 3, 76, 191.0187683105469
0, 3, 77, 198.4752197265625
0, 3, 78, 188.1012420654297
0, 3, 79, 185.94677734375
0, 3, 80, 189.8448638916016
0, 3, 81, 183.6205444335938
0, 3, 82, 178.5905456542969
0, 3, 83, 194.1477813720703
0, 3, 84, 198.9516296386719
0, 3, 85, 192.2083282470703
0, 3, 86, 203.5620880126953
0, 3, 87, 197.2311248779297
0, 3, 88, 191.2032775878906
0, 3, 89, 192.9046325683594
0, 3, 90, 173.1558685302734
0, 3, 91, 157.2828979492188
0, 3, 92, 206.4477691650391
0, 3, 93, 195.5802307128906
0, 3, 94, 192.2080230712891
0, 3, 95, 212.0013732910156
0, 3, 96, 208.4629211425781
0, 3, 97, 168.8562622070312
0, 3, 98, 167.5577392578125
0, 3, 99, 181.3053894042969
0, 3, 100, 177.995849609375
0, 3, 101, 197.5431976318359
0, 3, 102, 195.885009765625
0, 3, 103, 193.2160797119141
0, 3, 104, 203.1039123535156
0, 3, 105, 176.6363983154297
0, 3, 106, 181.7653961181641
0, 3, 107, 170.4793090820312
0, 3, 108, 107.9078521728516
0, 3, 109, 27.27065467834473
0, 3, 110, 8.529911994934082
0, 3, 111, 6.410922050476074
0, 3, 112, 2.919587850570679
0, 3, 113, 7.364004135131836
0, 3, 114, 4.385858535766602
0, 3, 115, 6.166912078857422
0, 3, 116, 4.805497169494629
0, 3, 117, 4.217408657073975
0, 3, 118, 3.472295999526978
0, 3, 119, 2.848060131072998
0, 3, 120, 2.876586675643921
0, 3, 121, 1.850465416908264
0, 3, 122, 2.628634214401245
0, 3, 123, 1.033650398254395
0, 3, 124, 2.150620222091675
0, 3, 125, 1.195273280143738
0, 3, 126, 3.720567464828491
0, 3, 127, 2.258871078491211
0, 4, 0, 1.646905422210693
0, 4, 1, 1.143771171569824
0, 4, 2, 4.00624942779541
0, 4, 3, 4.04702615737915
0, 4, 4, 1.397363305091858
0, 4, 5, 1.041592121124268
0, 4, 6, 2.569923162460327
0, 4, 7, 1.802136898040771
0, 4, 8, 1.914183735847473
0, 4, 9, 5.06016731262207
0, 4, 10, 4.012051105499268
0, 4, 11, 3.739541292190552
0, 4, 12, 3.143855094909668
0, 4, 13, 4.458056926727295
0, 4, 14, 4.012707233428955
0, 4, 15, 8.14741325378418
0, 4, 16, 5.971758365631104
0, 4, 17, 13.61223983764648
0, 4, 18, 53.45693969726562
0, 4, 19, 150.7649688720703
0, 4, 20, 193.2462921142578
0, 4, 21, 169.7136383056641
0, 4, 22, 186.9300231933594
0, 4, 23, 195.657470703125
0, 4, 24, 192.4938812255859
0, 4, 25, 201.8982849121094
0, 4, 26, 185.8879089355469
0, 4, 27, 190.9259643554688
0, 4, 28, 178.4275817871094
0, 4, 29, 205.6985473632812
0, 4, 30, 194.9586486816406
0, 4, 31, 192.6571807861328
0, 4, 32, 209.1587219238281
0, 4, 33, 189.3629302978516
0, 4, 34, 192.6905059814453
0, 4, 35, 211.8774719238281
0, 4, 36, 193.1819915771484
0, 4, 37, 177.740234375
0, 4, 38, 194.5009307861328
0, 4, 39, 189.8874359130859
0, 4, 40, 185.47705078125
0, 4, 41, 189.320068359375
0, 4, 42, 207.5620269775391
0, 4, 43, 174.1236877441406
0, 4, 44, 183.5753631591797
0, 4, 45, 195.5524749755859
0, 4, 46, 186.3981018066406
0, 4, 47, 179.3848266601562
0, 4, 48, 185.2411346435547
0, 4, 49, 174.3554992675781
0, 4, 50, 186.3197784423828
0, 4, 51, 197.8332214355469
0, 4, 52, 222.9105834960938
0, 4, 53, 205.85498046875
0, 4, 54, 189.7121887207031
0, 4, 55, 174.657958984375
0, 4, 56, 191.4210052490234
0, 4, 57, 191.2007293701172
0, 4, 58, 187.6442108154297
0, 4, 59, 189.3522186279297
0, 4, 60, 195.5872802734375
0, 4, 61, 193.1247100830078
0, 4, 62, 190.7565612792969
0, 4, 63, 180.2783203125
0, 4, 64, 212.0584106445312
0, 4, 65, 190.6046447753906
0, 4, 66, 200.4833526611328
0, 4, 67, 199.7607574462891
0, 4, 68, 201.0880889892578
0, 4, 69, 198.6644134521484
0, 4, 70, 206.873291015625
0, 4, 71, 206.2250213623047
0, 4, 72, 215.4172515869141
0, 4, 73, 187.4166412353516
0, 4, 74, 181.3451080322266
0, 4, 75, 184.1217193603516
0, 4, 76, 191.0633697509766
0, 4, 77, 182.5500946044922
0, 4, 78, 194.8329772949219
0, 4, 79, 204.6554260253906
0, 4, 80, 211.4270172119141
0, 4, 81, 199.7567749023438
0, 4, 82, 180.5351715087891
0, 4, 83, 169.9327545166016
0, 4, 84, 192.6285552978516
0, 4, 85, 195.9478149414062
0, 4, 86, 180.5520782470703
0, 4, 87, 183.8108215332031
0, 4, 88, 203.8717956542969
0, 4, 89, 187.3611907958984
0, 4, 90, 212.2974700927734
0, 4, 91, 189.3162536621094
0, 4, 92, 196.4850158691406
0, 4, 93, 196.1035766601562
0, 4, 94, 183.5052337646484
0, 4, 95, 173.8436431884766
0, 4, 96, 189.4676513671875
0, 4, 97, 193.1242828369141
0, 4, 98, 201.9734954833984
0, 4, 99, 182.9598693847656
0, 4, 100, 182.8099517822266
0, 4, 101, 176.6806945800781
0, 4, 102, 172.0861358642578
0, 4, 103, 185.0624694824219
0, 4, 104, 208.9741516113281
0, 4, 105, 190.6604156494141
0, 4, 106, 178.9802856445312
0, 4, 107, 181.4626770019531
0, 4, 108, 152.7268829345703
0, 4, 109, 50.85565948486328
0, 4, 110, 11.26720142364502
0, 4, 111, 8.640132904052734
0, 4, 112, 6.201935768127441
0, 4, 113, 5.323714733123779
0, 4, 114, 6.148936748504639
0, 4, 115, 4.304792881011963
0, 4, 116, 4.157097339630127
0, 4, 117, 2.978440999984741
0, 4, 118, 3.487175226211548
0, 4, 119, 3.844320297241211
0, 4, 120, 3.3504638671875
0, 4, 121, 3.641221523284912
0, 4, 122, 1.756684303283691
0, 4, 123, 1.58117401599884
0, 4, 124, 3.708529710769653
0, 4, 125, 2.620925664901733
0, 4, 126, 1.542702913284302
0, 4, 127, 2.309552192687988
0, 5, 0, 1.419643759727478
0, 5, 1, 3.715472936630249
0, 5, 2, 5.725494384765625
0, 5, 3, 3.910490751266479
0, 5, 4, 2.66062068939209
0, 5, 5, 3.352332353591919
0, 5, 6, 2.209499597549438
0, 5, 7, 2.612578630447388
0, 5, 8, 1.747885227203369
0, 5, 9, 2.789969205856323
0, 5, 10, 4.414968967437744
0, 5, 11, 5.254489898681641
0, 5, 12, 4.177329540252686
0, 5, 13, 3.180487871170044
0, 5, 14, 4.611846446990967
0, 5, 15, 8.747138977050781
0, 5, 16, 7.854452610015869
0, 5, 17, 20.90262222290039
0, 5, 18, 86.08147430419922
0, 5, 19, 163.8487396240234
0, 5, 20, 183.8890838623047
0, 5, 21, 180.9210510253906
0, 5, 22, 171.4680023193359
0, 5, 23, 201.131103515625
0, 5, 24, 188.4259796142578
0, 5, 25, 210.6060028076172
0, 5, 26, 183.1795959472656
0, 5, 27, 193.2518463134766
0, 5, 28, 188.7640228271484
0, 5, 29, 195.7805023193359
0, 5, 30, 177.4102172851562
0, 5, 31, 180.5920257568359
0, 5, 32, 186.7723083496094
0, 5, 33, 168.4022827148438
0, 5, 34, 195.2984771728516
0, 5, 35, 197.2781677246094
0, 5, 36, 167.7334899902344
0, 5, 37, 196.9906921386719
0, 5, 38, 180.8147430419922
0, 5, 39, 186.6848602294922
0, 5, 40, 196.6545867919922
0, 5, 41, 176.6277465820312
0, 5, 42, 188.1025695800781
0, 5, 43, 193.0219573974609
0, 5, 44, 199.5465393066406
0, 5, 45, 185.8878173828125
0, 5, 46, 192.7428894042969
0, 5, 47, 179.8735656738281
0, 5, 48, 177.7563171386719
0, 5, 49, 179.0624084472656
0, 5, 50, 186.063720703125
0, 5, 51, 173.1130218505859
0, 5, 52, 168.1446685791016
0, 5, 53, 181.1580352783203
0, 5, 54, 172.0782318115234
0, 5, 55, 214.8210754394531
0, 5, 56, 181.5435028076172
0, 5, 57, 207.1822662353516
0, 5, 58, 180.5473785400391
0, 5, 59, 180.6527557373047
0, 5, 60, 218.4807281494141
0, 5, 61, 184.3659973144531
0, 5, 62, 178.1175842285156
0, 5, 63, 180.5919036865234
0, 5, 64, 195.6290130615234
0, 5, 65, 209.7504730224609
0, 5, 66, 191.8961334228516
0, 5, 67, 198.4458923339844
0, 5, 68, 186.9970703125
0, 5, 69, 186.1888732910156
0, 5, 70, 185.2131805419922
0, 5, 71, 193.7911224365234
0, 5, 72, 197.2380981445312
0, 5, 73, 201.8311767578125
0, 5, 74, 179.4427185058594
0, 5, 75, 203.4838562011719
0, 5, 76, 216.5289916992188
0, 5, 77, 181.1012115478516
0, 5, 78, 195.2293395996094
0, 5, 79, 190.5888977050781
0, 5, 80, 199.4730529785156
0, 5, 81, 202.8934936523438
0, 5, 82, 201.6417388916016
0, 5, 83, 187.7145843505859
0, 5, 84, 204.8748931884766
0, 5, 85, 176.5649566650391
0, 5, 86, 195.9507446289062
0, 5, 87, 188.8857116699219
0, 5, 88, 177.1839599609375
0, 5, 89, 194.6023559570312
0, 5, 90, 198.5644989013672
0, 5, 91, 193.9886932373047
0, 5, 92, 190.3117980957031
0, 5, 93, 193.2030029296875
0, 5, 94, 208.2797393798828
0, 5, 95, 177.6312866210938
0, 5, 96, 182.3791656494141
0, 5, 97, 192.3312072753906
0, 5, 98, 188.5928192138672
0, 5, 99, 195.7195587158203
0, 5, 100, 185.0327301025391
0, 5, 101, 195.5680694580078
0, 5, 102, 181.5090179443359
0, 5, 103, 176.5683898925781
0, 5, 104, 190.3696746826172
0, 5, 105, 190.1860198974609
0, 5, 106, 177.2551574707031
0, 5, 107, 181.2005004882812
0, 5, 108, 174.9859924316406
0, 5, 109, 89.88777923583984
0, 5, 110, 29.92481994628906
0, 5, 111, 8.861017227172852
0, 5, 112, 6.461909770965576
0, 5, 113, 7.498357772827148
0, 5, 114, 6.689788341522217
0, 5, 115, 6.94667911529541
0, 5, 116, 3.928863525390625
0, 5, 117, 2.198042154312134
0, 5, 118, 2.97864294052124
0, 5, 119, 3.908446788787842
0, 5, 120, 1.647478222846985
0, 5, 121, 1.091028690338135
0, 5, 122, 5.088229179382324
0, 5, 123, 3.438587665557861
0, 5, 124, 3.647603750228882
0, 5, 125, 2.371532678604126
0, 5, 126, 2.16243577003479
0, 5, 127, 2.172973871231079
0, 6, 0, 5.213789463043213
0, 6, 1, 3.069950819015503
0, 6, 2, 3.118237495422363
0, 6, 3, 2.728878498077393
0, 6, 4, 4.186592102050781
0, 6, 5, 2.071768999099731
0, 6, 6, 2.9813232421875
0, 6, 7, 4.028631210327148
0, 6, 8, 5.099115371704102
0, 6, 9, 2.659825801849365
0, 6, 10, 5.30073070526123
0, 6, 11, 3.892103672027588
0, 6, 12, 6.286585330963135
0, 6, 13, 5.783519744873047
0, 6, 14, 4.604763507843018
0, 6, 15, 6.574568748474121
0, 6, 16, 13.92948246002197
0, 6, 17, 28.53217697143555
0, 6, 18, 112.6319961547852
0, 6, 19, 191.2190704345703
0, 6, 20, 194.2758483886719
0, 6, 21, 199.2633819580078
0, 6, 22, 190.8641052246094
0, 6, 23, 190.6086578369141
0, 6, 24, 200.8972778320312
0, 6, 25, 181.1937561035156
0, 6, 26, 186.872314453125
0, 6, 27, 192.2623291015625
0, 6, 28, 190.2627410888672
0, 6, 29, 210.7162170410156
0, 6, 30, 189.9097442626953
0, 6, 31, 192.6729125976562
0, 6, 32, 208.6283264160156
0, 6, 33, 184.80224609375
0, 6, 34, 196.9049682617188
0, 6, 35, 187.3735961914062
0, 6, 36, 180.2564239501953
0, 6, 37, 183.4209136962891
0, 6, 38, 186.3925170898438
0, 6, 39, 194.9332275390625
0, 6, 40, 173.6967010498047
0, 6, 41, 184.7509155273438
0, 6, 42, 175.0392761230469
0, 6, 43, 209.2626495361328
0, 6, 44, 208.7830047607422
0, 6, 45, 193.1402587890625
0, 6, 46, 188.0282287597656
0, 6, 47, 206.1636047363281
0, 6, 48, 188.776611328125
0, 6, 49, 180.1978759765625
0, 6, 50, 182.5320739746094
0, 6, 51, 196.7337036132812
0, 6, 52, 199.4970703125
0, 6, 53, 185.2183990478516
0, 6, 54, 176.3957061767578
0, 6, 55, 195.5965728759766
0, 6, 56, 202.2450866699219
0, 6, 57, 190.6835327148438
0, 6, 58, 178.3715362548828
0, 6, 59, 191.8659820556641
0, 6, 60, 184.5569610595703
0, 6, 61, 194.1732025146484
0, 6, 62, 196.3112487792969
0, 6, 63, 185.947021484375
0, 6, 64, 170.7450561523438
0, 6, 65, 187.5171966552734
0, 6, 66, 197.6358795166016
0, 6, 67, 213.3880615234375
0, 6, 68, 180.5170288085938
0, 6, 69, 170.9144897460938
0, 6, 70, 187.1141967773438
0, 6, 71, 169.9499206542969
0, 6, 72, 175.6983489990234
0, 6, 73, 177.5134124755859
0, 6, 74, 211.1921997070312
0, 6, 75, 228.2877960205078
0, 6, 76, 183.8861846923828
0, 6, 77, 171.6859283447266
0, 6, 78, 174.9662170410156
0, 6, 79, 186.6136169433594
0, 6, 80, 188.1634674072266
0, 6, 81, 210.1216888427734
0, 6, 82, 197.7734985351562
0, 6, 83, 195.1903991699219
0, 6, 84, 197.1312103271484
0, 6, 85, 181.3011932373047
0, 6, 86, 203.2977600097656
0, 6, 87, 183.9020538330078
0, 6, 88, 192.3592681884766
0, 6, 89, 188.9939422607422
0, 6, 90, 205.4240875244141
0, 6, 91, 199.4748840332031
0, 6, 92, 173.2375640869141
0, 6, 93, 193.8056182861328
0, 6, 94, 189.8498840332031
0, 6, 95, 184.9508209228516
0, 6, 96, 189.1205749511719
0, 6, 97, 193.3232116699219
0, 6, 98, 182.5076751708984
0, 6, 99, 174.6681976318359
0, 6, 100, 201.7670440673828
0, 6, 101, 168.3249206542969
0, 6, 102, 202.5108642578125
0, 6, 103, 196.3644409179688
0, 6, 104, 183.6953430175781
0, 6, 105, 193.5500793457031
0, 6, 106, 177.1669769287109
0, 6, 107, 195.7767181396484
0, 6, 108, 171.5731964111328
0, 6, 109, 114.9260559082031
0, 6, 110, 33.73929977416992
0, 6, 111, 10.68588352203369
0, 6, 112, 8.356508255004883
0, 6, 113, 5.000886917114258
0, 6, 114, 5.702776908874512
0, 6, 115, 3.686888694763184
0, 6, 116, 5.480084896087646
0, 6, 117, 3.818838596343994
0, 6, 118, 3.541668176651001
0, 6, 119, 5.390368938446045
0, 6, 120, 2.70478367805481
0, 6, 121, 4.185465812683105
0, 6, 122, 3.308265447616577
0, 6, 123, 2.815929651260376
0, 6, 124, 2.094376087188721
0, 6, 125, 2.360730409622192
0, 6, 126, 1.69975757598877
0, 6, 127, 2.147799730300903
0, 7, 0, 3.272664546966553
0, 7, 1, 2.719544172286987
0, 7, 2, 1.616080164909363
0, 7, 3, 2.34725284576416
0, 7, 4, 0.6648995280265808
0, 7, 5, 1.176148653030396
0, 7, 6, 1.724178791046143
0, 7, 7, 2.223904371261597
0, 7, 8, 3.360322713851929
0, 7, 9, 3.535388469696045
0, 7, 10, 5.951071739196777
0, 7, 11, 3.790476560592651
0, 7, 12, 3.744355440139771
0, 7, 13, 6.205051422119141
0, 7, 14, 6.509186744689941
0, 7, 15, 9.239288330078125
0, 7, 16, 15.20747375488281
0, 7, 17, 49.95048904418945
0, 7, 18, 162.0343322753906
0, 7, 19, 182.0846862792969
0, 7, 20, 178.5001068115234
0, 7, 21, 180.2256469726562
0, 7, 22, 190.8007965087891
0, 7, 23, 203.3063507080078
0, 7, 24, 179.3092498779297
0, 7, 25, 211.6769714355469
0, 7, 26, 190.0370330810547
0, 7, 27, 181.7620086669922
0, 7, 28, 182.6913299560547
0, 7, 29, 208.8013610839844
0, 7, 30, 192.8716430664062
0, 7, 31, 175.7888336181641
0, 7, 32, 190.5661773681641
0, 7, 33, 181.6837310791016
0, 7, 34, 193.0852355957031
0, 7, 35, 197.8257598876953
0, 7, 36, 186.9553680419922
0, 7, 37, 212.295654296875
0, 7, 38, 191.4395904541016
0, 7, 39, 174.492919921875
0, 7, 40, 182.7945861816406
0, 7, 41, 185.7209167480469
0, 7, 42, 179.0225677490234
0, 7, 43, 177.1503601074219
0, 7, 44, 179.2245025634766
0, 7, 45, 175.2108612060547
0, 7, 46, 189.7341461181641
0, 7, 47, 198.2862701416016
0, 7, 48, 184.8609771728516
0, 7, 49, 199.0505523681641
0, 7, 50, 188.1372833251953
0, 7, 51, 205.7386016845703
0, 7, 52, 204.0264587402344
0, 7, 53, 191.2246398925781
0, 7, 54, 194.3471221923828
0, 7, 55, 203.2685394287109
0, 7, 56, 183.6357879638672
0, 7, 57, 184.0337524414062
0, 7, 58, 193.7180938720703
0, 7, 59, 186.4935455322266
0, 7, 60, 201.9293212890625
0, 7, 61, 171.6508483886719
0, 7, 62, 202.8514556884766
0, 7, 63, 190.8296203613281
0, 7, 64, 198.7958984375
0, 7, 65, 196.6893005371094
0, 7, 66, 205.1983032226562
0, 7, 67, 222.1689453125
0, 7, 68, 163.5160217285156
0, 7, 69, 196.0179138183594
0, 7, 70, 220.1876373291016
0, 7, 71, 184.1822509765625
0, 7, 72, 181.1743011474609
0, 7, 73, 177.0395202636719
0, 7, 74, 208.3813323974609
0, 7, 75, 204.3184967041016
0, 7, 76, 215.2303009033203
0, 7, 77, 174.8738708496094
0, 7, 78, 177.5953979492188
0, 7, 79, 194.9076232910156
0, 7, 80, 196.2270812988281
0, 7, 81, 214.6342926025391
0, 7, 82, 184.7268981933594
0, 7, 83, 206.8998718261719
0, 7, 84, 193.7612457275391
0, 7, 85, 188.2677764892578
0, 7, 86, 201.1707153320312
0, 7, 87, 226.1282348632812
0, 7, 88, 194.5234222412109
0, 7, 89, 176.0049285888672
0, 7, 90, 182.8482818603516
0, 7, 91, 194.3500213623047
0, 7, 92, 194.1109619140625
0, 7, 93, 197.6896667480469
0, 7, 94, 177.1637878417969
0, 7, 95, 199.3400115966797
0, 7, 96, 209.5988311767578
0, 7, 97, 190.9382476806641
0, 7, 98, 177.444580078125
0, 7, 99, 197.8401947021484
0, 7, 100, 181.7419128417969
0, 7, 101, 200.7181854248047
0, 7, 102, 184.8078308105469
0, 7, 103, 182.1777496337891
0, 7, 104, 174.9994506835938
0, 7, 105, 194.5391082763672
0, 7, 106, 206.6694488525391
0, 7, 107, 174.7180023193359
0, 7, 108, 177.3428039550781
0, 7, 109, 136.6944732666016
0, 7, 110, 55.05672836303711
0, 7, 111, 8.637017250061035
0, 7, 112, 8.577423095703125
0, 7, 113, 10.3929271697998
0, 7, 114, 7.393309593200684
0, 7, 115, 6.030169486999512
0, 7, 116, 4.727334499359131
0, 7, 117, 4.253504276275635
0, 7, 118, 3.767831087112427
0, 7, 119, 3.448230266571045
0, 7, 120, 2.064436435699463
0, 7, 121, 2.361201047897339
0, 7, 122, 3.108231067657471
0, 7, 123, 1.544320464134216
0, 7, 124, 1.805158376693726
0, 7, 125, 1.851609826087952
0, 7, 126, 3.168639183044434
0, 7, 127, 0.9351930022239685
0, 8, 0, 4.825183391571045
0, 8, 1, 3.458209276199341
0, 8, 2, 2.526101350784302
0, 8, 3, 2.15882396697998
0, 8, 4, 1.033379435539246
0, 8, 5, 2.811112880706787
0, 8, 6, 3.14696741104126
0, 8, 7, 3.168931484222412
0, 8, 8, 3.865177631378174
0, 8, 9, 6.368404865264893
0, 8, 10, 2.225684404373169
0, 8, 11, 3.313438177108765
0, 8, 12, 3.361964702606201
0, 8, 13, 5.603739738464355
0, 8, 14, 5.481068134307861
0, 8, 15, 8.582242965698242
0, 8, 16, 20.82972145080566
0, 8, 17, 76.04233551025391
0, 8, 18, 143.0040435791016
0, 8, 19, 178.8911590576172
0, 8, 20, 190.9671020507812
0, 8, 21, 193.2579650878906
0, 8, 22, 180.6982879638672
0, 8, 23, 172.8375701904297
0, 8, 24, 192.1420745849609
0, 8, 25, 184.7878570556641
0, 8, 26, 192.5846557617188
0, 8, 27, 185.8786163330078
0, 8, 28, 186.6240081787109
0, 8, 29, 206.6326599121094
0, 8, 30, 196.1701507568359
0, 8, 31, 185.7566528320312
0, 8, 32, 197.8321685791016
0, 8, 33, 206.2087554931641
0, 8, 34, 202.9492950439453
0, 8, 35, 184.6715850830078
0, 8, 36, 181.0679473876953
