# TOPAS Version: 3.1.p3
# Parameter File: batch_inserts_342.txt
# Results for scorer Readout_Adipose
# Scored in component: MyBox
# X in 1 bin  of 0.65 cm
# Y in 512 bins of 0.0783984 cm
# Z in 128 bins of 0.078125 cm
# EnergyDeposit ( MeV ) : Sum   
0, 0, 0, 1.0933518409729
0, 0, 1, 6.188518047332764
0, 0, 2, 1.78685474395752
0, 0, 3, 1.500610113143921
0, 0, 4, 1.17003071308136
0, 0, 5, 2.055704355239868
0, 0, 6, 1.758472681045532
0, 0, 7, 2.886528730392456
0, 0, 8, 1.823883652687073
0, 0, 9, 1.733590960502625
0, 0, 10, 1.684170722961426
0, 0, 11, 3.318877220153809
0, 0, 12, 3.150806188583374
0, 0, 13, 2.48126745223999
0, 0, 14, 6.076761245727539
0, 0, 15, 6.089676856994629
0, 0, 16, 4.313889026641846
0, 0, 17, 6.665237426757812
0, 0, 18, 8.658775329589844
0, 0, 19, 23.39768409729004
0, 0, 20, 93.37856292724609
0, 0, 21, 152.3374328613281
0, 0, 22, 155.1073760986328
0, 0, 23, 144.0359649658203
0, 0, 24, 159.7350769042969
0, 0, 25, 165.7068786621094
0, 0, 26, 166.4765319824219
0, 0, 27, 173.5792388916016
0, 0, 28, 178.2365264892578
0, 0, 29, 174.7901763916016
0, 0, 30, 173.3897399902344
0, 0, 31, 167.637939453125
0, 0, 32, 164.1207733154297
0, 0, 33, 166.6253356933594
0, 0, 34, 178.3186340332031
0, 0, 35, 174.9493103027344
0, 0, 36, 158.9250030517578
0, 0, 37, 161.1209716796875
0, 0, 38, 166.6317443847656
0, 0, 39, 159.4914703369141
0, 0, 40, 165.1639251708984
0, 0, 41, 165.5709381103516
0, 0, 42, 143.9617462158203
0, 0, 43, 167.6054077148438
0, 0, 44, 177.43408203125
0, 0, 45, 172.0511779785156
0, 0, 46, 165.9176483154297
0, 0, 47, 166.9429473876953
0, 0, 48, 169.5237426757812
0, 0, 49, 182.6034545898438
0, 0, 50, 170.8407135009766
0, 0, 51, 162.3944549560547
0, 0, 52, 162.7566528320312
0, 0, 53, 173.462646484375
0, 0, 54, 159.3279113769531
0, 0, 55, 164.1535491943359
0, 0, 56, 188.6770782470703
0, 0, 57, 170.1053009033203
0, 0, 58, 163.0119476318359
0, 0, 59, 172.2039337158203
0, 0, 60, 169.4220428466797
0, 0, 61, 169.4558410644531
0, 0, 62, 182.8516540527344
0, 0, 63, 168.0405731201172
0, 0, 64, 164.0372161865234
0, 0, 65, 175.5977020263672
0, 0, 66, 178.0473785400391
0, 0, 67, 164.4363861083984
0, 0, 68, 158.2307739257812
0, 0, 69, 158.6716613769531
0, 0, 70, 169.4252777099609
0, 0, 71, 158.4749603271484
0, 0, 72, 164.6233673095703
0, 0, 73, 171.2822113037109
0, 0, 74, 161.9784851074219
0, 0, 75, 163.1395568847656
0, 0, 76, 163.22998046875
0, 0, 77, 172.965576171875
0, 0, 78, 184.3050537109375
0, 0, 79, 176.6677398681641
0, 0, 80, 163.4616851806641
0, 0, 81, 159.7083587646484
0, 0, 82, 181.7733764648438
0, 0, 83, 173.7518157958984
0, 0, 84, 159.2632904052734
0, 0, 85, 181.2558288574219
0, 0, 86, 158.4363250732422
0, 0, 87, 177.3608703613281
0, 0, 88, 177.3035888671875
0, 0, 89, 174.8906860351562
0, 0, 90, 160.536865234375
0, 0, 91, 184.8589324951172
0, 0, 92, 163.4384460449219
0, 0, 93, 155.0440673828125
0, 0, 94, 169.2247161865234
0, 0, 95, 174.385009765625
0, 0, 96, 183.9255065917969
0, 0, 97, 185.3784942626953
0, 0, 98, 187.3010559082031
0, 0, 99, 170.7483520507812
0, 0, 100, 158.9004669189453
0, 0, 101, 166.8835754394531
0, 0, 102, 171.3973999023438
0, 0, 103, 170.9887542724609
0, 0, 104, 169.9358520507812
0, 0, 105, 177.3282470703125
0, 0, 106, 159.6466064453125
0, 0, 107, 85.79402160644531
0, 0, 108, 24.02944946289062
0, 0, 109, 9.526838302612305
0, 0, 110, 6.884273052215576
0, 0, 111, 8.067529678344727
0, 0, 112, 3.726135015487671
0, 0, 113, 3.171433925628662
0, 0, 114, 2.295279502868652
0, 0, 115, 2.942639827728271
0, 0, 116, 3.447908878326416
0, 0, 117, 2.142207622528076
0, 0, 118, 2.181689739227295
0, 0, 119, 2.333254337310791
0, 0, 120, 1.288822174072266
0, 0, 121, 4.470694065093994
0, 0, 122, 4.340550422668457
0, 0, 123, 3.534891843795776
0, 0, 124, 2.062742471694946
0, 0, 125, 3.844388723373413
0, 0, 126, 3.406853914260864
0, 0, 127, 1.666567206382751
0, 1, 0, 0.8070434331893921
0, 1, 1, 3.602418661117554
0, 1, 2, 2.627170562744141
0, 1, 3, 1.24406623840332
0, 1, 4, 1.994279384613037
0, 1, 5, 2.698055028915405
0, 1, 6, 1.257518410682678
0, 1, 7, 3.086154937744141
0, 1, 8, 3.951290607452393
0, 1, 9, 1.680739521980286
0, 1, 10, 2.037232875823975
0, 1, 11, 3.44977331161499
0, 1, 12, 3.612922430038452
0, 1, 13, 3.240347146987915
0, 1, 14, 6.696127414703369
0, 1, 15, 7.063976764678955
0, 1, 16, 7.632306575775146
0, 1, 17, 5.670299053192139
0, 1, 18, 10.4760274887085
0, 1, 19, 38.13307952880859
0, 1, 20, 125.5807800292969
0, 1, 21, 178.3605041503906
0, 1, 22, 193.1272735595703
0, 1, 23, 186.1704711914062
0, 1, 24, 179.7749786376953
0, 1, 25, 191.4293060302734
0, 1, 26, 197.36181640625
0, 1, 27, 185.8370361328125
0, 1, 28, 188.5061950683594
0, 1, 29, 184.2844696044922
0, 1, 30, 180.2465057373047
0, 1, 31, 180.9997406005859
0, 1, 32, 189.2940216064453
0, 1, 33, 189.7129211425781
0, 1, 34, 184.9150390625
0, 1, 35, 193.0262756347656
0, 1, 36, 206.8587188720703
0, 1, 37, 185.05419921875
0, 1, 38, 165.5285186767578
0, 1, 39, 172.0402679443359
0, 1, 40, 179.5224304199219
0, 1, 41, 185.1072845458984
0, 1, 42, 182.5504760742188
0, 1, 43, 186.0817413330078
0, 1, 44, 166.7555084228516
0, 1, 45, 186.6813201904297
0, 1, 46, 171.6109771728516
0, 1, 47, 185.3585968017578
0, 1, 48, 186.4003295898438
0, 1, 49, 186.4341888427734
0, 1, 50, 177.4730377197266
0, 1, 51, 190.459228515625
0, 1, 52, 196.2954406738281
0, 1, 53, 196.356689453125
0, 1, 54, 185.1607971191406
0, 1, 55, 164.5808868408203
0, 1, 56, 179.0567169189453
0, 1, 57, 179.9807891845703
0, 1, 58, 188.7274322509766
0, 1, 59, 193.4940185546875
0, 1, 60, 188.1292419433594
0, 1, 61, 178.6064453125
0, 1, 62, 206.5527191162109
0, 1, 63, 174.7781677246094
0, 1, 64, 172.6637725830078
0, 1, 65, 184.4710693359375
0, 1, 66, 203.7582702636719
0, 1, 67, 182.9166259765625
0, 1, 68, 186.698486328125
0, 1, 69, 188.8600006103516
0, 1, 70, 185.2461547851562
0, 1, 71, 171.0558166503906
0, 1, 72, 187.117431640625
0, 1, 73, 190.06396484375
0, 1, 74, 201.4349822998047
0, 1, 75, 185.0919494628906
0, 1, 76, 173.8196258544922
0, 1, 77, 192.1573486328125
0, 1, 78, 190.5959014892578
0, 1, 79, 201.6306457519531
0, 1, 80, 186.9042663574219
0, 1, 81, 174.2505340576172
0, 1, 82, 206.8212127685547
0, 1, 83, 211.8230133056641
0, 1, 84, 179.9711608886719
0, 1, 85, 171.1229248046875
0, 1, 86, 168.1302032470703
0, 1, 87, 184.0160369873047
0, 1, 88, 174.7852172851562
0, 1, 89, 187.4469604492188
0, 1, 90, 211.9988098144531
0, 1, 91, 181.1653442382812
0, 1, 92, 183.4331359863281
0, 1, 93, 180.1054992675781
0, 1, 94, 184.6396026611328
0, 1, 95, 181.4951629638672
0, 1, 96, 197.0934600830078
0, 1, 97, 181.9430084228516
0, 1, 98, 187.0897064208984
0, 1, 99, 175.4854431152344
0, 1, 100, 172.2400970458984
0, 1, 101, 178.2119445800781
0, 1, 102, 182.4304962158203
0, 1, 103, 172.4076232910156
0, 1, 104, 188.2461395263672
0, 1, 105, 182.1329803466797
0, 1, 106, 164.3885803222656
0, 1, 107, 122.9682159423828
0, 1, 108, 48.17896270751953
0, 1, 109, 10.03889846801758
0, 1, 110, 6.846774101257324
0, 1, 111, 6.136138439178467
0, 1, 112, 6.873751640319824
0, 1, 113, 6.611758708953857
0, 1, 114, 5.212353706359863
0, 1, 115, 4.872348308563232
0, 1, 116, 3.078004837036133
0, 1, 117, 2.092356443405151
0, 1, 118, 3.377847909927368
0, 1, 119, 1.866708993911743
0, 1, 120, 3.247728824615479
0, 1, 121, 3.050426721572876
0, 1, 122, 2.629858732223511
0, 1, 123, 2.623179912567139
0, 1, 124, 1.085907816886902
0, 1, 125, 2.117880821228027
0, 1, 126, 2.4361412525177
0, 1, 127, 2.713774442672729
0, 2, 0, 1.823447346687317
0, 2, 1, 2.304650783538818
0, 2, 2, 3.540509939193726
0, 2, 3, 1.935806035995483
0, 2, 4, 1.321518421173096
0, 2, 5, 0.7372795939445496
0, 2, 6, 2.631294012069702
0, 2, 7, 2.292147874832153
0, 2, 8, 2.329027891159058
0, 2, 9, 1.970345377922058
0, 2, 10, 7.56627893447876
0, 2, 11, 4.068388938903809
0, 2, 12, 4.05937385559082
0, 2, 13, 4.998392581939697
0, 2, 14, 4.304493427276611
0, 2, 15, 6.698882102966309
0, 2, 16, 7.992942333221436
0, 2, 17, 8.849611282348633
0, 2, 18, 15.06500911712646
0, 2, 19, 77.14674377441406
0, 2, 20, 162.0824737548828
0, 2, 21, 185.4302520751953
0, 2, 22, 193.7261047363281
0, 2, 23, 183.3860931396484
0, 2, 24, 173.4911651611328
0, 2, 25, 183.703369140625
0, 2, 26, 178.5758666992188
0, 2, 27, 188.5169677734375
0, 2, 28, 171.3477935791016
0, 2, 29, 168.4959869384766
0, 2, 30, 186.1102447509766
0, 2, 31, 182.4031219482422
0, 2, 32, 183.8920288085938
0, 2, 33, 190.7573394775391
0, 2, 34, 197.5139465332031
0, 2, 35, 180.9376983642578
0, 2, 36, 185.0337524414062
0, 2, 37, 181.2517242431641
0, 2, 38, 185.1756134033203
0, 2, 39, 168.3008270263672
0, 2, 40, 184.3517303466797
0, 2, 41, 185.1203308105469
0, 2, 42, 189.4229125976562
0, 2, 43, 194.4983520507812
0, 2, 44, 192.0647735595703
0, 2, 45, 190.7988739013672
0, 2, 46, 195.6653594970703
0, 2, 47, 189.6107330322266
0, 2, 48, 177.0182189941406
0, 2, 49, 198.6491394042969
0, 2, 50, 167.2791748046875
0, 2, 51, 183.4960174560547
0, 2, 52, 185.9311981201172
0, 2, 53, 194.6531982421875
0, 2, 54, 177.2138977050781
0, 2, 55, 172.8851623535156
0, 2, 56, 181.311279296875
0, 2, 57, 200.1944885253906
0, 2, 58, 186.7338409423828
0, 2, 59, 190.5480194091797
0, 2, 60, 196.7144470214844
0, 2, 61, 193.2012634277344
0, 2, 62, 190.3600158691406
0, 2, 63, 169.5158233642578
0, 2, 64, 189.4165954589844
0, 2, 65, 203.4440002441406
0, 2, 66, 196.3205413818359
0, 2, 67, 184.1075744628906
0, 2, 68, 182.4283599853516
0, 2, 69, 187.5238342285156
0, 2, 70, 202.6457977294922
0, 2, 71, 175.020751953125
0, 2, 72, 185.7532958984375
0, 2, 73, 177.5235137939453
0, 2, 74, 180.2788391113281
0, 2, 75, 196.3789672851562
0, 2, 76, 183.4914245605469
0, 2, 77, 178.0576324462891
0, 2, 78, 197.7539978027344
0, 2, 79, 178.2799530029297
0, 2, 80, 185.7747955322266
0, 2, 81, 186.2583312988281
0, 2, 82, 205.1620025634766
0, 2, 83, 204.4369201660156
0, 2, 84, 188.3267211914062
0, 2, 85, 169.9508361816406
0, 2, 86, 195.3792419433594
0, 2, 87, 171.9541320800781
0, 2, 88, 177.7329864501953
0, 2, 89, 185.8380737304688
0, 2, 90, 178.4847412109375
0, 2, 91, 175.0498504638672
0, 2, 92, 197.402587890625
0, 2, 93, 193.8786163330078
0, 2, 94, 198.305419921875
0, 2, 95, 194.2533721923828
0, 2, 96, 185.8683166503906
0, 2, 97, 171.5903778076172
0, 2, 98, 173.1903228759766
0, 2, 99, 162.1576538085938
0, 2, 100, 186.6837158203125
0, 2, 101, 196.2276000976562
0, 2, 102, 177.3394470214844
0, 2, 103, 199.5284271240234
0, 2, 104, 186.922607421875
0, 2, 105, 200.1866760253906
0, 2, 106, 194.4526977539062
0, 2, 107, 148.6885223388672
0, 2, 108, 78.27297973632812
0, 2, 109, 17.7108325958252
0, 2, 110, 7.966102600097656
0, 2, 111, 5.585352420806885
0, 2, 112, 5.053854942321777
0, 2, 113, 4.030464649200439
0, 2, 114, 8.400805473327637
0, 2, 115, 3.216510534286499
0, 2, 116, 1.707302689552307
0, 2, 117, 2.653160810470581
0, 2, 118, 1.933493614196777
0, 2, 119, 3.124873638153076
0, 2, 120, 1.701958060264587
0, 2, 121, 3.397140264511108
0, 2, 122, 1.652337431907654
0, 2, 123, 2.334336757659912
0, 2, 124, 1.787666201591492
0, 2, 125, 1.375897169113159
0, 2, 126, 2.4607994556427
0, 2, 127, 1.342605710029602
0, 3, 0, 1.607921123504639
0, 3, 1, 1.478263139724731
0, 3, 2, 1.156049132347107
0, 3, 3, 0.8556508421897888
0, 3, 4, 4.088889598846436
0, 3, 5, 2.454791784286499
0, 3, 6, 2.044862747192383
0, 3, 7, 1.633623123168945
0, 3, 8, 2.361261129379272
0, 3, 9, 2.280637741088867
0, 3, 10, 2.422168016433716
0, 3, 11, 3.605812788009644
0, 3, 12, 4.930057525634766
0, 3, 13, 3.58701753616333
0, 3, 14, 5.007111072540283
0, 3, 15, 6.05417537689209
0, 3, 16, 7.654723644256592
0, 3, 17, 6.875815391540527
0, 3, 18, 35.02346038818359
0, 3, 19, 114.7218246459961
0, 3, 20, 179.7929992675781
0, 3, 21, 173.7727661132812
0, 3, 22, 177.3721618652344
0, 3, 23, 187.1206970214844
0, 3, 24, 177.9078979492188
0, 3, 25, 168.6791839599609
0, 3, 26, 181.4902496337891
0, 3, 27, 189.5003204345703
0, 3, 28, 180.8860473632812
0, 3, 29, 197.6405334472656
0, 3, 30, 185.2176208496094
0, 3, 31, 194.3637542724609
0, 3, 32, 208.9706115722656
0, 3, 33, 197.1807556152344
0, 3, 34, 186.9724426269531
0, 3, 35, 175.8185577392578
0, 3, 36, 185.1522827148438
0, 3, 37, 200.7329254150391
0, 3, 38, 192.1145935058594
0, 3, 39, 184.6282806396484
0, 3, 40, 165.9837188720703
0, 3, 41, 174.2571868896484
0, 3, 42, 185.2250366210938
0, 3, 43, 183.6140747070312
0, 3, 44, 203.1646728515625
0, 3, 45, 207.9956970214844
0, 3, 46, 198.0300140380859
0, 3, 47, 193.7547454833984
0, 3, 48, 196.3455657958984
0, 3, 49, 181.7665252685547
0, 3, 50, 185.8338623046875
0, 3, 51, 174.2297668457031
0, 3, 52, 186.7863616943359
0, 3, 53, 178.1743927001953
0, 3, 54, 180.2646179199219
0, 3, 55, 176.336669921875
0, 3, 56, 182.1390228271484
0, 3, 57, 175.7235412597656
0, 3, 58, 201.1250152587891
0, 3, 59, 196.5215606689453
0, 3, 60, 187.427001953125
0, 3, 61, 181.7135620117188
0, 3, 62, 181.5788116455078
0, 3, 63, 183.5928192138672
0, 3, 64, 188.3035736083984
0, 3, 65, 188.1731109619141
0, 3, 66, 175.4100646972656
0, 3, 67, 191.1910705566406
0, 3, 68, 211.5719909667969
0, 3, 69, 191.2111206054688
0, 3, 70, 186.0679626464844
0, 3, 71, 196.7066192626953
0, 3, 72, 184.9360046386719
0, 3, 73, 186.5621490478516
0, 3, 74, 194.4111022949219
0, 3, 75, 194.1841278076172
0, 3, 76, 190.3714294433594
0, 3, 77, 198.1768341064453
0, 3, 78, 189.9017333984375
0, 3, 79, 184.8249053955078
0, 3, 80, 190.3094024658203
0, 3, 81, 185.4238433837891
0, 3, 82, 178.8453369140625
0, 3, 83, 195.0213928222656
0, 3, 84, 199.5234985351562
0, 3, 85, 191.5728759765625
0, 3, 86, 204.3952941894531
0, 3, 87, 199.8884582519531
0, 3, 88, 190.5310211181641
0, 3, 89, 193.2037048339844
0, 3, 90, 174.3781433105469
0, 3, 91, 158.7303009033203
0, 3, 92, 206.9944305419922
0, 3, 93, 196.1986694335938
0, 3, 94, 193.4230804443359
0, 3, 95, 210.8033905029297
0, 3, 96, 208.5420227050781
0, 3, 97, 168.4006195068359
0, 3, 98, 167.8997344970703
0, 3, 99, 180.0603942871094
0, 3, 100, 176.0720367431641
0, 3, 101, 197.427734375
0, 3, 102, 194.5495300292969
0, 3, 103, 193.8778381347656
0, 3, 104, 202.2158813476562
0, 3, 105, 175.7330474853516
0, 3, 106, 181.4522552490234
0, 3, 107, 169.4443359375
0, 3, 108, 108.0895462036133
0, 3, 109, 29.07155418395996
0, 3, 110, 7.835195064544678
0, 3, 111, 6.148242950439453
0, 3, 112, 6.493470668792725
0, 3, 113, 7.076361656188965
0, 3, 114, 8.736875534057617
0, 3, 115, 5.446229457855225
0, 3, 116, 6.911674499511719
0, 3, 117, 3.197146892547607
0, 3, 118, 1.787795901298523
0, 3, 119, 2.245978355407715
0, 3, 120, 3.209733963012695
0, 3, 121, 3.221248388290405
0, 3, 122, 3.425080060958862
0, 3, 123, 1.272149682044983
0, 3, 124, 1.961178421974182
0, 3, 125, 0.9922855496406555
0, 3, 126, 0.9632154107093811
0, 3, 127, 2.256090879440308
0, 4, 0, 1.710826873779297
0, 4, 1, 0.4634665548801422
0, 4, 2, 1.791566252708435
0, 4, 3, 3.661619663238525
0, 4, 4, 3.432520151138306
0, 4, 5, 0.6688066720962524
0, 4, 6, 3.43151593208313
0, 4, 7, 2.170649290084839
0, 4, 8, 1.587981224060059
0, 4, 9, 1.877215504646301
0, 4, 10, 3.222790718078613
0, 4, 11, 4.274403095245361
0, 4, 12, 4.991966724395752
0, 4, 13, 4.453591823577881
0, 4, 14, 5.826376914978027
0, 4, 15, 9.002701759338379
0, 4, 16, 5.926076889038086
0, 4, 17, 11.54352378845215
0, 4, 18, 54.57611083984375
0, 4, 19, 152.2189636230469
0, 4, 20, 193.4637603759766
0, 4, 21, 171.1734924316406
0, 4, 22, 187.6549530029297
0, 4, 23, 196.9225006103516
0, 4, 24, 192.8686828613281
0, 4, 25, 200.7421112060547
0, 4, 26, 183.1646575927734
0, 4, 27, 191.1888580322266
0, 4, 28, 178.7763366699219
0, 4, 29, 204.8404541015625
0, 4, 30, 195.6190643310547
0, 4, 31, 192.4685363769531
0, 4, 32, 209.7533416748047
0, 4, 33, 190.3502960205078
0, 4, 34, 193.4093627929688
0, 4, 35, 211.9764556884766
0, 4, 36, 192.2686614990234
0, 4, 37, 177.4024810791016
0, 4, 38, 195.9800567626953
0, 4, 39, 189.2588195800781
0, 4, 40, 185.4840087890625
0, 4, 41, 189.8114624023438
0, 4, 42, 206.4139556884766
0, 4, 43, 173.509033203125
0, 4, 44, 183.9766235351562
0, 4, 45, 197.1232757568359
0, 4, 46, 186.6303558349609
0, 4, 47, 180.4930114746094
0, 4, 48, 185.0561981201172
0, 4, 49, 174.5782165527344
0, 4, 50, 187.1562652587891
0, 4, 51, 198.0458984375
0, 4, 52, 222.9924774169922
0, 4, 53, 205.6781005859375
0, 4, 54, 189.9827117919922
0, 4, 55, 175.3962860107422
0, 4, 56, 191.7952880859375
0, 4, 57, 191.4198303222656
0, 4, 58, 187.3025817871094
0, 4, 59, 190.1541595458984
0, 4, 60, 196.3262176513672
0, 4, 61, 193.5116882324219
0, 4, 62, 189.8230285644531
0, 4, 63, 179.8600921630859
0, 4, 64, 212.5036163330078
0, 4, 65, 191.2698516845703
0, 4, 66, 200.7289733886719
0, 4, 67, 199.9954681396484
0, 4, 68, 201.27001953125
0, 4, 69, 200.5794525146484
0, 4, 70, 205.3925018310547
0, 4, 71, 207.2696838378906
0, 4, 72, 215.5250396728516
0, 4, 73, 185.2968444824219
0, 4, 74, 181.2176208496094
0, 4, 75, 185.7608947753906
0, 4, 76, 189.8767242431641
0, 4, 77, 182.6381988525391
0, 4, 78, 195.535888671875
0, 4, 79, 204.3299102783203
0, 4, 80, 210.8222961425781
0, 4, 81, 199.0682220458984
0, 4, 82, 182.1797637939453
0, 4, 83, 170.0155792236328
0, 4, 84, 193.3807830810547
0, 4, 85, 196.0882873535156
0, 4, 86, 181.798828125
0, 4, 87, 184.1637115478516
0, 4, 88, 204.5643920898438
0, 4, 89, 187.4294738769531
0, 4, 90, 211.7395477294922
0, 4, 91, 189.6467132568359
0, 4, 92, 196.6617889404297
0, 4, 93, 195.2429504394531
0, 4, 94, 183.6936950683594
0, 4, 95, 174.1084136962891
0, 4, 96, 189.6219177246094
0, 4, 97, 193.0695495605469
0, 4, 98, 201.3965759277344
0, 4, 99, 184.0299530029297
0, 4, 100, 182.7658386230469
0, 4, 101, 176.0795593261719
0, 4, 102, 171.738037109375
0, 4, 103, 184.8946228027344
0, 4, 104, 209.2278747558594
0, 4, 105, 189.4376678466797
0, 4, 106, 180.0858459472656
0, 4, 107, 182.6390533447266
0, 4, 108, 153.6973724365234
0, 4, 109, 50.64773559570312
0, 4, 110, 10.60133171081543
0, 4, 111, 8.710187911987305
0, 4, 112, 6.269076824188232
0, 4, 113, 7.897174835205078
0, 4, 114, 5.788675785064697
0, 4, 115, 2.145655870437622
0, 4, 116, 4.804958343505859
0, 4, 117, 3.805972576141357
0, 4, 118, 4.915145397186279
0, 4, 119, 4.172037124633789
0, 4, 120, 3.15125846862793
0, 4, 121, 2.658792972564697
0, 4, 122, 1.496598958969116
0, 4, 123, 2.914279460906982
0, 4, 124, 3.663305521011353
0, 4, 125, 2.291599750518799
0, 4, 126, 1.202694892883301
0, 4, 127, 1.979732751846313
0, 5, 0, 1.316543698310852
0, 5, 1, 3.57163405418396
0, 5, 2, 5.446661472320557
0, 5, 3, 3.587414979934692
0, 5, 4, 2.457501888275146
0, 5, 5, 2.428877830505371
0, 5, 6, 3.662250280380249
0, 5, 7, 2.786357879638672
0, 5, 8, 1.703469634056091
0, 5, 9, 2.152885675430298
0, 5, 10, 3.270678520202637
0, 5, 11, 2.206499338150024
0, 5, 12, 4.313838958740234
0, 5, 13, 3.247475147247314
0, 5, 14, 6.948706150054932
0, 5, 15, 9.27193546295166
0, 5, 16, 8.208610534667969
0, 5, 17, 22.69848823547363
0, 5, 18, 82.79463958740234
0, 5, 19, 166.5523223876953
0, 5, 20, 183.7500305175781
0, 5, 21, 177.75634765625
0, 5, 22, 169.6817626953125
0, 5, 23, 200.9377136230469
0, 5, 24, 187.5776824951172
0, 5, 25, 208.6782379150391
0, 5, 26, 182.8570098876953
0, 5, 27, 195.4043273925781
0, 5, 28, 190.6089172363281
0, 5, 29, 196.5179595947266
0, 5, 30, 178.669677734375
0, 5, 31, 180.3444519042969
0, 5, 32, 188.3676147460938
0, 5, 33, 168.8859710693359
0, 5, 34, 194.6895904541016
0, 5, 35, 197.7717895507812
0, 5, 36, 169.6328277587891
0, 5, 37, 196.8289337158203
0, 5, 38, 180.6360321044922
0, 5, 39, 187.9981689453125
0, 5, 40, 196.4423217773438
0, 5, 41, 176.9595336914062
0, 5, 42, 187.7487640380859
0, 5, 43, 192.5286712646484
0, 5, 44, 199.6997680664062
0, 5, 45, 186.4350433349609
0, 5, 46, 192.7920684814453
0, 5, 47, 181.4697418212891
0, 5, 48, 177.6151428222656
0, 5, 49, 178.2819366455078
0, 5, 50, 185.4662933349609
0, 5, 51, 172.0613098144531
0, 5, 52, 168.0355072021484
0, 5, 53, 181.6211853027344
0, 5, 54, 171.8276062011719
0, 5, 55, 216.0877990722656
0, 5, 56, 181.8331604003906
0, 5, 57, 206.4808502197266
0, 5, 58, 182.3344116210938
0, 5, 59, 180.1150360107422
0, 5, 60, 217.7144622802734
0, 5, 61, 184.3269348144531
0, 5, 62, 178.4864044189453
0, 5, 63, 180.1109619140625
0, 5, 64, 195.9425506591797
0, 5, 65, 210.0509185791016
0, 5, 66, 192.269287109375
0, 5, 67, 201.0855865478516
0, 5, 68, 186.1544647216797
0, 5, 69, 184.5567474365234
0, 5, 70, 185.1283416748047
0, 5, 71, 193.3822937011719
0, 5, 72, 198.1168212890625
0, 5, 73, 202.1611175537109
0, 5, 74, 179.824951171875
0, 5, 75, 203.2881774902344
0, 5, 76, 213.5534973144531
0, 5, 77, 180.214599609375
0, 5, 78, 194.4934844970703
0, 5, 79, 190.3664245605469
0, 5, 80, 197.401611328125
0, 5, 81, 202.5204925537109
0, 5, 82, 204.4685821533203
0, 5, 83, 188.3455657958984
0, 5, 84, 205.5431213378906
0, 5, 85, 175.6138305664062
0, 5, 86, 196.2464294433594
0, 5, 87, 187.8338165283203
0, 5, 88, 178.2900238037109
0, 5, 89, 193.7373199462891
0, 5, 90, 199.4596405029297
0, 5, 91, 197.2698822021484
0, 5, 92, 190.2126159667969
0, 5, 93, 189.3056640625
0, 5, 94, 207.1587829589844
0, 5, 95, 176.7537231445312
0, 5, 96, 182.4768981933594
0, 5, 97, 191.3283081054688
0, 5, 98, 189.1748504638672
0, 5, 99, 194.4791107177734
0, 5, 100, 186.3528747558594
0, 5, 101, 195.5964050292969
0, 5, 102, 180.8276519775391
0, 5, 103, 176.3537445068359
0, 5, 104, 190.0295257568359
0, 5, 105, 189.1336517333984
0, 5, 106, 177.2718353271484
0, 5, 107, 181.4519958496094
0, 5, 108, 180.8001861572266
0, 5, 109, 90.60341644287109
0, 5, 110, 32.6549186706543
0, 5, 111, 8.872057914733887
0, 5, 112, 7.12303638458252
0, 5, 113, 6.547266483306885
0, 5, 114, 6.677271366119385
0, 5, 115, 4.805938243865967
0, 5, 116, 3.634541273117065
0, 5, 117, 2.55340576171875
0, 5, 118, 4.157142162322998
0, 5, 119, 3.97634220123291
0, 5, 120, 2.361778020858765
0, 5, 121, 1.354962348937988
0, 5, 122, 3.68330454826355
0, 5, 123, 3.478306293487549
0, 5, 124, 2.819325923919678
0, 5, 125, 0.8007009029388428
0, 5, 126, 3.448339223861694
0, 5, 127, 1.717557191848755
0, 6, 0, 4.414567947387695
0, 6, 1, 2.486769437789917
0, 6, 2, 4.276131629943848
0, 6, 3, 2.174180746078491
0, 6, 4, 2.862914085388184
0, 6, 5, 2.115170478820801
0, 6, 6, 2.156407356262207
0, 6, 7, 3.882413387298584
0, 6, 8, 4.442020893096924
0, 6, 9, 3.183389902114868
0, 6, 10, 3.695611953735352
0, 6, 11, 5.155643939971924
0, 6, 12, 4.927830219268799
0, 6, 13, 4.929945945739746
0, 6, 14, 8.188791275024414
0, 6, 15, 7.027931213378906
0, 6, 16, 14.17807197570801
0, 6, 17, 28.04269790649414
0, 6, 18, 114.009033203125
0, 6, 19, 192.4193420410156
0, 6, 20, 197.1785430908203
0, 6, 21, 198.2266235351562
0, 6, 22, 191.2306060791016
0, 6, 23, 190.5643005371094
0, 6, 24, 200.9076385498047
0, 6, 25, 181.5029449462891
0, 6, 26, 187.7799987792969
0, 6, 27, 192.6399230957031
0, 6, 28, 188.3766632080078
0, 6, 29, 211.141845703125
0, 6, 30, 191.0289306640625
0, 6, 31, 193.0503540039062
0, 6, 32, 205.8816680908203
0, 6, 33, 186.7058715820312
0, 6, 34, 196.5957336425781
0, 6, 35, 188.5226898193359
0, 6, 36, 179.7625579833984
0, 6, 37, 182.5679779052734
0, 6, 38, 184.8829040527344
0, 6, 39, 193.7201232910156
0, 6, 40, 173.5030364990234
0, 6, 41, 186.9159088134766
0, 6, 42, 173.970703125
0, 6, 43, 210.9983062744141
0, 6, 44, 209.14990234375
0, 6, 45, 193.0594787597656
0, 6, 46, 187.6904296875
0, 6, 47, 203.6943664550781
0, 6, 48, 188.8338928222656
0, 6, 49, 178.8768005371094
0, 6, 50, 181.8525848388672
0, 6, 51, 195.7052154541016
0, 6, 52, 198.1275634765625
0, 6, 53, 185.6817932128906
0, 6, 54, 175.6555633544922
0, 6, 55, 195.7240600585938
0, 6, 56, 201.8446350097656
0, 6, 57, 191.5130615234375
0, 6, 58, 179.6961059570312
0, 6, 59, 192.1025695800781
0, 6, 60, 183.8639984130859
0, 6, 61, 194.1351928710938
0, 6, 62, 197.4699401855469
0, 6, 63, 186.5946350097656
0, 6, 64, 168.0731201171875
0, 6, 65, 189.2849426269531
0, 6, 66, 197.3810119628906
0, 6, 67, 212.5640106201172
0, 6, 68, 180.4576263427734
0, 6, 69, 172.4411163330078
0, 6, 70, 188.8151245117188
0, 6, 71, 170.8824768066406
0, 6, 72, 176.2910461425781
0, 6, 73, 177.2784271240234
0, 6, 74, 209.5357513427734
0, 6, 75, 226.8766021728516
0, 6, 76, 184.4681549072266
0, 6, 77, 172.3973236083984
0, 6, 78, 174.973876953125
0, 6, 79, 186.9730529785156
0, 6, 80, 186.8811340332031
0, 6, 81, 209.8327178955078
0, 6, 82, 195.4819183349609
0, 6, 83, 195.9270629882812
0, 6, 84, 197.9399566650391
0, 6, 85, 180.4679412841797
0, 6, 86, 201.0599212646484
0, 6, 87, 183.87890625
0, 6, 88, 191.5473175048828
0, 6, 89, 188.9815368652344
0, 6, 90, 205.6957092285156
0, 6, 91, 200.0836791992188
0, 6, 92, 173.7496948242188
0, 6, 93, 191.9538116455078
0, 6, 94, 190.768798828125
0, 6, 95, 185.9404754638672
0, 6, 96, 190.5888977050781
0, 6, 97, 192.6256713867188
0, 6, 98, 185.1607513427734
0, 6, 99, 178.5113525390625
0, 6, 100, 201.9245758056641
0, 6, 101, 168.2064056396484
0, 6, 102, 201.85986328125
0, 6, 103, 196.0923919677734
0, 6, 104, 185.5131530761719
0, 6, 105, 193.3564758300781
0, 6, 106, 177.1739196777344
0, 6, 107, 193.9311065673828
0, 6, 108, 171.234619140625
0, 6, 109, 116.1128692626953
0, 6, 110, 33.64330673217773
0, 6, 111, 9.120991706848145
0, 6, 112, 8.696802139282227
0, 6, 113, 6.496062755584717
0, 6, 114, 4.667887687683105
0, 6, 115, 6.412887573242188
0, 6, 116, 3.577836036682129
0, 6, 117, 2.762008666992188
0, 6, 118, 2.852733850479126
0, 6, 119, 3.907406806945801
0, 6, 120, 1.537354588508606
0, 6, 121, 4.66556453704834
0, 6, 122, 2.950791358947754
0, 6, 123, 2.662554979324341
0, 6, 124, 1.545403599739075
0, 6, 125, 2.666195392608643
0, 6, 126, 2.935391664505005
0, 6, 127, 2.497686147689819
0, 7, 0, 5.027693748474121
0, 7, 1, 0.7612360715866089
0, 7, 2, 1.51143753528595
0, 7, 3, 1.731435418128967
0, 7, 4, 1.493703603744507
0, 7, 5, 1.103936672210693
0, 7, 6, 3.644728899002075
0, 7, 7, 1.003538489341736
0, 7, 8, 5.692858219146729
0, 7, 9, 4.187826633453369
0, 7, 10, 4.900661468505859
0, 7, 11, 3.35792350769043
0, 7, 12, 3.592016220092773
0, 7, 13, 5.44448184967041
0, 7, 14, 7.298970222473145
0, 7, 15, 6.79186487197876
0, 7, 16, 15.09239101409912
0, 7, 17, 51.12283325195312
0, 7, 18, 161.7568054199219
0, 7, 19, 183.6493682861328
0, 7, 20, 178.3076324462891
0, 7, 21, 179.8599853515625
0, 7, 22, 191.9107208251953
0, 7, 23, 201.9166107177734
0, 7, 24, 178.3096313476562
0, 7, 25, 211.9832763671875
0, 7, 26, 188.5444183349609
0, 7, 27, 181.6511383056641
0, 7, 28, 182.6562957763672
0, 7, 29, 208.8685150146484
0, 7, 30, 195.3955535888672
0, 7, 31, 175.9859924316406
0, 7, 32, 189.8607330322266
0, 7, 33, 179.3077545166016
0, 7, 34, 193.0369720458984
0, 7, 35, 198.916015625
0, 7, 36, 186.2716979980469
0, 7, 37, 212.2134399414062
0, 7, 38, 191.2783355712891
0, 7, 39, 174.0140991210938
0, 7, 40, 183.1185302734375
0, 7, 41, 184.8914031982422
0, 7, 42, 177.5504608154297
0, 7, 43, 180.5304107666016
0, 7, 44, 178.5232696533203
0, 7, 45, 173.9059295654297
0, 7, 46, 189.7715454101562
0, 7, 47, 198.4727630615234
0, 7, 48, 186.8409881591797
0, 7, 49, 199.3638610839844
0, 7, 50, 187.7683410644531
0, 7, 51, 204.6692352294922
0, 7, 52, 203.5855102539062
0, 7, 53, 191.5180816650391
0, 7, 54, 196.8498840332031
0, 7, 55, 203.7017211914062
0, 7, 56, 183.2592010498047
0, 7, 57, 182.1123809814453
0, 7, 58, 190.4898529052734
0, 7, 59, 186.65576171875
0, 7, 60, 204.6517333984375
0, 7, 61, 171.2403564453125
0, 7, 62, 204.6082153320312
0, 7, 63, 189.7483367919922
0, 7, 64, 199.5411071777344
0, 7, 65, 196.3978424072266
0, 7, 66, 205.1992034912109
0, 7, 67, 219.5255432128906
0, 7, 68, 162.3532257080078
0, 7, 69, 195.0190277099609
0, 7, 70, 217.4095153808594
0, 7, 71, 183.8726959228516
0, 7, 72, 181.4156799316406
0, 7, 73, 176.9658660888672
0, 7, 74, 207.4628753662109
0, 7, 75, 204.3477325439453
0, 7, 76, 214.5707244873047
0, 7, 77, 176.3534393310547
0, 7, 78, 178.6535949707031
0, 7, 79, 194.1649475097656
0, 7, 80, 195.7159271240234
0, 7, 81, 214.3687438964844
0, 7, 82, 184.7246704101562
0, 7, 83, 205.5450744628906
0, 7, 84, 192.0743865966797
0, 7, 85, 185.9218902587891
0, 7, 86, 199.9639434814453
0, 7, 87, 226.9139556884766
0, 7, 88, 197.137451171875
0, 7, 89, 176.9465026855469
0, 7, 90, 182.3827667236328
0, 7, 91, 194.8567047119141
0, 7, 92, 193.2342681884766
0, 7, 93, 198.1765594482422
0, 7, 94, 177.8963165283203
0, 7, 95, 198.1433868408203
0, 7, 96, 211.0688018798828
0, 7, 97, 189.3506927490234
0, 7, 98, 176.5617523193359
0, 7, 99, 197.0049438476562
0, 7, 100, 183.0151672363281
0, 7, 101, 198.9146881103516
0, 7, 102, 184.9608917236328
0, 7, 103, 182.8221740722656
0, 7, 104, 176.9104461669922
0, 7, 105, 195.4178161621094
0, 7, 106, 208.1465454101562
0, 7, 107, 173.1350708007812
0, 7, 108, 176.4542999267578
0, 7, 109, 136.2600708007812
0, 7, 110, 54.4005012512207
0, 7, 111, 10.14817237854004
0, 7, 112, 8.098858833312988
0, 7, 113, 8.810793876647949
0, 7, 114, 6.945194721221924
0, 7, 115, 5.018831253051758
0, 7, 116, 4.020822048187256
0, 7, 117, 2.315054893493652
0, 7, 118, 4.256466865539551
0, 7, 119, 2.803523540496826
0, 7, 120, 2.392484903335571
0, 7, 121, 3.231873273849487
0, 7, 122, 2.641531229019165
0, 7, 123, 2.977545738220215
0, 7, 124, 1.489122867584229
0, 7, 125, 2.722851753234863
0, 7, 126, 2.512453317642212
0, 7, 127, 2.125764131546021
0, 8, 0, 3.94881534576416
0, 8, 1, 2.915866851806641
0, 8, 2, 3.161828517913818
0, 8, 3, 2.001718044281006
0, 8, 4, 1.845944285392761
0, 8, 5, 3.24671196937561
0, 8, 6, 1.652722477912903
0, 8, 7, 3.014195680618286
0, 8, 8, 2.08649206161499
0, 8, 9, 5.834478378295898
0, 8, 10, 2.809770822525024
0, 8, 11, 2.335673332214355
0, 8, 12, 3.878681182861328
0, 8, 13, 6.051359176635742
0, 8, 14, 6.987317085266113
0, 8, 15, 9.526545524597168
0, 8, 16, 19.70537567138672
0, 8, 17, 76.02758026123047
0, 8, 18, 143.0597381591797
0, 8, 19, 178.2963409423828
0, 8, 20, 191.2609710693359
0, 8, 21, 192.7051391601562
0, 8, 22, 180.7366333007812
0, 8, 23, 174.4043884277344
0, 8, 24, 192.6007995605469
0, 8, 25, 187.5938110351562
0, 8, 26, 192.8521118164062
0, 8, 27, 189.6210327148438
0, 8, 28, 186.6439666748047
0, 8, 29, 206.629150390625
0, 8, 30, 195.8095855712891
0, 8, 31, 182.7258148193359
0, 8, 32, 199.3407440185547
0, 8, 33, 206.4546661376953
0, 8, 34, 203.1793365478516
0, 8, 35, 184.9498596191406
0, 8, 36, 181.1216888427734
