# TOPAS Version: 3.1.p3
# Parameter File: batch_inserts_20.txt
# Results for scorer Readout_Adipose
# Scored in component: MyBox
# X in 1 bin  of 0.65 cm
# Y in 512 bins of 0.0783984 cm
# Z in 128 bins of 0.078125 cm
# EnergyDeposit ( MeV ) : Sum   
0, 0, 0, 1.310937762260437
0, 0, 1, 3.633796691894531
0, 0, 2, 2.396218538284302
0, 0, 3, 0.9942424297332764
0, 0, 4, 0.7439601421356201
0, 0, 5, 0.4326636791229248
0, 0, 6, 1.111176252365112
0, 0, 7, 2.245683431625366
0, 0, 8, 2.534663915634155
0, 0, 9, 2.953935623168945
0, 0, 10, 1.660903692245483
0, 0, 11, 3.045511245727539
0, 0, 12, 3.531287908554077
0, 0, 13, 1.770852565765381
0, 0, 14, 5.557651519775391
0, 0, 15, 5.206482410430908
0, 0, 16, 3.750913381576538
0, 0, 17, 5.367551803588867
0, 0, 18, 6.140096187591553
0, 0, 19, 22.68777084350586
0, 0, 20, 94.30990600585938
0, 0, 21, 152.7132568359375
0, 0, 22, 153.9742431640625
0, 0, 23, 144.0619354248047
0, 0, 24, 159.6745452880859
0, 0, 25, 166.0428009033203
0, 0, 26, 166.1119689941406
0, 0, 27, 173.1741790771484
0, 0, 28, 177.4025268554688
0, 0, 29, 174.5233154296875
0, 0, 30, 173.6393890380859
0, 0, 31, 165.9912109375
0, 0, 32, 164.4033813476562
0, 0, 33, 165.4480743408203
0, 0, 34, 176.9225158691406
0, 0, 35, 173.7101440429688
0, 0, 36, 159.3565368652344
0, 0, 37, 161.9597625732422
0, 0, 38, 166.4478454589844
0, 0, 39, 159.2222595214844
0, 0, 40, 164.5042419433594
0, 0, 41, 166.3666381835938
0, 0, 42, 142.7146301269531
0, 0, 43, 169.898193359375
0, 0, 44, 177.4731750488281
0, 0, 45, 174.0820007324219
0, 0, 46, 168.6045989990234
0, 0, 47, 167.8307495117188
0, 0, 48, 169.4498748779297
0, 0, 49, 182.301513671875
0, 0, 50, 168.4027099609375
0, 0, 51, 162.3218078613281
0, 0, 52, 163.1964569091797
0, 0, 53, 172.7254028320312
0, 0, 54, 159.7266998291016
0, 0, 55, 163.6975250244141
0, 0, 56, 188.7253112792969
0, 0, 57, 169.8059234619141
0, 0, 58, 161.5601806640625
0, 0, 59, 172.3398895263672
0, 0, 60, 168.7246704101562
0, 0, 61, 171.5605163574219
0, 0, 62, 183.739501953125
0, 0, 63, 167.4417877197266
0, 0, 64, 164.9789733886719
0, 0, 65, 176.6104431152344
0, 0, 66, 177.4197235107422
0, 0, 67, 163.6615295410156
0, 0, 68, 158.4393157958984
0, 0, 69, 159.0688323974609
0, 0, 70, 169.9840850830078
0, 0, 71, 158.2721252441406
0, 0, 72, 162.9081268310547
0, 0, 73, 171.8046875
0, 0, 74, 163.5020904541016
0, 0, 75, 163.5182800292969
0, 0, 76, 163.9388580322266
0, 0, 77, 172.9659881591797
0, 0, 78, 183.503662109375
0, 0, 79, 175.2448272705078
0, 0, 80, 159.1742095947266
0, 0, 81, 160.0389099121094
0, 0, 82, 180.8979949951172
0, 0, 83, 173.7573394775391
0, 0, 84, 159.7362670898438
0, 0, 85, 181.6772766113281
0, 0, 86, 158.2977142333984
0, 0, 87, 176.7949981689453
0, 0, 88, 176.7355194091797
0, 0, 89, 177.7642669677734
0, 0, 90, 159.6453399658203
0, 0, 91, 183.9356842041016
0, 0, 92, 163.7335052490234
0, 0, 93, 154.6419830322266
0, 0, 94, 168.7012176513672
0, 0, 95, 173.4482421875
0, 0, 96, 183.0676574707031
0, 0, 97, 183.7676544189453
0, 0, 98, 186.8721466064453
0, 0, 99, 171.2274475097656
0, 0, 100, 158.9420013427734
0, 0, 101, 167.2308502197266
0, 0, 102, 170.3130187988281
0, 0, 103, 171.3412628173828
0, 0, 104, 169.109375
0, 0, 105, 177.9974670410156
0, 0, 106, 158.2569427490234
0, 0, 107, 85.05062866210938
0, 0, 108, 22.29677200317383
0, 0, 109, 9.527492523193359
0, 0, 110, 5.462512016296387
0, 0, 111, 6.473231792449951
0, 0, 112, 3.72312068939209
0, 0, 113, 2.467548847198486
0, 0, 114, 2.884012460708618
0, 0, 115, 2.032378673553467
0, 0, 116, 1.223444700241089
0, 0, 117, 2.04941201210022
0, 0, 118, 2.351507902145386
0, 0, 119, 1.95909595489502
0, 0, 120, 2.038397312164307
0, 0, 121, 3.278190612792969
0, 0, 122, 4.574745655059814
0, 0, 123, 4.52282190322876
0, 0, 124, 2.104645013809204
0, 0, 125, 2.329859972000122
0, 0, 126, 2.552456617355347
0, 0, 127, 1.615542650222778
0, 1, 0, 1.542245864868164
0, 1, 1, 5.697379112243652
0, 1, 2, 2.722515344619751
0, 1, 3, 1.010857343673706
0, 1, 4, 2.581126928329468
0, 1, 5, 2.119678735733032
0, 1, 6, 1.428470849990845
0, 1, 7, 1.885219931602478
0, 1, 8, 1.358491063117981
0, 1, 9, 1.067415118217468
0, 1, 10, 1.634167313575745
0, 1, 11, 4.375413417816162
0, 1, 12, 3.485991477966309
0, 1, 13, 3.627663612365723
0, 1, 14, 5.389837741851807
0, 1, 15, 6.401532649993896
0, 1, 16, 7.18829345703125
0, 1, 17, 5.353302955627441
0, 1, 18, 11.17107963562012
0, 1, 19, 39.30266189575195
0, 1, 20, 126.0118179321289
0, 1, 21, 177.1947479248047
0, 1, 22, 193.6038665771484
0, 1, 23, 187.2379760742188
0, 1, 24, 179.5810699462891
0, 1, 25, 191.5526885986328
0, 1, 26, 197.2690124511719
0, 1, 27, 187.1928405761719
0, 1, 28, 189.2430114746094
0, 1, 29, 184.0986938476562
0, 1, 30, 179.1321868896484
0, 1, 31, 181.6890411376953
0, 1, 32, 189.1773223876953
0, 1, 33, 190.8860168457031
0, 1, 34, 186.3329772949219
0, 1, 35, 193.6694030761719
0, 1, 36, 208.0726928710938
0, 1, 37, 184.8011474609375
0, 1, 38, 165.1362457275391
0, 1, 39, 171.4104309082031
0, 1, 40, 178.7654571533203
0, 1, 41, 185.2326812744141
0, 1, 42, 182.460205078125
0, 1, 43, 184.9836578369141
0, 1, 44, 167.7595062255859
0, 1, 45, 186.8963165283203
0, 1, 46, 170.1208038330078
0, 1, 47, 186.5701446533203
0, 1, 48, 186.2325439453125
0, 1, 49, 186.3416595458984
0, 1, 50, 177.6886444091797
0, 1, 51, 190.2994995117188
0, 1, 52, 197.4570465087891
0, 1, 53, 197.6112365722656
0, 1, 54, 186.2204132080078
0, 1, 55, 164.7495269775391
0, 1, 56, 179.1415252685547
0, 1, 57, 180.2118530273438
0, 1, 58, 189.3761901855469
0, 1, 59, 194.1871948242188
0, 1, 60, 187.7236022949219
0, 1, 61, 177.9859008789062
0, 1, 62, 205.169677734375
0, 1, 63, 174.2893524169922
0, 1, 64, 172.5179901123047
0, 1, 65, 187.3444213867188
0, 1, 66, 203.9052429199219
0, 1, 67, 182.7507934570312
0, 1, 68, 187.8868408203125
0, 1, 69, 188.493896484375
0, 1, 70, 186.8110504150391
0, 1, 71, 171.6995849609375
0, 1, 72, 192.9483489990234
0, 1, 73, 189.44140625
0, 1, 74, 201.7136535644531
0, 1, 75, 183.4757080078125
0, 1, 76, 173.8184814453125
0, 1, 77, 194.447021484375
0, 1, 78, 190.6540985107422
0, 1, 79, 203.2371673583984
0, 1, 80, 186.9559326171875
0, 1, 81, 176.5574188232422
0, 1, 82, 206.5182952880859
0, 1, 83, 212.0480651855469
0, 1, 84, 181.2643585205078
0, 1, 85, 169.237548828125
0, 1, 86, 167.7461853027344
0, 1, 87, 184.9906158447266
0, 1, 88, 175.4258728027344
0, 1, 89, 187.0229034423828
0, 1, 90, 213.2673187255859
0, 1, 91, 180.6644439697266
0, 1, 92, 184.6225738525391
0, 1, 93, 181.5231628417969
0, 1, 94, 185.9468078613281
0, 1, 95, 183.6952362060547
0, 1, 96, 196.5036010742188
0, 1, 97, 183.5525665283203
0, 1, 98, 186.9055023193359
0, 1, 99, 175.7692108154297
0, 1, 100, 173.6131744384766
0, 1, 101, 178.7169189453125
0, 1, 102, 182.4793701171875
0, 1, 103, 172.4873657226562
0, 1, 104, 188.9197692871094
0, 1, 105, 180.9806213378906
0, 1, 106, 165.0213470458984
0, 1, 107, 125.0068511962891
0, 1, 108, 46.02895355224609
0, 1, 109, 9.48538875579834
0, 1, 110, 7.319114685058594
0, 1, 111, 6.59154224395752
0, 1, 112, 8.409207344055176
0, 1, 113, 7.29390287399292
0, 1, 114, 5.655620574951172
0, 1, 115, 2.269217729568481
0, 1, 116, 3.397711277008057
0, 1, 117, 2.613851547241211
0, 1, 118, 2.203667640686035
0, 1, 119, 2.522466421127319
0, 1, 120, 3.388957023620605
0, 1, 121, 4.345539093017578
0, 1, 122, 1.873766303062439
0, 1, 123, 2.154597997665405
0, 1, 124, 1.778707146644592
0, 1, 125, 1.893773794174194
0, 1, 126, 2.391870021820068
0, 1, 127, 2.107587575912476
0, 2, 0, 2.024781703948975
0, 2, 1, 3.393064498901367
0, 2, 2, 2.156736373901367
0, 2, 3, 0.7265796065330505
0, 2, 4, 1.020071864128113
0, 2, 5, 1.334407925605774
0, 2, 6, 2.411143064498901
0, 2, 7, 2.729929685592651
0, 2, 8, 1.251749515533447
0, 2, 9, 2.561972856521606
0, 2, 10, 4.254408836364746
0, 2, 11, 4.467648983001709
0, 2, 12, 2.748194217681885
0, 2, 13, 4.298007488250732
0, 2, 14, 5.225839138031006
0, 2, 15, 5.100157737731934
0, 2, 16, 3.798800706863403
0, 2, 17, 8.913181304931641
0, 2, 18, 14.66502952575684
0, 2, 19, 77.51911163330078
0, 2, 20, 162.9506072998047
0, 2, 21, 182.4855651855469
0, 2, 22, 193.3989105224609
0, 2, 23, 183.9313812255859
0, 2, 24, 173.1013488769531
0, 2, 25, 183.9126434326172
0, 2, 26, 181.1693420410156
0, 2, 27, 188.4173126220703
0, 2, 28, 171.6227111816406
0, 2, 29, 170.7230834960938
0, 2, 30, 187.3923645019531
0, 2, 31, 182.9741668701172
0, 2, 32, 183.5763244628906
0, 2, 33, 189.6217651367188
0, 2, 34, 197.4153747558594
0, 2, 35, 181.8605499267578
0, 2, 36, 185.0790252685547
0, 2, 37, 182.1485137939453
0, 2, 38, 185.4637298583984
0, 2, 39, 167.6666259765625
0, 2, 40, 184.3167114257812
0, 2, 41, 184.8003387451172
0, 2, 42, 190.9362030029297
0, 2, 43, 193.9189147949219
0, 2, 44, 190.7256469726562
0, 2, 45, 189.6764373779297
0, 2, 46, 195.7716827392578
0, 2, 47, 189.4863739013672
0, 2, 48, 177.7399597167969
0, 2, 49, 198.2794494628906
0, 2, 50, 168.2386169433594
0, 2, 51, 183.56005859375
0, 2, 52, 185.6425018310547
0, 2, 53, 195.9518737792969
0, 2, 54, 177.6087951660156
0, 2, 55, 173.2921295166016
0, 2, 56, 181.6172485351562
0, 2, 57, 199.9238739013672
0, 2, 58, 186.1383819580078
0, 2, 59, 190.4321136474609
0, 2, 60, 196.6066284179688
0, 2, 61, 192.9792327880859
0, 2, 62, 188.8829956054688
0, 2, 63, 171.8002471923828
0, 2, 64, 190.5868072509766
0, 2, 65, 203.3132171630859
0, 2, 66, 196.0821685791016
0, 2, 67, 184.0547485351562
0, 2, 68, 182.7744903564453
0, 2, 69, 186.9618072509766
0, 2, 70, 203.037841796875
0, 2, 71, 175.1766967773438
0, 2, 72, 186.4737854003906
0, 2, 73, 177.6327362060547
0, 2, 74, 180.8790435791016
0, 2, 75, 197.4950256347656
0, 2, 76, 183.8270263671875
0, 2, 77, 177.0156707763672
0, 2, 78, 197.3499450683594
0, 2, 79, 178.9913330078125
0, 2, 80, 186.1300964355469
0, 2, 81, 188.5807800292969
0, 2, 82, 206.0199737548828
0, 2, 83, 203.3180999755859
0, 2, 84, 188.0664672851562
0, 2, 85, 170.7119750976562
0, 2, 86, 195.7265930175781
0, 2, 87, 171.7177734375
0, 2, 88, 180.3162994384766
0, 2, 89, 184.1904144287109
0, 2, 90, 178.2857818603516
0, 2, 91, 175.1934661865234
0, 2, 92, 197.3588104248047
0, 2, 93, 194.8915100097656
0, 2, 94, 199.1286163330078
0, 2, 95, 193.6337585449219
0, 2, 96, 186.2583923339844
0, 2, 97, 172.2692108154297
0, 2, 98, 174.4069519042969
0, 2, 99, 161.9233551025391
0, 2, 100, 190.4038543701172
0, 2, 101, 196.4604339599609
0, 2, 102, 176.9226226806641
0, 2, 103, 199.4400787353516
0, 2, 104, 187.2203674316406
0, 2, 105, 202.4515075683594
0, 2, 106, 193.9694671630859
0, 2, 107, 150.841064453125
0, 2, 108, 79.06970977783203
0, 2, 109, 17.81374931335449
0, 2, 110, 7.672851085662842
0, 2, 111, 5.372848987579346
0, 2, 112, 3.489880561828613
0, 2, 113, 3.888834238052368
0, 2, 114, 8.300292015075684
0, 2, 115, 4.771889209747314
0, 2, 116, 2.30682635307312
0, 2, 117, 4.172743320465088
0, 2, 118, 3.30642557144165
0, 2, 119, 5.487093925476074
0, 2, 120, 1.153599977493286
0, 2, 121, 3.29909348487854
0, 2, 122, 1.358774900436401
0, 2, 123, 1.851483345031738
0, 2, 124, 2.611888885498047
0, 2, 125, 2.033464193344116
0, 2, 126, 3.569728851318359
0, 2, 127, 0.8317368626594543
0, 3, 0, 2.907875776290894
0, 3, 1, 2.159856796264648
0, 3, 2, 2.182889461517334
0, 3, 3, 0.9586326479911804
0, 3, 4, 5.772081851959229
0, 3, 5, 1.442290067672729
0, 3, 6, 1.628291964530945
0, 3, 7, 1.348397493362427
0, 3, 8, 1.812027454376221
0, 3, 9, 1.649008750915527
0, 3, 10, 2.785649538040161
0, 3, 11, 4.858624458312988
0, 3, 12, 3.87449836730957
0, 3, 13, 3.772838830947876
0, 3, 14, 5.309012413024902
0, 3, 15, 7.16325569152832
0, 3, 16, 8.83195686340332
0, 3, 17, 5.928167819976807
0, 3, 18, 34.94368743896484
0, 3, 19, 116.0148162841797
0, 3, 20, 179.9996490478516
0, 3, 21, 172.5571594238281
0, 3, 22, 178.8377685546875
0, 3, 23, 187.6783752441406
0, 3, 24, 179.2838745117188
0, 3, 25, 169.2919006347656
0, 3, 26, 180.4382171630859
0, 3, 27, 190.9504699707031
0, 3, 28, 181.8009185791016
0, 3, 29, 198.2021179199219
0, 3, 30, 186.1811218261719
0, 3, 31, 194.0632781982422
0, 3, 32, 205.5982666015625
0, 3, 33, 195.4597015380859
0, 3, 34, 187.2894744873047
0, 3, 35, 173.7761383056641
0, 3, 36, 185.2732849121094
0, 3, 37, 199.7527923583984
0, 3, 38, 190.9113922119141
0, 3, 39, 184.6120758056641
0, 3, 40, 166.1602020263672
0, 3, 41, 172.9125061035156
0, 3, 42, 186.5580902099609
0, 3, 43, 182.6138305664062
0, 3, 44, 202.5318145751953
0, 3, 45, 207.7379150390625
0, 3, 46, 199.2707214355469
0, 3, 47, 194.2125396728516
0, 3, 48, 194.7202911376953
0, 3, 49, 179.8864288330078
0, 3, 50, 188.3825531005859
0, 3, 51, 174.9061279296875
0, 3, 52, 187.3362274169922
0, 3, 53, 178.0922698974609
0, 3, 54, 179.1018981933594
0, 3, 55, 176.6068115234375
0, 3, 56, 182.0980072021484
0, 3, 57, 175.2314910888672
0, 3, 58, 201.8294677734375
0, 3, 59, 196.4359130859375
0, 3, 60, 185.9034881591797
0, 3, 61, 181.7405242919922
0, 3, 62, 184.6060180664062
0, 3, 63, 183.6367950439453
0, 3, 64, 187.6419372558594
0, 3, 65, 186.5341339111328
0, 3, 66, 175.1984252929688
0, 3, 67, 191.6312103271484
0, 3, 68, 211.1246337890625
0, 3, 69, 188.9471893310547
0, 3, 70, 185.2472229003906
0, 3, 71, 196.8747863769531
0, 3, 72, 186.3788909912109
0, 3, 73, 186.2640228271484
0, 3, 74, 192.5318756103516
0, 3, 75, 192.5075073242188
0, 3, 76, 191.3605194091797
0, 3, 77, 196.9486541748047
0, 3, 78, 187.6867980957031
0, 3, 79, 186.6466217041016
0, 3, 80, 189.1745910644531
0, 3, 81, 183.4207916259766
0, 3, 82, 180.2711334228516
0, 3, 83, 194.54736328125
0, 3, 84, 198.95654296875
0, 3, 85, 191.7769317626953
0, 3, 86, 204.1810302734375
0, 3, 87, 197.0701141357422
0, 3, 88, 191.8568267822266
0, 3, 89, 193.5550842285156
0, 3, 90, 174.7259521484375
0, 3, 91, 157.1508636474609
0, 3, 92, 206.2339172363281
0, 3, 93, 195.6125335693359
0, 3, 94, 192.4952087402344
0, 3, 95, 211.0775756835938
0, 3, 96, 209.2843017578125
0, 3, 97, 167.7767944335938
0, 3, 98, 167.5280151367188
0, 3, 99, 181.331787109375
0, 3, 100, 176.0857391357422
0, 3, 101, 197.5896606445312
0, 3, 102, 194.9504547119141
0, 3, 103, 193.8741912841797
0, 3, 104, 201.9185333251953
0, 3, 105, 176.7703399658203
0, 3, 106, 181.7182312011719
0, 3, 107, 169.2610321044922
0, 3, 108, 107.8817596435547
0, 3, 109, 27.83880615234375
0, 3, 110, 7.457839012145996
0, 3, 111, 7.771244525909424
0, 3, 112, 3.588831663131714
0, 3, 113, 7.076942920684814
0, 3, 114, 4.327728748321533
0, 3, 115, 4.868290424346924
0, 3, 116, 6.556159973144531
0, 3, 117, 4.171065807342529
0, 3, 118, 2.388869762420654
0, 3, 119, 2.070054292678833
0, 3, 120, 2.813355684280396
0, 3, 121, 2.738555669784546
0, 3, 122, 1.624400496482849
0, 3, 123, 3.285833597183228
0, 3, 124, 1.379563093185425
0, 3, 125, 1.92061710357666
0, 3, 126, 3.35372257232666
0, 3, 127, 0.8661607503890991
0, 4, 0, 1.853897571563721
0, 4, 1, 0.7411008477210999
0, 4, 2, 2.525829553604126
0, 4, 3, 3.383925437927246
0, 4, 4, 1.58450722694397
0, 4, 5, 2.935243129730225
0, 4, 6, 3.292602777481079
0, 4, 7, 3.428903818130493
0, 4, 8, 1.52888548374176
0, 4, 9, 3.409595966339111
0, 4, 10, 2.635521650314331
0, 4, 11, 4.242203712463379
0, 4, 12, 4.997891902923584
0, 4, 13, 5.150088310241699
0, 4, 14, 3.771956205368042
0, 4, 15, 8.272146224975586
0, 4, 16, 6.501514434814453
0, 4, 17, 11.18638038635254
0, 4, 18, 54.96239852905273
0, 4, 19, 153.7526092529297
0, 4, 20, 192.96337890625
0, 4, 21, 169.6344451904297
0, 4, 22, 187.6129455566406
0, 4, 23, 195.9295501708984
0, 4, 24, 192.4385070800781
0, 4, 25, 199.8784942626953
0, 4, 26, 183.5007476806641
0, 4, 27, 192.5993194580078
0, 4, 28, 179.9823608398438
0, 4, 29, 205.7314453125
0, 4, 30, 197.6288909912109
0, 4, 31, 192.6927642822266
0, 4, 32, 213.5329895019531
0, 4, 33, 189.3043670654297
0, 4, 34, 192.3678741455078
0, 4, 35, 215.2010803222656
0, 4, 36, 192.6515045166016
0, 4, 37, 176.5906219482422
0, 4, 38, 194.6000518798828
0, 4, 39, 190.5599060058594
0, 4, 40, 186.2641754150391
0, 4, 41, 190.5626678466797
0, 4, 42, 206.1434326171875
0, 4, 43, 173.6206207275391
0, 4, 44, 183.9546203613281
0, 4, 45, 195.9728393554688
0, 4, 46, 185.7212371826172
0, 4, 47, 180.3275451660156
0, 4, 48, 184.9132232666016
0, 4, 49, 176.6350402832031
0, 4, 50, 186.4533843994141
0, 4, 51, 197.7572784423828
0, 4, 52, 223.2110137939453
0, 4, 53, 204.9553985595703
0, 4, 54, 189.1476440429688
0, 4, 55, 174.7507476806641
0, 4, 56, 191.2931976318359
0, 4, 57, 191.6660461425781
0, 4, 58, 188.9692535400391
0, 4, 59, 190.7880859375
0, 4, 60, 196.0555572509766
0, 4, 61, 193.2297973632812
0, 4, 62, 189.68994140625
0, 4, 63, 178.1053314208984
0, 4, 64, 211.5383911132812
0, 4, 65, 191.4851226806641
0, 4, 66, 200.8997497558594
0, 4, 67, 200.2529449462891
0, 4, 68, 200.8795318603516
0, 4, 69, 199.1152038574219
0, 4, 70, 206.1122894287109
0, 4, 71, 207.00634765625
0, 4, 72, 214.509765625
0, 4, 73, 185.1959075927734
0, 4, 74, 180.4179534912109
0, 4, 75, 184.8343353271484
0, 4, 76, 189.9725952148438
0, 4, 77, 183.3687133789062
0, 4, 78, 194.8984832763672
0, 4, 79, 204.2017211914062
0, 4, 80, 211.5396575927734
0, 4, 81, 197.6936492919922
0, 4, 82, 182.9660949707031
0, 4, 83, 169.7841339111328
0, 4, 84, 192.33740234375
0, 4, 85, 196.8910675048828
0, 4, 86, 182.3431549072266
0, 4, 87, 182.8770751953125
0, 4, 88, 203.7437286376953
0, 4, 89, 187.2867279052734
0, 4, 90, 211.1015472412109
0, 4, 91, 189.2600402832031
0, 4, 92, 196.3677825927734
0, 4, 93, 195.8342437744141
0, 4, 94, 182.3459167480469
0, 4, 95, 173.0479888916016
0, 4, 96, 189.3630065917969
0, 4, 97, 192.1882019042969
0, 4, 98, 201.424072265625
0, 4, 99, 182.8710174560547
0, 4, 100, 182.3454742431641
0, 4, 101, 177.2244873046875
0, 4, 102, 172.3364715576172
0, 4, 103, 185.6223754882812
0, 4, 104, 209.1668701171875
0, 4, 105, 190.3161010742188
0, 4, 106, 178.6267852783203
0, 4, 107, 181.0443725585938
0, 4, 108, 152.0013275146484
0, 4, 109, 51.19376754760742
0, 4, 110, 10.85049724578857
0, 4, 111, 9.801386833190918
0, 4, 112, 5.606068134307861
0, 4, 113, 5.597733974456787
0, 4, 114, 6.598581790924072
0, 4, 115, 4.895215511322021
0, 4, 116, 5.464666366577148
0, 4, 117, 2.726088285446167
0, 4, 118, 3.870481491088867
0, 4, 119, 4.532782077789307
0, 4, 120, 2.30789041519165
0, 4, 121, 1.464896202087402
0, 4, 122, 3.092815637588501
0, 4, 123, 1.203263282775879
0, 4, 124, 5.252108573913574
0, 4, 125, 3.345223188400269
0, 4, 126, 0.9874439239501953
0, 4, 127, 2.069790601730347
0, 5, 0, 1.201174139976501
0, 5, 1, 2.675063133239746
0, 5, 2, 7.003536224365234
0, 5, 3, 4.48707914352417
0, 5, 4, 1.602656602859497
0, 5, 5, 1.552075266838074
0, 5, 6, 2.918169260025024
0, 5, 7, 3.375921249389648
0, 5, 8, 2.641533136367798
0, 5, 9, 2.030421257019043
0, 5, 10, 6.121940135955811
0, 5, 11, 2.748694658279419
0, 5, 12, 3.46837329864502
0, 5, 13, 4.013593196868896
0, 5, 14, 5.347108364105225
0, 5, 15, 7.997868061065674
0, 5, 16, 6.875223636627197
0, 5, 17, 21.79787063598633
0, 5, 18, 82.94017028808594
0, 5, 19, 163.1204223632812
0, 5, 20, 183.2012329101562
0, 5, 21, 177.3739471435547
0, 5, 22, 171.3776550292969
0, 5, 23, 200.3888854980469
0, 5, 24, 186.9881134033203
0, 5, 25, 211.3789825439453
0, 5, 26, 181.7622528076172
0, 5, 27, 193.2148590087891
0, 5, 28, 189.6510009765625
0, 5, 29, 194.9817199707031
0, 5, 30, 177.55126953125
0, 5, 31, 179.6126098632812
0, 5, 32, 187.5212860107422
0, 5, 33, 169.0681915283203
0, 5, 34, 195.2835388183594
0, 5, 35, 196.8015899658203
0, 5, 36, 167.5306701660156
0, 5, 37, 197.4893341064453
0, 5, 38, 181.7418060302734
0, 5, 39, 186.5564270019531
0, 5, 40, 195.8813629150391
0, 5, 41, 176.3122406005859
0, 5, 42, 188.7538146972656
0, 5, 43, 192.3992919921875
0, 5, 44, 201.1483612060547
0, 5, 45, 186.5465698242188
0, 5, 46, 193.6004028320312
0, 5, 47, 181.1098175048828
0, 5, 48, 177.9455718994141
0, 5, 49, 180.3216400146484
0, 5, 50, 185.7583923339844
0, 5, 51, 172.9024963378906
0, 5, 52, 169.1779022216797
0, 5, 53, 182.7518920898438
0, 5, 54, 173.2672271728516
0, 5, 55, 217.4477691650391
0, 5, 56, 181.7069396972656
0, 5, 57, 207.6920166015625
0, 5, 58, 180.7023468017578
0, 5, 59, 180.5233306884766
0, 5, 60, 218.1457061767578
0, 5, 61, 184.2675476074219
0, 5, 62, 180.8193054199219
0, 5, 63, 181.0758209228516
0, 5, 64, 194.2391662597656
0, 5, 65, 210.8945159912109
0, 5, 66, 192.5838012695312
0, 5, 67, 197.8270721435547
0, 5, 68, 185.8837738037109
0, 5, 69, 185.8165130615234
0, 5, 70, 185.2140960693359
0, 5, 71, 193.9055938720703
0, 5, 72, 197.363525390625
0, 5, 73, 201.27587890625
0, 5, 74, 178.9905853271484
0, 5, 75, 202.1332702636719
0, 5, 76, 214.7957611083984
0, 5, 77, 181.0370178222656
0, 5, 78, 195.563720703125
0, 5, 79, 190.0425262451172
0, 5, 80, 197.7752838134766
0, 5, 81, 203.4384613037109
0, 5, 82, 202.0674743652344
0, 5, 83, 189.414306640625
0, 5, 84, 205.7283935546875
0, 5, 85, 175.6062774658203
0, 5, 86, 194.7122955322266
0, 5, 87, 187.7451477050781
0, 5, 88, 177.6122894287109
0, 5, 89, 194.2125701904297
0, 5, 90, 199.4796600341797
0, 5, 91, 194.8639221191406
0, 5, 92, 190.5507965087891
0, 5, 93, 189.6753540039062
0, 5, 94, 207.61083984375
0, 5, 95, 177.7053985595703
0, 5, 96, 182.3482971191406
0, 5, 97, 191.6531372070312
0, 5, 98, 188.7372283935547
0, 5, 99, 195.5303192138672
0, 5, 100, 185.2913208007812
0, 5, 101, 195.2145843505859
0, 5, 102, 180.5863647460938
0, 5, 103, 175.8592681884766
0, 5, 104, 190.5443878173828
0, 5, 105, 189.4657287597656
0, 5, 106, 177.0912170410156
0, 5, 107, 182.1492462158203
0, 5, 108, 177.5497283935547
0, 5, 109, 88.80374908447266
0, 5, 110, 29.73429298400879
0, 5, 111, 9.265299797058105
0, 5, 112, 6.854815483093262
0, 5, 113, 6.034811973571777
0, 5, 114, 7.792566776275635
0, 5, 115, 5.02826976776123
0, 5, 116, 4.353014469146729
0, 5, 117, 3.492477655410767
0, 5, 118, 4.467339038848877
0, 5, 119, 4.193847179412842
0, 5, 120, 2.797147989273071
0, 5, 121, 4.232502460479736
0, 5, 122, 4.153738498687744
0, 5, 123, 3.881449460983276
0, 5, 124, 2.877439737319946
0, 5, 125, 1.610247015953064
0, 5, 126, 2.210855960845947
0, 5, 127, 1.774621367454529
0, 6, 0, 4.315187931060791
0, 6, 1, 2.745649337768555
0, 6, 2, 3.281651258468628
0, 6, 3, 1.747741222381592
0, 6, 4, 3.138176679611206
0, 6, 5, 2.001717329025269
0, 6, 6, 1.850525856018066
0, 6, 7, 4.992818355560303
0, 6, 8, 4.059530258178711
0, 6, 9, 2.921054124832153
0, 6, 10, 3.786180973052979
0, 6, 11, 3.561672925949097
0, 6, 12, 6.039224147796631
0, 6, 13, 5.759514808654785
0, 6, 14, 5.392451286315918
0, 6, 15, 7.395082950592041
0, 6, 16, 13.57375431060791
0, 6, 17, 28.63834762573242
0, 6, 18, 111.9020919799805
0, 6, 19, 191.8910522460938
0, 6, 20, 194.3965148925781
0, 6, 21, 198.9482421875
0, 6, 22, 190.8089141845703
0, 6, 23, 190.5857849121094
0, 6, 24, 201.5987243652344
0, 6, 25, 183.6182556152344
0, 6, 26, 187.4395446777344
0, 6, 27, 191.7547454833984
0, 6, 28, 189.0976409912109
0, 6, 29, 210.9307098388672
0, 6, 30, 188.9787750244141
0, 6, 31, 192.5309143066406
0, 6, 32, 206.2709808349609
0, 6, 33, 184.2888031005859
0, 6, 34, 197.928466796875
0, 6, 35, 187.0769653320312
0, 6, 36, 179.7259368896484
0, 6, 37, 183.3233642578125
0, 6, 38, 184.7657470703125
0, 6, 39, 194.8233337402344
0, 6, 40, 172.8175354003906
0, 6, 41, 185.1097869873047
0, 6, 42, 174.1771240234375
0, 6, 43, 210.2371520996094
0, 6, 44, 209.4021911621094
0, 6, 45, 194.3511047363281
0, 6, 46, 188.3551940917969
0, 6, 47, 204.7976226806641
0, 6, 48, 188.7264404296875
0, 6, 49, 178.7322082519531
0, 6, 50, 181.8048248291016
0, 6, 51, 195.9924011230469
0, 6, 52, 198.5082092285156
0, 6, 53, 186.5887603759766
0, 6, 54, 174.9481353759766
0, 6, 55, 195.8919219970703
0, 6, 56, 202.1982879638672
0, 6, 57, 191.9792327880859
0, 6, 58, 178.1528472900391
0, 6, 59, 192.9142303466797
0, 6, 60, 185.4800720214844
0, 6, 61, 193.6920013427734
0, 6, 62, 196.2013549804688
0, 6, 63, 186.4672241210938
0, 6, 64, 167.9868927001953
0, 6, 65, 185.3764343261719
0, 6, 66, 196.9841613769531
0, 6, 67, 215.0694732666016
0, 6, 68, 180.4915618896484
0, 6, 69, 170.8447875976562
0, 6, 70, 187.2957458496094
0, 6, 71, 172.5421447753906
0, 6, 72, 176.7751007080078
0, 6, 73, 176.8406829833984
0, 6, 74, 210.0853118896484
0, 6, 75, 226.9919586181641
0, 6, 76, 183.693359375
0, 6, 77, 172.5697631835938
0, 6, 78, 176.1849212646484
0, 6, 79, 187.0819854736328
0, 6, 80, 186.5321502685547
0, 6, 81, 209.1500244140625
0, 6, 82, 194.9987182617188
0, 6, 83, 194.5030364990234
0, 6, 84, 197.48583984375
0, 6, 85, 182.7900695800781
0, 6, 86, 202.2846069335938
0, 6, 87, 186.1666412353516
0, 6, 88, 191.6061096191406
0, 6, 89, 190.7893524169922
0, 6, 90, 206.0322265625
0, 6, 91, 199.145751953125
0, 6, 92, 172.1878356933594
0, 6, 93, 191.9527130126953
0, 6, 94, 189.1619720458984
0, 6, 95, 186.8455200195312
0, 6, 96, 188.9112396240234
0, 6, 97, 195.3645172119141
0, 6, 98, 182.723388671875
0, 6, 99, 174.93798828125
0, 6, 100, 201.8346252441406
0, 6, 101, 167.5158538818359
0, 6, 102, 202.7383880615234
0, 6, 103, 196.1992340087891
0, 6, 104, 184.1038665771484
0, 6, 105, 193.4659881591797
0, 6, 106, 177.6598358154297
0, 6, 107, 194.8316650390625
0, 6, 108, 170.4053497314453
0, 6, 109, 114.9981460571289
0, 6, 110, 33.95922088623047
0, 6, 111, 10.67967319488525
0, 6, 112, 7.979321479797363
0, 6, 113, 5.481713771820068
0, 6, 114, 5.134288311004639
0, 6, 115, 3.797157287597656
0, 6, 116, 3.44513988494873
0, 6, 117, 2.806373119354248
0, 6, 118, 2.74124002456665
0, 6, 119, 3.427270412445068
0, 6, 120, 4.956354141235352
0, 6, 121, 3.666123628616333
0, 6, 122, 3.550345182418823
0, 6, 123, 3.093961954116821
0, 6, 124, 2.586572885513306
0, 6, 125, 2.496477127075195
0, 6, 126, 2.056914806365967
0, 6, 127, 2.880437612533569
0, 7, 0, 3.489884614944458
0, 7, 1, 2.724061965942383
0, 7, 2, 2.787379503250122
0, 7, 3, 3.330491542816162
0, 7, 4, 0.8669074773788452
0, 7, 5, 1.418399691581726
0, 7, 6, 2.947044134140015
0, 7, 7, 1.667481303215027
0, 7, 8, 2.874219655990601
0, 7, 9, 3.197781562805176
0, 7, 10, 5.624523639678955
0, 7, 11, 2.810975074768066
0, 7, 12, 3.621548652648926
0, 7, 13, 5.852511882781982
0, 7, 14, 7.160621643066406
0, 7, 15, 7.3736572265625
0, 7, 16, 16.05471038818359
0, 7, 17, 52.8060302734375
0, 7, 18, 161.6118774414062
0, 7, 19, 183.6138000488281
0, 7, 20, 179.8522491455078
0, 7, 21, 181.1197814941406
0, 7, 22, 191.6541442871094
0, 7, 23, 202.7951049804688
0, 7, 24, 178.871826171875
0, 7, 25, 214.5012664794922
0, 7, 26, 189.2859954833984
0, 7, 27, 181.9078521728516
0, 7, 28, 184.4151153564453
0, 7, 29, 208.3116302490234
0, 7, 30, 192.4033203125
0, 7, 31, 178.38427734375
0, 7, 32, 189.5782470703125
0, 7, 33, 180.5613708496094
0, 7, 34, 193.2414855957031
0, 7, 35, 197.28564453125
0, 7, 36, 185.8898315429688
0, 7, 37, 213.6314849853516
0, 7, 38, 190.3889617919922
0, 7, 39, 173.1607818603516
0, 7, 40, 184.8961486816406
0, 7, 41, 184.4929351806641
0, 7, 42, 178.0901031494141
0, 7, 43, 176.5772094726562
0, 7, 44, 179.3882598876953
0, 7, 45, 175.4056243896484
0, 7, 46, 189.8455810546875
0, 7, 47, 197.9685821533203
0, 7, 48, 186.0391998291016
0, 7, 49, 198.1535797119141
0, 7, 50, 187.9991149902344
0, 7, 51, 205.7780303955078
0, 7, 52, 204.7668151855469
0, 7, 53, 191.5140533447266
0, 7, 54, 194.9568176269531
0, 7, 55, 202.893798828125
0, 7, 56, 183.2051086425781
0, 7, 57, 182.7404022216797
0, 7, 58, 193.3543090820312
0, 7, 59, 186.3283996582031
0, 7, 60, 201.9608154296875
0, 7, 61, 171.05029296875
0, 7, 62, 203.0772552490234
0, 7, 63, 189.5438842773438
0, 7, 64, 199.2534484863281
0, 7, 65, 196.1976776123047
0, 7, 66, 206.2714080810547
0, 7, 67, 221.5743713378906
0, 7, 68, 164.1853332519531
0, 7, 69, 194.6585083007812
0, 7, 70, 217.5731201171875
0, 7, 71, 183.9224090576172
0, 7, 72, 179.9932556152344
0, 7, 73, 177.2282104492188
0, 7, 74, 207.4982757568359
0, 7, 75, 205.8787994384766
0, 7, 76, 215.2609710693359
0, 7, 77, 176.3607482910156
0, 7, 78, 178.5038909912109
0, 7, 79, 193.4069976806641
0, 7, 80, 196.4916839599609
0, 7, 81, 215.0709533691406
0, 7, 82, 184.7041168212891
0, 7, 83, 204.9042663574219
0, 7, 84, 191.9370880126953
0, 7, 85, 185.9985198974609
0, 7, 86, 201.2611389160156
0, 7, 87, 225.5489959716797
0, 7, 88, 194.4458160400391
0, 7, 89, 178.1451110839844
0, 7, 90, 182.0165863037109
0, 7, 91, 193.9322662353516
0, 7, 92, 196.0188903808594
0, 7, 93, 198.2138214111328
0, 7, 94, 176.8500061035156
0, 7, 95, 198.3789520263672
0, 7, 96, 209.5968322753906
0, 7, 97, 189.1224060058594
0, 7, 98, 176.9258117675781
0, 7, 99, 196.5661163330078
0, 7, 100, 182.2159271240234
0, 7, 101, 199.0736389160156
0, 7, 102, 185.5171051025391
0, 7, 103, 181.8517608642578
0, 7, 104, 174.1024169921875
0, 7, 105, 194.8594055175781
0, 7, 106, 204.8575439453125
0, 7, 107, 172.8909606933594
0, 7, 108, 176.6305236816406
0, 7, 109, 137.2402496337891
0, 7, 110, 54.16601943969727
0, 7, 111, 9.207554817199707
0, 7, 112, 8.518705368041992
0, 7, 113, 8.733938217163086
0, 7, 114, 7.88274097442627
0, 7, 115, 5.969944477081299
0, 7, 116, 8.522068977355957
0, 7, 117, 2.668307065963745
0, 7, 118, 3.779131412506104
0, 7, 119, 2.149805307388306
0, 7, 120, 3.069824457168579
0, 7, 121, 2.150150299072266
0, 7, 122, 5.039925098419189
0, 7, 123, 0.8025975227355957
0, 7, 124, 0.9052662253379822
0, 7, 125, 3.916359901428223
0, 7, 126, 2.098410367965698
0, 7, 127, 0.6666327118873596
0, 8, 0, 4.089102745056152
0, 8, 1, 1.867826581001282
0, 8, 2, 3.603253602981567
0, 8, 3, 1.254860162734985
0, 8, 4, 1.658337116241455
0, 8, 5, 3.010468721389771
0, 8, 6, 3.526790618896484
0, 8, 7, 2.855504035949707
0, 8, 8, 2.37409782409668
0, 8, 9, 5.682963848114014
0, 8, 10, 3.580902338027954
0, 8, 11, 2.364597320556641
0, 8, 12, 3.006376504898071
0, 8, 13, 4.61839771270752
0, 8, 14, 6.308847904205322
0, 8, 15, 7.812601089477539
0, 8, 16, 19.57469940185547
0, 8, 17, 75.45610809326172
0, 8, 18, 143.4177093505859
0, 8, 19, 178.4909210205078
0, 8, 20, 192.9705505371094
0, 8, 21, 192.3531494140625
0, 8, 22, 179.2968292236328
0, 8, 23, 172.21484375
0, 8, 24, 192.1283721923828
0, 8, 25, 185.4909057617188
0, 8, 26, 192.1673126220703
0, 8, 27, 186.0807647705078
0, 8, 28, 187.1622619628906
0, 8, 29, 208.1064453125
0, 8, 30, 198.3678894042969
0, 8, 31, 182.0332183837891
0, 8, 32, 198.4471740722656
0, 8, 33, 206.5803070068359
0, 8, 34, 203.2193145751953
0, 8, 35, 185.5143127441406
0, 8, 36, 181.1200714111328
0, 8, 37, 198.6919250488281
