# TOPAS Version: 3.1.p3
# Parameter File: batch_inserts_134.txt
# Results for scorer Readout_Adipose
# Scored in component: MyBox
# X in 1 bin  of 0.65 cm
# Y in 512 bins of 0.0783984 cm
# Z in 128 bins of 0.078125 cm
# EnergyDeposit ( MeV ) : Sum   
0, 0, 0, 1.308958649635315
0, 0, 1, 4.025411128997803
0, 0, 2, 1.079313397407532
0, 0, 3, 0.8110096454620361
0, 0, 4, 2.747393608093262
0, 0, 5, 1.979995846748352
0, 0, 6, 1.1979900598526
0, 0, 7, 2.338748931884766
0, 0, 8, 1.384623527526855
0, 0, 9, 1.920007705688477
0, 0, 10, 3.010891914367676
0, 0, 11, 3.37920355796814
0, 0, 12, 4.038922309875488
0, 0, 13, 3.278910398483276
0, 0, 14, 5.883321762084961
0, 0, 15, 5.409237384796143
0, 0, 16, 4.152403354644775
0, 0, 17, 7.123687267303467
0, 0, 18, 7.292978286743164
0, 0, 19, 24.05244445800781
0, 0, 20, 93.40259552001953
0, 0, 21, 152.0447845458984
0, 0, 22, 153.0884399414062
0, 0, 23, 143.5939178466797
0, 0, 24, 159.5758056640625
0, 0, 25, 166.6163330078125
0, 0, 26, 166.0325012207031
0, 0, 27, 174.8761596679688
0, 0, 28, 177.8289489746094
0, 0, 29, 176.3164825439453
0, 0, 30, 172.1581115722656
0, 0, 31, 166.9046630859375
0, 0, 32, 164.0023345947266
0, 0, 33, 166.0516967773438
0, 0, 34, 176.6651763916016
0, 0, 35, 174.5479583740234
0, 0, 36, 159.1208190917969
0, 0, 37, 160.9755249023438
0, 0, 38, 166.7804260253906
0, 0, 39, 158.83935546875
0, 0, 40, 164.5830841064453
0, 0, 41, 166.217529296875
0, 0, 42, 142.8337554931641
0, 0, 43, 167.4487762451172
0, 0, 44, 177.6521911621094
0, 0, 45, 173.3248901367188
0, 0, 46, 165.4083557128906
0, 0, 47, 167.3898620605469
0, 0, 48, 168.9755249023438
0, 0, 49, 182.7722320556641
0, 0, 50, 168.9116668701172
0, 0, 51, 162.6636962890625
0, 0, 52, 162.3780212402344
0, 0, 53, 171.9098052978516
0, 0, 54, 161.3915557861328
0, 0, 55, 164.7618408203125
0, 0, 56, 189.997314453125
0, 0, 57, 170.859130859375
0, 0, 58, 161.5354766845703
0, 0, 59, 172.4324493408203
0, 0, 60, 169.2493896484375
0, 0, 61, 170.7639007568359
0, 0, 62, 182.8392486572266
0, 0, 63, 166.1343078613281
0, 0, 64, 164.7860260009766
0, 0, 65, 173.7057800292969
0, 0, 66, 177.4451751708984
0, 0, 67, 164.2427673339844
0, 0, 68, 159.2663879394531
0, 0, 69, 158.3185729980469
0, 0, 70, 169.0531311035156
0, 0, 71, 158.1931915283203
0, 0, 72, 161.4776000976562
0, 0, 73, 171.7234039306641
0, 0, 74, 162.8875732421875
0, 0, 75, 163.6747894287109
0, 0, 76, 163.1198425292969
0, 0, 77, 171.5429534912109
0, 0, 78, 182.1868743896484
0, 0, 79, 174.8411254882812
0, 0, 80, 158.7669067382812
0, 0, 81, 159.3621520996094
0, 0, 82, 182.9823455810547
0, 0, 83, 172.8259429931641
0, 0, 84, 159.9900054931641
0, 0, 85, 181.4565582275391
0, 0, 86, 158.6265106201172
0, 0, 87, 178.2130279541016
0, 0, 88, 178.9701385498047
0, 0, 89, 174.6210784912109
0, 0, 90, 160.7201232910156
0, 0, 91, 186.0068511962891
0, 0, 92, 165.0444641113281
0, 0, 93, 155.1603546142578
0, 0, 94, 168.9665374755859
0, 0, 95, 175.1969757080078
0, 0, 96, 183.5574188232422
0, 0, 97, 183.0804901123047
0, 0, 98, 186.2648315429688
0, 0, 99, 173.6260681152344
0, 0, 100, 158.9226531982422
0, 0, 101, 166.4135437011719
0, 0, 102, 171.3279266357422
0, 0, 103, 170.4936218261719
0, 0, 104, 168.1022491455078
0, 0, 105, 178.8372039794922
0, 0, 106, 159.5114135742188
0, 0, 107, 86.66102600097656
0, 0, 108, 20.53652191162109
0, 0, 109, 10.03373718261719
0, 0, 110, 6.293548107147217
0, 0, 111, 7.079330444335938
0, 0, 112, 4.5517258644104
0, 0, 113, 2.398151397705078
0, 0, 114, 1.598363041877747
0, 0, 115, 4.346793174743652
0, 0, 116, 3.382401943206787
0, 0, 117, 2.839723348617554
0, 0, 118, 3.607180833816528
0, 0, 119, 2.560988187789917
0, 0, 120, 1.292849063873291
0, 0, 121, 4.29566764831543
0, 0, 122, 4.483828067779541
0, 0, 123, 3.617439746856689
0, 0, 124, 2.649750709533691
0, 0, 125, 1.838141083717346
0, 0, 126, 0.7650637626647949
0, 0, 127, 1.641719460487366
0, 1, 0, 1.581955552101135
0, 1, 1, 3.911413669586182
0, 1, 2, 4.134750366210938
0, 1, 3, 1.308659553527832
0, 1, 4, 2.345846652984619
0, 1, 5, 1.793404102325439
0, 1, 6, 1.232530474662781
0, 1, 7, 2.161481857299805
0, 1, 8, 1.5043123960495
0, 1, 9, 2.306977510452271
0, 1, 10, 1.991911292076111
0, 1, 11, 3.19917893409729
0, 1, 12, 3.430856704711914
0, 1, 13, 3.461428642272949
0, 1, 14, 5.566730499267578
0, 1, 15, 6.506263256072998
0, 1, 16, 7.258487224578857
0, 1, 17, 4.918604373931885
0, 1, 18, 10.77220439910889
0, 1, 19, 39.69390106201172
0, 1, 20, 125.6249771118164
0, 1, 21, 177.1515350341797
0, 1, 22, 193.4178924560547
0, 1, 23, 186.2332305908203
0, 1, 24, 179.7043609619141
0, 1, 25, 191.2441558837891
0, 1, 26, 196.8092346191406
0, 1, 27, 185.6268463134766
0, 1, 28, 188.4683837890625
0, 1, 29, 184.6790924072266
0, 1, 30, 179.6865539550781
0, 1, 31, 182.2032318115234
0, 1, 32, 189.5103302001953
0, 1, 33, 189.671630859375
0, 1, 34, 185.165283203125
0, 1, 35, 193.3713989257812
0, 1, 36, 204.7546844482422
0, 1, 37, 185.0551605224609
0, 1, 38, 164.8224182128906
0, 1, 39, 172.3089447021484
0, 1, 40, 178.9789123535156
0, 1, 41, 184.4624633789062
0, 1, 42, 182.5972747802734
0, 1, 43, 185.5623626708984
0, 1, 44, 167.2601776123047
0, 1, 45, 186.4942321777344
0, 1, 46, 170.7679595947266
0, 1, 47, 184.91845703125
0, 1, 48, 185.9654846191406
0, 1, 49, 186.0270538330078
0, 1, 50, 178.8360137939453
0, 1, 51, 191.2362518310547
0, 1, 52, 194.9719085693359
0, 1, 53, 196.1871185302734
0, 1, 54, 184.6497039794922
0, 1, 55, 165.7651519775391
0, 1, 56, 178.574951171875
0, 1, 57, 178.0149230957031
0, 1, 58, 189.9730529785156
0, 1, 59, 193.4696350097656
0, 1, 60, 188.7611083984375
0, 1, 61, 177.3531494140625
0, 1, 62, 204.8450775146484
0, 1, 63, 174.4317474365234
0, 1, 64, 172.95849609375
0, 1, 65, 184.32080078125
0, 1, 66, 204.6676940917969
0, 1, 67, 182.8204650878906
0, 1, 68, 186.5724945068359
0, 1, 69, 188.8110961914062
0, 1, 70, 186.0831756591797
0, 1, 71, 171.4042053222656
0, 1, 72, 188.0322723388672
0, 1, 73, 189.8889770507812
0, 1, 74, 200.9155731201172
0, 1, 75, 183.8157653808594
0, 1, 76, 175.0543975830078
0, 1, 77, 192.2136535644531
0, 1, 78, 187.7000427246094
0, 1, 79, 201.4937744140625
0, 1, 80, 184.8439636230469
0, 1, 81, 174.5360565185547
0, 1, 82, 208.6069946289062
0, 1, 83, 211.9101715087891
0, 1, 84, 182.2626953125
0, 1, 85, 170.7666473388672
0, 1, 86, 168.4921264648438
0, 1, 87, 185.1004180908203
0, 1, 88, 174.7139892578125
0, 1, 89, 187.9027557373047
0, 1, 90, 212.4320220947266
0, 1, 91, 181.0685424804688
0, 1, 92, 184.0519714355469
0, 1, 93, 180.4756927490234
0, 1, 94, 184.0853729248047
0, 1, 95, 183.1743774414062
0, 1, 96, 196.1585693359375
0, 1, 97, 183.0213470458984
0, 1, 98, 187.3293304443359
0, 1, 99, 175.3611602783203
0, 1, 100, 170.6709594726562
0, 1, 101, 178.9118041992188
0, 1, 102, 181.7740325927734
0, 1, 103, 173.5518646240234
0, 1, 104, 189.0150909423828
0, 1, 105, 180.9729156494141
0, 1, 106, 163.6177978515625
0, 1, 107, 123.1493835449219
0, 1, 108, 47.98352813720703
0, 1, 109, 10.89308452606201
0, 1, 110, 7.96250581741333
0, 1, 111, 8.793262481689453
0, 1, 112, 7.820072650909424
0, 1, 113, 7.671205520629883
0, 1, 114, 7.622224807739258
0, 1, 115, 3.853957176208496
0, 1, 116, 2.654341459274292
0, 1, 117, 2.37246298789978
0, 1, 118, 2.762527465820312
0, 1, 119, 1.388501882553101
0, 1, 120, 3.696568012237549
0, 1, 121, 4.530700206756592
0, 1, 122, 4.1042799949646
0, 1, 123, 2.245389461517334
0, 1, 124, 1.618626713752747
0, 1, 125, 2.577972173690796
0, 1, 126, 1.510355472564697
0, 1, 127, 1.913769602775574
0, 2, 0, 1.827948093414307
0, 2, 1, 2.538604259490967
0, 2, 2, 2.524426698684692
0, 2, 3, 1.415354013442993
0, 2, 4, 2.178339958190918
0, 2, 5, 1.045131087303162
0, 2, 6, 4.299938678741455
0, 2, 7, 1.821670532226562
0, 2, 8, 1.333805799484253
0, 2, 9, 2.264205455780029
0, 2, 10, 6.711259365081787
0, 2, 11, 3.595332622528076
0, 2, 12, 3.5515456199646
0, 2, 13, 3.394547939300537
0, 2, 14, 3.722237586975098
0, 2, 15, 4.684208869934082
0, 2, 16, 5.030742168426514
0, 2, 17, 10.0009126663208
0, 2, 18, 14.66689491271973
0, 2, 19, 76.967529296875
0, 2, 20, 162.4721984863281
0, 2, 21, 182.3879241943359
0, 2, 22, 193.6679840087891
0, 2, 23, 184.311767578125
0, 2, 24, 173.6870727539062
0, 2, 25, 184.485595703125
0, 2, 26, 181.2131805419922
0, 2, 27, 191.5043792724609
0, 2, 28, 172.9934387207031
0, 2, 29, 168.7303619384766
0, 2, 30, 184.0767669677734
0, 2, 31, 181.8056945800781
0, 2, 32, 183.1776885986328
0, 2, 33, 190.7046508789062
0, 2, 34, 199.3929748535156
0, 2, 35, 181.4188842773438
0, 2, 36, 185.1183319091797
0, 2, 37, 180.9516143798828
0, 2, 38, 184.4491882324219
0, 2, 39, 165.8253784179688
0, 2, 40, 183.9310913085938
0, 2, 41, 185.4979095458984
0, 2, 42, 189.2372283935547
0, 2, 43, 193.9900970458984
0, 2, 44, 191.0062255859375
0, 2, 45, 189.2921295166016
0, 2, 46, 195.8384246826172
0, 2, 47, 189.2463226318359
0, 2, 48, 177.6185607910156
0, 2, 49, 199.0062255859375
0, 2, 50, 168.7373809814453
0, 2, 51, 187.5087280273438
0, 2, 52, 185.5616912841797
0, 2, 53, 194.5404663085938
0, 2, 54, 175.4160766601562
0, 2, 55, 173.6924743652344
0, 2, 56, 181.8128662109375
0, 2, 57, 200.4777374267578
0, 2, 58, 187.2292327880859
0, 2, 59, 188.7929077148438
0, 2, 60, 197.3289642333984
0, 2, 61, 194.7205505371094
0, 2, 62, 190.6795959472656
0, 2, 63, 169.7863616943359
0, 2, 64, 189.5056762695312
0, 2, 65, 202.6465606689453
0, 2, 66, 195.6585388183594
0, 2, 67, 185.6035919189453
0, 2, 68, 182.1865234375
0, 2, 69, 187.3602142333984
0, 2, 70, 202.967529296875
0, 2, 71, 174.9844512939453
0, 2, 72, 188.0212097167969
0, 2, 73, 177.3245697021484
0, 2, 74, 180.6942749023438
0, 2, 75, 196.3519287109375
0, 2, 76, 183.7583465576172
0, 2, 77, 177.3034515380859
0, 2, 78, 197.0208587646484
0, 2, 79, 177.6651458740234
0, 2, 80, 187.1068115234375
0, 2, 81, 186.7791442871094
0, 2, 82, 205.9609069824219
0, 2, 83, 203.2974548339844
0, 2, 84, 188.2184143066406
0, 2, 85, 171.415771484375
0, 2, 86, 194.4326171875
0, 2, 87, 172.0710754394531
0, 2, 88, 176.8708953857422
0, 2, 89, 185.0962829589844
0, 2, 90, 178.2967071533203
0, 2, 91, 172.6239013671875
0, 2, 92, 196.6710662841797
0, 2, 93, 193.5662689208984
0, 2, 94, 201.0582580566406
0, 2, 95, 192.4385681152344
0, 2, 96, 186.999267578125
0, 2, 97, 172.1575164794922
0, 2, 98, 172.862060546875
0, 2, 99, 162.2806396484375
0, 2, 100, 188.4998779296875
0, 2, 101, 196.7135314941406
0, 2, 102, 177.8648529052734
0, 2, 103, 199.9603729248047
0, 2, 104, 189.4501342773438
0, 2, 105, 199.8936614990234
0, 2, 106, 194.3138580322266
0, 2, 107, 148.9614105224609
0, 2, 108, 78.74335479736328
0, 2, 109, 18.04990768432617
0, 2, 110, 9.261564254760742
0, 2, 111, 5.374509811401367
0, 2, 112, 4.321627616882324
0, 2, 113, 4.170498371124268
0, 2, 114, 7.734927177429199
0, 2, 115, 3.516204833984375
0, 2, 116, 4.545460224151611
0, 2, 117, 1.668197512626648
0, 2, 118, 2.411725044250488
0, 2, 119, 2.80271053314209
0, 2, 120, 2.052523851394653
0, 2, 121, 4.159431457519531
0, 2, 122, 2.561123371124268
0, 2, 123, 1.844912648200989
0, 2, 124, 1.844619750976562
0, 2, 125, 2.333540201187134
0, 2, 126, 2.774978160858154
0, 2, 127, 0.7612596154212952
0, 3, 0, 1.452409267425537
0, 3, 1, 2.791174650192261
0, 3, 2, 2.36814022064209
0, 3, 3, 0.82524573802948
0, 3, 4, 4.201366901397705
0, 3, 5, 1.398673057556152
0, 3, 6, 1.246252059936523
0, 3, 7, 1.134357213973999
0, 3, 8, 1.518520951271057
0, 3, 9, 2.212162494659424
0, 3, 10, 1.493857383728027
0, 3, 11, 5.833922386169434
0, 3, 12, 3.425304412841797
0, 3, 13, 3.728823661804199
0, 3, 14, 4.233105659484863
0, 3, 15, 7.105943202972412
0, 3, 16, 6.789494037628174
0, 3, 17, 6.517366409301758
0, 3, 18, 32.21297836303711
0, 3, 19, 113.8043594360352
0, 3, 20, 180.8084564208984
0, 3, 21, 172.6158599853516
0, 3, 22, 178.0507659912109
0, 3, 23, 190.2629241943359
0, 3, 24, 177.3780517578125
0, 3, 25, 168.8428039550781
0, 3, 26, 180.5143737792969
0, 3, 27, 190.3480987548828
0, 3, 28, 181.9731140136719
0, 3, 29, 197.4848480224609
0, 3, 30, 185.8929290771484
0, 3, 31, 193.404296875
0, 3, 32, 205.9629058837891
0, 3, 33, 194.819580078125
0, 3, 34, 187.3485107421875
0, 3, 35, 175.1165924072266
0, 3, 36, 185.5543518066406
0, 3, 37, 199.7507934570312
0, 3, 38, 190.9432373046875
0, 3, 39, 185.2481079101562
0, 3, 40, 166.3608551025391
0, 3, 41, 175.7062225341797
0, 3, 42, 184.8611907958984
0, 3, 43, 182.112548828125
0, 3, 44, 203.0893096923828
0, 3, 45, 209.1286468505859
0, 3, 46, 199.5020751953125
0, 3, 47, 196.4339141845703
0, 3, 48, 196.8778533935547
0, 3, 49, 180.8124237060547
0, 3, 50, 186.6505126953125
0, 3, 51, 173.8001098632812
0, 3, 52, 187.6363525390625
0, 3, 53, 176.6045532226562
0, 3, 54, 179.1001739501953
0, 3, 55, 176.8345184326172
0, 3, 56, 181.6897430419922
0, 3, 57, 175.5229034423828
0, 3, 58, 200.6962432861328
0, 3, 59, 195.3230590820312
0, 3, 60, 187.3603210449219
0, 3, 61, 181.0054626464844
0, 3, 62, 182.6674499511719
0, 3, 63, 183.8746948242188
0, 3, 64, 187.3529510498047
0, 3, 65, 187.1583557128906
0, 3, 66, 176.2332611083984
0, 3, 67, 190.0302734375
0, 3, 68, 211.3581390380859
0, 3, 69, 189.328369140625
0, 3, 70, 184.9206390380859
0, 3, 71, 196.6997528076172
0, 3, 72, 185.607177734375
0, 3, 73, 186.4800720214844
0, 3, 74, 192.2376556396484
0, 3, 75, 193.7053375244141
0, 3, 76, 190.3818206787109
0, 3, 77, 199.4476776123047
0, 3, 78, 188.3280944824219
0, 3, 79, 185.7430114746094
0, 3, 80, 190.9543762207031
0, 3, 81, 183.8996734619141
0, 3, 82, 178.7267150878906
0, 3, 83, 195.7908325195312
0, 3, 84, 199.0015563964844
0, 3, 85, 191.2898254394531
0, 3, 86, 203.2499237060547
0, 3, 87, 196.78125
0, 3, 88, 191.2462768554688
0, 3, 89, 193.0392456054688
0, 3, 90, 173.2457427978516
0, 3, 91, 155.9745635986328
0, 3, 92, 206.1922454833984
0, 3, 93, 195.9743804931641
0, 3, 94, 192.4210052490234
0, 3, 95, 211.0611419677734
0, 3, 96, 210.8429565429688
0, 3, 97, 167.20703125
0, 3, 98, 168.0641326904297
0, 3, 99, 180.8062896728516
0, 3, 100, 177.9540252685547
0, 3, 101, 198.182373046875
0, 3, 102, 194.0490112304688
0, 3, 103, 192.1914978027344
0, 3, 104, 203.0941925048828
0, 3, 105, 176.3785858154297
0, 3, 106, 180.9840087890625
0, 3, 107, 170.9169921875
0, 3, 108, 107.7710647583008
0, 3, 109, 26.62590217590332
0, 3, 110, 8.938486099243164
0, 3, 111, 6.979770660400391
0, 3, 112, 3.348973274230957
0, 3, 113, 6.743635654449463
0, 3, 114, 4.659514904022217
0, 3, 115, 4.975849628448486
0, 3, 116, 5.238636016845703
0, 3, 117, 3.922746419906616
0, 3, 118, 3.334552764892578
0, 3, 119, 3.091567039489746
0, 3, 120, 3.27792501449585
0, 3, 121, 1.824499011039734
0, 3, 122, 2.303044319152832
0, 3, 123, 1.666523575782776
0, 3, 124, 2.235002756118774
0, 3, 125, 1.457874298095703
0, 3, 126, 2.244330167770386
0, 3, 127, 2.646400928497314
0, 4, 0, 1.519593358039856
0, 4, 1, 1.964902997016907
0, 4, 2, 3.940402984619141
0, 4, 3, 4.656640529632568
0, 4, 4, 1.48390531539917
0, 4, 5, 0.9258691072463989
0, 4, 6, 2.472249984741211
0, 4, 7, 1.792834997177124
0, 4, 8, 1.841561675071716
0, 4, 9, 3.500978708267212
0, 4, 10, 3.316409826278687
0, 4, 11, 3.684187173843384
0, 4, 12, 3.112789630889893
0, 4, 13, 4.001296043395996
0, 4, 14, 4.134083271026611
0, 4, 15, 8.535940170288086
0, 4, 16, 5.932827472686768
0, 4, 17, 13.18954753875732
0, 4, 18, 54.82252502441406
0, 4, 19, 150.6685791015625
0, 4, 20, 193.8598937988281
0, 4, 21, 169.7840728759766
0, 4, 22, 187.2271423339844
0, 4, 23, 195.6326751708984
0, 4, 24, 193.9161529541016
0, 4, 25, 202.4613647460938
0, 4, 26, 184.6290740966797
0, 4, 27, 190.7936553955078
0, 4, 28, 179.4507751464844
0, 4, 29, 204.8918304443359
0, 4, 30, 195.6326141357422
0, 4, 31, 192.8967437744141
0, 4, 32, 209.1725616455078
0, 4, 33, 189.3425445556641
0, 4, 34, 192.4536437988281
0, 4, 35, 213.3444671630859
0, 4, 36, 192.8932647705078
0, 4, 37, 177.1977081298828
0, 4, 38, 193.533203125
0, 4, 39, 190.9345550537109
0, 4, 40, 185.1317596435547
0, 4, 41, 189.2979125976562
0, 4, 42, 207.4064331054688
0, 4, 43, 174.7360534667969
0, 4, 44, 184.7165222167969
0, 4, 45, 195.4993896484375
0, 4, 46, 185.9414520263672
0, 4, 47, 180.6302032470703
0, 4, 48, 185.7813873291016
0, 4, 49, 175.1764984130859
0, 4, 50, 185.8042907714844
0, 4, 51, 198.3104400634766
0, 4, 52, 223.0374603271484
0, 4, 53, 207.5337829589844
0, 4, 54, 189.0140228271484
0, 4, 55, 174.4995727539062
0, 4, 56, 190.315673828125
0, 4, 57, 191.5000915527344
0, 4, 58, 187.7169494628906
0, 4, 59, 189.4657592773438
0, 4, 60, 195.7782135009766
0, 4, 61, 193.4880676269531
0, 4, 62, 190.2285614013672
0, 4, 63, 180.4771423339844
0, 4, 64, 212.8504486083984
0, 4, 65, 190.9192810058594
0, 4, 66, 201.4367218017578
0, 4, 67, 199.6353607177734
0, 4, 68, 201.1567230224609
0, 4, 69, 199.8809967041016
0, 4, 70, 204.7629699707031
0, 4, 71, 206.4995880126953
0, 4, 72, 215.631591796875
0, 4, 73, 187.827880859375
0, 4, 74, 180.3442077636719
0, 4, 75, 185.8173828125
0, 4, 76, 190.1226196289062
0, 4, 77, 183.6556396484375
0, 4, 78, 195.0091094970703
0, 4, 79, 204.65380859375
0, 4, 80, 211.5749664306641
0, 4, 81, 199.5730743408203
0, 4, 82, 181.0982666015625
0, 4, 83, 170.1111755371094
0, 4, 84, 192.58642578125
0, 4, 85, 196.5339660644531
0, 4, 86, 180.5602111816406
0, 4, 87, 183.5300445556641
0, 4, 88, 203.9464263916016
0, 4, 89, 188.6657104492188
0, 4, 90, 212.1888275146484
0, 4, 91, 189.4951934814453
0, 4, 92, 196.2006072998047
0, 4, 93, 198.9425048828125
0, 4, 94, 184.4636383056641
0, 4, 95, 174.3673095703125
0, 4, 96, 189.8867950439453
0, 4, 97, 192.5882568359375
0, 4, 98, 201.1211700439453
0, 4, 99, 182.8719024658203
0, 4, 100, 182.3772125244141
0, 4, 101, 178.0471649169922
0, 4, 102, 173.4297027587891
0, 4, 103, 185.1786651611328
0, 4, 104, 209.3527984619141
0, 4, 105, 190.6595916748047
0, 4, 106, 180.0984802246094
0, 4, 107, 180.7208709716797
0, 4, 108, 152.5681610107422
0, 4, 109, 48.64816284179688
0, 4, 110, 11.72924423217773
0, 4, 111, 8.482414245605469
0, 4, 112, 5.673291206359863
0, 4, 113, 5.793404102325439
0, 4, 114, 5.49168062210083
0, 4, 115, 3.269647359848022
0, 4, 116, 4.386726856231689
0, 4, 117, 3.370780944824219
0, 4, 118, 3.928945779800415
0, 4, 119, 3.742214202880859
0, 4, 120, 2.44040060043335
0, 4, 121, 1.544395565986633
0, 4, 122, 1.646658301353455
0, 4, 123, 1.16555392742157
0, 4, 124, 3.245665550231934
0, 4, 125, 2.464070558547974
0, 4, 126, 1.993128299713135
0, 4, 127, 1.587516188621521
0, 5, 0, 1.213115453720093
0, 5, 1, 3.831429481506348
0, 5, 2, 6.342977046966553
0, 5, 3, 3.928877353668213
0, 5, 4, 1.930528044700623
0, 5, 5, 2.198113918304443
0, 5, 6, 2.441555261611938
0, 5, 7, 2.851758480072021
0, 5, 8, 1.754298686981201
0, 5, 9, 2.030016422271729
0, 5, 10, 3.169461727142334
0, 5, 11, 4.075064659118652
0, 5, 12, 3.170991182327271
0, 5, 13, 3.207259178161621
0, 5, 14, 5.070756435394287
0, 5, 15, 8.525400161743164
0, 5, 16, 7.600528717041016
0, 5, 17, 23.20244979858398
0, 5, 18, 84.10770416259766
0, 5, 19, 164.3781280517578
0, 5, 20, 185.3948516845703
0, 5, 21, 179.6999969482422
0, 5, 22, 171.4082183837891
0, 5, 23, 201.0365142822266
0, 5, 24, 187.4859161376953
0, 5, 25, 208.0972595214844
0, 5, 26, 182.7169189453125
0, 5, 27, 193.0594787597656
0, 5, 28, 189.30712890625
0, 5, 29, 196.6501007080078
0, 5, 30, 177.6157836914062
0, 5, 31, 180.7018127441406
0, 5, 32, 186.7535705566406
0, 5, 33, 168.4800109863281
0, 5, 34, 195.4535980224609
0, 5, 35, 197.9095611572266
0, 5, 36, 168.0376739501953
0, 5, 37, 197.6121826171875
0, 5, 38, 181.0967712402344
0, 5, 39, 186.2851867675781
0, 5, 40, 196.6421203613281
0, 5, 41, 176.5938720703125
0, 5, 42, 188.04248046875
0, 5, 43, 192.7354888916016
0, 5, 44, 199.6807556152344
0, 5, 45, 185.9285430908203
0, 5, 46, 192.8379669189453
0, 5, 47, 179.5431365966797
0, 5, 48, 177.4779815673828
0, 5, 49, 179.0622253417969
0, 5, 50, 186.7990417480469
0, 5, 51, 173.3003540039062
0, 5, 52, 168.4385375976562
0, 5, 53, 182.3853454589844
0, 5, 54, 172.2448883056641
0, 5, 55, 214.9610290527344
0, 5, 56, 181.2024536132812
0, 5, 57, 208.6242370605469
0, 5, 58, 180.2770690917969
0, 5, 59, 180.6360321044922
0, 5, 60, 218.4209594726562
0, 5, 61, 184.1285858154297
0, 5, 62, 178.1423034667969
0, 5, 63, 180.5624847412109
0, 5, 64, 196.228515625
0, 5, 65, 210.03271484375
0, 5, 66, 191.4117584228516
0, 5, 67, 198.2355804443359
0, 5, 68, 186.1789703369141
0, 5, 69, 184.8071441650391
0, 5, 70, 185.2926635742188
0, 5, 71, 193.5888061523438
0, 5, 72, 197.0140991210938
0, 5, 73, 201.7297515869141
0, 5, 74, 180.321044921875
0, 5, 75, 204.6595764160156
0, 5, 76, 217.0196380615234
0, 5, 77, 180.7283782958984
0, 5, 78, 194.4331817626953
0, 5, 79, 190.5513916015625
0, 5, 80, 197.798095703125
0, 5, 81, 204.0550231933594
0, 5, 82, 201.6321105957031
0, 5, 83, 188.7957916259766
0, 5, 84, 205.122802734375
0, 5, 85, 176.0380859375
0, 5, 86, 194.6869964599609
0, 5, 87, 189.1217956542969
0, 5, 88, 177.5791625976562
0, 5, 89, 194.1973724365234
0, 5, 90, 198.6503143310547
0, 5, 91, 194.8174133300781
0, 5, 92, 191.1475372314453
0, 5, 93, 189.3135223388672
0, 5, 94, 207.4575805664062
0, 5, 95, 178.6134185791016
0, 5, 96, 183.0527496337891
0, 5, 97, 191.6142578125
0, 5, 98, 190.4070587158203
0, 5, 99, 194.5784301757812
0, 5, 100, 185.6233062744141
0, 5, 101, 196.6335296630859
0, 5, 102, 181.3753967285156
0, 5, 103, 176.0233764648438
0, 5, 104, 191.0369415283203
0, 5, 105, 189.9010009765625
0, 5, 106, 177.1623077392578
0, 5, 107, 181.3782653808594
0, 5, 108, 175.8449249267578
0, 5, 109, 90.75957489013672
0, 5, 110, 30.98027610778809
0, 5, 111, 9.143096923828125
0, 5, 112, 6.099682331085205
0, 5, 113, 7.302691459655762
0, 5, 114, 6.548933029174805
0, 5, 115, 8.199295997619629
0, 5, 116, 4.553528785705566
0, 5, 117, 2.94743800163269
0, 5, 118, 3.370599746704102
0, 5, 119, 2.790588140487671
0, 5, 120, 2.106426477432251
0, 5, 121, 1.957381725311279
0, 5, 122, 3.276027202606201
0, 5, 123, 3.921481847763062
0, 5, 124, 2.988434791564941
0, 5, 125, 2.052266120910645
0, 5, 126, 3.035488843917847
0, 5, 127, 2.275471448898315
0, 6, 0, 4.175127029418945
0, 6, 1, 2.636622667312622
0, 6, 2, 3.465098857879639
0, 6, 3, 2.223680734634399
0, 6, 4, 4.02255916595459
0, 6, 5, 2.985692739486694
0, 6, 6, 3.124107122421265
0, 6, 7, 4.314667701721191
0, 6, 8, 4.63829517364502
0, 6, 9, 2.970855236053467
0, 6, 10, 5.546958923339844
0, 6, 11, 4.774742603302002
0, 6, 12, 4.49009895324707
0, 6, 13, 5.587127208709717
0, 6, 14, 5.117042541503906
0, 6, 15, 6.594133853912354
0, 6, 16, 14.47704982757568
0, 6, 17, 28.50172996520996
0, 6, 18, 112.0101623535156
0, 6, 19, 192.1332855224609
0, 6, 20, 195.6325988769531
0, 6, 21, 199.5821685791016
0, 6, 22, 190.5904235839844
0, 6, 23, 190.5138244628906
0, 6, 24, 200.7420501708984
0, 6, 25, 181.4235534667969
0, 6, 26, 187.0157928466797
0, 6, 27, 192.7712249755859
0, 6, 28, 189.1385803222656
0, 6, 29, 210.6119537353516
0, 6, 30, 190.0213165283203
0, 6, 31, 192.5610198974609
0, 6, 32, 206.2716979980469
0, 6, 33, 186.4880828857422
0, 6, 34, 196.87890625
0, 6, 35, 189.7310638427734
0, 6, 36, 179.9446716308594
0, 6, 37, 182.9526672363281
0, 6, 38, 186.9059600830078
0, 6, 39, 197.134765625
0, 6, 40, 173.9160003662109
0, 6, 41, 185.0567779541016
0, 6, 42, 174.0221557617188
0, 6, 43, 209.2731170654297
0, 6, 44, 210.2277374267578
0, 6, 45, 193.9498596191406
0, 6, 46, 188.3587646484375
0, 6, 47, 203.6896362304688
0, 6, 48, 188.071533203125
0, 6, 49, 179.6439056396484
0, 6, 50, 182.1150512695312
0, 6, 51, 195.697509765625
0, 6, 52, 198.0560302734375
0, 6, 53, 185.4096527099609
0, 6, 54, 176.610595703125
0, 6, 55, 194.3569183349609
0, 6, 56, 202.7998809814453
0, 6, 57, 190.694091796875
0, 6, 58, 179.0428771972656
0, 6, 59, 192.1685943603516
0, 6, 60, 184.0691986083984
0, 6, 61, 193.8058319091797
0, 6, 62, 196.4793701171875
0, 6, 63, 186.2839965820312
0, 6, 64, 170.3465728759766
0, 6, 65, 186.1271057128906
0, 6, 66, 198.3657379150391
0, 6, 67, 213.3824615478516
0, 6, 68, 180.1208190917969
0, 6, 69, 171.2943420410156
0, 6, 70, 187.2567291259766
0, 6, 71, 170.5865325927734
0, 6, 72, 176.2662658691406
0, 6, 73, 176.4263610839844
0, 6, 74, 209.9881744384766
0, 6, 75, 226.8380432128906
0, 6, 76, 183.7549743652344
0, 6, 77, 172.7128295898438
0, 6, 78, 174.8068389892578
0, 6, 79, 185.8007659912109
0, 6, 80, 188.6874694824219
0, 6, 81, 208.8281707763672
0, 6, 82, 195.1242828369141
0, 6, 83, 195.6760711669922
0, 6, 84, 198.0882415771484
0, 6, 85, 183.22705078125
0, 6, 86, 201.9851531982422
0, 6, 87, 184.2080841064453
0, 6, 88, 192.5769195556641
0, 6, 89, 188.3551025390625
0, 6, 90, 205.6387329101562
0, 6, 91, 200.5286407470703
0, 6, 92, 173.3398284912109
0, 6, 93, 194.4002227783203
0, 6, 94, 189.4963684082031
0, 6, 95, 186.1177215576172
0, 6, 96, 190.0524139404297
0, 6, 97, 193.7008209228516
0, 6, 98, 183.2912750244141
0, 6, 99, 174.9729309082031
0, 6, 100, 201.4496154785156
0, 6, 101, 167.7481994628906
0, 6, 102, 202.2752838134766
0, 6, 103, 196.6705017089844
0, 6, 104, 183.1265411376953
0, 6, 105, 193.4114379882812
0, 6, 106, 176.8719787597656
0, 6, 107, 194.9861297607422
0, 6, 108, 172.2835083007812
0, 6, 109, 114.4776306152344
0, 6, 110, 33.80530548095703
0, 6, 111, 9.570065498352051
0, 6, 112, 9.150017738342285
0, 6, 113, 6.832737445831299
0, 6, 114, 5.994746685028076
0, 6, 115, 3.570933103561401
0, 6, 116, 4.865479946136475
0, 6, 117, 3.130589008331299
0, 6, 118, 3.63004207611084
0, 6, 119, 5.210055828094482
0, 6, 120, 1.953860402107239
0, 6, 121, 6.150834083557129
0, 6, 122, 2.98088002204895
0, 6, 123, 3.069587469100952
0, 6, 124, 1.74221408367157
0, 6, 125, 4.889482975006104
0, 6, 126, 3.273404359817505
0, 6, 127, 2.914544582366943
0, 7, 0, 3.125670909881592
0, 7, 1, 1.845298528671265
0, 7, 2, 1.233699083328247
0, 7, 3, 3.066205263137817
0, 7, 4, 0.8063862919807434
0, 7, 5, 1.841563701629639
0, 7, 6, 1.753597617149353
0, 7, 7, 3.736331701278687
0, 7, 8, 2.499235391616821
0, 7, 9, 3.631787776947021
0, 7, 10, 5.052251815795898
0, 7, 11, 3.977702856063843
0, 7, 12, 3.378558397293091
0, 7, 13, 7.039896011352539
0, 7, 14, 6.712526321411133
0, 7, 15, 11.8037109375
0, 7, 16, 16.65362358093262
0, 7, 17, 50.3043327331543
0, 7, 18, 161.6120452880859
0, 7, 19, 181.2639007568359
0, 7, 20, 180.7474517822266
0, 7, 21, 182.0977630615234
0, 7, 22, 189.9369506835938
0, 7, 23, 203.4106750488281
0, 7, 24, 179.7045593261719
0, 7, 25, 212.3333435058594
0, 7, 26, 189.3211669921875
0, 7, 27, 181.5460052490234
0, 7, 28, 182.5481719970703
0, 7, 29, 209.0236358642578
0, 7, 30, 192.6583099365234
0, 7, 31, 175.9427185058594
0, 7, 32, 191.2418518066406
0, 7, 33, 183.0437164306641
0, 7, 34, 193.2450103759766
0, 7, 35, 197.1062469482422
0, 7, 36, 186.1213531494141
0, 7, 37, 212.5232543945312
0, 7, 38, 191.124267578125
0, 7, 39, 173.3421478271484
0, 7, 40, 183.6658325195312
0, 7, 41, 185.0962066650391
0, 7, 42, 178.0903930664062
0, 7, 43, 177.0696563720703
0, 7, 44, 179.7003021240234
0, 7, 45, 176.2952423095703
0, 7, 46, 189.4865570068359
0, 7, 47, 199.9787750244141
0, 7, 48, 185.0062561035156
0, 7, 49, 198.9181518554688
0, 7, 50, 187.5575256347656
0, 7, 51, 206.0225372314453
0, 7, 52, 203.4347991943359
0, 7, 53, 190.9347229003906
0, 7, 54, 195.9181823730469
0, 7, 55, 203.4908905029297
0, 7, 56, 183.1215209960938
0, 7, 57, 183.9216003417969
0, 7, 58, 193.2996673583984
0, 7, 59, 187.2250518798828
0, 7, 60, 201.7197113037109
0, 7, 61, 173.0956268310547
0, 7, 62, 202.8691558837891
0, 7, 63, 188.4456176757812
0, 7, 64, 199.351806640625
0, 7, 65, 196.9096221923828
0, 7, 66, 206.0319671630859
0, 7, 67, 222.3531341552734
0, 7, 68, 163.9755096435547
0, 7, 69, 195.1374206542969
0, 7, 70, 217.3423309326172
0, 7, 71, 183.9197845458984
0, 7, 72, 180.4205017089844
0, 7, 73, 177.2455596923828
0, 7, 74, 207.9994812011719
0, 7, 75, 205.85986328125
0, 7, 76, 214.7312927246094
0, 7, 77, 175.3977813720703
0, 7, 78, 177.7385711669922
0, 7, 79, 194.4684143066406
0, 7, 80, 195.6800231933594
0, 7, 81, 214.3170623779297
0, 7, 82, 184.6465301513672
0, 7, 83, 205.170166015625
0, 7, 84, 192.0420532226562
0, 7, 85, 186.8719635009766
0, 7, 86, 201.0053100585938
0, 7, 87, 226.2309722900391
0, 7, 88, 194.7918701171875
0, 7, 89, 176.7652893066406
0, 7, 90, 182.2774200439453
0, 7, 91, 195.3844757080078
0, 7, 92, 193.5116577148438
0, 7, 93, 199.1662750244141
0, 7, 94, 177.0971832275391
0, 7, 95, 198.6572723388672
0, 7, 96, 211.4019470214844
0, 7, 97, 188.7055206298828
0, 7, 98, 176.4451599121094
0, 7, 99, 199.0454254150391
0, 7, 100, 181.8191680908203
0, 7, 101, 199.968505859375
0, 7, 102, 185.0243530273438
0, 7, 103, 180.9850769042969
0, 7, 104, 174.2269592285156
0, 7, 105, 195.0472717285156
0, 7, 106, 205.1028289794922
0, 7, 107, 174.1727752685547
0, 7, 108, 177.3412475585938
0, 7, 109, 137.8624572753906
0, 7, 110, 53.49515151977539
0, 7, 111, 10.48345184326172
0, 7, 112, 7.957904815673828
0, 7, 113, 8.768936157226562
0, 7, 114, 6.466455936431885
0, 7, 115, 6.046613216400146
0, 7, 116, 4.980522155761719
0, 7, 117, 3.386582612991333
0, 7, 118, 3.737752437591553
0, 7, 119, 3.416161775588989
0, 7, 120, 2.229405164718628
0, 7, 121, 2.586448431015015
0, 7, 122, 3.809425115585327
0, 7, 123, 1.127423644065857
0, 7, 124, 2.83488130569458
0, 7, 125, 1.507960438728333
0, 7, 126, 3.394984245300293
0, 7, 127, 0.8847299814224243
0, 8, 0, 4.747005939483643
0, 8, 1, 2.149638175964355
0, 8, 2, 2.715126037597656
0, 8, 3, 1.633082151412964
0, 8, 4, 1.054063439369202
0, 8, 5, 3.120891094207764
0, 8, 6, 2.656492948532104
0, 8, 7, 2.624340057373047
0, 8, 8, 6.864244937896729
0, 8, 9, 3.866362571716309
0, 8, 10, 1.577773094177246
0, 8, 11, 3.344967365264893
0, 8, 12, 3.343698501586914
0, 8, 13, 5.856688499450684
0, 8, 14, 5.706379413604736
0, 8, 15, 8.483136177062988
0, 8, 16, 20.53301811218262
0, 8, 17, 75.71231842041016
0, 8, 18, 142.8744659423828
0, 8, 19, 178.4436798095703
0, 8, 20, 191.69677734375
0, 8, 21, 192.2596893310547
0, 8, 22, 181.6388854980469
0, 8, 23, 173.0764007568359
0, 8, 24, 192.7702331542969
0, 8, 25, 184.0877685546875
0, 8, 26, 192.2981262207031
0, 8, 27, 187.2736663818359
0, 8, 28, 186.6472778320312
0, 8, 29, 206.5881805419922
0, 8, 30, 197.5520172119141
0, 8, 31, 183.5696411132812
0, 8, 32, 198.1457977294922
0, 8, 33, 206.6209716796875
0, 8, 34, 202.7239685058594
0, 8, 35, 184.5223541259766
0, 8, 36, 180.9600372314453
0, 8, 37, 199.2162475585938
