# TOPAS Version: 3.1.p3
# Parameter File: batch_inserts_196.txt
# Results for scorer Readout_Adipose
# Scored in component: MyBox
# X in 1 bin  of 0.65 cm
# Y in 512 bins of 0.0783984 cm
# Z in 128 bins of 0.078125 cm
# EnergyDeposit ( MeV ) : Sum   
0, 0, 0, 1.326141715049744
0, 0, 1, 4.306833744049072
0, 0, 2, 1.255896329879761
0, 0, 3, 1.9216148853302
0, 0, 4, 2.820770978927612
0, 0, 5, 1.031442880630493
0, 0, 6, 1.20452618598938
0, 0, 7, 2.054358005523682
0, 0, 8, 1.782871961593628
0, 0, 9, 2.77033257484436
0, 0, 10, 2.337901592254639
0, 0, 11, 3.330061435699463
0, 0, 12, 4.612365245819092
0, 0, 13, 2.336992979049683
0, 0, 14, 5.006346225738525
0, 0, 15, 6.095425605773926
0, 0, 16, 4.711290836334229
0, 0, 17, 6.083043575286865
0, 0, 18, 7.219511985778809
0, 0, 19, 23.91507720947266
0, 0, 20, 93.79933166503906
0, 0, 21, 153.9488983154297
0, 0, 22, 154.0814819335938
0, 0, 23, 144.0475769042969
0, 0, 24, 160.4886016845703
0, 0, 25, 167.0919799804688
0, 0, 26, 166.4637145996094
0, 0, 27, 175.0211334228516
0, 0, 28, 177.6703338623047
0, 0, 29, 175.8062744140625
0, 0, 30, 172.4972534179688
0, 0, 31, 166.1178436279297
0, 0, 32, 164.8028106689453
0, 0, 33, 165.9783477783203
0, 0, 34, 179.5506439208984
0, 0, 35, 174.8486175537109
0, 0, 36, 158.8477630615234
0, 0, 37, 162.2630767822266
0, 0, 38, 166.4013977050781
0, 0, 39, 158.9939727783203
0, 0, 40, 164.7858123779297
0, 0, 41, 166.1160430908203
0, 0, 42, 144.0981750488281
0, 0, 43, 168.6304931640625
0, 0, 44, 177.5444183349609
0, 0, 45, 172.12353515625
0, 0, 46, 165.8821563720703
0, 0, 47, 167.4009704589844
0, 0, 48, 169.6237487792969
0, 0, 49, 183.0014343261719
0, 0, 50, 169.73974609375
0, 0, 51, 164.2410888671875
0, 0, 52, 165.0261840820312
0, 0, 53, 171.7752838134766
0, 0, 54, 161.1780548095703
0, 0, 55, 164.9636383056641
0, 0, 56, 189.8475799560547
0, 0, 57, 170.4138946533203
0, 0, 58, 160.7842559814453
0, 0, 59, 172.3632507324219
0, 0, 60, 169.8316650390625
0, 0, 61, 170.9029541015625
0, 0, 62, 183.5065002441406
0, 0, 63, 166.8782806396484
0, 0, 64, 163.4373626708984
0, 0, 65, 176.4940338134766
0, 0, 66, 178.1800689697266
0, 0, 67, 163.5476226806641
0, 0, 68, 158.5719909667969
0, 0, 69, 158.0067291259766
0, 0, 70, 170.2811279296875
0, 0, 71, 158.9205474853516
0, 0, 72, 161.548828125
0, 0, 73, 171.7525177001953
0, 0, 74, 163.2146148681641
0, 0, 75, 163.9189910888672
0, 0, 76, 163.8491821289062
0, 0, 77, 173.5354919433594
0, 0, 78, 181.2716064453125
0, 0, 79, 174.8671417236328
0, 0, 80, 159.8095550537109
0, 0, 81, 160.6071014404297
0, 0, 82, 183.42138671875
0, 0, 83, 173.4803771972656
0, 0, 84, 159.9636383056641
0, 0, 85, 181.4455718994141
0, 0, 86, 158.6365051269531
0, 0, 87, 176.7602996826172
0, 0, 88, 176.1033020019531
0, 0, 89, 176.4273071289062
0, 0, 90, 161.0974578857422
0, 0, 91, 185.2841339111328
0, 0, 92, 165.6613006591797
0, 0, 93, 157.4205169677734
0, 0, 94, 169.2991485595703
0, 0, 95, 173.8035888671875
0, 0, 96, 183.9322967529297
0, 0, 97, 184.4953308105469
0, 0, 98, 187.3682403564453
0, 0, 99, 172.1110076904297
0, 0, 100, 157.7192077636719
0, 0, 101, 166.8164672851562
0, 0, 102, 171.1656341552734
0, 0, 103, 170.5195007324219
0, 0, 104, 167.9080352783203
0, 0, 105, 176.8932495117188
0, 0, 106, 158.8953704833984
0, 0, 107, 86.85924530029297
0, 0, 108, 21.04150009155273
0, 0, 109, 9.861998558044434
0, 0, 110, 6.125775337219238
0, 0, 111, 6.562027931213379
0, 0, 112, 3.414589881896973
0, 0, 113, 2.652718782424927
0, 0, 114, 2.453383684158325
0, 0, 115, 3.675114154815674
0, 0, 116, 2.398329734802246
0, 0, 117, 3.030443906784058
0, 0, 118, 4.918883323669434
0, 0, 119, 2.028608322143555
0, 0, 120, 1.931670784950256
0, 0, 121, 4.536764621734619
0, 0, 122, 4.164346218109131
0, 0, 123, 3.424042940139771
0, 0, 124, 1.588364958763123
0, 0, 125, 2.66058087348938
0, 0, 126, 1.568121671676636
0, 0, 127, 2.998979568481445
0, 1, 0, 1.502846360206604
0, 1, 1, 4.726470470428467
0, 1, 2, 3.714801549911499
0, 1, 3, 2.186419248580933
0, 1, 4, 1.35806405544281
0, 1, 5, 1.62492299079895
0, 1, 6, 1.095303058624268
0, 1, 7, 2.514131784439087
0, 1, 8, 1.975310087203979
0, 1, 9, 1.041337132453918
0, 1, 10, 4.137650489807129
0, 1, 11, 3.743447303771973
0, 1, 12, 5.034884452819824
0, 1, 13, 4.570755958557129
0, 1, 14, 5.435515880584717
0, 1, 15, 6.209734916687012
0, 1, 16, 8.277587890625
0, 1, 17, 5.357819557189941
0, 1, 18, 10.1233549118042
0, 1, 19, 39.75589752197266
0, 1, 20, 125.4331588745117
0, 1, 21, 176.8567962646484
0, 1, 22, 192.3587493896484
0, 1, 23, 184.5863952636719
0, 1, 24, 180.2327880859375
0, 1, 25, 192.5799560546875
0, 1, 26, 197.5170593261719
0, 1, 27, 187.2977752685547
0, 1, 28, 188.2567138671875
0, 1, 29, 184.3036499023438
0, 1, 30, 179.5164184570312
0, 1, 31, 181.7713775634766
0, 1, 32, 187.9367828369141
0, 1, 33, 192.4779357910156
0, 1, 34, 183.8624420166016
0, 1, 35, 195.1448211669922
0, 1, 36, 205.1058959960938
0, 1, 37, 184.3438110351562
0, 1, 38, 164.7411651611328
0, 1, 39, 171.548095703125
0, 1, 40, 180.3599090576172
0, 1, 41, 184.548583984375
0, 1, 42, 183.0309600830078
0, 1, 43, 187.0021667480469
0, 1, 44, 168.1635131835938
0, 1, 45, 188.6435241699219
0, 1, 46, 171.4947357177734
0, 1, 47, 184.8426666259766
0, 1, 48, 186.1704711914062
0, 1, 49, 187.0284423828125
0, 1, 50, 180.0285186767578
0, 1, 51, 191.8288726806641
0, 1, 52, 196.9782867431641
0, 1, 53, 196.4580383300781
0, 1, 54, 185.6045684814453
0, 1, 55, 165.0950012207031
0, 1, 56, 178.4974975585938
0, 1, 57, 177.5669250488281
0, 1, 58, 188.5271453857422
0, 1, 59, 194.6078033447266
0, 1, 60, 187.6319122314453
0, 1, 61, 177.9038543701172
0, 1, 62, 205.0976867675781
0, 1, 63, 174.1412658691406
0, 1, 64, 174.4230499267578
0, 1, 65, 186.1778411865234
0, 1, 66, 203.940673828125
0, 1, 67, 183.4640960693359
0, 1, 68, 186.5969085693359
0, 1, 69, 188.8807525634766
0, 1, 70, 185.6088104248047
0, 1, 71, 171.3875122070312
0, 1, 72, 189.3074340820312
0, 1, 73, 191.2182006835938
0, 1, 74, 200.7037353515625
0, 1, 75, 183.5859375
0, 1, 76, 174.0139923095703
0, 1, 77, 192.2033233642578
0, 1, 78, 188.3670043945312
0, 1, 79, 201.275390625
0, 1, 80, 187.3380126953125
0, 1, 81, 175.6391906738281
0, 1, 82, 208.7457733154297
0, 1, 83, 212.865966796875
0, 1, 84, 180.5339660644531
0, 1, 85, 169.9955902099609
0, 1, 86, 168.0568542480469
0, 1, 87, 185.2168731689453
0, 1, 88, 174.6181335449219
0, 1, 89, 189.1622467041016
0, 1, 90, 213.9852905273438
0, 1, 91, 180.6981353759766
0, 1, 92, 184.0784759521484
0, 1, 93, 181.2277679443359
0, 1, 94, 185.7267913818359
0, 1, 95, 184.6648254394531
0, 1, 96, 196.0931243896484
0, 1, 97, 182.6555328369141
0, 1, 98, 188.2802276611328
0, 1, 99, 176.5207061767578
0, 1, 100, 171.1036529541016
0, 1, 101, 177.8785400390625
0, 1, 102, 182.17578125
0, 1, 103, 172.8363494873047
0, 1, 104, 189.4431457519531
0, 1, 105, 184.0557556152344
0, 1, 106, 163.5740203857422
0, 1, 107, 123.6961364746094
0, 1, 108, 46.32148361206055
0, 1, 109, 10.69394969940186
0, 1, 110, 7.760254859924316
0, 1, 111, 6.741597652435303
0, 1, 112, 6.895316123962402
0, 1, 113, 6.975949287414551
0, 1, 114, 6.732615947723389
0, 1, 115, 3.124479532241821
0, 1, 116, 3.413342237472534
0, 1, 117, 2.781241178512573
0, 1, 118, 3.437381744384766
0, 1, 119, 1.589106440544128
0, 1, 120, 4.130758285522461
0, 1, 121, 4.467281818389893
0, 1, 122, 2.380936861038208
0, 1, 123, 3.016824722290039
0, 1, 124, 3.212180137634277
0, 1, 125, 2.599070072174072
0, 1, 126, 1.988420248031616
0, 1, 127, 2.216686964035034
0, 2, 0, 2.120493412017822
0, 2, 1, 3.201561689376831
0, 2, 2, 5.05720853805542
0, 2, 3, 2.130315065383911
0, 2, 4, 2.833669424057007
0, 2, 5, 2.336905956268311
0, 2, 6, 2.943429708480835
0, 2, 7, 1.944652438163757
0, 2, 8, 0.8812337517738342
0, 2, 9, 2.649942636489868
0, 2, 10, 4.056752681732178
0, 2, 11, 4.978136539459229
0, 2, 12, 3.467684984207153
0, 2, 13, 3.445074558258057
0, 2, 14, 5.141420841217041
0, 2, 15, 5.006940841674805
0, 2, 16, 3.891736030578613
0, 2, 17, 9.865781784057617
0, 2, 18, 14.14516353607178
0, 2, 19, 78.21625518798828
0, 2, 20, 162.5793914794922
0, 2, 21, 183.7487335205078
0, 2, 22, 194.7038879394531
0, 2, 23, 184.9573211669922
0, 2, 24, 173.6080017089844
0, 2, 25, 183.6844329833984
0, 2, 26, 178.7170867919922
0, 2, 27, 191.0794677734375
0, 2, 28, 171.2810974121094
0, 2, 29, 169.9332122802734
0, 2, 30, 187.6681060791016
0, 2, 31, 182.5803527832031
0, 2, 32, 184.4066772460938
0, 2, 33, 190.4017028808594
0, 2, 34, 196.9844055175781
0, 2, 35, 183.5623321533203
0, 2, 36, 186.6813201904297
0, 2, 37, 180.3894653320312
0, 2, 38, 184.3607482910156
0, 2, 39, 167.2283325195312
0, 2, 40, 184.3125915527344
0, 2, 41, 185.3395080566406
0, 2, 42, 189.0348358154297
0, 2, 43, 193.1715087890625
0, 2, 44, 192.0237579345703
0, 2, 45, 191.3025665283203
0, 2, 46, 195.9684295654297
0, 2, 47, 192.4343872070312
0, 2, 48, 177.4554138183594
0, 2, 49, 197.6399993896484
0, 2, 50, 167.4734649658203
0, 2, 51, 184.9932403564453
0, 2, 52, 186.2384643554688
0, 2, 53, 196.4208374023438
0, 2, 54, 175.1854400634766
0, 2, 55, 173.3340911865234
0, 2, 56, 182.347900390625
0, 2, 57, 199.5717010498047
0, 2, 58, 186.2958679199219
0, 2, 59, 189.0921173095703
0, 2, 60, 196.5906066894531
0, 2, 61, 193.5531616210938
0, 2, 62, 188.8820495605469
0, 2, 63, 169.2071685791016
0, 2, 64, 190.4114837646484
0, 2, 65, 202.7712249755859
0, 2, 66, 195.9434204101562
0, 2, 67, 185.0875244140625
0, 2, 68, 183.9367828369141
0, 2, 69, 187.3512115478516
0, 2, 70, 203.7579650878906
0, 2, 71, 175.1202087402344
0, 2, 72, 186.3989715576172
0, 2, 73, 177.2191619873047
0, 2, 74, 180.6891632080078
0, 2, 75, 195.6121520996094
0, 2, 76, 184.3976440429688
0, 2, 77, 177.5031890869141
0, 2, 78, 198.4410247802734
0, 2, 79, 177.4629669189453
0, 2, 80, 187.5038452148438
0, 2, 81, 186.9271850585938
0, 2, 82, 206.3280639648438
0, 2, 83, 203.7232360839844
0, 2, 84, 188.1840209960938
0, 2, 85, 170.2322692871094
0, 2, 86, 195.6193389892578
0, 2, 87, 171.5627593994141
0, 2, 88, 176.9139251708984
0, 2, 89, 185.3651733398438
0, 2, 90, 178.3968353271484
0, 2, 91, 173.7998352050781
0, 2, 92, 197.2401123046875
0, 2, 93, 195.0611572265625
0, 2, 94, 200.7079772949219
0, 2, 95, 193.8350830078125
0, 2, 96, 187.2827911376953
0, 2, 97, 171.5864410400391
0, 2, 98, 172.9607238769531
0, 2, 99, 162.2541046142578
0, 2, 100, 187.3549499511719
0, 2, 101, 196.3383026123047
0, 2, 102, 175.7489318847656
0, 2, 103, 200.0498352050781
0, 2, 104, 189.1737976074219
0, 2, 105, 200.5467987060547
0, 2, 106, 194.3351287841797
0, 2, 107, 149.4864501953125
0, 2, 108, 80.11476135253906
0, 2, 109, 18.25264167785645
0, 2, 110, 9.13862133026123
0, 2, 111, 5.224427700042725
0, 2, 112, 3.395785570144653
0, 2, 113, 4.175236701965332
0, 2, 114, 5.94827127456665
0, 2, 115, 4.359138488769531
0, 2, 116, 3.262861251831055
0, 2, 117, 1.703365564346313
0, 2, 118, 2.954210996627808
0, 2, 119, 2.604105710983276
0, 2, 120, 2.034365653991699
0, 2, 121, 3.564400911331177
0, 2, 122, 3.335567474365234
0, 2, 123, 3.554778337478638
0, 2, 124, 2.777714729309082
0, 2, 125, 1.726065516471863
0, 2, 126, 2.650957107543945
0, 2, 127, 0.837232768535614
0, 3, 0, 1.226964473724365
0, 3, 1, 1.741698384284973
0, 3, 2, 1.47984516620636
0, 3, 3, 2.300660133361816
0, 3, 4, 4.633559703826904
0, 3, 5, 1.710621118545532
0, 3, 6, 1.146609902381897
0, 3, 7, 1.631760835647583
0, 3, 8, 1.794851064682007
0, 3, 9, 1.207381248474121
0, 3, 10, 1.253716945648193
0, 3, 11, 4.049775123596191
0, 3, 12, 3.380863666534424
0, 3, 13, 3.570649147033691
0, 3, 14, 3.882040739059448
0, 3, 15, 7.827610015869141
0, 3, 16, 7.449909687042236
0, 3, 17, 7.381645679473877
0, 3, 18, 32.86293411254883
0, 3, 19, 115.295036315918
0, 3, 20, 180.2962646484375
0, 3, 21, 172.5510559082031
0, 3, 22, 178.1626281738281
0, 3, 23, 188.6333618164062
0, 3, 24, 177.73779296875
0, 3, 25, 169.4852294921875
0, 3, 26, 180.8966674804688
0, 3, 27, 189.0779266357422
0, 3, 28, 184.0430603027344
0, 3, 29, 196.98291015625
0, 3, 30, 187.207763671875
0, 3, 31, 193.9273834228516
0, 3, 32, 205.9958343505859
0, 3, 33, 196.9319152832031
0, 3, 34, 186.5341644287109
0, 3, 35, 176.1352233886719
0, 3, 36, 187.2838897705078
0, 3, 37, 200.4981536865234
0, 3, 38, 190.7770843505859
0, 3, 39, 184.3028717041016
0, 3, 40, 165.9337921142578
0, 3, 41, 174.9384307861328
0, 3, 42, 185.0168304443359
0, 3, 43, 182.2034912109375
0, 3, 44, 203.2320709228516
0, 3, 45, 206.8805694580078
0, 3, 46, 198.4379272460938
0, 3, 47, 194.4234466552734
0, 3, 48, 194.8928375244141
0, 3, 49, 180.2322540283203
0, 3, 50, 188.3007049560547
0, 3, 51, 175.2900543212891
0, 3, 52, 187.0514831542969
0, 3, 53, 177.31201171875
0, 3, 54, 178.943359375
0, 3, 55, 177.1066741943359
0, 3, 56, 182.1227111816406
0, 3, 57, 176.7630310058594
0, 3, 58, 203.1934051513672
0, 3, 59, 196.2427368164062
0, 3, 60, 185.3819732666016
0, 3, 61, 181.6053619384766
0, 3, 62, 183.5437622070312
0, 3, 63, 184.5630798339844
0, 3, 64, 188.7481536865234
0, 3, 65, 187.3236389160156
0, 3, 66, 176.2090148925781
0, 3, 67, 189.7856750488281
0, 3, 68, 213.2380828857422
0, 3, 69, 189.2223510742188
0, 3, 70, 185.1559753417969
0, 3, 71, 196.2095184326172
0, 3, 72, 185.8260498046875
0, 3, 73, 186.8066253662109
0, 3, 74, 193.0068511962891
0, 3, 75, 192.4073486328125
0, 3, 76, 191.8952178955078
0, 3, 77, 198.0657501220703
0, 3, 78, 188.9080810546875
0, 3, 79, 186.4795227050781
0, 3, 80, 190.7397155761719
0, 3, 81, 183.4052734375
0, 3, 82, 179.538818359375
0, 3, 83, 194.6128234863281
0, 3, 84, 199.7684783935547
0, 3, 85, 191.9837341308594
0, 3, 86, 203.7985687255859
0, 3, 87, 196.5014495849609
0, 3, 88, 191.9391326904297
0, 3, 89, 192.9539642333984
0, 3, 90, 173.6426391601562
0, 3, 91, 155.5120239257812
0, 3, 92, 206.3207702636719
0, 3, 93, 196.0768890380859
0, 3, 94, 193.609619140625
0, 3, 95, 210.8027954101562
0, 3, 96, 210.7375335693359
0, 3, 97, 168.0511474609375
0, 3, 98, 168.1957244873047
0, 3, 99, 179.9239959716797
0, 3, 100, 177.3238067626953
0, 3, 101, 197.1699523925781
0, 3, 102, 194.5634307861328
0, 3, 103, 192.6892700195312
0, 3, 104, 202.4612274169922
0, 3, 105, 177.4454345703125
0, 3, 106, 181.0667572021484
0, 3, 107, 170.9563751220703
0, 3, 108, 109.041877746582
0, 3, 109, 27.90855407714844
0, 3, 110, 7.429168224334717
0, 3, 111, 6.558245182037354
0, 3, 112, 3.656199932098389
0, 3, 113, 7.538436889648438
0, 3, 114, 5.258038997650146
0, 3, 115, 4.667728424072266
0, 3, 116, 4.768101215362549
0, 3, 117, 4.998250007629395
0, 3, 118, 2.033335447311401
0, 3, 119, 2.789836168289185
0, 3, 120, 3.305404901504517
0, 3, 121, 2.100371837615967
0, 3, 122, 2.832628488540649
0, 3, 123, 1.569339871406555
0, 3, 124, 2.176896572113037
0, 3, 125, 1.599911689758301
0, 3, 126, 1.384680986404419
0, 3, 127, 1.174500823020935
0, 4, 0, 1.72463321685791
0, 4, 1, 1.028420090675354
0, 4, 2, 2.194249868392944
0, 4, 3, 4.852458477020264
0, 4, 4, 1.781744003295898
0, 4, 5, 1.55071747303009
0, 4, 6, 2.568507194519043
0, 4, 7, 2.143872499465942
0, 4, 8, 1.599217295646667
0, 4, 9, 2.886136054992676
0, 4, 10, 3.580082416534424
0, 4, 11, 3.582784652709961
0, 4, 12, 3.938678503036499
0, 4, 13, 4.759575366973877
0, 4, 14, 3.976143360137939
0, 4, 15, 9.044898986816406
0, 4, 16, 6.96302604675293
0, 4, 17, 11.93083953857422
0, 4, 18, 54.48988342285156
0, 4, 19, 150.7914123535156
0, 4, 20, 193.6439666748047
0, 4, 21, 170.3960266113281
0, 4, 22, 188.0455169677734
0, 4, 23, 196.459228515625
0, 4, 24, 192.2389068603516
0, 4, 25, 199.4732208251953
0, 4, 26, 183.3008728027344
0, 4, 27, 190.4239654541016
0, 4, 28, 179.0693664550781
0, 4, 29, 205.9389038085938
0, 4, 30, 195.0896911621094
0, 4, 31, 192.6786651611328
0, 4, 32, 209.5183258056641
0, 4, 33, 190.6488037109375
0, 4, 34, 192.6127319335938
0, 4, 35, 213.6032409667969
0, 4, 36, 192.2655792236328
0, 4, 37, 177.9174041748047
0, 4, 38, 195.7101745605469
0, 4, 39, 190.0175628662109
0, 4, 40, 186.3343811035156
0, 4, 41, 189.0693359375
0, 4, 42, 205.7075347900391
0, 4, 43, 173.9665374755859
0, 4, 44, 183.6809997558594
0, 4, 45, 195.8653411865234
0, 4, 46, 186.0565795898438
0, 4, 47, 179.9420623779297
0, 4, 48, 186.3924713134766
0, 4, 49, 174.710205078125
0, 4, 50, 187.4797821044922
0, 4, 51, 198.1603088378906
0, 4, 52, 222.9247283935547
0, 4, 53, 207.4258880615234
0, 4, 54, 189.4444732666016
0, 4, 55, 174.4583435058594
0, 4, 56, 191.3428344726562
0, 4, 57, 190.7918548583984
0, 4, 58, 186.8570861816406
0, 4, 59, 189.8059997558594
0, 4, 60, 195.6967620849609
0, 4, 61, 193.8246917724609
0, 4, 62, 191.5346221923828
0, 4, 63, 179.2049713134766
0, 4, 64, 214.3669128417969
0, 4, 65, 192.7122802734375
0, 4, 66, 201.0634765625
0, 4, 67, 199.6921691894531
0, 4, 68, 201.1230926513672
0, 4, 69, 199.5044860839844
0, 4, 70, 205.3694763183594
0, 4, 71, 206.7245178222656
0, 4, 72, 215.8197326660156
0, 4, 73, 185.6646728515625
0, 4, 74, 180.7796936035156
0, 4, 75, 184.8296813964844
0, 4, 76, 189.9460296630859
0, 4, 77, 182.2347412109375
0, 4, 78, 196.2420806884766
0, 4, 79, 204.3670959472656
0, 4, 80, 211.1533355712891
0, 4, 81, 198.8706665039062
0, 4, 82, 182.0221710205078
0, 4, 83, 170.9087982177734
0, 4, 84, 193.6736907958984
0, 4, 85, 198.3282012939453
0, 4, 86, 181.5605621337891
0, 4, 87, 183.3811492919922
0, 4, 88, 204.2298126220703
0, 4, 89, 187.4146423339844
0, 4, 90, 211.6507720947266
0, 4, 91, 189.3971710205078
0, 4, 92, 196.1536407470703
0, 4, 93, 196.9291076660156
0, 4, 94, 181.8224029541016
0, 4, 95, 173.8209991455078
0, 4, 96, 189.49462890625
0, 4, 97, 192.6773986816406
0, 4, 98, 200.6764221191406
0, 4, 99, 184.5537872314453
0, 4, 100, 182.3676910400391
0, 4, 101, 178.9551086425781
0, 4, 102, 174.1848907470703
0, 4, 103, 184.8802185058594
0, 4, 104, 211.4342193603516
0, 4, 105, 189.8448028564453
0, 4, 106, 181.3089904785156
0, 4, 107, 181.3849182128906
0, 4, 108, 152.0032196044922
0, 4, 109, 50.97614288330078
0, 4, 110, 11.51300811767578
0, 4, 111, 8.831600189208984
0, 4, 112, 8.768654823303223
0, 4, 113, 4.907949924468994
0, 4, 114, 5.137026786804199
0, 4, 115, 2.929157495498657
0, 4, 116, 5.870454788208008
0, 4, 117, 2.735432386398315
0, 4, 118, 3.167300939559937
0, 4, 119, 3.643256425857544
0, 4, 120, 2.302807331085205
0, 4, 121, 1.371292591094971
0, 4, 122, 2.852721929550171
0, 4, 123, 1.344687581062317
0, 4, 124, 3.439116716384888
0, 4, 125, 3.665848970413208
0, 4, 126, 1.325817227363586
0, 4, 127, 1.153201460838318
0, 5, 0, 1.702659010887146
0, 5, 1, 2.915175437927246
0, 5, 2, 4.879443168640137
0, 5, 3, 4.805883884429932
0, 5, 4, 2.993461847305298
0, 5, 5, 2.255115985870361
0, 5, 6, 2.645444869995117
0, 5, 7, 2.877640008926392
0, 5, 8, 2.084796905517578
0, 5, 9, 2.379239797592163
0, 5, 10, 3.098133563995361
0, 5, 11, 5.033835411071777
0, 5, 12, 2.780771970748901
0, 5, 13, 4.076609134674072
0, 5, 14, 4.780431270599365
0, 5, 15, 9.632040977478027
0, 5, 16, 7.940308570861816
0, 5, 17, 21.04644203186035
0, 5, 18, 83.48477935791016
0, 5, 19, 163.9824676513672
0, 5, 20, 182.8006286621094
0, 5, 21, 177.7275238037109
0, 5, 22, 171.5170135498047
0, 5, 23, 200.7920989990234
0, 5, 24, 187.5485382080078
0, 5, 25, 206.8369598388672
0, 5, 26, 184.5593109130859
0, 5, 27, 195.3549346923828
0, 5, 28, 188.8971099853516
0, 5, 29, 195.5038757324219
0, 5, 30, 177.0958709716797
0, 5, 31, 179.7733154296875
0, 5, 32, 187.0852661132812
0, 5, 33, 169.2418670654297
0, 5, 34, 194.9778747558594
0, 5, 35, 197.1600494384766
0, 5, 36, 167.7970275878906
0, 5, 37, 195.7239990234375
0, 5, 38, 180.0336303710938
0, 5, 39, 185.9175109863281
0, 5, 40, 196.3599853515625
0, 5, 41, 176.5010833740234
0, 5, 42, 189.1662750244141
0, 5, 43, 192.6522674560547
0, 5, 44, 200.1349945068359
0, 5, 45, 185.8287811279297
0, 5, 46, 193.6790771484375
0, 5, 47, 179.4945373535156
0, 5, 48, 178.4268493652344
0, 5, 49, 179.0336761474609
0, 5, 50, 186.8837585449219
0, 5, 51, 172.9716186523438
0, 5, 52, 168.3102264404297
0, 5, 53, 182.4178466796875
0, 5, 54, 172.0333251953125
0, 5, 55, 215.8284454345703
0, 5, 56, 181.9503326416016
0, 5, 57, 206.4659271240234
0, 5, 58, 181.7782287597656
0, 5, 59, 181.1068572998047
0, 5, 60, 218.9762115478516
0, 5, 61, 185.58544921875
0, 5, 62, 179.0741119384766
0, 5, 63, 180.3523559570312
0, 5, 64, 194.2444763183594
0, 5, 65, 209.9228668212891
0, 5, 66, 192.9487609863281
0, 5, 67, 197.4064483642578
0, 5, 68, 187.4963531494141
0, 5, 69, 185.9953155517578
0, 5, 70, 185.4046020507812
0, 5, 71, 193.9569854736328
0, 5, 72, 197.6426391601562
0, 5, 73, 201.8213348388672
0, 5, 74, 179.2938690185547
0, 5, 75, 203.2288665771484
0, 5, 76, 216.0248413085938
0, 5, 77, 183.5611877441406
0, 5, 78, 196.1140594482422
0, 5, 79, 190.9852905273438
0, 5, 80, 197.7283172607422
0, 5, 81, 203.20068359375
0, 5, 82, 200.6060791015625
0, 5, 83, 188.1029968261719
0, 5, 84, 205.1767578125
0, 5, 85, 176.6377868652344
0, 5, 86, 194.8019561767578
0, 5, 87, 189.1430053710938
0, 5, 88, 176.3796997070312
0, 5, 89, 193.9217987060547
0, 5, 90, 202.5637817382812
0, 5, 91, 194.7659301757812
0, 5, 92, 191.2167510986328
0, 5, 93, 190.5849304199219
0, 5, 94, 207.3928527832031
0, 5, 95, 177.2814483642578
0, 5, 96, 181.9629364013672
0, 5, 97, 191.3478088378906
0, 5, 98, 189.3613128662109
0, 5, 99, 195.4581756591797
0, 5, 100, 185.3936920166016
0, 5, 101, 195.2995452880859
0, 5, 102, 182.2076873779297
0, 5, 103, 176.1456604003906
0, 5, 104, 189.7754364013672
0, 5, 105, 189.2172088623047
0, 5, 106, 177.3610534667969
0, 5, 107, 181.2259063720703
0, 5, 108, 175.4252319335938
0, 5, 109, 91.70735168457031
0, 5, 110, 29.75526428222656
0, 5, 111, 9.74459171295166
0, 5, 112, 6.928609371185303
0, 5, 113, 7.181542873382568
0, 5, 114, 8.401691436767578
0, 5, 115, 8.022390365600586
0, 5, 116, 4.337663650512695
0, 5, 117, 4.22605562210083
0, 5, 118, 3.489790201187134
0, 5, 119, 3.646835803985596
0, 5, 120, 1.754842638969421
0, 5, 121, 1.528074622154236
0, 5, 122, 2.153912305831909
0, 5, 123, 4.477330207824707
0, 5, 124, 3.462797880172729
0, 5, 125, 1.362903833389282
0, 5, 126, 1.296503663063049
0, 5, 127, 2.440659046173096
0, 6, 0, 3.920867681503296
0, 6, 1, 4.593394756317139
0, 6, 2, 3.599767684936523
0, 6, 3, 1.875362515449524
0, 6, 4, 3.083494424819946
0, 6, 5, 3.819678068161011
0, 6, 6, 5.286689758300781
0, 6, 7, 3.976656198501587
0, 6, 8, 5.85231876373291
0, 6, 9, 2.921329975128174
0, 6, 10, 5.049160480499268
0, 6, 11, 4.682088851928711
0, 6, 12, 4.447056770324707
0, 6, 13, 6.087588310241699
0, 6, 14, 5.350522041320801
0, 6, 15, 6.235703468322754
0, 6, 16, 12.40750885009766
0, 6, 17, 28.03001403808594
0, 6, 18, 112.5961608886719
0, 6, 19, 190.5565185546875
0, 6, 20, 195.9278411865234
0, 6, 21, 198.1958465576172
0, 6, 22, 190.9113464355469
0, 6, 23, 191.7899627685547
0, 6, 24, 200.4287719726562
0, 6, 25, 182.0699310302734
0, 6, 26, 187.3060150146484
0, 6, 27, 191.9144897460938
0, 6, 28, 190.6805267333984
0, 6, 29, 211.2266235351562
0, 6, 30, 189.7804107666016
0, 6, 31, 193.4203033447266
0, 6, 32, 206.0220489501953
0, 6, 33, 183.2658386230469
0, 6, 34, 196.6059417724609
0, 6, 35, 187.6810455322266
0, 6, 36, 181.0625457763672
0, 6, 37, 183.2515106201172
0, 6, 38, 185.1411285400391
0, 6, 39, 195.0998687744141
0, 6, 40, 175.5845489501953
0, 6, 41, 185.9547729492188
0, 6, 42, 175.4203491210938
0, 6, 43, 209.1057891845703
0, 6, 44, 209.2216949462891
0, 6, 45, 193.4329681396484
0, 6, 46, 187.6762390136719
0, 6, 47, 204.1981811523438
0, 6, 48, 188.4063720703125
0, 6, 49, 179.6507720947266
0, 6, 50, 182.5802307128906
0, 6, 51, 197.1112823486328
0, 6, 52, 197.6133880615234
0, 6, 53, 184.8665313720703
0, 6, 54, 174.7863922119141
0, 6, 55, 195.1549072265625
0, 6, 56, 202.4329071044922
0, 6, 57, 192.1015930175781
0, 6, 58, 178.0104370117188
0, 6, 59, 192.0177459716797
0, 6, 60, 184.7255706787109
0, 6, 61, 193.5579223632812
0, 6, 62, 197.6908721923828
0, 6, 63, 186.4020843505859
0, 6, 64, 170.2194366455078
0, 6, 65, 185.5164794921875
0, 6, 66, 196.4362335205078
0, 6, 67, 214.9456787109375
0, 6, 68, 181.9597625732422
0, 6, 69, 170.8856811523438
0, 6, 70, 187.3485107421875
0, 6, 71, 170.6966094970703
0, 6, 72, 175.7916259765625
0, 6, 73, 176.1906585693359
0, 6, 74, 211.3859710693359
0, 6, 75, 226.8672180175781
0, 6, 76, 184.3871459960938
0, 6, 77, 172.9827575683594
0, 6, 78, 174.9120025634766
0, 6, 79, 186.4256286621094
0, 6, 80, 187.6603240966797
0, 6, 81, 208.3845977783203
0, 6, 82, 197.9199829101562
0, 6, 83, 195.3374481201172
0, 6, 84, 197.7634735107422
0, 6, 85, 180.5459442138672
0, 6, 86, 203.9591674804688
0, 6, 87, 182.8972930908203
0, 6, 88, 192.2737884521484
0, 6, 89, 189.5242919921875
0, 6, 90, 206.4488830566406
0, 6, 91, 199.7400360107422
0, 6, 92, 172.5266723632812
0, 6, 93, 193.0380249023438
0, 6, 94, 189.2967071533203
0, 6, 95, 186.8426055908203
0, 6, 96, 189.8972625732422
0, 6, 97, 194.2640380859375
0, 6, 98, 182.8487243652344
0, 6, 99, 174.9442291259766
0, 6, 100, 202.2492218017578
0, 6, 101, 168.8547210693359
0, 6, 102, 201.4175567626953
0, 6, 103, 196.8976135253906
0, 6, 104, 183.4600372314453
0, 6, 105, 193.7474822998047
0, 6, 106, 177.4631500244141
0, 6, 107, 194.0796966552734
0, 6, 108, 172.1605529785156
0, 6, 109, 115.2922058105469
0, 6, 110, 33.78638458251953
0, 6, 111, 8.947845458984375
0, 6, 112, 8.428677558898926
0, 6, 113, 4.886294364929199
0, 6, 114, 5.912049770355225
0, 6, 115, 7.036261081695557
0, 6, 116, 3.9391188621521
0, 6, 117, 5.273258686065674
0, 6, 118, 3.270717144012451
0, 6, 119, 4.350638866424561
0, 6, 120, 1.889396548271179
0, 6, 121, 3.797513723373413
0, 6, 122, 3.382122755050659
0, 6, 123, 3.718582153320312
0, 6, 124, 2.348824262619019
0, 6, 125, 4.052407264709473
0, 6, 126, 2.163506507873535
0, 6, 127, 2.364397525787354
0, 7, 0, 3.539272308349609
0, 7, 1, 2.917340755462646
0, 7, 2, 2.942440748214722
0, 7, 3, 2.805388689041138
0, 7, 4, 0.82520592212677
0, 7, 5, 1.465490579605103
0, 7, 6, 3.676016092300415
0, 7, 7, 1.709454894065857
0, 7, 8, 3.088597059249878
0, 7, 9, 3.31838059425354
0, 7, 10, 6.236514568328857
0, 7, 11, 3.172588348388672
0, 7, 12, 3.751284837722778
0, 7, 13, 6.00135326385498
0, 7, 14, 6.591360092163086
0, 7, 15, 7.128629207611084
0, 7, 16, 15.35413646697998
0, 7, 17, 51.38959503173828
0, 7, 18, 161.9803009033203
0, 7, 19, 182.1838073730469
0, 7, 20, 179.4307708740234
0, 7, 21, 180.5931549072266
0, 7, 22, 191.5626983642578
0, 7, 23, 202.5040740966797
0, 7, 24, 178.775390625
0, 7, 25, 213.6825256347656
0, 7, 26, 188.9577331542969
0, 7, 27, 182.3558197021484
0, 7, 28, 182.6999969482422
0, 7, 29, 209.0532073974609
0, 7, 30, 193.1015014648438
0, 7, 31, 175.9973754882812
0, 7, 32, 190.9136657714844
0, 7, 33, 183.6674652099609
0, 7, 34, 193.0120697021484
0, 7, 35, 199.4968872070312
0, 7, 36, 188.6934356689453
0, 7, 37, 213.5621185302734
0, 7, 38, 191.3907470703125
0, 7, 39, 173.8061828613281
0, 7, 40, 183.1447906494141
0, 7, 41, 184.6361541748047
0, 7, 42, 177.5306396484375
0, 7, 43, 179.4898223876953
0, 7, 44, 178.8931884765625
0, 7, 45, 175.479248046875
0, 7, 46, 189.1343383789062
0, 7, 47, 197.6525573730469
0, 7, 48, 186.4741058349609
0, 7, 49, 198.9468231201172
0, 7, 50, 187.6718902587891
0, 7, 51, 204.7680358886719
0, 7, 52, 205.5010375976562
0, 7, 53, 191.3652801513672
0, 7, 54, 195.2203979492188
0, 7, 55, 204.3678131103516
0, 7, 56, 183.184814453125
0, 7, 57, 183.0942230224609
0, 7, 58, 193.8829956054688
0, 7, 59, 186.5599060058594
0, 7, 60, 202.2412109375
0, 7, 61, 171.6473541259766
0, 7, 62, 203.1713256835938
0, 7, 63, 189.00048828125
0, 7, 64, 199.5495452880859
0, 7, 65, 196.478271484375
0, 7, 66, 205.8643951416016
0, 7, 67, 220.6591796875
0, 7, 68, 163.2776336669922
0, 7, 69, 195.2422637939453
0, 7, 70, 218.9212036132812
0, 7, 71, 184.4608917236328
0, 7, 72, 182.3361206054688
0, 7, 73, 177.1510162353516
0, 7, 74, 207.9979095458984
0, 7, 75, 203.7858428955078
0, 7, 76, 214.3601684570312
0, 7, 77, 173.7888031005859
0, 7, 78, 176.7512054443359
0, 7, 79, 192.9209289550781
0, 7, 80, 195.8740539550781
0, 7, 81, 214.6861114501953
0, 7, 82, 184.3142852783203
0, 7, 83, 206.7246398925781
0, 7, 84, 193.5378723144531
0, 7, 85, 187.2650909423828
0, 7, 86, 200.4875946044922
0, 7, 87, 226.4231262207031
0, 7, 88, 195.6873626708984
0, 7, 89, 178.5693511962891
0, 7, 90, 182.2323760986328
0, 7, 91, 194.0171966552734
0, 7, 92, 194.1088256835938
0, 7, 93, 197.83447265625
0, 7, 94, 177.6382751464844
0, 7, 95, 198.1314544677734
0, 7, 96, 208.2859497070312
0, 7, 97, 188.9107208251953
0, 7, 98, 176.4191436767578
0, 7, 99, 196.3030853271484
0, 7, 100, 182.1296234130859
0, 7, 101, 199.2483367919922
0, 7, 102, 184.8310089111328
0, 7, 103, 180.5686950683594
0, 7, 104, 175.0876007080078
0, 7, 105, 194.8447418212891
0, 7, 106, 204.8517150878906
0, 7, 107, 175.4907531738281
0, 7, 108, 177.0519256591797
0, 7, 109, 136.3554077148438
0, 7, 110, 53.61074066162109
0, 7, 111, 8.460184097290039
0, 7, 112, 8.236785888671875
0, 7, 113, 8.36809253692627
0, 7, 114, 7.716731071472168
0, 7, 115, 5.555346965789795
0, 7, 116, 4.135411739349365
0, 7, 117, 2.777072668075562
0, 7, 118, 3.614299535751343
0, 7, 119, 2.94823431968689
0, 7, 120, 4.951903820037842
0, 7, 121, 2.918970346450806
0, 7, 122, 4.334826469421387
0, 7, 123, 1.304181575775146
0, 7, 124, 1.966224908828735
0, 7, 125, 2.201210498809814
0, 7, 126, 4.698898792266846
0, 7, 127, 0.8295771479606628
0, 8, 0, 3.875320434570312
0, 8, 1, 1.717491626739502
0, 8, 2, 2.799125909805298
0, 8, 3, 2.118029117584229
0, 8, 4, 1.266107082366943
0, 8, 5, 2.674077033996582
0, 8, 6, 1.408912420272827
0, 8, 7, 2.314696073532104
0, 8, 8, 2.399686813354492
0, 8, 9, 4.135693550109863
0, 8, 10, 2.933239936828613
0, 8, 11, 2.216410160064697
0, 8, 12, 3.502024412155151
0, 8, 13, 5.988224029541016
0, 8, 14, 6.145456314086914
0, 8, 15, 9.358797073364258
0, 8, 16, 21.82793045043945
0, 8, 17, 75.87596130371094
0, 8, 18, 142.3715362548828
0, 8, 19, 179.7694549560547
0, 8, 20, 191.6955871582031
0, 8, 21, 192.3364410400391
0, 8, 22, 179.5788269042969
0, 8, 23, 172.9621734619141
0, 8, 24, 191.41455078125
0, 8, 25, 185.5506591796875
0, 8, 26, 193.1068572998047
0, 8, 27, 186.0566101074219
0, 8, 28, 186.7363128662109
0, 8, 29, 209.1998901367188
0, 8, 30, 197.9125518798828
0, 8, 31, 182.8795166015625
0, 8, 32, 198.177001953125
0, 8, 33, 206.6531524658203
0, 8, 34, 202.4943084716797
0, 8, 35, 185.0288391113281
0, 8, 36, 183.5758209228516
