# TOPAS Version: 3.1.p3
# Parameter File: batch_inserts_30.txt
# Results for scorer Readout_Adipose
# Scored in component: MyBox
# X in 1 bin  of 0.65 cm
# Y in 512 bins of 0.0783984 cm
# Z in 128 bins of 0.078125 cm
# EnergyDeposit ( MeV ) : Sum   
0, 0, 0, 1.278134346008301
0, 0, 1, 3.423076868057251
0, 0, 2, 1.255250692367554
0, 0, 3, 0.885580837726593
0, 0, 4, 1.85339081287384
0, 0, 5, 0.7722392082214355
0, 0, 6, 2.125243902206421
0, 0, 7, 2.08773398399353
0, 0, 8, 2.434427499771118
0, 0, 9, 2.701997995376587
0, 0, 10, 2.135888576507568
0, 0, 11, 4.185037612915039
0, 0, 12, 3.444027423858643
0, 0, 13, 2.348201513290405
0, 0, 14, 4.693857192993164
0, 0, 15, 4.956434726715088
0, 0, 16, 4.109406471252441
0, 0, 17, 8.653244018554688
0, 0, 18, 6.015834331512451
0, 0, 19, 22.38557624816895
0, 0, 20, 95.15641784667969
0, 0, 21, 152.318115234375
0, 0, 22, 153.7858123779297
0, 0, 23, 143.9313049316406
0, 0, 24, 160.8664703369141
0, 0, 25, 167.1464385986328
0, 0, 26, 166.1947021484375
0, 0, 27, 173.4337463378906
0, 0, 28, 178.7296905517578
0, 0, 29, 174.4039306640625
0, 0, 30, 173.6573181152344
0, 0, 31, 166.8813629150391
0, 0, 32, 164.8313903808594
0, 0, 33, 166.0388641357422
0, 0, 34, 177.7121124267578
0, 0, 35, 173.2926177978516
0, 0, 36, 158.9154968261719
0, 0, 37, 161.3990478515625
0, 0, 38, 166.3760070800781
0, 0, 39, 158.8066558837891
0, 0, 40, 164.1475372314453
0, 0, 41, 165.7226867675781
0, 0, 42, 142.7227020263672
0, 0, 43, 167.4741516113281
0, 0, 44, 177.8925018310547
0, 0, 45, 172.1508636474609
0, 0, 46, 167.4165191650391
0, 0, 47, 167.6388092041016
0, 0, 48, 169.8043975830078
0, 0, 49, 182.7767791748047
0, 0, 50, 168.3963775634766
0, 0, 51, 163.4119110107422
0, 0, 52, 162.4324798583984
0, 0, 53, 173.8499603271484
0, 0, 54, 159.0572204589844
0, 0, 55, 164.3784027099609
0, 0, 56, 189.7173614501953
0, 0, 57, 171.1999969482422
0, 0, 58, 160.8453063964844
0, 0, 59, 172.9904632568359
0, 0, 60, 169.7045135498047
0, 0, 61, 169.3099517822266
0, 0, 62, 184.2909545898438
0, 0, 63, 167.3565826416016
0, 0, 64, 164.0871124267578
0, 0, 65, 174.5456695556641
0, 0, 66, 178.4326477050781
0, 0, 67, 163.8460235595703
0, 0, 68, 158.5903930664062
0, 0, 69, 158.6385040283203
0, 0, 70, 169.5449676513672
0, 0, 71, 158.3271331787109
0, 0, 72, 163.8731842041016
0, 0, 73, 171.9207305908203
0, 0, 74, 163.1649322509766
0, 0, 75, 163.5070037841797
0, 0, 76, 163.1715393066406
0, 0, 77, 173.5504302978516
0, 0, 78, 181.5473327636719
0, 0, 79, 175.8176116943359
0, 0, 80, 159.9144592285156
0, 0, 81, 160.2287292480469
0, 0, 82, 181.6523895263672
0, 0, 83, 172.7225646972656
0, 0, 84, 160.2004241943359
0, 0, 85, 181.8762664794922
0, 0, 86, 158.1580047607422
0, 0, 87, 176.9747924804688
0, 0, 88, 175.7129211425781
0, 0, 89, 175.0973052978516
0, 0, 90, 161.5871429443359
0, 0, 91, 183.9884338378906
0, 0, 92, 163.6373901367188
0, 0, 93, 156.7481689453125
0, 0, 94, 168.3495788574219
0, 0, 95, 173.8906707763672
0, 0, 96, 183.2624969482422
0, 0, 97, 183.5508880615234
0, 0, 98, 186.1255340576172
0, 0, 99, 171.7183685302734
0, 0, 100, 158.2365570068359
0, 0, 101, 168.6392822265625
0, 0, 102, 170.1952056884766
0, 0, 103, 170.8231506347656
0, 0, 104, 168.54248046875
0, 0, 105, 176.8807983398438
0, 0, 106, 159.206787109375
0, 0, 107, 85.09158325195312
0, 0, 108, 22.1672248840332
0, 0, 109, 11.17300128936768
0, 0, 110, 5.591856956481934
0, 0, 111, 7.091498851776123
0, 0, 112, 2.848025321960449
0, 0, 113, 2.389644145965576
0, 0, 114, 2.480969905853271
0, 0, 115, 3.101244449615479
0, 0, 116, 1.531586527824402
0, 0, 117, 1.633271217346191
0, 0, 118, 3.904494047164917
0, 0, 119, 2.063436269760132
0, 0, 120, 1.105013966560364
0, 0, 121, 3.637467861175537
0, 0, 122, 3.652597188949585
0, 0, 123, 3.881160497665405
0, 0, 124, 1.905302405357361
0, 0, 125, 1.992628455162048
0, 0, 126, 0.2775948643684387
0, 0, 127, 1.60395073890686
0, 1, 0, 2.831578254699707
0, 1, 1, 5.204090595245361
0, 1, 2, 2.281912803649902
0, 1, 3, 1.30516791343689
0, 1, 4, 0.1436920315027237
0, 1, 5, 1.0440673828125
0, 1, 6, 1.67439603805542
0, 1, 7, 2.024169445037842
0, 1, 8, 2.691619634628296
0, 1, 9, 3.705348014831543
0, 1, 10, 1.180905222892761
0, 1, 11, 3.568964004516602
0, 1, 12, 3.186391353607178
0, 1, 13, 3.494749784469604
0, 1, 14, 6.172306537628174
0, 1, 15, 6.588550567626953
0, 1, 16, 7.478961944580078
0, 1, 17, 4.939461231231689
0, 1, 18, 10.36337375640869
0, 1, 19, 40.07891082763672
0, 1, 20, 126.2209243774414
0, 1, 21, 176.4042510986328
0, 1, 22, 193.3539581298828
0, 1, 23, 186.2711486816406
0, 1, 24, 179.9471282958984
0, 1, 25, 192.1435241699219
0, 1, 26, 198.0564270019531
0, 1, 27, 187.3527526855469
0, 1, 28, 187.8700408935547
0, 1, 29, 184.6312713623047
0, 1, 30, 178.7199249267578
0, 1, 31, 182.058837890625
0, 1, 32, 189.4874267578125
0, 1, 33, 192.4260711669922
0, 1, 34, 184.0214385986328
0, 1, 35, 193.2476654052734
0, 1, 36, 205.8331451416016
0, 1, 37, 185.0635833740234
0, 1, 38, 165.8692932128906
0, 1, 39, 172.7006225585938
0, 1, 40, 180.9657287597656
0, 1, 41, 184.4511413574219
0, 1, 42, 182.1086730957031
0, 1, 43, 188.3695526123047
0, 1, 44, 168.3117218017578
0, 1, 45, 186.0811614990234
0, 1, 46, 170.8193511962891
0, 1, 47, 186.5121002197266
0, 1, 48, 188.3041076660156
0, 1, 49, 186.2867889404297
0, 1, 50, 178.1777648925781
0, 1, 51, 190.5256805419922
0, 1, 52, 195.8023681640625
0, 1, 53, 195.8939666748047
0, 1, 54, 185.4026489257812
0, 1, 55, 165.6465759277344
0, 1, 56, 178.9066772460938
0, 1, 57, 177.6629943847656
0, 1, 58, 189.4997711181641
0, 1, 59, 194.086669921875
0, 1, 60, 188.8704376220703
0, 1, 61, 178.8517303466797
0, 1, 62, 205.114990234375
0, 1, 63, 174.61474609375
0, 1, 64, 173.7800598144531
0, 1, 65, 185.2749938964844
0, 1, 66, 203.9977722167969
0, 1, 67, 184.2989044189453
0, 1, 68, 187.5592498779297
0, 1, 69, 188.9975891113281
0, 1, 70, 185.7147979736328
0, 1, 71, 171.6761322021484
0, 1, 72, 193.136474609375
0, 1, 73, 190.0398254394531
0, 1, 74, 201.3822937011719
0, 1, 75, 183.9757843017578
0, 1, 76, 174.1061401367188
0, 1, 77, 193.4856262207031
0, 1, 78, 189.9603576660156
0, 1, 79, 202.1181488037109
0, 1, 80, 187.6529083251953
0, 1, 81, 174.1683959960938
0, 1, 82, 208.8913726806641
0, 1, 83, 212.9640045166016
0, 1, 84, 179.8366241455078
0, 1, 85, 169.3095855712891
0, 1, 86, 168.5517272949219
0, 1, 87, 184.7874145507812
0, 1, 88, 175.3262481689453
0, 1, 89, 186.3571166992188
0, 1, 90, 214.0583801269531
0, 1, 91, 180.5263366699219
0, 1, 92, 184.3235931396484
0, 1, 93, 180.9829559326172
0, 1, 94, 186.5244293212891
0, 1, 95, 182.4053802490234
0, 1, 96, 197.1771850585938
0, 1, 97, 182.7295074462891
0, 1, 98, 187.0833587646484
0, 1, 99, 175.2173767089844
0, 1, 100, 172.4586486816406
0, 1, 101, 178.5530700683594
0, 1, 102, 183.1707763671875
0, 1, 103, 173.2299194335938
0, 1, 104, 189.1751251220703
0, 1, 105, 180.7846221923828
0, 1, 106, 163.3516082763672
0, 1, 107, 125.5536041259766
0, 1, 108, 47.02835083007812
0, 1, 109, 9.719327926635742
0, 1, 110, 6.879799365997314
0, 1, 111, 6.400004863739014
0, 1, 112, 7.07831859588623
0, 1, 113, 7.047125339508057
0, 1, 114, 4.703469276428223
0, 1, 115, 3.669821262359619
0, 1, 116, 2.962501049041748
0, 1, 117, 1.776896595954895
0, 1, 118, 3.743930339813232
0, 1, 119, 3.319493770599365
0, 1, 120, 3.214997529983521
0, 1, 121, 4.163076400756836
0, 1, 122, 4.454797267913818
0, 1, 123, 2.353520631790161
0, 1, 124, 1.948125004768372
0, 1, 125, 2.023118734359741
0, 1, 126, 1.488170266151428
0, 1, 127, 2.093827486038208
0, 2, 0, 1.51064932346344
0, 2, 1, 1.644471883773804
0, 2, 2, 3.035293579101562
0, 2, 3, 2.033036947250366
0, 2, 4, 3.504368782043457
0, 2, 5, 1.215943336486816
0, 2, 6, 3.491451978683472
0, 2, 7, 1.584598541259766
0, 2, 8, 1.184886693954468
0, 2, 9, 1.555906057357788
0, 2, 10, 4.235608100891113
0, 2, 11, 3.516931533813477
0, 2, 12, 3.773009061813354
0, 2, 13, 5.885900497436523
0, 2, 14, 3.606006860733032
0, 2, 15, 7.750851631164551
0, 2, 16, 5.92075777053833
0, 2, 17, 8.878254890441895
0, 2, 18, 14.52358341217041
0, 2, 19, 76.73450469970703
0, 2, 20, 161.8038330078125
0, 2, 21, 182.599853515625
0, 2, 22, 194.5611877441406
0, 2, 23, 183.501953125
0, 2, 24, 173.0080718994141
0, 2, 25, 184.0931701660156
0, 2, 26, 179.6101684570312
0, 2, 27, 189.5323028564453
0, 2, 28, 170.7490997314453
0, 2, 29, 169.4625396728516
0, 2, 30, 187.3814086914062
0, 2, 31, 182.7642669677734
0, 2, 32, 184.7179870605469
0, 2, 33, 190.3262939453125
0, 2, 34, 198.2618713378906
0, 2, 35, 181.5535430908203
0, 2, 36, 185.4035186767578
0, 2, 37, 180.9162445068359
0, 2, 38, 183.7756805419922
0, 2, 39, 167.188720703125
0, 2, 40, 183.6976318359375
0, 2, 41, 183.9753723144531
0, 2, 42, 190.4932861328125
0, 2, 43, 193.2966003417969
0, 2, 44, 192.7960815429688
0, 2, 45, 190.8685455322266
0, 2, 46, 195.5414276123047
0, 2, 47, 190.7628173828125
0, 2, 48, 177.4025268554688
0, 2, 49, 197.9480438232422
0, 2, 50, 170.4237670898438
0, 2, 51, 183.7104949951172
0, 2, 52, 186.0807037353516
0, 2, 53, 195.1501770019531
0, 2, 54, 175.5746459960938
0, 2, 55, 173.1182708740234
0, 2, 56, 182.0714874267578
0, 2, 57, 200.1417236328125
0, 2, 58, 186.7239227294922
0, 2, 59, 189.3865814208984
0, 2, 60, 196.4691772460938
0, 2, 61, 193.0281372070312
0, 2, 62, 191.2300109863281
0, 2, 63, 172.5248565673828
0, 2, 64, 188.747802734375
0, 2, 65, 202.235107421875
0, 2, 66, 196.3748931884766
0, 2, 67, 185.3893127441406
0, 2, 68, 182.2342071533203
0, 2, 69, 188.4520416259766
0, 2, 70, 203.2984619140625
0, 2, 71, 175.634765625
0, 2, 72, 185.2509307861328
0, 2, 73, 177.3910980224609
0, 2, 74, 179.8267059326172
0, 2, 75, 195.9851684570312
0, 2, 76, 183.7014617919922
0, 2, 77, 176.4834594726562
0, 2, 78, 197.1426086425781
0, 2, 79, 178.9618682861328
0, 2, 80, 186.2655944824219
0, 2, 81, 187.3423614501953
0, 2, 82, 204.0165100097656
0, 2, 83, 203.7732086181641
0, 2, 84, 190.2373352050781
0, 2, 85, 170.7078094482422
0, 2, 86, 196.0318145751953
0, 2, 87, 171.6042022705078
0, 2, 88, 179.5209045410156
0, 2, 89, 184.4453430175781
0, 2, 90, 178.4371643066406
0, 2, 91, 173.8249359130859
0, 2, 92, 196.9801025390625
0, 2, 93, 194.5203704833984
0, 2, 94, 200.5072631835938
0, 2, 95, 192.7613372802734
0, 2, 96, 185.9038391113281
0, 2, 97, 171.5883026123047
0, 2, 98, 173.0987548828125
0, 2, 99, 164.9133605957031
0, 2, 100, 187.2370300292969
0, 2, 101, 197.5408172607422
0, 2, 102, 176.656005859375
0, 2, 103, 198.9068603515625
0, 2, 104, 187.8054351806641
0, 2, 105, 201.2181243896484
0, 2, 106, 195.6772155761719
0, 2, 107, 149.8180389404297
0, 2, 108, 79.96660614013672
0, 2, 109, 17.78739738464355
0, 2, 110, 7.039577960968018
0, 2, 111, 6.775406837463379
0, 2, 112, 3.806821823120117
0, 2, 113, 5.628603935241699
0, 2, 114, 7.66662073135376
0, 2, 115, 3.284379720687866
0, 2, 116, 1.768526196479797
0, 2, 117, 1.983574151992798
0, 2, 118, 3.045393943786621
0, 2, 119, 3.173272371292114
0, 2, 120, 1.544297337532043
0, 2, 121, 3.067831039428711
0, 2, 122, 0.9416557550430298
0, 2, 123, 2.897592544555664
0, 2, 124, 2.398475646972656
0, 2, 125, 2.161111354827881
0, 2, 126, 3.180161476135254
0, 2, 127, 1.149720549583435
0, 3, 0, 1.358768939971924
0, 3, 1, 2.727228403091431
0, 3, 2, 2.068919658660889
0, 3, 3, 0.9584130644798279
0, 3, 4, 5.240811824798584
0, 3, 5, 2.801017284393311
0, 3, 6, 1.913153171539307
0, 3, 7, 1.597841501235962
0, 3, 8, 1.915643334388733
0, 3, 9, 2.926193237304688
0, 3, 10, 1.669491291046143
0, 3, 11, 4.579182624816895
0, 3, 12, 3.230600833892822
0, 3, 13, 3.492156982421875
0, 3, 14, 7.701879978179932
0, 3, 15, 6.813207626342773
0, 3, 16, 7.823062896728516
0, 3, 17, 6.058165550231934
0, 3, 18, 34.73002624511719
0, 3, 19, 113.8099670410156
0, 3, 20, 180.3187408447266
0, 3, 21, 172.3952331542969
0, 3, 22, 178.2716979980469
0, 3, 23, 189.2448425292969
0, 3, 24, 177.6256256103516
0, 3, 25, 169.7744293212891
0, 3, 26, 180.3198547363281
0, 3, 27, 190.8098602294922
0, 3, 28, 181.2971496582031
0, 3, 29, 197.9141540527344
0, 3, 30, 185.1814575195312
0, 3, 31, 194.2936859130859
0, 3, 32, 206.0184478759766
0, 3, 33, 195.3048248291016
0, 3, 34, 187.1378936767578
0, 3, 35, 174.4299621582031
0, 3, 36, 185.2594604492188
0, 3, 37, 199.8663024902344
0, 3, 38, 191.2126770019531
0, 3, 39, 184.1964416503906
0, 3, 40, 166.4508972167969
0, 3, 41, 174.7255554199219
0, 3, 42, 185.4576110839844
0, 3, 43, 181.6594085693359
0, 3, 44, 202.2656555175781
0, 3, 45, 207.2957916259766
0, 3, 46, 199.3471221923828
0, 3, 47, 194.4098205566406
0, 3, 48, 194.8829345703125
0, 3, 49, 180.1069183349609
0, 3, 50, 186.3873596191406
0, 3, 51, 173.948486328125
0, 3, 52, 187.4733123779297
0, 3, 53, 178.7434539794922
0, 3, 54, 178.343994140625
0, 3, 55, 176.6189727783203
0, 3, 56, 181.9706726074219
0, 3, 57, 175.1920166015625
0, 3, 58, 200.8614044189453
0, 3, 59, 197.5842437744141
0, 3, 60, 185.9125518798828
0, 3, 61, 181.8544769287109
0, 3, 62, 183.58935546875
0, 3, 63, 183.6870422363281
0, 3, 64, 188.4809112548828
0, 3, 65, 188.7055358886719
0, 3, 66, 175.5409698486328
0, 3, 67, 189.8055572509766
0, 3, 68, 211.4382019042969
0, 3, 69, 189.6536712646484
0, 3, 70, 186.7027587890625
0, 3, 71, 196.3635711669922
0, 3, 72, 185.4015045166016
0, 3, 73, 186.6358795166016
0, 3, 74, 192.9841918945312
0, 3, 75, 193.3660430908203
0, 3, 76, 190.5059051513672
0, 3, 77, 201.2218627929688
0, 3, 78, 188.9733734130859
0, 3, 79, 184.6982574462891
0, 3, 80, 188.7519378662109
0, 3, 81, 183.1238403320312
0, 3, 82, 178.3370361328125
0, 3, 83, 196.6987457275391
0, 3, 84, 200.9450073242188
0, 3, 85, 191.5204162597656
0, 3, 86, 203.3857727050781
0, 3, 87, 196.8599090576172
0, 3, 88, 190.5721130371094
0, 3, 89, 192.8474578857422
0, 3, 90, 174.1072845458984
0, 3, 91, 156.6461029052734
0, 3, 92, 206.8218383789062
0, 3, 93, 195.2649230957031
0, 3, 94, 193.068115234375
0, 3, 95, 213.0423583984375
0, 3, 96, 209.0357971191406
0, 3, 97, 167.6112823486328
0, 3, 98, 167.9411163330078
0, 3, 99, 180.2003021240234
0, 3, 100, 176.3991241455078
0, 3, 101, 198.2552032470703
0, 3, 102, 195.2120361328125
0, 3, 103, 193.3410034179688
0, 3, 104, 202.1223297119141
0, 3, 105, 175.2063598632812
0, 3, 106, 180.7957916259766
0, 3, 107, 171.0221710205078
0, 3, 108, 108.3955230712891
0, 3, 109, 27.24889183044434
0, 3, 110, 9.398999214172363
0, 3, 111, 6.488405704498291
0, 3, 112, 4.066169738769531
0, 3, 113, 7.605471134185791
0, 3, 114, 4.783199787139893
0, 3, 115, 5.419143199920654
0, 3, 116, 6.565779685974121
0, 3, 117, 4.222520351409912
0, 3, 118, 1.693831562995911
0, 3, 119, 2.807422399520874
0, 3, 120, 3.305481910705566
0, 3, 121, 3.193490743637085
0, 3, 122, 3.165091037750244
0, 3, 123, 1.038114190101624
0, 3, 124, 1.784523248672485
0, 3, 125, 1.566925764083862
0, 3, 126, 2.199720621109009
0, 3, 127, 2.000312805175781
0, 4, 0, 0.9161520004272461
0, 4, 1, 0.4471725225448608
0, 4, 2, 2.449535846710205
0, 4, 3, 3.706810474395752
0, 4, 4, 2.08905553817749
0, 4, 5, 2.424726009368896
0, 4, 6, 2.350253820419312
0, 4, 7, 2.018770933151245
0, 4, 8, 1.684974193572998
0, 4, 9, 3.141790866851807
0, 4, 10, 3.217629194259644
0, 4, 11, 2.96087384223938
0, 4, 12, 5.827456951141357
0, 4, 13, 5.907730102539062
0, 4, 14, 4.276848793029785
0, 4, 15, 8.69140625
0, 4, 16, 7.247916698455811
0, 4, 17, 13.10017108917236
0, 4, 18, 56.23125076293945
0, 4, 19, 151.9129943847656
0, 4, 20, 192.6947784423828
0, 4, 21, 169.1795349121094
0, 4, 22, 187.22509765625
0, 4, 23, 195.8279113769531
0, 4, 24, 193.2888946533203
0, 4, 25, 202.286376953125
0, 4, 26, 183.2552642822266
0, 4, 27, 191.2287292480469
0, 4, 28, 178.4207916259766
0, 4, 29, 205.817138671875
0, 4, 30, 195.869140625
0, 4, 31, 191.1340942382812
0, 4, 32, 209.2028198242188
0, 4, 33, 189.4526977539062
0, 4, 34, 193.3072052001953
0, 4, 35, 213.8757781982422
0, 4, 36, 192.7298431396484
0, 4, 37, 176.5827941894531
0, 4, 38, 194.7819671630859
0, 4, 39, 189.7783050537109
0, 4, 40, 184.8938293457031
0, 4, 41, 190.2896423339844
0, 4, 42, 207.5333251953125
0, 4, 43, 174.8278198242188
0, 4, 44, 184.4255828857422
0, 4, 45, 197.0515289306641
0, 4, 46, 185.9824829101562
0, 4, 47, 179.5720672607422
0, 4, 48, 185.1981658935547
0, 4, 49, 174.9481964111328
0, 4, 50, 186.5349578857422
0, 4, 51, 199.0592193603516
0, 4, 52, 223.4948425292969
0, 4, 53, 206.9916229248047
0, 4, 54, 189.2020874023438
0, 4, 55, 175.6102294921875
0, 4, 56, 190.9169158935547
0, 4, 57, 191.1483764648438
0, 4, 58, 187.5147552490234
0, 4, 59, 190.3498840332031
0, 4, 60, 195.5960693359375
0, 4, 61, 193.9935455322266
0, 4, 62, 190.2145843505859
0, 4, 63, 179.8553314208984
0, 4, 64, 211.5553588867188
0, 4, 65, 192.8669738769531
0, 4, 66, 201.7983703613281
0, 4, 67, 200.0277709960938
0, 4, 68, 202.7530975341797
0, 4, 69, 198.8698425292969
0, 4, 70, 204.2025604248047
0, 4, 71, 206.2700958251953
0, 4, 72, 215.0995788574219
0, 4, 73, 186.4872283935547
0, 4, 74, 180.6456451416016
0, 4, 75, 185.6197814941406
0, 4, 76, 189.7347564697266
0, 4, 77, 183.1711883544922
0, 4, 78, 195.0800018310547
0, 4, 79, 204.109130859375
0, 4, 80, 211.0370788574219
0, 4, 81, 197.7735137939453
0, 4, 82, 182.2418060302734
0, 4, 83, 170.4684143066406
0, 4, 84, 192.4743041992188
0, 4, 85, 196.6998291015625
0, 4, 86, 181.2042846679688
0, 4, 87, 183.3396453857422
0, 4, 88, 204.1910705566406
0, 4, 89, 187.9586486816406
0, 4, 90, 211.422607421875
0, 4, 91, 189.1259155273438
0, 4, 92, 195.6427154541016
0, 4, 93, 195.3908996582031
0, 4, 94, 185.6235656738281
0, 4, 95, 173.974365234375
0, 4, 96, 189.9269714355469
0, 4, 97, 192.8365783691406
0, 4, 98, 201.5832214355469
0, 4, 99, 182.8683624267578
0, 4, 100, 182.7435607910156
0, 4, 101, 176.6356353759766
0, 4, 102, 172.7904968261719
0, 4, 103, 185.2662200927734
0, 4, 104, 209.6293640136719
0, 4, 105, 190.8814086914062
0, 4, 106, 180.2575531005859
0, 4, 107, 181.5419006347656
0, 4, 108, 152.2935943603516
0, 4, 109, 50.32675170898438
0, 4, 110, 11.32961463928223
0, 4, 111, 9.810583114624023
0, 4, 112, 5.957648754119873
0, 4, 113, 7.892173767089844
0, 4, 114, 7.58365535736084
0, 4, 115, 5.106361389160156
0, 4, 116, 5.510421276092529
0, 4, 117, 2.633913516998291
0, 4, 118, 3.653245210647583
0, 4, 119, 3.156821966171265
0, 4, 120, 2.687137126922607
0, 4, 121, 2.774034261703491
0, 4, 122, 3.143264055252075
0, 4, 123, 1.44629180431366
0, 4, 124, 2.790804386138916
0, 4, 125, 2.879845380783081
0, 4, 126, 1.093589186668396
0, 4, 127, 0.9984617829322815
0, 5, 0, 2.540629863739014
0, 5, 1, 2.986196517944336
0, 5, 2, 7.16873025894165
0, 5, 3, 3.669970273971558
0, 5, 4, 3.04853343963623
0, 5, 5, 1.282534837722778
0, 5, 6, 2.013496398925781
0, 5, 7, 3.895932197570801
0, 5, 8, 2.608080387115479
0, 5, 9, 2.192432880401611
0, 5, 10, 4.126842975616455
0, 5, 11, 2.949226140975952
0, 5, 12, 3.98535418510437
0, 5, 13, 3.867162227630615
0, 5, 14, 5.413267612457275
0, 5, 15, 8.301375389099121
0, 5, 16, 7.768097877502441
0, 5, 17, 23.77085113525391
0, 5, 18, 83.34625244140625
0, 5, 19, 163.5733947753906
0, 5, 20, 184.2392425537109
0, 5, 21, 177.1243896484375
0, 5, 22, 171.4938201904297
0, 5, 23, 200.4933471679688
0, 5, 24, 186.8122406005859
0, 5, 25, 207.6551208496094
0, 5, 26, 182.4467163085938
0, 5, 27, 193.2160797119141
0, 5, 28, 190.4267120361328
0, 5, 29, 195.1244812011719
0, 5, 30, 177.5636901855469
0, 5, 31, 180.9906005859375
0, 5, 32, 187.3884887695312
0, 5, 33, 170.6328887939453
0, 5, 34, 195.4191131591797
0, 5, 35, 200.4660034179688
0, 5, 36, 170.0940704345703
0, 5, 37, 196.7345275878906
0, 5, 38, 182.2239379882812
0, 5, 39, 185.8579711914062
0, 5, 40, 196.1127319335938
0, 5, 41, 176.9869232177734
0, 5, 42, 187.8280792236328
0, 5, 43, 192.6373596191406
0, 5, 44, 199.9397735595703
0, 5, 45, 186.4608764648438
0, 5, 46, 192.8023681640625
0, 5, 47, 181.181396484375
0, 5, 48, 180.6006774902344
0, 5, 49, 177.3621215820312
0, 5, 50, 186.6673431396484
0, 5, 51, 171.4527587890625
0, 5, 52, 167.5542144775391
0, 5, 53, 182.4568634033203
0, 5, 54, 171.9388427734375
0, 5, 55, 215.2790832519531
0, 5, 56, 182.0688018798828
0, 5, 57, 207.885986328125
0, 5, 58, 181.8858795166016
0, 5, 59, 180.6019897460938
0, 5, 60, 217.8018188476562
0, 5, 61, 184.387939453125
0, 5, 62, 178.1012725830078
0, 5, 63, 180.0455932617188
0, 5, 64, 195.6260070800781
0, 5, 65, 210.0475158691406
0, 5, 66, 192.0398254394531
0, 5, 67, 197.7124786376953
0, 5, 68, 185.0102386474609
0, 5, 69, 184.8579406738281
0, 5, 70, 185.5072631835938
0, 5, 71, 194.1180877685547
0, 5, 72, 198.3778533935547
0, 5, 73, 200.9876098632812
0, 5, 74, 179.1539154052734
0, 5, 75, 203.8431854248047
0, 5, 76, 213.7278442382812
0, 5, 77, 181.2030334472656
0, 5, 78, 195.1114807128906
0, 5, 79, 189.9590301513672
0, 5, 80, 197.3600158691406
0, 5, 81, 202.9517364501953
0, 5, 82, 201.433837890625
0, 5, 83, 188.3020477294922
0, 5, 84, 205.3228302001953
0, 5, 85, 177.5482482910156
0, 5, 86, 196.61669921875
0, 5, 87, 187.4430847167969
0, 5, 88, 176.4903106689453
0, 5, 89, 193.7777862548828
0, 5, 90, 198.3271179199219
0, 5, 91, 195.0075531005859
0, 5, 92, 190.7755432128906
0, 5, 93, 191.2816772460938
0, 5, 94, 207.4733123779297
0, 5, 95, 179.6477813720703
0, 5, 96, 184.7806701660156
0, 5, 97, 191.4263610839844
0, 5, 98, 188.8295593261719
0, 5, 99, 194.0893859863281
0, 5, 100, 186.4322509765625
0, 5, 101, 195.7174682617188
0, 5, 102, 181.9754486083984
0, 5, 103, 176.1956176757812
0, 5, 104, 189.8947601318359
0, 5, 105, 189.1852569580078
0, 5, 106, 176.8496856689453
0, 5, 107, 180.7150421142578
0, 5, 108, 176.9406280517578
0, 5, 109, 91.94225311279297
0, 5, 110, 30.66253471374512
0, 5, 111, 8.934885025024414
0, 5, 112, 6.823534488677979
0, 5, 113, 6.045341014862061
0, 5, 114, 5.447683811187744
0, 5, 115, 5.847149848937988
0, 5, 116, 4.59238338470459
0, 5, 117, 2.634037494659424
0, 5, 118, 3.400435447692871
0, 5, 119, 3.637523889541626
0, 5, 120, 3.24927806854248
0, 5, 121, 2.056665658950806
0, 5, 122, 2.821066617965698
0, 5, 123, 4.482211589813232
0, 5, 124, 2.741601705551147
0, 5, 125, 1.569387555122375
0, 5, 126, 1.487673997879028
0, 5, 127, 2.447635412216187
0, 6, 0, 4.255584239959717
0, 6, 1, 4.701069831848145
0, 6, 2, 4.675724983215332
0, 6, 3, 1.305966377258301
0, 6, 4, 3.254071474075317
0, 6, 5, 3.974145174026489
0, 6, 6, 2.480613231658936
0, 6, 7, 3.758597612380981
0, 6, 8, 3.715404272079468
0, 6, 9, 4.931458950042725
0, 6, 10, 3.797882080078125
0, 6, 11, 4.198253154754639
0, 6, 12, 5.380324363708496
0, 6, 13, 5.062803745269775
0, 6, 14, 6.743340969085693
0, 6, 15, 6.744580268859863
0, 6, 16, 12.85859107971191
0, 6, 17, 30.38613700866699
0, 6, 18, 112.9686126708984
0, 6, 19, 192.1668548583984
0, 6, 20, 195.7391357421875
0, 6, 21, 197.4632415771484
0, 6, 22, 190.6359710693359
0, 6, 23, 190.7826232910156
0, 6, 24, 200.9669952392578
0, 6, 25, 181.4268035888672
0, 6, 26, 187.0589141845703
0, 6, 27, 192.5679016113281
0, 6, 28, 189.8944702148438
0, 6, 29, 210.5887908935547
0, 6, 30, 189.3488159179688
0, 6, 31, 192.9810180664062
0, 6, 32, 206.5518798828125
0, 6, 33, 184.7122344970703
0, 6, 34, 198.0843963623047
0, 6, 35, 187.1536560058594
0, 6, 36, 178.7647094726562
0, 6, 37, 183.0288543701172
0, 6, 38, 184.6793365478516
0, 6, 39, 194.80078125
0, 6, 40, 175.068115234375
0, 6, 41, 185.1710357666016
0, 6, 42, 173.6052856445312
0, 6, 43, 210.7202301025391
0, 6, 44, 208.9356689453125
0, 6, 45, 193.475341796875
0, 6, 46, 187.3936157226562
0, 6, 47, 204.8363494873047
0, 6, 48, 188.7840576171875
0, 6, 49, 178.94384765625
0, 6, 50, 182.0378265380859
0, 6, 51, 196.3109893798828
0, 6, 52, 197.3190002441406
0, 6, 53, 184.8564758300781
0, 6, 54, 176.7577209472656
0, 6, 55, 195.8633117675781
0, 6, 56, 205.0610504150391
0, 6, 57, 191.7263793945312
0, 6, 58, 180.8343048095703
0, 6, 59, 193.2973785400391
0, 6, 60, 185.4679870605469
0, 6, 61, 194.1325836181641
0, 6, 62, 196.1979064941406
0, 6, 63, 186.3022155761719
0, 6, 64, 168.2210845947266
0, 6, 65, 186.2926940917969
0, 6, 66, 197.728515625
0, 6, 67, 214.7457885742188
0, 6, 68, 181.7246398925781
0, 6, 69, 171.3568420410156
0, 6, 70, 187.3869781494141
0, 6, 71, 171.1550445556641
0, 6, 72, 175.7412719726562
0, 6, 73, 178.1612243652344
0, 6, 74, 209.9709930419922
0, 6, 75, 226.6477813720703
0, 6, 76, 185.6871032714844
0, 6, 77, 174.0752563476562
0, 6, 78, 175.0136871337891
0, 6, 79, 186.4026336669922
0, 6, 80, 188.8710479736328
0, 6, 81, 208.802978515625
0, 6, 82, 195.6614074707031
0, 6, 83, 196.6016387939453
0, 6, 84, 197.4285736083984
0, 6, 85, 181.4435424804688
0, 6, 86, 201.1622619628906
0, 6, 87, 183.5886535644531
0, 6, 88, 192.6659851074219
0, 6, 89, 189.7733764648438
0, 6, 90, 205.6477508544922
0, 6, 91, 199.9665222167969
0, 6, 92, 173.3234558105469
0, 6, 93, 191.9660797119141
0, 6, 94, 189.1162261962891
0, 6, 95, 184.8213653564453
0, 6, 96, 188.4366760253906
0, 6, 97, 196.8275146484375
0, 6, 98, 183.6225891113281
0, 6, 99, 176.0130767822266
0, 6, 100, 200.7044067382812
0, 6, 101, 168.0720825195312
0, 6, 102, 201.5375518798828
0, 6, 103, 195.5797271728516
0, 6, 104, 183.2248382568359
0, 6, 105, 193.3663940429688
0, 6, 106, 176.7516479492188
0, 6, 107, 194.9562377929688
0, 6, 108, 170.6454315185547
0, 6, 109, 114.2843475341797
0, 6, 110, 35.35081481933594
0, 6, 111, 8.688159942626953
0, 6, 112, 8.161584854125977
0, 6, 113, 4.994087219238281
0, 6, 114, 5.255843162536621
0, 6, 115, 3.902374029159546
0, 6, 116, 3.59545373916626
0, 6, 117, 3.733042001724243
0, 6, 118, 2.707411050796509
0, 6, 119, 4.318870544433594
0, 6, 120, 2.891891956329346
0, 6, 121, 5.43704891204834
0, 6, 122, 3.138114929199219
0, 6, 123, 2.710570573806763
0, 6, 124, 3.083481550216675
0, 6, 125, 4.069072723388672
0, 6, 126, 1.91455090045929
0, 6, 127, 2.583070039749146
0, 7, 0, 3.504605293273926
0, 7, 1, 1.246244072914124
0, 7, 2, 1.977050423622131
0, 7, 3, 2.605300188064575
0, 7, 4, 0.8822098970413208
0, 7, 5, 1.638930320739746
0, 7, 6, 1.926912188529968
0, 7, 7, 1.786181926727295
0, 7, 8, 3.146795988082886
0, 7, 9, 3.4639892578125
0, 7, 10, 5.250485897064209
0, 7, 11, 3.128308296203613
0, 7, 12, 4.698419570922852
0, 7, 13, 5.973462581634521
0, 7, 14, 7.501383781433105
0, 7, 15, 7.270581245422363
0, 7, 16, 16.0020580291748
0, 7, 17, 49.50151824951172
0, 7, 18, 161.7142028808594
0, 7, 19, 183.3990936279297
0, 7, 20, 180.0121612548828
0, 7, 21, 180.1198272705078
0, 7, 22, 190.5304565429688
0, 7, 23, 203.219482421875
0, 7, 24, 178.7516784667969
0, 7, 25, 212.0526580810547
0, 7, 26, 189.2201385498047
0, 7, 27, 182.1535949707031
0, 7, 28, 181.9665222167969
0, 7, 29, 208.7332000732422
0, 7, 30, 192.6221466064453
0, 7, 31, 175.1581115722656
0, 7, 32, 190.0886688232422
0, 7, 33, 180.0006408691406
0, 7, 34, 194.9048309326172
0, 7, 35, 196.5179138183594
0, 7, 36, 186.7048950195312
0, 7, 37, 212.6689910888672
0, 7, 38, 191.5111999511719
0, 7, 39, 173.7310638427734
0, 7, 40, 183.1214141845703
0, 7, 41, 185.1769104003906
0, 7, 42, 178.0452880859375
0, 7, 43, 176.9576873779297
0, 7, 44, 178.8134613037109
0, 7, 45, 174.5023956298828
0, 7, 46, 189.8530578613281
0, 7, 47, 197.4476928710938
0, 7, 48, 186.3589630126953
0, 7, 49, 198.1466979980469
0, 7, 50, 187.9139251708984
0, 7, 51, 205.0927276611328
0, 7, 52, 203.9494171142578
0, 7, 53, 191.8464202880859
0, 7, 54, 194.7041473388672
0, 7, 55, 203.7094573974609
0, 7, 56, 184.0839691162109
0, 7, 57, 182.4942474365234
0, 7, 58, 192.3504333496094
0, 7, 59, 187.5373229980469
0, 7, 60, 202.2635192871094
0, 7, 61, 170.4351959228516
0, 7, 62, 203.2150115966797
0, 7, 63, 190.6232299804688
0, 7, 64, 199.0091552734375
0, 7, 65, 200.4954986572266
0, 7, 66, 206.9279174804688
0, 7, 67, 219.59619140625
0, 7, 68, 163.09326171875
0, 7, 69, 194.3943176269531
0, 7, 70, 218.866943359375
0, 7, 71, 184.5892333984375
0, 7, 72, 181.1921539306641
0, 7, 73, 177.5071411132812
0, 7, 74, 207.6013488769531
0, 7, 75, 205.4833526611328
0, 7, 76, 216.4029235839844
0, 7, 77, 175.4941558837891
0, 7, 78, 177.3108215332031
0, 7, 79, 194.9974365234375
0, 7, 80, 196.3523559570312
0, 7, 81, 215.4437713623047
0, 7, 82, 185.8937225341797
0, 7, 83, 205.6917419433594
0, 7, 84, 191.4928436279297
0, 7, 85, 185.3510589599609
0, 7, 86, 200.9954833984375
0, 7, 87, 227.1925811767578
0, 7, 88, 194.8890075683594
0, 7, 89, 177.8727264404297
0, 7, 90, 183.7270812988281
0, 7, 91, 193.6613311767578
0, 7, 92, 194.1196899414062
0, 7, 93, 198.6865234375
0, 7, 94, 177.7039184570312
0, 7, 95, 198.271728515625
0, 7, 96, 208.7088165283203
0, 7, 97, 188.6608581542969
0, 7, 98, 176.0003204345703
0, 7, 99, 197.9604034423828
0, 7, 100, 181.4669342041016
0, 7, 101, 199.0226287841797
0, 7, 102, 185.0259399414062
0, 7, 103, 182.0637054443359
0, 7, 104, 174.1360626220703
0, 7, 105, 195.2322540283203
0, 7, 106, 204.9899749755859
0, 7, 107, 173.1416625976562
0, 7, 108, 177.3827819824219
0, 7, 109, 139.2698822021484
0, 7, 110, 54.45937728881836
0, 7, 111, 8.683093070983887
0, 7, 112, 7.97999095916748
0, 7, 113, 8.799825668334961
0, 7, 114, 6.617637634277344
0, 7, 115, 6.603676319122314
0, 7, 116, 6.479903221130371
0, 7, 117, 3.962616920471191
0, 7, 118, 3.764854192733765
0, 7, 119, 2.515533924102783
0, 7, 120, 2.690818786621094
0, 7, 121, 2.456954002380371
0, 7, 122, 2.211627960205078
0, 7, 123, 2.146198749542236
0, 7, 124, 0.8481943011283875
0, 7, 125, 4.314645290374756
0, 7, 126, 3.085798501968384
0, 7, 127, 1.443530201911926
0, 8, 0, 4.94524097442627
0, 8, 1, 3.83712100982666
0, 8, 2, 3.351712465286255
0, 8, 3, 2.760308980941772
0, 8, 4, 1.46341872215271
0, 8, 5, 4.91520881652832
0, 8, 6, 3.0411217212677
0, 8, 7, 3.654158115386963
0, 8, 8, 3.817074537277222
0, 8, 9, 6.41594123840332
0, 8, 10, 1.709985136985779
0, 8, 11, 3.282177686691284
0, 8, 12, 3.747427225112915
0, 8, 13, 5.232096672058105
0, 8, 14, 6.845856189727783
0, 8, 15, 8.175546646118164
0, 8, 16, 19.1245059967041
0, 8, 17, 74.43765258789062
0, 8, 18, 142.7252807617188
0, 8, 19, 179.2083282470703
0, 8, 20, 193.3538360595703
0, 8, 21, 192.4067230224609
0, 8, 22, 180.306640625
0, 8, 23, 172.5982513427734
0, 8, 24, 192.3914184570312
0, 8, 25, 185.0047302246094
0, 8, 26, 193.089599609375
0, 8, 27, 187.0622406005859
0, 8, 28, 189.2947387695312
0, 8, 29, 206.4949340820312
0, 8, 30, 198.2053375244141
0, 8, 31, 182.0878601074219
0, 8, 32, 200.9176177978516
0, 8, 33, 206.5971527099609
0, 8, 34, 203.1173095703125
0, 8, 35, 184.8964233398438
0, 8, 36, 182.44140625
