# TOPAS Version: 3.1.p3
# Parameter File: batch_inserts_146.txt
# Results for scorer Readout_Adipose
# Scored in component: MyBox
# X in 1 bin  of 0.65 cm
# Y in 512 bins of 0.0783984 cm
# Z in 128 bins of 0.078125 cm
# EnergyDeposit ( MeV ) : Sum   
0, 0, 0, 1.617923855781555
0, 0, 1, 5.747369766235352
0, 0, 2, 1.764035105705261
0, 0, 3, 0.7481541633605957
0, 0, 4, 2.392003059387207
0, 0, 5, 2.155457973480225
0, 0, 6, 2.055943250656128
0, 0, 7, 2.49192476272583
0, 0, 8, 1.651670455932617
0, 0, 9, 2.418524980545044
0, 0, 10, 2.172931432723999
0, 0, 11, 3.347743272781372
0, 0, 12, 4.133845329284668
0, 0, 13, 2.046916723251343
0, 0, 14, 4.773910999298096
0, 0, 15, 5.312777996063232
0, 0, 16, 3.903061866760254
0, 0, 17, 5.501045227050781
0, 0, 18, 7.154097557067871
0, 0, 19, 24.12349891662598
0, 0, 20, 94.59456634521484
0, 0, 21, 153.5221252441406
0, 0, 22, 154.0319061279297
0, 0, 23, 143.9794158935547
0, 0, 24, 159.6531219482422
0, 0, 25, 166.2671508789062
0, 0, 26, 166.1308898925781
0, 0, 27, 175.0996246337891
0, 0, 28, 178.4080505371094
0, 0, 29, 175.4193267822266
0, 0, 30, 172.0921325683594
0, 0, 31, 166.4082946777344
0, 0, 32, 164.4036254882812
0, 0, 33, 166.3037567138672
0, 0, 34, 177.4885101318359
0, 0, 35, 174.8821411132812
0, 0, 36, 159.5125427246094
0, 0, 37, 160.9169311523438
0, 0, 38, 166.5827331542969
0, 0, 39, 158.7905578613281
0, 0, 40, 165.9587707519531
0, 0, 41, 165.9715576171875
0, 0, 42, 142.7024383544922
0, 0, 43, 168.6257781982422
0, 0, 44, 177.648681640625
0, 0, 45, 173.5671539306641
0, 0, 46, 166.7001342773438
0, 0, 47, 167.9342193603516
0, 0, 48, 170.3598785400391
0, 0, 49, 182.7325592041016
0, 0, 50, 168.6728057861328
0, 0, 51, 162.6735992431641
0, 0, 52, 164.3999176025391
0, 0, 53, 171.9892730712891
0, 0, 54, 160.4323577880859
0, 0, 55, 165.8075866699219
0, 0, 56, 189.9090881347656
0, 0, 57, 169.9194793701172
0, 0, 58, 162.7055511474609
0, 0, 59, 171.9595947265625
0, 0, 60, 169.7279205322266
0, 0, 61, 171.5194702148438
0, 0, 62, 184.0225524902344
0, 0, 63, 166.8092041015625
0, 0, 64, 163.6571655273438
0, 0, 65, 174.8747100830078
0, 0, 66, 179.2387084960938
0, 0, 67, 165.6493377685547
0, 0, 68, 158.4837493896484
0, 0, 69, 159.1107635498047
0, 0, 70, 170.2366485595703
0, 0, 71, 158.3705139160156
0, 0, 72, 163.0875701904297
0, 0, 73, 171.6402435302734
0, 0, 74, 163.2280426025391
0, 0, 75, 164.2487335205078
0, 0, 76, 163.1472473144531
0, 0, 77, 172.3227691650391
0, 0, 78, 181.6633758544922
0, 0, 79, 175.2195587158203
0, 0, 80, 159.2823638916016
0, 0, 81, 160.6036071777344
0, 0, 82, 183.5151824951172
0, 0, 83, 174.3826446533203
0, 0, 84, 159.5019683837891
0, 0, 85, 181.2365875244141
0, 0, 86, 158.6885528564453
0, 0, 87, 176.7640380859375
0, 0, 88, 176.43359375
0, 0, 89, 175.1235046386719
0, 0, 90, 161.3038177490234
0, 0, 91, 187.3536682128906
0, 0, 92, 164.8008880615234
0, 0, 93, 157.4974212646484
0, 0, 94, 169.3218536376953
0, 0, 95, 173.2057037353516
0, 0, 96, 184.0093536376953
0, 0, 97, 183.4292602539062
0, 0, 98, 185.7917327880859
0, 0, 99, 171.9041137695312
0, 0, 100, 158.6644439697266
0, 0, 101, 167.0043182373047
0, 0, 102, 171.0128784179688
0, 0, 103, 170.9503021240234
0, 0, 104, 168.4676666259766
0, 0, 105, 178.2232666015625
0, 0, 106, 158.0312347412109
0, 0, 107, 86.39292144775391
0, 0, 108, 22.78233909606934
0, 0, 109, 9.723062515258789
0, 0, 110, 7.407864093780518
0, 0, 111, 6.701911449432373
0, 0, 112, 3.34416127204895
0, 0, 113, 2.55358624458313
0, 0, 114, 1.993357062339783
0, 0, 115, 2.701428413391113
0, 0, 116, 2.975199222564697
0, 0, 117, 2.063161134719849
0, 0, 118, 3.349982500076294
0, 0, 119, 2.108218669891357
0, 0, 120, 1.771233439445496
0, 0, 121, 3.962766647338867
0, 0, 122, 4.859845638275146
0, 0, 123, 4.7013840675354
0, 0, 124, 1.217130899429321
0, 0, 125, 2.862592458724976
0, 0, 126, 3.349366188049316
0, 0, 127, 1.530110239982605
0, 1, 0, 1.60365617275238
0, 1, 1, 4.085717678070068
0, 1, 2, 3.343170166015625
0, 1, 3, 1.96136474609375
0, 1, 4, 0.4197435081005096
0, 1, 5, 1.806120634078979
0, 1, 6, 1.129946112632751
0, 1, 7, 2.00762939453125
0, 1, 8, 1.473088264465332
0, 1, 9, 3.186452627182007
0, 1, 10, 2.250732421875
0, 1, 11, 4.213778018951416
0, 1, 12, 3.132430076599121
0, 1, 13, 2.41649866104126
0, 1, 14, 6.792842388153076
0, 1, 15, 6.092849254608154
0, 1, 16, 7.306916236877441
0, 1, 17, 6.432741165161133
0, 1, 18, 10.92533588409424
0, 1, 19, 39.6530876159668
0, 1, 20, 126.4650344848633
0, 1, 21, 177.9888458251953
0, 1, 22, 192.5152435302734
0, 1, 23, 185.7405853271484
0, 1, 24, 179.6143341064453
0, 1, 25, 192.7823486328125
0, 1, 26, 197.5126647949219
0, 1, 27, 187.1673736572266
0, 1, 28, 187.8568725585938
0, 1, 29, 184.8382873535156
0, 1, 30, 179.5625152587891
0, 1, 31, 181.5640716552734
0, 1, 32, 188.8813629150391
0, 1, 33, 189.5609893798828
0, 1, 34, 185.5214385986328
0, 1, 35, 194.6528015136719
0, 1, 36, 205.4004364013672
0, 1, 37, 185.1213989257812
0, 1, 38, 165.0335998535156
0, 1, 39, 171.4975738525391
0, 1, 40, 179.7887878417969
0, 1, 41, 184.7507171630859
0, 1, 42, 182.4193572998047
0, 1, 43, 186.0243530273438
0, 1, 44, 168.8823699951172
0, 1, 45, 187.7998352050781
0, 1, 46, 171.2914123535156
0, 1, 47, 184.7281799316406
0, 1, 48, 186.7682647705078
0, 1, 49, 185.8159790039062
0, 1, 50, 180.7252807617188
0, 1, 51, 191.0795745849609
0, 1, 52, 194.9559020996094
0, 1, 53, 195.5526123046875
0, 1, 54, 184.9769287109375
0, 1, 55, 166.1269073486328
0, 1, 56, 180.4990844726562
0, 1, 57, 178.6341552734375
0, 1, 58, 188.9661865234375
0, 1, 59, 193.3843688964844
0, 1, 60, 188.1135406494141
0, 1, 61, 177.5121612548828
0, 1, 62, 205.9356079101562
0, 1, 63, 174.2901153564453
0, 1, 64, 172.5267028808594
0, 1, 65, 184.7213134765625
0, 1, 66, 204.7083587646484
0, 1, 67, 183.0562133789062
0, 1, 68, 187.1732635498047
0, 1, 69, 189.5351409912109
0, 1, 70, 186.2895965576172
0, 1, 71, 171.1491394042969
0, 1, 72, 190.7433471679688
0, 1, 73, 190.4281158447266
0, 1, 74, 200.8198547363281
0, 1, 75, 183.6311187744141
0, 1, 76, 175.1783294677734
0, 1, 77, 192.0313110351562
0, 1, 78, 188.6263732910156
0, 1, 79, 203.0270385742188
0, 1, 80, 185.1753082275391
0, 1, 81, 174.1927032470703
0, 1, 82, 207.6466217041016
0, 1, 83, 211.9090881347656
0, 1, 84, 180.5364074707031
0, 1, 85, 170.8763732910156
0, 1, 86, 168.3487854003906
0, 1, 87, 184.7329406738281
0, 1, 88, 175.5899658203125
0, 1, 89, 187.6507415771484
0, 1, 90, 212.8965759277344
0, 1, 91, 180.6453857421875
0, 1, 92, 183.6997680664062
0, 1, 93, 182.9011383056641
0, 1, 94, 185.0080718994141
0, 1, 95, 183.1604461669922
0, 1, 96, 195.7416534423828
0, 1, 97, 181.9273071289062
0, 1, 98, 186.9780883789062
0, 1, 99, 175.6244659423828
0, 1, 100, 172.2798767089844
0, 1, 101, 177.4855499267578
0, 1, 102, 181.5467834472656
0, 1, 103, 173.5765075683594
0, 1, 104, 189.6500549316406
0, 1, 105, 180.5469207763672
0, 1, 106, 163.0882263183594
0, 1, 107, 123.3857879638672
0, 1, 108, 47.08731460571289
0, 1, 109, 9.679906845092773
0, 1, 110, 7.614736080169678
0, 1, 111, 7.100770473480225
0, 1, 112, 7.068744659423828
0, 1, 113, 7.723418712615967
0, 1, 114, 8.091153144836426
0, 1, 115, 6.850287914276123
0, 1, 116, 4.304858684539795
0, 1, 117, 2.353047132492065
0, 1, 118, 2.578205585479736
0, 1, 119, 0.9903160333633423
0, 1, 120, 3.218418121337891
0, 1, 121, 4.064008235931396
0, 1, 122, 3.770168542861938
0, 1, 123, 4.761449337005615
0, 1, 124, 2.698684453964233
0, 1, 125, 2.649280071258545
0, 1, 126, 1.747642397880554
0, 1, 127, 1.823263883590698
0, 2, 0, 2.098489999771118
0, 2, 1, 2.353374004364014
0, 2, 2, 3.432036399841309
0, 2, 3, 2.815071105957031
0, 2, 4, 4.389414310455322
0, 2, 5, 1.99190616607666
0, 2, 6, 2.588041067123413
0, 2, 7, 1.514546632766724
0, 2, 8, 1.693964004516602
0, 2, 9, 2.237637042999268
0, 2, 10, 4.509181976318359
0, 2, 11, 4.347208976745605
0, 2, 12, 3.279600143432617
0, 2, 13, 6.484142780303955
0, 2, 14, 4.373962879180908
0, 2, 15, 4.641568660736084
0, 2, 16, 6.552124500274658
0, 2, 17, 10.21563720703125
0, 2, 18, 15.60901069641113
0, 2, 19, 77.70543670654297
0, 2, 20, 161.0909729003906
0, 2, 21, 183.1398010253906
0, 2, 22, 193.8929443359375
0, 2, 23, 184.3126220703125
0, 2, 24, 173.4310150146484
0, 2, 25, 183.6118621826172
0, 2, 26, 179.0690307617188
0, 2, 27, 189.6678771972656
0, 2, 28, 170.9962158203125
0, 2, 29, 169.5134124755859
0, 2, 30, 187.2055969238281
0, 2, 31, 182.5966339111328
0, 2, 32, 183.3319396972656
0, 2, 33, 190.7352752685547
0, 2, 34, 198.9222717285156
0, 2, 35, 180.8735504150391
0, 2, 36, 185.5026397705078
0, 2, 37, 180.8860778808594
0, 2, 38, 184.3118286132812
0, 2, 39, 167.2519226074219
0, 2, 40, 183.610107421875
0, 2, 41, 183.9835662841797
0, 2, 42, 190.2008666992188
0, 2, 43, 195.3178863525391
0, 2, 44, 191.0253295898438
0, 2, 45, 189.5554809570312
0, 2, 46, 196.22216796875
0, 2, 47, 190.2849884033203
0, 2, 48, 177.2594604492188
0, 2, 49, 198.4657287597656
0, 2, 50, 168.4395141601562
0, 2, 51, 185.5734100341797
0, 2, 52, 186.3232879638672
0, 2, 53, 194.9277038574219
0, 2, 54, 176.6450347900391
0, 2, 55, 174.0888061523438
0, 2, 56, 181.8609924316406
0, 2, 57, 199.27392578125
0, 2, 58, 186.5394287109375
0, 2, 59, 189.7374877929688
0, 2, 60, 198.72705078125
0, 2, 61, 193.1504364013672
0, 2, 62, 190.1974029541016
0, 2, 63, 169.2927856445312
0, 2, 64, 189.6370391845703
0, 2, 65, 203.0133056640625
0, 2, 66, 195.4112701416016
0, 2, 67, 184.9320373535156
0, 2, 68, 182.5278778076172
0, 2, 69, 188.4803771972656
0, 2, 70, 202.7717437744141
0, 2, 71, 176.0413055419922
0, 2, 72, 187.3926391601562
0, 2, 73, 178.5271759033203
0, 2, 74, 180.4469299316406
0, 2, 75, 195.6162261962891
0, 2, 76, 183.4789428710938
0, 2, 77, 177.3557434082031
0, 2, 78, 197.5936584472656
0, 2, 79, 177.23388671875
0, 2, 80, 189.1868743896484
0, 2, 81, 186.8690643310547
0, 2, 82, 205.1607971191406
0, 2, 83, 203.6420288085938
0, 2, 84, 188.4514617919922
0, 2, 85, 170.0120086669922
0, 2, 86, 194.321044921875
0, 2, 87, 171.5408630371094
0, 2, 88, 176.9494323730469
0, 2, 89, 185.7762756347656
0, 2, 90, 177.7278900146484
0, 2, 91, 173.7421875
0, 2, 92, 197.7099456787109
0, 2, 93, 193.1339721679688
0, 2, 94, 201.4534149169922
0, 2, 95, 192.9726867675781
0, 2, 96, 186.4277191162109
0, 2, 97, 172.2861175537109
0, 2, 98, 174.0033416748047
0, 2, 99, 162.8154296875
0, 2, 100, 187.5683441162109
0, 2, 101, 197.5941314697266
0, 2, 102, 176.7188720703125
0, 2, 103, 199.5361785888672
0, 2, 104, 188.1393737792969
0, 2, 105, 201.5057525634766
0, 2, 106, 194.8475646972656
0, 2, 107, 150.6083831787109
0, 2, 108, 79.10185241699219
0, 2, 109, 18.11563110351562
0, 2, 110, 7.45562744140625
0, 2, 111, 5.87957763671875
0, 2, 112, 3.429666519165039
0, 2, 113, 3.9316086769104
0, 2, 114, 7.971414566040039
0, 2, 115, 4.616112232208252
0, 2, 116, 4.651720523834229
0, 2, 117, 2.942749500274658
0, 2, 118, 2.465635299682617
0, 2, 119, 2.722129106521606
0, 2, 120, 1.071845293045044
0, 2, 121, 2.582003593444824
0, 2, 122, 2.140638828277588
0, 2, 123, 2.182730674743652
0, 2, 124, 2.669099092483521
0, 2, 125, 2.55768346786499
0, 2, 126, 2.448651313781738
0, 2, 127, 0.3142778277397156
0, 3, 0, 1.418714642524719
0, 3, 1, 1.58244526386261
0, 3, 2, 2.187604665756226
0, 3, 3, 3.121179819107056
0, 3, 4, 5.302407264709473
0, 3, 5, 2.57698130607605
0, 3, 6, 1.003737449645996
0, 3, 7, 1.217397212982178
0, 3, 8, 1.964306235313416
0, 3, 9, 2.973443269729614
0, 3, 10, 1.809519648551941
0, 3, 11, 4.344473361968994
0, 3, 12, 5.048440456390381
0, 3, 13, 3.728260040283203
0, 3, 14, 5.325913906097412
0, 3, 15, 8.760984420776367
0, 3, 16, 7.597269058227539
0, 3, 17, 7.090114116668701
0, 3, 18, 32.08475494384766
0, 3, 19, 114.4654083251953
0, 3, 20, 179.6185913085938
0, 3, 21, 173.6628265380859
0, 3, 22, 177.6281585693359
0, 3, 23, 188.9674682617188
0, 3, 24, 177.339599609375
0, 3, 25, 168.1769409179688
0, 3, 26, 181.0982208251953
0, 3, 27, 189.8238830566406
0, 3, 28, 182.2478485107422
0, 3, 29, 197.4779357910156
0, 3, 30, 187.4877624511719
0, 3, 31, 193.8254852294922
0, 3, 32, 205.5323791503906
0, 3, 33, 195.8374176025391
0, 3, 34, 187.0964660644531
0, 3, 35, 173.6430969238281
0, 3, 36, 185.9695892333984
0, 3, 37, 199.8495025634766
0, 3, 38, 191.7303466796875
0, 3, 39, 185.2277069091797
0, 3, 40, 165.7669067382812
0, 3, 41, 175.4522857666016
0, 3, 42, 185.0861053466797
0, 3, 43, 181.3452301025391
0, 3, 44, 202.8180541992188
0, 3, 45, 207.6446533203125
0, 3, 46, 199.6640472412109
0, 3, 47, 193.8697357177734
0, 3, 48, 195.496337890625
0, 3, 49, 181.2904357910156
0, 3, 50, 186.3599395751953
0, 3, 51, 173.7720794677734
0, 3, 52, 187.5000457763672
0, 3, 53, 177.6446990966797
0, 3, 54, 178.6242980957031
0, 3, 55, 176.5993347167969
0, 3, 56, 182.1072998046875
0, 3, 57, 174.8446197509766
0, 3, 58, 200.9785614013672
0, 3, 59, 196.8897399902344
0, 3, 60, 186.7604217529297
0, 3, 61, 181.2292022705078
0, 3, 62, 182.99267578125
0, 3, 63, 183.4942474365234
0, 3, 64, 189.5556488037109
0, 3, 65, 187.2404174804688
0, 3, 66, 175.0321044921875
0, 3, 67, 190.5193939208984
0, 3, 68, 212.2570648193359
0, 3, 69, 189.0398254394531
0, 3, 70, 185.3571319580078
0, 3, 71, 196.6442108154297
0, 3, 72, 185.4185943603516
0, 3, 73, 187.1689910888672
0, 3, 74, 191.6774444580078
0, 3, 75, 192.1269073486328
0, 3, 76, 191.250244140625
0, 3, 77, 199.3811340332031
0, 3, 78, 187.8791809082031
0, 3, 79, 185.9940185546875
0, 3, 80, 189.8898162841797
0, 3, 81, 183.3632965087891
0, 3, 82, 179.8291931152344
0, 3, 83, 195.3868560791016
0, 3, 84, 199.2050323486328
0, 3, 85, 191.4880523681641
0, 3, 86, 203.7152709960938
0, 3, 87, 197.3002014160156
0, 3, 88, 191.4882659912109
0, 3, 89, 193.3230743408203
0, 3, 90, 173.3698120117188
0, 3, 91, 157.4036560058594
0, 3, 92, 207.2017822265625
0, 3, 93, 196.3098297119141
0, 3, 94, 191.5521850585938
0, 3, 95, 211.899169921875
0, 3, 96, 209.3147125244141
0, 3, 97, 168.88916015625
0, 3, 98, 168.0897979736328
0, 3, 99, 180.9168701171875
0, 3, 100, 176.7887115478516
0, 3, 101, 198.3770141601562
0, 3, 102, 194.366455078125
0, 3, 103, 192.4312286376953
0, 3, 104, 203.1635894775391
0, 3, 105, 176.3878784179688
0, 3, 106, 180.7136993408203
0, 3, 107, 170.7746429443359
0, 3, 108, 107.6542358398438
0, 3, 109, 28.98564529418945
0, 3, 110, 8.143942832946777
0, 3, 111, 6.752759456634521
0, 3, 112, 3.136538743972778
0, 3, 113, 7.832572937011719
0, 3, 114, 4.457283496856689
0, 3, 115, 5.12593936920166
0, 3, 116, 4.730214595794678
0, 3, 117, 4.304166793823242
0, 3, 118, 1.394181251525879
0, 3, 119, 3.001927852630615
0, 3, 120, 4.51423454284668
0, 3, 121, 4.821932792663574
0, 3, 122, 5.127459526062012
0, 3, 123, 1.179291605949402
0, 3, 124, 1.59628689289093
0, 3, 125, 1.279274702072144
0, 3, 126, 2.392035007476807
0, 3, 127, 1.402583599090576
0, 4, 0, 1.773850440979004
0, 4, 1, 0.3380199670791626
0, 4, 2, 2.589107036590576
0, 4, 3, 4.443696975708008
0, 4, 4, 2.09386157989502
0, 4, 5, 0.7107685804367065
0, 4, 6, 2.57286262512207
0, 4, 7, 1.869001865386963
0, 4, 8, 1.731421947479248
0, 4, 9, 2.836549043655396
0, 4, 10, 2.628909111022949
0, 4, 11, 3.374232053756714
0, 4, 12, 3.618507623672485
0, 4, 13, 4.215146064758301
0, 4, 14, 4.660280704498291
0, 4, 15, 10.39941215515137
0, 4, 16, 7.292037963867188
0, 4, 17, 11.58023357391357
0, 4, 18, 53.80175018310547
0, 4, 19, 150.1220703125
0, 4, 20, 193.0906677246094
0, 4, 21, 172.0246734619141
0, 4, 22, 186.709228515625
0, 4, 23, 195.8372344970703
0, 4, 24, 192.1744537353516
0, 4, 25, 201.9193267822266
0, 4, 26, 185.2134246826172
0, 4, 27, 191.1121368408203
0, 4, 28, 179.3759460449219
0, 4, 29, 205.4173278808594
0, 4, 30, 194.8113098144531
0, 4, 31, 193.2666473388672
0, 4, 32, 210.4973297119141
0, 4, 33, 189.8448638916016
0, 4, 34, 192.4756164550781
0, 4, 35, 215.2740173339844
0, 4, 36, 193.1882781982422
0, 4, 37, 178.3816375732422
0, 4, 38, 194.9898986816406
0, 4, 39, 189.0986480712891
0, 4, 40, 185.395751953125
0, 4, 41, 188.9034271240234
0, 4, 42, 206.0234680175781
0, 4, 43, 173.6254119873047
0, 4, 44, 184.0378112792969
0, 4, 45, 196.1139526367188
0, 4, 46, 185.9487457275391
0, 4, 47, 179.1402587890625
0, 4, 48, 186.6715087890625
0, 4, 49, 174.3138732910156
0, 4, 50, 185.3082275390625
0, 4, 51, 198.6968231201172
0, 4, 52, 223.3788757324219
0, 4, 53, 206.5651397705078
0, 4, 54, 189.3822479248047
0, 4, 55, 175.3881378173828
0, 4, 56, 190.8606719970703
0, 4, 57, 192.8512420654297
0, 4, 58, 187.9136199951172
0, 4, 59, 189.5204467773438
0, 4, 60, 195.7378997802734
0, 4, 61, 192.6324310302734
0, 4, 62, 189.0699462890625
0, 4, 63, 179.4116516113281
0, 4, 64, 212.3612518310547
0, 4, 65, 190.6844024658203
0, 4, 66, 201.5889282226562
0, 4, 67, 200.9032135009766
0, 4, 68, 200.914794921875
0, 4, 69, 198.9344940185547
0, 4, 70, 204.6465301513672
0, 4, 71, 206.18603515625
0, 4, 72, 215.0600280761719
0, 4, 73, 186.5648193359375
0, 4, 74, 181.0373992919922
0, 4, 75, 184.4161987304688
0, 4, 76, 189.5811920166016
0, 4, 77, 182.59912109375
0, 4, 78, 194.5333862304688
0, 4, 79, 205.2217864990234
0, 4, 80, 211.2198638916016
0, 4, 81, 199.0715637207031
0, 4, 82, 182.2069396972656
0, 4, 83, 171.0021057128906
0, 4, 84, 192.5862426757812
0, 4, 85, 195.9968719482422
0, 4, 86, 181.7726135253906
0, 4, 87, 182.9198150634766
0, 4, 88, 203.6792602539062
0, 4, 89, 187.3512420654297
0, 4, 90, 212.9878540039062
0, 4, 91, 189.7750244140625
0, 4, 92, 195.6625213623047
0, 4, 93, 195.9685211181641
0, 4, 94, 184.7914581298828
0, 4, 95, 175.7667083740234
0, 4, 96, 189.5296020507812
0, 4, 97, 193.0690002441406
0, 4, 98, 200.9631652832031
0, 4, 99, 183.3934936523438
0, 4, 100, 183.2826080322266
0, 4, 101, 178.2167358398438
0, 4, 102, 173.8749389648438
0, 4, 103, 185.165771484375
0, 4, 104, 210.33447265625
0, 4, 105, 189.4492034912109
0, 4, 106, 179.69140625
0, 4, 107, 181.3938598632812
0, 4, 108, 152.6916351318359
0, 4, 109, 49.00410461425781
0, 4, 110, 10.7723274230957
0, 4, 111, 8.47040843963623
0, 4, 112, 6.295780181884766
0, 4, 113, 5.314012050628662
0, 4, 114, 5.419912338256836
0, 4, 115, 3.146207809448242
0, 4, 116, 4.32827615737915
0, 4, 117, 1.930497050285339
0, 4, 118, 3.077792644500732
0, 4, 119, 3.430850982666016
0, 4, 120, 2.210901975631714
0, 4, 121, 1.736824750900269
0, 4, 122, 1.962136268615723
0, 4, 123, 2.465956687927246
0, 4, 124, 4.673756122589111
0, 4, 125, 3.29492449760437
0, 4, 126, 2.63033652305603
0, 4, 127, 1.595834851264954
0, 5, 0, 1.039900064468384
0, 5, 1, 4.621810436248779
0, 5, 2, 5.971076965332031
0, 5, 3, 5.138672828674316
0, 5, 4, 2.990177154541016
0, 5, 5, 1.215790629386902
0, 5, 6, 2.355063915252686
0, 5, 7, 3.770689487457275
0, 5, 8, 2.081124067306519
0, 5, 9, 2.170045137405396
0, 5, 10, 3.892966508865356
0, 5, 11, 3.225236177444458
0, 5, 12, 4.621870517730713
0, 5, 13, 4.358969688415527
0, 5, 14, 5.014778614044189
0, 5, 15, 9.043460845947266
0, 5, 16, 7.50825834274292
0, 5, 17, 21.11474227905273
0, 5, 18, 82.96640777587891
0, 5, 19, 165.3551940917969
0, 5, 20, 183.3256072998047
0, 5, 21, 179.6192626953125
0, 5, 22, 170.4992828369141
0, 5, 23, 200.2619323730469
0, 5, 24, 186.9626922607422
0, 5, 25, 208.5250701904297
0, 5, 26, 184.5746459960938
0, 5, 27, 196.3873596191406
0, 5, 28, 188.6647033691406
0, 5, 29, 195.3757019042969
0, 5, 30, 177.2921600341797
0, 5, 31, 181.0974884033203
0, 5, 32, 188.1230926513672
0, 5, 33, 168.8850402832031
0, 5, 34, 195.1445159912109
0, 5, 35, 196.1136322021484
0, 5, 36, 169.7000885009766
0, 5, 37, 196.9981842041016
0, 5, 38, 180.1812133789062
0, 5, 39, 187.1206207275391
0, 5, 40, 197.7285614013672
0, 5, 41, 176.8492279052734
0, 5, 42, 187.6790313720703
0, 5, 43, 193.8036804199219
0, 5, 44, 199.6132965087891
0, 5, 45, 186.4165191650391
0, 5, 46, 192.9538269042969
0, 5, 47, 181.4132690429688
0, 5, 48, 177.9757385253906
0, 5, 49, 176.9730987548828
0, 5, 50, 185.6283111572266
0, 5, 51, 172.3597106933594
0, 5, 52, 167.7429351806641
0, 5, 53, 182.5077514648438
0, 5, 54, 171.8873138427734
0, 5, 55, 216.02978515625
0, 5, 56, 181.8206787109375
0, 5, 57, 206.6634674072266
0, 5, 58, 180.3757019042969
0, 5, 59, 180.2772369384766
0, 5, 60, 217.9219818115234
0, 5, 61, 184.5131378173828
0, 5, 62, 177.8999328613281
0, 5, 63, 180.6360626220703
0, 5, 64, 195.3778686523438
0, 5, 65, 210.445068359375
0, 5, 66, 191.4542236328125
0, 5, 67, 199.2645874023438
0, 5, 68, 186.3181304931641
0, 5, 69, 185.6548004150391
0, 5, 70, 186.5367736816406
0, 5, 71, 192.9285430908203
0, 5, 72, 197.296875
0, 5, 73, 202.8520202636719
0, 5, 74, 179.9158935546875
0, 5, 75, 204.5811462402344
0, 5, 76, 216.8326721191406
0, 5, 77, 181.0939178466797
0, 5, 78, 194.1219940185547
0, 5, 79, 190.1229553222656
0, 5, 80, 198.7140350341797
0, 5, 81, 204.7180480957031
0, 5, 82, 200.7103118896484
0, 5, 83, 188.6487884521484
0, 5, 84, 205.1594390869141
0, 5, 85, 176.4288177490234
0, 5, 86, 194.615478515625
0, 5, 87, 189.8127288818359
0, 5, 88, 177.3505401611328
0, 5, 89, 193.947021484375
0, 5, 90, 199.20849609375
0, 5, 91, 195.0304412841797
0, 5, 92, 191.1523284912109
0, 5, 93, 191.5420684814453
0, 5, 94, 207.77783203125
0, 5, 95, 177.5570373535156
0, 5, 96, 181.9511566162109
0, 5, 97, 191.1482543945312
0, 5, 98, 188.2399139404297
0, 5, 99, 194.2178955078125
0, 5, 100, 187.6740112304688
0, 5, 101, 195.9149322509766
0, 5, 102, 183.1056976318359
0, 5, 103, 176.2679901123047
0, 5, 104, 190.0193481445312
0, 5, 105, 189.6469268798828
0, 5, 106, 178.3479156494141
0, 5, 107, 181.2469635009766
0, 5, 108, 176.1273498535156
0, 5, 109, 90.14698791503906
0, 5, 110, 30.26161766052246
0, 5, 111, 9.522991180419922
0, 5, 112, 6.361090660095215
0, 5, 113, 5.560325145721436
0, 5, 114, 6.096945285797119
0, 5, 115, 7.403433799743652
0, 5, 116, 5.118740558624268
0, 5, 117, 3.450212717056274
0, 5, 118, 3.822279453277588
0, 5, 119, 4.305792808532715
0, 5, 120, 1.618972420692444
0, 5, 121, 2.289877414703369
0, 5, 122, 4.815160751342773
0, 5, 123, 3.013525247573853
0, 5, 124, 2.704009771347046
0, 5, 125, 3.402416944503784
0, 5, 126, 1.531616687774658
0, 5, 127, 2.072956323623657
0, 6, 0, 5.255703926086426
0, 6, 1, 4.760590553283691
0, 6, 2, 3.267040491104126
0, 6, 3, 1.613824009895325
0, 6, 4, 4.397435665130615
0, 6, 5, 4.137144565582275
0, 6, 6, 3.280295372009277
0, 6, 7, 3.537387609481812
0, 6, 8, 3.695440769195557
0, 6, 9, 3.159429788589478
0, 6, 10, 5.727263927459717
0, 6, 11, 4.400135040283203
0, 6, 12, 5.134059906005859
0, 6, 13, 5.223990917205811
0, 6, 14, 4.69037914276123
0, 6, 15, 6.250973224639893
0, 6, 16, 12.82121086120605
0, 6, 17, 30.38871192932129
0, 6, 18, 112.3515930175781
0, 6, 19, 191.6895751953125
0, 6, 20, 194.6805114746094
0, 6, 21, 198.5186004638672
0, 6, 22, 190.2477416992188
0, 6, 23, 190.4244995117188
0, 6, 24, 200.8144378662109
0, 6, 25, 181.5492401123047
0, 6, 26, 187.0236511230469
0, 6, 27, 191.7445068359375
0, 6, 28, 189.1068420410156
0, 6, 29, 210.6584014892578
0, 6, 30, 190.1302032470703
0, 6, 31, 193.0241241455078
0, 6, 32, 206.7724761962891
0, 6, 33, 183.6975402832031
0, 6, 34, 198.4706573486328
0, 6, 35, 187.4489440917969
0, 6, 36, 180.4539642333984
0, 6, 37, 183.2018890380859
0, 6, 38, 187.0942230224609
0, 6, 39, 194.7630462646484
0, 6, 40, 174.3866882324219
0, 6, 41, 185.1391143798828
0, 6, 42, 176.0033111572266
0, 6, 43, 209.5732879638672
0, 6, 44, 208.9104766845703
0, 6, 45, 192.9073028564453
0, 6, 46, 187.8571929931641
0, 6, 47, 204.8065795898438
0, 6, 48, 190.6206359863281
0, 6, 49, 179.2635650634766
0, 6, 50, 181.9151611328125
0, 6, 51, 195.6378021240234
0, 6, 52, 198.6651611328125
0, 6, 53, 185.0722808837891
0, 6, 54, 175.7947082519531
0, 6, 55, 194.0331573486328
0, 6, 56, 202.5229187011719
0, 6, 57, 190.8928680419922
0, 6, 58, 179.0571136474609
0, 6, 59, 191.6515350341797
0, 6, 60, 183.71337890625
0, 6, 61, 194.1067810058594
0, 6, 62, 196.5484313964844
0, 6, 63, 187.2465362548828
0, 6, 64, 171.5958862304688
0, 6, 65, 187.0887603759766
0, 6, 66, 197.7874755859375
0, 6, 67, 214.0923767089844
0, 6, 68, 181.5228271484375
0, 6, 69, 173.0364685058594
0, 6, 70, 187.2956695556641
0, 6, 71, 170.3973846435547
0, 6, 72, 176.9574890136719
0, 6, 73, 176.5166778564453
0, 6, 74, 210.0945129394531
0, 6, 75, 227.2922668457031
0, 6, 76, 184.9609680175781
0, 6, 77, 172.3554382324219
0, 6, 78, 175.7921600341797
0, 6, 79, 186.1300964355469
0, 6, 80, 187.3805084228516
0, 6, 81, 208.7153167724609
0, 6, 82, 196.1758728027344
0, 6, 83, 196.3548126220703
0, 6, 84, 198.3777313232422
0, 6, 85, 180.3741302490234
0, 6, 86, 203.1704864501953
0, 6, 87, 185.3699493408203
0, 6, 88, 192.2233428955078
0, 6, 89, 188.0706024169922
0, 6, 90, 205.3717956542969
0, 6, 91, 199.6256713867188
0, 6, 92, 172.3493194580078
0, 6, 93, 194.2743682861328
0, 6, 94, 191.6919860839844
0, 6, 95, 185.9373321533203
0, 6, 96, 189.4674530029297
0, 6, 97, 192.0909118652344
0, 6, 98, 182.9048919677734
0, 6, 99, 175.7649993896484
0, 6, 100, 202.8712615966797
0, 6, 101, 168.3500518798828
0, 6, 102, 202.4088134765625
0, 6, 103, 196.9037322998047
0, 6, 104, 183.7531127929688
0, 6, 105, 193.6204376220703
0, 6, 106, 176.8619384765625
0, 6, 107, 195.910888671875
0, 6, 108, 171.0917358398438
0, 6, 109, 116.5744094848633
0, 6, 110, 33.9620246887207
0, 6, 111, 9.705394744873047
0, 6, 112, 9.096165657043457
0, 6, 113, 4.978297710418701
0, 6, 114, 4.815785884857178
0, 6, 115, 6.304677963256836
0, 6, 116, 5.418382167816162
0, 6, 117, 3.676599502563477
0, 6, 118, 3.257431983947754
0, 6, 119, 3.341825246810913
0, 6, 120, 2.426673173904419
0, 6, 121, 3.920378923416138
0, 6, 122, 3.107751369476318
0, 6, 123, 2.102174520492554
0, 6, 124, 2.748751878738403
0, 6, 125, 4.305636405944824
0, 6, 126, 2.478914260864258
0, 6, 127, 1.949609160423279
0, 7, 0, 3.010899305343628
0, 7, 1, 1.12706446647644
0, 7, 2, 0.9922813773155212
0, 7, 3, 2.342550277709961
0, 7, 4, 0.8252720832824707
0, 7, 5, 1.500069260597229
0, 7, 6, 3.229409456253052
0, 7, 7, 3.516091346740723
0, 7, 8, 4.244083404541016
0, 7, 9, 3.437248945236206
0, 7, 10, 4.614593982696533
0, 7, 11, 4.718713760375977
0, 7, 12, 3.139871835708618
0, 7, 13, 6.255379676818848
0, 7, 14, 6.677649974822998
0, 7, 15, 7.838032722473145
0, 7, 16, 16.23647880554199
0, 7, 17, 50.84453201293945
0, 7, 18, 161.9770355224609
0, 7, 19, 184.7375946044922
0, 7, 20, 179.7452392578125
0, 7, 21, 179.8495330810547
0, 7, 22, 190.8245544433594
0, 7, 23, 202.2258758544922
0, 7, 24, 177.9056243896484
0, 7, 25, 213.7434997558594
0, 7, 26, 189.4900207519531
0, 7, 27, 182.3167724609375
0, 7, 28, 182.3600616455078
0, 7, 29, 209.4018859863281
0, 7, 30, 192.5807495117188
0, 7, 31, 176.7069396972656
0, 7, 32, 190.3737487792969
0, 7, 33, 181.2622680664062
0, 7, 34, 194.8175354003906
0, 7, 35, 196.3110046386719
0, 7, 36, 187.8337249755859
0, 7, 37, 212.688720703125
0, 7, 38, 192.9935150146484
0, 7, 39, 173.4751129150391
0, 7, 40, 184.7629699707031
0, 7, 41, 185.3206939697266
0, 7, 42, 179.3205413818359
0, 7, 43, 178.0710296630859
0, 7, 44, 178.9338226318359
0, 7, 45, 175.7638244628906
0, 7, 46, 187.6889953613281
0, 7, 47, 197.5606994628906
0, 7, 48, 184.8238372802734
0, 7, 49, 199.2422027587891
0, 7, 50, 189.4478302001953
0, 7, 51, 205.2008666992188
0, 7, 52, 203.9554748535156
0, 7, 53, 192.3408966064453
0, 7, 54, 194.8776092529297
0, 7, 55, 203.6355133056641
0, 7, 56, 183.1973114013672
0, 7, 57, 184.3055572509766
0, 7, 58, 193.3522644042969
0, 7, 59, 187.2245635986328
0, 7, 60, 202.5712127685547
0, 7, 61, 171.8321990966797
0, 7, 62, 203.2794952392578
0, 7, 63, 188.6988220214844
0, 7, 64, 199.7559661865234
0, 7, 65, 195.1236877441406
0, 7, 66, 204.9957275390625
0, 7, 67, 222.0284729003906
0, 7, 68, 162.4904632568359
0, 7, 69, 194.9088439941406
0, 7, 70, 216.4323577880859
0, 7, 71, 184.4344940185547
0, 7, 72, 179.7427368164062
0, 7, 73, 176.3537750244141
0, 7, 74, 209.0964202880859
0, 7, 75, 204.1078186035156
0, 7, 76, 215.0725250244141
0, 7, 77, 174.5228424072266
0, 7, 78, 177.9556427001953
0, 7, 79, 193.4712829589844
0, 7, 80, 197.8592987060547
0, 7, 81, 214.8143310546875
0, 7, 82, 184.5293426513672
0, 7, 83, 205.7229614257812
0, 7, 84, 193.7591705322266
0, 7, 85, 187.8514862060547
0, 7, 86, 201.1512908935547
0, 7, 87, 223.9875335693359
0, 7, 88, 195.4503173828125
0, 7, 89, 176.6285247802734
0, 7, 90, 182.3222351074219
0, 7, 91, 195.6292114257812
0, 7, 92, 193.8530578613281
0, 7, 93, 199.9598541259766
0, 7, 94, 175.612060546875
0, 7, 95, 200.5304870605469
0, 7, 96, 209.7362823486328
0, 7, 97, 189.0485992431641
0, 7, 98, 178.0519561767578
0, 7, 99, 197.9171447753906
0, 7, 100, 181.3458862304688
0, 7, 101, 199.7590789794922
0, 7, 102, 184.9441375732422
0, 7, 103, 180.7737579345703
0, 7, 104, 175.57763671875
0, 7, 105, 194.5520477294922
0, 7, 106, 205.2223358154297
0, 7, 107, 173.9811248779297
0, 7, 108, 176.8590393066406
0, 7, 109, 136.4791564941406
0, 7, 110, 53.52701950073242
0, 7, 111, 9.822249412536621
0, 7, 112, 7.802255630493164
0, 7, 113, 9.567417144775391
0, 7, 114, 10.56384563446045
0, 7, 115, 5.314194679260254
0, 7, 116, 4.946384906768799
0, 7, 117, 2.873839616775513
0, 7, 118, 3.845863819122314
0, 7, 119, 2.572311162948608
0, 7, 120, 2.681532144546509
0, 7, 121, 1.705973386764526
0, 7, 122, 2.301923513412476
0, 7, 123, 1.530745267868042
0, 7, 124, 1.134357929229736
0, 7, 125, 3.737911701202393
0, 7, 126, 2.582586050033569
0, 7, 127, 1.318335890769958
0, 8, 0, 4.978007316589355
0, 8, 1, 2.751160144805908
0, 8, 2, 2.866869211196899
0, 8, 3, 2.62244176864624
0, 8, 4, 1.234025001525879
0, 8, 5, 3.17528510093689
0, 8, 6, 2.977470874786377
0, 8, 7, 2.482099533081055
0, 8, 8, 3.894230365753174
0, 8, 9, 4.388397216796875
0, 8, 10, 2.642310619354248
0, 8, 11, 2.829538583755493
0, 8, 12, 4.045015811920166
0, 8, 13, 4.565174579620361
0, 8, 14, 8.983375549316406
0, 8, 15, 8.802908897399902
0, 8, 16, 19.30858039855957
0, 8, 17, 75.56659698486328
0, 8, 18, 143.2940673828125
0, 8, 19, 178.7994232177734
0, 8, 20, 192.5390167236328
0, 8, 21, 191.7434387207031
0, 8, 22, 181.7144622802734
0, 8, 23, 175.2888946533203
0, 8, 24, 192.6661987304688
0, 8, 25, 185.3678894042969
0, 8, 26, 192.765869140625
0, 8, 27, 186.9443817138672
0, 8, 28, 185.1465911865234
0, 8, 29, 206.6491546630859
0, 8, 30, 195.8198699951172
0, 8, 31, 182.4505004882812
0, 8, 32, 199.3365325927734
0, 8, 33, 206.2022399902344
0, 8, 34, 203.3543243408203
0, 8, 35, 184.5789794921875
0, 8, 36, 182.1295166015625
