# TOPAS Version: 3.1.p3
# Parameter File: batch_inserts_108.txt
# Results for scorer Readout_Adipose
# Scored in component: MyBox
# X in 1 bin  of 0.65 cm
# Y in 512 bins of 0.0783984 cm
# Z in 128 bins of 0.078125 cm
# EnergyDeposit ( MeV ) : Sum   
0, 0, 0, 1.255179286003113
0, 0, 1, 3.311210155487061
0, 0, 2, 2.973834276199341
0, 0, 3, 1.469583511352539
0, 0, 4, 1.178483009338379
0, 0, 5, 0.8467501997947693
0, 0, 6, 1.302457451820374
0, 0, 7, 2.664912700653076
0, 0, 8, 1.714017868041992
0, 0, 9, 4.292878150939941
0, 0, 10, 2.926529169082642
0, 0, 11, 6.210484027862549
0, 0, 12, 4.786709308624268
0, 0, 13, 4.237105846405029
0, 0, 14, 5.728529930114746
0, 0, 15, 6.183570384979248
0, 0, 16, 4.210179328918457
0, 0, 17, 5.492228984832764
0, 0, 18, 7.737683296203613
0, 0, 19, 23.37444114685059
0, 0, 20, 94.41286468505859
0, 0, 21, 153.2461700439453
0, 0, 22, 153.0309143066406
0, 0, 23, 145.6772003173828
0, 0, 24, 159.4001312255859
0, 0, 25, 166.8977966308594
0, 0, 26, 166.8125915527344
0, 0, 27, 175.0683898925781
0, 0, 28, 178.9923400878906
0, 0, 29, 175.9123687744141
0, 0, 30, 173.3630828857422
0, 0, 31, 167.5543365478516
0, 0, 32, 164.5327911376953
0, 0, 33, 166.9765319824219
0, 0, 34, 177.83447265625
0, 0, 35, 174.0131225585938
0, 0, 36, 159.5423583984375
0, 0, 37, 161.5385894775391
0, 0, 38, 166.5892181396484
0, 0, 39, 159.4679412841797
0, 0, 40, 165.3034515380859
0, 0, 41, 166.2598571777344
0, 0, 42, 142.6162719726562
0, 0, 43, 168.6003112792969
0, 0, 44, 178.4199371337891
0, 0, 45, 172.5195617675781
0, 0, 46, 165.8002014160156
0, 0, 47, 167.1644744873047
0, 0, 48, 169.4916381835938
0, 0, 49, 182.3721160888672
0, 0, 50, 168.2665252685547
0, 0, 51, 161.7659912109375
0, 0, 52, 162.1314239501953
0, 0, 53, 171.6282806396484
0, 0, 54, 159.5779876708984
0, 0, 55, 164.9348754882812
0, 0, 56, 190.0410003662109
0, 0, 57, 171.5802001953125
0, 0, 58, 161.2461853027344
0, 0, 59, 172.4786224365234
0, 0, 60, 168.7112579345703
0, 0, 61, 168.5790557861328
0, 0, 62, 182.9370727539062
0, 0, 63, 167.4589691162109
0, 0, 64, 164.1175079345703
0, 0, 65, 173.8169097900391
0, 0, 66, 177.8058319091797
0, 0, 67, 163.7237396240234
0, 0, 68, 158.5122528076172
0, 0, 69, 158.8291168212891
0, 0, 70, 169.3676300048828
0, 0, 71, 158.2292938232422
0, 0, 72, 161.1063537597656
0, 0, 73, 174.2239227294922
0, 0, 74, 163.1970062255859
0, 0, 75, 163.3731231689453
0, 0, 76, 163.3153381347656
0, 0, 77, 172.6651000976562
0, 0, 78, 182.3742065429688
0, 0, 79, 175.8540191650391
0, 0, 80, 158.7321014404297
0, 0, 81, 159.6590118408203
0, 0, 82, 182.4589691162109
0, 0, 83, 172.5932922363281
0, 0, 84, 160.1880340576172
0, 0, 85, 183.1920013427734
0, 0, 86, 157.8705749511719
0, 0, 87, 176.3961639404297
0, 0, 88, 176.6776885986328
0, 0, 89, 174.8570404052734
0, 0, 90, 162.4754943847656
0, 0, 91, 185.4308013916016
0, 0, 92, 164.5523376464844
0, 0, 93, 157.6579895019531
0, 0, 94, 170.0677795410156
0, 0, 95, 173.7175750732422
0, 0, 96, 185.3063507080078
0, 0, 97, 182.9669647216797
0, 0, 98, 185.8069458007812
0, 0, 99, 173.2380981445312
0, 0, 100, 159.6806182861328
0, 0, 101, 166.6385192871094
0, 0, 102, 171.0450286865234
0, 0, 103, 170.9346923828125
0, 0, 104, 168.8949737548828
0, 0, 105, 177.4971313476562
0, 0, 106, 158.9310607910156
0, 0, 107, 88.32351684570312
0, 0, 108, 20.65775871276855
0, 0, 109, 8.927962303161621
0, 0, 110, 5.606932640075684
0, 0, 111, 6.890439987182617
0, 0, 112, 4.938502788543701
0, 0, 113, 3.496254205703735
0, 0, 114, 2.116935014724731
0, 0, 115, 2.780499219894409
0, 0, 116, 2.898191213607788
0, 0, 117, 2.267473697662354
0, 0, 118, 3.101866483688354
0, 0, 119, 2.114702224731445
0, 0, 120, 1.842093467712402
0, 0, 121, 4.502645015716553
0, 0, 122, 4.34002161026001
0, 0, 123, 4.952408790588379
0, 0, 124, 1.844437956809998
0, 0, 125, 1.947516441345215
0, 0, 126, 1.059045076370239
0, 0, 127, 2.012929916381836
0, 1, 0, 1.152940392494202
0, 1, 1, 2.788724660873413
0, 1, 2, 2.67182731628418
0, 1, 3, 1.305198669433594
0, 1, 4, 0.5353323817253113
0, 1, 5, 0.7749848961830139
0, 1, 6, 1.201040506362915
0, 1, 7, 2.87299656867981
0, 1, 8, 1.169144034385681
0, 1, 9, 3.549913644790649
0, 1, 10, 1.912120223045349
0, 1, 11, 3.15851354598999
0, 1, 12, 3.010193824768066
0, 1, 13, 4.791220188140869
0, 1, 14, 6.683441162109375
0, 1, 15, 6.656732559204102
0, 1, 16, 7.482121467590332
0, 1, 17, 6.153911590576172
0, 1, 18, 10.23946380615234
0, 1, 19, 38.11592483520508
0, 1, 20, 125.7372589111328
0, 1, 21, 177.0290069580078
0, 1, 22, 192.488037109375
0, 1, 23, 186.979248046875
0, 1, 24, 180.4263458251953
0, 1, 25, 192.0750122070312
0, 1, 26, 198.0156555175781
0, 1, 27, 187.8084106445312
0, 1, 28, 188.6344451904297
0, 1, 29, 183.5640716552734
0, 1, 30, 180.0936584472656
0, 1, 31, 182.0431365966797
0, 1, 32, 188.5677337646484
0, 1, 33, 190.7478179931641
0, 1, 34, 185.1854248046875
0, 1, 35, 193.1793823242188
0, 1, 36, 205.1300964355469
0, 1, 37, 185.9886474609375
0, 1, 38, 164.3609771728516
0, 1, 39, 171.5508575439453
0, 1, 40, 179.0489807128906
0, 1, 41, 184.8642883300781
0, 1, 42, 181.7991790771484
0, 1, 43, 185.1028137207031
0, 1, 44, 167.8619995117188
0, 1, 45, 185.9598846435547
0, 1, 46, 171.6814270019531
0, 1, 47, 185.2805328369141
0, 1, 48, 186.3760223388672
0, 1, 49, 186.2032318115234
0, 1, 50, 178.7024230957031
0, 1, 51, 191.5372467041016
0, 1, 52, 196.9706268310547
0, 1, 53, 195.8124694824219
0, 1, 54, 184.5784301757812
0, 1, 55, 165.5596466064453
0, 1, 56, 178.5236053466797
0, 1, 57, 180.3743438720703
0, 1, 58, 188.7699584960938
0, 1, 59, 194.8364715576172
0, 1, 60, 188.1524810791016
0, 1, 61, 177.7671813964844
0, 1, 62, 205.2528381347656
0, 1, 63, 174.7158966064453
0, 1, 64, 172.5903778076172
0, 1, 65, 185.7050476074219
0, 1, 66, 203.6763763427734
0, 1, 67, 182.606689453125
0, 1, 68, 186.6316680908203
0, 1, 69, 189.1837615966797
0, 1, 70, 186.0849609375
0, 1, 71, 171.5579986572266
0, 1, 72, 189.5433349609375
0, 1, 73, 189.6385955810547
0, 1, 74, 201.7018585205078
0, 1, 75, 184.3578338623047
0, 1, 76, 173.7957611083984
0, 1, 77, 193.3075103759766
0, 1, 78, 188.4480895996094
0, 1, 79, 201.5534057617188
0, 1, 80, 185.403076171875
0, 1, 81, 174.0523529052734
0, 1, 82, 207.4177856445312
0, 1, 83, 210.96142578125
0, 1, 84, 180.2328796386719
0, 1, 85, 169.1293029785156
0, 1, 86, 170.0637359619141
0, 1, 87, 185.2520294189453
0, 1, 88, 174.6932983398438
0, 1, 89, 188.2833709716797
0, 1, 90, 212.6222991943359
0, 1, 91, 182.1060638427734
0, 1, 92, 185.4328155517578
0, 1, 93, 184.9454193115234
0, 1, 94, 186.1124267578125
0, 1, 95, 183.3820190429688
0, 1, 96, 198.8419189453125
0, 1, 97, 183.2632751464844
0, 1, 98, 188.8412628173828
0, 1, 99, 174.9322509765625
0, 1, 100, 171.1058044433594
0, 1, 101, 177.9523773193359
0, 1, 102, 182.3534393310547
0, 1, 103, 172.7819213867188
0, 1, 104, 188.4711303710938
0, 1, 105, 180.8377838134766
0, 1, 106, 164.2021789550781
0, 1, 107, 122.3102340698242
0, 1, 108, 47.43804931640625
0, 1, 109, 9.2347412109375
0, 1, 110, 6.683716297149658
0, 1, 111, 6.482424259185791
0, 1, 112, 7.897517681121826
0, 1, 113, 9.06733512878418
0, 1, 114, 4.387756824493408
0, 1, 115, 2.375807285308838
0, 1, 116, 2.277027606964111
0, 1, 117, 2.251414060592651
0, 1, 118, 4.54218578338623
0, 1, 119, 3.17791223526001
0, 1, 120, 3.62691593170166
0, 1, 121, 3.638067245483398
0, 1, 122, 2.720712900161743
0, 1, 123, 2.490659952163696
0, 1, 124, 1.897727489471436
0, 1, 125, 2.27592921257019
0, 1, 126, 1.488146424293518
0, 1, 127, 2.012432098388672
0, 2, 0, 1.080227494239807
0, 2, 1, 2.388606786727905
0, 2, 2, 2.772143602371216
0, 2, 3, 1.28291654586792
0, 2, 4, 1.457022070884705
0, 2, 5, 1.984150648117065
0, 2, 6, 2.53035306930542
0, 2, 7, 2.345829725265503
0, 2, 8, 1.133839130401611
0, 2, 9, 2.262567520141602
0, 2, 10, 3.83271336555481
0, 2, 11, 3.658056259155273
0, 2, 12, 4.147440910339355
0, 2, 13, 3.254491090774536
0, 2, 14, 4.942691802978516
0, 2, 15, 7.146837711334229
0, 2, 16, 5.040936470031738
0, 2, 17, 9.135622978210449
0, 2, 18, 14.75089263916016
0, 2, 19, 77.78394317626953
0, 2, 20, 162.4232940673828
0, 2, 21, 184.0224609375
0, 2, 22, 194.5205230712891
0, 2, 23, 185.6277313232422
0, 2, 24, 173.7972869873047
0, 2, 25, 183.5864562988281
0, 2, 26, 179.4524993896484
0, 2, 27, 189.0046844482422
0, 2, 28, 171.7424926757812
0, 2, 29, 169.5909271240234
0, 2, 30, 184.1424560546875
0, 2, 31, 181.8507843017578
0, 2, 32, 183.9002532958984
0, 2, 33, 189.6508331298828
0, 2, 34, 197.7821350097656
0, 2, 35, 182.5329742431641
0, 2, 36, 187.3043212890625
0, 2, 37, 181.3130493164062
0, 2, 38, 185.07861328125
0, 2, 39, 166.2496948242188
0, 2, 40, 183.502197265625
0, 2, 41, 183.8672943115234
0, 2, 42, 190.0319061279297
0, 2, 43, 193.8515777587891
0, 2, 44, 190.4933624267578
0, 2, 45, 190.4040832519531
0, 2, 46, 196.3348999023438
0, 2, 47, 189.0585327148438
0, 2, 48, 179.2575531005859
0, 2, 49, 197.9611663818359
0, 2, 50, 167.5848846435547
0, 2, 51, 184.2423706054688
0, 2, 52, 186.27001953125
0, 2, 53, 195.4099426269531
0, 2, 54, 176.5358581542969
0, 2, 55, 173.8989410400391
0, 2, 56, 181.0177917480469
0, 2, 57, 200.4167938232422
0, 2, 58, 187.3946075439453
0, 2, 59, 189.6070861816406
0, 2, 60, 196.5867156982422
0, 2, 61, 193.0693206787109
0, 2, 62, 189.4212036132812
0, 2, 63, 169.2234802246094
0, 2, 64, 189.8497161865234
0, 2, 65, 204.0755004882812
0, 2, 66, 195.4420776367188
0, 2, 67, 184.7250671386719
0, 2, 68, 182.0861206054688
0, 2, 69, 186.6384429931641
0, 2, 70, 203.1244049072266
0, 2, 71, 175.3724060058594
0, 2, 72, 186.9342956542969
0, 2, 73, 177.3667449951172
0, 2, 74, 181.3711395263672
0, 2, 75, 195.6095733642578
0, 2, 76, 183.4029541015625
0, 2, 77, 178.7778015136719
0, 2, 78, 197.4886627197266
0, 2, 79, 176.6663513183594
0, 2, 80, 185.4991760253906
0, 2, 81, 187.9410095214844
0, 2, 82, 206.7233428955078
0, 2, 83, 205.7843780517578
0, 2, 84, 189.1276702880859
0, 2, 85, 170.5665435791016
0, 2, 86, 194.8537445068359
0, 2, 87, 173.0507507324219
0, 2, 88, 177.4106597900391
0, 2, 89, 184.2840576171875
0, 2, 90, 178.12841796875
0, 2, 91, 173.1689147949219
0, 2, 92, 196.1002197265625
0, 2, 93, 193.0164489746094
0, 2, 94, 203.0635223388672
0, 2, 95, 193.2526397705078
0, 2, 96, 186.1871795654297
0, 2, 97, 172.3689880371094
0, 2, 98, 172.7951965332031
0, 2, 99, 162.7615356445312
0, 2, 100, 187.6636505126953
0, 2, 101, 196.3567047119141
0, 2, 102, 176.9464263916016
0, 2, 103, 200.4256896972656
0, 2, 104, 187.9461059570312
0, 2, 105, 199.5629119873047
0, 2, 106, 194.3760528564453
0, 2, 107, 149.6467895507812
0, 2, 108, 79.25653839111328
0, 2, 109, 18.12529563903809
0, 2, 110, 7.01225471496582
0, 2, 111, 5.883444309234619
0, 2, 112, 3.573478698730469
0, 2, 113, 4.973293304443359
0, 2, 114, 6.269512176513672
0, 2, 115, 4.449038028717041
0, 2, 116, 1.61455249786377
0, 2, 117, 1.90956449508667
0, 2, 118, 2.743762016296387
0, 2, 119, 3.662936449050903
0, 2, 120, 2.086197853088379
0, 2, 121, 3.843003988265991
0, 2, 122, 3.502496480941772
0, 2, 123, 3.481618165969849
0, 2, 124, 2.291697025299072
0, 2, 125, 1.497140884399414
0, 2, 126, 3.288764715194702
0, 2, 127, 0.4551889896392822
0, 3, 0, 1.688679099082947
0, 3, 1, 2.367501974105835
0, 3, 2, 1.290517926216125
0, 3, 3, 1.091359496116638
0, 3, 4, 3.538030862808228
0, 3, 5, 1.883998394012451
0, 3, 6, 1.5595463514328
0, 3, 7, 1.330651640892029
0, 3, 8, 1.809292912483215
0, 3, 9, 1.333107829093933
0, 3, 10, 4.96361255645752
0, 3, 11, 4.465163230895996
0, 3, 12, 3.204109668731689
0, 3, 13, 4.120468616485596
0, 3, 14, 3.720990657806396
0, 3, 15, 7.125463008880615
0, 3, 16, 7.264309883117676
0, 3, 17, 6.103481769561768
0, 3, 18, 32.14464950561523
0, 3, 19, 116.190299987793
0, 3, 20, 179.3741760253906
0, 3, 21, 172.8841247558594
0, 3, 22, 177.9703521728516
0, 3, 23, 188.2755889892578
0, 3, 24, 177.8193054199219
0, 3, 25, 168.4368286132812
0, 3, 26, 182.8384094238281
0, 3, 27, 189.1419677734375
0, 3, 28, 181.42041015625
0, 3, 29, 197.2660217285156
0, 3, 30, 185.1077117919922
0, 3, 31, 193.0981292724609
0, 3, 32, 206.1670989990234
0, 3, 33, 196.4658203125
0, 3, 34, 187.7381744384766
0, 3, 35, 174.1336517333984
0, 3, 36, 187.2878265380859
0, 3, 37, 200.52392578125
0, 3, 38, 191.806640625
0, 3, 39, 186.7102813720703
0, 3, 40, 165.8703308105469
0, 3, 41, 174.96337890625
0, 3, 42, 185.7407073974609
0, 3, 43, 181.9408569335938
0, 3, 44, 203.7935943603516
0, 3, 45, 207.2777862548828
0, 3, 46, 198.4540405273438
0, 3, 47, 193.6992492675781
0, 3, 48, 195.66455078125
0, 3, 49, 180.3286743164062
0, 3, 50, 186.1702423095703
0, 3, 51, 174.3675842285156
0, 3, 52, 187.1163330078125
0, 3, 53, 177.3304595947266
0, 3, 54, 179.2676239013672
0, 3, 55, 176.8411712646484
0, 3, 56, 183.6338653564453
0, 3, 57, 175.0015563964844
0, 3, 58, 201.4398651123047
0, 3, 59, 196.1057739257812
0, 3, 60, 185.41748046875
0, 3, 61, 182.9292755126953
0, 3, 62, 183.3422088623047
0, 3, 63, 182.9948425292969
0, 3, 64, 187.3075714111328
0, 3, 65, 187.3903961181641
0, 3, 66, 176.4477233886719
0, 3, 67, 189.6940460205078
0, 3, 68, 211.5512542724609
0, 3, 69, 189.9795379638672
0, 3, 70, 184.7706909179688
0, 3, 71, 196.5202178955078
0, 3, 72, 185.7860260009766
0, 3, 73, 187.4160919189453
0, 3, 74, 192.3459014892578
0, 3, 75, 193.0356292724609
0, 3, 76, 191.07421875
0, 3, 77, 198.127685546875
0, 3, 78, 188.0247192382812
0, 3, 79, 185.4875640869141
0, 3, 80, 192.9902038574219
0, 3, 81, 182.5045166015625
0, 3, 82, 179.2957000732422
0, 3, 83, 194.3677215576172
0, 3, 84, 199.2758178710938
0, 3, 85, 193.4343719482422
0, 3, 86, 204.9093322753906
0, 3, 87, 197.3273315429688
0, 3, 88, 190.5535430908203
0, 3, 89, 192.9727630615234
0, 3, 90, 174.0117034912109
0, 3, 91, 156.0922241210938
0, 3, 92, 206.2080230712891
0, 3, 93, 196.3649139404297
0, 3, 94, 192.8588714599609
0, 3, 95, 211.2572021484375
0, 3, 96, 208.4431457519531
0, 3, 97, 167.2858428955078
0, 3, 98, 167.9237365722656
0, 3, 99, 179.9464569091797
0, 3, 100, 176.9407196044922
0, 3, 101, 197.5309906005859
0, 3, 102, 195.3941345214844
0, 3, 103, 192.4807891845703
0, 3, 104, 204.9073028564453
0, 3, 105, 176.7976989746094
0, 3, 106, 181.8249053955078
0, 3, 107, 169.0695648193359
0, 3, 108, 107.9327545166016
0, 3, 109, 27.66301536560059
0, 3, 110, 7.905169486999512
0, 3, 111, 6.637535095214844
0, 3, 112, 3.81598424911499
0, 3, 113, 7.849434375762939
0, 3, 114, 6.791865825653076
0, 3, 115, 4.626082420349121
0, 3, 116, 5.799079895019531
0, 3, 117, 3.526234149932861
0, 3, 118, 2.252604722976685
0, 3, 119, 2.361965894699097
0, 3, 120, 4.159996032714844
0, 3, 121, 2.17055344581604
0, 3, 122, 3.170314788818359
0, 3, 123, 1.897962331771851
0, 3, 124, 1.906065583229065
0, 3, 125, 1.106389164924622
0, 3, 126, 2.564724922180176
0, 3, 127, 1.397799253463745
0, 4, 0, 1.23500657081604
0, 4, 1, 0.5736334323883057
0, 4, 2, 2.200819492340088
0, 4, 3, 3.777543067932129
0, 4, 4, 1.45818030834198
0, 4, 5, 0.8225125670433044
0, 4, 6, 2.735032081604004
0, 4, 7, 2.469062566757202
0, 4, 8, 1.900313377380371
0, 4, 9, 2.237583160400391
0, 4, 10, 2.544695615768433
0, 4, 11, 3.289071559906006
0, 4, 12, 3.651179552078247
0, 4, 13, 3.870037794113159
0, 4, 14, 7.169530391693115
0, 4, 15, 8.027877807617188
0, 4, 16, 7.372524738311768
0, 4, 17, 12.49120712280273
0, 4, 18, 54.46179962158203
0, 4, 19, 151.7940521240234
0, 4, 20, 194.0133819580078
0, 4, 21, 170.4103088378906
0, 4, 22, 187.7241363525391
0, 4, 23, 197.3502807617188
0, 4, 24, 193.6465759277344
0, 4, 25, 199.2135925292969
0, 4, 26, 182.3612060546875
0, 4, 27, 190.1473541259766
0, 4, 28, 178.2090759277344
0, 4, 29, 206.1436920166016
0, 4, 30, 195.9632110595703
0, 4, 31, 192.4857482910156
0, 4, 32, 213.1818542480469
0, 4, 33, 189.2092132568359
0, 4, 34, 192.5902557373047
0, 4, 35, 213.7133026123047
0, 4, 36, 193.0875244140625
0, 4, 37, 176.6197357177734
0, 4, 38, 195.8113555908203
0, 4, 39, 190.7777404785156
0, 4, 40, 185.4890289306641
0, 4, 41, 189.0202178955078
0, 4, 42, 205.887939453125
0, 4, 43, 173.3003540039062
0, 4, 44, 185.8659057617188
0, 4, 45, 196.5800170898438
0, 4, 46, 185.9169769287109
0, 4, 47, 179.9755859375
0, 4, 48, 187.0676879882812
0, 4, 49, 175.6620788574219
0, 4, 50, 187.1456909179688
0, 4, 51, 198.2058563232422
0, 4, 52, 223.9109191894531
0, 4, 53, 205.6783752441406
0, 4, 54, 189.2741394042969
0, 4, 55, 175.1596832275391
0, 4, 56, 191.8685455322266
0, 4, 57, 192.1393585205078
0, 4, 58, 188.8049011230469
0, 4, 59, 189.5285339355469
0, 4, 60, 195.8490753173828
0, 4, 61, 194.0154876708984
0, 4, 62, 189.0091094970703
0, 4, 63, 178.5872192382812
0, 4, 64, 211.1601104736328
0, 4, 65, 190.6191864013672
0, 4, 66, 201.3929901123047
0, 4, 67, 199.5646514892578
0, 4, 68, 202.1615447998047
0, 4, 69, 198.6949768066406
0, 4, 70, 204.1217651367188
0, 4, 71, 205.8072204589844
0, 4, 72, 217.2032318115234
0, 4, 73, 186.6901092529297
0, 4, 74, 180.9682769775391
0, 4, 75, 185.6965484619141
0, 4, 76, 189.9293670654297
0, 4, 77, 183.3157958984375
0, 4, 78, 195.1430969238281
0, 4, 79, 204.6341552734375
0, 4, 80, 212.514892578125
0, 4, 81, 199.7493591308594
0, 4, 82, 180.3390502929688
0, 4, 83, 169.3058776855469
0, 4, 84, 192.5036315917969
0, 4, 85, 195.7056274414062
0, 4, 86, 181.9274444580078
0, 4, 87, 184.5324554443359
0, 4, 88, 203.7252502441406
0, 4, 89, 187.4009552001953
0, 4, 90, 210.9398956298828
0, 4, 91, 189.5733032226562
0, 4, 92, 197.1530151367188
0, 4, 93, 197.0497589111328
0, 4, 94, 181.5886688232422
0, 4, 95, 175.3620452880859
0, 4, 96, 190.3237762451172
0, 4, 97, 192.7419586181641
0, 4, 98, 201.376220703125
0, 4, 99, 185.3845672607422
0, 4, 100, 182.7729949951172
0, 4, 101, 177.8148498535156
0, 4, 102, 173.5084533691406
0, 4, 103, 185.2791137695312
0, 4, 104, 209.5103302001953
0, 4, 105, 190.5494537353516
0, 4, 106, 179.318603515625
0, 4, 107, 181.0059661865234
0, 4, 108, 152.5692901611328
0, 4, 109, 50.55795669555664
0, 4, 110, 11.93188858032227
0, 4, 111, 8.723452568054199
0, 4, 112, 6.124828338623047
0, 4, 113, 5.476629257202148
0, 4, 114, 5.509284019470215
0, 4, 115, 3.753482341766357
0, 4, 116, 4.368498802185059
0, 4, 117, 2.452739238739014
0, 4, 118, 3.512017488479614
0, 4, 119, 4.882682800292969
0, 4, 120, 1.959842443466187
0, 4, 121, 1.601889729499817
0, 4, 122, 2.024433374404907
0, 4, 123, 1.802075028419495
0, 4, 124, 3.442589282989502
0, 4, 125, 2.576282739639282
0, 4, 126, 1.480341553688049
0, 4, 127, 1.708742022514343
0, 5, 0, 1.270440101623535
0, 5, 1, 4.030011653900146
0, 5, 2, 6.481298923492432
0, 5, 3, 4.564465999603271
0, 5, 4, 2.698930740356445
0, 5, 5, 1.835429191589355
0, 5, 6, 2.57131814956665
0, 5, 7, 2.259173631668091
0, 5, 8, 2.062064647674561
0, 5, 9, 3.365829706192017
0, 5, 10, 3.664320945739746
0, 5, 11, 3.67942476272583
0, 5, 12, 6.037128925323486
0, 5, 13, 4.102741718292236
0, 5, 14, 5.3487548828125
0, 5, 15, 8.896535873413086
0, 5, 16, 6.949905395507812
0, 5, 17, 21.25275993347168
0, 5, 18, 82.54887390136719
0, 5, 19, 165.7438201904297
0, 5, 20, 183.1331176757812
0, 5, 21, 179.3279266357422
0, 5, 22, 172.8242492675781
0, 5, 23, 200.4960174560547
0, 5, 24, 186.5871276855469
0, 5, 25, 208.3539581298828
0, 5, 26, 183.5931854248047
0, 5, 27, 194.9303588867188
0, 5, 28, 190.3336791992188
0, 5, 29, 195.0467529296875
0, 5, 30, 179.3347320556641
0, 5, 31, 179.8254699707031
0, 5, 32, 186.2735748291016
0, 5, 33, 169.3607482910156
0, 5, 34, 195.2034149169922
0, 5, 35, 196.2574005126953
0, 5, 36, 168.0434875488281
0, 5, 37, 196.9309234619141
0, 5, 38, 182.0387268066406
0, 5, 39, 187.7731323242188
0, 5, 40, 197.3782501220703
0, 5, 41, 177.4014282226562
0, 5, 42, 187.3566741943359
0, 5, 43, 191.7154083251953
0, 5, 44, 199.2709350585938
0, 5, 45, 186.0939636230469
0, 5, 46, 193.1161041259766
0, 5, 47, 180.3065643310547
0, 5, 48, 178.3643341064453
0, 5, 49, 177.7012786865234
0, 5, 50, 185.67578125
0, 5, 51, 172.8596038818359
0, 5, 52, 167.4933624267578
0, 5, 53, 181.5662384033203
0, 5, 54, 173.4646301269531
0, 5, 55, 215.5106658935547
0, 5, 56, 182.241943359375
0, 5, 57, 207.9278564453125
0, 5, 58, 182.2513580322266
0, 5, 59, 180.6191253662109
0, 5, 60, 218.4436187744141
0, 5, 61, 184.5106048583984
0, 5, 62, 178.9874877929688
0, 5, 63, 180.5615081787109
0, 5, 64, 196.5157623291016
0, 5, 65, 211.8532104492188
0, 5, 66, 192.3079071044922
0, 5, 67, 198.9590301513672
0, 5, 68, 190.6791534423828
0, 5, 69, 185.6513214111328
0, 5, 70, 184.88623046875
0, 5, 71, 193.0828247070312
0, 5, 72, 197.3112640380859
0, 5, 73, 201.5040283203125
0, 5, 74, 179.0097198486328
0, 5, 75, 203.1115264892578
0, 5, 76, 214.5852203369141
0, 5, 77, 179.9522399902344
0, 5, 78, 194.5053558349609
0, 5, 79, 190.016357421875
0, 5, 80, 198.6553039550781
0, 5, 81, 204.1363830566406
0, 5, 82, 201.8183746337891
0, 5, 83, 188.210205078125
0, 5, 84, 205.4160308837891
0, 5, 85, 177.1365051269531
0, 5, 86, 195.7332763671875
0, 5, 87, 189.5280151367188
0, 5, 88, 176.7338104248047
0, 5, 89, 194.1024322509766
0, 5, 90, 199.1302795410156
0, 5, 91, 194.5896606445312
0, 5, 92, 191.7516479492188
0, 5, 93, 191.98193359375
0, 5, 94, 207.4028472900391
0, 5, 95, 176.6686553955078
0, 5, 96, 181.6388549804688
0, 5, 97, 192.7982177734375
0, 5, 98, 189.6534118652344
0, 5, 99, 193.96435546875
0, 5, 100, 185.7644805908203
0, 5, 101, 195.5259246826172
0, 5, 102, 181.0463256835938
0, 5, 103, 176.0192413330078
0, 5, 104, 190.1209869384766
0, 5, 105, 189.5570831298828
0, 5, 106, 176.6956634521484
0, 5, 107, 181.39794921875
0, 5, 108, 175.2468109130859
0, 5, 109, 89.95092010498047
0, 5, 110, 32.14351272583008
0, 5, 111, 8.530326843261719
0, 5, 112, 6.973576545715332
0, 5, 113, 5.392317295074463
0, 5, 114, 6.134031772613525
0, 5, 115, 6.823698043823242
0, 5, 116, 4.392987251281738
0, 5, 117, 5.429109573364258
0, 5, 118, 3.372473478317261
0, 5, 119, 3.419771194458008
0, 5, 120, 2.581190347671509
0, 5, 121, 1.346979379653931
0, 5, 122, 4.929187297821045
0, 5, 123, 4.453354835510254
0, 5, 124, 2.952464818954468
0, 5, 125, 1.817867875099182
0, 5, 126, 1.719947814941406
0, 5, 127, 3.13859486579895
0, 6, 0, 4.12161111831665
0, 6, 1, 3.562166452407837
0, 6, 2, 3.858135938644409
0, 6, 3, 3.091617584228516
0, 6, 4, 2.37772011756897
0, 6, 5, 3.704065084457397
0, 6, 6, 2.140276432037354
0, 6, 7, 3.601975679397583
0, 6, 8, 4.042002201080322
0, 6, 9, 2.921942710876465
0, 6, 10, 3.951778888702393
0, 6, 11, 4.850017547607422
0, 6, 12, 4.532429695129395
0, 6, 13, 7.154930114746094
0, 6, 14, 4.399828910827637
0, 6, 15, 6.533073425292969
0, 6, 16, 13.99850368499756
0, 6, 17, 29.7858715057373
0, 6, 18, 111.7240142822266
0, 6, 19, 191.3462829589844
0, 6, 20, 195.3946228027344
0, 6, 21, 198.6049194335938
0, 6, 22, 190.6072998046875
0, 6, 23, 190.5745849609375
0, 6, 24, 200.0400695800781
0, 6, 25, 182.283203125
0, 6, 26, 187.6980285644531
0, 6, 27, 192.0912628173828
0, 6, 28, 188.4167175292969
0, 6, 29, 209.9061279296875
0, 6, 30, 190.1682434082031
0, 6, 31, 193.2717895507812
0, 6, 32, 206.5903625488281
0, 6, 33, 183.7941131591797
0, 6, 34, 196.6537017822266
0, 6, 35, 187.2131958007812
0, 6, 36, 180.5638885498047
0, 6, 37, 183.2163848876953
0, 6, 38, 185.3784637451172
0, 6, 39, 195.5042266845703
0, 6, 40, 173.6387023925781
0, 6, 41, 185.1741027832031
0, 6, 42, 174.8480834960938
0, 6, 43, 210.0435791015625
0, 6, 44, 208.7351684570312
0, 6, 45, 193.7310028076172
0, 6, 46, 187.4830474853516
0, 6, 47, 204.2701110839844
0, 6, 48, 189.6735534667969
0, 6, 49, 179.4016876220703
0, 6, 50, 181.9301452636719
0, 6, 51, 196.9517364501953
0, 6, 52, 199.4560241699219
0, 6, 53, 184.4560699462891
0, 6, 54, 174.7010955810547
0, 6, 55, 196.2413024902344
0, 6, 56, 202.2999572753906
0, 6, 57, 191.6231994628906
0, 6, 58, 178.8281860351562
0, 6, 59, 191.7055511474609
0, 6, 60, 184.4228210449219
0, 6, 61, 194.0404968261719
0, 6, 62, 197.8646697998047
0, 6, 63, 187.8847351074219
0, 6, 64, 169.1573333740234
0, 6, 65, 188.2734985351562
0, 6, 66, 197.3060913085938
0, 6, 67, 214.5805358886719
0, 6, 68, 181.9597778320312
0, 6, 69, 173.2886962890625
0, 6, 70, 187.075927734375
0, 6, 71, 170.0997619628906
0, 6, 72, 175.7130432128906
0, 6, 73, 176.597412109375
0, 6, 74, 212.5178680419922
0, 6, 75, 227.2799377441406
0, 6, 76, 184.0789794921875
0, 6, 77, 172.6776123046875
0, 6, 78, 176.1373443603516
0, 6, 79, 186.8339233398438
0, 6, 80, 188.3730926513672
0, 6, 81, 207.9243621826172
0, 6, 82, 195.85107421875
0, 6, 83, 195.7564239501953
0, 6, 84, 196.9840240478516
0, 6, 85, 180.6868438720703
0, 6, 86, 200.6173553466797
0, 6, 87, 183.8060455322266
0, 6, 88, 191.9243469238281
0, 6, 89, 189.4258270263672
0, 6, 90, 205.3473052978516
0, 6, 91, 199.6974182128906
0, 6, 92, 173.6436309814453
0, 6, 93, 191.3226776123047
0, 6, 94, 191.9214630126953
0, 6, 95, 186.4295806884766
0, 6, 96, 191.2040405273438
0, 6, 97, 193.2071075439453
0, 6, 98, 183.4978790283203
0, 6, 99, 175.4469909667969
0, 6, 100, 202.3790740966797
0, 6, 101, 167.7288360595703
0, 6, 102, 201.778076171875
0, 6, 103, 196.3065338134766
0, 6, 104, 183.17724609375
0, 6, 105, 193.4455871582031
0, 6, 106, 176.7434539794922
0, 6, 107, 196.6624450683594
0, 6, 108, 171.8079833984375
0, 6, 109, 114.72900390625
0, 6, 110, 33.47263717651367
0, 6, 111, 10.13627910614014
0, 6, 112, 8.85614013671875
0, 6, 113, 6.255637168884277
0, 6, 114, 5.708240509033203
0, 6, 115, 4.986404895782471
0, 6, 116, 4.449583053588867
0, 6, 117, 5.869339466094971
0, 6, 118, 4.469757080078125
0, 6, 119, 3.905494213104248
0, 6, 120, 3.129349231719971
0, 6, 121, 3.742299795150757
0, 6, 122, 3.368804693222046
0, 6, 123, 2.339928150177002
0, 6, 124, 1.709882736206055
0, 6, 125, 2.493866682052612
0, 6, 126, 2.085057020187378
0, 6, 127, 3.248121023178101
0, 7, 0, 2.355396509170532
0, 7, 1, 1.256612777709961
0, 7, 2, 2.232110738754272
0, 7, 3, 2.155778646469116
0, 7, 4, 1.095271229743958
0, 7, 5, 1.175412058830261
0, 7, 6, 1.824572086334229
0, 7, 7, 2.341171979904175
0, 7, 8, 4.006885051727295
0, 7, 9, 3.941102981567383
0, 7, 10, 5.774840831756592
0, 7, 11, 3.32788872718811
0, 7, 12, 3.935076236724854
0, 7, 13, 6.645463943481445
0, 7, 14, 6.308773994445801
0, 7, 15, 7.317012786865234
0, 7, 16, 18.7122974395752
0, 7, 17, 51.58757019042969
0, 7, 18, 162.5205688476562
0, 7, 19, 184.2401123046875
0, 7, 20, 178.6397857666016
0, 7, 21, 180.0280151367188
0, 7, 22, 190.6118621826172
0, 7, 23, 203.2005615234375
0, 7, 24, 179.7796783447266
0, 7, 25, 212.7069549560547
0, 7, 26, 188.9439544677734
0, 7, 27, 181.8359832763672
0, 7, 28, 181.9760894775391
0, 7, 29, 208.6188507080078
0, 7, 30, 192.6887664794922
0, 7, 31, 176.4201049804688
0, 7, 32, 190.3328094482422
0, 7, 33, 179.3119964599609
0, 7, 34, 192.9602203369141
0, 7, 35, 196.5639190673828
0, 7, 36, 187.9864959716797
0, 7, 37, 212.4902038574219
0, 7, 38, 190.7189636230469
0, 7, 39, 172.9129791259766
0, 7, 40, 183.8970489501953
0, 7, 41, 184.6976623535156
0, 7, 42, 177.8363647460938
0, 7, 43, 179.2328186035156
0, 7, 44, 179.9385681152344
0, 7, 45, 175.1873321533203
0, 7, 46, 189.5338592529297
0, 7, 47, 198.3753204345703
0, 7, 48, 186.2525177001953
0, 7, 49, 198.4723815917969
0, 7, 50, 187.6485748291016
0, 7, 51, 204.8152923583984
0, 7, 52, 204.1060028076172
0, 7, 53, 191.3763732910156
0, 7, 54, 197.2168884277344
0, 7, 55, 203.7695465087891
0, 7, 56, 183.6003875732422
0, 7, 57, 183.3650360107422
0, 7, 58, 191.3999938964844
0, 7, 59, 188.6619110107422
0, 7, 60, 201.8294830322266
0, 7, 61, 171.3623199462891
0, 7, 62, 203.6226196289062
0, 7, 63, 189.1904907226562
0, 7, 64, 199.2592315673828
0, 7, 65, 195.5657043457031
0, 7, 66, 207.4136047363281
0, 7, 67, 220.1956176757812
0, 7, 68, 162.0694122314453
0, 7, 69, 194.8424072265625
0, 7, 70, 218.1155853271484
0, 7, 71, 184.0401611328125
0, 7, 72, 182.4551544189453
0, 7, 73, 177.6458587646484
0, 7, 74, 207.5294799804688
0, 7, 75, 205.0292816162109
0, 7, 76, 214.5160675048828
0, 7, 77, 173.8591156005859
0, 7, 78, 177.1645660400391
0, 7, 79, 192.4109649658203
0, 7, 80, 195.5915069580078
0, 7, 81, 214.6714019775391
0, 7, 82, 183.9017486572266
0, 7, 83, 206.2427062988281
0, 7, 84, 191.8584747314453
0, 7, 85, 185.6478424072266
0, 7, 86, 199.6543731689453
0, 7, 87, 226.006103515625
0, 7, 88, 194.6213531494141
0, 7, 89, 176.5564270019531
0, 7, 90, 182.0269622802734
0, 7, 91, 194.169921875
0, 7, 92, 193.4399261474609
0, 7, 93, 198.2395629882812
0, 7, 94, 176.3399047851562
0, 7, 95, 200.476806640625
0, 7, 96, 208.9481658935547
0, 7, 97, 188.5387420654297
0, 7, 98, 176.9377288818359
0, 7, 99, 197.1592102050781
0, 7, 100, 181.9797668457031
0, 7, 101, 199.4982452392578
0, 7, 102, 185.2564697265625
0, 7, 103, 181.8723297119141
0, 7, 104, 175.4307861328125
0, 7, 105, 194.7472381591797
0, 7, 106, 206.6128387451172
0, 7, 107, 176.6089172363281
0, 7, 108, 176.0885162353516
0, 7, 109, 136.1662902832031
0, 7, 110, 54.17163848876953
0, 7, 111, 9.294586181640625
0, 7, 112, 7.996763229370117
0, 7, 113, 8.343982696533203
0, 7, 114, 6.762112140655518
0, 7, 115, 4.313683986663818
0, 7, 116, 4.309823989868164
0, 7, 117, 2.475606918334961
0, 7, 118, 2.993703842163086
0, 7, 119, 2.64630126953125
0, 7, 120, 2.340617656707764
0, 7, 121, 3.392601013183594
0, 7, 122, 3.142462015151978
0, 7, 123, 1.872217297554016
0, 7, 124, 0.9931259751319885
0, 7, 125, 1.178765416145325
0, 7, 126, 2.564269542694092
0, 7, 127, 0.9866122007369995
0, 8, 0, 3.346377372741699
0, 8, 1, 2.164299011230469
0, 8, 2, 3.628951072692871
0, 8, 3, 2.5009925365448
0, 8, 4, 1.267523169517517
0, 8, 5, 3.859511137008667
0, 8, 6, 1.443310737609863
0, 8, 7, 4.97609281539917
0, 8, 8, 2.850137710571289
0, 8, 9, 4.135490417480469
0, 8, 10, 2.537049531936646
0, 8, 11, 2.455176115036011
0, 8, 12, 3.114879369735718
0, 8, 13, 5.022507190704346
0, 8, 14, 6.185671806335449
0, 8, 15, 8.736292839050293
0, 8, 16, 21.0006275177002
0, 8, 17, 74.27500152587891
0, 8, 18, 142.6003875732422
0, 8, 19, 178.2945404052734
0, 8, 20, 193.4416198730469
0, 8, 21, 192.2524566650391
0, 8, 22, 179.4236450195312
0, 8, 23, 172.2971801757812
0, 8, 24, 192.6899871826172
0, 8, 25, 184.4900665283203
0, 8, 26, 193.2088775634766
0, 8, 27, 186.5034637451172
0, 8, 28, 186.9263458251953
0, 8, 29, 207.3117980957031
0, 8, 30, 195.9412231445312
0, 8, 31, 182.6962738037109
0, 8, 32, 198.346435546875
0, 8, 33, 207.5866241455078
0, 8, 34, 203.2045440673828
0, 8, 35, 185.1434326171875
0, 8, 36, 182.7967071533203
