# TOPAS Version: 3.1.p3
# Parameter File: batch_inserts_172.txt
# Results for scorer Readout_Adipose
# Scored in component: MyBox
# X in 1 bin  of 0.65 cm
# Y in 512 bins of 0.0783984 cm
# Z in 128 bins of 0.078125 cm
# EnergyDeposit ( MeV ) : Sum   
0, 0, 0, 1.472611546516418
0, 0, 1, 4.076237678527832
0, 0, 2, 0.9092316031455994
0, 0, 3, 0.7498174905776978
0, 0, 4, 2.003362655639648
0, 0, 5, 1.351682066917419
0, 0, 6, 1.140222668647766
0, 0, 7, 1.7692631483078
0, 0, 8, 2.170775651931763
0, 0, 9, 2.814473867416382
0, 0, 10, 1.744122982025146
0, 0, 11, 3.536311388015747
0, 0, 12, 4.537159442901611
0, 0, 13, 2.428377151489258
0, 0, 14, 4.879613876342773
0, 0, 15, 8.335380554199219
0, 0, 16, 4.020144462585449
0, 0, 17, 7.075431346893311
0, 0, 18, 7.586367130279541
0, 0, 19, 24.2449951171875
0, 0, 20, 94.28636932373047
0, 0, 21, 151.7659606933594
0, 0, 22, 153.8439788818359
0, 0, 23, 145.0301208496094
0, 0, 24, 159.7758331298828
0, 0, 25, 166.9686431884766
0, 0, 26, 166.7143859863281
0, 0, 27, 174.0539245605469
0, 0, 28, 178.7718963623047
0, 0, 29, 175.1803283691406
0, 0, 30, 172.2316741943359
0, 0, 31, 166.0503997802734
0, 0, 32, 164.3042907714844
0, 0, 33, 167.5413970947266
0, 0, 34, 177.3623046875
0, 0, 35, 173.6415557861328
0, 0, 36, 159.0175323486328
0, 0, 37, 161.3596649169922
0, 0, 38, 166.6965026855469
0, 0, 39, 159.0443267822266
0, 0, 40, 164.0583648681641
0, 0, 41, 165.7811889648438
0, 0, 42, 142.9908905029297
0, 0, 43, 168.6104888916016
0, 0, 44, 178.1123352050781
0, 0, 45, 172.1099395751953
0, 0, 46, 165.5311431884766
0, 0, 47, 168.1233825683594
0, 0, 48, 168.9165954589844
0, 0, 49, 182.6557006835938
0, 0, 50, 169.2613830566406
0, 0, 51, 162.5317230224609
0, 0, 52, 167.9403076171875
0, 0, 53, 171.7250061035156
0, 0, 54, 160.5183715820312
0, 0, 55, 165.0379028320312
0, 0, 56, 189.288818359375
0, 0, 57, 170.3689575195312
0, 0, 58, 160.8641510009766
0, 0, 59, 173.0050354003906
0, 0, 60, 169.8752746582031
0, 0, 61, 172.4460296630859
0, 0, 62, 184.1528778076172
0, 0, 63, 167.3165588378906
0, 0, 64, 163.6405944824219
0, 0, 65, 176.7841796875
0, 0, 66, 177.5286254882812
0, 0, 67, 164.5798187255859
0, 0, 68, 158.1390533447266
0, 0, 69, 158.1724548339844
0, 0, 70, 170.2362670898438
0, 0, 71, 158.5729064941406
0, 0, 72, 162.2948150634766
0, 0, 73, 171.4861450195312
0, 0, 74, 163.1885528564453
0, 0, 75, 163.8422088623047
0, 0, 76, 163.0006103515625
0, 0, 77, 171.6243591308594
0, 0, 78, 181.2956390380859
0, 0, 79, 175.4005279541016
0, 0, 80, 159.6853942871094
0, 0, 81, 161.8203277587891
0, 0, 82, 182.062744140625
0, 0, 83, 174.8179473876953
0, 0, 84, 159.7643432617188
0, 0, 85, 180.7190704345703
0, 0, 86, 158.7260284423828
0, 0, 87, 177.4078521728516
0, 0, 88, 176.2076263427734
0, 0, 89, 174.4138793945312
0, 0, 90, 161.7233123779297
0, 0, 91, 186.9620971679688
0, 0, 92, 164.4748382568359
0, 0, 93, 155.3750610351562
0, 0, 94, 169.2257080078125
0, 0, 95, 173.8666076660156
0, 0, 96, 183.7011413574219
0, 0, 97, 183.3748168945312
0, 0, 98, 185.5283508300781
0, 0, 99, 172.8935394287109
0, 0, 100, 157.9150848388672
0, 0, 101, 167.1852722167969
0, 0, 102, 171.7220153808594
0, 0, 103, 170.7227020263672
0, 0, 104, 168.1230163574219
0, 0, 105, 178.3492584228516
0, 0, 106, 159.3871765136719
0, 0, 107, 86.28196716308594
0, 0, 108, 21.62752532958984
0, 0, 109, 11.13724231719971
0, 0, 110, 5.662233829498291
0, 0, 111, 6.802734851837158
0, 0, 112, 3.659360647201538
0, 0, 113, 2.803637266159058
0, 0, 114, 2.167090177536011
0, 0, 115, 3.400750160217285
0, 0, 116, 3.417068481445312
0, 0, 117, 2.997683048248291
0, 0, 118, 3.516182422637939
0, 0, 119, 2.143620252609253
0, 0, 120, 2.301611185073853
0, 0, 121, 4.063905239105225
0, 0, 122, 3.852719783782959
0, 0, 123, 4.302458763122559
0, 0, 124, 1.163756608963013
0, 0, 125, 3.587003707885742
0, 0, 126, 3.157565593719482
0, 0, 127, 2.351836919784546
0, 1, 0, 1.041739106178284
0, 1, 1, 3.666435718536377
0, 1, 2, 3.962959766387939
0, 1, 3, 2.471417188644409
0, 1, 4, 1.48627781867981
0, 1, 5, 1.437695026397705
0, 1, 6, 1.49481213092804
0, 1, 7, 3.812714815139771
0, 1, 8, 1.77274763584137
0, 1, 9, 3.374554872512817
0, 1, 10, 3.767863750457764
0, 1, 11, 3.09791898727417
0, 1, 12, 4.709586620330811
0, 1, 13, 3.892316102981567
0, 1, 14, 5.455041885375977
0, 1, 15, 6.709406852722168
0, 1, 16, 8.277857780456543
0, 1, 17, 5.395762920379639
0, 1, 18, 10.73853874206543
0, 1, 19, 39.90515899658203
0, 1, 20, 125.8960189819336
0, 1, 21, 176.5875549316406
0, 1, 22, 192.2696075439453
0, 1, 23, 184.3831024169922
0, 1, 24, 182.7716369628906
0, 1, 25, 191.7072601318359
0, 1, 26, 198.1845397949219
0, 1, 27, 186.4112396240234
0, 1, 28, 188.0845947265625
0, 1, 29, 183.9827880859375
0, 1, 30, 180.0857849121094
0, 1, 31, 181.1204986572266
0, 1, 32, 189.1047210693359
0, 1, 33, 190.4749298095703
0, 1, 34, 185.1326599121094
0, 1, 35, 194.8609924316406
0, 1, 36, 205.3863677978516
0, 1, 37, 184.7938842773438
0, 1, 38, 165.1253662109375
0, 1, 39, 172.1865539550781
0, 1, 40, 178.9325561523438
0, 1, 41, 186.9392395019531
0, 1, 42, 181.8529052734375
0, 1, 43, 186.2575378417969
0, 1, 44, 168.6152954101562
0, 1, 45, 186.5796356201172
0, 1, 46, 171.3757171630859
0, 1, 47, 184.5924682617188
0, 1, 48, 185.9679565429688
0, 1, 49, 186.1879577636719
0, 1, 50, 178.9995574951172
0, 1, 51, 190.9094390869141
0, 1, 52, 196.0895233154297
0, 1, 53, 195.2309722900391
0, 1, 54, 184.9142913818359
0, 1, 55, 165.1162567138672
0, 1, 56, 178.8771820068359
0, 1, 57, 177.5345916748047
0, 1, 58, 188.3307189941406
0, 1, 59, 193.3310394287109
0, 1, 60, 187.9840087890625
0, 1, 61, 180.3455047607422
0, 1, 62, 205.0932006835938
0, 1, 63, 173.923095703125
0, 1, 64, 173.3350677490234
0, 1, 65, 186.9376220703125
0, 1, 66, 205.2457885742188
0, 1, 67, 183.0799560546875
0, 1, 68, 187.6203002929688
0, 1, 69, 189.1701965332031
0, 1, 70, 186.5644989013672
0, 1, 71, 171.8170928955078
0, 1, 72, 188.2109680175781
0, 1, 73, 192.5142211914062
0, 1, 74, 202.5643463134766
0, 1, 75, 183.5576477050781
0, 1, 76, 174.9038848876953
0, 1, 77, 191.8324432373047
0, 1, 78, 188.0433807373047
0, 1, 79, 202.4268798828125
0, 1, 80, 185.3868560791016
0, 1, 81, 174.916748046875
0, 1, 82, 207.1900634765625
0, 1, 83, 213.5413970947266
0, 1, 84, 180.4566192626953
0, 1, 85, 169.4275054931641
0, 1, 86, 167.6793060302734
0, 1, 87, 184.6743011474609
0, 1, 88, 174.6288604736328
0, 1, 89, 188.6448211669922
0, 1, 90, 213.6597900390625
0, 1, 91, 180.6965637207031
0, 1, 92, 183.6687774658203
0, 1, 93, 180.6008148193359
0, 1, 94, 185.6696929931641
0, 1, 95, 184.3388824462891
0, 1, 96, 196.0164031982422
0, 1, 97, 183.2320861816406
0, 1, 98, 186.2073211669922
0, 1, 99, 175.22607421875
0, 1, 100, 172.5073089599609
0, 1, 101, 178.3811798095703
0, 1, 102, 181.5168914794922
0, 1, 103, 172.7675933837891
0, 1, 104, 189.9416351318359
0, 1, 105, 181.7427825927734
0, 1, 106, 163.1371917724609
0, 1, 107, 123.819953918457
0, 1, 108, 46.69111633300781
0, 1, 109, 9.503626823425293
0, 1, 110, 9.568042755126953
0, 1, 111, 6.969840049743652
0, 1, 112, 6.704936027526855
0, 1, 113, 6.898153781890869
0, 1, 114, 6.020632743835449
0, 1, 115, 4.59493350982666
0, 1, 116, 5.601165294647217
0, 1, 117, 2.29377555847168
0, 1, 118, 3.648050785064697
0, 1, 119, 0.8955177664756775
0, 1, 120, 3.358719825744629
0, 1, 121, 3.83638858795166
0, 1, 122, 5.486289501190186
0, 1, 123, 3.793006896972656
0, 1, 124, 2.009319067001343
0, 1, 125, 2.634745836257935
0, 1, 126, 1.448723316192627
0, 1, 127, 1.551789164543152
0, 2, 0, 1.479739427566528
0, 2, 1, 2.191986560821533
0, 2, 2, 2.372881650924683
0, 2, 3, 3.029594659805298
0, 2, 4, 2.425890922546387
0, 2, 5, 1.108191967010498
0, 2, 6, 3.256200313568115
0, 2, 7, 1.763904809951782
0, 2, 8, 0.8466799855232239
0, 2, 9, 3.312242031097412
0, 2, 10, 5.979554176330566
0, 2, 11, 4.903346061706543
0, 2, 12, 4.017271995544434
0, 2, 13, 4.433625221252441
0, 2, 14, 4.51364278793335
0, 2, 15, 4.575877666473389
0, 2, 16, 5.344662189483643
0, 2, 17, 9.232280731201172
0, 2, 18, 14.51125144958496
0, 2, 19, 77.22945404052734
0, 2, 20, 162.8202819824219
0, 2, 21, 183.17041015625
0, 2, 22, 194.8005981445312
0, 2, 23, 185.4553680419922
0, 2, 24, 173.8999328613281
0, 2, 25, 184.8864898681641
0, 2, 26, 179.1964569091797
0, 2, 27, 190.5055694580078
0, 2, 28, 171.6729583740234
0, 2, 29, 169.7752532958984
0, 2, 30, 187.389892578125
0, 2, 31, 182.4847564697266
0, 2, 32, 183.4984130859375
0, 2, 33, 190.3903656005859
0, 2, 34, 197.1099700927734
0, 2, 35, 181.7100524902344
0, 2, 36, 185.7725677490234
0, 2, 37, 180.4526214599609
0, 2, 38, 183.9634094238281
0, 2, 39, 166.0408172607422
0, 2, 40, 184.1312255859375
0, 2, 41, 186.2154083251953
0, 2, 42, 190.6823272705078
0, 2, 43, 194.1867370605469
0, 2, 44, 190.92236328125
0, 2, 45, 191.1756439208984
0, 2, 46, 195.4736328125
0, 2, 47, 189.2034149169922
0, 2, 48, 178.0637512207031
0, 2, 49, 197.8022003173828
0, 2, 50, 168.446533203125
0, 2, 51, 187.1866912841797
0, 2, 52, 185.8928985595703
0, 2, 53, 195.3696746826172
0, 2, 54, 177.685302734375
0, 2, 55, 173.47998046875
0, 2, 56, 182.029541015625
0, 2, 57, 200.3266296386719
0, 2, 58, 186.4641265869141
0, 2, 59, 189.4467315673828
0, 2, 60, 199.1930084228516
0, 2, 61, 194.0218200683594
0, 2, 62, 189.8369140625
0, 2, 63, 169.0239105224609
0, 2, 64, 191.0614624023438
0, 2, 65, 202.1696166992188
0, 2, 66, 196.2357330322266
0, 2, 67, 185.7176208496094
0, 2, 68, 181.8790130615234
0, 2, 69, 187.1517028808594
0, 2, 70, 202.8250122070312
0, 2, 71, 175.3363189697266
0, 2, 72, 187.6455993652344
0, 2, 73, 178.1247711181641
0, 2, 74, 180.4330749511719
0, 2, 75, 196.0704956054688
0, 2, 76, 183.5220794677734
0, 2, 77, 177.8543548583984
0, 2, 78, 197.0764007568359
0, 2, 79, 177.2485504150391
0, 2, 80, 186.5111389160156
0, 2, 81, 187.1298217773438
0, 2, 82, 204.7671203613281
0, 2, 83, 202.9123840332031
0, 2, 84, 188.1373596191406
0, 2, 85, 170.2637329101562
0, 2, 86, 196.1710968017578
0, 2, 87, 171.5059661865234
0, 2, 88, 177.0237274169922
0, 2, 89, 185.9253997802734
0, 2, 90, 177.5800476074219
0, 2, 91, 174.6462860107422
0, 2, 92, 197.7937316894531
0, 2, 93, 196.4160614013672
0, 2, 94, 201.4943695068359
0, 2, 95, 192.6053009033203
0, 2, 96, 186.8686218261719
0, 2, 97, 172.5801849365234
0, 2, 98, 174.1358947753906
0, 2, 99, 162.9307098388672
0, 2, 100, 187.7861785888672
0, 2, 101, 196.8413238525391
0, 2, 102, 176.6599731445312
0, 2, 103, 199.6134643554688
0, 2, 104, 188.4729156494141
0, 2, 105, 200.528564453125
0, 2, 106, 195.0452270507812
0, 2, 107, 149.5013732910156
0, 2, 108, 78.93434143066406
0, 2, 109, 17.38433074951172
0, 2, 110, 8.606207847595215
0, 2, 111, 5.229078769683838
0, 2, 112, 3.004807949066162
0, 2, 113, 4.261930465698242
0, 2, 114, 6.931930065155029
0, 2, 115, 4.905766010284424
0, 2, 116, 5.569538116455078
0, 2, 117, 2.126838207244873
0, 2, 118, 2.425642251968384
0, 2, 119, 4.293348789215088
0, 2, 120, 4.102863311767578
0, 2, 121, 3.778969287872314
0, 2, 122, 2.236696243286133
0, 2, 123, 3.236980676651001
0, 2, 124, 2.013372898101807
0, 2, 125, 1.975604295730591
0, 2, 126, 2.687573909759521
0, 2, 127, 0.9726729393005371
0, 3, 0, 1.717716693878174
0, 3, 1, 1.039369702339172
0, 3, 2, 1.141536235809326
0, 3, 3, 1.391054272651672
0, 3, 4, 4.068365573883057
0, 3, 5, 1.298966646194458
0, 3, 6, 1.320216655731201
0, 3, 7, 1.158222556114197
0, 3, 8, 1.596726179122925
0, 3, 9, 1.86341655254364
0, 3, 10, 1.721165657043457
0, 3, 11, 4.486960411071777
0, 3, 12, 3.577940464019775
0, 3, 13, 3.003437519073486
0, 3, 14, 3.423092365264893
0, 3, 15, 8.784384727478027
0, 3, 16, 7.166401863098145
0, 3, 17, 7.669327259063721
0, 3, 18, 33.31345367431641
0, 3, 19, 113.9489517211914
0, 3, 20, 180.7264862060547
0, 3, 21, 172.7753601074219
0, 3, 22, 178.2696380615234
0, 3, 23, 188.1641082763672
0, 3, 24, 177.8369140625
0, 3, 25, 168.7499084472656
0, 3, 26, 180.6549224853516
0, 3, 27, 189.1098480224609
0, 3, 28, 183.8053283691406
0, 3, 29, 197.18603515625
0, 3, 30, 184.6259918212891
0, 3, 31, 193.7106170654297
0, 3, 32, 205.7074737548828
0, 3, 33, 196.1340942382812
0, 3, 34, 187.0866394042969
0, 3, 35, 176.2518920898438
0, 3, 36, 185.907958984375
0, 3, 37, 200.0068359375
0, 3, 38, 192.1507110595703
0, 3, 39, 185.2562103271484
0, 3, 40, 166.3100891113281
0, 3, 41, 175.2258758544922
0, 3, 42, 184.7812652587891
0, 3, 43, 181.611572265625
0, 3, 44, 203.2183380126953
0, 3, 45, 207.2505187988281
0, 3, 46, 198.3573913574219
0, 3, 47, 196.7003936767578
0, 3, 48, 195.6922302246094
0, 3, 49, 180.3419647216797
0, 3, 50, 186.4404296875
0, 3, 51, 174.5687561035156
0, 3, 52, 187.1006011962891
0, 3, 53, 177.3162231445312
0, 3, 54, 178.7667846679688
0, 3, 55, 178.0753479003906
0, 3, 56, 182.5641174316406
0, 3, 57, 174.4139709472656
0, 3, 58, 200.2508087158203
0, 3, 59, 195.6884002685547
0, 3, 60, 186.2639465332031
0, 3, 61, 182.1252746582031
0, 3, 62, 182.804931640625
0, 3, 63, 183.8556213378906
0, 3, 64, 190.7297058105469
0, 3, 65, 188.0599517822266
0, 3, 66, 175.0399475097656
0, 3, 67, 190.3125152587891
0, 3, 68, 211.7926635742188
0, 3, 69, 188.9586639404297
0, 3, 70, 185.1394195556641
0, 3, 71, 196.4574737548828
0, 3, 72, 185.7596588134766
0, 3, 73, 186.0569763183594
0, 3, 74, 192.1742095947266
0, 3, 75, 193.2406768798828
0, 3, 76, 192.2795867919922
0, 3, 77, 198.0218353271484
0, 3, 78, 188.3898010253906
0, 3, 79, 185.8213348388672
0, 3, 80, 192.0351715087891
0, 3, 81, 184.600830078125
0, 3, 82, 180.2208099365234
0, 3, 83, 194.3851165771484
0, 3, 84, 198.9802093505859
0, 3, 85, 192.6973724365234
0, 3, 86, 203.6207427978516
0, 3, 87, 197.4931182861328
0, 3, 88, 191.2173004150391
0, 3, 89, 192.8892669677734
0, 3, 90, 173.6184539794922
0, 3, 91, 156.2352142333984
0, 3, 92, 206.3432769775391
0, 3, 93, 197.0689849853516
0, 3, 94, 191.5869903564453
0, 3, 95, 211.1016235351562
0, 3, 96, 207.8458099365234
0, 3, 97, 167.7148895263672
0, 3, 98, 166.8762512207031
0, 3, 99, 179.8564147949219
0, 3, 100, 178.2561340332031
0, 3, 101, 197.5361480712891
0, 3, 102, 195.0694580078125
0, 3, 103, 193.5715179443359
0, 3, 104, 203.1070404052734
0, 3, 105, 176.4609680175781
0, 3, 106, 182.0440063476562
0, 3, 107, 170.6817169189453
0, 3, 108, 108.7978210449219
0, 3, 109, 28.21288108825684
0, 3, 110, 8.383083343505859
0, 3, 111, 6.194597244262695
0, 3, 112, 2.684876680374146
0, 3, 113, 7.735827922821045
0, 3, 114, 4.73126745223999
0, 3, 115, 4.561211585998535
0, 3, 116, 5.177578449249268
0, 3, 117, 4.920665264129639
0, 3, 118, 2.060252666473389
0, 3, 119, 3.493288040161133
0, 3, 120, 3.67244029045105
0, 3, 121, 1.745969414710999
0, 3, 122, 3.714611291885376
0, 3, 123, 2.877032279968262
0, 3, 124, 1.883350610733032
0, 3, 125, 1.228483200073242
0, 3, 126, 1.561509966850281
0, 3, 127, 0.9626680612564087
0, 4, 0, 2.020444869995117
0, 4, 1, 0.4855543375015259
0, 4, 2, 2.858091592788696
0, 4, 3, 4.622414112091064
0, 4, 4, 1.752583503723145
0, 4, 5, 0.9885710477828979
0, 4, 6, 3.271588325500488
0, 4, 7, 4.395445823669434
0, 4, 8, 2.296192169189453
0, 4, 9, 2.470777034759521
0, 4, 10, 4.852301120758057
0, 4, 11, 4.080365180969238
0, 4, 12, 5.487688541412354
0, 4, 13, 4.216582298278809
0, 4, 14, 3.85691237449646
0, 4, 15, 8.306009292602539
0, 4, 16, 6.406605243682861
0, 4, 17, 11.53176116943359
0, 4, 18, 54.84566497802734
0, 4, 19, 150.2724151611328
0, 4, 20, 193.9157257080078
0, 4, 21, 170.2376556396484
0, 4, 22, 187.3634490966797
0, 4, 23, 196.0545959472656
0, 4, 24, 193.0819854736328
0, 4, 25, 200.1025543212891
0, 4, 26, 183.0885162353516
0, 4, 27, 192.4671478271484
0, 4, 28, 178.1555938720703
0, 4, 29, 205.1794281005859
0, 4, 30, 195.1096954345703
0, 4, 31, 192.6343231201172
0, 4, 32, 210.7173461914062
0, 4, 33, 192.7111511230469
0, 4, 34, 192.4398956298828
0, 4, 35, 211.8405456542969
0, 4, 36, 192.8069152832031
0, 4, 37, 176.9201507568359
0, 4, 38, 193.8588562011719
0, 4, 39, 189.8568572998047
0, 4, 40, 185.4958038330078
0, 4, 41, 189.0194244384766
0, 4, 42, 205.7350463867188
0, 4, 43, 173.7091217041016
0, 4, 44, 183.7636108398438
0, 4, 45, 195.7327117919922
0, 4, 46, 185.9766998291016
0, 4, 47, 180.1909942626953
0, 4, 48, 187.8840026855469
0, 4, 49, 175.3227844238281
0, 4, 50, 186.5043334960938
0, 4, 51, 196.8652191162109
0, 4, 52, 222.9760284423828
0, 4, 53, 207.1198577880859
0, 4, 54, 189.0589904785156
0, 4, 55, 174.5630798339844
0, 4, 56, 192.7500305175781
0, 4, 57, 191.0916290283203
0, 4, 58, 188.2694854736328
0, 4, 59, 190.318359375
0, 4, 60, 195.5138244628906
0, 4, 61, 193.5016479492188
0, 4, 62, 191.32080078125
0, 4, 63, 178.0941162109375
0, 4, 64, 211.8026733398438
0, 4, 65, 190.1873168945312
0, 4, 66, 201.19482421875
0, 4, 67, 199.7680969238281
0, 4, 68, 200.9378204345703
0, 4, 69, 198.8072662353516
0, 4, 70, 205.1199340820312
0, 4, 71, 206.4615325927734
0, 4, 72, 215.4191589355469
0, 4, 73, 186.3243865966797
0, 4, 74, 181.2717895507812
0, 4, 75, 184.8076171875
0, 4, 76, 189.7990417480469
0, 4, 77, 183.1669311523438
0, 4, 78, 195.0379180908203
0, 4, 79, 204.8190460205078
0, 4, 80, 213.7745361328125
0, 4, 81, 198.5731353759766
0, 4, 82, 183.1171722412109
0, 4, 83, 170.0861358642578
0, 4, 84, 193.0743713378906
0, 4, 85, 197.2416534423828
0, 4, 86, 180.76025390625
0, 4, 87, 183.9625091552734
0, 4, 88, 204.330322265625
0, 4, 89, 187.1199188232422
0, 4, 90, 211.5499267578125
0, 4, 91, 189.9571685791016
0, 4, 92, 196.7446746826172
0, 4, 93, 196.8852233886719
0, 4, 94, 182.29736328125
0, 4, 95, 173.8453979492188
0, 4, 96, 191.2524261474609
0, 4, 97, 192.3447265625
0, 4, 98, 202.5325927734375
0, 4, 99, 183.8264465332031
0, 4, 100, 183.018310546875
0, 4, 101, 177.4075622558594
0, 4, 102, 172.0543975830078
0, 4, 103, 185.4348602294922
0, 4, 104, 211.5433959960938
0, 4, 105, 189.7401580810547
0, 4, 106, 179.3272552490234
0, 4, 107, 181.2848510742188
0, 4, 108, 153.3314666748047
0, 4, 109, 50.69644165039062
0, 4, 110, 10.94028568267822
0, 4, 111, 8.946352005004883
0, 4, 112, 6.539133071899414
0, 4, 113, 5.278913974761963
0, 4, 114, 5.286274433135986
0, 4, 115, 3.502087593078613
0, 4, 116, 4.590670108795166
0, 4, 117, 3.342964887619019
0, 4, 118, 3.345229864120483
0, 4, 119, 4.217065334320068
0, 4, 120, 3.202523946762085
0, 4, 121, 2.324376106262207
0, 4, 122, 1.695223093032837
0, 4, 123, 2.09289026260376
0, 4, 124, 5.44464635848999
0, 4, 125, 3.454849243164062
0, 4, 126, 0.8248870372772217
0, 4, 127, 1.19726824760437
0, 5, 0, 1.490765333175659
0, 5, 1, 4.078073978424072
0, 5, 2, 7.135830402374268
0, 5, 3, 3.77048659324646
0, 5, 4, 2.656646490097046
0, 5, 5, 1.487179040908813
0, 5, 6, 2.014647722244263
0, 5, 7, 2.606028318405151
0, 5, 8, 2.195012092590332
0, 5, 9, 2.119165420532227
0, 5, 10, 3.102741479873657
0, 5, 11, 2.957864284515381
0, 5, 12, 5.294906139373779
0, 5, 13, 5.23756742477417
0, 5, 14, 5.068983554840088
0, 5, 15, 8.937341690063477
0, 5, 16, 7.279284000396729
0, 5, 17, 21.75178146362305
0, 5, 18, 82.59842681884766
0, 5, 19, 164.0651550292969
0, 5, 20, 182.986572265625
0, 5, 21, 179.1789855957031
0, 5, 22, 171.0279083251953
0, 5, 23, 200.5159912109375
0, 5, 24, 187.2678375244141
0, 5, 25, 207.7630157470703
0, 5, 26, 183.0966796875
0, 5, 27, 193.1378021240234
0, 5, 28, 188.7879333496094
0, 5, 29, 196.1441040039062
0, 5, 30, 178.1798248291016
0, 5, 31, 179.3096618652344
0, 5, 32, 186.0947418212891
0, 5, 33, 169.0472869873047
0, 5, 34, 194.9900512695312
0, 5, 35, 200.0321960449219
0, 5, 36, 167.2697906494141
0, 5, 37, 196.6440277099609
0, 5, 38, 182.4796752929688
0, 5, 39, 185.4130706787109
0, 5, 40, 197.4022674560547
0, 5, 41, 177.8126831054688
0, 5, 42, 187.7731781005859
0, 5, 43, 193.7293853759766
0, 5, 44, 199.4305877685547
0, 5, 45, 185.9328308105469
0, 5, 46, 193.1711883544922
0, 5, 47, 179.8658752441406
0, 5, 48, 180.1851959228516
0, 5, 49, 177.7386016845703
0, 5, 50, 186.8368988037109
0, 5, 51, 172.0416717529297
0, 5, 52, 167.5396118164062
0, 5, 53, 181.5138549804688
0, 5, 54, 172.4092712402344
0, 5, 55, 215.6340942382812
0, 5, 56, 181.3736267089844
0, 5, 57, 206.4156341552734
0, 5, 58, 181.0671081542969
0, 5, 59, 180.09521484375
0, 5, 60, 218.1763610839844
0, 5, 61, 184.5483245849609
0, 5, 62, 178.6970825195312
0, 5, 63, 180.0822601318359
0, 5, 64, 196.4501647949219
0, 5, 65, 210.6976470947266
0, 5, 66, 191.2166442871094
0, 5, 67, 199.0960083007812
0, 5, 68, 186.9342346191406
0, 5, 69, 186.1048583984375
0, 5, 70, 185.3394317626953
0, 5, 71, 193.5416107177734
0, 5, 72, 198.5872650146484
0, 5, 73, 201.0227203369141
0, 5, 74, 181.3863983154297
0, 5, 75, 203.9795989990234
0, 5, 76, 216.6207580566406
0, 5, 77, 181.7452392578125
0, 5, 78, 194.2457122802734
0, 5, 79, 190.2959747314453
0, 5, 80, 199.2456359863281
0, 5, 81, 203.4172058105469
0, 5, 82, 200.9753875732422
0, 5, 83, 188.2701721191406
0, 5, 84, 205.4566650390625
0, 5, 85, 177.6958312988281
0, 5, 86, 195.3328247070312
0, 5, 87, 188.7446441650391
0, 5, 88, 177.4598693847656
0, 5, 89, 194.1776275634766
0, 5, 90, 199.047119140625
0, 5, 91, 193.7259216308594
0, 5, 92, 190.5954742431641
0, 5, 93, 191.0880584716797
0, 5, 94, 208.0611572265625
0, 5, 95, 176.1334533691406
0, 5, 96, 181.99609375
0, 5, 97, 192.9343414306641
0, 5, 98, 188.4975433349609
0, 5, 99, 194.3084411621094
0, 5, 100, 185.1508941650391
0, 5, 101, 196.7515716552734
0, 5, 102, 180.9433441162109
0, 5, 103, 177.0147094726562
0, 5, 104, 189.7333984375
0, 5, 105, 189.4419097900391
0, 5, 106, 177.1390228271484
0, 5, 107, 182.0308074951172
0, 5, 108, 174.8610382080078
0, 5, 109, 88.6968994140625
0, 5, 110, 29.97729110717773
0, 5, 111, 9.375967979431152
0, 5, 112, 6.625735282897949
0, 5, 113, 7.99805212020874
0, 5, 114, 6.550554275512695
0, 5, 115, 7.903723239898682
0, 5, 116, 6.949785232543945
0, 5, 117, 2.384676933288574
0, 5, 118, 3.26592230796814
0, 5, 119, 3.197452783584595
0, 5, 120, 1.427026510238647
0, 5, 121, 1.81697940826416
0, 5, 122, 2.641438961029053
0, 5, 123, 3.515114545822144
0, 5, 124, 4.018207550048828
0, 5, 125, 1.968678832054138
0, 5, 126, 3.107789278030396
0, 5, 127, 2.696398258209229
0, 6, 0, 4.577573776245117
0, 6, 1, 2.854629278182983
0, 6, 2, 4.054732322692871
0, 6, 3, 2.724578619003296
0, 6, 4, 2.798231363296509
0, 6, 5, 5.395017147064209
0, 6, 6, 2.725038528442383
0, 6, 7, 3.701361417770386
0, 6, 8, 3.449999570846558
0, 6, 9, 3.550133466720581
0, 6, 10, 4.919798374176025
0, 6, 11, 5.261014461517334
0, 6, 12, 5.032740116119385
0, 6, 13, 4.998471736907959
0, 6, 14, 6.06157398223877
0, 6, 15, 6.314413070678711
0, 6, 16, 12.47427940368652
0, 6, 17, 28.02395057678223
0, 6, 18, 112.1519393920898
0, 6, 19, 190.9810028076172
0, 6, 20, 196.0270385742188
0, 6, 21, 199.0147705078125
0, 6, 22, 191.0632781982422
0, 6, 23, 190.5166778564453
0, 6, 24, 200.7836303710938
0, 6, 25, 181.9788818359375
0, 6, 26, 188.6884765625
0, 6, 27, 191.8984680175781
0, 6, 28, 188.696044921875
0, 6, 29, 211.51513671875
0, 6, 30, 191.3414611816406
0, 6, 31, 194.1485443115234
0, 6, 32, 207.7883605957031
0, 6, 33, 183.3247528076172
0, 6, 34, 196.4594573974609
0, 6, 35, 187.2454986572266
0, 6, 36, 180.1407165527344
0, 6, 37, 185.5433959960938
0, 6, 38, 185.7544250488281
0, 6, 39, 194.9121246337891
0, 6, 40, 174.0005187988281
0, 6, 41, 185.9598693847656
0, 6, 42, 174.0091705322266
0, 6, 43, 209.4790802001953
0, 6, 44, 209.0083465576172
0, 6, 45, 194.2653961181641
0, 6, 46, 188.3155822753906
0, 6, 47, 203.8300628662109
0, 6, 48, 190.2298431396484
0, 6, 49, 179.7794494628906
0, 6, 50, 183.0597686767578
0, 6, 51, 197.8808288574219
0, 6, 52, 198.9327087402344
0, 6, 53, 185.0538177490234
0, 6, 54, 176.2580413818359
0, 6, 55, 194.3673858642578
0, 6, 56, 202.0846557617188
0, 6, 57, 191.788330078125
0, 6, 58, 177.6970672607422
0, 6, 59, 191.7934112548828
0, 6, 60, 183.8159484863281
0, 6, 61, 193.9020538330078
0, 6, 62, 196.0443267822266
0, 6, 63, 186.7010498046875
0, 6, 64, 170.0115966796875
0, 6, 65, 185.3405151367188
0, 6, 66, 197.3201293945312
0, 6, 67, 214.3511505126953
0, 6, 68, 180.9478149414062
0, 6, 69, 171.5611419677734
0, 6, 70, 187.9200134277344
0, 6, 71, 170.4668121337891
0, 6, 72, 177.2742156982422
0, 6, 73, 176.8002014160156
0, 6, 74, 211.4817657470703
0, 6, 75, 227.1047515869141
0, 6, 76, 183.7105712890625
0, 6, 77, 172.1277465820312
0, 6, 78, 175.8516998291016
0, 6, 79, 187.1745147705078
0, 6, 80, 187.4462585449219
0, 6, 81, 208.3442687988281
0, 6, 82, 198.6563873291016
0, 6, 83, 194.8743591308594
0, 6, 84, 196.9150695800781
0, 6, 85, 183.1770935058594
0, 6, 86, 202.0121307373047
0, 6, 87, 182.5433654785156
0, 6, 88, 192.2527770996094
0, 6, 89, 189.5946350097656
0, 6, 90, 206.4245147705078
0, 6, 91, 200.5268707275391
0, 6, 92, 172.8582916259766
0, 6, 93, 194.9392852783203
0, 6, 94, 190.9354705810547
0, 6, 95, 185.5917358398438
0, 6, 96, 189.0457611083984
0, 6, 97, 194.0717315673828
0, 6, 98, 182.7372131347656
0, 6, 99, 176.0793304443359
0, 6, 100, 201.9592895507812
0, 6, 101, 169.8699951171875
0, 6, 102, 202.1264801025391
0, 6, 103, 197.2774200439453
0, 6, 104, 183.310546875
0, 6, 105, 193.6046905517578
0, 6, 106, 177.4443054199219
0, 6, 107, 194.3358154296875
0, 6, 108, 171.5643310546875
0, 6, 109, 115.9439544677734
0, 6, 110, 34.29678726196289
0, 6, 111, 8.982998847961426
0, 6, 112, 8.749532699584961
0, 6, 113, 5.253913402557373
0, 6, 114, 5.578413963317871
0, 6, 115, 6.542208671569824
0, 6, 116, 4.81939172744751
0, 6, 117, 3.032942771911621
0, 6, 118, 3.276613235473633
0, 6, 119, 4.13850736618042
0, 6, 120, 2.291178941726685
0, 6, 121, 4.311317920684814
0, 6, 122, 3.923174858093262
0, 6, 123, 2.099281072616577
0, 6, 124, 1.462145924568176
0, 6, 125, 2.009850740432739
0, 6, 126, 2.447710752487183
0, 6, 127, 1.887871026992798
0, 7, 0, 3.241918563842773
0, 7, 1, 4.097487926483154
0, 7, 2, 2.817461490631104
0, 7, 3, 1.904505729675293
0, 7, 4, 1.190710186958313
0, 7, 5, 1.201107978820801
0, 7, 6, 1.724980711936951
0, 7, 7, 2.550617456436157
0, 7, 8, 2.543000936508179
0, 7, 9, 3.12837028503418
0, 7, 10, 5.445005416870117
0, 7, 11, 3.198822975158691
0, 7, 12, 5.008565425872803
0, 7, 13, 5.977474689483643
0, 7, 14, 6.35860013961792
0, 7, 15, 7.528597354888916
0, 7, 16, 16.64268684387207
0, 7, 17, 51.54122161865234
0, 7, 18, 163.3642120361328
0, 7, 19, 181.1457672119141
0, 7, 20, 178.6871185302734
0, 7, 21, 179.3871002197266
0, 7, 22, 192.0666351318359
0, 7, 23, 202.4844055175781
0, 7, 24, 180.3693695068359
0, 7, 25, 212.2998809814453
0, 7, 26, 190.7165374755859
0, 7, 27, 183.9615783691406
0, 7, 28, 182.8994140625
0, 7, 29, 208.8764495849609
0, 7, 30, 192.9910278320312
0, 7, 31, 176.810546875
0, 7, 32, 191.0700225830078
0, 7, 33, 181.8466796875
0, 7, 34, 193.7351989746094
0, 7, 35, 197.6759033203125
0, 7, 36, 186.4517669677734
0, 7, 37, 212.7032623291016
0, 7, 38, 191.3357086181641
0, 7, 39, 173.4972534179688
0, 7, 40, 183.1022644042969
0, 7, 41, 185.1554565429688
0, 7, 42, 177.4367218017578
0, 7, 43, 177.4973754882812
0, 7, 44, 179.3656158447266
0, 7, 45, 175.8970642089844
0, 7, 46, 187.5904693603516
0, 7, 47, 197.9592895507812
0, 7, 48, 184.7477416992188
0, 7, 49, 200.7860412597656
0, 7, 50, 188.9901733398438
0, 7, 51, 206.3375396728516
0, 7, 52, 204.7928771972656
0, 7, 53, 191.98095703125
0, 7, 54, 196.1798095703125
0, 7, 55, 204.6518096923828
0, 7, 56, 183.4258575439453
0, 7, 57, 183.6282501220703
0, 7, 58, 194.4294128417969
0, 7, 59, 186.6759490966797
0, 7, 60, 202.4927520751953
0, 7, 61, 171.7969360351562
0, 7, 62, 203.0091094970703
0, 7, 63, 188.9739074707031
0, 7, 64, 199.0820770263672
0, 7, 65, 197.3668518066406
0, 7, 66, 205.3998413085938
0, 7, 67, 221.4317169189453
0, 7, 68, 162.9355621337891
0, 7, 69, 194.5184173583984
0, 7, 70, 216.8294067382812
0, 7, 71, 184.6299285888672
0, 7, 72, 181.8758850097656
0, 7, 73, 176.6657104492188
0, 7, 74, 207.7144470214844
0, 7, 75, 204.3242797851562
0, 7, 76, 214.5706939697266
0, 7, 77, 174.6367797851562
0, 7, 78, 177.8856048583984
0, 7, 79, 193.5812225341797
0, 7, 80, 197.2471771240234
0, 7, 81, 214.5481567382812
0, 7, 82, 183.9900054931641
0, 7, 83, 205.3675994873047
0, 7, 84, 194.3645477294922
0, 7, 85, 186.9132843017578
0, 7, 86, 200.5257110595703
0, 7, 87, 226.8297119140625
0, 7, 88, 195.6081237792969
0, 7, 89, 175.9763336181641
0, 7, 90, 182.3057403564453
0, 7, 91, 194.4975433349609
0, 7, 92, 192.9339752197266
0, 7, 93, 198.450927734375
0, 7, 94, 178.5469818115234
0, 7, 95, 198.5320739746094
0, 7, 96, 208.4649200439453
0, 7, 97, 188.0444183349609
0, 7, 98, 176.4344329833984
0, 7, 99, 196.8143310546875
0, 7, 100, 182.3469848632812
0, 7, 101, 199.5617523193359
0, 7, 102, 184.8016052246094
0, 7, 103, 180.665771484375
0, 7, 104, 174.6004943847656
0, 7, 105, 194.9481353759766
0, 7, 106, 205.1513519287109
0, 7, 107, 174.2646179199219
0, 7, 108, 176.5171813964844
0, 7, 109, 136.5380249023438
0, 7, 110, 54.16220855712891
0, 7, 111, 8.810107231140137
0, 7, 112, 8.017007827758789
0, 7, 113, 8.44846248626709
0, 7, 114, 6.559114933013916
0, 7, 115, 4.61246395111084
0, 7, 116, 4.751523971557617
0, 7, 117, 3.750432252883911
0, 7, 118, 3.242685317993164
0, 7, 119, 4.324011325836182
0, 7, 120, 2.734421253204346
0, 7, 121, 1.915705442428589
0, 7, 122, 3.2251296043396
0, 7, 123, 1.668270587921143
0, 7, 124, 1.129535794258118
0, 7, 125, 2.108568668365479
0, 7, 126, 2.147511720657349
0, 7, 127, 0.8608900308609009
0, 8, 0, 4.915824413299561
0, 8, 1, 3.17889928817749
0, 8, 2, 2.537115573883057
0, 8, 3, 1.764946699142456
0, 8, 4, 1.794215202331543
0, 8, 5, 3.237586259841919
0, 8, 6, 2.848124504089355
0, 8, 7, 2.654195308685303
0, 8, 8, 2.858502864837646
0, 8, 9, 4.541725158691406
0, 8, 10, 2.118353843688965
0, 8, 11, 3.034805774688721
0, 8, 12, 3.684870958328247
0, 8, 13, 5.050952434539795
0, 8, 14, 5.817384243011475
0, 8, 15, 8.134657859802246
0, 8, 16, 21.07709503173828
0, 8, 17, 76.22663879394531
0, 8, 18, 144.9923553466797
0, 8, 19, 178.0180511474609
0, 8, 20, 190.5772552490234
0, 8, 21, 193.3324737548828
0, 8, 22, 179.6225738525391
0, 8, 23, 172.9296875
0, 8, 24, 192.4047698974609
0, 8, 25, 184.4505615234375
0, 8, 26, 192.5368041992188
0, 8, 27, 188.1335296630859
0, 8, 28, 188.9042663574219
0, 8, 29, 208.9323577880859
0, 8, 30, 197.5533294677734
0, 8, 31, 183.6072998046875
0, 8, 32, 197.6121673583984
0, 8, 33, 207.7187805175781
0, 8, 34, 203.1262817382812
0, 8, 35, 184.1277618408203
0, 8, 36, 182.0068359375
0, 8, 37, 199.4177551269531
