# TOPAS Version: 3.1.p3
# Parameter File: batch_inserts_266.txt
# Results for scorer Readout_Adipose
# Scored in component: MyBox
# X in 1 bin  of 0.65 cm
# Y in 512 bins of 0.0783984 cm
# Z in 128 bins of 0.078125 cm
# EnergyDeposit ( MeV ) : Sum   
0, 0, 0, 1.385131001472473
0, 0, 1, 3.791168451309204
0, 0, 2, 1.174661159515381
0, 0, 3, 1.266428470611572
0, 0, 4, 1.347222208976746
0, 0, 5, 0.8090386390686035
0, 0, 6, 1.317216277122498
0, 0, 7, 1.685435652732849
0, 0, 8, 1.864576101303101
0, 0, 9, 3.271506071090698
0, 0, 10, 2.885997772216797
0, 0, 11, 3.722397804260254
0, 0, 12, 4.506858348846436
0, 0, 13, 2.145647048950195
0, 0, 14, 5.322814464569092
0, 0, 15, 6.068885803222656
0, 0, 16, 5.01423978805542
0, 0, 17, 7.009920120239258
0, 0, 18, 7.496974945068359
0, 0, 19, 24.33701515197754
0, 0, 20, 93.56709289550781
0, 0, 21, 154.3414764404297
0, 0, 22, 155.2281951904297
0, 0, 23, 146.0419921875
0, 0, 24, 160.1728515625
0, 0, 25, 166.7579956054688
0, 0, 26, 166.8904266357422
0, 0, 27, 174.6487426757812
0, 0, 28, 177.4942779541016
0, 0, 29, 174.6117553710938
0, 0, 30, 174.2778625488281
0, 0, 31, 166.9605560302734
0, 0, 32, 164.5545501708984
0, 0, 33, 167.2779846191406
0, 0, 34, 177.6900024414062
0, 0, 35, 175.3501739501953
0, 0, 36, 159.3106842041016
0, 0, 37, 160.7593841552734
0, 0, 38, 166.2852783203125
0, 0, 39, 159.411865234375
0, 0, 40, 165.0359649658203
0, 0, 41, 165.9216003417969
0, 0, 42, 144.1054992675781
0, 0, 43, 168.2232513427734
0, 0, 44, 177.1203308105469
0, 0, 45, 173.2121124267578
0, 0, 46, 166.0467681884766
0, 0, 47, 167.7552032470703
0, 0, 48, 170.0396728515625
0, 0, 49, 182.7239990234375
0, 0, 50, 169.6604461669922
0, 0, 51, 161.1896514892578
0, 0, 52, 161.6951751708984
0, 0, 53, 171.2132110595703
0, 0, 54, 160.3289337158203
0, 0, 55, 164.64501953125
0, 0, 56, 189.0602569580078
0, 0, 57, 170.0132904052734
0, 0, 58, 162.5921630859375
0, 0, 59, 172.1848907470703
0, 0, 60, 169.7071838378906
0, 0, 61, 169.2818756103516
0, 0, 62, 182.5164337158203
0, 0, 63, 167.5172271728516
0, 0, 64, 164.1442413330078
0, 0, 65, 175.0395202636719
0, 0, 66, 178.3650360107422
0, 0, 67, 163.5665740966797
0, 0, 68, 158.3067169189453
0, 0, 69, 158.2346038818359
0, 0, 70, 169.7832183837891
0, 0, 71, 159.0067443847656
0, 0, 72, 162.47509765625
0, 0, 73, 171.0748901367188
0, 0, 74, 163.8791046142578
0, 0, 75, 164.1236419677734
0, 0, 76, 162.7897644042969
0, 0, 77, 171.7791900634766
0, 0, 78, 182.0428009033203
0, 0, 79, 174.4405517578125
0, 0, 80, 159.2051696777344
0, 0, 81, 161.2792510986328
0, 0, 82, 182.2370147705078
0, 0, 83, 175.2945404052734
0, 0, 84, 158.9626312255859
0, 0, 85, 182.0834808349609
0, 0, 86, 159.2192840576172
0, 0, 87, 176.5617065429688
0, 0, 88, 176.6817779541016
0, 0, 89, 176.4666900634766
0, 0, 90, 163.1893768310547
0, 0, 91, 184.9192199707031
0, 0, 92, 164.0432739257812
0, 0, 93, 156.7810821533203
0, 0, 94, 168.9486999511719
0, 0, 95, 174.9219360351562
0, 0, 96, 183.9533538818359
0, 0, 97, 183.7457427978516
0, 0, 98, 186.2510986328125
0, 0, 99, 171.2312774658203
0, 0, 100, 158.9026489257812
0, 0, 101, 166.2064666748047
0, 0, 102, 169.8621826171875
0, 0, 103, 170.8663024902344
0, 0, 104, 169.1317291259766
0, 0, 105, 178.9214324951172
0, 0, 106, 159.0828247070312
0, 0, 107, 85.88436126708984
0, 0, 108, 21.64237976074219
0, 0, 109, 8.97043514251709
0, 0, 110, 6.281490325927734
0, 0, 111, 6.93282413482666
0, 0, 112, 3.764391183853149
0, 0, 113, 2.710371255874634
0, 0, 114, 2.88235068321228
0, 0, 115, 2.100318431854248
0, 0, 116, 1.602680087089539
0, 0, 117, 2.937327146530151
0, 0, 118, 2.329154968261719
0, 0, 119, 3.516657114028931
0, 0, 120, 1.640443682670593
0, 0, 121, 4.169168949127197
0, 0, 122, 3.809573411941528
0, 0, 123, 3.434579610824585
0, 0, 124, 1.30263888835907
0, 0, 125, 3.005071640014648
0, 0, 126, 0.5364484190940857
0, 0, 127, 2.244101285934448
0, 1, 0, 0.923417329788208
0, 1, 1, 3.025302886962891
0, 1, 2, 2.036772489547729
0, 1, 3, 2.116814613342285
0, 1, 4, 3.740322351455688
0, 1, 5, 2.623614311218262
0, 1, 6, 1.946411609649658
0, 1, 7, 2.166322469711304
0, 1, 8, 1.236518979072571
0, 1, 9, 1.725059390068054
0, 1, 10, 3.344073295593262
0, 1, 11, 3.65646767616272
0, 1, 12, 3.002355098724365
0, 1, 13, 5.071728706359863
0, 1, 14, 5.621248245239258
0, 1, 15, 6.338532447814941
0, 1, 16, 6.763280391693115
0, 1, 17, 6.784311294555664
0, 1, 18, 11.79063129425049
0, 1, 19, 39.88727569580078
0, 1, 20, 126.4671173095703
0, 1, 21, 177.8910217285156
0, 1, 22, 192.2156219482422
0, 1, 23, 186.0155029296875
0, 1, 24, 179.5694732666016
0, 1, 25, 193.467041015625
0, 1, 26, 197.7082061767578
0, 1, 27, 186.7247619628906
0, 1, 28, 188.2112426757812
0, 1, 29, 183.3399963378906
0, 1, 30, 179.4192810058594
0, 1, 31, 182.0805511474609
0, 1, 32, 188.5778045654297
0, 1, 33, 190.4331207275391
0, 1, 34, 184.9488220214844
0, 1, 35, 193.6231689453125
0, 1, 36, 205.4645690917969
0, 1, 37, 185.0961608886719
0, 1, 38, 164.2797546386719
0, 1, 39, 171.1615142822266
0, 1, 40, 179.7010345458984
0, 1, 41, 185.0323944091797
0, 1, 42, 183.1886596679688
0, 1, 43, 186.1099243164062
0, 1, 44, 168.6945343017578
0, 1, 45, 187.9433288574219
0, 1, 46, 171.3560791015625
0, 1, 47, 184.9202728271484
0, 1, 48, 186.3025665283203
0, 1, 49, 185.8855438232422
0, 1, 50, 177.5868682861328
0, 1, 51, 191.7464447021484
0, 1, 52, 194.7585144042969
0, 1, 53, 196.0175476074219
0, 1, 54, 184.8384246826172
0, 1, 55, 165.4326477050781
0, 1, 56, 178.4935455322266
0, 1, 57, 180.4830474853516
0, 1, 58, 188.7866821289062
0, 1, 59, 193.5735015869141
0, 1, 60, 188.3889923095703
0, 1, 61, 178.1717529296875
0, 1, 62, 205.8154296875
0, 1, 63, 173.927978515625
0, 1, 64, 172.2648773193359
0, 1, 65, 186.5386810302734
0, 1, 66, 203.8901824951172
0, 1, 67, 183.3128662109375
0, 1, 68, 186.8125152587891
0, 1, 69, 189.0686645507812
0, 1, 70, 185.6356811523438
0, 1, 71, 172.2893829345703
0, 1, 72, 187.8699951171875
0, 1, 73, 190.1661224365234
0, 1, 74, 201.0969848632812
0, 1, 75, 183.7316131591797
0, 1, 76, 173.6588439941406
0, 1, 77, 191.9979248046875
0, 1, 78, 189.8710479736328
0, 1, 79, 202.9639282226562
0, 1, 80, 186.0590515136719
0, 1, 81, 174.22705078125
0, 1, 82, 206.4028930664062
0, 1, 83, 212.7533111572266
0, 1, 84, 180.1985473632812
0, 1, 85, 170.5232696533203
0, 1, 86, 167.9055786132812
0, 1, 87, 184.7197875976562
0, 1, 88, 176.5517425537109
0, 1, 89, 186.6979217529297
0, 1, 90, 214.318603515625
0, 1, 91, 182.5384674072266
0, 1, 92, 184.1214752197266
0, 1, 93, 180.6870727539062
0, 1, 94, 185.2691192626953
0, 1, 95, 182.9735107421875
0, 1, 96, 196.0369262695312
0, 1, 97, 182.7111511230469
0, 1, 98, 186.3266296386719
0, 1, 99, 175.5567474365234
0, 1, 100, 171.1544647216797
0, 1, 101, 177.7213745117188
0, 1, 102, 182.7771301269531
0, 1, 103, 174.2902221679688
0, 1, 104, 188.3072357177734
0, 1, 105, 182.2158355712891
0, 1, 106, 164.7279205322266
0, 1, 107, 121.7810211181641
0, 1, 108, 48.24393081665039
0, 1, 109, 9.527973175048828
0, 1, 110, 9.488929748535156
0, 1, 111, 7.476000308990479
0, 1, 112, 7.215427875518799
0, 1, 113, 8.252042770385742
0, 1, 114, 4.40774393081665
0, 1, 115, 3.958579778671265
0, 1, 116, 2.114503145217896
0, 1, 117, 2.497822523117065
0, 1, 118, 4.009196281433105
0, 1, 119, 1.014351844787598
0, 1, 120, 4.308780193328857
0, 1, 121, 3.180532455444336
0, 1, 122, 1.468814134597778
0, 1, 123, 3.485842704772949
0, 1, 124, 2.497846364974976
0, 1, 125, 1.780900478363037
0, 1, 126, 1.535066843032837
0, 1, 127, 1.900748610496521
0, 2, 0, 0.812305748462677
0, 2, 1, 3.507394075393677
0, 2, 2, 4.657821178436279
0, 2, 3, 2.108171939849854
0, 2, 4, 1.401562690734863
0, 2, 5, 1.343229055404663
0, 2, 6, 2.182523012161255
0, 2, 7, 2.258170604705811
0, 2, 8, 1.327479362487793
0, 2, 9, 1.550866484642029
0, 2, 10, 4.009104251861572
0, 2, 11, 3.765558004379272
0, 2, 12, 3.791879177093506
0, 2, 13, 2.926931619644165
0, 2, 14, 4.852537155151367
0, 2, 15, 5.026145935058594
0, 2, 16, 6.857883930206299
0, 2, 17, 9.720491409301758
0, 2, 18, 14.49123859405518
0, 2, 19, 77.05908966064453
0, 2, 20, 159.985595703125
0, 2, 21, 184.4214172363281
0, 2, 22, 194.2116546630859
0, 2, 23, 183.931396484375
0, 2, 24, 173.4349212646484
0, 2, 25, 183.4693603515625
0, 2, 26, 178.8611755371094
0, 2, 27, 188.2048187255859
0, 2, 28, 170.5023193359375
0, 2, 29, 169.1759948730469
0, 2, 30, 186.7077941894531
0, 2, 31, 182.5687408447266
0, 2, 32, 184.4122619628906
0, 2, 33, 189.9494781494141
0, 2, 34, 197.3656616210938
0, 2, 35, 181.4129943847656
0, 2, 36, 186.2333526611328
0, 2, 37, 180.4942779541016
0, 2, 38, 184.1838989257812
0, 2, 39, 166.7736968994141
0, 2, 40, 183.3748321533203
0, 2, 41, 183.8041229248047
0, 2, 42, 190.4302520751953
0, 2, 43, 193.9036560058594
0, 2, 44, 190.7367095947266
0, 2, 45, 190.3014984130859
0, 2, 46, 196.0120697021484
0, 2, 47, 189.3896026611328
0, 2, 48, 177.9639739990234
0, 2, 49, 198.4981536865234
0, 2, 50, 167.5562896728516
0, 2, 51, 184.5775146484375
0, 2, 52, 186.283203125
0, 2, 53, 196.4865417480469
0, 2, 54, 175.3279724121094
0, 2, 55, 174.012939453125
0, 2, 56, 181.0077209472656
0, 2, 57, 199.9957580566406
0, 2, 58, 187.1788024902344
0, 2, 59, 190.4402465820312
0, 2, 60, 198.8180084228516
0, 2, 61, 194.1115875244141
0, 2, 62, 189.6896362304688
0, 2, 63, 171.3317108154297
0, 2, 64, 189.0104675292969
0, 2, 65, 202.5111694335938
0, 2, 66, 196.0970306396484
0, 2, 67, 184.8109283447266
0, 2, 68, 182.2538452148438
0, 2, 69, 187.2886810302734
0, 2, 70, 203.8016052246094
0, 2, 71, 174.9694061279297
0, 2, 72, 186.4395141601562
0, 2, 73, 177.5098724365234
0, 2, 74, 181.1824493408203
0, 2, 75, 197.07275390625
0, 2, 76, 183.4641418457031
0, 2, 77, 178.5775451660156
0, 2, 78, 199.5679779052734
0, 2, 79, 178.2601623535156
0, 2, 80, 188.2122497558594
0, 2, 81, 187.9355773925781
0, 2, 82, 205.58740234375
0, 2, 83, 206.6437377929688
0, 2, 84, 188.6394348144531
0, 2, 85, 171.3121185302734
0, 2, 86, 194.8105316162109
0, 2, 87, 172.3653717041016
0, 2, 88, 177.2898712158203
0, 2, 89, 185.4318084716797
0, 2, 90, 178.1819458007812
0, 2, 91, 175.1389617919922
0, 2, 92, 196.4093170166016
0, 2, 93, 193.607421875
0, 2, 94, 201.0265197753906
0, 2, 95, 196.2487945556641
0, 2, 96, 186.4045715332031
0, 2, 97, 172.1303558349609
0, 2, 98, 173.6764373779297
0, 2, 99, 162.5144958496094
0, 2, 100, 187.6181793212891
0, 2, 101, 198.45751953125
0, 2, 102, 176.7980804443359
0, 2, 103, 199.2616119384766
0, 2, 104, 187.7403564453125
0, 2, 105, 201.2649841308594
0, 2, 106, 194.7757263183594
0, 2, 107, 150.5283813476562
0, 2, 108, 81.39923858642578
0, 2, 109, 17.63064765930176
0, 2, 110, 7.318115234375
0, 2, 111, 5.392674922943115
0, 2, 112, 4.027750015258789
0, 2, 113, 4.423238754272461
0, 2, 114, 6.660064220428467
0, 2, 115, 5.100896835327148
0, 2, 116, 2.174890756607056
0, 2, 117, 1.598673939704895
0, 2, 118, 1.855918407440186
0, 2, 119, 2.533164739608765
0, 2, 120, 1.116398930549622
0, 2, 121, 3.15064525604248
0, 2, 122, 1.696723461151123
0, 2, 123, 3.945086717605591
0, 2, 124, 2.371574640274048
0, 2, 125, 1.90730893611908
0, 2, 126, 3.394895792007446
0, 2, 127, 0.9636576175689697
0, 3, 0, 1.82668125629425
0, 3, 1, 1.062166929244995
0, 3, 2, 1.203908443450928
0, 3, 3, 1.148637533187866
0, 3, 4, 3.68169116973877
0, 3, 5, 1.038482308387756
0, 3, 6, 1.111469030380249
0, 3, 7, 1.391720056533813
0, 3, 8, 1.66211473941803
0, 3, 9, 2.659787654876709
0, 3, 10, 2.230210304260254
0, 3, 11, 3.449855804443359
0, 3, 12, 3.551709413528442
0, 3, 13, 4.36363697052002
0, 3, 14, 3.764250993728638
0, 3, 15, 7.670303344726562
0, 3, 16, 9.708633422851562
0, 3, 17, 6.045230865478516
0, 3, 18, 33.03073501586914
0, 3, 19, 115.2159881591797
0, 3, 20, 179.8450012207031
0, 3, 21, 173.9221954345703
0, 3, 22, 177.8188781738281
0, 3, 23, 187.5677642822266
0, 3, 24, 177.5051879882812
0, 3, 25, 168.9641418457031
0, 3, 26, 180.5585479736328
0, 3, 27, 190.9105682373047
0, 3, 28, 183.03857421875
0, 3, 29, 197.4958038330078
0, 3, 30, 185.5300750732422
0, 3, 31, 194.7529907226562
0, 3, 32, 205.5021514892578
0, 3, 33, 195.9624633789062
0, 3, 34, 188.7790374755859
0, 3, 35, 175.7006530761719
0, 3, 36, 185.4369201660156
0, 3, 37, 200.5301055908203
0, 3, 38, 190.6333160400391
0, 3, 39, 184.7141723632812
0, 3, 40, 166.2565612792969
0, 3, 41, 173.1912994384766
0, 3, 42, 184.8547515869141
0, 3, 43, 182.4432067871094
0, 3, 44, 202.4223937988281
0, 3, 45, 207.8677978515625
0, 3, 46, 198.6698608398438
0, 3, 47, 193.8913116455078
0, 3, 48, 195.3184509277344
0, 3, 49, 180.2625427246094
0, 3, 50, 186.9954071044922
0, 3, 51, 176.0921325683594
0, 3, 52, 187.6764984130859
0, 3, 53, 178.1759033203125
0, 3, 54, 180.1550903320312
0, 3, 55, 176.8167266845703
0, 3, 56, 183.4156188964844
0, 3, 57, 175.6449432373047
0, 3, 58, 201.6193084716797
0, 3, 59, 196.0329284667969
0, 3, 60, 186.8701324462891
0, 3, 61, 181.6167144775391
0, 3, 62, 182.6666412353516
0, 3, 63, 186.7251892089844
0, 3, 64, 190.9842681884766
0, 3, 65, 187.7291259765625
0, 3, 66, 175.3243255615234
0, 3, 67, 190.2250823974609
0, 3, 68, 212.0118408203125
0, 3, 69, 189.6110076904297
0, 3, 70, 184.7533416748047
0, 3, 71, 197.5263519287109
0, 3, 72, 186.2223358154297
0, 3, 73, 186.33544921875
0, 3, 74, 191.7237854003906
0, 3, 75, 192.6412963867188
0, 3, 76, 190.2834625244141
0, 3, 77, 197.3885498046875
0, 3, 78, 188.8611297607422
0, 3, 79, 186.1462554931641
0, 3, 80, 189.0740661621094
0, 3, 81, 185.1613311767578
0, 3, 82, 179.6899871826172
0, 3, 83, 195.7204895019531
0, 3, 84, 199.2393188476562
0, 3, 85, 191.9916076660156
0, 3, 86, 204.66650390625
0, 3, 87, 198.0450744628906
0, 3, 88, 193.7683258056641
0, 3, 89, 195.7787170410156
0, 3, 90, 173.7700500488281
0, 3, 91, 158.2263946533203
0, 3, 92, 206.9809417724609
0, 3, 93, 195.2058868408203
0, 3, 94, 192.5485687255859
0, 3, 95, 210.9833374023438
0, 3, 96, 210.6538848876953
0, 3, 97, 167.4358062744141
0, 3, 98, 166.6972198486328
0, 3, 99, 179.6411285400391
0, 3, 100, 176.5993499755859
0, 3, 101, 197.3775329589844
0, 3, 102, 194.2616729736328
0, 3, 103, 194.1516265869141
0, 3, 104, 202.1743621826172
0, 3, 105, 174.9447631835938
0, 3, 106, 181.4375762939453
0, 3, 107, 169.269287109375
0, 3, 108, 108.1244888305664
0, 3, 109, 27.97315216064453
0, 3, 110, 8.105864524841309
0, 3, 111, 7.034950733184814
0, 3, 112, 5.889376163482666
0, 3, 113, 6.39015007019043
0, 3, 114, 5.73847770690918
0, 3, 115, 5.596702575683594
0, 3, 116, 5.731463432312012
0, 3, 117, 3.872541666030884
0, 3, 118, 2.203056335449219
0, 3, 119, 2.438322067260742
0, 3, 120, 3.485410451889038
0, 3, 121, 2.60764479637146
0, 3, 122, 4.576900005340576
0, 3, 123, 1.189798712730408
0, 3, 124, 1.661891579627991
0, 3, 125, 1.120151042938232
0, 3, 126, 2.022461652755737
0, 3, 127, 0.9330868124961853
0, 4, 0, 1.00901460647583
0, 4, 1, 0.2653952836990356
0, 4, 2, 2.094952344894409
0, 4, 3, 3.494504928588867
0, 4, 4, 2.221760034561157
0, 4, 5, 2.348119020462036
0, 4, 6, 2.920049905776978
0, 4, 7, 2.913506507873535
0, 4, 8, 1.129544258117676
0, 4, 9, 2.08657431602478
0, 4, 10, 3.759822845458984
0, 4, 11, 3.408581733703613
0, 4, 12, 4.611034393310547
0, 4, 13, 4.170490741729736
0, 4, 14, 4.29823112487793
0, 4, 15, 8.410325050354004
0, 4, 16, 5.808982372283936
0, 4, 17, 11.745361328125
0, 4, 18, 55.48089599609375
0, 4, 19, 150.4663543701172
0, 4, 20, 192.9550323486328
0, 4, 21, 171.1413879394531
0, 4, 22, 187.4604949951172
0, 4, 23, 195.9642333984375
0, 4, 24, 193.0805969238281
0, 4, 25, 199.4305877685547
0, 4, 26, 183.5163116455078
0, 4, 27, 190.0782775878906
0, 4, 28, 179.4561309814453
0, 4, 29, 205.5008850097656
0, 4, 30, 195.8364715576172
0, 4, 31, 191.5970458984375
0, 4, 32, 209.2108306884766
0, 4, 33, 189.4156036376953
0, 4, 34, 192.2689208984375
0, 4, 35, 212.2807464599609
0, 4, 36, 192.5850372314453
0, 4, 37, 178.727783203125
0, 4, 38, 193.8533020019531
0, 4, 39, 189.4620361328125
0, 4, 40, 185.2787628173828
0, 4, 41, 190.8948211669922
0, 4, 42, 207.2402954101562
0, 4, 43, 173.9366607666016
0, 4, 44, 183.3646697998047
0, 4, 45, 196.4624481201172
0, 4, 46, 185.72607421875
0, 4, 47, 179.2116851806641
0, 4, 48, 186.3855743408203
0, 4, 49, 175.5780487060547
0, 4, 50, 186.3980865478516
0, 4, 51, 197.0904998779297
0, 4, 52, 223.3900299072266
0, 4, 53, 205.8126068115234
0, 4, 54, 190.4295501708984
0, 4, 55, 174.1507873535156
0, 4, 56, 191.0037689208984
0, 4, 57, 191.3871154785156
0, 4, 58, 188.1065826416016
0, 4, 59, 189.3464202880859
0, 4, 60, 196.4930114746094
0, 4, 61, 193.1111297607422
0, 4, 62, 190.2051696777344
0, 4, 63, 179.2999420166016
0, 4, 64, 213.0317687988281
0, 4, 65, 191.0116882324219
0, 4, 66, 201.4694213867188
0, 4, 67, 199.2699737548828
0, 4, 68, 202.1341094970703
0, 4, 69, 201.3408660888672
0, 4, 70, 204.1243896484375
0, 4, 71, 207.4625244140625
0, 4, 72, 215.0609283447266
0, 4, 73, 185.7611541748047
0, 4, 74, 181.9646301269531
0, 4, 75, 185.189208984375
0, 4, 76, 190.0663757324219
0, 4, 77, 182.2066497802734
0, 4, 78, 195.7957000732422
0, 4, 79, 204.21923828125
0, 4, 80, 211.0273742675781
0, 4, 81, 198.0169982910156
0, 4, 82, 180.8426208496094
0, 4, 83, 171.3895874023438
0, 4, 84, 192.4424743652344
0, 4, 85, 196.5093841552734
0, 4, 86, 180.9083099365234
0, 4, 87, 182.5964813232422
0, 4, 88, 203.1032867431641
0, 4, 89, 187.3759307861328
0, 4, 90, 211.8792114257812
0, 4, 91, 189.5472259521484
0, 4, 92, 196.1402740478516
0, 4, 93, 195.368896484375
0, 4, 94, 181.4917449951172
0, 4, 95, 174.8248596191406
0, 4, 96, 189.9359588623047
0, 4, 97, 194.8971862792969
0, 4, 98, 201.7773590087891
0, 4, 99, 183.1860961914062
0, 4, 100, 182.6353149414062
0, 4, 101, 179.6857604980469
0, 4, 102, 174.1421051025391
0, 4, 103, 185.1404571533203
0, 4, 104, 211.0035095214844
0, 4, 105, 189.7444610595703
0, 4, 106, 180.06591796875
0, 4, 107, 181.4139404296875
0, 4, 108, 152.0394134521484
0, 4, 109, 49.87761306762695
0, 4, 110, 11.85202884674072
0, 4, 111, 8.721259117126465
0, 4, 112, 6.065313816070557
0, 4, 113, 5.550314426422119
0, 4, 114, 5.736823081970215
0, 4, 115, 3.340971946716309
0, 4, 116, 4.109723091125488
0, 4, 117, 4.060022354125977
0, 4, 118, 2.909445762634277
0, 4, 119, 3.401477098464966
0, 4, 120, 2.329540252685547
0, 4, 121, 2.632091760635376
0, 4, 122, 1.508235096931458
0, 4, 123, 1.266022443771362
0, 4, 124, 4.085052967071533
0, 4, 125, 2.433961868286133
0, 4, 126, 1.077873945236206
0, 4, 127, 2.003146171569824
0, 5, 0, 1.883940458297729
0, 5, 1, 2.522135972976685
0, 5, 2, 5.123342037200928
0, 5, 3, 4.192050933837891
0, 5, 4, 2.425085544586182
0, 5, 5, 2.19048547744751
0, 5, 6, 2.207846164703369
0, 5, 7, 2.627404689788818
0, 5, 8, 2.086721420288086
0, 5, 9, 2.359339237213135
0, 5, 10, 1.261835217475891
0, 5, 11, 3.614627599716187
0, 5, 12, 3.858532428741455
0, 5, 13, 3.340187311172485
0, 5, 14, 4.871877670288086
0, 5, 15, 9.451930999755859
0, 5, 16, 7.16844654083252
0, 5, 17, 20.94379806518555
0, 5, 18, 84.10166931152344
0, 5, 19, 164.4249114990234
0, 5, 20, 183.3738098144531
0, 5, 21, 177.3250427246094
0, 5, 22, 170.2879180908203
0, 5, 23, 200.4552764892578
0, 5, 24, 186.9059448242188
0, 5, 25, 206.7817077636719
0, 5, 26, 182.1860961914062
0, 5, 27, 194.5960235595703
0, 5, 28, 190.3537292480469
0, 5, 29, 195.9879150390625
0, 5, 30, 178.0117950439453
0, 5, 31, 180.8871917724609
0, 5, 32, 186.4713745117188
0, 5, 33, 168.7695159912109
0, 5, 34, 194.3994445800781
0, 5, 35, 196.3310394287109
0, 5, 36, 168.1511840820312
0, 5, 37, 196.2274780273438
0, 5, 38, 182.8688201904297
0, 5, 39, 186.9989471435547
0, 5, 40, 196.3989715576172
0, 5, 41, 177.0298767089844
0, 5, 42, 187.3504333496094
0, 5, 43, 191.8758087158203
0, 5, 44, 199.7121734619141
0, 5, 45, 186.6047210693359
0, 5, 46, 193.1036834716797
0, 5, 47, 181.2928771972656
0, 5, 48, 178.008056640625
0, 5, 49, 176.7443389892578
0, 5, 50, 186.4011688232422
0, 5, 51, 173.3407287597656
0, 5, 52, 167.7117309570312
0, 5, 53, 181.7174987792969
0, 5, 54, 172.4549713134766
0, 5, 55, 215.9849548339844
0, 5, 56, 182.3485412597656
0, 5, 57, 207.4776306152344
0, 5, 58, 182.5177612304688
0, 5, 59, 180.3438262939453
0, 5, 60, 218.3496398925781
0, 5, 61, 184.2016448974609
0, 5, 62, 179.2544097900391
0, 5, 63, 180.81787109375
0, 5, 64, 193.4695739746094
0, 5, 65, 209.6085662841797
0, 5, 66, 192.6159820556641
0, 5, 67, 199.9547882080078
0, 5, 68, 186.7883453369141
0, 5, 69, 185.5751342773438
0, 5, 70, 185.0360565185547
0, 5, 71, 193.2412109375
0, 5, 72, 197.4012145996094
0, 5, 73, 201.5957489013672
0, 5, 74, 179.1376342773438
0, 5, 75, 203.4508361816406
0, 5, 76, 213.7365112304688
0, 5, 77, 180.4178009033203
0, 5, 78, 194.0343017578125
0, 5, 79, 189.9742431640625
0, 5, 80, 197.4617919921875
0, 5, 81, 203.5389251708984
0, 5, 82, 201.0770874023438
0, 5, 83, 188.9260864257812
0, 5, 84, 205.3603973388672
0, 5, 85, 175.9372711181641
0, 5, 86, 194.5679168701172
0, 5, 87, 187.6665649414062
0, 5, 88, 176.8290863037109
0, 5, 89, 194.2565155029297
0, 5, 90, 199.0883636474609
0, 5, 91, 194.7162780761719
0, 5, 92, 191.8368682861328
0, 5, 93, 191.2060699462891
0, 5, 94, 207.4371337890625
0, 5, 95, 176.9861450195312
0, 5, 96, 182.1558227539062
0, 5, 97, 193.0557708740234
0, 5, 98, 190.6204986572266
0, 5, 99, 195.8462066650391
0, 5, 100, 186.1349487304688
0, 5, 101, 196.6934814453125
0, 5, 102, 181.7169036865234
0, 5, 103, 176.0007171630859
0, 5, 104, 191.1514892578125
0, 5, 105, 189.7148132324219
0, 5, 106, 176.6037750244141
0, 5, 107, 181.0177917480469
0, 5, 108, 176.3612976074219
0, 5, 109, 91.32895660400391
0, 5, 110, 29.81808280944824
0, 5, 111, 12.21741580963135
0, 5, 112, 6.4192214012146
0, 5, 113, 8.38922119140625
0, 5, 114, 5.903162002563477
0, 5, 115, 5.782564640045166
0, 5, 116, 3.661401748657227
0, 5, 117, 2.162378549575806
0, 5, 118, 3.960952758789062
0, 5, 119, 4.207694053649902
0, 5, 120, 3.486985445022583
0, 5, 121, 2.333165884017944
0, 5, 122, 2.831977844238281
0, 5, 123, 4.355289936065674
0, 5, 124, 2.819127082824707
0, 5, 125, 1.631786704063416
0, 5, 126, 2.588656663894653
0, 5, 127, 2.106369256973267
0, 6, 0, 4.385603904724121
0, 6, 1, 3.278995513916016
0, 6, 2, 5.221853256225586
0, 6, 3, 4.82429027557373
0, 6, 4, 3.448824167251587
0, 6, 5, 3.585617065429688
0, 6, 6, 3.163119554519653
0, 6, 7, 3.717414379119873
0, 6, 8, 4.514323711395264
0, 6, 9, 2.776645183563232
0, 6, 10, 3.947321891784668
0, 6, 11, 5.42611837387085
0, 6, 12, 4.624800682067871
0, 6, 13, 5.802637100219727
0, 6, 14, 5.546192646026611
0, 6, 15, 7.346074104309082
0, 6, 16, 12.8316478729248
0, 6, 17, 28.61753463745117
0, 6, 18, 111.6000595092773
0, 6, 19, 191.0525665283203
0, 6, 20, 196.6078491210938
0, 6, 21, 197.8700103759766
0, 6, 22, 191.1515502929688
0, 6, 23, 190.8935394287109
0, 6, 24, 200.9115905761719
0, 6, 25, 182.9202423095703
0, 6, 26, 186.1838989257812
0, 6, 27, 193.17578125
0, 6, 28, 188.9367065429688
0, 6, 29, 210.8554992675781
0, 6, 30, 189.9503021240234
0, 6, 31, 192.8063659667969
0, 6, 32, 206.0849914550781
0, 6, 33, 185.3753967285156
0, 6, 34, 198.5787200927734
0, 6, 35, 187.7220916748047
0, 6, 36, 180.0291442871094
0, 6, 37, 183.0990905761719
0, 6, 38, 185.4504547119141
0, 6, 39, 194.8586273193359
0, 6, 40, 174.0264587402344
0, 6, 41, 186.0614624023438
0, 6, 42, 176.3590698242188
0, 6, 43, 209.250732421875
0, 6, 44, 210.9459991455078
0, 6, 45, 193.1786041259766
0, 6, 46, 187.4519805908203
0, 6, 47, 204.5374450683594
0, 6, 48, 189.2344207763672
0, 6, 49, 180.4339294433594
0, 6, 50, 181.6643371582031
0, 6, 51, 196.6341705322266
0, 6, 52, 197.1178588867188
0, 6, 53, 184.6421813964844
0, 6, 54, 175.1847534179688
0, 6, 55, 195.1376190185547
0, 6, 56, 202.3285522460938
0, 6, 57, 190.8735809326172
0, 6, 58, 179.7065277099609
0, 6, 59, 191.7718505859375
0, 6, 60, 186.2900848388672
0, 6, 61, 194.9457397460938
0, 6, 62, 196.6088714599609
0, 6, 63, 187.2996673583984
0, 6, 64, 170.1239624023438
0, 6, 65, 187.1605072021484
0, 6, 66, 197.8295593261719
0, 6, 67, 214.3401489257812
0, 6, 68, 182.0875396728516
0, 6, 69, 171.5866546630859
0, 6, 70, 189.1566619873047
0, 6, 71, 171.6799468994141
0, 6, 72, 176.4530334472656
0, 6, 73, 176.60595703125
0, 6, 74, 211.6447906494141
0, 6, 75, 228.8131561279297
0, 6, 76, 184.1201934814453
0, 6, 77, 174.9299468994141
0, 6, 78, 174.9327087402344
0, 6, 79, 189.624267578125
0, 6, 80, 187.1282958984375
0, 6, 81, 208.6379241943359
0, 6, 82, 195.8238372802734
0, 6, 83, 197.2184448242188
0, 6, 84, 199.0984649658203
0, 6, 85, 180.796142578125
0, 6, 86, 201.9214172363281
0, 6, 87, 184.772705078125
0, 6, 88, 193.4340057373047
0, 6, 89, 187.7466583251953
0, 6, 90, 205.8270874023438
0, 6, 91, 199.5262908935547
0, 6, 92, 173.9194793701172
0, 6, 93, 193.0751495361328
0, 6, 94, 189.7383422851562
0, 6, 95, 185.028076171875
0, 6, 96, 190.3988494873047
0, 6, 97, 194.2651062011719
0, 6, 98, 183.0992889404297
0, 6, 99, 176.2153472900391
0, 6, 100, 201.2735290527344
0, 6, 101, 168.9808807373047
0, 6, 102, 202.2057189941406
0, 6, 103, 195.9168243408203
0, 6, 104, 183.4025115966797
0, 6, 105, 193.6921691894531
0, 6, 106, 176.8409118652344
0, 6, 107, 195.5680084228516
0, 6, 108, 170.9847106933594
0, 6, 109, 114.8345031738281
0, 6, 110, 34.66246795654297
0, 6, 111, 8.983403205871582
0, 6, 112, 8.494400024414062
0, 6, 113, 7.887655735015869
0, 6, 114, 5.422778606414795
0, 6, 115, 4.463668346405029
0, 6, 116, 5.992502689361572
0, 6, 117, 4.986406803131104
0, 6, 118, 2.984030723571777
0, 6, 119, 4.232277870178223
0, 6, 120, 1.595257997512817
0, 6, 121, 2.990906238555908
0, 6, 122, 3.625930547714233
0, 6, 123, 2.690028667449951
0, 6, 124, 2.898250579833984
0, 6, 125, 2.426944017410278
0, 6, 126, 1.577134966850281
0, 6, 127, 2.082843542098999
0, 7, 0, 3.723452806472778
0, 7, 1, 3.211896419525146
0, 7, 2, 1.897607088088989
0, 7, 3, 2.159755229949951
0, 7, 4, 0.9076470732688904
0, 7, 5, 1.330601930618286
0, 7, 6, 4.018375396728516
0, 7, 7, 1.553411841392517
0, 7, 8, 3.655526399612427
0, 7, 9, 3.575729608535767
0, 7, 10, 5.287406921386719
0, 7, 11, 4.84616231918335
0, 7, 12, 3.148070335388184
0, 7, 13, 5.795758724212646
0, 7, 14, 7.514374256134033
0, 7, 15, 7.211945533752441
0, 7, 16, 16.27499008178711
0, 7, 17, 50.56669616699219
0, 7, 18, 162.0377807617188
0, 7, 19, 183.6387939453125
0, 7, 20, 178.6783142089844
0, 7, 21, 181.3399353027344
0, 7, 22, 190.5616912841797
0, 7, 23, 203.5500946044922
0, 7, 24, 178.223388671875
0, 7, 25, 212.7725524902344
0, 7, 26, 190.5226898193359
0, 7, 27, 183.4848937988281
0, 7, 28, 183.3665313720703
0, 7, 29, 209.0083923339844
0, 7, 30, 192.6109619140625
0, 7, 31, 176.6646423339844
0, 7, 32, 191.9140777587891
0, 7, 33, 180.96826171875
0, 7, 34, 195.3076171875
0, 7, 35, 198.7200164794922
0, 7, 36, 187.3078155517578
0, 7, 37, 213.029296875
0, 7, 38, 192.7454528808594
0, 7, 39, 172.8981781005859
0, 7, 40, 183.4266967773438
0, 7, 41, 184.2278900146484
0, 7, 42, 177.6431121826172
0, 7, 43, 179.5538330078125
0, 7, 44, 180.2495880126953
0, 7, 45, 177.4322204589844
0, 7, 46, 187.4358520507812
0, 7, 47, 197.5718536376953
0, 7, 48, 186.4446563720703
0, 7, 49, 198.3914947509766
0, 7, 50, 188.0037078857422
0, 7, 51, 205.68115234375
0, 7, 52, 203.9840087890625
0, 7, 53, 191.6064453125
0, 7, 54, 194.5777740478516
0, 7, 55, 203.7637023925781
0, 7, 56, 183.4731750488281
0, 7, 57, 182.3772277832031
0, 7, 58, 191.1358032226562
0, 7, 59, 186.8945617675781
0, 7, 60, 202.0073089599609
0, 7, 61, 170.4077911376953
0, 7, 62, 203.0894317626953
0, 7, 63, 188.6109924316406
0, 7, 64, 198.9686889648438
0, 7, 65, 192.8629302978516
0, 7, 66, 205.6940155029297
0, 7, 67, 219.423095703125
0, 7, 68, 162.2327270507812
0, 7, 69, 195.5475463867188
0, 7, 70, 217.4143829345703
0, 7, 71, 183.8037414550781
0, 7, 72, 181.6304016113281
0, 7, 73, 176.9990386962891
0, 7, 74, 207.5204010009766
0, 7, 75, 205.7924346923828
0, 7, 76, 214.7651214599609
0, 7, 77, 173.7320098876953
0, 7, 78, 176.4369201660156
0, 7, 79, 191.7680358886719
0, 7, 80, 196.7503509521484
0, 7, 81, 215.6480255126953
0, 7, 82, 184.9683837890625
0, 7, 83, 206.9255218505859
0, 7, 84, 193.8406982421875
0, 7, 85, 185.9804534912109
0, 7, 86, 200.5856781005859
0, 7, 87, 226.1324615478516
0, 7, 88, 195.1613464355469
0, 7, 89, 176.8395843505859
0, 7, 90, 182.0131225585938
0, 7, 91, 194.3017272949219
0, 7, 92, 194.1644287109375
0, 7, 93, 199.2465667724609
0, 7, 94, 176.9528503417969
0, 7, 95, 197.6368865966797
0, 7, 96, 208.0524139404297
0, 7, 97, 189.2611694335938
0, 7, 98, 177.8799133300781
0, 7, 99, 199.0790252685547
0, 7, 100, 183.4557342529297
0, 7, 101, 200.5858306884766
0, 7, 102, 185.1804351806641
0, 7, 103, 181.9304504394531
0, 7, 104, 175.1995391845703
0, 7, 105, 195.1319732666016
0, 7, 106, 205.3409271240234
0, 7, 107, 173.1504974365234
0, 7, 108, 176.5410766601562
0, 7, 109, 136.5277862548828
0, 7, 110, 53.80934524536133
0, 7, 111, 9.738322257995605
0, 7, 112, 7.971681118011475
0, 7, 113, 8.637370109558105
0, 7, 114, 7.234413623809814
0, 7, 115, 5.360200881958008
0, 7, 116, 7.904691696166992
0, 7, 117, 2.377336263656616
0, 7, 118, 3.39079737663269
0, 7, 119, 3.326202869415283
0, 7, 120, 2.44849967956543
0, 7, 121, 3.267519950866699
0, 7, 122, 2.316306114196777
0, 7, 123, 1.677993178367615
0, 7, 124, 1.279137372970581
0, 7, 125, 1.922492980957031
0, 7, 126, 3.471165418624878
0, 7, 127, 1.530550837516785
0, 8, 0, 3.924296140670776
0, 8, 1, 2.113029003143311
0, 8, 2, 3.296907901763916
0, 8, 3, 2.507546424865723
0, 8, 4, 1.310145378112793
0, 8, 5, 3.319693565368652
0, 8, 6, 1.240737438201904
0, 8, 7, 3.177065849304199
0, 8, 8, 3.905861854553223
0, 8, 9, 5.370142459869385
0, 8, 10, 2.023515224456787
0, 8, 11, 3.45792555809021
0, 8, 12, 4.86428165435791
0, 8, 13, 4.829442501068115
0, 8, 14, 5.901033401489258
0, 8, 15, 9.133054733276367
0, 8, 16, 18.4177131652832
0, 8, 17, 76.34196472167969
0, 8, 18, 142.6879577636719
0, 8, 19, 179.7731323242188
0, 8, 20, 196.3285064697266
0, 8, 21, 192.9070434570312
0, 8, 22, 180.20068359375
0, 8, 23, 174.4364013671875
0, 8, 24, 191.4704437255859
0, 8, 25, 186.2170867919922
0, 8, 26, 193.0454254150391
0, 8, 27, 186.9521331787109
0, 8, 28, 185.9115295410156
0, 8, 29, 206.27001953125
0, 8, 30, 195.4416351318359
0, 8, 31, 182.3594207763672
0, 8, 32, 197.7294769287109
0, 8, 33, 206.4871215820312
0, 8, 34, 202.8760681152344
0, 8, 35, 185.3067779541016
0, 8, 36, 182.1777191162109
0, 8, 37, 198.980712890625
