# TOPAS Version: 3.1.p3
# Parameter File: batch_inserts_184.txt
# Results for scorer Readout_Adipose
# Scored in component: MyBox
# X in 1 bin  of 0.65 cm
# Y in 512 bins of 0.0783984 cm
# Z in 128 bins of 0.078125 cm
# EnergyDeposit ( MeV ) : Sum   
0, 0, 0, 1.44901704788208
0, 0, 1, 4.853756904602051
0, 0, 2, 1.319667935371399
0, 0, 3, 1.526962757110596
0, 0, 4, 2.816508293151855
0, 0, 5, 0.9780976176261902
0, 0, 6, 2.213113784790039
0, 0, 7, 1.987668037414551
0, 0, 8, 1.527709007263184
0, 0, 9, 2.841085433959961
0, 0, 10, 2.80454158782959
0, 0, 11, 3.800675630569458
0, 0, 12, 5.042578220367432
0, 0, 13, 2.405062913894653
0, 0, 14, 4.850949287414551
0, 0, 15, 5.477237224578857
0, 0, 16, 5.830985546112061
0, 0, 17, 6.720169544219971
0, 0, 18, 7.690670490264893
0, 0, 19, 22.35395050048828
0, 0, 20, 94.30539703369141
0, 0, 21, 153.2684783935547
0, 0, 22, 154.1357269287109
0, 0, 23, 144.6723022460938
0, 0, 24, 159.7981872558594
0, 0, 25, 166.2651977539062
0, 0, 26, 167.0206909179688
0, 0, 27, 174.8350372314453
0, 0, 28, 178.6180267333984
0, 0, 29, 174.3418579101562
0, 0, 30, 173.2060394287109
0, 0, 31, 169.8279113769531
0, 0, 32, 164.1415405273438
0, 0, 33, 166.804443359375
0, 0, 34, 177.3643188476562
0, 0, 35, 174.4023132324219
0, 0, 36, 159.0098571777344
0, 0, 37, 161.0691070556641
0, 0, 38, 166.2879180908203
0, 0, 39, 158.8348999023438
0, 0, 40, 164.6562042236328
0, 0, 41, 165.7904052734375
0, 0, 42, 142.9037322998047
0, 0, 43, 167.7736663818359
0, 0, 44, 177.6767272949219
0, 0, 45, 172.8448638916016
0, 0, 46, 166.7367248535156
0, 0, 47, 167.8397979736328
0, 0, 48, 168.7458801269531
0, 0, 49, 183.1233520507812
0, 0, 50, 169.0919799804688
0, 0, 51, 163.2940216064453
0, 0, 52, 161.5841674804688
0, 0, 53, 171.8848876953125
0, 0, 54, 161.3567199707031
0, 0, 55, 165.0011444091797
0, 0, 56, 190.1189880371094
0, 0, 57, 170.3076629638672
0, 0, 58, 160.7149658203125
0, 0, 59, 172.4029693603516
0, 0, 60, 168.2900390625
0, 0, 61, 170.2121276855469
0, 0, 62, 182.6884460449219
0, 0, 63, 167.8243408203125
0, 0, 64, 164.0043182373047
0, 0, 65, 174.9665832519531
0, 0, 66, 178.5294952392578
0, 0, 67, 165.1476745605469
0, 0, 68, 158.8592224121094
0, 0, 69, 159.0070953369141
0, 0, 70, 169.7585754394531
0, 0, 71, 158.0370788574219
0, 0, 72, 161.6841583251953
0, 0, 73, 171.2672424316406
0, 0, 74, 163.0518341064453
0, 0, 75, 163.8761749267578
0, 0, 76, 163.8586120605469
0, 0, 77, 171.7683563232422
0, 0, 78, 181.8132171630859
0, 0, 79, 174.8413848876953
0, 0, 80, 159.4509887695312
0, 0, 81, 160.4728240966797
0, 0, 82, 182.1504669189453
0, 0, 83, 174.3553314208984
0, 0, 84, 159.2975006103516
0, 0, 85, 181.6716003417969
0, 0, 86, 158.9753723144531
0, 0, 87, 177.5522308349609
0, 0, 88, 176.2284698486328
0, 0, 89, 175.6973876953125
0, 0, 90, 162.0457916259766
0, 0, 91, 185.4295043945312
0, 0, 92, 165.5870361328125
0, 0, 93, 158.480224609375
0, 0, 94, 169.4295043945312
0, 0, 95, 174.4048156738281
0, 0, 96, 184.0346374511719
0, 0, 97, 183.6980895996094
0, 0, 98, 185.5508880615234
0, 0, 99, 171.7942810058594
0, 0, 100, 158.7467498779297
0, 0, 101, 166.6062316894531
0, 0, 102, 170.8847961425781
0, 0, 103, 170.6447143554688
0, 0, 104, 168.3740997314453
0, 0, 105, 178.3160247802734
0, 0, 106, 158.8753356933594
0, 0, 107, 86.50309753417969
0, 0, 108, 21.30145263671875
0, 0, 109, 8.889708518981934
0, 0, 110, 6.496999740600586
0, 0, 111, 6.154617309570312
0, 0, 112, 3.314718246459961
0, 0, 113, 2.975738525390625
0, 0, 114, 2.044036388397217
0, 0, 115, 3.401709079742432
0, 0, 116, 2.412896156311035
0, 0, 117, 2.34724497795105
0, 0, 118, 3.16988730430603
0, 0, 119, 3.692217350006104
0, 0, 120, 1.851223826408386
0, 0, 121, 3.40906023979187
0, 0, 122, 4.772036075592041
0, 0, 123, 3.959954500198364
0, 0, 124, 1.816027879714966
0, 0, 125, 3.861352920532227
0, 0, 126, 2.631685018539429
0, 0, 127, 2.798901319503784
0, 1, 0, 1.335843682289124
0, 1, 1, 4.669160842895508
0, 1, 2, 3.326812267303467
0, 1, 3, 1.336804270744324
0, 1, 4, 0.5819394588470459
0, 1, 5, 2.797352313995361
0, 1, 6, 1.355335712432861
0, 1, 7, 2.165781259536743
0, 1, 8, 1.341984033584595
0, 1, 9, 1.112644910812378
0, 1, 10, 2.015457153320312
0, 1, 11, 3.787900686264038
0, 1, 12, 3.412039279937744
0, 1, 13, 3.033962965011597
0, 1, 14, 5.291317939758301
0, 1, 15, 6.694253921508789
0, 1, 16, 8.370542526245117
0, 1, 17, 5.223773002624512
0, 1, 18, 10.01545715332031
0, 1, 19, 39.03672790527344
0, 1, 20, 126.3558959960938
0, 1, 21, 176.6487884521484
0, 1, 22, 192.9725036621094
0, 1, 23, 186.2778778076172
0, 1, 24, 179.8117065429688
0, 1, 25, 191.1754608154297
0, 1, 26, 198.8350677490234
0, 1, 27, 189.1619720458984
0, 1, 28, 189.7262725830078
0, 1, 29, 184.1404418945312
0, 1, 30, 179.0990142822266
0, 1, 31, 181.1883850097656
0, 1, 32, 188.908935546875
0, 1, 33, 190.3150024414062
0, 1, 34, 184.11669921875
0, 1, 35, 193.8359069824219
0, 1, 36, 204.9909210205078
0, 1, 37, 184.3832855224609
0, 1, 38, 164.7806701660156
0, 1, 39, 171.4876861572266
0, 1, 40, 178.7116851806641
0, 1, 41, 184.9930572509766
0, 1, 42, 181.9508819580078
0, 1, 43, 186.2024993896484
0, 1, 44, 167.9248962402344
0, 1, 45, 186.8919982910156
0, 1, 46, 171.5334014892578
0, 1, 47, 184.8681640625
0, 1, 48, 187.9855499267578
0, 1, 49, 186.3201141357422
0, 1, 50, 179.4147033691406
0, 1, 51, 190.3298492431641
0, 1, 52, 196.8559875488281
0, 1, 53, 195.8174438476562
0, 1, 54, 185.5531463623047
0, 1, 55, 165.2798767089844
0, 1, 56, 179.2461700439453
0, 1, 57, 178.2920837402344
0, 1, 58, 188.1618347167969
0, 1, 59, 194.2906036376953
0, 1, 60, 189.1236572265625
0, 1, 61, 177.6116180419922
0, 1, 62, 204.9954223632812
0, 1, 63, 173.9459075927734
0, 1, 64, 174.0987396240234
0, 1, 65, 184.8694152832031
0, 1, 66, 203.4997253417969
0, 1, 67, 183.4328460693359
0, 1, 68, 187.0979309082031
0, 1, 69, 188.4741668701172
0, 1, 70, 186.2536163330078
0, 1, 71, 171.7351379394531
0, 1, 72, 187.7802276611328
0, 1, 73, 190.5847930908203
0, 1, 74, 200.6595458984375
0, 1, 75, 183.3855743408203
0, 1, 76, 174.3381805419922
0, 1, 77, 191.7847747802734
0, 1, 78, 188.11865234375
0, 1, 79, 203.0707397460938
0, 1, 80, 186.4334411621094
0, 1, 81, 174.5951538085938
0, 1, 82, 207.2091369628906
0, 1, 83, 212.8589630126953
0, 1, 84, 180.6484069824219
0, 1, 85, 169.4033660888672
0, 1, 86, 167.4602813720703
0, 1, 87, 184.9113922119141
0, 1, 88, 175.8303375244141
0, 1, 89, 187.5248565673828
0, 1, 90, 213.8004455566406
0, 1, 91, 181.9508209228516
0, 1, 92, 183.7694091796875
0, 1, 93, 180.5503997802734
0, 1, 94, 185.2184906005859
0, 1, 95, 183.9895629882812
0, 1, 96, 195.6899719238281
0, 1, 97, 183.1621704101562
0, 1, 98, 186.5414581298828
0, 1, 99, 175.1761779785156
0, 1, 100, 170.8253479003906
0, 1, 101, 177.7127685546875
0, 1, 102, 183.6720581054688
0, 1, 103, 172.7937774658203
0, 1, 104, 189.7350463867188
0, 1, 105, 184.5382843017578
0, 1, 106, 163.4013214111328
0, 1, 107, 123.5499420166016
0, 1, 108, 46.4477653503418
0, 1, 109, 9.460659980773926
0, 1, 110, 7.320510864257812
0, 1, 111, 7.972226619720459
0, 1, 112, 6.71403694152832
0, 1, 113, 6.984567642211914
0, 1, 114, 6.755176067352295
0, 1, 115, 6.028267860412598
0, 1, 116, 3.312877655029297
0, 1, 117, 2.531663179397583
0, 1, 118, 3.848386764526367
0, 1, 119, 1.393162369728088
0, 1, 120, 3.146108388900757
0, 1, 121, 3.997586727142334
0, 1, 122, 1.734898328781128
0, 1, 123, 4.152130126953125
0, 1, 124, 2.809276580810547
0, 1, 125, 3.089829206466675
0, 1, 126, 2.58243727684021
0, 1, 127, 2.187752485275269
0, 2, 0, 1.336159706115723
0, 2, 1, 2.751192331314087
0, 2, 2, 2.566750049591064
0, 2, 3, 1.264277577400208
0, 2, 4, 1.136043429374695
0, 2, 5, 1.006815552711487
0, 2, 6, 2.726949453353882
0, 2, 7, 2.14572286605835
0, 2, 8, 0.6782321333885193
0, 2, 9, 2.298020839691162
0, 2, 10, 6.52772331237793
0, 2, 11, 3.655042409896851
0, 2, 12, 3.914357662200928
0, 2, 13, 4.342900276184082
0, 2, 14, 4.63050365447998
0, 2, 15, 4.240738391876221
0, 2, 16, 4.353958129882812
0, 2, 17, 9.400561332702637
0, 2, 18, 14.0870361328125
0, 2, 19, 79.31858062744141
0, 2, 20, 163.3237915039062
0, 2, 21, 184.3608856201172
0, 2, 22, 194.5304718017578
0, 2, 23, 183.8999176025391
0, 2, 24, 173.6834411621094
0, 2, 25, 183.4605102539062
0, 2, 26, 179.6678161621094
0, 2, 27, 191.0265045166016
0, 2, 28, 170.5711059570312
0, 2, 29, 168.9810333251953
0, 2, 30, 187.1439666748047
0, 2, 31, 182.7112884521484
0, 2, 32, 183.0625915527344
0, 2, 33, 190.33447265625
0, 2, 34, 196.4154968261719
0, 2, 35, 181.3892059326172
0, 2, 36, 186.6390533447266
0, 2, 37, 180.8881072998047
0, 2, 38, 183.7167358398438
0, 2, 39, 166.5463562011719
0, 2, 40, 184.2744140625
0, 2, 41, 185.1382141113281
0, 2, 42, 190.6968231201172
0, 2, 43, 194.0414733886719
0, 2, 44, 190.4717407226562
0, 2, 45, 189.651123046875
0, 2, 46, 195.6095886230469
0, 2, 47, 188.7238464355469
0, 2, 48, 177.8056793212891
0, 2, 49, 198.3796234130859
0, 2, 50, 167.3614654541016
0, 2, 51, 186.2449645996094
0, 2, 52, 185.1879425048828
0, 2, 53, 195.3668518066406
0, 2, 54, 175.2874603271484
0, 2, 55, 173.2203063964844
0, 2, 56, 181.6523132324219
0, 2, 57, 200.8083801269531
0, 2, 58, 187.6545562744141
0, 2, 59, 188.9277191162109
0, 2, 60, 196.7845458984375
0, 2, 61, 193.3211822509766
0, 2, 62, 189.7006988525391
0, 2, 63, 170.3814239501953
0, 2, 64, 189.1560363769531
0, 2, 65, 203.2088012695312
0, 2, 66, 195.7136383056641
0, 2, 67, 186.2048187255859
0, 2, 68, 181.7560729980469
0, 2, 69, 188.4276580810547
0, 2, 70, 203.4309234619141
0, 2, 71, 178.0448913574219
0, 2, 72, 187.0893707275391
0, 2, 73, 177.6464385986328
0, 2, 74, 180.3081207275391
0, 2, 75, 195.6563720703125
0, 2, 76, 184.1579284667969
0, 2, 77, 177.6636505126953
0, 2, 78, 197.1971130371094
0, 2, 79, 177.2954711914062
0, 2, 80, 186.8074493408203
0, 2, 81, 186.7794952392578
0, 2, 82, 206.4946899414062
0, 2, 83, 203.2249145507812
0, 2, 84, 188.3131561279297
0, 2, 85, 170.1334838867188
0, 2, 86, 195.6461486816406
0, 2, 87, 172.0010528564453
0, 2, 88, 176.9245452880859
0, 2, 89, 185.1950531005859
0, 2, 90, 178.1682739257812
0, 2, 91, 172.8400726318359
0, 2, 92, 197.9968872070312
0, 2, 93, 194.4582214355469
0, 2, 94, 200.4838256835938
0, 2, 95, 193.5493774414062
0, 2, 96, 187.0296173095703
0, 2, 97, 172.0661010742188
0, 2, 98, 174.4319915771484
0, 2, 99, 162.9539794921875
0, 2, 100, 188.165283203125
0, 2, 101, 196.5601959228516
0, 2, 102, 176.0764007568359
0, 2, 103, 199.6034240722656
0, 2, 104, 188.8465576171875
0, 2, 105, 200.6251373291016
0, 2, 106, 194.8091430664062
0, 2, 107, 148.9789886474609
0, 2, 108, 79.68121337890625
0, 2, 109, 17.88817977905273
0, 2, 110, 9.437281608581543
0, 2, 111, 5.849198818206787
0, 2, 112, 3.261772394180298
0, 2, 113, 4.698763847351074
0, 2, 114, 6.465776920318604
0, 2, 115, 2.776209831237793
0, 2, 116, 3.330547571182251
0, 2, 117, 1.960841536521912
0, 2, 118, 3.057529211044312
0, 2, 119, 2.919528245925903
0, 2, 120, 2.239402770996094
0, 2, 121, 4.800651550292969
0, 2, 122, 2.135403394699097
0, 2, 123, 1.459331512451172
0, 2, 124, 1.764672517776489
0, 2, 125, 2.416454315185547
0, 2, 126, 2.823798179626465
0, 2, 127, 0.9424134492874146
0, 3, 0, 1.664932727813721
0, 3, 1, 1.801411747932434
0, 3, 2, 2.793349981307983
0, 3, 3, 3.977266311645508
0, 3, 4, 3.924559116363525
0, 3, 5, 1.669073343276978
0, 3, 6, 1.763120412826538
0, 3, 7, 2.007973194122314
0, 3, 8, 2.524916887283325
0, 3, 9, 2.16147518157959
0, 3, 10, 2.504858732223511
0, 3, 11, 3.850587844848633
0, 3, 12, 4.608969688415527
0, 3, 13, 3.384927749633789
0, 3, 14, 4.186174392700195
0, 3, 15, 8.904378890991211
0, 3, 16, 6.790905952453613
0, 3, 17, 6.765788078308105
0, 3, 18, 31.76353645324707
0, 3, 19, 114.9292907714844
0, 3, 20, 180.0199737548828
0, 3, 21, 171.9633026123047
0, 3, 22, 177.9438629150391
0, 3, 23, 188.8658905029297
0, 3, 24, 177.045654296875
0, 3, 25, 169.8238525390625
0, 3, 26, 181.8272094726562
0, 3, 27, 189.0866546630859
0, 3, 28, 183.2725219726562
0, 3, 29, 197.7697143554688
0, 3, 30, 185.2575378417969
0, 3, 31, 195.7314758300781
0, 3, 32, 205.9258422851562
0, 3, 33, 196.5232696533203
0, 3, 34, 187.5684356689453
0, 3, 35, 175.2513275146484
0, 3, 36, 185.5988006591797
0, 3, 37, 199.8625640869141
0, 3, 38, 191.326416015625
0, 3, 39, 184.748046875
0, 3, 40, 165.5517730712891
0, 3, 41, 174.2039184570312
0, 3, 42, 184.5766448974609
0, 3, 43, 181.4232482910156
0, 3, 44, 202.8649597167969
0, 3, 45, 206.8546905517578
0, 3, 46, 198.3836364746094
0, 3, 47, 197.0876312255859
0, 3, 48, 195.9152221679688
0, 3, 49, 180.2185363769531
0, 3, 50, 186.8721771240234
0, 3, 51, 174.4849700927734
0, 3, 52, 186.8342437744141
0, 3, 53, 176.8988647460938
0, 3, 54, 179.9824676513672
0, 3, 55, 176.984619140625
0, 3, 56, 182.2751770019531
0, 3, 57, 174.9053955078125
0, 3, 58, 201.1050872802734
0, 3, 59, 195.2356262207031
0, 3, 60, 185.5407562255859
0, 3, 61, 181.1224365234375
0, 3, 62, 184.2285461425781
0, 3, 63, 184.0605926513672
0, 3, 64, 189.3481750488281
0, 3, 65, 186.6548004150391
0, 3, 66, 175.3091735839844
0, 3, 67, 189.7019195556641
0, 3, 68, 212.5003204345703
0, 3, 69, 189.5011444091797
0, 3, 70, 185.2046356201172
0, 3, 71, 196.4593658447266
0, 3, 72, 186.2670593261719
0, 3, 73, 188.1627349853516
0, 3, 74, 192.3036193847656
0, 3, 75, 192.6815643310547
0, 3, 76, 190.6050262451172
0, 3, 77, 197.8161315917969
0, 3, 78, 187.9449005126953
0, 3, 79, 186.3963623046875
0, 3, 80, 191.3494110107422
0, 3, 81, 184.1484375
0, 3, 82, 178.9729614257812
0, 3, 83, 194.3269195556641
0, 3, 84, 199.3029632568359
0, 3, 85, 192.0466766357422
0, 3, 86, 203.8673706054688
0, 3, 87, 196.8970336914062
0, 3, 88, 191.8506164550781
0, 3, 89, 194.3787536621094
0, 3, 90, 173.4694061279297
0, 3, 91, 156.3168792724609
0, 3, 92, 206.0301971435547
0, 3, 93, 198.0512237548828
0, 3, 94, 194.9504699707031
0, 3, 95, 211.8264465332031
0, 3, 96, 208.4954376220703
0, 3, 97, 168.2401428222656
0, 3, 98, 167.7714538574219
0, 3, 99, 179.7289276123047
0, 3, 100, 178.1415710449219
0, 3, 101, 197.3165740966797
0, 3, 102, 194.8328552246094
0, 3, 103, 192.5592651367188
0, 3, 104, 203.0817413330078
0, 3, 105, 177.1486511230469
0, 3, 106, 181.43408203125
0, 3, 107, 170.4898223876953
0, 3, 108, 108.3467178344727
0, 3, 109, 26.79451370239258
0, 3, 110, 8.34636116027832
0, 3, 111, 6.794425487518311
0, 3, 112, 3.424186944961548
0, 3, 113, 7.402926921844482
0, 3, 114, 4.651900768280029
0, 3, 115, 4.47797679901123
0, 3, 116, 4.550136089324951
0, 3, 117, 4.594392776489258
0, 3, 118, 1.491190910339355
0, 3, 119, 2.89915919303894
0, 3, 120, 3.929443836212158
0, 3, 121, 1.183894157409668
0, 3, 122, 3.099662065505981
0, 3, 123, 2.016052484512329
0, 3, 124, 1.823839426040649
0, 3, 125, 1.616330862045288
0, 3, 126, 2.203435182571411
0, 3, 127, 0.9752121567726135
0, 4, 0, 1.483797669410706
0, 4, 1, 0.3323175013065338
0, 4, 2, 2.317704439163208
0, 4, 3, 6.39120626449585
0, 4, 4, 2.395029306411743
0, 4, 5, 1.467746019363403
0, 4, 6, 2.406821727752686
0, 4, 7, 2.21687912940979
0, 4, 8, 1.60876190662384
0, 4, 9, 2.516121864318848
0, 4, 10, 4.243541240692139
0, 4, 11, 3.92291522026062
0, 4, 12, 4.96378231048584
0, 4, 13, 4.202453136444092
0, 4, 14, 4.340764999389648
0, 4, 15, 8.701079368591309
0, 4, 16, 6.671621799468994
0, 4, 17, 11.52005577087402
0, 4, 18, 54.50131225585938
0, 4, 19, 150.0079803466797
0, 4, 20, 192.8290863037109
0, 4, 21, 169.4621734619141
0, 4, 22, 187.2604370117188
0, 4, 23, 195.4569702148438
0, 4, 24, 192.5798492431641
0, 4, 25, 199.5387573242188
0, 4, 26, 183.6309967041016
0, 4, 27, 191.0936431884766
0, 4, 28, 179.3584899902344
0, 4, 29, 205.184326171875
0, 4, 30, 195.0051116943359
0, 4, 31, 193.1461181640625
0, 4, 32, 210.2119445800781
0, 4, 33, 191.5379486083984
0, 4, 34, 192.1411285400391
0, 4, 35, 211.8181762695312
0, 4, 36, 192.8279571533203
0, 4, 37, 176.8516540527344
0, 4, 38, 193.8694915771484
0, 4, 39, 188.6223907470703
0, 4, 40, 187.0310211181641
0, 4, 41, 189.3001403808594
0, 4, 42, 205.6871032714844
0, 4, 43, 173.6452941894531
0, 4, 44, 183.0766296386719
0, 4, 45, 196.1824188232422
0, 4, 46, 185.9833374023438
0, 4, 47, 180.0936126708984
0, 4, 48, 185.1669921875
0, 4, 49, 175.0019683837891
0, 4, 50, 185.8501739501953
0, 4, 51, 198.0788726806641
0, 4, 52, 223.5293121337891
0, 4, 53, 207.6618194580078
0, 4, 54, 189.0802459716797
0, 4, 55, 174.9872283935547
0, 4, 56, 190.3223571777344
0, 4, 57, 191.9140167236328
0, 4, 58, 187.3483428955078
0, 4, 59, 188.9476013183594
0, 4, 60, 196.0199127197266
0, 4, 61, 193.4721069335938
0, 4, 62, 190.5572662353516
0, 4, 63, 179.3407135009766
0, 4, 64, 215.3174438476562
0, 4, 65, 190.9650421142578
0, 4, 66, 201.2531433105469
0, 4, 67, 199.1500854492188
0, 4, 68, 201.4613647460938
0, 4, 69, 199.4188385009766
0, 4, 70, 205.1029815673828
0, 4, 71, 206.847900390625
0, 4, 72, 215.9770202636719
0, 4, 73, 185.2214508056641
0, 4, 74, 180.7254028320312
0, 4, 75, 184.2519989013672
0, 4, 76, 190.3876953125
0, 4, 77, 182.4128265380859
0, 4, 78, 194.6678161621094
0, 4, 79, 205.2398834228516
0, 4, 80, 211.1796417236328
0, 4, 81, 198.7251281738281
0, 4, 82, 182.8735961914062
0, 4, 83, 170.1609649658203
0, 4, 84, 192.5270385742188
0, 4, 85, 196.82373046875
0, 4, 86, 182.4995727539062
0, 4, 87, 183.1005249023438
0, 4, 88, 204.4752960205078
0, 4, 89, 187.1140441894531
0, 4, 90, 211.6934204101562
0, 4, 91, 189.7642059326172
0, 4, 92, 197.1254272460938
0, 4, 93, 196.9208679199219
0, 4, 94, 182.2770385742188
0, 4, 95, 175.2396240234375
0, 4, 96, 190.4969024658203
0, 4, 97, 193.2230834960938
0, 4, 98, 201.7342987060547
0, 4, 99, 182.7644653320312
0, 4, 100, 182.7833099365234
0, 4, 101, 177.1166076660156
0, 4, 102, 173.2358856201172
0, 4, 103, 185.18798828125
0, 4, 104, 209.6549224853516
0, 4, 105, 190.0946655273438
0, 4, 106, 179.8011627197266
0, 4, 107, 181.1129150390625
0, 4, 108, 152.5237121582031
0, 4, 109, 52.59646987915039
0, 4, 110, 10.58749294281006
0, 4, 111, 8.728860855102539
0, 4, 112, 6.66435432434082
0, 4, 113, 5.259345054626465
0, 4, 114, 5.053911685943604
0, 4, 115, 3.230311155319214
0, 4, 116, 5.673558712005615
0, 4, 117, 4.018764972686768
0, 4, 118, 3.31541109085083
0, 4, 119, 3.159758567810059
0, 4, 120, 2.048730373382568
0, 4, 121, 1.376654505729675
0, 4, 122, 1.868811249732971
0, 4, 123, 1.781466364860535
0, 4, 124, 4.564496517181396
0, 4, 125, 4.246508598327637
0, 4, 126, 1.246201276779175
0, 4, 127, 2.152181386947632
0, 5, 0, 1.458556413650513
0, 5, 1, 3.940666913986206
0, 5, 2, 5.283584117889404
0, 5, 3, 4.603706359863281
0, 5, 4, 3.254495143890381
0, 5, 5, 1.367009520530701
0, 5, 6, 2.240864992141724
0, 5, 7, 2.732419967651367
0, 5, 8, 2.193763256072998
0, 5, 9, 2.380396842956543
0, 5, 10, 3.181434392929077
0, 5, 11, 5.881021499633789
0, 5, 12, 3.120552539825439
0, 5, 13, 4.797027587890625
0, 5, 14, 5.080113410949707
0, 5, 15, 9.357566833496094
0, 5, 16, 8.216228485107422
0, 5, 17, 21.13135719299316
0, 5, 18, 81.49866485595703
0, 5, 19, 163.9013061523438
0, 5, 20, 183.4454650878906
0, 5, 21, 178.6369476318359
0, 5, 22, 170.6727752685547
0, 5, 23, 200.3617401123047
0, 5, 24, 187.2133636474609
0, 5, 25, 208.2359619140625
0, 5, 26, 184.4019470214844
0, 5, 27, 193.6427001953125
0, 5, 28, 189.1470947265625
0, 5, 29, 195.6835174560547
0, 5, 30, 177.1132049560547
0, 5, 31, 180.0477447509766
0, 5, 32, 186.0256805419922
0, 5, 33, 169.1471099853516
0, 5, 34, 194.9855346679688
0, 5, 35, 197.4708709716797
0, 5, 36, 167.4736175537109
0, 5, 37, 196.764404296875
0, 5, 38, 181.7545623779297
0, 5, 39, 188.0512237548828
0, 5, 40, 197.2501220703125
0, 5, 41, 177.3637237548828
0, 5, 42, 187.7953338623047
0, 5, 43, 192.7785797119141
0, 5, 44, 199.8265380859375
0, 5, 45, 186.4425506591797
0, 5, 46, 192.7654266357422
0, 5, 47, 179.5325927734375
0, 5, 48, 178.0101165771484
0, 5, 49, 178.4070434570312
0, 5, 50, 186.5635070800781
0, 5, 51, 173.3872833251953
0, 5, 52, 167.5374298095703
0, 5, 53, 181.4663848876953
0, 5, 54, 172.3292541503906
0, 5, 55, 215.1295623779297
0, 5, 56, 182.1754608154297
0, 5, 57, 206.7187957763672
0, 5, 58, 181.4193267822266
0, 5, 59, 180.9279937744141
0, 5, 60, 218.3741760253906
0, 5, 61, 184.8766326904297
0, 5, 62, 178.1369476318359
0, 5, 63, 182.2501831054688
0, 5, 64, 195.6741638183594
0, 5, 65, 210.9348754882812
0, 5, 66, 191.4826202392578
0, 5, 67, 198.6973876953125
0, 5, 68, 187.0513153076172
0, 5, 69, 186.5262603759766
0, 5, 70, 184.9808959960938
0, 5, 71, 193.0065002441406
0, 5, 72, 197.3410491943359
0, 5, 73, 201.2305755615234
0, 5, 74, 180.6974792480469
0, 5, 75, 203.3063354492188
0, 5, 76, 216.2617950439453
0, 5, 77, 180.3079376220703
0, 5, 78, 194.822998046875
0, 5, 79, 189.9845581054688
0, 5, 80, 197.3408050537109
0, 5, 81, 203.1979522705078
0, 5, 82, 201.5294952392578
0, 5, 83, 189.3227233886719
0, 5, 84, 205.2640533447266
0, 5, 85, 178.1493377685547
0, 5, 86, 194.8978729248047
0, 5, 87, 188.5603485107422
0, 5, 88, 177.9165191650391
0, 5, 89, 195.7552642822266
0, 5, 90, 199.1437683105469
0, 5, 91, 194.8865203857422
0, 5, 92, 191.7461395263672
0, 5, 93, 190.5578308105469
0, 5, 94, 208.0355224609375
0, 5, 95, 176.0550842285156
0, 5, 96, 183.256591796875
0, 5, 97, 191.0899505615234
0, 5, 98, 188.3785095214844
0, 5, 99, 196.4015655517578
0, 5, 100, 186.0417785644531
0, 5, 101, 196.4026794433594
0, 5, 102, 181.3033142089844
0, 5, 103, 176.3903198242188
0, 5, 104, 190.4504089355469
0, 5, 105, 190.3115539550781
0, 5, 106, 177.693359375
0, 5, 107, 182.8600616455078
0, 5, 108, 175.6902008056641
0, 5, 109, 88.30419158935547
0, 5, 110, 30.55513191223145
0, 5, 111, 9.450815200805664
0, 5, 112, 6.82725191116333
0, 5, 113, 5.48520040512085
0, 5, 114, 6.920699119567871
0, 5, 115, 7.372719287872314
0, 5, 116, 5.537162303924561
0, 5, 117, 4.06956672668457
0, 5, 118, 3.459909439086914
0, 5, 119, 3.450050592422485
0, 5, 120, 2.053641557693481
0, 5, 121, 1.173635840415955
0, 5, 122, 5.237417697906494
0, 5, 123, 5.012864589691162
0, 5, 124, 3.996266841888428
0, 5, 125, 1.411433100700378
0, 5, 126, 3.179048776626587
0, 5, 127, 3.109610080718994
0, 6, 0, 5.357331275939941
0, 6, 1, 3.078284025192261
0, 6, 2, 3.094737768173218
0, 6, 3, 2.218580961227417
0, 6, 4, 2.610470056533813
0, 6, 5, 4.272031307220459
0, 6, 6, 2.225794076919556
0, 6, 7, 3.77997350692749
0, 6, 8, 4.373576641082764
0, 6, 9, 4.187345504760742
0, 6, 10, 5.044114589691162
0, 6, 11, 3.575381517410278
0, 6, 12, 4.606371879577637
0, 6, 13, 5.763080596923828
0, 6, 14, 5.865310192108154
0, 6, 15, 6.25397253036499
0, 6, 16, 13.90637588500977
0, 6, 17, 28.25406455993652
0, 6, 18, 111.7287368774414
0, 6, 19, 192.0256500244141
0, 6, 20, 195.8336639404297
0, 6, 21, 197.9085235595703
0, 6, 22, 191.904052734375
0, 6, 23, 191.2526550292969
0, 6, 24, 201.5867919921875
0, 6, 25, 182.6189270019531
0, 6, 26, 187.0493469238281
0, 6, 27, 191.8143920898438
0, 6, 28, 189.80419921875
0, 6, 29, 210.6487121582031
0, 6, 30, 189.997314453125
0, 6, 31, 192.8037872314453
0, 6, 32, 206.3955078125
0, 6, 33, 183.1682739257812
0, 6, 34, 197.1303558349609
0, 6, 35, 187.2479705810547
0, 6, 36, 180.4412536621094
0, 6, 37, 183.4034118652344
0, 6, 38, 186.1780242919922
0, 6, 39, 195.2962646484375
0, 6, 40, 174.6894836425781
0, 6, 41, 186.0307159423828
0, 6, 42, 175.3434295654297
0, 6, 43, 211.6473999023438
0, 6, 44, 209.9419860839844
0, 6, 45, 194.2629852294922
0, 6, 46, 188.2696533203125
0, 6, 47, 203.8878479003906
0, 6, 48, 189.1493225097656
0, 6, 49, 179.4104614257812
0, 6, 50, 182.4775848388672
0, 6, 51, 196.0091247558594
0, 6, 52, 198.2045745849609
0, 6, 53, 185.3568420410156
0, 6, 54, 176.3310241699219
0, 6, 55, 195.1804809570312
0, 6, 56, 202.1734924316406
0, 6, 57, 192.9392852783203
0, 6, 58, 178.3832092285156
0, 6, 59, 191.8708648681641
0, 6, 60, 184.1667327880859
0, 6, 61, 193.8135070800781
0, 6, 62, 197.0782775878906
0, 6, 63, 187.3692932128906
0, 6, 64, 168.1142425537109
0, 6, 65, 185.3484039306641
0, 6, 66, 197.6270599365234
0, 6, 67, 215.0729675292969
0, 6, 68, 180.8512420654297
0, 6, 69, 170.1849975585938
0, 6, 70, 187.1987152099609
0, 6, 71, 170.4928588867188
0, 6, 72, 176.5445404052734
0, 6, 73, 176.1637878417969
0, 6, 74, 210.8055877685547
0, 6, 75, 229.477783203125
0, 6, 76, 184.6977081298828
0, 6, 77, 172.6943359375
0, 6, 78, 175.6690673828125
0, 6, 79, 185.7678680419922
0, 6, 80, 187.5732269287109
0, 6, 81, 208.0158233642578
0, 6, 82, 195.2737579345703
0, 6, 83, 194.5745239257812
0, 6, 84, 197.2035217285156
0, 6, 85, 180.3311157226562
0, 6, 86, 203.2268981933594
0, 6, 87, 183.0589294433594
0, 6, 88, 192.0888977050781
0, 6, 89, 188.8951721191406
0, 6, 90, 205.4368438720703
0, 6, 91, 199.8045501708984
0, 6, 92, 173.7547149658203
0, 6, 93, 193.0472564697266
0, 6, 94, 189.0384826660156
0, 6, 95, 185.1126708984375
0, 6, 96, 191.0248260498047
0, 6, 97, 195.2315521240234
0, 6, 98, 183.2286224365234
0, 6, 99, 174.4530181884766
0, 6, 100, 202.0239715576172
0, 6, 101, 168.5970458984375
0, 6, 102, 201.7648468017578
0, 6, 103, 197.0960998535156
0, 6, 104, 183.568115234375
0, 6, 105, 194.8930969238281
0, 6, 106, 177.7337646484375
0, 6, 107, 194.3904724121094
0, 6, 108, 171.41162109375
0, 6, 109, 115.8807220458984
0, 6, 110, 33.9425163269043
0, 6, 111, 8.822671890258789
0, 6, 112, 8.318818092346191
0, 6, 113, 5.490028858184814
0, 6, 114, 5.989030838012695
0, 6, 115, 6.85296106338501
0, 6, 116, 4.965302467346191
0, 6, 117, 3.963324069976807
0, 6, 118, 3.077438592910767
0, 6, 119, 3.910702228546143
0, 6, 120, 3.573943853378296
0, 6, 121, 6.381906986236572
0, 6, 122, 3.144272327423096
0, 6, 123, 2.735674142837524
0, 6, 124, 1.630833983421326
0, 6, 125, 2.779960155487061
0, 6, 126, 1.748349666595459
0, 6, 127, 1.920234441757202
0, 7, 0, 3.116800785064697
0, 7, 1, 2.800861597061157
0, 7, 2, 3.066106796264648
0, 7, 3, 2.307287454605103
0, 7, 4, 0.6530202031135559
0, 7, 5, 1.445448517799377
0, 7, 6, 2.432829856872559
0, 7, 7, 2.348899126052856
0, 7, 8, 2.423115015029907
0, 7, 9, 2.691904783248901
0, 7, 10, 5.335121631622314
0, 7, 11, 2.899422645568848
0, 7, 12, 3.935438394546509
0, 7, 13, 7.367667198181152
0, 7, 14, 7.66840124130249
0, 7, 15, 6.956485748291016
0, 7, 16, 14.60917282104492
0, 7, 17, 50.05296325683594
0, 7, 18, 163.6305236816406
0, 7, 19, 181.44921875
0, 7, 20, 179.306884765625
0, 7, 21, 180.2615203857422
0, 7, 22, 191.0731201171875
0, 7, 23, 203.7577056884766
0, 7, 24, 179.8481140136719
0, 7, 25, 213.1481323242188
0, 7, 26, 189.3574981689453
0, 7, 27, 181.9310913085938
0, 7, 28, 182.5483703613281
0, 7, 29, 208.7479400634766
0, 7, 30, 193.4356842041016
0, 7, 31, 176.5457305908203
0, 7, 32, 190.9102783203125
0, 7, 33, 182.8787841796875
0, 7, 34, 193.2156219482422
0, 7, 35, 200.118896484375
0, 7, 36, 188.5899200439453
0, 7, 37, 212.7842407226562
0, 7, 38, 191.4348297119141
0, 7, 39, 173.1580963134766
0, 7, 40, 183.1968536376953
0, 7, 41, 184.9688110351562
0, 7, 42, 178.7313690185547
0, 7, 43, 177.4911651611328
0, 7, 44, 179.9974670410156
0, 7, 45, 175.9781646728516
0, 7, 46, 188.7633666992188
0, 7, 47, 197.3574066162109
0, 7, 48, 184.8259124755859
0, 7, 49, 200.3939666748047
0, 7, 50, 188.2715606689453
0, 7, 51, 204.9581146240234
0, 7, 52, 203.6510620117188
0, 7, 53, 191.5021820068359
0, 7, 54, 195.4309234619141
0, 7, 55, 203.1027374267578
0, 7, 56, 183.6325531005859
0, 7, 57, 183.97119140625
0, 7, 58, 193.1810150146484
0, 7, 59, 186.5527648925781
0, 7, 60, 202.6237487792969
0, 7, 61, 171.6047668457031
0, 7, 62, 202.7197418212891
0, 7, 63, 189.0334320068359
0, 7, 64, 198.9286499023438
0, 7, 65, 196.6961364746094
0, 7, 66, 206.0498809814453
0, 7, 67, 221.4404754638672
0, 7, 68, 165.6485748291016
0, 7, 69, 194.4844207763672
0, 7, 70, 217.4264678955078
0, 7, 71, 184.6627502441406
0, 7, 72, 180.7391357421875
0, 7, 73, 177.7859039306641
0, 7, 74, 207.6726989746094
0, 7, 75, 205.2494506835938
0, 7, 76, 214.7104187011719
0, 7, 77, 174.9660491943359
0, 7, 78, 176.8707122802734
0, 7, 79, 193.7131500244141
0, 7, 80, 195.7720947265625
0, 7, 81, 215.8813323974609
0, 7, 82, 186.4200592041016
0, 7, 83, 205.4547576904297
0, 7, 84, 193.6272125244141
0, 7, 85, 187.2468414306641
0, 7, 86, 201.0384063720703
0, 7, 87, 224.9058227539062
0, 7, 88, 194.6748657226562
0, 7, 89, 175.9310150146484
0, 7, 90, 183.0888824462891
0, 7, 91, 194.3322143554688
0, 7, 92, 194.2674102783203
0, 7, 93, 198.4269714355469
0, 7, 94, 178.1299438476562
0, 7, 95, 197.9949798583984
0, 7, 96, 208.2807464599609
0, 7, 97, 188.1774291992188
0, 7, 98, 176.5499725341797
0, 7, 99, 196.4651794433594
0, 7, 100, 181.9190521240234
0, 7, 101, 199.5485687255859
0, 7, 102, 184.9516143798828
0, 7, 103, 181.1475830078125
0, 7, 104, 173.8606567382812
0, 7, 105, 194.6914672851562
0, 7, 106, 206.4505920410156
0, 7, 107, 174.2363433837891
0, 7, 108, 176.6920013427734
0, 7, 109, 136.7951202392578
0, 7, 110, 53.99451065063477
0, 7, 111, 8.582221031188965
0, 7, 112, 7.675095558166504
0, 7, 113, 8.985684394836426
0, 7, 114, 8.364142417907715
0, 7, 115, 4.860771179199219
0, 7, 116, 4.308661460876465
0, 7, 117, 2.546280384063721
0, 7, 118, 3.587774991989136
0, 7, 119, 2.230916738510132
0, 7, 120, 3.422824144363403
0, 7, 121, 1.548326253890991
0, 7, 122, 2.882402181625366
0, 7, 123, 1.216488480567932
0, 7, 124, 1.40738570690155
0, 7, 125, 2.821487426757812
0, 7, 126, 1.938502788543701
0, 7, 127, 2.03992223739624
0, 8, 0, 4.764522075653076
0, 8, 1, 1.797460556030273
0, 8, 2, 3.08220911026001
0, 8, 3, 2.151847362518311
0, 8, 4, 1.227771401405334
0, 8, 5, 2.998566389083862
0, 8, 6, 1.53752326965332
0, 8, 7, 4.111152172088623
0, 8, 8, 5.34709644317627
0, 8, 9, 5.163974761962891
0, 8, 10, 3.013924360275269
0, 8, 11, 2.928238868713379
0, 8, 12, 4.399854183197021
0, 8, 13, 4.570684432983398
0, 8, 14, 6.048084735870361
0, 8, 15, 8.592777252197266
0, 8, 16, 19.34417915344238
0, 8, 17, 76.08352661132812
0, 8, 18, 142.8799896240234
0, 8, 19, 177.5504913330078
0, 8, 20, 190.7429656982422
0, 8, 21, 193.5530395507812
0, 8, 22, 179.3082427978516
0, 8, 23, 172.8461456298828
0, 8, 24, 191.3545227050781
0, 8, 25, 185.1824645996094
0, 8, 26, 192.8011169433594
0, 8, 27, 186.0459899902344
0, 8, 28, 187.1343536376953
0, 8, 29, 207.7470092773438
0, 8, 30, 196.9007720947266
0, 8, 31, 184.8809204101562
0, 8, 32, 197.7018585205078
0, 8, 33, 207.0060119628906
0, 8, 34, 202.8621673583984
0, 8, 35, 184.4267425537109
0, 8, 36, 182.3245544433594
