# TOPAS Version: 3.1.p3
# Parameter File: batch_inserts_232.txt
# Results for scorer Readout_Adipose
# Scored in component: MyBox
# X in 1 bin  of 0.75 cm
# Y in 512 bins of 0.0783984 cm
# Z in 128 bins of 0.078125 cm
# EnergyDeposit ( MeV ) : Sum   
0, 0, 0, 2.929352760314941
0, 0, 1, 2.629997968673706
0, 0, 2, 4.534989356994629
0, 0, 3, 2.211416959762573
0, 0, 4, 3.470645189285278
0, 0, 5, 1.638547539710999
0, 0, 6, 6.442527294158936
0, 0, 7, 7.622669219970703
0, 0, 8, 4.024306774139404
0, 0, 9, 5.395367622375488
0, 0, 10, 6.712867259979248
0, 0, 11, 3.84136962890625
0, 0, 12, 5.586435794830322
0, 0, 13, 8.408283233642578
0, 0, 14, 6.843160152435303
0, 0, 15, 9.337458610534668
0, 0, 16, 8.09510326385498
0, 0, 17, 9.236557960510254
0, 0, 18, 13.66257286071777
0, 0, 19, 44.9510612487793
0, 0, 20, 140.7592926025391
0, 0, 21, 224.7223358154297
0, 0, 22, 248.0560607910156
0, 0, 23, 256.5368347167969
0, 0, 24, 250.3047332763672
0, 0, 25, 258.8416748046875
0, 0, 26, 234.3357696533203
0, 0, 27, 236.9536285400391
0, 0, 28, 272.7539672851562
0, 0, 29, 252.0670623779297
0, 0, 30, 230.6650238037109
0, 0, 31, 244.10888671875
0, 0, 32, 263.0094604492188
0, 0, 33, 261.183837890625
0, 0, 34, 288.0621032714844
0, 0, 35, 267.2698669433594
0, 0, 36, 247.2122650146484
0, 0, 37, 251.9994506835938
0, 0, 38, 267.7441101074219
0, 0, 39, 230.6487731933594
0, 0, 40, 242.0468597412109
0, 0, 41, 265.8630676269531
0, 0, 42, 232.0308532714844
0, 0, 43, 260.9040832519531
0, 0, 44, 253.2281188964844
0, 0, 45, 253.4918212890625
0, 0, 46, 243.3972473144531
0, 0, 47, 254.2143096923828
0, 0, 48, 266.9204406738281
0, 0, 49, 274.3768615722656
0, 0, 50, 250.3645477294922
0, 0, 51, 253.9041442871094
0, 0, 52, 272.0237426757812
0, 0, 53, 291.5529174804688
0, 0, 54, 242.8031158447266
0, 0, 55, 239.2344360351562
0, 0, 56, 276.5501708984375
0, 0, 57, 262.9589538574219
0, 0, 58, 245.4640045166016
0, 0, 59, 272.0884094238281
0, 0, 60, 234.2075805664062
0, 0, 61, 246.4864959716797
0, 0, 62, 258.96923828125
0, 0, 63, 268.6423645019531
0, 0, 64, 255.0277709960938
0, 0, 65, 260.2882690429688
0, 0, 66, 276.6475219726562
0, 0, 67, 248.1663818359375
0, 0, 68, 259.1356811523438
0, 0, 69, 260.4867858886719
0, 0, 70, 273.090087890625
0, 0, 71, 237.4490509033203
0, 0, 72, 248.7211456298828
0, 0, 73, 259.3793334960938
0, 0, 74, 252.1520385742188
0, 0, 75, 242.0141143798828
0, 0, 76, 228.1474304199219
0, 0, 77, 261.6255493164062
0, 0, 78, 255.6307525634766
0, 0, 79, 277.4524536132812
0, 0, 80, 217.06396484375
0, 0, 81, 267.1961059570312
0, 0, 82, 257.2923278808594
0, 0, 83, 244.9160003662109
0, 0, 84, 268.1729125976562
0, 0, 85, 232.4840545654297
0, 0, 86, 253.1346282958984
0, 0, 87, 252.3011474609375
0, 0, 88, 258.5055236816406
0, 0, 89, 282.1995239257812
0, 0, 90, 243.3437042236328
0, 0, 91, 280.6939697265625
0, 0, 92, 252.8639068603516
0, 0, 93, 250.3094024658203
0, 0, 94, 250.3031921386719
0, 0, 95, 249.7714538574219
0, 0, 96, 275.4731140136719
0, 0, 97, 274.3396911621094
0, 0, 98, 272.8074035644531
0, 0, 99, 258.7940063476562
0, 0, 100, 259.7012939453125
0, 0, 101, 225.7718963623047
0, 0, 102, 233.0943756103516
0, 0, 103, 269.654296875
0, 0, 104, 254.6261596679688
0, 0, 105, 250.7046203613281
0, 0, 106, 245.9162750244141
0, 0, 107, 151.9872589111328
0, 0, 108, 38.05171966552734
0, 0, 109, 11.18679141998291
0, 0, 110, 14.32689476013184
0, 0, 111, 9.880462646484375
0, 0, 112, 6.547202587127686
0, 0, 113, 4.183027744293213
0, 0, 114, 7.32346248626709
0, 0, 115, 5.6048264503479
0, 0, 116, 5.741236686706543
0, 0, 117, 6.161253452301025
0, 0, 118, 6.197161197662354
0, 0, 119, 3.655611515045166
0, 0, 120, 2.400592803955078
0, 0, 121, 3.520133256912231
0, 0, 122, 4.83329439163208
0, 0, 123, 3.626181364059448
0, 0, 124, 4.186766624450684
0, 0, 125, 2.232564687728882
0, 0, 126, 3.875358819961548
0, 0, 127, 6.470610618591309
0, 1, 0, 8.344996452331543
0, 1, 1, 3.151795864105225
0, 1, 2, 3.42396879196167
0, 1, 3, 2.06599497795105
0, 1, 4, 2.834926605224609
0, 1, 5, 4.189049243927002
0, 1, 6, 3.081121206283569
0, 1, 7, 5.553928375244141
0, 1, 8, 8.675408363342285
0, 1, 9, 3.534920215606689
0, 1, 10, 7.554553508758545
0, 1, 11, 11.3283634185791
0, 1, 12, 7.673007011413574
0, 1, 13, 8.09196662902832
0, 1, 14, 7.39667797088623
0, 1, 15, 8.011211395263672
0, 1, 16, 11.29999256134033
0, 1, 17, 11.81907558441162
0, 1, 18, 22.7348518371582
0, 1, 19, 64.94232177734375
0, 1, 20, 199.9398803710938
0, 1, 21, 254.3223571777344
0, 1, 22, 296.2030639648438
0, 1, 23, 283.4542236328125
0, 1, 24, 275.1578674316406
0, 1, 25, 288.2008056640625
0, 1, 26, 269.9162902832031
0, 1, 27, 306.1627807617188
0, 1, 28, 299.7469177246094
0, 1, 29, 295.2683410644531
0, 1, 30, 280.152099609375
0, 1, 31, 292.628662109375
0, 1, 32, 290.3718566894531
0, 1, 33, 296.5765991210938
0, 1, 34, 291.8531188964844
0, 1, 35, 280.7001037597656
0, 1, 36, 305.45703125
0, 1, 37, 295.9088745117188
0, 1, 38, 278.0831604003906
0, 1, 39, 296.8503112792969
0, 1, 40, 268.7722473144531
0, 1, 41, 286.1351318359375
0, 1, 42, 289.48828125
0, 1, 43, 331.0296630859375
0, 1, 44, 278.0585327148438
0, 1, 45, 292.1634216308594
0, 1, 46, 260.4111328125
0, 1, 47, 310.828125
0, 1, 48, 283.8365173339844
0, 1, 49, 300.70458984375
0, 1, 50, 262.285400390625
0, 1, 51, 272.6369323730469
0, 1, 52, 294.5646362304688
0, 1, 53, 304.8050842285156
0, 1, 54, 273.3670959472656
0, 1, 55, 292.2905883789062
0, 1, 56, 279.7073974609375
0, 1, 57, 296.4661865234375
0, 1, 58, 312.8977966308594
0, 1, 59, 291.686279296875
0, 1, 60, 298.5083312988281
0, 1, 61, 274.044921875
0, 1, 62, 308.3640747070312
0, 1, 63, 285.5662231445312
0, 1, 64, 287.1161499023438
0, 1, 65, 295.3680725097656
0, 1, 66, 291.4591979980469
0, 1, 67, 291.1808776855469
0, 1, 68, 277.265869140625
0, 1, 69, 279.658935546875
0, 1, 70, 270.6752319335938
0, 1, 71, 274.9793090820312
0, 1, 72, 285.3302001953125
0, 1, 73, 303.7134704589844
0, 1, 74, 303.4046020507812
0, 1, 75, 293.3107299804688
0, 1, 76, 284.4729614257812
0, 1, 77, 289.9881286621094
0, 1, 78, 301.10888671875
0, 1, 79, 303.323486328125
0, 1, 80, 295.2902526855469
0, 1, 81, 300.1510009765625
0, 1, 82, 283.5377807617188
0, 1, 83, 334.5551147460938
0, 1, 84, 308.9119567871094
0, 1, 85, 252.2010498046875
0, 1, 86, 296.120849609375
0, 1, 87, 291.1778259277344
0, 1, 88, 300.6387023925781
0, 1, 89, 290.7048950195312
0, 1, 90, 269.2281188964844
0, 1, 91, 318.3668212890625
0, 1, 92, 290.8515930175781
0, 1, 93, 286.4855041503906
0, 1, 94, 304.3569641113281
0, 1, 95, 283.27001953125
0, 1, 96, 284.971923828125
0, 1, 97, 300.4570617675781
0, 1, 98, 279.9117126464844
0, 1, 99, 268.3377075195312
0, 1, 100, 276.0786437988281
0, 1, 101, 283.6303405761719
0, 1, 102, 278.1786193847656
0, 1, 103, 281.0889587402344
0, 1, 104, 307.4681091308594
0, 1, 105, 297.752685546875
0, 1, 106, 261.2173767089844
0, 1, 107, 193.1941070556641
0, 1, 108, 79.96350860595703
0, 1, 109, 25.24104118347168
0, 1, 110, 10.78548336029053
0, 1, 111, 7.899534225463867
0, 1, 112, 11.3526782989502
0, 1, 113, 4.550020217895508
0, 1, 114, 6.949341297149658
0, 1, 115, 6.435194969177246
0, 1, 116, 10.74509048461914
0, 1, 117, 5.650381565093994
0, 1, 118, 3.874400854110718
0, 1, 119, 7.376099586486816
0, 1, 120, 4.844768524169922
0, 1, 121, 4.444042682647705
0, 1, 122, 2.849257707595825
0, 1, 123, 4.951663970947266
0, 1, 124, 7.048519611358643
0, 1, 125, 3.900621175765991
0, 1, 126, 1.469541668891907
0, 1, 127, 2.939269781112671
0, 2, 0, 6.236697196960449
0, 2, 1, 3.497060537338257
0, 2, 2, 5.754134654998779
0, 2, 3, 5.50800609588623
0, 2, 4, 3.397649765014648
0, 2, 5, 1.467503666877747
0, 2, 6, 2.343741655349731
0, 2, 7, 3.559613466262817
0, 2, 8, 3.735623836517334
0, 2, 9, 6.075356006622314
0, 2, 10, 10.27030086517334
0, 2, 11, 5.212962627410889
0, 2, 12, 6.137165546417236
0, 2, 13, 9.372628211975098
0, 2, 14, 11.07244491577148
0, 2, 15, 9.28404426574707
0, 2, 16, 8.912276268005371
0, 2, 17, 17.56768226623535
0, 2, 18, 31.60613059997559
0, 2, 19, 116.012092590332
0, 2, 20, 245.5735778808594
0, 2, 21, 271.1963195800781
0, 2, 22, 315.1397094726562
0, 2, 23, 300.4222106933594
0, 2, 24, 288.38330078125
0, 2, 25, 301.9705810546875
0, 2, 26, 294.6287841796875
0, 2, 27, 274.4010009765625
0, 2, 28, 271.8880920410156
0, 2, 29, 274.093017578125
0, 2, 30, 288.6192626953125
0, 2, 31, 278.8428039550781
0, 2, 32, 293.4840087890625
0, 2, 33, 282.2651977539062
0, 2, 34, 330.3887634277344
0, 2, 35, 288.9917602539062
0, 2, 36, 303.5309753417969
0, 2, 37, 314.9599914550781
0, 2, 38, 311.9054870605469
0, 2, 39, 269.6499938964844
0, 2, 40, 309.6897583007812
0, 2, 41, 291.1760559082031
0, 2, 42, 304.371826171875
0, 2, 43, 312.0556030273438
0, 2, 44, 311.3772888183594
0, 2, 45, 325.2147521972656
0, 2, 46, 285.4472961425781
0, 2, 47, 302.4194030761719
0, 2, 48, 280.8523864746094
0, 2, 49, 279.2967224121094
0, 2, 50, 295.7241821289062
0, 2, 51, 282.9673156738281
0, 2, 52, 274.9277038574219
0, 2, 53, 287.3035888671875
0, 2, 54, 278.8943786621094
0, 2, 55, 275.3624877929688
0, 2, 56, 301.2928161621094
0, 2, 57, 291.3851928710938
0, 2, 58, 302.0367126464844
0, 2, 59, 290.0735168457031
0, 2, 60, 318.0030517578125
0, 2, 61, 301.9349060058594
0, 2, 62, 314.3750610351562
0, 2, 63, 302.0045471191406
0, 2, 64, 297.059814453125
0, 2, 65, 315.3723754882812
0, 2, 66, 279.7366027832031
0, 2, 67, 293.2263488769531
0, 2, 68, 296.2926330566406
0, 2, 69, 312.1268615722656
0, 2, 70, 336.935791015625
0, 2, 71, 285.3444213867188
0, 2, 72, 302.1487731933594
0, 2, 73, 312.15966796875
0, 2, 74, 289.2083435058594
0, 2, 75, 305.3557739257812
0, 2, 76, 287.6773071289062
0, 2, 77, 300.4246826171875
0, 2, 78, 316.3497924804688
0, 2, 79, 307.8479309082031
0, 2, 80, 296.7677612304688
0, 2, 81, 282.56591796875
0, 2, 82, 317.4389953613281
0, 2, 83, 311.2610778808594
0, 2, 84, 289.2187194824219
0, 2, 85, 281.7096862792969
0, 2, 86, 325.3159790039062
0, 2, 87, 288.0739135742188
0, 2, 88, 281.4914245605469
0, 2, 89, 298.0524597167969
0, 2, 90, 295.0559387207031
0, 2, 91, 277.9911499023438
0, 2, 92, 306.3994445800781
0, 2, 93, 316.4617004394531
0, 2, 94, 292.7961120605469
0, 2, 95, 314.1607971191406
0, 2, 96, 314.082763671875
0, 2, 97, 290.4241027832031
0, 2, 98, 295.2051086425781
0, 2, 99, 273.7157897949219
0, 2, 100, 307.3481140136719
0, 2, 101, 300.2697143554688
0, 2, 102, 296.2214965820312
0, 2, 103, 292.7315368652344
0, 2, 104, 291.6860961914062
0, 2, 105, 274.1441040039062
0, 2, 106, 297.2252197265625
0, 2, 107, 269.0504150390625
0, 2, 108, 115.5940017700195
0, 2, 109, 32.52738571166992
0, 2, 110, 10.96182441711426
0, 2, 111, 12.39511108398438
0, 2, 112, 7.392458915710449
0, 2, 113, 9.662109375
0, 2, 114, 8.801589965820312
0, 2, 115, 10.61568069458008
0, 2, 116, 9.494791030883789
0, 2, 117, 5.27382755279541
0, 2, 118, 3.155880928039551
0, 2, 119, 2.74329686164856
0, 2, 120, 7.526900768280029
0, 2, 121, 2.715770721435547
0, 2, 122, 5.317476749420166
0, 2, 123, 3.880670070648193
0, 2, 124, 1.934860229492188
0, 2, 125, 5.372358322143555
0, 2, 126, 4.007858276367188
0, 2, 127, 5.260980606079102
0, 3, 0, 4.442294597625732
0, 3, 1, 4.449331283569336
0, 3, 2, 4.462540149688721
0, 3, 3, 1.431920528411865
0, 3, 4, 4.443542003631592
0, 3, 5, 7.902462482452393
0, 3, 6, 6.462429046630859
0, 3, 7, 5.016907215118408
0, 3, 8, 6.746170043945312
0, 3, 9, 7.096919059753418
0, 3, 10, 5.787765026092529
0, 3, 11, 6.164556503295898
0, 3, 12, 9.573623657226562
0, 3, 13, 14.32237911224365
0, 3, 14, 11.55718326568604
0, 3, 15, 14.87681102752686
0, 3, 16, 12.37133884429932
0, 3, 17, 20.26473045349121
0, 3, 18, 51.15240859985352
0, 3, 19, 176.6835327148438
0, 3, 20, 269.217041015625
0, 3, 21, 270.9324340820312
0, 3, 22, 281.7938842773438
0, 3, 23, 286.4176635742188
0, 3, 24, 286.3915405273438
0, 3, 25, 271.5744323730469
0, 3, 26, 303.5068969726562
0, 3, 27, 291.5245666503906
0, 3, 28, 283.5715637207031
0, 3, 29, 339.1545715332031
0, 3, 30, 316.427734375
0, 3, 31, 287.13623046875
0, 3, 32, 306.9363708496094
0, 3, 33, 314.3677062988281
0, 3, 34, 321.2503662109375
0, 3, 35, 305.5615844726562
0, 3, 36, 271.2872314453125
0, 3, 37, 315.4693908691406
0, 3, 38, 305.1531677246094
0, 3, 39, 291.0149536132812
0, 3, 40, 265.8617248535156
0, 3, 41, 302.7780151367188
0, 3, 42, 289.1824645996094
0, 3, 43, 304.6238708496094
0, 3, 44, 312.9264221191406
0, 3, 45, 291.8555603027344
0, 3, 46, 329.3705749511719
0, 3, 47, 298.8148498535156
0, 3, 48, 303.3644714355469
0, 3, 49, 275.8347778320312
0, 3, 50, 289.810546875
0, 3, 51, 275.5636596679688
0, 3, 52, 317.7743225097656
0, 3, 53, 289.0027160644531
0, 3, 54, 284.390869140625
0, 3, 55, 283.1964721679688
0, 3, 56, 299.0310363769531
0, 3, 57, 286.9096374511719
0, 3, 58, 305.3991088867188
0, 3, 59, 294.5355834960938
0, 3, 60, 298.72314453125
0, 3, 61, 265.0007934570312
0, 3, 62, 284.5087890625
0, 3, 63, 306.7549133300781
0, 3, 64, 316.8401184082031
0, 3, 65, 306.88330078125
0, 3, 66, 315.6881103515625
0, 3, 67, 317.5404968261719
0, 3, 68, 279.0372314453125
0, 3, 69, 284.2264099121094
0, 3, 70, 287.9073181152344
0, 3, 71, 301.443359375
0, 3, 72, 269.2196655273438
0, 3, 73, 310.4004516601562
0, 3, 74, 292.0692138671875
0, 3, 75, 291.6632995605469
0, 3, 76, 304.9655151367188
0, 3, 77, 313.729736328125
0, 3, 78, 304.0797119140625
0, 3, 79, 283.7700805664062
0, 3, 80, 289.4628295898438
0, 3, 81, 309.5686950683594
0, 3, 82, 317.4502563476562
0, 3, 83, 300.6084594726562
0, 3, 84, 310.5530090332031
0, 3, 85, 292.9367065429688
0, 3, 86, 303.1423034667969
0, 3, 87, 297.4100341796875
0, 3, 88, 298.238525390625
0, 3, 89, 296.9779052734375
0, 3, 90, 278.0151977539062
0, 3, 91, 284.0483093261719
0, 3, 92, 304.8894348144531
0, 3, 93, 312.1777648925781
0, 3, 94, 297.1662902832031
0, 3, 95, 333.3597412109375
0, 3, 96, 290.0389404296875
0, 3, 97, 284.4879455566406
0, 3, 98, 279.2777709960938
0, 3, 99, 261.9264831542969
0, 3, 100, 284.284423828125
0, 3, 101, 298.2734680175781
0, 3, 102, 275.1798095703125
0, 3, 103, 321.834228515625
0, 3, 104, 311.075439453125
0, 3, 105, 288.5225524902344
0, 3, 106, 302.4185180664062
0, 3, 107, 286.0293884277344
0, 3, 108, 168.0124816894531
0, 3, 109, 56.02935409545898
0, 3, 110, 17.09784126281738
0, 3, 111, 13.00275421142578
0, 3, 112, 11.5352087020874
0, 3, 113, 7.383250713348389
0, 3, 114, 9.035798072814941
0, 3, 115, 9.184103012084961
0, 3, 116, 10.20375061035156
0, 3, 117, 8.565827369689941
0, 3, 118, 11.23149585723877
0, 3, 119, 7.011638164520264
0, 3, 120, 7.270335674285889
0, 3, 121, 4.651115894317627
0, 3, 122, 2.635658502578735
0, 3, 123, 7.192776679992676
0, 3, 124, 6.353562831878662
0, 3, 125, 5.350554943084717
0, 3, 126, 3.651761531829834
0, 3, 127, 2.518942832946777
0, 4, 0, 3.046483516693115
0, 4, 1, 4.915097236633301
0, 4, 2, 2.99291467666626
0, 4, 3, 1.441815853118896
0, 4, 4, 6.573756694793701
0, 4, 5, 9.764247894287109
0, 4, 6, 5.515196323394775
0, 4, 7, 5.058128356933594
0, 4, 8, 4.273148059844971
0, 4, 9, 7.824604988098145
0, 4, 10, 6.795587062835693
0, 4, 11, 7.458632946014404
0, 4, 12, 5.131385326385498
0, 4, 13, 8.282749176025391
0, 4, 14, 11.01866436004639
0, 4, 15, 9.807530403137207
0, 4, 16, 13.97641372680664
0, 4, 17, 18.51598167419434
0, 4, 18, 92.90827941894531
0, 4, 19, 223.7018280029297
0, 4, 20, 284.993408203125
0, 4, 21, 272.784423828125
0, 4, 22, 304.4595336914062
0, 4, 23, 268.323974609375
0, 4, 24, 288.4197387695312
0, 4, 25, 272.0968322753906
0, 4, 26, 293.5670471191406
0, 4, 27, 282.1936950683594
0, 4, 28, 308.2088623046875
0, 4, 29, 322.399658203125
0, 4, 30, 308.6337890625
0, 4, 31, 305.8746032714844
0, 4, 32, 280.6405029296875
0, 4, 33, 296.9284362792969
0, 4, 34, 295.800537109375
0, 4, 35, 313.1312255859375
0, 4, 36, 294.2518310546875
0, 4, 37, 290.2954406738281
0, 4, 38, 298.7590942382812
0, 4, 39, 292.4264831542969
0, 4, 40, 302.3377075195312
0, 4, 41, 315.8026428222656
0, 4, 42, 331.1021118164062
0, 4, 43, 298.5545349121094
0, 4, 44, 320.8444213867188
0, 4, 45, 323.5250244140625
0, 4, 46, 305.19580078125
0, 4, 47, 293.9900207519531
0, 4, 48, 295.8112487792969
0, 4, 49, 277.8917236328125
0, 4, 50, 296.2908630371094
0, 4, 51, 317.7037353515625
0, 4, 52, 325.978515625
0, 4, 53, 304.2603454589844
0, 4, 54, 285.968994140625
0, 4, 55, 316.7387084960938
0, 4, 56, 287.5221862792969
0, 4, 57, 311.3688354492188
0, 4, 58, 297.6179809570312
0, 4, 59, 309.44482421875
0, 4, 60, 302.5115356445312
0, 4, 61, 314.2048034667969
0, 4, 62, 308.930419921875
0, 4, 63, 298.8882446289062
0, 4, 64, 331.6648864746094
0, 4, 65, 314.3260498046875
0, 4, 66, 290.8584594726562
0, 4, 67, 285.9891052246094
0, 4, 68, 313.4849853515625
0, 4, 69, 278.8341369628906
0, 4, 70, 299.3751831054688
0, 4, 71, 321.9911804199219
0, 4, 72, 333.8885803222656
0, 4, 73, 300.3522033691406
0, 4, 74, 292.843505859375
0, 4, 75, 290.9627685546875
0, 4, 76, 273.8904113769531
0, 4, 77, 279.1358337402344
0, 4, 78, 309.3743896484375
0, 4, 79, 318.7493896484375
0, 4, 80, 319.7564086914062
0, 4, 81, 313.8014221191406
0, 4, 82, 297.7931518554688
0, 4, 83, 302.276611328125
0, 4, 84, 290.5458679199219
0, 4, 85, 294.6340637207031
0, 4, 86, 300.0706787109375
0, 4, 87, 284.3136901855469
0, 4, 88, 305.5883483886719
0, 4, 89, 294.4149780273438
0, 4, 90, 333.3480834960938
0, 4, 91, 304.7455749511719
0, 4, 92, 288.4232177734375
0, 4, 93, 296.1715698242188
0, 4, 94, 292.1376647949219
0, 4, 95, 286.9794616699219
0, 4, 96, 324.5848083496094
0, 4, 97, 274.2825622558594
0, 4, 98, 326.7783508300781
0, 4, 99, 314.6930847167969
0, 4, 100, 301.2652282714844
0, 4, 101, 256.282958984375
0, 4, 102, 297.3422241210938
0, 4, 103, 316.0589294433594
0, 4, 104, 283.6627807617188
0, 4, 105, 313.4440307617188
0, 4, 106, 288.7155151367188
0, 4, 107, 293.6071166992188
0, 4, 108, 226.5807342529297
0, 4, 109, 80.31511688232422
0, 4, 110, 19.58771133422852
0, 4, 111, 13.00731372833252
0, 4, 112, 8.043264389038086
0, 4, 113, 10.76069068908691
0, 4, 114, 10.3848876953125
0, 4, 115, 10.4405689239502
0, 4, 116, 7.15514087677002
0, 4, 117, 7.013919830322266
0, 4, 118, 8.433330535888672
0, 4, 119, 9.680290222167969
0, 4, 120, 5.781410694122314
0, 4, 121, 3.361355543136597
0, 4, 122, 3.292381525039673
0, 4, 123, 6.617665767669678
0, 4, 124, 6.040525913238525
0, 4, 125, 10.07048892974854
0, 4, 126, 6.081234931945801
0, 4, 127, 5.00307035446167
0, 5, 0, 4.007457733154297
0, 5, 1, 3.696259498596191
0, 5, 2, 3.625821590423584
0, 5, 3, 4.026459693908691
0, 5, 4, 4.069554328918457
0, 5, 5, 5.660473823547363
0, 5, 6, 4.682595252990723
0, 5, 7, 6.027294158935547
0, 5, 8, 4.895390033721924
0, 5, 9, 4.622026443481445
0, 5, 10, 8.79261302947998
0, 5, 11, 6.999456882476807
0, 5, 12, 7.29993724822998
0, 5, 13, 6.966455459594727
0, 5, 14, 13.083815574646
0, 5, 15, 18.14768981933594
0, 5, 16, 13.871994972229
0, 5, 17, 28.26587867736816
0, 5, 18, 137.9120635986328
0, 5, 19, 290.4693298339844
0, 5, 20, 306.2079467773438
0, 5, 21, 317.4911804199219
0, 5, 22, 275.5145263671875
0, 5, 23, 311.6226501464844
0, 5, 24, 301.573486328125
0, 5, 25, 290.013427734375
0, 5, 26, 295.2505187988281
0, 5, 27, 322.1983642578125
0, 5, 28, 303.0438537597656
0, 5, 29, 299.0337524414062
0, 5, 30, 324.9909057617188
0, 5, 31, 287.0534973144531
0, 5, 32, 303.6529846191406
0, 5, 33, 304.7049560546875
0, 5, 34, 298.6767883300781
0, 5, 35, 309.96044921875
0, 5, 36, 269.6479797363281
0, 5, 37, 281.0061950683594
0, 5, 38, 291.1126098632812
0, 5, 39, 312.2513427734375
0, 5, 40, 308.2885131835938
0, 5, 41, 275.2811889648438
0, 5, 42, 307.8564147949219
0, 5, 43, 314.3659362792969
0, 5, 44, 291.9150085449219
0, 5, 45, 302.6935729980469
0, 5, 46, 264.6890869140625
0, 5, 47, 280.3040161132812
0, 5, 48, 294.6919860839844
0, 5, 49, 287.4286193847656
0, 5, 50, 297.4640808105469
0, 5, 51, 279.4083862304688
0, 5, 52, 268.8216552734375
0, 5, 53, 283.6835327148438
0, 5, 54, 291.7085571289062
0, 5, 55, 346.5282897949219
0, 5, 56, 305.3674011230469
0, 5, 57, 307.6056518554688
0, 5, 58, 312.374267578125
0, 5, 59, 303.0630493164062
0, 5, 60, 308.5574951171875
0, 5, 61, 281.3628234863281
0, 5, 62, 327.8765869140625
0, 5, 63, 292.4544372558594
0, 5, 64, 323.1960144042969
0, 5, 65, 306.9323425292969
0, 5, 66, 328.5584411621094
0, 5, 67, 313.6251831054688
0, 5, 68, 308.9319458007812
0, 5, 69, 311.1196899414062
0, 5, 70, 300.0481872558594
0, 5, 71, 272.3741760253906
0, 5, 72, 309.1571044921875
0, 5, 73, 302.3490295410156
0, 5, 74, 295.3054504394531
0, 5, 75, 294.14111328125
0, 5, 76, 286.3820190429688
0, 5, 77, 303.8776550292969
0, 5, 78, 314.8639221191406
0, 5, 79, 306.1685485839844
0, 5, 80, 294.4012756347656
0, 5, 81, 325.2987365722656
0, 5, 82, 324.5334777832031
0, 5, 83, 279.5433349609375
0, 5, 84, 302.3390502929688
0, 5, 85, 270.4196472167969
0, 5, 86, 327.1712341308594
0, 5, 87, 284.6958618164062
0, 5, 88, 315.7950439453125
0, 5, 89, 305.7896423339844
0, 5, 90, 315.8983154296875
0, 5, 91, 315.7469177246094
0, 5, 92, 296.423583984375
0, 5, 93, 321.5846252441406
0, 5, 94, 308.6626892089844
0, 5, 95, 296.5364074707031
0, 5, 96, 297.7429809570312
0, 5, 97, 295.1102294921875
0, 5, 98, 318.767333984375
0, 5, 99, 301.7349853515625
0, 5, 100, 290.0543212890625
0, 5, 101, 307.8367919921875
0, 5, 102, 292.6259460449219
0, 5, 103, 313.4770202636719
0, 5, 104, 304.9586791992188
0, 5, 105, 290.6158752441406
0, 5, 106, 280.7242431640625
0, 5, 107, 292.287841796875
0, 5, 108, 265.8287963867188
0, 5, 109, 156.4821166992188
0, 5, 110, 40.81063461303711
0, 5, 111, 21.43430137634277
0, 5, 112, 18.12351417541504
0, 5, 113, 14.19779682159424
0, 5, 114, 12.35676002502441
0, 5, 115, 7.274283409118652
0, 5, 116, 6.588382244110107
0, 5, 117, 5.219639778137207
0, 5, 118, 12.51471710205078
0, 5, 119, 3.056833505630493
0, 5, 120, 7.498061656951904
0, 5, 121, 7.258999347686768
0, 5, 122, 6.543216228485107
0, 5, 123, 6.577926635742188
0, 5, 124, 4.924250602722168
0, 5, 125, 5.314618110656738
0, 5, 126, 6.738739013671875
0, 5, 127, 3.601174116134644
0, 6, 0, 6.017251968383789
0, 6, 1, 3.179604291915894
0, 6, 2, 8.408869743347168
0, 6, 3, 6.264805793762207
0, 6, 4, 4.388699054718018
0, 6, 5, 6.767944812774658
0, 6, 6, 8.862887382507324
0, 6, 7, 5.234115600585938
0, 6, 8, 8.075799942016602
0, 6, 9, 6.287253856658936
0, 6, 10, 7.498600482940674
0, 6, 11, 8.155404090881348
0, 6, 12, 8.415634155273438
0, 6, 13, 17.89276123046875
0, 6, 14, 9.80604362487793
0, 6, 15, 15.12512016296387
0, 6, 16, 27.31307601928711
0, 6, 17, 56.88827514648438
0, 6, 18, 172.9302978515625
0, 6, 19, 275.6412353515625
0, 6, 20, 291.680419921875
0, 6, 21, 313.6284790039062
0, 6, 22, 319.2417297363281
0, 6, 23, 304.4577941894531
0, 6, 24, 316.0528869628906
0, 6, 25, 315.8219909667969
0, 6, 26, 320.6309509277344
0, 6, 27, 331.2228698730469
0, 6, 28, 296.9618225097656
0, 6, 29, 328.9961853027344
0, 6, 30, 284.7094421386719
0, 6, 31, 286.6045837402344
0, 6, 32, 342.1462707519531
0, 6, 33, 300.882568359375
0, 6, 34, 339.7715454101562
0, 6, 35, 320.7618408203125
0, 6, 36, 271.7765502929688
0, 6, 37, 290.2923889160156
0, 6, 38, 314.1087341308594
0, 6, 39, 300.7708435058594
0, 6, 40, 285.5580749511719
0, 6, 41, 296.0739135742188
0, 6, 42, 303.1067199707031
0, 6, 43, 288.2822265625
0, 6, 44, 279.6372680664062
0, 6, 45, 321.0214233398438
0, 6, 46, 300.1021728515625
0, 6, 47, 333.2702941894531
0, 6, 48, 292.2046203613281
0, 6, 49, 312.2215576171875
0, 6, 50, 329.0125732421875
0, 6, 51, 312.1475830078125
0, 6, 52, 322.9670715332031
0, 6, 53, 327.2604064941406
0, 6, 54, 304.4604187011719
0, 6, 55, 304.8586120605469
0, 6, 56, 292.6584167480469
0, 6, 57, 311.8759765625
0, 6, 58, 264.3832397460938
0, 6, 59, 302.8611145019531
0, 6, 60, 311.1996154785156
0, 6, 61, 272.6472778320312
0, 6, 62, 336.625
0, 6, 63, 323.548828125
0, 6, 64, 290.4842834472656
0, 6, 65, 282.959716796875
0, 6, 66, 302.4879150390625
0, 6, 67, 309.0599365234375
0, 6, 68, 293.414794921875
0, 6, 69, 278.5941162109375
0, 6, 70, 273.9598083496094
0, 6, 71, 289.1974792480469
0, 6, 72, 310.2970581054688
0, 6, 73, 291.9486083984375
0, 6, 74, 330.5727844238281
0, 6, 75, 342.2745971679688
0, 6, 76, 298.7177734375
0, 6, 77, 285.4107055664062
0, 6, 78, 278.7959594726562
0, 6, 79, 293.1058349609375
0, 6, 80, 298.5912170410156
0, 6, 81, 314.6687927246094
0, 6, 82, 319.1324462890625
0, 6, 83, 321.3511657714844
0, 6, 84, 296.3685302734375
0, 6, 85, 302.2944946289062
0, 6, 86, 329.5625
0, 6, 87, 292.3515625
0, 6, 88, 305.6539001464844
0, 6, 89, 303.4276123046875
0, 6, 90, 298.4679870605469
0, 6, 91, 312.1000061035156
0, 6, 92, 284.2506713867188
0, 6, 93, 295.2865295410156
0, 6, 94, 273.2601013183594
0, 6, 95, 304.6224365234375
0, 6, 96, 349.1712646484375
0, 6, 97, 308.3842163085938
0, 6, 98, 300.7811889648438
0, 6, 99, 272.3063659667969
0, 6, 100, 310.2453918457031
0, 6, 101, 292.3196105957031
0, 6, 102, 307.0693054199219
0, 6, 103, 308.103271484375
0, 6, 104, 291.5673828125
0, 6, 105, 301.2777099609375
0, 6, 106, 309.3656616210938
0, 6, 107, 306.3668823242188
0, 6, 108, 266.7417602539062
0, 6, 109, 186.0464477539062
0, 6, 110, 54.79397964477539
0, 6, 111, 24.94808769226074
0, 6, 112, 13.91416645050049
0, 6, 113, 13.8556489944458
0, 6, 114, 13.40324401855469
0, 6, 115, 11.49606704711914
0, 6, 116, 10.7488842010498
0, 6, 117, 9.380117416381836
0, 6, 118, 11.18406295776367
0, 6, 119, 6.986220836639404
0, 6, 120, 5.618720531463623
0, 6, 121, 6.565903663635254
0, 6, 122, 7.967455863952637
0, 6, 123, 4.1938157081604
0, 6, 124, 6.040780067443848
0, 6, 125, 6.129023551940918
0, 6, 126, 3.239078044891357
0, 6, 127, 8.912788391113281
0, 7, 0, 4.707771301269531
0, 7, 1, 3.192272901535034
0, 7, 2, 6.030301094055176
0, 7, 3, 3.875481128692627
0, 7, 4, 3.395334482192993
0, 7, 5, 6.986065864562988
0, 7, 6, 5.788562774658203
0, 7, 7, 4.741719722747803
0, 7, 8, 5.922040462493896
0, 7, 9, 5.778703689575195
0, 7, 10, 7.8634934425354
0, 7, 11, 9.700212478637695
0, 7, 12, 9.985742568969727
0, 7, 13, 11.51942253112793
0, 7, 14, 11.76033782958984
0, 7, 15, 15.51177406311035
0, 7, 16, 26.23687744140625
0, 7, 17, 98.25732421875
0, 7, 18, 218.9474487304688
0, 7, 19, 289.6203308105469
0, 7, 20, 297.9156494140625
0, 7, 21, 277.8946228027344
0, 7, 22, 299.9648742675781
0, 7, 23, 289.4529418945312
0, 7, 24, 313.8349914550781
0, 7, 25, 323.5013732910156
0, 7, 26, 278.1774597167969
0, 7, 27, 300.6336364746094
0, 7, 28, 325.9513244628906
0, 7, 29, 316.6825866699219
0, 7, 30, 298.7197570800781
0, 7, 31, 276.3735961914062
0, 7, 32, 306.4338989257812
0, 7, 33, 262.8124084472656
0, 7, 34, 299.5624389648438
0, 7, 35, 318.7107543945312
0, 7, 36, 330.411376953125
0, 7, 37, 323.9305114746094
0, 7, 38, 296.8514709472656
0, 7, 39, 305.6956176757812
0, 7, 40, 288.9454040527344
0, 7, 41, 271.6100158691406
0, 7, 42, 299.7032470703125
0, 7, 43, 278.5478210449219
0, 7, 44, 304.6322631835938
0, 7, 45, 295.3699035644531
0, 7, 46, 283.6788330078125
0, 7, 47, 330.5201416015625
0, 7, 48, 286.1629638671875
0, 7, 49, 301.0860595703125
0, 7, 50, 321.9097290039062
0, 7, 51, 299.80419921875
0, 7, 52, 326.5917663574219
0, 7, 53, 309.7939453125
0, 7, 54, 325.8001403808594
0, 7, 55, 308.1583862304688
0, 7, 56, 279.2579956054688
0, 7, 57, 286.3826904296875
0, 7, 58, 296.5523071289062
0, 7, 59, 294.3307495117188
0, 7, 60, 322.6441040039062
0, 7, 61, 279.2511901855469
0, 7, 62, 297.4575805664062
0, 7, 63, 294.39697265625
0, 7, 64, 307.6765441894531
0, 7, 65, 330.8236999511719
0, 7, 66, 319.7624206542969
0, 7, 67, 302.00146484375
0, 7, 68, 280.7855834960938
0, 7, 69, 295.2398986816406
0, 7, 70, 301.9791259765625
0, 7, 71, 309.677490234375
0, 7, 72, 284.7830810546875
0, 7, 73, 297.8371887207031
0, 7, 74, 345.3328857421875
0, 7, 75, 319.1045837402344
0, 7, 76, 323.6290588378906
0, 7, 77, 278.7914733886719
0, 7, 78, 305.0813293457031
0, 7, 79, 298.0393981933594
0, 7, 80, 310.6140747070312
0, 7, 81, 321.1764831542969
0, 7, 82, 328.6620178222656
0, 7, 83, 318.9265441894531
0, 7, 84, 309.0804443359375
0, 7, 85, 271.2606201171875
0, 7, 86, 311.2449645996094
0, 7, 87, 308.6869201660156
0, 7, 88, 307.9495849609375
0, 7, 89, 294.8647155761719
0, 7, 90, 307.5495910644531
0, 7, 91, 318.2559204101562
0, 7, 92, 289.6744689941406
0, 7, 93, 308.4985656738281
0, 7, 94, 273.2550964355469
0, 7, 95, 296.8878479003906
0, 7, 96, 330.952880859375
0, 7, 97, 293.9066162109375
0, 7, 98, 291.62255859375
0, 7, 99, 311.0616455078125
0, 7, 100, 280.169677734375
0, 7, 101, 275.1535034179688
0, 7, 102, 289.9467468261719
0, 7, 103, 293.2297668457031
0, 7, 104, 274.5786437988281
0, 7, 105, 306.4635314941406
0, 7, 106, 317.8292541503906
0, 7, 107, 297.6900024414062
0, 7, 108, 275.613037109375
0, 7, 109, 236.2049255371094
0, 7, 110, 95.53726196289062
0, 7, 111, 25.3142147064209
0, 7, 112, 13.9633674621582
0, 7, 113, 15.07380294799805
0, 7, 114, 12.69132900238037
0, 7, 115, 13.79985427856445
0, 7, 116, 7.495352745056152
0, 7, 117, 8.801164627075195
0, 7, 118, 10.48357963562012
0, 7, 119, 7.55065393447876
0, 7, 120, 4.750856876373291
0, 7, 121, 6.012877464294434
0, 7, 122, 6.364120006561279
0, 7, 123, 10.01148223876953
0, 7, 124, 3.674373865127563
0, 7, 125, 5.854917526245117
0, 7, 126, 9.198668479919434
0, 7, 127, 2.104937314987183
0, 8, 0, 4.810451984405518
0, 8, 1, 4.683072090148926
0, 8, 2, 5.641016006469727
0, 8, 3, 3.06209135055542
0, 8, 4, 3.580783605575562
0, 8, 5, 5.200818538665771
0, 8, 6, 4.825733184814453
0, 8, 7, 4.666990756988525
0, 8, 8, 10.39083290100098
0, 8, 9, 4.082615375518799
0, 8, 10, 7.151691436767578
0, 8, 11, 12.74998188018799
0, 8, 12, 13.45214653015137
0, 8, 13, 16.89359092712402
0, 8, 14, 14.09194183349609
0, 8, 15, 19.62211227416992
0, 8, 16, 32.73229598999023
0, 8, 17, 129.8919219970703
0, 8, 18, 242.4931335449219
0, 8, 19, 295.1923217773438
0, 8, 20, 284.9847412109375
0, 8, 21, 306.5212707519531
0, 8, 22, 294.1918029785156
0, 8, 23, 275.7754211425781
0, 8, 24, 268.9007568359375
0, 8, 25, 274.6559753417969
0, 8, 26, 307.1727905273438
0, 8, 27, 307.3574523925781
0, 8, 28, 303.2385864257812
0, 8, 29, 319.9861450195312
0, 8, 30, 317.1123657226562
0, 8, 31, 305.4850158691406
0, 8, 32, 281.7279052734375
0, 8, 33, 294.6851196289062
0, 8, 34, 287.464111328125
0, 8, 35, 279.8693237304688
0, 8, 36, 317.618408203125
0, 8, 37, 339.539306640625
0, 8, 38, 331.6467590332031
0, 8, 39, 281.6448059082031
0, 8, 40, 306.0868530273438
0, 8, 41, 294.3967895507812
