# TOPAS Version: 3.1.p3
# Parameter File: batch_inserts_88.txt
# Results for scorer Readout_Adipose
# Scored in component: MyBox
# X in 1 bin  of 0.75 cm
# Y in 512 bins of 0.0783984 cm
# Z in 128 bins of 0.078125 cm
# EnergyDeposit ( MeV ) : Sum   
0, 0, 0, 15.13228321075439
0, 0, 1, 20.93635749816895
0, 0, 2, 23.09318923950195
0, 0, 3, 21.30850601196289
0, 0, 4, 21.07945251464844
0, 0, 5, 20.30118751525879
0, 0, 6, 21.17806816101074
0, 0, 7, 34.28938293457031
0, 0, 8, 19.52796363830566
0, 0, 9, 23.27599906921387
0, 0, 10, 27.14279174804688
0, 0, 11, 29.59106636047363
0, 0, 12, 32.13346862792969
0, 0, 13, 31.46239280700684
0, 0, 14, 36.71158599853516
0, 0, 15, 46.44985580444336
0, 0, 16, 46.46290969848633
0, 0, 17, 46.43403244018555
0, 0, 18, 75.26374816894531
0, 0, 19, 186.9651336669922
0, 0, 20, 704.15673828125
0, 0, 21, 1190.352905273438
0, 0, 22, 1241.296508789062
0, 0, 23, 1274.62451171875
0, 0, 24, 1279.164794921875
0, 0, 25, 1357.530639648438
0, 0, 26, 1268.190185546875
0, 0, 27, 1283.917602539062
0, 0, 28, 1320.584716796875
0, 0, 29, 1267.715698242188
0, 0, 30, 1267.80419921875
0, 0, 31, 1280.370971679688
0, 0, 32, 1266.047973632812
0, 0, 33, 1240.893676757812
0, 0, 34, 1326.059326171875
0, 0, 35, 1301.7607421875
0, 0, 36, 1245.9453125
0, 0, 37, 1277.060302734375
0, 0, 38, 1252.8876953125
0, 0, 39, 1244.898681640625
0, 0, 40, 1223.138305664062
0, 0, 41, 1268.53515625
0, 0, 42, 1250.410766601562
0, 0, 43, 1267.281127929688
0, 0, 44, 1227.01171875
0, 0, 45, 1289.21923828125
0, 0, 46, 1266.778686523438
0, 0, 47, 1239.442138671875
0, 0, 48, 1280.433227539062
0, 0, 49, 1284.544555664062
0, 0, 50, 1312.427856445312
0, 0, 51, 1263.211181640625
0, 0, 52, 1362.47705078125
0, 0, 53, 1324.504150390625
0, 0, 54, 1292.993408203125
0, 0, 55, 1231.66259765625
0, 0, 56, 1319.001586914062
0, 0, 57, 1287.338623046875
0, 0, 58, 1253.284545898438
0, 0, 59, 1328.712036132812
0, 0, 60, 1324.197143554688
0, 0, 61, 1263.188842773438
0, 0, 62, 1244.263061523438
0, 0, 63, 1280.79931640625
0, 0, 64, 1332.294311523438
0, 0, 65, 1285.655883789062
0, 0, 66, 1314.533447265625
0, 0, 67, 1218.001220703125
0, 0, 68, 1313.888427734375
0, 0, 69, 1325.337646484375
0, 0, 70, 1345.451538085938
0, 0, 71, 1286.375122070312
0, 0, 72, 1311.555541992188
0, 0, 73, 1236.88623046875
0, 0, 74, 1286.07568359375
0, 0, 75, 1295.326049804688
0, 0, 76, 1257.564331054688
0, 0, 77, 1289.967041015625
0, 0, 78, 1315.138916015625
0, 0, 79, 1329.346557617188
0, 0, 80, 1260.3671875
0, 0, 81, 1319.54541015625
0, 0, 82, 1288.2666015625
0, 0, 83, 1291.66259765625
0, 0, 84, 1329.673583984375
0, 0, 85, 1235.346313476562
0, 0, 86, 1264.990234375
0, 0, 87, 1250.744018554688
0, 0, 88, 1256.775756835938
0, 0, 89, 1332.410522460938
0, 0, 90, 1277.61474609375
0, 0, 91, 1351.268920898438
0, 0, 92, 1301.651489257812
0, 0, 93, 1272.598999023438
0, 0, 94, 1243.734130859375
0, 0, 95, 1327.384155273438
0, 0, 96, 1285.858520507812
0, 0, 97, 1328.786499023438
0, 0, 98, 1254.632690429688
0, 0, 99, 1249.409545898438
0, 0, 100, 1284.521484375
0, 0, 101, 1312.242553710938
0, 0, 102, 1236.82666015625
0, 0, 103, 1321.073974609375
0, 0, 104, 1262.40087890625
0, 0, 105, 1269.963256835938
0, 0, 106, 1208.594116210938
0, 0, 107, 779.4952392578125
0, 0, 108, 192.6464385986328
0, 0, 109, 69.73218536376953
0, 0, 110, 64.2335205078125
0, 0, 111, 41.52156448364258
0, 0, 112, 36.71708297729492
0, 0, 113, 36.90028762817383
0, 0, 114, 33.0662841796875
0, 0, 115, 29.67391014099121
0, 0, 116, 31.61046600341797
0, 0, 117, 30.44067192077637
0, 0, 118, 22.5212230682373
0, 0, 119, 22.87886238098145
0, 0, 120, 24.55158805847168
0, 0, 121, 29.31812858581543
0, 0, 122, 25.70549392700195
0, 0, 123, 22.95112800598145
0, 0, 124, 20.69411087036133
0, 0, 125, 20.94189262390137
0, 0, 126, 22.89678573608398
0, 0, 127, 15.62942314147949
0, 1, 0, 24.27975082397461
0, 1, 1, 22.43166732788086
0, 1, 2, 21.62128448486328
0, 1, 3, 23.48881340026855
0, 1, 4, 21.62762451171875
0, 1, 5, 22.75811195373535
0, 1, 6, 24.36559104919434
0, 1, 7, 24.35742568969727
0, 1, 8, 33.77713775634766
0, 1, 9, 30.0584774017334
0, 1, 10, 31.21027183532715
0, 1, 11, 39.2391357421875
0, 1, 12, 39.06635284423828
0, 1, 13, 41.45380783081055
0, 1, 14, 42.56064224243164
0, 1, 15, 51.71441268920898
0, 1, 16, 59.40118026733398
0, 1, 17, 59.48796081542969
0, 1, 18, 104.9325637817383
0, 1, 19, 400.6402282714844
0, 1, 20, 1039.435180664062
0, 1, 21, 1371.843872070312
0, 1, 22, 1482.493530273438
0, 1, 23, 1468.796142578125
0, 1, 24, 1447.708984375
0, 1, 25, 1418.638427734375
0, 1, 26, 1474.225952148438
0, 1, 27, 1461.880981445312
0, 1, 28, 1488.111328125
0, 1, 29, 1481.600219726562
0, 1, 30, 1504.503295898438
0, 1, 31, 1482.241943359375
0, 1, 32, 1412.973876953125
0, 1, 33, 1501.25927734375
0, 1, 34, 1499.885009765625
0, 1, 35, 1461.022583007812
0, 1, 36, 1489.640625
0, 1, 37, 1409.283569335938
0, 1, 38, 1391.000122070312
0, 1, 39, 1525.135986328125
0, 1, 40, 1459.353515625
0, 1, 41, 1494.371826171875
0, 1, 42, 1496.33740234375
0, 1, 43, 1496.536743164062
0, 1, 44, 1450.8330078125
0, 1, 45, 1484.680053710938
0, 1, 46, 1422.165649414062
0, 1, 47, 1435.48828125
0, 1, 48, 1429.193603515625
0, 1, 49, 1489.142211914062
0, 1, 50, 1441.09375
0, 1, 51, 1469.738037109375
0, 1, 52, 1470.834106445312
0, 1, 53, 1475.831420898438
0, 1, 54, 1505.545776367188
0, 1, 55, 1493.248413085938
0, 1, 56, 1471.62939453125
0, 1, 57, 1452.60888671875
0, 1, 58, 1427.984252929688
0, 1, 59, 1480.822265625
0, 1, 60, 1462.13330078125
0, 1, 61, 1451.060668945312
0, 1, 62, 1449.680541992188
0, 1, 63, 1414.543090820312
0, 1, 64, 1480.800170898438
0, 1, 65, 1414.504638671875
0, 1, 66, 1442.184814453125
0, 1, 67, 1454.491821289062
0, 1, 68, 1384.702026367188
0, 1, 69, 1464.405151367188
0, 1, 70, 1430.924438476562
0, 1, 71, 1501.100219726562
0, 1, 72, 1435.577270507812
0, 1, 73, 1488.980102539062
0, 1, 74, 1474.824096679688
0, 1, 75, 1475.128051757812
0, 1, 76, 1455.059692382812
0, 1, 77, 1466.010009765625
0, 1, 78, 1451.361083984375
0, 1, 79, 1496.820434570312
0, 1, 80, 1450.661254882812
0, 1, 81, 1425.491455078125
0, 1, 82, 1471.656005859375
0, 1, 83, 1464.140869140625
0, 1, 84, 1533.7705078125
0, 1, 85, 1446.669677734375
0, 1, 86, 1403.064331054688
0, 1, 87, 1418.689208984375
0, 1, 88, 1474.367797851562
0, 1, 89, 1476.350341796875
0, 1, 90, 1421.026733398438
0, 1, 91, 1462.000732421875
0, 1, 92, 1410.951171875
0, 1, 93, 1459.850463867188
0, 1, 94, 1467.655395507812
0, 1, 95, 1423.023803710938
0, 1, 96, 1495.18896484375
0, 1, 97, 1519.673583984375
0, 1, 98, 1480.1650390625
0, 1, 99, 1418.4296875
0, 1, 100, 1448.991821289062
0, 1, 101, 1412.500122070312
0, 1, 102, 1441.96142578125
0, 1, 103, 1412.593139648438
0, 1, 104, 1406.10205078125
0, 1, 105, 1461.691040039062
0, 1, 106, 1371.950073242188
0, 1, 107, 1022.572570800781
0, 1, 108, 403.1773986816406
0, 1, 109, 97.72187042236328
0, 1, 110, 61.25801849365234
0, 1, 111, 57.56558227539062
0, 1, 112, 44.69662857055664
0, 1, 113, 39.86606979370117
0, 1, 114, 36.95268630981445
0, 1, 115, 43.62409973144531
0, 1, 116, 34.60916137695312
0, 1, 117, 34.9688606262207
0, 1, 118, 35.31047821044922
0, 1, 119, 38.45273971557617
0, 1, 120, 32.36331558227539
0, 1, 121, 27.94325256347656
0, 1, 122, 24.55751419067383
0, 1, 123, 26.71225738525391
0, 1, 124, 29.01370811462402
0, 1, 125, 22.63264465332031
0, 1, 126, 17.24040031433105
0, 1, 127, 15.37377738952637
0, 2, 0, 23.86844253540039
0, 2, 1, 25.04108238220215
0, 2, 2, 19.80706024169922
0, 2, 3, 23.72070693969727
0, 2, 4, 26.16985321044922
0, 2, 5, 24.4939079284668
0, 2, 6, 24.35008239746094
0, 2, 7, 23.85647201538086
0, 2, 8, 24.91899871826172
0, 2, 9, 26.31255722045898
0, 2, 10, 27.63242721557617
0, 2, 11, 33.73663330078125
0, 2, 12, 41.72712326049805
0, 2, 13, 44.19193649291992
0, 2, 14, 45.71166229248047
0, 2, 15, 43.9178581237793
0, 2, 16, 61.61469650268555
0, 2, 17, 76.42336273193359
0, 2, 18, 145.4789886474609
0, 2, 19, 607.9365234375
0, 2, 20, 1281.82861328125
0, 2, 21, 1438.743286132812
0, 2, 22, 1455.770263671875
0, 2, 23, 1402.259155273438
0, 2, 24, 1441.04345703125
0, 2, 25, 1523.454833984375
0, 2, 26, 1552.3037109375
0, 2, 27, 1455.598510742188
0, 2, 28, 1458.9541015625
0, 2, 29, 1461.835205078125
0, 2, 30, 1466.3984375
0, 2, 31, 1532.946899414062
0, 2, 32, 1507.351196289062
0, 2, 33, 1445.237182617188
0, 2, 34, 1474.571166992188
0, 2, 35, 1472.090576171875
0, 2, 36, 1531.26171875
0, 2, 37, 1539.945678710938
0, 2, 38, 1508.361572265625
0, 2, 39, 1463.790649414062
0, 2, 40, 1506.316040039062
0, 2, 41, 1522.9609375
0, 2, 42, 1503.079223632812
0, 2, 43, 1548.704223632812
0, 2, 44, 1459.065551757812
0, 2, 45, 1480.195678710938
0, 2, 46, 1424.601806640625
0, 2, 47, 1442.778564453125
0, 2, 48, 1394.753173828125
0, 2, 49, 1461.41943359375
0, 2, 50, 1447.7470703125
0, 2, 51, 1442.506713867188
0, 2, 52, 1495.043212890625
0, 2, 53, 1522.763061523438
0, 2, 54, 1521.839233398438
0, 2, 55, 1493.272094726562
0, 2, 56, 1459.706298828125
0, 2, 57, 1416.213623046875
0, 2, 58, 1454.61083984375
0, 2, 59, 1447.400512695312
0, 2, 60, 1472.750366210938
0, 2, 61, 1447.05859375
0, 2, 62, 1470.23486328125
0, 2, 63, 1504.768798828125
0, 2, 64, 1456.310668945312
0, 2, 65, 1427.706909179688
0, 2, 66, 1490.040771484375
0, 2, 67, 1504.902954101562
0, 2, 68, 1540.698852539062
0, 2, 69, 1540.030639648438
0, 2, 70, 1502.82958984375
0, 2, 71, 1459.517944335938
0, 2, 72, 1517.850708007812
0, 2, 73, 1515.488525390625
0, 2, 74, 1486.040161132812
0, 2, 75, 1504.750122070312
0, 2, 76, 1447.706176757812
0, 2, 77, 1505.527587890625
0, 2, 78, 1432.324462890625
0, 2, 79, 1545.387451171875
0, 2, 80, 1481.811157226562
0, 2, 81, 1465.21435546875
0, 2, 82, 1556.126953125
0, 2, 83, 1515.609375
0, 2, 84, 1489.328002929688
0, 2, 85, 1513.502197265625
0, 2, 86, 1540.045166015625
0, 2, 87, 1485.158813476562
0, 2, 88, 1535.518920898438
0, 2, 89, 1459.230712890625
0, 2, 90, 1432.6279296875
0, 2, 91, 1404.674438476562
0, 2, 92, 1478.063598632812
0, 2, 93, 1496.167114257812
0, 2, 94, 1450.934936523438
0, 2, 95, 1543.485229492188
0, 2, 96, 1520.270385742188
0, 2, 97, 1454.559204101562
0, 2, 98, 1466.923950195312
0, 2, 99, 1401.210815429688
0, 2, 100, 1474.307739257812
0, 2, 101, 1476.884765625
0, 2, 102, 1463.555053710938
0, 2, 103, 1395.785278320312
0, 2, 104, 1411.29443359375
0, 2, 105, 1394.42431640625
0, 2, 106, 1458.756713867188
0, 2, 107, 1274.246948242188
0, 2, 108, 615.9722900390625
0, 2, 109, 169.2427825927734
0, 2, 110, 68.8558349609375
0, 2, 111, 63.92470932006836
0, 2, 112, 48.94615173339844
0, 2, 113, 46.4498291015625
0, 2, 114, 42.01276016235352
0, 2, 115, 36.89397048950195
0, 2, 116, 33.99972915649414
0, 2, 117, 30.65480041503906
0, 2, 118, 28.4403247833252
0, 2, 119, 35.21087646484375
0, 2, 120, 26.20695877075195
0, 2, 121, 18.30074119567871
0, 2, 122, 27.86484909057617
0, 2, 123, 21.70834922790527
0, 2, 124, 21.70771026611328
0, 2, 125, 28.53094673156738
0, 2, 126, 19.63919830322266
0, 2, 127, 18.65453720092773
0, 3, 0, 17.11546325683594
0, 3, 1, 22.27754592895508
0, 3, 2, 23.3525218963623
0, 3, 3, 24.68146324157715
0, 3, 4, 23.91131782531738
0, 3, 5, 26.06842803955078
0, 3, 6, 33.31626892089844
0, 3, 7, 27.56125259399414
0, 3, 8, 29.56850814819336
0, 3, 9, 25.81185913085938
0, 3, 10, 32.5742073059082
0, 3, 11, 35.10350036621094
0, 3, 12, 44.87836837768555
0, 3, 13, 50.77238082885742
0, 3, 14, 58.13360214233398
0, 3, 15, 58.54780197143555
0, 3, 16, 66.83609771728516
0, 3, 17, 90.92605590820312
0, 3, 18, 237.5309906005859
0, 3, 19, 874.0526733398438
0, 3, 20, 1382.222778320312
0, 3, 21, 1504.142944335938
0, 3, 22, 1457.904541015625
0, 3, 23, 1451.981689453125
0, 3, 24, 1436.97265625
0, 3, 25, 1463.048706054688
0, 3, 26, 1490.513061523438
0, 3, 27, 1470.78857421875
0, 3, 28, 1492.015869140625
0, 3, 29, 1542.5458984375
0, 3, 30, 1572.803833007812
0, 3, 31, 1517.242431640625
0, 3, 32, 1545.934448242188
0, 3, 33, 1536.30859375
0, 3, 34, 1491.6630859375
0, 3, 35, 1464.076538085938
0, 3, 36, 1449.144165039062
0, 3, 37, 1510.899780273438
0, 3, 38, 1516.445556640625
0, 3, 39, 1436.514892578125
0, 3, 40, 1446.8466796875
0, 3, 41, 1558.023193359375
0, 3, 42, 1461.60791015625
0, 3, 43, 1457.671875
0, 3, 44, 1448.526489257812
0, 3, 45, 1510.737548828125
0, 3, 46, 1507.435546875
0, 3, 47, 1436.192504882812
0, 3, 48, 1513.693725585938
0, 3, 49, 1454.859619140625
0, 3, 50, 1490.142822265625
0, 3, 51, 1537.804077148438
0, 3, 52, 1537.347900390625
0, 3, 53, 1467.006469726562
0, 3, 54, 1538.241577148438
0, 3, 55, 1503.314819335938
0, 3, 56, 1433.377563476562
0, 3, 57, 1511.952880859375
0, 3, 58, 1515.211181640625
0, 3, 59, 1510.808715820312
0, 3, 60, 1532.40966796875
0, 3, 61, 1482.909423828125
0, 3, 62, 1490.462768554688
0, 3, 63, 1495.497192382812
0, 3, 64, 1496.494384765625
0, 3, 65, 1512.446533203125
0, 3, 66, 1557.906616210938
0, 3, 67, 1546.213134765625
0, 3, 68, 1445.264404296875
0, 3, 69, 1462.913940429688
0, 3, 70, 1384.25146484375
0, 3, 71, 1467.691284179688
0, 3, 72, 1549.250610351562
0, 3, 73, 1497.431884765625
0, 3, 74, 1466.282836914062
0, 3, 75, 1459.465087890625
0, 3, 76, 1575.127319335938
0, 3, 77, 1542.727294921875
0, 3, 78, 1435.15625
0, 3, 79, 1492.07568359375
0, 3, 80, 1462.236083984375
0, 3, 81, 1476.041259765625
0, 3, 82, 1556.710693359375
0, 3, 83, 1512.630737304688
0, 3, 84, 1564.229858398438
0, 3, 85, 1476.777954101562
0, 3, 86, 1524.280883789062
0, 3, 87, 1537.572509765625
0, 3, 88, 1463.907348632812
0, 3, 89, 1448.111450195312
0, 3, 90, 1452.74609375
0, 3, 91, 1418.537963867188
0, 3, 92, 1509.330688476562
0, 3, 93, 1501.243896484375
0, 3, 94, 1516.039184570312
0, 3, 95, 1540.584106445312
0, 3, 96, 1513.136962890625
0, 3, 97, 1466.587524414062
0, 3, 98, 1433.189575195312
0, 3, 99, 1470.843505859375
0, 3, 100, 1464.70263671875
0, 3, 101, 1474.8203125
0, 3, 102, 1519.757934570312
0, 3, 103, 1550.620971679688
0, 3, 104, 1499.164428710938
0, 3, 105, 1514.136840820312
0, 3, 106, 1479.284057617188
0, 3, 107, 1343.33154296875
0, 3, 108, 873.7171630859375
0, 3, 109, 262.7117614746094
0, 3, 110, 98.91098022460938
0, 3, 111, 63.2513542175293
0, 3, 112, 56.90965270996094
0, 3, 113, 54.26337432861328
0, 3, 114, 50.27439880371094
0, 3, 115, 54.21005249023438
0, 3, 116, 33.80030059814453
0, 3, 117, 41.93408584594727
0, 3, 118, 31.49619483947754
0, 3, 119, 30.89164543151855
0, 3, 120, 30.43413925170898
0, 3, 121, 20.20938491821289
0, 3, 122, 31.61205673217773
0, 3, 123, 27.70967483520508
0, 3, 124, 19.25454330444336
0, 3, 125, 26.47239875793457
0, 3, 126, 25.1852855682373
0, 3, 127, 17.73379707336426
0, 4, 0, 21.27937316894531
0, 4, 1, 23.87095260620117
0, 4, 2, 22.18568229675293
0, 4, 3, 20.83236885070801
0, 4, 4, 25.82329750061035
0, 4, 5, 31.93578910827637
0, 4, 6, 31.69047546386719
0, 4, 7, 35.00907897949219
0, 4, 8, 24.1436653137207
0, 4, 9, 32.12709045410156
0, 4, 10, 29.01568412780762
0, 4, 11, 36.4471549987793
0, 4, 12, 46.23180770874023
0, 4, 13, 51.90143966674805
0, 4, 14, 53.43157577514648
0, 4, 15, 58.97443771362305
0, 4, 16, 72.2904052734375
0, 4, 17, 116.6846084594727
0, 4, 18, 445.0919799804688
0, 4, 19, 1181.479248046875
0, 4, 20, 1445.187622070312
0, 4, 21, 1422.05126953125
0, 4, 22, 1435.951049804688
0, 4, 23, 1455.39697265625
0, 4, 24, 1473.652221679688
0, 4, 25, 1405.081420898438
0, 4, 26, 1539.94873046875
0, 4, 27, 1547.557006835938
0, 4, 28, 1505.923706054688
0, 4, 29, 1514.521728515625
0, 4, 30, 1524.68896484375
0, 4, 31, 1569.9326171875
0, 4, 32, 1514.495239257812
0, 4, 33, 1496.755126953125
0, 4, 34, 1472.6611328125
0, 4, 35, 1565.160278320312
0, 4, 36, 1500.283935546875
0, 4, 37, 1510.986572265625
0, 4, 38, 1534.824340820312
0, 4, 39, 1472.886474609375
0, 4, 40, 1511.987060546875
0, 4, 41, 1588.161987304688
0, 4, 42, 1564.378295898438
0, 4, 43, 1475.124267578125
0, 4, 44, 1500.906982421875
0, 4, 45, 1519.939453125
0, 4, 46, 1467.883911132812
0, 4, 47, 1498.33837890625
0, 4, 48, 1527.412963867188
0, 4, 49, 1465.95361328125
0, 4, 50, 1515.428955078125
0, 4, 51, 1494.54052734375
0, 4, 52, 1494.634765625
0, 4, 53, 1454.005249023438
0, 4, 54, 1447.751708984375
0, 4, 55, 1528.3974609375
0, 4, 56, 1457.263793945312
0, 4, 57, 1494.664306640625
0, 4, 58, 1456.031860351562
0, 4, 59, 1463.9384765625
0, 4, 60, 1531.327026367188
0, 4, 61, 1506.464233398438
0, 4, 62, 1506.225219726562
0, 4, 63, 1542.198852539062
0, 4, 64, 1592.912719726562
0, 4, 65, 1420.293212890625
0, 4, 66, 1509.609008789062
0, 4, 67, 1521.073486328125
0, 4, 68, 1499.744873046875
0, 4, 69, 1471.816284179688
0, 4, 70, 1543.453735351562
0, 4, 71, 1517.467407226562
0, 4, 72, 1533.722045898438
0, 4, 73, 1491.935546875
0, 4, 74, 1483.047485351562
0, 4, 75, 1537.138916015625
0, 4, 76, 1483.286987304688
0, 4, 77, 1499.892700195312
0, 4, 78, 1502.327392578125
0, 4, 79, 1483.031860351562
0, 4, 80, 1513.307739257812
0, 4, 81, 1526.7890625
0, 4, 82, 1565.067260742188
0, 4, 83, 1505.258666992188
0, 4, 84, 1543.174072265625
0, 4, 85, 1547.024536132812
0, 4, 86, 1529.739135742188
0, 4, 87, 1501.134643554688
0, 4, 88, 1507.409790039062
0, 4, 89, 1479.36474609375
0, 4, 90, 1547.728759765625
0, 4, 91, 1551.598999023438
0, 4, 92, 1489.6611328125
0, 4, 93, 1517.94384765625
0, 4, 94, 1489.60009765625
0, 4, 95, 1514.721069335938
0, 4, 96, 1443.400756835938
0, 4, 97, 1405.410522460938
0, 4, 98, 1552.54833984375
0, 4, 99, 1509.538818359375
0, 4, 100, 1487.925903320312
0, 4, 101, 1450.537353515625
0, 4, 102, 1445.688110351562
0, 4, 103, 1512.515014648438
0, 4, 104, 1505.683227539062
0, 4, 105, 1556.689331054688
0, 4, 106, 1472.462646484375
0, 4, 107, 1456.579345703125
0, 4, 108, 1118.787109375
0, 4, 109, 432.0284729003906
0, 4, 110, 95.97414398193359
0, 4, 111, 71.78897857666016
0, 4, 112, 58.97589111328125
0, 4, 113, 47.89650726318359
0, 4, 114, 53.00685882568359
0, 4, 115, 45.61395263671875
0, 4, 116, 42.64027404785156
0, 4, 117, 42.35663223266602
0, 4, 118, 42.8057746887207
0, 4, 119, 38.10006332397461
0, 4, 120, 37.41144561767578
0, 4, 121, 29.43326187133789
0, 4, 122, 23.27396774291992
0, 4, 123, 27.44554710388184
0, 4, 124, 24.55752754211426
0, 4, 125, 27.52420806884766
0, 4, 126, 22.74063491821289
0, 4, 127, 19.37677574157715
0, 5, 0, 20.6284065246582
0, 5, 1, 22.15139198303223
0, 5, 2, 25.37041854858398
0, 5, 3, 23.26374626159668
0, 5, 4, 19.01302146911621
0, 5, 5, 32.94591903686523
0, 5, 6, 31.65620040893555
0, 5, 7, 35.47378158569336
0, 5, 8, 39.56122970581055
0, 5, 9, 34.10609436035156
0, 5, 10, 38.56811141967773
0, 5, 11, 39.61879730224609
0, 5, 12, 38.98296356201172
0, 5, 13, 49.54954528808594
0, 5, 14, 59.39727020263672
0, 5, 15, 76.59609222412109
0, 5, 16, 87.07044219970703
0, 5, 17, 157.6944427490234
0, 5, 18, 673.7594604492188
0, 5, 19, 1346.021484375
0, 5, 20, 1530.068481445312
0, 5, 21, 1489.731567382812
0, 5, 22, 1497.199096679688
0, 5, 23, 1531.423706054688
0, 5, 24, 1460.589233398438
0, 5, 25, 1425.0126953125
0, 5, 26, 1526.470581054688
0, 5, 27, 1543.262817382812
0, 5, 28, 1484.927856445312
0, 5, 29, 1522.9560546875
0, 5, 30, 1495.236328125
0, 5, 31, 1504.65625
0, 5, 32, 1592.974853515625
0, 5, 33, 1502.357421875
0, 5, 34, 1481.2939453125
0, 5, 35, 1513.052978515625
0, 5, 36, 1443.52880859375
0, 5, 37, 1530.395629882812
0, 5, 38, 1553.874877929688
0, 5, 39, 1551.26318359375
0, 5, 40, 1500.272216796875
0, 5, 41, 1479.724609375
0, 5, 42, 1536.643676757812
0, 5, 43, 1531.443725585938
0, 5, 44, 1543.876342773438
0, 5, 45, 1511.769775390625
0, 5, 46, 1487.487060546875
0, 5, 47, 1488.436157226562
0, 5, 48, 1506.194580078125
0, 5, 49, 1522.779418945312
0, 5, 50, 1501.877075195312
0, 5, 51, 1519.85400390625
0, 5, 52, 1432.31396484375
0, 5, 53, 1521.689575195312
0, 5, 54, 1516.701293945312
0, 5, 55, 1525.978515625
0, 5, 56, 1495.923095703125
0, 5, 57, 1540.193359375
0, 5, 58, 1511.349365234375
0, 5, 59, 1489.574584960938
0, 5, 60, 1534.912109375
0, 5, 61, 1451.843627929688
0, 5, 62, 1591.243774414062
0, 5, 63, 1436.133178710938
0, 5, 64, 1489.107299804688
0, 5, 65, 1470.719116210938
0, 5, 66, 1525.918823242188
0, 5, 67, 1563.406005859375
0, 5, 68, 1463.964965820312
0, 5, 69, 1479.3583984375
0, 5, 70, 1487.694946289062
0, 5, 71, 1470.200317382812
0, 5, 72, 1538.556762695312
0, 5, 73, 1460.314453125
0, 5, 74, 1496.895263671875
0, 5, 75, 1485.384643554688
0, 5, 76, 1473.661499023438
0, 5, 77, 1515.7900390625
0, 5, 78, 1527.406860351562
0, 5, 79, 1506.022216796875
0, 5, 80, 1518.850952148438
0, 5, 81, 1592.2880859375
0, 5, 82, 1523.765380859375
0, 5, 83, 1488.782836914062
0, 5, 84, 1529.160034179688
0, 5, 85, 1510.846557617188
0, 5, 86, 1559.32177734375
0, 5, 87, 1473.373291015625
0, 5, 88, 1496.835083007812
0, 5, 89, 1480.459350585938
0, 5, 90, 1483.034301757812
0, 5, 91, 1553.27783203125
0, 5, 92, 1480.502319335938
0, 5, 93, 1556.641845703125
0, 5, 94, 1512.114379882812
0, 5, 95, 1561.266479492188
0, 5, 96, 1499.060546875
0, 5, 97, 1508.990356445312
0, 5, 98, 1508.207275390625
0, 5, 99, 1541.41162109375
0, 5, 100, 1433.397827148438
0, 5, 101, 1427.840698242188
0, 5, 102, 1516.561279296875
0, 5, 103, 1474.637451171875
0, 5, 104, 1457.06201171875
0, 5, 105, 1495.19482421875
0, 5, 106, 1456.136352539062
0, 5, 107, 1398.300170898438
0, 5, 108, 1288.216430664062
0, 5, 109, 725.9584350585938
0, 5, 110, 194.5221710205078
0, 5, 111, 92.08618927001953
0, 5, 112, 81.50248718261719
0, 5, 113, 62.84670257568359
0, 5, 114, 58.88083267211914
0, 5, 115, 51.04424285888672
0, 5, 116, 42.60506439208984
0, 5, 117, 37.74208450317383
0, 5, 118, 36.78928756713867
0, 5, 119, 28.90611839294434
0, 5, 120, 32.7752685546875
0, 5, 121, 24.79265213012695
0, 5, 122, 28.39878273010254
0, 5, 123, 27.88544464111328
0, 5, 124, 23.55485153198242
0, 5, 125, 23.70417976379395
0, 5, 126, 24.27479362487793
0, 5, 127, 20.66579055786133
0, 6, 0, 19.52540397644043
0, 6, 1, 25.97372817993164
0, 6, 2, 27.02519416809082
0, 6, 3, 29.65007972717285
0, 6, 4, 27.04017639160156
0, 6, 5, 30.37720108032227
0, 6, 6, 32.91294479370117
0, 6, 7, 30.63064765930176
0, 6, 8, 34.49358749389648
0, 6, 9, 34.88560104370117
0, 6, 10, 33.98255157470703
0, 6, 11, 41.11673355102539
0, 6, 12, 39.22999954223633
0, 6, 13, 57.7825927734375
0, 6, 14, 67.52960968017578
0, 6, 15, 86.47573852539062
0, 6, 16, 110.5047302246094
0, 6, 17, 297.239990234375
0, 6, 18, 895.10400390625
0, 6, 19, 1373.522338867188
0, 6, 20, 1433.993530273438
0, 6, 21, 1524.246704101562
0, 6, 22, 1499.337768554688
0, 6, 23, 1529.8544921875
0, 6, 24, 1475.438720703125
0, 6, 25, 1529.687133789062
0, 6, 26, 1513.974487304688
0, 6, 27, 1523.098022460938
0, 6, 28, 1551.905883789062
0, 6, 29, 1579.57568359375
0, 6, 30, 1513.166748046875
0, 6, 31, 1489.873291015625
0, 6, 32, 1527.642578125
0, 6, 33, 1489.537231445312
0, 6, 34, 1560.663818359375
0, 6, 35, 1498.167602539062
0, 6, 36, 1441.431030273438
0, 6, 37, 1542.36572265625
0, 6, 38, 1521.729614257812
0, 6, 39, 1526.279541015625
0, 6, 40, 1457.754150390625
0, 6, 41, 1445.565185546875
0, 6, 42, 1512.284057617188
0, 6, 43, 1491.069213867188
0, 6, 44, 1430.853149414062
0, 6, 45, 1545.10595703125
0, 6, 46, 1556.746337890625
0, 6, 47, 1495.306884765625
0, 6, 48, 1525.488891601562
0, 6, 49, 1508.569946289062
0, 6, 50, 1575.790161132812
0, 6, 51, 1501.417602539062
0, 6, 52, 1567.50244140625
0, 6, 53, 1473.537109375
0, 6, 54, 1504.966674804688
0, 6, 55, 1573.24658203125
0, 6, 56, 1515.630981445312
0, 6, 57, 1508.131103515625
0, 6, 58, 1466.872680664062
0, 6, 59, 1516.525146484375
0, 6, 60, 1467.385620117188
0, 6, 61, 1574.330322265625
0, 6, 62, 1549.522705078125
0, 6, 63, 1497.28369140625
0, 6, 64, 1408.312255859375
0, 6, 65, 1492.582397460938
0, 6, 66, 1514.846923828125
0, 6, 67, 1516.847290039062
0, 6, 68, 1546.837280273438
0, 6, 69, 1484.603759765625
0, 6, 70, 1524.183471679688
0, 6, 71, 1470.443237304688
0, 6, 72, 1594.554077148438
0, 6, 73, 1488.76806640625
0, 6, 74, 1558.3447265625
0, 6, 75, 1538.158813476562
0, 6, 76, 1565.177612304688
0, 6, 77, 1504.905029296875
0, 6, 78, 1444.394653320312
0, 6, 79, 1552.160522460938
0, 6, 80, 1486.888793945312
0, 6, 81, 1483.330322265625
0, 6, 82, 1498.670288085938
0, 6, 83, 1526.242797851562
0, 6, 84, 1519.821655273438
0, 6, 85, 1537.534301757812
0, 6, 86, 1544.57666015625
0, 6, 87, 1571.732788085938
0, 6, 88, 1480.9873046875
0, 6, 89, 1568.363037109375
0, 6, 90, 1492.334228515625
0, 6, 91, 1545.027465820312
0, 6, 92, 1491.333740234375
0, 6, 93, 1496.458129882812
0, 6, 94, 1471.479858398438
0, 6, 95, 1510.40283203125
0, 6, 96, 1520.659423828125
0, 6, 97, 1503.508056640625
0, 6, 98, 1499.63525390625
0, 6, 99, 1483.009765625
0, 6, 100, 1521.037353515625
0, 6, 101, 1516.102416992188
0, 6, 102, 1541.685546875
0, 6, 103, 1497.975341796875
0, 6, 104, 1463.92626953125
0, 6, 105, 1480.386596679688
0, 6, 106, 1504.341796875
0, 6, 107, 1506.198608398438
0, 6, 108, 1408.23095703125
0, 6, 109, 925.6373291015625
0, 6, 110, 285.1477966308594
0, 6, 111, 94.19565582275391
0, 6, 112, 74.9481201171875
0, 6, 113, 54.05854797363281
0, 6, 114, 53.67511749267578
0, 6, 115, 43.64310836791992
0, 6, 116, 45.08265686035156
0, 6, 117, 44.37787246704102
0, 6, 118, 34.91389083862305
0, 6, 119, 33.12493133544922
0, 6, 120, 32.52892684936523
0, 6, 121, 28.88640594482422
0, 6, 122, 27.78568077087402
0, 6, 123, 25.90295600891113
0, 6, 124, 34.48690795898438
0, 6, 125, 29.38849830627441
0, 6, 126, 28.78215789794922
0, 6, 127, 22.52090835571289
0, 7, 0, 22.57370758056641
0, 7, 1, 25.38612365722656
0, 7, 2, 25.79442596435547
0, 7, 3, 21.31193923950195
0, 7, 4, 21.32327842712402
0, 7, 5, 39.06293106079102
0, 7, 6, 33.07880401611328
0, 7, 7, 33.97692108154297
0, 7, 8, 27.76362991333008
0, 7, 9, 31.73265838623047
0, 7, 10, 46.01081085205078
0, 7, 11, 47.00654602050781
0, 7, 12, 48.25653457641602
0, 7, 13, 52.73343276977539
0, 7, 14, 61.99831390380859
0, 7, 15, 78.662109375
0, 7, 16, 137.7514953613281
0, 7, 17, 452.8408508300781
0, 7, 18, 1098.132690429688
0, 7, 19, 1499.322143554688
0, 7, 20, 1486.63671875
0, 7, 21, 1368.623779296875
0, 7, 22, 1488.556762695312
0, 7, 23, 1453.25439453125
0, 7, 24, 1510.861083984375
0, 7, 25, 1593.61181640625
0, 7, 26, 1519.661254882812
0, 7, 27, 1514.0478515625
0, 7, 28, 1545.906982421875
0, 7, 29, 1575.08544921875
0, 7, 30, 1546.499145507812
0, 7, 31, 1434.58984375
0, 7, 32, 1544.23291015625
0, 7, 33, 1493.577392578125
0, 7, 34, 1478.194702148438
0, 7, 35, 1529.180908203125
0, 7, 36, 1469.9677734375
0, 7, 37, 1602.07470703125
0, 7, 38, 1503.1142578125
0, 7, 39, 1492.474975585938
0, 7, 40, 1543.083984375
0, 7, 41, 1464.287963867188
0, 7, 42, 1492.838989257812
0, 7, 43, 1442.422973632812
0, 7, 44, 1488.041259765625
0, 7, 45, 1471.895263671875
0, 7, 46, 1507.810424804688
0, 7, 47, 1560.321411132812
0, 7, 48, 1519.08642578125
0, 7, 49, 1537.922973632812
0, 7, 50, 1514.357666015625
0, 7, 51, 1498.98388671875
0, 7, 52, 1516.949340820312
0, 7, 53, 1497.165283203125
0, 7, 54, 1589.276489257812
0, 7, 55, 1472.107421875
0, 7, 56, 1551.464721679688
0, 7, 57, 1514.383422851562
0, 7, 58, 1552.14404296875
0, 7, 59, 1538.802368164062
0, 7, 60, 1550.0478515625
0, 7, 61, 1488.65478515625
0, 7, 62, 1437.816284179688
0, 7, 63, 1512.943481445312
0, 7, 64, 1551.47216796875
0, 7, 65, 1523.358032226562
0, 7, 66, 1541.447631835938
0, 7, 67, 1576.467163085938
0, 7, 68, 1528.936157226562
0, 7, 69, 1509.490112304688
0, 7, 70, 1491.121337890625
0, 7, 71, 1527.356079101562
0, 7, 72, 1525.455200195312
0, 7, 73, 1518.497192382812
0, 7, 74, 1570.757080078125
0, 7, 75, 1538.587646484375
0, 7, 76, 1556.467407226562
0, 7, 77, 1510.729614257812
0, 7, 78, 1515.292724609375
0, 7, 79, 1424.94091796875
0, 7, 80, 1489.088745117188
0, 7, 81, 1489.669799804688
0, 7, 82, 1530.05810546875
0, 7, 83, 1540.3935546875
0, 7, 84, 1582.272338867188
0, 7, 85, 1479.386840820312
0, 7, 86, 1507.787719726562
0, 7, 87, 1501.186767578125
0, 7, 88, 1500.748901367188
0, 7, 89, 1555.710815429688
0, 7, 90, 1522.548095703125
0, 7, 91, 1561.319091796875
0, 7, 92, 1523.614624023438
0, 7, 93, 1553.270751953125
0, 7, 94, 1538.107666015625
0, 7, 95, 1513.804931640625
0, 7, 96, 1509.26611328125
0, 7, 97, 1434.585571289062
0, 7, 98, 1481.657592773438
0, 7, 99, 1523.530883789062
0, 7, 100, 1426.296508789062
0, 7, 101, 1466.0537109375
0, 7, 102, 1447.516723632812
0, 7, 103, 1433.678588867188
0, 7, 104, 1495.787719726562
0, 7, 105, 1522.908447265625
0, 7, 106, 1570.112548828125
0, 7, 107, 1480.2060546875
0, 7, 108, 1418.58056640625
0, 7, 109, 1143.619750976562
0, 7, 110, 474.7266235351562
0, 7, 111, 126.5221176147461
0, 7, 112, 78.94181823730469
0, 7, 113, 72.83060455322266
0, 7, 114, 55.45244979858398
0, 7, 115, 49.51605987548828
0, 7, 116, 50.99716186523438
0, 7, 117, 38.99291229248047
0, 7, 118, 38.94011306762695
0, 7, 119, 37.82547378540039
0, 7, 120, 24.0030689239502
0, 7, 121, 30.1782112121582
0, 7, 122, 32.72554397583008
0, 7, 123, 35.4126091003418
0, 7, 124, 26.84207534790039
0, 7, 125, 17.59643745422363
0, 7, 126, 29.02301406860352
0, 7, 127, 24.48779487609863
0, 8, 0, 22.73322105407715
0, 8, 1, 22.63191223144531
0, 8, 2, 25.49765205383301
0, 8, 3, 25.1866340637207
0, 8, 4, 25.76601028442383
0, 8, 5, 31.61269187927246
0, 8, 6, 32.85766983032227
0, 8, 7, 27.26444625854492
0, 8, 8, 29.3419189453125
0, 8, 9, 43.11333465576172
0, 8, 10, 41.92827606201172
0, 8, 11, 39.73917007446289
0, 8, 12, 50.56978988647461
0, 8, 13, 70.0211181640625
0, 8, 14, 68.45587921142578
0, 8, 15, 91.32649230957031
0, 8, 16, 173.5974426269531
0, 8, 17, 675.4532470703125
0, 8, 18, 1281.599975585938
0, 8, 19, 1443.521362304688
0, 8, 20, 1426.042114257812
0, 8, 21, 1406.217163085938
0, 8, 22, 1494.3857421875
0, 8, 23, 1479.071655273438
0, 8, 24, 1436.712280273438
0, 8, 25, 1455.807983398438
0, 8, 26, 1519.888427734375
0, 8, 27, 1521.780883789062
0, 8, 28, 1476.049682617188
0, 8, 29, 1503.406616210938
0, 8, 30, 1485.756591796875
0, 8, 31, 1536.237182617188
0, 8, 32, 1513.780517578125
0, 8, 33, 1479.5361328125
0, 8, 34, 1530.48291015625
0, 8, 35, 1442.661499023438
0, 8, 36, 1496.918701171875
0, 8, 37, 1551.188354492188
0, 8, 38, 1550.801025390625
0, 8, 39, 1499.180419921875
0, 8, 40, 1530.752807617188
0, 8, 41, 1481.33544921875
0, 8, 42, 1542.08740234375
0, 8, 43, 1434.952392578125
0, 8, 44, 1540.095581054688
0, 8, 45, 1516.140014648438
0, 8, 46, 1602.914306640625
0, 8, 47, 1585.7119140625
