# TOPAS Version: 3.1.p3
# Parameter File: batch_inserts_204.txt
# Results for scorer Readout_Adipose
# Scored in component: MyBox
# X in 1 bin  of 0.75 cm
# Y in 512 bins of 0.0783984 cm
# Z in 128 bins of 0.078125 cm
# EnergyDeposit ( MeV ) : Sum   
0, 0, 0, 19.72449111938477
0, 0, 1, 20.78908920288086
0, 0, 2, 29.83535766601562
0, 0, 3, 26.62673759460449
0, 0, 4, 21.66523551940918
0, 0, 5, 27.14342308044434
0, 0, 6, 20.09560394287109
0, 0, 7, 33.98173141479492
0, 0, 8, 19.89263153076172
0, 0, 9, 22.93918609619141
0, 0, 10, 27.51273536682129
0, 0, 11, 32.79343795776367
0, 0, 12, 36.19366455078125
0, 0, 13, 28.58335113525391
0, 0, 14, 38.27233123779297
0, 0, 15, 51.72312545776367
0, 0, 16, 44.41286468505859
0, 0, 17, 47.02231597900391
0, 0, 18, 72.47483062744141
0, 0, 19, 194.1688537597656
0, 0, 20, 701.2006225585938
0, 0, 21, 1190.83984375
0, 0, 22, 1244.243774414062
0, 0, 23, 1276.779907226562
0, 0, 24, 1281.464965820312
0, 0, 25, 1354.672607421875
0, 0, 26, 1269.576171875
0, 0, 27, 1278.783569335938
0, 0, 28, 1319.74072265625
0, 0, 29, 1268.639404296875
0, 0, 30, 1263.550170898438
0, 0, 31, 1279.248168945312
0, 0, 32, 1264.224487304688
0, 0, 33, 1241.602661132812
0, 0, 34, 1321.95849609375
0, 0, 35, 1300.83984375
0, 0, 36, 1250.319702148438
0, 0, 37, 1277.342407226562
0, 0, 38, 1245.028564453125
0, 0, 39, 1244.53662109375
0, 0, 40, 1223.873046875
0, 0, 41, 1271.164428710938
0, 0, 42, 1252.276489257812
0, 0, 43, 1268.469116210938
0, 0, 44, 1226.057983398438
0, 0, 45, 1287.840698242188
0, 0, 46, 1257.95263671875
0, 0, 47, 1247.406127929688
0, 0, 48, 1272.842651367188
0, 0, 49, 1290.574584960938
0, 0, 50, 1310.49365234375
0, 0, 51, 1262.49560546875
0, 0, 52, 1358.603149414062
0, 0, 53, 1325.886352539062
0, 0, 54, 1290.12255859375
0, 0, 55, 1231.218994140625
0, 0, 56, 1319.993774414062
0, 0, 57, 1285.364135742188
0, 0, 58, 1251.039306640625
0, 0, 59, 1333.5234375
0, 0, 60, 1324.496459960938
0, 0, 61, 1262.11279296875
0, 0, 62, 1246.719970703125
0, 0, 63, 1278.39013671875
0, 0, 64, 1330.37109375
0, 0, 65, 1284.044799804688
0, 0, 66, 1319.584228515625
0, 0, 67, 1214.512329101562
0, 0, 68, 1309.10205078125
0, 0, 69, 1327.435546875
0, 0, 70, 1344.558959960938
0, 0, 71, 1287.422607421875
0, 0, 72, 1315.163940429688
0, 0, 73, 1237.001098632812
0, 0, 74, 1290.1259765625
0, 0, 75, 1295.382568359375
0, 0, 76, 1254.289428710938
0, 0, 77, 1286.834228515625
0, 0, 78, 1318.092041015625
0, 0, 79, 1322.934326171875
0, 0, 80, 1258.246215820312
0, 0, 81, 1318.690063476562
0, 0, 82, 1283.951171875
0, 0, 83, 1292.005249023438
0, 0, 84, 1324.897216796875
0, 0, 85, 1230.977661132812
0, 0, 86, 1263.833984375
0, 0, 87, 1251.957885742188
0, 0, 88, 1255.682250976562
0, 0, 89, 1335.111694335938
0, 0, 90, 1281.285766601562
0, 0, 91, 1352.10009765625
0, 0, 92, 1301.720947265625
0, 0, 93, 1270.412475585938
0, 0, 94, 1245.873291015625
0, 0, 95, 1326.608154296875
0, 0, 96, 1282.428466796875
0, 0, 97, 1327.806274414062
0, 0, 98, 1258.234008789062
0, 0, 99, 1249.977661132812
0, 0, 100, 1285.6181640625
0, 0, 101, 1314.6640625
0, 0, 102, 1231.2666015625
0, 0, 103, 1322.301391601562
0, 0, 104, 1260.833374023438
0, 0, 105, 1269.048095703125
0, 0, 106, 1210.760131835938
0, 0, 107, 779.486328125
0, 0, 108, 190.4218444824219
0, 0, 109, 67.98187255859375
0, 0, 110, 67.50154876708984
0, 0, 111, 40.57240295410156
0, 0, 112, 35.30379867553711
0, 0, 113, 34.10078048706055
0, 0, 114, 34.9806022644043
0, 0, 115, 32.55620574951172
0, 0, 116, 25.37567329406738
0, 0, 117, 30.88168144226074
0, 0, 118, 26.69162178039551
0, 0, 119, 20.00689315795898
0, 0, 120, 28.8663158416748
0, 0, 121, 28.12348937988281
0, 0, 122, 22.61189842224121
0, 0, 123, 20.44647407531738
0, 0, 124, 20.98937034606934
0, 0, 125, 17.22952461242676
0, 0, 126, 21.04751205444336
0, 0, 127, 16.74494361877441
0, 1, 0, 22.66089248657227
0, 1, 1, 21.78301620483398
0, 1, 2, 26.41540718078613
0, 1, 3, 18.70897102355957
0, 1, 4, 27.21747398376465
0, 1, 5, 30.80401420593262
0, 1, 6, 25.81753349304199
0, 1, 7, 30.19278144836426
0, 1, 8, 34.82336807250977
0, 1, 9, 32.22680282592773
0, 1, 10, 36.97279357910156
0, 1, 11, 39.10295486450195
0, 1, 12, 39.51959991455078
0, 1, 13, 40.1457633972168
0, 1, 14, 42.73783111572266
0, 1, 15, 47.39199829101562
0, 1, 16, 63.1338005065918
0, 1, 17, 59.66218948364258
0, 1, 18, 101.7551727294922
0, 1, 19, 396.814453125
0, 1, 20, 1041.11083984375
0, 1, 21, 1372.652954101562
0, 1, 22, 1486.478149414062
0, 1, 23, 1461.322509765625
0, 1, 24, 1450.705810546875
0, 1, 25, 1419.95654296875
0, 1, 26, 1475.674438476562
0, 1, 27, 1459.753540039062
0, 1, 28, 1488.693969726562
0, 1, 29, 1474.815795898438
0, 1, 30, 1509.426879882812
0, 1, 31, 1488.042846679688
0, 1, 32, 1411.413208007812
0, 1, 33, 1495.195190429688
0, 1, 34, 1498.662231445312
0, 1, 35, 1459.828735351562
0, 1, 36, 1488.033081054688
0, 1, 37, 1413.297729492188
0, 1, 38, 1396.984130859375
0, 1, 39, 1524.204223632812
0, 1, 40, 1461.622192382812
0, 1, 41, 1486.177978515625
0, 1, 42, 1495.94140625
0, 1, 43, 1504.413452148438
0, 1, 44, 1448.939208984375
0, 1, 45, 1485.703002929688
0, 1, 46, 1421.063110351562
0, 1, 47, 1431.333374023438
0, 1, 48, 1428.125244140625
0, 1, 49, 1484.574462890625
0, 1, 50, 1439.799926757812
0, 1, 51, 1476.348876953125
0, 1, 52, 1478.718994140625
0, 1, 53, 1474.504272460938
0, 1, 54, 1505.903930664062
0, 1, 55, 1492.531005859375
0, 1, 56, 1470.6513671875
0, 1, 57, 1458.084716796875
0, 1, 58, 1433.376708984375
0, 1, 59, 1483.42236328125
0, 1, 60, 1465.153198242188
0, 1, 61, 1450.705444335938
0, 1, 62, 1461.53369140625
0, 1, 63, 1415.947509765625
0, 1, 64, 1472.54443359375
0, 1, 65, 1418.34814453125
0, 1, 66, 1435.119506835938
0, 1, 67, 1454.198608398438
0, 1, 68, 1387.075561523438
0, 1, 69, 1460.641845703125
0, 1, 70, 1432.576782226562
0, 1, 71, 1494.087280273438
0, 1, 72, 1432.448486328125
0, 1, 73, 1487.3017578125
0, 1, 74, 1472.371704101562
0, 1, 75, 1480.481567382812
0, 1, 76, 1458.162719726562
0, 1, 77, 1462.803100585938
0, 1, 78, 1453.10791015625
0, 1, 79, 1498.43701171875
0, 1, 80, 1454.666015625
0, 1, 81, 1428.070678710938
0, 1, 82, 1471.0048828125
0, 1, 83, 1457.626220703125
0, 1, 84, 1533.056762695312
0, 1, 85, 1450.977783203125
0, 1, 86, 1406.690185546875
0, 1, 87, 1419.647338867188
0, 1, 88, 1476.05029296875
0, 1, 89, 1470.291381835938
0, 1, 90, 1423.645385742188
0, 1, 91, 1465.215087890625
0, 1, 92, 1412.19482421875
0, 1, 93, 1462.251586914062
0, 1, 94, 1466.098388671875
0, 1, 95, 1422.545288085938
0, 1, 96, 1499.734619140625
0, 1, 97, 1513.057739257812
0, 1, 98, 1478.519287109375
0, 1, 99, 1420.197143554688
0, 1, 100, 1446.55322265625
0, 1, 101, 1417.94287109375
0, 1, 102, 1440.390258789062
0, 1, 103, 1411.725219726562
0, 1, 104, 1404.594360351562
0, 1, 105, 1458.468872070312
0, 1, 106, 1364.98388671875
0, 1, 107, 1022.522399902344
0, 1, 108, 401.8314208984375
0, 1, 109, 88.91268920898438
0, 1, 110, 63.12036514282227
0, 1, 111, 56.09326553344727
0, 1, 112, 47.12295150756836
0, 1, 113, 41.01735687255859
0, 1, 114, 35.06136322021484
0, 1, 115, 37.08175277709961
0, 1, 116, 32.85829544067383
0, 1, 117, 35.09309387207031
0, 1, 118, 37.31140518188477
0, 1, 119, 28.86395072937012
0, 1, 120, 27.86817359924316
0, 1, 121, 26.84261894226074
0, 1, 122, 18.00411605834961
0, 1, 123, 28.51307678222656
0, 1, 124, 30.28139877319336
0, 1, 125, 23.73518562316895
0, 1, 126, 24.00654983520508
0, 1, 127, 19.49204444885254
0, 2, 0, 22.86889839172363
0, 2, 1, 28.33281135559082
0, 2, 2, 20.87788772583008
0, 2, 3, 27.06242561340332
0, 2, 4, 23.14895820617676
0, 2, 5, 28.90063285827637
0, 2, 6, 20.99874877929688
0, 2, 7, 20.38216590881348
0, 2, 8, 27.47954559326172
0, 2, 9, 26.81338500976562
0, 2, 10, 28.34673309326172
0, 2, 11, 33.66188812255859
0, 2, 12, 37.16107177734375
0, 2, 13, 50.4178352355957
0, 2, 14, 47.8913459777832
0, 2, 15, 51.01588439941406
0, 2, 16, 63.55530548095703
0, 2, 17, 75.24788665771484
0, 2, 18, 144.3873138427734
0, 2, 19, 608.0901489257812
0, 2, 20, 1289.74658203125
0, 2, 21, 1438.76318359375
0, 2, 22, 1462.887451171875
0, 2, 23, 1404.643188476562
0, 2, 24, 1436.857055664062
0, 2, 25, 1520.863037109375
0, 2, 26, 1557.352416992188
0, 2, 27, 1455.901733398438
0, 2, 28, 1459.356567382812
0, 2, 29, 1465.146728515625
0, 2, 30, 1460.991943359375
0, 2, 31, 1535.759155273438
0, 2, 32, 1507.725219726562
0, 2, 33, 1441.30126953125
0, 2, 34, 1470.963623046875
0, 2, 35, 1468.186401367188
0, 2, 36, 1527.872924804688
0, 2, 37, 1542.454833984375
0, 2, 38, 1502.152709960938
0, 2, 39, 1464.482543945312
0, 2, 40, 1508.939575195312
0, 2, 41, 1519.037353515625
0, 2, 42, 1510.971313476562
0, 2, 43, 1548.985595703125
0, 2, 44, 1460.58447265625
0, 2, 45, 1485.752807617188
0, 2, 46, 1422.9208984375
0, 2, 47, 1446.59228515625
0, 2, 48, 1401.3662109375
0, 2, 49, 1458.938720703125
0, 2, 50, 1445.468017578125
0, 2, 51, 1446.0498046875
0, 2, 52, 1490.474731445312
0, 2, 53, 1522.827392578125
0, 2, 54, 1523.69677734375
0, 2, 55, 1489.5048828125
0, 2, 56, 1462.267211914062
0, 2, 57, 1413.4248046875
0, 2, 58, 1457.641235351562
0, 2, 59, 1448.63671875
0, 2, 60, 1475.338500976562
0, 2, 61, 1449.402709960938
0, 2, 62, 1473.245483398438
0, 2, 63, 1511.201171875
0, 2, 64, 1460.443237304688
0, 2, 65, 1426.935791015625
0, 2, 66, 1491.078735351562
0, 2, 67, 1505.046752929688
0, 2, 68, 1545.3583984375
0, 2, 69, 1537.677856445312
0, 2, 70, 1506.084106445312
0, 2, 71, 1462.337036132812
0, 2, 72, 1515.621826171875
0, 2, 73, 1524.207641601562
0, 2, 74, 1486.237670898438
0, 2, 75, 1500.171020507812
0, 2, 76, 1445.370971679688
0, 2, 77, 1506.15478515625
0, 2, 78, 1428.819702148438
0, 2, 79, 1539.609252929688
0, 2, 80, 1477.4580078125
0, 2, 81, 1461.967407226562
0, 2, 82, 1562.904296875
0, 2, 83, 1515.109252929688
0, 2, 84, 1487.697265625
0, 2, 85, 1513.183349609375
0, 2, 86, 1539.691528320312
0, 2, 87, 1488.495849609375
0, 2, 88, 1538.945068359375
0, 2, 89, 1465.729370117188
0, 2, 90, 1429.04541015625
0, 2, 91, 1401.22509765625
0, 2, 92, 1483.679443359375
0, 2, 93, 1490.994873046875
0, 2, 94, 1447.495239257812
0, 2, 95, 1544.522705078125
0, 2, 96, 1511.450805664062
0, 2, 97, 1453.393310546875
0, 2, 98, 1464.832885742188
0, 2, 99, 1406.214233398438
0, 2, 100, 1472.79541015625
0, 2, 101, 1478.213623046875
0, 2, 102, 1462.27001953125
0, 2, 103, 1389.9521484375
0, 2, 104, 1409.020263671875
0, 2, 105, 1397.421630859375
0, 2, 106, 1456.261840820312
0, 2, 107, 1277.448486328125
0, 2, 108, 624.1788330078125
0, 2, 109, 170.1194000244141
0, 2, 110, 67.41184997558594
0, 2, 111, 62.76055526733398
0, 2, 112, 47.51543045043945
0, 2, 113, 44.58358001708984
0, 2, 114, 39.61934661865234
0, 2, 115, 42.33113098144531
0, 2, 116, 37.08900833129883
0, 2, 117, 37.1773796081543
0, 2, 118, 33.79144668579102
0, 2, 119, 31.14573860168457
0, 2, 120, 28.3661060333252
0, 2, 121, 19.87568092346191
0, 2, 122, 27.00572204589844
0, 2, 123, 21.73895072937012
0, 2, 124, 26.17728042602539
0, 2, 125, 29.07505035400391
0, 2, 126, 19.18641090393066
0, 2, 127, 21.74245643615723
0, 3, 0, 13.8230447769165
0, 3, 1, 21.59268951416016
0, 3, 2, 22.96404838562012
0, 3, 3, 20.82062530517578
0, 3, 4, 13.90109729766846
0, 3, 5, 20.52797889709473
0, 3, 6, 32.38872528076172
0, 3, 7, 32.77629852294922
0, 3, 8, 28.16645431518555
0, 3, 9, 34.92500305175781
0, 3, 10, 32.94429779052734
0, 3, 11, 33.27356719970703
0, 3, 12, 47.31239318847656
0, 3, 13, 49.71508407592773
0, 3, 14, 57.2215461730957
0, 3, 15, 53.26728439331055
0, 3, 16, 66.06816101074219
0, 3, 17, 90.26810455322266
0, 3, 18, 239.5179901123047
0, 3, 19, 875.6903686523438
0, 3, 20, 1385.544311523438
0, 3, 21, 1504.165893554688
0, 3, 22, 1461.673461914062
0, 3, 23, 1452.3515625
0, 3, 24, 1441.572631835938
0, 3, 25, 1462.3984375
0, 3, 26, 1494.739990234375
0, 3, 27, 1463.817504882812
0, 3, 28, 1487.730834960938
0, 3, 29, 1549.152099609375
0, 3, 30, 1574.18603515625
0, 3, 31, 1511.147583007812
0, 3, 32, 1549.046752929688
0, 3, 33, 1540.949096679688
0, 3, 34, 1489.550415039062
0, 3, 35, 1462.758666992188
0, 3, 36, 1448.905029296875
0, 3, 37, 1511.489135742188
0, 3, 38, 1512.232055664062
0, 3, 39, 1437.821044921875
0, 3, 40, 1443.748413085938
0, 3, 41, 1568.098022460938
0, 3, 42, 1466.157348632812
0, 3, 43, 1455.4638671875
0, 3, 44, 1449.843017578125
0, 3, 45, 1508.052978515625
0, 3, 46, 1504.5859375
0, 3, 47, 1442.196411132812
0, 3, 48, 1509.871704101562
0, 3, 49, 1452.287963867188
0, 3, 50, 1485.31005859375
0, 3, 51, 1536.726196289062
0, 3, 52, 1535.5419921875
0, 3, 53, 1463.398681640625
0, 3, 54, 1534.128662109375
0, 3, 55, 1507.656127929688
0, 3, 56, 1431.696411132812
0, 3, 57, 1503.988403320312
0, 3, 58, 1514.095947265625
0, 3, 59, 1509.233642578125
0, 3, 60, 1534.337890625
0, 3, 61, 1483.670776367188
0, 3, 62, 1493.884521484375
0, 3, 63, 1488.382446289062
0, 3, 64, 1503.3564453125
0, 3, 65, 1513.165893554688
0, 3, 66, 1552.705810546875
0, 3, 67, 1546.172729492188
0, 3, 68, 1450.123413085938
0, 3, 69, 1462.992065429688
0, 3, 70, 1386.02783203125
0, 3, 71, 1463.47021484375
0, 3, 72, 1546.478393554688
0, 3, 73, 1499.636840820312
0, 3, 74, 1467.80322265625
0, 3, 75, 1463.431030273438
0, 3, 76, 1573.627807617188
0, 3, 77, 1541.908325195312
0, 3, 78, 1425.574951171875
0, 3, 79, 1492.997680664062
0, 3, 80, 1462.019287109375
0, 3, 81, 1477.768920898438
0, 3, 82, 1555.115356445312
0, 3, 83, 1516.360961914062
0, 3, 84, 1563.08251953125
0, 3, 85, 1485.336547851562
0, 3, 86, 1523.287841796875
0, 3, 87, 1537.366088867188
0, 3, 88, 1458.174438476562
0, 3, 89, 1445.603515625
0, 3, 90, 1454.167358398438
0, 3, 91, 1418.082763671875
0, 3, 92, 1512.305053710938
0, 3, 93, 1503.376098632812
0, 3, 94, 1514.58837890625
0, 3, 95, 1544.073852539062
0, 3, 96, 1512.204467773438
0, 3, 97, 1466.10888671875
0, 3, 98, 1437.071166992188
0, 3, 99, 1463.428344726562
0, 3, 100, 1461.951782226562
0, 3, 101, 1474.162231445312
0, 3, 102, 1524.506103515625
0, 3, 103, 1552.02197265625
0, 3, 104, 1500.260375976562
0, 3, 105, 1514.016479492188
0, 3, 106, 1483.510009765625
0, 3, 107, 1338.221923828125
0, 3, 108, 873.4345092773438
0, 3, 109, 260.0769653320312
0, 3, 110, 107.6531448364258
0, 3, 111, 65.83757019042969
0, 3, 112, 59.25869750976562
0, 3, 113, 50.43020629882812
0, 3, 114, 47.05869674682617
0, 3, 115, 54.67454528808594
0, 3, 116, 42.48449325561523
0, 3, 117, 38.49849319458008
0, 3, 118, 36.54910278320312
0, 3, 119, 33.48793792724609
0, 3, 120, 29.9862003326416
0, 3, 121, 19.24097633361816
0, 3, 122, 27.3290843963623
0, 3, 123, 25.96687889099121
0, 3, 124, 22.86521911621094
0, 3, 125, 28.74709701538086
0, 3, 126, 25.41948127746582
0, 3, 127, 17.57794761657715
0, 4, 0, 19.80485534667969
0, 4, 1, 20.04247665405273
0, 4, 2, 23.93630027770996
0, 4, 3, 21.91022491455078
0, 4, 4, 27.30990409851074
0, 4, 5, 31.84136390686035
0, 4, 6, 30.34497833251953
0, 4, 7, 32.28881072998047
0, 4, 8, 30.15775299072266
0, 4, 9, 34.31301498413086
0, 4, 10, 30.99211883544922
0, 4, 11, 36.86264419555664
0, 4, 12, 42.70290756225586
0, 4, 13, 52.24149703979492
0, 4, 14, 47.83072280883789
0, 4, 15, 62.36014556884766
0, 4, 16, 72.30338287353516
0, 4, 17, 113.8515472412109
0, 4, 18, 447.40771484375
0, 4, 19, 1177.864501953125
0, 4, 20, 1447.970947265625
0, 4, 21, 1418.660034179688
0, 4, 22, 1430.561889648438
0, 4, 23, 1449.054565429688
0, 4, 24, 1477.741088867188
0, 4, 25, 1405.494384765625
0, 4, 26, 1536.791015625
0, 4, 27, 1545.477783203125
0, 4, 28, 1507.5029296875
0, 4, 29, 1517.599853515625
0, 4, 30, 1530.474853515625
0, 4, 31, 1577.938720703125
0, 4, 32, 1518.703857421875
0, 4, 33, 1493.466064453125
0, 4, 34, 1469.2998046875
0, 4, 35, 1563.6611328125
0, 4, 36, 1503.123657226562
0, 4, 37, 1513.678588867188
0, 4, 38, 1537.427490234375
0, 4, 39, 1472.01806640625
0, 4, 40, 1514.966552734375
0, 4, 41, 1581.734008789062
0, 4, 42, 1563.327392578125
0, 4, 43, 1472.1572265625
0, 4, 44, 1495.560546875
0, 4, 45, 1517.097290039062
0, 4, 46, 1466.773681640625
0, 4, 47, 1504.614501953125
0, 4, 48, 1529.22705078125
0, 4, 49, 1474.739379882812
0, 4, 50, 1517.364624023438
0, 4, 51, 1496.280517578125
0, 4, 52, 1491.97021484375
0, 4, 53, 1452.709228515625
0, 4, 54, 1443.40478515625
0, 4, 55, 1525.12109375
0, 4, 56, 1449.98583984375
0, 4, 57, 1496.550415039062
0, 4, 58, 1465.490478515625
0, 4, 59, 1462.299560546875
0, 4, 60, 1527.49267578125
0, 4, 61, 1502.939575195312
0, 4, 62, 1501.194580078125
0, 4, 63, 1544.68701171875
0, 4, 64, 1595.557250976562
0, 4, 65, 1421.002197265625
0, 4, 66, 1512.496337890625
0, 4, 67, 1519.694458007812
0, 4, 68, 1495.852172851562
0, 4, 69, 1467.05517578125
0, 4, 70, 1544.465209960938
0, 4, 71, 1520.815307617188
0, 4, 72, 1532.084228515625
0, 4, 73, 1491.396118164062
0, 4, 74, 1485.893188476562
0, 4, 75, 1535.031860351562
0, 4, 76, 1477.421630859375
0, 4, 77, 1499.338500976562
0, 4, 78, 1504.945068359375
0, 4, 79, 1486.864013671875
0, 4, 80, 1511.643676757812
0, 4, 81, 1523.494018554688
0, 4, 82, 1572.722045898438
0, 4, 83, 1502.94677734375
0, 4, 84, 1536.237915039062
0, 4, 85, 1552.995849609375
0, 4, 86, 1525.324584960938
0, 4, 87, 1502.1611328125
0, 4, 88, 1515.17041015625
0, 4, 89, 1485.9599609375
0, 4, 90, 1545.434204101562
0, 4, 91, 1552.258422851562
0, 4, 92, 1491.960571289062
0, 4, 93, 1517.333740234375
0, 4, 94, 1483.901245117188
0, 4, 95, 1509.912963867188
0, 4, 96, 1439.561645507812
0, 4, 97, 1409.707275390625
0, 4, 98, 1558.336059570312
0, 4, 99, 1509.21875
0, 4, 100, 1493.592041015625
0, 4, 101, 1446.821533203125
0, 4, 102, 1441.326293945312
0, 4, 103, 1512.251953125
0, 4, 104, 1511.622314453125
0, 4, 105, 1553.423828125
0, 4, 106, 1476.71826171875
0, 4, 107, 1453.222290039062
0, 4, 108, 1119.181030273438
0, 4, 109, 435.1534118652344
0, 4, 110, 96.53778076171875
0, 4, 111, 72.41471099853516
0, 4, 112, 58.64513778686523
0, 4, 113, 53.0518913269043
0, 4, 114, 54.19841766357422
0, 4, 115, 48.58473205566406
0, 4, 116, 32.63602828979492
0, 4, 117, 40.87639999389648
0, 4, 118, 46.54875946044922
0, 4, 119, 38.73159027099609
0, 4, 120, 36.04959869384766
0, 4, 121, 31.63969230651855
0, 4, 122, 31.14497947692871
0, 4, 123, 26.45602416992188
0, 4, 124, 20.16964912414551
0, 4, 125, 30.20510482788086
0, 4, 126, 23.58721351623535
0, 4, 127, 24.76848411560059
0, 5, 0, 22.05518341064453
0, 5, 1, 26.72381591796875
0, 5, 2, 31.93023109436035
0, 5, 3, 24.33979225158691
0, 5, 4, 24.57433128356934
0, 5, 5, 34.2609977722168
0, 5, 6, 29.47089576721191
0, 5, 7, 30.35007286071777
0, 5, 8, 30.13059616088867
0, 5, 9, 34.77928161621094
0, 5, 10, 36.11020278930664
0, 5, 11, 36.48316192626953
0, 5, 12, 39.51778030395508
0, 5, 13, 43.83003234863281
0, 5, 14, 60.36912536621094
0, 5, 15, 76.07545471191406
0, 5, 16, 80.92263793945312
0, 5, 17, 155.3108673095703
0, 5, 18, 672.7595825195312
0, 5, 19, 1345.602294921875
0, 5, 20, 1524.271362304688
0, 5, 21, 1493.177001953125
0, 5, 22, 1495.923461914062
0, 5, 23, 1533.476928710938
0, 5, 24, 1467.8525390625
0, 5, 25, 1427.368286132812
0, 5, 26, 1526.041015625
0, 5, 27, 1545.115966796875
0, 5, 28, 1489.169921875
0, 5, 29, 1521.91650390625
0, 5, 30, 1494.598022460938
0, 5, 31, 1499.819091796875
0, 5, 32, 1594.312133789062
0, 5, 33, 1505.202758789062
0, 5, 34, 1482.903930664062
0, 5, 35, 1512.86376953125
0, 5, 36, 1440.46533203125
0, 5, 37, 1534.169189453125
0, 5, 38, 1546.432006835938
0, 5, 39, 1548.588256835938
0, 5, 40, 1502.359252929688
0, 5, 41, 1481.037719726562
0, 5, 42, 1542.262939453125
0, 5, 43, 1535.594970703125
0, 5, 44, 1545.511596679688
0, 5, 45, 1505.392944335938
0, 5, 46, 1491.393676757812
0, 5, 47, 1486.088745117188
0, 5, 48, 1504.031372070312
0, 5, 49, 1526.332641601562
0, 5, 50, 1511.271484375
0, 5, 51, 1513.248291015625
0, 5, 52, 1430.71240234375
0, 5, 53, 1522.077270507812
0, 5, 54, 1519.6025390625
0, 5, 55, 1520.390991210938
0, 5, 56, 1487.039794921875
0, 5, 57, 1540.757690429688
0, 5, 58, 1506.6240234375
0, 5, 59, 1488.924560546875
0, 5, 60, 1535.449462890625
0, 5, 61, 1452.688720703125
0, 5, 62, 1587.092163085938
0, 5, 63, 1434.428955078125
0, 5, 64, 1492.35791015625
0, 5, 65, 1467.396606445312
0, 5, 66, 1525.420043945312
0, 5, 67, 1564.108032226562
0, 5, 68, 1464.972045898438
0, 5, 69, 1480.990600585938
0, 5, 70, 1487.828247070312
0, 5, 71, 1473.527954101562
0, 5, 72, 1540.575317382812
0, 5, 73, 1460.828857421875
0, 5, 74, 1493.170532226562
0, 5, 75, 1488.185424804688
0, 5, 76, 1480.431884765625
0, 5, 77, 1518.221557617188
0, 5, 78, 1523.316772460938
0, 5, 79, 1511.23486328125
0, 5, 80, 1520.916259765625
0, 5, 81, 1592.594848632812
0, 5, 82, 1528.057983398438
0, 5, 83, 1487.612182617188
0, 5, 84, 1534.928833007812
0, 5, 85, 1517.393188476562
0, 5, 86, 1561.095458984375
0, 5, 87, 1473.655395507812
0, 5, 88, 1497.163818359375
0, 5, 89, 1479.656616210938
0, 5, 90, 1480.160522460938
0, 5, 91, 1549.202026367188
0, 5, 92, 1479.175537109375
0, 5, 93, 1561.501220703125
0, 5, 94, 1509.812622070312
0, 5, 95, 1557.80517578125
0, 5, 96, 1499.504028320312
0, 5, 97, 1508.0107421875
0, 5, 98, 1507.791015625
0, 5, 99, 1541.010375976562
0, 5, 100, 1434.125244140625
0, 5, 101, 1426.360717773438
0, 5, 102, 1513.931518554688
0, 5, 103, 1475.59619140625
0, 5, 104, 1462.545166015625
0, 5, 105, 1493.127685546875
0, 5, 106, 1458.642456054688
0, 5, 107, 1398.9658203125
0, 5, 108, 1287.887939453125
0, 5, 109, 718.2285766601562
0, 5, 110, 191.4366149902344
0, 5, 111, 90.55458068847656
0, 5, 112, 80.85776519775391
0, 5, 113, 71.04475402832031
0, 5, 114, 59.59436798095703
0, 5, 115, 57.1837158203125
0, 5, 116, 42.0653076171875
0, 5, 117, 36.17263412475586
0, 5, 118, 35.67566299438477
0, 5, 119, 27.9644832611084
0, 5, 120, 25.54167175292969
0, 5, 121, 31.56809997558594
0, 5, 122, 31.83467483520508
0, 5, 123, 28.05265426635742
0, 5, 124, 33.73516845703125
0, 5, 125, 23.8306827545166
0, 5, 126, 24.79323768615723
0, 5, 127, 25.32748794555664
0, 6, 0, 22.13888359069824
0, 6, 1, 28.94737815856934
0, 6, 2, 33.22350692749023
0, 6, 3, 26.90508270263672
0, 6, 4, 23.20088958740234
0, 6, 5, 36.82796478271484
0, 6, 6, 36.81142044067383
0, 6, 7, 32.73030853271484
0, 6, 8, 34.23608779907227
0, 6, 9, 34.95395660400391
0, 6, 10, 36.29509735107422
0, 6, 11, 39.02764511108398
0, 6, 12, 37.62522888183594
0, 6, 13, 57.3179931640625
0, 6, 14, 61.95795059204102
0, 6, 15, 80.34693145751953
0, 6, 16, 113.1179656982422
0, 6, 17, 304.794677734375
0, 6, 18, 900.4033203125
0, 6, 19, 1374.898559570312
0, 6, 20, 1437.339477539062
0, 6, 21, 1527.839599609375
0, 6, 22, 1498.493896484375
0, 6, 23, 1526.756591796875
0, 6, 24, 1476.001831054688
0, 6, 25, 1533.113647460938
0, 6, 26, 1519.419799804688
0, 6, 27, 1520.161865234375
0, 6, 28, 1552.1484375
0, 6, 29, 1575.157836914062
0, 6, 30, 1521.514404296875
0, 6, 31, 1489.990844726562
0, 6, 32, 1526.087280273438
0, 6, 33, 1494.611328125
0, 6, 34, 1558.887329101562
0, 6, 35, 1503.308471679688
0, 6, 36, 1441.381713867188
0, 6, 37, 1545.048461914062
0, 6, 38, 1525.067260742188
0, 6, 39, 1527.938842773438
0, 6, 40, 1458.789672851562
0, 6, 41, 1439.308715820312
0, 6, 42, 1513.328979492188
0, 6, 43, 1489.807739257812
0, 6, 44, 1431.937377929688
0, 6, 45, 1543.679077148438
0, 6, 46, 1552.942626953125
0, 6, 47, 1497.268188476562
0, 6, 48, 1523.477661132812
0, 6, 49, 1507.861572265625
0, 6, 50, 1574.540893554688
0, 6, 51, 1501.178955078125
0, 6, 52, 1561.988159179688
0, 6, 53, 1474.159912109375
0, 6, 54, 1497.655883789062
0, 6, 55, 1578.828735351562
0, 6, 56, 1526.817993164062
0, 6, 57, 1508.184204101562
0, 6, 58, 1468.122802734375
0, 6, 59, 1524.811279296875
0, 6, 60, 1471.92626953125
0, 6, 61, 1566.180541992188
0, 6, 62, 1552.624877929688
0, 6, 63, 1496.869262695312
0, 6, 64, 1410.201293945312
0, 6, 65, 1490.02587890625
0, 6, 66, 1512.356323242188
0, 6, 67, 1508.934936523438
0, 6, 68, 1545.786254882812
0, 6, 69, 1492.01611328125
0, 6, 70, 1527.040283203125
0, 6, 71, 1469.087646484375
0, 6, 72, 1594.1767578125
0, 6, 73, 1488.96142578125
0, 6, 74, 1558.229614257812
0, 6, 75, 1537.260009765625
0, 6, 76, 1563.033935546875
0, 6, 77, 1509.891723632812
0, 6, 78, 1447.90380859375
0, 6, 79, 1554.379516601562
0, 6, 80, 1481.757202148438
0, 6, 81, 1486.596923828125
0, 6, 82, 1499.915771484375
0, 6, 83, 1524.107543945312
0, 6, 84, 1528.733276367188
0, 6, 85, 1538.479248046875
0, 6, 86, 1539.79541015625
0, 6, 87, 1566.703979492188
0, 6, 88, 1480.998291015625
0, 6, 89, 1559.859741210938
0, 6, 90, 1495.907958984375
0, 6, 91, 1539.796142578125
0, 6, 92, 1489.05029296875
0, 6, 93, 1493.156127929688
0, 6, 94, 1478.575073242188
0, 6, 95, 1508.733032226562
0, 6, 96, 1517.779663085938
0, 6, 97, 1515.263427734375
0, 6, 98, 1498.5546875
0, 6, 99, 1482.734741210938
0, 6, 100, 1523.374267578125
0, 6, 101, 1515.235717773438
0, 6, 102, 1538.248046875
0, 6, 103, 1502.019775390625
0, 6, 104, 1465.438842773438
0, 6, 105, 1487.796752929688
0, 6, 106, 1494.244995117188
0, 6, 107, 1500.629028320312
0, 6, 108, 1410.902465820312
0, 6, 109, 924.5697021484375
0, 6, 110, 280.2099914550781
0, 6, 111, 99.64191436767578
0, 6, 112, 81.34917449951172
0, 6, 113, 56.01768112182617
0, 6, 114, 55.49005126953125
0, 6, 115, 43.71857452392578
0, 6, 116, 43.59821319580078
0, 6, 117, 40.52083587646484
0, 6, 118, 41.60868072509766
0, 6, 119, 35.44345855712891
0, 6, 120, 31.63019561767578
0, 6, 121, 28.53919982910156
0, 6, 122, 29.88989067077637
0, 6, 123, 25.71065711975098
0, 6, 124, 26.13719749450684
0, 6, 125, 31.63449287414551
0, 6, 126, 19.10275650024414
0, 6, 127, 21.50642967224121
0, 7, 0, 21.47134780883789
0, 7, 1, 30.24721336364746
0, 7, 2, 23.13150024414062
0, 7, 3, 21.62600708007812
0, 7, 4, 24.45562171936035
0, 7, 5, 35.88546752929688
0, 7, 6, 33.42078018188477
0, 7, 7, 37.21552276611328
0, 7, 8, 34.73321914672852
0, 7, 9, 36.60214233398438
0, 7, 10, 45.47434997558594
0, 7, 11, 51.43051147460938
0, 7, 12, 45.9659423828125
0, 7, 13, 52.46245956420898
0, 7, 14, 61.81159591674805
0, 7, 15, 79.33101654052734
0, 7, 16, 129.2285003662109
0, 7, 17, 462.8315734863281
0, 7, 18, 1099.5908203125
0, 7, 19, 1497.1474609375
0, 7, 20, 1486.670043945312
0, 7, 21, 1361.9169921875
0, 7, 22, 1491.276123046875
0, 7, 23, 1456.598999023438
0, 7, 24, 1508.095092773438
0, 7, 25, 1595.329223632812
0, 7, 26, 1516.9453125
0, 7, 27, 1512.681274414062
0, 7, 28, 1545.763427734375
0, 7, 29, 1571.710815429688
0, 7, 30, 1546.911254882812
0, 7, 31, 1438.50244140625
0, 7, 32, 1542.011840820312
0, 7, 33, 1492.296997070312
0, 7, 34, 1476.240600585938
0, 7, 35, 1522.386962890625
0, 7, 36, 1471.78857421875
0, 7, 37, 1599.626342773438
0, 7, 38, 1502.912963867188
0, 7, 39, 1493.658081054688
0, 7, 40, 1542.732055664062
0, 7, 41, 1465.133666992188
0, 7, 42, 1486.1572265625
0, 7, 43, 1446.60693359375
0, 7, 44, 1487.175537109375
0, 7, 45, 1470.704223632812
0, 7, 46, 1516.047241210938
0, 7, 47, 1567.753051757812
0, 7, 48, 1524.533325195312
0, 7, 49, 1538.69140625
0, 7, 50, 1514.342895507812
0, 7, 51, 1496.90380859375
0, 7, 52, 1514.068115234375
0, 7, 53, 1496.671264648438
0, 7, 54, 1584.080444335938
0, 7, 55, 1469.313842773438
0, 7, 56, 1552.96435546875
0, 7, 57, 1515.026733398438
0, 7, 58, 1548.1416015625
0, 7, 59, 1538.618530273438
0, 7, 60, 1543.508911132812
0, 7, 61, 1487.506225585938
0, 7, 62, 1433.5703125
0, 7, 63, 1512.380737304688
0, 7, 64, 1541.973510742188
0, 7, 65, 1529.223022460938
0, 7, 66, 1536.018676757812
0, 7, 67, 1578.484008789062
0, 7, 68, 1528.991088867188
0, 7, 69, 1519.229125976562
0, 7, 70, 1493.866943359375
0, 7, 71, 1520.832763671875
0, 7, 72, 1520.098266601562
0, 7, 73, 1517.577270507812
0, 7, 74, 1575.076904296875
0, 7, 75, 1538.846069335938
0, 7, 76, 1557.991577148438
0, 7, 77, 1511.45068359375
0, 7, 78, 1508.812255859375
0, 7, 79, 1429.159790039062
0, 7, 80, 1486.5830078125
0, 7, 81, 1496.586181640625
0, 7, 82, 1528.725341796875
0, 7, 83, 1542.031616210938
0, 7, 84, 1585.170776367188
0, 7, 85, 1480.808959960938
0, 7, 86, 1507.246215820312
0, 7, 87, 1505.284423828125
0, 7, 88, 1500.193237304688
0, 7, 89, 1554.059936523438
0, 7, 90, 1524.443481445312
0, 7, 91, 1561.10009765625
0, 7, 92, 1528.597778320312
0, 7, 93, 1549.958618164062
0, 7, 94, 1536.509155273438
0, 7, 95, 1505.532592773438
0, 7, 96, 1503.350463867188
0, 7, 97, 1437.227294921875
0, 7, 98, 1483.6640625
0, 7, 99, 1530.788330078125
0, 7, 100, 1423.072021484375
0, 7, 101, 1462.875366210938
0, 7, 102, 1448.743041992188
0, 7, 103, 1431.422973632812
0, 7, 104, 1491.880249023438
0, 7, 105, 1522.026245117188
0, 7, 106, 1565.534545898438
0, 7, 107, 1483.28857421875
0, 7, 108, 1410.10595703125
0, 7, 109, 1144.12060546875
0, 7, 110, 470.6399841308594
0, 7, 111, 128.5076751708984
0, 7, 112, 79.51798248291016
0, 7, 113, 67.35865783691406
0, 7, 114, 59.24136734008789
0, 7, 115, 51.32080841064453
0, 7, 116, 43.66016387939453
0, 7, 117, 43.6331901550293
0, 7, 118, 35.01530075073242
0, 7, 119, 42.09153366088867
0, 7, 120, 27.37919616699219
0, 7, 121, 31.9544734954834
0, 7, 122, 28.70992660522461
0, 7, 123, 32.86282348632812
0, 7, 124, 30.6510124206543
0, 7, 125, 21.12612533569336
0, 7, 126, 27.20274925231934
0, 7, 127, 21.88894271850586
0, 8, 0, 26.12793922424316
0, 8, 1, 27.47434997558594
0, 8, 2, 26.61749458312988
0, 8, 3, 28.0240592956543
0, 8, 4, 23.15125846862793
0, 8, 5, 37.86656188964844
0, 8, 6, 31.92006683349609
0, 8, 7, 26.12688446044922
0, 8, 8, 35.28560638427734
0, 8, 9, 44.82040786743164
0, 8, 10, 41.32657623291016
0, 8, 11, 43.22883987426758
0, 8, 12, 58.2453498840332
0, 8, 13, 69.22170257568359
0, 8, 14, 67.61519622802734
0, 8, 15, 92.40119934082031
0, 8, 16, 169.9030609130859
0, 8, 17, 670.7288818359375
0, 8, 18, 1277.74462890625
0, 8, 19, 1447.601196289062
0, 8, 20, 1422.379150390625
0, 8, 21, 1406.19970703125
0, 8, 22, 1486.949951171875
0, 8, 23, 1481.038940429688
0, 8, 24, 1436.13671875
0, 8, 25, 1460.5703125
0, 8, 26, 1511.882934570312
0, 8, 27, 1521.48486328125
0, 8, 28, 1474.71337890625
0, 8, 29, 1502.785766601562
0, 8, 30, 1486.489379882812
0, 8, 31, 1533.70751953125
0, 8, 32, 1510.677612304688
0, 8, 33, 1479.135498046875
0, 8, 34, 1534.857299804688
0, 8, 35, 1441.61181640625
0, 8, 36, 1499.596069335938
0, 8, 37, 1558.556030273438
0, 8, 38, 1554.50537109375
0, 8, 39, 1490.063598632812
0, 8, 40, 1529.563354492188
0, 8, 41, 1480.887084960938
0, 8, 42, 1537.398803710938
0, 8, 43, 1432.1845703125
0, 8, 44, 1533.710571289062
0, 8, 45, 1508.6396484375
