# TOPAS Version: 3.1.p3
# Parameter File: batch_inserts_48.txt
# Results for scorer Readout_Adipose
# Scored in component: MyBox
# X in 1 bin  of 0.75 cm
# Y in 512 bins of 0.0783984 cm
# Z in 128 bins of 0.078125 cm
# EnergyDeposit ( MeV ) : Sum   
0, 0, 0, 5.210923194885254
0, 0, 1, 2.023871898651123
0, 0, 2, 3.895509243011475
0, 0, 3, 1.176010012626648
0, 0, 4, 5.422727584838867
0, 0, 5, 5.082971096038818
0, 0, 6, 7.478209972381592
0, 0, 7, 8.363122940063477
0, 0, 8, 3.204523086547852
0, 0, 9, 4.285895824432373
0, 0, 10, 7.895295143127441
0, 0, 11, 5.396640300750732
0, 0, 12, 6.625837326049805
0, 0, 13, 4.524180889129639
0, 0, 14, 8.30059814453125
0, 0, 15, 8.955281257629395
0, 0, 16, 8.443683624267578
0, 0, 17, 10.37967967987061
0, 0, 18, 13.27751541137695
0, 0, 19, 44.66792297363281
0, 0, 20, 140.04931640625
0, 0, 21, 222.5828552246094
0, 0, 22, 248.7330932617188
0, 0, 23, 257.5570373535156
0, 0, 24, 250.4247131347656
0, 0, 25, 259.9976806640625
0, 0, 26, 237.5054931640625
0, 0, 27, 236.6849670410156
0, 0, 28, 271.5576477050781
0, 0, 29, 252.0003814697266
0, 0, 30, 229.3567657470703
0, 0, 31, 243.8334503173828
0, 0, 32, 263.1195373535156
0, 0, 33, 262.1073608398438
0, 0, 34, 288.0099792480469
0, 0, 35, 266.518310546875
0, 0, 36, 247.6398620605469
0, 0, 37, 252.2209167480469
0, 0, 38, 268.239990234375
0, 0, 39, 229.3641052246094
0, 0, 40, 243.5324249267578
0, 0, 41, 265.9725952148438
0, 0, 42, 229.0922241210938
0, 0, 43, 259.9033203125
0, 0, 44, 251.9626770019531
0, 0, 45, 253.8050994873047
0, 0, 46, 244.6387023925781
0, 0, 47, 253.3226776123047
0, 0, 48, 269.5382995605469
0, 0, 49, 274.6445922851562
0, 0, 50, 250.0956573486328
0, 0, 51, 252.7754211425781
0, 0, 52, 275.9023742675781
0, 0, 53, 291.15625
0, 0, 54, 242.1165008544922
0, 0, 55, 239.5137634277344
0, 0, 56, 278.8270263671875
0, 0, 57, 263.6435852050781
0, 0, 58, 246.609619140625
0, 0, 59, 273.5780944824219
0, 0, 60, 235.6089477539062
0, 0, 61, 244.3869934082031
0, 0, 62, 260.9273681640625
0, 0, 63, 269.0757446289062
0, 0, 64, 255.1962280273438
0, 0, 65, 262.5483703613281
0, 0, 66, 275.8431701660156
0, 0, 67, 247.2969970703125
0, 0, 68, 258.5037231445312
0, 0, 69, 262.3291931152344
0, 0, 70, 273.8220520019531
0, 0, 71, 239.0311431884766
0, 0, 72, 249.6731567382812
0, 0, 73, 259.5128784179688
0, 0, 74, 250.7115020751953
0, 0, 75, 239.4273529052734
0, 0, 76, 228.2775115966797
0, 0, 77, 260.8007202148438
0, 0, 78, 256.1360778808594
0, 0, 79, 279.2070617675781
0, 0, 80, 217.4408111572266
0, 0, 81, 268.6307983398438
0, 0, 82, 257.1182861328125
0, 0, 83, 246.2157440185547
0, 0, 84, 270.5006408691406
0, 0, 85, 230.8709869384766
0, 0, 86, 253.9563751220703
0, 0, 87, 250.7016143798828
0, 0, 88, 260.0105590820312
0, 0, 89, 282.6210327148438
0, 0, 90, 243.1304931640625
0, 0, 91, 280.7139587402344
0, 0, 92, 252.1538543701172
0, 0, 93, 249.3505554199219
0, 0, 94, 248.6191558837891
0, 0, 95, 247.00927734375
0, 0, 96, 274.9653015136719
0, 0, 97, 271.7727355957031
0, 0, 98, 274.6345825195312
0, 0, 99, 259.5452880859375
0, 0, 100, 256.8852233886719
0, 0, 101, 226.2905426025391
0, 0, 102, 232.2476959228516
0, 0, 103, 269.8089599609375
0, 0, 104, 254.2012634277344
0, 0, 105, 250.9446563720703
0, 0, 106, 247.7876586914062
0, 0, 107, 153.1051635742188
0, 0, 108, 39.03091812133789
0, 0, 109, 13.95836353302002
0, 0, 110, 11.76223373413086
0, 0, 111, 11.52350330352783
0, 0, 112, 8.902704238891602
0, 0, 113, 5.654426097869873
0, 0, 114, 6.577705860137939
0, 0, 115, 5.415704250335693
0, 0, 116, 5.079926490783691
0, 0, 117, 5.989302635192871
0, 0, 118, 6.762067317962646
0, 0, 119, 3.6928551197052
0, 0, 120, 3.10224986076355
0, 0, 121, 4.138976097106934
0, 0, 122, 7.515497207641602
0, 0, 123, 2.980051517486572
0, 0, 124, 7.340447425842285
0, 0, 125, 2.476896524429321
0, 0, 126, 4.128310203552246
0, 0, 127, 4.789115428924561
0, 1, 0, 8.113797187805176
0, 1, 1, 7.086283206939697
0, 1, 2, 6.190569400787354
0, 1, 3, 2.534020185470581
0, 1, 4, 3.171778440475464
0, 1, 5, 2.588066577911377
0, 1, 6, 3.859989404678345
0, 1, 7, 3.406364440917969
0, 1, 8, 9.941845893859863
0, 1, 9, 3.16335654258728
0, 1, 10, 8.164241790771484
0, 1, 11, 11.36211967468262
0, 1, 12, 10.11354637145996
0, 1, 13, 11.63910961151123
0, 1, 14, 8.179673194885254
0, 1, 15, 7.29936408996582
0, 1, 16, 11.89407634735107
0, 1, 17, 11.00566864013672
0, 1, 18, 20.27785491943359
0, 1, 19, 66.27764129638672
0, 1, 20, 197.5702667236328
0, 1, 21, 255.5097808837891
0, 1, 22, 294.8824157714844
0, 1, 23, 283.3056945800781
0, 1, 24, 276.6322021484375
0, 1, 25, 286.1761169433594
0, 1, 26, 268.0100708007812
0, 1, 27, 305.1905822753906
0, 1, 28, 301.2989196777344
0, 1, 29, 297.8265686035156
0, 1, 30, 281.0093078613281
0, 1, 31, 293.5666809082031
0, 1, 32, 289.6270751953125
0, 1, 33, 295.7701721191406
0, 1, 34, 291.7435913085938
0, 1, 35, 279.3548583984375
0, 1, 36, 307.5579833984375
0, 1, 37, 294.7890014648438
0, 1, 38, 280.9390258789062
0, 1, 39, 295.1296997070312
0, 1, 40, 265.5462036132812
0, 1, 41, 285.0286560058594
0, 1, 42, 289.1037292480469
0, 1, 43, 334.7485656738281
0, 1, 44, 277.9193725585938
0, 1, 45, 293.724365234375
0, 1, 46, 259.2676696777344
0, 1, 47, 309.4122009277344
0, 1, 48, 284.8431701660156
0, 1, 49, 303.1209106445312
0, 1, 50, 263.1728210449219
0, 1, 51, 274.1123352050781
0, 1, 52, 298.5359191894531
0, 1, 53, 303.6341552734375
0, 1, 54, 273.6016845703125
0, 1, 55, 293.8289184570312
0, 1, 56, 278.0576477050781
0, 1, 57, 297.7109985351562
0, 1, 58, 310.3858642578125
0, 1, 59, 294.0413818359375
0, 1, 60, 296.6714477539062
0, 1, 61, 276.348876953125
0, 1, 62, 310.3441772460938
0, 1, 63, 284.8807983398438
0, 1, 64, 287.9948425292969
0, 1, 65, 293.6113586425781
0, 1, 66, 291.1117248535156
0, 1, 67, 292.3821716308594
0, 1, 68, 278.2890625
0, 1, 69, 279.0619201660156
0, 1, 70, 270.7590637207031
0, 1, 71, 274.5968933105469
0, 1, 72, 287.825927734375
0, 1, 73, 303.8164978027344
0, 1, 74, 302.6175842285156
0, 1, 75, 293.888916015625
0, 1, 76, 283.8228149414062
0, 1, 77, 290.9137268066406
0, 1, 78, 296.1531066894531
0, 1, 79, 303.9962463378906
0, 1, 80, 295.2546081542969
0, 1, 81, 300.3216857910156
0, 1, 82, 283.5138244628906
0, 1, 83, 332.884033203125
0, 1, 84, 309.9559020996094
0, 1, 85, 253.3830413818359
0, 1, 86, 293.35986328125
0, 1, 87, 289.7786254882812
0, 1, 88, 298.85009765625
0, 1, 89, 292.93701171875
0, 1, 90, 270.498291015625
0, 1, 91, 317.3859252929688
0, 1, 92, 290.94970703125
0, 1, 93, 286.769775390625
0, 1, 94, 302.8874816894531
0, 1, 95, 283.3688049316406
0, 1, 96, 283.5585632324219
0, 1, 97, 301.1567687988281
0, 1, 98, 277.4585876464844
0, 1, 99, 265.7795715332031
0, 1, 100, 276.9493408203125
0, 1, 101, 281.8465576171875
0, 1, 102, 277.871826171875
0, 1, 103, 281.94775390625
0, 1, 104, 306.4970092773438
0, 1, 105, 296.9859008789062
0, 1, 106, 263.8183288574219
0, 1, 107, 192.0816955566406
0, 1, 108, 82.22036743164062
0, 1, 109, 23.67430686950684
0, 1, 110, 12.92743682861328
0, 1, 111, 8.635151863098145
0, 1, 112, 12.78952121734619
0, 1, 113, 8.782637596130371
0, 1, 114, 6.028251171112061
0, 1, 115, 7.524009227752686
0, 1, 116, 12.51091194152832
0, 1, 117, 7.402962684631348
0, 1, 118, 4.833340644836426
0, 1, 119, 4.339141845703125
0, 1, 120, 4.018761157989502
0, 1, 121, 3.221130847930908
0, 1, 122, 2.238859415054321
0, 1, 123, 4.109478950500488
0, 1, 124, 6.545749187469482
0, 1, 125, 4.141632556915283
0, 1, 126, 4.7947998046875
0, 1, 127, 1.70792543888092
0, 2, 0, 3.879485368728638
0, 2, 1, 1.341833353042603
0, 2, 2, 2.811104536056519
0, 2, 3, 5.119985103607178
0, 2, 4, 4.131309509277344
0, 2, 5, 1.345771789550781
0, 2, 6, 2.340980291366577
0, 2, 7, 4.80275297164917
0, 2, 8, 4.355914115905762
0, 2, 9, 5.692301273345947
0, 2, 10, 10.62393188476562
0, 2, 11, 7.304141044616699
0, 2, 12, 6.644980907440186
0, 2, 13, 9.289385795593262
0, 2, 14, 9.653474807739258
0, 2, 15, 9.215076446533203
0, 2, 16, 9.841780662536621
0, 2, 17, 15.32173156738281
0, 2, 18, 30.80978202819824
0, 2, 19, 115.2192916870117
0, 2, 20, 247.150634765625
0, 2, 21, 272.7787170410156
0, 2, 22, 314.5749206542969
0, 2, 23, 300.3300170898438
0, 2, 24, 287.8510437011719
0, 2, 25, 302.5883178710938
0, 2, 26, 293.3760986328125
0, 2, 27, 274.5262451171875
0, 2, 28, 274.02490234375
0, 2, 29, 275.3932800292969
0, 2, 30, 291.3100280761719
0, 2, 31, 276.6861267089844
0, 2, 32, 296.5260925292969
0, 2, 33, 280.7103576660156
0, 2, 34, 335.653564453125
0, 2, 35, 292.2729797363281
0, 2, 36, 302.6585998535156
0, 2, 37, 316.2575073242188
0, 2, 38, 314.1617736816406
0, 2, 39, 266.0132141113281
0, 2, 40, 309.2696228027344
0, 2, 41, 293.8677978515625
0, 2, 42, 302.9027404785156
0, 2, 43, 312.5884704589844
0, 2, 44, 313.0213317871094
0, 2, 45, 324.530517578125
0, 2, 46, 290.9039306640625
0, 2, 47, 304.1703491210938
0, 2, 48, 282.8985595703125
0, 2, 49, 280.0418701171875
0, 2, 50, 299.7223510742188
0, 2, 51, 285.7761535644531
0, 2, 52, 272.4104919433594
0, 2, 53, 287.5613098144531
0, 2, 54, 280.1964111328125
0, 2, 55, 277.0974426269531
0, 2, 56, 301.3414611816406
0, 2, 57, 291.2820434570312
0, 2, 58, 302.5684509277344
0, 2, 59, 288.2442321777344
0, 2, 60, 319.6982421875
0, 2, 61, 300.9134826660156
0, 2, 62, 312.3693542480469
0, 2, 63, 306.798828125
0, 2, 64, 295.4538269042969
0, 2, 65, 312.9007873535156
0, 2, 66, 279.8106384277344
0, 2, 67, 290.1024780273438
0, 2, 68, 296.2804565429688
0, 2, 69, 310.0334167480469
0, 2, 70, 333.8487243652344
0, 2, 71, 285.0546264648438
0, 2, 72, 302.2349243164062
0, 2, 73, 310.2278747558594
0, 2, 74, 285.988037109375
0, 2, 75, 307.825439453125
0, 2, 76, 287.1699523925781
0, 2, 77, 303.3276672363281
0, 2, 78, 314.2611999511719
0, 2, 79, 309.1324157714844
0, 2, 80, 298.7329406738281
0, 2, 81, 281.709228515625
0, 2, 82, 319.0986938476562
0, 2, 83, 312.89453125
0, 2, 84, 289.9479370117188
0, 2, 85, 280.2845764160156
0, 2, 86, 324.5049743652344
0, 2, 87, 286.9678955078125
0, 2, 88, 279.2270202636719
0, 2, 89, 295.6272888183594
0, 2, 90, 295.9873046875
0, 2, 91, 277.5144958496094
0, 2, 92, 305.6752319335938
0, 2, 93, 315.9878845214844
0, 2, 94, 292.0650329589844
0, 2, 95, 314.8852233886719
0, 2, 96, 315.2528991699219
0, 2, 97, 295.73291015625
0, 2, 98, 295.2181701660156
0, 2, 99, 274.2178955078125
0, 2, 100, 305.7495727539062
0, 2, 101, 301.1698913574219
0, 2, 102, 296.8675231933594
0, 2, 103, 293.6021728515625
0, 2, 104, 292.2770690917969
0, 2, 105, 273.5247497558594
0, 2, 106, 295.0057983398438
0, 2, 107, 271.0241394042969
0, 2, 108, 116.9648895263672
0, 2, 109, 30.63094902038574
0, 2, 110, 12.23935222625732
0, 2, 111, 11.85484218597412
0, 2, 112, 9.27690601348877
0, 2, 113, 14.43036556243896
0, 2, 114, 8.242446899414062
0, 2, 115, 10.50418663024902
0, 2, 116, 8.400958061218262
0, 2, 117, 6.932309627532959
0, 2, 118, 2.940951108932495
0, 2, 119, 5.108607292175293
0, 2, 120, 4.165274143218994
0, 2, 121, 4.802457332611084
0, 2, 122, 5.889242172241211
0, 2, 123, 5.335929393768311
0, 2, 124, 4.749828815460205
0, 2, 125, 4.609358310699463
0, 2, 126, 3.705196142196655
0, 2, 127, 4.901374816894531
0, 3, 0, 2.111642837524414
0, 3, 1, 4.039724349975586
0, 3, 2, 5.448712825775146
0, 3, 3, 1.157102346420288
0, 3, 4, 3.117059469223022
0, 3, 5, 6.848294734954834
0, 3, 6, 6.445789337158203
0, 3, 7, 5.612488746643066
0, 3, 8, 5.116775989532471
0, 3, 9, 4.390012741088867
0, 3, 10, 5.770269870758057
0, 3, 11, 3.529580593109131
0, 3, 12, 9.01209545135498
0, 3, 13, 15.08721923828125
0, 3, 14, 11.71472263336182
0, 3, 15, 14.21319484710693
0, 3, 16, 10.7733907699585
0, 3, 17, 20.91643142700195
0, 3, 18, 52.59067916870117
0, 3, 19, 177.4291839599609
0, 3, 20, 268.736328125
0, 3, 21, 271.8585815429688
0, 3, 22, 282.6558227539062
0, 3, 23, 287.3487243652344
0, 3, 24, 286.1930236816406
0, 3, 25, 269.990966796875
0, 3, 26, 303.3162231445312
0, 3, 27, 292.0798645019531
0, 3, 28, 279.7328491210938
0, 3, 29, 336.726318359375
0, 3, 30, 317.2671203613281
0, 3, 31, 284.9230651855469
0, 3, 32, 305.3439331054688
0, 3, 33, 315.1075744628906
0, 3, 34, 321.1265869140625
0, 3, 35, 305.5336608886719
0, 3, 36, 269.7446899414062
0, 3, 37, 316.6051025390625
0, 3, 38, 303.2306518554688
0, 3, 39, 286.640625
0, 3, 40, 266.2137756347656
0, 3, 41, 300.9835510253906
0, 3, 42, 286.6304321289062
0, 3, 43, 306.2780456542969
0, 3, 44, 311.8229064941406
0, 3, 45, 289.2174987792969
0, 3, 46, 327.7116088867188
0, 3, 47, 298.7122192382812
0, 3, 48, 306.37890625
0, 3, 49, 275.3054504394531
0, 3, 50, 289.9040222167969
0, 3, 51, 274.2987365722656
0, 3, 52, 315.8863525390625
0, 3, 53, 289.0271301269531
0, 3, 54, 284.9652709960938
0, 3, 55, 283.5668029785156
0, 3, 56, 298.6965942382812
0, 3, 57, 290.4816589355469
0, 3, 58, 306.7879333496094
0, 3, 59, 295.1735229492188
0, 3, 60, 297.2046813964844
0, 3, 61, 267.0488586425781
0, 3, 62, 282.5860900878906
0, 3, 63, 306.3067016601562
0, 3, 64, 316.1405029296875
0, 3, 65, 303.8342590332031
0, 3, 66, 313.1723022460938
0, 3, 67, 318.0393981933594
0, 3, 68, 279.416015625
0, 3, 69, 285.0003051757812
0, 3, 70, 288.8152770996094
0, 3, 71, 300.1819763183594
0, 3, 72, 269.5049438476562
0, 3, 73, 308.3786010742188
0, 3, 74, 294.1593322753906
0, 3, 75, 289.2200317382812
0, 3, 76, 304.8188781738281
0, 3, 77, 312.9084777832031
0, 3, 78, 305.6162109375
0, 3, 79, 281.9819641113281
0, 3, 80, 289.8906860351562
0, 3, 81, 309.7449645996094
0, 3, 82, 315.3568420410156
0, 3, 83, 299.4158630371094
0, 3, 84, 310.2646179199219
0, 3, 85, 294.9183959960938
0, 3, 86, 302.532470703125
0, 3, 87, 300.1700744628906
0, 3, 88, 297.8934326171875
0, 3, 89, 294.8589477539062
0, 3, 90, 274.4005737304688
0, 3, 91, 284.8992614746094
0, 3, 92, 302.8850708007812
0, 3, 93, 314.2520751953125
0, 3, 94, 299.7110900878906
0, 3, 95, 335.4628295898438
0, 3, 96, 291.6843566894531
0, 3, 97, 286.3477478027344
0, 3, 98, 277.472900390625
0, 3, 99, 261.4461975097656
0, 3, 100, 283.64404296875
0, 3, 101, 299.5723876953125
0, 3, 102, 274.5507202148438
0, 3, 103, 318.9103088378906
0, 3, 104, 309.4570007324219
0, 3, 105, 289.3682250976562
0, 3, 106, 302.5955505371094
0, 3, 107, 281.3370056152344
0, 3, 108, 166.7212219238281
0, 3, 109, 57.84932708740234
0, 3, 110, 18.54651832580566
0, 3, 111, 14.69870185852051
0, 3, 112, 12.03849124908447
0, 3, 113, 9.266554832458496
0, 3, 114, 11.08876323699951
0, 3, 115, 8.437834739685059
0, 3, 116, 7.014939785003662
0, 3, 117, 7.368689060211182
0, 3, 118, 9.717366218566895
0, 3, 119, 5.589733600616455
0, 3, 120, 4.4402174949646
0, 3, 121, 4.677568912506104
0, 3, 122, 2.852101564407349
0, 3, 123, 7.707553386688232
0, 3, 124, 2.430809736251831
0, 3, 125, 5.888440608978271
0, 3, 126, 6.58759069442749
0, 3, 127, 3.363969326019287
0, 4, 0, 3.266943454742432
0, 4, 1, 4.144626140594482
0, 4, 2, 2.836487531661987
0, 4, 3, 2.519232749938965
0, 4, 4, 7.135025024414062
0, 4, 5, 8.189223289489746
0, 4, 6, 8.046695709228516
0, 4, 7, 4.089999198913574
0, 4, 8, 3.297736406326294
0, 4, 9, 4.244883060455322
0, 4, 10, 6.126573085784912
0, 4, 11, 6.211989879608154
0, 4, 12, 5.12514591217041
0, 4, 13, 8.622255325317383
0, 4, 14, 11.65786743164062
0, 4, 15, 9.295807838439941
0, 4, 16, 13.14594268798828
0, 4, 17, 16.98934173583984
0, 4, 18, 92.41160583496094
0, 4, 19, 224.3710784912109
0, 4, 20, 284.3777465820312
0, 4, 21, 273.89501953125
0, 4, 22, 305.8420715332031
0, 4, 23, 265.9056701660156
0, 4, 24, 289.35205078125
0, 4, 25, 272.5248718261719
0, 4, 26, 294.4759826660156
0, 4, 27, 282.009765625
0, 4, 28, 308.5171203613281
0, 4, 29, 323.3697814941406
0, 4, 30, 309.6480102539062
0, 4, 31, 303.4739990234375
0, 4, 32, 280.8411254882812
0, 4, 33, 294.7847290039062
0, 4, 34, 297.3794860839844
0, 4, 35, 312.5711669921875
0, 4, 36, 295.6139831542969
0, 4, 37, 287.562744140625
0, 4, 38, 297.2056274414062
0, 4, 39, 294.2211303710938
0, 4, 40, 302.8939819335938
0, 4, 41, 312.7825012207031
0, 4, 42, 331.1929931640625
0, 4, 43, 296.5668029785156
0, 4, 44, 324.5703125
0, 4, 45, 322.3993225097656
0, 4, 46, 308.4147033691406
0, 4, 47, 292.7349548339844
0, 4, 48, 295.6233825683594
0, 4, 49, 277.2042846679688
0, 4, 50, 297.0385437011719
0, 4, 51, 316.0123291015625
0, 4, 52, 326.6362915039062
0, 4, 53, 303.7439270019531
0, 4, 54, 288.8983764648438
0, 4, 55, 314.1923522949219
0, 4, 56, 286.7033386230469
0, 4, 57, 309.556396484375
0, 4, 58, 295.3956298828125
0, 4, 59, 307.1862182617188
0, 4, 60, 301.5484313964844
0, 4, 61, 314.7540893554688
0, 4, 62, 306.8344421386719
0, 4, 63, 300.0036926269531
0, 4, 64, 330.3355102539062
0, 4, 65, 317.4927062988281
0, 4, 66, 293.7534790039062
0, 4, 67, 284.289794921875
0, 4, 68, 314.8545227050781
0, 4, 69, 277.2154846191406
0, 4, 70, 299.9881896972656
0, 4, 71, 319.9764709472656
0, 4, 72, 331.7134094238281
0, 4, 73, 297.2068481445312
0, 4, 74, 291.8556823730469
0, 4, 75, 288.8048095703125
0, 4, 76, 274.0804748535156
0, 4, 77, 280.4284973144531
0, 4, 78, 312.85986328125
0, 4, 79, 317.9195556640625
0, 4, 80, 314.2394714355469
0, 4, 81, 312.6929626464844
0, 4, 82, 296.6884460449219
0, 4, 83, 300.2720642089844
0, 4, 84, 293.1217651367188
0, 4, 85, 293.9762268066406
0, 4, 86, 297.31103515625
0, 4, 87, 284.3128356933594
0, 4, 88, 306.3186645507812
0, 4, 89, 299.3652648925781
0, 4, 90, 332.1087341308594
0, 4, 91, 302.242919921875
0, 4, 92, 291.2863464355469
0, 4, 93, 296.5414733886719
0, 4, 94, 291.3302612304688
0, 4, 95, 289.1387023925781
0, 4, 96, 321.7675476074219
0, 4, 97, 273.825439453125
0, 4, 98, 327.4520568847656
0, 4, 99, 314.6273193359375
0, 4, 100, 301.53076171875
0, 4, 101, 257.8532104492188
0, 4, 102, 295.7850341796875
0, 4, 103, 317.2798461914062
0, 4, 104, 281.1671447753906
0, 4, 105, 311.6031188964844
0, 4, 106, 288.0370483398438
0, 4, 107, 294.9158935546875
0, 4, 108, 230.2771911621094
0, 4, 109, 81.46195983886719
0, 4, 110, 17.82829666137695
0, 4, 111, 13.17703247070312
0, 4, 112, 10.91674423217773
0, 4, 113, 11.38806915283203
0, 4, 114, 9.640027046203613
0, 4, 115, 10.26820755004883
0, 4, 116, 10.60606479644775
0, 4, 117, 8.124394416809082
0, 4, 118, 8.103615760803223
0, 4, 119, 9.625685691833496
0, 4, 120, 7.890410423278809
0, 4, 121, 6.188477993011475
0, 4, 122, 6.199842929840088
0, 4, 123, 5.572949409484863
0, 4, 124, 7.156539440155029
0, 4, 125, 9.591926574707031
0, 4, 126, 3.622560262680054
0, 4, 127, 2.708034992218018
0, 5, 0, 3.664682388305664
0, 5, 1, 3.99859619140625
0, 5, 2, 3.243380308151245
0, 5, 3, 4.061549186706543
0, 5, 4, 3.820464372634888
0, 5, 5, 5.454848766326904
0, 5, 6, 5.309800624847412
0, 5, 7, 4.53781795501709
0, 5, 8, 3.459488153457642
0, 5, 9, 6.24545431137085
0, 5, 10, 9.152911186218262
0, 5, 11, 7.78865909576416
0, 5, 12, 9.239543914794922
0, 5, 13, 5.472863674163818
0, 5, 14, 12.49580478668213
0, 5, 15, 18.91599273681641
0, 5, 16, 15.88534450531006
0, 5, 17, 27.54471206665039
0, 5, 18, 135.8935852050781
0, 5, 19, 289.1618041992188
0, 5, 20, 306.9590148925781
0, 5, 21, 316.256103515625
0, 5, 22, 276.0994567871094
0, 5, 23, 312.7911071777344
0, 5, 24, 303.2484741210938
0, 5, 25, 288.4733276367188
0, 5, 26, 294.1643676757812
0, 5, 27, 324.5031433105469
0, 5, 28, 303.1271362304688
0, 5, 29, 296.6819458007812
0, 5, 30, 324.0610656738281
0, 5, 31, 287.0930480957031
0, 5, 32, 303.2886047363281
0, 5, 33, 304.7250061035156
0, 5, 34, 299.3726196289062
0, 5, 35, 312.27099609375
0, 5, 36, 268.7277526855469
0, 5, 37, 282.0991516113281
0, 5, 38, 294.5474548339844
0, 5, 39, 310.8955688476562
0, 5, 40, 308.390869140625
0, 5, 41, 275.4354858398438
0, 5, 42, 305.8618469238281
0, 5, 43, 315.1201171875
0, 5, 44, 291.2664794921875
0, 5, 45, 305.6228637695312
0, 5, 46, 265.3616027832031
0, 5, 47, 279.2803344726562
0, 5, 48, 291.1846923828125
0, 5, 49, 285.1336975097656
0, 5, 50, 294.873779296875
0, 5, 51, 278.2075805664062
0, 5, 52, 269.880126953125
0, 5, 53, 284.2162170410156
0, 5, 54, 293.2485961914062
0, 5, 55, 345.751953125
0, 5, 56, 306.1645202636719
0, 5, 57, 305.7381591796875
0, 5, 58, 312.4094848632812
0, 5, 59, 303.6923217773438
0, 5, 60, 306.5900268554688
0, 5, 61, 280.3330688476562
0, 5, 62, 326.6290893554688
0, 5, 63, 289.12060546875
0, 5, 64, 323.4032897949219
0, 5, 65, 304.7389526367188
0, 5, 66, 328.5047302246094
0, 5, 67, 314.76171875
0, 5, 68, 308.0194091796875
0, 5, 69, 311.8011474609375
0, 5, 70, 299.604736328125
0, 5, 71, 272.7265319824219
0, 5, 72, 311.0265502929688
0, 5, 73, 301.4601135253906
0, 5, 74, 296.0684814453125
0, 5, 75, 293.6416015625
0, 5, 76, 286.9496459960938
0, 5, 77, 302.1842041015625
0, 5, 78, 313.2215881347656
0, 5, 79, 306.8680725097656
0, 5, 80, 295.0778198242188
0, 5, 81, 325.6114807128906
0, 5, 82, 326.3106384277344
0, 5, 83, 283.6563110351562
0, 5, 84, 302.794189453125
0, 5, 85, 270.9404296875
0, 5, 86, 324.6150207519531
0, 5, 87, 283.0038452148438
0, 5, 88, 315.3385009765625
0, 5, 89, 303.7551879882812
0, 5, 90, 315.1348876953125
0, 5, 91, 314.6395874023438
0, 5, 92, 295.9246215820312
0, 5, 93, 322.6237182617188
0, 5, 94, 308.7830505371094
0, 5, 95, 295.986083984375
0, 5, 96, 297.8154907226562
0, 5, 97, 295.9573974609375
0, 5, 98, 318.2199096679688
0, 5, 99, 300.970703125
0, 5, 100, 291.2515258789062
0, 5, 101, 305.3597717285156
0, 5, 102, 290.83740234375
0, 5, 103, 312.5354614257812
0, 5, 104, 302.3179321289062
0, 5, 105, 291.03857421875
0, 5, 106, 282.7876281738281
0, 5, 107, 294.3763732910156
0, 5, 108, 265.7467041015625
0, 5, 109, 157.2707214355469
0, 5, 110, 39.40924453735352
0, 5, 111, 21.68386077880859
0, 5, 112, 15.01653671264648
0, 5, 113, 14.05279541015625
0, 5, 114, 11.64378261566162
0, 5, 115, 7.024353981018066
0, 5, 116, 8.092816352844238
0, 5, 117, 7.422122955322266
0, 5, 118, 13.82124710083008
0, 5, 119, 2.568278551101685
0, 5, 120, 5.238123416900635
0, 5, 121, 4.124262809753418
0, 5, 122, 8.015149116516113
0, 5, 123, 4.670084953308105
0, 5, 124, 4.970697402954102
0, 5, 125, 4.275216102600098
0, 5, 126, 6.883803844451904
0, 5, 127, 3.362714052200317
0, 6, 0, 7.697635173797607
0, 6, 1, 4.022184371948242
0, 6, 2, 6.129278182983398
0, 6, 3, 5.883745193481445
0, 6, 4, 6.589589595794678
0, 6, 5, 6.903483867645264
0, 6, 6, 6.853021621704102
0, 6, 7, 6.44964599609375
0, 6, 8, 9.010030746459961
0, 6, 9, 6.447920799255371
0, 6, 10, 7.269237995147705
0, 6, 11, 8.928269386291504
0, 6, 12, 8.557028770446777
0, 6, 13, 16.03014755249023
0, 6, 14, 8.391970634460449
0, 6, 15, 15.61407375335693
0, 6, 16, 28.60987091064453
0, 6, 17, 57.07309341430664
0, 6, 18, 171.7823791503906
0, 6, 19, 276.1158447265625
0, 6, 20, 292.3058471679688
0, 6, 21, 314.5265197753906
0, 6, 22, 321.4215393066406
0, 6, 23, 306.1388549804688
0, 6, 24, 321.015625
0, 6, 25, 317.1856384277344
0, 6, 26, 318.7667541503906
0, 6, 27, 330.6891479492188
0, 6, 28, 296.6184692382812
0, 6, 29, 330.8434448242188
0, 6, 30, 282.0401916503906
0, 6, 31, 286.8199462890625
0, 6, 32, 338.4737548828125
0, 6, 33, 301.9005126953125
0, 6, 34, 339.0210876464844
0, 6, 35, 322.1533203125
0, 6, 36, 275.452392578125
0, 6, 37, 290.1046447753906
0, 6, 38, 310.8388366699219
0, 6, 39, 300.6613159179688
0, 6, 40, 285.2762451171875
0, 6, 41, 297.7208251953125
0, 6, 42, 306.0456848144531
0, 6, 43, 291.1847839355469
0, 6, 44, 280.4263000488281
0, 6, 45, 318.2687072753906
0, 6, 46, 300.9035949707031
0, 6, 47, 334.1148376464844
0, 6, 48, 293.0009460449219
0, 6, 49, 311.2977905273438
0, 6, 50, 329.1243591308594
0, 6, 51, 309.7647094726562
0, 6, 52, 320.5189819335938
0, 6, 53, 328.2859191894531
0, 6, 54, 302.8115234375
0, 6, 55, 305.8502502441406
0, 6, 56, 293.128662109375
0, 6, 57, 312.00927734375
0, 6, 58, 260.3719482421875
0, 6, 59, 305.781494140625
0, 6, 60, 313.4346618652344
0, 6, 61, 270.4540405273438
0, 6, 62, 336.8129272460938
0, 6, 63, 323.650390625
0, 6, 64, 290.8222045898438
0, 6, 65, 287.2196350097656
0, 6, 66, 303.7308654785156
0, 6, 67, 310.0753479003906
0, 6, 68, 293.8473510742188
0, 6, 69, 278.4842834472656
0, 6, 70, 273.8861694335938
0, 6, 71, 289.0419006347656
0, 6, 72, 310.3211669921875
0, 6, 73, 295.5075378417969
0, 6, 74, 332.8665771484375
0, 6, 75, 343.5997314453125
0, 6, 76, 298.6168212890625
0, 6, 77, 285.5519714355469
0, 6, 78, 279.2605895996094
0, 6, 79, 291.8266906738281
0, 6, 80, 301.0714721679688
0, 6, 81, 315.8147277832031
0, 6, 82, 316.9984130859375
0, 6, 83, 318.2624816894531
0, 6, 84, 296.7704162597656
0, 6, 85, 302.1455993652344
0, 6, 86, 330.5653381347656
0, 6, 87, 295.0697021484375
0, 6, 88, 307.213134765625
0, 6, 89, 303.2660522460938
0, 6, 90, 298.5903930664062
0, 6, 91, 312.5188598632812
0, 6, 92, 284.5644836425781
0, 6, 93, 294.64697265625
0, 6, 94, 272.5718078613281
0, 6, 95, 299.5709838867188
0, 6, 96, 346.833251953125
0, 6, 97, 311.5932312011719
0, 6, 98, 303.917724609375
0, 6, 99, 273.6311340332031
0, 6, 100, 308.6960144042969
0, 6, 101, 292.5858459472656
0, 6, 102, 305.8794860839844
0, 6, 103, 307.4177856445312
0, 6, 104, 289.5698547363281
0, 6, 105, 302.114990234375
0, 6, 106, 306.1781616210938
0, 6, 107, 305.0907897949219
0, 6, 108, 264.8881530761719
0, 6, 109, 188.9993286132812
0, 6, 110, 54.00054550170898
0, 6, 111, 21.0681209564209
0, 6, 112, 15.56380081176758
0, 6, 113, 10.57666492462158
0, 6, 114, 13.15856456756592
0, 6, 115, 11.65048027038574
0, 6, 116, 10.34164524078369
0, 6, 117, 14.49470710754395
0, 6, 118, 11.12819004058838
0, 6, 119, 10.06560707092285
0, 6, 120, 7.306859016418457
0, 6, 121, 7.119175434112549
0, 6, 122, 5.327311515808105
0, 6, 123, 4.382632732391357
0, 6, 124, 6.209894180297852
0, 6, 125, 6.391350746154785
0, 6, 126, 5.52860689163208
0, 6, 127, 8.1075439453125
0, 7, 0, 5.454872131347656
0, 7, 1, 3.365349054336548
0, 7, 2, 6.269706726074219
0, 7, 3, 4.372873306274414
0, 7, 4, 3.46948504447937
0, 7, 5, 5.14056921005249
0, 7, 6, 5.278565406799316
0, 7, 7, 4.48832893371582
0, 7, 8, 6.329256057739258
0, 7, 9, 5.674605846405029
0, 7, 10, 8.503167152404785
0, 7, 11, 14.22152328491211
0, 7, 12, 11.33692836761475
0, 7, 13, 14.53434753417969
0, 7, 14, 11.32741641998291
0, 7, 15, 15.65476036071777
0, 7, 16, 25.69144248962402
0, 7, 17, 97.70276641845703
0, 7, 18, 219.0182800292969
0, 7, 19, 291.0805969238281
0, 7, 20, 297.6984252929688
0, 7, 21, 277.0975341796875
0, 7, 22, 300.7437744140625
0, 7, 23, 288.6119384765625
0, 7, 24, 312.7605285644531
0, 7, 25, 324.4073181152344
0, 7, 26, 276.9842529296875
0, 7, 27, 300.4327697753906
0, 7, 28, 326.9188842773438
0, 7, 29, 319.0619506835938
0, 7, 30, 300.6925659179688
0, 7, 31, 281.1036682128906
0, 7, 32, 304.1838684082031
0, 7, 33, 258.7245178222656
0, 7, 34, 299.4712219238281
0, 7, 35, 319.4000854492188
0, 7, 36, 331.6871337890625
0, 7, 37, 324.4491271972656
0, 7, 38, 295.7442626953125
0, 7, 39, 306.9551391601562
0, 7, 40, 288.8547668457031
0, 7, 41, 270.1416625976562
0, 7, 42, 301.174072265625
0, 7, 43, 273.6934814453125
0, 7, 44, 301.7041320800781
0, 7, 45, 294.5643615722656
0, 7, 46, 280.6669006347656
0, 7, 47, 326.9982299804688
0, 7, 48, 287.7518615722656
0, 7, 49, 301.4068298339844
0, 7, 50, 323.4116821289062
0, 7, 51, 298.7258911132812
0, 7, 52, 329.3546142578125
0, 7, 53, 310.9594421386719
0, 7, 54, 323.0546264648438
0, 7, 55, 306.968994140625
0, 7, 56, 279.9114379882812
0, 7, 57, 280.3854370117188
0, 7, 58, 295.2912902832031
0, 7, 59, 294.7115173339844
0, 7, 60, 322.9602355957031
0, 7, 61, 277.2458801269531
0, 7, 62, 297.3406372070312
0, 7, 63, 294.1067810058594
0, 7, 64, 305.2448120117188
0, 7, 65, 331.5171508789062
0, 7, 66, 321.2138061523438
0, 7, 67, 300.7024230957031
0, 7, 68, 281.2661743164062
0, 7, 69, 293.2952575683594
0, 7, 70, 300.0394897460938
0, 7, 71, 308.9830932617188
0, 7, 72, 286.1775207519531
0, 7, 73, 296.3029174804688
0, 7, 74, 343.7567749023438
0, 7, 75, 319.9275817871094
0, 7, 76, 321.601318359375
0, 7, 77, 280.5473022460938
0, 7, 78, 300.5639343261719
0, 7, 79, 298.313720703125
0, 7, 80, 310.4416809082031
0, 7, 81, 319.20361328125
0, 7, 82, 331.0458984375
0, 7, 83, 317.6427001953125
0, 7, 84, 309.6902770996094
0, 7, 85, 272.0129089355469
0, 7, 86, 309.8370361328125
0, 7, 87, 309.278076171875
0, 7, 88, 308.0131225585938
0, 7, 89, 294.6118469238281
0, 7, 90, 306.0303649902344
0, 7, 91, 315.8559875488281
0, 7, 92, 287.67724609375
0, 7, 93, 306.3138122558594
0, 7, 94, 272.8494262695312
0, 7, 95, 299.9318237304688
0, 7, 96, 331.6063842773438
0, 7, 97, 295.1476135253906
0, 7, 98, 291.8264770507812
0, 7, 99, 313.5212707519531
0, 7, 100, 281.7615966796875
0, 7, 101, 275.746826171875
0, 7, 102, 288.9984130859375
0, 7, 103, 292.929443359375
0, 7, 104, 273.8599243164062
0, 7, 105, 305.9295043945312
0, 7, 106, 316.7992553710938
0, 7, 107, 295.6162109375
0, 7, 108, 272.8792419433594
0, 7, 109, 235.8831024169922
0, 7, 110, 95.93491363525391
0, 7, 111, 24.08389472961426
0, 7, 112, 12.86608028411865
0, 7, 113, 14.36337566375732
0, 7, 114, 14.41603183746338
0, 7, 115, 11.27333927154541
0, 7, 116, 11.09344482421875
0, 7, 117, 7.262343406677246
0, 7, 118, 8.529388427734375
0, 7, 119, 5.446371555328369
0, 7, 120, 5.936084747314453
0, 7, 121, 5.665735244750977
0, 7, 122, 8.257222175598145
0, 7, 123, 6.397792816162109
0, 7, 124, 2.824966669082642
0, 7, 125, 6.995628833770752
0, 7, 126, 7.697247505187988
0, 7, 127, 2.139485597610474
0, 8, 0, 5.247150421142578
0, 8, 1, 2.704771518707275
0, 8, 2, 2.878905773162842
0, 8, 3, 2.465445280075073
0, 8, 4, 4.810539722442627
0, 8, 5, 2.801223993301392
0, 8, 6, 4.404265403747559
0, 8, 7, 5.228981018066406
0, 8, 8, 7.396299839019775
0, 8, 9, 5.252232551574707
0, 8, 10, 6.496533870697021
0, 8, 11, 12.24507236480713
0, 8, 12, 14.08664512634277
0, 8, 13, 14.01209831237793
0, 8, 14, 13.68180370330811
0, 8, 15, 17.12162780761719
0, 8, 16, 32.62564468383789
0, 8, 17, 130.6620941162109
0, 8, 18, 244.116943359375
0, 8, 19, 294.8447875976562
0, 8, 20, 284.4621276855469
0, 8, 21, 306.5381164550781
0, 8, 22, 296.5775756835938
0, 8, 23, 274.6521301269531
0, 8, 24, 269.7890319824219
0, 8, 25, 275.0009155273438
0, 8, 26, 307.5568237304688
0, 8, 27, 307.0531311035156
0, 8, 28, 302.83349609375
0, 8, 29, 321.9935913085938
0, 8, 30, 317.9955139160156
0, 8, 31, 304.3512573242188
0, 8, 32, 281.57177734375
0, 8, 33, 298.0804748535156
0, 8, 34, 291.4670715332031
0, 8, 35, 280.8203430175781
0, 8, 36, 313.9363098144531
0, 8, 37, 338.03271484375
0, 8, 38, 330.6945190429688
0, 8, 39, 283.173095703125
0, 8, 40, 303.470703125
0, 8, 41, 290.0263977050781
