# TOPAS Version: 3.1.p3
# Parameter File: batch_inserts_342.txt
# Results for scorer Readout_Adipose
# Scored in component: MyBox
# X in 1 bin  of 0.75 cm
# Y in 512 bins of 0.0783984 cm
# Z in 128 bins of 0.078125 cm
# EnergyDeposit ( MeV ) : Sum   
0, 0, 0, 3.728765249252319
0, 0, 1, 1.502476930618286
0, 0, 2, 4.65758752822876
0, 0, 3, 1.817255854606628
0, 0, 4, 3.441941261291504
0, 0, 5, 3.109398126602173
0, 0, 6, 6.678636074066162
0, 0, 7, 7.900656223297119
0, 0, 8, 3.113922119140625
0, 0, 9, 3.657290458679199
0, 0, 10, 8.02393913269043
0, 0, 11, 4.729755401611328
0, 0, 12, 4.82379150390625
0, 0, 13, 6.161150932312012
0, 0, 14, 9.583530426025391
0, 0, 15, 9.173962593078613
0, 0, 16, 9.087108612060547
0, 0, 17, 11.17696571350098
0, 0, 18, 14.3221549987793
0, 0, 19, 43.99135208129883
0, 0, 20, 139.1419219970703
0, 0, 21, 224.6380920410156
0, 0, 22, 249.7139282226562
0, 0, 23, 257.990966796875
0, 0, 24, 251.373046875
0, 0, 25, 258.0533447265625
0, 0, 26, 237.3318176269531
0, 0, 27, 236.0523834228516
0, 0, 28, 271.4593200683594
0, 0, 29, 252.8263092041016
0, 0, 30, 229.0942535400391
0, 0, 31, 243.3490905761719
0, 0, 32, 264.4925231933594
0, 0, 33, 260.8681945800781
0, 0, 34, 288.639892578125
0, 0, 35, 267.3304443359375
0, 0, 36, 246.8494262695312
0, 0, 37, 253.9503936767578
0, 0, 38, 269.8233337402344
0, 0, 39, 229.7062225341797
0, 0, 40, 243.0838317871094
0, 0, 41, 265.5886840820312
0, 0, 42, 231.1714324951172
0, 0, 43, 261.349365234375
0, 0, 44, 251.6033325195312
0, 0, 45, 254.8372344970703
0, 0, 46, 245.3189849853516
0, 0, 47, 252.9495849609375
0, 0, 48, 266.984375
0, 0, 49, 275.9615173339844
0, 0, 50, 251.306884765625
0, 0, 51, 254.22412109375
0, 0, 52, 272.1797485351562
0, 0, 53, 291.6201171875
0, 0, 54, 242.6927795410156
0, 0, 55, 239.9823913574219
0, 0, 56, 277.8008728027344
0, 0, 57, 262.5857238769531
0, 0, 58, 244.9806213378906
0, 0, 59, 271.4105834960938
0, 0, 60, 234.9901580810547
0, 0, 61, 245.2851257324219
0, 0, 62, 255.5588226318359
0, 0, 63, 267.081298828125
0, 0, 64, 256.9795837402344
0, 0, 65, 260.7786254882812
0, 0, 66, 277.2303771972656
0, 0, 67, 245.750244140625
0, 0, 68, 257.9427185058594
0, 0, 69, 262.0113220214844
0, 0, 70, 271.0072021484375
0, 0, 71, 238.1535186767578
0, 0, 72, 250.5008850097656
0, 0, 73, 257.8536682128906
0, 0, 74, 252.3283996582031
0, 0, 75, 239.6295623779297
0, 0, 76, 229.4889831542969
0, 0, 77, 259.9275512695312
0, 0, 78, 255.7118225097656
0, 0, 79, 277.9634399414062
0, 0, 80, 215.4875183105469
0, 0, 81, 268.2782592773438
0, 0, 82, 257.2491149902344
0, 0, 83, 246.4062957763672
0, 0, 84, 271.7911682128906
0, 0, 85, 234.5923309326172
0, 0, 86, 253.8294830322266
0, 0, 87, 250.0472564697266
0, 0, 88, 260.3050842285156
0, 0, 89, 282.3250732421875
0, 0, 90, 244.9572143554688
0, 0, 91, 280.8053588867188
0, 0, 92, 251.8714752197266
0, 0, 93, 248.9773864746094
0, 0, 94, 247.728515625
0, 0, 95, 247.7219085693359
0, 0, 96, 273.1019287109375
0, 0, 97, 271.9072875976562
0, 0, 98, 273.287353515625
0, 0, 99, 262.8410339355469
0, 0, 100, 259.7549743652344
0, 0, 101, 226.5270538330078
0, 0, 102, 232.1260986328125
0, 0, 103, 270.4208374023438
0, 0, 104, 253.5706329345703
0, 0, 105, 251.0494232177734
0, 0, 106, 248.7636566162109
0, 0, 107, 151.8664398193359
0, 0, 108, 37.88419342041016
0, 0, 109, 13.96257495880127
0, 0, 110, 12.50978851318359
0, 0, 111, 8.358894348144531
0, 0, 112, 6.334155082702637
0, 0, 113, 6.77000093460083
0, 0, 114, 6.577926635742188
0, 0, 115, 4.350003719329834
0, 0, 116, 5.991284847259521
0, 0, 117, 6.894241809844971
0, 0, 118, 5.476279735565186
0, 0, 119, 3.934391498565674
0, 0, 120, 3.271275997161865
0, 0, 121, 4.274508476257324
0, 0, 122, 3.824406385421753
0, 0, 123, 4.462348461151123
0, 0, 124, 3.895944356918335
0, 0, 125, 1.602532148361206
0, 0, 126, 4.794331550598145
0, 0, 127, 3.523199319839478
0, 1, 0, 8.871563911437988
0, 1, 1, 4.141963481903076
0, 1, 2, 6.414062976837158
0, 1, 3, 1.394325375556946
0, 1, 4, 2.790328502655029
0, 1, 5, 3.054712057113647
0, 1, 6, 5.515697956085205
0, 1, 7, 3.980692625045776
0, 1, 8, 9.35530948638916
0, 1, 9, 6.133744239807129
0, 1, 10, 8.915920257568359
0, 1, 11, 11.96078777313232
0, 1, 12, 7.827214241027832
0, 1, 13, 8.633492469787598
0, 1, 14, 8.455802917480469
0, 1, 15, 7.90201473236084
0, 1, 16, 10.69688510894775
0, 1, 17, 11.18738555908203
0, 1, 18, 20.96552658081055
0, 1, 19, 64.97018432617188
0, 1, 20, 197.7986450195312
0, 1, 21, 254.229736328125
0, 1, 22, 296.26220703125
0, 1, 23, 283.4776306152344
0, 1, 24, 277.5681457519531
0, 1, 25, 286.3359069824219
0, 1, 26, 268.1982116699219
0, 1, 27, 305.9906921386719
0, 1, 28, 299.241455078125
0, 1, 29, 296.87890625
0, 1, 30, 281.7835693359375
0, 1, 31, 290.7941589355469
0, 1, 32, 289.9878540039062
0, 1, 33, 295.8702697753906
0, 1, 34, 294.1663513183594
0, 1, 35, 280.6077270507812
0, 1, 36, 306.8328247070312
0, 1, 37, 294.563720703125
0, 1, 38, 280.0205078125
0, 1, 39, 295.29345703125
0, 1, 40, 270.8157958984375
0, 1, 41, 286.630126953125
0, 1, 42, 289.3338317871094
0, 1, 43, 332.5322875976562
0, 1, 44, 280.1136474609375
0, 1, 45, 292.0642395019531
0, 1, 46, 259.25341796875
0, 1, 47, 312.29638671875
0, 1, 48, 283.4340515136719
0, 1, 49, 303.8367309570312
0, 1, 50, 263.5241394042969
0, 1, 51, 272.9106140136719
0, 1, 52, 298.1123962402344
0, 1, 53, 306.3325500488281
0, 1, 54, 276.0503845214844
0, 1, 55, 292.6526184082031
0, 1, 56, 276.6161193847656
0, 1, 57, 302.6556396484375
0, 1, 58, 312.2619323730469
0, 1, 59, 293.8901062011719
0, 1, 60, 298.1276245117188
0, 1, 61, 274.9491577148438
0, 1, 62, 308.0726623535156
0, 1, 63, 285.11572265625
0, 1, 64, 291.0565795898438
0, 1, 65, 297.1538696289062
0, 1, 66, 294.2638854980469
0, 1, 67, 291.059326171875
0, 1, 68, 276.939208984375
0, 1, 69, 282.1239624023438
0, 1, 70, 272.7207336425781
0, 1, 71, 273.7901306152344
0, 1, 72, 285.6061096191406
0, 1, 73, 302.593994140625
0, 1, 74, 304.7671813964844
0, 1, 75, 289.7484436035156
0, 1, 76, 285.2208557128906
0, 1, 77, 288.0061645507812
0, 1, 78, 296.3784484863281
0, 1, 79, 303.4580688476562
0, 1, 80, 296.1307373046875
0, 1, 81, 303.5417175292969
0, 1, 82, 284.9330749511719
0, 1, 83, 330.8695068359375
0, 1, 84, 310.0184326171875
0, 1, 85, 256.9978942871094
0, 1, 86, 297.6224670410156
0, 1, 87, 291.5120544433594
0, 1, 88, 298.5438232421875
0, 1, 89, 289.2442321777344
0, 1, 90, 270.5309448242188
0, 1, 91, 317.7662353515625
0, 1, 92, 293.4046630859375
0, 1, 93, 287.3034973144531
0, 1, 94, 302.4243469238281
0, 1, 95, 283.3812866210938
0, 1, 96, 283.1841735839844
0, 1, 97, 301.09912109375
0, 1, 98, 278.5883178710938
0, 1, 99, 265.1626892089844
0, 1, 100, 276.1583557128906
0, 1, 101, 283.0896301269531
0, 1, 102, 277.5899047851562
0, 1, 103, 282.1057739257812
0, 1, 104, 306.7542114257812
0, 1, 105, 295.8238830566406
0, 1, 106, 260.9327392578125
0, 1, 107, 190.4132995605469
0, 1, 108, 84.41842651367188
0, 1, 109, 23.67145156860352
0, 1, 110, 11.04022407531738
0, 1, 111, 8.253861427307129
0, 1, 112, 11.10587692260742
0, 1, 113, 4.648112773895264
0, 1, 114, 7.891145706176758
0, 1, 115, 7.880979537963867
0, 1, 116, 13.24932384490967
0, 1, 117, 8.710152626037598
0, 1, 118, 5.315014362335205
0, 1, 119, 10.98267078399658
0, 1, 120, 6.027667999267578
0, 1, 121, 4.275001049041748
0, 1, 122, 2.981637239456177
0, 1, 123, 4.512562274932861
0, 1, 124, 6.992738246917725
0, 1, 125, 3.558618307113647
0, 1, 126, 2.897131443023682
0, 1, 127, 1.493207693099976
0, 2, 0, 5.006871223449707
0, 2, 1, 2.253451824188232
0, 2, 2, 4.37611722946167
0, 2, 3, 4.64777660369873
0, 2, 4, 3.68269419670105
0, 2, 5, 2.284401655197144
0, 2, 6, 1.853177666664124
0, 2, 7, 4.138705730438232
0, 2, 8, 3.973496913909912
0, 2, 9, 7.659011363983154
0, 2, 10, 8.163490295410156
0, 2, 11, 5.818767547607422
0, 2, 12, 6.846256732940674
0, 2, 13, 10.04844093322754
0, 2, 14, 14.00532722473145
0, 2, 15, 7.136600971221924
0, 2, 16, 8.421319007873535
0, 2, 17, 15.20627212524414
0, 2, 18, 31.91982650756836
0, 2, 19, 116.2483978271484
0, 2, 20, 246.2839660644531
0, 2, 21, 270.3373718261719
0, 2, 22, 315.5846557617188
0, 2, 23, 299.8284606933594
0, 2, 24, 287.2206420898438
0, 2, 25, 302.3907775878906
0, 2, 26, 292.3792419433594
0, 2, 27, 275.9796447753906
0, 2, 28, 273.1494140625
0, 2, 29, 273.3502502441406
0, 2, 30, 290.8094787597656
0, 2, 31, 277.7929992675781
0, 2, 32, 294.7841491699219
0, 2, 33, 283.1683349609375
0, 2, 34, 332.4282836914062
0, 2, 35, 290.7186584472656
0, 2, 36, 304.8191223144531
0, 2, 37, 315.1022033691406
0, 2, 38, 311.1505737304688
0, 2, 39, 269.8363037109375
0, 2, 40, 308.1009826660156
0, 2, 41, 293.4396362304688
0, 2, 42, 304.7004699707031
0, 2, 43, 314.390869140625
0, 2, 44, 311.0857543945312
0, 2, 45, 325.0745849609375
0, 2, 46, 286.1337280273438
0, 2, 47, 304.606201171875
0, 2, 48, 284.0845336914062
0, 2, 49, 279.953857421875
0, 2, 50, 294.4490661621094
0, 2, 51, 283.337646484375
0, 2, 52, 271.9730529785156
0, 2, 53, 285.4021301269531
0, 2, 54, 278.8371887207031
0, 2, 55, 277.0419006347656
0, 2, 56, 302.3853759765625
0, 2, 57, 292.0863342285156
0, 2, 58, 304.267822265625
0, 2, 59, 287.0739440917969
0, 2, 60, 318.2010498046875
0, 2, 61, 301.4548645019531
0, 2, 62, 314.3439636230469
0, 2, 63, 301.2180786132812
0, 2, 64, 299.0531311035156
0, 2, 65, 314.1451416015625
0, 2, 66, 278.4414672851562
0, 2, 67, 290.4573364257812
0, 2, 68, 296.9418640136719
0, 2, 69, 310.0596618652344
0, 2, 70, 332.3922424316406
0, 2, 71, 285.9737243652344
0, 2, 72, 303.1827392578125
0, 2, 73, 314.784912109375
0, 2, 74, 284.7398071289062
0, 2, 75, 303.9881286621094
0, 2, 76, 286.4462890625
0, 2, 77, 302.1285400390625
0, 2, 78, 313.6328430175781
0, 2, 79, 308.7392578125
0, 2, 80, 294.8404846191406
0, 2, 81, 281.959228515625
0, 2, 82, 317.2209167480469
0, 2, 83, 312.5267944335938
0, 2, 84, 288.9197082519531
0, 2, 85, 280.9674377441406
0, 2, 86, 325.1321411132812
0, 2, 87, 286.9536743164062
0, 2, 88, 278.9912414550781
0, 2, 89, 296.6486206054688
0, 2, 90, 294.3810119628906
0, 2, 91, 275.2539978027344
0, 2, 92, 306.0054931640625
0, 2, 93, 315.1953125
0, 2, 94, 291.0320129394531
0, 2, 95, 314.7789611816406
0, 2, 96, 314.9829711914062
0, 2, 97, 291.263916015625
0, 2, 98, 293.9806823730469
0, 2, 99, 274.3244934082031
0, 2, 100, 306.2530212402344
0, 2, 101, 301.6737365722656
0, 2, 102, 299.5798950195312
0, 2, 103, 291.948486328125
0, 2, 104, 293.3703002929688
0, 2, 105, 273.3863525390625
0, 2, 106, 294.8087768554688
0, 2, 107, 270.4794921875
0, 2, 108, 117.388053894043
0, 2, 109, 31.94741630554199
0, 2, 110, 11.20810794830322
0, 2, 111, 9.895237922668457
0, 2, 112, 7.122445106506348
0, 2, 113, 9.231264114379883
0, 2, 114, 8.318766593933105
0, 2, 115, 9.705150604248047
0, 2, 116, 8.894575119018555
0, 2, 117, 7.387372970581055
0, 2, 118, 3.850993871688843
0, 2, 119, 2.488054275512695
0, 2, 120, 5.484500408172607
0, 2, 121, 1.200108051300049
0, 2, 122, 4.394522666931152
0, 2, 123, 5.377377510070801
0, 2, 124, 3.970227241516113
0, 2, 125, 6.0137038230896
0, 2, 126, 3.021140575408936
0, 2, 127, 5.703991413116455
0, 3, 0, 3.793559789657593
0, 3, 1, 3.587079286575317
0, 3, 2, 3.095824718475342
0, 3, 3, 2.311355352401733
0, 3, 4, 4.941115379333496
0, 3, 5, 7.88505744934082
0, 3, 6, 6.427313327789307
0, 3, 7, 5.512518882751465
0, 3, 8, 5.381933212280273
0, 3, 9, 5.534052848815918
0, 3, 10, 4.601925373077393
0, 3, 11, 2.917654991149902
0, 3, 12, 8.647809982299805
0, 3, 13, 14.86556053161621
0, 3, 14, 13.21508502960205
0, 3, 15, 14.72832775115967
0, 3, 16, 14.70072364807129
0, 3, 17, 18.5357608795166
0, 3, 18, 55.66098785400391
0, 3, 19, 175.6183166503906
0, 3, 20, 273.3944702148438
0, 3, 21, 271.4789428710938
0, 3, 22, 281.2596435546875
0, 3, 23, 286.1480712890625
0, 3, 24, 285.6883239746094
0, 3, 25, 271.07958984375
0, 3, 26, 303.9046325683594
0, 3, 27, 293.448486328125
0, 3, 28, 284.46728515625
0, 3, 29, 337.2297668457031
0, 3, 30, 315.8374938964844
0, 3, 31, 285.2178039550781
0, 3, 32, 306.3464965820312
0, 3, 33, 313.9449768066406
0, 3, 34, 320.5945739746094
0, 3, 35, 305.5184326171875
0, 3, 36, 269.7361145019531
0, 3, 37, 311.9444580078125
0, 3, 38, 302.64306640625
0, 3, 39, 289.7340087890625
0, 3, 40, 267.3287963867188
0, 3, 41, 299.9275512695312
0, 3, 42, 284.7142333984375
0, 3, 43, 304.7929077148438
0, 3, 44, 310.2922058105469
0, 3, 45, 288.8629760742188
0, 3, 46, 330.2997436523438
0, 3, 47, 300.6930236816406
0, 3, 48, 303.7474365234375
0, 3, 49, 277.0596618652344
0, 3, 50, 290.9546203613281
0, 3, 51, 274.5568237304688
0, 3, 52, 316.1348571777344
0, 3, 53, 289.046630859375
0, 3, 54, 284.587158203125
0, 3, 55, 282.6490783691406
0, 3, 56, 297.6921081542969
0, 3, 57, 288.0639038085938
0, 3, 58, 305.4929504394531
0, 3, 59, 295.3553771972656
0, 3, 60, 298.3398742675781
0, 3, 61, 263.9121398925781
0, 3, 62, 285.1330261230469
0, 3, 63, 310.5019226074219
0, 3, 64, 317.4266357421875
0, 3, 65, 305.22412109375
0, 3, 66, 314.844482421875
0, 3, 67, 318.546142578125
0, 3, 68, 280.4209289550781
0, 3, 69, 280.6078796386719
0, 3, 70, 286.0806884765625
0, 3, 71, 300.8751220703125
0, 3, 72, 269.1805725097656
0, 3, 73, 307.57568359375
0, 3, 74, 293.3147277832031
0, 3, 75, 290.0427856445312
0, 3, 76, 306.4341735839844
0, 3, 77, 313.3744201660156
0, 3, 78, 308.1284790039062
0, 3, 79, 282.5290832519531
0, 3, 80, 290.3793029785156
0, 3, 81, 309.1825866699219
0, 3, 82, 315.0530090332031
0, 3, 83, 301.2758483886719
0, 3, 84, 313.8615112304688
0, 3, 85, 296.9792175292969
0, 3, 86, 302.0614013671875
0, 3, 87, 300.2164916992188
0, 3, 88, 298.4809265136719
0, 3, 89, 296.5919799804688
0, 3, 90, 274.8766479492188
0, 3, 91, 283.4759521484375
0, 3, 92, 306.4767150878906
0, 3, 93, 312.254638671875
0, 3, 94, 299.5996398925781
0, 3, 95, 333.9929809570312
0, 3, 96, 291.4931640625
0, 3, 97, 281.9105224609375
0, 3, 98, 277.4345092773438
0, 3, 99, 261.8471374511719
0, 3, 100, 285.0774841308594
0, 3, 101, 295.9061889648438
0, 3, 102, 274.0865783691406
0, 3, 103, 318.4400634765625
0, 3, 104, 306.0209045410156
0, 3, 105, 289.3199768066406
0, 3, 106, 302.36865234375
0, 3, 107, 284.7405700683594
0, 3, 108, 168.6504516601562
0, 3, 109, 58.38999176025391
0, 3, 110, 17.9243278503418
0, 3, 111, 12.21018314361572
0, 3, 112, 13.4351978302002
0, 3, 113, 6.292873859405518
0, 3, 114, 12.43607616424561
0, 3, 115, 6.818217277526855
0, 3, 116, 6.175400733947754
0, 3, 117, 5.962154865264893
0, 3, 118, 7.758500099182129
0, 3, 119, 9.763727188110352
0, 3, 120, 7.230144023895264
0, 3, 121, 2.754071235656738
0, 3, 122, 4.254744052886963
0, 3, 123, 7.116080760955811
0, 3, 124, 4.137467384338379
0, 3, 125, 7.533948421478271
0, 3, 126, 5.809633731842041
0, 3, 127, 5.534355163574219
0, 4, 0, 2.30066967010498
0, 4, 1, 4.258475780487061
0, 4, 2, 2.927729368209839
0, 4, 3, 3.093187093734741
0, 4, 4, 6.436413764953613
0, 4, 5, 8.099104881286621
0, 4, 6, 7.418050289154053
0, 4, 7, 4.744967460632324
0, 4, 8, 3.29337739944458
0, 4, 9, 7.102383613586426
0, 4, 10, 6.570106506347656
0, 4, 11, 6.628871440887451
0, 4, 12, 5.782063007354736
0, 4, 13, 8.876187324523926
0, 4, 14, 11.78134346008301
0, 4, 15, 10.56745624542236
0, 4, 16, 13.47427940368652
0, 4, 17, 18.6663875579834
0, 4, 18, 94.37527465820312
0, 4, 19, 221.1365356445312
0, 4, 20, 284.0778198242188
0, 4, 21, 272.4049987792969
0, 4, 22, 303.7785949707031
0, 4, 23, 268.0029602050781
0, 4, 24, 289.3677978515625
0, 4, 25, 272.9945373535156
0, 4, 26, 294.6356506347656
0, 4, 27, 280.9679565429688
0, 4, 28, 309.42041015625
0, 4, 29, 322.973388671875
0, 4, 30, 310.2371215820312
0, 4, 31, 306.236083984375
0, 4, 32, 281.6507263183594
0, 4, 33, 294.8168334960938
0, 4, 34, 295.1337585449219
0, 4, 35, 314.6681823730469
0, 4, 36, 292.0963439941406
0, 4, 37, 288.1745910644531
0, 4, 38, 299.0209045410156
0, 4, 39, 297.1076049804688
0, 4, 40, 301.5067749023438
0, 4, 41, 311.9872741699219
0, 4, 42, 331.9203186035156
0, 4, 43, 296.3541870117188
0, 4, 44, 320.2883911132812
0, 4, 45, 322.8288879394531
0, 4, 46, 306.4998474121094
0, 4, 47, 296.348876953125
0, 4, 48, 295.6227111816406
0, 4, 49, 279.0429382324219
0, 4, 50, 296.7321472167969
0, 4, 51, 316.5291442871094
0, 4, 52, 327.4424438476562
0, 4, 53, 304.8303527832031
0, 4, 54, 286.2914428710938
0, 4, 55, 315.4813842773438
0, 4, 56, 288.521484375
0, 4, 57, 312.1253051757812
0, 4, 58, 298.0651550292969
0, 4, 59, 308.0223388671875
0, 4, 60, 301.6430358886719
0, 4, 61, 315.88623046875
0, 4, 62, 306.3906860351562
0, 4, 63, 298.7064208984375
0, 4, 64, 328.6734924316406
0, 4, 65, 315.2672424316406
0, 4, 66, 292.0488891601562
0, 4, 67, 285.1442260742188
0, 4, 68, 313.4820251464844
0, 4, 69, 275.7132873535156
0, 4, 70, 300.1143493652344
0, 4, 71, 321.4555053710938
0, 4, 72, 333.9636535644531
0, 4, 73, 299.6358032226562
0, 4, 74, 293.4286804199219
0, 4, 75, 290.4403686523438
0, 4, 76, 275.7503967285156
0, 4, 77, 277.310546875
0, 4, 78, 312.5614318847656
0, 4, 79, 320.386474609375
0, 4, 80, 313.8320617675781
0, 4, 81, 312.6212463378906
0, 4, 82, 298.8044128417969
0, 4, 83, 299.869140625
0, 4, 84, 291.7946166992188
0, 4, 85, 295.5973205566406
0, 4, 86, 296.552978515625
0, 4, 87, 284.0772094726562
0, 4, 88, 307.4859008789062
0, 4, 89, 295.118408203125
0, 4, 90, 332.6859741210938
0, 4, 91, 305.4666748046875
0, 4, 92, 290.3010559082031
0, 4, 93, 298.7460327148438
0, 4, 94, 293.4306640625
0, 4, 95, 290.0885314941406
0, 4, 96, 324.1379699707031
0, 4, 97, 273.967041015625
0, 4, 98, 325.8974914550781
0, 4, 99, 315.9452209472656
0, 4, 100, 300.3010559082031
0, 4, 101, 257.5990905761719
0, 4, 102, 296.0478820800781
0, 4, 103, 318.2618713378906
0, 4, 104, 280.5769958496094
0, 4, 105, 310.42578125
0, 4, 106, 287.7288513183594
0, 4, 107, 292.8766174316406
0, 4, 108, 224.6462097167969
0, 4, 109, 80.60234069824219
0, 4, 110, 16.6092586517334
0, 4, 111, 13.09270000457764
0, 4, 112, 8.947522163391113
0, 4, 113, 9.307024002075195
0, 4, 114, 10.18037128448486
0, 4, 115, 9.102419853210449
0, 4, 116, 8.832452774047852
0, 4, 117, 6.260581970214844
0, 4, 118, 11.90678787231445
0, 4, 119, 9.995911598205566
0, 4, 120, 8.689396858215332
0, 4, 121, 3.918193817138672
0, 4, 122, 4.831992149353027
0, 4, 123, 7.485533714294434
0, 4, 124, 4.965306282043457
0, 4, 125, 13.23423194885254
0, 4, 126, 4.411169528961182
0, 4, 127, 2.968941211700439
0, 5, 0, 4.157709121704102
0, 5, 1, 3.31512975692749
0, 5, 2, 3.176838636398315
0, 5, 3, 4.990063667297363
0, 5, 4, 4.76455545425415
0, 5, 5, 7.997241020202637
0, 5, 6, 9.366418838500977
0, 5, 7, 6.449427127838135
0, 5, 8, 4.296900749206543
0, 5, 9, 5.735055923461914
0, 5, 10, 7.935465812683105
0, 5, 11, 7.738587856292725
0, 5, 12, 6.946918487548828
0, 5, 13, 5.479977607727051
0, 5, 14, 12.64452171325684
0, 5, 15, 15.91139507293701
0, 5, 16, 15.48450756072998
0, 5, 17, 29.60837173461914
0, 5, 18, 136.2058715820312
0, 5, 19, 289.0965881347656
0, 5, 20, 306.8194274902344
0, 5, 21, 315.8700561523438
0, 5, 22, 273.2652282714844
0, 5, 23, 310.2121276855469
0, 5, 24, 302.1167907714844
0, 5, 25, 292.9073486328125
0, 5, 26, 294.5079040527344
0, 5, 27, 321.2029113769531
0, 5, 28, 300.9582824707031
0, 5, 29, 298.8369750976562
0, 5, 30, 324.4593811035156
0, 5, 31, 285.1481018066406
0, 5, 32, 301.9418029785156
0, 5, 33, 302.9904479980469
0, 5, 34, 298.3040161132812
0, 5, 35, 310.416748046875
0, 5, 36, 268.7846069335938
0, 5, 37, 283.6224365234375
0, 5, 38, 292.500732421875
0, 5, 39, 312.2145385742188
0, 5, 40, 307.1802368164062
0, 5, 41, 272.1696166992188
0, 5, 42, 304.8231201171875
0, 5, 43, 314.212158203125
0, 5, 44, 292.5294494628906
0, 5, 45, 303.7892761230469
0, 5, 46, 266.6678466796875
0, 5, 47, 279.9668884277344
0, 5, 48, 292.1431884765625
0, 5, 49, 287.0307312011719
0, 5, 50, 293.5385437011719
0, 5, 51, 282.3623352050781
0, 5, 52, 269.7096862792969
0, 5, 53, 284.2604370117188
0, 5, 54, 293.1639404296875
0, 5, 55, 345.5698547363281
0, 5, 56, 304.9140625
0, 5, 57, 306.98681640625
0, 5, 58, 310.5648803710938
0, 5, 59, 302.9277648925781
0, 5, 60, 305.7933654785156
0, 5, 61, 283.8456726074219
0, 5, 62, 324.6478271484375
0, 5, 63, 289.1597595214844
0, 5, 64, 323.4919738769531
0, 5, 65, 307.075439453125
0, 5, 66, 329.4142456054688
0, 5, 67, 313.4427490234375
0, 5, 68, 307.1472778320312
0, 5, 69, 313.0028381347656
0, 5, 70, 302.1789855957031
0, 5, 71, 273.3626098632812
0, 5, 72, 310.2644348144531
0, 5, 73, 304.85009765625
0, 5, 74, 295.4952697753906
0, 5, 75, 293.9480590820312
0, 5, 76, 285.0242919921875
0, 5, 77, 298.2923278808594
0, 5, 78, 313.7284545898438
0, 5, 79, 311.389404296875
0, 5, 80, 295.5631408691406
0, 5, 81, 325.7850036621094
0, 5, 82, 323.7741394042969
0, 5, 83, 282.4578247070312
0, 5, 84, 299.9448852539062
0, 5, 85, 270.65869140625
0, 5, 86, 325.2477111816406
0, 5, 87, 284.7914123535156
0, 5, 88, 318.7490844726562
0, 5, 89, 305.9131469726562
0, 5, 90, 315.7574462890625
0, 5, 91, 312.3012390136719
0, 5, 92, 299.0837707519531
0, 5, 93, 322.3966674804688
0, 5, 94, 309.0867919921875
0, 5, 95, 295.9106140136719
0, 5, 96, 298.6604919433594
0, 5, 97, 296.343505859375
0, 5, 98, 316.7106018066406
0, 5, 99, 301.8108825683594
0, 5, 100, 291.341796875
0, 5, 101, 307.1925659179688
0, 5, 102, 292.1900939941406
0, 5, 103, 315.1419677734375
0, 5, 104, 302.9888000488281
0, 5, 105, 292.1307983398438
0, 5, 106, 280.4332580566406
0, 5, 107, 294.2821655273438
0, 5, 108, 264.29248046875
0, 5, 109, 156.6077423095703
0, 5, 110, 42.43328857421875
0, 5, 111, 21.24967193603516
0, 5, 112, 15.84280681610107
0, 5, 113, 15.78215789794922
0, 5, 114, 13.02634429931641
0, 5, 115, 6.889858245849609
0, 5, 116, 7.693948268890381
0, 5, 117, 4.760376930236816
0, 5, 118, 14.48931980133057
0, 5, 119, 5.630195140838623
0, 5, 120, 5.33320140838623
0, 5, 121, 3.918063402175903
0, 5, 122, 5.585554599761963
0, 5, 123, 3.655397415161133
0, 5, 124, 7.830459594726562
0, 5, 125, 4.525993824005127
0, 5, 126, 7.265482902526855
0, 5, 127, 2.901214838027954
0, 6, 0, 4.102788925170898
0, 6, 1, 2.724138498306274
0, 6, 2, 4.650910377502441
0, 6, 3, 4.395745277404785
0, 6, 4, 3.223416090011597
0, 6, 5, 8.132835388183594
0, 6, 6, 6.529677867889404
0, 6, 7, 5.564070224761963
0, 6, 8, 10.58822250366211
0, 6, 9, 6.72819185256958
0, 6, 10, 6.282288074493408
0, 6, 11, 9.073846817016602
0, 6, 12, 9.263331413269043
0, 6, 13, 11.3332462310791
0, 6, 14, 8.347446441650391
0, 6, 15, 19.91700172424316
0, 6, 16, 28.31852912902832
0, 6, 17, 55.03757858276367
0, 6, 18, 176.3839569091797
0, 6, 19, 275.7725524902344
0, 6, 20, 290.67822265625
0, 6, 21, 314.4321899414062
0, 6, 22, 320.4319763183594
0, 6, 23, 305.2214965820312
0, 6, 24, 316.0705261230469
0, 6, 25, 315.9570617675781
0, 6, 26, 318.8948669433594
0, 6, 27, 331.2701416015625
0, 6, 28, 297.0104370117188
0, 6, 29, 330.1841125488281
0, 6, 30, 283.7329711914062
0, 6, 31, 286.749755859375
0, 6, 32, 340.4718933105469
0, 6, 33, 300.3429260253906
0, 6, 34, 340.3899841308594
0, 6, 35, 321.2064514160156
0, 6, 36, 274.245361328125
0, 6, 37, 291.0489196777344
0, 6, 38, 311.9453735351562
0, 6, 39, 298.5846252441406
0, 6, 40, 284.095947265625
0, 6, 41, 297.0851440429688
0, 6, 42, 303.8834838867188
0, 6, 43, 287.9971008300781
0, 6, 44, 282.58447265625
0, 6, 45, 318.4346923828125
0, 6, 46, 304.2045288085938
0, 6, 47, 332.74560546875
0, 6, 48, 292.8042602539062
0, 6, 49, 310.4968872070312
0, 6, 50, 329.2607116699219
0, 6, 51, 310.5626220703125
0, 6, 52, 320.3187561035156
0, 6, 53, 327.5069580078125
0, 6, 54, 303.4639587402344
0, 6, 55, 305.9715576171875
0, 6, 56, 295.6730041503906
0, 6, 57, 314.6854553222656
0, 6, 58, 262.752197265625
0, 6, 59, 300.327392578125
0, 6, 60, 314.1950988769531
0, 6, 61, 271.0802307128906
0, 6, 62, 339.2283325195312
0, 6, 63, 324.1403198242188
0, 6, 64, 290.9185485839844
0, 6, 65, 287.6360168457031
0, 6, 66, 305.6253051757812
0, 6, 67, 309.3816223144531
0, 6, 68, 292.9802856445312
0, 6, 69, 279.8662109375
0, 6, 70, 273.8123168945312
0, 6, 71, 289.5913696289062
0, 6, 72, 308.1439514160156
0, 6, 73, 291.9947204589844
0, 6, 74, 329.9512329101562
0, 6, 75, 342.9665222167969
0, 6, 76, 297.4993591308594
0, 6, 77, 285.6707458496094
0, 6, 78, 277.1858215332031
0, 6, 79, 296.2366027832031
0, 6, 80, 301.3296203613281
0, 6, 81, 314.780029296875
0, 6, 82, 317.6430358886719
0, 6, 83, 317.7066955566406
0, 6, 84, 295.9844970703125
0, 6, 85, 301.3407897949219
0, 6, 86, 329.7929992675781
0, 6, 87, 291.3606567382812
0, 6, 88, 307.3609313964844
0, 6, 89, 305.1981506347656
0, 6, 90, 302.0776062011719
0, 6, 91, 314.1020202636719
0, 6, 92, 283.5677795410156
0, 6, 93, 297.3320617675781
0, 6, 94, 274.3614196777344
0, 6, 95, 298.8697204589844
0, 6, 96, 347.9644470214844
0, 6, 97, 308.5982055664062
0, 6, 98, 301.8694152832031
0, 6, 99, 270.4893188476562
0, 6, 100, 308.5024108886719
0, 6, 101, 294.4095458984375
0, 6, 102, 309.7489318847656
0, 6, 103, 308.4617004394531
0, 6, 104, 294.7398986816406
0, 6, 105, 302.5529174804688
0, 6, 106, 307.2404174804688
0, 6, 107, 305.948974609375
0, 6, 108, 265.4161987304688
0, 6, 109, 186.5020751953125
0, 6, 110, 57.61872100830078
0, 6, 111, 22.13419342041016
0, 6, 112, 12.00703716278076
0, 6, 113, 11.82437419891357
0, 6, 114, 13.18071365356445
0, 6, 115, 13.086012840271
0, 6, 116, 9.885039329528809
0, 6, 117, 6.381500244140625
0, 6, 118, 9.652803421020508
0, 6, 119, 6.831770420074463
0, 6, 120, 6.343878269195557
0, 6, 121, 6.028308868408203
0, 6, 122, 6.648760318756104
0, 6, 123, 3.718003749847412
0, 6, 124, 5.615737915039062
0, 6, 125, 7.119911670684814
0, 6, 126, 2.688931703567505
0, 6, 127, 5.787022113800049
0, 7, 0, 6.590603351593018
0, 7, 1, 3.526277303695679
0, 7, 2, 6.557461738586426
0, 7, 3, 3.474276304244995
0, 7, 4, 3.302885055541992
0, 7, 5, 3.593879222869873
0, 7, 6, 6.498788356781006
0, 7, 7, 5.633336544036865
0, 7, 8, 6.173357963562012
0, 7, 9, 5.779459953308105
0, 7, 10, 8.393525123596191
0, 7, 11, 12.14820003509521
0, 7, 12, 12.98633289337158
0, 7, 13, 13.17472171783447
0, 7, 14, 9.705965042114258
0, 7, 15, 16.84469413757324
0, 7, 16, 27.3039608001709
0, 7, 17, 96.87201690673828
0, 7, 18, 219.179443359375
0, 7, 19, 289.2832336425781
0, 7, 20, 297.5243225097656
0, 7, 21, 275.6722106933594
0, 7, 22, 299.4775085449219
0, 7, 23, 289.9909362792969
0, 7, 24, 313.5723266601562
0, 7, 25, 324.521240234375
0, 7, 26, 276.9390563964844
0, 7, 27, 296.7467346191406
0, 7, 28, 324.8009948730469
0, 7, 29, 317.8739013671875
0, 7, 30, 301.18017578125
0, 7, 31, 277.4517517089844
0, 7, 32, 306.8082275390625
0, 7, 33, 265.6372375488281
0, 7, 34, 297.7229614257812
0, 7, 35, 321.9571228027344
0, 7, 36, 329.6883544921875
0, 7, 37, 323.1523132324219
0, 7, 38, 296.9642333984375
0, 7, 39, 305.0648803710938
0, 7, 40, 289.1034240722656
0, 7, 41, 270.1107788085938
0, 7, 42, 300.5009765625
0, 7, 43, 276.2341918945312
0, 7, 44, 305.1512145996094
0, 7, 45, 296.4713439941406
0, 7, 46, 280.9905090332031
0, 7, 47, 328.9798278808594
0, 7, 48, 285.1480407714844
0, 7, 49, 302.2165222167969
0, 7, 50, 320.9433898925781
0, 7, 51, 299.0119934082031
0, 7, 52, 327.2919921875
0, 7, 53, 309.30322265625
0, 7, 54, 322.82177734375
0, 7, 55, 306.9546203613281
0, 7, 56, 278.3364868164062
0, 7, 57, 282.0227661132812
0, 7, 58, 294.8941040039062
0, 7, 59, 296.3409729003906
0, 7, 60, 324.5618286132812
0, 7, 61, 277.1463928222656
0, 7, 62, 296.9674987792969
0, 7, 63, 292.4650268554688
0, 7, 64, 306.74609375
0, 7, 65, 329.240966796875
0, 7, 66, 319.80615234375
0, 7, 67, 300.3443908691406
0, 7, 68, 280.3706665039062
0, 7, 69, 293.8245239257812
0, 7, 70, 303.7049865722656
0, 7, 71, 310.4553527832031
0, 7, 72, 286.5523986816406
0, 7, 73, 295.2692565917969
0, 7, 74, 344.593505859375
0, 7, 75, 320.0871276855469
0, 7, 76, 323.5094299316406
0, 7, 77, 282.2709045410156
0, 7, 78, 302.0291137695312
0, 7, 79, 299.6170043945312
0, 7, 80, 311.2605895996094
0, 7, 81, 319.1729736328125
0, 7, 82, 328.4370422363281
0, 7, 83, 318.1838684082031
0, 7, 84, 308.7323913574219
0, 7, 85, 273.3202819824219
0, 7, 86, 311.121337890625
0, 7, 87, 309.5328979492188
0, 7, 88, 307.9970397949219
0, 7, 89, 291.2107849121094
0, 7, 90, 306.4967041015625
0, 7, 91, 314.2039184570312
0, 7, 92, 287.8388366699219
0, 7, 93, 306.6324157714844
0, 7, 94, 275.6207885742188
0, 7, 95, 294.8668823242188
0, 7, 96, 331.1033325195312
0, 7, 97, 295.2398986816406
0, 7, 98, 291.9530944824219
0, 7, 99, 312.1198425292969
0, 7, 100, 281.1814880371094
0, 7, 101, 274.4773864746094
0, 7, 102, 292.0474853515625
0, 7, 103, 292.1834106445312
0, 7, 104, 274.840576171875
0, 7, 105, 306.93896484375
0, 7, 106, 319.3265686035156
0, 7, 107, 295.8018798828125
0, 7, 108, 276.0968933105469
0, 7, 109, 233.6400756835938
0, 7, 110, 95.38484191894531
0, 7, 111, 23.94499778747559
0, 7, 112, 13.73344326019287
0, 7, 113, 15.04306507110596
0, 7, 114, 12.77430248260498
0, 7, 115, 11.44832420349121
0, 7, 116, 8.815013885498047
0, 7, 117, 4.336258888244629
0, 7, 118, 8.117705345153809
0, 7, 119, 8.099699974060059
0, 7, 120, 3.997082233428955
0, 7, 121, 5.387935161590576
0, 7, 122, 7.877624988555908
0, 7, 123, 5.806730270385742
0, 7, 124, 3.500693798065186
0, 7, 125, 5.894676208496094
0, 7, 126, 8.797153472900391
0, 7, 127, 1.317487239837646
0, 8, 0, 4.315033912658691
0, 8, 1, 5.10504150390625
0, 8, 2, 4.921746253967285
0, 8, 3, 4.338963031768799
0, 8, 4, 6.458499431610107
0, 8, 5, 2.929454565048218
0, 8, 6, 5.6759033203125
0, 8, 7, 5.867031574249268
0, 8, 8, 8.224911689758301
0, 8, 9, 6.797362327575684
0, 8, 10, 8.119786262512207
0, 8, 11, 12.79653739929199
0, 8, 12, 13.02083587646484
0, 8, 13, 16.37736511230469
0, 8, 14, 14.30018043518066
0, 8, 15, 17.369140625
0, 8, 16, 34.29143524169922
0, 8, 17, 132.1479797363281
0, 8, 18, 243.7909851074219
0, 8, 19, 294.9795837402344
0, 8, 20, 286.3024597167969
0, 8, 21, 307.241455078125
0, 8, 22, 295.0231018066406
0, 8, 23, 274.4694519042969
0, 8, 24, 268.7685852050781
0, 8, 25, 275.8890075683594
0, 8, 26, 306.4783325195312
0, 8, 27, 308.000244140625
0, 8, 28, 303.1313781738281
0, 8, 29, 319.0171508789062
0, 8, 30, 316.0159912109375
0, 8, 31, 303.4574890136719
0, 8, 32, 279.5202941894531
0, 8, 33, 295.2422790527344
0, 8, 34, 289.2122802734375
0, 8, 35, 278.6943969726562
0, 8, 36, 314.0229797363281
0, 8, 37, 340.4296264648438
0, 8, 38, 331.9062805175781
0, 8, 39, 280.67626953125
0, 8, 40, 303.4386901855469
0, 8, 41, 289.762451171875
