# TOPAS Version: 3.1.p3
# Parameter File: batch_inserts_304.txt
# Results for scorer Readout_Adipose
# Scored in component: MyBox
# X in 1 bin  of 0.75 cm
# Y in 512 bins of 0.0783984 cm
# Z in 128 bins of 0.078125 cm
# EnergyDeposit ( MeV ) : Sum   
0, 0, 0, 24.48666000366211
0, 0, 1, 24.24618911743164
0, 0, 2, 22.9975700378418
0, 0, 3, 24.61565399169922
0, 0, 4, 25.90553665161133
0, 0, 5, 22.65943908691406
0, 0, 6, 22.9478645324707
0, 0, 7, 33.31299591064453
0, 0, 8, 25.24706649780273
0, 0, 9, 23.78570556640625
0, 0, 10, 26.95164680480957
0, 0, 11, 31.26056480407715
0, 0, 12, 39.43693161010742
0, 0, 13, 31.19963264465332
0, 0, 14, 37.77020263671875
0, 0, 15, 44.37981033325195
0, 0, 16, 44.03502655029297
0, 0, 17, 49.35316467285156
0, 0, 18, 75.9146728515625
0, 0, 19, 194.4298400878906
0, 0, 20, 698.9097290039062
0, 0, 21, 1191.210815429688
0, 0, 22, 1248.90234375
0, 0, 23, 1277.099731445312
0, 0, 24, 1282.66455078125
0, 0, 25, 1356.784301757812
0, 0, 26, 1271.149780273438
0, 0, 27, 1277.167602539062
0, 0, 28, 1323.138305664062
0, 0, 29, 1278.248291015625
0, 0, 30, 1264.978759765625
0, 0, 31, 1280.973388671875
0, 0, 32, 1269.895874023438
0, 0, 33, 1242.466186523438
0, 0, 34, 1325.480224609375
0, 0, 35, 1304.796142578125
0, 0, 36, 1248.094116210938
0, 0, 37, 1284.166137695312
0, 0, 38, 1248.301391601562
0, 0, 39, 1242.840942382812
0, 0, 40, 1221.821533203125
0, 0, 41, 1273.262084960938
0, 0, 42, 1254.369873046875
0, 0, 43, 1267.791870117188
0, 0, 44, 1220.6875
0, 0, 45, 1291.210815429688
0, 0, 46, 1259.122802734375
0, 0, 47, 1238.3671875
0, 0, 48, 1274.295776367188
0, 0, 49, 1284.41259765625
0, 0, 50, 1312.081665039062
0, 0, 51, 1269.529541015625
0, 0, 52, 1359.736694335938
0, 0, 53, 1325.142822265625
0, 0, 54, 1294.178344726562
0, 0, 55, 1231.489624023438
0, 0, 56, 1316.0009765625
0, 0, 57, 1294.257934570312
0, 0, 58, 1253.87744140625
0, 0, 59, 1331.235595703125
0, 0, 60, 1325.716186523438
0, 0, 61, 1261.264282226562
0, 0, 62, 1244.9970703125
0, 0, 63, 1275.221557617188
0, 0, 64, 1330.62939453125
0, 0, 65, 1288.650756835938
0, 0, 66, 1321.080200195312
0, 0, 67, 1217.28271484375
0, 0, 68, 1316.6328125
0, 0, 69, 1329.268920898438
0, 0, 70, 1337.380981445312
0, 0, 71, 1287.757446289062
0, 0, 72, 1319.104248046875
0, 0, 73, 1245.680908203125
0, 0, 74, 1295.63623046875
0, 0, 75, 1296.067993164062
0, 0, 76, 1251.843383789062
0, 0, 77, 1287.866333007812
0, 0, 78, 1315.432739257812
0, 0, 79, 1330.915893554688
0, 0, 80, 1260.437377929688
0, 0, 81, 1317.577392578125
0, 0, 82, 1290.438598632812
0, 0, 83, 1289.796752929688
0, 0, 84, 1328.541625976562
0, 0, 85, 1232.73779296875
0, 0, 86, 1265.788940429688
0, 0, 87, 1250.52978515625
0, 0, 88, 1254.689208984375
0, 0, 89, 1334.2734375
0, 0, 90, 1274.179809570312
0, 0, 91, 1353.777099609375
0, 0, 92, 1304.211303710938
0, 0, 93, 1270.557861328125
0, 0, 94, 1246.926513671875
0, 0, 95, 1325.399169921875
0, 0, 96, 1280.955200195312
0, 0, 97, 1324.8662109375
0, 0, 98, 1257.478759765625
0, 0, 99, 1254.967529296875
0, 0, 100, 1291.275634765625
0, 0, 101, 1318.530883789062
0, 0, 102, 1235.253173828125
0, 0, 103, 1326.256958007812
0, 0, 104, 1261.98046875
0, 0, 105, 1270.1708984375
0, 0, 106, 1205.80859375
0, 0, 107, 784.6359252929688
0, 0, 108, 196.2974243164062
0, 0, 109, 69.48429870605469
0, 0, 110, 61.12689590454102
0, 0, 111, 41.64664840698242
0, 0, 112, 38.78116989135742
0, 0, 113, 37.51579284667969
0, 0, 114, 34.74416732788086
0, 0, 115, 31.61700630187988
0, 0, 116, 27.19786834716797
0, 0, 117, 31.13751602172852
0, 0, 118, 25.60548973083496
0, 0, 119, 21.90366363525391
0, 0, 120, 27.36993598937988
0, 0, 121, 29.64377212524414
0, 0, 122, 18.84058380126953
0, 0, 123, 21.44024467468262
0, 0, 124, 20.12631988525391
0, 0, 125, 24.86456298828125
0, 0, 126, 23.60539436340332
0, 0, 127, 19.54514312744141
0, 1, 0, 26.91035652160645
0, 1, 1, 18.80632972717285
0, 1, 2, 23.63456153869629
0, 1, 3, 23.39472770690918
0, 1, 4, 19.4069709777832
0, 1, 5, 25.32060050964355
0, 1, 6, 23.74448585510254
0, 1, 7, 23.5242748260498
0, 1, 8, 30.86167907714844
0, 1, 9, 36.69173431396484
0, 1, 10, 35.05957412719727
0, 1, 11, 42.52663421630859
0, 1, 12, 38.83264923095703
0, 1, 13, 45.4774169921875
0, 1, 14, 40.02035522460938
0, 1, 15, 46.87553787231445
0, 1, 16, 59.8375244140625
0, 1, 17, 61.30784225463867
0, 1, 18, 100.3132781982422
0, 1, 19, 397.6460571289062
0, 1, 20, 1040.035400390625
0, 1, 21, 1372.12158203125
0, 1, 22, 1476.24755859375
0, 1, 23, 1462.009521484375
0, 1, 24, 1451.174926757812
0, 1, 25, 1418.174560546875
0, 1, 26, 1474.160522460938
0, 1, 27, 1466.574584960938
0, 1, 28, 1490.892578125
0, 1, 29, 1479.393188476562
0, 1, 30, 1502.864868164062
0, 1, 31, 1487.344116210938
0, 1, 32, 1413.259643554688
0, 1, 33, 1499.9345703125
0, 1, 34, 1497.902587890625
0, 1, 35, 1460.676391601562
0, 1, 36, 1488.707275390625
0, 1, 37, 1409.333862304688
0, 1, 38, 1389.70654296875
0, 1, 39, 1521.85302734375
0, 1, 40, 1463.069091796875
0, 1, 41, 1489.64111328125
0, 1, 42, 1504.108764648438
0, 1, 43, 1500.299194335938
0, 1, 44, 1449.0283203125
0, 1, 45, 1483.465942382812
0, 1, 46, 1423.046997070312
0, 1, 47, 1434.89404296875
0, 1, 48, 1432.543212890625
0, 1, 49, 1488.246459960938
0, 1, 50, 1441.4365234375
0, 1, 51, 1468.784423828125
0, 1, 52, 1478.5166015625
0, 1, 53, 1475.288208007812
0, 1, 54, 1504.785888671875
0, 1, 55, 1495.797973632812
0, 1, 56, 1476.0888671875
0, 1, 57, 1455.503784179688
0, 1, 58, 1431.1259765625
0, 1, 59, 1486.174682617188
0, 1, 60, 1468.625732421875
0, 1, 61, 1446.510864257812
0, 1, 62, 1451.158447265625
0, 1, 63, 1414.81494140625
0, 1, 64, 1477.38232421875
0, 1, 65, 1415.949584960938
0, 1, 66, 1440.019165039062
0, 1, 67, 1456.331665039062
0, 1, 68, 1385.909301757812
0, 1, 69, 1458.304931640625
0, 1, 70, 1433.851806640625
0, 1, 71, 1499.22802734375
0, 1, 72, 1433.76953125
0, 1, 73, 1488.712036132812
0, 1, 74, 1466.948364257812
0, 1, 75, 1472.244140625
0, 1, 76, 1458.559326171875
0, 1, 77, 1463.028076171875
0, 1, 78, 1452.777465820312
0, 1, 79, 1502.856079101562
0, 1, 80, 1448.029418945312
0, 1, 81, 1421.4619140625
0, 1, 82, 1474.800170898438
0, 1, 83, 1460.18310546875
0, 1, 84, 1538.504150390625
0, 1, 85, 1447.871459960938
0, 1, 86, 1405.919189453125
0, 1, 87, 1419.915893554688
0, 1, 88, 1471.220581054688
0, 1, 89, 1478.938842773438
0, 1, 90, 1426.333251953125
0, 1, 91, 1461.694580078125
0, 1, 92, 1413.169799804688
0, 1, 93, 1462.79736328125
0, 1, 94, 1466.2734375
0, 1, 95, 1423.24267578125
0, 1, 96, 1493.234985351562
0, 1, 97, 1512.058471679688
0, 1, 98, 1472.242797851562
0, 1, 99, 1423.360229492188
0, 1, 100, 1448.4208984375
0, 1, 101, 1416.562622070312
0, 1, 102, 1441.997680664062
0, 1, 103, 1414.5146484375
0, 1, 104, 1408.115356445312
0, 1, 105, 1462.227905273438
0, 1, 106, 1369.098754882812
0, 1, 107, 1024.400512695312
0, 1, 108, 408.8323059082031
0, 1, 109, 91.7672119140625
0, 1, 110, 65.68023681640625
0, 1, 111, 58.9969367980957
0, 1, 112, 50.53554534912109
0, 1, 113, 37.55052947998047
0, 1, 114, 40.94899749755859
0, 1, 115, 39.25115203857422
0, 1, 116, 34.79705810546875
0, 1, 117, 37.09519577026367
0, 1, 118, 36.99251556396484
0, 1, 119, 34.02322769165039
0, 1, 120, 31.17915534973145
0, 1, 121, 18.73874473571777
0, 1, 122, 21.54601097106934
0, 1, 123, 25.21302223205566
0, 1, 124, 30.25554466247559
0, 1, 125, 19.9196949005127
0, 1, 126, 16.47411727905273
0, 1, 127, 21.5932674407959
0, 2, 0, 15.77779960632324
0, 2, 1, 21.52372169494629
0, 2, 2, 20.90414237976074
0, 2, 3, 22.24132347106934
0, 2, 4, 21.41436958312988
0, 2, 5, 23.14524078369141
0, 2, 6, 27.17317390441895
0, 2, 7, 22.01041030883789
0, 2, 8, 24.90998458862305
0, 2, 9, 28.50944137573242
0, 2, 10, 28.75914764404297
0, 2, 11, 33.44141006469727
0, 2, 12, 39.14572525024414
0, 2, 13, 42.96176147460938
0, 2, 14, 49.90458679199219
0, 2, 15, 47.83267211914062
0, 2, 16, 63.57428359985352
0, 2, 17, 82.53748321533203
0, 2, 18, 144.3724060058594
0, 2, 19, 609.7584838867188
0, 2, 20, 1282.809814453125
0, 2, 21, 1431.535278320312
0, 2, 22, 1453.471557617188
0, 2, 23, 1400.317504882812
0, 2, 24, 1440.855346679688
0, 2, 25, 1519.596557617188
0, 2, 26, 1553.77197265625
0, 2, 27, 1454.7451171875
0, 2, 28, 1462.519775390625
0, 2, 29, 1463.053833007812
0, 2, 30, 1466.19775390625
0, 2, 31, 1531.993896484375
0, 2, 32, 1504.967529296875
0, 2, 33, 1442.92919921875
0, 2, 34, 1476.356689453125
0, 2, 35, 1469.4921875
0, 2, 36, 1524.26025390625
0, 2, 37, 1537.417602539062
0, 2, 38, 1504.5361328125
0, 2, 39, 1467.32275390625
0, 2, 40, 1506.799560546875
0, 2, 41, 1517.323486328125
0, 2, 42, 1500.702758789062
0, 2, 43, 1546.9365234375
0, 2, 44, 1462.870483398438
0, 2, 45, 1484.739624023438
0, 2, 46, 1426.20166015625
0, 2, 47, 1452.140014648438
0, 2, 48, 1399.076416015625
0, 2, 49, 1463.99658203125
0, 2, 50, 1446.948974609375
0, 2, 51, 1453.549438476562
0, 2, 52, 1493.62158203125
0, 2, 53, 1521.455932617188
0, 2, 54, 1523.733032226562
0, 2, 55, 1491.296630859375
0, 2, 56, 1461.843017578125
0, 2, 57, 1412.820068359375
0, 2, 58, 1454.587646484375
0, 2, 59, 1445.057250976562
0, 2, 60, 1472.554565429688
0, 2, 61, 1445.702392578125
0, 2, 62, 1469.82763671875
0, 2, 63, 1507.447631835938
0, 2, 64, 1456.4912109375
0, 2, 65, 1424.749877929688
0, 2, 66, 1486.28466796875
0, 2, 67, 1509.0107421875
0, 2, 68, 1546.013671875
0, 2, 69, 1540.49267578125
0, 2, 70, 1512.257446289062
0, 2, 71, 1461.415161132812
0, 2, 72, 1515.297119140625
0, 2, 73, 1517.407348632812
0, 2, 74, 1486.606689453125
0, 2, 75, 1505.437622070312
0, 2, 76, 1446.932861328125
0, 2, 77, 1507.732055664062
0, 2, 78, 1432.60595703125
0, 2, 79, 1538.976440429688
0, 2, 80, 1478.234985351562
0, 2, 81, 1468.154052734375
0, 2, 82, 1555.044311523438
0, 2, 83, 1513.53515625
0, 2, 84, 1494.625
0, 2, 85, 1512.411743164062
0, 2, 86, 1537.0146484375
0, 2, 87, 1484.447143554688
0, 2, 88, 1535.651245117188
0, 2, 89, 1464.974609375
0, 2, 90, 1432.094970703125
0, 2, 91, 1402.52783203125
0, 2, 92, 1475.774169921875
0, 2, 93, 1493.648803710938
0, 2, 94, 1451.309936523438
0, 2, 95, 1548.185668945312
0, 2, 96, 1516.776489257812
0, 2, 97, 1456.431762695312
0, 2, 98, 1464.062866210938
0, 2, 99, 1403.116943359375
0, 2, 100, 1472.182373046875
0, 2, 101, 1484.766357421875
0, 2, 102, 1463.245361328125
0, 2, 103, 1389.309814453125
0, 2, 104, 1412.9677734375
0, 2, 105, 1397.037109375
0, 2, 106, 1457.23876953125
0, 2, 107, 1276.28271484375
0, 2, 108, 620.6080932617188
0, 2, 109, 169.4634246826172
0, 2, 110, 62.74239730834961
0, 2, 111, 59.19428634643555
0, 2, 112, 44.76039123535156
0, 2, 113, 50.83321762084961
0, 2, 114, 38.09814834594727
0, 2, 115, 37.98371124267578
0, 2, 116, 32.99989700317383
0, 2, 117, 30.26591110229492
0, 2, 118, 24.70903778076172
0, 2, 119, 35.36516952514648
0, 2, 120, 29.29608726501465
0, 2, 121, 20.5484504699707
0, 2, 122, 29.93029594421387
0, 2, 123, 21.69392776489258
0, 2, 124, 18.8458137512207
0, 2, 125, 26.7030143737793
0, 2, 126, 18.91376113891602
0, 2, 127, 20.69883155822754
0, 3, 0, 17.08927917480469
0, 3, 1, 25.88534736633301
0, 3, 2, 20.41347122192383
0, 3, 3, 20.69746398925781
0, 3, 4, 21.03502082824707
0, 3, 5, 23.33112907409668
0, 3, 6, 30.28137969970703
0, 3, 7, 29.96426010131836
0, 3, 8, 30.45000076293945
0, 3, 9, 27.44615936279297
0, 3, 10, 35.08103179931641
0, 3, 11, 31.61234664916992
0, 3, 12, 41.58130645751953
0, 3, 13, 52.07544326782227
0, 3, 14, 57.60104370117188
0, 3, 15, 60.78256988525391
0, 3, 16, 65.67336273193359
0, 3, 17, 84.33458709716797
0, 3, 18, 241.7532958984375
0, 3, 19, 874.5375366210938
0, 3, 20, 1386.051513671875
0, 3, 21, 1509.863647460938
0, 3, 22, 1458.849365234375
0, 3, 23, 1457.920043945312
0, 3, 24, 1437.715698242188
0, 3, 25, 1464.020629882812
0, 3, 26, 1499.849853515625
0, 3, 27, 1466.503295898438
0, 3, 28, 1491.636962890625
0, 3, 29, 1539.097290039062
0, 3, 30, 1569.332275390625
0, 3, 31, 1514.081909179688
0, 3, 32, 1549.537963867188
0, 3, 33, 1539.9248046875
0, 3, 34, 1487.50537109375
0, 3, 35, 1462.298095703125
0, 3, 36, 1451.92919921875
0, 3, 37, 1515.3759765625
0, 3, 38, 1522.863037109375
0, 3, 39, 1445.75341796875
0, 3, 40, 1448.225219726562
0, 3, 41, 1566.938842773438
0, 3, 42, 1457.852905273438
0, 3, 43, 1454.447387695312
0, 3, 44, 1455.3505859375
0, 3, 45, 1508.751098632812
0, 3, 46, 1509.20166015625
0, 3, 47, 1440.610107421875
0, 3, 48, 1507.51708984375
0, 3, 49, 1448.965087890625
0, 3, 50, 1490.0283203125
0, 3, 51, 1538.503784179688
0, 3, 52, 1535.3056640625
0, 3, 53, 1469.126342773438
0, 3, 54, 1534.332397460938
0, 3, 55, 1507.974609375
0, 3, 56, 1430.496337890625
0, 3, 57, 1507.8427734375
0, 3, 58, 1515.539306640625
0, 3, 59, 1508.794555664062
0, 3, 60, 1531.8134765625
0, 3, 61, 1483.770751953125
0, 3, 62, 1495.448852539062
0, 3, 63, 1493.999877929688
0, 3, 64, 1501.73876953125
0, 3, 65, 1519.369140625
0, 3, 66, 1555.450073242188
0, 3, 67, 1547.150390625
0, 3, 68, 1449.119506835938
0, 3, 69, 1468.82568359375
0, 3, 70, 1384.801879882812
0, 3, 71, 1466.26171875
0, 3, 72, 1554.499145507812
0, 3, 73, 1506.59423828125
0, 3, 74, 1470.846069335938
0, 3, 75, 1460.158081054688
0, 3, 76, 1572.288208007812
0, 3, 77, 1539.436279296875
0, 3, 78, 1423.610595703125
0, 3, 79, 1492.542358398438
0, 3, 80, 1461.312622070312
0, 3, 81, 1468.152221679688
0, 3, 82, 1554.468627929688
0, 3, 83, 1507.864135742188
0, 3, 84, 1556.195556640625
0, 3, 85, 1480.135131835938
0, 3, 86, 1523.456298828125
0, 3, 87, 1541.279174804688
0, 3, 88, 1456.047729492188
0, 3, 89, 1452.001098632812
0, 3, 90, 1448.308959960938
0, 3, 91, 1420.619506835938
0, 3, 92, 1511.25
0, 3, 93, 1502.09716796875
0, 3, 94, 1516.794189453125
0, 3, 95, 1546.042602539062
0, 3, 96, 1509.202270507812
0, 3, 97, 1465.034790039062
0, 3, 98, 1438.04150390625
0, 3, 99, 1469.176391601562
0, 3, 100, 1478.023315429688
0, 3, 101, 1475.413696289062
0, 3, 102, 1521.728881835938
0, 3, 103, 1551.149536132812
0, 3, 104, 1503.540771484375
0, 3, 105, 1517.15283203125
0, 3, 106, 1478.655639648438
0, 3, 107, 1335.938842773438
0, 3, 108, 870.404541015625
0, 3, 109, 264.8628234863281
0, 3, 110, 104.7419052124023
0, 3, 111, 63.47645568847656
0, 3, 112, 57.48166275024414
0, 3, 113, 53.05806350708008
0, 3, 114, 52.15008163452148
0, 3, 115, 51.76655578613281
0, 3, 116, 39.1356201171875
0, 3, 117, 39.76953506469727
0, 3, 118, 33.09231185913086
0, 3, 119, 27.4533863067627
0, 3, 120, 30.40396118164062
0, 3, 121, 21.41415786743164
0, 3, 122, 32.27651977539062
0, 3, 123, 28.18024826049805
0, 3, 124, 24.21409797668457
0, 3, 125, 27.36019515991211
0, 3, 126, 21.6879825592041
0, 3, 127, 19.14707565307617
0, 4, 0, 21.88504981994629
0, 4, 1, 27.09231376647949
0, 4, 2, 23.43973350524902
0, 4, 3, 16.46254920959473
0, 4, 4, 27.25820732116699
0, 4, 5, 31.89675521850586
0, 4, 6, 33.58533477783203
0, 4, 7, 34.26674270629883
0, 4, 8, 24.42728042602539
0, 4, 9, 33.20764541625977
0, 4, 10, 34.54936599731445
0, 4, 11, 39.57708358764648
0, 4, 12, 44.36062622070312
0, 4, 13, 52.89205169677734
0, 4, 14, 50.61128234863281
0, 4, 15, 59.72272491455078
0, 4, 16, 79.20702362060547
0, 4, 17, 113.3484573364258
0, 4, 18, 441.7156677246094
0, 4, 19, 1179.013305664062
0, 4, 20, 1443.003784179688
0, 4, 21, 1422.894653320312
0, 4, 22, 1434.162353515625
0, 4, 23, 1446.637329101562
0, 4, 24, 1472.2109375
0, 4, 25, 1399.929077148438
0, 4, 26, 1539.629028320312
0, 4, 27, 1544.682495117188
0, 4, 28, 1509.017211914062
0, 4, 29, 1515.001342773438
0, 4, 30, 1520.985961914062
0, 4, 31, 1575.221069335938
0, 4, 32, 1518.7431640625
0, 4, 33, 1492.55859375
0, 4, 34, 1463.9599609375
0, 4, 35, 1558.059936523438
0, 4, 36, 1502.140502929688
0, 4, 37, 1512.377807617188
0, 4, 38, 1530.872802734375
0, 4, 39, 1469.214477539062
0, 4, 40, 1515.217407226562
0, 4, 41, 1581.967651367188
0, 4, 42, 1567.42333984375
0, 4, 43, 1477.046752929688
0, 4, 44, 1496.946655273438
0, 4, 45, 1518.112426757812
0, 4, 46, 1469.551513671875
0, 4, 47, 1504.530029296875
0, 4, 48, 1525.843627929688
0, 4, 49, 1469.009521484375
0, 4, 50, 1517.630981445312
0, 4, 51, 1488.852172851562
0, 4, 52, 1494.265747070312
0, 4, 53, 1455.0712890625
0, 4, 54, 1445.899536132812
0, 4, 55, 1529.313232421875
0, 4, 56, 1451.49560546875
0, 4, 57, 1496.7177734375
0, 4, 58, 1463.338623046875
0, 4, 59, 1467.612915039062
0, 4, 60, 1527.560180664062
0, 4, 61, 1500.412963867188
0, 4, 62, 1501.695678710938
0, 4, 63, 1548.294799804688
0, 4, 64, 1592.527465820312
0, 4, 65, 1424.964477539062
0, 4, 66, 1514.5908203125
0, 4, 67, 1518.1357421875
0, 4, 68, 1493.886962890625
0, 4, 69, 1470.128662109375
0, 4, 70, 1547.021240234375
0, 4, 71, 1514.126220703125
0, 4, 72, 1537.969116210938
0, 4, 73, 1494.303466796875
0, 4, 74, 1485.438354492188
0, 4, 75, 1537.63720703125
0, 4, 76, 1484.771606445312
0, 4, 77, 1499.327514648438
0, 4, 78, 1500.979736328125
0, 4, 79, 1480.836303710938
0, 4, 80, 1511.839111328125
0, 4, 81, 1525.25439453125
0, 4, 82, 1563.27587890625
0, 4, 83, 1507.903564453125
0, 4, 84, 1538.154174804688
0, 4, 85, 1549.97607421875
0, 4, 86, 1526.136596679688
0, 4, 87, 1493.843872070312
0, 4, 88, 1519.054931640625
0, 4, 89, 1486.23046875
0, 4, 90, 1545.819213867188
0, 4, 91, 1552.935180664062
0, 4, 92, 1488.346557617188
0, 4, 93, 1518.22509765625
0, 4, 94, 1481.800659179688
0, 4, 95, 1510.615234375
0, 4, 96, 1444.138671875
0, 4, 97, 1409.928588867188
0, 4, 98, 1554.875854492188
0, 4, 99, 1503.927368164062
0, 4, 100, 1485.696166992188
0, 4, 101, 1451.1220703125
0, 4, 102, 1448.076538085938
0, 4, 103, 1517.330932617188
0, 4, 104, 1512.326782226562
0, 4, 105, 1556.033325195312
0, 4, 106, 1475.628662109375
0, 4, 107, 1455.03271484375
0, 4, 108, 1118.65673828125
0, 4, 109, 441.9196472167969
0, 4, 110, 100.4927215576172
0, 4, 111, 70.16546630859375
0, 4, 112, 58.42921829223633
0, 4, 113, 44.87860870361328
0, 4, 114, 53.57460021972656
0, 4, 115, 43.01462173461914
0, 4, 116, 37.61710739135742
0, 4, 117, 34.37086868286133
0, 4, 118, 44.32342910766602
0, 4, 119, 40.9002685546875
0, 4, 120, 32.16379928588867
0, 4, 121, 29.20749664306641
0, 4, 122, 30.76271438598633
0, 4, 123, 30.5339298248291
0, 4, 124, 18.77641677856445
0, 4, 125, 31.7263126373291
0, 4, 126, 23.54505157470703
0, 4, 127, 21.0264778137207
0, 5, 0, 25.58559226989746
0, 5, 1, 23.79977035522461
0, 5, 2, 28.24658012390137
0, 5, 3, 25.71003723144531
0, 5, 4, 21.64288520812988
0, 5, 5, 35.9701042175293
0, 5, 6, 31.1214485168457
0, 5, 7, 29.64675521850586
0, 5, 8, 37.48823165893555
0, 5, 9, 35.2944221496582
0, 5, 10, 33.38779067993164
0, 5, 11, 39.85295486450195
0, 5, 12, 39.09196853637695
0, 5, 13, 45.8055419921875
0, 5, 14, 62.33817291259766
0, 5, 15, 79.90782165527344
0, 5, 16, 82.71987915039062
0, 5, 17, 154.8356475830078
0, 5, 18, 672.1466674804688
0, 5, 19, 1347.896850585938
0, 5, 20, 1525.093139648438
0, 5, 21, 1494.49853515625
0, 5, 22, 1494.089233398438
0, 5, 23, 1530.22021484375
0, 5, 24, 1464.6142578125
0, 5, 25, 1424.55322265625
0, 5, 26, 1529.65380859375
0, 5, 27, 1541.784790039062
0, 5, 28, 1484.285034179688
0, 5, 29, 1519.958251953125
0, 5, 30, 1496.663452148438
0, 5, 31, 1499.853759765625
0, 5, 32, 1592.964111328125
0, 5, 33, 1505.851196289062
0, 5, 34, 1485.972900390625
0, 5, 35, 1516.78759765625
0, 5, 36, 1441.265625
0, 5, 37, 1528.898193359375
0, 5, 38, 1545.61376953125
0, 5, 39, 1558.340087890625
0, 5, 40, 1499.486450195312
0, 5, 41, 1479.486938476562
0, 5, 42, 1541.242309570312
0, 5, 43, 1530.896484375
0, 5, 44, 1545.1845703125
0, 5, 45, 1505.279541015625
0, 5, 46, 1489.586181640625
0, 5, 47, 1482.463134765625
0, 5, 48, 1498.686157226562
0, 5, 49, 1523.75634765625
0, 5, 50, 1500.4189453125
0, 5, 51, 1520.950073242188
0, 5, 52, 1432.509765625
0, 5, 53, 1524.692504882812
0, 5, 54, 1520.412963867188
0, 5, 55, 1527.419311523438
0, 5, 56, 1486.887817382812
0, 5, 57, 1542.236083984375
0, 5, 58, 1504.8544921875
0, 5, 59, 1484.178833007812
0, 5, 60, 1537.271240234375
0, 5, 61, 1449.63427734375
0, 5, 62, 1582.240112304688
0, 5, 63, 1436.265258789062
0, 5, 64, 1488.058471679688
0, 5, 65, 1463.881469726562
0, 5, 66, 1529.95263671875
0, 5, 67, 1559.65673828125
0, 5, 68, 1462.805541992188
0, 5, 69, 1480.590087890625
0, 5, 70, 1493.604858398438
0, 5, 71, 1472.642211914062
0, 5, 72, 1541.05908203125
0, 5, 73, 1459.28515625
0, 5, 74, 1491.168090820312
0, 5, 75, 1487.2041015625
0, 5, 76, 1481.551879882812
0, 5, 77, 1523.800903320312
0, 5, 78, 1531.116333007812
0, 5, 79, 1513.674438476562
0, 5, 80, 1516.349365234375
0, 5, 81, 1597.1083984375
0, 5, 82, 1522.153076171875
0, 5, 83, 1487.990112304688
0, 5, 84, 1532.35791015625
0, 5, 85, 1510.217163085938
0, 5, 86, 1555.297241210938
0, 5, 87, 1475.9541015625
0, 5, 88, 1500.46630859375
0, 5, 89, 1478.933349609375
0, 5, 90, 1480.464965820312
0, 5, 91, 1557.8583984375
0, 5, 92, 1479.572631835938
0, 5, 93, 1564.379638671875
0, 5, 94, 1510.739624023438
0, 5, 95, 1566.321411132812
0, 5, 96, 1499.274658203125
0, 5, 97, 1506.65966796875
0, 5, 98, 1514.838256835938
0, 5, 99, 1539.507568359375
0, 5, 100, 1433.49560546875
0, 5, 101, 1427.55712890625
0, 5, 102, 1512.27978515625
0, 5, 103, 1475.591674804688
0, 5, 104, 1460.019287109375
0, 5, 105, 1488.135375976562
0, 5, 106, 1458.446166992188
0, 5, 107, 1403.855224609375
0, 5, 108, 1286.4560546875
0, 5, 109, 721.3429565429688
0, 5, 110, 193.3651428222656
0, 5, 111, 90.55188751220703
0, 5, 112, 80.10489654541016
0, 5, 113, 66.37561798095703
0, 5, 114, 57.13109970092773
0, 5, 115, 52.59629058837891
0, 5, 116, 48.32561111450195
0, 5, 117, 32.90238571166992
0, 5, 118, 42.44316864013672
0, 5, 119, 28.8662052154541
0, 5, 120, 28.39955139160156
0, 5, 121, 21.21718406677246
0, 5, 122, 26.96589469909668
0, 5, 123, 27.04378128051758
0, 5, 124, 26.4724063873291
0, 5, 125, 24.57195854187012
0, 5, 126, 20.48744964599609
0, 5, 127, 24.20696067810059
0, 6, 0, 21.65219306945801
0, 6, 1, 26.12277793884277
0, 6, 2, 29.67140769958496
0, 6, 3, 24.89401435852051
0, 6, 4, 28.54362297058105
0, 6, 5, 34.39557647705078
0, 6, 6, 35.99982070922852
0, 6, 7, 32.27869415283203
0, 6, 8, 29.11097717285156
0, 6, 9, 33.77157974243164
0, 6, 10, 37.63835144042969
0, 6, 11, 36.55568313598633
0, 6, 12, 38.92496871948242
0, 6, 13, 56.80237197875977
0, 6, 14, 58.66696548461914
0, 6, 15, 87.53624725341797
0, 6, 16, 111.3070831298828
0, 6, 17, 298.7543029785156
0, 6, 18, 902.52587890625
0, 6, 19, 1375.840087890625
0, 6, 20, 1444.755615234375
0, 6, 21, 1531.869384765625
0, 6, 22, 1501.6787109375
0, 6, 23, 1530.316284179688
0, 6, 24, 1478.399536132812
0, 6, 25, 1531.764404296875
0, 6, 26, 1516.419189453125
0, 6, 27, 1520.708251953125
0, 6, 28, 1552.009155273438
0, 6, 29, 1578.785034179688
0, 6, 30, 1511.556762695312
0, 6, 31, 1492.31689453125
0, 6, 32, 1526.003295898438
0, 6, 33, 1489.395751953125
0, 6, 34, 1566.065307617188
0, 6, 35, 1502.070922851562
0, 6, 36, 1435.551513671875
0, 6, 37, 1541.638916015625
0, 6, 38, 1521.616088867188
0, 6, 39, 1520.7587890625
0, 6, 40, 1456.16845703125
0, 6, 41, 1441.8642578125
0, 6, 42, 1518.363891601562
0, 6, 43, 1492.932861328125
0, 6, 44, 1431.306640625
0, 6, 45, 1550.338256835938
0, 6, 46, 1555.346923828125
0, 6, 47, 1498.653076171875
0, 6, 48, 1529.255981445312
0, 6, 49, 1512.374267578125
0, 6, 50, 1580.414306640625
0, 6, 51, 1502.361328125
0, 6, 52, 1561.416015625
0, 6, 53, 1475.0908203125
0, 6, 54, 1499.178344726562
0, 6, 55, 1568.959594726562
0, 6, 56, 1525.106567382812
0, 6, 57, 1507.1201171875
0, 6, 58, 1468.932983398438
0, 6, 59, 1522.735961914062
0, 6, 60, 1469.357788085938
0, 6, 61, 1572.294799804688
0, 6, 62, 1546.7119140625
0, 6, 63, 1494.5126953125
0, 6, 64, 1409.140747070312
0, 6, 65, 1491.901977539062
0, 6, 66, 1510.885864257812
0, 6, 67, 1512.214721679688
0, 6, 68, 1544.594848632812
0, 6, 69, 1481.084838867188
0, 6, 70, 1527.949340820312
0, 6, 71, 1467.333618164062
0, 6, 72, 1588.105224609375
0, 6, 73, 1493.444580078125
0, 6, 74, 1560.055419921875
0, 6, 75, 1540.14501953125
0, 6, 76, 1572.408203125
0, 6, 77, 1505.030029296875
0, 6, 78, 1447.64794921875
0, 6, 79, 1556.417602539062
0, 6, 80, 1485.191528320312
0, 6, 81, 1482.54931640625
0, 6, 82, 1504.518310546875
0, 6, 83, 1521.314819335938
0, 6, 84, 1518.514770507812
0, 6, 85, 1539.359375
0, 6, 86, 1539.31787109375
0, 6, 87, 1573.18408203125
0, 6, 88, 1474.100830078125
0, 6, 89, 1563.71142578125
0, 6, 90, 1493.437255859375
0, 6, 91, 1537.929931640625
0, 6, 92, 1484.796142578125
0, 6, 93, 1497.019409179688
0, 6, 94, 1469.634887695312
0, 6, 95, 1506.026611328125
0, 6, 96, 1525.431518554688
0, 6, 97, 1503.929565429688
0, 6, 98, 1499.728881835938
0, 6, 99, 1483.69287109375
0, 6, 100, 1522.72314453125
0, 6, 101, 1515.281494140625
0, 6, 102, 1541.802856445312
0, 6, 103, 1500.058959960938
0, 6, 104, 1464.9599609375
0, 6, 105, 1487.033569335938
0, 6, 106, 1498.709716796875
0, 6, 107, 1500.59716796875
0, 6, 108, 1413.810546875
0, 6, 109, 923.7260131835938
0, 6, 110, 279.38623046875
0, 6, 111, 97.10002136230469
0, 6, 112, 77.71157073974609
0, 6, 113, 53.81083297729492
0, 6, 114, 54.33694839477539
0, 6, 115, 45.47506713867188
0, 6, 116, 44.78346252441406
0, 6, 117, 37.38476181030273
0, 6, 118, 38.8752555847168
0, 6, 119, 28.98742294311523
0, 6, 120, 35.14130401611328
0, 6, 121, 26.79304695129395
0, 6, 122, 26.26754379272461
0, 6, 123, 27.39409637451172
0, 6, 124, 28.79421806335449
0, 6, 125, 30.52970886230469
0, 6, 126, 19.55439186096191
0, 6, 127, 21.29702949523926
0, 7, 0, 24.51546669006348
0, 7, 1, 27.57258224487305
0, 7, 2, 21.61693000793457
0, 7, 3, 27.26168632507324
0, 7, 4, 23.31472969055176
0, 7, 5, 42.48261642456055
0, 7, 6, 32.44189834594727
0, 7, 7, 34.98843002319336
0, 7, 8, 28.71877670288086
0, 7, 9, 32.37782287597656
0, 7, 10, 45.73221588134766
0, 7, 11, 49.55280303955078
0, 7, 12, 43.68222045898438
0, 7, 13, 48.53152465820312
0, 7, 14, 64.88573455810547
0, 7, 15, 79.46678924560547
0, 7, 16, 134.987060546875
0, 7, 17, 458.31689453125
0, 7, 18, 1101.341674804688
0, 7, 19, 1500.795166015625
0, 7, 20, 1481.330810546875
0, 7, 21, 1366.512084960938
0, 7, 22, 1486.85107421875
0, 7, 23, 1459.347534179688
0, 7, 24, 1509.655883789062
0, 7, 25, 1594.147338867188
0, 7, 26, 1516.627197265625
0, 7, 27, 1509.33740234375
0, 7, 28, 1543.904418945312
0, 7, 29, 1579.418334960938
0, 7, 30, 1543.02783203125
0, 7, 31, 1443.15478515625
0, 7, 32, 1542.787353515625
0, 7, 33, 1494.180419921875
0, 7, 34, 1483.615600585938
0, 7, 35, 1517.596801757812
0, 7, 36, 1473.578735351562
0, 7, 37, 1600.070556640625
0, 7, 38, 1505.9052734375
0, 7, 39, 1494.470458984375
0, 7, 40, 1544.784545898438
0, 7, 41, 1462.653930664062
0, 7, 42, 1486.246704101562
0, 7, 43, 1441.715087890625
0, 7, 44, 1488.951782226562
0, 7, 45, 1470.137451171875
0, 7, 46, 1512.4267578125
0, 7, 47, 1568.41357421875
0, 7, 48, 1525.891967773438
0, 7, 49, 1539.869384765625
0, 7, 50, 1515.511840820312
0, 7, 51, 1496.9404296875
0, 7, 52, 1518.3037109375
0, 7, 53, 1494.376953125
0, 7, 54, 1587.000854492188
0, 7, 55, 1469.3115234375
0, 7, 56, 1546.335571289062
0, 7, 57, 1511.503784179688
0, 7, 58, 1545.62890625
0, 7, 59, 1538.866943359375
0, 7, 60, 1545.929443359375
0, 7, 61, 1491.867431640625
0, 7, 62, 1435.621459960938
0, 7, 63, 1512.40185546875
0, 7, 64, 1546.947509765625
0, 7, 65, 1528.507202148438
0, 7, 66, 1536.82421875
0, 7, 67, 1577.316650390625
0, 7, 68, 1529.634765625
0, 7, 69, 1516.524780273438
0, 7, 70, 1496.201171875
0, 7, 71, 1520.323364257812
0, 7, 72, 1522.578125
0, 7, 73, 1517.966430664062
0, 7, 74, 1572.544555664062
0, 7, 75, 1541.030517578125
0, 7, 76, 1561.133422851562
0, 7, 77, 1513.048583984375
0, 7, 78, 1507.887573242188
0, 7, 79, 1426.925415039062
0, 7, 80, 1492.170654296875
0, 7, 81, 1494.6357421875
0, 7, 82, 1531.659423828125
0, 7, 83, 1550.473510742188
0, 7, 84, 1583.925903320312
0, 7, 85, 1476.008422851562
0, 7, 86, 1503.629516601562
0, 7, 87, 1508.87646484375
0, 7, 88, 1499.803955078125
0, 7, 89, 1555.290893554688
0, 7, 90, 1518.81494140625
0, 7, 91, 1566.843139648438
0, 7, 92, 1528.594482421875
0, 7, 93, 1550.08447265625
0, 7, 94, 1535.323974609375
0, 7, 95, 1505.036987304688
0, 7, 96, 1515.998291015625
0, 7, 97, 1432.832641601562
0, 7, 98, 1482.393310546875
0, 7, 99, 1525.804565429688
0, 7, 100, 1423.538208007812
0, 7, 101, 1467.477661132812
0, 7, 102, 1446.327392578125
0, 7, 103, 1429.057861328125
0, 7, 104, 1487.512817382812
0, 7, 105, 1524.857666015625
0, 7, 106, 1565.291625976562
0, 7, 107, 1483.286743164062
0, 7, 108, 1407.220947265625
0, 7, 109, 1143.50634765625
0, 7, 110, 475.3953552246094
0, 7, 111, 129.8651733398438
0, 7, 112, 78.64252471923828
0, 7, 113, 73.75534820556641
0, 7, 114, 55.07033157348633
0, 7, 115, 45.73674011230469
0, 7, 116, 47.84690475463867
0, 7, 117, 45.66975021362305
0, 7, 118, 41.07301330566406
0, 7, 119, 35.36844635009766
0, 7, 120, 24.3797492980957
0, 7, 121, 35.46278381347656
0, 7, 122, 33.2522087097168
0, 7, 123, 32.18830871582031
0, 7, 124, 33.75698089599609
0, 7, 125, 24.87930488586426
0, 7, 126, 29.60683441162109
0, 7, 127, 23.75003051757812
0, 8, 0, 20.66149711608887
0, 8, 1, 24.85922813415527
0, 8, 2, 25.23580169677734
0, 8, 3, 30.56306838989258
0, 8, 4, 27.96141815185547
0, 8, 5, 31.2069034576416
0, 8, 6, 29.17799377441406
0, 8, 7, 34.28419876098633
0, 8, 8, 30.64163970947266
0, 8, 9, 42.10138702392578
0, 8, 10, 42.63813781738281
0, 8, 11, 41.19683456420898
0, 8, 12, 53.40285110473633
0, 8, 13, 74.90717315673828
0, 8, 14, 73.09186553955078
0, 8, 15, 83.98470306396484
0, 8, 16, 164.6974639892578
0, 8, 17, 676.2402954101562
0, 8, 18, 1274.257690429688
0, 8, 19, 1441.179931640625
0, 8, 20, 1425.3779296875
0, 8, 21, 1408.515747070312
0, 8, 22, 1490.031127929688
0, 8, 23, 1479.649780273438
0, 8, 24, 1436.213745117188
0, 8, 25, 1455.15380859375
0, 8, 26, 1515.222778320312
0, 8, 27, 1523.36328125
0, 8, 28, 1473.341430664062
0, 8, 29, 1507.348266601562
0, 8, 30, 1483.894287109375
0, 8, 31, 1537.65234375
0, 8, 32, 1511.532470703125
0, 8, 33, 1483.669067382812
0, 8, 34, 1536.700927734375
0, 8, 35, 1443.631591796875
0, 8, 36, 1503.308715820312
0, 8, 37, 1559.860229492188
0, 8, 38, 1555.382202148438
0, 8, 39, 1491.385009765625
0, 8, 40, 1530.46240234375
0, 8, 41, 1481.419189453125
0, 8, 42, 1538.473876953125
0, 8, 43, 1434.930541992188
0, 8, 44, 1533.222778320312
0, 8, 45, 1513.122802734375
0, 8, 46, 1593.582397460938
0, 8, 47, 1589.298583984375
0, 8, 48, 1546.362060546875
