# TOPAS Version: 3.1.p3
# Parameter File: batch_inserts_92.txt
# Results for scorer Readout_Adipose
# Scored in component: MyBox
# X in 1 bin  of 0.75 cm
# Y in 512 bins of 0.0783984 cm
# Z in 128 bins of 0.078125 cm
# EnergyDeposit ( MeV ) : Sum   
0, 0, 0, 3.000584125518799
0, 0, 1, 2.48896312713623
0, 0, 2, 3.159671068191528
0, 0, 3, 1.747292160987854
0, 0, 4, 3.268684148788452
0, 0, 5, 2.42370343208313
0, 0, 6, 6.284916877746582
0, 0, 7, 10.10641956329346
0, 0, 8, 4.35182523727417
0, 0, 9, 4.517995834350586
0, 0, 10, 6.357314586639404
0, 0, 11, 4.050819873809814
0, 0, 12, 4.660560131072998
0, 0, 13, 6.509078025817871
0, 0, 14, 7.964250564575195
0, 0, 15, 9.873939514160156
0, 0, 16, 8.121319770812988
0, 0, 17, 10.06937313079834
0, 0, 18, 13.65354824066162
0, 0, 19, 43.47595596313477
0, 0, 20, 141.6379241943359
0, 0, 21, 223.0953826904297
0, 0, 22, 248.9071807861328
0, 0, 23, 256.7126159667969
0, 0, 24, 250.3027954101562
0, 0, 25, 258.439453125
0, 0, 26, 235.7826843261719
0, 0, 27, 236.7976531982422
0, 0, 28, 271.9883422851562
0, 0, 29, 251.7501220703125
0, 0, 30, 232.195068359375
0, 0, 31, 245.7549896240234
0, 0, 32, 263.1376342773438
0, 0, 33, 260.3300476074219
0, 0, 34, 286.4105529785156
0, 0, 35, 267.0053100585938
0, 0, 36, 246.2757263183594
0, 0, 37, 251.9058380126953
0, 0, 38, 269.0569763183594
0, 0, 39, 231.9855041503906
0, 0, 40, 242.3779602050781
0, 0, 41, 264.1633911132812
0, 0, 42, 230.2951049804688
0, 0, 43, 259.5282287597656
0, 0, 44, 253.3921051025391
0, 0, 45, 253.0880584716797
0, 0, 46, 245.9997253417969
0, 0, 47, 257.027099609375
0, 0, 48, 267.6788024902344
0, 0, 49, 273.7546081542969
0, 0, 50, 251.4148254394531
0, 0, 51, 254.5387573242188
0, 0, 52, 272.6806640625
0, 0, 53, 291.5249938964844
0, 0, 54, 242.8272705078125
0, 0, 55, 241.0793762207031
0, 0, 56, 278.656494140625
0, 0, 57, 261.7499694824219
0, 0, 58, 245.7889404296875
0, 0, 59, 269.6547241210938
0, 0, 60, 234.1285400390625
0, 0, 61, 244.4852600097656
0, 0, 62, 257.6751708984375
0, 0, 63, 266.387451171875
0, 0, 64, 255.6580657958984
0, 0, 65, 260.9646606445312
0, 0, 66, 277.6082763671875
0, 0, 67, 247.3741760253906
0, 0, 68, 258.5484313964844
0, 0, 69, 261.9189453125
0, 0, 70, 273.6629638671875
0, 0, 71, 236.3733062744141
0, 0, 72, 250.4705200195312
0, 0, 73, 256.7508544921875
0, 0, 74, 251.7043151855469
0, 0, 75, 238.44677734375
0, 0, 76, 228.8441619873047
0, 0, 77, 262.2195434570312
0, 0, 78, 255.6414337158203
0, 0, 79, 279.2201843261719
0, 0, 80, 216.3329162597656
0, 0, 81, 267.62939453125
0, 0, 82, 255.4803924560547
0, 0, 83, 243.8086853027344
0, 0, 84, 270.42529296875
0, 0, 85, 230.5239868164062
0, 0, 86, 253.0821075439453
0, 0, 87, 250.1605987548828
0, 0, 88, 260.6332092285156
0, 0, 89, 284.1072387695312
0, 0, 90, 243.8485565185547
0, 0, 91, 281.2135009765625
0, 0, 92, 253.0001983642578
0, 0, 93, 250.3743591308594
0, 0, 94, 251.2205352783203
0, 0, 95, 247.8794555664062
0, 0, 96, 275.2733154296875
0, 0, 97, 271.8168334960938
0, 0, 98, 274.8119506835938
0, 0, 99, 258.4329833984375
0, 0, 100, 258.2157592773438
0, 0, 101, 226.5189056396484
0, 0, 102, 231.7599792480469
0, 0, 103, 270.4815368652344
0, 0, 104, 254.4515075683594
0, 0, 105, 254.5840606689453
0, 0, 106, 246.1986083984375
0, 0, 107, 154.7575073242188
0, 0, 108, 38.38624954223633
0, 0, 109, 12.01158428192139
0, 0, 110, 12.54395008087158
0, 0, 111, 9.902796745300293
0, 0, 112, 7.330742835998535
0, 0, 113, 5.348573207855225
0, 0, 114, 6.709748268127441
0, 0, 115, 7.113619804382324
0, 0, 116, 6.383347511291504
0, 0, 117, 5.507847309112549
0, 0, 118, 5.995240688323975
0, 0, 119, 5.126044750213623
0, 0, 120, 4.771313190460205
0, 0, 121, 3.9415442943573
0, 0, 122, 4.307761192321777
0, 0, 123, 3.107537031173706
0, 0, 124, 7.537295341491699
0, 0, 125, 2.928504228591919
0, 0, 126, 3.289068937301636
0, 0, 127, 2.860723495483398
0, 1, 0, 8.332479476928711
0, 1, 1, 3.75195050239563
0, 1, 2, 4.454316139221191
0, 1, 3, 3.041582822799683
0, 1, 4, 2.862665414810181
0, 1, 5, 3.216393232345581
0, 1, 6, 4.878171443939209
0, 1, 7, 1.992184519767761
0, 1, 8, 7.878178596496582
0, 1, 9, 4.003586769104004
0, 1, 10, 7.003954410552979
0, 1, 11, 13.78822898864746
0, 1, 12, 8.104145050048828
0, 1, 13, 9.833788871765137
0, 1, 14, 7.567139625549316
0, 1, 15, 9.569877624511719
0, 1, 16, 11.86192321777344
0, 1, 17, 12.17666530609131
0, 1, 18, 21.09007835388184
0, 1, 19, 69.99942779541016
0, 1, 20, 197.3419189453125
0, 1, 21, 255.6522216796875
0, 1, 22, 294.4550170898438
0, 1, 23, 282.8278503417969
0, 1, 24, 276.4805603027344
0, 1, 25, 288.6239318847656
0, 1, 26, 268.1935424804688
0, 1, 27, 306.0028381347656
0, 1, 28, 301.4047546386719
0, 1, 29, 295.8472290039062
0, 1, 30, 280.4175720214844
0, 1, 31, 291.3267822265625
0, 1, 32, 292.0948791503906
0, 1, 33, 296.2015991210938
0, 1, 34, 293.0431518554688
0, 1, 35, 278.0558166503906
0, 1, 36, 306.8274230957031
0, 1, 37, 296.223388671875
0, 1, 38, 280.7098388671875
0, 1, 39, 296.3506774902344
0, 1, 40, 266.477294921875
0, 1, 41, 285.13623046875
0, 1, 42, 289.6410827636719
0, 1, 43, 333.2569580078125
0, 1, 44, 278.1968688964844
0, 1, 45, 292.2169494628906
0, 1, 46, 261.0517883300781
0, 1, 47, 310.1061706542969
0, 1, 48, 283.4496459960938
0, 1, 49, 304.2609252929688
0, 1, 50, 263.7829284667969
0, 1, 51, 271.5137939453125
0, 1, 52, 296.3060913085938
0, 1, 53, 305.9113464355469
0, 1, 54, 273.845703125
0, 1, 55, 295.1589965820312
0, 1, 56, 277.4226989746094
0, 1, 57, 297.1377868652344
0, 1, 58, 311.6111145019531
0, 1, 59, 293.7659301757812
0, 1, 60, 297.770263671875
0, 1, 61, 274.6614074707031
0, 1, 62, 306.4436340332031
0, 1, 63, 289.8114929199219
0, 1, 64, 288.4539489746094
0, 1, 65, 293.6495971679688
0, 1, 66, 293.4366455078125
0, 1, 67, 291.7604064941406
0, 1, 68, 279.5871276855469
0, 1, 69, 281.0190124511719
0, 1, 70, 269.2586364746094
0, 1, 71, 274.0348205566406
0, 1, 72, 285.6547546386719
0, 1, 73, 304.2222900390625
0, 1, 74, 304.7345275878906
0, 1, 75, 292.1946411132812
0, 1, 76, 285.5165405273438
0, 1, 77, 290.2713928222656
0, 1, 78, 301.9252014160156
0, 1, 79, 301.2466430664062
0, 1, 80, 294.5151672363281
0, 1, 81, 300.2032165527344
0, 1, 82, 283.8093872070312
0, 1, 83, 333.9443664550781
0, 1, 84, 309.6364440917969
0, 1, 85, 253.5660400390625
0, 1, 86, 293.4265441894531
0, 1, 87, 290.9425964355469
0, 1, 88, 298.7247619628906
0, 1, 89, 288.9733581542969
0, 1, 90, 271.5068359375
0, 1, 91, 320.6182556152344
0, 1, 92, 291.8632507324219
0, 1, 93, 287.1353759765625
0, 1, 94, 303.287353515625
0, 1, 95, 285.8594970703125
0, 1, 96, 282.7440795898438
0, 1, 97, 303.5848083496094
0, 1, 98, 278.2609252929688
0, 1, 99, 265.9624328613281
0, 1, 100, 277.2969970703125
0, 1, 101, 282.0609436035156
0, 1, 102, 276.2959594726562
0, 1, 103, 281.1874084472656
0, 1, 104, 305.4550476074219
0, 1, 105, 296.0670471191406
0, 1, 106, 261.1306762695312
0, 1, 107, 196.2137145996094
0, 1, 108, 85.13109588623047
0, 1, 109, 24.22954177856445
0, 1, 110, 11.51093578338623
0, 1, 111, 9.121090888977051
0, 1, 112, 11.92795181274414
0, 1, 113, 5.971976757049561
0, 1, 114, 6.658862590789795
0, 1, 115, 7.3327317237854
0, 1, 116, 10.68259906768799
0, 1, 117, 6.071747779846191
0, 1, 118, 5.553359508514404
0, 1, 119, 5.99400806427002
0, 1, 120, 6.68363618850708
0, 1, 121, 6.903302192687988
0, 1, 122, 3.444043636322021
0, 1, 123, 7.143055438995361
0, 1, 124, 9.994861602783203
0, 1, 125, 4.922663688659668
0, 1, 126, 3.261128187179565
0, 1, 127, 1.789403200149536
0, 2, 0, 4.009350776672363
0, 2, 1, 1.659964203834534
0, 2, 2, 3.983503580093384
0, 2, 3, 4.854230880737305
0, 2, 4, 2.056670188903809
0, 2, 5, 2.465132236480713
0, 2, 6, 1.97611129283905
0, 2, 7, 3.828644514083862
0, 2, 8, 6.215858459472656
0, 2, 9, 4.779296875
0, 2, 10, 8.170286178588867
0, 2, 11, 4.566811561584473
0, 2, 12, 6.372133731842041
0, 2, 13, 10.98173046112061
0, 2, 14, 9.486971855163574
0, 2, 15, 8.429393768310547
0, 2, 16, 9.425370216369629
0, 2, 17, 16.19173622131348
0, 2, 18, 29.32761001586914
0, 2, 19, 117.7241897583008
0, 2, 20, 245.4758911132812
0, 2, 21, 272.3544921875
0, 2, 22, 315.7270812988281
0, 2, 23, 300.9689025878906
0, 2, 24, 288.3184204101562
0, 2, 25, 304.8022155761719
0, 2, 26, 292.9642944335938
0, 2, 27, 275.5301818847656
0, 2, 28, 273.1434326171875
0, 2, 29, 275.5663757324219
0, 2, 30, 293.8208923339844
0, 2, 31, 276.3131713867188
0, 2, 32, 294.0739135742188
0, 2, 33, 282.1424865722656
0, 2, 34, 332.9979248046875
0, 2, 35, 288.4609375
0, 2, 36, 306.2526245117188
0, 2, 37, 315.9953308105469
0, 2, 38, 313.9525146484375
0, 2, 39, 265.2352600097656
0, 2, 40, 309.2239074707031
0, 2, 41, 291.053955078125
0, 2, 42, 305.6114196777344
0, 2, 43, 312.1144104003906
0, 2, 44, 311.9483337402344
0, 2, 45, 323.9441528320312
0, 2, 46, 286.2174377441406
0, 2, 47, 302.3393859863281
0, 2, 48, 282.2700805664062
0, 2, 49, 280.0516052246094
0, 2, 50, 296.6135559082031
0, 2, 51, 286.12890625
0, 2, 52, 272.8859558105469
0, 2, 53, 287.0007934570312
0, 2, 54, 279.7919006347656
0, 2, 55, 275.8782043457031
0, 2, 56, 300.4393920898438
0, 2, 57, 291.6559753417969
0, 2, 58, 302.1118774414062
0, 2, 59, 288.7798156738281
0, 2, 60, 318.9979248046875
0, 2, 61, 300.9621276855469
0, 2, 62, 315.4439697265625
0, 2, 63, 302.0909423828125
0, 2, 64, 296.1152038574219
0, 2, 65, 314.5445861816406
0, 2, 66, 281.1983032226562
0, 2, 67, 290.5567016601562
0, 2, 68, 296.2078552246094
0, 2, 69, 311.8111877441406
0, 2, 70, 334.5622863769531
0, 2, 71, 284.4354553222656
0, 2, 72, 300.8900146484375
0, 2, 73, 312.2084045410156
0, 2, 74, 286.4734802246094
0, 2, 75, 303.40869140625
0, 2, 76, 289.1148681640625
0, 2, 77, 300.5095825195312
0, 2, 78, 315.783935546875
0, 2, 79, 309.0854187011719
0, 2, 80, 296.8646850585938
0, 2, 81, 282.7042541503906
0, 2, 82, 318.1510314941406
0, 2, 83, 313.0792236328125
0, 2, 84, 287.37255859375
0, 2, 85, 281.2908020019531
0, 2, 86, 325.7599487304688
0, 2, 87, 285.9821166992188
0, 2, 88, 281.2926025390625
0, 2, 89, 295.9386291503906
0, 2, 90, 294.7731018066406
0, 2, 91, 274.5286560058594
0, 2, 92, 305.6133728027344
0, 2, 93, 319.1266174316406
0, 2, 94, 291.483154296875
0, 2, 95, 316.032470703125
0, 2, 96, 316.1196594238281
0, 2, 97, 291.0298461914062
0, 2, 98, 294.8575744628906
0, 2, 99, 273.0639038085938
0, 2, 100, 306.7409362792969
0, 2, 101, 300.7180786132812
0, 2, 102, 296.2184753417969
0, 2, 103, 291.5212097167969
0, 2, 104, 293.635009765625
0, 2, 105, 274.8619384765625
0, 2, 106, 299.22314453125
0, 2, 107, 267.56005859375
0, 2, 108, 116.3590927124023
0, 2, 109, 32.73029708862305
0, 2, 110, 9.473649024963379
0, 2, 111, 11.48115348815918
0, 2, 112, 11.83194923400879
0, 2, 113, 14.09981727600098
0, 2, 114, 9.526001930236816
0, 2, 115, 9.950885772705078
0, 2, 116, 10.29245185852051
0, 2, 117, 9.01076602935791
0, 2, 118, 3.696707248687744
0, 2, 119, 5.024598598480225
0, 2, 120, 4.413153171539307
0, 2, 121, 3.395880222320557
0, 2, 122, 3.933016061782837
0, 2, 123, 4.117878913879395
0, 2, 124, 6.994524955749512
0, 2, 125, 4.403352737426758
0, 2, 126, 2.936611652374268
0, 2, 127, 6.369588851928711
0, 3, 0, 3.072675943374634
0, 3, 1, 2.837576627731323
0, 3, 2, 3.995019912719727
0, 3, 3, 2.684633731842041
0, 3, 4, 3.694405317306519
0, 3, 5, 6.155952453613281
0, 3, 6, 6.460426330566406
0, 3, 7, 5.616309642791748
0, 3, 8, 5.488497734069824
0, 3, 9, 4.27336597442627
0, 3, 10, 6.311827182769775
0, 3, 11, 4.62240743637085
0, 3, 12, 6.517809391021729
0, 3, 13, 14.83358192443848
0, 3, 14, 10.50574398040771
0, 3, 15, 13.20051956176758
0, 3, 16, 10.02379989624023
0, 3, 17, 18.60831069946289
0, 3, 18, 53.32278060913086
0, 3, 19, 178.1477661132812
0, 3, 20, 268.5440979003906
0, 3, 21, 271.9255676269531
0, 3, 22, 281.7265625
0, 3, 23, 289.0552673339844
0, 3, 24, 285.914794921875
0, 3, 25, 272.2946472167969
0, 3, 26, 305.1763305664062
0, 3, 27, 292.7207946777344
0, 3, 28, 281.1205139160156
0, 3, 29, 336.8402404785156
0, 3, 30, 319.8778076171875
0, 3, 31, 285.7931823730469
0, 3, 32, 306.1885986328125
0, 3, 33, 314.78076171875
0, 3, 34, 322.7278442382812
0, 3, 35, 308.2574462890625
0, 3, 36, 268.0037841796875
0, 3, 37, 313.525634765625
0, 3, 38, 305.6438293457031
0, 3, 39, 288.22021484375
0, 3, 40, 267.5826416015625
0, 3, 41, 300.1258544921875
0, 3, 42, 286.1640625
0, 3, 43, 305.1038818359375
0, 3, 44, 309.2701416015625
0, 3, 45, 289.0735473632812
0, 3, 46, 327.8988952636719
0, 3, 47, 301.5867004394531
0, 3, 48, 305.0841369628906
0, 3, 49, 276.1814270019531
0, 3, 50, 290.1402282714844
0, 3, 51, 275.9984741210938
0, 3, 52, 315.2253112792969
0, 3, 53, 288.2701416015625
0, 3, 54, 283.1358947753906
0, 3, 55, 283.0174865722656
0, 3, 56, 298.4210205078125
0, 3, 57, 288.4615173339844
0, 3, 58, 305.3597106933594
0, 3, 59, 296.3073425292969
0, 3, 60, 297.6875305175781
0, 3, 61, 265.1343078613281
0, 3, 62, 285.3679504394531
0, 3, 63, 306.3681640625
0, 3, 64, 318.0687255859375
0, 3, 65, 303.2294616699219
0, 3, 66, 313.4539184570312
0, 3, 67, 318.2768249511719
0, 3, 68, 281.40185546875
0, 3, 69, 282.4474182128906
0, 3, 70, 287.6042785644531
0, 3, 71, 300.1002502441406
0, 3, 72, 267.5159912109375
0, 3, 73, 308.7814636230469
0, 3, 74, 296.3646545410156
0, 3, 75, 289.7003784179688
0, 3, 76, 306.1710510253906
0, 3, 77, 314.6625671386719
0, 3, 78, 304.1774597167969
0, 3, 79, 280.823974609375
0, 3, 80, 289.7127075195312
0, 3, 81, 310.7532043457031
0, 3, 82, 315.9354858398438
0, 3, 83, 299.9295959472656
0, 3, 84, 313.3281860351562
0, 3, 85, 293.1902770996094
0, 3, 86, 302.0882873535156
0, 3, 87, 297.3801574707031
0, 3, 88, 296.9598693847656
0, 3, 89, 296.8522338867188
0, 3, 90, 275.1876525878906
0, 3, 91, 286.0807800292969
0, 3, 92, 304.31005859375
0, 3, 93, 312.2738342285156
0, 3, 94, 298.0057067871094
0, 3, 95, 334.1725158691406
0, 3, 96, 290.1524963378906
0, 3, 97, 283.7461853027344
0, 3, 98, 277.4165649414062
0, 3, 99, 261.8582153320312
0, 3, 100, 284.5722961425781
0, 3, 101, 296.4947814941406
0, 3, 102, 273.0705871582031
0, 3, 103, 319.7169494628906
0, 3, 104, 309.1695556640625
0, 3, 105, 289.0464172363281
0, 3, 106, 302.0914611816406
0, 3, 107, 280.6813659667969
0, 3, 108, 165.2961883544922
0, 3, 109, 56.33164215087891
0, 3, 110, 19.13626480102539
0, 3, 111, 14.96157360076904
0, 3, 112, 14.20391654968262
0, 3, 113, 7.210085868835449
0, 3, 114, 9.052891731262207
0, 3, 115, 7.023766040802002
0, 3, 116, 10.87616443634033
0, 3, 117, 5.011514663696289
0, 3, 118, 7.70473575592041
0, 3, 119, 4.663386344909668
0, 3, 120, 5.144219398498535
0, 3, 121, 3.508157253265381
0, 3, 122, 3.795765161514282
0, 3, 123, 4.662631988525391
0, 3, 124, 2.672014474868774
0, 3, 125, 6.63361930847168
0, 3, 126, 6.101304531097412
0, 3, 127, 2.455532073974609
0, 4, 0, 2.28061318397522
0, 4, 1, 5.462357997894287
0, 4, 2, 2.653000354766846
0, 4, 3, 3.427688837051392
0, 4, 4, 6.062332153320312
0, 4, 5, 8.295135498046875
0, 4, 6, 6.500044822692871
0, 4, 7, 4.753275871276855
0, 4, 8, 4.267261981964111
0, 4, 9, 8.841806411743164
0, 4, 10, 6.472841739654541
0, 4, 11, 5.836626529693604
0, 4, 12, 5.736835956573486
0, 4, 13, 8.098884582519531
0, 4, 14, 11.21592140197754
0, 4, 15, 8.819952011108398
0, 4, 16, 13.447340965271
0, 4, 17, 18.62707710266113
0, 4, 18, 95.60263061523438
0, 4, 19, 220.1528167724609
0, 4, 20, 285.7994995117188
0, 4, 21, 273.4324951171875
0, 4, 22, 305.1061096191406
0, 4, 23, 266.5493469238281
0, 4, 24, 288.7080688476562
0, 4, 25, 273.1156616210938
0, 4, 26, 294.5914611816406
0, 4, 27, 283.19873046875
0, 4, 28, 305.856201171875
0, 4, 29, 323.3053588867188
0, 4, 30, 311.1163330078125
0, 4, 31, 303.4664916992188
0, 4, 32, 280.7904663085938
0, 4, 33, 294.9891052246094
0, 4, 34, 296.5023803710938
0, 4, 35, 311.8417053222656
0, 4, 36, 293.7034606933594
0, 4, 37, 286.0318298339844
0, 4, 38, 297.1177368164062
0, 4, 39, 297.7920227050781
0, 4, 40, 301.5443420410156
0, 4, 41, 310.558349609375
0, 4, 42, 329.3101196289062
0, 4, 43, 296.2867126464844
0, 4, 44, 323.3073425292969
0, 4, 45, 324.6253356933594
0, 4, 46, 306.2040405273438
0, 4, 47, 291.7446594238281
0, 4, 48, 295.5707397460938
0, 4, 49, 277.1257629394531
0, 4, 50, 297.6577453613281
0, 4, 51, 315.2400207519531
0, 4, 52, 326.4241333007812
0, 4, 53, 306.7518310546875
0, 4, 54, 287.3792419433594
0, 4, 55, 314.7255859375
0, 4, 56, 286.8731994628906
0, 4, 57, 310.2607727050781
0, 4, 58, 295.1298828125
0, 4, 59, 309.5053100585938
0, 4, 60, 301.3783569335938
0, 4, 61, 316.3755798339844
0, 4, 62, 307.7840881347656
0, 4, 63, 297.5778503417969
0, 4, 64, 331.872802734375
0, 4, 65, 319.258056640625
0, 4, 66, 294.3903503417969
0, 4, 67, 284.5405883789062
0, 4, 68, 312.0036010742188
0, 4, 69, 275.3669738769531
0, 4, 70, 301.3986206054688
0, 4, 71, 320.7513427734375
0, 4, 72, 332.5481262207031
0, 4, 73, 299.46435546875
0, 4, 74, 294.5809326171875
0, 4, 75, 290.3724975585938
0, 4, 76, 274.4690551757812
0, 4, 77, 279.4056091308594
0, 4, 78, 309.4192504882812
0, 4, 79, 319.5711975097656
0, 4, 80, 315.2411804199219
0, 4, 81, 312.9617919921875
0, 4, 82, 297.9924621582031
0, 4, 83, 301.9822387695312
0, 4, 84, 293.0520629882812
0, 4, 85, 294.1487426757812
0, 4, 86, 298.4976196289062
0, 4, 87, 287.42431640625
0, 4, 88, 306.3587036132812
0, 4, 89, 295.7287902832031
0, 4, 90, 333.4667358398438
0, 4, 91, 301.9884948730469
0, 4, 92, 291.1810302734375
0, 4, 93, 297.1042785644531
0, 4, 94, 294.7098083496094
0, 4, 95, 289.9780578613281
0, 4, 96, 320.9656066894531
0, 4, 97, 272.7500305175781
0, 4, 98, 326.3924255371094
0, 4, 99, 315.0559387207031
0, 4, 100, 300.8719177246094
0, 4, 101, 257.9195861816406
0, 4, 102, 298.5035095214844
0, 4, 103, 316.0213623046875
0, 4, 104, 281.7655334472656
0, 4, 105, 309.9520263671875
0, 4, 106, 286.70263671875
0, 4, 107, 297.7421569824219
0, 4, 108, 227.9561157226562
0, 4, 109, 81.75641632080078
0, 4, 110, 16.5223388671875
0, 4, 111, 12.91402626037598
0, 4, 112, 9.824159622192383
0, 4, 113, 10.55196952819824
0, 4, 114, 8.825372695922852
0, 4, 115, 12.51017093658447
0, 4, 116, 9.140487670898438
0, 4, 117, 5.403015613555908
0, 4, 118, 8.649847030639648
0, 4, 119, 9.623457908630371
0, 4, 120, 7.283472537994385
0, 4, 121, 4.065299034118652
0, 4, 122, 5.367658615112305
0, 4, 123, 5.902526378631592
0, 4, 124, 5.953194141387939
0, 4, 125, 8.370630264282227
0, 4, 126, 5.434155464172363
0, 4, 127, 4.90989351272583
0, 5, 0, 5.316741466522217
0, 5, 1, 2.758025884628296
0, 5, 2, 3.223181486129761
0, 5, 3, 3.26484489440918
0, 5, 4, 6.894933700561523
0, 5, 5, 6.971468448638916
0, 5, 6, 6.316701412200928
0, 5, 7, 5.32733678817749
0, 5, 8, 3.888808727264404
0, 5, 9, 5.620979785919189
0, 5, 10, 7.016698837280273
0, 5, 11, 8.285362243652344
0, 5, 12, 6.788582801818848
0, 5, 13, 7.789561748504639
0, 5, 14, 12.23351192474365
0, 5, 15, 17.90369987487793
0, 5, 16, 15.51083278656006
0, 5, 17, 29.60819625854492
0, 5, 18, 139.6170959472656
0, 5, 19, 287.7396850585938
0, 5, 20, 308.216552734375
0, 5, 21, 317.6190490722656
0, 5, 22, 276.429443359375
0, 5, 23, 311.0322265625
0, 5, 24, 301.3818359375
0, 5, 25, 288.0773010253906
0, 5, 26, 294.9358520507812
0, 5, 27, 320.7422790527344
0, 5, 28, 305.0942993164062
0, 5, 29, 300.9883728027344
0, 5, 30, 324.564453125
0, 5, 31, 286.31005859375
0, 5, 32, 302.9576416015625
0, 5, 33, 302.6708679199219
0, 5, 34, 296.5459594726562
0, 5, 35, 309.9960327148438
0, 5, 36, 269.9519348144531
0, 5, 37, 281.2540893554688
0, 5, 38, 292.0413208007812
0, 5, 39, 311.7842407226562
0, 5, 40, 310.6679077148438
0, 5, 41, 273.9555969238281
0, 5, 42, 305.8701782226562
0, 5, 43, 315.7825317382812
0, 5, 44, 292.2390441894531
0, 5, 45, 302.0758361816406
0, 5, 46, 268.3015441894531
0, 5, 47, 280.0145263671875
0, 5, 48, 293.6122741699219
0, 5, 49, 288.4401245117188
0, 5, 50, 295.486328125
0, 5, 51, 280.8591613769531
0, 5, 52, 272.3918151855469
0, 5, 53, 284.2364196777344
0, 5, 54, 292.5300598144531
0, 5, 55, 344.6167297363281
0, 5, 56, 307.1146850585938
0, 5, 57, 307.5001525878906
0, 5, 58, 313.9216613769531
0, 5, 59, 301.5902099609375
0, 5, 60, 308.3581237792969
0, 5, 61, 280.1950378417969
0, 5, 62, 323.3794860839844
0, 5, 63, 289.3330993652344
0, 5, 64, 323.4145202636719
0, 5, 65, 307.47314453125
0, 5, 66, 329.5333251953125
0, 5, 67, 310.5288696289062
0, 5, 68, 306.6557006835938
0, 5, 69, 311.6072998046875
0, 5, 70, 303.6852111816406
0, 5, 71, 273.7133483886719
0, 5, 72, 310.3035583496094
0, 5, 73, 301.8365783691406
0, 5, 74, 295.9647521972656
0, 5, 75, 295.1089782714844
0, 5, 76, 284.6927795410156
0, 5, 77, 298.1266784667969
0, 5, 78, 312.0692749023438
0, 5, 79, 306.4998779296875
0, 5, 80, 295.0609130859375
0, 5, 81, 327.0439453125
0, 5, 82, 323.6132507324219
0, 5, 83, 281.7388000488281
0, 5, 84, 302.045654296875
0, 5, 85, 270.4921569824219
0, 5, 86, 325.6094970703125
0, 5, 87, 285.7751159667969
0, 5, 88, 312.1974182128906
0, 5, 89, 303.5482482910156
0, 5, 90, 315.0704956054688
0, 5, 91, 312.827392578125
0, 5, 92, 298.6856079101562
0, 5, 93, 322.6085510253906
0, 5, 94, 307.2500305175781
0, 5, 95, 296.4976806640625
0, 5, 96, 296.177490234375
0, 5, 97, 294.6729125976562
0, 5, 98, 318.9776611328125
0, 5, 99, 302.0848388671875
0, 5, 100, 291.5168762207031
0, 5, 101, 306.6480712890625
0, 5, 102, 291.5852661132812
0, 5, 103, 313.3238525390625
0, 5, 104, 303.0733032226562
0, 5, 105, 293.7063293457031
0, 5, 106, 282.606201171875
0, 5, 107, 292.9583435058594
0, 5, 108, 264.6242065429688
0, 5, 109, 156.9625396728516
0, 5, 110, 39.02127075195312
0, 5, 111, 22.9702320098877
0, 5, 112, 14.12592792510986
0, 5, 113, 16.21679878234863
0, 5, 114, 13.0687427520752
0, 5, 115, 10.10395622253418
0, 5, 116, 8.99669361114502
0, 5, 117, 5.362151622772217
0, 5, 118, 12.74887657165527
0, 5, 119, 8.679545402526855
0, 5, 120, 8.207618713378906
0, 5, 121, 6.347376823425293
0, 5, 122, 4.846234798431396
0, 5, 123, 3.278520107269287
0, 5, 124, 4.961086750030518
0, 5, 125, 4.158595561981201
0, 5, 126, 6.589766025543213
0, 5, 127, 4.196699619293213
0, 6, 0, 5.107663631439209
0, 6, 1, 6.362864017486572
0, 6, 2, 5.33522367477417
0, 6, 3, 8.043885231018066
0, 6, 4, 3.446878910064697
0, 6, 5, 5.496373176574707
0, 6, 6, 9.449977874755859
0, 6, 7, 6.340216636657715
0, 6, 8, 9.965216636657715
0, 6, 9, 6.529526233673096
0, 6, 10, 9.150374412536621
0, 6, 11, 7.739434242248535
0, 6, 12, 9.625053405761719
0, 6, 13, 14.0961799621582
0, 6, 14, 7.913055419921875
0, 6, 15, 15.47861289978027
0, 6, 16, 29.43278694152832
0, 6, 17, 55.42275619506836
0, 6, 18, 172.4026947021484
0, 6, 19, 276.2462463378906
0, 6, 20, 289.9960327148438
0, 6, 21, 314.1709594726562
0, 6, 22, 319.6023559570312
0, 6, 23, 307.1786499023438
0, 6, 24, 317.8595275878906
0, 6, 25, 316.425048828125
0, 6, 26, 319.0778503417969
0, 6, 27, 331.5740356445312
0, 6, 28, 296.6610107421875
0, 6, 29, 330.0940551757812
0, 6, 30, 282.0050964355469
0, 6, 31, 287.5572509765625
0, 6, 32, 340.216064453125
0, 6, 33, 301.9528503417969
0, 6, 34, 341.3692016601562
0, 6, 35, 320.5055541992188
0, 6, 36, 273.5382080078125
0, 6, 37, 290.0511169433594
0, 6, 38, 312.4521179199219
0, 6, 39, 300.6026916503906
0, 6, 40, 284.6547546386719
0, 6, 41, 295.556640625
0, 6, 42, 302.7874755859375
0, 6, 43, 289.4214172363281
0, 6, 44, 280.738037109375
0, 6, 45, 320.6481628417969
0, 6, 46, 304.1614074707031
0, 6, 47, 333.3360595703125
0, 6, 48, 293.6482543945312
0, 6, 49, 311.0117797851562
0, 6, 50, 328.7368774414062
0, 6, 51, 311.8207397460938
0, 6, 52, 321.2692260742188
0, 6, 53, 328.0249328613281
0, 6, 54, 302.4178466796875
0, 6, 55, 305.8782653808594
0, 6, 56, 291.9246215820312
0, 6, 57, 313.2948303222656
0, 6, 58, 261.5704956054688
0, 6, 59, 301.7029113769531
0, 6, 60, 314.0584716796875
0, 6, 61, 271.7699890136719
0, 6, 62, 336.8127746582031
0, 6, 63, 323.5611877441406
0, 6, 64, 291.8727111816406
0, 6, 65, 285.7022094726562
0, 6, 66, 305.5954895019531
0, 6, 67, 309.62353515625
0, 6, 68, 293.3774719238281
0, 6, 69, 279.1413879394531
0, 6, 70, 274.0371704101562
0, 6, 71, 288.9267578125
0, 6, 72, 311.289794921875
0, 6, 73, 293.7942810058594
0, 6, 74, 331.985107421875
0, 6, 75, 344.7793884277344
0, 6, 76, 299.1309509277344
0, 6, 77, 288.5325012207031
0, 6, 78, 279.9109191894531
0, 6, 79, 291.7135314941406
0, 6, 80, 300.8266906738281
0, 6, 81, 316.943603515625
0, 6, 82, 318.6836547851562
0, 6, 83, 318.4468078613281
0, 6, 84, 296.5258178710938
0, 6, 85, 301.3099060058594
0, 6, 86, 329.6018371582031
0, 6, 87, 293.1738891601562
0, 6, 88, 305.6396484375
0, 6, 89, 304.3496398925781
0, 6, 90, 299.8406372070312
0, 6, 91, 314.0255126953125
0, 6, 92, 285.9182739257812
0, 6, 93, 294.220703125
0, 6, 94, 274.3917541503906
0, 6, 95, 298.8228759765625
0, 6, 96, 347.4895935058594
0, 6, 97, 307.7399597167969
0, 6, 98, 300.1696166992188
0, 6, 99, 270.6697692871094
0, 6, 100, 308.9720458984375
0, 6, 101, 292.3446350097656
0, 6, 102, 308.120849609375
0, 6, 103, 307.7725524902344
0, 6, 104, 290.8346557617188
0, 6, 105, 301.6789245605469
0, 6, 106, 308.1675109863281
0, 6, 107, 306.3213195800781
0, 6, 108, 265.2958984375
0, 6, 109, 187.0472259521484
0, 6, 110, 53.62255096435547
0, 6, 111, 21.69195556640625
0, 6, 112, 13.39179229736328
0, 6, 113, 10.1348123550415
0, 6, 114, 11.06322574615479
0, 6, 115, 10.63626956939697
0, 6, 116, 9.181870460510254
0, 6, 117, 8.131475448608398
0, 6, 118, 10.11322593688965
0, 6, 119, 5.734724998474121
0, 6, 120, 4.685917854309082
0, 6, 121, 5.93409538269043
0, 6, 122, 8.652433395385742
0, 6, 123, 4.039371013641357
0, 6, 124, 6.678421974182129
0, 6, 125, 6.177064418792725
0, 6, 126, 2.644705295562744
0, 6, 127, 5.561314105987549
0, 7, 0, 6.080422878265381
0, 7, 1, 4.597841262817383
0, 7, 2, 5.586507320404053
0, 7, 3, 2.830966234207153
0, 7, 4, 2.240418434143066
0, 7, 5, 5.408264636993408
0, 7, 6, 8.495288848876953
0, 7, 7, 5.311803340911865
0, 7, 8, 5.104544162750244
0, 7, 9, 5.130819797515869
0, 7, 10, 10.23111438751221
0, 7, 11, 12.57754898071289
0, 7, 12, 9.721253395080566
0, 7, 13, 12.03095149993896
0, 7, 14, 14.7566614151001
0, 7, 15, 17.63052177429199
0, 7, 16, 27.61843490600586
0, 7, 17, 96.89328002929688
0, 7, 18, 219.2700653076172
0, 7, 19, 290.33251953125
0, 7, 20, 299.1766662597656
0, 7, 21, 276.4592590332031
0, 7, 22, 298.5742797851562
0, 7, 23, 292.009521484375
0, 7, 24, 313.47216796875
0, 7, 25, 326.9321899414062
0, 7, 26, 278.2348022460938
0, 7, 27, 298.6107788085938
0, 7, 28, 327.7527465820312
0, 7, 29, 317.9557800292969
0, 7, 30, 298.1054077148438
0, 7, 31, 276.4044189453125
0, 7, 32, 308.20703125
0, 7, 33, 262.1590270996094
0, 7, 34, 298.3348083496094
0, 7, 35, 321.8145751953125
0, 7, 36, 331.7290954589844
0, 7, 37, 324.6730651855469
0, 7, 38, 296.16650390625
0, 7, 39, 307.3901977539062
0, 7, 40, 288.4599914550781
0, 7, 41, 273.3150024414062
0, 7, 42, 300.059814453125
0, 7, 43, 274.6619873046875
0, 7, 44, 305.6328735351562
0, 7, 45, 292.9102783203125
0, 7, 46, 281.349365234375
0, 7, 47, 328.8396301269531
0, 7, 48, 287.1610717773438
0, 7, 49, 301.1533813476562
0, 7, 50, 321.492431640625
0, 7, 51, 300.4981384277344
0, 7, 52, 326.9674682617188
0, 7, 53, 310.5706787109375
0, 7, 54, 323.0550842285156
0, 7, 55, 306.9849243164062
0, 7, 56, 280.2816162109375
0, 7, 57, 281.4614562988281
0, 7, 58, 296.1812744140625
0, 7, 59, 292.2744445800781
0, 7, 60, 323.8074645996094
0, 7, 61, 278.309326171875
0, 7, 62, 298.425048828125
0, 7, 63, 295.387939453125
0, 7, 64, 305.3167724609375
0, 7, 65, 331.4945373535156
0, 7, 66, 321.1709899902344
0, 7, 67, 303.59228515625
0, 7, 68, 279.2582702636719
0, 7, 69, 294.6162109375
0, 7, 70, 302.04443359375
0, 7, 71, 309.2055053710938
0, 7, 72, 286.4662475585938
0, 7, 73, 295.2120361328125
0, 7, 74, 343.4631958007812
0, 7, 75, 318.8252868652344
0, 7, 76, 322.7633361816406
0, 7, 77, 279.2195129394531
0, 7, 78, 300.7773742675781
0, 7, 79, 297.2993774414062
0, 7, 80, 312.7633666992188
0, 7, 81, 319.6850891113281
0, 7, 82, 327.4652709960938
0, 7, 83, 318.0386352539062
0, 7, 84, 310.3997802734375
0, 7, 85, 275.9111938476562
0, 7, 86, 309.4627075195312
0, 7, 87, 309.1867370605469
0, 7, 88, 306.0238647460938
0, 7, 89, 295.7731323242188
0, 7, 90, 306.3180847167969
0, 7, 91, 316.4211120605469
0, 7, 92, 285.7078552246094
0, 7, 93, 306.937744140625
0, 7, 94, 274.82763671875
0, 7, 95, 297.7170104980469
0, 7, 96, 332.5569152832031
0, 7, 97, 297.0938415527344
0, 7, 98, 290.1272583007812
0, 7, 99, 312.778076171875
0, 7, 100, 282.0003662109375
0, 7, 101, 275.5676879882812
0, 7, 102, 291.6712646484375
0, 7, 103, 294.7012329101562
0, 7, 104, 273.51806640625
0, 7, 105, 306.4001159667969
0, 7, 106, 318.478515625
0, 7, 107, 296.6671142578125
0, 7, 108, 272.2623901367188
0, 7, 109, 234.7662658691406
0, 7, 110, 95.19549560546875
0, 7, 111, 22.8947868347168
0, 7, 112, 14.39531421661377
0, 7, 113, 16.5982837677002
0, 7, 114, 14.18894100189209
0, 7, 115, 11.8282470703125
0, 7, 116, 11.41932678222656
0, 7, 117, 6.058601379394531
0, 7, 118, 6.54932689666748
0, 7, 119, 7.822951793670654
0, 7, 120, 5.037030696868896
0, 7, 121, 5.520861148834229
0, 7, 122, 7.181900978088379
0, 7, 123, 6.896946907043457
0, 7, 124, 4.866055965423584
0, 7, 125, 5.786640167236328
0, 7, 126, 6.840604305267334
0, 7, 127, 3.618460655212402
0, 8, 0, 4.340384006500244
0, 8, 1, 3.511168956756592
0, 8, 2, 4.050479412078857
0, 8, 3, 2.603277683258057
0, 8, 4, 5.618059635162354
0, 8, 5, 4.905421257019043
0, 8, 6, 6.64057731628418
0, 8, 7, 6.894720554351807
0, 8, 8, 8.553787231445312
0, 8, 9, 4.773943901062012
0, 8, 10, 8.035560607910156
0, 8, 11, 10.8554162979126
0, 8, 12, 15.63534832000732
0, 8, 13, 18.75285911560059
0, 8, 14, 16.8015079498291
0, 8, 15, 19.10194969177246
0, 8, 16, 32.66969299316406
0, 8, 17, 129.9454803466797
0, 8, 18, 241.9056243896484
0, 8, 19, 293.5479125976562
0, 8, 20, 286.3727722167969
0, 8, 21, 306.8674926757812
0, 8, 22, 297.8134460449219
0, 8, 23, 273.7561340332031
0, 8, 24, 267.6836242675781
0, 8, 25, 275.2718811035156
0, 8, 26, 306.1867065429688
0, 8, 27, 308.4959411621094
0, 8, 28, 302.3501892089844
0, 8, 29, 321.4154663085938
0, 8, 30, 318.4144592285156
0, 8, 31, 304.9916381835938
0, 8, 32, 280.2796630859375
0, 8, 33, 292.7315063476562
0, 8, 34, 288.387451171875
0, 8, 35, 281.2842712402344
0, 8, 36, 316.5811767578125
0, 8, 37, 341.2261352539062
0, 8, 38, 330.495361328125
0, 8, 39, 280.0989990234375
0, 8, 40, 303.9458923339844
0, 8, 41, 291.6943969726562
