# TOPAS Version: 3.1.p3
# Parameter File: batch_inserts_298.txt
# Results for scorer Readout_Adipose
# Scored in component: MyBox
# X in 1 bin  of 0.75 cm
# Y in 512 bins of 0.0783984 cm
# Z in 128 bins of 0.078125 cm
# EnergyDeposit ( MeV ) : Sum   
0, 0, 0, 5.531764030456543
0, 0, 1, 2.764224767684937
0, 0, 2, 4.56870174407959
0, 0, 3, 1.75155246257782
0, 0, 4, 3.361752986907959
0, 0, 5, 2.900450706481934
0, 0, 6, 5.7391676902771
0, 0, 7, 7.956407070159912
0, 0, 8, 5.499526500701904
0, 0, 9, 3.203727960586548
0, 0, 10, 7.181643962860107
0, 0, 11, 4.223944664001465
0, 0, 12, 4.966609954833984
0, 0, 13, 6.2866530418396
0, 0, 14, 6.575944423675537
0, 0, 15, 10.28780746459961
0, 0, 16, 9.425650596618652
0, 0, 17, 10.0088005065918
0, 0, 18, 13.1936206817627
0, 0, 19, 42.87570953369141
0, 0, 20, 139.7650451660156
0, 0, 21, 225.7846374511719
0, 0, 22, 250.6996307373047
0, 0, 23, 255.4702453613281
0, 0, 24, 249.8851165771484
0, 0, 25, 258.7374877929688
0, 0, 26, 234.2139129638672
0, 0, 27, 237.0222930908203
0, 0, 28, 272.2319641113281
0, 0, 29, 252.7150115966797
0, 0, 30, 229.6840057373047
0, 0, 31, 243.0138397216797
0, 0, 32, 263.3394775390625
0, 0, 33, 259.9850769042969
0, 0, 34, 288.7652893066406
0, 0, 35, 267.6287536621094
0, 0, 36, 246.9573822021484
0, 0, 37, 255.5650787353516
0, 0, 38, 271.0707092285156
0, 0, 39, 229.4637451171875
0, 0, 40, 242.5388641357422
0, 0, 41, 268.2864379882812
0, 0, 42, 227.8709869384766
0, 0, 43, 259.0975952148438
0, 0, 44, 253.4975891113281
0, 0, 45, 253.4417572021484
0, 0, 46, 245.8866729736328
0, 0, 47, 252.6896209716797
0, 0, 48, 268.4287719726562
0, 0, 49, 274.868896484375
0, 0, 50, 250.7236022949219
0, 0, 51, 253.5341033935547
0, 0, 52, 273.0043640136719
0, 0, 53, 292.32958984375
0, 0, 54, 242.7101745605469
0, 0, 55, 240.4123992919922
0, 0, 56, 277.1008911132812
0, 0, 57, 263.7622680664062
0, 0, 58, 246.4984130859375
0, 0, 59, 270.6102294921875
0, 0, 60, 234.6510620117188
0, 0, 61, 245.4424591064453
0, 0, 62, 258.0521545410156
0, 0, 63, 267.4272766113281
0, 0, 64, 256.0098266601562
0, 0, 65, 262.7530517578125
0, 0, 66, 275.9803161621094
0, 0, 67, 246.3357238769531
0, 0, 68, 258.2731628417969
0, 0, 69, 261.418212890625
0, 0, 70, 273.8895874023438
0, 0, 71, 238.9647064208984
0, 0, 72, 252.3162384033203
0, 0, 73, 256.628173828125
0, 0, 74, 252.0301055908203
0, 0, 75, 241.7209625244141
0, 0, 76, 227.4607391357422
0, 0, 77, 259.6802673339844
0, 0, 78, 255.1461029052734
0, 0, 79, 279.3837890625
0, 0, 80, 216.406982421875
0, 0, 81, 266.5290222167969
0, 0, 82, 256.0169982910156
0, 0, 83, 243.9020080566406
0, 0, 84, 270.3950805664062
0, 0, 85, 231.9837188720703
0, 0, 86, 252.7955932617188
0, 0, 87, 251.8706359863281
0, 0, 88, 259.2397155761719
0, 0, 89, 282.797119140625
0, 0, 90, 243.7773132324219
0, 0, 91, 280.567138671875
0, 0, 92, 252.0806274414062
0, 0, 93, 250.0860443115234
0, 0, 94, 246.7319030761719
0, 0, 95, 247.157470703125
0, 0, 96, 273.9247741699219
0, 0, 97, 271.5830688476562
0, 0, 98, 274.249755859375
0, 0, 99, 257.7815246582031
0, 0, 100, 260.4207458496094
0, 0, 101, 226.4862976074219
0, 0, 102, 231.91357421875
0, 0, 103, 269.1038818359375
0, 0, 104, 252.7830810546875
0, 0, 105, 251.45361328125
0, 0, 106, 247.3322296142578
0, 0, 107, 152.3642883300781
0, 0, 108, 38.33186340332031
0, 0, 109, 12.5803861618042
0, 0, 110, 12.57691860198975
0, 0, 111, 9.136189460754395
0, 0, 112, 6.45843505859375
0, 0, 113, 6.014412879943848
0, 0, 114, 5.941936016082764
0, 0, 115, 4.393490791320801
0, 0, 116, 5.364590167999268
0, 0, 117, 5.321991443634033
0, 0, 118, 6.70188045501709
0, 0, 119, 2.93100380897522
0, 0, 120, 5.690120697021484
0, 0, 121, 4.916322231292725
0, 0, 122, 5.445500373840332
0, 0, 123, 4.236449241638184
0, 0, 124, 5.0923171043396
0, 0, 125, 2.443753004074097
0, 0, 126, 3.698718309402466
0, 0, 127, 3.739193916320801
0, 1, 0, 8.152771949768066
0, 1, 1, 3.74285888671875
0, 1, 2, 3.041740655899048
0, 1, 3, 1.590495586395264
0, 1, 4, 2.564806938171387
0, 1, 5, 3.199368476867676
0, 1, 6, 3.589858531951904
0, 1, 7, 2.701306819915771
0, 1, 8, 5.945059776306152
0, 1, 9, 3.714982748031616
0, 1, 10, 8.705897331237793
0, 1, 11, 11.85354614257812
0, 1, 12, 9.05704402923584
0, 1, 13, 10.22206115722656
0, 1, 14, 7.72499942779541
0, 1, 15, 6.932755470275879
0, 1, 16, 12.13218116760254
0, 1, 17, 10.33656120300293
0, 1, 18, 20.0767879486084
0, 1, 19, 66.95963287353516
0, 1, 20, 198.8319244384766
0, 1, 21, 255.4348602294922
0, 1, 22, 294.6501770019531
0, 1, 23, 285.47900390625
0, 1, 24, 276.4540710449219
0, 1, 25, 293.6128845214844
0, 1, 26, 270.2495727539062
0, 1, 27, 305.39990234375
0, 1, 28, 299.6274108886719
0, 1, 29, 295.0531616210938
0, 1, 30, 282.2371520996094
0, 1, 31, 292.1344299316406
0, 1, 32, 290.1854248046875
0, 1, 33, 294.6312866210938
0, 1, 34, 291.6454162597656
0, 1, 35, 279.8105163574219
0, 1, 36, 305.5673522949219
0, 1, 37, 295.419677734375
0, 1, 38, 280.7953796386719
0, 1, 39, 293.7442626953125
0, 1, 40, 266.7100830078125
0, 1, 41, 286.1637878417969
0, 1, 42, 290.7731628417969
0, 1, 43, 331.5479125976562
0, 1, 44, 278.4455261230469
0, 1, 45, 291.8102111816406
0, 1, 46, 258.9892883300781
0, 1, 47, 311.5938110351562
0, 1, 48, 284.8900756835938
0, 1, 49, 300.4216613769531
0, 1, 50, 263.60693359375
0, 1, 51, 272.0727844238281
0, 1, 52, 298.7026977539062
0, 1, 53, 304.2220764160156
0, 1, 54, 274.6096496582031
0, 1, 55, 292.9452514648438
0, 1, 56, 275.9320983886719
0, 1, 57, 298.9654846191406
0, 1, 58, 308.4068908691406
0, 1, 59, 294.1123352050781
0, 1, 60, 298.6731262207031
0, 1, 61, 272.9750061035156
0, 1, 62, 307.0014953613281
0, 1, 63, 290.8373107910156
0, 1, 64, 287.6268005371094
0, 1, 65, 294.9826965332031
0, 1, 66, 292.5704345703125
0, 1, 67, 291.6045837402344
0, 1, 68, 276.7126770019531
0, 1, 69, 280.5018310546875
0, 1, 70, 270.388427734375
0, 1, 71, 272.7370300292969
0, 1, 72, 286.7770385742188
0, 1, 73, 303.2655639648438
0, 1, 74, 303.7589416503906
0, 1, 75, 290.9854736328125
0, 1, 76, 284.8281860351562
0, 1, 77, 290.5112915039062
0, 1, 78, 297.6299743652344
0, 1, 79, 303.3562622070312
0, 1, 80, 297.4570007324219
0, 1, 81, 300.0795288085938
0, 1, 82, 283.26953125
0, 1, 83, 332.1309509277344
0, 1, 84, 306.823974609375
0, 1, 85, 253.1198120117188
0, 1, 86, 295.091796875
0, 1, 87, 292.194580078125
0, 1, 88, 299.1652526855469
0, 1, 89, 290.8574523925781
0, 1, 90, 270.5725402832031
0, 1, 91, 319.5784912109375
0, 1, 92, 291.2186889648438
0, 1, 93, 286.2071838378906
0, 1, 94, 305.3329162597656
0, 1, 95, 285.5138549804688
0, 1, 96, 285.0404663085938
0, 1, 97, 301.1650390625
0, 1, 98, 276.615966796875
0, 1, 99, 265.0805969238281
0, 1, 100, 277.1775207519531
0, 1, 101, 282.92041015625
0, 1, 102, 277.6934814453125
0, 1, 103, 280.9762268066406
0, 1, 104, 308.1735229492188
0, 1, 105, 297.0142822265625
0, 1, 106, 261.5084228515625
0, 1, 107, 192.7524566650391
0, 1, 108, 80.68906402587891
0, 1, 109, 23.21128845214844
0, 1, 110, 10.93588542938232
0, 1, 111, 9.470073699951172
0, 1, 112, 10.64219856262207
0, 1, 113, 5.686701774597168
0, 1, 114, 6.096858501434326
0, 1, 115, 7.667327404022217
0, 1, 116, 9.016228675842285
0, 1, 117, 6.024673938751221
0, 1, 118, 4.094013690948486
0, 1, 119, 6.731911182403564
0, 1, 120, 4.30245304107666
0, 1, 121, 4.141567707061768
0, 1, 122, 3.247610569000244
0, 1, 123, 3.297936916351318
0, 1, 124, 7.67268705368042
0, 1, 125, 2.650319337844849
0, 1, 126, 2.840542554855347
0, 1, 127, 2.173478603363037
0, 2, 0, 7.784748554229736
0, 2, 1, 3.570945739746094
0, 2, 2, 6.187406063079834
0, 2, 3, 3.559706449508667
0, 2, 4, 4.302668571472168
0, 2, 5, 2.429742813110352
0, 2, 6, 2.405631542205811
0, 2, 7, 3.555640935897827
0, 2, 8, 5.702619075775146
0, 2, 9, 5.337515830993652
0, 2, 10, 8.119735717773438
0, 2, 11, 6.557966232299805
0, 2, 12, 6.839377403259277
0, 2, 13, 9.746023178100586
0, 2, 14, 11.8168306350708
0, 2, 15, 6.69728946685791
0, 2, 16, 10.14323234558105
0, 2, 17, 17.1800651550293
0, 2, 18, 32.18580627441406
0, 2, 19, 117.1919784545898
0, 2, 20, 246.4969635009766
0, 2, 21, 271.0484619140625
0, 2, 22, 314.9489440917969
0, 2, 23, 304.6460876464844
0, 2, 24, 285.638427734375
0, 2, 25, 302.7844543457031
0, 2, 26, 295.2830810546875
0, 2, 27, 277.0884094238281
0, 2, 28, 272.0579223632812
0, 2, 29, 274.18359375
0, 2, 30, 290.58056640625
0, 2, 31, 278.93701171875
0, 2, 32, 292.9798583984375
0, 2, 33, 283.1201477050781
0, 2, 34, 330.12353515625
0, 2, 35, 291.0184631347656
0, 2, 36, 304.5011291503906
0, 2, 37, 316.1365966796875
0, 2, 38, 310.2555541992188
0, 2, 39, 267.5043334960938
0, 2, 40, 308.1542663574219
0, 2, 41, 292.5999755859375
0, 2, 42, 302.2791442871094
0, 2, 43, 314.0769958496094
0, 2, 44, 312.2901000976562
0, 2, 45, 324.7936706542969
0, 2, 46, 287.7145385742188
0, 2, 47, 304.2300415039062
0, 2, 48, 285.5988159179688
0, 2, 49, 280.8964538574219
0, 2, 50, 295.1719970703125
0, 2, 51, 284.4034729003906
0, 2, 52, 270.3152465820312
0, 2, 53, 285.7668762207031
0, 2, 54, 278.4043579101562
0, 2, 55, 274.0726928710938
0, 2, 56, 302.6012573242188
0, 2, 57, 291.521484375
0, 2, 58, 302.1755981445312
0, 2, 59, 287.5462036132812
0, 2, 60, 318.5126342773438
0, 2, 61, 300.9964294433594
0, 2, 62, 314.5310974121094
0, 2, 63, 302.7176513671875
0, 2, 64, 296.4103698730469
0, 2, 65, 314.6712036132812
0, 2, 66, 279.5439758300781
0, 2, 67, 290.39697265625
0, 2, 68, 295.8720397949219
0, 2, 69, 311.6589050292969
0, 2, 70, 336.6322937011719
0, 2, 71, 285.1699829101562
0, 2, 72, 303.2200012207031
0, 2, 73, 310.9833068847656
0, 2, 74, 286.904296875
0, 2, 75, 304.5540161132812
0, 2, 76, 286.9814758300781
0, 2, 77, 299.7289428710938
0, 2, 78, 315.5671997070312
0, 2, 79, 312.3077392578125
0, 2, 80, 297.0365295410156
0, 2, 81, 281.0614929199219
0, 2, 82, 319.6770324707031
0, 2, 83, 312.8871154785156
0, 2, 84, 288.4031372070312
0, 2, 85, 283.4022216796875
0, 2, 86, 327.4564208984375
0, 2, 87, 288.9847717285156
0, 2, 88, 281.196533203125
0, 2, 89, 296.1695556640625
0, 2, 90, 295.8283996582031
0, 2, 91, 278.390869140625
0, 2, 92, 305.0310974121094
0, 2, 93, 316.9371643066406
0, 2, 94, 290.8504028320312
0, 2, 95, 314.6385498046875
0, 2, 96, 315.5710754394531
0, 2, 97, 290.1458435058594
0, 2, 98, 293.5505981445312
0, 2, 99, 273.3887329101562
0, 2, 100, 305.778564453125
0, 2, 101, 302.2707214355469
0, 2, 102, 297.9735412597656
0, 2, 103, 294.7270202636719
0, 2, 104, 293.9016418457031
0, 2, 105, 273.9217529296875
0, 2, 106, 295.6034240722656
0, 2, 107, 273.2218933105469
0, 2, 108, 118.3988723754883
0, 2, 109, 33.14151382446289
0, 2, 110, 9.24617862701416
0, 2, 111, 10.62265014648438
0, 2, 112, 9.41462516784668
0, 2, 113, 10.753586769104
0, 2, 114, 11.19157981872559
0, 2, 115, 10.69058609008789
0, 2, 116, 11.25168418884277
0, 2, 117, 7.468513965606689
0, 2, 118, 3.544094562530518
0, 2, 119, 6.837173461914062
0, 2, 120, 5.912654876708984
0, 2, 121, 2.861229658126831
0, 2, 122, 3.38272500038147
0, 2, 123, 6.06541919708252
0, 2, 124, 4.003461360931396
0, 2, 125, 5.141212940216064
0, 2, 126, 3.293998956680298
0, 2, 127, 4.545393466949463
0, 3, 0, 2.139230012893677
0, 3, 1, 3.205663442611694
0, 3, 2, 5.462638378143311
0, 3, 3, 4.396919727325439
0, 3, 4, 3.644818067550659
0, 3, 5, 5.951494216918945
0, 3, 6, 6.51264762878418
0, 3, 7, 4.466903686523438
0, 3, 8, 4.672618865966797
0, 3, 9, 6.286057949066162
0, 3, 10, 6.334299564361572
0, 3, 11, 4.119333267211914
0, 3, 12, 6.032981872558594
0, 3, 13, 15.11758518218994
0, 3, 14, 10.61337280273438
0, 3, 15, 15.3797435760498
0, 3, 16, 11.13492870330811
0, 3, 17, 20.38930511474609
0, 3, 18, 53.25534439086914
0, 3, 19, 178.3411407470703
0, 3, 20, 272.2315063476562
0, 3, 21, 271.294921875
0, 3, 22, 281.4793395996094
0, 3, 23, 287.0159301757812
0, 3, 24, 289.08349609375
0, 3, 25, 276.6188659667969
0, 3, 26, 306.2727966308594
0, 3, 27, 291.4287414550781
0, 3, 28, 281.4313049316406
0, 3, 29, 338.1007690429688
0, 3, 30, 317.7765197753906
0, 3, 31, 287.2762756347656
0, 3, 32, 308.5302429199219
0, 3, 33, 314.9066162109375
0, 3, 34, 326.4322204589844
0, 3, 35, 307.3515625
0, 3, 36, 267.7733459472656
0, 3, 37, 316.1313171386719
0, 3, 38, 303.1881713867188
0, 3, 39, 287.7561340332031
0, 3, 40, 266.6976623535156
0, 3, 41, 299.9162292480469
0, 3, 42, 286.9245910644531
0, 3, 43, 309.8098449707031
0, 3, 44, 311.7734375
0, 3, 45, 292.2685546875
0, 3, 46, 329.5826416015625
0, 3, 47, 300.3438720703125
0, 3, 48, 307.4355163574219
0, 3, 49, 277.2059631347656
0, 3, 50, 291.011474609375
0, 3, 51, 275.4964904785156
0, 3, 52, 315.2157287597656
0, 3, 53, 289.6107482910156
0, 3, 54, 284.9916687011719
0, 3, 55, 283.4694213867188
0, 3, 56, 297.83251953125
0, 3, 57, 287.3113708496094
0, 3, 58, 305.7918395996094
0, 3, 59, 297.6455078125
0, 3, 60, 297.4683227539062
0, 3, 61, 264.0177612304688
0, 3, 62, 285.0767822265625
0, 3, 63, 306.3340759277344
0, 3, 64, 316.4130554199219
0, 3, 65, 305.8646545410156
0, 3, 66, 314.1905822753906
0, 3, 67, 317.362548828125
0, 3, 68, 279.4971313476562
0, 3, 69, 285.9709167480469
0, 3, 70, 287.0275573730469
0, 3, 71, 299.2513122558594
0, 3, 72, 271.2004699707031
0, 3, 73, 308.2116394042969
0, 3, 74, 292.9926147460938
0, 3, 75, 289.6643676757812
0, 3, 76, 307.5108642578125
0, 3, 77, 313.8091430664062
0, 3, 78, 303.3152770996094
0, 3, 79, 282.554443359375
0, 3, 80, 289.0644836425781
0, 3, 81, 310.6551818847656
0, 3, 82, 315.114501953125
0, 3, 83, 300.4740600585938
0, 3, 84, 310.53515625
0, 3, 85, 292.3916625976562
0, 3, 86, 303.6276550292969
0, 3, 87, 297.0421752929688
0, 3, 88, 296.9970092773438
0, 3, 89, 298.3089294433594
0, 3, 90, 276.9508666992188
0, 3, 91, 283.6012878417969
0, 3, 92, 303.881103515625
0, 3, 93, 312.5155334472656
0, 3, 94, 300.0513305664062
0, 3, 95, 336.7995300292969
0, 3, 96, 291.7586669921875
0, 3, 97, 284.5988464355469
0, 3, 98, 278.4174499511719
0, 3, 99, 263.5685729980469
0, 3, 100, 286.3701782226562
0, 3, 101, 299.2002868652344
0, 3, 102, 275.9573059082031
0, 3, 103, 320.5163269042969
0, 3, 104, 308.8053894042969
0, 3, 105, 288.3208923339844
0, 3, 106, 301.9563903808594
0, 3, 107, 281.5693359375
0, 3, 108, 169.5787048339844
0, 3, 109, 57.45761871337891
0, 3, 110, 22.20349311828613
0, 3, 111, 14.07988834381104
0, 3, 112, 14.14257526397705
0, 3, 113, 6.881148338317871
0, 3, 114, 9.123701095581055
0, 3, 115, 7.945042610168457
0, 3, 116, 6.618721008300781
0, 3, 117, 8.191680908203125
0, 3, 118, 8.249711990356445
0, 3, 119, 5.964639186859131
0, 3, 120, 5.127398490905762
0, 3, 121, 2.405547618865967
0, 3, 122, 5.005525588989258
0, 3, 123, 4.746696472167969
0, 3, 124, 4.616237640380859
0, 3, 125, 6.497828483581543
0, 3, 126, 5.033246040344238
0, 3, 127, 2.953005075454712
0, 4, 0, 5.505854606628418
0, 4, 1, 4.762918472290039
0, 4, 2, 3.086506366729736
0, 4, 3, 2.072029829025269
0, 4, 4, 6.885329723358154
0, 4, 5, 11.30208587646484
0, 4, 6, 9.231755256652832
0, 4, 7, 3.954927682876587
0, 4, 8, 3.829390525817871
0, 4, 9, 4.640861511230469
0, 4, 10, 6.746609687805176
0, 4, 11, 7.317104339599609
0, 4, 12, 6.23567008972168
0, 4, 13, 8.613029479980469
0, 4, 14, 10.18060207366943
0, 4, 15, 10.50542736053467
0, 4, 16, 15.39389801025391
0, 4, 17, 17.94009590148926
0, 4, 18, 93.08302307128906
0, 4, 19, 221.7068176269531
0, 4, 20, 285.2746276855469
0, 4, 21, 273.3373718261719
0, 4, 22, 304.3206176757812
0, 4, 23, 266.5859680175781
0, 4, 24, 289.2528991699219
0, 4, 25, 276.3306274414062
0, 4, 26, 296.4573974609375
0, 4, 27, 282.3846435546875
0, 4, 28, 306.6218566894531
0, 4, 29, 324.6808471679688
0, 4, 30, 308.9674682617188
0, 4, 31, 304.1591186523438
0, 4, 32, 280.2550354003906
0, 4, 33, 294.4749145507812
0, 4, 34, 296.4704895019531
0, 4, 35, 313.0092163085938
0, 4, 36, 295.9188232421875
0, 4, 37, 288.2898559570312
0, 4, 38, 297.3952026367188
0, 4, 39, 296.6013488769531
0, 4, 40, 303.0935668945312
0, 4, 41, 311.1623229980469
0, 4, 42, 329.80859375
0, 4, 43, 295.6746826171875
0, 4, 44, 321.3007202148438
0, 4, 45, 327.0085144042969
0, 4, 46, 306.2875366210938
0, 4, 47, 292.7834777832031
0, 4, 48, 294.5706787109375
0, 4, 49, 277.8820190429688
0, 4, 50, 296.4208374023438
0, 4, 51, 314.2096252441406
0, 4, 52, 328.1854858398438
0, 4, 53, 304.1263732910156
0, 4, 54, 287.2001037597656
0, 4, 55, 317.5560607910156
0, 4, 56, 286.6692199707031
0, 4, 57, 309.87158203125
0, 4, 58, 297.7709045410156
0, 4, 59, 310.4769897460938
0, 4, 60, 301.6670837402344
0, 4, 61, 315.9129638671875
0, 4, 62, 306.7439880371094
0, 4, 63, 299.1001586914062
0, 4, 64, 330.0758056640625
0, 4, 65, 316.2087097167969
0, 4, 66, 296.2784729003906
0, 4, 67, 284.5929565429688
0, 4, 68, 314.8251037597656
0, 4, 69, 276.6310729980469
0, 4, 70, 300.04150390625
0, 4, 71, 320.9201354980469
0, 4, 72, 332.339111328125
0, 4, 73, 297.3597106933594
0, 4, 74, 292.4044799804688
0, 4, 75, 289.9689331054688
0, 4, 76, 275.6021118164062
0, 4, 77, 281.5032958984375
0, 4, 78, 311.066650390625
0, 4, 79, 320.0511474609375
0, 4, 80, 315.4316101074219
0, 4, 81, 312.2972412109375
0, 4, 82, 297.3706970214844
0, 4, 83, 299.33642578125
0, 4, 84, 293.9744567871094
0, 4, 85, 296.5379333496094
0, 4, 86, 297.8187561035156
0, 4, 87, 287.4129333496094
0, 4, 88, 307.3507690429688
0, 4, 89, 293.6504516601562
0, 4, 90, 331.9521789550781
0, 4, 91, 302.0252990722656
0, 4, 92, 288.818603515625
0, 4, 93, 296.7035827636719
0, 4, 94, 292.7127990722656
0, 4, 95, 288.6368103027344
0, 4, 96, 323.8827209472656
0, 4, 97, 273.8278503417969
0, 4, 98, 326.3836059570312
0, 4, 99, 312.9464416503906
0, 4, 100, 300.3888549804688
0, 4, 101, 257.4866027832031
0, 4, 102, 298.4610900878906
0, 4, 103, 318.1116333007812
0, 4, 104, 281.7485046386719
0, 4, 105, 309.9227600097656
0, 4, 106, 286.4793701171875
0, 4, 107, 294.7775268554688
0, 4, 108, 226.7528381347656
0, 4, 109, 78.95433044433594
0, 4, 110, 16.63515663146973
0, 4, 111, 15.28578281402588
0, 4, 112, 7.982093334197998
0, 4, 113, 8.473238945007324
0, 4, 114, 8.673477172851562
0, 4, 115, 8.809314727783203
0, 4, 116, 11.00905609130859
0, 4, 117, 6.810624599456787
0, 4, 118, 9.921091079711914
0, 4, 119, 10.37685871124268
0, 4, 120, 5.756391048431396
0, 4, 121, 8.357406616210938
0, 4, 122, 7.206479072570801
0, 4, 123, 6.169891357421875
0, 4, 124, 6.302920341491699
0, 4, 125, 8.243391036987305
0, 4, 126, 3.842578411102295
0, 4, 127, 2.729207754135132
0, 5, 0, 4.468438625335693
0, 5, 1, 3.002588987350464
0, 5, 2, 2.750349998474121
0, 5, 3, 5.357846736907959
0, 5, 4, 6.59880256652832
0, 5, 5, 6.835502624511719
0, 5, 6, 7.629175186157227
0, 5, 7, 5.016646862030029
0, 5, 8, 3.9018714427948
0, 5, 9, 6.109283447265625
0, 5, 10, 7.930026531219482
0, 5, 11, 8.490072250366211
0, 5, 12, 9.905426979064941
0, 5, 13, 5.322569847106934
0, 5, 14, 11.80058193206787
0, 5, 15, 17.14350700378418
0, 5, 16, 14.07960414886475
0, 5, 17, 29.15007972717285
0, 5, 18, 135.2525024414062
0, 5, 19, 287.0117797851562
0, 5, 20, 306.9583129882812
0, 5, 21, 318.1991577148438
0, 5, 22, 275.1946105957031
0, 5, 23, 310.5060424804688
0, 5, 24, 300.6244506835938
0, 5, 25, 289.1836853027344
0, 5, 26, 294.0537109375
0, 5, 27, 322.738037109375
0, 5, 28, 302.9036560058594
0, 5, 29, 302.563232421875
0, 5, 30, 322.5801391601562
0, 5, 31, 287.9622802734375
0, 5, 32, 302.2190551757812
0, 5, 33, 304.7701416015625
0, 5, 34, 298.6806030273438
0, 5, 35, 309.361572265625
0, 5, 36, 268.3950805664062
0, 5, 37, 281.053466796875
0, 5, 38, 294.9797058105469
0, 5, 39, 311.2124633789062
0, 5, 40, 308.0721435546875
0, 5, 41, 278.0834045410156
0, 5, 42, 303.2635803222656
0, 5, 43, 316.024658203125
0, 5, 44, 293.0638732910156
0, 5, 45, 300.6298217773438
0, 5, 46, 263.4107360839844
0, 5, 47, 283.7762451171875
0, 5, 48, 294.7557678222656
0, 5, 49, 286.5202026367188
0, 5, 50, 294.354736328125
0, 5, 51, 281.1929626464844
0, 5, 52, 271.6566772460938
0, 5, 53, 284.0244445800781
0, 5, 54, 291.156982421875
0, 5, 55, 345.0097961425781
0, 5, 56, 304.8710021972656
0, 5, 57, 306.8477478027344
0, 5, 58, 311.7815551757812
0, 5, 59, 303.5380249023438
0, 5, 60, 308.9476623535156
0, 5, 61, 281.5215148925781
0, 5, 62, 325.6555480957031
0, 5, 63, 292.2945251464844
0, 5, 64, 321.9839172363281
0, 5, 65, 305.9330444335938
0, 5, 66, 329.0912780761719
0, 5, 67, 312.3928527832031
0, 5, 68, 307.4732055664062
0, 5, 69, 311.2174377441406
0, 5, 70, 302.0377197265625
0, 5, 71, 272.3370666503906
0, 5, 72, 309.8924560546875
0, 5, 73, 300.431884765625
0, 5, 74, 296.05419921875
0, 5, 75, 294.2587280273438
0, 5, 76, 286.6642150878906
0, 5, 77, 299.332763671875
0, 5, 78, 314.7260131835938
0, 5, 79, 305.368896484375
0, 5, 80, 295.001220703125
0, 5, 81, 325.4782104492188
0, 5, 82, 325.6622314453125
0, 5, 83, 281.5469970703125
0, 5, 84, 300.5430297851562
0, 5, 85, 270.5077819824219
0, 5, 86, 327.108154296875
0, 5, 87, 283.3548889160156
0, 5, 88, 312.033935546875
0, 5, 89, 305.7981262207031
0, 5, 90, 317.2217407226562
0, 5, 91, 313.2015991210938
0, 5, 92, 295.8253173828125
0, 5, 93, 321.567138671875
0, 5, 94, 307.8705139160156
0, 5, 95, 298.7442016601562
0, 5, 96, 297.1943359375
0, 5, 97, 295.3538513183594
0, 5, 98, 319.5322265625
0, 5, 99, 302.0425109863281
0, 5, 100, 292.3729553222656
0, 5, 101, 304.9390869140625
0, 5, 102, 290.8276672363281
0, 5, 103, 312.8717041015625
0, 5, 104, 301.9327392578125
0, 5, 105, 292.6117858886719
0, 5, 106, 281.7207946777344
0, 5, 107, 294.1112670898438
0, 5, 108, 263.2570190429688
0, 5, 109, 156.349365234375
0, 5, 110, 40.25116348266602
0, 5, 111, 18.62238693237305
0, 5, 112, 16.8111515045166
0, 5, 113, 15.0225830078125
0, 5, 114, 12.2847318649292
0, 5, 115, 7.116213798522949
0, 5, 116, 7.876739978790283
0, 5, 117, 5.250390529632568
0, 5, 118, 12.85256481170654
0, 5, 119, 5.679363250732422
0, 5, 120, 5.487769603729248
0, 5, 121, 4.327247142791748
0, 5, 122, 5.260534763336182
0, 5, 123, 5.405657291412354
0, 5, 124, 5.526299953460693
0, 5, 125, 3.806633472442627
0, 5, 126, 8.053674697875977
0, 5, 127, 4.206376552581787
0, 6, 0, 5.526504993438721
0, 6, 1, 2.701752901077271
0, 6, 2, 5.95545768737793
0, 6, 3, 6.616706371307373
0, 6, 4, 3.433524608612061
0, 6, 5, 4.350164890289307
0, 6, 6, 9.169252395629883
0, 6, 7, 6.290032386779785
0, 6, 8, 7.361178874969482
0, 6, 9, 8.610355377197266
0, 6, 10, 6.534535884857178
0, 6, 11, 9.393575668334961
0, 6, 12, 8.247130393981934
0, 6, 13, 16.97926712036133
0, 6, 14, 10.51442241668701
0, 6, 15, 17.66357231140137
0, 6, 16, 28.88688087463379
0, 6, 17, 56.97884368896484
0, 6, 18, 174.1987762451172
0, 6, 19, 277.4214782714844
0, 6, 20, 292.5242004394531
0, 6, 21, 313.2389526367188
0, 6, 22, 321.1206665039062
0, 6, 23, 305.064208984375
0, 6, 24, 317.5447998046875
0, 6, 25, 315.6102294921875
0, 6, 26, 318.6141357421875
0, 6, 27, 330.7906494140625
0, 6, 28, 294.6839904785156
0, 6, 29, 331.3265686035156
0, 6, 30, 282.3033447265625
0, 6, 31, 286.4434509277344
0, 6, 32, 339.5278930664062
0, 6, 33, 300.2461547851562
0, 6, 34, 339.5066223144531
0, 6, 35, 323.3629760742188
0, 6, 36, 273.4923400878906
0, 6, 37, 290.9662780761719
0, 6, 38, 313.5066223144531
0, 6, 39, 299.8460693359375
0, 6, 40, 286.5664672851562
0, 6, 41, 295.8166198730469
0, 6, 42, 303.732666015625
0, 6, 43, 288.8599853515625
0, 6, 44, 282.0188903808594
0, 6, 45, 320.4371643066406
0, 6, 46, 301.4251708984375
0, 6, 47, 336.3783264160156
0, 6, 48, 292.6838073730469
0, 6, 49, 310.1847229003906
0, 6, 50, 327.9859008789062
0, 6, 51, 310.8957824707031
0, 6, 52, 323.5985412597656
0, 6, 53, 329.7096557617188
0, 6, 54, 303.976806640625
0, 6, 55, 308.1441345214844
0, 6, 56, 295.6465454101562
0, 6, 57, 313.2328796386719
0, 6, 58, 261.5167846679688
0, 6, 59, 301.0293884277344
0, 6, 60, 312.4506530761719
0, 6, 61, 271.9463500976562
0, 6, 62, 337.5654907226562
0, 6, 63, 321.8994750976562
0, 6, 64, 289.993896484375
0, 6, 65, 285.1444702148438
0, 6, 66, 302.9140930175781
0, 6, 67, 310.227783203125
0, 6, 68, 292.2771301269531
0, 6, 69, 277.56982421875
0, 6, 70, 274.6964111328125
0, 6, 71, 289.4666137695312
0, 6, 72, 309.9506225585938
0, 6, 73, 294.1988830566406
0, 6, 74, 329.5044555664062
0, 6, 75, 343.2918701171875
0, 6, 76, 296.6334533691406
0, 6, 77, 285.5025329589844
0, 6, 78, 279.7138061523438
0, 6, 79, 294.4419860839844
0, 6, 80, 300.3966064453125
0, 6, 81, 315.7605285644531
0, 6, 82, 319.0675048828125
0, 6, 83, 322.2640686035156
0, 6, 84, 297.9885559082031
0, 6, 85, 301.06884765625
0, 6, 86, 329.3569641113281
0, 6, 87, 294.5233459472656
0, 6, 88, 310.9148864746094
0, 6, 89, 303.0119934082031
0, 6, 90, 299.143310546875
0, 6, 91, 312.2629089355469
0, 6, 92, 287.4679260253906
0, 6, 93, 297.6952514648438
0, 6, 94, 271.7924194335938
0, 6, 95, 298.8683471679688
0, 6, 96, 348.2913513183594
0, 6, 97, 307.3710632324219
0, 6, 98, 300.407958984375
0, 6, 99, 271.4672241210938
0, 6, 100, 309.0559997558594
0, 6, 101, 293.0347900390625
0, 6, 102, 307.7798767089844
0, 6, 103, 307.7343139648438
0, 6, 104, 291.236328125
0, 6, 105, 301.2695922851562
0, 6, 106, 307.4841003417969
0, 6, 107, 306.7506713867188
0, 6, 108, 265.4998474121094
0, 6, 109, 185.8146057128906
0, 6, 110, 56.06686782836914
0, 6, 111, 21.43818283081055
0, 6, 112, 12.6200475692749
0, 6, 113, 11.66239452362061
0, 6, 114, 12.43459129333496
0, 6, 115, 12.40055084228516
0, 6, 116, 10.17093944549561
0, 6, 117, 8.081377029418945
0, 6, 118, 12.12813186645508
0, 6, 119, 7.409994602203369
0, 6, 120, 5.188878059387207
0, 6, 121, 6.908201217651367
0, 6, 122, 5.893209457397461
0, 6, 123, 5.266010284423828
0, 6, 124, 6.523265838623047
0, 6, 125, 5.678559303283691
0, 6, 126, 4.359884262084961
0, 6, 127, 8.633271217346191
0, 7, 0, 5.136067867279053
0, 7, 1, 4.731565952301025
0, 7, 2, 6.145968437194824
0, 7, 3, 5.393760681152344
0, 7, 4, 3.699411153793335
0, 7, 5, 4.595093250274658
0, 7, 6, 5.658982753753662
0, 7, 7, 6.824591159820557
0, 7, 8, 6.822688579559326
0, 7, 9, 5.436629772186279
0, 7, 10, 8.349257469177246
0, 7, 11, 11.66596698760986
0, 7, 12, 10.62097835540771
0, 7, 13, 11.40598964691162
0, 7, 14, 10.82351207733154
0, 7, 15, 17.90122032165527
0, 7, 16, 26.92679786682129
0, 7, 17, 96.92926788330078
0, 7, 18, 217.0101165771484
0, 7, 19, 291.3522338867188
0, 7, 20, 298.291015625
0, 7, 21, 275.461181640625
0, 7, 22, 300.4757995605469
0, 7, 23, 290.9898986816406
0, 7, 24, 314.1745910644531
0, 7, 25, 324.3564453125
0, 7, 26, 277.3363647460938
0, 7, 27, 295.9590454101562
0, 7, 28, 326.08251953125
0, 7, 29, 320.1672668457031
0, 7, 30, 299.818115234375
0, 7, 31, 278.2224731445312
0, 7, 32, 307.8582153320312
0, 7, 33, 264.9082336425781
0, 7, 34, 300.22412109375
0, 7, 35, 319.0888671875
0, 7, 36, 330.7743835449219
0, 7, 37, 322.9231567382812
0, 7, 38, 294.9167175292969
0, 7, 39, 306.6434326171875
0, 7, 40, 288.6962585449219
0, 7, 41, 273.1275024414062
0, 7, 42, 302.2197875976562
0, 7, 43, 272.2043762207031
0, 7, 44, 304.1685180664062
0, 7, 45, 294.5603637695312
0, 7, 46, 283.7050170898438
0, 7, 47, 330.2739562988281
0, 7, 48, 287.1106567382812
0, 7, 49, 300.3735046386719
0, 7, 50, 321.4618225097656
0, 7, 51, 298.849609375
0, 7, 52, 326.6825256347656
0, 7, 53, 311.0867919921875
0, 7, 54, 323.7032775878906
0, 7, 55, 305.7748718261719
0, 7, 56, 278.9081726074219
0, 7, 57, 284.6340942382812
0, 7, 58, 299.3768310546875
0, 7, 59, 293.5555114746094
0, 7, 60, 324.2691650390625
0, 7, 61, 277.8113708496094
0, 7, 62, 300.1250915527344
0, 7, 63, 293.3694152832031
0, 7, 64, 306.3519287109375
0, 7, 65, 332.6026306152344
0, 7, 66, 319.1469116210938
0, 7, 67, 302.8550720214844
0, 7, 68, 281.6321716308594
0, 7, 69, 293.8847351074219
0, 7, 70, 305.6972045898438
0, 7, 71, 309.7071228027344
0, 7, 72, 284.135009765625
0, 7, 73, 296.9970397949219
0, 7, 74, 344.1553344726562
0, 7, 75, 318.6118774414062
0, 7, 76, 322.1891174316406
0, 7, 77, 284.7747192382812
0, 7, 78, 301.5360107421875
0, 7, 79, 296.9974060058594
0, 7, 80, 312.5993041992188
0, 7, 81, 319.0314331054688
0, 7, 82, 328.3439331054688
0, 7, 83, 317.4496765136719
0, 7, 84, 308.9365844726562
0, 7, 85, 272.301513671875
0, 7, 86, 311.1807250976562
0, 7, 87, 312.6634521484375
0, 7, 88, 307.1704406738281
0, 7, 89, 294.2685241699219
0, 7, 90, 307.5737915039062
0, 7, 91, 317.1158752441406
0, 7, 92, 286.2002868652344
0, 7, 93, 309.5274353027344
0, 7, 94, 274.1309204101562
0, 7, 95, 296.1329650878906
0, 7, 96, 331.7900390625
0, 7, 97, 295.5538635253906
0, 7, 98, 291.1341857910156
0, 7, 99, 313.5150146484375
0, 7, 100, 283.2979431152344
0, 7, 101, 276.7366638183594
0, 7, 102, 289.4266357421875
0, 7, 103, 293.0102844238281
0, 7, 104, 276.3490295410156
0, 7, 105, 305.2281188964844
0, 7, 106, 317.4952087402344
0, 7, 107, 297.2148132324219
0, 7, 108, 273.8454895019531
0, 7, 109, 238.2041015625
0, 7, 110, 95.65560913085938
0, 7, 111, 24.28034973144531
0, 7, 112, 12.87057685852051
0, 7, 113, 14.7932710647583
0, 7, 114, 15.62375831604004
0, 7, 115, 9.732537269592285
0, 7, 116, 7.871755599975586
0, 7, 117, 6.347155570983887
0, 7, 118, 11.57543468475342
0, 7, 119, 7.64687442779541
0, 7, 120, 4.923692226409912
0, 7, 121, 6.914703369140625
0, 7, 122, 7.072227478027344
0, 7, 123, 5.846490859985352
0, 7, 124, 5.175461292266846
0, 7, 125, 6.807845592498779
0, 7, 126, 8.756858825683594
0, 7, 127, 3.188417911529541
0, 8, 0, 3.761822700500488
0, 8, 1, 5.366397857666016
0, 8, 2, 4.874415874481201
0, 8, 3, 2.26802134513855
0, 8, 4, 3.983722448348999
0, 8, 5, 3.035882234573364
0, 8, 6, 5.260826110839844
0, 8, 7, 6.408641815185547
0, 8, 8, 8.725506782531738
0, 8, 9, 4.853647232055664
0, 8, 10, 7.289376735687256
0, 8, 11, 10.76332950592041
0, 8, 12, 12.29945468902588
0, 8, 13, 14.28720760345459
0, 8, 14, 14.27725124359131
0, 8, 15, 18.4018497467041
0, 8, 16, 33.16221618652344
0, 8, 17, 129.9653625488281
0, 8, 18, 244.3458862304688
0, 8, 19, 294.2240295410156
0, 8, 20, 285.285888671875
0, 8, 21, 308.2595825195312
0, 8, 22, 298.9031372070312
0, 8, 23, 274.2602233886719
0, 8, 24, 268.8489685058594
0, 8, 25, 276.1824035644531
0, 8, 26, 306.2516784667969
0, 8, 27, 308.3094177246094
0, 8, 28, 302.5039978027344
0, 8, 29, 318.3894653320312
0, 8, 30, 314.9037780761719
0, 8, 31, 303.2781066894531
0, 8, 32, 280.518798828125
0, 8, 33, 293.5857849121094
0, 8, 34, 290.3292236328125
0, 8, 35, 281.4441528320312
0, 8, 36, 315.8556823730469
0, 8, 37, 338.7954406738281
0, 8, 38, 334.3152770996094
0, 8, 39, 280.5367736816406
0, 8, 40, 304.2717895507812
0, 8, 41, 292.5020751953125
