# TOPAS Version: 3.1.p3
# Parameter File: batch_inserts_320.txt
# Results for scorer Readout_Adipose
# Scored in component: MyBox
# X in 1 bin  of 0.75 cm
# Y in 512 bins of 0.0783984 cm
# Z in 128 bins of 0.078125 cm
# EnergyDeposit ( MeV ) : Sum   
0, 0, 0, 15.28099727630615
0, 0, 1, 16.7939510345459
0, 0, 2, 29.03030967712402
0, 0, 3, 25.96429443359375
0, 0, 4, 19.87726020812988
0, 0, 5, 22.29563522338867
0, 0, 6, 25.06855010986328
0, 0, 7, 31.44711685180664
0, 0, 8, 19.39397811889648
0, 0, 9, 25.75461387634277
0, 0, 10, 25.90648460388184
0, 0, 11, 26.88554954528809
0, 0, 12, 32.54352951049805
0, 0, 13, 30.78775024414062
0, 0, 14, 39.93259811401367
0, 0, 15, 47.61872100830078
0, 0, 16, 41.779541015625
0, 0, 17, 45.6905403137207
0, 0, 18, 73.69875335693359
0, 0, 19, 191.3715667724609
0, 0, 20, 702.1347045898438
0, 0, 21, 1191.8427734375
0, 0, 22, 1251.308349609375
0, 0, 23, 1271.747436523438
0, 0, 24, 1282.5849609375
0, 0, 25, 1359.184204101562
0, 0, 26, 1272.901977539062
0, 0, 27, 1280.577880859375
0, 0, 28, 1323.365966796875
0, 0, 29, 1268.05712890625
0, 0, 30, 1266.480590820312
0, 0, 31, 1278.852172851562
0, 0, 32, 1263.089965820312
0, 0, 33, 1242.196166992188
0, 0, 34, 1323.768432617188
0, 0, 35, 1301.046630859375
0, 0, 36, 1243.877685546875
0, 0, 37, 1280.411499023438
0, 0, 38, 1243.769165039062
0, 0, 39, 1244.474487304688
0, 0, 40, 1221.706787109375
0, 0, 41, 1268.287475585938
0, 0, 42, 1256.714965820312
0, 0, 43, 1266.526245117188
0, 0, 44, 1222.408813476562
0, 0, 45, 1288.644775390625
0, 0, 46, 1261.475708007812
0, 0, 47, 1237.92822265625
0, 0, 48, 1279.05029296875
0, 0, 49, 1280.916137695312
0, 0, 50, 1311.837524414062
0, 0, 51, 1261.705322265625
0, 0, 52, 1355.205688476562
0, 0, 53, 1326.11962890625
0, 0, 54, 1294.9619140625
0, 0, 55, 1233.968994140625
0, 0, 56, 1317.464965820312
0, 0, 57, 1288.2041015625
0, 0, 58, 1254.275146484375
0, 0, 59, 1333.435424804688
0, 0, 60, 1329.397338867188
0, 0, 61, 1262.315307617188
0, 0, 62, 1241.656127929688
0, 0, 63, 1275.56591796875
0, 0, 64, 1326.797485351562
0, 0, 65, 1285.70263671875
0, 0, 66, 1314.090576171875
0, 0, 67, 1214.38671875
0, 0, 68, 1315.818481445312
0, 0, 69, 1326.658813476562
0, 0, 70, 1340.537963867188
0, 0, 71, 1284.859497070312
0, 0, 72, 1313.802124023438
0, 0, 73, 1236.830078125
0, 0, 74, 1290.126342773438
0, 0, 75, 1296.494262695312
0, 0, 76, 1254.3134765625
0, 0, 77, 1288.518432617188
0, 0, 78, 1314.0224609375
0, 0, 79, 1330.180908203125
0, 0, 80, 1260.2802734375
0, 0, 81, 1322.916625976562
0, 0, 82, 1293.775268554688
0, 0, 83, 1295.340942382812
0, 0, 84, 1328.812133789062
0, 0, 85, 1237.251831054688
0, 0, 86, 1267.3515625
0, 0, 87, 1250.776611328125
0, 0, 88, 1260.364501953125
0, 0, 89, 1336.025146484375
0, 0, 90, 1275.72021484375
0, 0, 91, 1353.543823242188
0, 0, 92, 1303.317749023438
0, 0, 93, 1270.819213867188
0, 0, 94, 1242.556396484375
0, 0, 95, 1326.385131835938
0, 0, 96, 1282.947631835938
0, 0, 97, 1328.859985351562
0, 0, 98, 1256.653686523438
0, 0, 99, 1251.015747070312
0, 0, 100, 1288.541748046875
0, 0, 101, 1319.231689453125
0, 0, 102, 1236.19287109375
0, 0, 103, 1321.237182617188
0, 0, 104, 1265.138793945312
0, 0, 105, 1266.482177734375
0, 0, 106, 1209.75390625
0, 0, 107, 782.0014038085938
0, 0, 108, 199.4669799804688
0, 0, 109, 74.29673004150391
0, 0, 110, 62.23747634887695
0, 0, 111, 42.20229339599609
0, 0, 112, 36.64859390258789
0, 0, 113, 35.46286773681641
0, 0, 114, 37.41493225097656
0, 0, 115, 32.06368637084961
0, 0, 116, 26.38179016113281
0, 0, 117, 37.59116744995117
0, 0, 118, 26.21867370605469
0, 0, 119, 21.34617614746094
0, 0, 120, 23.01713371276855
0, 0, 121, 26.18188285827637
0, 0, 122, 20.27501106262207
0, 0, 123, 17.96736907958984
0, 0, 124, 20.05292320251465
0, 0, 125, 20.40995788574219
0, 0, 126, 22.06613349914551
0, 0, 127, 25.40129852294922
0, 1, 0, 24.99712944030762
0, 1, 1, 21.11646270751953
0, 1, 2, 26.29619026184082
0, 1, 3, 23.34126281738281
0, 1, 4, 21.27814865112305
0, 1, 5, 21.97293281555176
0, 1, 6, 22.13343811035156
0, 1, 7, 24.65390014648438
0, 1, 8, 36.49463653564453
0, 1, 9, 28.36637115478516
0, 1, 10, 30.81723403930664
0, 1, 11, 40.79179763793945
0, 1, 12, 39.4928092956543
0, 1, 13, 42.4409065246582
0, 1, 14, 39.47801971435547
0, 1, 15, 50.85090255737305
0, 1, 16, 59.41928100585938
0, 1, 17, 66.51729583740234
0, 1, 18, 99.55482482910156
0, 1, 19, 401.9338073730469
0, 1, 20, 1037.320678710938
0, 1, 21, 1368.179565429688
0, 1, 22, 1472.392578125
0, 1, 23, 1466.728271484375
0, 1, 24, 1453.77197265625
0, 1, 25, 1425.724609375
0, 1, 26, 1470.963623046875
0, 1, 27, 1465.023071289062
0, 1, 28, 1488.810180664062
0, 1, 29, 1480.825561523438
0, 1, 30, 1505.3642578125
0, 1, 31, 1484.44091796875
0, 1, 32, 1409.426635742188
0, 1, 33, 1501.658081054688
0, 1, 34, 1503.013549804688
0, 1, 35, 1461.468505859375
0, 1, 36, 1489.65576171875
0, 1, 37, 1409.473999023438
0, 1, 38, 1396.193115234375
0, 1, 39, 1521.612915039062
0, 1, 40, 1461.810668945312
0, 1, 41, 1491.2001953125
0, 1, 42, 1496.67578125
0, 1, 43, 1505.552978515625
0, 1, 44, 1448.461547851562
0, 1, 45, 1482.038818359375
0, 1, 46, 1419.352172851562
0, 1, 47, 1438.556030273438
0, 1, 48, 1430.081787109375
0, 1, 49, 1488.681884765625
0, 1, 50, 1443.124633789062
0, 1, 51, 1469.65185546875
0, 1, 52, 1475.679077148438
0, 1, 53, 1475.663818359375
0, 1, 54, 1505.330810546875
0, 1, 55, 1493.496337890625
0, 1, 56, 1475.691650390625
0, 1, 57, 1460.126831054688
0, 1, 58, 1433.103637695312
0, 1, 59, 1482.20947265625
0, 1, 60, 1463.814331054688
0, 1, 61, 1450.05859375
0, 1, 62, 1453.928955078125
0, 1, 63, 1414.848754882812
0, 1, 64, 1479.06396484375
0, 1, 65, 1415.283569335938
0, 1, 66, 1438.27490234375
0, 1, 67, 1452.277099609375
0, 1, 68, 1385.239624023438
0, 1, 69, 1463.083740234375
0, 1, 70, 1431.666015625
0, 1, 71, 1496.257568359375
0, 1, 72, 1439.115356445312
0, 1, 73, 1492.325317382812
0, 1, 74, 1468.190063476562
0, 1, 75, 1476.518432617188
0, 1, 76, 1460.439697265625
0, 1, 77, 1465.290161132812
0, 1, 78, 1448.474853515625
0, 1, 79, 1497.460083007812
0, 1, 80, 1452.157958984375
0, 1, 81, 1422.2060546875
0, 1, 82, 1474.801025390625
0, 1, 83, 1462.411010742188
0, 1, 84, 1533.870361328125
0, 1, 85, 1445.657592773438
0, 1, 86, 1401.983642578125
0, 1, 87, 1419.4951171875
0, 1, 88, 1476.489013671875
0, 1, 89, 1476.321655273438
0, 1, 90, 1418.62451171875
0, 1, 91, 1464.99365234375
0, 1, 92, 1413.61865234375
0, 1, 93, 1465.904418945312
0, 1, 94, 1470.990478515625
0, 1, 95, 1420.3916015625
0, 1, 96, 1495.517822265625
0, 1, 97, 1512.646850585938
0, 1, 98, 1475.129638671875
0, 1, 99, 1424.197875976562
0, 1, 100, 1449.920288085938
0, 1, 101, 1418.1572265625
0, 1, 102, 1436.083129882812
0, 1, 103, 1412.850341796875
0, 1, 104, 1409.554565429688
0, 1, 105, 1464.5009765625
0, 1, 106, 1364.739135742188
0, 1, 107, 1025.306518554688
0, 1, 108, 405.4248962402344
0, 1, 109, 90.61371612548828
0, 1, 110, 66.55203247070312
0, 1, 111, 59.73388671875
0, 1, 112, 49.66957473754883
0, 1, 113, 39.82041168212891
0, 1, 114, 36.30414962768555
0, 1, 115, 41.4824104309082
0, 1, 116, 37.07105255126953
0, 1, 117, 39.009521484375
0, 1, 118, 35.64038848876953
0, 1, 119, 37.37224578857422
0, 1, 120, 28.80838966369629
0, 1, 121, 23.22720527648926
0, 1, 122, 21.10706901550293
0, 1, 123, 24.75008010864258
0, 1, 124, 31.66580963134766
0, 1, 125, 20.20694160461426
0, 1, 126, 16.96268081665039
0, 1, 127, 23.43853187561035
0, 2, 0, 18.04868316650391
0, 2, 1, 22.47861480712891
0, 2, 2, 22.61355400085449
0, 2, 3, 18.80005645751953
0, 2, 4, 19.81241226196289
0, 2, 5, 19.13022041320801
0, 2, 6, 28.09057998657227
0, 2, 7, 21.46283340454102
0, 2, 8, 24.5541877746582
0, 2, 9, 27.84026527404785
0, 2, 10, 29.26721382141113
0, 2, 11, 33.94121932983398
0, 2, 12, 42.81143569946289
0, 2, 13, 43.84123229980469
0, 2, 14, 45.79693984985352
0, 2, 15, 43.37306976318359
0, 2, 16, 63.33120346069336
0, 2, 17, 75.41963195800781
0, 2, 18, 146.3974456787109
0, 2, 19, 607.698974609375
0, 2, 20, 1280.724243164062
0, 2, 21, 1432.436279296875
0, 2, 22, 1454.186279296875
0, 2, 23, 1404.53857421875
0, 2, 24, 1446.309692382812
0, 2, 25, 1522.546875
0, 2, 26, 1556.626098632812
0, 2, 27, 1458.15283203125
0, 2, 28, 1458.517211914062
0, 2, 29, 1463.429321289062
0, 2, 30, 1464.454711914062
0, 2, 31, 1532.107421875
0, 2, 32, 1504.341064453125
0, 2, 33, 1443.222900390625
0, 2, 34, 1471.751831054688
0, 2, 35, 1472.165405273438
0, 2, 36, 1531.327514648438
0, 2, 37, 1537.527709960938
0, 2, 38, 1504.2529296875
0, 2, 39, 1463.441528320312
0, 2, 40, 1505.045776367188
0, 2, 41, 1521.836303710938
0, 2, 42, 1504.5234375
0, 2, 43, 1550.021728515625
0, 2, 44, 1459.585205078125
0, 2, 45, 1479.210205078125
0, 2, 46, 1427.477416992188
0, 2, 47, 1448.059936523438
0, 2, 48, 1394.657836914062
0, 2, 49, 1462.5283203125
0, 2, 50, 1443.130981445312
0, 2, 51, 1445.838745117188
0, 2, 52, 1498.146606445312
0, 2, 53, 1523.524658203125
0, 2, 54, 1522.65771484375
0, 2, 55, 1490.167236328125
0, 2, 56, 1462.14892578125
0, 2, 57, 1415.900756835938
0, 2, 58, 1449.441772460938
0, 2, 59, 1447.152465820312
0, 2, 60, 1474.249755859375
0, 2, 61, 1444.728759765625
0, 2, 62, 1468.045532226562
0, 2, 63, 1509.38916015625
0, 2, 64, 1459.493041992188
0, 2, 65, 1426.721923828125
0, 2, 66, 1489.1083984375
0, 2, 67, 1509.200439453125
0, 2, 68, 1542.033569335938
0, 2, 69, 1537.230712890625
0, 2, 70, 1508.139526367188
0, 2, 71, 1462.048828125
0, 2, 72, 1516.256591796875
0, 2, 73, 1520.423583984375
0, 2, 74, 1484.641845703125
0, 2, 75, 1509.159057617188
0, 2, 76, 1448.926147460938
0, 2, 77, 1505.881469726562
0, 2, 78, 1427.809814453125
0, 2, 79, 1536.652954101562
0, 2, 80, 1482.264282226562
0, 2, 81, 1462.208740234375
0, 2, 82, 1556.522094726562
0, 2, 83, 1513.027954101562
0, 2, 84, 1495.881469726562
0, 2, 85, 1514.436767578125
0, 2, 86, 1536.888916015625
0, 2, 87, 1486.126098632812
0, 2, 88, 1537.445068359375
0, 2, 89, 1461.4443359375
0, 2, 90, 1430.887939453125
0, 2, 91, 1402.61181640625
0, 2, 92, 1473.487915039062
0, 2, 93, 1493.029418945312
0, 2, 94, 1454.559692382812
0, 2, 95, 1545.4375
0, 2, 96, 1516.154052734375
0, 2, 97, 1456.526245117188
0, 2, 98, 1464.065063476562
0, 2, 99, 1401.689575195312
0, 2, 100, 1474.395751953125
0, 2, 101, 1476.072143554688
0, 2, 102, 1459.91748046875
0, 2, 103, 1392.311767578125
0, 2, 104, 1406.797485351562
0, 2, 105, 1394.56396484375
0, 2, 106, 1459.633178710938
0, 2, 107, 1274.89501953125
0, 2, 108, 617.5672607421875
0, 2, 109, 169.7850189208984
0, 2, 110, 64.33817291259766
0, 2, 111, 59.81006622314453
0, 2, 112, 44.32326126098633
0, 2, 113, 49.23994445800781
0, 2, 114, 40.61706924438477
0, 2, 115, 45.23522567749023
0, 2, 116, 33.11904144287109
0, 2, 117, 30.40494155883789
0, 2, 118, 27.9140453338623
0, 2, 119, 32.54650497436523
0, 2, 120, 29.15616226196289
0, 2, 121, 18.58590698242188
0, 2, 122, 30.96050071716309
0, 2, 123, 26.4257640838623
0, 2, 124, 26.74887466430664
0, 2, 125, 31.57901573181152
0, 2, 126, 17.29970741271973
0, 2, 127, 20.21365547180176
0, 3, 0, 19.82184600830078
0, 3, 1, 21.76605415344238
0, 3, 2, 13.94577026367188
0, 3, 3, 23.58340454101562
0, 3, 4, 19.94328498840332
0, 3, 5, 24.29866027832031
0, 3, 6, 31.44961547851562
0, 3, 7, 25.819580078125
0, 3, 8, 32.03554916381836
0, 3, 9, 30.05947303771973
0, 3, 10, 40.04142379760742
0, 3, 11, 36.05249404907227
0, 3, 12, 45.21532440185547
0, 3, 13, 53.00636291503906
0, 3, 14, 60.23804092407227
0, 3, 15, 58.531494140625
0, 3, 16, 65.75704956054688
0, 3, 17, 96.89687347412109
0, 3, 18, 238.8920593261719
0, 3, 19, 879.630126953125
0, 3, 20, 1388.248901367188
0, 3, 21, 1508.551879882812
0, 3, 22, 1462.51806640625
0, 3, 23, 1448.153198242188
0, 3, 24, 1439.445556640625
0, 3, 25, 1458.981811523438
0, 3, 26, 1495.925415039062
0, 3, 27, 1469.252319335938
0, 3, 28, 1488.724975585938
0, 3, 29, 1541.709228515625
0, 3, 30, 1572.810302734375
0, 3, 31, 1511.93212890625
0, 3, 32, 1551.386962890625
0, 3, 33, 1541.576293945312
0, 3, 34, 1491.138793945312
0, 3, 35, 1464.0419921875
0, 3, 36, 1452.51513671875
0, 3, 37, 1518.580078125
0, 3, 38, 1518.514282226562
0, 3, 39, 1438.322387695312
0, 3, 40, 1440.787841796875
0, 3, 41, 1563.333129882812
0, 3, 42, 1463.732788085938
0, 3, 43, 1454.13330078125
0, 3, 44, 1454.175659179688
0, 3, 45, 1510.619018554688
0, 3, 46, 1509.0712890625
0, 3, 47, 1438.938598632812
0, 3, 48, 1504.1357421875
0, 3, 49, 1452.31396484375
0, 3, 50, 1490.941284179688
0, 3, 51, 1538.870483398438
0, 3, 52, 1534.129150390625
0, 3, 53, 1464.768920898438
0, 3, 54, 1532.237670898438
0, 3, 55, 1500.0908203125
0, 3, 56, 1434.07177734375
0, 3, 57, 1500.229125976562
0, 3, 58, 1515.469970703125
0, 3, 59, 1512.8349609375
0, 3, 60, 1534.693237304688
0, 3, 61, 1478.4990234375
0, 3, 62, 1490.095092773438
0, 3, 63, 1486.21728515625
0, 3, 64, 1497.281005859375
0, 3, 65, 1513.464477539062
0, 3, 66, 1554.20654296875
0, 3, 67, 1547.331909179688
0, 3, 68, 1450.826171875
0, 3, 69, 1466.678344726562
0, 3, 70, 1385.031616210938
0, 3, 71, 1466.5419921875
0, 3, 72, 1543.885498046875
0, 3, 73, 1498.753662109375
0, 3, 74, 1462.782592773438
0, 3, 75, 1458.348388671875
0, 3, 76, 1576.865356445312
0, 3, 77, 1544.463500976562
0, 3, 78, 1428.799682617188
0, 3, 79, 1495.83544921875
0, 3, 80, 1467.479614257812
0, 3, 81, 1476.116088867188
0, 3, 82, 1554.079467773438
0, 3, 83, 1509.819580078125
0, 3, 84, 1560.588134765625
0, 3, 85, 1480.307861328125
0, 3, 86, 1524.895629882812
0, 3, 87, 1535.8359375
0, 3, 88, 1459.6162109375
0, 3, 89, 1449.847290039062
0, 3, 90, 1451.9287109375
0, 3, 91, 1419.333862304688
0, 3, 92, 1511.796997070312
0, 3, 93, 1500.453369140625
0, 3, 94, 1511.606323242188
0, 3, 95, 1546.770629882812
0, 3, 96, 1511.346069335938
0, 3, 97, 1466.775634765625
0, 3, 98, 1437.742309570312
0, 3, 99, 1466.678344726562
0, 3, 100, 1468.383178710938
0, 3, 101, 1478.258666992188
0, 3, 102, 1516.953125
0, 3, 103, 1551.806884765625
0, 3, 104, 1501.5234375
0, 3, 105, 1515.1767578125
0, 3, 106, 1476.066040039062
0, 3, 107, 1340.143188476562
0, 3, 108, 874.2557983398438
0, 3, 109, 263.8456726074219
0, 3, 110, 101.6287689208984
0, 3, 111, 61.26885223388672
0, 3, 112, 55.6705436706543
0, 3, 113, 57.06495666503906
0, 3, 114, 47.49999618530273
0, 3, 115, 51.35700988769531
0, 3, 116, 36.08100509643555
0, 3, 117, 34.86425399780273
0, 3, 118, 35.64820098876953
0, 3, 119, 30.64715576171875
0, 3, 120, 28.53171730041504
0, 3, 121, 22.84080696105957
0, 3, 122, 24.3701171875
0, 3, 123, 20.08618354797363
0, 3, 124, 23.532958984375
0, 3, 125, 24.82453346252441
0, 3, 126, 20.98542785644531
0, 3, 127, 16.00755310058594
0, 4, 0, 19.51282691955566
0, 4, 1, 26.99663734436035
0, 4, 2, 17.12421226501465
0, 4, 3, 16.80662155151367
0, 4, 4, 25.42231559753418
0, 4, 5, 28.94402885437012
0, 4, 6, 28.05047607421875
0, 4, 7, 37.55033111572266
0, 4, 8, 26.95561218261719
0, 4, 9, 39.38072967529297
0, 4, 10, 33.30027008056641
0, 4, 11, 38.76460647583008
0, 4, 12, 46.83684921264648
0, 4, 13, 49.8371467590332
0, 4, 14, 55.02227783203125
0, 4, 15, 58.54300689697266
0, 4, 16, 75.15513610839844
0, 4, 17, 113.3864974975586
0, 4, 18, 440.9171752929688
0, 4, 19, 1178.608032226562
0, 4, 20, 1442.620361328125
0, 4, 21, 1423.23974609375
0, 4, 22, 1432.307861328125
0, 4, 23, 1452.879638671875
0, 4, 24, 1471.364868164062
0, 4, 25, 1406.386108398438
0, 4, 26, 1539.826904296875
0, 4, 27, 1542.168701171875
0, 4, 28, 1507.397583007812
0, 4, 29, 1512.761108398438
0, 4, 30, 1522.587890625
0, 4, 31, 1578.050903320312
0, 4, 32, 1515.836791992188
0, 4, 33, 1490.1181640625
0, 4, 34, 1469.013305664062
0, 4, 35, 1562.60693359375
0, 4, 36, 1504.083374023438
0, 4, 37, 1512.755493164062
0, 4, 38, 1535.986328125
0, 4, 39, 1469.4365234375
0, 4, 40, 1519.218872070312
0, 4, 41, 1579.36669921875
0, 4, 42, 1562.49560546875
0, 4, 43, 1471.260864257812
0, 4, 44, 1499.437622070312
0, 4, 45, 1517.523071289062
0, 4, 46, 1466.524780273438
0, 4, 47, 1502.093505859375
0, 4, 48, 1527.960327148438
0, 4, 49, 1471.007446289062
0, 4, 50, 1520.687133789062
0, 4, 51, 1491.814575195312
0, 4, 52, 1496.82275390625
0, 4, 53, 1456.06787109375
0, 4, 54, 1451.28466796875
0, 4, 55, 1526.418334960938
0, 4, 56, 1454.5107421875
0, 4, 57, 1495.572998046875
0, 4, 58, 1464.22314453125
0, 4, 59, 1466.531494140625
0, 4, 60, 1530.83154296875
0, 4, 61, 1502.490600585938
0, 4, 62, 1507.941162109375
0, 4, 63, 1546.421875
0, 4, 64, 1591.767456054688
0, 4, 65, 1419.924560546875
0, 4, 66, 1511.481079101562
0, 4, 67, 1521.02490234375
0, 4, 68, 1491.244018554688
0, 4, 69, 1477.841552734375
0, 4, 70, 1546.675415039062
0, 4, 71, 1519.38818359375
0, 4, 72, 1534.04052734375
0, 4, 73, 1499.351196289062
0, 4, 74, 1488.209716796875
0, 4, 75, 1536.235717773438
0, 4, 76, 1481.716796875
0, 4, 77, 1503.8291015625
0, 4, 78, 1501.00048828125
0, 4, 79, 1479.987548828125
0, 4, 80, 1510.857788085938
0, 4, 81, 1522.136596679688
0, 4, 82, 1565.735961914062
0, 4, 83, 1505.167114257812
0, 4, 84, 1541.517822265625
0, 4, 85, 1554.752807617188
0, 4, 86, 1527.2470703125
0, 4, 87, 1498.556274414062
0, 4, 88, 1513.953247070312
0, 4, 89, 1488.299438476562
0, 4, 90, 1546.261596679688
0, 4, 91, 1552.161254882812
0, 4, 92, 1490.507934570312
0, 4, 93, 1519.938354492188
0, 4, 94, 1487.413330078125
0, 4, 95, 1511.361938476562
0, 4, 96, 1446.39111328125
0, 4, 97, 1414.555053710938
0, 4, 98, 1554.422241210938
0, 4, 99, 1509.156982421875
0, 4, 100, 1487.773193359375
0, 4, 101, 1449.9228515625
0, 4, 102, 1450.359008789062
0, 4, 103, 1513.892333984375
0, 4, 104, 1510.626342773438
0, 4, 105, 1554.109252929688
0, 4, 106, 1474.877563476562
0, 4, 107, 1452.529663085938
0, 4, 108, 1122.616088867188
0, 4, 109, 432.7963562011719
0, 4, 110, 97.55957794189453
0, 4, 111, 67.93878173828125
0, 4, 112, 59.59860992431641
0, 4, 113, 46.49621963500977
0, 4, 114, 50.24900817871094
0, 4, 115, 42.94913101196289
0, 4, 116, 35.26508712768555
0, 4, 117, 40.553466796875
0, 4, 118, 46.92983245849609
0, 4, 119, 43.7348747253418
0, 4, 120, 37.53776168823242
0, 4, 121, 27.92778205871582
0, 4, 122, 30.5443115234375
0, 4, 123, 28.36105918884277
0, 4, 124, 20.70163726806641
0, 4, 125, 27.29678535461426
0, 4, 126, 20.81224250793457
0, 4, 127, 26.19667053222656
0, 5, 0, 21.14308929443359
0, 5, 1, 23.28404235839844
0, 5, 2, 32.05805206298828
0, 5, 3, 25.6654109954834
0, 5, 4, 16.56764221191406
0, 5, 5, 37.37789535522461
0, 5, 6, 34.58123397827148
0, 5, 7, 32.00601196289062
0, 5, 8, 30.22200393676758
0, 5, 9, 30.11408424377441
0, 5, 10, 32.81089019775391
0, 5, 11, 35.75786972045898
0, 5, 12, 36.76930236816406
0, 5, 13, 45.61770629882812
0, 5, 14, 65.84013366699219
0, 5, 15, 78.5899658203125
0, 5, 16, 83.25589752197266
0, 5, 17, 155.9902648925781
0, 5, 18, 680.1163330078125
0, 5, 19, 1346.732543945312
0, 5, 20, 1522.898315429688
0, 5, 21, 1492.2607421875
0, 5, 22, 1498.354614257812
0, 5, 23, 1529.861083984375
0, 5, 24, 1466.425903320312
0, 5, 25, 1422.157958984375
0, 5, 26, 1526.539184570312
0, 5, 27, 1545.467407226562
0, 5, 28, 1486.756469726562
0, 5, 29, 1520.755004882812
0, 5, 30, 1497.53662109375
0, 5, 31, 1500.039794921875
0, 5, 32, 1594.511840820312
0, 5, 33, 1505.605102539062
0, 5, 34, 1483.59423828125
0, 5, 35, 1508.322265625
0, 5, 36, 1446.591674804688
0, 5, 37, 1532.410278320312
0, 5, 38, 1546.920776367188
0, 5, 39, 1554.2158203125
0, 5, 40, 1500.743286132812
0, 5, 41, 1480.13818359375
0, 5, 42, 1541.756591796875
0, 5, 43, 1539.399658203125
0, 5, 44, 1539.87158203125
0, 5, 45, 1509.066040039062
0, 5, 46, 1491.966064453125
0, 5, 47, 1484.066162109375
0, 5, 48, 1501.373901367188
0, 5, 49, 1522.416748046875
0, 5, 50, 1499.735107421875
0, 5, 51, 1520.896484375
0, 5, 52, 1428.443237304688
0, 5, 53, 1524.038452148438
0, 5, 54, 1519.348022460938
0, 5, 55, 1526.374877929688
0, 5, 56, 1486.569458007812
0, 5, 57, 1540.724975585938
0, 5, 58, 1504.270629882812
0, 5, 59, 1484.959228515625
0, 5, 60, 1543.210083007812
0, 5, 61, 1451.93017578125
0, 5, 62, 1585.294799804688
0, 5, 63, 1435.77783203125
0, 5, 64, 1485.14697265625
0, 5, 65, 1461.142456054688
0, 5, 66, 1528.59814453125
0, 5, 67, 1561.2509765625
0, 5, 68, 1462.578125
0, 5, 69, 1479.392700195312
0, 5, 70, 1487.469604492188
0, 5, 71, 1473.60546875
0, 5, 72, 1540.88427734375
0, 5, 73, 1462.554077148438
0, 5, 74, 1489.83544921875
0, 5, 75, 1486.173950195312
0, 5, 76, 1475.940307617188
0, 5, 77, 1518.88232421875
0, 5, 78, 1529.635375976562
0, 5, 79, 1511.325927734375
0, 5, 80, 1520.38818359375
0, 5, 81, 1596.37939453125
0, 5, 82, 1528.09375
0, 5, 83, 1488.711669921875
0, 5, 84, 1535.868041992188
0, 5, 85, 1509.133178710938
0, 5, 86, 1553.2548828125
0, 5, 87, 1476.193725585938
0, 5, 88, 1499.926513671875
0, 5, 89, 1479.396728515625
0, 5, 90, 1476.401733398438
0, 5, 91, 1552.873779296875
0, 5, 92, 1482.418090820312
0, 5, 93, 1560.969970703125
0, 5, 94, 1511.560913085938
0, 5, 95, 1560.6650390625
0, 5, 96, 1503.018310546875
0, 5, 97, 1510.537841796875
0, 5, 98, 1512.58349609375
0, 5, 99, 1541.5546875
0, 5, 100, 1434.037109375
0, 5, 101, 1427.170532226562
0, 5, 102, 1516.870361328125
0, 5, 103, 1480.447265625
0, 5, 104, 1464.774536132812
0, 5, 105, 1490.7548828125
0, 5, 106, 1457.516967773438
0, 5, 107, 1402.8505859375
0, 5, 108, 1294.22265625
0, 5, 109, 726.4064331054688
0, 5, 110, 198.3294677734375
0, 5, 111, 88.98634338378906
0, 5, 112, 79.6650390625
0, 5, 113, 66.07155609130859
0, 5, 114, 56.14064025878906
0, 5, 115, 56.10696792602539
0, 5, 116, 43.43622589111328
0, 5, 117, 37.50520706176758
0, 5, 118, 42.88711929321289
0, 5, 119, 33.44282150268555
0, 5, 120, 27.77908897399902
0, 5, 121, 26.92194366455078
0, 5, 122, 27.58206748962402
0, 5, 123, 28.41377830505371
0, 5, 124, 28.32132339477539
0, 5, 125, 24.81754875183105
0, 5, 126, 27.16131019592285
0, 5, 127, 27.40382385253906
0, 6, 0, 26.29970169067383
0, 6, 1, 29.89510154724121
0, 6, 2, 26.62739181518555
0, 6, 3, 28.4357852935791
0, 6, 4, 25.03504943847656
0, 6, 5, 37.68158721923828
0, 6, 6, 40.17197036743164
0, 6, 7, 31.28376197814941
0, 6, 8, 34.91873168945312
0, 6, 9, 35.55117797851562
0, 6, 10, 37.75239562988281
0, 6, 11, 38.33393096923828
0, 6, 12, 41.42875671386719
0, 6, 13, 54.03868103027344
0, 6, 14, 62.35385513305664
0, 6, 15, 84.83576965332031
0, 6, 16, 108.23974609375
0, 6, 17, 294.8501281738281
0, 6, 18, 902.8618774414062
0, 6, 19, 1377.721069335938
0, 6, 20, 1439.115966796875
0, 6, 21, 1531.000854492188
0, 6, 22, 1508.0009765625
0, 6, 23, 1526.015258789062
0, 6, 24, 1476.855346679688
0, 6, 25, 1528.605834960938
0, 6, 26, 1516.427001953125
0, 6, 27, 1519.491088867188
0, 6, 28, 1554.4638671875
0, 6, 29, 1574.625
0, 6, 30, 1514.953125
0, 6, 31, 1491.713012695312
0, 6, 32, 1527.460693359375
0, 6, 33, 1491.3740234375
0, 6, 34, 1562.353637695312
0, 6, 35, 1506.261474609375
0, 6, 36, 1439.563598632812
0, 6, 37, 1546.137573242188
0, 6, 38, 1525.1103515625
0, 6, 39, 1525.046020507812
0, 6, 40, 1457.252685546875
0, 6, 41, 1438.900390625
0, 6, 42, 1513.60107421875
0, 6, 43, 1483.694458007812
0, 6, 44, 1430.497436523438
0, 6, 45, 1547.819946289062
0, 6, 46, 1557.672119140625
0, 6, 47, 1491.259033203125
0, 6, 48, 1528.770751953125
0, 6, 49, 1514.93408203125
0, 6, 50, 1578.198608398438
0, 6, 51, 1500.0546875
0, 6, 52, 1567.501220703125
0, 6, 53, 1474.309692382812
0, 6, 54, 1502.33984375
0, 6, 55, 1569.90478515625
0, 6, 56, 1525.947631835938
0, 6, 57, 1507.098754882812
0, 6, 58, 1464.7490234375
0, 6, 59, 1524.153076171875
0, 6, 60, 1471.341186523438
0, 6, 61, 1573.7919921875
0, 6, 62, 1543.618408203125
0, 6, 63, 1497.427490234375
0, 6, 64, 1415.959106445312
0, 6, 65, 1497.052001953125
0, 6, 66, 1504.144165039062
0, 6, 67, 1514.023315429688
0, 6, 68, 1546.885864257812
0, 6, 69, 1488.956420898438
0, 6, 70, 1523.693603515625
0, 6, 71, 1467.195190429688
0, 6, 72, 1589.816284179688
0, 6, 73, 1483.793579101562
0, 6, 74, 1560.75830078125
0, 6, 75, 1537.0576171875
0, 6, 76, 1567.235717773438
0, 6, 77, 1502.681518554688
0, 6, 78, 1442.9189453125
0, 6, 79, 1560.116088867188
0, 6, 80, 1483.294921875
0, 6, 81, 1484.978271484375
0, 6, 82, 1500.569213867188
0, 6, 83, 1523.820556640625
0, 6, 84, 1519.050659179688
0, 6, 85, 1539.655883789062
0, 6, 86, 1541.511596679688
0, 6, 87, 1574.951538085938
0, 6, 88, 1479.06982421875
0, 6, 89, 1561.558227539062
0, 6, 90, 1492.444946289062
0, 6, 91, 1537.517822265625
0, 6, 92, 1484.871459960938
0, 6, 93, 1497.026245117188
0, 6, 94, 1468.576416015625
0, 6, 95, 1512.535034179688
0, 6, 96, 1518.307739257812
0, 6, 97, 1498.761962890625
0, 6, 98, 1496.07275390625
0, 6, 99, 1480.280883789062
0, 6, 100, 1518.752685546875
0, 6, 101, 1516.000732421875
0, 6, 102, 1543.1689453125
0, 6, 103, 1496.303100585938
0, 6, 104, 1462.734619140625
0, 6, 105, 1489.0029296875
0, 6, 106, 1500.838623046875
0, 6, 107, 1502.552490234375
0, 6, 108, 1407.50634765625
0, 6, 109, 922.45654296875
0, 6, 110, 281.1934509277344
0, 6, 111, 92.33296203613281
0, 6, 112, 74.20358276367188
0, 6, 113, 55.39007568359375
0, 6, 114, 56.17495727539062
0, 6, 115, 46.74501800537109
0, 6, 116, 46.18291854858398
0, 6, 117, 37.87570190429688
0, 6, 118, 37.27854156494141
0, 6, 119, 32.20808792114258
0, 6, 120, 34.77223968505859
0, 6, 121, 29.20121383666992
0, 6, 122, 23.58230018615723
0, 6, 123, 26.75674629211426
0, 6, 124, 32.4072265625
0, 6, 125, 29.71725273132324
0, 6, 126, 23.5430793762207
0, 6, 127, 22.5610179901123
0, 7, 0, 19.6419620513916
0, 7, 1, 25.164794921875
0, 7, 2, 20.81765937805176
0, 7, 3, 30.05006980895996
0, 7, 4, 24.38774299621582
0, 7, 5, 39.13088226318359
0, 7, 6, 34.80571365356445
0, 7, 7, 34.42797470092773
0, 7, 8, 29.3083324432373
0, 7, 9, 32.06579971313477
0, 7, 10, 50.15073013305664
0, 7, 11, 45.39560317993164
0, 7, 12, 45.48508453369141
0, 7, 13, 56.63161468505859
0, 7, 14, 60.35989379882812
0, 7, 15, 82.83907318115234
0, 7, 16, 134.3424530029297
0, 7, 17, 461.7705688476562
0, 7, 18, 1099.14990234375
0, 7, 19, 1498.597778320312
0, 7, 20, 1488.624877929688
0, 7, 21, 1369.595458984375
0, 7, 22, 1487.011352539062
0, 7, 23, 1459.95654296875
0, 7, 24, 1509.645874023438
0, 7, 25, 1597.606567382812
0, 7, 26, 1521.420043945312
0, 7, 27, 1509.734985351562
0, 7, 28, 1546.302490234375
0, 7, 29, 1579.249633789062
0, 7, 30, 1551.245971679688
0, 7, 31, 1434.9951171875
0, 7, 32, 1544.89013671875
0, 7, 33, 1489.15673828125
0, 7, 34, 1485.196899414062
0, 7, 35, 1522.055419921875
0, 7, 36, 1470.524047851562
0, 7, 37, 1597.398559570312
0, 7, 38, 1500.028564453125
0, 7, 39, 1489.270385742188
0, 7, 40, 1542.28271484375
0, 7, 41, 1466.283203125
0, 7, 42, 1485.171020507812
0, 7, 43, 1442.977905273438
0, 7, 44, 1492.473999023438
0, 7, 45, 1468.601806640625
0, 7, 46, 1513.309448242188
0, 7, 47, 1567.392822265625
0, 7, 48, 1526.824829101562
0, 7, 49, 1536.717651367188
0, 7, 50, 1514.9560546875
0, 7, 51, 1499.004760742188
0, 7, 52, 1518.97412109375
0, 7, 53, 1489.402465820312
0, 7, 54, 1588.365844726562
0, 7, 55, 1473.23388671875
0, 7, 56, 1551.748046875
0, 7, 57, 1515.76025390625
0, 7, 58, 1546.982543945312
0, 7, 59, 1541.38525390625
0, 7, 60, 1550.561645507812
0, 7, 61, 1489.657836914062
0, 7, 62, 1440.35791015625
0, 7, 63, 1510.068969726562
0, 7, 64, 1546.66357421875
0, 7, 65, 1528.236083984375
0, 7, 66, 1537.64892578125
0, 7, 67, 1580.189331054688
0, 7, 68, 1527.814819335938
0, 7, 69, 1510.544311523438
0, 7, 70, 1492.00927734375
0, 7, 71, 1520.6904296875
0, 7, 72, 1521.367309570312
0, 7, 73, 1520.371826171875
0, 7, 74, 1577.399536132812
0, 7, 75, 1540.41943359375
0, 7, 76, 1559.876586914062
0, 7, 77, 1510.935546875
0, 7, 78, 1514.992309570312
0, 7, 79, 1423.271362304688
0, 7, 80, 1488.646362304688
0, 7, 81, 1495.003051757812
0, 7, 82, 1530.323852539062
0, 7, 83, 1544.348388671875
0, 7, 84, 1584.108276367188
0, 7, 85, 1478.15576171875
0, 7, 86, 1502.434936523438
0, 7, 87, 1508.044189453125
0, 7, 88, 1493.956909179688
0, 7, 89, 1554.563232421875
0, 7, 90, 1527.962036132812
0, 7, 91, 1562.159301757812
0, 7, 92, 1535.574096679688
0, 7, 93, 1554.180053710938
0, 7, 94, 1540.545776367188
0, 7, 95, 1508.196533203125
0, 7, 96, 1510.942993164062
0, 7, 97, 1434.952392578125
0, 7, 98, 1486.826904296875
0, 7, 99, 1525.163696289062
0, 7, 100, 1419.0634765625
0, 7, 101, 1466.654052734375
0, 7, 102, 1452.246215820312
0, 7, 103, 1432.132568359375
0, 7, 104, 1494.588745117188
0, 7, 105, 1523.27001953125
0, 7, 106, 1564.3203125
0, 7, 107, 1475.439208984375
0, 7, 108, 1407.911254882812
0, 7, 109, 1143.510864257812
0, 7, 110, 470.8823852539062
0, 7, 111, 131.7299652099609
0, 7, 112, 76.82773590087891
0, 7, 113, 67.90725708007812
0, 7, 114, 56.23065185546875
0, 7, 115, 45.49337768554688
0, 7, 116, 43.06121826171875
0, 7, 117, 41.93234634399414
0, 7, 118, 40.72869110107422
0, 7, 119, 33.44117736816406
0, 7, 120, 20.83914184570312
0, 7, 121, 33.81395721435547
0, 7, 122, 34.51572418212891
0, 7, 123, 34.66645050048828
0, 7, 124, 32.68546295166016
0, 7, 125, 21.4867992401123
0, 7, 126, 23.33797073364258
0, 7, 127, 20.56280517578125
0, 8, 0, 24.33585739135742
0, 8, 1, 25.25769805908203
0, 8, 2, 26.12661361694336
0, 8, 3, 27.00343132019043
0, 8, 4, 26.56817626953125
0, 8, 5, 35.48905563354492
0, 8, 6, 29.09609413146973
0, 8, 7, 28.4130744934082
0, 8, 8, 37.4288444519043
0, 8, 9, 45.3365478515625
0, 8, 10, 40.78118896484375
0, 8, 11, 45.29990005493164
0, 8, 12, 51.96387100219727
0, 8, 13, 69.61137390136719
0, 8, 14, 72.40791320800781
0, 8, 15, 82.32686614990234
0, 8, 16, 170.9049987792969
0, 8, 17, 673.7605590820312
0, 8, 18, 1276.515380859375
0, 8, 19, 1448.5947265625
0, 8, 20, 1424.36474609375
0, 8, 21, 1409.801025390625
0, 8, 22, 1487.11279296875
0, 8, 23, 1480.280029296875
0, 8, 24, 1436.067626953125
0, 8, 25, 1462.835693359375
0, 8, 26, 1515.297607421875
0, 8, 27, 1524.684692382812
0, 8, 28, 1477.60986328125
0, 8, 29, 1507.903442382812
0, 8, 30, 1486.90673828125
0, 8, 31, 1534.965942382812
0, 8, 32, 1511.100830078125
0, 8, 33, 1478.793334960938
0, 8, 34, 1536.695678710938
0, 8, 35, 1448.3525390625
0, 8, 36, 1502.860473632812
0, 8, 37, 1555.8310546875
0, 8, 38, 1555.577880859375
0, 8, 39, 1491.927734375
0, 8, 40, 1532.96826171875
0, 8, 41, 1481.647583007812
0, 8, 42, 1538.281127929688
0, 8, 43, 1438.345581054688
0, 8, 44, 1538.055541992188
0, 8, 45, 1514.467529296875
0, 8, 46, 1595.457397460938
0, 8, 47, 1587.208984375
0, 8, 48, 1547.699584960938
