# TOPAS Version: 3.1.p3
# Parameter File: batch_inserts_52.txt
# Results for scorer Readout_Adipose
# Scored in component: MyBox
# X in 1 bin  of 0.75 cm
# Y in 512 bins of 0.0783984 cm
# Z in 128 bins of 0.078125 cm
# EnergyDeposit ( MeV ) : Sum   
0, 0, 0, 3.326808214187622
0, 0, 1, 1.644331574440002
0, 0, 2, 4.357922554016113
0, 0, 3, 2.870569705963135
0, 0, 4, 2.730116128921509
0, 0, 5, 3.439555168151855
0, 0, 6, 7.212442398071289
0, 0, 7, 7.659805297851562
0, 0, 8, 3.83862566947937
0, 0, 9, 4.361226558685303
0, 0, 10, 6.368712425231934
0, 0, 11, 6.076450824737549
0, 0, 12, 4.792542457580566
0, 0, 13, 5.124886989593506
0, 0, 14, 6.859251499176025
0, 0, 15, 10.75687408447266
0, 0, 16, 8.920092582702637
0, 0, 17, 9.982959747314453
0, 0, 18, 13.72603321075439
0, 0, 19, 44.63953018188477
0, 0, 20, 139.1303558349609
0, 0, 21, 223.8663635253906
0, 0, 22, 248.7498016357422
0, 0, 23, 256.8567199707031
0, 0, 24, 250.0264282226562
0, 0, 25, 259.082275390625
0, 0, 26, 236.4467315673828
0, 0, 27, 237.2888641357422
0, 0, 28, 272.1784057617188
0, 0, 29, 251.7006072998047
0, 0, 30, 228.85546875
0, 0, 31, 243.4046020507812
0, 0, 32, 263.2434997558594
0, 0, 33, 261.372802734375
0, 0, 34, 287.6282043457031
0, 0, 35, 268.443359375
0, 0, 36, 248.2203369140625
0, 0, 37, 252.5272369384766
0, 0, 38, 269.4580078125
0, 0, 39, 228.5455322265625
0, 0, 40, 242.8576812744141
0, 0, 41, 268.0560913085938
0, 0, 42, 228.2157440185547
0, 0, 43, 258.1882629394531
0, 0, 44, 250.9836883544922
0, 0, 45, 252.3149871826172
0, 0, 46, 244.3668670654297
0, 0, 47, 253.7799377441406
0, 0, 48, 266.563232421875
0, 0, 49, 272.7283630371094
0, 0, 50, 250.0540618896484
0, 0, 51, 254.5249786376953
0, 0, 52, 272.7434997558594
0, 0, 53, 292.2732849121094
0, 0, 54, 242.1825714111328
0, 0, 55, 240.6562194824219
0, 0, 56, 277.3911743164062
0, 0, 57, 262.6802368164062
0, 0, 58, 246.7750396728516
0, 0, 59, 270.9405822753906
0, 0, 60, 236.1448364257812
0, 0, 61, 245.7083587646484
0, 0, 62, 257.8748779296875
0, 0, 63, 269.1361999511719
0, 0, 64, 254.3941650390625
0, 0, 65, 262.4867553710938
0, 0, 66, 276.2476806640625
0, 0, 67, 245.3393402099609
0, 0, 68, 258.8168640136719
0, 0, 69, 263.4521484375
0, 0, 70, 274.5867309570312
0, 0, 71, 237.1119537353516
0, 0, 72, 251.8944396972656
0, 0, 73, 259.1608581542969
0, 0, 74, 250.1314544677734
0, 0, 75, 240.8090209960938
0, 0, 76, 228.8084259033203
0, 0, 77, 263.1569213867188
0, 0, 78, 256.7726745605469
0, 0, 79, 280.7867126464844
0, 0, 80, 215.3285369873047
0, 0, 81, 266.8036499023438
0, 0, 82, 256.0499572753906
0, 0, 83, 246.585205078125
0, 0, 84, 272.1633911132812
0, 0, 85, 232.2669219970703
0, 0, 86, 253.3108520507812
0, 0, 87, 252.3329315185547
0, 0, 88, 259.8653259277344
0, 0, 89, 283.3377380371094
0, 0, 90, 243.7751159667969
0, 0, 91, 282.4831237792969
0, 0, 92, 252.6229858398438
0, 0, 93, 250.2614898681641
0, 0, 94, 247.9398803710938
0, 0, 95, 248.6415863037109
0, 0, 96, 274.8983459472656
0, 0, 97, 271.5097961425781
0, 0, 98, 272.2116088867188
0, 0, 99, 259.6776123046875
0, 0, 100, 257.3804321289062
0, 0, 101, 226.5899658203125
0, 0, 102, 233.7101745605469
0, 0, 103, 269.1527099609375
0, 0, 104, 252.9976806640625
0, 0, 105, 252.1002502441406
0, 0, 106, 246.20556640625
0, 0, 107, 155.3789367675781
0, 0, 108, 38.96246337890625
0, 0, 109, 12.95699787139893
0, 0, 110, 13.11991119384766
0, 0, 111, 9.822235107421875
0, 0, 112, 6.268877983093262
0, 0, 113, 5.030269145965576
0, 0, 114, 5.686522960662842
0, 0, 115, 7.180978298187256
0, 0, 116, 6.033979892730713
0, 0, 117, 7.042325019836426
0, 0, 118, 6.645973682403564
0, 0, 119, 3.080945730209351
0, 0, 120, 5.886232852935791
0, 0, 121, 2.197858095169067
0, 0, 122, 3.567181587219238
0, 0, 123, 4.161787033081055
0, 0, 124, 4.894970893859863
0, 0, 125, 3.8617844581604
0, 0, 126, 5.919181823730469
0, 0, 127, 3.449708223342896
0, 1, 0, 7.196818828582764
0, 1, 1, 3.068807601928711
0, 1, 2, 4.063363075256348
0, 1, 3, 1.152111172676086
0, 1, 4, 3.271463632583618
0, 1, 5, 3.288863182067871
0, 1, 6, 4.71877908706665
0, 1, 7, 6.459967136383057
0, 1, 8, 8.948344230651855
0, 1, 9, 4.327078342437744
0, 1, 10, 7.391162872314453
0, 1, 11, 13.31070327758789
0, 1, 12, 9.239815711975098
0, 1, 13, 9.843725204467773
0, 1, 14, 7.606483459472656
0, 1, 15, 9.105254173278809
0, 1, 16, 11.12065505981445
0, 1, 17, 10.15250587463379
0, 1, 18, 20.0628662109375
0, 1, 19, 66.20327758789062
0, 1, 20, 201.6764068603516
0, 1, 21, 253.7108001708984
0, 1, 22, 294.638916015625
0, 1, 23, 283.0549011230469
0, 1, 24, 274.7509155273438
0, 1, 25, 289.8713073730469
0, 1, 26, 268.1600036621094
0, 1, 27, 307.2587280273438
0, 1, 28, 299.8638916015625
0, 1, 29, 295.9242553710938
0, 1, 30, 284.1631469726562
0, 1, 31, 292.1680908203125
0, 1, 32, 292.0718383789062
0, 1, 33, 295.8551025390625
0, 1, 34, 293.4054260253906
0, 1, 35, 278.2914733886719
0, 1, 36, 309.7978820800781
0, 1, 37, 293.9842834472656
0, 1, 38, 281.1536865234375
0, 1, 39, 297.658203125
0, 1, 40, 266.4218139648438
0, 1, 41, 285.9186096191406
0, 1, 42, 290.1112976074219
0, 1, 43, 334.619384765625
0, 1, 44, 277.23681640625
0, 1, 45, 292.5579528808594
0, 1, 46, 259.6856079101562
0, 1, 47, 310.1078491210938
0, 1, 48, 284.593505859375
0, 1, 49, 302.502685546875
0, 1, 50, 265.1406860351562
0, 1, 51, 272.4585876464844
0, 1, 52, 299.2772521972656
0, 1, 53, 304.0557556152344
0, 1, 54, 275.1145324707031
0, 1, 55, 294.6051635742188
0, 1, 56, 277.6058044433594
0, 1, 57, 299.6748657226562
0, 1, 58, 309.7792053222656
0, 1, 59, 291.9836120605469
0, 1, 60, 298.4935607910156
0, 1, 61, 275.5729675292969
0, 1, 62, 307.5815734863281
0, 1, 63, 288.9688415527344
0, 1, 64, 288.5170288085938
0, 1, 65, 295.3717651367188
0, 1, 66, 292.5534057617188
0, 1, 67, 291.9788818359375
0, 1, 68, 277.7457885742188
0, 1, 69, 279.0320129394531
0, 1, 70, 270.1361083984375
0, 1, 71, 274.4661560058594
0, 1, 72, 285.399169921875
0, 1, 73, 305.6278381347656
0, 1, 74, 303.107177734375
0, 1, 75, 294.8177490234375
0, 1, 76, 284.8656311035156
0, 1, 77, 289.6032104492188
0, 1, 78, 295.6536865234375
0, 1, 79, 300.7043762207031
0, 1, 80, 294.0067138671875
0, 1, 81, 299.9167785644531
0, 1, 82, 281.4457702636719
0, 1, 83, 331.3139343261719
0, 1, 84, 309.1830444335938
0, 1, 85, 254.0594787597656
0, 1, 86, 295.7045288085938
0, 1, 87, 289.2462463378906
0, 1, 88, 298.7735595703125
0, 1, 89, 290.7373046875
0, 1, 90, 270.1826477050781
0, 1, 91, 318.262451171875
0, 1, 92, 289.3112487792969
0, 1, 93, 286.3923034667969
0, 1, 94, 303.3365478515625
0, 1, 95, 283.257080078125
0, 1, 96, 282.5446472167969
0, 1, 97, 299.8323364257812
0, 1, 98, 278.1336669921875
0, 1, 99, 265.43896484375
0, 1, 100, 277.3276672363281
0, 1, 101, 283.3229675292969
0, 1, 102, 277.6544494628906
0, 1, 103, 282.0190124511719
0, 1, 104, 306.2968139648438
0, 1, 105, 297.2951965332031
0, 1, 106, 259.5198364257812
0, 1, 107, 190.3097076416016
0, 1, 108, 80.72812652587891
0, 1, 109, 25.88502502441406
0, 1, 110, 11.8999195098877
0, 1, 111, 8.515812873840332
0, 1, 112, 13.63792896270752
0, 1, 113, 7.921468257904053
0, 1, 114, 5.603148460388184
0, 1, 115, 6.261111736297607
0, 1, 116, 10.98662185668945
0, 1, 117, 5.705237865447998
0, 1, 118, 3.982850074768066
0, 1, 119, 6.03582763671875
0, 1, 120, 5.893227577209473
0, 1, 121, 2.294677972793579
0, 1, 122, 4.109868049621582
0, 1, 123, 4.80930233001709
0, 1, 124, 9.614249229431152
0, 1, 125, 3.837199687957764
0, 1, 126, 2.928557872772217
0, 1, 127, 1.897264242172241
0, 2, 0, 4.99733304977417
0, 2, 1, 1.948801040649414
0, 2, 2, 3.648892164230347
0, 2, 3, 6.50855827331543
0, 2, 4, 2.503620386123657
0, 2, 5, 2.255977153778076
0, 2, 6, 2.481600999832153
0, 2, 7, 6.086967468261719
0, 2, 8, 5.80663537979126
0, 2, 9, 5.173503398895264
0, 2, 10, 6.76646089553833
0, 2, 11, 6.255219459533691
0, 2, 12, 7.033398628234863
0, 2, 13, 10.40648937225342
0, 2, 14, 9.458654403686523
0, 2, 15, 8.326579093933105
0, 2, 16, 8.254012107849121
0, 2, 17, 15.44729137420654
0, 2, 18, 31.27089500427246
0, 2, 19, 117.6818237304688
0, 2, 20, 245.58642578125
0, 2, 21, 270.1515197753906
0, 2, 22, 314.8817138671875
0, 2, 23, 302.840576171875
0, 2, 24, 286.8128356933594
0, 2, 25, 302.9316711425781
0, 2, 26, 292.4584350585938
0, 2, 27, 274.7629699707031
0, 2, 28, 271.3530883789062
0, 2, 29, 275.9321594238281
0, 2, 30, 290.5156555175781
0, 2, 31, 278.7678833007812
0, 2, 32, 294.7856140136719
0, 2, 33, 281.5587768554688
0, 2, 34, 332.29638671875
0, 2, 35, 291.396484375
0, 2, 36, 303.8540954589844
0, 2, 37, 314.2294921875
0, 2, 38, 309.467529296875
0, 2, 39, 267.840576171875
0, 2, 40, 307.0790100097656
0, 2, 41, 290.83154296875
0, 2, 42, 305.2507934570312
0, 2, 43, 315.3549499511719
0, 2, 44, 310.9284057617188
0, 2, 45, 326.7996520996094
0, 2, 46, 292.141845703125
0, 2, 47, 302.2599182128906
0, 2, 48, 284.2675170898438
0, 2, 49, 279.3298034667969
0, 2, 50, 297.2714538574219
0, 2, 51, 283.4616088867188
0, 2, 52, 271.2459106445312
0, 2, 53, 287.8967590332031
0, 2, 54, 280.0160217285156
0, 2, 55, 275.9621887207031
0, 2, 56, 302.6701049804688
0, 2, 57, 292.7740783691406
0, 2, 58, 306.1750793457031
0, 2, 59, 292.385498046875
0, 2, 60, 317.453125
0, 2, 61, 305.5870666503906
0, 2, 62, 313.8917236328125
0, 2, 63, 302.1390686035156
0, 2, 64, 296.3941040039062
0, 2, 65, 312.62060546875
0, 2, 66, 278.3066711425781
0, 2, 67, 291.8368225097656
0, 2, 68, 296.362548828125
0, 2, 69, 311.3933715820312
0, 2, 70, 334.8110656738281
0, 2, 71, 284.2119750976562
0, 2, 72, 304.3004455566406
0, 2, 73, 311.9242553710938
0, 2, 74, 285.4565734863281
0, 2, 75, 305.3770751953125
0, 2, 76, 286.1111450195312
0, 2, 77, 298.6304016113281
0, 2, 78, 313.1187438964844
0, 2, 79, 309.4534912109375
0, 2, 80, 295.5360412597656
0, 2, 81, 282.9698486328125
0, 2, 82, 318.3754577636719
0, 2, 83, 311.7162475585938
0, 2, 84, 287.2117614746094
0, 2, 85, 281.0206604003906
0, 2, 86, 325.14501953125
0, 2, 87, 285.3525695800781
0, 2, 88, 279.5896911621094
0, 2, 89, 293.9137573242188
0, 2, 90, 296.068115234375
0, 2, 91, 280.4378356933594
0, 2, 92, 305.6463623046875
0, 2, 93, 315.7788391113281
0, 2, 94, 291.7249145507812
0, 2, 95, 315.8489990234375
0, 2, 96, 314.6002502441406
0, 2, 97, 292.8085327148438
0, 2, 98, 295.9536743164062
0, 2, 99, 273.5468444824219
0, 2, 100, 305.5237121582031
0, 2, 101, 301.9645385742188
0, 2, 102, 296.3049621582031
0, 2, 103, 294.0465698242188
0, 2, 104, 292.5083618164062
0, 2, 105, 274.0326232910156
0, 2, 106, 299.52001953125
0, 2, 107, 270.2922973632812
0, 2, 108, 116.2639846801758
0, 2, 109, 32.18443298339844
0, 2, 110, 10.19127941131592
0, 2, 111, 10.56622791290283
0, 2, 112, 7.184812068939209
0, 2, 113, 11.06163597106934
0, 2, 114, 8.696794509887695
0, 2, 115, 9.296053886413574
0, 2, 116, 8.607199668884277
0, 2, 117, 5.639894962310791
0, 2, 118, 3.206424236297607
0, 2, 119, 4.92434549331665
0, 2, 120, 7.400658130645752
0, 2, 121, 4.494587898254395
0, 2, 122, 4.504018783569336
0, 2, 123, 5.014528751373291
0, 2, 124, 4.014885425567627
0, 2, 125, 4.790031909942627
0, 2, 126, 4.242942333221436
0, 2, 127, 4.297852993011475
0, 3, 0, 4.065164566040039
0, 3, 1, 2.854872941970825
0, 3, 2, 5.028258323669434
0, 3, 3, 2.514313697814941
0, 3, 4, 4.445051670074463
0, 3, 5, 6.939899921417236
0, 3, 6, 7.495521068572998
0, 3, 7, 5.193938255310059
0, 3, 8, 4.393664360046387
0, 3, 9, 7.60399055480957
0, 3, 10, 5.433890342712402
0, 3, 11, 5.459790229797363
0, 3, 12, 8.589439392089844
0, 3, 13, 14.75093269348145
0, 3, 14, 11.34470272064209
0, 3, 15, 14.18833160400391
0, 3, 16, 11.75857067108154
0, 3, 17, 18.71096611022949
0, 3, 18, 52.37001037597656
0, 3, 19, 176.0641174316406
0, 3, 20, 270.1658020019531
0, 3, 21, 270.7035217285156
0, 3, 22, 281.7572021484375
0, 3, 23, 286.3666687011719
0, 3, 24, 288.0302124023438
0, 3, 25, 269.7952575683594
0, 3, 26, 305.6233825683594
0, 3, 27, 293.6183471679688
0, 3, 28, 280.1572265625
0, 3, 29, 336.6126098632812
0, 3, 30, 316.2626953125
0, 3, 31, 287.0340270996094
0, 3, 32, 306.008056640625
0, 3, 33, 314.585693359375
0, 3, 34, 320.7097778320312
0, 3, 35, 305.2738647460938
0, 3, 36, 270.183349609375
0, 3, 37, 314.0615539550781
0, 3, 38, 304.2015686035156
0, 3, 39, 286.9687805175781
0, 3, 40, 267.3702087402344
0, 3, 41, 297.4647216796875
0, 3, 42, 284.858642578125
0, 3, 43, 307.6548156738281
0, 3, 44, 314.8594055175781
0, 3, 45, 292.0515747070312
0, 3, 46, 328.5590515136719
0, 3, 47, 299.2638549804688
0, 3, 48, 303.6073608398438
0, 3, 49, 274.9117431640625
0, 3, 50, 289.8081665039062
0, 3, 51, 275.9139099121094
0, 3, 52, 315.8045654296875
0, 3, 53, 288.8751220703125
0, 3, 54, 283.5625915527344
0, 3, 55, 282.9585266113281
0, 3, 56, 297.5673522949219
0, 3, 57, 287.2056274414062
0, 3, 58, 306.2013549804688
0, 3, 59, 295.0636596679688
0, 3, 60, 297.28515625
0, 3, 61, 264.6940307617188
0, 3, 62, 284.4978332519531
0, 3, 63, 308.4574890136719
0, 3, 64, 316.5219421386719
0, 3, 65, 305.2604064941406
0, 3, 66, 313.1986083984375
0, 3, 67, 317.2594299316406
0, 3, 68, 280.2232666015625
0, 3, 69, 282.1480712890625
0, 3, 70, 286.8143920898438
0, 3, 71, 301.3726806640625
0, 3, 72, 270.0085144042969
0, 3, 73, 307.7722778320312
0, 3, 74, 292.8502807617188
0, 3, 75, 291.3861389160156
0, 3, 76, 304.7896118164062
0, 3, 77, 314.3486328125
0, 3, 78, 303.1336975097656
0, 3, 79, 281.8770141601562
0, 3, 80, 292.5980529785156
0, 3, 81, 311.6848449707031
0, 3, 82, 316.5846252441406
0, 3, 83, 300.0353393554688
0, 3, 84, 311.0279235839844
0, 3, 85, 294.0238952636719
0, 3, 86, 301.5880126953125
0, 3, 87, 299.1327209472656
0, 3, 88, 299.374267578125
0, 3, 89, 295.3389892578125
0, 3, 90, 275.2815551757812
0, 3, 91, 283.6594543457031
0, 3, 92, 303.4485473632812
0, 3, 93, 313.3514099121094
0, 3, 94, 297.6819458007812
0, 3, 95, 335.6682739257812
0, 3, 96, 291.0136413574219
0, 3, 97, 282.5462646484375
0, 3, 98, 277.9587097167969
0, 3, 99, 261.8621520996094
0, 3, 100, 283.4169616699219
0, 3, 101, 297.2206726074219
0, 3, 102, 275.1380310058594
0, 3, 103, 319.5372619628906
0, 3, 104, 309.1662902832031
0, 3, 105, 287.2484436035156
0, 3, 106, 302.6005249023438
0, 3, 107, 283.5290222167969
0, 3, 108, 167.7177276611328
0, 3, 109, 57.80033874511719
0, 3, 110, 19.57853317260742
0, 3, 111, 13.66842746734619
0, 3, 112, 13.49267959594727
0, 3, 113, 5.691696643829346
0, 3, 114, 10.82631874084473
0, 3, 115, 6.57146167755127
0, 3, 116, 6.995312213897705
0, 3, 117, 6.512231349945068
0, 3, 118, 7.192656993865967
0, 3, 119, 4.069573879241943
0, 3, 120, 4.503929138183594
0, 3, 121, 2.757175922393799
0, 3, 122, 4.932811260223389
0, 3, 123, 4.952126979827881
0, 3, 124, 3.598365306854248
0, 3, 125, 6.34981632232666
0, 3, 126, 4.429527759552002
0, 3, 127, 2.298071622848511
0, 4, 0, 3.25513482093811
0, 4, 1, 6.162665367126465
0, 4, 2, 2.728018522262573
0, 4, 3, 3.61268424987793
0, 4, 4, 8.624078750610352
0, 4, 5, 9.974193572998047
0, 4, 6, 7.088618278503418
0, 4, 7, 4.285674095153809
0, 4, 8, 4.869574546813965
0, 4, 9, 4.792842388153076
0, 4, 10, 8.47252082824707
0, 4, 11, 5.771831035614014
0, 4, 12, 7.441054344177246
0, 4, 13, 8.089299201965332
0, 4, 14, 9.781426429748535
0, 4, 15, 10.68375301361084
0, 4, 16, 14.30867862701416
0, 4, 17, 18.77547073364258
0, 4, 18, 91.55014038085938
0, 4, 19, 221.5763854980469
0, 4, 20, 284.1700439453125
0, 4, 21, 272.41162109375
0, 4, 22, 305.0527038574219
0, 4, 23, 266.2136535644531
0, 4, 24, 288.9747924804688
0, 4, 25, 273.6983947753906
0, 4, 26, 296.4472961425781
0, 4, 27, 282.5107421875
0, 4, 28, 312.5381774902344
0, 4, 29, 321.8587951660156
0, 4, 30, 309.6897277832031
0, 4, 31, 304.7092590332031
0, 4, 32, 280.0309143066406
0, 4, 33, 295.2031555175781
0, 4, 34, 300.3720703125
0, 4, 35, 313.1692504882812
0, 4, 36, 293.7999267578125
0, 4, 37, 291.7350158691406
0, 4, 38, 298.7747497558594
0, 4, 39, 294.4394836425781
0, 4, 40, 301.6996154785156
0, 4, 41, 313.5254516601562
0, 4, 42, 331.3248291015625
0, 4, 43, 296.7832946777344
0, 4, 44, 321.3330383300781
0, 4, 45, 323.4159240722656
0, 4, 46, 307.5773315429688
0, 4, 47, 292.0850524902344
0, 4, 48, 296.7389221191406
0, 4, 49, 276.8280639648438
0, 4, 50, 297.4067077636719
0, 4, 51, 315.2579956054688
0, 4, 52, 328.630615234375
0, 4, 53, 304.3838195800781
0, 4, 54, 287.0628356933594
0, 4, 55, 315.130859375
0, 4, 56, 286.8373413085938
0, 4, 57, 311.0921020507812
0, 4, 58, 296.4835510253906
0, 4, 59, 307.8878784179688
0, 4, 60, 302.6536254882812
0, 4, 61, 314.7904052734375
0, 4, 62, 308.9494018554688
0, 4, 63, 298.1362609863281
0, 4, 64, 330.2035827636719
0, 4, 65, 316.6473083496094
0, 4, 66, 295.7923583984375
0, 4, 67, 285.0105895996094
0, 4, 68, 313.21630859375
0, 4, 69, 275.7152404785156
0, 4, 70, 300.0166931152344
0, 4, 71, 321.3184814453125
0, 4, 72, 334.84619140625
0, 4, 73, 299.3948974609375
0, 4, 74, 292.801513671875
0, 4, 75, 289.1306762695312
0, 4, 76, 273.80078125
0, 4, 77, 279.1366271972656
0, 4, 78, 311.6105346679688
0, 4, 79, 318.0168762207031
0, 4, 80, 314.7366027832031
0, 4, 81, 313.3535461425781
0, 4, 82, 298.7922973632812
0, 4, 83, 301.2617492675781
0, 4, 84, 295.6294555664062
0, 4, 85, 294.5771179199219
0, 4, 86, 297.2669982910156
0, 4, 87, 285.4674377441406
0, 4, 88, 304.6229858398438
0, 4, 89, 294.3013305664062
0, 4, 90, 332.3955383300781
0, 4, 91, 302.3826293945312
0, 4, 92, 289.7272033691406
0, 4, 93, 296.4885559082031
0, 4, 94, 290.7667846679688
0, 4, 95, 289.8231506347656
0, 4, 96, 325.55078125
0, 4, 97, 273.7787475585938
0, 4, 98, 326.7331237792969
0, 4, 99, 314.0525207519531
0, 4, 100, 301.3255310058594
0, 4, 101, 257.3383483886719
0, 4, 102, 297.85888671875
0, 4, 103, 317.5052795410156
0, 4, 104, 282.5031433105469
0, 4, 105, 311.7145385742188
0, 4, 106, 286.5241088867188
0, 4, 107, 295.3299255371094
0, 4, 108, 225.0148468017578
0, 4, 109, 80.00319671630859
0, 4, 110, 17.45359802246094
0, 4, 111, 13.92447185516357
0, 4, 112, 11.06814479827881
0, 4, 113, 12.7324914932251
0, 4, 114, 7.877859592437744
0, 4, 115, 9.579998016357422
0, 4, 116, 10.00886058807373
0, 4, 117, 7.428892612457275
0, 4, 118, 9.883947372436523
0, 4, 119, 9.731979370117188
0, 4, 120, 6.145829677581787
0, 4, 121, 4.894748210906982
0, 4, 122, 5.94792366027832
0, 4, 123, 6.148815155029297
0, 4, 124, 4.198753356933594
0, 4, 125, 9.184854507446289
0, 4, 126, 5.455578804016113
0, 4, 127, 3.005586862564087
0, 5, 0, 4.450698375701904
0, 5, 1, 4.755740165710449
0, 5, 2, 5.220864295959473
0, 5, 3, 3.593084573745728
0, 5, 4, 5.429903507232666
0, 5, 5, 9.226404190063477
0, 5, 6, 8.489564895629883
0, 5, 7, 6.117593288421631
0, 5, 8, 4.009885311126709
0, 5, 9, 5.951603412628174
0, 5, 10, 8.011115074157715
0, 5, 11, 7.283181667327881
0, 5, 12, 7.326337337493896
0, 5, 13, 4.82972526550293
0, 5, 14, 14.92133903503418
0, 5, 15, 16.21485900878906
0, 5, 16, 14.07625961303711
0, 5, 17, 27.78019332885742
0, 5, 18, 135.4320068359375
0, 5, 19, 287.9580993652344
0, 5, 20, 307.97900390625
0, 5, 21, 317.53369140625
0, 5, 22, 274.4164428710938
0, 5, 23, 314.2820434570312
0, 5, 24, 302.5773620605469
0, 5, 25, 289.5461730957031
0, 5, 26, 299.5658569335938
0, 5, 27, 322.7637634277344
0, 5, 28, 302.177734375
0, 5, 29, 299.3533325195312
0, 5, 30, 325.7135620117188
0, 5, 31, 289.0542297363281
0, 5, 32, 301.8127746582031
0, 5, 33, 303.8018188476562
0, 5, 34, 298.7636413574219
0, 5, 35, 311.7622375488281
0, 5, 36, 269.2815246582031
0, 5, 37, 284.6780395507812
0, 5, 38, 292.3212280273438
0, 5, 39, 311.4194641113281
0, 5, 40, 309.0545349121094
0, 5, 41, 276.2386169433594
0, 5, 42, 304.6372985839844
0, 5, 43, 315.2211303710938
0, 5, 44, 292.763427734375
0, 5, 45, 301.1328735351562
0, 5, 46, 264.1671752929688
0, 5, 47, 278.9988403320312
0, 5, 48, 291.7662048339844
0, 5, 49, 285.6869812011719
0, 5, 50, 294.2535400390625
0, 5, 51, 278.0188598632812
0, 5, 52, 267.8396301269531
0, 5, 53, 286.1198120117188
0, 5, 54, 290.6785278320312
0, 5, 55, 346.810546875
0, 5, 56, 307.6595458984375
0, 5, 57, 306.439453125
0, 5, 58, 311.266357421875
0, 5, 59, 304.6638793945312
0, 5, 60, 305.7325744628906
0, 5, 61, 281.1828002929688
0, 5, 62, 323.6317138671875
0, 5, 63, 289.8846130371094
0, 5, 64, 322.9616394042969
0, 5, 65, 305.4999084472656
0, 5, 66, 328.2424926757812
0, 5, 67, 311.8069763183594
0, 5, 68, 310.7633666992188
0, 5, 69, 310.9705810546875
0, 5, 70, 299.8631896972656
0, 5, 71, 272.1688232421875
0, 5, 72, 310.6203308105469
0, 5, 73, 302.7984008789062
0, 5, 74, 295.3299865722656
0, 5, 75, 292.3200988769531
0, 5, 76, 286.1434631347656
0, 5, 77, 298.0074768066406
0, 5, 78, 313.6712036132812
0, 5, 79, 307.9755554199219
0, 5, 80, 294.2651977539062
0, 5, 81, 326.1315002441406
0, 5, 82, 324.8152465820312
0, 5, 83, 282.444091796875
0, 5, 84, 301.573486328125
0, 5, 85, 270.2904968261719
0, 5, 86, 325.4298400878906
0, 5, 87, 284.3106994628906
0, 5, 88, 312.8602600097656
0, 5, 89, 303.3668823242188
0, 5, 90, 315.8924560546875
0, 5, 91, 316.5184020996094
0, 5, 92, 297.4610290527344
0, 5, 93, 325.4954833984375
0, 5, 94, 307.4758605957031
0, 5, 95, 297.3389282226562
0, 5, 96, 301.3565368652344
0, 5, 97, 296.8849182128906
0, 5, 98, 318.3916320800781
0, 5, 99, 302.4239501953125
0, 5, 100, 290.16162109375
0, 5, 101, 305.2322387695312
0, 5, 102, 292.2225036621094
0, 5, 103, 312.8257446289062
0, 5, 104, 301.2686157226562
0, 5, 105, 293.5689697265625
0, 5, 106, 283.5409851074219
0, 5, 107, 293.0398254394531
0, 5, 108, 265.3277893066406
0, 5, 109, 157.1041259765625
0, 5, 110, 39.99026107788086
0, 5, 111, 19.58639526367188
0, 5, 112, 16.12186241149902
0, 5, 113, 14.82384967803955
0, 5, 114, 12.20536994934082
0, 5, 115, 7.586130619049072
0, 5, 116, 7.153743267059326
0, 5, 117, 10.60807704925537
0, 5, 118, 12.29943943023682
0, 5, 119, 3.822973966598511
0, 5, 120, 7.04741382598877
0, 5, 121, 5.253134250640869
0, 5, 122, 4.493561267852783
0, 5, 123, 5.104031085968018
0, 5, 124, 5.744121551513672
0, 5, 125, 3.082472562789917
0, 5, 126, 4.812608242034912
0, 5, 127, 3.127164363861084
0, 6, 0, 4.931251525878906
0, 6, 1, 2.649398326873779
0, 6, 2, 6.908318996429443
0, 6, 3, 6.102622032165527
0, 6, 4, 3.511060237884521
0, 6, 5, 4.612416744232178
0, 6, 6, 6.277726173400879
0, 6, 7, 6.088856220245361
0, 6, 8, 8.280474662780762
0, 6, 9, 5.753437519073486
0, 6, 10, 7.821720123291016
0, 6, 11, 8.703340530395508
0, 6, 12, 8.118685722351074
0, 6, 13, 15.66900730133057
0, 6, 14, 9.91276741027832
0, 6, 15, 16.02737808227539
0, 6, 16, 28.38497734069824
0, 6, 17, 58.58751678466797
0, 6, 18, 172.7397918701172
0, 6, 19, 278.2950744628906
0, 6, 20, 290.4800415039062
0, 6, 21, 313.8829040527344
0, 6, 22, 321.1819763183594
0, 6, 23, 304.8235168457031
0, 6, 24, 317.3380126953125
0, 6, 25, 317.9266052246094
0, 6, 26, 319.982421875
0, 6, 27, 330.9091796875
0, 6, 28, 294.7449035644531
0, 6, 29, 329.1240844726562
0, 6, 30, 283.4869384765625
0, 6, 31, 285.6473999023438
0, 6, 32, 339.5088195800781
0, 6, 33, 299.8077392578125
0, 6, 34, 341.6586303710938
0, 6, 35, 320.0301818847656
0, 6, 36, 275.4098815917969
0, 6, 37, 287.7829284667969
0, 6, 38, 310.3640441894531
0, 6, 39, 298.2452697753906
0, 6, 40, 286.5337829589844
0, 6, 41, 299.7498474121094
0, 6, 42, 305.3519592285156
0, 6, 43, 289.8639526367188
0, 6, 44, 280.4352416992188
0, 6, 45, 318.3501892089844
0, 6, 46, 301.6713562011719
0, 6, 47, 332.4775390625
0, 6, 48, 293.5825500488281
0, 6, 49, 311.3659057617188
0, 6, 50, 327.9087829589844
0, 6, 51, 310.0270690917969
0, 6, 52, 324.0359191894531
0, 6, 53, 329.7592163085938
0, 6, 54, 300.9986877441406
0, 6, 55, 304.9721069335938
0, 6, 56, 292.741455078125
0, 6, 57, 315.7545471191406
0, 6, 58, 261.3142700195312
0, 6, 59, 305.1416625976562
0, 6, 60, 312.7944946289062
0, 6, 61, 269.2658996582031
0, 6, 62, 337.9840393066406
0, 6, 63, 321.9476928710938
0, 6, 64, 289.9774475097656
0, 6, 65, 285.568603515625
0, 6, 66, 302.480712890625
0, 6, 67, 310.1795349121094
0, 6, 68, 297.8269653320312
0, 6, 69, 278.6424560546875
0, 6, 70, 274.7977600097656
0, 6, 71, 288.3289184570312
0, 6, 72, 311.3631896972656
0, 6, 73, 293.1618957519531
0, 6, 74, 330.9727172851562
0, 6, 75, 345.1327209472656
0, 6, 76, 296.3799133300781
0, 6, 77, 286.5747375488281
0, 6, 78, 278.6033935546875
0, 6, 79, 292.4325561523438
0, 6, 80, 304.43359375
0, 6, 81, 316.5576171875
0, 6, 82, 319.7522888183594
0, 6, 83, 319.4729309082031
0, 6, 84, 296.0981750488281
0, 6, 85, 300.6845092773438
0, 6, 86, 329.8311767578125
0, 6, 87, 292.360595703125
0, 6, 88, 307.533203125
0, 6, 89, 304.6618957519531
0, 6, 90, 300.2359008789062
0, 6, 91, 311.8026733398438
0, 6, 92, 282.8958740234375
0, 6, 93, 296.7605895996094
0, 6, 94, 273.0213012695312
0, 6, 95, 298.0295715332031
0, 6, 96, 346.2897644042969
0, 6, 97, 309.4211730957031
0, 6, 98, 301.3454284667969
0, 6, 99, 274.6885986328125
0, 6, 100, 310.5312805175781
0, 6, 101, 293.4306640625
0, 6, 102, 306.5655212402344
0, 6, 103, 307.2350158691406
0, 6, 104, 290.9227294921875
0, 6, 105, 303.1990356445312
0, 6, 106, 306.6071166992188
0, 6, 107, 307.4041442871094
0, 6, 108, 265.0704650878906
0, 6, 109, 189.3391571044922
0, 6, 110, 54.93453598022461
0, 6, 111, 22.23927688598633
0, 6, 112, 13.36042213439941
0, 6, 113, 12.2680606842041
0, 6, 114, 14.24545097351074
0, 6, 115, 12.07884311676025
0, 6, 116, 11.637451171875
0, 6, 117, 10.24785423278809
0, 6, 118, 9.704936981201172
0, 6, 119, 8.830810546875
0, 6, 120, 6.945751190185547
0, 6, 121, 6.759177684783936
0, 6, 122, 7.136133193969727
0, 6, 123, 5.718923091888428
0, 6, 124, 6.854990005493164
0, 6, 125, 6.3465895652771
0, 6, 126, 4.877204895019531
0, 6, 127, 6.72624397277832
0, 7, 0, 8.555994033813477
0, 7, 1, 4.747316360473633
0, 7, 2, 4.503678798675537
0, 7, 3, 4.659407615661621
0, 7, 4, 3.084537506103516
0, 7, 5, 4.738710880279541
0, 7, 6, 7.553757667541504
0, 7, 7, 4.926063060760498
0, 7, 8, 5.783328533172607
0, 7, 9, 7.105598926544189
0, 7, 10, 9.067554473876953
0, 7, 11, 10.76387691497803
0, 7, 12, 9.360880851745605
0, 7, 13, 13.78252506256104
0, 7, 14, 10.62155532836914
0, 7, 15, 15.56352043151855
0, 7, 16, 25.65489959716797
0, 7, 17, 97.19939422607422
0, 7, 18, 218.0372924804688
0, 7, 19, 289.10986328125
0, 7, 20, 297.7320556640625
0, 7, 21, 279.094482421875
0, 7, 22, 299.5705871582031
0, 7, 23, 288.123291015625
0, 7, 24, 313.8837890625
0, 7, 25, 324.2015991210938
0, 7, 26, 279.0874328613281
0, 7, 27, 298.8479919433594
0, 7, 28, 327.9268798828125
0, 7, 29, 318.4368286132812
0, 7, 30, 301.5206909179688
0, 7, 31, 279.0375366210938
0, 7, 32, 303.8407897949219
0, 7, 33, 261.2965393066406
0, 7, 34, 297.0093994140625
0, 7, 35, 318.9387817382812
0, 7, 36, 330.4290466308594
0, 7, 37, 324.2012023925781
0, 7, 38, 296.5887145996094
0, 7, 39, 306.7693786621094
0, 7, 40, 290.1938171386719
0, 7, 41, 270.1392211914062
0, 7, 42, 301.6344909667969
0, 7, 43, 278.5210571289062
0, 7, 44, 302.1988220214844
0, 7, 45, 295.5138854980469
0, 7, 46, 280.3817138671875
0, 7, 47, 327.8470458984375
0, 7, 48, 284.59423828125
0, 7, 49, 302.8849182128906
0, 7, 50, 322.6721496582031
0, 7, 51, 300.0989990234375
0, 7, 52, 325.7523803710938
0, 7, 53, 308.4558715820312
0, 7, 54, 322.0204772949219
0, 7, 55, 307.3326721191406
0, 7, 56, 277.8571166992188
0, 7, 57, 283.3451232910156
0, 7, 58, 295.2116088867188
0, 7, 59, 296.43994140625
0, 7, 60, 325.7305297851562
0, 7, 61, 277.7379760742188
0, 7, 62, 297.6298522949219
0, 7, 63, 291.4175109863281
0, 7, 64, 307.6592407226562
0, 7, 65, 330.7249145507812
0, 7, 66, 321.6573181152344
0, 7, 67, 300.7851867675781
0, 7, 68, 280.1794738769531
0, 7, 69, 294.9730529785156
0, 7, 70, 301.348876953125
0, 7, 71, 308.6116943359375
0, 7, 72, 285.4317016601562
0, 7, 73, 295.1409912109375
0, 7, 74, 344.5810241699219
0, 7, 75, 319.6359252929688
0, 7, 76, 323.2479553222656
0, 7, 77, 283.0292053222656
0, 7, 78, 299.4673461914062
0, 7, 79, 296.9046020507812
0, 7, 80, 310.6854248046875
0, 7, 81, 320.3121948242188
0, 7, 82, 330.6315307617188
0, 7, 83, 315.4224243164062
0, 7, 84, 309.9975280761719
0, 7, 85, 272.0903625488281
0, 7, 86, 309.4911193847656
0, 7, 87, 312.2287902832031
0, 7, 88, 306.7311096191406
0, 7, 89, 294.4327392578125
0, 7, 90, 307.3320922851562
0, 7, 91, 318.6744689941406
0, 7, 92, 287.5670166015625
0, 7, 93, 306.5311584472656
0, 7, 94, 273.9686279296875
0, 7, 95, 298.3526306152344
0, 7, 96, 330.7825927734375
0, 7, 97, 294.4976501464844
0, 7, 98, 290.6636657714844
0, 7, 99, 311.796875
0, 7, 100, 282.1202087402344
0, 7, 101, 274.32275390625
0, 7, 102, 289.1199035644531
0, 7, 103, 294.2859802246094
0, 7, 104, 275.7316589355469
0, 7, 105, 305.5157775878906
0, 7, 106, 318.896240234375
0, 7, 107, 298.1884460449219
0, 7, 108, 272.8553771972656
0, 7, 109, 234.8271636962891
0, 7, 110, 96.77610015869141
0, 7, 111, 23.15120315551758
0, 7, 112, 13.2531213760376
0, 7, 113, 14.70732593536377
0, 7, 114, 12.68356609344482
0, 7, 115, 10.44943714141846
0, 7, 116, 7.861498832702637
0, 7, 117, 8.134796142578125
0, 7, 118, 8.769077301025391
0, 7, 119, 4.892068386077881
0, 7, 120, 5.185073852539062
0, 7, 121, 6.430372714996338
0, 7, 122, 9.458735466003418
0, 7, 123, 6.724104404449463
0, 7, 124, 2.744737863540649
0, 7, 125, 7.21652364730835
0, 7, 126, 8.140110015869141
0, 7, 127, 5.641234874725342
0, 8, 0, 6.424880504608154
0, 8, 1, 2.661706924438477
0, 8, 2, 2.855097055435181
0, 8, 3, 2.193123817443848
0, 8, 4, 3.530810832977295
0, 8, 5, 5.127975940704346
0, 8, 6, 7.317017555236816
0, 8, 7, 6.050296783447266
0, 8, 8, 8.472090721130371
0, 8, 9, 5.182380676269531
0, 8, 10, 7.432224750518799
0, 8, 11, 11.39565849304199
0, 8, 12, 12.83351802825928
0, 8, 13, 12.2440013885498
0, 8, 14, 12.32144165039062
0, 8, 15, 18.80043792724609
0, 8, 16, 32.08837509155273
0, 8, 17, 129.9279022216797
0, 8, 18, 245.6526336669922
0, 8, 19, 293.8552856445312
0, 8, 20, 285.7212524414062
0, 8, 21, 309.8062744140625
0, 8, 22, 297.9216918945312
0, 8, 23, 274.6902465820312
0, 8, 24, 269.1257629394531
0, 8, 25, 276.8378295898438
0, 8, 26, 306.1454162597656
0, 8, 27, 307.0731506347656
0, 8, 28, 303.5777587890625
0, 8, 29, 318.228515625
0, 8, 30, 314.037353515625
0, 8, 31, 302.6828308105469
0, 8, 32, 280.3971862792969
0, 8, 33, 296.9973449707031
0, 8, 34, 292.7383422851562
0, 8, 35, 278.6188049316406
0, 8, 36, 314.5953063964844
0, 8, 37, 340.6976928710938
0, 8, 38, 331.8665466308594
0, 8, 39, 281.2559814453125
0, 8, 40, 303.3310546875
0, 8, 41, 294.8113098144531
