# TOPAS Version: 3.1.p3
# Parameter File: batch_inserts_228.txt
# Results for scorer Readout_Adipose
# Scored in component: MyBox
# X in 1 bin  of 0.75 cm
# Y in 512 bins of 0.0783984 cm
# Z in 128 bins of 0.078125 cm
# EnergyDeposit ( MeV ) : Sum   
0, 0, 0, 20.94271087646484
0, 0, 1, 16.89640998840332
0, 0, 2, 23.04773139953613
0, 0, 3, 23.00098609924316
0, 0, 4, 16.55723190307617
0, 0, 5, 25.54488182067871
0, 0, 6, 24.42575836181641
0, 0, 7, 35.84591674804688
0, 0, 8, 20.03324317932129
0, 0, 9, 22.5435619354248
0, 0, 10, 24.64054870605469
0, 0, 11, 28.43755531311035
0, 0, 12, 34.43640518188477
0, 0, 13, 31.36851501464844
0, 0, 14, 35.13588714599609
0, 0, 15, 44.67230224609375
0, 0, 16, 44.34238052368164
0, 0, 17, 43.5484619140625
0, 0, 18, 73.75749206542969
0, 0, 19, 190.5413818359375
0, 0, 20, 699.169189453125
0, 0, 21, 1191.386962890625
0, 0, 22, 1248.821655273438
0, 0, 23, 1276.891235351562
0, 0, 24, 1281.078369140625
0, 0, 25, 1360.760009765625
0, 0, 26, 1271.754760742188
0, 0, 27, 1277.946533203125
0, 0, 28, 1320.299560546875
0, 0, 29, 1267.710571289062
0, 0, 30, 1260.2060546875
0, 0, 31, 1277.685791015625
0, 0, 32, 1264.031860351562
0, 0, 33, 1243.411987304688
0, 0, 34, 1322.524047851562
0, 0, 35, 1299.75390625
0, 0, 36, 1250.180541992188
0, 0, 37, 1282.390991210938
0, 0, 38, 1246.165893554688
0, 0, 39, 1243.754272460938
0, 0, 40, 1223.020141601562
0, 0, 41, 1268.430053710938
0, 0, 42, 1258.174194335938
0, 0, 43, 1270.339965820312
0, 0, 44, 1226.527221679688
0, 0, 45, 1285.97021484375
0, 0, 46, 1262.662109375
0, 0, 47, 1236.599975585938
0, 0, 48, 1279.592895507812
0, 0, 49, 1286.8447265625
0, 0, 50, 1308.684326171875
0, 0, 51, 1266.0087890625
0, 0, 52, 1358.765258789062
0, 0, 53, 1328.962280273438
0, 0, 54, 1294.320556640625
0, 0, 55, 1231.270874023438
0, 0, 56, 1318.063842773438
0, 0, 57, 1287.187622070312
0, 0, 58, 1259.470336914062
0, 0, 59, 1333.586669921875
0, 0, 60, 1330.533203125
0, 0, 61, 1266.8505859375
0, 0, 62, 1243.380615234375
0, 0, 63, 1282.486328125
0, 0, 64, 1326.990600585938
0, 0, 65, 1284.779907226562
0, 0, 66, 1322.536376953125
0, 0, 67, 1216.269165039062
0, 0, 68, 1313.3515625
0, 0, 69, 1331.018920898438
0, 0, 70, 1343.44677734375
0, 0, 71, 1287.421997070312
0, 0, 72, 1312.340087890625
0, 0, 73, 1237.385131835938
0, 0, 74, 1291.355346679688
0, 0, 75, 1300.177978515625
0, 0, 76, 1256.96337890625
0, 0, 77, 1282.368530273438
0, 0, 78, 1313.782836914062
0, 0, 79, 1326.471557617188
0, 0, 80, 1260.510620117188
0, 0, 81, 1320.617919921875
0, 0, 82, 1283.335327148438
0, 0, 83, 1292.08837890625
0, 0, 84, 1329.492553710938
0, 0, 85, 1233.062255859375
0, 0, 86, 1264.09423828125
0, 0, 87, 1253.406127929688
0, 0, 88, 1252.5654296875
0, 0, 89, 1339.286499023438
0, 0, 90, 1274.926879882812
0, 0, 91, 1358.07568359375
0, 0, 92, 1302.582153320312
0, 0, 93, 1269.368408203125
0, 0, 94, 1243.767578125
0, 0, 95, 1324.709716796875
0, 0, 96, 1283.71044921875
0, 0, 97, 1325.074096679688
0, 0, 98, 1253.241088867188
0, 0, 99, 1250.805419921875
0, 0, 100, 1287.239013671875
0, 0, 101, 1316.289672851562
0, 0, 102, 1232.102661132812
0, 0, 103, 1318.3681640625
0, 0, 104, 1264.000122070312
0, 0, 105, 1266.345947265625
0, 0, 106, 1208.726318359375
0, 0, 107, 779.8837280273438
0, 0, 108, 194.7858734130859
0, 0, 109, 70.84146881103516
0, 0, 110, 59.44343948364258
0, 0, 111, 40.01405334472656
0, 0, 112, 35.14785385131836
0, 0, 113, 30.03051948547363
0, 0, 114, 33.96276092529297
0, 0, 115, 33.74749374389648
0, 0, 116, 27.03728675842285
0, 0, 117, 34.09499740600586
0, 0, 118, 23.51236152648926
0, 0, 119, 20.21697044372559
0, 0, 120, 24.83907508850098
0, 0, 121, 29.49494934082031
0, 0, 122, 24.23314666748047
0, 0, 123, 22.4555492401123
0, 0, 124, 19.17956924438477
0, 0, 125, 17.81813049316406
0, 0, 126, 25.29012298583984
0, 0, 127, 14.87507057189941
0, 1, 0, 21.54289436340332
0, 1, 1, 21.78666496276855
0, 1, 2, 22.30675506591797
0, 1, 3, 19.33292770385742
0, 1, 4, 26.58571624755859
0, 1, 5, 29.93178176879883
0, 1, 6, 25.36767196655273
0, 1, 7, 28.00823402404785
0, 1, 8, 34.53738784790039
0, 1, 9, 29.50964736938477
0, 1, 10, 38.34886169433594
0, 1, 11, 42.16195297241211
0, 1, 12, 40.25586700439453
0, 1, 13, 44.74758911132812
0, 1, 14, 38.48870086669922
0, 1, 15, 43.98042678833008
0, 1, 16, 58.19304275512695
0, 1, 17, 59.05729293823242
0, 1, 18, 99.41010284423828
0, 1, 19, 398.9949035644531
0, 1, 20, 1044.27685546875
0, 1, 21, 1370.154174804688
0, 1, 22, 1480.866455078125
0, 1, 23, 1460.119018554688
0, 1, 24, 1449.370239257812
0, 1, 25, 1423.328002929688
0, 1, 26, 1473.01806640625
0, 1, 27, 1463.91943359375
0, 1, 28, 1490.504516601562
0, 1, 29, 1479.817749023438
0, 1, 30, 1508.811645507812
0, 1, 31, 1489.495849609375
0, 1, 32, 1405.381713867188
0, 1, 33, 1497.934692382812
0, 1, 34, 1499.554565429688
0, 1, 35, 1457.65771484375
0, 1, 36, 1486.297729492188
0, 1, 37, 1406.08740234375
0, 1, 38, 1387.92138671875
0, 1, 39, 1528.835327148438
0, 1, 40, 1463.52197265625
0, 1, 41, 1488.578247070312
0, 1, 42, 1493.959594726562
0, 1, 43, 1500.51220703125
0, 1, 44, 1445.44873046875
0, 1, 45, 1486.759155273438
0, 1, 46, 1422.057495117188
0, 1, 47, 1437.895263671875
0, 1, 48, 1427.824340820312
0, 1, 49, 1486.8818359375
0, 1, 50, 1442.549682617188
0, 1, 51, 1472.012084960938
0, 1, 52, 1474.315551757812
0, 1, 53, 1477.943481445312
0, 1, 54, 1507.072631835938
0, 1, 55, 1495.001953125
0, 1, 56, 1470.950317382812
0, 1, 57, 1455.378662109375
0, 1, 58, 1430.970458984375
0, 1, 59, 1483.4755859375
0, 1, 60, 1464.235229492188
0, 1, 61, 1452.634033203125
0, 1, 62, 1453.097290039062
0, 1, 63, 1411.263061523438
0, 1, 64, 1472.461059570312
0, 1, 65, 1420.581665039062
0, 1, 66, 1435.940307617188
0, 1, 67, 1452.942260742188
0, 1, 68, 1392.2119140625
0, 1, 69, 1461.100830078125
0, 1, 70, 1434.192260742188
0, 1, 71, 1494.836791992188
0, 1, 72, 1435.85009765625
0, 1, 73, 1486.0595703125
0, 1, 74, 1469.369873046875
0, 1, 75, 1474.67626953125
0, 1, 76, 1456.456420898438
0, 1, 77, 1463.416381835938
0, 1, 78, 1448.769287109375
0, 1, 79, 1503.67236328125
0, 1, 80, 1448.818969726562
0, 1, 81, 1420.826293945312
0, 1, 82, 1470.614135742188
0, 1, 83, 1465.494750976562
0, 1, 84, 1534.272338867188
0, 1, 85, 1446.471801757812
0, 1, 86, 1407.768432617188
0, 1, 87, 1420.08447265625
0, 1, 88, 1471.780395507812
0, 1, 89, 1470.1865234375
0, 1, 90, 1421.668212890625
0, 1, 91, 1463.054077148438
0, 1, 92, 1413.957641601562
0, 1, 93, 1458.16015625
0, 1, 94, 1468.857299804688
0, 1, 95, 1425.69189453125
0, 1, 96, 1496.896118164062
0, 1, 97, 1515.674682617188
0, 1, 98, 1478.218139648438
0, 1, 99, 1422.834350585938
0, 1, 100, 1448.492065429688
0, 1, 101, 1411.117919921875
0, 1, 102, 1442.016845703125
0, 1, 103, 1412.301879882812
0, 1, 104, 1406.860107421875
0, 1, 105, 1457.828369140625
0, 1, 106, 1365.10986328125
0, 1, 107, 1018.864013671875
0, 1, 108, 405.0963745117188
0, 1, 109, 93.57109832763672
0, 1, 110, 61.00214767456055
0, 1, 111, 53.61550903320312
0, 1, 112, 49.09561920166016
0, 1, 113, 39.16582870483398
0, 1, 114, 35.51569747924805
0, 1, 115, 36.29331588745117
0, 1, 116, 36.26036834716797
0, 1, 117, 35.28046035766602
0, 1, 118, 35.388427734375
0, 1, 119, 36.11460876464844
0, 1, 120, 30.13016128540039
0, 1, 121, 26.86337852478027
0, 1, 122, 21.15477561950684
0, 1, 123, 23.69160652160645
0, 1, 124, 30.93811416625977
0, 1, 125, 18.39297485351562
0, 1, 126, 17.8885669708252
0, 1, 127, 18.41012001037598
0, 2, 0, 19.76503562927246
0, 2, 1, 27.20971298217773
0, 2, 2, 24.18951225280762
0, 2, 3, 23.22817802429199
0, 2, 4, 25.99249839782715
0, 2, 5, 22.97050476074219
0, 2, 6, 23.55936050415039
0, 2, 7, 20.57983589172363
0, 2, 8, 25.53962326049805
0, 2, 9, 29.19295692443848
0, 2, 10, 33.87221527099609
0, 2, 11, 35.78038024902344
0, 2, 12, 42.19504547119141
0, 2, 13, 45.06709289550781
0, 2, 14, 43.39829635620117
0, 2, 15, 49.97539138793945
0, 2, 16, 66.18979644775391
0, 2, 17, 78.48140716552734
0, 2, 18, 144.3463439941406
0, 2, 19, 604.134765625
0, 2, 20, 1283.536743164062
0, 2, 21, 1435.142333984375
0, 2, 22, 1457.87548828125
0, 2, 23, 1403.062866210938
0, 2, 24, 1440.3349609375
0, 2, 25, 1518.247436523438
0, 2, 26, 1556.233764648438
0, 2, 27, 1456.979125976562
0, 2, 28, 1459.131958007812
0, 2, 29, 1459.703247070312
0, 2, 30, 1462.588500976562
0, 2, 31, 1534.9375
0, 2, 32, 1504.211547851562
0, 2, 33, 1439.77197265625
0, 2, 34, 1472.594482421875
0, 2, 35, 1469.646118164062
0, 2, 36, 1528.022094726562
0, 2, 37, 1541.5869140625
0, 2, 38, 1506.877319335938
0, 2, 39, 1468.073364257812
0, 2, 40, 1502.705444335938
0, 2, 41, 1516.560302734375
0, 2, 42, 1509.101318359375
0, 2, 43, 1549.355834960938
0, 2, 44, 1462.19921875
0, 2, 45, 1488.173706054688
0, 2, 46, 1425.030883789062
0, 2, 47, 1444.827270507812
0, 2, 48, 1399.818481445312
0, 2, 49, 1459.031494140625
0, 2, 50, 1444.639770507812
0, 2, 51, 1444.426635742188
0, 2, 52, 1495.552612304688
0, 2, 53, 1526.06103515625
0, 2, 54, 1523.679321289062
0, 2, 55, 1493.396606445312
0, 2, 56, 1463.154418945312
0, 2, 57, 1413.527099609375
0, 2, 58, 1455.157470703125
0, 2, 59, 1450.493041992188
0, 2, 60, 1468.573364257812
0, 2, 61, 1445.902099609375
0, 2, 62, 1474.7216796875
0, 2, 63, 1511.888305664062
0, 2, 64, 1461.620483398438
0, 2, 65, 1427.093994140625
0, 2, 66, 1492.09130859375
0, 2, 67, 1505.21630859375
0, 2, 68, 1541.894165039062
0, 2, 69, 1537.9560546875
0, 2, 70, 1509.171875
0, 2, 71, 1460.702392578125
0, 2, 72, 1515.126586914062
0, 2, 73, 1523.3291015625
0, 2, 74, 1494.497436523438
0, 2, 75, 1503.874145507812
0, 2, 76, 1448.025756835938
0, 2, 77, 1503.603881835938
0, 2, 78, 1436.278686523438
0, 2, 79, 1540.607666015625
0, 2, 80, 1477.714965820312
0, 2, 81, 1463.089721679688
0, 2, 82, 1557.467163085938
0, 2, 83, 1512.998168945312
0, 2, 84, 1496.255249023438
0, 2, 85, 1511.268676757812
0, 2, 86, 1543.282592773438
0, 2, 87, 1487.949829101562
0, 2, 88, 1540.922973632812
0, 2, 89, 1466.923950195312
0, 2, 90, 1432.201293945312
0, 2, 91, 1404.17529296875
0, 2, 92, 1478.560791015625
0, 2, 93, 1496.259521484375
0, 2, 94, 1453.61572265625
0, 2, 95, 1542.272094726562
0, 2, 96, 1516.10986328125
0, 2, 97, 1453.007202148438
0, 2, 98, 1463.416381835938
0, 2, 99, 1399.720703125
0, 2, 100, 1472.784057617188
0, 2, 101, 1478.673828125
0, 2, 102, 1458.111572265625
0, 2, 103, 1387.157592773438
0, 2, 104, 1406.338623046875
0, 2, 105, 1397.269897460938
0, 2, 106, 1455.840087890625
0, 2, 107, 1278.909423828125
0, 2, 108, 620.6700439453125
0, 2, 109, 168.9895172119141
0, 2, 110, 72.00717926025391
0, 2, 111, 67.70177459716797
0, 2, 112, 47.84297943115234
0, 2, 113, 47.79619598388672
0, 2, 114, 34.08451843261719
0, 2, 115, 40.84980773925781
0, 2, 116, 32.96977233886719
0, 2, 117, 36.91923522949219
0, 2, 118, 33.62117385864258
0, 2, 119, 30.56357002258301
0, 2, 120, 30.97169876098633
0, 2, 121, 18.30436325073242
0, 2, 122, 28.01469421386719
0, 2, 123, 21.82143974304199
0, 2, 124, 21.07680130004883
0, 2, 125, 29.84302139282227
0, 2, 126, 19.57514572143555
0, 2, 127, 24.20671844482422
0, 3, 0, 17.01393890380859
0, 3, 1, 21.19836044311523
0, 3, 2, 27.57198905944824
0, 3, 3, 23.64319229125977
0, 3, 4, 19.66617393493652
0, 3, 5, 30.33471298217773
0, 3, 6, 29.86465835571289
0, 3, 7, 29.97376251220703
0, 3, 8, 30.64940071105957
0, 3, 9, 27.74474334716797
0, 3, 10, 35.4959831237793
0, 3, 11, 37.35617065429688
0, 3, 12, 44.21900177001953
0, 3, 13, 52.08661651611328
0, 3, 14, 58.93639755249023
0, 3, 15, 55.19049835205078
0, 3, 16, 67.76032257080078
0, 3, 17, 88.65080261230469
0, 3, 18, 236.3227233886719
0, 3, 19, 874.3525390625
0, 3, 20, 1384.79833984375
0, 3, 21, 1508.820922851562
0, 3, 22, 1460.156494140625
0, 3, 23, 1448.349853515625
0, 3, 24, 1440.691284179688
0, 3, 25, 1463.457763671875
0, 3, 26, 1496.14111328125
0, 3, 27, 1464.982788085938
0, 3, 28, 1491.133544921875
0, 3, 29, 1549.57275390625
0, 3, 30, 1572.5888671875
0, 3, 31, 1507.369262695312
0, 3, 32, 1545.17919921875
0, 3, 33, 1546.3095703125
0, 3, 34, 1490.321166992188
0, 3, 35, 1461.034057617188
0, 3, 36, 1455.283325195312
0, 3, 37, 1512.992431640625
0, 3, 38, 1522.024536132812
0, 3, 39, 1442.723022460938
0, 3, 40, 1445.563232421875
0, 3, 41, 1567.688842773438
0, 3, 42, 1459.664794921875
0, 3, 43, 1456.122436523438
0, 3, 44, 1449.615478515625
0, 3, 45, 1510.18017578125
0, 3, 46, 1506.170776367188
0, 3, 47, 1441.388305664062
0, 3, 48, 1510.034912109375
0, 3, 49, 1450.223388671875
0, 3, 50, 1491.723388671875
0, 3, 51, 1538.906127929688
0, 3, 52, 1538.760375976562
0, 3, 53, 1463.47900390625
0, 3, 54, 1540.153076171875
0, 3, 55, 1503.31396484375
0, 3, 56, 1435.795043945312
0, 3, 57, 1503.961791992188
0, 3, 58, 1512.581909179688
0, 3, 59, 1506.2958984375
0, 3, 60, 1530.842529296875
0, 3, 61, 1485.378540039062
0, 3, 62, 1490.001708984375
0, 3, 63, 1490.37841796875
0, 3, 64, 1504.51416015625
0, 3, 65, 1512.830688476562
0, 3, 66, 1554.605224609375
0, 3, 67, 1544.0908203125
0, 3, 68, 1448.432006835938
0, 3, 69, 1466.748046875
0, 3, 70, 1385.938354492188
0, 3, 71, 1464.513916015625
0, 3, 72, 1545.500610351562
0, 3, 73, 1503.567993164062
0, 3, 74, 1469.67138671875
0, 3, 75, 1462.466674804688
0, 3, 76, 1572.589477539062
0, 3, 77, 1544.619873046875
0, 3, 78, 1427.0458984375
0, 3, 79, 1493.900146484375
0, 3, 80, 1467.734985351562
0, 3, 81, 1473.966430664062
0, 3, 82, 1557.095092773438
0, 3, 83, 1512.05126953125
0, 3, 84, 1563.449096679688
0, 3, 85, 1476.064697265625
0, 3, 86, 1523.205322265625
0, 3, 87, 1537.962036132812
0, 3, 88, 1461.794555664062
0, 3, 89, 1453.826171875
0, 3, 90, 1450.929443359375
0, 3, 91, 1417.578247070312
0, 3, 92, 1514.2451171875
0, 3, 93, 1500.98779296875
0, 3, 94, 1514.331665039062
0, 3, 95, 1542.704223632812
0, 3, 96, 1513.484741210938
0, 3, 97, 1465.35205078125
0, 3, 98, 1436.31884765625
0, 3, 99, 1465.616943359375
0, 3, 100, 1467.66748046875
0, 3, 101, 1475.181640625
0, 3, 102, 1520.252685546875
0, 3, 103, 1556.673095703125
0, 3, 104, 1499.277587890625
0, 3, 105, 1515.873291015625
0, 3, 106, 1481.142822265625
0, 3, 107, 1344.893188476562
0, 3, 108, 870.0419921875
0, 3, 109, 264.4190979003906
0, 3, 110, 104.8569412231445
0, 3, 111, 64.77340698242188
0, 3, 112, 60.07107925415039
0, 3, 113, 55.05778884887695
0, 3, 114, 50.22696685791016
0, 3, 115, 51.19355773925781
0, 3, 116, 37.32417297363281
0, 3, 117, 37.38557434082031
0, 3, 118, 34.22137832641602
0, 3, 119, 30.51313972473145
0, 3, 120, 34.907470703125
0, 3, 121, 20.5484733581543
0, 3, 122, 22.99802780151367
0, 3, 123, 22.20269584655762
0, 3, 124, 23.63403511047363
0, 3, 125, 28.92889976501465
0, 3, 126, 20.51210594177246
0, 3, 127, 15.98083686828613
0, 4, 0, 20.02739143371582
0, 4, 1, 23.89346885681152
0, 4, 2, 20.40707015991211
0, 4, 3, 22.99410057067871
0, 4, 4, 25.35570526123047
0, 4, 5, 31.7055778503418
0, 4, 6, 29.51869773864746
0, 4, 7, 30.60178375244141
0, 4, 8, 23.9495677947998
0, 4, 9, 37.86936187744141
0, 4, 10, 34.20204925537109
0, 4, 11, 40.02077484130859
0, 4, 12, 41.73087310791016
0, 4, 13, 51.94824981689453
0, 4, 14, 46.34294128417969
0, 4, 15, 63.13677597045898
0, 4, 16, 72.41374969482422
0, 4, 17, 115.9395065307617
0, 4, 18, 442.2502136230469
0, 4, 19, 1184.4189453125
0, 4, 20, 1446.604614257812
0, 4, 21, 1420.995849609375
0, 4, 22, 1430.888061523438
0, 4, 23, 1449.942504882812
0, 4, 24, 1473.79638671875
0, 4, 25, 1408.171752929688
0, 4, 26, 1536.986694335938
0, 4, 27, 1548.208862304688
0, 4, 28, 1510.783813476562
0, 4, 29, 1516.359497070312
0, 4, 30, 1527.132690429688
0, 4, 31, 1576.0498046875
0, 4, 32, 1515.589233398438
0, 4, 33, 1495.61376953125
0, 4, 34, 1471.681518554688
0, 4, 35, 1556.469116210938
0, 4, 36, 1504.631103515625
0, 4, 37, 1512.645385742188
0, 4, 38, 1529.119018554688
0, 4, 39, 1466.2509765625
0, 4, 40, 1513.461669921875
0, 4, 41, 1589.525024414062
0, 4, 42, 1567.110473632812
0, 4, 43, 1480.502075195312
0, 4, 44, 1497.32080078125
0, 4, 45, 1520.33984375
0, 4, 46, 1470.85205078125
0, 4, 47, 1502.951416015625
0, 4, 48, 1527.827880859375
0, 4, 49, 1480.924438476562
0, 4, 50, 1517.457763671875
0, 4, 51, 1492.255615234375
0, 4, 52, 1492.571899414062
0, 4, 53, 1456.890258789062
0, 4, 54, 1441.858154296875
0, 4, 55, 1526.643432617188
0, 4, 56, 1455.66552734375
0, 4, 57, 1493.817504882812
0, 4, 58, 1462.451171875
0, 4, 59, 1467.9970703125
0, 4, 60, 1524.656982421875
0, 4, 61, 1499.9052734375
0, 4, 62, 1503.120727539062
0, 4, 63, 1542.569580078125
0, 4, 64, 1594.174560546875
0, 4, 65, 1422.831420898438
0, 4, 66, 1510.470092773438
0, 4, 67, 1524.4462890625
0, 4, 68, 1497.04736328125
0, 4, 69, 1471.086669921875
0, 4, 70, 1550.394409179688
0, 4, 71, 1517.104614257812
0, 4, 72, 1525.736206054688
0, 4, 73, 1493.184326171875
0, 4, 74, 1486.90234375
0, 4, 75, 1536.66796875
0, 4, 76, 1481.210327148438
0, 4, 77, 1501.339721679688
0, 4, 78, 1504.508178710938
0, 4, 79, 1484.5498046875
0, 4, 80, 1516.02294921875
0, 4, 81, 1529.662353515625
0, 4, 82, 1570.419189453125
0, 4, 83, 1503.313720703125
0, 4, 84, 1535.237915039062
0, 4, 85, 1553.85693359375
0, 4, 86, 1527.550048828125
0, 4, 87, 1501.295166015625
0, 4, 88, 1512.993896484375
0, 4, 89, 1478.986083984375
0, 4, 90, 1542.479614257812
0, 4, 91, 1551.656616210938
0, 4, 92, 1489.359619140625
0, 4, 93, 1518.097045898438
0, 4, 94, 1486.584106445312
0, 4, 95, 1511.744506835938
0, 4, 96, 1446.817626953125
0, 4, 97, 1408.2939453125
0, 4, 98, 1555.374633789062
0, 4, 99, 1507.849365234375
0, 4, 100, 1488.53662109375
0, 4, 101, 1446.721313476562
0, 4, 102, 1448.93896484375
0, 4, 103, 1511.500610351562
0, 4, 104, 1511.131591796875
0, 4, 105, 1558.519165039062
0, 4, 106, 1478.27392578125
0, 4, 107, 1458.612548828125
0, 4, 108, 1123.344970703125
0, 4, 109, 440.1306762695312
0, 4, 110, 97.55735015869141
0, 4, 111, 71.27201843261719
0, 4, 112, 56.79254913330078
0, 4, 113, 56.8255500793457
0, 4, 114, 53.8525505065918
0, 4, 115, 42.89674758911133
0, 4, 116, 35.62979888916016
0, 4, 117, 38.03324508666992
0, 4, 118, 46.64069747924805
0, 4, 119, 37.82660675048828
0, 4, 120, 34.35226821899414
0, 4, 121, 27.75386238098145
0, 4, 122, 30.8453483581543
0, 4, 123, 30.68701362609863
0, 4, 124, 24.38668632507324
0, 4, 125, 34.00461578369141
0, 4, 126, 24.9617919921875
0, 4, 127, 18.84653472900391
0, 5, 0, 24.78175163269043
0, 5, 1, 27.4887580871582
0, 5, 2, 32.34270095825195
0, 5, 3, 25.82749176025391
0, 5, 4, 19.10686874389648
0, 5, 5, 31.3279914855957
0, 5, 6, 28.50480079650879
0, 5, 7, 29.52030181884766
0, 5, 8, 32.16958236694336
0, 5, 9, 36.15756225585938
0, 5, 10, 31.42784881591797
0, 5, 11, 36.74671936035156
0, 5, 12, 38.90560913085938
0, 5, 13, 46.19613265991211
0, 5, 14, 64.63809204101562
0, 5, 15, 77.01799011230469
0, 5, 16, 78.80677795410156
0, 5, 17, 159.5284423828125
0, 5, 18, 678.7998046875
0, 5, 19, 1351.650268554688
0, 5, 20, 1526.52294921875
0, 5, 21, 1492.485717773438
0, 5, 22, 1495.431030273438
0, 5, 23, 1533.423706054688
0, 5, 24, 1465.595092773438
0, 5, 25, 1427.262084960938
0, 5, 26, 1529.239013671875
0, 5, 27, 1541.818725585938
0, 5, 28, 1485.073364257812
0, 5, 29, 1523.46826171875
0, 5, 30, 1494.204223632812
0, 5, 31, 1499.50537109375
0, 5, 32, 1597.104370117188
0, 5, 33, 1504.070556640625
0, 5, 34, 1483.763916015625
0, 5, 35, 1513.628540039062
0, 5, 36, 1440.118286132812
0, 5, 37, 1530.201538085938
0, 5, 38, 1544.40576171875
0, 5, 39, 1549.762939453125
0, 5, 40, 1498.72216796875
0, 5, 41, 1478.421997070312
0, 5, 42, 1543.768310546875
0, 5, 43, 1528.445434570312
0, 5, 44, 1538.85595703125
0, 5, 45, 1507.582275390625
0, 5, 46, 1486.111083984375
0, 5, 47, 1484.934814453125
0, 5, 48, 1501.743408203125
0, 5, 49, 1524.163940429688
0, 5, 50, 1507.090454101562
0, 5, 51, 1517.94775390625
0, 5, 52, 1428.237548828125
0, 5, 53, 1524.376708984375
0, 5, 54, 1519.093872070312
0, 5, 55, 1524.23388671875
0, 5, 56, 1481.48095703125
0, 5, 57, 1545.07470703125
0, 5, 58, 1509.216064453125
0, 5, 59, 1485.6806640625
0, 5, 60, 1534.181396484375
0, 5, 61, 1452.842407226562
0, 5, 62, 1587.086181640625
0, 5, 63, 1434.239624023438
0, 5, 64, 1493.804077148438
0, 5, 65, 1468.063720703125
0, 5, 66, 1532.519897460938
0, 5, 67, 1556.956665039062
0, 5, 68, 1465.687622070312
0, 5, 69, 1482.25927734375
0, 5, 70, 1491.891235351562
0, 5, 71, 1468.0654296875
0, 5, 72, 1537.227661132812
0, 5, 73, 1461.59814453125
0, 5, 74, 1495.567749023438
0, 5, 75, 1490.807861328125
0, 5, 76, 1475.490478515625
0, 5, 77, 1522.826049804688
0, 5, 78, 1525.570068359375
0, 5, 79, 1507.40673828125
0, 5, 80, 1521.644775390625
0, 5, 81, 1592.335205078125
0, 5, 82, 1526.677978515625
0, 5, 83, 1490.299682617188
0, 5, 84, 1534.1611328125
0, 5, 85, 1512.940185546875
0, 5, 86, 1554.557495117188
0, 5, 87, 1472.018432617188
0, 5, 88, 1497.016235351562
0, 5, 89, 1482.7080078125
0, 5, 90, 1483.20263671875
0, 5, 91, 1554.535888671875
0, 5, 92, 1482.350708007812
0, 5, 93, 1553.95751953125
0, 5, 94, 1507.335815429688
0, 5, 95, 1562.1337890625
0, 5, 96, 1500.319580078125
0, 5, 97, 1510.431030273438
0, 5, 98, 1505.716430664062
0, 5, 99, 1538.521484375
0, 5, 100, 1433.148681640625
0, 5, 101, 1429.472534179688
0, 5, 102, 1512.949462890625
0, 5, 103, 1476.370727539062
0, 5, 104, 1464.714965820312
0, 5, 105, 1492.3818359375
0, 5, 106, 1458.74072265625
0, 5, 107, 1398.315673828125
0, 5, 108, 1287.454711914062
0, 5, 109, 721.6788330078125
0, 5, 110, 193.487548828125
0, 5, 111, 90.47699737548828
0, 5, 112, 86.50347137451172
0, 5, 113, 67.13987731933594
0, 5, 114, 59.37230682373047
0, 5, 115, 54.35646057128906
0, 5, 116, 42.74198532104492
0, 5, 117, 37.05994415283203
0, 5, 118, 41.47117614746094
0, 5, 119, 32.28194046020508
0, 5, 120, 30.16831207275391
0, 5, 121, 27.43025588989258
0, 5, 122, 33.97429275512695
0, 5, 123, 24.72292518615723
0, 5, 124, 27.00334739685059
0, 5, 125, 20.73331069946289
0, 5, 126, 23.79057502746582
0, 5, 127, 21.39257621765137
0, 6, 0, 19.3681755065918
0, 6, 1, 26.85505485534668
0, 6, 2, 29.92195320129395
0, 6, 3, 29.75103378295898
0, 6, 4, 21.90502738952637
0, 6, 5, 31.49382972717285
0, 6, 6, 38.29104995727539
0, 6, 7, 29.41525268554688
0, 6, 8, 38.66340255737305
0, 6, 9, 34.70117568969727
0, 6, 10, 35.07129669189453
0, 6, 11, 34.24458694458008
0, 6, 12, 38.62935256958008
0, 6, 13, 60.60192108154297
0, 6, 14, 68.79338073730469
0, 6, 15, 84.79737854003906
0, 6, 16, 110.429313659668
0, 6, 17, 300.4991760253906
0, 6, 18, 901.0984497070312
0, 6, 19, 1376.167114257812
0, 6, 20, 1439.953247070312
0, 6, 21, 1524.789306640625
0, 6, 22, 1503.217895507812
0, 6, 23, 1530.915893554688
0, 6, 24, 1478.59912109375
0, 6, 25, 1528.608764648438
0, 6, 26, 1522.347290039062
0, 6, 27, 1522.917602539062
0, 6, 28, 1557.418823242188
0, 6, 29, 1575.12109375
0, 6, 30, 1516.849243164062
0, 6, 31, 1492.081787109375
0, 6, 32, 1526.810546875
0, 6, 33, 1491.5458984375
0, 6, 34, 1566.054809570312
0, 6, 35, 1500.213623046875
0, 6, 36, 1436.760131835938
0, 6, 37, 1547.782836914062
0, 6, 38, 1522.101684570312
0, 6, 39, 1522.951538085938
0, 6, 40, 1457.24951171875
0, 6, 41, 1440.013793945312
0, 6, 42, 1520.384399414062
0, 6, 43, 1487.80126953125
0, 6, 44, 1433.472412109375
0, 6, 45, 1545.102661132812
0, 6, 46, 1555.790161132812
0, 6, 47, 1494.42822265625
0, 6, 48, 1523.960693359375
0, 6, 49, 1507.592041015625
0, 6, 50, 1575.335571289062
0, 6, 51, 1497.099365234375
0, 6, 52, 1564.660766601562
0, 6, 53, 1469.942504882812
0, 6, 54, 1498.030639648438
0, 6, 55, 1571.64794921875
0, 6, 56, 1520.319946289062
0, 6, 57, 1504.166870117188
0, 6, 58, 1465.921508789062
0, 6, 59, 1519.815551757812
0, 6, 60, 1469.4873046875
0, 6, 61, 1571.109130859375
0, 6, 62, 1543.845336914062
0, 6, 63, 1494.129272460938
0, 6, 64, 1410.206909179688
0, 6, 65, 1495.91162109375
0, 6, 66, 1511.69921875
0, 6, 67, 1507.922607421875
0, 6, 68, 1544.816040039062
0, 6, 69, 1485.3515625
0, 6, 70, 1523.183227539062
0, 6, 71, 1467.190063476562
0, 6, 72, 1599.865356445312
0, 6, 73, 1488.931884765625
0, 6, 74, 1553.955688476562
0, 6, 75, 1535.864990234375
0, 6, 76, 1569.750122070312
0, 6, 77, 1507.330688476562
0, 6, 78, 1446.390380859375
0, 6, 79, 1558.24169921875
0, 6, 80, 1482.983276367188
0, 6, 81, 1486.420532226562
0, 6, 82, 1503.978881835938
0, 6, 83, 1531.64990234375
0, 6, 84, 1522.685913085938
0, 6, 85, 1536.002563476562
0, 6, 86, 1546.212768554688
0, 6, 87, 1571.10693359375
0, 6, 88, 1476.505493164062
0, 6, 89, 1559.022583007812
0, 6, 90, 1488.6162109375
0, 6, 91, 1540.69189453125
0, 6, 92, 1488.210693359375
0, 6, 93, 1495.8955078125
0, 6, 94, 1473.24169921875
0, 6, 95, 1513.433227539062
0, 6, 96, 1527.685668945312
0, 6, 97, 1506.459228515625
0, 6, 98, 1493.141845703125
0, 6, 99, 1481.55029296875
0, 6, 100, 1522.884033203125
0, 6, 101, 1517.455688476562
0, 6, 102, 1537.634155273438
0, 6, 103, 1501.290283203125
0, 6, 104, 1461.460205078125
0, 6, 105, 1484.340087890625
0, 6, 106, 1498.217895507812
0, 6, 107, 1505.607421875
0, 6, 108, 1408.8818359375
0, 6, 109, 926.7692260742188
0, 6, 110, 283.7191162109375
0, 6, 111, 96.00958251953125
0, 6, 112, 72.08979797363281
0, 6, 113, 58.24422836303711
0, 6, 114, 53.82252883911133
0, 6, 115, 45.62684631347656
0, 6, 116, 43.29540252685547
0, 6, 117, 41.0604362487793
0, 6, 118, 36.16986465454102
0, 6, 119, 33.85309600830078
0, 6, 120, 34.58124923706055
0, 6, 121, 26.86757469177246
0, 6, 122, 30.06050109863281
0, 6, 123, 25.37184143066406
0, 6, 124, 28.9996223449707
0, 6, 125, 29.60323524475098
0, 6, 126, 20.21951484680176
0, 6, 127, 24.67037391662598
0, 7, 0, 22.26031875610352
0, 7, 1, 27.04286575317383
0, 7, 2, 18.50136756896973
0, 7, 3, 26.54100036621094
0, 7, 4, 21.94654083251953
0, 7, 5, 36.18338012695312
0, 7, 6, 33.23071670532227
0, 7, 7, 31.1029224395752
0, 7, 8, 34.81956481933594
0, 7, 9, 36.07295227050781
0, 7, 10, 41.20884704589844
0, 7, 11, 47.39550018310547
0, 7, 12, 45.56143188476562
0, 7, 13, 49.69274520874023
0, 7, 14, 61.73164367675781
0, 7, 15, 76.86345672607422
0, 7, 16, 131.862060546875
0, 7, 17, 459.347900390625
0, 7, 18, 1098.32275390625
0, 7, 19, 1501.485717773438
0, 7, 20, 1488.185546875
0, 7, 21, 1365.822021484375
0, 7, 22, 1487.502563476562
0, 7, 23, 1457.119506835938
0, 7, 24, 1506.434936523438
0, 7, 25, 1594.758911132812
0, 7, 26, 1521.47607421875
0, 7, 27, 1509.546752929688
0, 7, 28, 1541.844360351562
0, 7, 29, 1575.897705078125
0, 7, 30, 1547.691650390625
0, 7, 31, 1436.475219726562
0, 7, 32, 1547.862060546875
0, 7, 33, 1495.3330078125
0, 7, 34, 1477.787109375
0, 7, 35, 1526.411865234375
0, 7, 36, 1476.126342773438
0, 7, 37, 1597.768798828125
0, 7, 38, 1503.52685546875
0, 7, 39, 1492.25048828125
0, 7, 40, 1542.327758789062
0, 7, 41, 1469.045166015625
0, 7, 42, 1490.215698242188
0, 7, 43, 1439.220581054688
0, 7, 44, 1486.765747070312
0, 7, 45, 1468.240478515625
0, 7, 46, 1510.675537109375
0, 7, 47, 1567.690551757812
0, 7, 48, 1522.4189453125
0, 7, 49, 1538.013916015625
0, 7, 50, 1515.205932617188
0, 7, 51, 1498.030639648438
0, 7, 52, 1520.3310546875
0, 7, 53, 1497.004028320312
0, 7, 54, 1587.208862304688
0, 7, 55, 1474.293823242188
0, 7, 56, 1551.331298828125
0, 7, 57, 1515.523681640625
0, 7, 58, 1548.825561523438
0, 7, 59, 1540.824462890625
0, 7, 60, 1548.571533203125
0, 7, 61, 1493.475341796875
0, 7, 62, 1433.804809570312
0, 7, 63, 1512.247192382812
0, 7, 64, 1545.034545898438
0, 7, 65, 1530.109008789062
0, 7, 66, 1534.560913085938
0, 7, 67, 1577.9814453125
0, 7, 68, 1529.473754882812
0, 7, 69, 1514.678588867188
0, 7, 70, 1493.993041992188
0, 7, 71, 1523.349975585938
0, 7, 72, 1524.480834960938
0, 7, 73, 1520.466674804688
0, 7, 74, 1582.734252929688
0, 7, 75, 1534.026489257812
0, 7, 76, 1558.22607421875
0, 7, 77, 1514.159301757812
0, 7, 78, 1508.763549804688
0, 7, 79, 1425.398681640625
0, 7, 80, 1484.370971679688
0, 7, 81, 1493.825927734375
0, 7, 82, 1531.078247070312
0, 7, 83, 1541.775024414062
0, 7, 84, 1585.869873046875
0, 7, 85, 1477.03466796875
0, 7, 86, 1504.435791015625
0, 7, 87, 1507.887451171875
0, 7, 88, 1500.153686523438
0, 7, 89, 1552.135986328125
0, 7, 90, 1520.746826171875
0, 7, 91, 1560.249267578125
0, 7, 92, 1525.6005859375
0, 7, 93, 1548.919555664062
0, 7, 94, 1536.424072265625
0, 7, 95, 1505.1376953125
0, 7, 96, 1508.682495117188
0, 7, 97, 1432.966186523438
0, 7, 98, 1485.107788085938
0, 7, 99, 1522.849365234375
0, 7, 100, 1420.593994140625
0, 7, 101, 1465.297729492188
0, 7, 102, 1447.476196289062
0, 7, 103, 1428.846435546875
0, 7, 104, 1490.906860351562
0, 7, 105, 1524.350952148438
0, 7, 106, 1569.318237304688
0, 7, 107, 1479.445678710938
0, 7, 108, 1411.12646484375
0, 7, 109, 1145.07568359375
0, 7, 110, 475.0693969726562
0, 7, 111, 124.0126495361328
0, 7, 112, 74.79837799072266
0, 7, 113, 66.17353820800781
0, 7, 114, 54.76495742797852
0, 7, 115, 50.72382736206055
0, 7, 116, 45.52568054199219
0, 7, 117, 39.22246932983398
0, 7, 118, 37.09590530395508
0, 7, 119, 32.76725769042969
0, 7, 120, 20.34315490722656
0, 7, 121, 26.15104103088379
0, 7, 122, 35.75720977783203
0, 7, 123, 40.18529510498047
0, 7, 124, 34.79255676269531
0, 7, 125, 24.77073287963867
0, 7, 126, 25.66110992431641
0, 7, 127, 19.03935813903809
0, 8, 0, 21.5216064453125
0, 8, 1, 23.66351890563965
0, 8, 2, 26.19517517089844
0, 8, 3, 24.38126945495605
0, 8, 4, 28.77805519104004
0, 8, 5, 36.90802383422852
0, 8, 6, 31.66329193115234
0, 8, 7, 27.07851028442383
0, 8, 8, 34.03131484985352
0, 8, 9, 43.57789993286133
0, 8, 10, 37.77129745483398
0, 8, 11, 42.66351318359375
0, 8, 12, 52.62013626098633
0, 8, 13, 68.85372924804688
0, 8, 14, 68.40971374511719
0, 8, 15, 88.71621704101562
0, 8, 16, 175.4103240966797
0, 8, 17, 673.1832275390625
0, 8, 18, 1280.135620117188
0, 8, 19, 1448.583984375
0, 8, 20, 1425.291748046875
0, 8, 21, 1410.2490234375
0, 8, 22, 1488.3095703125
0, 8, 23, 1484.40087890625
0, 8, 24, 1433.939331054688
0, 8, 25, 1455.710815429688
0, 8, 26, 1514.6826171875
0, 8, 27, 1525.414184570312
0, 8, 28, 1477.137573242188
0, 8, 29, 1501.512817382812
0, 8, 30, 1489.672607421875
0, 8, 31, 1542.148071289062
0, 8, 32, 1506.481201171875
0, 8, 33, 1479.032348632812
0, 8, 34, 1527.609497070312
0, 8, 35, 1443.214965820312
0, 8, 36, 1497.775634765625
0, 8, 37, 1552.747924804688
0, 8, 38, 1556.32080078125
0, 8, 39, 1493.975463867188
0, 8, 40, 1533.411010742188
0, 8, 41, 1482.605102539062
0, 8, 42, 1538.560424804688
0, 8, 43, 1435.162841796875
0, 8, 44, 1534.992919921875
0, 8, 45, 1510.75
