# TOPAS Version: 3.1.p3
# Parameter File: batch_inserts_264.txt
# Results for scorer Readout_Adipose
# Scored in component: MyBox
# X in 1 bin  of 0.75 cm
# Y in 512 bins of 0.0783984 cm
# Z in 128 bins of 0.078125 cm
# EnergyDeposit ( MeV ) : Sum   
0, 0, 0, 22.21152305603027
0, 0, 1, 21.22614479064941
0, 0, 2, 24.56438827514648
0, 0, 3, 25.10725784301758
0, 0, 4, 18.55293846130371
0, 0, 5, 23.06074523925781
0, 0, 6, 26.68747329711914
0, 0, 7, 33.21906661987305
0, 0, 8, 23.28774261474609
0, 0, 9, 18.74836921691895
0, 0, 10, 24.44509124755859
0, 0, 11, 27.64890289306641
0, 0, 12, 35.63980865478516
0, 0, 13, 30.57619285583496
0, 0, 14, 36.15913772583008
0, 0, 15, 50.88180160522461
0, 0, 16, 43.15457916259766
0, 0, 17, 47.72443389892578
0, 0, 18, 76.86707305908203
0, 0, 19, 193.9558410644531
0, 0, 20, 698.5702514648438
0, 0, 21, 1187.698364257812
0, 0, 22, 1249.15234375
0, 0, 23, 1274.542724609375
0, 0, 24, 1280.880004882812
0, 0, 25, 1360.071044921875
0, 0, 26, 1269.64111328125
0, 0, 27, 1281.9521484375
0, 0, 28, 1319.514282226562
0, 0, 29, 1266.037963867188
0, 0, 30, 1263.9853515625
0, 0, 31, 1282.414306640625
0, 0, 32, 1263.271728515625
0, 0, 33, 1243.46630859375
0, 0, 34, 1332.427124023438
0, 0, 35, 1299.512451171875
0, 0, 36, 1246.17333984375
0, 0, 37, 1281.166625976562
0, 0, 38, 1250.094360351562
0, 0, 39, 1242.348510742188
0, 0, 40, 1225.899536132812
0, 0, 41, 1265.6826171875
0, 0, 42, 1250.478759765625
0, 0, 43, 1271.546264648438
0, 0, 44, 1224.375732421875
0, 0, 45, 1287.581176757812
0, 0, 46, 1264.589599609375
0, 0, 47, 1239.3525390625
0, 0, 48, 1280.343139648438
0, 0, 49, 1289.151977539062
0, 0, 50, 1312.155517578125
0, 0, 51, 1263.2431640625
0, 0, 52, 1357.588989257812
0, 0, 53, 1326.776733398438
0, 0, 54, 1299.823120117188
0, 0, 55, 1233.43310546875
0, 0, 56, 1319.199462890625
0, 0, 57, 1292.728393554688
0, 0, 58, 1259.29052734375
0, 0, 59, 1332.810424804688
0, 0, 60, 1324.65869140625
0, 0, 61, 1262.92578125
0, 0, 62, 1243.827026367188
0, 0, 63, 1274.88818359375
0, 0, 64, 1330.51318359375
0, 0, 65, 1286.287963867188
0, 0, 66, 1318.270141601562
0, 0, 67, 1221.358032226562
0, 0, 68, 1310.742919921875
0, 0, 69, 1325.935302734375
0, 0, 70, 1342.627807617188
0, 0, 71, 1286.192016601562
0, 0, 72, 1310.138916015625
0, 0, 73, 1239.926879882812
0, 0, 74, 1290.960327148438
0, 0, 75, 1293.732543945312
0, 0, 76, 1259.431518554688
0, 0, 77, 1288.8154296875
0, 0, 78, 1314.170776367188
0, 0, 79, 1324.76025390625
0, 0, 80, 1263.645629882812
0, 0, 81, 1321.752807617188
0, 0, 82, 1285.57470703125
0, 0, 83, 1289.892211914062
0, 0, 84, 1328.432739257812
0, 0, 85, 1233.364013671875
0, 0, 86, 1265.103393554688
0, 0, 87, 1250.363037109375
0, 0, 88, 1258.51416015625
0, 0, 89, 1333.984497070312
0, 0, 90, 1278.218627929688
0, 0, 91, 1351.729370117188
0, 0, 92, 1304.028564453125
0, 0, 93, 1271.028442382812
0, 0, 94, 1240.85498046875
0, 0, 95, 1327.430053710938
0, 0, 96, 1285.227294921875
0, 0, 97, 1328.957885742188
0, 0, 98, 1257.481323242188
0, 0, 99, 1249.706176757812
0, 0, 100, 1291.017822265625
0, 0, 101, 1313.938720703125
0, 0, 102, 1233.48095703125
0, 0, 103, 1322.751831054688
0, 0, 104, 1264.073364257812
0, 0, 105, 1267.271728515625
0, 0, 106, 1206.397705078125
0, 0, 107, 777.832275390625
0, 0, 108, 197.4522399902344
0, 0, 109, 70.52442932128906
0, 0, 110, 62.35883712768555
0, 0, 111, 38.79718399047852
0, 0, 112, 31.79488563537598
0, 0, 113, 34.37411117553711
0, 0, 114, 34.00321960449219
0, 0, 115, 29.80233192443848
0, 0, 116, 30.26603889465332
0, 0, 117, 31.2742919921875
0, 0, 118, 27.09420204162598
0, 0, 119, 24.13840103149414
0, 0, 120, 24.19322967529297
0, 0, 121, 29.99913787841797
0, 0, 122, 21.75115585327148
0, 0, 123, 18.294677734375
0, 0, 124, 23.98170852661133
0, 0, 125, 22.98777008056641
0, 0, 126, 20.2637767791748
0, 0, 127, 20.5109806060791
0, 1, 0, 25.71895027160645
0, 1, 1, 21.93193817138672
0, 1, 2, 25.51627540588379
0, 1, 3, 21.25686264038086
0, 1, 4, 23.42918586730957
0, 1, 5, 25.86275482177734
0, 1, 6, 27.78160285949707
0, 1, 7, 27.15150451660156
0, 1, 8, 36.17260360717773
0, 1, 9, 34.53759384155273
0, 1, 10, 34.392578125
0, 1, 11, 41.36028289794922
0, 1, 12, 38.96759033203125
0, 1, 13, 42.74816131591797
0, 1, 14, 42.18594741821289
0, 1, 15, 45.92673492431641
0, 1, 16, 62.26687622070312
0, 1, 17, 58.93865585327148
0, 1, 18, 95.04109954833984
0, 1, 19, 396.2485046386719
0, 1, 20, 1039.941040039062
0, 1, 21, 1374.813232421875
0, 1, 22, 1477.996215820312
0, 1, 23, 1463.781127929688
0, 1, 24, 1455.176025390625
0, 1, 25, 1419.717041015625
0, 1, 26, 1473.836303710938
0, 1, 27, 1466.050537109375
0, 1, 28, 1488.763793945312
0, 1, 29, 1476.462524414062
0, 1, 30, 1507.27978515625
0, 1, 31, 1484.997192382812
0, 1, 32, 1412.348266601562
0, 1, 33, 1497.534912109375
0, 1, 34, 1500.2216796875
0, 1, 35, 1460.545166015625
0, 1, 36, 1491.009033203125
0, 1, 37, 1410.750366210938
0, 1, 38, 1390.744506835938
0, 1, 39, 1529.011108398438
0, 1, 40, 1455.622314453125
0, 1, 41, 1485.503051757812
0, 1, 42, 1497.611938476562
0, 1, 43, 1500.729614257812
0, 1, 44, 1453.42919921875
0, 1, 45, 1487.322387695312
0, 1, 46, 1420.039306640625
0, 1, 47, 1434.716552734375
0, 1, 48, 1426.472045898438
0, 1, 49, 1486.761840820312
0, 1, 50, 1446.824462890625
0, 1, 51, 1475.914916992188
0, 1, 52, 1478.485717773438
0, 1, 53, 1471.859985351562
0, 1, 54, 1506.645263671875
0, 1, 55, 1500.210571289062
0, 1, 56, 1470.440063476562
0, 1, 57, 1458.069946289062
0, 1, 58, 1430.195922851562
0, 1, 59, 1487.802124023438
0, 1, 60, 1467.5390625
0, 1, 61, 1448.486694335938
0, 1, 62, 1450.680786132812
0, 1, 63, 1413.804443359375
0, 1, 64, 1482.44189453125
0, 1, 65, 1420.3046875
0, 1, 66, 1435.137939453125
0, 1, 67, 1456.203735351562
0, 1, 68, 1387.839599609375
0, 1, 69, 1465.993408203125
0, 1, 70, 1427.501831054688
0, 1, 71, 1495.49658203125
0, 1, 72, 1433.631225585938
0, 1, 73, 1490.461303710938
0, 1, 74, 1470.373291015625
0, 1, 75, 1473.111572265625
0, 1, 76, 1452.118041992188
0, 1, 77, 1463.266479492188
0, 1, 78, 1453.152709960938
0, 1, 79, 1500.603149414062
0, 1, 80, 1452.304809570312
0, 1, 81, 1425.864990234375
0, 1, 82, 1477.702026367188
0, 1, 83, 1461.016235351562
0, 1, 84, 1532.5595703125
0, 1, 85, 1448.105224609375
0, 1, 86, 1407.3564453125
0, 1, 87, 1421.108276367188
0, 1, 88, 1472.58447265625
0, 1, 89, 1478.344604492188
0, 1, 90, 1422.979858398438
0, 1, 91, 1464.139038085938
0, 1, 92, 1409.489379882812
0, 1, 93, 1461.8642578125
0, 1, 94, 1467.451293945312
0, 1, 95, 1423.945678710938
0, 1, 96, 1496.987548828125
0, 1, 97, 1517.975463867188
0, 1, 98, 1477.280029296875
0, 1, 99, 1415.637451171875
0, 1, 100, 1450.797973632812
0, 1, 101, 1417.623657226562
0, 1, 102, 1445.045043945312
0, 1, 103, 1412.562744140625
0, 1, 104, 1409.841064453125
0, 1, 105, 1463.552490234375
0, 1, 106, 1370.351440429688
0, 1, 107, 1025.51416015625
0, 1, 108, 403.3243713378906
0, 1, 109, 91.17942810058594
0, 1, 110, 60.03158569335938
0, 1, 111, 56.70618438720703
0, 1, 112, 48.96284866333008
0, 1, 113, 42.06148529052734
0, 1, 114, 38.31472396850586
0, 1, 115, 40.3840446472168
0, 1, 116, 35.08710098266602
0, 1, 117, 32.73141479492188
0, 1, 118, 34.35512161254883
0, 1, 119, 29.42301559448242
0, 1, 120, 30.29302787780762
0, 1, 121, 23.74650192260742
0, 1, 122, 25.09279823303223
0, 1, 123, 20.28060913085938
0, 1, 124, 29.38660049438477
0, 1, 125, 17.59330368041992
0, 1, 126, 19.52304649353027
0, 1, 127, 22.56918907165527
0, 2, 0, 19.58248138427734
0, 2, 1, 24.45357131958008
0, 2, 2, 25.86776924133301
0, 2, 3, 27.08797645568848
0, 2, 4, 22.03029251098633
0, 2, 5, 25.64078330993652
0, 2, 6, 24.34596252441406
0, 2, 7, 20.88879776000977
0, 2, 8, 29.1645622253418
0, 2, 9, 29.41669845581055
0, 2, 10, 26.61013793945312
0, 2, 11, 34.52905654907227
0, 2, 12, 37.64083099365234
0, 2, 13, 47.75823211669922
0, 2, 14, 46.73126983642578
0, 2, 15, 48.52156066894531
0, 2, 16, 61.16969299316406
0, 2, 17, 80.48644256591797
0, 2, 18, 149.0249938964844
0, 2, 19, 607.8998413085938
0, 2, 20, 1287.976440429688
0, 2, 21, 1438.9765625
0, 2, 22, 1457.794799804688
0, 2, 23, 1407.067138671875
0, 2, 24, 1439.142211914062
0, 2, 25, 1523.584350585938
0, 2, 26, 1556.816284179688
0, 2, 27, 1453.880493164062
0, 2, 28, 1459.545776367188
0, 2, 29, 1462.351318359375
0, 2, 30, 1465.500732421875
0, 2, 31, 1536.901977539062
0, 2, 32, 1504.139282226562
0, 2, 33, 1443.2275390625
0, 2, 34, 1472.365600585938
0, 2, 35, 1469.581176757812
0, 2, 36, 1533.510864257812
0, 2, 37, 1535.542724609375
0, 2, 38, 1502.9091796875
0, 2, 39, 1459.290283203125
0, 2, 40, 1505.087890625
0, 2, 41, 1519.422485351562
0, 2, 42, 1501.634643554688
0, 2, 43, 1549.252685546875
0, 2, 44, 1454.929077148438
0, 2, 45, 1480.892944335938
0, 2, 46, 1428.081176757812
0, 2, 47, 1442.543579101562
0, 2, 48, 1402.149047851562
0, 2, 49, 1464.638793945312
0, 2, 50, 1441.64208984375
0, 2, 51, 1444.935913085938
0, 2, 52, 1493.703735351562
0, 2, 53, 1526.697387695312
0, 2, 54, 1523.475341796875
0, 2, 55, 1491.338256835938
0, 2, 56, 1464.743774414062
0, 2, 57, 1417.224975585938
0, 2, 58, 1451.103515625
0, 2, 59, 1450.793090820312
0, 2, 60, 1473.406005859375
0, 2, 61, 1444.986572265625
0, 2, 62, 1468.284790039062
0, 2, 63, 1508.607788085938
0, 2, 64, 1461.451049804688
0, 2, 65, 1428.124877929688
0, 2, 66, 1488.807983398438
0, 2, 67, 1502.648315429688
0, 2, 68, 1537.133178710938
0, 2, 69, 1539.706298828125
0, 2, 70, 1510.693359375
0, 2, 71, 1461.131469726562
0, 2, 72, 1517.953735351562
0, 2, 73, 1518.785766601562
0, 2, 74, 1493.839477539062
0, 2, 75, 1497.139770507812
0, 2, 76, 1447.328979492188
0, 2, 77, 1505.253295898438
0, 2, 78, 1423.314331054688
0, 2, 79, 1537.412475585938
0, 2, 80, 1479.986450195312
0, 2, 81, 1463.91943359375
0, 2, 82, 1559.382568359375
0, 2, 83, 1517.95166015625
0, 2, 84, 1493.569091796875
0, 2, 85, 1521.099487304688
0, 2, 86, 1540.1318359375
0, 2, 87, 1488.102172851562
0, 2, 88, 1535.279907226562
0, 2, 89, 1463.908081054688
0, 2, 90, 1429.875366210938
0, 2, 91, 1405.324340820312
0, 2, 92, 1480.256958007812
0, 2, 93, 1495.544677734375
0, 2, 94, 1452.419677734375
0, 2, 95, 1547.033813476562
0, 2, 96, 1518.972778320312
0, 2, 97, 1456.423583984375
0, 2, 98, 1466.01904296875
0, 2, 99, 1408.10986328125
0, 2, 100, 1473.259155273438
0, 2, 101, 1479.835083007812
0, 2, 102, 1467.501342773438
0, 2, 103, 1392.0634765625
0, 2, 104, 1411.092163085938
0, 2, 105, 1395.420532226562
0, 2, 106, 1457.30029296875
0, 2, 107, 1281.09765625
0, 2, 108, 625.1776733398438
0, 2, 109, 173.3547821044922
0, 2, 110, 70.73713684082031
0, 2, 111, 64.19137573242188
0, 2, 112, 48.42817306518555
0, 2, 113, 45.03127670288086
0, 2, 114, 38.50560760498047
0, 2, 115, 37.83531188964844
0, 2, 116, 35.05101776123047
0, 2, 117, 33.13479232788086
0, 2, 118, 27.45940017700195
0, 2, 119, 30.60034561157227
0, 2, 120, 27.15711402893066
0, 2, 121, 18.55303382873535
0, 2, 122, 28.67962074279785
0, 2, 123, 23.16470527648926
0, 2, 124, 28.88376808166504
0, 2, 125, 31.20775604248047
0, 2, 126, 19.67121696472168
0, 2, 127, 18.77041053771973
0, 3, 0, 18.7254810333252
0, 3, 1, 21.9304370880127
0, 3, 2, 19.27895736694336
0, 3, 3, 24.36474418640137
0, 3, 4, 18.94233512878418
0, 3, 5, 27.78061485290527
0, 3, 6, 32.9752197265625
0, 3, 7, 32.1649284362793
0, 3, 8, 28.85117721557617
0, 3, 9, 32.180419921875
0, 3, 10, 37.32149505615234
0, 3, 11, 33.37411117553711
0, 3, 12, 48.36165237426758
0, 3, 13, 53.03743743896484
0, 3, 14, 54.86612319946289
0, 3, 15, 58.15324401855469
0, 3, 16, 68.04273223876953
0, 3, 17, 92.18196105957031
0, 3, 18, 238.3589324951172
0, 3, 19, 875.2532348632812
0, 3, 20, 1387.1640625
0, 3, 21, 1505.40576171875
0, 3, 22, 1457.046875
0, 3, 23, 1454.883422851562
0, 3, 24, 1440.089477539062
0, 3, 25, 1468.850219726562
0, 3, 26, 1491.109619140625
0, 3, 27, 1471.360229492188
0, 3, 28, 1492.694946289062
0, 3, 29, 1544.28271484375
0, 3, 30, 1571.640258789062
0, 3, 31, 1513.774658203125
0, 3, 32, 1549.66259765625
0, 3, 33, 1542.6142578125
0, 3, 34, 1488.783081054688
0, 3, 35, 1462.108642578125
0, 3, 36, 1451.864868164062
0, 3, 37, 1516.255004882812
0, 3, 38, 1517.83154296875
0, 3, 39, 1439.20068359375
0, 3, 40, 1444.441650390625
0, 3, 41, 1560.5498046875
0, 3, 42, 1458.126708984375
0, 3, 43, 1456.087158203125
0, 3, 44, 1451.899047851562
0, 3, 45, 1505.184326171875
0, 3, 46, 1510.77587890625
0, 3, 47, 1437.983154296875
0, 3, 48, 1505.661376953125
0, 3, 49, 1456.487182617188
0, 3, 50, 1489.65869140625
0, 3, 51, 1538.242065429688
0, 3, 52, 1535.94287109375
0, 3, 53, 1465.678100585938
0, 3, 54, 1539.15966796875
0, 3, 55, 1500.580810546875
0, 3, 56, 1432.973388671875
0, 3, 57, 1503.589233398438
0, 3, 58, 1515.4638671875
0, 3, 59, 1509.7919921875
0, 3, 60, 1535.86865234375
0, 3, 61, 1482.829467773438
0, 3, 62, 1494.177612304688
0, 3, 63, 1496.019653320312
0, 3, 64, 1503.324340820312
0, 3, 65, 1513.792602539062
0, 3, 66, 1555.1025390625
0, 3, 67, 1547.741577148438
0, 3, 68, 1448.684204101562
0, 3, 69, 1464.5185546875
0, 3, 70, 1386.225219726562
0, 3, 71, 1460.96826171875
0, 3, 72, 1545.88134765625
0, 3, 73, 1495.99560546875
0, 3, 74, 1469.231689453125
0, 3, 75, 1461.512084960938
0, 3, 76, 1574.634521484375
0, 3, 77, 1544.711791992188
0, 3, 78, 1425.934692382812
0, 3, 79, 1499.958862304688
0, 3, 80, 1464.511596679688
0, 3, 81, 1474.63134765625
0, 3, 82, 1553.364990234375
0, 3, 83, 1511.427856445312
0, 3, 84, 1565.991577148438
0, 3, 85, 1477.328491210938
0, 3, 86, 1529.257446289062
0, 3, 87, 1539.11328125
0, 3, 88, 1461.730834960938
0, 3, 89, 1450.586059570312
0, 3, 90, 1450.677001953125
0, 3, 91, 1416.18603515625
0, 3, 92, 1512.50732421875
0, 3, 93, 1502.802978515625
0, 3, 94, 1512.94287109375
0, 3, 95, 1545.123046875
0, 3, 96, 1511.533203125
0, 3, 97, 1460.323364257812
0, 3, 98, 1434.700561523438
0, 3, 99, 1466.128173828125
0, 3, 100, 1472.00634765625
0, 3, 101, 1473.607421875
0, 3, 102, 1527.230346679688
0, 3, 103, 1551.581176757812
0, 3, 104, 1499.62548828125
0, 3, 105, 1516.787231445312
0, 3, 106, 1476.988037109375
0, 3, 107, 1340.410522460938
0, 3, 108, 876.658203125
0, 3, 109, 263.4898071289062
0, 3, 110, 101.9446182250977
0, 3, 111, 59.38472366333008
0, 3, 112, 57.92733001708984
0, 3, 113, 55.47903823852539
0, 3, 114, 48.59993362426758
0, 3, 115, 53.48910522460938
0, 3, 116, 35.72991943359375
0, 3, 117, 37.73459625244141
0, 3, 118, 34.98091125488281
0, 3, 119, 28.60568237304688
0, 3, 120, 30.26742362976074
0, 3, 121, 24.13789367675781
0, 3, 122, 21.01189422607422
0, 3, 123, 24.83212852478027
0, 3, 124, 17.79043579101562
0, 3, 125, 25.88143730163574
0, 3, 126, 25.11347007751465
0, 3, 127, 14.08627605438232
0, 4, 0, 22.65398025512695
0, 4, 1, 24.86672782897949
0, 4, 2, 18.43135261535645
0, 4, 3, 21.89686965942383
0, 4, 4, 25.00064277648926
0, 4, 5, 31.53648567199707
0, 4, 6, 31.39297485351562
0, 4, 7, 35.21709823608398
0, 4, 8, 25.93228912353516
0, 4, 9, 33.93433380126953
0, 4, 10, 34.84370040893555
0, 4, 11, 36.01935577392578
0, 4, 12, 46.70097732543945
0, 4, 13, 54.71056365966797
0, 4, 14, 51.68570327758789
0, 4, 15, 61.9607048034668
0, 4, 16, 74.35457611083984
0, 4, 17, 115.3774871826172
0, 4, 18, 445.0248413085938
0, 4, 19, 1178.30322265625
0, 4, 20, 1443.015014648438
0, 4, 21, 1422.690551757812
0, 4, 22, 1437.356201171875
0, 4, 23, 1445.835693359375
0, 4, 24, 1472.0595703125
0, 4, 25, 1408.523559570312
0, 4, 26, 1541.192504882812
0, 4, 27, 1542.577392578125
0, 4, 28, 1509.084106445312
0, 4, 29, 1514.36865234375
0, 4, 30, 1528.809936523438
0, 4, 31, 1574.270874023438
0, 4, 32, 1516.17724609375
0, 4, 33, 1489.741333007812
0, 4, 34, 1470.291137695312
0, 4, 35, 1561.455932617188
0, 4, 36, 1504.978149414062
0, 4, 37, 1512.8974609375
0, 4, 38, 1533.6220703125
0, 4, 39, 1469.73486328125
0, 4, 40, 1510.955200195312
0, 4, 41, 1585.526000976562
0, 4, 42, 1565.7001953125
0, 4, 43, 1470.89892578125
0, 4, 44, 1496.240234375
0, 4, 45, 1519.508544921875
0, 4, 46, 1469.7880859375
0, 4, 47, 1501.52490234375
0, 4, 48, 1530.162475585938
0, 4, 49, 1467.862670898438
0, 4, 50, 1521.546630859375
0, 4, 51, 1498.571655273438
0, 4, 52, 1494.674560546875
0, 4, 53, 1453.114135742188
0, 4, 54, 1441.91650390625
0, 4, 55, 1523.239135742188
0, 4, 56, 1454.568603515625
0, 4, 57, 1497.663940429688
0, 4, 58, 1464.692504882812
0, 4, 59, 1465.785278320312
0, 4, 60, 1525.751098632812
0, 4, 61, 1499.1220703125
0, 4, 62, 1502.857299804688
0, 4, 63, 1541.082397460938
0, 4, 64, 1590.0185546875
0, 4, 65, 1422.442138671875
0, 4, 66, 1517.907104492188
0, 4, 67, 1521.926147460938
0, 4, 68, 1501.31982421875
0, 4, 69, 1469.943725585938
0, 4, 70, 1542.876708984375
0, 4, 71, 1522.79443359375
0, 4, 72, 1524.71337890625
0, 4, 73, 1491.8359375
0, 4, 74, 1485.643188476562
0, 4, 75, 1532.597778320312
0, 4, 76, 1484.867431640625
0, 4, 77, 1500.935668945312
0, 4, 78, 1502.59619140625
0, 4, 79, 1479.023559570312
0, 4, 80, 1515.907470703125
0, 4, 81, 1525.412353515625
0, 4, 82, 1563.577758789062
0, 4, 83, 1501.56982421875
0, 4, 84, 1538.052124023438
0, 4, 85, 1552.964599609375
0, 4, 86, 1528.976806640625
0, 4, 87, 1493.262817382812
0, 4, 88, 1508.922485351562
0, 4, 89, 1480.309814453125
0, 4, 90, 1544.445922851562
0, 4, 91, 1552.704833984375
0, 4, 92, 1498.665649414062
0, 4, 93, 1521.312744140625
0, 4, 94, 1487.00341796875
0, 4, 95, 1515.947143554688
0, 4, 96, 1445.6728515625
0, 4, 97, 1412.337158203125
0, 4, 98, 1554.215576171875
0, 4, 99, 1516.005493164062
0, 4, 100, 1489.702880859375
0, 4, 101, 1450.791259765625
0, 4, 102, 1443.510986328125
0, 4, 103, 1516.140258789062
0, 4, 104, 1509.189086914062
0, 4, 105, 1550.896606445312
0, 4, 106, 1472.680786132812
0, 4, 107, 1454.196533203125
0, 4, 108, 1120.656860351562
0, 4, 109, 438.9292907714844
0, 4, 110, 95.02748107910156
0, 4, 111, 68.822021484375
0, 4, 112, 60.85116195678711
0, 4, 113, 50.76047515869141
0, 4, 114, 56.75305938720703
0, 4, 115, 43.14165496826172
0, 4, 116, 38.75371170043945
0, 4, 117, 43.86565399169922
0, 4, 118, 37.579833984375
0, 4, 119, 40.39561080932617
0, 4, 120, 39.40620803833008
0, 4, 121, 29.67889976501465
0, 4, 122, 28.52710342407227
0, 4, 123, 30.57055854797363
0, 4, 124, 22.301025390625
0, 4, 125, 29.08371162414551
0, 4, 126, 20.52277946472168
0, 4, 127, 16.52388191223145
0, 5, 0, 23.23137664794922
0, 5, 1, 22.66181564331055
0, 5, 2, 29.02615928649902
0, 5, 3, 25.70741653442383
0, 5, 4, 21.90874290466309
0, 5, 5, 30.80185699462891
0, 5, 6, 32.3246955871582
0, 5, 7, 30.11125755310059
0, 5, 8, 36.09159088134766
0, 5, 9, 29.93527221679688
0, 5, 10, 33.53320693969727
0, 5, 11, 40.41219711303711
0, 5, 12, 39.99088668823242
0, 5, 13, 43.98387908935547
0, 5, 14, 63.13946533203125
0, 5, 15, 75.07130432128906
0, 5, 16, 80.70615386962891
0, 5, 17, 159.6025543212891
0, 5, 18, 673.2504272460938
0, 5, 19, 1347.422485351562
0, 5, 20, 1525.020141601562
0, 5, 21, 1494.151123046875
0, 5, 22, 1496.140991210938
0, 5, 23, 1530.927612304688
0, 5, 24, 1464.8759765625
0, 5, 25, 1428.318603515625
0, 5, 26, 1525.805297851562
0, 5, 27, 1540.216552734375
0, 5, 28, 1490.678588867188
0, 5, 29, 1524.728515625
0, 5, 30, 1492.151489257812
0, 5, 31, 1502.321411132812
0, 5, 32, 1592.298095703125
0, 5, 33, 1504.401000976562
0, 5, 34, 1481.290405273438
0, 5, 35, 1510.265014648438
0, 5, 36, 1443.195556640625
0, 5, 37, 1529.752563476562
0, 5, 38, 1550.1875
0, 5, 39, 1553.428955078125
0, 5, 40, 1499.692138671875
0, 5, 41, 1480.7939453125
0, 5, 42, 1544.364013671875
0, 5, 43, 1532.717041015625
0, 5, 44, 1542.980346679688
0, 5, 45, 1506.316284179688
0, 5, 46, 1491.515869140625
0, 5, 47, 1480.4072265625
0, 5, 48, 1500.645385742188
0, 5, 49, 1526.516967773438
0, 5, 50, 1499.7060546875
0, 5, 51, 1517.872192382812
0, 5, 52, 1428.18505859375
0, 5, 53, 1522.621337890625
0, 5, 54, 1523.085571289062
0, 5, 55, 1526.48486328125
0, 5, 56, 1485.829956054688
0, 5, 57, 1541.254028320312
0, 5, 58, 1509.448974609375
0, 5, 59, 1487.861694335938
0, 5, 60, 1539.563720703125
0, 5, 61, 1449.171997070312
0, 5, 62, 1588.494750976562
0, 5, 63, 1437.39453125
0, 5, 64, 1492.452026367188
0, 5, 65, 1464.19580078125
0, 5, 66, 1527.599243164062
0, 5, 67, 1561.72900390625
0, 5, 68, 1463.131469726562
0, 5, 69, 1478.317260742188
0, 5, 70, 1489.09521484375
0, 5, 71, 1471.119018554688
0, 5, 72, 1542.388916015625
0, 5, 73, 1459.939575195312
0, 5, 74, 1491.622436523438
0, 5, 75, 1488.698608398438
0, 5, 76, 1479.413818359375
0, 5, 77, 1520.446044921875
0, 5, 78, 1526.258056640625
0, 5, 79, 1506.214233398438
0, 5, 80, 1520.553588867188
0, 5, 81, 1590.771240234375
0, 5, 82, 1523.457275390625
0, 5, 83, 1490.23193359375
0, 5, 84, 1530.173950195312
0, 5, 85, 1509.395874023438
0, 5, 86, 1551.961547851562
0, 5, 87, 1470.667602539062
0, 5, 88, 1497.686157226562
0, 5, 89, 1485.519775390625
0, 5, 90, 1480.352172851562
0, 5, 91, 1551.736328125
0, 5, 92, 1482.14697265625
0, 5, 93, 1561.905883789062
0, 5, 94, 1513.131469726562
0, 5, 95, 1564.047485351562
0, 5, 96, 1499.626586914062
0, 5, 97, 1515.927978515625
0, 5, 98, 1510.96337890625
0, 5, 99, 1541.364868164062
0, 5, 100, 1434.562622070312
0, 5, 101, 1429.666259765625
0, 5, 102, 1517.409790039062
0, 5, 103, 1473.555541992188
0, 5, 104, 1458.862915039062
0, 5, 105, 1491.192260742188
0, 5, 106, 1459.25634765625
0, 5, 107, 1404.977783203125
0, 5, 108, 1288.45068359375
0, 5, 109, 720.2011108398438
0, 5, 110, 194.9926300048828
0, 5, 111, 93.18841552734375
0, 5, 112, 84.65212249755859
0, 5, 113, 63.02102661132812
0, 5, 114, 59.04701995849609
0, 5, 115, 59.00404739379883
0, 5, 116, 46.90031814575195
0, 5, 117, 38.51873016357422
0, 5, 118, 39.915771484375
0, 5, 119, 23.64770698547363
0, 5, 120, 26.50351905822754
0, 5, 121, 26.48262786865234
0, 5, 122, 28.73850440979004
0, 5, 123, 26.76723098754883
0, 5, 124, 26.96407699584961
0, 5, 125, 23.09350204467773
0, 5, 126, 18.33695030212402
0, 5, 127, 24.24784088134766
0, 6, 0, 20.16959190368652
0, 6, 1, 28.76454544067383
0, 6, 2, 26.00291633605957
0, 6, 3, 25.03797912597656
0, 6, 4, 20.76813697814941
0, 6, 5, 36.63197708129883
0, 6, 6, 34.4494514465332
0, 6, 7, 31.8768253326416
0, 6, 8, 29.7172679901123
0, 6, 9, 31.66075706481934
0, 6, 10, 36.37250518798828
0, 6, 11, 37.88168334960938
0, 6, 12, 40.72953414916992
0, 6, 13, 59.75395584106445
0, 6, 14, 65.90373229980469
0, 6, 15, 82.96784973144531
0, 6, 16, 113.2614593505859
0, 6, 17, 296.4113159179688
0, 6, 18, 897.46337890625
0, 6, 19, 1377.55224609375
0, 6, 20, 1433.912963867188
0, 6, 21, 1533.448364257812
0, 6, 22, 1501.220703125
0, 6, 23, 1529.972900390625
0, 6, 24, 1477.133178710938
0, 6, 25, 1523.061889648438
0, 6, 26, 1517.171997070312
0, 6, 27, 1518.3798828125
0, 6, 28, 1554.943359375
0, 6, 29, 1577.452392578125
0, 6, 30, 1513.649047851562
0, 6, 31, 1494.344482421875
0, 6, 32, 1524.112548828125
0, 6, 33, 1492.796264648438
0, 6, 34, 1566.883911132812
0, 6, 35, 1505.296264648438
0, 6, 36, 1440.46142578125
0, 6, 37, 1544.804809570312
0, 6, 38, 1520.224243164062
0, 6, 39, 1523.473266601562
0, 6, 40, 1456.725219726562
0, 6, 41, 1438.423950195312
0, 6, 42, 1512.192504882812
0, 6, 43, 1492.863647460938
0, 6, 44, 1434.021240234375
0, 6, 45, 1544.09619140625
0, 6, 46, 1556.810668945312
0, 6, 47, 1495.489990234375
0, 6, 48, 1523.077270507812
0, 6, 49, 1507.92626953125
0, 6, 50, 1583.3046875
0, 6, 51, 1502.290771484375
0, 6, 52, 1565.379028320312
0, 6, 53, 1474.565673828125
0, 6, 54, 1502.219604492188
0, 6, 55, 1571.481811523438
0, 6, 56, 1526.358520507812
0, 6, 57, 1501.2421875
0, 6, 58, 1466.403686523438
0, 6, 59, 1520.288940429688
0, 6, 60, 1468.935302734375
0, 6, 61, 1568.205078125
0, 6, 62, 1549.566284179688
0, 6, 63, 1498.252563476562
0, 6, 64, 1412.54296875
0, 6, 65, 1495.130737304688
0, 6, 66, 1509.112548828125
0, 6, 67, 1508.2138671875
0, 6, 68, 1543.055541992188
0, 6, 69, 1490.54638671875
0, 6, 70, 1526.5
0, 6, 71, 1471.184936523438
0, 6, 72, 1595.312866210938
0, 6, 73, 1491.083374023438
0, 6, 74, 1561.499755859375
0, 6, 75, 1536.935180664062
0, 6, 76, 1565.270385742188
0, 6, 77, 1502.115966796875
0, 6, 78, 1447.280029296875
0, 6, 79, 1558.915161132812
0, 6, 80, 1485.146850585938
0, 6, 81, 1485.738525390625
0, 6, 82, 1503.30078125
0, 6, 83, 1531.300537109375
0, 6, 84, 1526.10400390625
0, 6, 85, 1535.6875
0, 6, 86, 1542.680297851562
0, 6, 87, 1571.733276367188
0, 6, 88, 1481.82373046875
0, 6, 89, 1562.651977539062
0, 6, 90, 1490.211547851562
0, 6, 91, 1542.218505859375
0, 6, 92, 1487.633056640625
0, 6, 93, 1496.614501953125
0, 6, 94, 1470.74658203125
0, 6, 95, 1509.065673828125
0, 6, 96, 1518.57958984375
0, 6, 97, 1502.535034179688
0, 6, 98, 1496.9697265625
0, 6, 99, 1482.91357421875
0, 6, 100, 1524.55029296875
0, 6, 101, 1515.171020507812
0, 6, 102, 1537.9248046875
0, 6, 103, 1498.004638671875
0, 6, 104, 1468.510131835938
0, 6, 105, 1486.52783203125
0, 6, 106, 1499.5888671875
0, 6, 107, 1503.1962890625
0, 6, 108, 1414.280883789062
0, 6, 109, 923.397705078125
0, 6, 110, 286.7294921875
0, 6, 111, 93.92221832275391
0, 6, 112, 78.72905731201172
0, 6, 113, 58.34109115600586
0, 6, 114, 58.07131958007812
0, 6, 115, 39.18727493286133
0, 6, 116, 40.94987869262695
0, 6, 117, 39.47295379638672
0, 6, 118, 40.31998825073242
0, 6, 119, 34.37099075317383
0, 6, 120, 33.50055694580078
0, 6, 121, 31.28532409667969
0, 6, 122, 31.89791107177734
0, 6, 123, 24.53653335571289
0, 6, 124, 31.35785293579102
0, 6, 125, 28.8002872467041
0, 6, 126, 23.05533218383789
0, 6, 127, 20.32083129882812
0, 7, 0, 21.97440910339355
0, 7, 1, 26.01190757751465
0, 7, 2, 23.83156776428223
0, 7, 3, 25.19635200500488
0, 7, 4, 25.35925483703613
0, 7, 5, 34.62426376342773
0, 7, 6, 29.24713134765625
0, 7, 7, 35.56987762451172
0, 7, 8, 31.00423240661621
0, 7, 9, 30.30761909484863
0, 7, 10, 47.20503234863281
0, 7, 11, 49.659423828125
0, 7, 12, 49.2340087890625
0, 7, 13, 48.21015167236328
0, 7, 14, 62.51066970825195
0, 7, 15, 79.79552459716797
0, 7, 16, 131.06396484375
0, 7, 17, 458.2537536621094
0, 7, 18, 1097.907958984375
0, 7, 19, 1497.078491210938
0, 7, 20, 1485.603759765625
0, 7, 21, 1367.96044921875
0, 7, 22, 1488.67333984375
0, 7, 23, 1454.740112304688
0, 7, 24, 1509.762329101562
0, 7, 25, 1595.895629882812
0, 7, 26, 1517.535522460938
0, 7, 27, 1507.940551757812
0, 7, 28, 1544.724243164062
0, 7, 29, 1577.117431640625
0, 7, 30, 1545.285034179688
0, 7, 31, 1436.5771484375
0, 7, 32, 1541.3876953125
0, 7, 33, 1495.631469726562
0, 7, 34, 1478.00830078125
0, 7, 35, 1522.595092773438
0, 7, 36, 1472.440551757812
0, 7, 37, 1597.957275390625
0, 7, 38, 1506.684448242188
0, 7, 39, 1489.89208984375
0, 7, 40, 1548.87646484375
0, 7, 41, 1466.838989257812
0, 7, 42, 1494.071044921875
0, 7, 43, 1442.901733398438
0, 7, 44, 1488.630126953125
0, 7, 45, 1470.713012695312
0, 7, 46, 1513.38671875
0, 7, 47, 1567.28515625
0, 7, 48, 1520.737915039062
0, 7, 49, 1538.998413085938
0, 7, 50, 1510.815673828125
0, 7, 51, 1494.743896484375
0, 7, 52, 1521.857543945312
0, 7, 53, 1496.27880859375
0, 7, 54, 1588.724609375
0, 7, 55, 1470.912963867188
0, 7, 56, 1549.632690429688
0, 7, 57, 1511.166870117188
0, 7, 58, 1546.84814453125
0, 7, 59, 1541.5107421875
0, 7, 60, 1552.8125
0, 7, 61, 1490.461181640625
0, 7, 62, 1433.810546875
0, 7, 63, 1510.671508789062
0, 7, 64, 1546.094360351562
0, 7, 65, 1526.591918945312
0, 7, 66, 1538.597412109375
0, 7, 67, 1575.559326171875
0, 7, 68, 1532.936645507812
0, 7, 69, 1520.408081054688
0, 7, 70, 1495.247924804688
0, 7, 71, 1524.058227539062
0, 7, 72, 1523.033813476562
0, 7, 73, 1517.889770507812
0, 7, 74, 1569.833129882812
0, 7, 75, 1534.585083007812
0, 7, 76, 1559.514404296875
0, 7, 77, 1509.671752929688
0, 7, 78, 1511.296875
0, 7, 79, 1422.2548828125
0, 7, 80, 1488.518676757812
0, 7, 81, 1489.580322265625
0, 7, 82, 1530.272827148438
0, 7, 83, 1544.499755859375
0, 7, 84, 1583.375
0, 7, 85, 1480.572875976562
0, 7, 86, 1506
0, 7, 87, 1505.342651367188
0, 7, 88, 1502.875244140625
0, 7, 89, 1556.716430664062
0, 7, 90, 1523.896362304688
0, 7, 91, 1563.253051757812
0, 7, 92, 1532.774047851562
0, 7, 93, 1550.423095703125
0, 7, 94, 1535.337890625
0, 7, 95, 1502.420532226562
0, 7, 96, 1507.358520507812
0, 7, 97, 1432.242797851562
0, 7, 98, 1485.54638671875
0, 7, 99, 1528.9130859375
0, 7, 100, 1419.483032226562
0, 7, 101, 1463.957153320312
0, 7, 102, 1446.22705078125
0, 7, 103, 1431.878051757812
0, 7, 104, 1497.58251953125
0, 7, 105, 1522.107543945312
0, 7, 106, 1566.59326171875
0, 7, 107, 1479.917724609375
0, 7, 108, 1412.694580078125
0, 7, 109, 1146.998168945312
0, 7, 110, 472.3954467773438
0, 7, 111, 126.4336853027344
0, 7, 112, 81.82108306884766
0, 7, 113, 67.25242614746094
0, 7, 114, 60.49496841430664
0, 7, 115, 53.94454956054688
0, 7, 116, 44.1953239440918
0, 7, 117, 49.3935432434082
0, 7, 118, 42.67291641235352
0, 7, 119, 35.1453857421875
0, 7, 120, 21.75426292419434
0, 7, 121, 26.87559509277344
0, 7, 122, 36.34696960449219
0, 7, 123, 35.63483047485352
0, 7, 124, 32.17715072631836
0, 7, 125, 26.25985527038574
0, 7, 126, 27.03141975402832
0, 7, 127, 21.12644004821777
0, 8, 0, 22.14727973937988
0, 8, 1, 22.56094741821289
0, 8, 2, 30.57215309143066
0, 8, 3, 24.13784599304199
0, 8, 4, 24.7148494720459
0, 8, 5, 35.91663360595703
0, 8, 6, 32.67181777954102
0, 8, 7, 28.41073989868164
0, 8, 8, 38.94359970092773
0, 8, 9, 45.90338516235352
0, 8, 10, 46.88197326660156
0, 8, 11, 43.56281661987305
0, 8, 12, 56.61675643920898
0, 8, 13, 68.46566009521484
0, 8, 14, 77.27655792236328
0, 8, 15, 81.96159362792969
0, 8, 16, 174.3985595703125
0, 8, 17, 672.3333129882812
0, 8, 18, 1277.833984375
0, 8, 19, 1449.486083984375
0, 8, 20, 1428.566284179688
0, 8, 21, 1407.643432617188
0, 8, 22, 1489.623779296875
0, 8, 23, 1479.236694335938
0, 8, 24, 1434.560546875
0, 8, 25, 1455.975952148438
0, 8, 26, 1516.531127929688
0, 8, 27, 1521.308471679688
0, 8, 28, 1476.823486328125
0, 8, 29, 1505.645385742188
0, 8, 30, 1483.261596679688
0, 8, 31, 1536.96923828125
0, 8, 32, 1509.969360351562
0, 8, 33, 1478.109252929688
0, 8, 34, 1536.452514648438
0, 8, 35, 1440.757202148438
0, 8, 36, 1500.969360351562
0, 8, 37, 1554.77685546875
0, 8, 38, 1549.756713867188
0, 8, 39, 1491.58251953125
0, 8, 40, 1527.852294921875
0, 8, 41, 1483.822143554688
0, 8, 42, 1544.113525390625
0, 8, 43, 1436.07666015625
0, 8, 44, 1532.305297851562
0, 8, 45, 1508.885498046875
0, 8, 46, 1599.931884765625
0, 8, 47, 1582.171264648438
