# TOPAS Version: 3.1.p3
# Parameter File: batch_inserts_204.txt
# Results for scorer Readout_Adipose
# Scored in component: MyBox
# X in 1 bin  of 0.75 cm
# Y in 512 bins of 0.0783984 cm
# Z in 128 bins of 0.078125 cm
# EnergyDeposit ( MeV ) : Sum   
0, 0, 0, 4.864678859710693
0, 0, 1, 1.736846923828125
0, 0, 2, 5.948827743530273
0, 0, 3, 1.94641125202179
0, 0, 4, 4.750414371490479
0, 0, 5, 2.569455146789551
0, 0, 6, 7.331255912780762
0, 0, 7, 7.890285491943359
0, 0, 8, 2.476000308990479
0, 0, 9, 4.899354457855225
0, 0, 10, 6.675376892089844
0, 0, 11, 4.823766708374023
0, 0, 12, 5.417965888977051
0, 0, 13, 4.298662662506104
0, 0, 14, 6.876771450042725
0, 0, 15, 9.202447891235352
0, 0, 16, 8.404854774475098
0, 0, 17, 10.13521385192871
0, 0, 18, 13.45634365081787
0, 0, 19, 44.18216323852539
0, 0, 20, 140.8798370361328
0, 0, 21, 223.7231140136719
0, 0, 22, 247.7576446533203
0, 0, 23, 257.4285278320312
0, 0, 24, 250.5482177734375
0, 0, 25, 258.2824096679688
0, 0, 26, 233.1717681884766
0, 0, 27, 236.5854644775391
0, 0, 28, 272.6222229003906
0, 0, 29, 251.9607238769531
0, 0, 30, 229.8144989013672
0, 0, 31, 243.5420989990234
0, 0, 32, 264.2409973144531
0, 0, 33, 262.6753234863281
0, 0, 34, 286.2384338378906
0, 0, 35, 267.3114624023438
0, 0, 36, 246.223876953125
0, 0, 37, 251.3734588623047
0, 0, 38, 266.6298828125
0, 0, 39, 229.4254455566406
0, 0, 40, 240.7316436767578
0, 0, 41, 264.5263977050781
0, 0, 42, 229.0797576904297
0, 0, 43, 260.4910888671875
0, 0, 44, 253.106201171875
0, 0, 45, 253.6718902587891
0, 0, 46, 243.8336639404297
0, 0, 47, 255.8863830566406
0, 0, 48, 266.0670776367188
0, 0, 49, 273.9406127929688
0, 0, 50, 251.6163635253906
0, 0, 51, 254.6738433837891
0, 0, 52, 273.806640625
0, 0, 53, 292.9422607421875
0, 0, 54, 241.2387847900391
0, 0, 55, 239.3438720703125
0, 0, 56, 277.9971313476562
0, 0, 57, 261.7972106933594
0, 0, 58, 244.7850799560547
0, 0, 59, 270.4029235839844
0, 0, 60, 235.0030364990234
0, 0, 61, 246.8786926269531
0, 0, 62, 259.6369018554688
0, 0, 63, 266.8156127929688
0, 0, 64, 256.237548828125
0, 0, 65, 260.3055725097656
0, 0, 66, 276.2597961425781
0, 0, 67, 247.1805267333984
0, 0, 68, 258.4272155761719
0, 0, 69, 261.7149658203125
0, 0, 70, 272.135986328125
0, 0, 71, 239.4124908447266
0, 0, 72, 251.7474517822266
0, 0, 73, 258.7513732910156
0, 0, 74, 251.7984771728516
0, 0, 75, 241.3717803955078
0, 0, 76, 227.5010375976562
0, 0, 77, 258.7215881347656
0, 0, 78, 258.2147827148438
0, 0, 79, 277.8186645507812
0, 0, 80, 215.6481628417969
0, 0, 81, 267.3943176269531
0, 0, 82, 255.3438262939453
0, 0, 83, 244.5206146240234
0, 0, 84, 270.0210876464844
0, 0, 85, 231.3528137207031
0, 0, 86, 254.1491394042969
0, 0, 87, 251.8596649169922
0, 0, 88, 260.3854370117188
0, 0, 89, 283.2152709960938
0, 0, 90, 246.1109466552734
0, 0, 91, 280.7836608886719
0, 0, 92, 253.8926239013672
0, 0, 93, 249.6316375732422
0, 0, 94, 251.6216583251953
0, 0, 95, 248.2467803955078
0, 0, 96, 275.7343139648438
0, 0, 97, 272.3264770507812
0, 0, 98, 274.0656433105469
0, 0, 99, 259.3546752929688
0, 0, 100, 258.8244018554688
0, 0, 101, 226.5576324462891
0, 0, 102, 232.8034210205078
0, 0, 103, 269.8402404785156
0, 0, 104, 254.2578887939453
0, 0, 105, 251.7700958251953
0, 0, 106, 246.1644287109375
0, 0, 107, 151.3443145751953
0, 0, 108, 37.74594497680664
0, 0, 109, 11.47796440124512
0, 0, 110, 12.36799335479736
0, 0, 111, 9.809649467468262
0, 0, 112, 7.243767738342285
0, 0, 113, 7.628894329071045
0, 0, 114, 7.218810081481934
0, 0, 115, 5.017325878143311
0, 0, 116, 5.623335361480713
0, 0, 117, 5.103503227233887
0, 0, 118, 6.776249408721924
0, 0, 119, 3.685598611831665
0, 0, 120, 3.760214328765869
0, 0, 121, 4.019437313079834
0, 0, 122, 3.450461626052856
0, 0, 123, 2.690224170684814
0, 0, 124, 4.26771354675293
0, 0, 125, 3.097862243652344
0, 0, 126, 3.553126573562622
0, 0, 127, 3.438927888870239
0, 1, 0, 7.735721111297607
0, 1, 1, 5.421394348144531
0, 1, 2, 3.263819932937622
0, 1, 3, 2.176695108413696
0, 1, 4, 3.341407060623169
0, 1, 5, 4.028955936431885
0, 1, 6, 7.761335849761963
0, 1, 7, 6.359583854675293
0, 1, 8, 9.174433708190918
0, 1, 9, 4.435852527618408
0, 1, 10, 8.236784934997559
0, 1, 11, 12.49367618560791
0, 1, 12, 7.841245174407959
0, 1, 13, 9.846136093139648
0, 1, 14, 9.828874588012695
0, 1, 15, 7.488133907318115
0, 1, 16, 10.80419540405273
0, 1, 17, 11.44296741485596
0, 1, 18, 21.77332496643066
0, 1, 19, 65.23563385009766
0, 1, 20, 198.6876678466797
0, 1, 21, 256.1256713867188
0, 1, 22, 299.863037109375
0, 1, 23, 284.1590270996094
0, 1, 24, 275.0577697753906
0, 1, 25, 287.95458984375
0, 1, 26, 269.751708984375
0, 1, 27, 306.0240783691406
0, 1, 28, 297.8821105957031
0, 1, 29, 295.4214172363281
0, 1, 30, 283.4629821777344
0, 1, 31, 293.5914001464844
0, 1, 32, 290.7098083496094
0, 1, 33, 294.7906799316406
0, 1, 34, 292.5403442382812
0, 1, 35, 278.5142822265625
0, 1, 36, 306.4634094238281
0, 1, 37, 295.6150207519531
0, 1, 38, 281.8094482421875
0, 1, 39, 296.4832153320312
0, 1, 40, 264.5273742675781
0, 1, 41, 285.369384765625
0, 1, 42, 289.1560974121094
0, 1, 43, 332.0214233398438
0, 1, 44, 278.6761169433594
0, 1, 45, 292.1673583984375
0, 1, 46, 261.4081420898438
0, 1, 47, 310.7301025390625
0, 1, 48, 283.7955017089844
0, 1, 49, 302.640380859375
0, 1, 50, 263.1413269042969
0, 1, 51, 272.3899841308594
0, 1, 52, 294.1219482421875
0, 1, 53, 304.315673828125
0, 1, 54, 273.9324645996094
0, 1, 55, 292.1588439941406
0, 1, 56, 280.9990234375
0, 1, 57, 299.1587829589844
0, 1, 58, 310.3450012207031
0, 1, 59, 295.206787109375
0, 1, 60, 296.8143310546875
0, 1, 61, 275.9139099121094
0, 1, 62, 312.48193359375
0, 1, 63, 285.5120849609375
0, 1, 64, 290.3114318847656
0, 1, 65, 296.3402099609375
0, 1, 66, 292.6665954589844
0, 1, 67, 291.335693359375
0, 1, 68, 278.6117248535156
0, 1, 69, 279.8716430664062
0, 1, 70, 270.9345397949219
0, 1, 71, 272.3218383789062
0, 1, 72, 284.4027709960938
0, 1, 73, 303.3951721191406
0, 1, 74, 305.7021179199219
0, 1, 75, 293.81396484375
0, 1, 76, 284.6806640625
0, 1, 77, 290.2242431640625
0, 1, 78, 296.2744445800781
0, 1, 79, 300.9122009277344
0, 1, 80, 299.7391967773438
0, 1, 81, 300.4601135253906
0, 1, 82, 283.6633605957031
0, 1, 83, 331.3056030273438
0, 1, 84, 308.5442199707031
0, 1, 85, 253.3656005859375
0, 1, 86, 293.2948913574219
0, 1, 87, 291.1507568359375
0, 1, 88, 298.6920471191406
0, 1, 89, 289.9151306152344
0, 1, 90, 269.8203125
0, 1, 91, 317.9977416992188
0, 1, 92, 289.5499877929688
0, 1, 93, 287.2669982910156
0, 1, 94, 304.2570495605469
0, 1, 95, 283.2939147949219
0, 1, 96, 283.4940490722656
0, 1, 97, 301.2544250488281
0, 1, 98, 279.2000732421875
0, 1, 99, 267.7214965820312
0, 1, 100, 276.5883483886719
0, 1, 101, 281.060546875
0, 1, 102, 278.2391967773438
0, 1, 103, 281.0005493164062
0, 1, 104, 306.8967590332031
0, 1, 105, 297.8342895507812
0, 1, 106, 261.3178100585938
0, 1, 107, 193.2941741943359
0, 1, 108, 80.52487945556641
0, 1, 109, 22.53411102294922
0, 1, 110, 11.14355278015137
0, 1, 111, 9.474240303039551
0, 1, 112, 15.36744403839111
0, 1, 113, 7.56316089630127
0, 1, 114, 5.458616256713867
0, 1, 115, 7.976588726043701
0, 1, 116, 11.13338756561279
0, 1, 117, 4.655987739562988
0, 1, 118, 5.065958023071289
0, 1, 119, 4.227431297302246
0, 1, 120, 4.391992568969727
0, 1, 121, 3.824215888977051
0, 1, 122, 1.885435581207275
0, 1, 123, 6.662135124206543
0, 1, 124, 6.862117290496826
0, 1, 125, 3.873477697372437
0, 1, 126, 3.236825942993164
0, 1, 127, 2.643167018890381
0, 2, 0, 4.476857662200928
0, 2, 1, 1.553766489028931
0, 2, 2, 3.025851488113403
0, 2, 3, 5.864737033843994
0, 2, 4, 3.149976968765259
0, 2, 5, 1.673578858375549
0, 2, 6, 2.675522804260254
0, 2, 7, 3.946559190750122
0, 2, 8, 4.289874076843262
0, 2, 9, 7.081307888031006
0, 2, 10, 8.868988990783691
0, 2, 11, 6.047380447387695
0, 2, 12, 5.771892070770264
0, 2, 13, 10.42092895507812
0, 2, 14, 10.10956859588623
0, 2, 15, 6.699584007263184
0, 2, 16, 10.69994258880615
0, 2, 17, 16.34301376342773
0, 2, 18, 29.60462188720703
0, 2, 19, 114.9974517822266
0, 2, 20, 247.5137176513672
0, 2, 21, 270.8542175292969
0, 2, 22, 317.7826538085938
0, 2, 23, 300.0824890136719
0, 2, 24, 285.8523864746094
0, 2, 25, 303.0050354003906
0, 2, 26, 294.86865234375
0, 2, 27, 275.1086120605469
0, 2, 28, 272.4305419921875
0, 2, 29, 275.7278442382812
0, 2, 30, 289.1159057617188
0, 2, 31, 277.0521545410156
0, 2, 32, 296.5501708984375
0, 2, 33, 280.9515686035156
0, 2, 34, 332.1310119628906
0, 2, 35, 288.2939758300781
0, 2, 36, 304.6924438476562
0, 2, 37, 315.5682067871094
0, 2, 38, 309.656005859375
0, 2, 39, 266.34716796875
0, 2, 40, 311.871826171875
0, 2, 41, 291.6538696289062
0, 2, 42, 304.7563171386719
0, 2, 43, 311.2580261230469
0, 2, 44, 311.4724426269531
0, 2, 45, 325.1968383789062
0, 2, 46, 287.7781677246094
0, 2, 47, 304.23974609375
0, 2, 48, 282.2999877929688
0, 2, 49, 278.3013305664062
0, 2, 50, 294.4493713378906
0, 2, 51, 283.9962463378906
0, 2, 52, 272.5698547363281
0, 2, 53, 287.045166015625
0, 2, 54, 279.2177734375
0, 2, 55, 275.7782897949219
0, 2, 56, 300.7247619628906
0, 2, 57, 290.6242980957031
0, 2, 58, 303.0930480957031
0, 2, 59, 289.0396728515625
0, 2, 60, 319.2524719238281
0, 2, 61, 300.8790588378906
0, 2, 62, 314.2598571777344
0, 2, 63, 306.2158508300781
0, 2, 64, 295.4453125
0, 2, 65, 313.4698486328125
0, 2, 66, 278.9554443359375
0, 2, 67, 290.5615234375
0, 2, 68, 297.1505126953125
0, 2, 69, 310.9275207519531
0, 2, 70, 334.9836730957031
0, 2, 71, 282.8281860351562
0, 2, 72, 303.0674743652344
0, 2, 73, 312.7598876953125
0, 2, 74, 286.2579650878906
0, 2, 75, 305.8633422851562
0, 2, 76, 286.6958923339844
0, 2, 77, 299.6362915039062
0, 2, 78, 313.0863342285156
0, 2, 79, 308.8938598632812
0, 2, 80, 297.0838928222656
0, 2, 81, 280.9284057617188
0, 2, 82, 318.1957092285156
0, 2, 83, 312.6788330078125
0, 2, 84, 288.0145568847656
0, 2, 85, 280.6820983886719
0, 2, 86, 325.4617004394531
0, 2, 87, 286.282470703125
0, 2, 88, 281.2092895507812
0, 2, 89, 296.5278015136719
0, 2, 90, 294.9588012695312
0, 2, 91, 276.3289794921875
0, 2, 92, 308.2558898925781
0, 2, 93, 316.8682556152344
0, 2, 94, 291.5671081542969
0, 2, 95, 316.2283325195312
0, 2, 96, 314.5301513671875
0, 2, 97, 290.3017272949219
0, 2, 98, 295.1819763183594
0, 2, 99, 273.3311462402344
0, 2, 100, 306.0981140136719
0, 2, 101, 300.2073364257812
0, 2, 102, 297.2637634277344
0, 2, 103, 292.3236999511719
0, 2, 104, 292.7322692871094
0, 2, 105, 274.9125671386719
0, 2, 106, 297.8076782226562
0, 2, 107, 269.7060241699219
0, 2, 108, 116.2782135009766
0, 2, 109, 31.57883071899414
0, 2, 110, 9.83399486541748
0, 2, 111, 11.42716026306152
0, 2, 112, 8.886631011962891
0, 2, 113, 10.6716775894165
0, 2, 114, 8.270166397094727
0, 2, 115, 9.518852233886719
0, 2, 116, 10.68769645690918
0, 2, 117, 7.291556358337402
0, 2, 118, 2.514126300811768
0, 2, 119, 4.004342555999756
0, 2, 120, 7.119170665740967
0, 2, 121, 1.914804458618164
0, 2, 122, 2.967633724212646
0, 2, 123, 3.163472414016724
0, 2, 124, 6.041067600250244
0, 2, 125, 4.033295631408691
0, 2, 126, 3.251527070999146
0, 2, 127, 5.071558952331543
0, 3, 0, 2.942450761795044
0, 3, 1, 4.423885822296143
0, 3, 2, 3.749775409698486
0, 3, 3, 4.708571910858154
0, 3, 4, 2.444765090942383
0, 3, 5, 6.062281608581543
0, 3, 6, 8.773349761962891
0, 3, 7, 4.533411026000977
0, 3, 8, 5.302776336669922
0, 3, 9, 6.919249057769775
0, 3, 10, 6.2651047706604
0, 3, 11, 3.867689847946167
0, 3, 12, 9.597912788391113
0, 3, 13, 14.12618350982666
0, 3, 14, 10.5071907043457
0, 3, 15, 15.4538745880127
0, 3, 16, 11.28662204742432
0, 3, 17, 20.88848114013672
0, 3, 18, 54.42106628417969
0, 3, 19, 175.9676208496094
0, 3, 20, 268.7113647460938
0, 3, 21, 270.9772644042969
0, 3, 22, 280.8266296386719
0, 3, 23, 285.9540710449219
0, 3, 24, 286.788330078125
0, 3, 25, 270.3241882324219
0, 3, 26, 303.6465759277344
0, 3, 27, 291.6099853515625
0, 3, 28, 280.1434631347656
0, 3, 29, 339.2254943847656
0, 3, 30, 315.3147583007812
0, 3, 31, 285.9923400878906
0, 3, 32, 307.8505249023438
0, 3, 33, 314.2901000976562
0, 3, 34, 321.3409729003906
0, 3, 35, 306.8332824707031
0, 3, 36, 268.6511535644531
0, 3, 37, 313.4478454589844
0, 3, 38, 303.2575988769531
0, 3, 39, 290.9783325195312
0, 3, 40, 266.55712890625
0, 3, 41, 303.0178527832031
0, 3, 42, 284.4894104003906
0, 3, 43, 307.4202575683594
0, 3, 44, 311.0803527832031
0, 3, 45, 291.0987243652344
0, 3, 46, 328.0947875976562
0, 3, 47, 300.5441589355469
0, 3, 48, 302.92138671875
0, 3, 49, 276.3503723144531
0, 3, 50, 288.6420593261719
0, 3, 51, 276.1575622558594
0, 3, 52, 315.0940246582031
0, 3, 53, 286.4507751464844
0, 3, 54, 285.9917602539062
0, 3, 55, 283.6677856445312
0, 3, 56, 298.2886047363281
0, 3, 57, 289.4454345703125
0, 3, 58, 306.3111877441406
0, 3, 59, 294.1983947753906
0, 3, 60, 297.7345886230469
0, 3, 61, 264.7032470703125
0, 3, 62, 286.5670471191406
0, 3, 63, 306.5947570800781
0, 3, 64, 315.7545776367188
0, 3, 65, 306.4002685546875
0, 3, 66, 314.5577392578125
0, 3, 67, 317.1719665527344
0, 3, 68, 282.6207580566406
0, 3, 69, 283.57958984375
0, 3, 70, 287.6585388183594
0, 3, 71, 301.9788513183594
0, 3, 72, 270.2114562988281
0, 3, 73, 309.2771301269531
0, 3, 74, 292.1641845703125
0, 3, 75, 291.1750183105469
0, 3, 76, 305.7145080566406
0, 3, 77, 315.6280212402344
0, 3, 78, 302.5926208496094
0, 3, 79, 281.7673645019531
0, 3, 80, 289.61572265625
0, 3, 81, 312.4012145996094
0, 3, 82, 318.2433166503906
0, 3, 83, 301.77099609375
0, 3, 84, 311.8669128417969
0, 3, 85, 293.10205078125
0, 3, 86, 304.5883483886719
0, 3, 87, 297.0513610839844
0, 3, 88, 297.9381103515625
0, 3, 89, 294.9919738769531
0, 3, 90, 278.5169982910156
0, 3, 91, 284.9878540039062
0, 3, 92, 303.6438903808594
0, 3, 93, 314.2398986816406
0, 3, 94, 297.6622924804688
0, 3, 95, 333.7843017578125
0, 3, 96, 289.169921875
0, 3, 97, 285.5033874511719
0, 3, 98, 278.7777404785156
0, 3, 99, 261.5538940429688
0, 3, 100, 283.7575073242188
0, 3, 101, 296.6907043457031
0, 3, 102, 274.8033447265625
0, 3, 103, 320.3533325195312
0, 3, 104, 307.3213806152344
0, 3, 105, 287.8561096191406
0, 3, 106, 306.5932006835938
0, 3, 107, 281.6053771972656
0, 3, 108, 168.1948852539062
0, 3, 109, 56.03561401367188
0, 3, 110, 17.33652877807617
0, 3, 111, 13.40100479125977
0, 3, 112, 14.10141754150391
0, 3, 113, 8.800449371337891
0, 3, 114, 8.923975944519043
0, 3, 115, 7.609791278839111
0, 3, 116, 10.13475036621094
0, 3, 117, 8.985296249389648
0, 3, 118, 9.346494674682617
0, 3, 119, 6.330935001373291
0, 3, 120, 8.515174865722656
0, 3, 121, 1.732674241065979
0, 3, 122, 3.483957290649414
0, 3, 123, 4.865232944488525
0, 3, 124, 1.944418907165527
0, 3, 125, 7.046150207519531
0, 3, 126, 6.801884651184082
0, 3, 127, 3.615046977996826
0, 4, 0, 1.671179175376892
0, 4, 1, 3.641476154327393
0, 4, 2, 3.823166608810425
0, 4, 3, 3.456085920333862
0, 4, 4, 6.6109619140625
0, 4, 5, 8.152193069458008
0, 4, 6, 6.838235855102539
0, 4, 7, 4.737201690673828
0, 4, 8, 6.998560428619385
0, 4, 9, 6.893136024475098
0, 4, 10, 6.583054065704346
0, 4, 11, 6.082129001617432
0, 4, 12, 5.154850006103516
0, 4, 13, 7.748830318450928
0, 4, 14, 10.4719181060791
0, 4, 15, 9.05888557434082
0, 4, 16, 13.56045246124268
0, 4, 17, 18.68610382080078
0, 4, 18, 92.6788330078125
0, 4, 19, 221.4116363525391
0, 4, 20, 285.2501831054688
0, 4, 21, 273.5287170410156
0, 4, 22, 303.8568725585938
0, 4, 23, 266.2210388183594
0, 4, 24, 289.2084655761719
0, 4, 25, 272.8382873535156
0, 4, 26, 294.4501342773438
0, 4, 27, 282.3979187011719
0, 4, 28, 306.7619934082031
0, 4, 29, 323.2352294921875
0, 4, 30, 309.9903869628906
0, 4, 31, 307.4508972167969
0, 4, 32, 280.4324340820312
0, 4, 33, 297.2477722167969
0, 4, 34, 295.0592346191406
0, 4, 35, 311.3217163085938
0, 4, 36, 292.729736328125
0, 4, 37, 287.4469604492188
0, 4, 38, 299.3106689453125
0, 4, 39, 295.1734313964844
0, 4, 40, 302.1937561035156
0, 4, 41, 310.3638305664062
0, 4, 42, 329.6255187988281
0, 4, 43, 296.0935668945312
0, 4, 44, 321.8413696289062
0, 4, 45, 324.2213745117188
0, 4, 46, 304.2901916503906
0, 4, 47, 293.3124084472656
0, 4, 48, 295.5386047363281
0, 4, 49, 277.7955322265625
0, 4, 50, 296.6558837890625
0, 4, 51, 316.833740234375
0, 4, 52, 326.5746459960938
0, 4, 53, 304.4899597167969
0, 4, 54, 287.9462890625
0, 4, 55, 315.7368774414062
0, 4, 56, 284.9053039550781
0, 4, 57, 310.399169921875
0, 4, 58, 298.1521301269531
0, 4, 59, 309.0105895996094
0, 4, 60, 302.6583251953125
0, 4, 61, 315.8204956054688
0, 4, 62, 308.6838684082031
0, 4, 63, 297.1632385253906
0, 4, 64, 333.5346374511719
0, 4, 65, 314.7278137207031
0, 4, 66, 295.0220642089844
0, 4, 67, 284.0633544921875
0, 4, 68, 312.5458068847656
0, 4, 69, 275.4963073730469
0, 4, 70, 299.4595031738281
0, 4, 71, 324.0223999023438
0, 4, 72, 334.4706115722656
0, 4, 73, 300.1606750488281
0, 4, 74, 294.2397766113281
0, 4, 75, 288.0443420410156
0, 4, 76, 274.4373168945312
0, 4, 77, 278.0347290039062
0, 4, 78, 309.9024047851562
0, 4, 79, 320.5775756835938
0, 4, 80, 316.2283020019531
0, 4, 81, 311.7725830078125
0, 4, 82, 298.2685241699219
0, 4, 83, 300.87890625
0, 4, 84, 291.157958984375
0, 4, 85, 295.4218444824219
0, 4, 86, 296.430419921875
0, 4, 87, 286.2326049804688
0, 4, 88, 304.5565795898438
0, 4, 89, 294.9730834960938
0, 4, 90, 332.3867797851562
0, 4, 91, 302.259033203125
0, 4, 92, 288.0400695800781
0, 4, 93, 296.9617614746094
0, 4, 94, 294.0736083984375
0, 4, 95, 288.1565246582031
0, 4, 96, 322.6532592773438
0, 4, 97, 274.0906372070312
0, 4, 98, 327.5389099121094
0, 4, 99, 314.6431579589844
0, 4, 100, 301.7362976074219
0, 4, 101, 256.6289367675781
0, 4, 102, 296.378173828125
0, 4, 103, 316.9021911621094
0, 4, 104, 281.9608154296875
0, 4, 105, 309.6202087402344
0, 4, 106, 287.4697265625
0, 4, 107, 295.1017761230469
0, 4, 108, 226.3875274658203
0, 4, 109, 79.73809814453125
0, 4, 110, 15.52123069763184
0, 4, 111, 13.09163856506348
0, 4, 112, 7.481476783752441
0, 4, 113, 10.83037948608398
0, 4, 114, 9.178534507751465
0, 4, 115, 11.0316047668457
0, 4, 116, 7.201563835144043
0, 4, 117, 5.483640193939209
0, 4, 118, 11.8222770690918
0, 4, 119, 8.588652610778809
0, 4, 120, 5.842721939086914
0, 4, 121, 7.425453186035156
0, 4, 122, 3.952692031860352
0, 4, 123, 6.775948047637939
0, 4, 124, 4.152804374694824
0, 4, 125, 7.847311496734619
0, 4, 126, 5.229520320892334
0, 4, 127, 5.787515640258789
0, 5, 0, 3.111970663070679
0, 5, 1, 2.884989976882935
0, 5, 2, 5.313008308410645
0, 5, 3, 3.984688997268677
0, 5, 4, 6.073020935058594
0, 5, 5, 6.107564449310303
0, 5, 6, 7.132823944091797
0, 5, 7, 4.690793037414551
0, 5, 8, 4.376150131225586
0, 5, 9, 4.867898464202881
0, 5, 10, 7.942403793334961
0, 5, 11, 7.855755805969238
0, 5, 12, 6.80830717086792
0, 5, 13, 6.013026714324951
0, 5, 14, 14.01065540313721
0, 5, 15, 17.03106689453125
0, 5, 16, 14.99863338470459
0, 5, 17, 28.81584548950195
0, 5, 18, 135.4126281738281
0, 5, 19, 286.86767578125
0, 5, 20, 308.4471130371094
0, 5, 21, 316.2141418457031
0, 5, 22, 277.0294494628906
0, 5, 23, 311.3965759277344
0, 5, 24, 301.8379516601562
0, 5, 25, 289.5210571289062
0, 5, 26, 294.4945678710938
0, 5, 27, 325.3455505371094
0, 5, 28, 303.8337097167969
0, 5, 29, 300.6273803710938
0, 5, 30, 323.6204528808594
0, 5, 31, 287.3382873535156
0, 5, 32, 302.2778625488281
0, 5, 33, 304.7221374511719
0, 5, 34, 295.0682373046875
0, 5, 35, 311.4912414550781
0, 5, 36, 269.5614624023438
0, 5, 37, 282.2610473632812
0, 5, 38, 292.6998901367188
0, 5, 39, 311.1174621582031
0, 5, 40, 308.1671447753906
0, 5, 41, 272.2899780273438
0, 5, 42, 305.0411987304688
0, 5, 43, 314.6734619140625
0, 5, 44, 292.2794494628906
0, 5, 45, 300.2458801269531
0, 5, 46, 265.6074829101562
0, 5, 47, 279.852783203125
0, 5, 48, 294.6222229003906
0, 5, 49, 289.0501708984375
0, 5, 50, 296.1226806640625
0, 5, 51, 279.7987060546875
0, 5, 52, 267.738525390625
0, 5, 53, 282.8416442871094
0, 5, 54, 292.6339111328125
0, 5, 55, 344.0155029296875
0, 5, 56, 305.9690856933594
0, 5, 57, 306.5321350097656
0, 5, 58, 312.4907531738281
0, 5, 59, 302.8428039550781
0, 5, 60, 308.2154235839844
0, 5, 61, 280.972412109375
0, 5, 62, 326.5718994140625
0, 5, 63, 290.4350280761719
0, 5, 64, 325.8161926269531
0, 5, 65, 307.0258483886719
0, 5, 66, 327.8790893554688
0, 5, 67, 313.8273620605469
0, 5, 68, 308.8392028808594
0, 5, 69, 310.3707580566406
0, 5, 70, 302.0031433105469
0, 5, 71, 273.40625
0, 5, 72, 309.1656494140625
0, 5, 73, 301.3227233886719
0, 5, 74, 295.3779907226562
0, 5, 75, 293.5658874511719
0, 5, 76, 286.8686218261719
0, 5, 77, 297.7550659179688
0, 5, 78, 315.6426391601562
0, 5, 79, 307.2372741699219
0, 5, 80, 295.3554077148438
0, 5, 81, 325.1813354492188
0, 5, 82, 324.9074096679688
0, 5, 83, 281.27490234375
0, 5, 84, 301.7467956542969
0, 5, 85, 273.5355529785156
0, 5, 86, 327.5706787109375
0, 5, 87, 286.5578002929688
0, 5, 88, 314.5634155273438
0, 5, 89, 303.6429748535156
0, 5, 90, 315.3175048828125
0, 5, 91, 314.0947875976562
0, 5, 92, 295.4715881347656
0, 5, 93, 322.0141296386719
0, 5, 94, 307.527099609375
0, 5, 95, 296.7542724609375
0, 5, 96, 298.9068908691406
0, 5, 97, 295.54443359375
0, 5, 98, 318.8781127929688
0, 5, 99, 300.9622802734375
0, 5, 100, 290.8128051757812
0, 5, 101, 306.9965515136719
0, 5, 102, 292.6192016601562
0, 5, 103, 313.3366394042969
0, 5, 104, 304.1068115234375
0, 5, 105, 290.8558959960938
0, 5, 106, 282.2673950195312
0, 5, 107, 293.7476196289062
0, 5, 108, 267.0376281738281
0, 5, 109, 156.8954162597656
0, 5, 110, 40.41335296630859
0, 5, 111, 22.15175437927246
0, 5, 112, 15.08329391479492
0, 5, 113, 16.10660171508789
0, 5, 114, 12.96422672271729
0, 5, 115, 7.582687854766846
0, 5, 116, 7.349307060241699
0, 5, 117, 8.808986663818359
0, 5, 118, 12.5288257598877
0, 5, 119, 5.447658538818359
0, 5, 120, 7.1102614402771
0, 5, 121, 5.538196563720703
0, 5, 122, 11.08373546600342
0, 5, 123, 5.471220970153809
0, 5, 124, 5.454373359680176
0, 5, 125, 5.169491767883301
0, 5, 126, 8.128338813781738
0, 5, 127, 4.853893280029297
0, 6, 0, 6.519577980041504
0, 6, 1, 1.819437980651855
0, 6, 2, 5.062091827392578
0, 6, 3, 5.186922550201416
0, 6, 4, 3.74519681930542
0, 6, 5, 6.676659107208252
0, 6, 6, 7.76401424407959
0, 6, 7, 5.465614795684814
0, 6, 8, 6.579033851623535
0, 6, 9, 6.522664070129395
0, 6, 10, 9.637162208557129
0, 6, 11, 8.17682933807373
0, 6, 12, 9.314497947692871
0, 6, 13, 13.20591068267822
0, 6, 14, 8.461813926696777
0, 6, 15, 16.84354972839355
0, 6, 16, 27.6231632232666
0, 6, 17, 55.02443313598633
0, 6, 18, 174.7321929931641
0, 6, 19, 276.9535217285156
0, 6, 20, 290.5454711914062
0, 6, 21, 312.4498291015625
0, 6, 22, 319.6886901855469
0, 6, 23, 307.0346069335938
0, 6, 24, 316.0237731933594
0, 6, 25, 318.3490905761719
0, 6, 26, 320.9335327148438
0, 6, 27, 329.9928283691406
0, 6, 28, 294.7886047363281
0, 6, 29, 328.5874328613281
0, 6, 30, 283.8143920898438
0, 6, 31, 285.8182373046875
0, 6, 32, 340.3460998535156
0, 6, 33, 302.0370788574219
0, 6, 34, 340.5398254394531
0, 6, 35, 320.4158935546875
0, 6, 36, 272.8887939453125
0, 6, 37, 289.5323181152344
0, 6, 38, 312.3983764648438
0, 6, 39, 297.9885864257812
0, 6, 40, 284.434814453125
0, 6, 41, 295.9206848144531
0, 6, 42, 305.0378723144531
0, 6, 43, 288.2077026367188
0, 6, 44, 279.1513671875
0, 6, 45, 319.791748046875
0, 6, 46, 300.9766845703125
0, 6, 47, 332.439453125
0, 6, 48, 292.7462768554688
0, 6, 49, 311.6217041015625
0, 6, 50, 329.103271484375
0, 6, 51, 309.8726196289062
0, 6, 52, 320.71875
0, 6, 53, 327.5633239746094
0, 6, 54, 302.3853759765625
0, 6, 55, 307.8196716308594
0, 6, 56, 293.8927307128906
0, 6, 57, 311.9490051269531
0, 6, 58, 264.3253173828125
0, 6, 59, 301.9765930175781
0, 6, 60, 314.141357421875
0, 6, 61, 269.9934692382812
0, 6, 62, 339.7412414550781
0, 6, 63, 324.3009338378906
0, 6, 64, 289.8589172363281
0, 6, 65, 284.0952758789062
0, 6, 66, 302.836181640625
0, 6, 67, 309.1253967285156
0, 6, 68, 293.0779724121094
0, 6, 69, 280.1030578613281
0, 6, 70, 274.4685363769531
0, 6, 71, 288.9945983886719
0, 6, 72, 309.5252075195312
0, 6, 73, 291.884033203125
0, 6, 74, 331.1252136230469
0, 6, 75, 343.6919555664062
0, 6, 76, 297.461669921875
0, 6, 77, 287.566162109375
0, 6, 78, 279.1199035644531
0, 6, 79, 291.9622192382812
0, 6, 80, 298.0292358398438
0, 6, 81, 316.65966796875
0, 6, 82, 319.09375
0, 6, 83, 320.2265319824219
0, 6, 84, 297.2750549316406
0, 6, 85, 301.8889465332031
0, 6, 86, 329.3571166992188
0, 6, 87, 289.0953063964844
0, 6, 88, 305.2772827148438
0, 6, 89, 303.9167175292969
0, 6, 90, 300.558837890625
0, 6, 91, 310.2406921386719
0, 6, 92, 284.4694213867188
0, 6, 93, 295.1108093261719
0, 6, 94, 272.5514526367188
0, 6, 95, 300.3714599609375
0, 6, 96, 346.2093200683594
0, 6, 97, 311.7861022949219
0, 6, 98, 302.8388061523438
0, 6, 99, 273.0142822265625
0, 6, 100, 308.9700622558594
0, 6, 101, 292.47900390625
0, 6, 102, 308.1490783691406
0, 6, 103, 309.0506286621094
0, 6, 104, 293.68994140625
0, 6, 105, 301.3810119628906
0, 6, 106, 307.7649536132812
0, 6, 107, 305.5282592773438
0, 6, 108, 265.0949096679688
0, 6, 109, 186.4435272216797
0, 6, 110, 54.90028381347656
0, 6, 111, 21.56360054016113
0, 6, 112, 13.75244903564453
0, 6, 113, 10.4496431350708
0, 6, 114, 13.60847187042236
0, 6, 115, 11.37422943115234
0, 6, 116, 10.18206691741943
0, 6, 117, 6.183193683624268
0, 6, 118, 8.817327499389648
0, 6, 119, 8.160669326782227
0, 6, 120, 5.501212120056152
0, 6, 121, 6.88248348236084
0, 6, 122, 5.903245449066162
0, 6, 123, 5.303669452667236
0, 6, 124, 6.666802883148193
0, 6, 125, 5.761922836303711
0, 6, 126, 3.273974418640137
0, 6, 127, 7.018586158752441
0, 7, 0, 4.351210117340088
0, 7, 1, 3.991506099700928
0, 7, 2, 6.593652725219727
0, 7, 3, 3.701441764831543
0, 7, 4, 4.185029983520508
0, 7, 5, 3.389381885528564
0, 7, 6, 5.267868995666504
0, 7, 7, 7.03603982925415
0, 7, 8, 6.247012138366699
0, 7, 9, 8.651957511901855
0, 7, 10, 8.487343788146973
0, 7, 11, 12.00587272644043
0, 7, 12, 9.359368324279785
0, 7, 13, 10.45292949676514
0, 7, 14, 10.77107620239258
0, 7, 15, 15.36882591247559
0, 7, 16, 26.92225074768066
0, 7, 17, 99.89765167236328
0, 7, 18, 217.4035186767578
0, 7, 19, 288.8726806640625
0, 7, 20, 297.4650268554688
0, 7, 21, 277.4532165527344
0, 7, 22, 299.370361328125
0, 7, 23, 291.5003356933594
0, 7, 24, 313.6745910644531
0, 7, 25, 324.7879638671875
0, 7, 26, 276.6229553222656
0, 7, 27, 298.324951171875
0, 7, 28, 328.4387512207031
0, 7, 29, 317.7458801269531
0, 7, 30, 298.3013610839844
0, 7, 31, 278.5991821289062
0, 7, 32, 304.6366882324219
0, 7, 33, 261.1188659667969
0, 7, 34, 296.3551025390625
0, 7, 35, 320.4443664550781
0, 7, 36, 329.5724182128906
0, 7, 37, 325.4747619628906
0, 7, 38, 297.0177001953125
0, 7, 39, 307.6032409667969
0, 7, 40, 289.4869079589844
0, 7, 41, 273.2470397949219
0, 7, 42, 300.2534790039062
0, 7, 43, 276.6200866699219
0, 7, 44, 304.0430908203125
0, 7, 45, 297.4756164550781
0, 7, 46, 285.1270751953125
0, 7, 47, 329.2568969726562
0, 7, 48, 285.5951843261719
0, 7, 49, 301.5659790039062
0, 7, 50, 322.0789184570312
0, 7, 51, 298.0788269042969
0, 7, 52, 325.6831359863281
0, 7, 53, 310.9622802734375
0, 7, 54, 324.0453186035156
0, 7, 55, 306.3360900878906
0, 7, 56, 282.9428100585938
0, 7, 57, 280.92626953125
0, 7, 58, 296.6874389648438
0, 7, 59, 292.6586303710938
0, 7, 60, 321.635009765625
0, 7, 61, 277.5589294433594
0, 7, 62, 297.6858215332031
0, 7, 63, 294.0705871582031
0, 7, 64, 304.4161376953125
0, 7, 65, 331.6679992675781
0, 7, 66, 319.6825866699219
0, 7, 67, 301.7454223632812
0, 7, 68, 279.1856689453125
0, 7, 69, 295.8713684082031
0, 7, 70, 301.877685546875
0, 7, 71, 310.1380004882812
0, 7, 72, 283.9161071777344
0, 7, 73, 296.4136047363281
0, 7, 74, 343.6142883300781
0, 7, 75, 317.9854125976562
0, 7, 76, 322.7953796386719
0, 7, 77, 281.3521423339844
0, 7, 78, 300.5179748535156
0, 7, 79, 299.2923278808594
0, 7, 80, 310.2031860351562
0, 7, 81, 321.9345397949219
0, 7, 82, 329.00341796875
0, 7, 83, 317.9432373046875
0, 7, 84, 310.8301696777344
0, 7, 85, 273.3012084960938
0, 7, 86, 311.5281372070312
0, 7, 87, 310.4142150878906
0, 7, 88, 305.8537292480469
0, 7, 89, 293.3560180664062
0, 7, 90, 307.6663818359375
0, 7, 91, 314.366455078125
0, 7, 92, 290.5652465820312
0, 7, 93, 308.3624877929688
0, 7, 94, 277.9041748046875
0, 7, 95, 296.9275207519531
0, 7, 96, 331.1717224121094
0, 7, 97, 295.5523376464844
0, 7, 98, 291.0049743652344
0, 7, 99, 315.6811828613281
0, 7, 100, 283.0653076171875
0, 7, 101, 275.0096130371094
0, 7, 102, 290.9609069824219
0, 7, 103, 291.6296997070312
0, 7, 104, 276.4782409667969
0, 7, 105, 305.4058532714844
0, 7, 106, 317.3770446777344
0, 7, 107, 296.4325256347656
0, 7, 108, 273.7536010742188
0, 7, 109, 237.8159027099609
0, 7, 110, 94.75460815429688
0, 7, 111, 23.3841438293457
0, 7, 112, 13.84206390380859
0, 7, 113, 13.78053283691406
0, 7, 114, 12.17421817779541
0, 7, 115, 13.55826663970947
0, 7, 116, 8.479464530944824
0, 7, 117, 7.840615272521973
0, 7, 118, 5.994897842407227
0, 7, 119, 10.82253551483154
0, 7, 120, 7.234190464019775
0, 7, 121, 7.719574451446533
0, 7, 122, 6.026618480682373
0, 7, 123, 6.79920768737793
0, 7, 124, 3.233693361282349
0, 7, 125, 5.730530738830566
0, 7, 126, 8.197785377502441
0, 7, 127, 3.532957792282104
0, 8, 0, 7.542835712432861
0, 8, 1, 3.473188877105713
0, 8, 2, 3.012746095657349
0, 8, 3, 4.071011066436768
0, 8, 4, 3.644749402999878
0, 8, 5, 7.42413854598999
0, 8, 6, 5.200971603393555
0, 8, 7, 5.841565608978271
0, 8, 8, 9.077836990356445
0, 8, 9, 5.907955169677734
0, 8, 10, 7.701000690460205
0, 8, 11, 11.31009101867676
0, 8, 12, 15.2041540145874
0, 8, 13, 17.29905700683594
0, 8, 14, 11.34309387207031
0, 8, 15, 19.74958229064941
0, 8, 16, 31.80874061584473
0, 8, 17, 131.4047393798828
0, 8, 18, 241.7717895507812
0, 8, 19, 295.447509765625
0, 8, 20, 285.8273010253906
0, 8, 21, 307.5107116699219
0, 8, 22, 295.0175476074219
0, 8, 23, 275.7292785644531
0, 8, 24, 268.8400268554688
0, 8, 25, 275.7546997070312
0, 8, 26, 305.9659423828125
0, 8, 27, 307.1341552734375
0, 8, 28, 304.3619384765625
0, 8, 29, 319.4079895019531
0, 8, 30, 313.2530517578125
0, 8, 31, 303.6099548339844
0, 8, 32, 280.5448303222656
0, 8, 33, 292.6247253417969
0, 8, 34, 288.9819946289062
0, 8, 35, 281.2760620117188
0, 8, 36, 315.6813659667969
0, 8, 37, 341.1719970703125
0, 8, 38, 333.1278076171875
0, 8, 39, 281.2195129394531
