# TOPAS Version: 3.1.p3
# Parameter File: batch_inserts_60.txt
# Results for scorer Readout_Adipose
# Scored in component: MyBox
# X in 1 bin  of 0.75 cm
# Y in 512 bins of 0.0783984 cm
# Z in 128 bins of 0.078125 cm
# EnergyDeposit ( MeV ) : Sum   
0, 0, 0, 2.510694026947021
0, 0, 1, 1.159369230270386
0, 0, 2, 5.172461986541748
0, 0, 3, 2.872043132781982
0, 0, 4, 3.021155118942261
0, 0, 5, 3.399381399154663
0, 0, 6, 9.056036949157715
0, 0, 7, 10.08359432220459
0, 0, 8, 5.361716747283936
0, 0, 9, 3.198533773422241
0, 0, 10, 6.732457637786865
0, 0, 11, 4.962259292602539
0, 0, 12, 6.192602634429932
0, 0, 13, 6.752289295196533
0, 0, 14, 6.353043079376221
0, 0, 15, 8.013030052185059
0, 0, 16, 8.432733535766602
0, 0, 17, 8.426959991455078
0, 0, 18, 12.35823726654053
0, 0, 19, 44.36654663085938
0, 0, 20, 140.1232299804688
0, 0, 21, 222.9118804931641
0, 0, 22, 248.4295043945312
0, 0, 23, 255.4134368896484
0, 0, 24, 249.9108581542969
0, 0, 25, 259.0874633789062
0, 0, 26, 234.5156860351562
0, 0, 27, 236.7429809570312
0, 0, 28, 272.9883117675781
0, 0, 29, 252.5130615234375
0, 0, 30, 230.0615539550781
0, 0, 31, 243.6125183105469
0, 0, 32, 263.7014770507812
0, 0, 33, 261.388427734375
0, 0, 34, 288.6983947753906
0, 0, 35, 266.3839416503906
0, 0, 36, 246.6958160400391
0, 0, 37, 252.645263671875
0, 0, 38, 267.8921813964844
0, 0, 39, 228.9227905273438
0, 0, 40, 244.3057861328125
0, 0, 41, 266.0792846679688
0, 0, 42, 229.3090667724609
0, 0, 43, 258.9263000488281
0, 0, 44, 251.5239715576172
0, 0, 45, 252.9292602539062
0, 0, 46, 246.3869323730469
0, 0, 47, 254.5104217529297
0, 0, 48, 266.5921936035156
0, 0, 49, 272.9596862792969
0, 0, 50, 249.4430236816406
0, 0, 51, 255.6886749267578
0, 0, 52, 273.3055114746094
0, 0, 53, 289.9293518066406
0, 0, 54, 241.522705078125
0, 0, 55, 239.8412322998047
0, 0, 56, 280.1414489746094
0, 0, 57, 266.1899108886719
0, 0, 58, 247.3485412597656
0, 0, 59, 272.6982727050781
0, 0, 60, 234.5151672363281
0, 0, 61, 246.5159912109375
0, 0, 62, 257.2426147460938
0, 0, 63, 266.4811706542969
0, 0, 64, 256.9512329101562
0, 0, 65, 260.4494323730469
0, 0, 66, 276.0944519042969
0, 0, 67, 246.2044525146484
0, 0, 68, 259.1010131835938
0, 0, 69, 262.8447875976562
0, 0, 70, 274.3641967773438
0, 0, 71, 236.721435546875
0, 0, 72, 249.4156341552734
0, 0, 73, 261.7027893066406
0, 0, 74, 253.4437866210938
0, 0, 75, 242.1348724365234
0, 0, 76, 227.9858245849609
0, 0, 77, 262.0196533203125
0, 0, 78, 257.6595153808594
0, 0, 79, 280.0173645019531
0, 0, 80, 218.4065246582031
0, 0, 81, 267.4029235839844
0, 0, 82, 255.8868560791016
0, 0, 83, 247.1796417236328
0, 0, 84, 270.2559814453125
0, 0, 85, 230.8441619873047
0, 0, 86, 253.3538818359375
0, 0, 87, 250.8927459716797
0, 0, 88, 261.2603149414062
0, 0, 89, 283.4034423828125
0, 0, 90, 243.3274230957031
0, 0, 91, 280.2217712402344
0, 0, 92, 253.4858551025391
0, 0, 93, 250.2422637939453
0, 0, 94, 247.6296844482422
0, 0, 95, 248.0493011474609
0, 0, 96, 275.4635009765625
0, 0, 97, 271.1856689453125
0, 0, 98, 273.9098510742188
0, 0, 99, 257.5026245117188
0, 0, 100, 258.9787292480469
0, 0, 101, 225.5315246582031
0, 0, 102, 233.6879577636719
0, 0, 103, 269.3534545898438
0, 0, 104, 254.7363128662109
0, 0, 105, 251.7208557128906
0, 0, 106, 245.2159729003906
0, 0, 107, 151.60546875
0, 0, 108, 37.44866180419922
0, 0, 109, 13.38726234436035
0, 0, 110, 11.63074111938477
0, 0, 111, 10.28382205963135
0, 0, 112, 7.322500228881836
0, 0, 113, 6.910080432891846
0, 0, 114, 7.352182865142822
0, 0, 115, 5.043815135955811
0, 0, 116, 6.309421062469482
0, 0, 117, 6.137336254119873
0, 0, 118, 5.756105422973633
0, 0, 119, 4.127569675445557
0, 0, 120, 3.523494005203247
0, 0, 121, 3.395958423614502
0, 0, 122, 5.429426193237305
0, 0, 123, 3.517015933990479
0, 0, 124, 4.541382789611816
0, 0, 125, 3.710638761520386
0, 0, 126, 4.888339996337891
0, 0, 127, 5.567528247833252
0, 1, 0, 7.848390102386475
0, 1, 1, 3.662516355514526
0, 1, 2, 4.458219051361084
0, 1, 3, 3.131748914718628
0, 1, 4, 4.006005764007568
0, 1, 5, 4.372630596160889
0, 1, 6, 4.913009166717529
0, 1, 7, 3.617365598678589
0, 1, 8, 7.560395240783691
0, 1, 9, 3.690284729003906
0, 1, 10, 7.428385257720947
0, 1, 11, 11.87061023712158
0, 1, 12, 9.710563659667969
0, 1, 13, 9.846055030822754
0, 1, 14, 7.873881340026855
0, 1, 15, 7.293681621551514
0, 1, 16, 11.19480514526367
0, 1, 17, 11.6234712600708
0, 1, 18, 20.80799865722656
0, 1, 19, 66.70484161376953
0, 1, 20, 198.3169708251953
0, 1, 21, 254.4062347412109
0, 1, 22, 295.8707885742188
0, 1, 23, 284.4156494140625
0, 1, 24, 275.7132873535156
0, 1, 25, 290.8291625976562
0, 1, 26, 267.6374816894531
0, 1, 27, 306.9531860351562
0, 1, 28, 300.3150634765625
0, 1, 29, 298.0093688964844
0, 1, 30, 281.4086608886719
0, 1, 31, 294.4075622558594
0, 1, 32, 289.3259887695312
0, 1, 33, 295.2874450683594
0, 1, 34, 293.4324645996094
0, 1, 35, 281.8103637695312
0, 1, 36, 306.5247802734375
0, 1, 37, 294.0216369628906
0, 1, 38, 278.8728942871094
0, 1, 39, 295.0481567382812
0, 1, 40, 265.6366577148438
0, 1, 41, 286.1005859375
0, 1, 42, 290.951171875
0, 1, 43, 332.1728210449219
0, 1, 44, 278.6511840820312
0, 1, 45, 292.2253723144531
0, 1, 46, 260.1822509765625
0, 1, 47, 309.6878662109375
0, 1, 48, 285.3272399902344
0, 1, 49, 301.6976013183594
0, 1, 50, 263.322265625
0, 1, 51, 278.0698547363281
0, 1, 52, 298.1376037597656
0, 1, 53, 305.65625
0, 1, 54, 273.7588806152344
0, 1, 55, 296.5568237304688
0, 1, 56, 277.1835021972656
0, 1, 57, 297.1993713378906
0, 1, 58, 311.3811950683594
0, 1, 59, 294.1210327148438
0, 1, 60, 297.5302124023438
0, 1, 61, 274.8601989746094
0, 1, 62, 307.3932495117188
0, 1, 63, 287.5729675292969
0, 1, 64, 289.09228515625
0, 1, 65, 294.6527404785156
0, 1, 66, 293.832275390625
0, 1, 67, 291.0315246582031
0, 1, 68, 276.9024047851562
0, 1, 69, 279.870849609375
0, 1, 70, 270.1470031738281
0, 1, 71, 272.4608764648438
0, 1, 72, 286.2445373535156
0, 1, 73, 305.0207824707031
0, 1, 74, 304.0807189941406
0, 1, 75, 293.6292419433594
0, 1, 76, 284.7596435546875
0, 1, 77, 291.7524719238281
0, 1, 78, 297.8165893554688
0, 1, 79, 303.6690368652344
0, 1, 80, 294.3359680175781
0, 1, 81, 300.0914916992188
0, 1, 82, 284.1874389648438
0, 1, 83, 332.2123107910156
0, 1, 84, 307.7047119140625
0, 1, 85, 254.1807556152344
0, 1, 86, 295.1559448242188
0, 1, 87, 290.092041015625
0, 1, 88, 298.1273803710938
0, 1, 89, 292.6521911621094
0, 1, 90, 270.2054138183594
0, 1, 91, 319.0169982910156
0, 1, 92, 289.5910339355469
0, 1, 93, 285.44580078125
0, 1, 94, 303.22314453125
0, 1, 95, 283.31201171875
0, 1, 96, 281.9872741699219
0, 1, 97, 301.6372680664062
0, 1, 98, 278.9774169921875
0, 1, 99, 265.1233825683594
0, 1, 100, 277.7986450195312
0, 1, 101, 281.5077514648438
0, 1, 102, 279.4831237792969
0, 1, 103, 280.2694702148438
0, 1, 104, 306.4255065917969
0, 1, 105, 297.336181640625
0, 1, 106, 260.0174255371094
0, 1, 107, 195.4218597412109
0, 1, 108, 83.05049896240234
0, 1, 109, 25.45713233947754
0, 1, 110, 10.85503768920898
0, 1, 111, 8.491818428039551
0, 1, 112, 12.57412338256836
0, 1, 113, 8.075549125671387
0, 1, 114, 7.114284515380859
0, 1, 115, 6.895421028137207
0, 1, 116, 13.67801380157471
0, 1, 117, 5.208197593688965
0, 1, 118, 4.658304214477539
0, 1, 119, 4.326056480407715
0, 1, 120, 3.633139133453369
0, 1, 121, 4.688751697540283
0, 1, 122, 3.874608993530273
0, 1, 123, 3.702080965042114
0, 1, 124, 7.071359634399414
0, 1, 125, 2.934510469436646
0, 1, 126, 1.402161478996277
0, 1, 127, 2.387130737304688
0, 2, 0, 5.950864315032959
0, 2, 1, 2.214511632919312
0, 2, 2, 5.256946563720703
0, 2, 3, 6.317972660064697
0, 2, 4, 3.060025691986084
0, 2, 5, 1.764785289764404
0, 2, 6, 2.67253303527832
0, 2, 7, 3.750983953475952
0, 2, 8, 6.056009769439697
0, 2, 9, 6.541580677032471
0, 2, 10, 7.313503742218018
0, 2, 11, 7.87243127822876
0, 2, 12, 8.923282623291016
0, 2, 13, 10.34487247467041
0, 2, 14, 8.735034942626953
0, 2, 15, 7.625664710998535
0, 2, 16, 11.0938663482666
0, 2, 17, 16.96289253234863
0, 2, 18, 28.88756370544434
0, 2, 19, 117.1190643310547
0, 2, 20, 245.4483184814453
0, 2, 21, 272.4197692871094
0, 2, 22, 316.9603271484375
0, 2, 23, 299.9674682617188
0, 2, 24, 288.7155151367188
0, 2, 25, 302.1337890625
0, 2, 26, 291.8764953613281
0, 2, 27, 275.4542846679688
0, 2, 28, 273.0629272460938
0, 2, 29, 272.2653198242188
0, 2, 30, 289.7688293457031
0, 2, 31, 277.8993530273438
0, 2, 32, 294.0912780761719
0, 2, 33, 283.5003662109375
0, 2, 34, 333.2978210449219
0, 2, 35, 289.3412475585938
0, 2, 36, 303.9565734863281
0, 2, 37, 315.6880798339844
0, 2, 38, 312.9224853515625
0, 2, 39, 266.0629577636719
0, 2, 40, 308.1874389648438
0, 2, 41, 293.4151000976562
0, 2, 42, 303.0502319335938
0, 2, 43, 311.5207824707031
0, 2, 44, 312.1079711914062
0, 2, 45, 325.2254638671875
0, 2, 46, 287.2159118652344
0, 2, 47, 303.1067504882812
0, 2, 48, 284.5751647949219
0, 2, 49, 279.0916442871094
0, 2, 50, 293.9426574707031
0, 2, 51, 284.2322082519531
0, 2, 52, 271.2870788574219
0, 2, 53, 287.4379577636719
0, 2, 54, 280.3850708007812
0, 2, 55, 274.884521484375
0, 2, 56, 302.8293151855469
0, 2, 57, 293.9761047363281
0, 2, 58, 302.0690307617188
0, 2, 59, 287.5947265625
0, 2, 60, 318.6322326660156
0, 2, 61, 300.5453491210938
0, 2, 62, 313.4053039550781
0, 2, 63, 304.0580444335938
0, 2, 64, 295.1369934082031
0, 2, 65, 312.7380676269531
0, 2, 66, 278.9154357910156
0, 2, 67, 293.5015563964844
0, 2, 68, 296.5495910644531
0, 2, 69, 310.7799987792969
0, 2, 70, 333.3682556152344
0, 2, 71, 282.3752746582031
0, 2, 72, 304.9755249023438
0, 2, 73, 310.3990478515625
0, 2, 74, 286.603271484375
0, 2, 75, 304.5090637207031
0, 2, 76, 286.1756286621094
0, 2, 77, 299.3752746582031
0, 2, 78, 313.7212219238281
0, 2, 79, 309.1059265136719
0, 2, 80, 299.03369140625
0, 2, 81, 282.8456420898438
0, 2, 82, 317.8765563964844
0, 2, 83, 312.8267211914062
0, 2, 84, 289.0504455566406
0, 2, 85, 283.6384887695312
0, 2, 86, 322.9756774902344
0, 2, 87, 287.2361450195312
0, 2, 88, 280.4878234863281
0, 2, 89, 294.0753784179688
0, 2, 90, 296.501220703125
0, 2, 91, 279.1178894042969
0, 2, 92, 305.3773498535156
0, 2, 93, 318.3323669433594
0, 2, 94, 292.1397094726562
0, 2, 95, 315.2752075195312
0, 2, 96, 314.3934631347656
0, 2, 97, 292.3975830078125
0, 2, 98, 294.94384765625
0, 2, 99, 272.2401123046875
0, 2, 100, 305.1676635742188
0, 2, 101, 301.2578125
0, 2, 102, 295.9432373046875
0, 2, 103, 291.9593200683594
0, 2, 104, 293.226318359375
0, 2, 105, 273.1742553710938
0, 2, 106, 298.978759765625
0, 2, 107, 271.2604675292969
0, 2, 108, 118.4080581665039
0, 2, 109, 34.99950408935547
0, 2, 110, 9.450385093688965
0, 2, 111, 12.71590328216553
0, 2, 112, 7.944869995117188
0, 2, 113, 9.320474624633789
0, 2, 114, 10.3186731338501
0, 2, 115, 10.46414375305176
0, 2, 116, 10.49267959594727
0, 2, 117, 6.232620239257812
0, 2, 118, 5.808056354522705
0, 2, 119, 4.163909435272217
0, 2, 120, 5.311000823974609
0, 2, 121, 1.175809979438782
0, 2, 122, 3.603186368942261
0, 2, 123, 5.160717487335205
0, 2, 124, 3.24593710899353
0, 2, 125, 5.083478927612305
0, 2, 126, 4.320099353790283
0, 2, 127, 4.439184188842773
0, 3, 0, 2.47528600692749
0, 3, 1, 2.587268352508545
0, 3, 2, 3.277609348297119
0, 3, 3, 1.266550302505493
0, 3, 4, 4.247795104980469
0, 3, 5, 7.96729564666748
0, 3, 6, 6.669529914855957
0, 3, 7, 5.497106552124023
0, 3, 8, 5.459850311279297
0, 3, 9, 5.468600749969482
0, 3, 10, 5.293776035308838
0, 3, 11, 4.156025886535645
0, 3, 12, 9.055980682373047
0, 3, 13, 15.53260612487793
0, 3, 14, 11.00979423522949
0, 3, 15, 13.49846744537354
0, 3, 16, 10.69938182830811
0, 3, 17, 19.60302925109863
0, 3, 18, 50.3556022644043
0, 3, 19, 175.2749633789062
0, 3, 20, 269.8423461914062
0, 3, 21, 271.7601928710938
0, 3, 22, 280.4886779785156
0, 3, 23, 286.2656555175781
0, 3, 24, 286.030517578125
0, 3, 25, 273.9196472167969
0, 3, 26, 304.3737182617188
0, 3, 27, 291.1441040039062
0, 3, 28, 284.182373046875
0, 3, 29, 336.625244140625
0, 3, 30, 316.9768676757812
0, 3, 31, 289.3745422363281
0, 3, 32, 306.970458984375
0, 3, 33, 315.2762145996094
0, 3, 34, 323.0444030761719
0, 3, 35, 306.844970703125
0, 3, 36, 270.0373229980469
0, 3, 37, 318.626708984375
0, 3, 38, 304.6658935546875
0, 3, 39, 288.6292419433594
0, 3, 40, 265.7812194824219
0, 3, 41, 299.904541015625
0, 3, 42, 284.8407897949219
0, 3, 43, 305.3078002929688
0, 3, 44, 311.5383911132812
0, 3, 45, 289.1275329589844
0, 3, 46, 329.2004699707031
0, 3, 47, 299.6481628417969
0, 3, 48, 303.018310546875
0, 3, 49, 276.0704040527344
0, 3, 50, 289.9302062988281
0, 3, 51, 274.7650756835938
0, 3, 52, 315.0250854492188
0, 3, 53, 288.8296813964844
0, 3, 54, 283.4317626953125
0, 3, 55, 283.1737365722656
0, 3, 56, 300.3912353515625
0, 3, 57, 287.8506164550781
0, 3, 58, 305.4641418457031
0, 3, 59, 293.1529846191406
0, 3, 60, 297.8368835449219
0, 3, 61, 265.9238586425781
0, 3, 62, 282.848876953125
0, 3, 63, 308.2599792480469
0, 3, 64, 317.2281494140625
0, 3, 65, 305.5690307617188
0, 3, 66, 313.6983337402344
0, 3, 67, 317.253662109375
0, 3, 68, 279.6203308105469
0, 3, 69, 282.8993225097656
0, 3, 70, 286.8157958984375
0, 3, 71, 301.2794799804688
0, 3, 72, 270.1199340820312
0, 3, 73, 309.3309631347656
0, 3, 74, 292.5877075195312
0, 3, 75, 290.0786743164062
0, 3, 76, 305.7505187988281
0, 3, 77, 313.2660217285156
0, 3, 78, 302.1905212402344
0, 3, 79, 282.367919921875
0, 3, 80, 290.49609375
0, 3, 81, 309.3743286132812
0, 3, 82, 316.0778198242188
0, 3, 83, 300.4485168457031
0, 3, 84, 310.3577880859375
0, 3, 85, 292.7886047363281
0, 3, 86, 304.2631225585938
0, 3, 87, 298.2252807617188
0, 3, 88, 297.9062194824219
0, 3, 89, 295.5360107421875
0, 3, 90, 275.0716247558594
0, 3, 91, 284.2012023925781
0, 3, 92, 303.2629089355469
0, 3, 93, 313.294921875
0, 3, 94, 298.2696228027344
0, 3, 95, 336.0981140136719
0, 3, 96, 290.0627136230469
0, 3, 97, 284.0951232910156
0, 3, 98, 276.9479064941406
0, 3, 99, 261.3479309082031
0, 3, 100, 284.4756469726562
0, 3, 101, 296.5988159179688
0, 3, 102, 275.4480285644531
0, 3, 103, 319.6848449707031
0, 3, 104, 308.4696044921875
0, 3, 105, 287.9889831542969
0, 3, 106, 302.5020141601562
0, 3, 107, 281.9699096679688
0, 3, 108, 167.6946716308594
0, 3, 109, 55.98191452026367
0, 3, 110, 20.53287887573242
0, 3, 111, 12.90467834472656
0, 3, 112, 16.48211288452148
0, 3, 113, 5.853657245635986
0, 3, 114, 8.848912239074707
0, 3, 115, 10.41937732696533
0, 3, 116, 7.845026969909668
0, 3, 117, 7.913561820983887
0, 3, 118, 9.494480133056641
0, 3, 119, 7.828890323638916
0, 3, 120, 5.371184349060059
0, 3, 121, 3.655553102493286
0, 3, 122, 6.636818408966064
0, 3, 123, 5.045159339904785
0, 3, 124, 5.148538112640381
0, 3, 125, 5.476600646972656
0, 3, 126, 4.880992889404297
0, 3, 127, 3.067286014556885
0, 4, 0, 2.278905868530273
0, 4, 1, 5.49067211151123
0, 4, 2, 3.166270971298218
0, 4, 3, 2.616147518157959
0, 4, 4, 7.084245204925537
0, 4, 5, 7.673404216766357
0, 4, 6, 6.014610767364502
0, 4, 7, 3.93484091758728
0, 4, 8, 4.41331148147583
0, 4, 9, 4.563744068145752
0, 4, 10, 6.111992359161377
0, 4, 11, 6.375654697418213
0, 4, 12, 6.011324882507324
0, 4, 13, 7.454092502593994
0, 4, 14, 10.9382791519165
0, 4, 15, 11.99629878997803
0, 4, 16, 13.24254512786865
0, 4, 17, 16.7325439453125
0, 4, 18, 92.96754455566406
0, 4, 19, 223.6477813720703
0, 4, 20, 284.9488525390625
0, 4, 21, 273.2096557617188
0, 4, 22, 305.2279663085938
0, 4, 23, 266.4788208007812
0, 4, 24, 289.7581176757812
0, 4, 25, 274.3333740234375
0, 4, 26, 296.8289794921875
0, 4, 27, 283.6528930664062
0, 4, 28, 307.1819458007812
0, 4, 29, 324.3852844238281
0, 4, 30, 310.2533264160156
0, 4, 31, 303.2356872558594
0, 4, 32, 281.3798828125
0, 4, 33, 299.0014038085938
0, 4, 34, 298.4480285644531
0, 4, 35, 311.3705139160156
0, 4, 36, 295.48095703125
0, 4, 37, 287.3763122558594
0, 4, 38, 298.640625
0, 4, 39, 295.9927368164062
0, 4, 40, 302.6846618652344
0, 4, 41, 313.6394653320312
0, 4, 42, 329.8842468261719
0, 4, 43, 297.4393615722656
0, 4, 44, 321.7455139160156
0, 4, 45, 325.9572448730469
0, 4, 46, 304.35595703125
0, 4, 47, 292.9436645507812
0, 4, 48, 299.7411499023438
0, 4, 49, 275.9640197753906
0, 4, 50, 295.1065673828125
0, 4, 51, 316.8296508789062
0, 4, 52, 327.0506286621094
0, 4, 53, 306.567138671875
0, 4, 54, 286.0107727050781
0, 4, 55, 315.2528991699219
0, 4, 56, 286.026611328125
0, 4, 57, 308.08544921875
0, 4, 58, 296.5884399414062
0, 4, 59, 307.9616394042969
0, 4, 60, 302.4776306152344
0, 4, 61, 316.5757751464844
0, 4, 62, 308.2426147460938
0, 4, 63, 298.1364135742188
0, 4, 64, 330.2551879882812
0, 4, 65, 315.2117614746094
0, 4, 66, 294.3080749511719
0, 4, 67, 285.8929138183594
0, 4, 68, 312.9986877441406
0, 4, 69, 277.2033996582031
0, 4, 70, 300.6584167480469
0, 4, 71, 321.1676635742188
0, 4, 72, 332.7472229003906
0, 4, 73, 298.3053283691406
0, 4, 74, 292.7244567871094
0, 4, 75, 293.3463745117188
0, 4, 76, 274.0815734863281
0, 4, 77, 278.2582092285156
0, 4, 78, 311.1015014648438
0, 4, 79, 318.9576721191406
0, 4, 80, 315.140869140625
0, 4, 81, 311.4234008789062
0, 4, 82, 297.9854736328125
0, 4, 83, 299.4194641113281
0, 4, 84, 292.3987731933594
0, 4, 85, 294.4797668457031
0, 4, 86, 298.198974609375
0, 4, 87, 286.4075927734375
0, 4, 88, 307.1522216796875
0, 4, 89, 294.4699096679688
0, 4, 90, 334.0627746582031
0, 4, 91, 302.7743835449219
0, 4, 92, 292.8646240234375
0, 4, 93, 296.4748229980469
0, 4, 94, 294.1701354980469
0, 4, 95, 289.3015747070312
0, 4, 96, 322.3515930175781
0, 4, 97, 273.0470581054688
0, 4, 98, 327.6007080078125
0, 4, 99, 314.8226318359375
0, 4, 100, 300.4570007324219
0, 4, 101, 258.8418273925781
0, 4, 102, 301.0214233398438
0, 4, 103, 317.8260192871094
0, 4, 104, 282.3525390625
0, 4, 105, 310.6921691894531
0, 4, 106, 288.1781005859375
0, 4, 107, 295.6836547851562
0, 4, 108, 227.2486419677734
0, 4, 109, 79.15139007568359
0, 4, 110, 17.0206356048584
0, 4, 111, 13.57927799224854
0, 4, 112, 8.696438789367676
0, 4, 113, 12.17984294891357
0, 4, 114, 7.946043014526367
0, 4, 115, 8.146122932434082
0, 4, 116, 9.271242141723633
0, 4, 117, 7.256515502929688
0, 4, 118, 9.774905204772949
0, 4, 119, 9.879483222961426
0, 4, 120, 6.912918090820312
0, 4, 121, 6.149136543273926
0, 4, 122, 5.315740585327148
0, 4, 123, 5.648833751678467
0, 4, 124, 7.218231678009033
0, 4, 125, 9.558192253112793
0, 4, 126, 3.505893230438232
0, 4, 127, 4.267260551452637
0, 5, 0, 4.151142120361328
0, 5, 1, 3.520331621170044
0, 5, 2, 2.512622594833374
0, 5, 3, 3.332405805587769
0, 5, 4, 3.815923690795898
0, 5, 5, 5.391431331634521
0, 5, 6, 8.40268611907959
0, 5, 7, 5.30882453918457
0, 5, 8, 5.616264343261719
0, 5, 9, 5.245078563690186
0, 5, 10, 7.747827053070068
0, 5, 11, 8.313374519348145
0, 5, 12, 8.135510444641113
0, 5, 13, 5.62634801864624
0, 5, 14, 13.0154333114624
0, 5, 15, 15.76785945892334
0, 5, 16, 13.55951499938965
0, 5, 17, 28.49479866027832
0, 5, 18, 138.4375915527344
0, 5, 19, 286.712158203125
0, 5, 20, 306.1716918945312
0, 5, 21, 316.1143188476562
0, 5, 22, 274.3098754882812
0, 5, 23, 313.4345397949219
0, 5, 24, 305.3359985351562
0, 5, 25, 289.9243774414062
0, 5, 26, 292.9660339355469
0, 5, 27, 320.1664428710938
0, 5, 28, 302.7117614746094
0, 5, 29, 299.3035888671875
0, 5, 30, 324.024658203125
0, 5, 31, 288.4512634277344
0, 5, 32, 302.38720703125
0, 5, 33, 305.7869262695312
0, 5, 34, 297.1036987304688
0, 5, 35, 309.329345703125
0, 5, 36, 270.2511901855469
0, 5, 37, 283.1396789550781
0, 5, 38, 294.9235229492188
0, 5, 39, 311.7914428710938
0, 5, 40, 308.7318115234375
0, 5, 41, 275.7066040039062
0, 5, 42, 305.3105773925781
0, 5, 43, 317.3204345703125
0, 5, 44, 292.1410522460938
0, 5, 45, 302.703857421875
0, 5, 46, 264.4524230957031
0, 5, 47, 279.4886169433594
0, 5, 48, 292.3873291015625
0, 5, 49, 285.2564086914062
0, 5, 50, 295.0852661132812
0, 5, 51, 281.2075805664062
0, 5, 52, 268.7984008789062
0, 5, 53, 284.325439453125
0, 5, 54, 291.7447814941406
0, 5, 55, 344.0560302734375
0, 5, 56, 305.8140869140625
0, 5, 57, 305.8057556152344
0, 5, 58, 310.7344360351562
0, 5, 59, 303.6721801757812
0, 5, 60, 306.847900390625
0, 5, 61, 281.8201293945312
0, 5, 62, 326.8924255371094
0, 5, 63, 291.0570068359375
0, 5, 64, 322.3857727050781
0, 5, 65, 304.9461975097656
0, 5, 66, 327.5885620117188
0, 5, 67, 311.9433288574219
0, 5, 68, 310.6542358398438
0, 5, 69, 311.6831970214844
0, 5, 70, 300.9366760253906
0, 5, 71, 271.9560546875
0, 5, 72, 312.2629699707031
0, 5, 73, 303.0756530761719
0, 5, 74, 296.4717407226562
0, 5, 75, 295.2827453613281
0, 5, 76, 288.0352783203125
0, 5, 77, 298.0689392089844
0, 5, 78, 315.7033996582031
0, 5, 79, 307.8100891113281
0, 5, 80, 294.5658874511719
0, 5, 81, 326.5610961914062
0, 5, 82, 325.2162780761719
0, 5, 83, 285.4659118652344
0, 5, 84, 302.5316772460938
0, 5, 85, 271.1313781738281
0, 5, 86, 329.7914428710938
0, 5, 87, 282.8667907714844
0, 5, 88, 313.2593383789062
0, 5, 89, 304.7393493652344
0, 5, 90, 314.9499206542969
0, 5, 91, 312.7891845703125
0, 5, 92, 295.4287109375
0, 5, 93, 322.7956237792969
0, 5, 94, 309.5171508789062
0, 5, 95, 295.8984985351562
0, 5, 96, 296.3509521484375
0, 5, 97, 295.2187805175781
0, 5, 98, 317.8881530761719
0, 5, 99, 304.3274841308594
0, 5, 100, 292.3234558105469
0, 5, 101, 305.8435668945312
0, 5, 102, 290.8665161132812
0, 5, 103, 312.9590454101562
0, 5, 104, 302.3912963867188
0, 5, 105, 292.4781188964844
0, 5, 106, 281.1867065429688
0, 5, 107, 295.6931457519531
0, 5, 108, 263.5834350585938
0, 5, 109, 159.333740234375
0, 5, 110, 43.38019180297852
0, 5, 111, 18.28479766845703
0, 5, 112, 15.39118194580078
0, 5, 113, 15.30787658691406
0, 5, 114, 13.45157527923584
0, 5, 115, 6.587712287902832
0, 5, 116, 9.499757766723633
0, 5, 117, 5.451209545135498
0, 5, 118, 13.80718421936035
0, 5, 119, 4.670556545257568
0, 5, 120, 5.516301155090332
0, 5, 121, 7.316981792449951
0, 5, 122, 8.090164184570312
0, 5, 123, 4.965085983276367
0, 5, 124, 5.807984828948975
0, 5, 125, 4.052742958068848
0, 5, 126, 5.802077770233154
0, 5, 127, 4.53129768371582
0, 6, 0, 4.182682514190674
0, 6, 1, 3.118732690811157
0, 6, 2, 7.07342004776001
0, 6, 3, 7.010040760040283
0, 6, 4, 4.011523723602295
0, 6, 5, 6.506022930145264
0, 6, 6, 7.897377967834473
0, 6, 7, 5.763864040374756
0, 6, 8, 7.585897922515869
0, 6, 9, 5.977899551391602
0, 6, 10, 8.789149284362793
0, 6, 11, 8.210812568664551
0, 6, 12, 9.480480194091797
0, 6, 13, 16.86071395874023
0, 6, 14, 8.645571708679199
0, 6, 15, 15.87730121612549
0, 6, 16, 28.98545455932617
0, 6, 17, 56.72817993164062
0, 6, 18, 175.5910186767578
0, 6, 19, 278.5103149414062
0, 6, 20, 292.2861633300781
0, 6, 21, 315.4544982910156
0, 6, 22, 320.610595703125
0, 6, 23, 304.1361083984375
0, 6, 24, 317.0725708007812
0, 6, 25, 315.9592590332031
0, 6, 26, 320.2178039550781
0, 6, 27, 331.6788940429688
0, 6, 28, 296.495361328125
0, 6, 29, 329.1458129882812
0, 6, 30, 281.8411254882812
0, 6, 31, 284.9154052734375
0, 6, 32, 338.902587890625
0, 6, 33, 301.1329956054688
0, 6, 34, 339.7811279296875
0, 6, 35, 320.5013732910156
0, 6, 36, 273.6930236816406
0, 6, 37, 287.3564453125
0, 6, 38, 310.982666015625
0, 6, 39, 299.1133728027344
0, 6, 40, 283.6534423828125
0, 6, 41, 293.81884765625
0, 6, 42, 305.363037109375
0, 6, 43, 287.07080078125
0, 6, 44, 279.7897033691406
0, 6, 45, 319.7623596191406
0, 6, 46, 302.2428283691406
0, 6, 47, 334.9898681640625
0, 6, 48, 292.9129943847656
0, 6, 49, 312.1558532714844
0, 6, 50, 328.9195556640625
0, 6, 51, 311.6109313964844
0, 6, 52, 322.4237670898438
0, 6, 53, 326.7381591796875
0, 6, 54, 303.1340942382812
0, 6, 55, 307.4581604003906
0, 6, 56, 295.8986511230469
0, 6, 57, 313.4649658203125
0, 6, 58, 260.3974914550781
0, 6, 59, 303.2424011230469
0, 6, 60, 312.8230590820312
0, 6, 61, 271.8401794433594
0, 6, 62, 338.0621643066406
0, 6, 63, 323.4324035644531
0, 6, 64, 290.1724853515625
0, 6, 65, 286.0787658691406
0, 6, 66, 305.3539733886719
0, 6, 67, 308.6937866210938
0, 6, 68, 293.7928466796875
0, 6, 69, 277.7305603027344
0, 6, 70, 275.5764770507812
0, 6, 71, 289.1177673339844
0, 6, 72, 311.5848693847656
0, 6, 73, 292.4732055664062
0, 6, 74, 329.5109558105469
0, 6, 75, 342.0357971191406
0, 6, 76, 296.9349975585938
0, 6, 77, 287.1822509765625
0, 6, 78, 277.5282897949219
0, 6, 79, 291.5794067382812
0, 6, 80, 299.8330383300781
0, 6, 81, 314.5457458496094
0, 6, 82, 320.7394714355469
0, 6, 83, 320.6124877929688
0, 6, 84, 295.9971008300781
0, 6, 85, 300.3615112304688
0, 6, 86, 330.3303833007812
0, 6, 87, 294.5916748046875
0, 6, 88, 306.925537109375
0, 6, 89, 305.8164367675781
0, 6, 90, 298.9830627441406
0, 6, 91, 312.6499328613281
0, 6, 92, 284.6231384277344
0, 6, 93, 294.684326171875
0, 6, 94, 274.4106140136719
0, 6, 95, 302.4248046875
0, 6, 96, 348.0390319824219
0, 6, 97, 311.2035522460938
0, 6, 98, 300.6202087402344
0, 6, 99, 271.4107055664062
0, 6, 100, 308.9152526855469
0, 6, 101, 292.5748596191406
0, 6, 102, 306.0419616699219
0, 6, 103, 306.59423828125
0, 6, 104, 293.0656127929688
0, 6, 105, 301.8368225097656
0, 6, 106, 306.2219543457031
0, 6, 107, 304.7779541015625
0, 6, 108, 265.9898986816406
0, 6, 109, 185.7223815917969
0, 6, 110, 57.43535995483398
0, 6, 111, 21.89062690734863
0, 6, 112, 14.39820575714111
0, 6, 113, 10.14715480804443
0, 6, 114, 12.37568759918213
0, 6, 115, 12.33647441864014
0, 6, 116, 9.975022315979004
0, 6, 117, 5.855074882507324
0, 6, 118, 8.510796546936035
0, 6, 119, 7.621753692626953
0, 6, 120, 6.531738758087158
0, 6, 121, 6.328214645385742
0, 6, 122, 6.527581691741943
0, 6, 123, 5.143623828887939
0, 6, 124, 6.902228832244873
0, 6, 125, 6.716696739196777
0, 6, 126, 3.948793888092041
0, 6, 127, 4.857359886169434
0, 7, 0, 7.960325717926025
0, 7, 1, 4.391143798828125
0, 7, 2, 4.726880073547363
0, 7, 3, 5.297606945037842
0, 7, 4, 4.050529003143311
0, 7, 5, 5.928764820098877
0, 7, 6, 7.456292629241943
0, 7, 7, 5.385919570922852
0, 7, 8, 6.122008800506592
0, 7, 9, 4.607251644134521
0, 7, 10, 10.25050830841064
0, 7, 11, 12.97548389434814
0, 7, 12, 9.158995628356934
0, 7, 13, 10.06867027282715
0, 7, 14, 11.41568756103516
0, 7, 15, 18.47837829589844
0, 7, 16, 26.49003028869629
0, 7, 17, 97.08578491210938
0, 7, 18, 219.5696868896484
0, 7, 19, 290.4273986816406
0, 7, 20, 296.1281127929688
0, 7, 21, 278.4521789550781
0, 7, 22, 301.837646484375
0, 7, 23, 291.2252807617188
0, 7, 24, 312.7644653320312
0, 7, 25, 323.86572265625
0, 7, 26, 277.1179809570312
0, 7, 27, 297.187744140625
0, 7, 28, 327.6244506835938
0, 7, 29, 318.3707580566406
0, 7, 30, 299.3704223632812
0, 7, 31, 277.6966857910156
0, 7, 32, 306.4842834472656
0, 7, 33, 264.1443176269531
0, 7, 34, 297.0338439941406
0, 7, 35, 321.0490417480469
0, 7, 36, 328.8548278808594
0, 7, 37, 323.7000427246094
0, 7, 38, 294.6234741210938
0, 7, 39, 307.0108337402344
0, 7, 40, 290.4228820800781
0, 7, 41, 272.4208984375
0, 7, 42, 301.409423828125
0, 7, 43, 272.3200378417969
0, 7, 44, 302.4707641601562
0, 7, 45, 295.3424377441406
0, 7, 46, 283.2470397949219
0, 7, 47, 328.5498352050781
0, 7, 48, 287.8454895019531
0, 7, 49, 302.4633178710938
0, 7, 50, 322.6810302734375
0, 7, 51, 302.4843139648438
0, 7, 52, 328.1061401367188
0, 7, 53, 308.5805969238281
0, 7, 54, 322.8979187011719
0, 7, 55, 306.19677734375
0, 7, 56, 280.5021362304688
0, 7, 57, 283.4314270019531
0, 7, 58, 296.5661010742188
0, 7, 59, 294.7568969726562
0, 7, 60, 323.971435546875
0, 7, 61, 276.9901123046875
0, 7, 62, 299.4232177734375
0, 7, 63, 291.7533874511719
0, 7, 64, 308.8932495117188
0, 7, 65, 329.8080139160156
0, 7, 66, 318.8385009765625
0, 7, 67, 300.88330078125
0, 7, 68, 281.0532531738281
0, 7, 69, 294.6932678222656
0, 7, 70, 299.6680908203125
0, 7, 71, 309.3103942871094
0, 7, 72, 285.1516418457031
0, 7, 73, 295.0715942382812
0, 7, 74, 343.8941345214844
0, 7, 75, 319.3830871582031
0, 7, 76, 323.9266967773438
0, 7, 77, 281.7271423339844
0, 7, 78, 297.5188293457031
0, 7, 79, 299.3179626464844
0, 7, 80, 314.8520812988281
0, 7, 81, 319.5220642089844
0, 7, 82, 330.0590209960938
0, 7, 83, 316.0754699707031
0, 7, 84, 310.8109741210938
0, 7, 85, 271.9258728027344
0, 7, 86, 309.2274169921875
0, 7, 87, 312.4707946777344
0, 7, 88, 310.3689880371094
0, 7, 89, 292.0077514648438
0, 7, 90, 304.7700500488281
0, 7, 91, 316.7545166015625
0, 7, 92, 288.9175415039062
0, 7, 93, 309.1113891601562
0, 7, 94, 273.4442138671875
0, 7, 95, 294.8493041992188
0, 7, 96, 333.0308227539062
0, 7, 97, 295.6058959960938
0, 7, 98, 290.7589416503906
0, 7, 99, 313.7901916503906
0, 7, 100, 279.4230041503906
0, 7, 101, 275.092529296875
0, 7, 102, 290.3967895507812
0, 7, 103, 291.4226684570312
0, 7, 104, 274.4163513183594
0, 7, 105, 305.6565856933594
0, 7, 106, 317.4971618652344
0, 7, 107, 295.4461669921875
0, 7, 108, 273.266357421875
0, 7, 109, 235.7746887207031
0, 7, 110, 96.22827911376953
0, 7, 111, 23.31521606445312
0, 7, 112, 14.468505859375
0, 7, 113, 14.13018321990967
0, 7, 114, 13.48565673828125
0, 7, 115, 10.877028465271
0, 7, 116, 14.00280094146729
0, 7, 117, 9.70013427734375
0, 7, 118, 8.875999450683594
0, 7, 119, 6.652290344238281
0, 7, 120, 4.239383220672607
0, 7, 121, 6.415870666503906
0, 7, 122, 8.396648406982422
0, 7, 123, 2.722842454910278
0, 7, 124, 2.875839471817017
0, 7, 125, 7.420856952667236
0, 7, 126, 8.657365798950195
0, 7, 127, 3.985478401184082
0, 8, 0, 3.433000326156616
0, 8, 1, 3.451798677444458
0, 8, 2, 2.745038986206055
0, 8, 3, 2.126571178436279
0, 8, 4, 3.821544170379639
0, 8, 5, 3.956837177276611
0, 8, 6, 5.238869667053223
0, 8, 7, 5.495483875274658
0, 8, 8, 12.06280899047852
0, 8, 9, 5.103241443634033
0, 8, 10, 8.789960861206055
0, 8, 11, 12.44629669189453
0, 8, 12, 12.05270290374756
0, 8, 13, 16.87040901184082
0, 8, 14, 13.52109622955322
0, 8, 15, 19.41590690612793
0, 8, 16, 34.2950439453125
0, 8, 17, 131.7058563232422
0, 8, 18, 242.58203125
0, 8, 19, 294.41064453125
0, 8, 20, 285.7103271484375
0, 8, 21, 309.5710754394531
0, 8, 22, 296.3172607421875
0, 8, 23, 275.1145629882812
0, 8, 24, 269.8916320800781
0, 8, 25, 276.9630126953125
0, 8, 26, 306.3650207519531
0, 8, 27, 308.0970764160156
0, 8, 28, 304.7073669433594
0, 8, 29, 319.9102478027344
0, 8, 30, 313.5428161621094
0, 8, 31, 305.7228393554688
0, 8, 32, 280.247314453125
0, 8, 33, 293.5295715332031
0, 8, 34, 290.8904724121094
0, 8, 35, 279.787109375
0, 8, 36, 316.4542541503906
0, 8, 37, 340.6692504882812
0, 8, 38, 331.17724609375
0, 8, 39, 280.1011352539062
