# TOPAS Version: 3.1.p3
# Parameter File: batch_inserts_146.txt
# Results for scorer Readout_Adipose
# Scored in component: MyBox
# X in 1 bin  of 0.75 cm
# Y in 512 bins of 0.0783984 cm
# Z in 128 bins of 0.078125 cm
# EnergyDeposit ( MeV ) : Sum   
0, 0, 0, 5.014944553375244
0, 0, 1, 1.707955837249756
0, 0, 2, 2.656793117523193
0, 0, 3, 1.420916557312012
0, 0, 4, 3.764337539672852
0, 0, 5, 2.24900221824646
0, 0, 6, 7.624180793762207
0, 0, 7, 9.633625984191895
0, 0, 8, 2.740397453308105
0, 0, 9, 4.492570400238037
0, 0, 10, 7.018502712249756
0, 0, 11, 4.463621616363525
0, 0, 12, 4.33491039276123
0, 0, 13, 6.35608434677124
0, 0, 14, 7.36990213394165
0, 0, 15, 9.293818473815918
0, 0, 16, 9.337612152099609
0, 0, 17, 9.67479133605957
0, 0, 18, 15.90705871582031
0, 0, 19, 43.27692031860352
0, 0, 20, 140.0187683105469
0, 0, 21, 224.2195892333984
0, 0, 22, 248.2900695800781
0, 0, 23, 258.2260131835938
0, 0, 24, 250.8248748779297
0, 0, 25, 258.0107727050781
0, 0, 26, 233.3137817382812
0, 0, 27, 237.3623504638672
0, 0, 28, 271.882568359375
0, 0, 29, 252.5738372802734
0, 0, 30, 230.6682739257812
0, 0, 31, 244.1662750244141
0, 0, 32, 263.0657348632812
0, 0, 33, 262.2487182617188
0, 0, 34, 288.4577026367188
0, 0, 35, 268.1435852050781
0, 0, 36, 246.0685577392578
0, 0, 37, 251.7936248779297
0, 0, 38, 267.4551391601562
0, 0, 39, 229.2635650634766
0, 0, 40, 241.5194396972656
0, 0, 41, 265.2634582519531
0, 0, 42, 229.5803527832031
0, 0, 43, 258.8846435546875
0, 0, 44, 253.4889678955078
0, 0, 45, 252.4598693847656
0, 0, 46, 244.0183715820312
0, 0, 47, 254.6837310791016
0, 0, 48, 265.6871948242188
0, 0, 49, 273.2811584472656
0, 0, 50, 252.0542755126953
0, 0, 51, 256.7889709472656
0, 0, 52, 272.1578979492188
0, 0, 53, 291.8840637207031
0, 0, 54, 241.5369262695312
0, 0, 55, 239.9980010986328
0, 0, 56, 276.8240661621094
0, 0, 57, 262.5386352539062
0, 0, 58, 244.9023284912109
0, 0, 59, 273.2244262695312
0, 0, 60, 233.6424255371094
0, 0, 61, 245.2644500732422
0, 0, 62, 258.4801635742188
0, 0, 63, 267.3173217773438
0, 0, 64, 255.1219940185547
0, 0, 65, 261.9043273925781
0, 0, 66, 277.6926879882812
0, 0, 67, 246.5791625976562
0, 0, 68, 258.2064208984375
0, 0, 69, 262.3444519042969
0, 0, 70, 272.4114990234375
0, 0, 71, 238.8845520019531
0, 0, 72, 249.3172760009766
0, 0, 73, 259.4182739257812
0, 0, 74, 250.5375671386719
0, 0, 75, 241.3797149658203
0, 0, 76, 228.9995727539062
0, 0, 77, 258.7389526367188
0, 0, 78, 257.6532287597656
0, 0, 79, 278.7891540527344
0, 0, 80, 214.7039794921875
0, 0, 81, 267.2320861816406
0, 0, 82, 255.8056488037109
0, 0, 83, 246.2995452880859
0, 0, 84, 269.6361389160156
0, 0, 85, 232.3829956054688
0, 0, 86, 254.1362609863281
0, 0, 87, 253.3074035644531
0, 0, 88, 260.9700927734375
0, 0, 89, 282.7366027832031
0, 0, 90, 246.0879821777344
0, 0, 91, 280.4549865722656
0, 0, 92, 253.1357727050781
0, 0, 93, 249.3376770019531
0, 0, 94, 250.1497497558594
0, 0, 95, 247.9398956298828
0, 0, 96, 274.9788513183594
0, 0, 97, 271.8832397460938
0, 0, 98, 273.4386291503906
0, 0, 99, 259.3111572265625
0, 0, 100, 257.6388549804688
0, 0, 101, 227.6378936767578
0, 0, 102, 233.0221862792969
0, 0, 103, 269.2796020507812
0, 0, 104, 254.3075256347656
0, 0, 105, 251.7939758300781
0, 0, 106, 245.0018463134766
0, 0, 107, 152.8461303710938
0, 0, 108, 37.15228271484375
0, 0, 109, 11.98859214782715
0, 0, 110, 13.00143718719482
0, 0, 111, 10.3016414642334
0, 0, 112, 7.062465667724609
0, 0, 113, 6.049084663391113
0, 0, 114, 7.256076812744141
0, 0, 115, 3.46650242805481
0, 0, 116, 5.514449596405029
0, 0, 117, 6.441122531890869
0, 0, 118, 6.346316337585449
0, 0, 119, 4.585821151733398
0, 0, 120, 4.130942821502686
0, 0, 121, 3.886638641357422
0, 0, 122, 3.602005958557129
0, 0, 123, 3.749398946762085
0, 0, 124, 4.931487083435059
0, 0, 125, 5.351317405700684
0, 0, 126, 5.89475154876709
0, 0, 127, 3.20447564125061
0, 1, 0, 7.000899791717529
0, 1, 1, 2.424310207366943
0, 1, 2, 4.798081398010254
0, 1, 3, 2.036439180374146
0, 1, 4, 2.476417541503906
0, 1, 5, 4.746541500091553
0, 1, 6, 5.490562438964844
0, 1, 7, 4.347952842712402
0, 1, 8, 7.071038246154785
0, 1, 9, 3.996435642242432
0, 1, 10, 7.851750373840332
0, 1, 11, 11.5332612991333
0, 1, 12, 7.852959156036377
0, 1, 13, 9.528186798095703
0, 1, 14, 7.480172157287598
0, 1, 15, 7.005117416381836
0, 1, 16, 12.00567150115967
0, 1, 17, 10.12870216369629
0, 1, 18, 21.24419975280762
0, 1, 19, 65.53495025634766
0, 1, 20, 200.2544403076172
0, 1, 21, 256.587646484375
0, 1, 22, 297.2561645507812
0, 1, 23, 284.065185546875
0, 1, 24, 277.5054931640625
0, 1, 25, 287.9024658203125
0, 1, 26, 269.027099609375
0, 1, 27, 306.6453552246094
0, 1, 28, 302.6909790039062
0, 1, 29, 295.6565856933594
0, 1, 30, 280.9231872558594
0, 1, 31, 292.3456420898438
0, 1, 32, 291.3234558105469
0, 1, 33, 294.6760864257812
0, 1, 34, 295.2029724121094
0, 1, 35, 278.207275390625
0, 1, 36, 307.1178283691406
0, 1, 37, 295.5317687988281
0, 1, 38, 281.6360473632812
0, 1, 39, 294.6550903320312
0, 1, 40, 265.8417663574219
0, 1, 41, 290.6367492675781
0, 1, 42, 290.3988952636719
0, 1, 43, 332.6828918457031
0, 1, 44, 280.0078735351562
0, 1, 45, 291.8179321289062
0, 1, 46, 258.9920349121094
0, 1, 47, 308.1690673828125
0, 1, 48, 283.3429260253906
0, 1, 49, 305.3720092773438
0, 1, 50, 263.8988952636719
0, 1, 51, 272.3715515136719
0, 1, 52, 297.044921875
0, 1, 53, 303.5047912597656
0, 1, 54, 274.5088195800781
0, 1, 55, 295.3267517089844
0, 1, 56, 278.8271179199219
0, 1, 57, 301.0006408691406
0, 1, 58, 308.3123474121094
0, 1, 59, 290.7322692871094
0, 1, 60, 297.9512023925781
0, 1, 61, 274.4587707519531
0, 1, 62, 309.6822814941406
0, 1, 63, 287.659912109375
0, 1, 64, 290.25439453125
0, 1, 65, 295.143310546875
0, 1, 66, 292.7375183105469
0, 1, 67, 290.8387145996094
0, 1, 68, 277.0843200683594
0, 1, 69, 279.6446533203125
0, 1, 70, 270.8685302734375
0, 1, 71, 273.8175048828125
0, 1, 72, 285.3020629882812
0, 1, 73, 303.25537109375
0, 1, 74, 304.3361206054688
0, 1, 75, 292.9898376464844
0, 1, 76, 284.7968139648438
0, 1, 77, 290.1519165039062
0, 1, 78, 297.5098876953125
0, 1, 79, 302.0356140136719
0, 1, 80, 297.9376220703125
0, 1, 81, 299.4540710449219
0, 1, 82, 286.3992614746094
0, 1, 83, 333.9960021972656
0, 1, 84, 308.8562622070312
0, 1, 85, 254.8614349365234
0, 1, 86, 295.3048095703125
0, 1, 87, 289.9552917480469
0, 1, 88, 296.7746887207031
0, 1, 89, 294.2782897949219
0, 1, 90, 270.1844482421875
0, 1, 91, 317.6784057617188
0, 1, 92, 290.2110290527344
0, 1, 93, 286.3368530273438
0, 1, 94, 302.9009704589844
0, 1, 95, 284.4588623046875
0, 1, 96, 281.9856262207031
0, 1, 97, 302.0448608398438
0, 1, 98, 277.446533203125
0, 1, 99, 267.801025390625
0, 1, 100, 278.7375793457031
0, 1, 101, 283.4398193359375
0, 1, 102, 279.8600463867188
0, 1, 103, 280.7318115234375
0, 1, 104, 306.0326843261719
0, 1, 105, 297.6604919433594
0, 1, 106, 260.6680297851562
0, 1, 107, 191.7047882080078
0, 1, 108, 83.2252197265625
0, 1, 109, 24.50156402587891
0, 1, 110, 11.05812644958496
0, 1, 111, 9.166754722595215
0, 1, 112, 11.97412490844727
0, 1, 113, 6.931469917297363
0, 1, 114, 6.371747970581055
0, 1, 115, 6.039144039154053
0, 1, 116, 12.00041580200195
0, 1, 117, 4.98830509185791
0, 1, 118, 4.336030006408691
0, 1, 119, 3.502446413040161
0, 1, 120, 5.581943511962891
0, 1, 121, 3.021634817123413
0, 1, 122, 4.933694839477539
0, 1, 123, 2.797335863113403
0, 1, 124, 7.2862548828125
0, 1, 125, 3.486545562744141
0, 1, 126, 3.532890796661377
0, 1, 127, 0.9114536046981812
0, 2, 0, 4.007385730743408
0, 2, 1, 1.962588429450989
0, 2, 2, 4.271522521972656
0, 2, 3, 5.941409587860107
0, 2, 4, 3.586315631866455
0, 2, 5, 1.572357773780823
0, 2, 6, 4.200621128082275
0, 2, 7, 4.27022647857666
0, 2, 8, 5.679619312286377
0, 2, 9, 5.065027236938477
0, 2, 10, 7.894531726837158
0, 2, 11, 6.777793884277344
0, 2, 12, 5.888094425201416
0, 2, 13, 10.05091762542725
0, 2, 14, 9.833685874938965
0, 2, 15, 8.303989410400391
0, 2, 16, 8.948134422302246
0, 2, 17, 16.52384185791016
0, 2, 18, 30.51360511779785
0, 2, 19, 114.8734512329102
0, 2, 20, 246.6195068359375
0, 2, 21, 270.6794128417969
0, 2, 22, 315.5287475585938
0, 2, 23, 301.1091613769531
0, 2, 24, 287.3844299316406
0, 2, 25, 302.8343811035156
0, 2, 26, 294.6777954101562
0, 2, 27, 276.80419921875
0, 2, 28, 274.1822509765625
0, 2, 29, 273.7619934082031
0, 2, 30, 288.0849304199219
0, 2, 31, 276.9811401367188
0, 2, 32, 295.6141052246094
0, 2, 33, 282.33984375
0, 2, 34, 332.6796264648438
0, 2, 35, 288.2240600585938
0, 2, 36, 301.8357238769531
0, 2, 37, 317.044677734375
0, 2, 38, 310.3681640625
0, 2, 39, 265.583251953125
0, 2, 40, 307.5190734863281
0, 2, 41, 293.1889038085938
0, 2, 42, 304.0592041015625
0, 2, 43, 313.4037780761719
0, 2, 44, 313.6024475097656
0, 2, 45, 324.7108154296875
0, 2, 46, 287.1476135253906
0, 2, 47, 303.3838500976562
0, 2, 48, 280.6806640625
0, 2, 49, 279.2793273925781
0, 2, 50, 293.9580688476562
0, 2, 51, 283.9818420410156
0, 2, 52, 274.4457092285156
0, 2, 53, 285.7132873535156
0, 2, 54, 279.2585754394531
0, 2, 55, 274.8875122070312
0, 2, 56, 302.6954956054688
0, 2, 57, 292.7049865722656
0, 2, 58, 302.1065979003906
0, 2, 59, 290.5167846679688
0, 2, 60, 319.7842712402344
0, 2, 61, 301.0863952636719
0, 2, 62, 314.2398986816406
0, 2, 63, 303.6817321777344
0, 2, 64, 299.0614929199219
0, 2, 65, 313.8694152832031
0, 2, 66, 280.8271789550781
0, 2, 67, 293.3074035644531
0, 2, 68, 295.5468139648438
0, 2, 69, 311.0336608886719
0, 2, 70, 335.193115234375
0, 2, 71, 281.9490966796875
0, 2, 72, 302.5368957519531
0, 2, 73, 310.5447082519531
0, 2, 74, 287.8156127929688
0, 2, 75, 306.0266723632812
0, 2, 76, 293.0091552734375
0, 2, 77, 300.2859497070312
0, 2, 78, 316.5633239746094
0, 2, 79, 307.4376220703125
0, 2, 80, 296.8321838378906
0, 2, 81, 284.0152282714844
0, 2, 82, 318.1619262695312
0, 2, 83, 311.9396057128906
0, 2, 84, 287.3707885742188
0, 2, 85, 283.8193969726562
0, 2, 86, 323.4959106445312
0, 2, 87, 286.8859252929688
0, 2, 88, 279.3980407714844
0, 2, 89, 296.2176513671875
0, 2, 90, 296.1288452148438
0, 2, 91, 275.3744506835938
0, 2, 92, 305.2006530761719
0, 2, 93, 317.45703125
0, 2, 94, 290.3744506835938
0, 2, 95, 316.2835083007812
0, 2, 96, 317.2611083984375
0, 2, 97, 290.92138671875
0, 2, 98, 292.7668762207031
0, 2, 99, 272.7774658203125
0, 2, 100, 305.8605346679688
0, 2, 101, 300.6416320800781
0, 2, 102, 296.3738708496094
0, 2, 103, 292.417724609375
0, 2, 104, 293.2748413085938
0, 2, 105, 273.3692321777344
0, 2, 106, 297.5119934082031
0, 2, 107, 270.047607421875
0, 2, 108, 115.5356674194336
0, 2, 109, 33.05960083007812
0, 2, 110, 9.529143333435059
0, 2, 111, 11.14037227630615
0, 2, 112, 9.13270378112793
0, 2, 113, 9.894227981567383
0, 2, 114, 10.27149868011475
0, 2, 115, 10.25882816314697
0, 2, 116, 7.983451843261719
0, 2, 117, 8.643070220947266
0, 2, 118, 3.516511201858521
0, 2, 119, 2.960387706756592
0, 2, 120, 6.618571281433105
0, 2, 121, 2.69728684425354
0, 2, 122, 4.926835060119629
0, 2, 123, 3.565827608108521
0, 2, 124, 3.565476417541504
0, 2, 125, 8.336128234863281
0, 2, 126, 5.515727043151855
0, 2, 127, 5.389878749847412
0, 3, 0, 3.850043058395386
0, 3, 1, 5.11353874206543
0, 3, 2, 4.611477375030518
0, 3, 3, 4.041266918182373
0, 3, 4, 3.36702299118042
0, 3, 5, 5.779205322265625
0, 3, 6, 5.831506729125977
0, 3, 7, 4.976364135742188
0, 3, 8, 5.099787712097168
0, 3, 9, 9.995268821716309
0, 3, 10, 6.840517520904541
0, 3, 11, 4.524804592132568
0, 3, 12, 9.798410415649414
0, 3, 13, 14.35732555389404
0, 3, 14, 10.24787330627441
0, 3, 15, 12.87538433074951
0, 3, 16, 11.96781349182129
0, 3, 17, 21.68153953552246
0, 3, 18, 54.53311157226562
0, 3, 19, 176.0439758300781
0, 3, 20, 267.9310607910156
0, 3, 21, 270.155029296875
0, 3, 22, 282.6104431152344
0, 3, 23, 286.4632263183594
0, 3, 24, 287.4716796875
0, 3, 25, 267.7432250976562
0, 3, 26, 303.2493286132812
0, 3, 27, 291.6466674804688
0, 3, 28, 280.8331909179688
0, 3, 29, 338.5567321777344
0, 3, 30, 318.8376159667969
0, 3, 31, 285.4346618652344
0, 3, 32, 307.4015808105469
0, 3, 33, 314.8539123535156
0, 3, 34, 324.2316589355469
0, 3, 35, 305.9100036621094
0, 3, 36, 267.3310852050781
0, 3, 37, 311.7987365722656
0, 3, 38, 303.9437561035156
0, 3, 39, 287.4049377441406
0, 3, 40, 266.6403198242188
0, 3, 41, 300.7743225097656
0, 3, 42, 287.037841796875
0, 3, 43, 306.0712890625
0, 3, 44, 311.0004272460938
0, 3, 45, 289.6826477050781
0, 3, 46, 329.833984375
0, 3, 47, 298.7506713867188
0, 3, 48, 302.8806457519531
0, 3, 49, 278.9695434570312
0, 3, 50, 289.6205749511719
0, 3, 51, 279.7013244628906
0, 3, 52, 315.8066711425781
0, 3, 53, 285.7723999023438
0, 3, 54, 285.6177368164062
0, 3, 55, 285.8894958496094
0, 3, 56, 298.3603820800781
0, 3, 57, 286.9185485839844
0, 3, 58, 305.5243835449219
0, 3, 59, 293.623779296875
0, 3, 60, 296.9142456054688
0, 3, 61, 263.9646606445312
0, 3, 62, 286.5369567871094
0, 3, 63, 306.5576171875
0, 3, 64, 315.3466796875
0, 3, 65, 305.7059326171875
0, 3, 66, 314.5574340820312
0, 3, 67, 318.7415161132812
0, 3, 68, 279.3499450683594
0, 3, 69, 282.9842834472656
0, 3, 70, 289.6098327636719
0, 3, 71, 300.6178894042969
0, 3, 72, 267.9593200683594
0, 3, 73, 306.9691467285156
0, 3, 74, 292.0060424804688
0, 3, 75, 289.3431091308594
0, 3, 76, 305.582275390625
0, 3, 77, 315.6394348144531
0, 3, 78, 304.6272277832031
0, 3, 79, 281.6022338867188
0, 3, 80, 290.7710876464844
0, 3, 81, 312.3590087890625
0, 3, 82, 315.5896911621094
0, 3, 83, 299.7342224121094
0, 3, 84, 311.6764526367188
0, 3, 85, 293.8201599121094
0, 3, 86, 301.8280029296875
0, 3, 87, 297.8522644042969
0, 3, 88, 296.723876953125
0, 3, 89, 295.1401672363281
0, 3, 90, 276.6160278320312
0, 3, 91, 284.2191467285156
0, 3, 92, 303.5405578613281
0, 3, 93, 315.2627258300781
0, 3, 94, 297.34130859375
0, 3, 95, 334.1204528808594
0, 3, 96, 290.4319763183594
0, 3, 97, 284.9750366210938
0, 3, 98, 277.0977478027344
0, 3, 99, 261.7596130371094
0, 3, 100, 284.74853515625
0, 3, 101, 296.5201721191406
0, 3, 102, 274.2686462402344
0, 3, 103, 320.3031616210938
0, 3, 104, 307.4375305175781
0, 3, 105, 287.9916076660156
0, 3, 106, 302.9681701660156
0, 3, 107, 281.8853759765625
0, 3, 108, 167.2050170898438
0, 3, 109, 55.28952026367188
0, 3, 110, 18.23338317871094
0, 3, 111, 12.43937683105469
0, 3, 112, 11.95801067352295
0, 3, 113, 6.442965030670166
0, 3, 114, 10.4126148223877
0, 3, 115, 6.897461891174316
0, 3, 116, 8.971158981323242
0, 3, 117, 9.852415084838867
0, 3, 118, 10.36806488037109
0, 3, 119, 7.682806015014648
0, 3, 120, 7.174793243408203
0, 3, 121, 2.254119157791138
0, 3, 122, 3.774250745773315
0, 3, 123, 4.82672119140625
0, 3, 124, 5.13931941986084
0, 3, 125, 6.510917663574219
0, 3, 126, 4.010688304901123
0, 3, 127, 3.222713708877563
0, 4, 0, 2.954908847808838
0, 4, 1, 4.40576171875
0, 4, 2, 2.851563453674316
0, 4, 3, 3.679894208908081
0, 4, 4, 5.429477691650391
0, 4, 5, 9.076395988464355
0, 4, 6, 8.82830810546875
0, 4, 7, 5.071210861206055
0, 4, 8, 4.272702217102051
0, 4, 9, 6.054681777954102
0, 4, 10, 6.334465980529785
0, 4, 11, 5.57668924331665
0, 4, 12, 5.163059234619141
0, 4, 13, 8.997794151306152
0, 4, 14, 13.38622188568115
0, 4, 15, 9.388507843017578
0, 4, 16, 13.60210609436035
0, 4, 17, 19.01751708984375
0, 4, 18, 92.78049468994141
0, 4, 19, 222.395751953125
0, 4, 20, 285.4637756347656
0, 4, 21, 271.0823974609375
0, 4, 22, 306.4240417480469
0, 4, 23, 266.8663024902344
0, 4, 24, 288.9844055175781
0, 4, 25, 271.4678955078125
0, 4, 26, 295.0152587890625
0, 4, 27, 282.2619018554688
0, 4, 28, 307.2303161621094
0, 4, 29, 322.6199340820312
0, 4, 30, 309.6767578125
0, 4, 31, 306.2368774414062
0, 4, 32, 285.2537231445312
0, 4, 33, 298.3522338867188
0, 4, 34, 297.9863891601562
0, 4, 35, 311.9263916015625
0, 4, 36, 291.5292053222656
0, 4, 37, 287.8876953125
0, 4, 38, 300.2756042480469
0, 4, 39, 293.663818359375
0, 4, 40, 302.8852233886719
0, 4, 41, 313.0706787109375
0, 4, 42, 329.6251525878906
0, 4, 43, 296.074951171875
0, 4, 44, 320.6132202148438
0, 4, 45, 326.5278625488281
0, 4, 46, 304.2093200683594
0, 4, 47, 293.086669921875
0, 4, 48, 294.0902404785156
0, 4, 49, 277.8243103027344
0, 4, 50, 297.4566650390625
0, 4, 51, 318.5673522949219
0, 4, 52, 326.4945068359375
0, 4, 53, 301.8388671875
0, 4, 54, 288.6116333007812
0, 4, 55, 314.8674926757812
0, 4, 56, 286.6315612792969
0, 4, 57, 310.02734375
0, 4, 58, 297.5830993652344
0, 4, 59, 308.115966796875
0, 4, 60, 301.3541870117188
0, 4, 61, 315.5347900390625
0, 4, 62, 310.5289916992188
0, 4, 63, 300.7575073242188
0, 4, 64, 329.9561767578125
0, 4, 65, 319.8568420410156
0, 4, 66, 297.7437133789062
0, 4, 67, 284.7345275878906
0, 4, 68, 312.8197937011719
0, 4, 69, 275.8508911132812
0, 4, 70, 298.3035583496094
0, 4, 71, 321.8184509277344
0, 4, 72, 332.4435729980469
0, 4, 73, 300.1298522949219
0, 4, 74, 291.6667785644531
0, 4, 75, 288.1796264648438
0, 4, 76, 274.3739318847656
0, 4, 77, 277.11181640625
0, 4, 78, 308.6495361328125
0, 4, 79, 317.8213500976562
0, 4, 80, 319.0788269042969
0, 4, 81, 313.6118469238281
0, 4, 82, 298.7301635742188
0, 4, 83, 301.0397338867188
0, 4, 84, 289.4562072753906
0, 4, 85, 295.3624267578125
0, 4, 86, 297.3854675292969
0, 4, 87, 285.662353515625
0, 4, 88, 305.466796875
0, 4, 89, 294.9232482910156
0, 4, 90, 333.1129150390625
0, 4, 91, 302.1923217773438
0, 4, 92, 290.5326843261719
0, 4, 93, 298.1874084472656
0, 4, 94, 291.6961059570312
0, 4, 95, 288.1864624023438
0, 4, 96, 323.9832763671875
0, 4, 97, 275.4788208007812
0, 4, 98, 326.8621826171875
0, 4, 99, 312.3610229492188
0, 4, 100, 299.4059753417969
0, 4, 101, 258.5346374511719
0, 4, 102, 296.7088928222656
0, 4, 103, 317.8001708984375
0, 4, 104, 280.6651000976562
0, 4, 105, 309.9812927246094
0, 4, 106, 287.2462463378906
0, 4, 107, 294.9633483886719
0, 4, 108, 224.6607208251953
0, 4, 109, 79.40949249267578
0, 4, 110, 16.41999053955078
0, 4, 111, 13.60081672668457
0, 4, 112, 8.452738761901855
0, 4, 113, 8.604145050048828
0, 4, 114, 9.050597190856934
0, 4, 115, 8.866918563842773
0, 4, 116, 7.340228080749512
0, 4, 117, 6.350117683410645
0, 4, 118, 10.03233337402344
0, 4, 119, 10.15548992156982
0, 4, 120, 5.821448802947998
0, 4, 121, 3.638646602630615
0, 4, 122, 3.837311983108521
0, 4, 123, 5.908600807189941
0, 4, 124, 6.801592826843262
0, 4, 125, 11.27615833282471
0, 4, 126, 5.330299377441406
0, 4, 127, 3.609984159469604
0, 5, 0, 3.249202489852905
0, 5, 1, 3.228366613388062
0, 5, 2, 5.95740795135498
0, 5, 3, 3.19609808921814
0, 5, 4, 5.828343868255615
0, 5, 5, 7.797203063964844
0, 5, 6, 5.949528217315674
0, 5, 7, 8.033427238464355
0, 5, 8, 3.689468622207642
0, 5, 9, 5.510035991668701
0, 5, 10, 6.17894458770752
0, 5, 11, 8.076031684875488
0, 5, 12, 8.485648155212402
0, 5, 13, 6.17900562286377
0, 5, 14, 12.36507892608643
0, 5, 15, 17.79849815368652
0, 5, 16, 14.81478977203369
0, 5, 17, 29.0948429107666
0, 5, 18, 137.072021484375
0, 5, 19, 288.0399475097656
0, 5, 20, 308.5278625488281
0, 5, 21, 317.1752014160156
0, 5, 22, 275.6958923339844
0, 5, 23, 310.6910095214844
0, 5, 24, 302.0948791503906
0, 5, 25, 290.7960815429688
0, 5, 26, 294.2762145996094
0, 5, 27, 323.4698791503906
0, 5, 28, 300.9000854492188
0, 5, 29, 295.9320678710938
0, 5, 30, 323.7810668945312
0, 5, 31, 285.2315063476562
0, 5, 32, 303.4408874511719
0, 5, 33, 302.8326416015625
0, 5, 34, 297.9712219238281
0, 5, 35, 311.377197265625
0, 5, 36, 271.1817626953125
0, 5, 37, 284.7229614257812
0, 5, 38, 291.3697204589844
0, 5, 39, 312.7525329589844
0, 5, 40, 310.7342834472656
0, 5, 41, 273.3273620605469
0, 5, 42, 306.2087707519531
0, 5, 43, 315.9137573242188
0, 5, 44, 293.3173522949219
0, 5, 45, 302.0672912597656
0, 5, 46, 266.3426513671875
0, 5, 47, 278.7816467285156
0, 5, 48, 296.2383117675781
0, 5, 49, 286.3421020507812
0, 5, 50, 295.5161437988281
0, 5, 51, 280.9367065429688
0, 5, 52, 269.6576232910156
0, 5, 53, 285.249267578125
0, 5, 54, 292.1363830566406
0, 5, 55, 344.9068298339844
0, 5, 56, 305.7185974121094
0, 5, 57, 307.1984252929688
0, 5, 58, 313.0389709472656
0, 5, 59, 304.0430603027344
0, 5, 60, 308.2720947265625
0, 5, 61, 280.6606750488281
0, 5, 62, 324.4713134765625
0, 5, 63, 292.59814453125
0, 5, 64, 323.5980529785156
0, 5, 65, 307.8914794921875
0, 5, 66, 326.0725708007812
0, 5, 67, 312.5433654785156
0, 5, 68, 307.8639221191406
0, 5, 69, 311.9043579101562
0, 5, 70, 301.879638671875
0, 5, 71, 272.5603637695312
0, 5, 72, 310.6752014160156
0, 5, 73, 301.9690856933594
0, 5, 74, 294.8872985839844
0, 5, 75, 294.281982421875
0, 5, 76, 284.4315795898438
0, 5, 77, 297.0162963867188
0, 5, 78, 318.5220336914062
0, 5, 79, 310.3573608398438
0, 5, 80, 294.0723876953125
0, 5, 81, 325.0488891601562
0, 5, 82, 323.0677490234375
0, 5, 83, 281.2303771972656
0, 5, 84, 300.0592651367188
0, 5, 85, 271.6664733886719
0, 5, 86, 326.2828369140625
0, 5, 87, 285.1662902832031
0, 5, 88, 312.4052429199219
0, 5, 89, 305.7827758789062
0, 5, 90, 314.9074096679688
0, 5, 91, 314.1820373535156
0, 5, 92, 296.7366638183594
0, 5, 93, 322.3177185058594
0, 5, 94, 306.5223083496094
0, 5, 95, 296.3263244628906
0, 5, 96, 299.4975891113281
0, 5, 97, 296.6961364746094
0, 5, 98, 317.4434814453125
0, 5, 99, 303.0285034179688
0, 5, 100, 290.0897216796875
0, 5, 101, 306.3117065429688
0, 5, 102, 292.9162902832031
0, 5, 103, 316.0969543457031
0, 5, 104, 305.48876953125
0, 5, 105, 291.7558288574219
0, 5, 106, 281.1064453125
0, 5, 107, 291.611083984375
0, 5, 108, 267.242919921875
0, 5, 109, 157.2114562988281
0, 5, 110, 39.48744583129883
0, 5, 111, 20.47624969482422
0, 5, 112, 15.22626781463623
0, 5, 113, 13.51495933532715
0, 5, 114, 13.70968818664551
0, 5, 115, 8.725386619567871
0, 5, 116, 8.258725166320801
0, 5, 117, 6.547067165374756
0, 5, 118, 13.51076698303223
0, 5, 119, 4.015518188476562
0, 5, 120, 4.578169822692871
0, 5, 121, 4.78757381439209
0, 5, 122, 5.823678493499756
0, 5, 123, 5.328197479248047
0, 5, 124, 6.252708911895752
0, 5, 125, 4.862036228179932
0, 5, 126, 6.419965744018555
0, 5, 127, 2.99022388458252
0, 6, 0, 3.697204351425171
0, 6, 1, 2.932794094085693
0, 6, 2, 4.027059555053711
0, 6, 3, 6.199243068695068
0, 6, 4, 2.905250072479248
0, 6, 5, 6.9742431640625
0, 6, 6, 6.472240924835205
0, 6, 7, 6.010743618011475
0, 6, 8, 7.159143447875977
0, 6, 9, 6.916203022003174
0, 6, 10, 7.034704208374023
0, 6, 11, 8.975201606750488
0, 6, 12, 9.214609146118164
0, 6, 13, 13.06689548492432
0, 6, 14, 10.05030727386475
0, 6, 15, 15.70944595336914
0, 6, 16, 28.62160301208496
0, 6, 17, 55.05078887939453
0, 6, 18, 172.3276977539062
0, 6, 19, 275.4637145996094
0, 6, 20, 290.8104248046875
0, 6, 21, 313.4663696289062
0, 6, 22, 319.3255310058594
0, 6, 23, 304.909912109375
0, 6, 24, 316.79541015625
0, 6, 25, 318.5293579101562
0, 6, 26, 321.2516174316406
0, 6, 27, 332.2642211914062
0, 6, 28, 295.0391235351562
0, 6, 29, 329.2029724121094
0, 6, 30, 283.8523254394531
0, 6, 31, 286.8233337402344
0, 6, 32, 340.2308959960938
0, 6, 33, 302.652099609375
0, 6, 34, 340.0364990234375
0, 6, 35, 320.064453125
0, 6, 36, 274.6924438476562
0, 6, 37, 289.4818725585938
0, 6, 38, 312.923583984375
0, 6, 39, 298.611572265625
0, 6, 40, 283.5256042480469
0, 6, 41, 296.4332885742188
0, 6, 42, 305.3875427246094
0, 6, 43, 290.5635375976562
0, 6, 44, 280.9385070800781
0, 6, 45, 320.5797424316406
0, 6, 46, 300.8913269042969
0, 6, 47, 332.1060180664062
0, 6, 48, 293.2791137695312
0, 6, 49, 311.4244079589844
0, 6, 50, 328.2316589355469
0, 6, 51, 311.4351806640625
0, 6, 52, 319.8345336914062
0, 6, 53, 329.2403259277344
0, 6, 54, 304.5988159179688
0, 6, 55, 304.7127685546875
0, 6, 56, 292.9857177734375
0, 6, 57, 312.8904724121094
0, 6, 58, 261.876953125
0, 6, 59, 301.7486572265625
0, 6, 60, 312.1441650390625
0, 6, 61, 270.4407653808594
0, 6, 62, 334.8578796386719
0, 6, 63, 321.318359375
0, 6, 64, 291.2552795410156
0, 6, 65, 282.8508911132812
0, 6, 66, 301.9393310546875
0, 6, 67, 308.3233947753906
0, 6, 68, 295.1791687011719
0, 6, 69, 279.5264282226562
0, 6, 70, 274.4927978515625
0, 6, 71, 289.4925842285156
0, 6, 72, 311.6024780273438
0, 6, 73, 292.6755981445312
0, 6, 74, 331.5964660644531
0, 6, 75, 345.6244812011719
0, 6, 76, 295.7924499511719
0, 6, 77, 286.8855895996094
0, 6, 78, 277.1569213867188
0, 6, 79, 292.6829223632812
0, 6, 80, 299.1888732910156
0, 6, 81, 313.921630859375
0, 6, 82, 318.8110961914062
0, 6, 83, 320.0283203125
0, 6, 84, 295.7209167480469
0, 6, 85, 301.5006103515625
0, 6, 86, 333.1144104003906
0, 6, 87, 292.2777404785156
0, 6, 88, 305.8659362792969
0, 6, 89, 305.5792541503906
0, 6, 90, 301.2629699707031
0, 6, 91, 310.9048767089844
0, 6, 92, 284.9721069335938
0, 6, 93, 296.404541015625
0, 6, 94, 272.1889038085938
0, 6, 95, 300.0981140136719
0, 6, 96, 346.5624694824219
0, 6, 97, 308.3339233398438
0, 6, 98, 302.4813842773438
0, 6, 99, 273.3624877929688
0, 6, 100, 310.8319396972656
0, 6, 101, 293.4475708007812
0, 6, 102, 310.32568359375
0, 6, 103, 307.5475769042969
0, 6, 104, 293.718505859375
0, 6, 105, 300.1697082519531
0, 6, 106, 307.1277465820312
0, 6, 107, 306.3550109863281
0, 6, 108, 265.8849182128906
0, 6, 109, 186.9959106445312
0, 6, 110, 55.57782363891602
0, 6, 111, 21.24392890930176
0, 6, 112, 12.4285831451416
0, 6, 113, 10.91096210479736
0, 6, 114, 12.27908229827881
0, 6, 115, 11.9834156036377
0, 6, 116, 10.523193359375
0, 6, 117, 6.557525634765625
0, 6, 118, 7.981282234191895
0, 6, 119, 10.33087730407715
0, 6, 120, 6.043951988220215
0, 6, 121, 7.809488773345947
0, 6, 122, 6.645430564880371
0, 6, 123, 5.442590236663818
0, 6, 124, 5.29150390625
0, 6, 125, 6.591387748718262
0, 6, 126, 4.230031967163086
0, 6, 127, 8.169677734375
0, 7, 0, 5.190678119659424
0, 7, 1, 5.123035907745361
0, 7, 2, 6.202939510345459
0, 7, 3, 5.292296409606934
0, 7, 4, 5.947158813476562
0, 7, 5, 5.317453384399414
0, 7, 6, 7.255590438842773
0, 7, 7, 3.905557632446289
0, 7, 8, 5.530139923095703
0, 7, 9, 6.444375038146973
0, 7, 10, 8.945910453796387
0, 7, 11, 10.21628856658936
0, 7, 12, 9.285090446472168
0, 7, 13, 10.34888744354248
0, 7, 14, 13.40041828155518
0, 7, 15, 16.8358211517334
0, 7, 16, 24.90864753723145
0, 7, 17, 98.04463195800781
0, 7, 18, 220.0870513916016
0, 7, 19, 288.0706481933594
0, 7, 20, 296.9731750488281
0, 7, 21, 277.2548522949219
0, 7, 22, 299.9219055175781
0, 7, 23, 291.4757080078125
0, 7, 24, 315.6593017578125
0, 7, 25, 324.491943359375
0, 7, 26, 278.8420104980469
0, 7, 27, 297.4118347167969
0, 7, 28, 325.5048828125
0, 7, 29, 318.4082641601562
0, 7, 30, 301.0101928710938
0, 7, 31, 278.2120971679688
0, 7, 32, 303.1826171875
0, 7, 33, 260.7977905273438
0, 7, 34, 297.419189453125
0, 7, 35, 318.7549133300781
0, 7, 36, 334.1989440917969
0, 7, 37, 323.5929870605469
0, 7, 38, 295.6347045898438
0, 7, 39, 305.2394409179688
0, 7, 40, 289.5622863769531
0, 7, 41, 272.3140563964844
0, 7, 42, 301.1785583496094
0, 7, 43, 274.1860961914062
0, 7, 44, 302.8646240234375
0, 7, 45, 294.65673828125
0, 7, 46, 282.2056884765625
0, 7, 47, 331.856201171875
0, 7, 48, 286.4516296386719
0, 7, 49, 303.3146057128906
0, 7, 50, 322.1648559570312
0, 7, 51, 299.1375732421875
0, 7, 52, 328.8026428222656
0, 7, 53, 311.003173828125
0, 7, 54, 323.6765747070312
0, 7, 55, 307.2419738769531
0, 7, 56, 280.8360595703125
0, 7, 57, 283.9729614257812
0, 7, 58, 297.4329528808594
0, 7, 59, 292.7002258300781
0, 7, 60, 322.9818725585938
0, 7, 61, 278.1368408203125
0, 7, 62, 299.4140014648438
0, 7, 63, 291.9171447753906
0, 7, 64, 305.6246643066406
0, 7, 65, 331.3166198730469
0, 7, 66, 319.9033508300781
0, 7, 67, 301.1871032714844
0, 7, 68, 279.2685546875
0, 7, 69, 293.9001770019531
0, 7, 70, 300.984130859375
0, 7, 71, 311.4925537109375
0, 7, 72, 285.459716796875
0, 7, 73, 294.7802124023438
0, 7, 74, 343.9223022460938
0, 7, 75, 319.1344299316406
0, 7, 76, 322.4784545898438
0, 7, 77, 281.4513244628906
0, 7, 78, 301.1651000976562
0, 7, 79, 298.7455749511719
0, 7, 80, 312.6017456054688
0, 7, 81, 318.310546875
0, 7, 82, 331.2471313476562
0, 7, 83, 316.2119140625
0, 7, 84, 309.9062194824219
0, 7, 85, 271.8674621582031
0, 7, 86, 310.532958984375
0, 7, 87, 312.1630554199219
0, 7, 88, 306.7190856933594
0, 7, 89, 292.5688781738281
0, 7, 90, 308.8352661132812
0, 7, 91, 314.0733947753906
0, 7, 92, 289.1343383789062
0, 7, 93, 307.6193237304688
0, 7, 94, 273.9416198730469
0, 7, 95, 298.3874816894531
0, 7, 96, 332.8118896484375
0, 7, 97, 295.1939392089844
0, 7, 98, 290.2055358886719
0, 7, 99, 313.2790222167969
0, 7, 100, 282.4017333984375
0, 7, 101, 274.5142517089844
0, 7, 102, 290.3330383300781
0, 7, 103, 292.1381530761719
0, 7, 104, 274.4837036132812
0, 7, 105, 305.0105590820312
0, 7, 106, 317.9551391601562
0, 7, 107, 298.541259765625
0, 7, 108, 274.4889221191406
0, 7, 109, 236.8193206787109
0, 7, 110, 96.67430114746094
0, 7, 111, 24.35029220581055
0, 7, 112, 14.08933067321777
0, 7, 113, 13.78945827484131
0, 7, 114, 11.9803352355957
0, 7, 115, 12.10486507415771
0, 7, 116, 11.26721954345703
0, 7, 117, 7.356367588043213
0, 7, 118, 9.697750091552734
0, 7, 119, 4.444153785705566
0, 7, 120, 5.079687118530273
0, 7, 121, 6.144283294677734
0, 7, 122, 6.630756855010986
0, 7, 123, 6.368034362792969
0, 7, 124, 3.157903909683228
0, 7, 125, 7.091665744781494
0, 7, 126, 8.37639331817627
0, 7, 127, 2.572832107543945
0, 8, 0, 5.441416263580322
0, 8, 1, 4.083586692810059
0, 8, 2, 3.20957350730896
0, 8, 3, 3.5301194190979
0, 8, 4, 5.38854455947876
0, 8, 5, 6.218054294586182
0, 8, 6, 4.245448589324951
0, 8, 7, 5.096602439880371
0, 8, 8, 6.778042793273926
0, 8, 9, 4.989816665649414
0, 8, 10, 9.703898429870605
0, 8, 11, 15.08271980285645
0, 8, 12, 17.89251899719238
0, 8, 13, 16.74762725830078
0, 8, 14, 13.00173664093018
0, 8, 15, 16.68919944763184
0, 8, 16, 32.3924446105957
0, 8, 17, 130.5509185791016
0, 8, 18, 242.8924407958984
0, 8, 19, 297.8681640625
0, 8, 20, 286.0330810546875
0, 8, 21, 306.4083862304688
0, 8, 22, 296.8058471679688
0, 8, 23, 275.2885437011719
0, 8, 24, 267.637451171875
0, 8, 25, 274.9701538085938
0, 8, 26, 306.3398132324219
0, 8, 27, 309.9919128417969
0, 8, 28, 304.8446350097656
0, 8, 29, 319.8991088867188
0, 8, 30, 314.7581787109375
0, 8, 31, 303.8700866699219
0, 8, 32, 280.1196899414062
0, 8, 33, 296.0852966308594
0, 8, 34, 289.524658203125
0, 8, 35, 278.09619140625
0, 8, 36, 316.1336364746094
0, 8, 37, 340.2566528320312
0, 8, 38, 330.9041748046875
0, 8, 39, 280.9655151367188
0, 8, 40, 304.6553344726562
