# TOPAS Version: 3.1.p3
# Parameter File: batch_inserts_166.txt
# Results for scorer Readout_Adipose
# Scored in component: MyBox
# X in 1 bin  of 0.75 cm
# Y in 512 bins of 0.0783984 cm
# Z in 128 bins of 0.078125 cm
# EnergyDeposit ( MeV ) : Sum   
0, 0, 0, 4.630850791931152
0, 0, 1, 1.84477686882019
0, 0, 2, 2.819045305252075
0, 0, 3, 3.102214574813843
0, 0, 4, 3.196698427200317
0, 0, 5, 2.138963937759399
0, 0, 6, 9.571954727172852
0, 0, 7, 9.119093894958496
0, 0, 8, 3.287789583206177
0, 0, 9, 3.681744575500488
0, 0, 10, 6.22902774810791
0, 0, 11, 4.453202724456787
0, 0, 12, 4.563603401184082
0, 0, 13, 4.320395946502686
0, 0, 14, 7.001962661743164
0, 0, 15, 9.775732040405273
0, 0, 16, 9.151504516601562
0, 0, 17, 8.793062210083008
0, 0, 18, 13.42667579650879
0, 0, 19, 43.20265960693359
0, 0, 20, 138.0208282470703
0, 0, 21, 222.9406127929688
0, 0, 22, 248.7151336669922
0, 0, 23, 257.7611083984375
0, 0, 24, 250.9960479736328
0, 0, 25, 261.946044921875
0, 0, 26, 233.2077484130859
0, 0, 27, 237.6772613525391
0, 0, 28, 272.1215209960938
0, 0, 29, 252.8937835693359
0, 0, 30, 228.7847747802734
0, 0, 31, 243.3496246337891
0, 0, 32, 263.9917907714844
0, 0, 33, 259.2652282714844
0, 0, 34, 288.2283935546875
0, 0, 35, 267.8262023925781
0, 0, 36, 247.0431213378906
0, 0, 37, 253.7362518310547
0, 0, 38, 269.2952880859375
0, 0, 39, 228.6837768554688
0, 0, 40, 241.8109588623047
0, 0, 41, 264.625732421875
0, 0, 42, 228.7162170410156
0, 0, 43, 259.5567016601562
0, 0, 44, 252.7060852050781
0, 0, 45, 252.9075317382812
0, 0, 46, 244.2477874755859
0, 0, 47, 254.8340911865234
0, 0, 48, 268.2726135253906
0, 0, 49, 274.3707885742188
0, 0, 50, 250.9700927734375
0, 0, 51, 253.4332427978516
0, 0, 52, 273.1463928222656
0, 0, 53, 291.6881103515625
0, 0, 54, 241.2819519042969
0, 0, 55, 239.2210845947266
0, 0, 56, 276.7726745605469
0, 0, 57, 263.927734375
0, 0, 58, 246.8731079101562
0, 0, 59, 270.2776794433594
0, 0, 60, 235.9037780761719
0, 0, 61, 245.278076171875
0, 0, 62, 260.2192687988281
0, 0, 63, 268.2711791992188
0, 0, 64, 257.1404418945312
0, 0, 65, 261.851806640625
0, 0, 66, 276.4564514160156
0, 0, 67, 245.6855621337891
0, 0, 68, 258.6671752929688
0, 0, 69, 260.9759521484375
0, 0, 70, 271.5397644042969
0, 0, 71, 237.756591796875
0, 0, 72, 249.4184417724609
0, 0, 73, 257.770751953125
0, 0, 74, 250.9099731445312
0, 0, 75, 240.8635406494141
0, 0, 76, 228.4399261474609
0, 0, 77, 258.9000549316406
0, 0, 78, 261.0743713378906
0, 0, 79, 278.8060607910156
0, 0, 80, 215.1871643066406
0, 0, 81, 267.4209594726562
0, 0, 82, 256.156005859375
0, 0, 83, 245.8292846679688
0, 0, 84, 270.1547241210938
0, 0, 85, 232.1631011962891
0, 0, 86, 253.6856231689453
0, 0, 87, 252.8145904541016
0, 0, 88, 260.5787353515625
0, 0, 89, 283.95703125
0, 0, 90, 243.72607421875
0, 0, 91, 282.0535888671875
0, 0, 92, 252.2729339599609
0, 0, 93, 248.5303192138672
0, 0, 94, 249.4776458740234
0, 0, 95, 248.4920654296875
0, 0, 96, 274.0616760253906
0, 0, 97, 272.3438720703125
0, 0, 98, 273.1522521972656
0, 0, 99, 258.1486206054688
0, 0, 100, 257.2431030273438
0, 0, 101, 227.6260070800781
0, 0, 102, 232.6612548828125
0, 0, 103, 269.6903686523438
0, 0, 104, 254.9343109130859
0, 0, 105, 252.1531677246094
0, 0, 106, 245.3738250732422
0, 0, 107, 151.3074493408203
0, 0, 108, 36.93649673461914
0, 0, 109, 11.30001640319824
0, 0, 110, 11.55020618438721
0, 0, 111, 10.27469539642334
0, 0, 112, 6.304221630096436
0, 0, 113, 6.467368602752686
0, 0, 114, 8.646065711975098
0, 0, 115, 3.485635757446289
0, 0, 116, 5.150426387786865
0, 0, 117, 5.382650852203369
0, 0, 118, 6.234642028808594
0, 0, 119, 3.618533134460449
0, 0, 120, 3.002178192138672
0, 0, 121, 2.226101636886597
0, 0, 122, 4.482943534851074
0, 0, 123, 4.843485355377197
0, 0, 124, 5.112813949584961
0, 0, 125, 3.500879049301147
0, 0, 126, 5.631594657897949
0, 0, 127, 2.692620992660522
0, 1, 0, 7.655346393585205
0, 1, 1, 3.108513832092285
0, 1, 2, 5.015432357788086
0, 1, 3, 2.061232328414917
0, 1, 4, 3.249382495880127
0, 1, 5, 4.519097805023193
0, 1, 6, 5.911770820617676
0, 1, 7, 4.247550964355469
0, 1, 8, 8.131163597106934
0, 1, 9, 3.081853628158569
0, 1, 10, 6.141657829284668
0, 1, 11, 11.38901042938232
0, 1, 12, 8.530710220336914
0, 1, 13, 10.02615070343018
0, 1, 14, 7.074865818023682
0, 1, 15, 7.826000213623047
0, 1, 16, 11.71306991577148
0, 1, 17, 10.64479923248291
0, 1, 18, 20.53986740112305
0, 1, 19, 65.96913146972656
0, 1, 20, 201.0461578369141
0, 1, 21, 254.427734375
0, 1, 22, 297.3109130859375
0, 1, 23, 282.6866149902344
0, 1, 24, 276.0176696777344
0, 1, 25, 288.1336975097656
0, 1, 26, 269.6990661621094
0, 1, 27, 306.4053955078125
0, 1, 28, 298.3821105957031
0, 1, 29, 295.3360900878906
0, 1, 30, 282.3992919921875
0, 1, 31, 290.5771179199219
0, 1, 32, 289.9664306640625
0, 1, 33, 296.8271789550781
0, 1, 34, 292.4791564941406
0, 1, 35, 279.7966918945312
0, 1, 36, 306.5612487792969
0, 1, 37, 295.4686889648438
0, 1, 38, 280.174072265625
0, 1, 39, 295.1764831542969
0, 1, 40, 264.7161254882812
0, 1, 41, 287.7235717773438
0, 1, 42, 290.6617431640625
0, 1, 43, 331.9008483886719
0, 1, 44, 277.8554382324219
0, 1, 45, 292.7941284179688
0, 1, 46, 259.7017517089844
0, 1, 47, 308.7424926757812
0, 1, 48, 284.0831604003906
0, 1, 49, 302.2951049804688
0, 1, 50, 264.175048828125
0, 1, 51, 274.5396118164062
0, 1, 52, 296.286865234375
0, 1, 53, 303.1908874511719
0, 1, 54, 274.240478515625
0, 1, 55, 293.3833923339844
0, 1, 56, 279.9150085449219
0, 1, 57, 298.5571899414062
0, 1, 58, 311.7626647949219
0, 1, 59, 291.5086975097656
0, 1, 60, 298.1897583007812
0, 1, 61, 274.8135681152344
0, 1, 62, 310.3149719238281
0, 1, 63, 287.0966491699219
0, 1, 64, 288.9656066894531
0, 1, 65, 296.18701171875
0, 1, 66, 291.7516784667969
0, 1, 67, 291.4412231445312
0, 1, 68, 277.5403137207031
0, 1, 69, 281.8019714355469
0, 1, 70, 271.8227233886719
0, 1, 71, 273.3335876464844
0, 1, 72, 285.8262634277344
0, 1, 73, 304.6240234375
0, 1, 74, 303.8414916992188
0, 1, 75, 294.1617431640625
0, 1, 76, 286.3191528320312
0, 1, 77, 289.5341186523438
0, 1, 78, 297.8302001953125
0, 1, 79, 300.5161437988281
0, 1, 80, 297.2782287597656
0, 1, 81, 301.2604370117188
0, 1, 82, 284.3203430175781
0, 1, 83, 331.7555847167969
0, 1, 84, 308.5278930664062
0, 1, 85, 253.3439178466797
0, 1, 86, 293.4466857910156
0, 1, 87, 289.324951171875
0, 1, 88, 297.6628112792969
0, 1, 89, 290.8641662597656
0, 1, 90, 270.9734802246094
0, 1, 91, 318.8687744140625
0, 1, 92, 291.3484497070312
0, 1, 93, 285.5480041503906
0, 1, 94, 303.3260192871094
0, 1, 95, 284.2572326660156
0, 1, 96, 286.4420776367188
0, 1, 97, 302.2810668945312
0, 1, 98, 276.766357421875
0, 1, 99, 268.1245727539062
0, 1, 100, 276.9755249023438
0, 1, 101, 280.481689453125
0, 1, 102, 278.4148864746094
0, 1, 103, 280.7691650390625
0, 1, 104, 306.4144287109375
0, 1, 105, 296.9337768554688
0, 1, 106, 260.1312255859375
0, 1, 107, 190.2440643310547
0, 1, 108, 81.64276885986328
0, 1, 109, 24.00016593933105
0, 1, 110, 12.03225803375244
0, 1, 111, 10.06408214569092
0, 1, 112, 10.81916332244873
0, 1, 113, 6.540087699890137
0, 1, 114, 6.260757446289062
0, 1, 115, 7.090918064117432
0, 1, 116, 10.2704381942749
0, 1, 117, 6.842501640319824
0, 1, 118, 5.036027431488037
0, 1, 119, 5.308954238891602
0, 1, 120, 4.067928791046143
0, 1, 121, 3.59274959564209
0, 1, 122, 2.786805152893066
0, 1, 123, 3.578233957290649
0, 1, 124, 8.30659294128418
0, 1, 125, 4.821500778198242
0, 1, 126, 2.397669553756714
0, 1, 127, 1.074179172515869
0, 2, 0, 3.843916893005371
0, 2, 1, 3.186590433120728
0, 2, 2, 3.895174503326416
0, 2, 3, 4.551375389099121
0, 2, 4, 4.344434261322021
0, 2, 5, 3.357484817504883
0, 2, 6, 4.327110290527344
0, 2, 7, 3.327973604202271
0, 2, 8, 5.370017528533936
0, 2, 9, 5.841709613800049
0, 2, 10, 9.254781723022461
0, 2, 11, 5.629720687866211
0, 2, 12, 7.682720184326172
0, 2, 13, 8.520566940307617
0, 2, 14, 9.629661560058594
0, 2, 15, 8.235891342163086
0, 2, 16, 8.958333015441895
0, 2, 17, 16.42383575439453
0, 2, 18, 29.67062187194824
0, 2, 19, 115.4632568359375
0, 2, 20, 247.2337036132812
0, 2, 21, 270.6769714355469
0, 2, 22, 316.7588500976562
0, 2, 23, 300.8052978515625
0, 2, 24, 286.0919494628906
0, 2, 25, 301.8502197265625
0, 2, 26, 295.1933288574219
0, 2, 27, 274.9524536132812
0, 2, 28, 271.9523010253906
0, 2, 29, 275.6727294921875
0, 2, 30, 289.1597900390625
0, 2, 31, 277.0074462890625
0, 2, 32, 294.8197937011719
0, 2, 33, 284.4974670410156
0, 2, 34, 332.9517822265625
0, 2, 35, 288.4330749511719
0, 2, 36, 303.0575256347656
0, 2, 37, 314.5956726074219
0, 2, 38, 314.1939392089844
0, 2, 39, 264.8394775390625
0, 2, 40, 309.0114135742188
0, 2, 41, 294.2524719238281
0, 2, 42, 303.7532348632812
0, 2, 43, 313.8168334960938
0, 2, 44, 310.7884216308594
0, 2, 45, 325.7095947265625
0, 2, 46, 288.1257934570312
0, 2, 47, 304.2115478515625
0, 2, 48, 281.5849609375
0, 2, 49, 278.7610473632812
0, 2, 50, 294.5736389160156
0, 2, 51, 283.3782348632812
0, 2, 52, 274.4480895996094
0, 2, 53, 286.3946228027344
0, 2, 54, 280.1598510742188
0, 2, 55, 276.4332580566406
0, 2, 56, 300.6405639648438
0, 2, 57, 290.9031372070312
0, 2, 58, 302.4813232421875
0, 2, 59, 292.6532287597656
0, 2, 60, 322.2948608398438
0, 2, 61, 303.1235961914062
0, 2, 62, 314.0121459960938
0, 2, 63, 305.3647155761719
0, 2, 64, 295.7694396972656
0, 2, 65, 311.8333740234375
0, 2, 66, 279.1339721679688
0, 2, 67, 291.5885925292969
0, 2, 68, 295.2742309570312
0, 2, 69, 309.70703125
0, 2, 70, 333.3817138671875
0, 2, 71, 284.002685546875
0, 2, 72, 300.4940795898438
0, 2, 73, 311.0720825195312
0, 2, 74, 286.5570373535156
0, 2, 75, 305.8193054199219
0, 2, 76, 288.0947875976562
0, 2, 77, 299.1958923339844
0, 2, 78, 314.2628479003906
0, 2, 79, 307.2413635253906
0, 2, 80, 298.4930419921875
0, 2, 81, 284.2628173828125
0, 2, 82, 317.62353515625
0, 2, 83, 313.2418518066406
0, 2, 84, 286.9168090820312
0, 2, 85, 282.9582824707031
0, 2, 86, 324.5934753417969
0, 2, 87, 285.8809204101562
0, 2, 88, 281.0181579589844
0, 2, 89, 295.504150390625
0, 2, 90, 294.0596618652344
0, 2, 91, 276.2826843261719
0, 2, 92, 305.1025390625
0, 2, 93, 316.9588928222656
0, 2, 94, 291.3964233398438
0, 2, 95, 314.9639892578125
0, 2, 96, 314.3926696777344
0, 2, 97, 290.6302490234375
0, 2, 98, 293.4154357910156
0, 2, 99, 274.5365295410156
0, 2, 100, 305.22998046875
0, 2, 101, 300.7626342773438
0, 2, 102, 296.6882019042969
0, 2, 103, 293.7347106933594
0, 2, 104, 292.2596130371094
0, 2, 105, 273.8956909179688
0, 2, 106, 296.6620788574219
0, 2, 107, 270.9948425292969
0, 2, 108, 116.2552108764648
0, 2, 109, 31.89781761169434
0, 2, 110, 9.961122512817383
0, 2, 111, 12.27012157440186
0, 2, 112, 11.66615104675293
0, 2, 113, 9.209016799926758
0, 2, 114, 10.00557041168213
0, 2, 115, 10.30501174926758
0, 2, 116, 8.191911697387695
0, 2, 117, 8.647685050964355
0, 2, 118, 2.439783334732056
0, 2, 119, 4.947457790374756
0, 2, 120, 9.673567771911621
0, 2, 121, 3.235954761505127
0, 2, 122, 3.895840644836426
0, 2, 123, 4.437112331390381
0, 2, 124, 4.36721658706665
0, 2, 125, 4.671754360198975
0, 2, 126, 3.135449171066284
0, 2, 127, 5.232216835021973
0, 3, 0, 2.472218036651611
0, 3, 1, 3.228556156158447
0, 3, 2, 4.283278942108154
0, 3, 3, 1.732740998268127
0, 3, 4, 3.283381462097168
0, 3, 5, 8.012200355529785
0, 3, 6, 6.054201126098633
0, 3, 7, 5.254410266876221
0, 3, 8, 4.172573566436768
0, 3, 9, 7.999911308288574
0, 3, 10, 5.508553028106689
0, 3, 11, 5.026335716247559
0, 3, 12, 8.566895484924316
0, 3, 13, 16.09457969665527
0, 3, 14, 12.89344787597656
0, 3, 15, 12.87148761749268
0, 3, 16, 11.63317775726318
0, 3, 17, 21.53009033203125
0, 3, 18, 54.41945266723633
0, 3, 19, 174.3120727539062
0, 3, 20, 268.2111206054688
0, 3, 21, 270.1377868652344
0, 3, 22, 284.2192687988281
0, 3, 23, 286.5017395019531
0, 3, 24, 287.0008239746094
0, 3, 25, 268.6387023925781
0, 3, 26, 303.3500366210938
0, 3, 27, 292.0235595703125
0, 3, 28, 278.575439453125
0, 3, 29, 337.7920227050781
0, 3, 30, 316.0686645507812
0, 3, 31, 286.8332214355469
0, 3, 32, 308.1757202148438
0, 3, 33, 316.2130737304688
0, 3, 34, 320.2030029296875
0, 3, 35, 306.0269165039062
0, 3, 36, 268.0372314453125
0, 3, 37, 312.1712646484375
0, 3, 38, 303.985107421875
0, 3, 39, 290.8700866699219
0, 3, 40, 267.6230163574219
0, 3, 41, 301.3524780273438
0, 3, 42, 285.437255859375
0, 3, 43, 310.063720703125
0, 3, 44, 311.3543090820312
0, 3, 45, 291.7628479003906
0, 3, 46, 331.2800598144531
0, 3, 47, 299.8058776855469
0, 3, 48, 304.0851135253906
0, 3, 49, 277.5419616699219
0, 3, 50, 289.3674011230469
0, 3, 51, 277.6402587890625
0, 3, 52, 314.9310302734375
0, 3, 53, 286.437744140625
0, 3, 54, 285.0337524414062
0, 3, 55, 284.3166809082031
0, 3, 56, 298.3174133300781
0, 3, 57, 291.4103393554688
0, 3, 58, 307.5092468261719
0, 3, 59, 297.2738952636719
0, 3, 60, 297.0565490722656
0, 3, 61, 264.4585876464844
0, 3, 62, 284.566162109375
0, 3, 63, 306.9254455566406
0, 3, 64, 315.4562377929688
0, 3, 65, 303.2276000976562
0, 3, 66, 314.0491027832031
0, 3, 67, 317.412109375
0, 3, 68, 279.6503601074219
0, 3, 69, 280.7101745605469
0, 3, 70, 287.6807250976562
0, 3, 71, 299.5038452148438
0, 3, 72, 270.0877075195312
0, 3, 73, 307.73583984375
0, 3, 74, 292.9877319335938
0, 3, 75, 288.5576782226562
0, 3, 76, 305.1768798828125
0, 3, 77, 312.6607971191406
0, 3, 78, 304.9110107421875
0, 3, 79, 281.9258422851562
0, 3, 80, 289.7465515136719
0, 3, 81, 311.0781860351562
0, 3, 82, 314.4639282226562
0, 3, 83, 301.8358459472656
0, 3, 84, 310.4002075195312
0, 3, 85, 294.0324096679688
0, 3, 86, 302.3609619140625
0, 3, 87, 299.6624145507812
0, 3, 88, 299.2905883789062
0, 3, 89, 296.7374572753906
0, 3, 90, 276.8490295410156
0, 3, 91, 283.8023376464844
0, 3, 92, 304.1842041015625
0, 3, 93, 314.3102416992188
0, 3, 94, 297.2590637207031
0, 3, 95, 333.2442321777344
0, 3, 96, 291.0707702636719
0, 3, 97, 285.6793518066406
0, 3, 98, 277.8282470703125
0, 3, 99, 261.2438354492188
0, 3, 100, 284.7028503417969
0, 3, 101, 298.1664428710938
0, 3, 102, 273.267578125
0, 3, 103, 321.8912048339844
0, 3, 104, 309.27099609375
0, 3, 105, 287.0657958984375
0, 3, 106, 303.498291015625
0, 3, 107, 283.0004577636719
0, 3, 108, 167.6154937744141
0, 3, 109, 55.49374008178711
0, 3, 110, 16.63875961303711
0, 3, 111, 12.35190677642822
0, 3, 112, 12.25968933105469
0, 3, 113, 8.296486854553223
0, 3, 114, 8.469792366027832
0, 3, 115, 6.242830276489258
0, 3, 116, 8.954508781433105
0, 3, 117, 8.027885437011719
0, 3, 118, 10.86295890808105
0, 3, 119, 5.208631038665771
0, 3, 120, 7.273152351379395
0, 3, 121, 2.114567279815674
0, 3, 122, 3.353334903717041
0, 3, 123, 4.721453189849854
0, 3, 124, 3.518014192581177
0, 3, 125, 4.962426662445068
0, 3, 126, 5.185720443725586
0, 3, 127, 2.765877962112427
0, 4, 0, 1.723352074623108
0, 4, 1, 4.251273155212402
0, 4, 2, 2.857715845108032
0, 4, 3, 1.817853569984436
0, 4, 4, 7.315786361694336
0, 4, 5, 7.622636795043945
0, 4, 6, 7.127462863922119
0, 4, 7, 4.941388607025146
0, 4, 8, 4.589769840240479
0, 4, 9, 5.49484920501709
0, 4, 10, 6.221620559692383
0, 4, 11, 8.290389060974121
0, 4, 12, 6.751535892486572
0, 4, 13, 10.85276794433594
0, 4, 14, 10.6834077835083
0, 4, 15, 8.424219131469727
0, 4, 16, 13.22341823577881
0, 4, 17, 18.63496589660645
0, 4, 18, 93.09844207763672
0, 4, 19, 222.5825347900391
0, 4, 20, 285.2669372558594
0, 4, 21, 271.7232360839844
0, 4, 22, 304.3378295898438
0, 4, 23, 265.3872680664062
0, 4, 24, 290.2069396972656
0, 4, 25, 272.947265625
0, 4, 26, 296.4283142089844
0, 4, 27, 282.2333984375
0, 4, 28, 306.7294921875
0, 4, 29, 323.142578125
0, 4, 30, 309.38037109375
0, 4, 31, 304.3694763183594
0, 4, 32, 283.5750122070312
0, 4, 33, 296.6921081542969
0, 4, 34, 296.716064453125
0, 4, 35, 311.9153442382812
0, 4, 36, 294.25439453125
0, 4, 37, 291.0629577636719
0, 4, 38, 298.250244140625
0, 4, 39, 293.31103515625
0, 4, 40, 300.9582214355469
0, 4, 41, 313.0695495605469
0, 4, 42, 330.1004943847656
0, 4, 43, 295.3912963867188
0, 4, 44, 321.1055603027344
0, 4, 45, 323.6228332519531
0, 4, 46, 305.0251770019531
0, 4, 47, 292.7406616210938
0, 4, 48, 295.559326171875
0, 4, 49, 277.1413269042969
0, 4, 50, 297.7026062011719
0, 4, 51, 317.1350402832031
0, 4, 52, 327.1639709472656
0, 4, 53, 305.005859375
0, 4, 54, 288.7205505371094
0, 4, 55, 313.9040832519531
0, 4, 56, 285.1434326171875
0, 4, 57, 309.4917907714844
0, 4, 58, 296.8564453125
0, 4, 59, 305.3480834960938
0, 4, 60, 301.5559997558594
0, 4, 61, 315.5741271972656
0, 4, 62, 307.6004638671875
0, 4, 63, 298.1229553222656
0, 4, 64, 330.0419006347656
0, 4, 65, 318.5272521972656
0, 4, 66, 293.9330444335938
0, 4, 67, 285.157958984375
0, 4, 68, 314.1600341796875
0, 4, 69, 276.0128479003906
0, 4, 70, 298.7558898925781
0, 4, 71, 320.5426025390625
0, 4, 72, 335.51123046875
0, 4, 73, 298.3253479003906
0, 4, 74, 291.8312072753906
0, 4, 75, 288.2624816894531
0, 4, 76, 273.4767761230469
0, 4, 77, 280.4678039550781
0, 4, 78, 310.3589172363281
0, 4, 79, 319.4220886230469
0, 4, 80, 315.4802856445312
0, 4, 81, 312.2887268066406
0, 4, 82, 297.9006958007812
0, 4, 83, 300.8681030273438
0, 4, 84, 291.53955078125
0, 4, 85, 294.300537109375
0, 4, 86, 296.9280090332031
0, 4, 87, 283.8821411132812
0, 4, 88, 306.09765625
0, 4, 89, 294.4259643554688
0, 4, 90, 334.6798706054688
0, 4, 91, 301.7918701171875
0, 4, 92, 290.6199340820312
0, 4, 93, 295.5594482421875
0, 4, 94, 292.4360046386719
0, 4, 95, 289.5358276367188
0, 4, 96, 322.9893188476562
0, 4, 97, 274.6459655761719
0, 4, 98, 328.0425720214844
0, 4, 99, 313.4028625488281
0, 4, 100, 300.1331787109375
0, 4, 101, 259.0137939453125
0, 4, 102, 296.4521484375
0, 4, 103, 317.3704223632812
0, 4, 104, 280.9857482910156
0, 4, 105, 309.9086303710938
0, 4, 106, 287.0560607910156
0, 4, 107, 294.6113891601562
0, 4, 108, 225.8005218505859
0, 4, 109, 78.47090148925781
0, 4, 110, 16.80367279052734
0, 4, 111, 14.36212730407715
0, 4, 112, 7.084949493408203
0, 4, 113, 10.32522487640381
0, 4, 114, 9.173111915588379
0, 4, 115, 10.42885971069336
0, 4, 116, 7.701813220977783
0, 4, 117, 7.826126575469971
0, 4, 118, 7.318268775939941
0, 4, 119, 9.303214073181152
0, 4, 120, 6.386985301971436
0, 4, 121, 8.32077693939209
0, 4, 122, 3.248153686523438
0, 4, 123, 7.095731258392334
0, 4, 124, 7.280212879180908
0, 4, 125, 8.276541709899902
0, 4, 126, 4.204468250274658
0, 4, 127, 4.135518550872803
0, 5, 0, 3.361916303634644
0, 5, 1, 3.804091691970825
0, 5, 2, 5.229989051818848
0, 5, 3, 3.883530616760254
0, 5, 4, 5.141767978668213
0, 5, 5, 8.391656875610352
0, 5, 6, 8.131781578063965
0, 5, 7, 6.110629558563232
0, 5, 8, 3.374959468841553
0, 5, 9, 5.097224235534668
0, 5, 10, 6.525899887084961
0, 5, 11, 8.944398880004883
0, 5, 12, 7.873174667358398
0, 5, 13, 4.800213813781738
0, 5, 14, 11.37417602539062
0, 5, 15, 20.48368263244629
0, 5, 16, 16.77229690551758
0, 5, 17, 30.86016845703125
0, 5, 18, 136.9891967773438
0, 5, 19, 286.7965393066406
0, 5, 20, 308.4337463378906
0, 5, 21, 317.8899536132812
0, 5, 22, 275.3943786621094
0, 5, 23, 314.6984558105469
0, 5, 24, 303.2877197265625
0, 5, 25, 290.5414123535156
0, 5, 26, 296.8930969238281
0, 5, 27, 321.6783752441406
0, 5, 28, 303.1340942382812
0, 5, 29, 298.1536865234375
0, 5, 30, 322.519287109375
0, 5, 31, 286.1510009765625
0, 5, 32, 303.5669250488281
0, 5, 33, 303.7813415527344
0, 5, 34, 297.25927734375
0, 5, 35, 308.6881103515625
0, 5, 36, 274.9473266601562
0, 5, 37, 283.4200744628906
0, 5, 38, 291.7887878417969
0, 5, 39, 313.6208190917969
0, 5, 40, 306.8328247070312
0, 5, 41, 272.8173217773438
0, 5, 42, 304.7320556640625
0, 5, 43, 314.2615356445312
0, 5, 44, 293.3999938964844
0, 5, 45, 300.8382568359375
0, 5, 46, 265.8421630859375
0, 5, 47, 278.7509460449219
0, 5, 48, 293.5276489257812
0, 5, 49, 285.6235046386719
0, 5, 50, 296.3652954101562
0, 5, 51, 280.3134155273438
0, 5, 52, 269.1900939941406
0, 5, 53, 284.8341369628906
0, 5, 54, 294.1210632324219
0, 5, 55, 345.1287231445312
0, 5, 56, 304.7939453125
0, 5, 57, 305.0174865722656
0, 5, 58, 312.8840942382812
0, 5, 59, 304.1463928222656
0, 5, 60, 307.8089599609375
0, 5, 61, 282.3557434082031
0, 5, 62, 324.7167663574219
0, 5, 63, 292.556396484375
0, 5, 64, 322.8300476074219
0, 5, 65, 306.8717956542969
0, 5, 66, 327.2247619628906
0, 5, 67, 311.8379821777344
0, 5, 68, 308.761962890625
0, 5, 69, 312.1266174316406
0, 5, 70, 302.0774230957031
0, 5, 71, 271.7925109863281
0, 5, 72, 309.4841003417969
0, 5, 73, 303.7401428222656
0, 5, 74, 295.6132202148438
0, 5, 75, 294.1114807128906
0, 5, 76, 284.612060546875
0, 5, 77, 298.0581970214844
0, 5, 78, 316.1563110351562
0, 5, 79, 306.9776000976562
0, 5, 80, 295.1241760253906
0, 5, 81, 325.6424255371094
0, 5, 82, 323.6851196289062
0, 5, 83, 279.6787719726562
0, 5, 84, 301.116455078125
0, 5, 85, 271.3330993652344
0, 5, 86, 327.6546325683594
0, 5, 87, 287.1044006347656
0, 5, 88, 313.0062255859375
0, 5, 89, 306.2446594238281
0, 5, 90, 316.525634765625
0, 5, 91, 315.7836303710938
0, 5, 92, 296.1637878417969
0, 5, 93, 322.2793273925781
0, 5, 94, 307.1725769042969
0, 5, 95, 296.202392578125
0, 5, 96, 297.0553283691406
0, 5, 97, 295.2410583496094
0, 5, 98, 318.8550109863281
0, 5, 99, 301.609375
0, 5, 100, 291.1134033203125
0, 5, 101, 304.474609375
0, 5, 102, 295.2605285644531
0, 5, 103, 312.7430419921875
0, 5, 104, 301.4749450683594
0, 5, 105, 294.3550415039062
0, 5, 106, 282.2463684082031
0, 5, 107, 291.9034729003906
0, 5, 108, 268.3836364746094
0, 5, 109, 157.4034423828125
0, 5, 110, 40.11920928955078
0, 5, 111, 20.48798942565918
0, 5, 112, 16.7478141784668
0, 5, 113, 15.37383937835693
0, 5, 114, 14.47725677490234
0, 5, 115, 7.375480175018311
0, 5, 116, 8.186476707458496
0, 5, 117, 6.221901893615723
0, 5, 118, 11.69758892059326
0, 5, 119, 3.072913408279419
0, 5, 120, 7.097353458404541
0, 5, 121, 5.266829013824463
0, 5, 122, 5.130998611450195
0, 5, 123, 5.677356243133545
0, 5, 124, 6.801214218139648
0, 5, 125, 4.454570770263672
0, 5, 126, 6.243870258331299
0, 5, 127, 3.765104055404663
0, 6, 0, 4.802350997924805
0, 6, 1, 3.552085638046265
0, 6, 2, 5.51851224899292
0, 6, 3, 5.360601902008057
0, 6, 4, 3.938741683959961
0, 6, 5, 6.106310367584229
0, 6, 6, 6.8865647315979
0, 6, 7, 4.221197128295898
0, 6, 8, 7.077348232269287
0, 6, 9, 5.204182147979736
0, 6, 10, 8.324806213378906
0, 6, 11, 7.906839847564697
0, 6, 12, 8.742276191711426
0, 6, 13, 11.55629825592041
0, 6, 14, 9.449909210205078
0, 6, 15, 17.2134838104248
0, 6, 16, 28.47052383422852
0, 6, 17, 54.41593933105469
0, 6, 18, 171.8900604248047
0, 6, 19, 275.3749694824219
0, 6, 20, 291.4970703125
0, 6, 21, 313.0389099121094
0, 6, 22, 319.0861511230469
0, 6, 23, 306.1304016113281
0, 6, 24, 315.8587646484375
0, 6, 25, 315.3946838378906
0, 6, 26, 322.2459716796875
0, 6, 27, 332.2391357421875
0, 6, 28, 294.7169494628906
0, 6, 29, 329.8458557128906
0, 6, 30, 279.6530456542969
0, 6, 31, 285.1062622070312
0, 6, 32, 339.9077453613281
0, 6, 33, 300.8121032714844
0, 6, 34, 338.3846130371094
0, 6, 35, 319.672119140625
0, 6, 36, 274.4573974609375
0, 6, 37, 288.8849792480469
0, 6, 38, 314.5506896972656
0, 6, 39, 296.6018676757812
0, 6, 40, 283.7684631347656
0, 6, 41, 296.8830871582031
0, 6, 42, 304.6248779296875
0, 6, 43, 290.0031127929688
0, 6, 44, 279.4274597167969
0, 6, 45, 321.2720031738281
0, 6, 46, 300.445556640625
0, 6, 47, 332.1941833496094
0, 6, 48, 292.7506103515625
0, 6, 49, 313.2206115722656
0, 6, 50, 328.4556884765625
0, 6, 51, 309.8083190917969
0, 6, 52, 320.3671264648438
0, 6, 53, 326.869873046875
0, 6, 54, 302.8391418457031
0, 6, 55, 308.33642578125
0, 6, 56, 294.2799987792969
0, 6, 57, 312.5189208984375
0, 6, 58, 261.7019958496094
0, 6, 59, 301.6055603027344
0, 6, 60, 311.7037048339844
0, 6, 61, 271.5025329589844
0, 6, 62, 337.8609924316406
0, 6, 63, 322.9580688476562
0, 6, 64, 293.78955078125
0, 6, 65, 283.5298156738281
0, 6, 66, 303.2966918945312
0, 6, 67, 310.3672485351562
0, 6, 68, 295.1694946289062
0, 6, 69, 278.819091796875
0, 6, 70, 274.8082580566406
0, 6, 71, 288.5595092773438
0, 6, 72, 310.9369812011719
0, 6, 73, 293.7454528808594
0, 6, 74, 329.8838500976562
0, 6, 75, 343.2657165527344
0, 6, 76, 297.9197692871094
0, 6, 77, 285.9825134277344
0, 6, 78, 277.0268859863281
0, 6, 79, 292.4660034179688
0, 6, 80, 298.1790466308594
0, 6, 81, 314.4759826660156
0, 6, 82, 319.5513000488281
0, 6, 83, 320.224609375
0, 6, 84, 295.2347412109375
0, 6, 85, 300.687744140625
0, 6, 86, 330.3811950683594
0, 6, 87, 290.702880859375
0, 6, 88, 306.9080505371094
0, 6, 89, 305.2498474121094
0, 6, 90, 301.0089721679688
0, 6, 91, 313.1705932617188
0, 6, 92, 285.6187133789062
0, 6, 93, 296.069580078125
0, 6, 94, 271.5555114746094
0, 6, 95, 301.7035217285156
0, 6, 96, 347.2611083984375
0, 6, 97, 308.435546875
0, 6, 98, 303.8250427246094
0, 6, 99, 274.0443115234375
0, 6, 100, 308.9915161132812
0, 6, 101, 292.2513122558594
0, 6, 102, 306.6053466796875
0, 6, 103, 307.1311645507812
0, 6, 104, 293.0281066894531
0, 6, 105, 301.36474609375
0, 6, 106, 306.7662048339844
0, 6, 107, 304.6228637695312
0, 6, 108, 266.0310668945312
0, 6, 109, 186.7201232910156
0, 6, 110, 54.36392974853516
0, 6, 111, 21.55801582336426
0, 6, 112, 12.8506326675415
0, 6, 113, 10.02907657623291
0, 6, 114, 11.72979068756104
0, 6, 115, 10.41917610168457
0, 6, 116, 10.04418563842773
0, 6, 117, 8.821950912475586
0, 6, 118, 9.356344223022461
0, 6, 119, 11.91319561004639
0, 6, 120, 5.163445472717285
0, 6, 121, 6.188750267028809
0, 6, 122, 8.720027923583984
0, 6, 123, 5.696374416351318
0, 6, 124, 6.701324939727783
0, 6, 125, 7.839846611022949
0, 6, 126, 5.220863819122314
0, 6, 127, 7.289320945739746
0, 7, 0, 4.235764980316162
0, 7, 1, 3.877182960510254
0, 7, 2, 4.881274700164795
0, 7, 3, 5.843815326690674
0, 7, 4, 4.025930404663086
0, 7, 5, 3.568452835083008
0, 7, 6, 6.180930614471436
0, 7, 7, 3.936749696731567
0, 7, 8, 5.243443965911865
0, 7, 9, 9.616450309753418
0, 7, 10, 11.68531894683838
0, 7, 11, 11.05466556549072
0, 7, 12, 11.10921001434326
0, 7, 13, 12.54554843902588
0, 7, 14, 11.00464630126953
0, 7, 15, 16.50485420227051
0, 7, 16, 26.31462478637695
0, 7, 17, 99.28291320800781
0, 7, 18, 220.9576721191406
0, 7, 19, 291.5214233398438
0, 7, 20, 297.9548034667969
0, 7, 21, 276.7480163574219
0, 7, 22, 299.4149780273438
0, 7, 23, 288.6201782226562
0, 7, 24, 313.1277770996094
0, 7, 25, 324.7947692871094
0, 7, 26, 279.2399597167969
0, 7, 27, 297.4221801757812
0, 7, 28, 329.1605224609375
0, 7, 29, 318.6049499511719
0, 7, 30, 302.3277587890625
0, 7, 31, 278.2550354003906
0, 7, 32, 305.8338012695312
0, 7, 33, 259.2134704589844
0, 7, 34, 297.2257690429688
0, 7, 35, 321.6253967285156
0, 7, 36, 331.3731079101562
0, 7, 37, 325.6290283203125
0, 7, 38, 296.4353332519531
0, 7, 39, 308.1688842773438
0, 7, 40, 291.6483154296875
0, 7, 41, 270.7202453613281
0, 7, 42, 300.5296325683594
0, 7, 43, 275.9078674316406
0, 7, 44, 303.4681701660156
0, 7, 45, 294.9806823730469
0, 7, 46, 280.3487243652344
0, 7, 47, 330.3559875488281
0, 7, 48, 286.7119750976562
0, 7, 49, 302.6273498535156
0, 7, 50, 322.0781555175781
0, 7, 51, 298.9585571289062
0, 7, 52, 325.7636413574219
0, 7, 53, 308.1303100585938
0, 7, 54, 322.8742370605469
0, 7, 55, 306.0041809082031
0, 7, 56, 281.991943359375
0, 7, 57, 281.7239685058594
0, 7, 58, 297.9766540527344
0, 7, 59, 292.8276672363281
0, 7, 60, 321.6084899902344
0, 7, 61, 277.4600524902344
0, 7, 62, 297.6171569824219
0, 7, 63, 292.5047607421875
0, 7, 64, 306.85009765625
0, 7, 65, 330.6959228515625
0, 7, 66, 317.8135070800781
0, 7, 67, 302.56591796875
0, 7, 68, 278.4919738769531
0, 7, 69, 293.7385559082031
0, 7, 70, 301.5767517089844
0, 7, 71, 310.7341918945312
0, 7, 72, 283.4229736328125
0, 7, 73, 294.9237060546875
0, 7, 74, 345.3006286621094
0, 7, 75, 320.2045593261719
0, 7, 76, 324.6643981933594
0, 7, 77, 281.7550659179688
0, 7, 78, 301.3606262207031
0, 7, 79, 296.7776794433594
0, 7, 80, 310.7666931152344
0, 7, 81, 323.0893249511719
0, 7, 82, 331.0269165039062
0, 7, 83, 317.37451171875
0, 7, 84, 310.8623962402344
0, 7, 85, 271.3446350097656
0, 7, 86, 310.5157775878906
0, 7, 87, 310.7709655761719
0, 7, 88, 307.1869812011719
0, 7, 89, 295.1538391113281
0, 7, 90, 308.4505615234375
0, 7, 91, 315.5245666503906
0, 7, 92, 287.075927734375
0, 7, 93, 307.8551330566406
0, 7, 94, 273.0354309082031
0, 7, 95, 297.86181640625
0, 7, 96, 330.386962890625
0, 7, 97, 294.9013977050781
0, 7, 98, 290.5994873046875
0, 7, 99, 312.8906860351562
0, 7, 100, 282.6583251953125
0, 7, 101, 274.2016296386719
0, 7, 102, 289.4566040039062
0, 7, 103, 293.2821655273438
0, 7, 104, 274.5899353027344
0, 7, 105, 306.1678161621094
0, 7, 106, 318.5628967285156
0, 7, 107, 298.6174621582031
0, 7, 108, 273.3930053710938
0, 7, 109, 238.052978515625
0, 7, 110, 95.59437561035156
0, 7, 111, 24.31429481506348
0, 7, 112, 14.93415641784668
0, 7, 113, 13.6209888458252
0, 7, 114, 14.58421993255615
0, 7, 115, 11.8519926071167
0, 7, 116, 9.942270278930664
0, 7, 117, 8.561089515686035
0, 7, 118, 9.31959056854248
0, 7, 119, 7.784092903137207
0, 7, 120, 5.389138698577881
0, 7, 121, 7.180520057678223
0, 7, 122, 7.153260707855225
0, 7, 123, 6.0331711769104
0, 7, 124, 4.879367828369141
0, 7, 125, 6.310482025146484
0, 7, 126, 8.875807762145996
0, 7, 127, 3.96320915222168
0, 8, 0, 8.18266773223877
0, 8, 1, 2.827576398849487
0, 8, 2, 2.426886081695557
0, 8, 3, 3.430510759353638
0, 8, 4, 5.299707889556885
0, 8, 5, 5.188034534454346
0, 8, 6, 5.172065734863281
0, 8, 7, 6.464258193969727
0, 8, 8, 8.761734008789062
0, 8, 9, 4.868038177490234
0, 8, 10, 7.153659820556641
0, 8, 11, 13.41415691375732
0, 8, 12, 19.91341972351074
0, 8, 13, 14.63128852844238
0, 8, 14, 12.88512706756592
0, 8, 15, 16.9804744720459
0, 8, 16, 32.46199417114258
0, 8, 17, 130.7149353027344
0, 8, 18, 242.4539794921875
0, 8, 19, 296.8536682128906
0, 8, 20, 286.3606567382812
0, 8, 21, 305.5621948242188
0, 8, 22, 295.6133117675781
0, 8, 23, 276.1302490234375
0, 8, 24, 269.1544799804688
0, 8, 25, 274.6734008789062
0, 8, 26, 307.4637756347656
0, 8, 27, 306.7894592285156
0, 8, 28, 303.0820007324219
0, 8, 29, 319.1175231933594
0, 8, 30, 315.8099670410156
0, 8, 31, 304.3431396484375
0, 8, 32, 280.0395812988281
0, 8, 33, 297.8300476074219
0, 8, 34, 288.5072326660156
0, 8, 35, 281.3537292480469
0, 8, 36, 314.9974060058594
0, 8, 37, 340.564208984375
0, 8, 38, 332.4453735351562
0, 8, 39, 281.1105041503906
