# TOPAS Version: 3.1.p3
# Parameter File: batch_inserts_288.txt
# Results for scorer Readout_Adipose
# Scored in component: MyBox
# X in 1 bin  of 0.75 cm
# Y in 512 bins of 0.0783984 cm
# Z in 128 bins of 0.078125 cm
# EnergyDeposit ( MeV ) : Sum   
0, 0, 0, 4.131604671478271
0, 0, 1, 1.545502305030823
0, 0, 2, 2.561500072479248
0, 0, 3, 1.406263470649719
0, 0, 4, 3.395257949829102
0, 0, 5, 2.400247573852539
0, 0, 6, 6.667134284973145
0, 0, 7, 7.960875511169434
0, 0, 8, 3.885350465774536
0, 0, 9, 3.999300718307495
0, 0, 10, 6.31151008605957
0, 0, 11, 4.805439472198486
0, 0, 12, 6.433390140533447
0, 0, 13, 6.279285907745361
0, 0, 14, 7.01709508895874
0, 0, 15, 8.519707679748535
0, 0, 16, 8.369895935058594
0, 0, 17, 11.34699821472168
0, 0, 18, 12.05635547637939
0, 0, 19, 44.42617797851562
0, 0, 20, 140.5172271728516
0, 0, 21, 223.8438873291016
0, 0, 22, 249.2148742675781
0, 0, 23, 257.7088317871094
0, 0, 24, 250.2362060546875
0, 0, 25, 259.9168701171875
0, 0, 26, 235.5762023925781
0, 0, 27, 238.1841430664062
0, 0, 28, 271.9067687988281
0, 0, 29, 252.6661987304688
0, 0, 30, 232.5311889648438
0, 0, 31, 243.8610229492188
0, 0, 32, 263.2768249511719
0, 0, 33, 261.2260131835938
0, 0, 34, 287.8207092285156
0, 0, 35, 268.7246398925781
0, 0, 36, 247.9250335693359
0, 0, 37, 252.2550201416016
0, 0, 38, 270.5958251953125
0, 0, 39, 228.4351348876953
0, 0, 40, 243.0573577880859
0, 0, 41, 268.0602416992188
0, 0, 42, 228.1059722900391
0, 0, 43, 258.4391479492188
0, 0, 44, 251.7585144042969
0, 0, 45, 251.6801452636719
0, 0, 46, 244.350341796875
0, 0, 47, 252.9586944580078
0, 0, 48, 272.2310791015625
0, 0, 49, 273.8567199707031
0, 0, 50, 251.3768920898438
0, 0, 51, 253.2559509277344
0, 0, 52, 274.2419738769531
0, 0, 53, 291.3390502929688
0, 0, 54, 241.8357391357422
0, 0, 55, 242.8722381591797
0, 0, 56, 279.5633850097656
0, 0, 57, 261.7783813476562
0, 0, 58, 248.8917694091797
0, 0, 59, 272.232421875
0, 0, 60, 235.0736083984375
0, 0, 61, 244.6884307861328
0, 0, 62, 259.3351745605469
0, 0, 63, 266.1083984375
0, 0, 64, 256.9905090332031
0, 0, 65, 264.26123046875
0, 0, 66, 277.3134155273438
0, 0, 67, 247.4664459228516
0, 0, 68, 258.1292419433594
0, 0, 69, 261.6442260742188
0, 0, 70, 273.3702697753906
0, 0, 71, 238.3731536865234
0, 0, 72, 249.8266143798828
0, 0, 73, 258.519775390625
0, 0, 74, 252.8868865966797
0, 0, 75, 240.7479553222656
0, 0, 76, 229.9330902099609
0, 0, 77, 259.9901733398438
0, 0, 78, 255.3615417480469
0, 0, 79, 277.7771606445312
0, 0, 80, 217.8238220214844
0, 0, 81, 267.99658203125
0, 0, 82, 257.2706604003906
0, 0, 83, 245.2037658691406
0, 0, 84, 270.5784301757812
0, 0, 85, 231.8155517578125
0, 0, 86, 254.5779418945312
0, 0, 87, 251.7627258300781
0, 0, 88, 261.5130615234375
0, 0, 89, 282.7070617675781
0, 0, 90, 244.1327667236328
0, 0, 91, 281.1971435546875
0, 0, 92, 252.7209930419922
0, 0, 93, 249.2949676513672
0, 0, 94, 247.9545135498047
0, 0, 95, 247.0054931640625
0, 0, 96, 276.7734680175781
0, 0, 97, 273.1861877441406
0, 0, 98, 272.9919128417969
0, 0, 99, 259.4598388671875
0, 0, 100, 259.9447937011719
0, 0, 101, 227.6380767822266
0, 0, 102, 231.8177337646484
0, 0, 103, 269.8000793457031
0, 0, 104, 254.3075103759766
0, 0, 105, 251.7149810791016
0, 0, 106, 246.5144958496094
0, 0, 107, 152.9049987792969
0, 0, 108, 39.27455139160156
0, 0, 109, 11.96926975250244
0, 0, 110, 12.76899433135986
0, 0, 111, 10.11133193969727
0, 0, 112, 7.640888690948486
0, 0, 113, 5.220062732696533
0, 0, 114, 7.218564033508301
0, 0, 115, 3.775802850723267
0, 0, 116, 5.814798831939697
0, 0, 117, 6.800518989562988
0, 0, 118, 5.799687385559082
0, 0, 119, 3.87228798866272
0, 0, 120, 4.929851055145264
0, 0, 121, 4.755331993103027
0, 0, 122, 5.620461463928223
0, 0, 123, 2.63062858581543
0, 0, 124, 4.959590911865234
0, 0, 125, 2.168534994125366
0, 0, 126, 4.750074863433838
0, 0, 127, 3.952313661575317
0, 1, 0, 8.599983215332031
0, 1, 1, 3.129767894744873
0, 1, 2, 5.456067085266113
0, 1, 3, 2.275358915328979
0, 1, 4, 3.474161386489868
0, 1, 5, 4.514163494110107
0, 1, 6, 3.793456077575684
0, 1, 7, 3.661811828613281
0, 1, 8, 9.066781044006348
0, 1, 9, 4.268325328826904
0, 1, 10, 8.581153869628906
0, 1, 11, 11.27103996276855
0, 1, 12, 8.718680381774902
0, 1, 13, 10.98091697692871
0, 1, 14, 7.333153247833252
0, 1, 15, 8.040124893188477
0, 1, 16, 13.10839939117432
0, 1, 17, 10.08470058441162
0, 1, 18, 19.67924308776855
0, 1, 19, 65.28128051757812
0, 1, 20, 197.9833221435547
0, 1, 21, 255.8386535644531
0, 1, 22, 296.6131286621094
0, 1, 23, 283.3027648925781
0, 1, 24, 277.0205993652344
0, 1, 25, 291.0909729003906
0, 1, 26, 268.3264465332031
0, 1, 27, 304.6393737792969
0, 1, 28, 301.2991333007812
0, 1, 29, 297.9129333496094
0, 1, 30, 282.8671875
0, 1, 31, 291.0003662109375
0, 1, 32, 289.7986450195312
0, 1, 33, 296.0019226074219
0, 1, 34, 291.3826904296875
0, 1, 35, 278.2515563964844
0, 1, 36, 307.7471923828125
0, 1, 37, 295.8254699707031
0, 1, 38, 280.441650390625
0, 1, 39, 295.3201293945312
0, 1, 40, 266.7032470703125
0, 1, 41, 285.9356689453125
0, 1, 42, 290.0247192382812
0, 1, 43, 332.3417358398438
0, 1, 44, 278.4901428222656
0, 1, 45, 291.5301513671875
0, 1, 46, 258.8636779785156
0, 1, 47, 310.3756408691406
0, 1, 48, 286.1577453613281
0, 1, 49, 302.6094665527344
0, 1, 50, 263.5460205078125
0, 1, 51, 271.8194274902344
0, 1, 52, 297.1783752441406
0, 1, 53, 305.3126525878906
0, 1, 54, 274.4917297363281
0, 1, 55, 292.8402099609375
0, 1, 56, 278.2521057128906
0, 1, 57, 298.1581115722656
0, 1, 58, 309.4548034667969
0, 1, 59, 291.5766906738281
0, 1, 60, 297.8952331542969
0, 1, 61, 275.8153991699219
0, 1, 62, 307.9954833984375
0, 1, 63, 285.1768798828125
0, 1, 64, 289.1130065917969
0, 1, 65, 294.1981811523438
0, 1, 66, 293.6473693847656
0, 1, 67, 292.6748657226562
0, 1, 68, 277.1516418457031
0, 1, 69, 280.1879272460938
0, 1, 70, 270.8408203125
0, 1, 71, 274.3274536132812
0, 1, 72, 286.1058349609375
0, 1, 73, 304.5398559570312
0, 1, 74, 303.3219909667969
0, 1, 75, 291.6273498535156
0, 1, 76, 284.1912841796875
0, 1, 77, 289.1506652832031
0, 1, 78, 296.5900268554688
0, 1, 79, 302.0297546386719
0, 1, 80, 295.9489440917969
0, 1, 81, 300.945068359375
0, 1, 82, 282.0872802734375
0, 1, 83, 332.2174377441406
0, 1, 84, 308.3404235839844
0, 1, 85, 253.6795654296875
0, 1, 86, 293.8617248535156
0, 1, 87, 290.2248229980469
0, 1, 88, 297.1716918945312
0, 1, 89, 291.1390991210938
0, 1, 90, 269.8629150390625
0, 1, 91, 318.2656860351562
0, 1, 92, 290.9051208496094
0, 1, 93, 286.8592224121094
0, 1, 94, 305.4505004882812
0, 1, 95, 283.5639953613281
0, 1, 96, 283.1968383789062
0, 1, 97, 299.6937255859375
0, 1, 98, 277.3717346191406
0, 1, 99, 268.5093994140625
0, 1, 100, 277.5736694335938
0, 1, 101, 283.895751953125
0, 1, 102, 278.1061096191406
0, 1, 103, 280.9446411132812
0, 1, 104, 306.5761108398438
0, 1, 105, 296.9840698242188
0, 1, 106, 262.3626098632812
0, 1, 107, 192.7920989990234
0, 1, 108, 80.98502349853516
0, 1, 109, 22.76388740539551
0, 1, 110, 11.62009048461914
0, 1, 111, 7.76145601272583
0, 1, 112, 13.36340808868408
0, 1, 113, 4.563610076904297
0, 1, 114, 6.388030052185059
0, 1, 115, 6.487381935119629
0, 1, 116, 9.809687614440918
0, 1, 117, 7.61829137802124
0, 1, 118, 4.181853771209717
0, 1, 119, 8.59213924407959
0, 1, 120, 4.441609859466553
0, 1, 121, 4.112239837646484
0, 1, 122, 2.962361812591553
0, 1, 123, 3.183665752410889
0, 1, 124, 6.697689056396484
0, 1, 125, 4.702670097351074
0, 1, 126, 2.320478439331055
0, 1, 127, 1.202288150787354
0, 2, 0, 4.531429767608643
0, 2, 1, 1.787844061851501
0, 2, 2, 4.379814147949219
0, 2, 3, 5.385410785675049
0, 2, 4, 3.204662084579468
0, 2, 5, 1.67681348323822
0, 2, 6, 1.780419826507568
0, 2, 7, 3.576570749282837
0, 2, 8, 5.626813888549805
0, 2, 9, 5.408419132232666
0, 2, 10, 8.58668327331543
0, 2, 11, 7.012814998626709
0, 2, 12, 5.955191135406494
0, 2, 13, 9.371150970458984
0, 2, 14, 10.61040592193604
0, 2, 15, 7.361543655395508
0, 2, 16, 9.931488037109375
0, 2, 17, 16.12568473815918
0, 2, 18, 31.6864185333252
0, 2, 19, 116.8212661743164
0, 2, 20, 248.2078857421875
0, 2, 21, 270.8230895996094
0, 2, 22, 316.1192321777344
0, 2, 23, 300.4528503417969
0, 2, 24, 288.0506286621094
0, 2, 25, 305.8410949707031
0, 2, 26, 296.2875671386719
0, 2, 27, 274.92724609375
0, 2, 28, 273.1663513183594
0, 2, 29, 272.6818237304688
0, 2, 30, 292.5634155273438
0, 2, 31, 277.8412475585938
0, 2, 32, 294.0360717773438
0, 2, 33, 284.8489685058594
0, 2, 34, 335.9319763183594
0, 2, 35, 288.8953552246094
0, 2, 36, 305.1884155273438
0, 2, 37, 315.8267211914062
0, 2, 38, 311.3941650390625
0, 2, 39, 265.3226623535156
0, 2, 40, 306.0075378417969
0, 2, 41, 294.1507263183594
0, 2, 42, 305.8065490722656
0, 2, 43, 312.4647521972656
0, 2, 44, 313.5962524414062
0, 2, 45, 325.0022583007812
0, 2, 46, 287.7300720214844
0, 2, 47, 302.4036254882812
0, 2, 48, 283.4207153320312
0, 2, 49, 278.6785583496094
0, 2, 50, 296.4696350097656
0, 2, 51, 283.0221252441406
0, 2, 52, 271.9323425292969
0, 2, 53, 287.2378845214844
0, 2, 54, 280.8313903808594
0, 2, 55, 275.2165832519531
0, 2, 56, 301.3987426757812
0, 2, 57, 292.3327331542969
0, 2, 58, 302.4132690429688
0, 2, 59, 286.4031066894531
0, 2, 60, 318.1968994140625
0, 2, 61, 301.2763061523438
0, 2, 62, 312.9515686035156
0, 2, 63, 305.6088256835938
0, 2, 64, 295.1565551757812
0, 2, 65, 314.4532470703125
0, 2, 66, 280.0359191894531
0, 2, 67, 290.9131469726562
0, 2, 68, 296.5732116699219
0, 2, 69, 310.7642517089844
0, 2, 70, 335.2025756835938
0, 2, 71, 284.1896362304688
0, 2, 72, 301.7173461914062
0, 2, 73, 312.395751953125
0, 2, 74, 286.5102844238281
0, 2, 75, 303.7015686035156
0, 2, 76, 286.0281066894531
0, 2, 77, 302.2412719726562
0, 2, 78, 315.8588562011719
0, 2, 79, 308.8925476074219
0, 2, 80, 300.9820556640625
0, 2, 81, 281.6823120117188
0, 2, 82, 319.4270324707031
0, 2, 83, 311.388427734375
0, 2, 84, 291.873046875
0, 2, 85, 280.9018859863281
0, 2, 86, 324.6745300292969
0, 2, 87, 285.9067993164062
0, 2, 88, 280.1184997558594
0, 2, 89, 296.8392639160156
0, 2, 90, 294.7887878417969
0, 2, 91, 275.7245178222656
0, 2, 92, 306.3524780273438
0, 2, 93, 318.6044921875
0, 2, 94, 291.2412719726562
0, 2, 95, 313.7200927734375
0, 2, 96, 314.4308166503906
0, 2, 97, 296.0376281738281
0, 2, 98, 294.1692199707031
0, 2, 99, 275.0999145507812
0, 2, 100, 306.3031311035156
0, 2, 101, 300.7365417480469
0, 2, 102, 298.041748046875
0, 2, 103, 292.8933715820312
0, 2, 104, 292.9878540039062
0, 2, 105, 276.3373413085938
0, 2, 106, 295.001708984375
0, 2, 107, 273.6421508789062
0, 2, 108, 116.0902862548828
0, 2, 109, 29.88730621337891
0, 2, 110, 9.255288124084473
0, 2, 111, 12.16278076171875
0, 2, 112, 8.286269187927246
0, 2, 113, 9.336383819580078
0, 2, 114, 9.588363647460938
0, 2, 115, 9.259318351745605
0, 2, 116, 7.850281715393066
0, 2, 117, 5.832283496856689
0, 2, 118, 3.676738023757935
0, 2, 119, 3.788185358047485
0, 2, 120, 5.98662805557251
0, 2, 121, 1.328997731208801
0, 2, 122, 4.46474552154541
0, 2, 123, 5.099745273590088
0, 2, 124, 2.519913911819458
0, 2, 125, 5.371691703796387
0, 2, 126, 3.624080896377563
0, 2, 127, 5.121595859527588
0, 3, 0, 2.875383615493774
0, 3, 1, 2.49746298789978
0, 3, 2, 4.559388637542725
0, 3, 3, 2.946486234664917
0, 3, 4, 4.066280841827393
0, 3, 5, 6.159349918365479
0, 3, 6, 8.616311073303223
0, 3, 7, 4.681031703948975
0, 3, 8, 4.56612491607666
0, 3, 9, 6.759007930755615
0, 3, 10, 6.499529361724854
0, 3, 11, 3.807222127914429
0, 3, 12, 10.19089698791504
0, 3, 13, 14.82400131225586
0, 3, 14, 11.08689880371094
0, 3, 15, 14.71534252166748
0, 3, 16, 12.88746356964111
0, 3, 17, 20.19718933105469
0, 3, 18, 52.44989013671875
0, 3, 19, 180.8006286621094
0, 3, 20, 269.9625854492188
0, 3, 21, 271.4728393554688
0, 3, 22, 282.1465759277344
0, 3, 23, 289.0536804199219
0, 3, 24, 286.2343139648438
0, 3, 25, 272.6186218261719
0, 3, 26, 304.6549682617188
0, 3, 27, 291.8329467773438
0, 3, 28, 282.8143005371094
0, 3, 29, 338.3542175292969
0, 3, 30, 316.4756164550781
0, 3, 31, 285.92138671875
0, 3, 32, 305.0775756835938
0, 3, 33, 317.0453796386719
0, 3, 34, 321.8775024414062
0, 3, 35, 305.2276000976562
0, 3, 36, 273.3616333007812
0, 3, 37, 314.705810546875
0, 3, 38, 303.4999084472656
0, 3, 39, 286.5314025878906
0, 3, 40, 267.0870971679688
0, 3, 41, 298.5373229980469
0, 3, 42, 284.8454895019531
0, 3, 43, 305.391845703125
0, 3, 44, 311.8707275390625
0, 3, 45, 290.1528015136719
0, 3, 46, 327.85205078125
0, 3, 47, 298.5312805175781
0, 3, 48, 304.8722229003906
0, 3, 49, 276.8162231445312
0, 3, 50, 290.2735290527344
0, 3, 51, 276.1345825195312
0, 3, 52, 315.2909851074219
0, 3, 53, 289.3583374023438
0, 3, 54, 284.0424194335938
0, 3, 55, 284.7828674316406
0, 3, 56, 296.9813842773438
0, 3, 57, 289.81884765625
0, 3, 58, 307.8307800292969
0, 3, 59, 296.0475769042969
0, 3, 60, 297.6340026855469
0, 3, 61, 264.0765075683594
0, 3, 62, 283.7918701171875
0, 3, 63, 306.903564453125
0, 3, 64, 315.8610229492188
0, 3, 65, 307.6841125488281
0, 3, 66, 317.5816345214844
0, 3, 67, 319.9020385742188
0, 3, 68, 280.8851318359375
0, 3, 69, 284.4599914550781
0, 3, 70, 289.4603576660156
0, 3, 71, 299.5687866210938
0, 3, 72, 272.0439147949219
0, 3, 73, 311.1959533691406
0, 3, 74, 291.8188171386719
0, 3, 75, 289.9131469726562
0, 3, 76, 304.8465576171875
0, 3, 77, 312.8829345703125
0, 3, 78, 303.0140380859375
0, 3, 79, 283.6893310546875
0, 3, 80, 291.524169921875
0, 3, 81, 309.5229797363281
0, 3, 82, 314.8915100097656
0, 3, 83, 299.3446655273438
0, 3, 84, 310.2560729980469
0, 3, 85, 294.5588073730469
0, 3, 86, 306.277587890625
0, 3, 87, 297.5660095214844
0, 3, 88, 298.8630676269531
0, 3, 89, 296.2614440917969
0, 3, 90, 277.582763671875
0, 3, 91, 283.2638854980469
0, 3, 92, 304.5830688476562
0, 3, 93, 312.0698547363281
0, 3, 94, 299.2816162109375
0, 3, 95, 335.6277465820312
0, 3, 96, 289.053955078125
0, 3, 97, 286.0623474121094
0, 3, 98, 276.9641418457031
0, 3, 99, 262.6165771484375
0, 3, 100, 286.6191101074219
0, 3, 101, 297.6137084960938
0, 3, 102, 273.9257202148438
0, 3, 103, 319.6461181640625
0, 3, 104, 308.6398315429688
0, 3, 105, 287.9778747558594
0, 3, 106, 302.4231872558594
0, 3, 107, 281.6727905273438
0, 3, 108, 169.69775390625
0, 3, 109, 58.32225036621094
0, 3, 110, 17.47695350646973
0, 3, 111, 12.56560134887695
0, 3, 112, 10.92004871368408
0, 3, 113, 6.41392183303833
0, 3, 114, 10.11355304718018
0, 3, 115, 8.327862739562988
0, 3, 116, 7.021224498748779
0, 3, 117, 6.269598007202148
0, 3, 118, 7.86113452911377
0, 3, 119, 8.049404144287109
0, 3, 120, 5.470598697662354
0, 3, 121, 3.470828771591187
0, 3, 122, 5.172595977783203
0, 3, 123, 6.869132518768311
0, 3, 124, 2.495779991149902
0, 3, 125, 6.555601596832275
0, 3, 126, 5.471362590789795
0, 3, 127, 2.165331840515137
0, 4, 0, 3.31694507598877
0, 4, 1, 5.93056058883667
0, 4, 2, 3.833378076553345
0, 4, 3, 1.886339545249939
0, 4, 4, 6.899292469024658
0, 4, 5, 8.095945358276367
0, 4, 6, 7.627404689788818
0, 4, 7, 4.212857246398926
0, 4, 8, 3.349288702011108
0, 4, 9, 5.268476009368896
0, 4, 10, 5.760764122009277
0, 4, 11, 6.425096988677979
0, 4, 12, 5.508378505706787
0, 4, 13, 8.801382064819336
0, 4, 14, 10.59591674804688
0, 4, 15, 8.294460296630859
0, 4, 16, 15.87677383422852
0, 4, 17, 17.47636413574219
0, 4, 18, 93.27440643310547
0, 4, 19, 222.0909881591797
0, 4, 20, 284.8450317382812
0, 4, 21, 272.7544860839844
0, 4, 22, 304.6148986816406
0, 4, 23, 266.0123901367188
0, 4, 24, 290.4951477050781
0, 4, 25, 273.3963317871094
0, 4, 26, 293.7777404785156
0, 4, 27, 282.93408203125
0, 4, 28, 308.0485229492188
0, 4, 29, 323.134033203125
0, 4, 30, 308.9466857910156
0, 4, 31, 304.0116882324219
0, 4, 32, 280.2445983886719
0, 4, 33, 294.6092834472656
0, 4, 34, 296.9337768554688
0, 4, 35, 312.216552734375
0, 4, 36, 293.5822448730469
0, 4, 37, 290.624755859375
0, 4, 38, 297.8228454589844
0, 4, 39, 294.5425109863281
0, 4, 40, 302.6833190917969
0, 4, 41, 312.5743103027344
0, 4, 42, 331.8149719238281
0, 4, 43, 295.0333251953125
0, 4, 44, 321.9296264648438
0, 4, 45, 323.0646667480469
0, 4, 46, 309.5064392089844
0, 4, 47, 293.3867492675781
0, 4, 48, 297.495361328125
0, 4, 49, 276.3998413085938
0, 4, 50, 296.4665222167969
0, 4, 51, 316.6878967285156
0, 4, 52, 327.9068298339844
0, 4, 53, 304.2048645019531
0, 4, 54, 287.18701171875
0, 4, 55, 315.8166809082031
0, 4, 56, 287.7249450683594
0, 4, 57, 310.2706909179688
0, 4, 58, 297.4119873046875
0, 4, 59, 310.3495483398438
0, 4, 60, 302.4180603027344
0, 4, 61, 315.7296142578125
0, 4, 62, 309.3627319335938
0, 4, 63, 304.4254455566406
0, 4, 64, 332.257080078125
0, 4, 65, 314.8805541992188
0, 4, 66, 293.3824157714844
0, 4, 67, 284.342529296875
0, 4, 68, 311.577392578125
0, 4, 69, 277.3963928222656
0, 4, 70, 300.2238464355469
0, 4, 71, 320.403564453125
0, 4, 72, 332.0340576171875
0, 4, 73, 297.7105712890625
0, 4, 74, 290.9116516113281
0, 4, 75, 291.1732482910156
0, 4, 76, 275.1708679199219
0, 4, 77, 280.6951599121094
0, 4, 78, 307.7054443359375
0, 4, 79, 318.9858703613281
0, 4, 80, 314.1644592285156
0, 4, 81, 312.6952209472656
0, 4, 82, 296.7859497070312
0, 4, 83, 300.3211364746094
0, 4, 84, 293.3051147460938
0, 4, 85, 294.1686096191406
0, 4, 86, 297.2334289550781
0, 4, 87, 286.5371704101562
0, 4, 88, 307.2674865722656
0, 4, 89, 293.8676452636719
0, 4, 90, 331.0829772949219
0, 4, 91, 301.4720153808594
0, 4, 92, 288.7923278808594
0, 4, 93, 296.504638671875
0, 4, 94, 290.7203063964844
0, 4, 95, 288.3437805175781
0, 4, 96, 322.5603332519531
0, 4, 97, 275.8180847167969
0, 4, 98, 326.9863586425781
0, 4, 99, 314.4423828125
0, 4, 100, 299.6858215332031
0, 4, 101, 256.0381469726562
0, 4, 102, 297.1741943359375
0, 4, 103, 317.5565185546875
0, 4, 104, 281.1513671875
0, 4, 105, 311.6078491210938
0, 4, 106, 287.9530029296875
0, 4, 107, 295.9082946777344
0, 4, 108, 227.7103881835938
0, 4, 109, 82.44528961181641
0, 4, 110, 17.1069221496582
0, 4, 111, 13.95277500152588
0, 4, 112, 9.339728355407715
0, 4, 113, 10.94814205169678
0, 4, 114, 7.942646026611328
0, 4, 115, 8.668096542358398
0, 4, 116, 10.55899715423584
0, 4, 117, 8.779331207275391
0, 4, 118, 10.71993541717529
0, 4, 119, 8.637724876403809
0, 4, 120, 4.638797760009766
0, 4, 121, 6.182137966156006
0, 4, 122, 6.740106105804443
0, 4, 123, 5.939674854278564
0, 4, 124, 5.237395763397217
0, 4, 125, 9.701995849609375
0, 4, 126, 3.79161262512207
0, 4, 127, 3.097901582717896
0, 5, 0, 3.171607494354248
0, 5, 1, 3.999760627746582
0, 5, 2, 3.344093561172485
0, 5, 3, 3.658845186233521
0, 5, 4, 6.725085735321045
0, 5, 5, 5.818929195404053
0, 5, 6, 5.563217639923096
0, 5, 7, 5.470510005950928
0, 5, 8, 4.201424598693848
0, 5, 9, 4.49065637588501
0, 5, 10, 8.397089004516602
0, 5, 11, 7.390066623687744
0, 5, 12, 9.046076774597168
0, 5, 13, 6.872979640960693
0, 5, 14, 12.98394393920898
0, 5, 15, 15.82219886779785
0, 5, 16, 14.14386463165283
0, 5, 17, 27.99538230895996
0, 5, 18, 137.2082214355469
0, 5, 19, 288.3066101074219
0, 5, 20, 308.8160705566406
0, 5, 21, 316.0484008789062
0, 5, 22, 276.3244323730469
0, 5, 23, 315.6571350097656
0, 5, 24, 301.8846130371094
0, 5, 25, 288.8571472167969
0, 5, 26, 293.8564453125
0, 5, 27, 325.203125
0, 5, 28, 304.067626953125
0, 5, 29, 297.7976989746094
0, 5, 30, 325.8014526367188
0, 5, 31, 288.2444763183594
0, 5, 32, 301.7130737304688
0, 5, 33, 303.3384094238281
0, 5, 34, 299.6446533203125
0, 5, 35, 309.5103149414062
0, 5, 36, 268.4229125976562
0, 5, 37, 281.4801940917969
0, 5, 38, 294.4479064941406
0, 5, 39, 313.1747741699219
0, 5, 40, 307.2212219238281
0, 5, 41, 276.6942749023438
0, 5, 42, 304.0357360839844
0, 5, 43, 315.1219177246094
0, 5, 44, 291.0388488769531
0, 5, 45, 300.2697448730469
0, 5, 46, 264.2236633300781
0, 5, 47, 279.3470153808594
0, 5, 48, 292.0460815429688
0, 5, 49, 287.2871398925781
0, 5, 50, 296.1776428222656
0, 5, 51, 279.5735778808594
0, 5, 52, 268.6555786132812
0, 5, 53, 284.5339660644531
0, 5, 54, 291.9795837402344
0, 5, 55, 349.4359741210938
0, 5, 56, 305.9783935546875
0, 5, 57, 306.7139587402344
0, 5, 58, 310.7501525878906
0, 5, 59, 303.6614990234375
0, 5, 60, 308.9750061035156
0, 5, 61, 280.9821472167969
0, 5, 62, 325.7213439941406
0, 5, 63, 289.8793640136719
0, 5, 64, 322.5848693847656
0, 5, 65, 305.9218444824219
0, 5, 66, 327.6493530273438
0, 5, 67, 313.0103454589844
0, 5, 68, 308.1058959960938
0, 5, 69, 310.9081726074219
0, 5, 70, 301.2839050292969
0, 5, 71, 274.1278686523438
0, 5, 72, 311.720458984375
0, 5, 73, 301.4752807617188
0, 5, 74, 296.2292785644531
0, 5, 75, 292.4425659179688
0, 5, 76, 285.8382568359375
0, 5, 77, 301.4882507324219
0, 5, 78, 314.6612854003906
0, 5, 79, 305.8976135253906
0, 5, 80, 295.0528564453125
0, 5, 81, 325.2319946289062
0, 5, 82, 325.4479675292969
0, 5, 83, 280.3322143554688
0, 5, 84, 303.9847717285156
0, 5, 85, 269.6671142578125
0, 5, 86, 324.1186828613281
0, 5, 87, 283.5750122070312
0, 5, 88, 316.1372375488281
0, 5, 89, 303.4935607910156
0, 5, 90, 316.0113220214844
0, 5, 91, 313.1084899902344
0, 5, 92, 295.3894653320312
0, 5, 93, 320.9564819335938
0, 5, 94, 308.6128540039062
0, 5, 95, 299.8121337890625
0, 5, 96, 296.0871887207031
0, 5, 97, 295.6617736816406
0, 5, 98, 318.5667419433594
0, 5, 99, 303.2403869628906
0, 5, 100, 292.9517822265625
0, 5, 101, 306.4225158691406
0, 5, 102, 291.8301086425781
0, 5, 103, 313.0521850585938
0, 5, 104, 302.4326171875
0, 5, 105, 291.3616333007812
0, 5, 106, 282.8888854980469
0, 5, 107, 293.3783264160156
0, 5, 108, 264.0048828125
0, 5, 109, 156.8482360839844
0, 5, 110, 39.45859909057617
0, 5, 111, 20.81801414489746
0, 5, 112, 15.56671524047852
0, 5, 113, 14.26729011535645
0, 5, 114, 12.489089012146
0, 5, 115, 8.79123592376709
0, 5, 116, 9.706906318664551
0, 5, 117, 8.457001686096191
0, 5, 118, 14.04527759552002
0, 5, 119, 6.972190380096436
0, 5, 120, 4.934280395507812
0, 5, 121, 4.084277153015137
0, 5, 122, 6.484877109527588
0, 5, 123, 6.499393463134766
0, 5, 124, 6.512009620666504
0, 5, 125, 3.944034337997437
0, 5, 126, 5.233585834503174
0, 5, 127, 3.412019729614258
0, 6, 0, 5.644432067871094
0, 6, 1, 2.788687944412231
0, 6, 2, 6.074728012084961
0, 6, 3, 4.518909454345703
0, 6, 4, 6.066949367523193
0, 6, 5, 5.572177886962891
0, 6, 6, 7.240734577178955
0, 6, 7, 5.555183887481689
0, 6, 8, 9.136417388916016
0, 6, 9, 6.609244346618652
0, 6, 10, 8.558529853820801
0, 6, 11, 8.224432945251465
0, 6, 12, 7.73767614364624
0, 6, 13, 15.44669723510742
0, 6, 14, 9.565139770507812
0, 6, 15, 17.68151473999023
0, 6, 16, 28.8679256439209
0, 6, 17, 58.45830154418945
0, 6, 18, 174.296142578125
0, 6, 19, 275.6606140136719
0, 6, 20, 292.7063293457031
0, 6, 21, 317.1011047363281
0, 6, 22, 320.3215026855469
0, 6, 23, 306.3419189453125
0, 6, 24, 316.8746032714844
0, 6, 25, 317.9534606933594
0, 6, 26, 319.2216796875
0, 6, 27, 329.9030456542969
0, 6, 28, 295.2384948730469
0, 6, 29, 330.0095825195312
0, 6, 30, 280.19921875
0, 6, 31, 285.3634643554688
0, 6, 32, 340.9357604980469
0, 6, 33, 299.934814453125
0, 6, 34, 340.3090515136719
0, 6, 35, 320.5762634277344
0, 6, 36, 274.3853454589844
0, 6, 37, 287.53955078125
0, 6, 38, 310.8973999023438
0, 6, 39, 299.6800842285156
0, 6, 40, 283.3044738769531
0, 6, 41, 297.6346130371094
0, 6, 42, 304.8302917480469
0, 6, 43, 289.6976318359375
0, 6, 44, 279.6202697753906
0, 6, 45, 320.3149108886719
0, 6, 46, 300.4865417480469
0, 6, 47, 333.7721557617188
0, 6, 48, 294.7079467773438
0, 6, 49, 310.6548461914062
0, 6, 50, 328.3724670410156
0, 6, 51, 310.9322814941406
0, 6, 52, 321.6181335449219
0, 6, 53, 327.0110778808594
0, 6, 54, 301.7017211914062
0, 6, 55, 304.6445617675781
0, 6, 56, 294.4057312011719
0, 6, 57, 312.0895690917969
0, 6, 58, 260.2711486816406
0, 6, 59, 301.0915222167969
0, 6, 60, 313.9143981933594
0, 6, 61, 271.1741027832031
0, 6, 62, 337.2592468261719
0, 6, 63, 321.6043395996094
0, 6, 64, 289.8149108886719
0, 6, 65, 288.8280639648438
0, 6, 66, 304.7660217285156
0, 6, 67, 308.6895751953125
0, 6, 68, 295.0870971679688
0, 6, 69, 280.0584411621094
0, 6, 70, 276.6929321289062
0, 6, 71, 290.2427978515625
0, 6, 72, 309.4760437011719
0, 6, 73, 295.2067260742188
0, 6, 74, 331.3350830078125
0, 6, 75, 343.4961853027344
0, 6, 76, 299.7672424316406
0, 6, 77, 285.6552429199219
0, 6, 78, 280.515869140625
0, 6, 79, 291.8923645019531
0, 6, 80, 301.4433288574219
0, 6, 81, 315.404296875
0, 6, 82, 316.8581848144531
0, 6, 83, 322.4333190917969
0, 6, 84, 294.7537536621094
0, 6, 85, 301.0420532226562
0, 6, 86, 332.4103088378906
0, 6, 87, 295.9560241699219
0, 6, 88, 305.0870666503906
0, 6, 89, 304.3920593261719
0, 6, 90, 300.0405578613281
0, 6, 91, 311.38037109375
0, 6, 92, 284.7192687988281
0, 6, 93, 294.1353149414062
0, 6, 94, 273.5979919433594
0, 6, 95, 301.9129638671875
0, 6, 96, 348.1152648925781
0, 6, 97, 308.9764709472656
0, 6, 98, 300.1460876464844
0, 6, 99, 271.1670227050781
0, 6, 100, 309.5433959960938
0, 6, 101, 292.9450378417969
0, 6, 102, 306.0531616210938
0, 6, 103, 307.1009521484375
0, 6, 104, 289.8200988769531
0, 6, 105, 300.6734313964844
0, 6, 106, 306.1238403320312
0, 6, 107, 306.2665405273438
0, 6, 108, 265.2904663085938
0, 6, 109, 188.3147277832031
0, 6, 110, 55.37495422363281
0, 6, 111, 22.35059928894043
0, 6, 112, 15.40405750274658
0, 6, 113, 10.28466987609863
0, 6, 114, 14.8754997253418
0, 6, 115, 11.40434646606445
0, 6, 116, 10.54782676696777
0, 6, 117, 7.902043342590332
0, 6, 118, 12.21232795715332
0, 6, 119, 12.30519676208496
0, 6, 120, 6.84357213973999
0, 6, 121, 6.506031036376953
0, 6, 122, 5.770185470581055
0, 6, 123, 3.627002954483032
0, 6, 124, 5.128542423248291
0, 6, 125, 6.092827320098877
0, 6, 126, 6.51033878326416
0, 6, 127, 8.801671981811523
0, 7, 0, 6.316124439239502
0, 7, 1, 3.038488388061523
0, 7, 2, 6.680243492126465
0, 7, 3, 3.279305934906006
0, 7, 4, 3.105615377426147
0, 7, 5, 4.804852485656738
0, 7, 6, 6.368896961212158
0, 7, 7, 4.742203235626221
0, 7, 8, 6.417647838592529
0, 7, 9, 6.288570404052734
0, 7, 10, 8.800806045532227
0, 7, 11, 14.7616491317749
0, 7, 12, 9.990891456604004
0, 7, 13, 11.05053043365479
0, 7, 14, 10.78057956695557
0, 7, 15, 16.962890625
0, 7, 16, 25.05212020874023
0, 7, 17, 100.7601165771484
0, 7, 18, 219.4419555664062
0, 7, 19, 288.3978271484375
0, 7, 20, 297.5631713867188
0, 7, 21, 277.0054626464844
0, 7, 22, 299.5425720214844
0, 7, 23, 290.5505981445312
0, 7, 24, 312.9894104003906
0, 7, 25, 324.4871826171875
0, 7, 26, 278.4091491699219
0, 7, 27, 297.6476135253906
0, 7, 28, 324.71923828125
0, 7, 29, 318.6246337890625
0, 7, 30, 303.0851745605469
0, 7, 31, 279.0601501464844
0, 7, 32, 306.9101257324219
0, 7, 33, 263.2598571777344
0, 7, 34, 297.2614440917969
0, 7, 35, 318.3837280273438
0, 7, 36, 329.5886535644531
0, 7, 37, 322.79345703125
0, 7, 38, 295.0114440917969
0, 7, 39, 306.5653686523438
0, 7, 40, 289.3946228027344
0, 7, 41, 271.4560241699219
0, 7, 42, 301.9949645996094
0, 7, 43, 274.2194519042969
0, 7, 44, 303.5945129394531
0, 7, 45, 295.3099365234375
0, 7, 46, 283.2674255371094
0, 7, 47, 329.4073486328125
0, 7, 48, 288.8335876464844
0, 7, 49, 300.4982299804688
0, 7, 50, 320.3578186035156
0, 7, 51, 298.7410278320312
0, 7, 52, 325.7699584960938
0, 7, 53, 313.1272583007812
0, 7, 54, 322.8861389160156
0, 7, 55, 308.1751098632812
0, 7, 56, 279.35107421875
0, 7, 57, 284.2454833984375
0, 7, 58, 296.4726867675781
0, 7, 59, 293.0982055664062
0, 7, 60, 322.8292236328125
0, 7, 61, 276.4966430664062
0, 7, 62, 297.3034973144531
0, 7, 63, 294.2463989257812
0, 7, 64, 304.1931457519531
0, 7, 65, 329.0056457519531
0, 7, 66, 320.6094970703125
0, 7, 67, 301.0167541503906
0, 7, 68, 282.4757690429688
0, 7, 69, 294.9495849609375
0, 7, 70, 302.707275390625
0, 7, 71, 308.7780456542969
0, 7, 72, 284.4976501464844
0, 7, 73, 294.6182556152344
0, 7, 74, 343.4514770507812
0, 7, 75, 317.6242370605469
0, 7, 76, 326.2985534667969
0, 7, 77, 281.1739807128906
0, 7, 78, 301.08544921875
0, 7, 79, 297.8318176269531
0, 7, 80, 309.8718872070312
0, 7, 81, 320.7771301269531
0, 7, 82, 329.8385925292969
0, 7, 83, 319.9346618652344
0, 7, 84, 309.7328796386719
0, 7, 85, 273.97900390625
0, 7, 86, 310.4931945800781
0, 7, 87, 310.1893005371094
0, 7, 88, 307.7377624511719
0, 7, 89, 293.0414428710938
0, 7, 90, 305.8283386230469
0, 7, 91, 314.6505737304688
0, 7, 92, 286.5045166015625
0, 7, 93, 308.057861328125
0, 7, 94, 273.8980712890625
0, 7, 95, 297.8141479492188
0, 7, 96, 330.2747192382812
0, 7, 97, 296.4421997070312
0, 7, 98, 290.7015686035156
0, 7, 99, 311.8260803222656
0, 7, 100, 281.5820007324219
0, 7, 101, 275.1397094726562
0, 7, 102, 290.8080749511719
0, 7, 103, 293.9237365722656
0, 7, 104, 277.6221313476562
0, 7, 105, 305.949951171875
0, 7, 106, 321.7213745117188
0, 7, 107, 296.1506652832031
0, 7, 108, 273.3933410644531
0, 7, 109, 235.0315551757812
0, 7, 110, 95.74026489257812
0, 7, 111, 24.19138526916504
0, 7, 112, 13.05656242370605
0, 7, 113, 14.88035678863525
0, 7, 114, 12.98096370697021
0, 7, 115, 9.708258628845215
0, 7, 116, 6.58184814453125
0, 7, 117, 5.067563056945801
0, 7, 118, 6.981702327728271
0, 7, 119, 7.489614486694336
0, 7, 120, 4.6228928565979
0, 7, 121, 6.274582862854004
0, 7, 122, 7.755845546722412
0, 7, 123, 4.307837963104248
0, 7, 124, 5.409324169158936
0, 7, 125, 6.137674808502197
0, 7, 126, 6.526412487030029
0, 7, 127, 2.923584699630737
0, 8, 0, 4.281144142150879
0, 8, 1, 4.363511085510254
0, 8, 2, 4.808890819549561
0, 8, 3, 2.342735052108765
0, 8, 4, 5.526890277862549
0, 8, 5, 6.169288635253906
0, 8, 6, 4.709963321685791
0, 8, 7, 5.374104976654053
0, 8, 8, 9.93259334564209
0, 8, 9, 6.107880115509033
0, 8, 10, 7.954701900482178
0, 8, 11, 10.88899898529053
0, 8, 12, 15.26141452789307
0, 8, 13, 14.48826122283936
0, 8, 14, 12.98092365264893
0, 8, 15, 20.68819236755371
0, 8, 16, 32.95578384399414
0, 8, 17, 130.1940002441406
0, 8, 18, 242.9799041748047
0, 8, 19, 294.7662048339844
0, 8, 20, 285.97705078125
0, 8, 21, 307.5030517578125
0, 8, 22, 297.5747680664062
0, 8, 23, 273.998779296875
0, 8, 24, 270.3577270507812
0, 8, 25, 276.0629272460938
0, 8, 26, 307.4384460449219
0, 8, 27, 309.5491943359375
0, 8, 28, 303.1767883300781
0, 8, 29, 320.173828125
0, 8, 30, 314.462646484375
0, 8, 31, 303.8853759765625
0, 8, 32, 281.3286437988281
0, 8, 33, 295.795166015625
0, 8, 34, 291.2703857421875
0, 8, 35, 282.5435485839844
0, 8, 36, 316.3194580078125
0, 8, 37, 339.8492736816406
0, 8, 38, 333.2989807128906
