# TOPAS Version: 3.1.p3
# Parameter File: batch_inserts_322.txt
# Results for scorer Readout_Adipose
# Scored in component: MyBox
# X in 1 bin  of 0.75 cm
# Y in 512 bins of 0.0783984 cm
# Z in 128 bins of 0.078125 cm
# EnergyDeposit ( MeV ) : Sum   
0, 0, 0, 3.144378900527954
0, 0, 1, 1.217803597450256
0, 0, 2, 4.660030841827393
0, 0, 3, 2.484891653060913
0, 0, 4, 3.809934854507446
0, 0, 5, 2.572834730148315
0, 0, 6, 6.792068004608154
0, 0, 7, 8.812833786010742
0, 0, 8, 3.231178045272827
0, 0, 9, 4.623247623443604
0, 0, 10, 6.160298824310303
0, 0, 11, 4.011550426483154
0, 0, 12, 4.483551979064941
0, 0, 13, 5.567041397094727
0, 0, 14, 6.849791049957275
0, 0, 15, 10.78028106689453
0, 0, 16, 9.108335494995117
0, 0, 17, 8.720401763916016
0, 0, 18, 12.16807270050049
0, 0, 19, 42.18082809448242
0, 0, 20, 140.6854248046875
0, 0, 21, 223.8109130859375
0, 0, 22, 249.368408203125
0, 0, 23, 257.6228637695312
0, 0, 24, 251.5302429199219
0, 0, 25, 260.6983032226562
0, 0, 26, 235.1189880371094
0, 0, 27, 237.8741912841797
0, 0, 28, 272.5777587890625
0, 0, 29, 252.0353088378906
0, 0, 30, 229.6308746337891
0, 0, 31, 245.7984313964844
0, 0, 32, 265.5036926269531
0, 0, 33, 259.9167175292969
0, 0, 34, 286.8135986328125
0, 0, 35, 266.2776184082031
0, 0, 36, 245.61279296875
0, 0, 37, 253.2726287841797
0, 0, 38, 269.1836242675781
0, 0, 39, 229.2051544189453
0, 0, 40, 241.0979614257812
0, 0, 41, 268.2867736816406
0, 0, 42, 229.0777435302734
0, 0, 43, 258.9599914550781
0, 0, 44, 250.2531280517578
0, 0, 45, 252.1391754150391
0, 0, 46, 243.7223815917969
0, 0, 47, 251.6509094238281
0, 0, 48, 267.9205017089844
0, 0, 49, 273.2281494140625
0, 0, 50, 253.2155303955078
0, 0, 51, 253.5533447265625
0, 0, 52, 272.3121948242188
0, 0, 53, 291.9651489257812
0, 0, 54, 242.6079864501953
0, 0, 55, 240.6536407470703
0, 0, 56, 278.1249694824219
0, 0, 57, 263.1876220703125
0, 0, 58, 245.5637054443359
0, 0, 59, 271.7635192871094
0, 0, 60, 234.0159606933594
0, 0, 61, 245.8236541748047
0, 0, 62, 258.3648071289062
0, 0, 63, 264.7989807128906
0, 0, 64, 256.0091552734375
0, 0, 65, 260.0969543457031
0, 0, 66, 277.4189453125
0, 0, 67, 248.1079406738281
0, 0, 68, 258.4551086425781
0, 0, 69, 264.34912109375
0, 0, 70, 271.6152648925781
0, 0, 71, 237.2813110351562
0, 0, 72, 252.0088500976562
0, 0, 73, 256.2568359375
0, 0, 74, 251.824951171875
0, 0, 75, 239.7494049072266
0, 0, 76, 228.2473449707031
0, 0, 77, 260.6251220703125
0, 0, 78, 256.0052185058594
0, 0, 79, 280.9589538574219
0, 0, 80, 216.6914215087891
0, 0, 81, 267.8582763671875
0, 0, 82, 255.9305114746094
0, 0, 83, 243.7205505371094
0, 0, 84, 270.3113403320312
0, 0, 85, 234.3141021728516
0, 0, 86, 252.7960968017578
0, 0, 87, 251.2805633544922
0, 0, 88, 260.1572875976562
0, 0, 89, 283.7657775878906
0, 0, 90, 243.310302734375
0, 0, 91, 279.6547546386719
0, 0, 92, 253.2040100097656
0, 0, 93, 248.633056640625
0, 0, 94, 247.9323272705078
0, 0, 95, 247.1897277832031
0, 0, 96, 274.2728881835938
0, 0, 97, 272.2527160644531
0, 0, 98, 273.2213745117188
0, 0, 99, 258.520751953125
0, 0, 100, 258.98876953125
0, 0, 101, 227.8719787597656
0, 0, 102, 232.5964965820312
0, 0, 103, 271.4733276367188
0, 0, 104, 254.9148406982422
0, 0, 105, 251.555908203125
0, 0, 106, 248.7345733642578
0, 0, 107, 151.8859405517578
0, 0, 108, 38.79892349243164
0, 0, 109, 11.60951900482178
0, 0, 110, 12.92234706878662
0, 0, 111, 8.267230987548828
0, 0, 112, 7.341655254364014
0, 0, 113, 4.497502326965332
0, 0, 114, 5.786751747131348
0, 0, 115, 4.828505039215088
0, 0, 116, 6.965913772583008
0, 0, 117, 8.949124336242676
0, 0, 118, 7.818066120147705
0, 0, 119, 5.084591388702393
0, 0, 120, 6.068415641784668
0, 0, 121, 4.534817218780518
0, 0, 122, 4.573915958404541
0, 0, 123, 4.133708477020264
0, 0, 124, 4.434287071228027
0, 0, 125, 1.48576819896698
0, 0, 126, 4.61194372177124
0, 0, 127, 4.07970666885376
0, 1, 0, 7.094316959381104
0, 1, 1, 3.9522545337677
0, 1, 2, 5.350670337677002
0, 1, 3, 1.959188938140869
0, 1, 4, 2.757341861724854
0, 1, 5, 3.268758773803711
0, 1, 6, 4.679254531860352
0, 1, 7, 2.473773002624512
0, 1, 8, 8.959357261657715
0, 1, 9, 3.609752416610718
0, 1, 10, 8.63554573059082
0, 1, 11, 12.47158432006836
0, 1, 12, 8.714922904968262
0, 1, 13, 9.214861869812012
0, 1, 14, 7.902224063873291
0, 1, 15, 8.387307167053223
0, 1, 16, 12.90871524810791
0, 1, 17, 13.44633769989014
0, 1, 18, 20.28025245666504
0, 1, 19, 68.55816650390625
0, 1, 20, 196.8070068359375
0, 1, 21, 254.8861236572266
0, 1, 22, 295.4797973632812
0, 1, 23, 282.4698791503906
0, 1, 24, 275.8797302246094
0, 1, 25, 289.3522644042969
0, 1, 26, 266.624755859375
0, 1, 27, 304.917724609375
0, 1, 28, 301.5387878417969
0, 1, 29, 298.8291931152344
0, 1, 30, 281.8507080078125
0, 1, 31, 291.3293151855469
0, 1, 32, 289.1993103027344
0, 1, 33, 295.0393981933594
0, 1, 34, 291.5964965820312
0, 1, 35, 281.0253601074219
0, 1, 36, 306.8186340332031
0, 1, 37, 297.9364318847656
0, 1, 38, 280.057861328125
0, 1, 39, 295.6484069824219
0, 1, 40, 266.3488159179688
0, 1, 41, 285.4865112304688
0, 1, 42, 290.536376953125
0, 1, 43, 332.275634765625
0, 1, 44, 279.5976867675781
0, 1, 45, 294.2007446289062
0, 1, 46, 259.2416076660156
0, 1, 47, 313.5916748046875
0, 1, 48, 285.0027160644531
0, 1, 49, 305.1925048828125
0, 1, 50, 263.0343322753906
0, 1, 51, 273.0327453613281
0, 1, 52, 296.2382202148438
0, 1, 53, 304.5092468261719
0, 1, 54, 275.2703247070312
0, 1, 55, 293.3784484863281
0, 1, 56, 278.4054565429688
0, 1, 57, 296.8294372558594
0, 1, 58, 310.3360595703125
0, 1, 59, 293.7861938476562
0, 1, 60, 298.0953063964844
0, 1, 61, 274.4394836425781
0, 1, 62, 306.9315795898438
0, 1, 63, 289.277099609375
0, 1, 64, 289.6549682617188
0, 1, 65, 295.0152893066406
0, 1, 66, 292.0751647949219
0, 1, 67, 291.2173461914062
0, 1, 68, 277.6937561035156
0, 1, 69, 280.1065673828125
0, 1, 70, 271.0476379394531
0, 1, 71, 272.8221130371094
0, 1, 72, 287.6470642089844
0, 1, 73, 303.8547973632812
0, 1, 74, 305.9125671386719
0, 1, 75, 291.3100280761719
0, 1, 76, 285.4880981445312
0, 1, 77, 291.0437927246094
0, 1, 78, 296.3792419433594
0, 1, 79, 301.3157043457031
0, 1, 80, 297.4547119140625
0, 1, 81, 300.4145202636719
0, 1, 82, 281.9539794921875
0, 1, 83, 332.5840148925781
0, 1, 84, 311.472900390625
0, 1, 85, 252.3773345947266
0, 1, 86, 294.7301330566406
0, 1, 87, 289.6172180175781
0, 1, 88, 298.609619140625
0, 1, 89, 292.4024658203125
0, 1, 90, 272.004150390625
0, 1, 91, 318.8008728027344
0, 1, 92, 289.0596008300781
0, 1, 93, 286.7097778320312
0, 1, 94, 304.2497253417969
0, 1, 95, 283.1649475097656
0, 1, 96, 282.7035827636719
0, 1, 97, 301.0916137695312
0, 1, 98, 278.6698303222656
0, 1, 99, 266.4237976074219
0, 1, 100, 276.2560424804688
0, 1, 101, 281.9127807617188
0, 1, 102, 277.0660400390625
0, 1, 103, 281.1083374023438
0, 1, 104, 305.6605834960938
0, 1, 105, 298.427001953125
0, 1, 106, 260.7143249511719
0, 1, 107, 192.2606811523438
0, 1, 108, 80.79742431640625
0, 1, 109, 23.82756996154785
0, 1, 110, 10.48882579803467
0, 1, 111, 10.04790592193604
0, 1, 112, 12.02282524108887
0, 1, 113, 4.716436862945557
0, 1, 114, 5.895621776580811
0, 1, 115, 7.724454879760742
0, 1, 116, 11.54551601409912
0, 1, 117, 5.787749767303467
0, 1, 118, 4.939265727996826
0, 1, 119, 7.586138248443604
0, 1, 120, 6.051824569702148
0, 1, 121, 2.376705169677734
0, 1, 122, 3.028273582458496
0, 1, 123, 7.316619396209717
0, 1, 124, 9.375287055969238
0, 1, 125, 3.756889581680298
0, 1, 126, 2.948304414749146
0, 1, 127, 2.985480785369873
0, 2, 0, 6.421769142150879
0, 2, 1, 1.369851112365723
0, 2, 2, 5.774651527404785
0, 2, 3, 5.549694061279297
0, 2, 4, 3.265063047409058
0, 2, 5, 1.328165411949158
0, 2, 6, 2.798011302947998
0, 2, 7, 3.772976636886597
0, 2, 8, 4.948148250579834
0, 2, 9, 6.25404691696167
0, 2, 10, 8.425121307373047
0, 2, 11, 5.929120063781738
0, 2, 12, 6.318768978118896
0, 2, 13, 10.56542587280273
0, 2, 14, 10.52753353118896
0, 2, 15, 7.534456729888916
0, 2, 16, 10.77855396270752
0, 2, 17, 16.40056991577148
0, 2, 18, 28.88092803955078
0, 2, 19, 117.5978240966797
0, 2, 20, 245.3803405761719
0, 2, 21, 270.03857421875
0, 2, 22, 315.5353393554688
0, 2, 23, 301.1631469726562
0, 2, 24, 287.6279907226562
0, 2, 25, 303.7173767089844
0, 2, 26, 292.6186218261719
0, 2, 27, 275.7708129882812
0, 2, 28, 272.6492919921875
0, 2, 29, 272.3599853515625
0, 2, 30, 292.7748107910156
0, 2, 31, 276.7221069335938
0, 2, 32, 294.7804260253906
0, 2, 33, 285.3064270019531
0, 2, 34, 331.8562927246094
0, 2, 35, 290.2863159179688
0, 2, 36, 302.5665283203125
0, 2, 37, 317.8953552246094
0, 2, 38, 311.0299987792969
0, 2, 39, 266.4141845703125
0, 2, 40, 309.0390930175781
0, 2, 41, 292.1831359863281
0, 2, 42, 301.7833557128906
0, 2, 43, 314.2331237792969
0, 2, 44, 310.6445617675781
0, 2, 45, 326.52490234375
0, 2, 46, 287.6462707519531
0, 2, 47, 302.8796691894531
0, 2, 48, 280.2834167480469
0, 2, 49, 278.1812744140625
0, 2, 50, 294.2960205078125
0, 2, 51, 284.2247314453125
0, 2, 52, 271.7371826171875
0, 2, 53, 288.801025390625
0, 2, 54, 279.4874572753906
0, 2, 55, 274.8134765625
0, 2, 56, 302.75244140625
0, 2, 57, 291.9481201171875
0, 2, 58, 302.6958923339844
0, 2, 59, 289.4754638671875
0, 2, 60, 318.3855895996094
0, 2, 61, 300.6659240722656
0, 2, 62, 312.8291931152344
0, 2, 63, 303.1608581542969
0, 2, 64, 294.9906311035156
0, 2, 65, 313.1293640136719
0, 2, 66, 278.248046875
0, 2, 67, 290.1748352050781
0, 2, 68, 295.6481323242188
0, 2, 69, 311.5898132324219
0, 2, 70, 334.0689392089844
0, 2, 71, 283.3609313964844
0, 2, 72, 303.817138671875
0, 2, 73, 310.0587158203125
0, 2, 74, 286.576416015625
0, 2, 75, 304.9798583984375
0, 2, 76, 286.8001708984375
0, 2, 77, 299.8023681640625
0, 2, 78, 313.2054748535156
0, 2, 79, 308.8949279785156
0, 2, 80, 297.0073852539062
0, 2, 81, 283.9646606445312
0, 2, 82, 319.5778503417969
0, 2, 83, 312.2875671386719
0, 2, 84, 288.0322265625
0, 2, 85, 282.7237854003906
0, 2, 86, 322.91552734375
0, 2, 87, 285.8863830566406
0, 2, 88, 280.8169250488281
0, 2, 89, 294.5376892089844
0, 2, 90, 297.9540405273438
0, 2, 91, 276.8142395019531
0, 2, 92, 308.2079772949219
0, 2, 93, 316.1143493652344
0, 2, 94, 290.8671875
0, 2, 95, 315.9037780761719
0, 2, 96, 314.4562072753906
0, 2, 97, 292.3376770019531
0, 2, 98, 294.5614929199219
0, 2, 99, 273.1083679199219
0, 2, 100, 304.3970642089844
0, 2, 101, 300.3196105957031
0, 2, 102, 296.8765258789062
0, 2, 103, 292.4372253417969
0, 2, 104, 293.2549743652344
0, 2, 105, 274.4239196777344
0, 2, 106, 297.216796875
0, 2, 107, 271.9079284667969
0, 2, 108, 116.6261672973633
0, 2, 109, 30.91490364074707
0, 2, 110, 10.91875743865967
0, 2, 111, 10.7593822479248
0, 2, 112, 7.620982646942139
0, 2, 113, 12.26553440093994
0, 2, 114, 8.429299354553223
0, 2, 115, 8.780518531799316
0, 2, 116, 8.219931602478027
0, 2, 117, 7.320178031921387
0, 2, 118, 4.014951229095459
0, 2, 119, 4.167293548583984
0, 2, 120, 7.755754470825195
0, 2, 121, 2.211575746536255
0, 2, 122, 6.164557933807373
0, 2, 123, 4.685653686523438
0, 2, 124, 2.502716064453125
0, 2, 125, 4.654253005981445
0, 2, 126, 3.154283285140991
0, 2, 127, 4.659013748168945
0, 3, 0, 3.747016191482544
0, 3, 1, 2.723625183105469
0, 3, 2, 3.387646436691284
0, 3, 3, 1.68287980556488
0, 3, 4, 3.773568630218506
0, 3, 5, 8.08777904510498
0, 3, 6, 7.033267498016357
0, 3, 7, 4.747600555419922
0, 3, 8, 7.481588840484619
0, 3, 9, 4.766356945037842
0, 3, 10, 7.684080600738525
0, 3, 11, 3.884069681167603
0, 3, 12, 6.730081558227539
0, 3, 13, 16.67467308044434
0, 3, 14, 10.68181419372559
0, 3, 15, 15.22415351867676
0, 3, 16, 9.993403434753418
0, 3, 17, 19.07962799072266
0, 3, 18, 51.56345748901367
0, 3, 19, 175.1167755126953
0, 3, 20, 269.15478515625
0, 3, 21, 272.0448913574219
0, 3, 22, 280.9197082519531
0, 3, 23, 287.9703063964844
0, 3, 24, 285.6660766601562
0, 3, 25, 273.0226135253906
0, 3, 26, 304.3956909179688
0, 3, 27, 291.5120239257812
0, 3, 28, 281.4860229492188
0, 3, 29, 338.6221618652344
0, 3, 30, 316.8883972167969
0, 3, 31, 284.7061462402344
0, 3, 32, 306.07177734375
0, 3, 33, 313.3448486328125
0, 3, 34, 321.8783264160156
0, 3, 35, 307.3417358398438
0, 3, 36, 272.3242492675781
0, 3, 37, 313.7204895019531
0, 3, 38, 303.1812133789062
0, 3, 39, 289.8460998535156
0, 3, 40, 266.0984802246094
0, 3, 41, 301.2279663085938
0, 3, 42, 285.8235778808594
0, 3, 43, 308.491455078125
0, 3, 44, 311.1044006347656
0, 3, 45, 289.718505859375
0, 3, 46, 328.3489379882812
0, 3, 47, 299.7886047363281
0, 3, 48, 305.0467529296875
0, 3, 49, 275.9233703613281
0, 3, 50, 289.7730102539062
0, 3, 51, 276.4359130859375
0, 3, 52, 316.0960083007812
0, 3, 53, 288.4432678222656
0, 3, 54, 284.5038146972656
0, 3, 55, 283.1442260742188
0, 3, 56, 298.0798645019531
0, 3, 57, 287.6746215820312
0, 3, 58, 309.5735473632812
0, 3, 59, 295.781005859375
0, 3, 60, 297.0777587890625
0, 3, 61, 263.7453002929688
0, 3, 62, 287.4276733398438
0, 3, 63, 305.0889892578125
0, 3, 64, 317.2735595703125
0, 3, 65, 309.9638366699219
0, 3, 66, 314.8954772949219
0, 3, 67, 318.2015991210938
0, 3, 68, 278.9486999511719
0, 3, 69, 280.9539184570312
0, 3, 70, 286.7748413085938
0, 3, 71, 302.7557983398438
0, 3, 72, 269.8141479492188
0, 3, 73, 307.0247802734375
0, 3, 74, 291.8839111328125
0, 3, 75, 289.6187438964844
0, 3, 76, 306.0015258789062
0, 3, 77, 315.5093078613281
0, 3, 78, 304.0907592773438
0, 3, 79, 282.0686950683594
0, 3, 80, 288.439453125
0, 3, 81, 311.1715393066406
0, 3, 82, 316.8378601074219
0, 3, 83, 299.9231872558594
0, 3, 84, 310.7438354492188
0, 3, 85, 292.85791015625
0, 3, 86, 303.4476013183594
0, 3, 87, 298.3121948242188
0, 3, 88, 298.8197326660156
0, 3, 89, 297.4158325195312
0, 3, 90, 275.448974609375
0, 3, 91, 284.6831970214844
0, 3, 92, 303.8940124511719
0, 3, 93, 312.0474548339844
0, 3, 94, 298.4537353515625
0, 3, 95, 334.5969848632812
0, 3, 96, 290.5092468261719
0, 3, 97, 284.2786865234375
0, 3, 98, 278.5188903808594
0, 3, 99, 262.4023132324219
0, 3, 100, 284.5755310058594
0, 3, 101, 297.9157409667969
0, 3, 102, 275.2168579101562
0, 3, 103, 320.2000732421875
0, 3, 104, 307.6239013671875
0, 3, 105, 288.5619201660156
0, 3, 106, 303.9807739257812
0, 3, 107, 280.6062316894531
0, 3, 108, 168.3143920898438
0, 3, 109, 58.30016326904297
0, 3, 110, 19.66178894042969
0, 3, 111, 12.44027709960938
0, 3, 112, 12.36043834686279
0, 3, 113, 7.93034029006958
0, 3, 114, 10.99072456359863
0, 3, 115, 7.687672138214111
0, 3, 116, 6.293725967407227
0, 3, 117, 8.609844207763672
0, 3, 118, 5.093209266662598
0, 3, 119, 5.523100852966309
0, 3, 120, 6.091896057128906
0, 3, 121, 1.912448644638062
0, 3, 122, 2.494287014007568
0, 3, 123, 4.244728088378906
0, 3, 124, 5.087425231933594
0, 3, 125, 5.716248035430908
0, 3, 126, 4.250304222106934
0, 3, 127, 3.001547574996948
0, 4, 0, 2.785112380981445
0, 4, 1, 4.628028392791748
0, 4, 2, 2.447763442993164
0, 4, 3, 1.469747066497803
0, 4, 4, 6.357840061187744
0, 4, 5, 10.56441593170166
0, 4, 6, 5.640462875366211
0, 4, 7, 5.577300548553467
0, 4, 8, 5.861108303070068
0, 4, 9, 5.886865139007568
0, 4, 10, 7.258962631225586
0, 4, 11, 6.058660984039307
0, 4, 12, 8.164736747741699
0, 4, 13, 8.81781005859375
0, 4, 14, 11.84946060180664
0, 4, 15, 12.04500770568848
0, 4, 16, 13.62343883514404
0, 4, 17, 17.88970184326172
0, 4, 18, 93.82202911376953
0, 4, 19, 220.9623260498047
0, 4, 20, 285.6277465820312
0, 4, 21, 273.6011352539062
0, 4, 22, 304.2617797851562
0, 4, 23, 265.1330871582031
0, 4, 24, 289.5170288085938
0, 4, 25, 272.6459655761719
0, 4, 26, 293.9769287109375
0, 4, 27, 283.7901306152344
0, 4, 28, 307.8177795410156
0, 4, 29, 320.4519348144531
0, 4, 30, 310.1710815429688
0, 4, 31, 304.3246459960938
0, 4, 32, 280.3675231933594
0, 4, 33, 294.9386596679688
0, 4, 34, 295.9060974121094
0, 4, 35, 310.9110717773438
0, 4, 36, 291.9352416992188
0, 4, 37, 286.1135559082031
0, 4, 38, 296.5095825195312
0, 4, 39, 293.1025085449219
0, 4, 40, 302.9326477050781
0, 4, 41, 315.639892578125
0, 4, 42, 332.0958251953125
0, 4, 43, 294.9076843261719
0, 4, 44, 321.2217712402344
0, 4, 45, 325.9049377441406
0, 4, 46, 308.8170471191406
0, 4, 47, 292.5812683105469
0, 4, 48, 294.5942687988281
0, 4, 49, 279.0191345214844
0, 4, 50, 296.8172302246094
0, 4, 51, 317.4329223632812
0, 4, 52, 328.7258911132812
0, 4, 53, 304.3287353515625
0, 4, 54, 287.5626831054688
0, 4, 55, 316.662841796875
0, 4, 56, 284.8180847167969
0, 4, 57, 309.3116455078125
0, 4, 58, 296.6847229003906
0, 4, 59, 308.4964599609375
0, 4, 60, 302.3424682617188
0, 4, 61, 317.0077819824219
0, 4, 62, 307.1927490234375
0, 4, 63, 301.6627502441406
0, 4, 64, 329.1212768554688
0, 4, 65, 315.8985595703125
0, 4, 66, 293.9895324707031
0, 4, 67, 284.2833557128906
0, 4, 68, 312.1799926757812
0, 4, 69, 275.0393371582031
0, 4, 70, 298.3795166015625
0, 4, 71, 321.4215087890625
0, 4, 72, 333.4544372558594
0, 4, 73, 298.937255859375
0, 4, 74, 294.3605651855469
0, 4, 75, 290.0234069824219
0, 4, 76, 275.307373046875
0, 4, 77, 282.4187316894531
0, 4, 78, 309.0611267089844
0, 4, 79, 317.9631958007812
0, 4, 80, 314.2305908203125
0, 4, 81, 311.5058288574219
0, 4, 82, 297.3468017578125
0, 4, 83, 301.6954040527344
0, 4, 84, 292.1523742675781
0, 4, 85, 294.1151733398438
0, 4, 86, 297.8927307128906
0, 4, 87, 285.9263305664062
0, 4, 88, 304.235595703125
0, 4, 89, 294.0736083984375
0, 4, 90, 333.5782470703125
0, 4, 91, 301.6697998046875
0, 4, 92, 289.4659118652344
0, 4, 93, 297.0841979980469
0, 4, 94, 292.8435668945312
0, 4, 95, 290.8541259765625
0, 4, 96, 324.3230285644531
0, 4, 97, 275.840087890625
0, 4, 98, 327.1320190429688
0, 4, 99, 315.522216796875
0, 4, 100, 301.2494812011719
0, 4, 101, 257.0829467773438
0, 4, 102, 299.0519409179688
0, 4, 103, 319.6284790039062
0, 4, 104, 281.9210815429688
0, 4, 105, 310.941650390625
0, 4, 106, 286.7362670898438
0, 4, 107, 294.6784362792969
0, 4, 108, 226.6566467285156
0, 4, 109, 80.58141326904297
0, 4, 110, 17.05705261230469
0, 4, 111, 13.03320026397705
0, 4, 112, 8.557327270507812
0, 4, 113, 11.58828639984131
0, 4, 114, 8.311081886291504
0, 4, 115, 9.09941577911377
0, 4, 116, 10.60786724090576
0, 4, 117, 5.127246856689453
0, 4, 118, 8.446774482727051
0, 4, 119, 9.047952651977539
0, 4, 120, 5.84643030166626
0, 4, 121, 5.099811553955078
0, 4, 122, 5.460411548614502
0, 4, 123, 6.864711284637451
0, 4, 124, 5.239850997924805
0, 4, 125, 8.453017234802246
0, 4, 126, 4.003159999847412
0, 4, 127, 4.497192859649658
0, 5, 0, 4.185577869415283
0, 5, 1, 3.46686863899231
0, 5, 2, 4.407939910888672
0, 5, 3, 5.034904956817627
0, 5, 4, 4.369913578033447
0, 5, 5, 5.307170391082764
0, 5, 6, 9.244556427001953
0, 5, 7, 5.082662105560303
0, 5, 8, 5.562865257263184
0, 5, 9, 7.766818046569824
0, 5, 10, 8.954116821289062
0, 5, 11, 7.424323081970215
0, 5, 12, 7.970067977905273
0, 5, 13, 8.229352951049805
0, 5, 14, 13.63724136352539
0, 5, 15, 15.82798385620117
0, 5, 16, 16.13144302368164
0, 5, 17, 30.32621574401855
0, 5, 18, 140.8388671875
0, 5, 19, 290.0126953125
0, 5, 20, 308.1174926757812
0, 5, 21, 316.778564453125
0, 5, 22, 275.2049255371094
0, 5, 23, 309.5773620605469
0, 5, 24, 301.2282409667969
0, 5, 25, 289.6366577148438
0, 5, 26, 294.3178405761719
0, 5, 27, 323.7510986328125
0, 5, 28, 302.3025817871094
0, 5, 29, 302.1715393066406
0, 5, 30, 327.2926025390625
0, 5, 31, 285.4865112304688
0, 5, 32, 303.4949035644531
0, 5, 33, 302.8676452636719
0, 5, 34, 298.1800231933594
0, 5, 35, 308.5078125
0, 5, 36, 268.9214172363281
0, 5, 37, 281.6802673339844
0, 5, 38, 295.2649536132812
0, 5, 39, 312.947265625
0, 5, 40, 308.8610229492188
0, 5, 41, 275.1780700683594
0, 5, 42, 306.4611206054688
0, 5, 43, 317.0196533203125
0, 5, 44, 290.7655029296875
0, 5, 45, 301.6119689941406
0, 5, 46, 266.9768676757812
0, 5, 47, 282.4969787597656
0, 5, 48, 294.58154296875
0, 5, 49, 286.1346130371094
0, 5, 50, 294.2917175292969
0, 5, 51, 278.9776306152344
0, 5, 52, 269.6585083007812
0, 5, 53, 283.7655029296875
0, 5, 54, 291.6335754394531
0, 5, 55, 343.730712890625
0, 5, 56, 305.9525756835938
0, 5, 57, 309.0682983398438
0, 5, 58, 311.8494262695312
0, 5, 59, 303.2584533691406
0, 5, 60, 309.1951599121094
0, 5, 61, 280.6611938476562
0, 5, 62, 323.27880859375
0, 5, 63, 291.2095031738281
0, 5, 64, 321.0684814453125
0, 5, 65, 308.6011962890625
0, 5, 66, 328.202392578125
0, 5, 67, 314.5634765625
0, 5, 68, 309.83642578125
0, 5, 69, 312.4417724609375
0, 5, 70, 300.3311462402344
0, 5, 71, 272.5348205566406
0, 5, 72, 311.1065063476562
0, 5, 73, 301.2985229492188
0, 5, 74, 294.9017028808594
0, 5, 75, 292.6442260742188
0, 5, 76, 283.9546508789062
0, 5, 77, 296.6395874023438
0, 5, 78, 315.1732482910156
0, 5, 79, 310.3456115722656
0, 5, 80, 295.3536071777344
0, 5, 81, 326.6739196777344
0, 5, 82, 323.7645568847656
0, 5, 83, 281.8154907226562
0, 5, 84, 301.7950744628906
0, 5, 85, 271.4493713378906
0, 5, 86, 324.9706726074219
0, 5, 87, 282.7213439941406
0, 5, 88, 314.0122985839844
0, 5, 89, 305.9307556152344
0, 5, 90, 315.7928466796875
0, 5, 91, 312.8861694335938
0, 5, 92, 295.4964294433594
0, 5, 93, 322.0520629882812
0, 5, 94, 307.6076049804688
0, 5, 95, 296.3526306152344
0, 5, 96, 295.4748840332031
0, 5, 97, 296.3627624511719
0, 5, 98, 319.6317749023438
0, 5, 99, 301.8359985351562
0, 5, 100, 292.8177185058594
0, 5, 101, 304.7790222167969
0, 5, 102, 292.7679138183594
0, 5, 103, 316.0679931640625
0, 5, 104, 302.1585693359375
0, 5, 105, 290.9311828613281
0, 5, 106, 281.5448913574219
0, 5, 107, 293.4522399902344
0, 5, 108, 264.7579040527344
0, 5, 109, 157.5297546386719
0, 5, 110, 41.27997589111328
0, 5, 111, 19.57085227966309
0, 5, 112, 16.72694969177246
0, 5, 113, 12.28864574432373
0, 5, 114, 12.95970821380615
0, 5, 115, 7.26703405380249
0, 5, 116, 6.754435062408447
0, 5, 117, 6.743277549743652
0, 5, 118, 16.60133743286133
0, 5, 119, 7.776340961456299
0, 5, 120, 4.83214282989502
0, 5, 121, 5.56743335723877
0, 5, 122, 5.451584339141846
0, 5, 123, 4.374761581420898
0, 5, 124, 5.829577445983887
0, 5, 125, 3.366117238998413
0, 5, 126, 8.265350341796875
0, 5, 127, 3.944907903671265
0, 6, 0, 5.115324974060059
0, 6, 1, 4.401886940002441
0, 6, 2, 5.419672012329102
0, 6, 3, 7.151355743408203
0, 6, 4, 4.065670490264893
0, 6, 5, 7.166350364685059
0, 6, 6, 7.456002235412598
0, 6, 7, 5.99689769744873
0, 6, 8, 8.448365211486816
0, 6, 9, 6.739062786102295
0, 6, 10, 7.541309833526611
0, 6, 11, 8.926803588867188
0, 6, 12, 10.61832237243652
0, 6, 13, 13.13891696929932
0, 6, 14, 7.78327751159668
0, 6, 15, 16.36433219909668
0, 6, 16, 26.66379356384277
0, 6, 17, 57.44125366210938
0, 6, 18, 175.1093292236328
0, 6, 19, 276.5650024414062
0, 6, 20, 291.8821716308594
0, 6, 21, 315.4604797363281
0, 6, 22, 321.2894592285156
0, 6, 23, 305.6010131835938
0, 6, 24, 316.4375305175781
0, 6, 25, 316.1505126953125
0, 6, 26, 319.8456115722656
0, 6, 27, 330.7789611816406
0, 6, 28, 297.140380859375
0, 6, 29, 328.8795471191406
0, 6, 30, 282.7115783691406
0, 6, 31, 287.9917907714844
0, 6, 32, 344.2880554199219
0, 6, 33, 298.8312683105469
0, 6, 34, 343.802734375
0, 6, 35, 321.366455078125
0, 6, 36, 277.4393005371094
0, 6, 37, 289.2653198242188
0, 6, 38, 311.9981689453125
0, 6, 39, 299.7410888671875
0, 6, 40, 283.6419677734375
0, 6, 41, 294.4188232421875
0, 6, 42, 304.2505493164062
0, 6, 43, 287.9336547851562
0, 6, 44, 281.556884765625
0, 6, 45, 321.1686706542969
0, 6, 46, 302.3274230957031
0, 6, 47, 333.3276977539062
0, 6, 48, 292.9869384765625
0, 6, 49, 310.0054016113281
0, 6, 50, 327.7457885742188
0, 6, 51, 310.0323486328125
0, 6, 52, 320.1124267578125
0, 6, 53, 327.0962524414062
0, 6, 54, 303.6412048339844
0, 6, 55, 305.7102966308594
0, 6, 56, 297.3516845703125
0, 6, 57, 314.6727905273438
0, 6, 58, 262.41455078125
0, 6, 59, 302.3144836425781
0, 6, 60, 312.646240234375
0, 6, 61, 270.6868896484375
0, 6, 62, 337.4814453125
0, 6, 63, 323.7380676269531
0, 6, 64, 290.1906433105469
0, 6, 65, 287.4836120605469
0, 6, 66, 302.2765197753906
0, 6, 67, 310.4322814941406
0, 6, 68, 293.9981384277344
0, 6, 69, 277.6832885742188
0, 6, 70, 274.4167785644531
0, 6, 71, 289.4677734375
0, 6, 72, 309.99267578125
0, 6, 73, 294.2537231445312
0, 6, 74, 329.7818603515625
0, 6, 75, 342.6023254394531
0, 6, 76, 297.3771667480469
0, 6, 77, 285.2799377441406
0, 6, 78, 279.6070556640625
0, 6, 79, 291.2357788085938
0, 6, 80, 302.2522888183594
0, 6, 81, 317.2441711425781
0, 6, 82, 320.570556640625
0, 6, 83, 319.1508178710938
0, 6, 84, 298.2151184082031
0, 6, 85, 300.4053955078125
0, 6, 86, 331.0009155273438
0, 6, 87, 295.1403198242188
0, 6, 88, 304.772216796875
0, 6, 89, 304.014404296875
0, 6, 90, 299.8796081542969
0, 6, 91, 311.7068786621094
0, 6, 92, 284.2976989746094
0, 6, 93, 297.5704650878906
0, 6, 94, 272.9314880371094
0, 6, 95, 297.7108154296875
0, 6, 96, 345.4963684082031
0, 6, 97, 308.663330078125
0, 6, 98, 301.3130187988281
0, 6, 99, 272.2682495117188
0, 6, 100, 309.6057434082031
0, 6, 101, 292.4063720703125
0, 6, 102, 309.5172424316406
0, 6, 103, 306.9559020996094
0, 6, 104, 291.2382202148438
0, 6, 105, 303.4220581054688
0, 6, 106, 307.2060546875
0, 6, 107, 306.4732360839844
0, 6, 108, 265.6136474609375
0, 6, 109, 187.2552337646484
0, 6, 110, 54.31606674194336
0, 6, 111, 21.25050926208496
0, 6, 112, 12.45889282226562
0, 6, 113, 11.30873012542725
0, 6, 114, 13.77140712738037
0, 6, 115, 12.35451698303223
0, 6, 116, 9.148706436157227
0, 6, 117, 5.696155071258545
0, 6, 118, 14.3544750213623
0, 6, 119, 6.580386638641357
0, 6, 120, 8.256169319152832
0, 6, 121, 6.228048324584961
0, 6, 122, 5.837085723876953
0, 6, 123, 5.71033239364624
0, 6, 124, 5.642137050628662
0, 6, 125, 5.848726749420166
0, 6, 126, 8.337373733520508
0, 6, 127, 6.365322589874268
0, 7, 0, 3.96271824836731
0, 7, 1, 2.876776456832886
0, 7, 2, 5.783471584320068
0, 7, 3, 5.018341541290283
0, 7, 4, 3.414329528808594
0, 7, 5, 4.290530204772949
0, 7, 6, 5.996713161468506
0, 7, 7, 5.435586929321289
0, 7, 8, 4.460673332214355
0, 7, 9, 5.191260814666748
0, 7, 10, 8.986883163452148
0, 7, 11, 10.35875701904297
0, 7, 12, 11.26513481140137
0, 7, 13, 12.79196929931641
0, 7, 14, 11.50693416595459
0, 7, 15, 20.31853294372559
0, 7, 16, 25.40686798095703
0, 7, 17, 96.15569305419922
0, 7, 18, 219.4566802978516
0, 7, 19, 292.761474609375
0, 7, 20, 297.8588562011719
0, 7, 21, 276.4057922363281
0, 7, 22, 299.3500061035156
0, 7, 23, 290.77734375
0, 7, 24, 314.1193542480469
0, 7, 25, 323.430908203125
0, 7, 26, 278.8240966796875
0, 7, 27, 297.3151245117188
0, 7, 28, 326.75439453125
0, 7, 29, 319.916748046875
0, 7, 30, 299.23876953125
0, 7, 31, 278.1092224121094
0, 7, 32, 304.430419921875
0, 7, 33, 262.02880859375
0, 7, 34, 297.71923828125
0, 7, 35, 318.4293823242188
0, 7, 36, 330.2949829101562
0, 7, 37, 322.0295104980469
0, 7, 38, 294.4118957519531
0, 7, 39, 305.1056213378906
0, 7, 40, 288.747802734375
0, 7, 41, 272.2466125488281
0, 7, 42, 300.5244140625
0, 7, 43, 274.7586364746094
0, 7, 44, 302.264404296875
0, 7, 45, 292.3589172363281
0, 7, 46, 280.7144470214844
0, 7, 47, 328.9652099609375
0, 7, 48, 285.7550659179688
0, 7, 49, 302.4915466308594
0, 7, 50, 322.7946166992188
0, 7, 51, 299.4992065429688
0, 7, 52, 326.7704467773438
0, 7, 53, 310.1393432617188
0, 7, 54, 323.8095397949219
0, 7, 55, 308.7695617675781
0, 7, 56, 278.9855651855469
0, 7, 57, 282.0545043945312
0, 7, 58, 295.7316589355469
0, 7, 59, 293.2899475097656
0, 7, 60, 322.8882751464844
0, 7, 61, 277.7786865234375
0, 7, 62, 299.0061645507812
0, 7, 63, 292.1070861816406
0, 7, 64, 304.7408142089844
0, 7, 65, 328.0062866210938
0, 7, 66, 318.8102111816406
0, 7, 67, 303.046630859375
0, 7, 68, 281.8052368164062
0, 7, 69, 293.3657836914062
0, 7, 70, 301.7626037597656
0, 7, 71, 310.1799926757812
0, 7, 72, 283.7561645507812
0, 7, 73, 296.0457763671875
0, 7, 74, 343.3265075683594
0, 7, 75, 319.7947082519531
0, 7, 76, 321.858642578125
0, 7, 77, 279.6287536621094
0, 7, 78, 300.3583679199219
0, 7, 79, 296.9772033691406
0, 7, 80, 310.083740234375
0, 7, 81, 319.14404296875
0, 7, 82, 329.9364013671875
0, 7, 83, 317.1274719238281
0, 7, 84, 311.4886779785156
0, 7, 85, 272.5107421875
0, 7, 86, 312.7606506347656
0, 7, 87, 310.2055053710938
0, 7, 88, 307.6688842773438
0, 7, 89, 296.4174194335938
0, 7, 90, 307.7218017578125
0, 7, 91, 315.0972595214844
0, 7, 92, 288.76416015625
0, 7, 93, 309.6280212402344
0, 7, 94, 273.5291137695312
0, 7, 95, 295.565185546875
0, 7, 96, 333.6039428710938
0, 7, 97, 294.1607360839844
0, 7, 98, 290.0917053222656
0, 7, 99, 311.6098327636719
0, 7, 100, 282.3519897460938
0, 7, 101, 275.1026916503906
0, 7, 102, 291.0890197753906
0, 7, 103, 294.1793823242188
0, 7, 104, 274.0413208007812
0, 7, 105, 306.7086791992188
0, 7, 106, 317.9172668457031
0, 7, 107, 296.8889465332031
0, 7, 108, 274.3520812988281
0, 7, 109, 234.7477874755859
0, 7, 110, 94.5439453125
0, 7, 111, 24.22206878662109
0, 7, 112, 13.8023681640625
0, 7, 113, 14.49411869049072
0, 7, 114, 15.22574424743652
0, 7, 115, 10.052490234375
0, 7, 116, 9.883260726928711
0, 7, 117, 4.559109687805176
0, 7, 118, 9.33576774597168
0, 7, 119, 7.90659761428833
0, 7, 120, 4.946877479553223
0, 7, 121, 9.266401290893555
0, 7, 122, 7.964250564575195
0, 7, 123, 4.329253673553467
0, 7, 124, 4.764465808868408
0, 7, 125, 6.961221694946289
0, 7, 126, 9.59378719329834
0, 7, 127, 3.969722270965576
0, 8, 0, 4.374082088470459
0, 8, 1, 6.951979160308838
0, 8, 2, 7.960958957672119
0, 8, 3, 2.713754415512085
0, 8, 4, 4.722985744476318
0, 8, 5, 8.147629737854004
0, 8, 6, 4.925634384155273
0, 8, 7, 5.356054782867432
0, 8, 8, 10.74672794342041
0, 8, 9, 6.450235843658447
0, 8, 10, 7.011085510253906
0, 8, 11, 10.76526832580566
0, 8, 12, 12.49084663391113
0, 8, 13, 15.42012596130371
0, 8, 14, 11.79042530059814
0, 8, 15, 18.13896942138672
0, 8, 16, 32.87494277954102
0, 8, 17, 130.6476287841797
0, 8, 18, 242.3616180419922
0, 8, 19, 294.5255432128906
0, 8, 20, 286.0490112304688
0, 8, 21, 305.8856811523438
0, 8, 22, 295.1164855957031
0, 8, 23, 274.1943054199219
0, 8, 24, 268.7212829589844
0, 8, 25, 276.230224609375
0, 8, 26, 308.5244750976562
0, 8, 27, 310.5318298339844
0, 8, 28, 304.4887390136719
0, 8, 29, 318.6958312988281
0, 8, 30, 314.2772827148438
0, 8, 31, 302.6457824707031
0, 8, 32, 281.1897888183594
0, 8, 33, 294.5791320800781
0, 8, 34, 289.9535217285156
0, 8, 35, 281.4275207519531
0, 8, 36, 315.0859069824219
0, 8, 37, 338.8463134765625
0, 8, 38, 332.24658203125
0, 8, 39, 280.7605285644531
