# TOPAS Version: 3.1.p3
# Parameter File: batch_inserts_350.txt
# Results for scorer Readout_Adipose
# Scored in component: MyBox
# X in 1 bin  of 0.75 cm
# Y in 512 bins of 0.0783984 cm
# Z in 128 bins of 0.078125 cm
# EnergyDeposit ( MeV ) : Sum   
0, 0, 0, 2.694146871566772
0, 0, 1, 1.615317106246948
0, 0, 2, 4.101412296295166
0, 0, 3, 3.953800201416016
0, 0, 4, 2.788314342498779
0, 0, 5, 4.4331955909729
0, 0, 6, 4.950018882751465
0, 0, 7, 8.758184432983398
0, 0, 8, 3.211499929428101
0, 0, 9, 4.572345733642578
0, 0, 10, 7.112949848175049
0, 0, 11, 4.236178398132324
0, 0, 12, 5.078709125518799
0, 0, 13, 7.000850200653076
0, 0, 14, 9.529707908630371
0, 0, 15, 11.69561195373535
0, 0, 16, 9.220381736755371
0, 0, 17, 8.889884948730469
0, 0, 18, 12.84559345245361
0, 0, 19, 44.32965087890625
0, 0, 20, 142.8953552246094
0, 0, 21, 222.6348419189453
0, 0, 22, 248.6119079589844
0, 0, 23, 257.4346008300781
0, 0, 24, 251.4407043457031
0, 0, 25, 259.8529357910156
0, 0, 26, 237.1394653320312
0, 0, 27, 241.0445556640625
0, 0, 28, 273.3471374511719
0, 0, 29, 253.2567291259766
0, 0, 30, 230.4739532470703
0, 0, 31, 244.4928894042969
0, 0, 32, 263.5809020996094
0, 0, 33, 262.3099975585938
0, 0, 34, 287.7135314941406
0, 0, 35, 266.8375854492188
0, 0, 36, 246.1891174316406
0, 0, 37, 251.3791046142578
0, 0, 38, 269.5216674804688
0, 0, 39, 229.7160797119141
0, 0, 40, 241.9624176025391
0, 0, 41, 264.4372863769531
0, 0, 42, 230.31591796875
0, 0, 43, 260.7659301757812
0, 0, 44, 250.7226409912109
0, 0, 45, 253.3348693847656
0, 0, 46, 247.3788299560547
0, 0, 47, 252.8032073974609
0, 0, 48, 269.4697570800781
0, 0, 49, 274.4984741210938
0, 0, 50, 250.8209533691406
0, 0, 51, 253.8701477050781
0, 0, 52, 273.3591918945312
0, 0, 53, 291.101806640625
0, 0, 54, 243.436767578125
0, 0, 55, 240.6338653564453
0, 0, 56, 278.3095092773438
0, 0, 57, 262.2057189941406
0, 0, 58, 245.4415588378906
0, 0, 59, 273.5986633300781
0, 0, 60, 235.3064422607422
0, 0, 61, 243.8599090576172
0, 0, 62, 256.5447082519531
0, 0, 63, 267.8187561035156
0, 0, 64, 255.4890747070312
0, 0, 65, 262.682373046875
0, 0, 66, 276.3533935546875
0, 0, 67, 245.7837524414062
0, 0, 68, 258.2354431152344
0, 0, 69, 262.9048767089844
0, 0, 70, 270.6435852050781
0, 0, 71, 237.0460357666016
0, 0, 72, 250.3538970947266
0, 0, 73, 259.8653564453125
0, 0, 74, 251.9148254394531
0, 0, 75, 240.5388336181641
0, 0, 76, 228.5671539306641
0, 0, 77, 262.5989074707031
0, 0, 78, 257.6237182617188
0, 0, 79, 279.5829467773438
0, 0, 80, 216.47265625
0, 0, 81, 266.18017578125
0, 0, 82, 256.0355529785156
0, 0, 83, 245.8770599365234
0, 0, 84, 267.1170959472656
0, 0, 85, 231.5729675292969
0, 0, 86, 254.7280120849609
0, 0, 87, 250.888916015625
0, 0, 88, 260.2872009277344
0, 0, 89, 285.15869140625
0, 0, 90, 243.2138366699219
0, 0, 91, 280.0712585449219
0, 0, 92, 256.0143737792969
0, 0, 93, 249.1702575683594
0, 0, 94, 249.1097259521484
0, 0, 95, 248.5925903320312
0, 0, 96, 274.9635314941406
0, 0, 97, 272.1235656738281
0, 0, 98, 273.6810913085938
0, 0, 99, 257.8863830566406
0, 0, 100, 259.3037719726562
0, 0, 101, 225.378662109375
0, 0, 102, 232.2298278808594
0, 0, 103, 271.0267028808594
0, 0, 104, 255.4106292724609
0, 0, 105, 251.1751708984375
0, 0, 106, 246.2693023681641
0, 0, 107, 153.1305847167969
0, 0, 108, 39.57854080200195
0, 0, 109, 12.10885238647461
0, 0, 110, 13.08352088928223
0, 0, 111, 10.99644947052002
0, 0, 112, 7.786912441253662
0, 0, 113, 5.226388454437256
0, 0, 114, 5.617053985595703
0, 0, 115, 5.018624305725098
0, 0, 116, 4.732741832733154
0, 0, 117, 5.438981056213379
0, 0, 118, 6.477241039276123
0, 0, 119, 6.343183517456055
0, 0, 120, 4.982823848724365
0, 0, 121, 6.017274379730225
0, 0, 122, 3.674891471862793
0, 0, 123, 5.965432167053223
0, 0, 124, 6.066197872161865
0, 0, 125, 2.135319471359253
0, 0, 126, 3.451096773147583
0, 0, 127, 5.411026954650879
0, 1, 0, 10.97798824310303
0, 1, 1, 4.967610359191895
0, 1, 2, 5.488850593566895
0, 1, 3, 1.408733606338501
0, 1, 4, 3.653993606567383
0, 1, 5, 1.870592355728149
0, 1, 6, 4.474334239959717
0, 1, 7, 5.237560749053955
0, 1, 8, 7.539427757263184
0, 1, 9, 2.615714073181152
0, 1, 10, 7.035666942596436
0, 1, 11, 12.68463325500488
0, 1, 12, 8.266999244689941
0, 1, 13, 10.38837623596191
0, 1, 14, 8.928444862365723
0, 1, 15, 7.687597274780273
0, 1, 16, 9.922049522399902
0, 1, 17, 12.38179874420166
0, 1, 18, 22.28301811218262
0, 1, 19, 68.817138671875
0, 1, 20, 197.4701843261719
0, 1, 21, 255.3633728027344
0, 1, 22, 295.4342956542969
0, 1, 23, 282.0366516113281
0, 1, 24, 277.0593872070312
0, 1, 25, 289.8658447265625
0, 1, 26, 266.688232421875
0, 1, 27, 307.4661254882812
0, 1, 28, 298.9800109863281
0, 1, 29, 296.3224182128906
0, 1, 30, 279.3744201660156
0, 1, 31, 290.8880310058594
0, 1, 32, 290.1708068847656
0, 1, 33, 295.5850524902344
0, 1, 34, 293.4237365722656
0, 1, 35, 279.2756652832031
0, 1, 36, 307.7320556640625
0, 1, 37, 296.5028076171875
0, 1, 38, 281.8826599121094
0, 1, 39, 295.3374328613281
0, 1, 40, 265.8823852539062
0, 1, 41, 285.6024475097656
0, 1, 42, 291.1985168457031
0, 1, 43, 333.3072509765625
0, 1, 44, 279.2057800292969
0, 1, 45, 292.1891174316406
0, 1, 46, 258.7320861816406
0, 1, 47, 310.0982055664062
0, 1, 48, 286.3090515136719
0, 1, 49, 301.71533203125
0, 1, 50, 263.0301818847656
0, 1, 51, 272.2365112304688
0, 1, 52, 295.0545043945312
0, 1, 53, 305.6295776367188
0, 1, 54, 277.3667907714844
0, 1, 55, 294.0218200683594
0, 1, 56, 278.1411437988281
0, 1, 57, 296.9207763671875
0, 1, 58, 314.1023864746094
0, 1, 59, 294.970947265625
0, 1, 60, 299.3032836914062
0, 1, 61, 275.4051513671875
0, 1, 62, 309.8335571289062
0, 1, 63, 287.3503112792969
0, 1, 64, 288.176025390625
0, 1, 65, 294.1761474609375
0, 1, 66, 292.2163696289062
0, 1, 67, 291.3651123046875
0, 1, 68, 276.4551391601562
0, 1, 69, 282.8128051757812
0, 1, 70, 269.6585388183594
0, 1, 71, 272.2582702636719
0, 1, 72, 287.4649353027344
0, 1, 73, 302.8739624023438
0, 1, 74, 302.7994384765625
0, 1, 75, 293.23828125
0, 1, 76, 284.1522216796875
0, 1, 77, 290.0374450683594
0, 1, 78, 297.2033996582031
0, 1, 79, 305.5502014160156
0, 1, 80, 295.9355163574219
0, 1, 81, 299.8106079101562
0, 1, 82, 287.2695617675781
0, 1, 83, 332.7575378417969
0, 1, 84, 312.1645812988281
0, 1, 85, 253.4998474121094
0, 1, 86, 294.5881042480469
0, 1, 87, 291.1748962402344
0, 1, 88, 299.31201171875
0, 1, 89, 289.368408203125
0, 1, 90, 269.1527709960938
0, 1, 91, 320.3720397949219
0, 1, 92, 291.6324768066406
0, 1, 93, 285.9687194824219
0, 1, 94, 305.3590698242188
0, 1, 95, 283.2737731933594
0, 1, 96, 283.62841796875
0, 1, 97, 304.6873474121094
0, 1, 98, 277.9562377929688
0, 1, 99, 270.1009521484375
0, 1, 100, 276.2669982910156
0, 1, 101, 283.8026123046875
0, 1, 102, 279.0408935546875
0, 1, 103, 280.5223999023438
0, 1, 104, 307.6380310058594
0, 1, 105, 297.5693054199219
0, 1, 106, 260.3041687011719
0, 1, 107, 190.0689392089844
0, 1, 108, 81.52804565429688
0, 1, 109, 24.29223823547363
0, 1, 110, 12.07939052581787
0, 1, 111, 8.633108139038086
0, 1, 112, 11.15485286712646
0, 1, 113, 5.755184173583984
0, 1, 114, 6.657898426055908
0, 1, 115, 6.631298065185547
0, 1, 116, 12.3214168548584
0, 1, 117, 7.497004508972168
0, 1, 118, 5.943134307861328
0, 1, 119, 7.00493860244751
0, 1, 120, 6.506248950958252
0, 1, 121, 5.578395843505859
0, 1, 122, 3.324788808822632
0, 1, 123, 8.366090774536133
0, 1, 124, 7.048049449920654
0, 1, 125, 2.954668998718262
0, 1, 126, 2.540251731872559
0, 1, 127, 2.925025701522827
0, 2, 0, 3.330759048461914
0, 2, 1, 1.254469752311707
0, 2, 2, 4.03090238571167
0, 2, 3, 4.708419799804688
0, 2, 4, 4.275037288665771
0, 2, 5, 2.487793445587158
0, 2, 6, 3.095832347869873
0, 2, 7, 3.549026012420654
0, 2, 8, 5.085692405700684
0, 2, 9, 6.589541435241699
0, 2, 10, 6.992566585540771
0, 2, 11, 8.13129711151123
0, 2, 12, 6.652358531951904
0, 2, 13, 13.25972270965576
0, 2, 14, 10.88275718688965
0, 2, 15, 9.407230377197266
0, 2, 16, 10.0742769241333
0, 2, 17, 15.99440574645996
0, 2, 18, 32.45470428466797
0, 2, 19, 115.13134765625
0, 2, 20, 245.5232086181641
0, 2, 21, 270.3648071289062
0, 2, 22, 315.4213256835938
0, 2, 23, 299.9635620117188
0, 2, 24, 285.464111328125
0, 2, 25, 304.6309814453125
0, 2, 26, 292.8708801269531
0, 2, 27, 275.1448669433594
0, 2, 28, 272.1866455078125
0, 2, 29, 273.6060180664062
0, 2, 30, 294.2631225585938
0, 2, 31, 275.9886779785156
0, 2, 32, 293.2272338867188
0, 2, 33, 282.713134765625
0, 2, 34, 333.4765625
0, 2, 35, 289.3902587890625
0, 2, 36, 302.624755859375
0, 2, 37, 314.4624938964844
0, 2, 38, 312.4163818359375
0, 2, 39, 270.8184509277344
0, 2, 40, 305.9945373535156
0, 2, 41, 292.044189453125
0, 2, 42, 305.2905883789062
0, 2, 43, 312.2056274414062
0, 2, 44, 311.3735656738281
0, 2, 45, 324.4298706054688
0, 2, 46, 285.8988952636719
0, 2, 47, 302.361083984375
0, 2, 48, 284.8046569824219
0, 2, 49, 277.3681030273438
0, 2, 50, 296.8266296386719
0, 2, 51, 286.0768737792969
0, 2, 52, 272.9168090820312
0, 2, 53, 287.0243225097656
0, 2, 54, 280.8280029296875
0, 2, 55, 276.47314453125
0, 2, 56, 302.0364685058594
0, 2, 57, 293.6381530761719
0, 2, 58, 302.1074523925781
0, 2, 59, 287.6133117675781
0, 2, 60, 319.6060180664062
0, 2, 61, 301.0306396484375
0, 2, 62, 312.1402587890625
0, 2, 63, 300.8121643066406
0, 2, 64, 296.036376953125
0, 2, 65, 313.954345703125
0, 2, 66, 278.7507629394531
0, 2, 67, 290.9328918457031
0, 2, 68, 297.6268310546875
0, 2, 69, 311.590087890625
0, 2, 70, 335.0084838867188
0, 2, 71, 285.9419250488281
0, 2, 72, 299.0726013183594
0, 2, 73, 311.9488830566406
0, 2, 74, 290.5677795410156
0, 2, 75, 309.1989135742188
0, 2, 76, 287.1936340332031
0, 2, 77, 296.8412475585938
0, 2, 78, 314.1907348632812
0, 2, 79, 307.4207153320312
0, 2, 80, 294.2496643066406
0, 2, 81, 282.9688720703125
0, 2, 82, 319.7456665039062
0, 2, 83, 314.4485168457031
0, 2, 84, 287.1468811035156
0, 2, 85, 281.2057495117188
0, 2, 86, 324.2947998046875
0, 2, 87, 286.2422790527344
0, 2, 88, 279.4157409667969
0, 2, 89, 297.5758056640625
0, 2, 90, 294.2467346191406
0, 2, 91, 275.3050537109375
0, 2, 92, 305.3872680664062
0, 2, 93, 317.7986755371094
0, 2, 94, 290.6713562011719
0, 2, 95, 315.0527648925781
0, 2, 96, 314.9027404785156
0, 2, 97, 291.8647766113281
0, 2, 98, 293.3204345703125
0, 2, 99, 272.5976257324219
0, 2, 100, 305.5790405273438
0, 2, 101, 301.1275634765625
0, 2, 102, 297.0942077636719
0, 2, 103, 292.0426635742188
0, 2, 104, 293.2102966308594
0, 2, 105, 274.0784912109375
0, 2, 106, 298.2263793945312
0, 2, 107, 270.9222717285156
0, 2, 108, 116.9051971435547
0, 2, 109, 33.39409255981445
0, 2, 110, 9.986867904663086
0, 2, 111, 13.70941257476807
0, 2, 112, 8.083769798278809
0, 2, 113, 9.526338577270508
0, 2, 114, 12.35233497619629
0, 2, 115, 10.61310195922852
0, 2, 116, 11.62603282928467
0, 2, 117, 5.297100067138672
0, 2, 118, 2.086574077606201
0, 2, 119, 4.775631427764893
0, 2, 120, 7.312836170196533
0, 2, 121, 1.021189212799072
0, 2, 122, 4.543346881866455
0, 2, 123, 4.150146961212158
0, 2, 124, 1.65748929977417
0, 2, 125, 4.797272682189941
0, 2, 126, 3.054522037506104
0, 2, 127, 3.541325807571411
0, 3, 0, 3.068306922912598
0, 3, 1, 3.581198453903198
0, 3, 2, 4.092872619628906
0, 3, 3, 3.261897563934326
0, 3, 4, 3.323649168014526
0, 3, 5, 6.838520050048828
0, 3, 6, 6.450394153594971
0, 3, 7, 4.888359546661377
0, 3, 8, 4.932248115539551
0, 3, 9, 6.114800453186035
0, 3, 10, 6.065306186676025
0, 3, 11, 4.783690452575684
0, 3, 12, 6.92482328414917
0, 3, 13, 15.22687339782715
0, 3, 14, 12.18287181854248
0, 3, 15, 13.9665584564209
0, 3, 16, 10.16238784790039
0, 3, 17, 19.55574035644531
0, 3, 18, 51.50122451782227
0, 3, 19, 174.7913360595703
0, 3, 20, 270.7278442382812
0, 3, 21, 270.7109985351562
0, 3, 22, 281.6199645996094
0, 3, 23, 288.8832092285156
0, 3, 24, 286.6360168457031
0, 3, 25, 268.9141235351562
0, 3, 26, 303.9735107421875
0, 3, 27, 294.1266174316406
0, 3, 28, 280.2579650878906
0, 3, 29, 338.1978149414062
0, 3, 30, 317.2621765136719
0, 3, 31, 284.8399658203125
0, 3, 32, 306.3483581542969
0, 3, 33, 313.5764465332031
0, 3, 34, 320.9411926269531
0, 3, 35, 307.0525817871094
0, 3, 36, 269.8294067382812
0, 3, 37, 315.9493408203125
0, 3, 38, 304.7594604492188
0, 3, 39, 293.5661926269531
0, 3, 40, 267.4307861328125
0, 3, 41, 298.1159973144531
0, 3, 42, 286.5943908691406
0, 3, 43, 304.8764343261719
0, 3, 44, 311.4948120117188
0, 3, 45, 290.9701538085938
0, 3, 46, 329.7259216308594
0, 3, 47, 300.5147094726562
0, 3, 48, 302.7213134765625
0, 3, 49, 276.7467651367188
0, 3, 50, 289.6080627441406
0, 3, 51, 276.1925964355469
0, 3, 52, 316.9868774414062
0, 3, 53, 287.30810546875
0, 3, 54, 284.7955627441406
0, 3, 55, 282.7947082519531
0, 3, 56, 297.697509765625
0, 3, 57, 290.1129760742188
0, 3, 58, 305.6591796875
0, 3, 59, 294.7420654296875
0, 3, 60, 297.3897705078125
0, 3, 61, 266.7471313476562
0, 3, 62, 283.9850158691406
0, 3, 63, 309.604736328125
0, 3, 64, 317.0242919921875
0, 3, 65, 307.0181884765625
0, 3, 66, 313.5877380371094
0, 3, 67, 318.0706176757812
0, 3, 68, 279.072509765625
0, 3, 69, 282.487548828125
0, 3, 70, 290.2138977050781
0, 3, 71, 297.2289123535156
0, 3, 72, 269.426025390625
0, 3, 73, 305.3433227539062
0, 3, 74, 291.0567932128906
0, 3, 75, 288.4341735839844
0, 3, 76, 308.02001953125
0, 3, 77, 313.8086853027344
0, 3, 78, 303.2110900878906
0, 3, 79, 282.5260925292969
0, 3, 80, 288.9835815429688
0, 3, 81, 311.0603332519531
0, 3, 82, 315.1417236328125
0, 3, 83, 302.1476440429688
0, 3, 84, 312.1725769042969
0, 3, 85, 293.8447875976562
0, 3, 86, 302.2878723144531
0, 3, 87, 298.9586181640625
0, 3, 88, 297.2476196289062
0, 3, 89, 299.8679809570312
0, 3, 90, 275.7836608886719
0, 3, 91, 283.4182739257812
0, 3, 92, 303.3753967285156
0, 3, 93, 312.3233337402344
0, 3, 94, 296.7568359375
0, 3, 95, 335.4042358398438
0, 3, 96, 290.5621337890625
0, 3, 97, 282.9578857421875
0, 3, 98, 279.0743103027344
0, 3, 99, 261.7568359375
0, 3, 100, 286.7989196777344
0, 3, 101, 298.2021484375
0, 3, 102, 274.7817077636719
0, 3, 103, 319.7253112792969
0, 3, 104, 307.3792114257812
0, 3, 105, 290.9622497558594
0, 3, 106, 303.1127014160156
0, 3, 107, 281.0980224609375
0, 3, 108, 168.7608489990234
0, 3, 109, 58.50484848022461
0, 3, 110, 19.21604919433594
0, 3, 111, 12.43996620178223
0, 3, 112, 11.47336387634277
0, 3, 113, 8.703678131103516
0, 3, 114, 12.19351673126221
0, 3, 115, 8.08238410949707
0, 3, 116, 8.664829254150391
0, 3, 117, 8.714417457580566
0, 3, 118, 8.164325714111328
0, 3, 119, 4.55739688873291
0, 3, 120, 4.01481294631958
0, 3, 121, 2.793505191802979
0, 3, 122, 3.980958461761475
0, 3, 123, 5.414001941680908
0, 3, 124, 5.309000968933105
0, 3, 125, 5.49127721786499
0, 3, 126, 6.978044986724854
0, 3, 127, 3.611899852752686
0, 4, 0, 5.3944411277771
0, 4, 1, 5.291513919830322
0, 4, 2, 2.677528858184814
0, 4, 3, 1.531262874603271
0, 4, 4, 5.935409069061279
0, 4, 5, 9.147060394287109
0, 4, 6, 5.494749069213867
0, 4, 7, 3.746230602264404
0, 4, 8, 2.935654163360596
0, 4, 9, 7.424285411834717
0, 4, 10, 6.159581661224365
0, 4, 11, 6.060707569122314
0, 4, 12, 9.512349128723145
0, 4, 13, 8.530970573425293
0, 4, 14, 10.48318767547607
0, 4, 15, 11.22347164154053
0, 4, 16, 16.83001136779785
0, 4, 17, 17.48950386047363
0, 4, 18, 91.76321411132812
0, 4, 19, 221.7561798095703
0, 4, 20, 283.7121887207031
0, 4, 21, 272.6856079101562
0, 4, 22, 304.7187805175781
0, 4, 23, 265.5547485351562
0, 4, 24, 288.8187561035156
0, 4, 25, 272.9583740234375
0, 4, 26, 293.9559631347656
0, 4, 27, 283.1480407714844
0, 4, 28, 309.1068420410156
0, 4, 29, 324.4432373046875
0, 4, 30, 310.1981811523438
0, 4, 31, 307.6116333007812
0, 4, 32, 281.99560546875
0, 4, 33, 295.8163146972656
0, 4, 34, 296.7767333984375
0, 4, 35, 312.7365112304688
0, 4, 36, 292.6840515136719
0, 4, 37, 288.0402526855469
0, 4, 38, 299.9320678710938
0, 4, 39, 296.0051574707031
0, 4, 40, 303.1461486816406
0, 4, 41, 310.7409973144531
0, 4, 42, 329.3475036621094
0, 4, 43, 296.9103698730469
0, 4, 44, 320.9353942871094
0, 4, 45, 326.1011657714844
0, 4, 46, 306.488525390625
0, 4, 47, 293.2139587402344
0, 4, 48, 295.2337341308594
0, 4, 49, 277.1294250488281
0, 4, 50, 296.3431091308594
0, 4, 51, 315.5006408691406
0, 4, 52, 329.1676635742188
0, 4, 53, 303.2808837890625
0, 4, 54, 287.0801696777344
0, 4, 55, 317.6329345703125
0, 4, 56, 289.0879821777344
0, 4, 57, 310.2056579589844
0, 4, 58, 294.0740356445312
0, 4, 59, 307.7930908203125
0, 4, 60, 304.297607421875
0, 4, 61, 315.7064208984375
0, 4, 62, 307.9756164550781
0, 4, 63, 297.6420288085938
0, 4, 64, 330.9309387207031
0, 4, 65, 314.096923828125
0, 4, 66, 295.5265808105469
0, 4, 67, 285.2098999023438
0, 4, 68, 312.0657958984375
0, 4, 69, 277.1360168457031
0, 4, 70, 300.0001525878906
0, 4, 71, 321.4514770507812
0, 4, 72, 334.32568359375
0, 4, 73, 298.6675415039062
0, 4, 74, 293.3064880371094
0, 4, 75, 289.294189453125
0, 4, 76, 275.447998046875
0, 4, 77, 277.4887084960938
0, 4, 78, 309.7878723144531
0, 4, 79, 319.6875305175781
0, 4, 80, 316.2480773925781
0, 4, 81, 315.1485290527344
0, 4, 82, 298.3296203613281
0, 4, 83, 301.3742370605469
0, 4, 84, 293.9966125488281
0, 4, 85, 296.4782409667969
0, 4, 86, 298.4992980957031
0, 4, 87, 287.482666015625
0, 4, 88, 305.8701782226562
0, 4, 89, 297.3357849121094
0, 4, 90, 332.1665954589844
0, 4, 91, 301.7885437011719
0, 4, 92, 288.1670837402344
0, 4, 93, 297.6518249511719
0, 4, 94, 293.1541442871094
0, 4, 95, 289.9781799316406
0, 4, 96, 325.2887573242188
0, 4, 97, 272.0225830078125
0, 4, 98, 326.5196838378906
0, 4, 99, 314.0248107910156
0, 4, 100, 300.9896545410156
0, 4, 101, 255.8545684814453
0, 4, 102, 297.9185791015625
0, 4, 103, 317.2284545898438
0, 4, 104, 280.6608581542969
0, 4, 105, 310.9336853027344
0, 4, 106, 287.3673095703125
0, 4, 107, 294.9693298339844
0, 4, 108, 227.5091552734375
0, 4, 109, 82.3817138671875
0, 4, 110, 18.44891166687012
0, 4, 111, 15.89054107666016
0, 4, 112, 9.654802322387695
0, 4, 113, 9.089663505554199
0, 4, 114, 9.64445972442627
0, 4, 115, 13.33442115783691
0, 4, 116, 8.33437442779541
0, 4, 117, 5.97272253036499
0, 4, 118, 10.61894130706787
0, 4, 119, 11.51335334777832
0, 4, 120, 7.578964710235596
0, 4, 121, 4.845159530639648
0, 4, 122, 6.153918266296387
0, 4, 123, 6.605955600738525
0, 4, 124, 4.980752944946289
0, 4, 125, 11.18253803253174
0, 4, 126, 4.232107162475586
0, 4, 127, 2.514561176300049
0, 5, 0, 3.857550382614136
0, 5, 1, 2.91418194770813
0, 5, 2, 4.82711935043335
0, 5, 3, 3.526945114135742
0, 5, 4, 4.144521713256836
0, 5, 5, 4.051023960113525
0, 5, 6, 6.620707035064697
0, 5, 7, 4.315393924713135
0, 5, 8, 5.418874740600586
0, 5, 9, 6.790892601013184
0, 5, 10, 8.352266311645508
0, 5, 11, 8.160990715026855
0, 5, 12, 7.288670063018799
0, 5, 13, 4.293322563171387
0, 5, 14, 12.48999309539795
0, 5, 15, 17.70438003540039
0, 5, 16, 13.46045589447021
0, 5, 17, 28.44466400146484
0, 5, 18, 138.6876373291016
0, 5, 19, 290.4688110351562
0, 5, 20, 306.3865356445312
0, 5, 21, 315.7536010742188
0, 5, 22, 276.1629333496094
0, 5, 23, 310.6441040039062
0, 5, 24, 301.6721496582031
0, 5, 25, 288.884521484375
0, 5, 26, 293.73828125
0, 5, 27, 320.6369934082031
0, 5, 28, 302.0948181152344
0, 5, 29, 297.7834167480469
0, 5, 30, 323.4138488769531
0, 5, 31, 285.6069946289062
0, 5, 32, 303.0298767089844
0, 5, 33, 306.3009643554688
0, 5, 34, 298.6481018066406
0, 5, 35, 308.9534606933594
0, 5, 36, 268.7393188476562
0, 5, 37, 281.3961791992188
0, 5, 38, 293.1539916992188
0, 5, 39, 311.5156555175781
0, 5, 40, 308.0032653808594
0, 5, 41, 272.5926513671875
0, 5, 42, 305.3358764648438
0, 5, 43, 313.2799377441406
0, 5, 44, 292.7324829101562
0, 5, 45, 304.0492858886719
0, 5, 46, 265.8067932128906
0, 5, 47, 282.8417358398438
0, 5, 48, 292.6029357910156
0, 5, 49, 286.30224609375
0, 5, 50, 294.8775329589844
0, 5, 51, 278.9925842285156
0, 5, 52, 268.011962890625
0, 5, 53, 284.4186401367188
0, 5, 54, 293.1986389160156
0, 5, 55, 344.3760070800781
0, 5, 56, 306.0583190917969
0, 5, 57, 307.5075073242188
0, 5, 58, 310.5463256835938
0, 5, 59, 302.1505737304688
0, 5, 60, 306.4894104003906
0, 5, 61, 282.37939453125
0, 5, 62, 324.4014282226562
0, 5, 63, 292.4176330566406
0, 5, 64, 323.7727966308594
0, 5, 65, 307.6399536132812
0, 5, 66, 326.0730895996094
0, 5, 67, 311.1827697753906
0, 5, 68, 308.5841369628906
0, 5, 69, 311.0950927734375
0, 5, 70, 300.2910766601562
0, 5, 71, 272.2454223632812
0, 5, 72, 308.6853332519531
0, 5, 73, 303.4928894042969
0, 5, 74, 295.6528015136719
0, 5, 75, 292.94677734375
0, 5, 76, 285.0372924804688
0, 5, 77, 296.7555847167969
0, 5, 78, 314.667724609375
0, 5, 79, 308.1547546386719
0, 5, 80, 295.1951904296875
0, 5, 81, 325.4437255859375
0, 5, 82, 323.1856079101562
0, 5, 83, 280.4817199707031
0, 5, 84, 304.5978698730469
0, 5, 85, 270.7708740234375
0, 5, 86, 324.6618957519531
0, 5, 87, 282.7952575683594
0, 5, 88, 313.2782897949219
0, 5, 89, 305.7311706542969
0, 5, 90, 314.0655822753906
0, 5, 91, 314.0848083496094
0, 5, 92, 296.638671875
0, 5, 93, 322.9250793457031
0, 5, 94, 307.681884765625
0, 5, 95, 296.4092102050781
0, 5, 96, 296.4164733886719
0, 5, 97, 296.3609313964844
0, 5, 98, 318.6356506347656
0, 5, 99, 302.951171875
0, 5, 100, 291.3109741210938
0, 5, 101, 309.4080810546875
0, 5, 102, 293.4121398925781
0, 5, 103, 312.1396179199219
0, 5, 104, 304.1611328125
0, 5, 105, 290.8255310058594
0, 5, 106, 281.3200988769531
0, 5, 107, 294.3707275390625
0, 5, 108, 266.71923828125
0, 5, 109, 157.3731842041016
0, 5, 110, 39.95555114746094
0, 5, 111, 23.3068675994873
0, 5, 112, 16.45876121520996
0, 5, 113, 14.41519546508789
0, 5, 114, 13.29384899139404
0, 5, 115, 6.603633880615234
0, 5, 116, 10.97610664367676
0, 5, 117, 8.008094787597656
0, 5, 118, 12.59587955474854
0, 5, 119, 5.913818359375
0, 5, 120, 6.730061531066895
0, 5, 121, 5.439993858337402
0, 5, 122, 7.273752212524414
0, 5, 123, 7.056621074676514
0, 5, 124, 7.80323600769043
0, 5, 125, 4.562901496887207
0, 5, 126, 8.175583839416504
0, 5, 127, 2.491452217102051
0, 6, 0, 4.393423557281494
0, 6, 1, 2.903584718704224
0, 6, 2, 5.571719169616699
0, 6, 3, 7.485764980316162
0, 6, 4, 3.624580144882202
0, 6, 5, 4.923699855804443
0, 6, 6, 11.10353946685791
0, 6, 7, 6.400053977966309
0, 6, 8, 8.927087783813477
0, 6, 9, 5.776885509490967
0, 6, 10, 9.041812896728516
0, 6, 11, 8.656580924987793
0, 6, 12, 8.518586158752441
0, 6, 13, 13.30596160888672
0, 6, 14, 9.456865310668945
0, 6, 15, 16.82547378540039
0, 6, 16, 26.10926246643066
0, 6, 17, 54.85087966918945
0, 6, 18, 173.7584075927734
0, 6, 19, 277.152099609375
0, 6, 20, 291.1437072753906
0, 6, 21, 315.7317810058594
0, 6, 22, 319.7625732421875
0, 6, 23, 307.2422485351562
0, 6, 24, 316.0641174316406
0, 6, 25, 316.1797790527344
0, 6, 26, 320.9227600097656
0, 6, 27, 331.5223388671875
0, 6, 28, 297.1546325683594
0, 6, 29, 328.362060546875
0, 6, 30, 282.4914245605469
0, 6, 31, 285.7887268066406
0, 6, 32, 341.8408203125
0, 6, 33, 300.7205200195312
0, 6, 34, 340.2960205078125
0, 6, 35, 320.3886413574219
0, 6, 36, 273.6369323730469
0, 6, 37, 289.6019287109375
0, 6, 38, 310.1928405761719
0, 6, 39, 297.4500427246094
0, 6, 40, 283.9436645507812
0, 6, 41, 293.9902954101562
0, 6, 42, 305.6754760742188
0, 6, 43, 291.4975891113281
0, 6, 44, 280.5351257324219
0, 6, 45, 321.4886779785156
0, 6, 46, 302.75390625
0, 6, 47, 333.3788146972656
0, 6, 48, 293.6371154785156
0, 6, 49, 310.906982421875
0, 6, 50, 328.8955993652344
0, 6, 51, 309.6184692382812
0, 6, 52, 321.12890625
0, 6, 53, 329.3091430664062
0, 6, 54, 303.7991638183594
0, 6, 55, 305.8235778808594
0, 6, 56, 292.6051940917969
0, 6, 57, 315.4788513183594
0, 6, 58, 262.2058410644531
0, 6, 59, 304.55615234375
0, 6, 60, 311.5306701660156
0, 6, 61, 272.6541137695312
0, 6, 62, 338.00146484375
0, 6, 63, 323.6982421875
0, 6, 64, 293.8677978515625
0, 6, 65, 284.2230224609375
0, 6, 66, 306.2171630859375
0, 6, 67, 309.4956359863281
0, 6, 68, 293.4544677734375
0, 6, 69, 278.8306884765625
0, 6, 70, 275.3139038085938
0, 6, 71, 289.1075439453125
0, 6, 72, 312.2504577636719
0, 6, 73, 292.883544921875
0, 6, 74, 333.1338500976562
0, 6, 75, 343.8193969726562
0, 6, 76, 300.0181274414062
0, 6, 77, 287.3922729492188
0, 6, 78, 280.0943908691406
0, 6, 79, 295.8270568847656
0, 6, 80, 300.211669921875
0, 6, 81, 314.6780090332031
0, 6, 82, 320.2732849121094
0, 6, 83, 319.187255859375
0, 6, 84, 294.7942810058594
0, 6, 85, 300.4869079589844
0, 6, 86, 331.3118896484375
0, 6, 87, 293.2352294921875
0, 6, 88, 308.1571960449219
0, 6, 89, 305.9961547851562
0, 6, 90, 302.2289733886719
0, 6, 91, 312.8007202148438
0, 6, 92, 284.0481567382812
0, 6, 93, 296.2870178222656
0, 6, 94, 273.1361694335938
0, 6, 95, 300.0145874023438
0, 6, 96, 347.4071655273438
0, 6, 97, 309.9583435058594
0, 6, 98, 301.4152221679688
0, 6, 99, 274.061279296875
0, 6, 100, 308.9052429199219
0, 6, 101, 292.9887390136719
0, 6, 102, 308.3053283691406
0, 6, 103, 308.301025390625
0, 6, 104, 293.3700866699219
0, 6, 105, 302.5567016601562
0, 6, 106, 307.390869140625
0, 6, 107, 305.8922729492188
0, 6, 108, 265.3502502441406
0, 6, 109, 186.9304962158203
0, 6, 110, 54.5387077331543
0, 6, 111, 22.91296005249023
0, 6, 112, 12.59675979614258
0, 6, 113, 12.61601066589355
0, 6, 114, 12.47579669952393
0, 6, 115, 12.00708103179932
0, 6, 116, 7.858202934265137
0, 6, 117, 8.224151611328125
0, 6, 118, 10.22911357879639
0, 6, 119, 7.208849906921387
0, 6, 120, 5.968989372253418
0, 6, 121, 7.134560585021973
0, 6, 122, 7.350231170654297
0, 6, 123, 4.572511196136475
0, 6, 124, 6.799612045288086
0, 6, 125, 5.721928119659424
0, 6, 126, 5.616592407226562
0, 6, 127, 6.13769006729126
0, 7, 0, 4.548960208892822
0, 7, 1, 3.74452543258667
0, 7, 2, 5.384926319122314
0, 7, 3, 4.427577495574951
0, 7, 4, 3.328471899032593
0, 7, 5, 6.196664810180664
0, 7, 6, 5.818388938903809
0, 7, 7, 5.701080322265625
0, 7, 8, 5.034639835357666
0, 7, 9, 7.791589736938477
0, 7, 10, 8.00834846496582
0, 7, 11, 9.544075965881348
0, 7, 12, 9.044241905212402
0, 7, 13, 12.48262596130371
0, 7, 14, 11.80893230438232
0, 7, 15, 16.7802906036377
0, 7, 16, 25.79843330383301
0, 7, 17, 97.88578033447266
0, 7, 18, 219.3896484375
0, 7, 19, 288.3390808105469
0, 7, 20, 298.7134399414062
0, 7, 21, 275.4846801757812
0, 7, 22, 301.2114562988281
0, 7, 23, 288.6005249023438
0, 7, 24, 313.2433776855469
0, 7, 25, 323.1466979980469
0, 7, 26, 276.7197570800781
0, 7, 27, 297.2744445800781
0, 7, 28, 325.2906494140625
0, 7, 29, 317.3693237304688
0, 7, 30, 302.6260375976562
0, 7, 31, 277.9486389160156
0, 7, 32, 305.6351013183594
0, 7, 33, 264.1446533203125
0, 7, 34, 296.9215698242188
0, 7, 35, 321.3970336914062
0, 7, 36, 331.5857543945312
0, 7, 37, 325.2672729492188
0, 7, 38, 295.5865783691406
0, 7, 39, 305.437255859375
0, 7, 40, 287.9610900878906
0, 7, 41, 271.9112548828125
0, 7, 42, 300.2750854492188
0, 7, 43, 272.3259887695312
0, 7, 44, 305.0890502929688
0, 7, 45, 295.5236511230469
0, 7, 46, 280.0431213378906
0, 7, 47, 328.2740478515625
0, 7, 48, 285.8031311035156
0, 7, 49, 302.3876037597656
0, 7, 50, 321.5992736816406
0, 7, 51, 298.866455078125
0, 7, 52, 326.7943115234375
0, 7, 53, 311.5809020996094
0, 7, 54, 324.5315551757812
0, 7, 55, 308.298095703125
0, 7, 56, 278.4369812011719
0, 7, 57, 281.4413146972656
0, 7, 58, 295.7998962402344
0, 7, 59, 292.8530883789062
0, 7, 60, 322.2280578613281
0, 7, 61, 276.9770812988281
0, 7, 62, 296.8856506347656
0, 7, 63, 292.4376831054688
0, 7, 64, 305.840087890625
0, 7, 65, 330.4646301269531
0, 7, 66, 317.0925903320312
0, 7, 67, 303.2484436035156
0, 7, 68, 279.3411254882812
0, 7, 69, 294.6986999511719
0, 7, 70, 300.5552673339844
0, 7, 71, 308.1328735351562
0, 7, 72, 283.6905822753906
0, 7, 73, 295.9007873535156
0, 7, 74, 344.0182495117188
0, 7, 75, 318.008056640625
0, 7, 76, 323.2473754882812
0, 7, 77, 282.5377197265625
0, 7, 78, 301.55517578125
0, 7, 79, 298.0105285644531
0, 7, 80, 310.8421936035156
0, 7, 81, 318.0443115234375
0, 7, 82, 330.1628112792969
0, 7, 83, 316.9964294433594
0, 7, 84, 310.3466491699219
0, 7, 85, 272.1469421386719
0, 7, 86, 309.7532958984375
0, 7, 87, 308.7416381835938
0, 7, 88, 309.2154846191406
0, 7, 89, 292.8018798828125
0, 7, 90, 305.07177734375
0, 7, 91, 314.4932556152344
0, 7, 92, 288.8591003417969
0, 7, 93, 307.5576477050781
0, 7, 94, 273.5337219238281
0, 7, 95, 296.773681640625
0, 7, 96, 332.9124450683594
0, 7, 97, 294.4342041015625
0, 7, 98, 290.9794616699219
0, 7, 99, 311.2331237792969
0, 7, 100, 281.4947814941406
0, 7, 101, 276.5397644042969
0, 7, 102, 290.9884948730469
0, 7, 103, 293.1266784667969
0, 7, 104, 273.6410522460938
0, 7, 105, 305.5714721679688
0, 7, 106, 316.60302734375
0, 7, 107, 295.5348205566406
0, 7, 108, 273.3092956542969
0, 7, 109, 237.6250457763672
0, 7, 110, 95.97174072265625
0, 7, 111, 23.37328338623047
0, 7, 112, 13.67267036437988
0, 7, 113, 14.39745426177979
0, 7, 114, 13.15816974639893
0, 7, 115, 10.90569305419922
0, 7, 116, 8.268962860107422
0, 7, 117, 7.052009582519531
0, 7, 118, 7.467298030853271
0, 7, 119, 4.415897369384766
0, 7, 120, 4.608330726623535
0, 7, 121, 5.648044586181641
0, 7, 122, 8.891779899597168
0, 7, 123, 4.459088325500488
0, 7, 124, 6.404948234558105
0, 7, 125, 6.175697326660156
0, 7, 126, 6.880785942077637
0, 7, 127, 2.005204677581787
0, 8, 0, 3.456078290939331
0, 8, 1, 6.593596935272217
0, 8, 2, 4.750098705291748
0, 8, 3, 1.515804409980774
0, 8, 4, 4.982105731964111
0, 8, 5, 3.719538688659668
0, 8, 6, 4.476412773132324
0, 8, 7, 7.586541175842285
0, 8, 8, 7.535134315490723
0, 8, 9, 4.781497478485107
0, 8, 10, 6.732874393463135
0, 8, 11, 12.95557975769043
0, 8, 12, 14.74471664428711
0, 8, 13, 13.47913265228271
0, 8, 14, 13.40733623504639
0, 8, 15, 18.43134307861328
0, 8, 16, 33.61873245239258
0, 8, 17, 130.15283203125
0, 8, 18, 242.744140625
0, 8, 19, 297.1923828125
0, 8, 20, 284.8971862792969
0, 8, 21, 307.8895568847656
0, 8, 22, 299.12841796875
0, 8, 23, 274.1267395019531
0, 8, 24, 269.1880493164062
0, 8, 25, 276.8973083496094
0, 8, 26, 305.13818359375
0, 8, 27, 307.5367431640625
0, 8, 28, 304.7289428710938
0, 8, 29, 320.7780151367188
0, 8, 30, 315.5479736328125
0, 8, 31, 305.5536499023438
0, 8, 32, 279.1899719238281
0, 8, 33, 292.9371643066406
0, 8, 34, 291.98388671875
0, 8, 35, 279.1185913085938
0, 8, 36, 314.6677551269531
0, 8, 37, 338.1440124511719
0, 8, 38, 331.6342468261719
0, 8, 39, 281.105224609375
