# TOPAS Version: 3.1.p3
# Parameter File: batch_inserts_132.txt
# Results for scorer Readout_Adipose
# Scored in component: MyBox
# X in 1 bin  of 0.75 cm
# Y in 512 bins of 0.0783984 cm
# Z in 128 bins of 0.078125 cm
# EnergyDeposit ( MeV ) : Sum   
0, 0, 0, 5.83912181854248
0, 0, 1, 2.522541999816895
0, 0, 2, 2.836683988571167
0, 0, 3, 2.026165008544922
0, 0, 4, 3.995223760604858
0, 0, 5, 2.512982845306396
0, 0, 6, 7.81897497177124
0, 0, 7, 9.834080696105957
0, 0, 8, 3.051815032958984
0, 0, 9, 5.0477614402771
0, 0, 10, 7.881028652191162
0, 0, 11, 5.152665138244629
0, 0, 12, 3.927925825119019
0, 0, 13, 7.727381229400635
0, 0, 14, 7.182701587677002
0, 0, 15, 9.426139831542969
0, 0, 16, 9.29088020324707
0, 0, 17, 9.980170249938965
0, 0, 18, 13.61273097991943
0, 0, 19, 43.09078979492188
0, 0, 20, 138.8850555419922
0, 0, 21, 222.5282440185547
0, 0, 22, 249.0215148925781
0, 0, 23, 255.7278137207031
0, 0, 24, 251.66552734375
0, 0, 25, 258.0726623535156
0, 0, 26, 233.5035247802734
0, 0, 27, 236.8677978515625
0, 0, 28, 272.6771545410156
0, 0, 29, 252.444091796875
0, 0, 30, 229.7895202636719
0, 0, 31, 243.9224243164062
0, 0, 32, 263.468017578125
0, 0, 33, 260.8262023925781
0, 0, 34, 286.9367065429688
0, 0, 35, 266.8523559570312
0, 0, 36, 246.3960266113281
0, 0, 37, 252.4007415771484
0, 0, 38, 267.7059631347656
0, 0, 39, 229.1250762939453
0, 0, 40, 241.4081573486328
0, 0, 41, 265.4548950195312
0, 0, 42, 228.9747009277344
0, 0, 43, 258.6476135253906
0, 0, 44, 253.4318237304688
0, 0, 45, 252.3778839111328
0, 0, 46, 244.6349334716797
0, 0, 47, 252.6036376953125
0, 0, 48, 267.0307922363281
0, 0, 49, 274.9331359863281
0, 0, 50, 251.7593536376953
0, 0, 51, 255.1593017578125
0, 0, 52, 273.5992736816406
0, 0, 53, 291.2629699707031
0, 0, 54, 241.5783386230469
0, 0, 55, 240.1680450439453
0, 0, 56, 279.138427734375
0, 0, 57, 262.4508361816406
0, 0, 58, 245.9415740966797
0, 0, 59, 268.3909301757812
0, 0, 60, 233.5154876708984
0, 0, 61, 243.6434478759766
0, 0, 62, 254.7883758544922
0, 0, 63, 266.1070861816406
0, 0, 64, 254.29931640625
0, 0, 65, 261.2206115722656
0, 0, 66, 278.4891662597656
0, 0, 67, 246.6502227783203
0, 0, 68, 258.8793334960938
0, 0, 69, 261.3358764648438
0, 0, 70, 271.8914489746094
0, 0, 71, 239.1060333251953
0, 0, 72, 249.8633270263672
0, 0, 73, 260.2939147949219
0, 0, 74, 252.3173370361328
0, 0, 75, 241.8035430908203
0, 0, 76, 228.8724975585938
0, 0, 77, 261.7699584960938
0, 0, 78, 257.3257141113281
0, 0, 79, 278.06884765625
0, 0, 80, 215.3659515380859
0, 0, 81, 265.8040466308594
0, 0, 82, 257.2692565917969
0, 0, 83, 246.1669464111328
0, 0, 84, 269.8174743652344
0, 0, 85, 231.6884918212891
0, 0, 86, 252.9807281494141
0, 0, 87, 250.4480133056641
0, 0, 88, 260.9061279296875
0, 0, 89, 283.256591796875
0, 0, 90, 243.4392242431641
0, 0, 91, 282.4755554199219
0, 0, 92, 252.4725952148438
0, 0, 93, 250.9671478271484
0, 0, 94, 249.5451812744141
0, 0, 95, 247.6947937011719
0, 0, 96, 277.2806091308594
0, 0, 97, 271.6322021484375
0, 0, 98, 272.5563354492188
0, 0, 99, 258.5201110839844
0, 0, 100, 258.1232299804688
0, 0, 101, 227.9951477050781
0, 0, 102, 232.0964050292969
0, 0, 103, 269.1960144042969
0, 0, 104, 254.3026885986328
0, 0, 105, 251.672607421875
0, 0, 106, 246.7000274658203
0, 0, 107, 150.5342407226562
0, 0, 108, 38.7499885559082
0, 0, 109, 10.84959030151367
0, 0, 110, 12.72879600524902
0, 0, 111, 9.220968246459961
0, 0, 112, 8.348659515380859
0, 0, 113, 5.180476188659668
0, 0, 114, 7.783132076263428
0, 0, 115, 4.108725547790527
0, 0, 116, 4.952512264251709
0, 0, 117, 5.978819847106934
0, 0, 118, 6.820764064788818
0, 0, 119, 3.764647722244263
0, 0, 120, 3.831536293029785
0, 0, 121, 3.104374647140503
0, 0, 122, 4.586395740509033
0, 0, 123, 4.22917366027832
0, 0, 124, 3.926835536956787
0, 0, 125, 3.762149572372437
0, 0, 126, 5.04586124420166
0, 0, 127, 2.088104963302612
0, 1, 0, 9.908063888549805
0, 1, 1, 1.814337968826294
0, 1, 2, 3.906822681427002
0, 1, 3, 2.607271194458008
0, 1, 4, 3.274837732315063
0, 1, 5, 4.49851655960083
0, 1, 6, 5.096998691558838
0, 1, 7, 4.668590068817139
0, 1, 8, 5.776912212371826
0, 1, 9, 4.591407775878906
0, 1, 10, 6.914403438568115
0, 1, 11, 11.57599925994873
0, 1, 12, 8.285403251647949
0, 1, 13, 8.468783378601074
0, 1, 14, 7.65533971786499
0, 1, 15, 7.696808815002441
0, 1, 16, 10.31176090240479
0, 1, 17, 9.268040657043457
0, 1, 18, 22.09605407714844
0, 1, 19, 67.17865753173828
0, 1, 20, 199.8785247802734
0, 1, 21, 255.2208404541016
0, 1, 22, 298.567138671875
0, 1, 23, 282.8281860351562
0, 1, 24, 275.354736328125
0, 1, 25, 290.5882873535156
0, 1, 26, 270.4005432128906
0, 1, 27, 305.5079345703125
0, 1, 28, 298.3306579589844
0, 1, 29, 294.6114196777344
0, 1, 30, 281.1886596679688
0, 1, 31, 292.4262390136719
0, 1, 32, 290.4700927734375
0, 1, 33, 298.4129638671875
0, 1, 34, 292.8280029296875
0, 1, 35, 278.0248718261719
0, 1, 36, 305.8259887695312
0, 1, 37, 294.3470153808594
0, 1, 38, 279.6732482910156
0, 1, 39, 295.6838989257812
0, 1, 40, 265.3118286132812
0, 1, 41, 288.2459106445312
0, 1, 42, 291.6298217773438
0, 1, 43, 332.9616088867188
0, 1, 44, 277.9378967285156
0, 1, 45, 292.3094787597656
0, 1, 46, 258.0340881347656
0, 1, 47, 309.8832702636719
0, 1, 48, 285.2857971191406
0, 1, 49, 302.6723022460938
0, 1, 50, 264.2248840332031
0, 1, 51, 271.8849792480469
0, 1, 52, 295.5019226074219
0, 1, 53, 303.8280639648438
0, 1, 54, 274.4400634765625
0, 1, 55, 292.9501647949219
0, 1, 56, 279.9169311523438
0, 1, 57, 301.2435913085938
0, 1, 58, 311.3495788574219
0, 1, 59, 292.4554443359375
0, 1, 60, 297.2734680175781
0, 1, 61, 274.3284301757812
0, 1, 62, 308.674560546875
0, 1, 63, 289.7180786132812
0, 1, 64, 288.3635559082031
0, 1, 65, 294.6766662597656
0, 1, 66, 291.78076171875
0, 1, 67, 290.9198913574219
0, 1, 68, 277.5386047363281
0, 1, 69, 279.2254028320312
0, 1, 70, 271.8826904296875
0, 1, 71, 271.8991088867188
0, 1, 72, 286.5835266113281
0, 1, 73, 302.8288879394531
0, 1, 74, 305.6093444824219
0, 1, 75, 295.5353698730469
0, 1, 76, 285.7151489257812
0, 1, 77, 288.6751098632812
0, 1, 78, 298.0902404785156
0, 1, 79, 300.7847900390625
0, 1, 80, 296.8762817382812
0, 1, 81, 300.5956420898438
0, 1, 82, 284.3840637207031
0, 1, 83, 333.0929870605469
0, 1, 84, 307.8378601074219
0, 1, 85, 254.4232940673828
0, 1, 86, 293.3623352050781
0, 1, 87, 290.7783508300781
0, 1, 88, 297.2347717285156
0, 1, 89, 290.4522705078125
0, 1, 90, 271.4260864257812
0, 1, 91, 319.9029541015625
0, 1, 92, 291.6981506347656
0, 1, 93, 287.1836242675781
0, 1, 94, 303.96923828125
0, 1, 95, 284.493408203125
0, 1, 96, 283.5277404785156
0, 1, 97, 305.063720703125
0, 1, 98, 277.8886413574219
0, 1, 99, 268.9943237304688
0, 1, 100, 276.3624267578125
0, 1, 101, 281.7968139648438
0, 1, 102, 279.1054992675781
0, 1, 103, 281.5968627929688
0, 1, 104, 304.7423706054688
0, 1, 105, 297.6355285644531
0, 1, 106, 261.9355163574219
0, 1, 107, 193.0749053955078
0, 1, 108, 81.32870483398438
0, 1, 109, 24.42645454406738
0, 1, 110, 10.90543937683105
0, 1, 111, 8.950397491455078
0, 1, 112, 13.49063873291016
0, 1, 113, 9.206211090087891
0, 1, 114, 6.05652379989624
0, 1, 115, 5.006686687469482
0, 1, 116, 12.79280853271484
0, 1, 117, 4.881689071655273
0, 1, 118, 4.868576049804688
0, 1, 119, 3.735789775848389
0, 1, 120, 4.573829174041748
0, 1, 121, 3.729236841201782
0, 1, 122, 3.252325296401978
0, 1, 123, 3.519482135772705
0, 1, 124, 8.008803367614746
0, 1, 125, 3.922983884811401
0, 1, 126, 2.534109115600586
0, 1, 127, 1.344935774803162
0, 2, 0, 3.611850500106812
0, 2, 1, 1.751445889472961
0, 2, 2, 4.641684055328369
0, 2, 3, 5.677837371826172
0, 2, 4, 1.944140315055847
0, 2, 5, 3.100132703781128
0, 2, 6, 2.578498840332031
0, 2, 7, 5.26594066619873
0, 2, 8, 5.164082527160645
0, 2, 9, 4.942549705505371
0, 2, 10, 6.767155170440674
0, 2, 11, 5.798467636108398
0, 2, 12, 6.02843713760376
0, 2, 13, 9.073186874389648
0, 2, 14, 9.10356616973877
0, 2, 15, 7.703501224517822
0, 2, 16, 11.02913379669189
0, 2, 17, 16.21357536315918
0, 2, 18, 32.04946136474609
0, 2, 19, 115.0426330566406
0, 2, 20, 246.6921997070312
0, 2, 21, 271.2113647460938
0, 2, 22, 316.4198608398438
0, 2, 23, 301.8089294433594
0, 2, 24, 285.1949462890625
0, 2, 25, 302.22802734375
0, 2, 26, 291.2103881835938
0, 2, 27, 276.3229064941406
0, 2, 28, 273.1507568359375
0, 2, 29, 275.5596313476562
0, 2, 30, 290.8226928710938
0, 2, 31, 278.6078491210938
0, 2, 32, 293.0004272460938
0, 2, 33, 280.4258117675781
0, 2, 34, 333.5560607910156
0, 2, 35, 289.4435424804688
0, 2, 36, 304.5720520019531
0, 2, 37, 315.6319274902344
0, 2, 38, 310.9718933105469
0, 2, 39, 267.9352111816406
0, 2, 40, 309.7120056152344
0, 2, 41, 292.2707214355469
0, 2, 42, 303.1090698242188
0, 2, 43, 314.3580932617188
0, 2, 44, 312.5779418945312
0, 2, 45, 326.4769897460938
0, 2, 46, 286.4952697753906
0, 2, 47, 302.2947082519531
0, 2, 48, 280.2472839355469
0, 2, 49, 280.3325805664062
0, 2, 50, 293.8079528808594
0, 2, 51, 283.6894836425781
0, 2, 52, 275.9390258789062
0, 2, 53, 285.4316711425781
0, 2, 54, 280.5796203613281
0, 2, 55, 279.3595275878906
0, 2, 56, 301.3337707519531
0, 2, 57, 292.6622009277344
0, 2, 58, 301.2857666015625
0, 2, 59, 290.3938598632812
0, 2, 60, 318.8724365234375
0, 2, 61, 303.1775512695312
0, 2, 62, 315.1057739257812
0, 2, 63, 305.0033874511719
0, 2, 64, 297.8662109375
0, 2, 65, 313.6678771972656
0, 2, 66, 279.2514343261719
0, 2, 67, 291.270263671875
0, 2, 68, 296.4689331054688
0, 2, 69, 310.89013671875
0, 2, 70, 334.9705505371094
0, 2, 71, 285.8082885742188
0, 2, 72, 301.5677795410156
0, 2, 73, 312.0280151367188
0, 2, 74, 288.3988037109375
0, 2, 75, 304.8718566894531
0, 2, 76, 290.7367248535156
0, 2, 77, 301.753662109375
0, 2, 78, 316.9530029296875
0, 2, 79, 308.3409423828125
0, 2, 80, 295.0033264160156
0, 2, 81, 282.6536865234375
0, 2, 82, 320.1504516601562
0, 2, 83, 312.10009765625
0, 2, 84, 289.5105285644531
0, 2, 85, 281.4368591308594
0, 2, 86, 323.4007568359375
0, 2, 87, 288.011962890625
0, 2, 88, 279.5428771972656
0, 2, 89, 297.2154846191406
0, 2, 90, 297.368896484375
0, 2, 91, 276.238037109375
0, 2, 92, 307.1362609863281
0, 2, 93, 318.1952209472656
0, 2, 94, 292.3581848144531
0, 2, 95, 313.8520812988281
0, 2, 96, 315.2499084472656
0, 2, 97, 289.3460083007812
0, 2, 98, 292.4689331054688
0, 2, 99, 272.4947509765625
0, 2, 100, 308.5243530273438
0, 2, 101, 300.5805053710938
0, 2, 102, 295.558837890625
0, 2, 103, 291.8475036621094
0, 2, 104, 291.5130615234375
0, 2, 105, 274.0298461914062
0, 2, 106, 295.0997314453125
0, 2, 107, 269.5970153808594
0, 2, 108, 118.4591522216797
0, 2, 109, 32.65822219848633
0, 2, 110, 9.951691627502441
0, 2, 111, 10.70073509216309
0, 2, 112, 8.545347213745117
0, 2, 113, 10.59280395507812
0, 2, 114, 10.91895389556885
0, 2, 115, 8.879931449890137
0, 2, 116, 7.907637596130371
0, 2, 117, 8.248034477233887
0, 2, 118, 2.910525798797607
0, 2, 119, 3.423227787017822
0, 2, 120, 6.407692432403564
0, 2, 121, 2.644639730453491
0, 2, 122, 4.254281044006348
0, 2, 123, 5.546646595001221
0, 2, 124, 5.041271209716797
0, 2, 125, 6.962757587432861
0, 2, 126, 5.058695793151855
0, 2, 127, 4.369896411895752
0, 3, 0, 2.038803100585938
0, 3, 1, 4.087252616882324
0, 3, 2, 4.080758571624756
0, 3, 3, 1.72346293926239
0, 3, 4, 3.623279094696045
0, 3, 5, 6.888659954071045
0, 3, 6, 6.412463665008545
0, 3, 7, 6.06152868270874
0, 3, 8, 6.059675693511963
0, 3, 9, 5.019195079803467
0, 3, 10, 8.018414497375488
0, 3, 11, 6.384579181671143
0, 3, 12, 8.742605209350586
0, 3, 13, 15.34626483917236
0, 3, 14, 10.80785846710205
0, 3, 15, 12.89908599853516
0, 3, 16, 12.69756412506104
0, 3, 17, 21.84957885742188
0, 3, 18, 52.73091506958008
0, 3, 19, 176.1471862792969
0, 3, 20, 270.4098815917969
0, 3, 21, 271.5081481933594
0, 3, 22, 283.677490234375
0, 3, 23, 285.8869934082031
0, 3, 24, 288.8036499023438
0, 3, 25, 271.0543518066406
0, 3, 26, 303.9202575683594
0, 3, 27, 294.3112487792969
0, 3, 28, 281.5229797363281
0, 3, 29, 338.9404296875
0, 3, 30, 315.6695251464844
0, 3, 31, 288.8397827148438
0, 3, 32, 307.5069274902344
0, 3, 33, 313.1623840332031
0, 3, 34, 321.8280029296875
0, 3, 35, 306.3980407714844
0, 3, 36, 268.83203125
0, 3, 37, 312.16259765625
0, 3, 38, 304.6647338867188
0, 3, 39, 291.2411499023438
0, 3, 40, 265.6402282714844
0, 3, 41, 302.2847290039062
0, 3, 42, 286.8569030761719
0, 3, 43, 308.7658996582031
0, 3, 44, 311.2222595214844
0, 3, 45, 289.5315856933594
0, 3, 46, 329.0776672363281
0, 3, 47, 299.9977416992188
0, 3, 48, 302.0220031738281
0, 3, 49, 276.8473510742188
0, 3, 50, 292.1528625488281
0, 3, 51, 277.9921264648438
0, 3, 52, 314.7846374511719
0, 3, 53, 287.1208801269531
0, 3, 54, 286.1200561523438
0, 3, 55, 284.567626953125
0, 3, 56, 300.1817321777344
0, 3, 57, 287.6466064453125
0, 3, 58, 307.3650207519531
0, 3, 59, 297.1255493164062
0, 3, 60, 297.1953735351562
0, 3, 61, 264.1397094726562
0, 3, 62, 282.3306884765625
0, 3, 63, 308.89599609375
0, 3, 64, 315.1309204101562
0, 3, 65, 304.88720703125
0, 3, 66, 314.7533874511719
0, 3, 67, 318.100341796875
0, 3, 68, 279.0689086914062
0, 3, 69, 284.4083557128906
0, 3, 70, 286.9488220214844
0, 3, 71, 299.0710754394531
0, 3, 72, 269.1249084472656
0, 3, 73, 307.1989135742188
0, 3, 74, 291.9518127441406
0, 3, 75, 291.6904907226562
0, 3, 76, 305.4391174316406
0, 3, 77, 311.8362426757812
0, 3, 78, 303.2671508789062
0, 3, 79, 282.0333557128906
0, 3, 80, 290.4790344238281
0, 3, 81, 312.3948669433594
0, 3, 82, 315.3872375488281
0, 3, 83, 300.8477172851562
0, 3, 84, 311.6991271972656
0, 3, 85, 296.7876892089844
0, 3, 86, 300.8652038574219
0, 3, 87, 297.4786682128906
0, 3, 88, 299.1632690429688
0, 3, 89, 296.4732971191406
0, 3, 90, 276.1742858886719
0, 3, 91, 284.0081787109375
0, 3, 92, 303.8352966308594
0, 3, 93, 312.4093017578125
0, 3, 94, 297.2281494140625
0, 3, 95, 334.7396240234375
0, 3, 96, 290.8681945800781
0, 3, 97, 284.266845703125
0, 3, 98, 278.4417724609375
0, 3, 99, 264.5012817382812
0, 3, 100, 284.9180297851562
0, 3, 101, 298.2366027832031
0, 3, 102, 274.65966796875
0, 3, 103, 320.5775146484375
0, 3, 104, 308.4426574707031
0, 3, 105, 288.0197448730469
0, 3, 106, 302.2593688964844
0, 3, 107, 283.5625610351562
0, 3, 108, 169.5836486816406
0, 3, 109, 56.59361267089844
0, 3, 110, 16.91568756103516
0, 3, 111, 13.02310466766357
0, 3, 112, 17.74650192260742
0, 3, 113, 6.799827575683594
0, 3, 114, 9.922269821166992
0, 3, 115, 6.888574123382568
0, 3, 116, 8.745607376098633
0, 3, 117, 6.69706392288208
0, 3, 118, 8.665508270263672
0, 3, 119, 7.128128051757812
0, 3, 120, 5.863600730895996
0, 3, 121, 2.056972026824951
0, 3, 122, 2.135186195373535
0, 3, 123, 5.762382507324219
0, 3, 124, 5.522770881652832
0, 3, 125, 5.188606262207031
0, 3, 126, 4.29132604598999
0, 3, 127, 4.648312568664551
0, 4, 0, 2.720801591873169
0, 4, 1, 4.366001605987549
0, 4, 2, 4.114868640899658
0, 4, 3, 2.160725831985474
0, 4, 4, 6.944448947906494
0, 4, 5, 7.842418670654297
0, 4, 6, 6.560588359832764
0, 4, 7, 5.70073413848877
0, 4, 8, 4.388540744781494
0, 4, 9, 5.142489433288574
0, 4, 10, 6.28663969039917
0, 4, 11, 7.075669288635254
0, 4, 12, 5.853255748748779
0, 4, 13, 7.832853317260742
0, 4, 14, 10.59878826141357
0, 4, 15, 9.400242805480957
0, 4, 16, 12.92669486999512
0, 4, 17, 18.39604759216309
0, 4, 18, 92.55946350097656
0, 4, 19, 222.3444671630859
0, 4, 20, 285.414794921875
0, 4, 21, 273.0753173828125
0, 4, 22, 304.1240539550781
0, 4, 23, 265.6367492675781
0, 4, 24, 289.0360717773438
0, 4, 25, 271.6773681640625
0, 4, 26, 294.1124572753906
0, 4, 27, 283.3004760742188
0, 4, 28, 306.9018859863281
0, 4, 29, 323.8313293457031
0, 4, 30, 310.3609924316406
0, 4, 31, 302.8262329101562
0, 4, 32, 282.3002319335938
0, 4, 33, 297.2043151855469
0, 4, 34, 297.5830383300781
0, 4, 35, 313.0604248046875
0, 4, 36, 296.4268188476562
0, 4, 37, 289.0660705566406
0, 4, 38, 298.4384155273438
0, 4, 39, 294.7583618164062
0, 4, 40, 303.4032897949219
0, 4, 41, 314.6996154785156
0, 4, 42, 328.7356872558594
0, 4, 43, 299.0348205566406
0, 4, 44, 320.2103576660156
0, 4, 45, 325.552978515625
0, 4, 46, 304.4073181152344
0, 4, 47, 292.1219787597656
0, 4, 48, 296.2589416503906
0, 4, 49, 278.3409118652344
0, 4, 50, 296.4810791015625
0, 4, 51, 317.0419006347656
0, 4, 52, 328.447021484375
0, 4, 53, 303.053955078125
0, 4, 54, 287.7081298828125
0, 4, 55, 313.8835144042969
0, 4, 56, 287.2864074707031
0, 4, 57, 309.3746032714844
0, 4, 58, 295.1814880371094
0, 4, 59, 311.0686645507812
0, 4, 60, 302.1557312011719
0, 4, 61, 316.2111206054688
0, 4, 62, 312.80224609375
0, 4, 63, 298.64404296875
0, 4, 64, 330.0175170898438
0, 4, 65, 316.8473205566406
0, 4, 66, 293.423095703125
0, 4, 67, 284.6836242675781
0, 4, 68, 311.7273864746094
0, 4, 69, 276.6199951171875
0, 4, 70, 299.82177734375
0, 4, 71, 319.8033447265625
0, 4, 72, 338.3075561523438
0, 4, 73, 298.8391723632812
0, 4, 74, 291.8182678222656
0, 4, 75, 288.83837890625
0, 4, 76, 274.832763671875
0, 4, 77, 278.1082763671875
0, 4, 78, 309.5534973144531
0, 4, 79, 318.0069274902344
0, 4, 80, 316.8782348632812
0, 4, 81, 312.4419555664062
0, 4, 82, 297.5252990722656
0, 4, 83, 300.7498168945312
0, 4, 84, 291.8150329589844
0, 4, 85, 295.2972412109375
0, 4, 86, 296.5215454101562
0, 4, 87, 283.8612365722656
0, 4, 88, 305.25537109375
0, 4, 89, 295.3612365722656
0, 4, 90, 333.8652648925781
0, 4, 91, 302.5261535644531
0, 4, 92, 290.6431884765625
0, 4, 93, 297.0303344726562
0, 4, 94, 290.7454833984375
0, 4, 95, 288.0494689941406
0, 4, 96, 323.8218383789062
0, 4, 97, 273.5306701660156
0, 4, 98, 328.3121948242188
0, 4, 99, 313.3590393066406
0, 4, 100, 300.4754028320312
0, 4, 101, 258.93115234375
0, 4, 102, 295.8725280761719
0, 4, 103, 316.8806762695312
0, 4, 104, 281.6619262695312
0, 4, 105, 309.6335754394531
0, 4, 106, 286.3460998535156
0, 4, 107, 296.7673950195312
0, 4, 108, 224.9822998046875
0, 4, 109, 78.88088226318359
0, 4, 110, 16.21903800964355
0, 4, 111, 14.94400691986084
0, 4, 112, 8.536785125732422
0, 4, 113, 10.83337688446045
0, 4, 114, 7.368093490600586
0, 4, 115, 9.578788757324219
0, 4, 116, 8.370070457458496
0, 4, 117, 7.829094409942627
0, 4, 118, 11.11090183258057
0, 4, 119, 11.10408782958984
0, 4, 120, 4.915518760681152
0, 4, 121, 4.77881383895874
0, 4, 122, 3.142330884933472
0, 4, 123, 6.790607929229736
0, 4, 124, 5.710865020751953
0, 4, 125, 8.638068199157715
0, 4, 126, 5.052070140838623
0, 4, 127, 5.206856727600098
0, 5, 0, 3.464008808135986
0, 5, 1, 3.722623825073242
0, 5, 2, 4.450578212738037
0, 5, 3, 4.966774940490723
0, 5, 4, 4.011507034301758
0, 5, 5, 9.814300537109375
0, 5, 6, 5.662553310394287
0, 5, 7, 5.076042652130127
0, 5, 8, 4.16065502166748
0, 5, 9, 6.877193927764893
0, 5, 10, 7.388011932373047
0, 5, 11, 8.545608520507812
0, 5, 12, 10.73272705078125
0, 5, 13, 5.911829471588135
0, 5, 14, 12.2441930770874
0, 5, 15, 17.84042739868164
0, 5, 16, 15.93473529815674
0, 5, 17, 28.20089912414551
0, 5, 18, 136.6695098876953
0, 5, 19, 287.0196228027344
0, 5, 20, 308.4459838867188
0, 5, 21, 317.8336181640625
0, 5, 22, 276.0760498046875
0, 5, 23, 309.2859191894531
0, 5, 24, 302.6005249023438
0, 5, 25, 289.977783203125
0, 5, 26, 294.0378723144531
0, 5, 27, 322.7184448242188
0, 5, 28, 303.0316772460938
0, 5, 29, 299.2829895019531
0, 5, 30, 322.3740844726562
0, 5, 31, 285.8167114257812
0, 5, 32, 304.9107971191406
0, 5, 33, 305.3927307128906
0, 5, 34, 297.1830444335938
0, 5, 35, 310.3468627929688
0, 5, 36, 271.2794494628906
0, 5, 37, 284.9501647949219
0, 5, 38, 292.1611328125
0, 5, 39, 314.228759765625
0, 5, 40, 307.3514404296875
0, 5, 41, 272.6514587402344
0, 5, 42, 304.70068359375
0, 5, 43, 313.4729919433594
0, 5, 44, 291.10791015625
0, 5, 45, 301.9049682617188
0, 5, 46, 264.8505249023438
0, 5, 47, 281.0104370117188
0, 5, 48, 294.5453491210938
0, 5, 49, 288.1356201171875
0, 5, 50, 294.3388061523438
0, 5, 51, 278.5401916503906
0, 5, 52, 269.4138488769531
0, 5, 53, 285.6026306152344
0, 5, 54, 296.3533020019531
0, 5, 55, 343.3733520507812
0, 5, 56, 306.205078125
0, 5, 57, 307.8095397949219
0, 5, 58, 313.8821411132812
0, 5, 59, 302.0173034667969
0, 5, 60, 307.6321105957031
0, 5, 61, 281.3812866210938
0, 5, 62, 325.5838317871094
0, 5, 63, 293.1878356933594
0, 5, 64, 328.0331726074219
0, 5, 65, 308.6102905273438
0, 5, 66, 325.9095153808594
0, 5, 67, 311.8702697753906
0, 5, 68, 309.7058715820312
0, 5, 69, 310.3685913085938
0, 5, 70, 301.9890747070312
0, 5, 71, 272.9404907226562
0, 5, 72, 309.8534545898438
0, 5, 73, 301.8385009765625
0, 5, 74, 294.3246765136719
0, 5, 75, 293.0410766601562
0, 5, 76, 285.11474609375
0, 5, 77, 299.1742553710938
0, 5, 78, 317.3203430175781
0, 5, 79, 307.6015930175781
0, 5, 80, 294.5908203125
0, 5, 81, 325.2809143066406
0, 5, 82, 322.4345092773438
0, 5, 83, 282.3143005371094
0, 5, 84, 301.7710876464844
0, 5, 85, 272.2940979003906
0, 5, 86, 326.9232177734375
0, 5, 87, 283.98193359375
0, 5, 88, 313.5914306640625
0, 5, 89, 306.6314086914062
0, 5, 90, 314.8230590820312
0, 5, 91, 313.9814758300781
0, 5, 92, 295.6143798828125
0, 5, 93, 322.4575805664062
0, 5, 94, 309.0341491699219
0, 5, 95, 296.5960083007812
0, 5, 96, 298.56103515625
0, 5, 97, 295.9495544433594
0, 5, 98, 318.4947814941406
0, 5, 99, 301.9051513671875
0, 5, 100, 291.0429992675781
0, 5, 101, 305.3305053710938
0, 5, 102, 292.1670837402344
0, 5, 103, 315.0830383300781
0, 5, 104, 301.9925842285156
0, 5, 105, 293.3334655761719
0, 5, 106, 280.7822265625
0, 5, 107, 291.50439453125
0, 5, 108, 265.0748291015625
0, 5, 109, 159.5352325439453
0, 5, 110, 40.22294616699219
0, 5, 111, 24.01755332946777
0, 5, 112, 15.49520111083984
0, 5, 113, 15.75432395935059
0, 5, 114, 13.2821102142334
0, 5, 115, 6.938133716583252
0, 5, 116, 8.789112091064453
0, 5, 117, 6.948634147644043
0, 5, 118, 13.19468021392822
0, 5, 119, 4.081613540649414
0, 5, 120, 6.743818759918213
0, 5, 121, 5.630462169647217
0, 5, 122, 8.701479911804199
0, 5, 123, 5.663182735443115
0, 5, 124, 5.917253017425537
0, 5, 125, 6.146060943603516
0, 5, 126, 4.896134376525879
0, 5, 127, 3.055751800537109
0, 6, 0, 4.474151611328125
0, 6, 1, 2.769462108612061
0, 6, 2, 4.601500988006592
0, 6, 3, 7.919302463531494
0, 6, 4, 4.597551822662354
0, 6, 5, 4.891415596008301
0, 6, 6, 7.388421535491943
0, 6, 7, 5.598257541656494
0, 6, 8, 7.903415203094482
0, 6, 9, 4.872965812683105
0, 6, 10, 7.470406055450439
0, 6, 11, 8.710044860839844
0, 6, 12, 9.923256874084473
0, 6, 13, 14.51820373535156
0, 6, 14, 11.23821830749512
0, 6, 15, 18.92963600158691
0, 6, 16, 28.44510459899902
0, 6, 17, 53.656005859375
0, 6, 18, 171.9400482177734
0, 6, 19, 276.1285705566406
0, 6, 20, 290.4891967773438
0, 6, 21, 313.7810668945312
0, 6, 22, 320.4044189453125
0, 6, 23, 308.9421691894531
0, 6, 24, 315.1349182128906
0, 6, 25, 315.3446960449219
0, 6, 26, 319.80078125
0, 6, 27, 331.5096130371094
0, 6, 28, 296.3760070800781
0, 6, 29, 334.402099609375
0, 6, 30, 283.8124694824219
0, 6, 31, 286.5223999023438
0, 6, 32, 339.5973205566406
0, 6, 33, 299.6625366210938
0, 6, 34, 340.4100341796875
0, 6, 35, 322.1744384765625
0, 6, 36, 274.4393310546875
0, 6, 37, 289.003173828125
0, 6, 38, 311.4141845703125
0, 6, 39, 298.1423950195312
0, 6, 40, 284.5727233886719
0, 6, 41, 295.8693237304688
0, 6, 42, 305.9949340820312
0, 6, 43, 288.8528442382812
0, 6, 44, 280.148193359375
0, 6, 45, 319.6338806152344
0, 6, 46, 301.2803039550781
0, 6, 47, 334.7959289550781
0, 6, 48, 290.0016784667969
0, 6, 49, 312.2492370605469
0, 6, 50, 328.0376281738281
0, 6, 51, 310.2586364746094
0, 6, 52, 321.5198364257812
0, 6, 53, 327.5831909179688
0, 6, 54, 303.3944702148438
0, 6, 55, 305.2625732421875
0, 6, 56, 293.2732543945312
0, 6, 57, 312.5789489746094
0, 6, 58, 261.2377014160156
0, 6, 59, 302.9556274414062
0, 6, 60, 313.6229553222656
0, 6, 61, 272.4851989746094
0, 6, 62, 337.3929138183594
0, 6, 63, 323.8869934082031
0, 6, 64, 291.1523742675781
0, 6, 65, 287.7799682617188
0, 6, 66, 305.0388488769531
0, 6, 67, 311.9660034179688
0, 6, 68, 296.0770568847656
0, 6, 69, 279.0864868164062
0, 6, 70, 274.0740051269531
0, 6, 71, 289.2238464355469
0, 6, 72, 309.0494995117188
0, 6, 73, 291.4414367675781
0, 6, 74, 331.2122497558594
0, 6, 75, 343.1114807128906
0, 6, 76, 298.048828125
0, 6, 77, 285.8279724121094
0, 6, 78, 276.82177734375
0, 6, 79, 292.7182006835938
0, 6, 80, 301.4850769042969
0, 6, 81, 314.908935546875
0, 6, 82, 321.3758239746094
0, 6, 83, 319.7126159667969
0, 6, 84, 296.7511596679688
0, 6, 85, 300.5130615234375
0, 6, 86, 331.2944641113281
0, 6, 87, 291.6921997070312
0, 6, 88, 307.6249694824219
0, 6, 89, 306.6357421875
0, 6, 90, 298.4546508789062
0, 6, 91, 314.3995056152344
0, 6, 92, 285.4467163085938
0, 6, 93, 295.7330017089844
0, 6, 94, 273.7582092285156
0, 6, 95, 301.7817077636719
0, 6, 96, 346.6621704101562
0, 6, 97, 306.9832458496094
0, 6, 98, 300.2973022460938
0, 6, 99, 272.4267578125
0, 6, 100, 308.0109252929688
0, 6, 101, 292.1898498535156
0, 6, 102, 307.2583312988281
0, 6, 103, 307.5406188964844
0, 6, 104, 291.9388732910156
0, 6, 105, 300.1860046386719
0, 6, 106, 307.3377990722656
0, 6, 107, 304.8526306152344
0, 6, 108, 265.7706298828125
0, 6, 109, 186.8963165283203
0, 6, 110, 53.64257431030273
0, 6, 111, 21.98207473754883
0, 6, 112, 12.45162200927734
0, 6, 113, 11.27999019622803
0, 6, 114, 12.11013984680176
0, 6, 115, 11.54174995422363
0, 6, 116, 9.226910591125488
0, 6, 117, 5.063085079193115
0, 6, 118, 7.567955493927002
0, 6, 119, 11.84749794006348
0, 6, 120, 6.206922054290771
0, 6, 121, 5.963347434997559
0, 6, 122, 5.164418697357178
0, 6, 123, 6.343969821929932
0, 6, 124, 5.608104228973389
0, 6, 125, 6.050346851348877
0, 6, 126, 5.065117835998535
0, 6, 127, 7.009117126464844
0, 7, 0, 5.213038921356201
0, 7, 1, 4.766241073608398
0, 7, 2, 5.135438919067383
0, 7, 3, 4.17761754989624
0, 7, 4, 3.487494945526123
0, 7, 5, 4.57012414932251
0, 7, 6, 5.373955726623535
0, 7, 7, 4.152982234954834
0, 7, 8, 6.374325275421143
0, 7, 9, 8.688082695007324
0, 7, 10, 7.460838317871094
0, 7, 11, 10.47236442565918
0, 7, 12, 11.78348064422607
0, 7, 13, 9.994165420532227
0, 7, 14, 10.68988513946533
0, 7, 15, 16.90331268310547
0, 7, 16, 25.56806945800781
0, 7, 17, 97.86467742919922
0, 7, 18, 220.2138824462891
0, 7, 19, 290.1502990722656
0, 7, 20, 295.7012329101562
0, 7, 21, 276.2323913574219
0, 7, 22, 300.4359130859375
0, 7, 23, 288.2879333496094
0, 7, 24, 315.2020874023438
0, 7, 25, 326.4703674316406
0, 7, 26, 277.3935852050781
0, 7, 27, 298.8295288085938
0, 7, 28, 325.5525207519531
0, 7, 29, 317.6613159179688
0, 7, 30, 300.8902587890625
0, 7, 31, 277.051513671875
0, 7, 32, 303.9031372070312
0, 7, 33, 262.1089782714844
0, 7, 34, 297.9067077636719
0, 7, 35, 320.7611389160156
0, 7, 36, 331.6286010742188
0, 7, 37, 324.1775512695312
0, 7, 38, 295.5304260253906
0, 7, 39, 305.4383544921875
0, 7, 40, 288.5585327148438
0, 7, 41, 272.3757019042969
0, 7, 42, 300.3272399902344
0, 7, 43, 275.7732238769531
0, 7, 44, 303.5812683105469
0, 7, 45, 295.1423950195312
0, 7, 46, 281.8058471679688
0, 7, 47, 329.7015991210938
0, 7, 48, 285.1593627929688
0, 7, 49, 301.5169982910156
0, 7, 50, 322.7265319824219
0, 7, 51, 298.3574523925781
0, 7, 52, 328.6778564453125
0, 7, 53, 315.5577392578125
0, 7, 54, 323.5840454101562
0, 7, 55, 306.9970397949219
0, 7, 56, 280.4509887695312
0, 7, 57, 284.9683532714844
0, 7, 58, 296.742919921875
0, 7, 59, 295.158935546875
0, 7, 60, 324.543701171875
0, 7, 61, 278.947509765625
0, 7, 62, 296.40576171875
0, 7, 63, 293.2717895507812
0, 7, 64, 309.138916015625
0, 7, 65, 329.6775207519531
0, 7, 66, 320.7599487304688
0, 7, 67, 301.0597839355469
0, 7, 68, 282.5583190917969
0, 7, 69, 295.2555541992188
0, 7, 70, 301.286865234375
0, 7, 71, 309.3525085449219
0, 7, 72, 285.6378173828125
0, 7, 73, 296.9074096679688
0, 7, 74, 344.7278442382812
0, 7, 75, 319.6308898925781
0, 7, 76, 324.0572814941406
0, 7, 77, 279.91943359375
0, 7, 78, 299.2783508300781
0, 7, 79, 297.6746826171875
0, 7, 80, 309.93603515625
0, 7, 81, 319.6700439453125
0, 7, 82, 330.4644165039062
0, 7, 83, 316.8091430664062
0, 7, 84, 310.60546875
0, 7, 85, 271.108642578125
0, 7, 86, 313.1591796875
0, 7, 87, 308.4876403808594
0, 7, 88, 307.116943359375
0, 7, 89, 293.1178283691406
0, 7, 90, 308.5744934082031
0, 7, 91, 316.6274108886719
0, 7, 92, 287.2098083496094
0, 7, 93, 307.4304504394531
0, 7, 94, 272.5408020019531
0, 7, 95, 295.6523742675781
0, 7, 96, 332.1192932128906
0, 7, 97, 294.3275146484375
0, 7, 98, 289.9740295410156
0, 7, 99, 310.9796142578125
0, 7, 100, 279.9086608886719
0, 7, 101, 274.5430908203125
0, 7, 102, 288.9196166992188
0, 7, 103, 293.4619140625
0, 7, 104, 275.7726745605469
0, 7, 105, 307.0290832519531
0, 7, 106, 320.6189880371094
0, 7, 107, 297.4695739746094
0, 7, 108, 273.8735656738281
0, 7, 109, 236.4565887451172
0, 7, 110, 98.16672515869141
0, 7, 111, 24.56534576416016
0, 7, 112, 12.70130157470703
0, 7, 113, 14.61686992645264
0, 7, 114, 13.59086894989014
0, 7, 115, 12.51508045196533
0, 7, 116, 9.093319892883301
0, 7, 117, 7.508194446563721
0, 7, 118, 7.272025585174561
0, 7, 119, 7.259854316711426
0, 7, 120, 5.627723217010498
0, 7, 121, 8.528915405273438
0, 7, 122, 5.740268707275391
0, 7, 123, 5.48500919342041
0, 7, 124, 2.712353944778442
0, 7, 125, 7.097830295562744
0, 7, 126, 6.812389373779297
0, 7, 127, 2.433014869689941
0, 8, 0, 6.823451042175293
0, 8, 1, 3.075344324111938
0, 8, 2, 2.88939380645752
0, 8, 3, 2.736877918243408
0, 8, 4, 3.944485664367676
0, 8, 5, 5.473404884338379
0, 8, 6, 3.661777496337891
0, 8, 7, 5.438426971435547
0, 8, 8, 7.407045364379883
0, 8, 9, 6.024672031402588
0, 8, 10, 8.182172775268555
0, 8, 11, 12.24196720123291
0, 8, 12, 12.55699348449707
0, 8, 13, 16.93227195739746
0, 8, 14, 13.41451168060303
0, 8, 15, 17.19644546508789
0, 8, 16, 32.57743072509766
0, 8, 17, 129.6627349853516
0, 8, 18, 243.1734313964844
0, 8, 19, 295.9843139648438
0, 8, 20, 286.5735473632812
0, 8, 21, 306.5966796875
0, 8, 22, 296.6837768554688
0, 8, 23, 274.4428100585938
0, 8, 24, 270.5457153320312
0, 8, 25, 275.8935241699219
0, 8, 26, 305.0983581542969
0, 8, 27, 310.3243713378906
0, 8, 28, 312.2337646484375
0, 8, 29, 320.9114074707031
0, 8, 30, 313.3782958984375
0, 8, 31, 303.1202697753906
0, 8, 32, 281.1632995605469
0, 8, 33, 293.4617309570312
0, 8, 34, 288.1156311035156
0, 8, 35, 281.0690307617188
0, 8, 36, 317.1933288574219
0, 8, 37, 340.0177612304688
0, 8, 38, 331.3278503417969
0, 8, 39, 283.2715454101562
