# TOPAS Version: 3.1.p3
# Parameter File: batch_inserts_266.txt
# Results for scorer Readout_Adipose
# Scored in component: MyBox
# X in 1 bin  of 0.75 cm
# Y in 512 bins of 0.0783984 cm
# Z in 128 bins of 0.078125 cm
# EnergyDeposit ( MeV ) : Sum   
0, 0, 0, 21.59050178527832
0, 0, 1, 21.90271186828613
0, 0, 2, 21.53888702392578
0, 0, 3, 22.50386238098145
0, 0, 4, 17.60116004943848
0, 0, 5, 23.03063774108887
0, 0, 6, 26.74374771118164
0, 0, 7, 35.57374954223633
0, 0, 8, 24.90768432617188
0, 0, 9, 19.63092231750488
0, 0, 10, 28.5069580078125
0, 0, 11, 32.02356719970703
0, 0, 12, 35.43027877807617
0, 0, 13, 30.69464111328125
0, 0, 14, 37.92981719970703
0, 0, 15, 47.09730911254883
0, 0, 16, 46.03886032104492
0, 0, 17, 46.52914810180664
0, 0, 18, 74.60971832275391
0, 0, 19, 193.5074310302734
0, 0, 20, 703.2714233398438
0, 0, 21, 1189.059326171875
0, 0, 22, 1251.061889648438
0, 0, 23, 1273.929809570312
0, 0, 24, 1279.701904296875
0, 0, 25, 1357.32861328125
0, 0, 26, 1271.89306640625
0, 0, 27, 1278.131225585938
0, 0, 28, 1323.440551757812
0, 0, 29, 1269.179077148438
0, 0, 30, 1269.664916992188
0, 0, 31, 1275.643310546875
0, 0, 32, 1264.351196289062
0, 0, 33, 1240.637939453125
0, 0, 34, 1328.510375976562
0, 0, 35, 1304.220947265625
0, 0, 36, 1246.916625976562
0, 0, 37, 1281.09716796875
0, 0, 38, 1248.629638671875
0, 0, 39, 1246.150268554688
0, 0, 40, 1225.606323242188
0, 0, 41, 1267.576049804688
0, 0, 42, 1250.2763671875
0, 0, 43, 1268.530639648438
0, 0, 44, 1224.938354492188
0, 0, 45, 1289.267333984375
0, 0, 46, 1265.986572265625
0, 0, 47, 1239.586547851562
0, 0, 48, 1278.187622070312
0, 0, 49, 1289.428833007812
0, 0, 50, 1312.330688476562
0, 0, 51, 1265.32080078125
0, 0, 52, 1357.118286132812
0, 0, 53, 1329.898559570312
0, 0, 54, 1301.3173828125
0, 0, 55, 1235.457397460938
0, 0, 56, 1318.910522460938
0, 0, 57, 1294.22265625
0, 0, 58, 1256.936279296875
0, 0, 59, 1333.052490234375
0, 0, 60, 1322.342163085938
0, 0, 61, 1261.726440429688
0, 0, 62, 1239.163452148438
0, 0, 63, 1273.054077148438
0, 0, 64, 1332.6630859375
0, 0, 65, 1286.764526367188
0, 0, 66, 1315.494506835938
0, 0, 67, 1220.156982421875
0, 0, 68, 1311.039184570312
0, 0, 69, 1330.458862304688
0, 0, 70, 1342.98095703125
0, 0, 71, 1287.1357421875
0, 0, 72, 1313.87548828125
0, 0, 73, 1235.869262695312
0, 0, 74, 1291.0947265625
0, 0, 75, 1296.391235351562
0, 0, 76, 1256.546875
0, 0, 77, 1288.048217773438
0, 0, 78, 1315.6982421875
0, 0, 79, 1330.12890625
0, 0, 80, 1266.469604492188
0, 0, 81, 1320.453491210938
0, 0, 82, 1285.158203125
0, 0, 83, 1292.13671875
0, 0, 84, 1331.2314453125
0, 0, 85, 1229.803588867188
0, 0, 86, 1267.887939453125
0, 0, 87, 1248.159301757812
0, 0, 88, 1255.520141601562
0, 0, 89, 1329.119873046875
0, 0, 90, 1277.571533203125
0, 0, 91, 1355.581298828125
0, 0, 92, 1297.870239257812
0, 0, 93, 1272.861206054688
0, 0, 94, 1241.763427734375
0, 0, 95, 1329.432250976562
0, 0, 96, 1288.751586914062
0, 0, 97, 1329.266357421875
0, 0, 98, 1253.155151367188
0, 0, 99, 1247.909301757812
0, 0, 100, 1290.8486328125
0, 0, 101, 1316.725463867188
0, 0, 102, 1233.807495117188
0, 0, 103, 1321.5419921875
0, 0, 104, 1261.14453125
0, 0, 105, 1263.029296875
0, 0, 106, 1205.626831054688
0, 0, 107, 782.8203125
0, 0, 108, 196.0482330322266
0, 0, 109, 68.02634429931641
0, 0, 110, 61.75818252563477
0, 0, 111, 40.76228713989258
0, 0, 112, 35.07609939575195
0, 0, 113, 34.59669876098633
0, 0, 114, 31.88034820556641
0, 0, 115, 31.64120292663574
0, 0, 116, 28.56123542785645
0, 0, 117, 30.81450653076172
0, 0, 118, 26.77839279174805
0, 0, 119, 19.52677536010742
0, 0, 120, 24.14943885803223
0, 0, 121, 29.59589958190918
0, 0, 122, 26.0694751739502
0, 0, 123, 18.8739013671875
0, 0, 124, 20.22926712036133
0, 0, 125, 22.41707611083984
0, 0, 126, 21.7613468170166
0, 0, 127, 20.24169540405273
0, 1, 0, 25.44236755371094
0, 1, 1, 22.9207935333252
0, 1, 2, 23.9122257232666
0, 1, 3, 27.64712333679199
0, 1, 4, 27.24943161010742
0, 1, 5, 27.37942504882812
0, 1, 6, 22.80733108520508
0, 1, 7, 26.43169021606445
0, 1, 8, 35.15553283691406
0, 1, 9, 35.38946533203125
0, 1, 10, 36.01408004760742
0, 1, 11, 39.28182983398438
0, 1, 12, 37.17425155639648
0, 1, 13, 45.41542053222656
0, 1, 14, 39.14008712768555
0, 1, 15, 53.01868438720703
0, 1, 16, 58.23301315307617
0, 1, 17, 62.73567199707031
0, 1, 18, 98.39009857177734
0, 1, 19, 401.2365112304688
0, 1, 20, 1042.830200195312
0, 1, 21, 1370.465698242188
0, 1, 22, 1476.766723632812
0, 1, 23, 1461.447265625
0, 1, 24, 1448.880004882812
0, 1, 25, 1419.115600585938
0, 1, 26, 1472.783081054688
0, 1, 27, 1460.904418945312
0, 1, 28, 1489.875244140625
0, 1, 29, 1474.39599609375
0, 1, 30, 1511.7744140625
0, 1, 31, 1482.689331054688
0, 1, 32, 1408.505737304688
0, 1, 33, 1497.269653320312
0, 1, 34, 1498.440795898438
0, 1, 35, 1458.79931640625
0, 1, 36, 1491.171752929688
0, 1, 37, 1409.802612304688
0, 1, 38, 1395.555908203125
0, 1, 39, 1525.716552734375
0, 1, 40, 1459.170654296875
0, 1, 41, 1488.396484375
0, 1, 42, 1498.457885742188
0, 1, 43, 1504.033813476562
0, 1, 44, 1449.666259765625
0, 1, 45, 1486.8447265625
0, 1, 46, 1420.716064453125
0, 1, 47, 1435.97705078125
0, 1, 48, 1429.22607421875
0, 1, 49, 1483.791870117188
0, 1, 50, 1443.019287109375
0, 1, 51, 1473.7197265625
0, 1, 52, 1475.983032226562
0, 1, 53, 1469.0888671875
0, 1, 54, 1508.78466796875
0, 1, 55, 1504.501342773438
0, 1, 56, 1469.875610351562
0, 1, 57, 1456.2197265625
0, 1, 58, 1429.7353515625
0, 1, 59, 1480.993041992188
0, 1, 60, 1464.704833984375
0, 1, 61, 1447.259521484375
0, 1, 62, 1452.240112304688
0, 1, 63, 1412.999145507812
0, 1, 64, 1480.93212890625
0, 1, 65, 1421.26220703125
0, 1, 66, 1438.11376953125
0, 1, 67, 1454.780395507812
0, 1, 68, 1387.662719726562
0, 1, 69, 1463.977661132812
0, 1, 70, 1431.024291992188
0, 1, 71, 1497.991333007812
0, 1, 72, 1433.642456054688
0, 1, 73, 1490.6123046875
0, 1, 74, 1468.92822265625
0, 1, 75, 1472.551513671875
0, 1, 76, 1454.31298828125
0, 1, 77, 1464.878295898438
0, 1, 78, 1452.3720703125
0, 1, 79, 1502.181518554688
0, 1, 80, 1451.325073242188
0, 1, 81, 1430.283569335938
0, 1, 82, 1474.561767578125
0, 1, 83, 1460.84228515625
0, 1, 84, 1536.212646484375
0, 1, 85, 1453.953491210938
0, 1, 86, 1403.534057617188
0, 1, 87, 1421.201904296875
0, 1, 88, 1471.474609375
0, 1, 89, 1474.498901367188
0, 1, 90, 1421.504760742188
0, 1, 91, 1464.860107421875
0, 1, 92, 1412.366088867188
0, 1, 93, 1461.381469726562
0, 1, 94, 1468.3037109375
0, 1, 95, 1422.342651367188
0, 1, 96, 1494.787353515625
0, 1, 97, 1514.7216796875
0, 1, 98, 1479.132080078125
0, 1, 99, 1419.73828125
0, 1, 100, 1450.8740234375
0, 1, 101, 1414.755981445312
0, 1, 102, 1439.106689453125
0, 1, 103, 1412.884155273438
0, 1, 104, 1410.657958984375
0, 1, 105, 1462.080444335938
0, 1, 106, 1367.512939453125
0, 1, 107, 1022.295715332031
0, 1, 108, 401.97021484375
0, 1, 109, 92.82391357421875
0, 1, 110, 62.58866119384766
0, 1, 111, 53.32575607299805
0, 1, 112, 44.49740219116211
0, 1, 113, 43.1762809753418
0, 1, 114, 38.42969131469727
0, 1, 115, 38.0103759765625
0, 1, 116, 38.06731414794922
0, 1, 117, 34.20383453369141
0, 1, 118, 36.70217132568359
0, 1, 119, 34.32472229003906
0, 1, 120, 29.55698013305664
0, 1, 121, 27.79747772216797
0, 1, 122, 21.09424209594727
0, 1, 123, 23.33054351806641
0, 1, 124, 31.29945373535156
0, 1, 125, 20.75610733032227
0, 1, 126, 17.08038520812988
0, 1, 127, 19.16465759277344
0, 2, 0, 21.25468063354492
0, 2, 1, 22.40612411499023
0, 2, 2, 26.55813217163086
0, 2, 3, 21.19994163513184
0, 2, 4, 18.87505531311035
0, 2, 5, 28.50865364074707
0, 2, 6, 27.77669525146484
0, 2, 7, 19.74472045898438
0, 2, 8, 26.2003002166748
0, 2, 9, 30.28901100158691
0, 2, 10, 25.53248405456543
0, 2, 11, 31.13116836547852
0, 2, 12, 39.03273773193359
0, 2, 13, 47.96322250366211
0, 2, 14, 47.07289886474609
0, 2, 15, 52.86045837402344
0, 2, 16, 59.90467071533203
0, 2, 17, 79.80738067626953
0, 2, 18, 147.3526000976562
0, 2, 19, 605.5145263671875
0, 2, 20, 1282.130249023438
0, 2, 21, 1441.5146484375
0, 2, 22, 1455.79638671875
0, 2, 23, 1403.744995117188
0, 2, 24, 1441.5986328125
0, 2, 25, 1529.313232421875
0, 2, 26, 1555.424926757812
0, 2, 27, 1456.970458984375
0, 2, 28, 1458.747924804688
0, 2, 29, 1462.827392578125
0, 2, 30, 1466.029418945312
0, 2, 31, 1537.055297851562
0, 2, 32, 1515.051391601562
0, 2, 33, 1448.241333007812
0, 2, 34, 1473.379028320312
0, 2, 35, 1470.733520507812
0, 2, 36, 1525.93408203125
0, 2, 37, 1538.128540039062
0, 2, 38, 1505.688354492188
0, 2, 39, 1462.291259765625
0, 2, 40, 1502.104125976562
0, 2, 41, 1516.955078125
0, 2, 42, 1499.703369140625
0, 2, 43, 1550.162841796875
0, 2, 44, 1460.181762695312
0, 2, 45, 1480.9453125
0, 2, 46, 1426.50048828125
0, 2, 47, 1450.473388671875
0, 2, 48, 1398.435791015625
0, 2, 49, 1464.38232421875
0, 2, 50, 1440.568725585938
0, 2, 51, 1444.175903320312
0, 2, 52, 1494.116577148438
0, 2, 53, 1530.40869140625
0, 2, 54, 1524.275756835938
0, 2, 55, 1491.616455078125
0, 2, 56, 1460.534301757812
0, 2, 57, 1411.2529296875
0, 2, 58, 1450.506591796875
0, 2, 59, 1449.950927734375
0, 2, 60, 1479.017944335938
0, 2, 61, 1447.738159179688
0, 2, 62, 1467.246704101562
0, 2, 63, 1506.30126953125
0, 2, 64, 1459.8896484375
0, 2, 65, 1430.184814453125
0, 2, 66, 1489.048706054688
0, 2, 67, 1505.349609375
0, 2, 68, 1540.660278320312
0, 2, 69, 1536.028564453125
0, 2, 70, 1512.673217773438
0, 2, 71, 1464.969970703125
0, 2, 72, 1519.0771484375
0, 2, 73, 1520.800048828125
0, 2, 74, 1496.012939453125
0, 2, 75, 1501.929077148438
0, 2, 76, 1446.564331054688
0, 2, 77, 1507.095947265625
0, 2, 78, 1429.380249023438
0, 2, 79, 1542.78759765625
0, 2, 80, 1485.992797851562
0, 2, 81, 1461.52099609375
0, 2, 82, 1554.966186523438
0, 2, 83, 1515.508544921875
0, 2, 84, 1488.604736328125
0, 2, 85, 1518.422729492188
0, 2, 86, 1541.343383789062
0, 2, 87, 1485.099853515625
0, 2, 88, 1536.659423828125
0, 2, 89, 1465.678955078125
0, 2, 90, 1430.14306640625
0, 2, 91, 1404.825805664062
0, 2, 92, 1483.453369140625
0, 2, 93, 1497.182495117188
0, 2, 94, 1449.500854492188
0, 2, 95, 1542.994384765625
0, 2, 96, 1516.508911132812
0, 2, 97, 1452.89697265625
0, 2, 98, 1464.646606445312
0, 2, 99, 1405.558227539062
0, 2, 100, 1474.110961914062
0, 2, 101, 1478.689331054688
0, 2, 102, 1465.416748046875
0, 2, 103, 1389.0703125
0, 2, 104, 1407.325439453125
0, 2, 105, 1394.716918945312
0, 2, 106, 1456.837768554688
0, 2, 107, 1277.579711914062
0, 2, 108, 625.0899658203125
0, 2, 109, 173.6534423828125
0, 2, 110, 68.77895355224609
0, 2, 111, 64.07054901123047
0, 2, 112, 46.68830871582031
0, 2, 113, 44.26449966430664
0, 2, 114, 38.3991584777832
0, 2, 115, 40.3103141784668
0, 2, 116, 32.07590866088867
0, 2, 117, 31.3197135925293
0, 2, 118, 26.36974716186523
0, 2, 119, 32.85260772705078
0, 2, 120, 33.69069290161133
0, 2, 121, 16.58777809143066
0, 2, 122, 26.62358856201172
0, 2, 123, 24.19280433654785
0, 2, 124, 25.23088645935059
0, 2, 125, 30.37553405761719
0, 2, 126, 20.24726295471191
0, 2, 127, 23.61687850952148
0, 3, 0, 16.52828788757324
0, 3, 1, 22.07735252380371
0, 3, 2, 28.29666519165039
0, 3, 3, 20.89119720458984
0, 3, 4, 20.88775062561035
0, 3, 5, 24.94642448425293
0, 3, 6, 33.61626815795898
0, 3, 7, 30.75418853759766
0, 3, 8, 29.2928581237793
0, 3, 9, 27.12276649475098
0, 3, 10, 35.34857559204102
0, 3, 11, 32.81594467163086
0, 3, 12, 47.20035552978516
0, 3, 13, 52.16146850585938
0, 3, 14, 56.71081924438477
0, 3, 15, 58.39339065551758
0, 3, 16, 65.61861419677734
0, 3, 17, 89.0001220703125
0, 3, 18, 240.7095642089844
0, 3, 19, 879.373291015625
0, 3, 20, 1390.26611328125
0, 3, 21, 1507.79638671875
0, 3, 22, 1461.463623046875
0, 3, 23, 1454.643798828125
0, 3, 24, 1436.902709960938
0, 3, 25, 1464.09375
0, 3, 26, 1493.045166015625
0, 3, 27, 1472.42333984375
0, 3, 28, 1489.347778320312
0, 3, 29, 1546.561645507812
0, 3, 30, 1575.697509765625
0, 3, 31, 1508.639038085938
0, 3, 32, 1549.245971679688
0, 3, 33, 1540.850219726562
0, 3, 34, 1487.34326171875
0, 3, 35, 1467.742797851562
0, 3, 36, 1449.22216796875
0, 3, 37, 1516.217041015625
0, 3, 38, 1515.358764648438
0, 3, 39, 1440.259033203125
0, 3, 40, 1443.289916992188
0, 3, 41, 1562.036376953125
0, 3, 42, 1461.256958007812
0, 3, 43, 1458.8388671875
0, 3, 44, 1451.065185546875
0, 3, 45, 1508.930297851562
0, 3, 46, 1515.547973632812
0, 3, 47, 1439.589965820312
0, 3, 48, 1506.822509765625
0, 3, 49, 1451.584838867188
0, 3, 50, 1492.604370117188
0, 3, 51, 1538.731567382812
0, 3, 52, 1535.271728515625
0, 3, 53, 1464.319458007812
0, 3, 54, 1540.939575195312
0, 3, 55, 1503.092163085938
0, 3, 56, 1441.430541992188
0, 3, 57, 1501.995239257812
0, 3, 58, 1511.50634765625
0, 3, 59, 1512.122680664062
0, 3, 60, 1531.976318359375
0, 3, 61, 1481.102416992188
0, 3, 62, 1494.95458984375
0, 3, 63, 1493.893432617188
0, 3, 64, 1500.125122070312
0, 3, 65, 1516.963745117188
0, 3, 66, 1555.405517578125
0, 3, 67, 1544.325805664062
0, 3, 68, 1449.533447265625
0, 3, 69, 1462.049560546875
0, 3, 70, 1387.229370117188
0, 3, 71, 1460.051391601562
0, 3, 72, 1549.718139648438
0, 3, 73, 1497.670532226562
0, 3, 74, 1466.628051757812
0, 3, 75, 1464.730346679688
0, 3, 76, 1574.726318359375
0, 3, 77, 1540.62841796875
0, 3, 78, 1426.99462890625
0, 3, 79, 1495.370361328125
0, 3, 80, 1461.93505859375
0, 3, 81, 1469.258666992188
0, 3, 82, 1552.82861328125
0, 3, 83, 1509.045776367188
0, 3, 84, 1559.486206054688
0, 3, 85, 1476.054565429688
0, 3, 86, 1526.202514648438
0, 3, 87, 1547.033935546875
0, 3, 88, 1458.3955078125
0, 3, 89, 1447.140869140625
0, 3, 90, 1452.98095703125
0, 3, 91, 1416.698486328125
0, 3, 92, 1512.471435546875
0, 3, 93, 1501.392456054688
0, 3, 94, 1513.332885742188
0, 3, 95, 1543.634521484375
0, 3, 96, 1517.687866210938
0, 3, 97, 1466.048950195312
0, 3, 98, 1431.487670898438
0, 3, 99, 1466.73046875
0, 3, 100, 1465.965576171875
0, 3, 101, 1475.3251953125
0, 3, 102, 1526.281982421875
0, 3, 103, 1552.177490234375
0, 3, 104, 1499.362182617188
0, 3, 105, 1516.967651367188
0, 3, 106, 1480.422119140625
0, 3, 107, 1340.372680664062
0, 3, 108, 879.3781127929688
0, 3, 109, 261.451904296875
0, 3, 110, 100.8433837890625
0, 3, 111, 64.4296875
0, 3, 112, 57.85705947875977
0, 3, 113, 58.02228546142578
0, 3, 114, 52.42439651489258
0, 3, 115, 55.60570907592773
0, 3, 116, 35.35686492919922
0, 3, 117, 40.87148284912109
0, 3, 118, 32.23074340820312
0, 3, 119, 28.57711219787598
0, 3, 120, 33.57913970947266
0, 3, 121, 21.54140663146973
0, 3, 122, 20.05664253234863
0, 3, 123, 23.75347137451172
0, 3, 124, 21.15230941772461
0, 3, 125, 25.81901741027832
0, 3, 126, 26.99497413635254
0, 3, 127, 17.60810279846191
0, 4, 0, 23.64081573486328
0, 4, 1, 23.7055835723877
0, 4, 2, 16.81650352478027
0, 4, 3, 21.5302562713623
0, 4, 4, 24.13233947753906
0, 4, 5, 31.1749095916748
0, 4, 6, 30.27899169921875
0, 4, 7, 31.44500160217285
0, 4, 8, 26.03495407104492
0, 4, 9, 35.57260894775391
0, 4, 10, 32.43215179443359
0, 4, 11, 37.70119094848633
0, 4, 12, 48.60628128051758
0, 4, 13, 54.02508163452148
0, 4, 14, 57.4387321472168
0, 4, 15, 61.4503059387207
0, 4, 16, 77.07340240478516
0, 4, 17, 117.9292144775391
0, 4, 18, 441.3558654785156
0, 4, 19, 1181.070556640625
0, 4, 20, 1443.9921875
0, 4, 21, 1420.896728515625
0, 4, 22, 1434.438354492188
0, 4, 23, 1447.891357421875
0, 4, 24, 1470.875366210938
0, 4, 25, 1409.249755859375
0, 4, 26, 1542.7587890625
0, 4, 27, 1543.676513671875
0, 4, 28, 1505.262573242188
0, 4, 29, 1518.275024414062
0, 4, 30, 1529.948364257812
0, 4, 31, 1572.390991210938
0, 4, 32, 1515.520141601562
0, 4, 33, 1490.682250976562
0, 4, 34, 1474.659912109375
0, 4, 35, 1563.333984375
0, 4, 36, 1509.626831054688
0, 4, 37, 1514.244995117188
0, 4, 38, 1532.141723632812
0, 4, 39, 1467.728271484375
0, 4, 40, 1513.630737304688
0, 4, 41, 1591.31396484375
0, 4, 42, 1569.592407226562
0, 4, 43, 1472.444458007812
0, 4, 44, 1495.169311523438
0, 4, 45, 1518.224243164062
0, 4, 46, 1469.298461914062
0, 4, 47, 1502.317626953125
0, 4, 48, 1530.609252929688
0, 4, 49, 1473.633666992188
0, 4, 50, 1520.443725585938
0, 4, 51, 1497.588134765625
0, 4, 52, 1493.286376953125
0, 4, 53, 1455.229858398438
0, 4, 54, 1445.3251953125
0, 4, 55, 1526.0859375
0, 4, 56, 1455.147583007812
0, 4, 57, 1499.264526367188
0, 4, 58, 1463.992553710938
0, 4, 59, 1460.8505859375
0, 4, 60, 1525.465454101562
0, 4, 61, 1500.193725585938
0, 4, 62, 1502.581787109375
0, 4, 63, 1540.373413085938
0, 4, 64, 1591.282470703125
0, 4, 65, 1422.798217773438
0, 4, 66, 1518.735473632812
0, 4, 67, 1515.917602539062
0, 4, 68, 1497.113403320312
0, 4, 69, 1470.653564453125
0, 4, 70, 1542.541259765625
0, 4, 71, 1519.49072265625
0, 4, 72, 1527.595703125
0, 4, 73, 1492.471069335938
0, 4, 74, 1486.618408203125
0, 4, 75, 1535.254272460938
0, 4, 76, 1482.867797851562
0, 4, 77, 1502.342041015625
0, 4, 78, 1503.597778320312
0, 4, 79, 1481.630126953125
0, 4, 80, 1516.29638671875
0, 4, 81, 1526.534423828125
0, 4, 82, 1565.305053710938
0, 4, 83, 1501.4716796875
0, 4, 84, 1538.460571289062
0, 4, 85, 1553.212768554688
0, 4, 86, 1525.124389648438
0, 4, 87, 1491.524291992188
0, 4, 88, 1514.956665039062
0, 4, 89, 1483.7607421875
0, 4, 90, 1549.49658203125
0, 4, 91, 1557.889770507812
0, 4, 92, 1495.004638671875
0, 4, 93, 1519.33984375
0, 4, 94, 1482.360107421875
0, 4, 95, 1509.525756835938
0, 4, 96, 1446.0185546875
0, 4, 97, 1413.5986328125
0, 4, 98, 1557.42724609375
0, 4, 99, 1514.7763671875
0, 4, 100, 1485.693115234375
0, 4, 101, 1449.6552734375
0, 4, 102, 1445.85693359375
0, 4, 103, 1514.975463867188
0, 4, 104, 1509.302612304688
0, 4, 105, 1553.313842773438
0, 4, 106, 1473.279541015625
0, 4, 107, 1454.62060546875
0, 4, 108, 1121.271728515625
0, 4, 109, 433.7169494628906
0, 4, 110, 96.61302185058594
0, 4, 111, 69.63711547851562
0, 4, 112, 60.37967681884766
0, 4, 113, 53.1289176940918
0, 4, 114, 51.60676574707031
0, 4, 115, 41.18685913085938
0, 4, 116, 37.34676361083984
0, 4, 117, 48.08682632446289
0, 4, 118, 40.22692108154297
0, 4, 119, 40.46657180786133
0, 4, 120, 31.74109268188477
0, 4, 121, 26.5549373626709
0, 4, 122, 30.66594505310059
0, 4, 123, 27.59586143493652
0, 4, 124, 18.84041023254395
0, 4, 125, 30.30883026123047
0, 4, 126, 24.48023414611816
0, 4, 127, 15.82423877716064
0, 5, 0, 23.71381378173828
0, 5, 1, 25.10323524475098
0, 5, 2, 25.74823951721191
0, 5, 3, 22.48540115356445
0, 5, 4, 22.87355422973633
0, 5, 5, 35.38277053833008
0, 5, 6, 32.08162307739258
0, 5, 7, 30.84865760803223
0, 5, 8, 33.92873764038086
0, 5, 9, 28.94782257080078
0, 5, 10, 35.33438110351562
0, 5, 11, 40.30150985717773
0, 5, 12, 38.72491455078125
0, 5, 13, 42.54428482055664
0, 5, 14, 61.40752410888672
0, 5, 15, 78.32133483886719
0, 5, 16, 78.99094390869141
0, 5, 17, 157.9058227539062
0, 5, 18, 670.1422729492188
0, 5, 19, 1348.836059570312
0, 5, 20, 1526.759521484375
0, 5, 21, 1493.368774414062
0, 5, 22, 1493.571533203125
0, 5, 23, 1531.796508789062
0, 5, 24, 1464.6982421875
0, 5, 25, 1429.865600585938
0, 5, 26, 1527.396118164062
0, 5, 27, 1535.01953125
0, 5, 28, 1489.33642578125
0, 5, 29, 1528.649047851562
0, 5, 30, 1492.787841796875
0, 5, 31, 1502.370849609375
0, 5, 32, 1591.644653320312
0, 5, 33, 1501.77099609375
0, 5, 34, 1484.949462890625
0, 5, 35, 1512.600830078125
0, 5, 36, 1440.671875
0, 5, 37, 1532.361450195312
0, 5, 38, 1549.598266601562
0, 5, 39, 1549.337524414062
0, 5, 40, 1498.811279296875
0, 5, 41, 1483.384643554688
0, 5, 42, 1546.591552734375
0, 5, 43, 1534.366088867188
0, 5, 44, 1547.261108398438
0, 5, 45, 1509.461547851562
0, 5, 46, 1489.858032226562
0, 5, 47, 1482.377197265625
0, 5, 48, 1498.350463867188
0, 5, 49, 1525.163208007812
0, 5, 50, 1497.543579101562
0, 5, 51, 1517.58349609375
0, 5, 52, 1429.0126953125
0, 5, 53, 1520.90966796875
0, 5, 54, 1516.659790039062
0, 5, 55, 1528.901123046875
0, 5, 56, 1485.052734375
0, 5, 57, 1540.364624023438
0, 5, 58, 1513.089111328125
0, 5, 59, 1487.171630859375
0, 5, 60, 1536.850219726562
0, 5, 61, 1449.815063476562
0, 5, 62, 1585.760864257812
0, 5, 63, 1435.014770507812
0, 5, 64, 1487.96240234375
0, 5, 65, 1463.241943359375
0, 5, 66, 1526.913940429688
0, 5, 67, 1562.337768554688
0, 5, 68, 1460.22900390625
0, 5, 69, 1479.681640625
0, 5, 70, 1490.109741210938
0, 5, 71, 1473.836303710938
0, 5, 72, 1540.892211914062
0, 5, 73, 1458.966186523438
0, 5, 74, 1492.994018554688
0, 5, 75, 1486.906616210938
0, 5, 76, 1479.050048828125
0, 5, 77, 1517.505004882812
0, 5, 78, 1531.690063476562
0, 5, 79, 1508.00537109375
0, 5, 80, 1524.952514648438
0, 5, 81, 1594.5166015625
0, 5, 82, 1522.321533203125
0, 5, 83, 1489.466918945312
0, 5, 84, 1528.8408203125
0, 5, 85, 1510.011840820312
0, 5, 86, 1549.435302734375
0, 5, 87, 1473.6708984375
0, 5, 88, 1496.480834960938
0, 5, 89, 1481.143676757812
0, 5, 90, 1483.180541992188
0, 5, 91, 1551.5947265625
0, 5, 92, 1479.38525390625
0, 5, 93, 1561.460083007812
0, 5, 94, 1513.732177734375
0, 5, 95, 1565.075317382812
0, 5, 96, 1500.93603515625
0, 5, 97, 1512.933471679688
0, 5, 98, 1507.051879882812
0, 5, 99, 1545.4619140625
0, 5, 100, 1429.477661132812
0, 5, 101, 1432.529174804688
0, 5, 102, 1515.462524414062
0, 5, 103, 1476.184204101562
0, 5, 104, 1460.496215820312
0, 5, 105, 1493.796752929688
0, 5, 106, 1458.565063476562
0, 5, 107, 1400.611572265625
0, 5, 108, 1287.514038085938
0, 5, 109, 718.3554077148438
0, 5, 110, 198.7351684570312
0, 5, 111, 97.50228881835938
0, 5, 112, 80.38458251953125
0, 5, 113, 64.87226867675781
0, 5, 114, 57.39197158813477
0, 5, 115, 53.57204437255859
0, 5, 116, 42.85034561157227
0, 5, 117, 37.71710586547852
0, 5, 118, 40.54640197753906
0, 5, 119, 23.63661575317383
0, 5, 120, 24.30867958068848
0, 5, 121, 27.62795257568359
0, 5, 122, 35.35007476806641
0, 5, 123, 27.92060661315918
0, 5, 124, 27.76609039306641
0, 5, 125, 24.93981742858887
0, 5, 126, 20.32564544677734
0, 5, 127, 19.56058502197266
0, 6, 0, 24.20090484619141
0, 6, 1, 33.3139533996582
0, 6, 2, 27.54060173034668
0, 6, 3, 28.38323402404785
0, 6, 4, 23.05595016479492
0, 6, 5, 27.7014045715332
0, 6, 6, 31.46565628051758
0, 6, 7, 28.8091983795166
0, 6, 8, 34.44231796264648
0, 6, 9, 31.7091178894043
0, 6, 10, 34.72792053222656
0, 6, 11, 35.99893951416016
0, 6, 12, 42.63970184326172
0, 6, 13, 54.99898529052734
0, 6, 14, 63.28525543212891
0, 6, 15, 81.17597961425781
0, 6, 16, 110.0930709838867
0, 6, 17, 296.3467407226562
0, 6, 18, 895.335205078125
0, 6, 19, 1374.638427734375
0, 6, 20, 1439.198608398438
0, 6, 21, 1525.629760742188
0, 6, 22, 1501.073486328125
0, 6, 23, 1533.31689453125
0, 6, 24, 1479.478759765625
0, 6, 25, 1528.500122070312
0, 6, 26, 1517.743896484375
0, 6, 27, 1521.1474609375
0, 6, 28, 1553.570678710938
0, 6, 29, 1571.427612304688
0, 6, 30, 1514.547241210938
0, 6, 31, 1497.074096679688
0, 6, 32, 1526.415649414062
0, 6, 33, 1491.882202148438
0, 6, 34, 1559.75048828125
0, 6, 35, 1503.554809570312
0, 6, 36, 1441.799438476562
0, 6, 37, 1548.43310546875
0, 6, 38, 1522.46142578125
0, 6, 39, 1520.572143554688
0, 6, 40, 1462.837646484375
0, 6, 41, 1439.327758789062
0, 6, 42, 1521.308471679688
0, 6, 43, 1489.088134765625
0, 6, 44, 1433.37109375
0, 6, 45, 1546.290283203125
0, 6, 46, 1555.323120117188
0, 6, 47, 1496.862915039062
0, 6, 48, 1524.009399414062
0, 6, 49, 1507.92138671875
0, 6, 50, 1578.512451171875
0, 6, 51, 1502.00732421875
0, 6, 52, 1562.58544921875
0, 6, 53, 1476.5751953125
0, 6, 54, 1502.530639648438
0, 6, 55, 1569.741943359375
0, 6, 56, 1526.42529296875
0, 6, 57, 1502.612670898438
0, 6, 58, 1461.8056640625
0, 6, 59, 1520.374267578125
0, 6, 60, 1468.086669921875
0, 6, 61, 1569.448852539062
0, 6, 62, 1551.075927734375
0, 6, 63, 1495.8505859375
0, 6, 64, 1410.093627929688
0, 6, 65, 1493.915649414062
0, 6, 66, 1507.498901367188
0, 6, 67, 1511.826904296875
0, 6, 68, 1547.392211914062
0, 6, 69, 1485.818603515625
0, 6, 70, 1522.26806640625
0, 6, 71, 1466.025512695312
0, 6, 72, 1593.24072265625
0, 6, 73, 1491.48193359375
0, 6, 74, 1560.997314453125
0, 6, 75, 1530.982421875
0, 6, 76, 1566.10302734375
0, 6, 77, 1504.737915039062
0, 6, 78, 1443.18408203125
0, 6, 79, 1554.933227539062
0, 6, 80, 1484.108764648438
0, 6, 81, 1484.42578125
0, 6, 82, 1504.194702148438
0, 6, 83, 1530.559326171875
0, 6, 84, 1524.6328125
0, 6, 85, 1534.595092773438
0, 6, 86, 1541.821899414062
0, 6, 87, 1570.52294921875
0, 6, 88, 1479.348754882812
0, 6, 89, 1565.50439453125
0, 6, 90, 1489.890991210938
0, 6, 91, 1539.79150390625
0, 6, 92, 1490.834838867188
0, 6, 93, 1496.144897460938
0, 6, 94, 1470.268188476562
0, 6, 95, 1510.160888671875
0, 6, 96, 1518.77490234375
0, 6, 97, 1503.290283203125
0, 6, 98, 1498.087158203125
0, 6, 99, 1478.785766601562
0, 6, 100, 1521.463134765625
0, 6, 101, 1516.48291015625
0, 6, 102, 1535.861450195312
0, 6, 103, 1498.0517578125
0, 6, 104, 1464.89794921875
0, 6, 105, 1485.07568359375
0, 6, 106, 1494.541870117188
0, 6, 107, 1506.4140625
0, 6, 108, 1407.529418945312
0, 6, 109, 925.2880249023438
0, 6, 110, 286.522216796875
0, 6, 111, 95.98698425292969
0, 6, 112, 82.75473022460938
0, 6, 113, 57.95981979370117
0, 6, 114, 56.99205017089844
0, 6, 115, 41.1231803894043
0, 6, 116, 44.333740234375
0, 6, 117, 34.70279693603516
0, 6, 118, 45.83316040039062
0, 6, 119, 33.54303359985352
0, 6, 120, 31.99008560180664
0, 6, 121, 30.77429389953613
0, 6, 122, 27.52348518371582
0, 6, 123, 29.83438873291016
0, 6, 124, 32.40956115722656
0, 6, 125, 31.78016662597656
0, 6, 126, 24.66901016235352
0, 6, 127, 19.86825370788574
0, 7, 0, 26.53890991210938
0, 7, 1, 25.58811569213867
0, 7, 2, 24.97940254211426
0, 7, 3, 26.25340843200684
0, 7, 4, 28.08012008666992
0, 7, 5, 39.05040740966797
0, 7, 6, 30.2849292755127
0, 7, 7, 36.17770385742188
0, 7, 8, 34.08247756958008
0, 7, 9, 31.48865127563477
0, 7, 10, 44.0488395690918
0, 7, 11, 47.02188491821289
0, 7, 12, 47.23649215698242
0, 7, 13, 57.25366592407227
0, 7, 14, 56.05264282226562
0, 7, 15, 80.5029296875
0, 7, 16, 134.4786224365234
0, 7, 17, 462.0943908691406
0, 7, 18, 1099.573974609375
0, 7, 19, 1498.943603515625
0, 7, 20, 1489.741821289062
0, 7, 21, 1365.723999023438
0, 7, 22, 1489.60546875
0, 7, 23, 1456.757080078125
0, 7, 24, 1511.3896484375
0, 7, 25, 1596.252197265625
0, 7, 26, 1517.219604492188
0, 7, 27, 1512.955200195312
0, 7, 28, 1545.708129882812
0, 7, 29, 1573.100341796875
0, 7, 30, 1548.558227539062
0, 7, 31, 1435.149780273438
0, 7, 32, 1540.569091796875
0, 7, 33, 1491.9912109375
0, 7, 34, 1479.6904296875
0, 7, 35, 1522.05126953125
0, 7, 36, 1476.533325195312
0, 7, 37, 1603.112182617188
0, 7, 38, 1504.986572265625
0, 7, 39, 1496.401245117188
0, 7, 40, 1547.413452148438
0, 7, 41, 1472.085327148438
0, 7, 42, 1492.25341796875
0, 7, 43, 1442.19775390625
0, 7, 44, 1490.394653320312
0, 7, 45, 1467.827026367188
0, 7, 46, 1516.250610351562
0, 7, 47, 1563.290405273438
0, 7, 48, 1521.383178710938
0, 7, 49, 1535.492431640625
0, 7, 50, 1512.088134765625
0, 7, 51, 1496.28271484375
0, 7, 52, 1516.975463867188
0, 7, 53, 1496.452392578125
0, 7, 54, 1586.819091796875
0, 7, 55, 1469.794555664062
0, 7, 56, 1549.734619140625
0, 7, 57, 1512.932983398438
0, 7, 58, 1551.32080078125
0, 7, 59, 1540.964477539062
0, 7, 60, 1550.796875
0, 7, 61, 1492.158325195312
0, 7, 62, 1431.472412109375
0, 7, 63, 1511.708251953125
0, 7, 64, 1549.980224609375
0, 7, 65, 1529.751220703125
0, 7, 66, 1538.699829101562
0, 7, 67, 1576.374877929688
0, 7, 68, 1533.207153320312
0, 7, 69, 1513.323486328125
0, 7, 70, 1496.663330078125
0, 7, 71, 1519.255249023438
0, 7, 72, 1527.825927734375
0, 7, 73, 1518.329833984375
0, 7, 74, 1578.828857421875
0, 7, 75, 1536.89208984375
0, 7, 76, 1557.851318359375
0, 7, 77, 1508.48974609375
0, 7, 78, 1512.748779296875
0, 7, 79, 1422.1376953125
0, 7, 80, 1491.4755859375
0, 7, 81, 1496.329833984375
0, 7, 82, 1530.762939453125
0, 7, 83, 1544.148559570312
0, 7, 84, 1585.099731445312
0, 7, 85, 1479.5361328125
0, 7, 86, 1505.828002929688
0, 7, 87, 1505.73193359375
0, 7, 88, 1502.576538085938
0, 7, 89, 1552.787231445312
0, 7, 90, 1520.33837890625
0, 7, 91, 1567.062866210938
0, 7, 92, 1530.298828125
0, 7, 93, 1547.144653320312
0, 7, 94, 1531.326293945312
0, 7, 95, 1504.426879882812
0, 7, 96, 1506.779907226562
0, 7, 97, 1434.505493164062
0, 7, 98, 1484.53857421875
0, 7, 99, 1527.658935546875
0, 7, 100, 1421.941284179688
0, 7, 101, 1467.794189453125
0, 7, 102, 1446.337524414062
0, 7, 103, 1429.663818359375
0, 7, 104, 1499.391479492188
0, 7, 105, 1525.791259765625
0, 7, 106, 1569.673706054688
0, 7, 107, 1483.349243164062
0, 7, 108, 1413.517822265625
0, 7, 109, 1144.713989257812
0, 7, 110, 474.2870483398438
0, 7, 111, 126.5393600463867
0, 7, 112, 77.28559112548828
0, 7, 113, 68.78777313232422
0, 7, 114, 56.77755737304688
0, 7, 115, 53.69720840454102
0, 7, 116, 47.72273635864258
0, 7, 117, 49.27138900756836
0, 7, 118, 40.21565246582031
0, 7, 119, 38.54354476928711
0, 7, 120, 20.89394760131836
0, 7, 121, 30.47622871398926
0, 7, 122, 35.58736419677734
0, 7, 123, 32.66015243530273
0, 7, 124, 35.29800796508789
0, 7, 125, 22.36606216430664
0, 7, 126, 26.37248992919922
0, 7, 127, 20.47725296020508
0, 8, 0, 17.39102554321289
0, 8, 1, 22.62883949279785
0, 8, 2, 28.98723602294922
0, 8, 3, 24.64660453796387
0, 8, 4, 25.28941345214844
0, 8, 5, 29.10077285766602
0, 8, 6, 30.28900909423828
0, 8, 7, 28.9725513458252
0, 8, 8, 34.39435577392578
0, 8, 9, 46.25423812866211
0, 8, 10, 39.95149993896484
0, 8, 11, 48.81048583984375
0, 8, 12, 55.88603973388672
0, 8, 13, 67.97950744628906
0, 8, 14, 71.77074432373047
0, 8, 15, 85.56349945068359
0, 8, 16, 168.7176361083984
0, 8, 17, 672.416259765625
0, 8, 18, 1283.071533203125
0, 8, 19, 1451.494750976562
0, 8, 20, 1422.942993164062
0, 8, 21, 1406.849975585938
0, 8, 22, 1488.720703125
0, 8, 23, 1479.36572265625
0, 8, 24, 1435.943969726562
0, 8, 25, 1462.850708007812
0, 8, 26, 1517.816284179688
0, 8, 27, 1519.758544921875
0, 8, 28, 1481.992797851562
0, 8, 29, 1503.216186523438
0, 8, 30, 1487.052490234375
0, 8, 31, 1538.384521484375
0, 8, 32, 1507.182006835938
0, 8, 33, 1481.496948242188
0, 8, 34, 1537.525146484375
0, 8, 35, 1438.690185546875
0, 8, 36, 1500.958374023438
0, 8, 37, 1555.275268554688
0, 8, 38, 1550.224243164062
0, 8, 39, 1492.442138671875
0, 8, 40, 1527.643310546875
0, 8, 41, 1481.932739257812
0, 8, 42, 1543.972778320312
0, 8, 43, 1432.889526367188
0, 8, 44, 1536.034423828125
0, 8, 45, 1510.346435546875
0, 8, 46, 1599.71728515625
