# TOPAS Version: 3.1.p3
# Parameter File: batch_inserts_282.txt
# Results for scorer Readout_Adipose
# Scored in component: MyBox
# X in 1 bin  of 0.75 cm
# Y in 512 bins of 0.0783984 cm
# Z in 128 bins of 0.078125 cm
# EnergyDeposit ( MeV ) : Sum   
0, 0, 0, 3.848909378051758
0, 0, 1, 2.64508581161499
0, 0, 2, 2.928364276885986
0, 0, 3, 2.545182943344116
0, 0, 4, 3.587033033370972
0, 0, 5, 1.543681383132935
0, 0, 6, 5.772771835327148
0, 0, 7, 9.002254486083984
0, 0, 8, 2.183232069015503
0, 0, 9, 4.067030906677246
0, 0, 10, 7.346774101257324
0, 0, 11, 5.942962169647217
0, 0, 12, 3.985727310180664
0, 0, 13, 6.409642219543457
0, 0, 14, 6.366757392883301
0, 0, 15, 8.919790267944336
0, 0, 16, 11.19364929199219
0, 0, 17, 8.761871337890625
0, 0, 18, 13.94431209564209
0, 0, 19, 43.77271270751953
0, 0, 20, 139.3972320556641
0, 0, 21, 223.3986663818359
0, 0, 22, 250.3323211669922
0, 0, 23, 256.7672119140625
0, 0, 24, 252.1734161376953
0, 0, 25, 259.6565246582031
0, 0, 26, 234.1757965087891
0, 0, 27, 237.9499969482422
0, 0, 28, 273.4777526855469
0, 0, 29, 253.0321197509766
0, 0, 30, 229.5438232421875
0, 0, 31, 244.3399353027344
0, 0, 32, 263.6974182128906
0, 0, 33, 263.3170776367188
0, 0, 34, 287.8602294921875
0, 0, 35, 267.4140625
0, 0, 36, 248.0922698974609
0, 0, 37, 253.15576171875
0, 0, 38, 268.903564453125
0, 0, 39, 228.8460845947266
0, 0, 40, 240.7871856689453
0, 0, 41, 267.3341369628906
0, 0, 42, 230.0645294189453
0, 0, 43, 259.4912109375
0, 0, 44, 252.7266845703125
0, 0, 45, 252.3706817626953
0, 0, 46, 244.6317291259766
0, 0, 47, 255.5537719726562
0, 0, 48, 269.2968444824219
0, 0, 49, 274.0086059570312
0, 0, 50, 251.2470092773438
0, 0, 51, 252.5621948242188
0, 0, 52, 273.6762084960938
0, 0, 53, 293.3813171386719
0, 0, 54, 242.5307312011719
0, 0, 55, 240.2070465087891
0, 0, 56, 277.2991333007812
0, 0, 57, 264.8295593261719
0, 0, 58, 248.9939880371094
0, 0, 59, 271.0296630859375
0, 0, 60, 235.0116271972656
0, 0, 61, 245.4551849365234
0, 0, 62, 256.1517028808594
0, 0, 63, 265.4775695800781
0, 0, 64, 256.2779235839844
0, 0, 65, 261.6291809082031
0, 0, 66, 275.9697265625
0, 0, 67, 246.9351959228516
0, 0, 68, 258.3104553222656
0, 0, 69, 261.6058959960938
0, 0, 70, 274.5049743652344
0, 0, 71, 238.2908935546875
0, 0, 72, 250.7407073974609
0, 0, 73, 261.7210083007812
0, 0, 74, 252.0071563720703
0, 0, 75, 242.0124664306641
0, 0, 76, 228.6067047119141
0, 0, 77, 260.4542236328125
0, 0, 78, 255.1881256103516
0, 0, 79, 278.6499328613281
0, 0, 80, 219.3038635253906
0, 0, 81, 266.7766723632812
0, 0, 82, 255.8264617919922
0, 0, 83, 244.7279510498047
0, 0, 84, 272.72802734375
0, 0, 85, 231.4038238525391
0, 0, 86, 253.103515625
0, 0, 87, 251.4560394287109
0, 0, 88, 259.9132690429688
0, 0, 89, 284.0537109375
0, 0, 90, 245.8023834228516
0, 0, 91, 281.3374328613281
0, 0, 92, 254.4000701904297
0, 0, 93, 248.4375457763672
0, 0, 94, 247.4641265869141
0, 0, 95, 247.4949951171875
0, 0, 96, 275.0107421875
0, 0, 97, 272.2248229980469
0, 0, 98, 275.0826721191406
0, 0, 99, 258.1696166992188
0, 0, 100, 259.1279907226562
0, 0, 101, 226.6896667480469
0, 0, 102, 231.3314056396484
0, 0, 103, 269.2359313964844
0, 0, 104, 254.3134155273438
0, 0, 105, 251.2385864257812
0, 0, 106, 244.9629974365234
0, 0, 107, 153.63623046875
0, 0, 108, 37.29960632324219
0, 0, 109, 13.03287601470947
0, 0, 110, 12.37411689758301
0, 0, 111, 10.49275398254395
0, 0, 112, 7.920025825500488
0, 0, 113, 5.871943473815918
0, 0, 114, 6.513414859771729
0, 0, 115, 4.685304641723633
0, 0, 116, 5.279273986816406
0, 0, 117, 6.425286769866943
0, 0, 118, 5.905645370483398
0, 0, 119, 4.74738073348999
0, 0, 120, 2.714122295379639
0, 0, 121, 3.57282018661499
0, 0, 122, 3.278637647628784
0, 0, 123, 2.187170028686523
0, 0, 124, 4.517109870910645
0, 0, 125, 3.387945890426636
0, 0, 126, 3.771190166473389
0, 0, 127, 5.736241817474365
0, 1, 0, 7.614092826843262
0, 1, 1, 2.444362878799438
0, 1, 2, 5.488165378570557
0, 1, 3, 0.8733301758766174
0, 1, 4, 4.371825218200684
0, 1, 5, 4.851540088653564
0, 1, 6, 5.328328609466553
0, 1, 7, 2.656846523284912
0, 1, 8, 7.465413570404053
0, 1, 9, 3.819944620132446
0, 1, 10, 8.768757820129395
0, 1, 11, 11.77695941925049
0, 1, 12, 8.532138824462891
0, 1, 13, 11.35571479797363
0, 1, 14, 7.583895683288574
0, 1, 15, 7.999839782714844
0, 1, 16, 13.20876026153564
0, 1, 17, 10.70382404327393
0, 1, 18, 19.62304306030273
0, 1, 19, 66.4140625
0, 1, 20, 198.1920928955078
0, 1, 21, 254.2139282226562
0, 1, 22, 296.2076416015625
0, 1, 23, 284.0948791503906
0, 1, 24, 279.9931945800781
0, 1, 25, 287.9007263183594
0, 1, 26, 268.539794921875
0, 1, 27, 306.0076599121094
0, 1, 28, 297.4854125976562
0, 1, 29, 295.1061096191406
0, 1, 30, 283.4810791015625
0, 1, 31, 290.9298706054688
0, 1, 32, 289.5630798339844
0, 1, 33, 297.2660522460938
0, 1, 34, 293.2880859375
0, 1, 35, 279.2384948730469
0, 1, 36, 307.0571594238281
0, 1, 37, 294.7203369140625
0, 1, 38, 278.3250122070312
0, 1, 39, 294.5841979980469
0, 1, 40, 266.501953125
0, 1, 41, 284.4439392089844
0, 1, 42, 289.76416015625
0, 1, 43, 334.13623046875
0, 1, 44, 278.3487243652344
0, 1, 45, 292.1632995605469
0, 1, 46, 258.9986877441406
0, 1, 47, 311.56494140625
0, 1, 48, 283.0342102050781
0, 1, 49, 304.7515869140625
0, 1, 50, 262.6578979492188
0, 1, 51, 272.4931030273438
0, 1, 52, 296.6668395996094
0, 1, 53, 306.0582580566406
0, 1, 54, 274.2975769042969
0, 1, 55, 292.1753845214844
0, 1, 56, 277.1253662109375
0, 1, 57, 299.1132507324219
0, 1, 58, 311.0355529785156
0, 1, 59, 292.6450805664062
0, 1, 60, 297.6850280761719
0, 1, 61, 274.7841796875
0, 1, 62, 308.8913269042969
0, 1, 63, 287.8127136230469
0, 1, 64, 289.57470703125
0, 1, 65, 294.4715270996094
0, 1, 66, 292.0488891601562
0, 1, 67, 291.7052001953125
0, 1, 68, 279.3263244628906
0, 1, 69, 282.0837707519531
0, 1, 70, 270.7276916503906
0, 1, 71, 276.2950744628906
0, 1, 72, 287.0108337402344
0, 1, 73, 303.1436767578125
0, 1, 74, 304.6691284179688
0, 1, 75, 292.4389038085938
0, 1, 76, 285.9938659667969
0, 1, 77, 292.4458923339844
0, 1, 78, 297.0627746582031
0, 1, 79, 300.0206909179688
0, 1, 80, 296.9697570800781
0, 1, 81, 299.9572448730469
0, 1, 82, 283.9242553710938
0, 1, 83, 332.3731689453125
0, 1, 84, 307.9641418457031
0, 1, 85, 252.7155303955078
0, 1, 86, 294.3649291992188
0, 1, 87, 291.0277709960938
0, 1, 88, 297.0899047851562
0, 1, 89, 290.6156311035156
0, 1, 90, 271.2478637695312
0, 1, 91, 317.5562438964844
0, 1, 92, 291.8823852539062
0, 1, 93, 287.6783447265625
0, 1, 94, 304.7373962402344
0, 1, 95, 283.3162536621094
0, 1, 96, 282.0453796386719
0, 1, 97, 303.6512145996094
0, 1, 98, 277.26220703125
0, 1, 99, 265.754638671875
0, 1, 100, 276.6221923828125
0, 1, 101, 281.0640563964844
0, 1, 102, 280.3425598144531
0, 1, 103, 284.4187927246094
0, 1, 104, 307.8287963867188
0, 1, 105, 296.4222717285156
0, 1, 106, 263.2311401367188
0, 1, 107, 191.7763519287109
0, 1, 108, 80.28441619873047
0, 1, 109, 22.48225021362305
0, 1, 110, 11.40118789672852
0, 1, 111, 8.697379112243652
0, 1, 112, 13.33246421813965
0, 1, 113, 4.806866645812988
0, 1, 114, 6.164005756378174
0, 1, 115, 6.785447120666504
0, 1, 116, 12.14074039459229
0, 1, 117, 6.435915946960449
0, 1, 118, 4.001519680023193
0, 1, 119, 9.459433555603027
0, 1, 120, 4.490764617919922
0, 1, 121, 4.297061443328857
0, 1, 122, 4.158307552337646
0, 1, 123, 4.553778171539307
0, 1, 124, 8.270196914672852
0, 1, 125, 2.962362289428711
0, 1, 126, 2.834125757217407
0, 1, 127, 2.835975408554077
0, 2, 0, 4.774982452392578
0, 2, 1, 4.233402252197266
0, 2, 2, 5.125162124633789
0, 2, 3, 3.336295366287231
0, 2, 4, 3.650992870330811
0, 2, 5, 1.698635101318359
0, 2, 6, 1.648630380630493
0, 2, 7, 3.787919998168945
0, 2, 8, 5.713161945343018
0, 2, 9, 4.894782066345215
0, 2, 10, 10.08089065551758
0, 2, 11, 7.310061931610107
0, 2, 12, 6.178504943847656
0, 2, 13, 9.454182624816895
0, 2, 14, 10.5695686340332
0, 2, 15, 8.262676239013672
0, 2, 16, 9.070475578308105
0, 2, 17, 19.31925582885742
0, 2, 18, 31.2132568359375
0, 2, 19, 118.1836318969727
0, 2, 20, 248.8853149414062
0, 2, 21, 270.7574462890625
0, 2, 22, 318.0599060058594
0, 2, 23, 303.0116271972656
0, 2, 24, 287.5955200195312
0, 2, 25, 302.93310546875
0, 2, 26, 295.8795471191406
0, 2, 27, 275.4992980957031
0, 2, 28, 273.0270080566406
0, 2, 29, 273.8659362792969
0, 2, 30, 290.8985900878906
0, 2, 31, 279.0127868652344
0, 2, 32, 294.8961181640625
0, 2, 33, 283.0296020507812
0, 2, 34, 332.0711364746094
0, 2, 35, 290.5084838867188
0, 2, 36, 302.5072021484375
0, 2, 37, 319.2545166015625
0, 2, 38, 314.8447570800781
0, 2, 39, 266.6982116699219
0, 2, 40, 307.1250915527344
0, 2, 41, 293.4400329589844
0, 2, 42, 303.5158996582031
0, 2, 43, 312.1635131835938
0, 2, 44, 312.3362121582031
0, 2, 45, 325.72802734375
0, 2, 46, 286.3369445800781
0, 2, 47, 302.20654296875
0, 2, 48, 282.1495971679688
0, 2, 49, 277.5350341796875
0, 2, 50, 295.2518310546875
0, 2, 51, 284.0456237792969
0, 2, 52, 275.011962890625
0, 2, 53, 288.2261657714844
0, 2, 54, 281.2225036621094
0, 2, 55, 276.3887329101562
0, 2, 56, 300.7771606445312
0, 2, 57, 290.51904296875
0, 2, 58, 300.7630310058594
0, 2, 59, 286.8844909667969
0, 2, 60, 319.1626892089844
0, 2, 61, 301.7122192382812
0, 2, 62, 313.025146484375
0, 2, 63, 303.0848693847656
0, 2, 64, 296.8326721191406
0, 2, 65, 317.0312805175781
0, 2, 66, 279.7696228027344
0, 2, 67, 289.5700378417969
0, 2, 68, 295.8373107910156
0, 2, 69, 312.3017883300781
0, 2, 70, 336.1582336425781
0, 2, 71, 285.3910827636719
0, 2, 72, 302.6472473144531
0, 2, 73, 312.6412048339844
0, 2, 74, 286.1600952148438
0, 2, 75, 304.3086853027344
0, 2, 76, 288.9779052734375
0, 2, 77, 299.4244995117188
0, 2, 78, 313.6158447265625
0, 2, 79, 310.0390625
0, 2, 80, 296.2359313964844
0, 2, 81, 281.9408874511719
0, 2, 82, 318.254638671875
0, 2, 83, 311.2919006347656
0, 2, 84, 288.2463073730469
0, 2, 85, 281.0777282714844
0, 2, 86, 324.4601745605469
0, 2, 87, 286.2625122070312
0, 2, 88, 279.2267150878906
0, 2, 89, 297.2673034667969
0, 2, 90, 295.2745666503906
0, 2, 91, 275.7492980957031
0, 2, 92, 304.6737976074219
0, 2, 93, 318.5765380859375
0, 2, 94, 290.3242797851562
0, 2, 95, 313.9499206542969
0, 2, 96, 315.5953369140625
0, 2, 97, 290.9622802734375
0, 2, 98, 294.4905700683594
0, 2, 99, 275.4632263183594
0, 2, 100, 305.2287902832031
0, 2, 101, 300.000732421875
0, 2, 102, 298.4510192871094
0, 2, 103, 292.7319030761719
0, 2, 104, 293.0330810546875
0, 2, 105, 275.1089477539062
0, 2, 106, 294.9778747558594
0, 2, 107, 271.8166809082031
0, 2, 108, 116.9434280395508
0, 2, 109, 32.01608657836914
0, 2, 110, 11.33791637420654
0, 2, 111, 11.21391201019287
0, 2, 112, 6.936047077178955
0, 2, 113, 10.13458442687988
0, 2, 114, 9.686923027038574
0, 2, 115, 8.382298469543457
0, 2, 116, 8.088970184326172
0, 2, 117, 7.151125907897949
0, 2, 118, 3.229753255844116
0, 2, 119, 5.088044166564941
0, 2, 120, 5.845892429351807
0, 2, 121, 1.761332154273987
0, 2, 122, 4.324674129486084
0, 2, 123, 5.767268180847168
0, 2, 124, 5.807352066040039
0, 2, 125, 4.718380928039551
0, 2, 126, 2.084301710128784
0, 2, 127, 5.87220573425293
0, 3, 0, 2.958155870437622
0, 3, 1, 3.478143215179443
0, 3, 2, 4.334154605865479
0, 3, 3, 3.196643590927124
0, 3, 4, 3.902723789215088
0, 3, 5, 6.512266635894775
0, 3, 6, 6.141772747039795
0, 3, 7, 7.098721981048584
0, 3, 8, 6.127392768859863
0, 3, 9, 5.229333400726318
0, 3, 10, 6.395159721374512
0, 3, 11, 3.737521886825562
0, 3, 12, 9.175854682922363
0, 3, 13, 16.02214241027832
0, 3, 14, 10.38960838317871
0, 3, 15, 15.43985748291016
0, 3, 16, 11.26912689208984
0, 3, 17, 20.19155502319336
0, 3, 18, 51.80025863647461
0, 3, 19, 175.3324432373047
0, 3, 20, 269.3660888671875
0, 3, 21, 272.0765991210938
0, 3, 22, 284.243896484375
0, 3, 23, 290.853759765625
0, 3, 24, 288.4108276367188
0, 3, 25, 271.0731506347656
0, 3, 26, 304.1106262207031
0, 3, 27, 292.5041809082031
0, 3, 28, 281.3602294921875
0, 3, 29, 338.0742492675781
0, 3, 30, 317.2220153808594
0, 3, 31, 285.8382568359375
0, 3, 32, 306.01220703125
0, 3, 33, 315.5457153320312
0, 3, 34, 321.4480590820312
0, 3, 35, 306.338134765625
0, 3, 36, 270.2547912597656
0, 3, 37, 317.6158752441406
0, 3, 38, 304.0596008300781
0, 3, 39, 286.0000305175781
0, 3, 40, 266.4969482421875
0, 3, 41, 298.696044921875
0, 3, 42, 288.5289001464844
0, 3, 43, 305.210693359375
0, 3, 44, 311.406982421875
0, 3, 45, 290.5443725585938
0, 3, 46, 326.1506652832031
0, 3, 47, 299.93115234375
0, 3, 48, 302.2184753417969
0, 3, 49, 275.2120056152344
0, 3, 50, 290.2829284667969
0, 3, 51, 277.6445007324219
0, 3, 52, 315.2608947753906
0, 3, 53, 288.9374694824219
0, 3, 54, 284.4421997070312
0, 3, 55, 282.5296630859375
0, 3, 56, 298.7653198242188
0, 3, 57, 288.5665283203125
0, 3, 58, 308.2568664550781
0, 3, 59, 297.4595336914062
0, 3, 60, 297.6476745605469
0, 3, 61, 264.447265625
0, 3, 62, 283.4488525390625
0, 3, 63, 306.97314453125
0, 3, 64, 316.3296813964844
0, 3, 65, 304.3427429199219
0, 3, 66, 313.4667663574219
0, 3, 67, 316.7637023925781
0, 3, 68, 278.7084350585938
0, 3, 69, 281.6483459472656
0, 3, 70, 286.9654235839844
0, 3, 71, 300.6690368652344
0, 3, 72, 270.065673828125
0, 3, 73, 307.6547546386719
0, 3, 74, 293.6302185058594
0, 3, 75, 291.4130554199219
0, 3, 76, 305.3235473632812
0, 3, 77, 314.6357116699219
0, 3, 78, 303.3768005371094
0, 3, 79, 282.3214416503906
0, 3, 80, 290.3843078613281
0, 3, 81, 310.2664794921875
0, 3, 82, 316.0361938476562
0, 3, 83, 300.5688781738281
0, 3, 84, 311.2671203613281
0, 3, 85, 292.7987365722656
0, 3, 86, 301.6582336425781
0, 3, 87, 299.246337890625
0, 3, 88, 298.8831176757812
0, 3, 89, 295.3939514160156
0, 3, 90, 275.6524963378906
0, 3, 91, 283.2503356933594
0, 3, 92, 303.0341491699219
0, 3, 93, 312.23779296875
0, 3, 94, 298.4775695800781
0, 3, 95, 336.6922302246094
0, 3, 96, 290.8690490722656
0, 3, 97, 284.5322265625
0, 3, 98, 279.4010620117188
0, 3, 99, 261.7708740234375
0, 3, 100, 283.9629821777344
0, 3, 101, 296.9722900390625
0, 3, 102, 275.77880859375
0, 3, 103, 320.0130310058594
0, 3, 104, 305.8235473632812
0, 3, 105, 287.4022521972656
0, 3, 106, 301.34423828125
0, 3, 107, 283.4531860351562
0, 3, 108, 169.6170501708984
0, 3, 109, 58.37305450439453
0, 3, 110, 18.38855743408203
0, 3, 111, 12.40153980255127
0, 3, 112, 11.53194713592529
0, 3, 113, 5.307116985321045
0, 3, 114, 9.399547576904297
0, 3, 115, 7.272493362426758
0, 3, 116, 6.538295745849609
0, 3, 117, 6.621221542358398
0, 3, 118, 5.671847820281982
0, 3, 119, 7.591646671295166
0, 3, 120, 5.152414321899414
0, 3, 121, 4.269819736480713
0, 3, 122, 4.44511604309082
0, 3, 123, 7.280271053314209
0, 3, 124, 2.600569009780884
0, 3, 125, 5.643378734588623
0, 3, 126, 4.56113338470459
0, 3, 127, 2.282602787017822
0, 4, 0, 3.873150110244751
0, 4, 1, 4.666253089904785
0, 4, 2, 2.519595384597778
0, 4, 3, 2.278258562088013
0, 4, 4, 6.282869815826416
0, 4, 5, 8.611486434936523
0, 4, 6, 5.951644420623779
0, 4, 7, 4.312220573425293
0, 4, 8, 2.966912031173706
0, 4, 9, 4.434046268463135
0, 4, 10, 6.382211208343506
0, 4, 11, 7.364669322967529
0, 4, 12, 5.450903415679932
0, 4, 13, 7.922221183776855
0, 4, 14, 12.26106071472168
0, 4, 15, 9.443572998046875
0, 4, 16, 14.50565814971924
0, 4, 17, 18.28384780883789
0, 4, 18, 95.26051330566406
0, 4, 19, 222.1205902099609
0, 4, 20, 285.386962890625
0, 4, 21, 272.7069091796875
0, 4, 22, 305.6502685546875
0, 4, 23, 269.1288146972656
0, 4, 24, 289.3560485839844
0, 4, 25, 272.8287048339844
0, 4, 26, 294.0595703125
0, 4, 27, 281.2287292480469
0, 4, 28, 306.8513793945312
0, 4, 29, 324.5325622558594
0, 4, 30, 309.3559265136719
0, 4, 31, 302.8481750488281
0, 4, 32, 280.9402160644531
0, 4, 33, 298.7581481933594
0, 4, 34, 296.6242980957031
0, 4, 35, 313.2040405273438
0, 4, 36, 298.0855407714844
0, 4, 37, 290.5933837890625
0, 4, 38, 298.3579406738281
0, 4, 39, 295.5429077148438
0, 4, 40, 302.2904357910156
0, 4, 41, 312.9093322753906
0, 4, 42, 329.044921875
0, 4, 43, 300.5026245117188
0, 4, 44, 319.8939208984375
0, 4, 45, 323.8851928710938
0, 4, 46, 309.3839721679688
0, 4, 47, 292.2940368652344
0, 4, 48, 297.50439453125
0, 4, 49, 278.0840759277344
0, 4, 50, 296.0133666992188
0, 4, 51, 317.2573852539062
0, 4, 52, 328.9326782226562
0, 4, 53, 305.505859375
0, 4, 54, 286.4970703125
0, 4, 55, 315.7628784179688
0, 4, 56, 286.6669921875
0, 4, 57, 310.9524536132812
0, 4, 58, 295.3825988769531
0, 4, 59, 307.3932189941406
0, 4, 60, 301.3833923339844
0, 4, 61, 315.1651611328125
0, 4, 62, 308.2552490234375
0, 4, 63, 300.5275268554688
0, 4, 64, 330.3709411621094
0, 4, 65, 315.4754333496094
0, 4, 66, 294.9768981933594
0, 4, 67, 285.4089965820312
0, 4, 68, 312.182861328125
0, 4, 69, 276.9677734375
0, 4, 70, 298.6009826660156
0, 4, 71, 322.2247924804688
0, 4, 72, 331.4090270996094
0, 4, 73, 300.7003784179688
0, 4, 74, 291.6047058105469
0, 4, 75, 288.8593139648438
0, 4, 76, 275.2714233398438
0, 4, 77, 279.265869140625
0, 4, 78, 308.3348999023438
0, 4, 79, 320.2316284179688
0, 4, 80, 314.6799926757812
0, 4, 81, 311.9890747070312
0, 4, 82, 298.0631408691406
0, 4, 83, 299.5999755859375
0, 4, 84, 291.7143859863281
0, 4, 85, 297.872314453125
0, 4, 86, 297.7561340332031
0, 4, 87, 285.0870361328125
0, 4, 88, 306.942138671875
0, 4, 89, 294.4002990722656
0, 4, 90, 332.3987426757812
0, 4, 91, 304.0448303222656
0, 4, 92, 288.5151672363281
0, 4, 93, 296.0003967285156
0, 4, 94, 292.6087036132812
0, 4, 95, 289.6807556152344
0, 4, 96, 324.02978515625
0, 4, 97, 273.2808837890625
0, 4, 98, 329.8926086425781
0, 4, 99, 314.8891906738281
0, 4, 100, 300.0730285644531
0, 4, 101, 257.7757873535156
0, 4, 102, 295.8341369628906
0, 4, 103, 318.0422668457031
0, 4, 104, 282.8171997070312
0, 4, 105, 311.2396545410156
0, 4, 106, 286.8661193847656
0, 4, 107, 295.2365417480469
0, 4, 108, 225.8992767333984
0, 4, 109, 80.50516510009766
0, 4, 110, 16.12016105651855
0, 4, 111, 13.02644157409668
0, 4, 112, 9.998604774475098
0, 4, 113, 11.16398429870605
0, 4, 114, 8.580511093139648
0, 4, 115, 9.537369728088379
0, 4, 116, 10.13939571380615
0, 4, 117, 7.504439830780029
0, 4, 118, 10.46796989440918
0, 4, 119, 9.280990600585938
0, 4, 120, 5.799980163574219
0, 4, 121, 5.228934288024902
0, 4, 122, 6.358876705169678
0, 4, 123, 6.712131023406982
0, 4, 124, 5.491998672485352
0, 4, 125, 8.983522415161133
0, 4, 126, 5.570295810699463
0, 4, 127, 2.451874494552612
0, 5, 0, 3.058660507202148
0, 5, 1, 4.160805702209473
0, 5, 2, 4.459439754486084
0, 5, 3, 3.539978504180908
0, 5, 4, 6.188252925872803
0, 5, 5, 4.660931587219238
0, 5, 6, 8.236385345458984
0, 5, 7, 4.9725341796875
0, 5, 8, 4.004700183868408
0, 5, 9, 5.394569873809814
0, 5, 10, 7.393705368041992
0, 5, 11, 7.820126533508301
0, 5, 12, 8.971877098083496
0, 5, 13, 4.381751537322998
0, 5, 14, 12.3016529083252
0, 5, 15, 16.61874961853027
0, 5, 16, 14.07539463043213
0, 5, 17, 29.83105087280273
0, 5, 18, 136.0973052978516
0, 5, 19, 286.3634948730469
0, 5, 20, 308.4891052246094
0, 5, 21, 318.9683837890625
0, 5, 22, 276.0951538085938
0, 5, 23, 313.4440002441406
0, 5, 24, 301.3724670410156
0, 5, 25, 288.8651733398438
0, 5, 26, 293.1552124023438
0, 5, 27, 322.0610046386719
0, 5, 28, 304.8530578613281
0, 5, 29, 298.4537658691406
0, 5, 30, 323.3027038574219
0, 5, 31, 286.1420288085938
0, 5, 32, 302.8618469238281
0, 5, 33, 303.5663757324219
0, 5, 34, 296.9252319335938
0, 5, 35, 309.7931213378906
0, 5, 36, 267.7434692382812
0, 5, 37, 282.8034973144531
0, 5, 38, 292.1329956054688
0, 5, 39, 313.9345397949219
0, 5, 40, 308.6065063476562
0, 5, 41, 273.8258361816406
0, 5, 42, 304.775390625
0, 5, 43, 314.7214660644531
0, 5, 44, 292.2099914550781
0, 5, 45, 301.3959350585938
0, 5, 46, 267.2298889160156
0, 5, 47, 279.7543334960938
0, 5, 48, 293.6563415527344
0, 5, 49, 287.5480346679688
0, 5, 50, 294.7630004882812
0, 5, 51, 283.5080261230469
0, 5, 52, 270.6776733398438
0, 5, 53, 282.6382446289062
0, 5, 54, 294.6838989257812
0, 5, 55, 346.4930725097656
0, 5, 56, 305.361083984375
0, 5, 57, 305.9788208007812
0, 5, 58, 312.4983520507812
0, 5, 59, 303.2140808105469
0, 5, 60, 307.0328979492188
0, 5, 61, 281.8340454101562
0, 5, 62, 326.2666625976562
0, 5, 63, 288.9844360351562
0, 5, 64, 321.0963439941406
0, 5, 65, 306.7453308105469
0, 5, 66, 327.232177734375
0, 5, 67, 313.9389953613281
0, 5, 68, 307.8668823242188
0, 5, 69, 310.8271179199219
0, 5, 70, 301.3336791992188
0, 5, 71, 272.2086791992188
0, 5, 72, 313.3774719238281
0, 5, 73, 302.8707885742188
0, 5, 74, 297.1567993164062
0, 5, 75, 294.1758422851562
0, 5, 76, 285.4303283691406
0, 5, 77, 300.1479187011719
0, 5, 78, 315.686767578125
0, 5, 79, 306.1757507324219
0, 5, 80, 295.0999450683594
0, 5, 81, 325.3868713378906
0, 5, 82, 325.1607971191406
0, 5, 83, 279.8695983886719
0, 5, 84, 305.5433654785156
0, 5, 85, 271.0848388671875
0, 5, 86, 324.3546752929688
0, 5, 87, 285.1850280761719
0, 5, 88, 313.5588989257812
0, 5, 89, 303.8197326660156
0, 5, 90, 317.75927734375
0, 5, 91, 313.0183410644531
0, 5, 92, 295.3635559082031
0, 5, 93, 321.3316040039062
0, 5, 94, 310.5369262695312
0, 5, 95, 299.4765625
0, 5, 96, 299.2145385742188
0, 5, 97, 297.1450500488281
0, 5, 98, 317.0340576171875
0, 5, 99, 303.6482849121094
0, 5, 100, 290.9322814941406
0, 5, 101, 306.428466796875
0, 5, 102, 291.7485656738281
0, 5, 103, 315.1806945800781
0, 5, 104, 300.8146057128906
0, 5, 105, 292.7113952636719
0, 5, 106, 283.1669006347656
0, 5, 107, 293.9324951171875
0, 5, 108, 265.3179626464844
0, 5, 109, 159.3880920410156
0, 5, 110, 39.33235549926758
0, 5, 111, 21.03479194641113
0, 5, 112, 17.3000545501709
0, 5, 113, 15.33745002746582
0, 5, 114, 14.62729930877686
0, 5, 115, 7.026601791381836
0, 5, 116, 9.063685417175293
0, 5, 117, 7.318272590637207
0, 5, 118, 15.57657909393311
0, 5, 119, 5.636251449584961
0, 5, 120, 4.882065296173096
0, 5, 121, 5.303087711334229
0, 5, 122, 4.708645820617676
0, 5, 123, 5.208128929138184
0, 5, 124, 6.747160911560059
0, 5, 125, 5.235294342041016
0, 5, 126, 7.053397178649902
0, 5, 127, 4.3108811378479
0, 6, 0, 5.772765636444092
0, 6, 1, 2.847214698791504
0, 6, 2, 6.046428203582764
0, 6, 3, 5.572402477264404
0, 6, 4, 2.173561334609985
0, 6, 5, 5.550732612609863
0, 6, 6, 5.745536804199219
0, 6, 7, 5.9334397315979
0, 6, 8, 8.841582298278809
0, 6, 9, 5.844440460205078
0, 6, 10, 6.951582908630371
0, 6, 11, 10.68871784210205
0, 6, 12, 9.40261173248291
0, 6, 13, 15.82466888427734
0, 6, 14, 10.42893600463867
0, 6, 15, 15.79444599151611
0, 6, 16, 28.32267761230469
0, 6, 17, 59.71402359008789
0, 6, 18, 174.8407897949219
0, 6, 19, 276.5001831054688
0, 6, 20, 290.49755859375
0, 6, 21, 313.4027709960938
0, 6, 22, 321.9333190917969
0, 6, 23, 305.1483764648438
0, 6, 24, 315.9642333984375
0, 6, 25, 315.3678894042969
0, 6, 26, 319.3985595703125
0, 6, 27, 329.9798583984375
0, 6, 28, 295.9739379882812
0, 6, 29, 329.3263854980469
0, 6, 30, 285.1687316894531
0, 6, 31, 285.5634460449219
0, 6, 32, 338.686279296875
0, 6, 33, 300.23779296875
0, 6, 34, 339.4145202636719
0, 6, 35, 319.4910583496094
0, 6, 36, 273.1582641601562
0, 6, 37, 289.1461181640625
0, 6, 38, 311.4324645996094
0, 6, 39, 299.8906860351562
0, 6, 40, 286.3854675292969
0, 6, 41, 294.1365356445312
0, 6, 42, 305.916259765625
0, 6, 43, 290.3985595703125
0, 6, 44, 280.6160583496094
0, 6, 45, 319.9352722167969
0, 6, 46, 301.4776611328125
0, 6, 47, 334.9072570800781
0, 6, 48, 292.9024047851562
0, 6, 49, 311.120361328125
0, 6, 50, 329.0525207519531
0, 6, 51, 311.5565185546875
0, 6, 52, 322.4941101074219
0, 6, 53, 330.6516723632812
0, 6, 54, 301.4037170410156
0, 6, 55, 306.4445495605469
0, 6, 56, 295.7712097167969
0, 6, 57, 313.4757080078125
0, 6, 58, 262.6993103027344
0, 6, 59, 303.0817565917969
0, 6, 60, 315.1674499511719
0, 6, 61, 271.0827941894531
0, 6, 62, 337.2490539550781
0, 6, 63, 322.877197265625
0, 6, 64, 289.7748718261719
0, 6, 65, 285.5661010742188
0, 6, 66, 302.6417236328125
0, 6, 67, 309.0846252441406
0, 6, 68, 293.3291015625
0, 6, 69, 278.862548828125
0, 6, 70, 274.7947082519531
0, 6, 71, 289.5111389160156
0, 6, 72, 309.5746459960938
0, 6, 73, 294.3194885253906
0, 6, 74, 329.5605773925781
0, 6, 75, 343.0877380371094
0, 6, 76, 299.946044921875
0, 6, 77, 284.9527282714844
0, 6, 78, 279.6695251464844
0, 6, 79, 293.0846862792969
0, 6, 80, 301.3236389160156
0, 6, 81, 317.5561828613281
0, 6, 82, 318.8573303222656
0, 6, 83, 320.4578552246094
0, 6, 84, 298.9806823730469
0, 6, 85, 300.6273803710938
0, 6, 86, 330.6135864257812
0, 6, 87, 296.9527282714844
0, 6, 88, 305.1588134765625
0, 6, 89, 302.997314453125
0, 6, 90, 299.4442749023438
0, 6, 91, 312.5568542480469
0, 6, 92, 285.249755859375
0, 6, 93, 295.7898864746094
0, 6, 94, 272.0402221679688
0, 6, 95, 300.8901672363281
0, 6, 96, 347.3271789550781
0, 6, 97, 308.1802062988281
0, 6, 98, 301.7344360351562
0, 6, 99, 269.4410400390625
0, 6, 100, 307.8680725097656
0, 6, 101, 292.0199584960938
0, 6, 102, 306.7471618652344
0, 6, 103, 308.1613464355469
0, 6, 104, 291.0959777832031
0, 6, 105, 301.513671875
0, 6, 106, 306.5496520996094
0, 6, 107, 306.716552734375
0, 6, 108, 264.8056640625
0, 6, 109, 187.6076812744141
0, 6, 110, 57.21092224121094
0, 6, 111, 22.97598075866699
0, 6, 112, 13.10740852355957
0, 6, 113, 9.999739646911621
0, 6, 114, 13.13078880310059
0, 6, 115, 12.67408180236816
0, 6, 116, 9.153244018554688
0, 6, 117, 8.726847648620605
0, 6, 118, 11.06862640380859
0, 6, 119, 6.22160005569458
0, 6, 120, 4.681845664978027
0, 6, 121, 8.571346282958984
0, 6, 122, 5.438175678253174
0, 6, 123, 6.912109851837158
0, 6, 124, 6.248111248016357
0, 6, 125, 6.41015625
0, 6, 126, 5.275381088256836
0, 6, 127, 6.063928127288818
0, 7, 0, 6.917225360870361
0, 7, 1, 4.206718921661377
0, 7, 2, 6.092483520507812
0, 7, 3, 4.409149646759033
0, 7, 4, 4.152031898498535
0, 7, 5, 6.658330917358398
0, 7, 6, 6.486464023590088
0, 7, 7, 5.141458034515381
0, 7, 8, 4.485515594482422
0, 7, 9, 6.017812252044678
0, 7, 10, 7.973709583282471
0, 7, 11, 12.50091171264648
0, 7, 12, 10.30169296264648
0, 7, 13, 11.4289436340332
0, 7, 14, 11.5882625579834
0, 7, 15, 16.91123199462891
0, 7, 16, 27.01818084716797
0, 7, 17, 96.57456970214844
0, 7, 18, 216.8489379882812
0, 7, 19, 290.4934997558594
0, 7, 20, 299.5049438476562
0, 7, 21, 277.3368530273438
0, 7, 22, 299.676513671875
0, 7, 23, 289.096923828125
0, 7, 24, 312.4342346191406
0, 7, 25, 323.4672546386719
0, 7, 26, 277.2145690917969
0, 7, 27, 297.2306823730469
0, 7, 28, 327.5003051757812
0, 7, 29, 321.7573547363281
0, 7, 30, 301.2030029296875
0, 7, 31, 277.41552734375
0, 7, 32, 305.7715148925781
0, 7, 33, 261.6890258789062
0, 7, 34, 298.3106079101562
0, 7, 35, 318.53564453125
0, 7, 36, 332.5447387695312
0, 7, 37, 322.8469543457031
0, 7, 38, 295.0215759277344
0, 7, 39, 306.4752807617188
0, 7, 40, 291.45458984375
0, 7, 41, 271.7153930664062
0, 7, 42, 302.297119140625
0, 7, 43, 272.0049438476562
0, 7, 44, 301.9705810546875
0, 7, 45, 295.5859680175781
0, 7, 46, 282.9025268554688
0, 7, 47, 330.1506652832031
0, 7, 48, 287.3898620605469
0, 7, 49, 300.2819213867188
0, 7, 50, 320.8221740722656
0, 7, 51, 299.4470520019531
0, 7, 52, 326.3936462402344
0, 7, 53, 313.0089416503906
0, 7, 54, 323.3633728027344
0, 7, 55, 308.05810546875
0, 7, 56, 279.9364929199219
0, 7, 57, 282.0950927734375
0, 7, 58, 295.8719177246094
0, 7, 59, 296.2433471679688
0, 7, 60, 324.0194396972656
0, 7, 61, 277.4626770019531
0, 7, 62, 295.9542541503906
0, 7, 63, 294.0263366699219
0, 7, 64, 307.0656127929688
0, 7, 65, 329.5066833496094
0, 7, 66, 321.1228942871094
0, 7, 67, 301.9276123046875
0, 7, 68, 279.2279663085938
0, 7, 69, 293.4588928222656
0, 7, 70, 302.5836181640625
0, 7, 71, 308.9393310546875
0, 7, 72, 284.7359313964844
0, 7, 73, 295.9107055664062
0, 7, 74, 345.5457153320312
0, 7, 75, 317.99951171875
0, 7, 76, 323.934326171875
0, 7, 77, 281.4761047363281
0, 7, 78, 299.7083435058594
0, 7, 79, 297.4250183105469
0, 7, 80, 312.1985778808594
0, 7, 81, 319.2801818847656
0, 7, 82, 328.7744445800781
0, 7, 83, 316.5511474609375
0, 7, 84, 309.1565246582031
0, 7, 85, 271.3419799804688
0, 7, 86, 309.9544982910156
0, 7, 87, 308.37255859375
0, 7, 88, 306.6847839355469
0, 7, 89, 293.8036804199219
0, 7, 90, 307.0307006835938
0, 7, 91, 318.7013549804688
0, 7, 92, 290.203369140625
0, 7, 93, 308.570556640625
0, 7, 94, 272.7896118164062
0, 7, 95, 294.2966918945312
0, 7, 96, 330.9692077636719
0, 7, 97, 295.5133972167969
0, 7, 98, 290.6037902832031
0, 7, 99, 312.6641540527344
0, 7, 100, 281.3617553710938
0, 7, 101, 274.1733703613281
0, 7, 102, 290.79052734375
0, 7, 103, 292.16259765625
0, 7, 104, 274.1162109375
0, 7, 105, 305.9022521972656
0, 7, 106, 317.54150390625
0, 7, 107, 297.1891174316406
0, 7, 108, 271.8359680175781
0, 7, 109, 235.9483337402344
0, 7, 110, 96.00342559814453
0, 7, 111, 23.22185134887695
0, 7, 112, 13.40809154510498
0, 7, 113, 13.45932865142822
0, 7, 114, 15.6323356628418
0, 7, 115, 12.45649337768555
0, 7, 116, 10.02073001861572
0, 7, 117, 6.699828147888184
0, 7, 118, 6.267445087432861
0, 7, 119, 4.688221454620361
0, 7, 120, 5.034088134765625
0, 7, 121, 5.595952033996582
0, 7, 122, 7.977568626403809
0, 7, 123, 2.227791547775269
0, 7, 124, 3.760453939437866
0, 7, 125, 7.403104782104492
0, 7, 126, 7.394105434417725
0, 7, 127, 2.266615629196167
0, 8, 0, 3.585080862045288
0, 8, 1, 7.783341884613037
0, 8, 2, 3.65754246711731
0, 8, 3, 5.051993370056152
0, 8, 4, 3.98045825958252
0, 8, 5, 4.319796085357666
0, 8, 6, 4.747841835021973
0, 8, 7, 6.849997043609619
0, 8, 8, 7.735110282897949
0, 8, 9, 5.511243343353271
0, 8, 10, 7.364660263061523
0, 8, 11, 11.27426052093506
0, 8, 12, 13.07939910888672
0, 8, 13, 15.87945938110352
0, 8, 14, 12.59858989715576
0, 8, 15, 18.82069969177246
0, 8, 16, 33.23897552490234
0, 8, 17, 132.4590911865234
0, 8, 18, 244.9510040283203
0, 8, 19, 294.6664123535156
0, 8, 20, 285.3804626464844
0, 8, 21, 306.4269714355469
0, 8, 22, 297.5194702148438
0, 8, 23, 275.0806884765625
0, 8, 24, 271.3781433105469
0, 8, 25, 277.9684753417969
0, 8, 26, 306.5515441894531
0, 8, 27, 307.1870422363281
0, 8, 28, 302.1231079101562
0, 8, 29, 320.0857238769531
0, 8, 30, 313.4870910644531
0, 8, 31, 303.6701965332031
0, 8, 32, 282.2774047851562
0, 8, 33, 294.4021301269531
0, 8, 34, 290.2528076171875
0, 8, 35, 283.8832702636719
0, 8, 36, 314.8047180175781
0, 8, 37, 339.3650817871094
0, 8, 38, 332.5809936523438
0, 8, 39, 280.5695495605469
0, 8, 40, 306.5332336425781
