# TOPAS Version: 3.1.p3
# Parameter File: batch_inserts_86.txt
# Results for scorer Readout_Adipose
# Scored in component: MyBox
# X in 1 bin  of 0.75 cm
# Y in 512 bins of 0.0783984 cm
# Z in 128 bins of 0.078125 cm
# EnergyDeposit ( MeV ) : Sum   
0, 0, 0, 2.908940315246582
0, 0, 1, 2.950851917266846
0, 0, 2, 4.297184944152832
0, 0, 3, 1.904005765914917
0, 0, 4, 3.705911636352539
0, 0, 5, 1.602959752082825
0, 0, 6, 5.315491676330566
0, 0, 7, 8.29420280456543
0, 0, 8, 3.344671249389648
0, 0, 9, 4.108854293823242
0, 0, 10, 8.754643440246582
0, 0, 11, 4.212917327880859
0, 0, 12, 3.847350597381592
0, 0, 13, 5.0870361328125
0, 0, 14, 7.692229270935059
0, 0, 15, 9.606668472290039
0, 0, 16, 8.587167739868164
0, 0, 17, 8.684575080871582
0, 0, 18, 11.98230361938477
0, 0, 19, 43.5836181640625
0, 0, 20, 139.2094421386719
0, 0, 21, 223.2836456298828
0, 0, 22, 248.4203338623047
0, 0, 23, 255.8258972167969
0, 0, 24, 250.4989471435547
0, 0, 25, 260.8199462890625
0, 0, 26, 234.8541107177734
0, 0, 27, 237.3880004882812
0, 0, 28, 271.7018432617188
0, 0, 29, 252.4050903320312
0, 0, 30, 230.5240173339844
0, 0, 31, 245.3012542724609
0, 0, 32, 264.2890625
0, 0, 33, 261.1271667480469
0, 0, 34, 288.1891174316406
0, 0, 35, 268.8641662597656
0, 0, 36, 246.0899505615234
0, 0, 37, 250.7912750244141
0, 0, 38, 269.4498291015625
0, 0, 39, 228.4710845947266
0, 0, 40, 243.1369323730469
0, 0, 41, 264.7759094238281
0, 0, 42, 227.7627410888672
0, 0, 43, 259.8144226074219
0, 0, 44, 251.0941314697266
0, 0, 45, 252.9017028808594
0, 0, 46, 243.5100555419922
0, 0, 47, 252.0220642089844
0, 0, 48, 267.2973937988281
0, 0, 49, 275.5572204589844
0, 0, 50, 252.8067474365234
0, 0, 51, 253.7482757568359
0, 0, 52, 273.4354553222656
0, 0, 53, 290.4386901855469
0, 0, 54, 242.8895568847656
0, 0, 55, 240.2525634765625
0, 0, 56, 276.3698425292969
0, 0, 57, 263.5104370117188
0, 0, 58, 246.7917175292969
0, 0, 59, 271.2257995605469
0, 0, 60, 235.4736328125
0, 0, 61, 245.7591857910156
0, 0, 62, 258.489990234375
0, 0, 63, 269.636962890625
0, 0, 64, 256.4555053710938
0, 0, 65, 261.6268310546875
0, 0, 66, 276.2294616699219
0, 0, 67, 246.1883544921875
0, 0, 68, 258.7534790039062
0, 0, 69, 260.9209594726562
0, 0, 70, 273.65234375
0, 0, 71, 237.9711608886719
0, 0, 72, 250.0292358398438
0, 0, 73, 258.305908203125
0, 0, 74, 250.5199890136719
0, 0, 75, 239.8087310791016
0, 0, 76, 228.3435211181641
0, 0, 77, 262.2810668945312
0, 0, 78, 255.5541839599609
0, 0, 79, 280.6423034667969
0, 0, 80, 217.8092956542969
0, 0, 81, 267.1540832519531
0, 0, 82, 255.0224151611328
0, 0, 83, 246.6273498535156
0, 0, 84, 271.2351989746094
0, 0, 85, 231.042724609375
0, 0, 86, 253.5850677490234
0, 0, 87, 249.8268280029297
0, 0, 88, 260.5111083984375
0, 0, 89, 281.4472045898438
0, 0, 90, 244.2276000976562
0, 0, 91, 281.2601623535156
0, 0, 92, 251.7878875732422
0, 0, 93, 248.7640991210938
0, 0, 94, 250.2623443603516
0, 0, 95, 247.0531463623047
0, 0, 96, 274.6539306640625
0, 0, 97, 271.9570922851562
0, 0, 98, 272.1154479980469
0, 0, 99, 259.618408203125
0, 0, 100, 257.4129333496094
0, 0, 101, 226.2488250732422
0, 0, 102, 231.4597625732422
0, 0, 103, 270.1725769042969
0, 0, 104, 256.5856323242188
0, 0, 105, 251.8869934082031
0, 0, 106, 245.7833862304688
0, 0, 107, 152.7903900146484
0, 0, 108, 39.41751480102539
0, 0, 109, 11.2068452835083
0, 0, 110, 13.51038360595703
0, 0, 111, 9.322800636291504
0, 0, 112, 7.502700328826904
0, 0, 113, 5.014548301696777
0, 0, 114, 6.271403312683105
0, 0, 115, 4.981267929077148
0, 0, 116, 4.5086989402771
0, 0, 117, 5.447193622589111
0, 0, 118, 6.381197929382324
0, 0, 119, 4.590471744537354
0, 0, 120, 4.533868312835693
0, 0, 121, 2.429528713226318
0, 0, 122, 5.655131340026855
0, 0, 123, 3.240634918212891
0, 0, 124, 5.082671165466309
0, 0, 125, 3.095587968826294
0, 0, 126, 5.621528148651123
0, 0, 127, 4.175667285919189
0, 1, 0, 6.605586528778076
0, 1, 1, 3.138213157653809
0, 1, 2, 4.898849964141846
0, 1, 3, 2.353142738342285
0, 1, 4, 3.783966779708862
0, 1, 5, 4.373852729797363
0, 1, 6, 4.347572803497314
0, 1, 7, 5.025798320770264
0, 1, 8, 7.504301071166992
0, 1, 9, 5.065821170806885
0, 1, 10, 7.646596431732178
0, 1, 11, 13.01991748809814
0, 1, 12, 7.546962738037109
0, 1, 13, 10.01980018615723
0, 1, 14, 7.727733612060547
0, 1, 15, 7.311162948608398
0, 1, 16, 10.73512172698975
0, 1, 17, 12.80928516387939
0, 1, 18, 21.48845863342285
0, 1, 19, 66.78315734863281
0, 1, 20, 199.4592132568359
0, 1, 21, 255.4517822265625
0, 1, 22, 294.6287536621094
0, 1, 23, 283.126953125
0, 1, 24, 276.7909851074219
0, 1, 25, 288.8564147949219
0, 1, 26, 268.8834228515625
0, 1, 27, 307.253662109375
0, 1, 28, 299.0365295410156
0, 1, 29, 298.0717163085938
0, 1, 30, 280.8041687011719
0, 1, 31, 295.4041748046875
0, 1, 32, 290.0466003417969
0, 1, 33, 296.1601257324219
0, 1, 34, 292.9729309082031
0, 1, 35, 278.5097961425781
0, 1, 36, 307.0028686523438
0, 1, 37, 294.5274353027344
0, 1, 38, 280.1955871582031
0, 1, 39, 295.8767700195312
0, 1, 40, 265.560791015625
0, 1, 41, 285.6042785644531
0, 1, 42, 291.4964904785156
0, 1, 43, 331.7706604003906
0, 1, 44, 279.9443664550781
0, 1, 45, 292.184326171875
0, 1, 46, 260.0462341308594
0, 1, 47, 312.3143310546875
0, 1, 48, 284.4747924804688
0, 1, 49, 301.9210510253906
0, 1, 50, 263.3251647949219
0, 1, 51, 271.0335388183594
0, 1, 52, 295.6082458496094
0, 1, 53, 305.0796813964844
0, 1, 54, 273.6465759277344
0, 1, 55, 292.9827880859375
0, 1, 56, 278.8998107910156
0, 1, 57, 299.5640563964844
0, 1, 58, 310.00390625
0, 1, 59, 291.91357421875
0, 1, 60, 297.7900695800781
0, 1, 61, 275.0258483886719
0, 1, 62, 308.2796325683594
0, 1, 63, 286.9823608398438
0, 1, 64, 291.5319213867188
0, 1, 65, 298.1348266601562
0, 1, 66, 292.0171203613281
0, 1, 67, 290.7833557128906
0, 1, 68, 278.9269714355469
0, 1, 69, 280.8742065429688
0, 1, 70, 270.942626953125
0, 1, 71, 273.2510681152344
0, 1, 72, 286.5277709960938
0, 1, 73, 305.562255859375
0, 1, 74, 306.4381103515625
0, 1, 75, 291.8240661621094
0, 1, 76, 285.162841796875
0, 1, 77, 292.2442321777344
0, 1, 78, 299.4190063476562
0, 1, 79, 300.6759033203125
0, 1, 80, 295.5222778320312
0, 1, 81, 300.9825439453125
0, 1, 82, 281.9688415527344
0, 1, 83, 330.3672485351562
0, 1, 84, 308.1523132324219
0, 1, 85, 252.2482299804688
0, 1, 86, 294.5861511230469
0, 1, 87, 291.2539978027344
0, 1, 88, 297.5901794433594
0, 1, 89, 292.5184326171875
0, 1, 90, 271.0067443847656
0, 1, 91, 317.3966064453125
0, 1, 92, 291.7508850097656
0, 1, 93, 285.5050354003906
0, 1, 94, 302.2212524414062
0, 1, 95, 284.7797241210938
0, 1, 96, 283.3099975585938
0, 1, 97, 303.9052124023438
0, 1, 98, 279.3187866210938
0, 1, 99, 264.8047485351562
0, 1, 100, 276.5515441894531
0, 1, 101, 284.3985900878906
0, 1, 102, 281.4268188476562
0, 1, 103, 281.931884765625
0, 1, 104, 306.1327209472656
0, 1, 105, 296.380859375
0, 1, 106, 262.9960021972656
0, 1, 107, 193.2588653564453
0, 1, 108, 82.37728118896484
0, 1, 109, 23.7977352142334
0, 1, 110, 10.75454711914062
0, 1, 111, 7.857691764831543
0, 1, 112, 12.46592140197754
0, 1, 113, 5.380810737609863
0, 1, 114, 5.366801261901855
0, 1, 115, 6.536906719207764
0, 1, 116, 13.2451114654541
0, 1, 117, 7.02944803237915
0, 1, 118, 4.117919445037842
0, 1, 119, 8.043866157531738
0, 1, 120, 4.827747821807861
0, 1, 121, 4.630523681640625
0, 1, 122, 4.223731994628906
0, 1, 123, 5.472452640533447
0, 1, 124, 10.11687660217285
0, 1, 125, 4.131649971008301
0, 1, 126, 1.992969393730164
0, 1, 127, 1.643897414207458
0, 2, 0, 6.457156181335449
0, 2, 1, 3.16071081161499
0, 2, 2, 3.311866521835327
0, 2, 3, 4.12874698638916
0, 2, 4, 2.349189281463623
0, 2, 5, 2.420519590377808
0, 2, 6, 2.083558320999146
0, 2, 7, 3.687577962875366
0, 2, 8, 7.100825309753418
0, 2, 9, 8.668450355529785
0, 2, 10, 9.453595161437988
0, 2, 11, 7.972038269042969
0, 2, 12, 7.236520290374756
0, 2, 13, 12.46858882904053
0, 2, 14, 9.291311264038086
0, 2, 15, 7.340981006622314
0, 2, 16, 9.712627410888672
0, 2, 17, 16.60691070556641
0, 2, 18, 29.10832405090332
0, 2, 19, 116.4538421630859
0, 2, 20, 248.3470764160156
0, 2, 21, 271.1322937011719
0, 2, 22, 315.4329833984375
0, 2, 23, 300.4189453125
0, 2, 24, 286.4968566894531
0, 2, 25, 302.1689758300781
0, 2, 26, 294.2371826171875
0, 2, 27, 274.7105102539062
0, 2, 28, 272.7832946777344
0, 2, 29, 272.6471252441406
0, 2, 30, 291.5642395019531
0, 2, 31, 277.7836303710938
0, 2, 32, 294.6291809082031
0, 2, 33, 283.8277587890625
0, 2, 34, 331.5912780761719
0, 2, 35, 288.9298706054688
0, 2, 36, 305.4520874023438
0, 2, 37, 316.7980041503906
0, 2, 38, 312.6928100585938
0, 2, 39, 265.4076232910156
0, 2, 40, 307.3256225585938
0, 2, 41, 292.1631164550781
0, 2, 42, 301.6174621582031
0, 2, 43, 311.5860290527344
0, 2, 44, 310.6846008300781
0, 2, 45, 324.9920043945312
0, 2, 46, 286.2530212402344
0, 2, 47, 302.7131042480469
0, 2, 48, 279.3558654785156
0, 2, 49, 278.8403930664062
0, 2, 50, 293.2591247558594
0, 2, 51, 283.3552856445312
0, 2, 52, 272.4358825683594
0, 2, 53, 287.0823974609375
0, 2, 54, 279.8937377929688
0, 2, 55, 272.6486206054688
0, 2, 56, 302.7035522460938
0, 2, 57, 291.9539184570312
0, 2, 58, 302.6376037597656
0, 2, 59, 286.229248046875
0, 2, 60, 317.29248046875
0, 2, 61, 301.4498596191406
0, 2, 62, 316.0482788085938
0, 2, 63, 302.6930236816406
0, 2, 64, 299.3390808105469
0, 2, 65, 316.2651062011719
0, 2, 66, 278.6287231445312
0, 2, 67, 289.2626342773438
0, 2, 68, 296.34765625
0, 2, 69, 311.2513122558594
0, 2, 70, 332.4723815917969
0, 2, 71, 285.5085754394531
0, 2, 72, 301.6025695800781
0, 2, 73, 311.9193725585938
0, 2, 74, 284.4159240722656
0, 2, 75, 302.8521423339844
0, 2, 76, 285.8688659667969
0, 2, 77, 301.1539306640625
0, 2, 78, 315.0432739257812
0, 2, 79, 308.1380920410156
0, 2, 80, 296.4864196777344
0, 2, 81, 281.0063171386719
0, 2, 82, 320.0910949707031
0, 2, 83, 311.1034851074219
0, 2, 84, 287.6061706542969
0, 2, 85, 282.1861877441406
0, 2, 86, 324.0455932617188
0, 2, 87, 285.9044799804688
0, 2, 88, 279.7627258300781
0, 2, 89, 295.9115905761719
0, 2, 90, 298.5567626953125
0, 2, 91, 276.9136962890625
0, 2, 92, 308.171875
0, 2, 93, 317.6871643066406
0, 2, 94, 290.8833923339844
0, 2, 95, 315.1963500976562
0, 2, 96, 314.3970947265625
0, 2, 97, 290.394775390625
0, 2, 98, 294.9015197753906
0, 2, 99, 274.6316528320312
0, 2, 100, 304.8478698730469
0, 2, 101, 301.4082336425781
0, 2, 102, 298.0994873046875
0, 2, 103, 292.1769104003906
0, 2, 104, 293.0059814453125
0, 2, 105, 274.3006591796875
0, 2, 106, 296.7157897949219
0, 2, 107, 269.2802734375
0, 2, 108, 116.7964401245117
0, 2, 109, 35.3325080871582
0, 2, 110, 10.83829021453857
0, 2, 111, 12.38465690612793
0, 2, 112, 7.47205114364624
0, 2, 113, 8.846734046936035
0, 2, 114, 10.22081756591797
0, 2, 115, 9.646252632141113
0, 2, 116, 8.809440612792969
0, 2, 117, 8.250340461730957
0, 2, 118, 4.593945503234863
0, 2, 119, 4.442348957061768
0, 2, 120, 5.349936962127686
0, 2, 121, 1.229712128639221
0, 2, 122, 3.06037449836731
0, 2, 123, 4.632271766662598
0, 2, 124, 3.348356485366821
0, 2, 125, 5.11216402053833
0, 2, 126, 4.808711528778076
0, 2, 127, 5.913533687591553
0, 3, 0, 2.436345100402832
0, 3, 1, 2.582619905471802
0, 3, 2, 2.982403516769409
0, 3, 3, 4.862376689910889
0, 3, 4, 5.147956848144531
0, 3, 5, 7.500586032867432
0, 3, 6, 6.685570240020752
0, 3, 7, 5.161621570587158
0, 3, 8, 5.175518035888672
0, 3, 9, 5.721245288848877
0, 3, 10, 6.434115409851074
0, 3, 11, 3.716950178146362
0, 3, 12, 8.27440357208252
0, 3, 13, 14.53578853607178
0, 3, 14, 10.75981426239014
0, 3, 15, 13.76794815063477
0, 3, 16, 11.66345310211182
0, 3, 17, 17.4803295135498
0, 3, 18, 53.51897048950195
0, 3, 19, 174.9691619873047
0, 3, 20, 269.3578796386719
0, 3, 21, 270.491455078125
0, 3, 22, 281.6421203613281
0, 3, 23, 286.3428955078125
0, 3, 24, 286.3954467773438
0, 3, 25, 273.2166137695312
0, 3, 26, 303.9239807128906
0, 3, 27, 292.5809020996094
0, 3, 28, 281.8640441894531
0, 3, 29, 340.0366516113281
0, 3, 30, 315.8773193359375
0, 3, 31, 287.5198059082031
0, 3, 32, 305.5878295898438
0, 3, 33, 313.6686401367188
0, 3, 34, 320.1555480957031
0, 3, 35, 306.1900939941406
0, 3, 36, 271.4333190917969
0, 3, 37, 316.1651916503906
0, 3, 38, 304.1819152832031
0, 3, 39, 289.4407043457031
0, 3, 40, 268.7392578125
0, 3, 41, 300.4481506347656
0, 3, 42, 284.2006530761719
0, 3, 43, 305.0584411621094
0, 3, 44, 312.1383666992188
0, 3, 45, 289.8000183105469
0, 3, 46, 329.25048828125
0, 3, 47, 298.2012329101562
0, 3, 48, 306.0301513671875
0, 3, 49, 276.3277587890625
0, 3, 50, 291.623779296875
0, 3, 51, 274.8465270996094
0, 3, 52, 315.1870727539062
0, 3, 53, 289.5668334960938
0, 3, 54, 285.1902160644531
0, 3, 55, 285.1738891601562
0, 3, 56, 297.6646423339844
0, 3, 57, 289.8457336425781
0, 3, 58, 306.051025390625
0, 3, 59, 296.8221435546875
0, 3, 60, 299.0935974121094
0, 3, 61, 264.58056640625
0, 3, 62, 283.6873168945312
0, 3, 63, 307.1743469238281
0, 3, 64, 315.427978515625
0, 3, 65, 306.1995849609375
0, 3, 66, 316.0780944824219
0, 3, 67, 318.659912109375
0, 3, 68, 281.5188598632812
0, 3, 69, 284.79638671875
0, 3, 70, 287.5057373046875
0, 3, 71, 299.9775085449219
0, 3, 72, 270.2451782226562
0, 3, 73, 308.2208251953125
0, 3, 74, 293.721923828125
0, 3, 75, 291.3276977539062
0, 3, 76, 306.1966857910156
0, 3, 77, 312.5350036621094
0, 3, 78, 306.6915893554688
0, 3, 79, 281.6190795898438
0, 3, 80, 289.2870178222656
0, 3, 81, 310.9562072753906
0, 3, 82, 318.5493774414062
0, 3, 83, 299.925048828125
0, 3, 84, 311.63818359375
0, 3, 85, 295.6148681640625
0, 3, 86, 302.6197814941406
0, 3, 87, 300.068115234375
0, 3, 88, 298.1183166503906
0, 3, 89, 294.5315551757812
0, 3, 90, 279.1392822265625
0, 3, 91, 285.2073669433594
0, 3, 92, 306.4345703125
0, 3, 93, 312.4822692871094
0, 3, 94, 299.0652465820312
0, 3, 95, 333.0826416015625
0, 3, 96, 290.4981384277344
0, 3, 97, 285.1105651855469
0, 3, 98, 276.9361877441406
0, 3, 99, 261.6454162597656
0, 3, 100, 285.2353515625
0, 3, 101, 297.2937316894531
0, 3, 102, 275.3908996582031
0, 3, 103, 321.2822875976562
0, 3, 104, 308.7197875976562
0, 3, 105, 286.9468383789062
0, 3, 106, 302.5910949707031
0, 3, 107, 282.9756774902344
0, 3, 108, 168.6634216308594
0, 3, 109, 57.53087997436523
0, 3, 110, 18.18156051635742
0, 3, 111, 13.14141368865967
0, 3, 112, 12.29499626159668
0, 3, 113, 8.549259185791016
0, 3, 114, 11.21578598022461
0, 3, 115, 7.064643383026123
0, 3, 116, 7.158328533172607
0, 3, 117, 7.624218940734863
0, 3, 118, 6.695479393005371
0, 3, 119, 7.737017631530762
0, 3, 120, 3.947043418884277
0, 3, 121, 2.702142953872681
0, 3, 122, 3.870906591415405
0, 3, 123, 6.275286674499512
0, 3, 124, 2.155923128128052
0, 3, 125, 7.035209178924561
0, 3, 126, 5.618598461151123
0, 3, 127, 2.164621114730835
0, 4, 0, 2.794120788574219
0, 4, 1, 6.69403600692749
0, 4, 2, 3.763554811477661
0, 4, 3, 2.779480695724487
0, 4, 4, 5.762856483459473
0, 4, 5, 9.27205753326416
0, 4, 6, 9.884757041931152
0, 4, 7, 4.957231044769287
0, 4, 8, 4.303465366363525
0, 4, 9, 4.856453895568848
0, 4, 10, 6.118039608001709
0, 4, 11, 5.317870140075684
0, 4, 12, 5.5809326171875
0, 4, 13, 9.082557678222656
0, 4, 14, 12.22289943695068
0, 4, 15, 10.02325344085693
0, 4, 16, 12.77218246459961
0, 4, 17, 17.45175170898438
0, 4, 18, 98.35100555419922
0, 4, 19, 222.9140625
0, 4, 20, 283.9512634277344
0, 4, 21, 272.9060974121094
0, 4, 22, 304.3107299804688
0, 4, 23, 268.6947021484375
0, 4, 24, 288.9857788085938
0, 4, 25, 274.2683410644531
0, 4, 26, 294.3322448730469
0, 4, 27, 281.8631286621094
0, 4, 28, 305.7277221679688
0, 4, 29, 321.2887878417969
0, 4, 30, 308.9906921386719
0, 4, 31, 304.2579040527344
0, 4, 32, 282.9388122558594
0, 4, 33, 295.622802734375
0, 4, 34, 295.6753845214844
0, 4, 35, 311.4628601074219
0, 4, 36, 293.6723937988281
0, 4, 37, 287.8601379394531
0, 4, 38, 299.3017883300781
0, 4, 39, 292.9166259765625
0, 4, 40, 302.9243469238281
0, 4, 41, 312.9710998535156
0, 4, 42, 330.14990234375
0, 4, 43, 297.5999145507812
0, 4, 44, 320.0481262207031
0, 4, 45, 323.6160583496094
0, 4, 46, 305.2466735839844
0, 4, 47, 293.1692199707031
0, 4, 48, 296.3533325195312
0, 4, 49, 277.11767578125
0, 4, 50, 296.1006774902344
0, 4, 51, 316.25
0, 4, 52, 328.2586975097656
0, 4, 53, 302.9981079101562
0, 4, 54, 288.3903198242188
0, 4, 55, 314.3839416503906
0, 4, 56, 285.0955810546875
0, 4, 57, 308.0685729980469
0, 4, 58, 295.3491821289062
0, 4, 59, 308.9612426757812
0, 4, 60, 302.5624694824219
0, 4, 61, 318.0448608398438
0, 4, 62, 307.1725463867188
0, 4, 63, 301.109130859375
0, 4, 64, 330.6007080078125
0, 4, 65, 314.1236877441406
0, 4, 66, 294.25
0, 4, 67, 286.3428955078125
0, 4, 68, 313.3749694824219
0, 4, 69, 275.8024597167969
0, 4, 70, 299.1286926269531
0, 4, 71, 321.8064880371094
0, 4, 72, 334.6044311523438
0, 4, 73, 297.0260620117188
0, 4, 74, 293.7445678710938
0, 4, 75, 289.4102783203125
0, 4, 76, 279.2654113769531
0, 4, 77, 279.6658935546875
0, 4, 78, 310.0548706054688
0, 4, 79, 319.9848327636719
0, 4, 80, 315.6355285644531
0, 4, 81, 313.7489929199219
0, 4, 82, 297.3950805664062
0, 4, 83, 301.9763793945312
0, 4, 84, 292.0942993164062
0, 4, 85, 295.9548950195312
0, 4, 86, 295.9781188964844
0, 4, 87, 284.2042236328125
0, 4, 88, 305.3585510253906
0, 4, 89, 293.4443969726562
0, 4, 90, 334.9119873046875
0, 4, 91, 301.0121765136719
0, 4, 92, 290.4055480957031
0, 4, 93, 297.6836242675781
0, 4, 94, 296.3370666503906
0, 4, 95, 291.4149169921875
0, 4, 96, 324.9678344726562
0, 4, 97, 275.0897827148438
0, 4, 98, 325.9423522949219
0, 4, 99, 315.7932434082031
0, 4, 100, 300.4208374023438
0, 4, 101, 256.9365234375
0, 4, 102, 296.5776977539062
0, 4, 103, 317.0601806640625
0, 4, 104, 280.3023071289062
0, 4, 105, 310.0469970703125
0, 4, 106, 288.0503234863281
0, 4, 107, 296.9039306640625
0, 4, 108, 225.1782684326172
0, 4, 109, 78.75833129882812
0, 4, 110, 15.31998062133789
0, 4, 111, 13.06394004821777
0, 4, 112, 10.57384395599365
0, 4, 113, 11.28987789154053
0, 4, 114, 9.157197952270508
0, 4, 115, 10.30198192596436
0, 4, 116, 8.989394187927246
0, 4, 117, 7.57625150680542
0, 4, 118, 10.0905065536499
0, 4, 119, 8.569310188293457
0, 4, 120, 6.724387168884277
0, 4, 121, 5.49691104888916
0, 4, 122, 5.097105979919434
0, 4, 123, 5.995741844177246
0, 4, 124, 7.499978065490723
0, 4, 125, 7.963798046112061
0, 4, 126, 5.008509159088135
0, 4, 127, 3.839391231536865
0, 5, 0, 2.973396778106689
0, 5, 1, 3.789431810379028
0, 5, 2, 6.59412670135498
0, 5, 3, 4.449202060699463
0, 5, 4, 6.833207130432129
0, 5, 5, 7.016834735870361
0, 5, 6, 5.225701332092285
0, 5, 7, 6.31256628036499
0, 5, 8, 5.587429046630859
0, 5, 9, 5.674202442169189
0, 5, 10, 10.17823505401611
0, 5, 11, 7.86298942565918
0, 5, 12, 7.550863265991211
0, 5, 13, 7.38083553314209
0, 5, 14, 16.38649940490723
0, 5, 15, 16.12736892700195
0, 5, 16, 18.45838356018066
0, 5, 17, 29.70258522033691
0, 5, 18, 139.0351409912109
0, 5, 19, 288.9774780273438
0, 5, 20, 306.9544372558594
0, 5, 21, 315.9520568847656
0, 5, 22, 276.4610595703125
0, 5, 23, 310.3717041015625
0, 5, 24, 300.9996032714844
0, 5, 25, 288.6437683105469
0, 5, 26, 293.7142944335938
0, 5, 27, 324.3374633789062
0, 5, 28, 300.7042846679688
0, 5, 29, 296.4087524414062
0, 5, 30, 323.4199829101562
0, 5, 31, 286.644287109375
0, 5, 32, 301.6556701660156
0, 5, 33, 305.1269226074219
0, 5, 34, 295.3282470703125
0, 5, 35, 310.0812683105469
0, 5, 36, 270.4631042480469
0, 5, 37, 280.8919372558594
0, 5, 38, 292.1250915527344
0, 5, 39, 312.5369262695312
0, 5, 40, 311.4308166503906
0, 5, 41, 273.4194946289062
0, 5, 42, 306.015380859375
0, 5, 43, 315.6900329589844
0, 5, 44, 292.4651489257812
0, 5, 45, 300.8971557617188
0, 5, 46, 265.4684753417969
0, 5, 47, 282.3811340332031
0, 5, 48, 292.6457214355469
0, 5, 49, 285.7388916015625
0, 5, 50, 295.3735656738281
0, 5, 51, 279.9871826171875
0, 5, 52, 269.8495788574219
0, 5, 53, 286.9110107421875
0, 5, 54, 292.153076171875
0, 5, 55, 343.9629821777344
0, 5, 56, 304.6188049316406
0, 5, 57, 306.5111083984375
0, 5, 58, 314.9874267578125
0, 5, 59, 305.9055480957031
0, 5, 60, 307.085205078125
0, 5, 61, 281.5718078613281
0, 5, 62, 325.1848449707031
0, 5, 63, 288.4740905761719
0, 5, 64, 323.3627624511719
0, 5, 65, 308.9858093261719
0, 5, 66, 326.9779663085938
0, 5, 67, 312.8416137695312
0, 5, 68, 306.5296630859375
0, 5, 69, 312.981689453125
0, 5, 70, 298.7137145996094
0, 5, 71, 275.5051574707031
0, 5, 72, 310.1349487304688
0, 5, 73, 302.37353515625
0, 5, 74, 295.2806396484375
0, 5, 75, 293.4062194824219
0, 5, 76, 284.9640197753906
0, 5, 77, 298.5464477539062
0, 5, 78, 316.5673522949219
0, 5, 79, 306.2760314941406
0, 5, 80, 295.2841186523438
0, 5, 81, 328.0365600585938
0, 5, 82, 322.8199462890625
0, 5, 83, 283.5559997558594
0, 5, 84, 302.5508422851562
0, 5, 85, 270.6519470214844
0, 5, 86, 325.6539611816406
0, 5, 87, 284.9257202148438
0, 5, 88, 313.3385009765625
0, 5, 89, 306.1593017578125
0, 5, 90, 316.2013549804688
0, 5, 91, 313.6026000976562
0, 5, 92, 296.30810546875
0, 5, 93, 321.9476013183594
0, 5, 94, 309.4288330078125
0, 5, 95, 296.3490600585938
0, 5, 96, 298.4765930175781
0, 5, 97, 297.4217529296875
0, 5, 98, 318.0297241210938
0, 5, 99, 302.1473999023438
0, 5, 100, 291.4311828613281
0, 5, 101, 308.2984008789062
0, 5, 102, 292.2491760253906
0, 5, 103, 314.0914611816406
0, 5, 104, 303.40966796875
0, 5, 105, 291.9337463378906
0, 5, 106, 281.6795959472656
0, 5, 107, 292.1220703125
0, 5, 108, 263.92529296875
0, 5, 109, 157.6776733398438
0, 5, 110, 41.8763542175293
0, 5, 111, 20.87510108947754
0, 5, 112, 15.67012023925781
0, 5, 113, 12.71798038482666
0, 5, 114, 12.15314865112305
0, 5, 115, 8.582158088684082
0, 5, 116, 7.5359787940979
0, 5, 117, 7.282123565673828
0, 5, 118, 11.95643329620361
0, 5, 119, 6.755345821380615
0, 5, 120, 5.205152988433838
0, 5, 121, 4.953924655914307
0, 5, 122, 5.26839542388916
0, 5, 123, 6.084164619445801
0, 5, 124, 5.708105087280273
0, 5, 125, 5.309108734130859
0, 5, 126, 5.563981056213379
0, 5, 127, 3.34879994392395
0, 6, 0, 3.734147071838379
0, 6, 1, 3.657981395721436
0, 6, 2, 4.033702373504639
0, 6, 3, 5.689848899841309
0, 6, 4, 3.490182399749756
0, 6, 5, 4.880733966827393
0, 6, 6, 10.05482578277588
0, 6, 7, 6.357343196868896
0, 6, 8, 7.741550445556641
0, 6, 9, 6.337044715881348
0, 6, 10, 7.879615306854248
0, 6, 11, 8.020848274230957
0, 6, 12, 8.180709838867188
0, 6, 13, 13.46219635009766
0, 6, 14, 7.948686599731445
0, 6, 15, 17.27094078063965
0, 6, 16, 28.37461471557617
0, 6, 17, 55.93044662475586
0, 6, 18, 171.461669921875
0, 6, 19, 276.3871154785156
0, 6, 20, 290.1041259765625
0, 6, 21, 313.523681640625
0, 6, 22, 318.6860961914062
0, 6, 23, 305.168212890625
0, 6, 24, 318.0221557617188
0, 6, 25, 315.7464599609375
0, 6, 26, 319.3580932617188
0, 6, 27, 330.7822570800781
0, 6, 28, 296.0993347167969
0, 6, 29, 331.5649719238281
0, 6, 30, 281.4486083984375
0, 6, 31, 286.9518127441406
0, 6, 32, 338.8530578613281
0, 6, 33, 302.6801147460938
0, 6, 34, 340.405029296875
0, 6, 35, 320.0180053710938
0, 6, 36, 274.0615539550781
0, 6, 37, 287.7785339355469
0, 6, 38, 311.0316772460938
0, 6, 39, 300.640380859375
0, 6, 40, 285.4679565429688
0, 6, 41, 294.7082824707031
0, 6, 42, 303.3810119628906
0, 6, 43, 288.2168273925781
0, 6, 44, 282.1583251953125
0, 6, 45, 318.8901977539062
0, 6, 46, 305.194580078125
0, 6, 47, 337.4726257324219
0, 6, 48, 294.4150695800781
0, 6, 49, 311.7965087890625
0, 6, 50, 328.2745666503906
0, 6, 51, 310.1662292480469
0, 6, 52, 320.9302368164062
0, 6, 53, 327.6454772949219
0, 6, 54, 301.6011047363281
0, 6, 55, 305.93798828125
0, 6, 56, 295.1148376464844
0, 6, 57, 313.5175476074219
0, 6, 58, 261.3421936035156
0, 6, 59, 301.2047729492188
0, 6, 60, 311.5063171386719
0, 6, 61, 274.8880920410156
0, 6, 62, 336.697021484375
0, 6, 63, 324.9510803222656
0, 6, 64, 289.7453002929688
0, 6, 65, 288.2681884765625
0, 6, 66, 301.6830444335938
0, 6, 67, 311.9282531738281
0, 6, 68, 294.6287536621094
0, 6, 69, 279.2855224609375
0, 6, 70, 274.9310913085938
0, 6, 71, 290.2634582519531
0, 6, 72, 310.511962890625
0, 6, 73, 292.5982666015625
0, 6, 74, 330.2590026855469
0, 6, 75, 343.4598388671875
0, 6, 76, 296.1682739257812
0, 6, 77, 286.6194763183594
0, 6, 78, 278.1560363769531
0, 6, 79, 291.7664489746094
0, 6, 80, 300.0174560546875
0, 6, 81, 316.5672302246094
0, 6, 82, 323.9452209472656
0, 6, 83, 319.4999389648438
0, 6, 84, 295.2734069824219
0, 6, 85, 300.4586181640625
0, 6, 86, 330.5237731933594
0, 6, 87, 290.6275634765625
0, 6, 88, 306.4282836914062
0, 6, 89, 305.0905151367188
0, 6, 90, 298.5672302246094
0, 6, 91, 313.5987243652344
0, 6, 92, 283.6482849121094
0, 6, 93, 295.7965393066406
0, 6, 94, 273.0577087402344
0, 6, 95, 300.6090698242188
0, 6, 96, 346.3215942382812
0, 6, 97, 309.1875610351562
0, 6, 98, 301.0259704589844
0, 6, 99, 271.715576171875
0, 6, 100, 308.0734252929688
0, 6, 101, 293.8093872070312
0, 6, 102, 306.9374694824219
0, 6, 103, 308.7994689941406
0, 6, 104, 293.1609191894531
0, 6, 105, 300.7667541503906
0, 6, 106, 306.5169677734375
0, 6, 107, 304.4712219238281
0, 6, 108, 264.4059448242188
0, 6, 109, 185.7854614257812
0, 6, 110, 57.13457489013672
0, 6, 111, 22.91595077514648
0, 6, 112, 15.87871265411377
0, 6, 113, 11.20744800567627
0, 6, 114, 12.75648880004883
0, 6, 115, 14.03067588806152
0, 6, 116, 10.30582427978516
0, 6, 117, 7.883156776428223
0, 6, 118, 7.990573883056641
0, 6, 119, 11.56454563140869
0, 6, 120, 7.805064678192139
0, 6, 121, 5.996599197387695
0, 6, 122, 5.750018119812012
0, 6, 123, 4.61649751663208
0, 6, 124, 6.653239250183105
0, 6, 125, 6.239073753356934
0, 6, 126, 4.429542541503906
0, 6, 127, 7.22216796875
0, 7, 0, 6.580420017242432
0, 7, 1, 5.088998794555664
0, 7, 2, 5.283787727355957
0, 7, 3, 3.063856363296509
0, 7, 4, 4.60408878326416
0, 7, 5, 5.728065013885498
0, 7, 6, 6.69336462020874
0, 7, 7, 6.395440578460693
0, 7, 8, 6.31438159942627
0, 7, 9, 4.675376892089844
0, 7, 10, 8.428623199462891
0, 7, 11, 12.53731822967529
0, 7, 12, 9.129383087158203
0, 7, 13, 12.5068941116333
0, 7, 14, 10.63895416259766
0, 7, 15, 17.16644287109375
0, 7, 16, 25.64389228820801
0, 7, 17, 96.34311676025391
0, 7, 18, 217.8612213134766
0, 7, 19, 289.861083984375
0, 7, 20, 295.5840454101562
0, 7, 21, 277.4165954589844
0, 7, 22, 298.7369689941406
0, 7, 23, 290.9821166992188
0, 7, 24, 313.6806335449219
0, 7, 25, 323.6956481933594
0, 7, 26, 278.861083984375
0, 7, 27, 297.4318542480469
0, 7, 28, 325.7156982421875
0, 7, 29, 319.930908203125
0, 7, 30, 299.9908447265625
0, 7, 31, 276.8632202148438
0, 7, 32, 304.8654174804688
0, 7, 33, 261.4527282714844
0, 7, 34, 299.1476745605469
0, 7, 35, 321.3016052246094
0, 7, 36, 331.8982849121094
0, 7, 37, 323.3819885253906
0, 7, 38, 296.35205078125
0, 7, 39, 306.1109619140625
0, 7, 40, 288.6396179199219
0, 7, 41, 270.7920532226562
0, 7, 42, 302.1471557617188
0, 7, 43, 275.9352722167969
0, 7, 44, 302.9617919921875
0, 7, 45, 294.7776489257812
0, 7, 46, 282.494384765625
0, 7, 47, 328.3110961914062
0, 7, 48, 285.6532287597656
0, 7, 49, 303.7810974121094
0, 7, 50, 321.1650695800781
0, 7, 51, 299.771240234375
0, 7, 52, 327.2814331054688
0, 7, 53, 311.7572631835938
0, 7, 54, 321.5063171386719
0, 7, 55, 306.395263671875
0, 7, 56, 279.2740478515625
0, 7, 57, 282.9273376464844
0, 7, 58, 296.667724609375
0, 7, 59, 296.4205017089844
0, 7, 60, 322.8399047851562
0, 7, 61, 278.1889343261719
0, 7, 62, 297.7438354492188
0, 7, 63, 292.5686645507812
0, 7, 64, 306.5481872558594
0, 7, 65, 329.9714965820312
0, 7, 66, 319.4481506347656
0, 7, 67, 302.5699157714844
0, 7, 68, 278.5679626464844
0, 7, 69, 293.2651672363281
0, 7, 70, 300.3976440429688
0, 7, 71, 309.37451171875
0, 7, 72, 285.3142395019531
0, 7, 73, 295.9539184570312
0, 7, 74, 343.93505859375
0, 7, 75, 319.4204711914062
0, 7, 76, 322.3068237304688
0, 7, 77, 281.8630981445312
0, 7, 78, 300.3987426757812
0, 7, 79, 298.5326538085938
0, 7, 80, 313.4995422363281
0, 7, 81, 318.5006713867188
0, 7, 82, 329.5432739257812
0, 7, 83, 317.9080505371094
0, 7, 84, 309.06591796875
0, 7, 85, 272.1885070800781
0, 7, 86, 311.2287292480469
0, 7, 87, 312.1284790039062
0, 7, 88, 307.688720703125
0, 7, 89, 293.7593688964844
0, 7, 90, 306.9317016601562
0, 7, 91, 315.2852783203125
0, 7, 92, 286.9237976074219
0, 7, 93, 308.2359619140625
0, 7, 94, 272.576904296875
0, 7, 95, 294.9106140136719
0, 7, 96, 330.5097351074219
0, 7, 97, 294.5049438476562
0, 7, 98, 295.2819213867188
0, 7, 99, 314.6727600097656
0, 7, 100, 280.1560363769531
0, 7, 101, 277.0156555175781
0, 7, 102, 289.3496704101562
0, 7, 103, 293.3165283203125
0, 7, 104, 274.7350158691406
0, 7, 105, 306.2394104003906
0, 7, 106, 317.73291015625
0, 7, 107, 296.7947998046875
0, 7, 108, 273.6817932128906
0, 7, 109, 237.5457153320312
0, 7, 110, 97.59124755859375
0, 7, 111, 23.57387351989746
0, 7, 112, 14.53629207611084
0, 7, 113, 14.7784948348999
0, 7, 114, 14.10547542572021
0, 7, 115, 10.34401702880859
0, 7, 116, 8.076459884643555
0, 7, 117, 5.755473136901855
0, 7, 118, 7.159789562225342
0, 7, 119, 7.922240257263184
0, 7, 120, 5.249079704284668
0, 7, 121, 6.59021520614624
0, 7, 122, 7.13780403137207
0, 7, 123, 5.064896106719971
0, 7, 124, 3.81857967376709
0, 7, 125, 7.33811616897583
0, 7, 126, 9.360256195068359
0, 7, 127, 3.777347087860107
0, 8, 0, 7.002520561218262
0, 8, 1, 4.049479007720947
0, 8, 2, 3.916770219802856
0, 8, 3, 2.830733776092529
0, 8, 4, 4.259269714355469
0, 8, 5, 5.989473342895508
0, 8, 6, 3.852311849594116
0, 8, 7, 7.454126358032227
0, 8, 8, 9.685456275939941
0, 8, 9, 4.715780735015869
0, 8, 10, 7.970304489135742
0, 8, 11, 10.64417362213135
0, 8, 12, 11.5451078414917
0, 8, 13, 15.01802539825439
0, 8, 14, 11.59078407287598
0, 8, 15, 19.25857162475586
0, 8, 16, 31.86541748046875
0, 8, 17, 130.6011199951172
0, 8, 18, 243.5164489746094
0, 8, 19, 293.1576232910156
0, 8, 20, 285.2722778320312
0, 8, 21, 306.2543334960938
0, 8, 22, 297.7561340332031
0, 8, 23, 274.8248291015625
0, 8, 24, 269.8780212402344
0, 8, 25, 275.4609985351562
0, 8, 26, 305.5077819824219
0, 8, 27, 308.513427734375
0, 8, 28, 305.2452087402344
0, 8, 29, 320.9176025390625
0, 8, 30, 314.6392517089844
0, 8, 31, 303.1523742675781
0, 8, 32, 280.1458740234375
0, 8, 33, 294.4295959472656
0, 8, 34, 288.7740478515625
0, 8, 35, 279.3342590332031
0, 8, 36, 314.847412109375
0, 8, 37, 340.1809997558594
0, 8, 38, 332.5806884765625
0, 8, 39, 281.6378784179688
0, 8, 40, 303.5164794921875
