# TOPAS Version: 3.1.p3
# Parameter File: batch_inserts_102.txt
# Results for scorer Readout_Adipose
# Scored in component: MyBox
# X in 1 bin  of 0.75 cm
# Y in 512 bins of 0.0783984 cm
# Z in 128 bins of 0.078125 cm
# EnergyDeposit ( MeV ) : Sum   
0, 0, 0, 5.459420204162598
0, 0, 1, 2.088679552078247
0, 0, 2, 3.774068117141724
0, 0, 3, 1.021013140678406
0, 0, 4, 3.315921783447266
0, 0, 5, 2.175169229507446
0, 0, 6, 5.903214931488037
0, 0, 7, 10.03045749664307
0, 0, 8, 2.302435159683228
0, 0, 9, 3.227987766265869
0, 0, 10, 7.2265944480896
0, 0, 11, 4.115403652191162
0, 0, 12, 3.913225412368774
0, 0, 13, 5.653208255767822
0, 0, 14, 8.657416343688965
0, 0, 15, 8.611160278320312
0, 0, 16, 9.734338760375977
0, 0, 17, 10.20847320556641
0, 0, 18, 13.89095020294189
0, 0, 19, 43.72735977172852
0, 0, 20, 138.7351989746094
0, 0, 21, 223.2947692871094
0, 0, 22, 248.900390625
0, 0, 23, 256.5419311523438
0, 0, 24, 252.8522338867188
0, 0, 25, 257.822998046875
0, 0, 26, 235.8538513183594
0, 0, 27, 237.4132385253906
0, 0, 28, 271.09521484375
0, 0, 29, 251.5872955322266
0, 0, 30, 229.0961456298828
0, 0, 31, 244.7286682128906
0, 0, 32, 265.6221618652344
0, 0, 33, 262.1643371582031
0, 0, 34, 287.7612609863281
0, 0, 35, 267.1415100097656
0, 0, 36, 245.5666656494141
0, 0, 37, 251.6701049804688
0, 0, 38, 269.7991333007812
0, 0, 39, 228.707763671875
0, 0, 40, 241.3602752685547
0, 0, 41, 265.0485534667969
0, 0, 42, 230.2985992431641
0, 0, 43, 261.8089599609375
0, 0, 44, 251.1537322998047
0, 0, 45, 252.4822387695312
0, 0, 46, 245.4987030029297
0, 0, 47, 252.7781219482422
0, 0, 48, 265.4779968261719
0, 0, 49, 274.5056457519531
0, 0, 50, 253.9540252685547
0, 0, 51, 254.3727874755859
0, 0, 52, 272.4290771484375
0, 0, 53, 291.0892333984375
0, 0, 54, 242.2320861816406
0, 0, 55, 239.6696472167969
0, 0, 56, 279.0918884277344
0, 0, 57, 263.8324890136719
0, 0, 58, 246.2507781982422
0, 0, 59, 271.1971435546875
0, 0, 60, 234.7553863525391
0, 0, 61, 245.8572235107422
0, 0, 62, 259.4492492675781
0, 0, 63, 265.7281799316406
0, 0, 64, 256.1994323730469
0, 0, 65, 262.4243774414062
0, 0, 66, 276.7299194335938
0, 0, 67, 245.6907806396484
0, 0, 68, 258.2873229980469
0, 0, 69, 261.5310363769531
0, 0, 70, 274.5718078613281
0, 0, 71, 237.4857788085938
0, 0, 72, 250.8219299316406
0, 0, 73, 258.2466430664062
0, 0, 74, 251.9227447509766
0, 0, 75, 239.5204315185547
0, 0, 76, 229.8592071533203
0, 0, 77, 260.6817321777344
0, 0, 78, 257.0223083496094
0, 0, 79, 278.3328247070312
0, 0, 80, 215.1425628662109
0, 0, 81, 266.7174682617188
0, 0, 82, 256.8061828613281
0, 0, 83, 244.299072265625
0, 0, 84, 270.8406066894531
0, 0, 85, 231.1796112060547
0, 0, 86, 252.2274475097656
0, 0, 87, 251.6652221679688
0, 0, 88, 260.1666870117188
0, 0, 89, 282.5880737304688
0, 0, 90, 244.8722534179688
0, 0, 91, 281.0384826660156
0, 0, 92, 253.2774200439453
0, 0, 93, 248.9650421142578
0, 0, 94, 250.916259765625
0, 0, 95, 249.6956634521484
0, 0, 96, 275.0948181152344
0, 0, 97, 272.2720947265625
0, 0, 98, 272.7833862304688
0, 0, 99, 258.6802978515625
0, 0, 100, 258.8099975585938
0, 0, 101, 225.6746978759766
0, 0, 102, 234.0704040527344
0, 0, 103, 270.4186096191406
0, 0, 104, 254.1445922851562
0, 0, 105, 250.9092864990234
0, 0, 106, 246.0872039794922
0, 0, 107, 152.8192596435547
0, 0, 108, 40.09266662597656
0, 0, 109, 11.84269714355469
0, 0, 110, 12.90863132476807
0, 0, 111, 8.197055816650391
0, 0, 112, 7.056986808776855
0, 0, 113, 4.560718059539795
0, 0, 114, 5.984957218170166
0, 0, 115, 4.54519510269165
0, 0, 116, 5.775789737701416
0, 0, 117, 6.532650470733643
0, 0, 118, 7.507245540618896
0, 0, 119, 5.116454124450684
0, 0, 120, 2.410654544830322
0, 0, 121, 2.915841817855835
0, 0, 122, 4.258140563964844
0, 0, 123, 9.6461181640625
0, 0, 124, 6.296142578125
0, 0, 125, 3.891588449478149
0, 0, 126, 4.813222885131836
0, 0, 127, 2.228140830993652
0, 1, 0, 8.907848358154297
0, 1, 1, 2.572721242904663
0, 1, 2, 5.902199268341064
0, 1, 3, 1.845109581947327
0, 1, 4, 2.446654558181763
0, 1, 5, 3.613371610641479
0, 1, 6, 6.014147281646729
0, 1, 7, 2.933511734008789
0, 1, 8, 9.110774040222168
0, 1, 9, 4.091265201568604
0, 1, 10, 9.550256729125977
0, 1, 11, 10.55159282684326
0, 1, 12, 8.569250106811523
0, 1, 13, 10.05588436126709
0, 1, 14, 8.941317558288574
0, 1, 15, 7.622921943664551
0, 1, 16, 10.52685928344727
0, 1, 17, 10.35945129394531
0, 1, 18, 22.34966468811035
0, 1, 19, 67.46547698974609
0, 1, 20, 198.2364044189453
0, 1, 21, 255.1042633056641
0, 1, 22, 295.150390625
0, 1, 23, 283.8066101074219
0, 1, 24, 278.6650695800781
0, 1, 25, 286.8223876953125
0, 1, 26, 269.0886840820312
0, 1, 27, 307.0917663574219
0, 1, 28, 298.3767700195312
0, 1, 29, 295.1261596679688
0, 1, 30, 280.7198486328125
0, 1, 31, 290.5691833496094
0, 1, 32, 291.0894775390625
0, 1, 33, 295.5079345703125
0, 1, 34, 293.2549133300781
0, 1, 35, 278.2120666503906
0, 1, 36, 307.1946716308594
0, 1, 37, 294.6623229980469
0, 1, 38, 279.1155700683594
0, 1, 39, 295.8612976074219
0, 1, 40, 267.6354064941406
0, 1, 41, 286.2845153808594
0, 1, 42, 290.7879028320312
0, 1, 43, 332.7162170410156
0, 1, 44, 278.9268798828125
0, 1, 45, 291.6172485351562
0, 1, 46, 257.8677368164062
0, 1, 47, 310.0169982910156
0, 1, 48, 282.9060363769531
0, 1, 49, 303.2425537109375
0, 1, 50, 262.1261901855469
0, 1, 51, 271.0760192871094
0, 1, 52, 298.4434814453125
0, 1, 53, 304.1578063964844
0, 1, 54, 275.2477722167969
0, 1, 55, 293.5609741210938
0, 1, 56, 277.90966796875
0, 1, 57, 299.6500854492188
0, 1, 58, 312.0662841796875
0, 1, 59, 290.7979431152344
0, 1, 60, 298.2112426757812
0, 1, 61, 275.1400451660156
0, 1, 62, 310.0270690917969
0, 1, 63, 286.5283813476562
0, 1, 64, 292.5625
0, 1, 65, 297.2419738769531
0, 1, 66, 292.9673461914062
0, 1, 67, 290.5934753417969
0, 1, 68, 278.0701904296875
0, 1, 69, 280.6692810058594
0, 1, 70, 270.5958862304688
0, 1, 71, 275.0647583007812
0, 1, 72, 285.3037414550781
0, 1, 73, 305.0675048828125
0, 1, 74, 305.6707153320312
0, 1, 75, 290.7694396972656
0, 1, 76, 284.0403442382812
0, 1, 77, 291.0596923828125
0, 1, 78, 299.0447998046875
0, 1, 79, 303.4542541503906
0, 1, 80, 295.8120727539062
0, 1, 81, 300.7659606933594
0, 1, 82, 282.4020385742188
0, 1, 83, 329.8234558105469
0, 1, 84, 308.0899963378906
0, 1, 85, 257.5216674804688
0, 1, 86, 294.538330078125
0, 1, 87, 290.8225402832031
0, 1, 88, 299.3889770507812
0, 1, 89, 291.0947265625
0, 1, 90, 271.6116638183594
0, 1, 91, 317.9041137695312
0, 1, 92, 293.6036376953125
0, 1, 93, 286.0674438476562
0, 1, 94, 302.4803161621094
0, 1, 95, 284.6051635742188
0, 1, 96, 282.90234375
0, 1, 97, 302.0865478515625
0, 1, 98, 278.2457275390625
0, 1, 99, 265.1148681640625
0, 1, 100, 276.8117370605469
0, 1, 101, 281.3135070800781
0, 1, 102, 278.9385681152344
0, 1, 103, 281.6972351074219
0, 1, 104, 307.3427429199219
0, 1, 105, 296.7857360839844
0, 1, 106, 263.6956787109375
0, 1, 107, 190.3920288085938
0, 1, 108, 81.33499145507812
0, 1, 109, 25.82493782043457
0, 1, 110, 11.08752632141113
0, 1, 111, 8.761835098266602
0, 1, 112, 11.42465782165527
0, 1, 113, 4.908054351806641
0, 1, 114, 6.039044380187988
0, 1, 115, 7.768000602722168
0, 1, 116, 12.96321487426758
0, 1, 117, 8.256122589111328
0, 1, 118, 7.421463012695312
0, 1, 119, 9.345930099487305
0, 1, 120, 7.30556583404541
0, 1, 121, 3.136855363845825
0, 1, 122, 2.762510538101196
0, 1, 123, 3.376524209976196
0, 1, 124, 7.392322540283203
0, 1, 125, 3.042633295059204
0, 1, 126, 3.258081674575806
0, 1, 127, 1.710732698440552
0, 2, 0, 4.102635383605957
0, 2, 1, 2.100359439849854
0, 2, 2, 3.771900653839111
0, 2, 3, 5.335442066192627
0, 2, 4, 5.427183151245117
0, 2, 5, 1.833105683326721
0, 2, 6, 1.832205891609192
0, 2, 7, 4.38648509979248
0, 2, 8, 4.388429641723633
0, 2, 9, 4.92229175567627
0, 2, 10, 8.371346473693848
0, 2, 11, 6.583622932434082
0, 2, 12, 6.434532642364502
0, 2, 13, 9.718886375427246
0, 2, 14, 9.377667427062988
0, 2, 15, 7.041007995605469
0, 2, 16, 11.26440525054932
0, 2, 17, 18.01476287841797
0, 2, 18, 30.78577613830566
0, 2, 19, 115.0530395507812
0, 2, 20, 246.5888214111328
0, 2, 21, 270.815185546875
0, 2, 22, 316.8890686035156
0, 2, 23, 302.7673034667969
0, 2, 24, 286.1967163085938
0, 2, 25, 301.9083251953125
0, 2, 26, 291.5143127441406
0, 2, 27, 276.4364624023438
0, 2, 28, 274.9389343261719
0, 2, 29, 272.7356262207031
0, 2, 30, 292.023193359375
0, 2, 31, 278.6658630371094
0, 2, 32, 294.5272216796875
0, 2, 33, 280.9271240234375
0, 2, 34, 332.9588317871094
0, 2, 35, 288.13916015625
0, 2, 36, 305.0431518554688
0, 2, 37, 315.7085876464844
0, 2, 38, 311.8575134277344
0, 2, 39, 268.7560729980469
0, 2, 40, 309.0405883789062
0, 2, 41, 293.8421936035156
0, 2, 42, 304.8380126953125
0, 2, 43, 312.9577941894531
0, 2, 44, 311.0658874511719
0, 2, 45, 324.7180480957031
0, 2, 46, 286.6084899902344
0, 2, 47, 302.1100158691406
0, 2, 48, 281.30126953125
0, 2, 49, 280.2007141113281
0, 2, 50, 296.0820922851562
0, 2, 51, 283.0819396972656
0, 2, 52, 272.6932983398438
0, 2, 53, 288.3638000488281
0, 2, 54, 281.7979125976562
0, 2, 55, 278.0950927734375
0, 2, 56, 300.8692321777344
0, 2, 57, 291.369873046875
0, 2, 58, 303.4176025390625
0, 2, 59, 289.4197692871094
0, 2, 60, 318.9971923828125
0, 2, 61, 301.2918090820312
0, 2, 62, 314.3186950683594
0, 2, 63, 301.4052429199219
0, 2, 64, 297.0444641113281
0, 2, 65, 314.205810546875
0, 2, 66, 280.1828002929688
0, 2, 67, 288.9756469726562
0, 2, 68, 296.1305847167969
0, 2, 69, 310.1372680664062
0, 2, 70, 335.1347351074219
0, 2, 71, 284.70849609375
0, 2, 72, 299.4412231445312
0, 2, 73, 313.3092651367188
0, 2, 74, 286.0727233886719
0, 2, 75, 302.8187866210938
0, 2, 76, 289.6647033691406
0, 2, 77, 300.5823364257812
0, 2, 78, 317.4503479003906
0, 2, 79, 307.2066650390625
0, 2, 80, 295.5083618164062
0, 2, 81, 282.3370056152344
0, 2, 82, 318.8889465332031
0, 2, 83, 311.8460388183594
0, 2, 84, 288.1947021484375
0, 2, 85, 282.1029968261719
0, 2, 86, 325.8907165527344
0, 2, 87, 286.5589904785156
0, 2, 88, 280.5336608886719
0, 2, 89, 295.6816101074219
0, 2, 90, 295.6186828613281
0, 2, 91, 276.2548522949219
0, 2, 92, 305.6434326171875
0, 2, 93, 315.9212341308594
0, 2, 94, 290.0369567871094
0, 2, 95, 314.3789978027344
0, 2, 96, 315.6426086425781
0, 2, 97, 292.2577819824219
0, 2, 98, 292.9866027832031
0, 2, 99, 273.346435546875
0, 2, 100, 307.90185546875
0, 2, 101, 300.6579895019531
0, 2, 102, 297.8659362792969
0, 2, 103, 291.3577880859375
0, 2, 104, 292.9950866699219
0, 2, 105, 273.2313537597656
0, 2, 106, 296.5682678222656
0, 2, 107, 269.2630004882812
0, 2, 108, 115.6921081542969
0, 2, 109, 31.05845260620117
0, 2, 110, 9.50816535949707
0, 2, 111, 11.00477600097656
0, 2, 112, 6.922651767730713
0, 2, 113, 10.23131370544434
0, 2, 114, 9.488763809204102
0, 2, 115, 8.213958740234375
0, 2, 116, 9.132865905761719
0, 2, 117, 8.700135231018066
0, 2, 118, 4.898567199707031
0, 2, 119, 5.373721599578857
0, 2, 120, 7.121847629547119
0, 2, 121, 2.233912944793701
0, 2, 122, 5.564343452453613
0, 2, 123, 4.850850105285645
0, 2, 124, 4.55549955368042
0, 2, 125, 5.205696582794189
0, 2, 126, 2.171509981155396
0, 2, 127, 5.212104797363281
0, 3, 0, 3.768684387207031
0, 3, 1, 3.167023181915283
0, 3, 2, 3.224700212478638
0, 3, 3, 2.11983585357666
0, 3, 4, 3.900194644927979
0, 3, 5, 7.749826431274414
0, 3, 6, 6.717926502227783
0, 3, 7, 5.411137104034424
0, 3, 8, 5.135416507720947
0, 3, 9, 7.220942497253418
0, 3, 10, 4.10272216796875
0, 3, 11, 4.141712188720703
0, 3, 12, 7.656452655792236
0, 3, 13, 14.28725719451904
0, 3, 14, 10.32650279998779
0, 3, 15, 13.31993579864502
0, 3, 16, 12.56672763824463
0, 3, 17, 20.16314888000488
0, 3, 18, 55.33932495117188
0, 3, 19, 176.2632904052734
0, 3, 20, 269.4309692382812
0, 3, 21, 270.9954223632812
0, 3, 22, 281.5945739746094
0, 3, 23, 285.8529968261719
0, 3, 24, 285.943359375
0, 3, 25, 273.0597839355469
0, 3, 26, 304.5199890136719
0, 3, 27, 292.1697692871094
0, 3, 28, 288.4309997558594
0, 3, 29, 337.3716430664062
0, 3, 30, 316.8603210449219
0, 3, 31, 285.7506408691406
0, 3, 32, 306.3856506347656
0, 3, 33, 315.6766662597656
0, 3, 34, 321.6402282714844
0, 3, 35, 304.6330871582031
0, 3, 36, 270.6986999511719
0, 3, 37, 312.2541809082031
0, 3, 38, 303.0391540527344
0, 3, 39, 290.6988525390625
0, 3, 40, 270.0409240722656
0, 3, 41, 299.4686889648438
0, 3, 42, 283.4150695800781
0, 3, 43, 304.83642578125
0, 3, 44, 310.5178833007812
0, 3, 45, 289.4506530761719
0, 3, 46, 330.0595703125
0, 3, 47, 299.3629760742188
0, 3, 48, 303.6527709960938
0, 3, 49, 275.6700439453125
0, 3, 50, 293.5868530273438
0, 3, 51, 275.956298828125
0, 3, 52, 315.7535705566406
0, 3, 53, 288.7367553710938
0, 3, 54, 284.3416137695312
0, 3, 55, 284.3209533691406
0, 3, 56, 300.6473388671875
0, 3, 57, 289.1502990722656
0, 3, 58, 306.0619201660156
0, 3, 59, 294.1980285644531
0, 3, 60, 297.735107421875
0, 3, 61, 265.2447204589844
0, 3, 62, 284.5354614257812
0, 3, 63, 308.86474609375
0, 3, 64, 316.2834777832031
0, 3, 65, 305.1262817382812
0, 3, 66, 315.6039428710938
0, 3, 67, 318.700927734375
0, 3, 68, 281.2860717773438
0, 3, 69, 284.12548828125
0, 3, 70, 289.4447021484375
0, 3, 71, 300.7229919433594
0, 3, 72, 269.8300170898438
0, 3, 73, 309.9671936035156
0, 3, 74, 291.548095703125
0, 3, 75, 290.1121215820312
0, 3, 76, 304.9380798339844
0, 3, 77, 315.9732360839844
0, 3, 78, 306.5158081054688
0, 3, 79, 281.6869506835938
0, 3, 80, 292.2175903320312
0, 3, 81, 309.8383483886719
0, 3, 82, 317.1689147949219
0, 3, 83, 300.3582763671875
0, 3, 84, 313.7417602539062
0, 3, 85, 292.7582702636719
0, 3, 86, 301.8111572265625
0, 3, 87, 299.6307373046875
0, 3, 88, 298.3290710449219
0, 3, 89, 295.6741638183594
0, 3, 90, 274.1098937988281
0, 3, 91, 285.8939208984375
0, 3, 92, 305.0918273925781
0, 3, 93, 312.7294921875
0, 3, 94, 298.3367309570312
0, 3, 95, 334.51171875
0, 3, 96, 290.1931457519531
0, 3, 97, 284.5191955566406
0, 3, 98, 277.6404418945312
0, 3, 99, 261.0691833496094
0, 3, 100, 284.6102294921875
0, 3, 101, 297.0845031738281
0, 3, 102, 273.2907104492188
0, 3, 103, 318.222412109375
0, 3, 104, 307.7381896972656
0, 3, 105, 289.0841064453125
0, 3, 106, 302.4901428222656
0, 3, 107, 282.945556640625
0, 3, 108, 167.792724609375
0, 3, 109, 56.58201599121094
0, 3, 110, 17.24234580993652
0, 3, 111, 12.12704372406006
0, 3, 112, 14.59256076812744
0, 3, 113, 6.782245635986328
0, 3, 114, 9.360141754150391
0, 3, 115, 6.611475944519043
0, 3, 116, 7.58195686340332
0, 3, 117, 6.349419116973877
0, 3, 118, 5.510966777801514
0, 3, 119, 5.706644535064697
0, 3, 120, 7.713783740997314
0, 3, 121, 3.740680932998657
0, 3, 122, 2.553864240646362
0, 3, 123, 5.079547882080078
0, 3, 124, 5.134902954101562
0, 3, 125, 8.224505424499512
0, 3, 126, 6.120776176452637
0, 3, 127, 2.116338968276978
0, 4, 0, 3.715442180633545
0, 4, 1, 4.654889583587646
0, 4, 2, 2.523550510406494
0, 4, 3, 3.437633275985718
0, 4, 4, 6.02501106262207
0, 4, 5, 7.991291046142578
0, 4, 6, 9.387242317199707
0, 4, 7, 4.271057605743408
0, 4, 8, 3.883584976196289
0, 4, 9, 6.504659175872803
0, 4, 10, 7.39787483215332
0, 4, 11, 6.044015407562256
0, 4, 12, 6.463809967041016
0, 4, 13, 10.50882339477539
0, 4, 14, 13.36441612243652
0, 4, 15, 12.33252048492432
0, 4, 16, 14.84087085723877
0, 4, 17, 19.38513946533203
0, 4, 18, 95.75560760498047
0, 4, 19, 222.8358001708984
0, 4, 20, 284.7384338378906
0, 4, 21, 273.277587890625
0, 4, 22, 303.9981079101562
0, 4, 23, 265.9493103027344
0, 4, 24, 289.1416015625
0, 4, 25, 273.1962890625
0, 4, 26, 293.6142578125
0, 4, 27, 281.6201782226562
0, 4, 28, 306.0066833496094
0, 4, 29, 322.7794799804688
0, 4, 30, 309.1395263671875
0, 4, 31, 303.247314453125
0, 4, 32, 280.8365783691406
0, 4, 33, 295.3890686035156
0, 4, 34, 296.5628967285156
0, 4, 35, 311.7383422851562
0, 4, 36, 289.8643188476562
0, 4, 37, 290.2205200195312
0, 4, 38, 299.8406982421875
0, 4, 39, 295.1783142089844
0, 4, 40, 302.8531494140625
0, 4, 41, 312.171142578125
0, 4, 42, 328.6251220703125
0, 4, 43, 299.1890869140625
0, 4, 44, 320.6153259277344
0, 4, 45, 322.9407653808594
0, 4, 46, 304.5469055175781
0, 4, 47, 294.4063415527344
0, 4, 48, 296.1752014160156
0, 4, 49, 278.6269226074219
0, 4, 50, 298.7295532226562
0, 4, 51, 316.5945434570312
0, 4, 52, 325.6318359375
0, 4, 53, 304.9729614257812
0, 4, 54, 287.7625732421875
0, 4, 55, 315.7255859375
0, 4, 56, 288.0193786621094
0, 4, 57, 309.9096984863281
0, 4, 58, 294.1018981933594
0, 4, 59, 312.9871215820312
0, 4, 60, 301.8984680175781
0, 4, 61, 314.8567199707031
0, 4, 62, 307.0961608886719
0, 4, 63, 297.0699768066406
0, 4, 64, 329.5680847167969
0, 4, 65, 314.9034118652344
0, 4, 66, 294.4829711914062
0, 4, 67, 285.04296875
0, 4, 68, 312.6983642578125
0, 4, 69, 276.5377502441406
0, 4, 70, 299.066650390625
0, 4, 71, 321.8127136230469
0, 4, 72, 333.3871154785156
0, 4, 73, 298.7360229492188
0, 4, 74, 292.4387512207031
0, 4, 75, 289.9408874511719
0, 4, 76, 276.2756958007812
0, 4, 77, 278.2576599121094
0, 4, 78, 312.3740539550781
0, 4, 79, 319.6901550292969
0, 4, 80, 314.4539794921875
0, 4, 81, 312.2709045410156
0, 4, 82, 297.7095336914062
0, 4, 83, 302.6055603027344
0, 4, 84, 291.6913757324219
0, 4, 85, 295.9981994628906
0, 4, 86, 296.8500061035156
0, 4, 87, 287.9781799316406
0, 4, 88, 307.4468688964844
0, 4, 89, 295.5024108886719
0, 4, 90, 333.1172485351562
0, 4, 91, 301.2644653320312
0, 4, 92, 291.3615112304688
0, 4, 93, 297.7528686523438
0, 4, 94, 294.7938232421875
0, 4, 95, 288.7129211425781
0, 4, 96, 324.2541809082031
0, 4, 97, 274.8670959472656
0, 4, 98, 325.8282165527344
0, 4, 99, 313.7768249511719
0, 4, 100, 299.956787109375
0, 4, 101, 257.4712524414062
0, 4, 102, 295.4288940429688
0, 4, 103, 318.5335388183594
0, 4, 104, 280.1607055664062
0, 4, 105, 313.1161499023438
0, 4, 106, 287.5328979492188
0, 4, 107, 295.08056640625
0, 4, 108, 224.7088012695312
0, 4, 109, 80.23500823974609
0, 4, 110, 16.18180084228516
0, 4, 111, 13.2366771697998
0, 4, 112, 8.671219825744629
0, 4, 113, 10.41945648193359
0, 4, 114, 11.18571186065674
0, 4, 115, 10.6308650970459
0, 4, 116, 6.9383544921875
0, 4, 117, 7.831619262695312
0, 4, 118, 11.86246299743652
0, 4, 119, 9.633918762207031
0, 4, 120, 7.068603038787842
0, 4, 121, 4.718167304992676
0, 4, 122, 4.490427017211914
0, 4, 123, 5.576166152954102
0, 4, 124, 5.948966026306152
0, 4, 125, 10.44667911529541
0, 4, 126, 4.916091918945312
0, 4, 127, 3.731468915939331
0, 5, 0, 4.22917652130127
0, 5, 1, 3.860268592834473
0, 5, 2, 4.663359642028809
0, 5, 3, 4.45610523223877
0, 5, 4, 6.509996891021729
0, 5, 5, 6.535704135894775
0, 5, 6, 6.416984081268311
0, 5, 7, 6.582409858703613
0, 5, 8, 4.264843940734863
0, 5, 9, 6.955809116363525
0, 5, 10, 8.696928977966309
0, 5, 11, 7.293144702911377
0, 5, 12, 10.84367275238037
0, 5, 13, 6.242410659790039
0, 5, 14, 11.40597343444824
0, 5, 15, 17.28330421447754
0, 5, 16, 14.56112194061279
0, 5, 17, 29.68235206604004
0, 5, 18, 136.9791259765625
0, 5, 19, 288.7532348632812
0, 5, 20, 305.603271484375
0, 5, 21, 316.4554443359375
0, 5, 22, 275.5857543945312
0, 5, 23, 314.1288757324219
0, 5, 24, 301.6593933105469
0, 5, 25, 289.8178405761719
0, 5, 26, 294.0379638671875
0, 5, 27, 321.0306396484375
0, 5, 28, 301.4755249023438
0, 5, 29, 297.4247741699219
0, 5, 30, 326.0361633300781
0, 5, 31, 285.3261108398438
0, 5, 32, 301.4999694824219
0, 5, 33, 302.7610778808594
0, 5, 34, 297.6446533203125
0, 5, 35, 311.8188171386719
0, 5, 36, 271.2673034667969
0, 5, 37, 287.91748046875
0, 5, 38, 292.5812377929688
0, 5, 39, 314.3515625
0, 5, 40, 308.5579223632812
0, 5, 41, 276.8645935058594
0, 5, 42, 307.6908569335938
0, 5, 43, 314.2892761230469
0, 5, 44, 290.5429382324219
0, 5, 45, 303.7250366210938
0, 5, 46, 266.176513671875
0, 5, 47, 279.6529235839844
0, 5, 48, 292.9212341308594
0, 5, 49, 286.0515747070312
0, 5, 50, 295.5809631347656
0, 5, 51, 281.3255920410156
0, 5, 52, 269.1127319335938
0, 5, 53, 283.4142150878906
0, 5, 54, 292.1141662597656
0, 5, 55, 346.0592041015625
0, 5, 56, 304.638427734375
0, 5, 57, 309.1429138183594
0, 5, 58, 312.85205078125
0, 5, 59, 303.2204284667969
0, 5, 60, 307.3512878417969
0, 5, 61, 283.4617919921875
0, 5, 62, 325.3074340820312
0, 5, 63, 292.8904418945312
0, 5, 64, 323.8525695800781
0, 5, 65, 307.1028747558594
0, 5, 66, 328.0443725585938
0, 5, 67, 313.3609313964844
0, 5, 68, 306.2428894042969
0, 5, 69, 314.2975463867188
0, 5, 70, 299.3395080566406
0, 5, 71, 272.3860473632812
0, 5, 72, 309.4400939941406
0, 5, 73, 303.4791870117188
0, 5, 74, 294.6559448242188
0, 5, 75, 295.9256591796875
0, 5, 76, 286.8161010742188
0, 5, 77, 299.7695617675781
0, 5, 78, 312.2557983398438
0, 5, 79, 308.1778564453125
0, 5, 80, 295.8720092773438
0, 5, 81, 324.8048706054688
0, 5, 82, 323.7655334472656
0, 5, 83, 280.466552734375
0, 5, 84, 303.6202392578125
0, 5, 85, 272.8748474121094
0, 5, 86, 325.5246887207031
0, 5, 87, 284.3952026367188
0, 5, 88, 313.3002014160156
0, 5, 89, 304.224853515625
0, 5, 90, 316.2112426757812
0, 5, 91, 314.3572082519531
0, 5, 92, 298.0592956542969
0, 5, 93, 323.4238586425781
0, 5, 94, 310.9070739746094
0, 5, 95, 298.4000549316406
0, 5, 96, 299.5040893554688
0, 5, 97, 296.135986328125
0, 5, 98, 318.0556640625
0, 5, 99, 303.8728332519531
0, 5, 100, 289.722900390625
0, 5, 101, 307.9113464355469
0, 5, 102, 291.7132263183594
0, 5, 103, 314.87841796875
0, 5, 104, 303.7180786132812
0, 5, 105, 290.0916748046875
0, 5, 106, 281.4451293945312
0, 5, 107, 293.943359375
0, 5, 108, 263.7856750488281
0, 5, 109, 155.2182922363281
0, 5, 110, 42.07357025146484
0, 5, 111, 21.92413520812988
0, 5, 112, 14.96747970581055
0, 5, 113, 15.1677713394165
0, 5, 114, 14.87541389465332
0, 5, 115, 7.466393947601318
0, 5, 116, 7.729288578033447
0, 5, 117, 5.813464641571045
0, 5, 118, 13.14259910583496
0, 5, 119, 5.220077037811279
0, 5, 120, 4.55150318145752
0, 5, 121, 4.24725866317749
0, 5, 122, 6.718833446502686
0, 5, 123, 3.624168872833252
0, 5, 124, 7.09117603302002
0, 5, 125, 6.585814476013184
0, 5, 126, 5.575928688049316
0, 5, 127, 3.982049942016602
0, 6, 0, 5.116320133209229
0, 6, 1, 4.218021869659424
0, 6, 2, 5.669175624847412
0, 6, 3, 4.205265045166016
0, 6, 4, 2.973708391189575
0, 6, 5, 5.007596015930176
0, 6, 6, 7.32533073425293
0, 6, 7, 6.787904262542725
0, 6, 8, 7.637169361114502
0, 6, 9, 5.479137897491455
0, 6, 10, 7.428559303283691
0, 6, 11, 8.31017017364502
0, 6, 12, 9.077961921691895
0, 6, 13, 12.53152656555176
0, 6, 14, 8.389093399047852
0, 6, 15, 17.4287166595459
0, 6, 16, 27.10182571411133
0, 6, 17, 55.32796096801758
0, 6, 18, 174.4379730224609
0, 6, 19, 275.9048461914062
0, 6, 20, 289.8667297363281
0, 6, 21, 314.5011291503906
0, 6, 22, 320.1999816894531
0, 6, 23, 304.9667053222656
0, 6, 24, 317.3194885253906
0, 6, 25, 316.0687255859375
0, 6, 26, 319.1522216796875
0, 6, 27, 331.4511413574219
0, 6, 28, 295.7481384277344
0, 6, 29, 332.2649536132812
0, 6, 30, 280.1424865722656
0, 6, 31, 288.7728576660156
0, 6, 32, 342.9420471191406
0, 6, 33, 304.4969787597656
0, 6, 34, 339.3074951171875
0, 6, 35, 319.6670227050781
0, 6, 36, 274.6128540039062
0, 6, 37, 291.2896118164062
0, 6, 38, 310.3555908203125
0, 6, 39, 298.1907958984375
0, 6, 40, 286.8698425292969
0, 6, 41, 294.541015625
0, 6, 42, 303.7863159179688
0, 6, 43, 287.3275756835938
0, 6, 44, 279.5058898925781
0, 6, 45, 318.0559387207031
0, 6, 46, 301.6494445800781
0, 6, 47, 332.76611328125
0, 6, 48, 292.6734313964844
0, 6, 49, 312.6622619628906
0, 6, 50, 327.7278137207031
0, 6, 51, 310.5576477050781
0, 6, 52, 321.2408142089844
0, 6, 53, 330.5479125976562
0, 6, 54, 302.9402160644531
0, 6, 55, 305.9101867675781
0, 6, 56, 295.6122131347656
0, 6, 57, 312.6092224121094
0, 6, 58, 260.838623046875
0, 6, 59, 301.2023315429688
0, 6, 60, 312.874267578125
0, 6, 61, 272.8441772460938
0, 6, 62, 337.9103088378906
0, 6, 63, 323.5796508789062
0, 6, 64, 290.2582702636719
0, 6, 65, 286.4231567382812
0, 6, 66, 304.6018981933594
0, 6, 67, 310.1338806152344
0, 6, 68, 294.6417541503906
0, 6, 69, 279.3504638671875
0, 6, 70, 273.8586730957031
0, 6, 71, 288.8321533203125
0, 6, 72, 310.5824890136719
0, 6, 73, 292.143310546875
0, 6, 74, 329.9333801269531
0, 6, 75, 343.8427429199219
0, 6, 76, 296.9125671386719
0, 6, 77, 285.9812622070312
0, 6, 78, 277.4322509765625
0, 6, 79, 292.6002502441406
0, 6, 80, 300.1038208007812
0, 6, 81, 314.7304992675781
0, 6, 82, 319.0550537109375
0, 6, 83, 320.5064086914062
0, 6, 84, 295.8443908691406
0, 6, 85, 301.1703796386719
0, 6, 86, 329.3663635253906
0, 6, 87, 290.0189819335938
0, 6, 88, 308.1965026855469
0, 6, 89, 304.1470031738281
0, 6, 90, 299.1896667480469
0, 6, 91, 313.5692443847656
0, 6, 92, 284.3782348632812
0, 6, 93, 294.9306945800781
0, 6, 94, 273.0340270996094
0, 6, 95, 298.6698608398438
0, 6, 96, 344.6420288085938
0, 6, 97, 307.7159423828125
0, 6, 98, 301.9546813964844
0, 6, 99, 269.0440063476562
0, 6, 100, 309.7430419921875
0, 6, 101, 292.7936706542969
0, 6, 102, 306.9571838378906
0, 6, 103, 308.6177062988281
0, 6, 104, 292.7990112304688
0, 6, 105, 301.8899230957031
0, 6, 106, 308.8912658691406
0, 6, 107, 306.0704650878906
0, 6, 108, 265.88232421875
0, 6, 109, 185.9879150390625
0, 6, 110, 54.26460647583008
0, 6, 111, 23.19803428649902
0, 6, 112, 14.71919441223145
0, 6, 113, 9.732583999633789
0, 6, 114, 12.09600448608398
0, 6, 115, 10.79996204376221
0, 6, 116, 9.980463981628418
0, 6, 117, 5.503599643707275
0, 6, 118, 11.45859622955322
0, 6, 119, 10.31272315979004
0, 6, 120, 5.715848445892334
0, 6, 121, 6.278993606567383
0, 6, 122, 7.641730308532715
0, 6, 123, 5.211633205413818
0, 6, 124, 6.152440547943115
0, 6, 125, 6.335326671600342
0, 6, 126, 4.151256561279297
0, 6, 127, 7.863173484802246
0, 7, 0, 8.541520118713379
0, 7, 1, 3.133732557296753
0, 7, 2, 4.629611015319824
0, 7, 3, 3.28072452545166
0, 7, 4, 3.4400634765625
0, 7, 5, 5.620349407196045
0, 7, 6, 8.756424903869629
0, 7, 7, 7.796083927154541
0, 7, 8, 4.984632015228271
0, 7, 9, 8.07459545135498
0, 7, 10, 9.038362503051758
0, 7, 11, 14.51525783538818
0, 7, 12, 9.158317565917969
0, 7, 13, 11.56350135803223
0, 7, 14, 10.37056732177734
0, 7, 15, 17.03441429138184
0, 7, 16, 26.12277221679688
0, 7, 17, 96.21874237060547
0, 7, 18, 218.5431976318359
0, 7, 19, 289.3565368652344
0, 7, 20, 296.3785705566406
0, 7, 21, 275.9579467773438
0, 7, 22, 299.328369140625
0, 7, 23, 288.8656921386719
0, 7, 24, 313.033935546875
0, 7, 25, 325.1397094726562
0, 7, 26, 278.5719909667969
0, 7, 27, 297.2293701171875
0, 7, 28, 325.4209289550781
0, 7, 29, 318.1578063964844
0, 7, 30, 299.4253845214844
0, 7, 31, 278.2518310546875
0, 7, 32, 306.2969055175781
0, 7, 33, 263.7183532714844
0, 7, 34, 298.7784729003906
0, 7, 35, 318.0473937988281
0, 7, 36, 331.4041748046875
0, 7, 37, 322.3005981445312
0, 7, 38, 297.8325500488281
0, 7, 39, 305.5528869628906
0, 7, 40, 288.6222839355469
0, 7, 41, 272.9954223632812
0, 7, 42, 302.1823120117188
0, 7, 43, 274.1004638671875
0, 7, 44, 304.37939453125
0, 7, 45, 295.7777099609375
0, 7, 46, 281.1947631835938
0, 7, 47, 329.0446472167969
0, 7, 48, 284.8093566894531
0, 7, 49, 302.4171447753906
0, 7, 50, 321.8153686523438
0, 7, 51, 298.3626403808594
0, 7, 52, 326.39501953125
0, 7, 53, 308.6224365234375
0, 7, 54, 322.5430908203125
0, 7, 55, 306.2270202636719
0, 7, 56, 278.5337219238281
0, 7, 57, 281.9820861816406
0, 7, 58, 295.9848022460938
0, 7, 59, 294.4924621582031
0, 7, 60, 323.2759094238281
0, 7, 61, 276.4615478515625
0, 7, 62, 297.0791931152344
0, 7, 63, 294.3533630371094
0, 7, 64, 307.7242431640625
0, 7, 65, 330.6513671875
0, 7, 66, 319.6946716308594
0, 7, 67, 302.0042419433594
0, 7, 68, 280.3279418945312
0, 7, 69, 293.6098022460938
0, 7, 70, 301.9900207519531
0, 7, 71, 308.3154602050781
0, 7, 72, 285.8144836425781
0, 7, 73, 295.6727294921875
0, 7, 74, 346.7973937988281
0, 7, 75, 319.48193359375
0, 7, 76, 322.1410522460938
0, 7, 77, 283.0722045898438
0, 7, 78, 302.7698669433594
0, 7, 79, 300.3546142578125
0, 7, 80, 312.1138305664062
0, 7, 81, 318.7987060546875
0, 7, 82, 327.9726257324219
0, 7, 83, 317.1393127441406
0, 7, 84, 310.5951538085938
0, 7, 85, 272.738525390625
0, 7, 86, 312.8272094726562
0, 7, 87, 310.3293762207031
0, 7, 88, 309.9725952148438
0, 7, 89, 291.8056335449219
0, 7, 90, 307.1306457519531
0, 7, 91, 315.9052734375
0, 7, 92, 286.1533813476562
0, 7, 93, 307.4779357910156
0, 7, 94, 272.8908081054688
0, 7, 95, 296.6134033203125
0, 7, 96, 331.4556579589844
0, 7, 97, 295.3235473632812
0, 7, 98, 292.2191772460938
0, 7, 99, 312.500732421875
0, 7, 100, 281.9684448242188
0, 7, 101, 274.1680603027344
0, 7, 102, 291.1578063964844
0, 7, 103, 293.4370422363281
0, 7, 104, 275.784912109375
0, 7, 105, 306.7312316894531
0, 7, 106, 317.9772338867188
0, 7, 107, 297.054931640625
0, 7, 108, 273.8274230957031
0, 7, 109, 235.6349792480469
0, 7, 110, 95.91246032714844
0, 7, 111, 24.41813850402832
0, 7, 112, 12.19543170928955
0, 7, 113, 14.99855709075928
0, 7, 114, 12.81044673919678
0, 7, 115, 13.66536903381348
0, 7, 116, 9.075196266174316
0, 7, 117, 6.593623161315918
0, 7, 118, 8.047934532165527
0, 7, 119, 6.016330242156982
0, 7, 120, 4.736508369445801
0, 7, 121, 7.700956344604492
0, 7, 122, 6.160353660583496
0, 7, 123, 5.735568523406982
0, 7, 124, 3.441208124160767
0, 7, 125, 4.81746768951416
0, 7, 126, 7.283924102783203
0, 7, 127, 3.232182502746582
0, 8, 0, 5.739743709564209
0, 8, 1, 3.359935283660889
0, 8, 2, 2.383228778839111
0, 8, 3, 2.833249092102051
0, 8, 4, 4.584092617034912
0, 8, 5, 5.084033489227295
0, 8, 6, 4.230666637420654
0, 8, 7, 6.166956424713135
0, 8, 8, 7.838480472564697
0, 8, 9, 5.607748985290527
0, 8, 10, 7.914218902587891
0, 8, 11, 11.92896270751953
0, 8, 12, 13.20574474334717
0, 8, 13, 14.99341201782227
0, 8, 14, 13.60933113098145
0, 8, 15, 17.1695556640625
0, 8, 16, 34.18571090698242
0, 8, 17, 131.4070739746094
0, 8, 18, 243.2367553710938
0, 8, 19, 293.3700561523438
0, 8, 20, 285.1225891113281
0, 8, 21, 306.4910278320312
0, 8, 22, 295.1348266601562
0, 8, 23, 274.2354431152344
0, 8, 24, 269.2935180664062
0, 8, 25, 274.6285705566406
0, 8, 26, 305.9259033203125
0, 8, 27, 307.3384704589844
0, 8, 28, 305.3327026367188
0, 8, 29, 320.6041870117188
0, 8, 30, 315.9719848632812
0, 8, 31, 304.7756042480469
0, 8, 32, 280.2181091308594
0, 8, 33, 296.3272094726562
0, 8, 34, 289.3694152832031
0, 8, 35, 283.2131042480469
0, 8, 36, 315.66845703125
0, 8, 37, 337.8174438476562
0, 8, 38, 331.9697875976562
0, 8, 39, 282.6691589355469
