# TOPAS Version: 3.1.p3
# Parameter File: batch_inserts_16.txt
# Results for scorer Readout_Adipose
# Scored in component: MyBox
# X in 1 bin  of 0.75 cm
# Y in 512 bins of 0.0783984 cm
# Z in 128 bins of 0.078125 cm
# EnergyDeposit ( MeV ) : Sum   
0, 0, 0, 2.607954978942871
0, 0, 1, 2.018062114715576
0, 0, 2, 4.204787254333496
0, 0, 3, 1.842001080513
0, 0, 4, 2.9612877368927
0, 0, 5, 2.998290061950684
0, 0, 6, 7.296095848083496
0, 0, 7, 10.95737361907959
0, 0, 8, 4.137106418609619
0, 0, 9, 4.275248527526855
0, 0, 10, 8.424785614013672
0, 0, 11, 4.034327983856201
0, 0, 12, 4.762678146362305
0, 0, 13, 6.739051818847656
0, 0, 14, 8.371440887451172
0, 0, 15, 10.21751689910889
0, 0, 16, 8.330296516418457
0, 0, 17, 8.288949012756348
0, 0, 18, 13.54872894287109
0, 0, 19, 46.3633918762207
0, 0, 20, 140.7510681152344
0, 0, 21, 224.2198181152344
0, 0, 22, 248.425537109375
0, 0, 23, 256.3974609375
0, 0, 24, 250.7499694824219
0, 0, 25, 259.0213317871094
0, 0, 26, 236.0472412109375
0, 0, 27, 237.5764007568359
0, 0, 28, 272.9132385253906
0, 0, 29, 252.5428466796875
0, 0, 30, 229.3942260742188
0, 0, 31, 243.1426849365234
0, 0, 32, 263.8615112304688
0, 0, 33, 262.4393615722656
0, 0, 34, 287.2536010742188
0, 0, 35, 266.3154907226562
0, 0, 36, 248.4440307617188
0, 0, 37, 251.7635345458984
0, 0, 38, 270.3598937988281
0, 0, 39, 230.1700897216797
0, 0, 40, 242.6897277832031
0, 0, 41, 265.8609008789062
0, 0, 42, 230.0420989990234
0, 0, 43, 259.95556640625
0, 0, 44, 251.8154144287109
0, 0, 45, 253.3389739990234
0, 0, 46, 243.4849243164062
0, 0, 47, 252.7881164550781
0, 0, 48, 267.7956848144531
0, 0, 49, 274.8735961914062
0, 0, 50, 250.7698211669922
0, 0, 51, 254.4624328613281
0, 0, 52, 273.8885803222656
0, 0, 53, 290.943603515625
0, 0, 54, 241.9654693603516
0, 0, 55, 239.1973571777344
0, 0, 56, 276.9258728027344
0, 0, 57, 262.7465515136719
0, 0, 58, 245.5083618164062
0, 0, 59, 269.9979858398438
0, 0, 60, 235.4106750488281
0, 0, 61, 245.1680145263672
0, 0, 62, 255.0901641845703
0, 0, 63, 265.3700561523438
0, 0, 64, 256.3447570800781
0, 0, 65, 261.4240417480469
0, 0, 66, 276.7582702636719
0, 0, 67, 246.0372772216797
0, 0, 68, 259.5967712402344
0, 0, 69, 264.1398620605469
0, 0, 70, 273.2488098144531
0, 0, 71, 237.7635955810547
0, 0, 72, 250.439208984375
0, 0, 73, 256.47802734375
0, 0, 74, 251.6767578125
0, 0, 75, 240.1283264160156
0, 0, 76, 228.4058074951172
0, 0, 77, 260.3631896972656
0, 0, 78, 255.9814453125
0, 0, 79, 275.974853515625
0, 0, 80, 218.5791931152344
0, 0, 81, 266.8389892578125
0, 0, 82, 257.7682189941406
0, 0, 83, 245.6719055175781
0, 0, 84, 270.6375732421875
0, 0, 85, 231.9989929199219
0, 0, 86, 254.3397369384766
0, 0, 87, 250.6335144042969
0, 0, 88, 260.1135864257812
0, 0, 89, 284.780029296875
0, 0, 90, 244.9757690429688
0, 0, 91, 281.464599609375
0, 0, 92, 252.8107299804688
0, 0, 93, 249.6375732421875
0, 0, 94, 250.5978851318359
0, 0, 95, 247.0813598632812
0, 0, 96, 273.9789428710938
0, 0, 97, 273.2448120117188
0, 0, 98, 273.8435363769531
0, 0, 99, 259.7945861816406
0, 0, 100, 259.9633178710938
0, 0, 101, 227.8698883056641
0, 0, 102, 233.0142364501953
0, 0, 103, 269.3836669921875
0, 0, 104, 253.0391998291016
0, 0, 105, 251.6468658447266
0, 0, 106, 246.4510803222656
0, 0, 107, 152.6544952392578
0, 0, 108, 37.41662216186523
0, 0, 109, 11.87765407562256
0, 0, 110, 14.11717224121094
0, 0, 111, 8.181144714355469
0, 0, 112, 8.883563041687012
0, 0, 113, 4.460978507995605
0, 0, 114, 5.635928153991699
0, 0, 115, 7.355810165405273
0, 0, 116, 5.87513542175293
0, 0, 117, 5.421342849731445
0, 0, 118, 6.72174596786499
0, 0, 119, 5.554064273834229
0, 0, 120, 2.325831651687622
0, 0, 121, 4.361176013946533
0, 0, 122, 4.547342300415039
0, 0, 123, 3.754956483840942
0, 0, 124, 4.029196262359619
0, 0, 125, 1.817378997802734
0, 0, 126, 4.549426078796387
0, 0, 127, 3.941137790679932
0, 1, 0, 7.174415588378906
0, 1, 1, 3.395638227462769
0, 1, 2, 3.958641767501831
0, 1, 3, 1.364849090576172
0, 1, 4, 3.356032848358154
0, 1, 5, 2.498273372650146
0, 1, 6, 4.852792263031006
0, 1, 7, 2.211795330047607
0, 1, 8, 6.643541812896729
0, 1, 9, 4.034981727600098
0, 1, 10, 8.517041206359863
0, 1, 11, 12.36600399017334
0, 1, 12, 7.835552215576172
0, 1, 13, 10.23685550689697
0, 1, 14, 7.053268432617188
0, 1, 15, 7.717174530029297
0, 1, 16, 12.06578922271729
0, 1, 17, 13.48299503326416
0, 1, 18, 20.00489044189453
0, 1, 19, 69.28961181640625
0, 1, 20, 202.8918304443359
0, 1, 21, 255.7820434570312
0, 1, 22, 297.0658874511719
0, 1, 23, 282.6995544433594
0, 1, 24, 274.3440551757812
0, 1, 25, 287.3809204101562
0, 1, 26, 268.4267883300781
0, 1, 27, 305.4620971679688
0, 1, 28, 301.1285705566406
0, 1, 29, 295.8168334960938
0, 1, 30, 279.0306091308594
0, 1, 31, 292.9581604003906
0, 1, 32, 291.0501403808594
0, 1, 33, 295.1991577148438
0, 1, 34, 292.0454711914062
0, 1, 35, 277.4871215820312
0, 1, 36, 307.1453247070312
0, 1, 37, 296.0031127929688
0, 1, 38, 280.0155944824219
0, 1, 39, 296.441162109375
0, 1, 40, 266.0849914550781
0, 1, 41, 285.8034362792969
0, 1, 42, 288.983642578125
0, 1, 43, 330.7572937011719
0, 1, 44, 277.5103149414062
0, 1, 45, 291.9007263183594
0, 1, 46, 258.3356018066406
0, 1, 47, 310.871826171875
0, 1, 48, 284.2619934082031
0, 1, 49, 303.4625244140625
0, 1, 50, 264.6894226074219
0, 1, 51, 272.5274658203125
0, 1, 52, 297.2918701171875
0, 1, 53, 305.6237487792969
0, 1, 54, 274.0246887207031
0, 1, 55, 293.1828308105469
0, 1, 56, 277.7296752929688
0, 1, 57, 298.4672546386719
0, 1, 58, 310.8761596679688
0, 1, 59, 294.2413330078125
0, 1, 60, 296.4031982421875
0, 1, 61, 276.0200500488281
0, 1, 62, 308.2208251953125
0, 1, 63, 286.7543334960938
0, 1, 64, 288.70751953125
0, 1, 65, 294.4639587402344
0, 1, 66, 295.0969848632812
0, 1, 67, 294.4888610839844
0, 1, 68, 277.1050415039062
0, 1, 69, 279.6278381347656
0, 1, 70, 271.5717468261719
0, 1, 71, 275.1782531738281
0, 1, 72, 285.5309753417969
0, 1, 73, 305.2183837890625
0, 1, 74, 304.9166564941406
0, 1, 75, 292.7544860839844
0, 1, 76, 284.8462524414062
0, 1, 77, 288.1745300292969
0, 1, 78, 301.5324401855469
0, 1, 79, 301.0163269042969
0, 1, 80, 297.5348205566406
0, 1, 81, 300.2922668457031
0, 1, 82, 287.719482421875
0, 1, 83, 331.4704895019531
0, 1, 84, 308.3501586914062
0, 1, 85, 251.5318450927734
0, 1, 86, 295.8709106445312
0, 1, 87, 289.7239990234375
0, 1, 88, 300.1914978027344
0, 1, 89, 289.0223693847656
0, 1, 90, 269.19775390625
0, 1, 91, 317.6503601074219
0, 1, 92, 291.8198547363281
0, 1, 93, 286.6982421875
0, 1, 94, 307.5816955566406
0, 1, 95, 283.5844116210938
0, 1, 96, 282.2785034179688
0, 1, 97, 299.7144165039062
0, 1, 98, 276.1633605957031
0, 1, 99, 265.1257629394531
0, 1, 100, 277.3936767578125
0, 1, 101, 281.9715576171875
0, 1, 102, 276.7592468261719
0, 1, 103, 280.9151000976562
0, 1, 104, 306.1149291992188
0, 1, 105, 296.1344604492188
0, 1, 106, 260.6867370605469
0, 1, 107, 190.9374237060547
0, 1, 108, 81.08515167236328
0, 1, 109, 22.360107421875
0, 1, 110, 10.60966682434082
0, 1, 111, 7.826995849609375
0, 1, 112, 12.65613555908203
0, 1, 113, 5.364673137664795
0, 1, 114, 8.171115875244141
0, 1, 115, 6.952428340911865
0, 1, 116, 11.33554553985596
0, 1, 117, 6.466734409332275
0, 1, 118, 3.997678279876709
0, 1, 119, 6.863092422485352
0, 1, 120, 6.735756874084473
0, 1, 121, 4.326926708221436
0, 1, 122, 3.503098011016846
0, 1, 123, 4.450692653656006
0, 1, 124, 7.505397796630859
0, 1, 125, 2.779834508895874
0, 1, 126, 4.271263599395752
0, 1, 127, 1.391018033027649
0, 2, 0, 2.964757680892944
0, 2, 1, 2.582153797149658
0, 2, 2, 2.9731285572052
0, 2, 3, 5.042344570159912
0, 2, 4, 5.003701210021973
0, 2, 5, 1.232464194297791
0, 2, 6, 1.757729649543762
0, 2, 7, 3.436655044555664
0, 2, 8, 3.955271244049072
0, 2, 9, 6.038613319396973
0, 2, 10, 7.277882099151611
0, 2, 11, 7.006669521331787
0, 2, 12, 6.754937171936035
0, 2, 13, 9.923707962036133
0, 2, 14, 10.2081356048584
0, 2, 15, 9.18104362487793
0, 2, 16, 9.607465744018555
0, 2, 17, 17.52260208129883
0, 2, 18, 32.27604675292969
0, 2, 19, 115.4942474365234
0, 2, 20, 246.6334686279297
0, 2, 21, 271.3801879882812
0, 2, 22, 315.4823303222656
0, 2, 23, 300.68798828125
0, 2, 24, 286.0713195800781
0, 2, 25, 306.0516357421875
0, 2, 26, 291.8305969238281
0, 2, 27, 276.8401184082031
0, 2, 28, 272.9750671386719
0, 2, 29, 274.8935546875
0, 2, 30, 292.4882507324219
0, 2, 31, 278.1049499511719
0, 2, 32, 293.3835144042969
0, 2, 33, 281.1084899902344
0, 2, 34, 330.4671020507812
0, 2, 35, 292.830078125
0, 2, 36, 305.6166381835938
0, 2, 37, 317.1762084960938
0, 2, 38, 309.5969543457031
0, 2, 39, 267.4998779296875
0, 2, 40, 310.1702575683594
0, 2, 41, 292.1076354980469
0, 2, 42, 304.6194458007812
0, 2, 43, 310.7713317871094
0, 2, 44, 315.2975158691406
0, 2, 45, 324.7564086914062
0, 2, 46, 287.131103515625
0, 2, 47, 303.1494445800781
0, 2, 48, 281.2669372558594
0, 2, 49, 281.850341796875
0, 2, 50, 295.05859375
0, 2, 51, 283.7149658203125
0, 2, 52, 273.9913940429688
0, 2, 53, 285.7137145996094
0, 2, 54, 282.4291381835938
0, 2, 55, 276.388916015625
0, 2, 56, 302.6782836914062
0, 2, 57, 294.3953857421875
0, 2, 58, 303.4288024902344
0, 2, 59, 289.62646484375
0, 2, 60, 320.1114501953125
0, 2, 61, 301.3857116699219
0, 2, 62, 313.1160278320312
0, 2, 63, 303.9974365234375
0, 2, 64, 295.5870971679688
0, 2, 65, 311.2804260253906
0, 2, 66, 279.4638977050781
0, 2, 67, 290.5606384277344
0, 2, 68, 295.9264221191406
0, 2, 69, 309.1357727050781
0, 2, 70, 334.1705017089844
0, 2, 71, 284.1960144042969
0, 2, 72, 300.9053955078125
0, 2, 73, 310.720947265625
0, 2, 74, 287.2483520507812
0, 2, 75, 305.6855773925781
0, 2, 76, 286.30078125
0, 2, 77, 299.1691284179688
0, 2, 78, 315.9068298339844
0, 2, 79, 310.1811218261719
0, 2, 80, 294.5160827636719
0, 2, 81, 281.2886962890625
0, 2, 82, 318.4139404296875
0, 2, 83, 314.3751831054688
0, 2, 84, 288.8788757324219
0, 2, 85, 284.1904296875
0, 2, 86, 323.5624694824219
0, 2, 87, 286.9928894042969
0, 2, 88, 281.109130859375
0, 2, 89, 297.6441650390625
0, 2, 90, 294.8929138183594
0, 2, 91, 275.3716735839844
0, 2, 92, 307.9914855957031
0, 2, 93, 316.0137023925781
0, 2, 94, 289.8703308105469
0, 2, 95, 314.9495849609375
0, 2, 96, 316.4464111328125
0, 2, 97, 292.1716918945312
0, 2, 98, 293.6489562988281
0, 2, 99, 272.3357238769531
0, 2, 100, 304.9138793945312
0, 2, 101, 300.5686645507812
0, 2, 102, 295.6904296875
0, 2, 103, 291.7779541015625
0, 2, 104, 291.5133361816406
0, 2, 105, 273.0653686523438
0, 2, 106, 296.3066101074219
0, 2, 107, 272.7068786621094
0, 2, 108, 116.379753112793
0, 2, 109, 30.8772029876709
0, 2, 110, 9.534257888793945
0, 2, 111, 10.55678462982178
0, 2, 112, 9.009081840515137
0, 2, 113, 9.76470947265625
0, 2, 114, 8.52506160736084
0, 2, 115, 9.746566772460938
0, 2, 116, 11.18924522399902
0, 2, 117, 6.587256908416748
0, 2, 118, 2.513737916946411
0, 2, 119, 8.348251342773438
0, 2, 120, 5.9957594871521
0, 2, 121, 1.032506465911865
0, 2, 122, 3.728192329406738
0, 2, 123, 4.269080638885498
0, 2, 124, 5.524237155914307
0, 2, 125, 7.495927810668945
0, 2, 126, 2.954600095748901
0, 2, 127, 6.093445777893066
0, 3, 0, 3.750921010971069
0, 3, 1, 3.241661071777344
0, 3, 2, 4.076389789581299
0, 3, 3, 2.695016384124756
0, 3, 4, 6.096227645874023
0, 3, 5, 8.048436164855957
0, 3, 6, 6.238885402679443
0, 3, 7, 3.960213899612427
0, 3, 8, 4.351984977722168
0, 3, 9, 5.642647743225098
0, 3, 10, 6.686497688293457
0, 3, 11, 4.551309108734131
0, 3, 12, 8.691315650939941
0, 3, 13, 16.22537040710449
0, 3, 14, 13.17628192901611
0, 3, 15, 14.44454479217529
0, 3, 16, 12.31966304779053
0, 3, 17, 20.70391654968262
0, 3, 18, 54.8396110534668
0, 3, 19, 176.7562561035156
0, 3, 20, 271.40673828125
0, 3, 21, 271.4468078613281
0, 3, 22, 282.0711975097656
0, 3, 23, 286.6171264648438
0, 3, 24, 286.8295593261719
0, 3, 25, 271.4246215820312
0, 3, 26, 303.9552612304688
0, 3, 27, 293.0331726074219
0, 3, 28, 280.9060974121094
0, 3, 29, 337.2653198242188
0, 3, 30, 318.06591796875
0, 3, 31, 285.481689453125
0, 3, 32, 307.4184265136719
0, 3, 33, 313.5793151855469
0, 3, 34, 322.3991088867188
0, 3, 35, 304.697998046875
0, 3, 36, 269.3174133300781
0, 3, 37, 312.9125366210938
0, 3, 38, 302.984375
0, 3, 39, 289.8288269042969
0, 3, 40, 265.6809997558594
0, 3, 41, 300.9840087890625
0, 3, 42, 287.266357421875
0, 3, 43, 305.4159545898438
0, 3, 44, 310.5116271972656
0, 3, 45, 292.3191528320312
0, 3, 46, 327.7047119140625
0, 3, 47, 300.5564575195312
0, 3, 48, 305.2371215820312
0, 3, 49, 276.8788452148438
0, 3, 50, 289.689453125
0, 3, 51, 274.817626953125
0, 3, 52, 314.6782531738281
0, 3, 53, 289.8871154785156
0, 3, 54, 286.2616577148438
0, 3, 55, 284.8462524414062
0, 3, 56, 300.5061950683594
0, 3, 57, 288.6212158203125
0, 3, 58, 308.70654296875
0, 3, 59, 295.0115966796875
0, 3, 60, 297.1033630371094
0, 3, 61, 266.0089416503906
0, 3, 62, 284.6856994628906
0, 3, 63, 307.2816772460938
0, 3, 64, 317.0570983886719
0, 3, 65, 306.8141479492188
0, 3, 66, 313.3868408203125
0, 3, 67, 319.0635681152344
0, 3, 68, 280.3356018066406
0, 3, 69, 281.8224487304688
0, 3, 70, 289.8504028320312
0, 3, 71, 298.8872985839844
0, 3, 72, 269.3833923339844
0, 3, 73, 307.9548645019531
0, 3, 74, 291.8515625
0, 3, 75, 288.7066040039062
0, 3, 76, 307.0707702636719
0, 3, 77, 313.6015014648438
0, 3, 78, 303.6929016113281
0, 3, 79, 282.3233947753906
0, 3, 80, 291.7209167480469
0, 3, 81, 309.9588928222656
0, 3, 82, 314.6554870605469
0, 3, 83, 301.0092163085938
0, 3, 84, 314.8652648925781
0, 3, 85, 292.5989379882812
0, 3, 86, 301.8948364257812
0, 3, 87, 297.1889343261719
0, 3, 88, 298.559814453125
0, 3, 89, 297.5765380859375
0, 3, 90, 276.6036682128906
0, 3, 91, 283.7142944335938
0, 3, 92, 304.9190979003906
0, 3, 93, 314.4414367675781
0, 3, 94, 300.3487548828125
0, 3, 95, 333.5142211914062
0, 3, 96, 291.77734375
0, 3, 97, 282.8225402832031
0, 3, 98, 277.9646301269531
0, 3, 99, 262.3411560058594
0, 3, 100, 285.436279296875
0, 3, 101, 297.1636352539062
0, 3, 102, 274.8902282714844
0, 3, 103, 320.5851135253906
0, 3, 104, 309.361328125
0, 3, 105, 288.1762390136719
0, 3, 106, 301.749755859375
0, 3, 107, 281.2706909179688
0, 3, 108, 168.9882049560547
0, 3, 109, 57.57228851318359
0, 3, 110, 19.09366416931152
0, 3, 111, 12.52511119842529
0, 3, 112, 12.85120868682861
0, 3, 113, 7.950881481170654
0, 3, 114, 9.94558048248291
0, 3, 115, 7.734904289245605
0, 3, 116, 6.822452068328857
0, 3, 117, 9.335051536560059
0, 3, 118, 6.891305446624756
0, 3, 119, 4.807178497314453
0, 3, 120, 3.361721038818359
0, 3, 121, 3.805999755859375
0, 3, 122, 2.760639905929565
0, 3, 123, 5.967191696166992
0, 3, 124, 1.704519987106323
0, 3, 125, 6.627370357513428
0, 3, 126, 6.356338024139404
0, 3, 127, 2.68277382850647
0, 4, 0, 1.941403269767761
0, 4, 1, 5.446065425872803
0, 4, 2, 3.200390100479126
0, 4, 3, 3.642760515213013
0, 4, 4, 5.907717227935791
0, 4, 5, 8.16684627532959
0, 4, 6, 7.807168483734131
0, 4, 7, 6.095352649688721
0, 4, 8, 4.041555881500244
0, 4, 9, 7.096527576446533
0, 4, 10, 5.576572418212891
0, 4, 11, 5.867160797119141
0, 4, 12, 6.549187183380127
0, 4, 13, 7.540984630584717
0, 4, 14, 14.75824546813965
0, 4, 15, 10.5797176361084
0, 4, 16, 14.98116397857666
0, 4, 17, 18.49585342407227
0, 4, 18, 93.08385467529297
0, 4, 19, 224.0888366699219
0, 4, 20, 284.7895812988281
0, 4, 21, 272.8765563964844
0, 4, 22, 305.6176147460938
0, 4, 23, 267.6109008789062
0, 4, 24, 288.4204711914062
0, 4, 25, 272.0382080078125
0, 4, 26, 294.6573486328125
0, 4, 27, 284.2446594238281
0, 4, 28, 306.1585388183594
0, 4, 29, 322.2961730957031
0, 4, 30, 311.5270385742188
0, 4, 31, 303.3764343261719
0, 4, 32, 281.4625854492188
0, 4, 33, 295.338134765625
0, 4, 34, 298.3104553222656
0, 4, 35, 312.574951171875
0, 4, 36, 292.643310546875
0, 4, 37, 288.98046875
0, 4, 38, 297.3241577148438
0, 4, 39, 295.2441101074219
0, 4, 40, 301.5962524414062
0, 4, 41, 311.7280578613281
0, 4, 42, 329.5639038085938
0, 4, 43, 299.7252807617188
0, 4, 44, 319.5607299804688
0, 4, 45, 323.4623718261719
0, 4, 46, 305.8147888183594
0, 4, 47, 291.7330017089844
0, 4, 48, 297.2292175292969
0, 4, 49, 277.8185119628906
0, 4, 50, 297.1502075195312
0, 4, 51, 315.4919128417969
0, 4, 52, 327.2498168945312
0, 4, 53, 305.5506591796875
0, 4, 54, 287.2782287597656
0, 4, 55, 314.2019958496094
0, 4, 56, 289.00146484375
0, 4, 57, 309.2426147460938
0, 4, 58, 298.4575805664062
0, 4, 59, 307.9157104492188
0, 4, 60, 302.9817199707031
0, 4, 61, 315.0664672851562
0, 4, 62, 308.2942504882812
0, 4, 63, 303.4463500976562
0, 4, 64, 329.3938598632812
0, 4, 65, 313.9967346191406
0, 4, 66, 294.7598571777344
0, 4, 67, 284.6199340820312
0, 4, 68, 315.102294921875
0, 4, 69, 275.1989135742188
0, 4, 70, 300.3565673828125
0, 4, 71, 321.1390686035156
0, 4, 72, 330.7141723632812
0, 4, 73, 300.2941589355469
0, 4, 74, 291.8304748535156
0, 4, 75, 289.8026123046875
0, 4, 76, 274.0243835449219
0, 4, 77, 276.7922973632812
0, 4, 78, 310.173828125
0, 4, 79, 318.3992004394531
0, 4, 80, 316.5813903808594
0, 4, 81, 311.8577270507812
0, 4, 82, 297.8521423339844
0, 4, 83, 303.7262878417969
0, 4, 84, 291.6726989746094
0, 4, 85, 296.324951171875
0, 4, 86, 298.1432189941406
0, 4, 87, 284.3157958984375
0, 4, 88, 309.5021667480469
0, 4, 89, 294.4104614257812
0, 4, 90, 334.1913452148438
0, 4, 91, 301.9822998046875
0, 4, 92, 289.8112182617188
0, 4, 93, 297.2291564941406
0, 4, 94, 292.5986938476562
0, 4, 95, 288.5704345703125
0, 4, 96, 324.5215454101562
0, 4, 97, 274.468017578125
0, 4, 98, 326.8967895507812
0, 4, 99, 313.4119262695312
0, 4, 100, 301.0134887695312
0, 4, 101, 256.6408081054688
0, 4, 102, 296.7760925292969
0, 4, 103, 315.8020629882812
0, 4, 104, 282.0225219726562
0, 4, 105, 310.927734375
0, 4, 106, 287.3731994628906
0, 4, 107, 294.2022399902344
0, 4, 108, 226.8239898681641
0, 4, 109, 79.95650482177734
0, 4, 110, 18.58827018737793
0, 4, 111, 13.63321304321289
0, 4, 112, 8.946755409240723
0, 4, 113, 10.90260887145996
0, 4, 114, 9.014569282531738
0, 4, 115, 12.74944972991943
0, 4, 116, 9.722996711730957
0, 4, 117, 5.809985160827637
0, 4, 118, 8.844468116760254
0, 4, 119, 11.19663333892822
0, 4, 120, 5.212284564971924
0, 4, 121, 5.895263671875
0, 4, 122, 4.769278049468994
0, 4, 123, 7.211884498596191
0, 4, 124, 4.250903129577637
0, 4, 125, 9.21546745300293
0, 4, 126, 5.763814926147461
0, 4, 127, 5.198694705963135
0, 5, 0, 3.477985143661499
0, 5, 1, 5.284744739532471
0, 5, 2, 2.88087272644043
0, 5, 3, 3.925718545913696
0, 5, 4, 4.03379487991333
0, 5, 5, 5.438550472259521
0, 5, 6, 8.914806365966797
0, 5, 7, 6.393470764160156
0, 5, 8, 5.573277950286865
0, 5, 9, 4.988323211669922
0, 5, 10, 8.196612358093262
0, 5, 11, 8.43308162689209
0, 5, 12, 9.186000823974609
0, 5, 13, 4.717436790466309
0, 5, 14, 12.07733058929443
0, 5, 15, 18.03978157043457
0, 5, 16, 14.09502029418945
0, 5, 17, 27.5437068939209
0, 5, 18, 135.5439605712891
0, 5, 19, 288.4057922363281
0, 5, 20, 307.0354309082031
0, 5, 21, 318.0003967285156
0, 5, 22, 274.7608642578125
0, 5, 23, 311.2725830078125
0, 5, 24, 302.9241027832031
0, 5, 25, 287.9411010742188
0, 5, 26, 294.6449584960938
0, 5, 27, 323.2177429199219
0, 5, 28, 303.3648376464844
0, 5, 29, 301.1311645507812
0, 5, 30, 324.1991577148438
0, 5, 31, 286.1405334472656
0, 5, 32, 302.602294921875
0, 5, 33, 303.7214660644531
0, 5, 34, 299.11669921875
0, 5, 35, 311.2428588867188
0, 5, 36, 269.4005126953125
0, 5, 37, 284.1778564453125
0, 5, 38, 293.381103515625
0, 5, 39, 312.6261291503906
0, 5, 40, 308.3671569824219
0, 5, 41, 272.0660400390625
0, 5, 42, 306.6207580566406
0, 5, 43, 314.496337890625
0, 5, 44, 292.6444702148438
0, 5, 45, 304.634033203125
0, 5, 46, 266.281005859375
0, 5, 47, 282.1934204101562
0, 5, 48, 293.6590576171875
0, 5, 49, 286.9560241699219
0, 5, 50, 294.6697998046875
0, 5, 51, 278.75732421875
0, 5, 52, 269.1781311035156
0, 5, 53, 283.685546875
0, 5, 54, 292.2255859375
0, 5, 55, 343.1152648925781
0, 5, 56, 304.6760864257812
0, 5, 57, 307.8331909179688
0, 5, 58, 313.7997131347656
0, 5, 59, 301.8924865722656
0, 5, 60, 306.9388427734375
0, 5, 61, 280.8520812988281
0, 5, 62, 328.2508239746094
0, 5, 63, 294.0165710449219
0, 5, 64, 323.0142211914062
0, 5, 65, 307.9697570800781
0, 5, 66, 324.8984375
0, 5, 67, 312.7558898925781
0, 5, 68, 309.3142395019531
0, 5, 69, 311.9010314941406
0, 5, 70, 299.1098022460938
0, 5, 71, 271.55224609375
0, 5, 72, 312.0349426269531
0, 5, 73, 304.1752624511719
0, 5, 74, 298.7887573242188
0, 5, 75, 294.8755493164062
0, 5, 76, 285.8140869140625
0, 5, 77, 297.0471801757812
0, 5, 78, 314.3952026367188
0, 5, 79, 305.6666259765625
0, 5, 80, 295.4683532714844
0, 5, 81, 325.084228515625
0, 5, 82, 326.0792236328125
0, 5, 83, 282.3966674804688
0, 5, 84, 301.5250244140625
0, 5, 85, 271.5257263183594
0, 5, 86, 325.6215515136719
0, 5, 87, 284.3296508789062
0, 5, 88, 313.0542297363281
0, 5, 89, 305.2483215332031
0, 5, 90, 314.9088134765625
0, 5, 91, 314.017822265625
0, 5, 92, 295.6160278320312
0, 5, 93, 321.7937316894531
0, 5, 94, 312.632568359375
0, 5, 95, 296.5385131835938
0, 5, 96, 300.5020751953125
0, 5, 97, 296.1167602539062
0, 5, 98, 318.3701477050781
0, 5, 99, 301.1545715332031
0, 5, 100, 291.8936462402344
0, 5, 101, 305.8011169433594
0, 5, 102, 293.3523864746094
0, 5, 103, 315.1492614746094
0, 5, 104, 303.4041748046875
0, 5, 105, 292.3050537109375
0, 5, 106, 280.9814453125
0, 5, 107, 293.3700561523438
0, 5, 108, 264.6482238769531
0, 5, 109, 158.1844024658203
0, 5, 110, 43.16347885131836
0, 5, 111, 21.30783843994141
0, 5, 112, 17.21788215637207
0, 5, 113, 13.71129035949707
0, 5, 114, 12.87184047698975
0, 5, 115, 7.432495594024658
0, 5, 116, 6.780271053314209
0, 5, 117, 9.299501419067383
0, 5, 118, 13.37474918365479
0, 5, 119, 3.689736366271973
0, 5, 120, 6.08546257019043
0, 5, 121, 5.419033050537109
0, 5, 122, 4.504012584686279
0, 5, 123, 6.034493446350098
0, 5, 124, 7.6129150390625
0, 5, 125, 5.278036117553711
0, 5, 126, 5.76631498336792
0, 5, 127, 4.9827880859375
0, 6, 0, 4.023161888122559
0, 6, 1, 2.227735042572021
0, 6, 2, 4.218830585479736
0, 6, 3, 6.140318393707275
0, 6, 4, 5.563126564025879
0, 6, 5, 5.497866153717041
0, 6, 6, 9.912310600280762
0, 6, 7, 6.797885894775391
0, 6, 8, 7.786123275756836
0, 6, 9, 7.159801483154297
0, 6, 10, 6.46852445602417
0, 6, 11, 7.88721227645874
0, 6, 12, 11.47414684295654
0, 6, 13, 13.50071907043457
0, 6, 14, 10.55504703521729
0, 6, 15, 19.5200252532959
0, 6, 16, 28.72425651550293
0, 6, 17, 53.35697555541992
0, 6, 18, 172.1924285888672
0, 6, 19, 275.0814208984375
0, 6, 20, 290.2633972167969
0, 6, 21, 314.191162109375
0, 6, 22, 320.5077209472656
0, 6, 23, 305.6508483886719
0, 6, 24, 317.6967468261719
0, 6, 25, 316.8323669433594
0, 6, 26, 319.7185363769531
0, 6, 27, 329.8673706054688
0, 6, 28, 295.2353515625
0, 6, 29, 329.9796752929688
0, 6, 30, 285.9996948242188
0, 6, 31, 287.3418884277344
0, 6, 32, 340.2090454101562
0, 6, 33, 298.9861145019531
0, 6, 34, 340.9795532226562
0, 6, 35, 320.542724609375
0, 6, 36, 273.2485046386719
0, 6, 37, 289.6100158691406
0, 6, 38, 310.4883422851562
0, 6, 39, 297.5513305664062
0, 6, 40, 281.720703125
0, 6, 41, 294.5357055664062
0, 6, 42, 303.6194763183594
0, 6, 43, 289.3417663574219
0, 6, 44, 281.6643371582031
0, 6, 45, 321.9103698730469
0, 6, 46, 303.8428344726562
0, 6, 47, 333.3677062988281
0, 6, 48, 292.8227233886719
0, 6, 49, 310.4522094726562
0, 6, 50, 327.1026306152344
0, 6, 51, 311.9053955078125
0, 6, 52, 324.3233032226562
0, 6, 53, 328.3002319335938
0, 6, 54, 303.8198547363281
0, 6, 55, 305.6724548339844
0, 6, 56, 294.341552734375
0, 6, 57, 312.3984985351562
0, 6, 58, 262.2359313964844
0, 6, 59, 301.9875793457031
0, 6, 60, 312.7683715820312
0, 6, 61, 271.8731689453125
0, 6, 62, 336.8762817382812
0, 6, 63, 323.9829711914062
0, 6, 64, 290.5236206054688
0, 6, 65, 282.7139282226562
0, 6, 66, 303.3252563476562
0, 6, 67, 308.4652404785156
0, 6, 68, 297.0316772460938
0, 6, 69, 279.1903686523438
0, 6, 70, 275.5204467773438
0, 6, 71, 289.4112243652344
0, 6, 72, 312.6234130859375
0, 6, 73, 295.3693237304688
0, 6, 74, 329.8249206542969
0, 6, 75, 345.3423461914062
0, 6, 76, 297.2578735351562
0, 6, 77, 286.1038208007812
0, 6, 78, 279.4018859863281
0, 6, 79, 293.6300354003906
0, 6, 80, 300.4816284179688
0, 6, 81, 315.9981384277344
0, 6, 82, 317.7457580566406
0, 6, 83, 317.3899536132812
0, 6, 84, 295.7186584472656
0, 6, 85, 302.7384033203125
0, 6, 86, 330.5025329589844
0, 6, 87, 290.9883728027344
0, 6, 88, 306.6391296386719
0, 6, 89, 305.1300659179688
0, 6, 90, 299.2390747070312
0, 6, 91, 311.6499938964844
0, 6, 92, 283.6825866699219
0, 6, 93, 296.7823181152344
0, 6, 94, 274.1490173339844
0, 6, 95, 299.439453125
0, 6, 96, 346.1249084472656
0, 6, 97, 310.8690795898438
0, 6, 98, 301.2600402832031
0, 6, 99, 271.4047241210938
0, 6, 100, 309.5704040527344
0, 6, 101, 291.7939147949219
0, 6, 102, 307.4671020507812
0, 6, 103, 306.8802185058594
0, 6, 104, 290.7177429199219
0, 6, 105, 302.0337524414062
0, 6, 106, 307.0249938964844
0, 6, 107, 308.2154235839844
0, 6, 108, 266.57080078125
0, 6, 109, 186.7820587158203
0, 6, 110, 53.90761947631836
0, 6, 111, 21.54482460021973
0, 6, 112, 13.83429527282715
0, 6, 113, 10.30270957946777
0, 6, 114, 12.30613327026367
0, 6, 115, 11.21676063537598
0, 6, 116, 7.502388477325439
0, 6, 117, 6.808224678039551
0, 6, 118, 7.84816837310791
0, 6, 119, 7.772539138793945
0, 6, 120, 6.645926952362061
0, 6, 121, 6.316682815551758
0, 6, 122, 8.500016212463379
0, 6, 123, 7.034980297088623
0, 6, 124, 9.596451759338379
0, 6, 125, 6.292572021484375
0, 6, 126, 3.348249673843384
0, 6, 127, 5.656844615936279
0, 7, 0, 4.899516105651855
0, 7, 1, 3.318997621536255
0, 7, 2, 5.907943725585938
0, 7, 3, 5.571736812591553
0, 7, 4, 3.695857048034668
0, 7, 5, 5.484113216400146
0, 7, 6, 6.030197143554688
0, 7, 7, 5.870691299438477
0, 7, 8, 4.608997344970703
0, 7, 9, 7.313289165496826
0, 7, 10, 8.706161499023438
0, 7, 11, 10.38065433502197
0, 7, 12, 9.583806037902832
0, 7, 13, 12.44149398803711
0, 7, 14, 9.756025314331055
0, 7, 15, 16.09899520874023
0, 7, 16, 27.06538009643555
0, 7, 17, 97.73453521728516
0, 7, 18, 218.4701385498047
0, 7, 19, 288.9958801269531
0, 7, 20, 297.0126037597656
0, 7, 21, 275.7178344726562
0, 7, 22, 298.174072265625
0, 7, 23, 288.2376403808594
0, 7, 24, 311.9961853027344
0, 7, 25, 323.71240234375
0, 7, 26, 278.3916320800781
0, 7, 27, 297.3765563964844
0, 7, 28, 326.8062133789062
0, 7, 29, 317.2611083984375
0, 7, 30, 302.1514282226562
0, 7, 31, 276.5854797363281
0, 7, 32, 306.7440795898438
0, 7, 33, 263.0166015625
0, 7, 34, 299.26806640625
0, 7, 35, 318.7355346679688
0, 7, 36, 330.5520935058594
0, 7, 37, 323.2579650878906
0, 7, 38, 295.9534301757812
0, 7, 39, 306.5830078125
0, 7, 40, 287.9541625976562
0, 7, 41, 274.1105651855469
0, 7, 42, 300.5178833007812
0, 7, 43, 273.3458557128906
0, 7, 44, 304.2401428222656
0, 7, 45, 296.1070251464844
0, 7, 46, 283.6141357421875
0, 7, 47, 329.6786499023438
0, 7, 48, 286.162353515625
0, 7, 49, 302.0122985839844
0, 7, 50, 321.207763671875
0, 7, 51, 298.1242370605469
0, 7, 52, 326.7243347167969
0, 7, 53, 311.1585083007812
0, 7, 54, 323.0095825195312
0, 7, 55, 306.8897705078125
0, 7, 56, 279.2748413085938
0, 7, 57, 282.0889282226562
0, 7, 58, 294.3832092285156
0, 7, 59, 293.9723205566406
0, 7, 60, 323.1804809570312
0, 7, 61, 277.7723693847656
0, 7, 62, 298.2616882324219
0, 7, 63, 293.116943359375
0, 7, 64, 309.6278991699219
0, 7, 65, 330.2812194824219
0, 7, 66, 319.4423217773438
0, 7, 67, 300.6705627441406
0, 7, 68, 282.7899169921875
0, 7, 69, 295.1181640625
0, 7, 70, 300.96142578125
0, 7, 71, 309.496826171875
0, 7, 72, 285.9332580566406
0, 7, 73, 296.449951171875
0, 7, 74, 347.2760314941406
0, 7, 75, 319.6377563476562
0, 7, 76, 323.5095520019531
0, 7, 77, 279.5072326660156
0, 7, 78, 300.5647277832031
0, 7, 79, 296.6148071289062
0, 7, 80, 313.0622253417969
0, 7, 81, 318.8121948242188
0, 7, 82, 329.0473327636719
0, 7, 83, 316.1613159179688
0, 7, 84, 309.8457946777344
0, 7, 85, 273.0150756835938
0, 7, 86, 310.1947326660156
0, 7, 87, 308.2592163085938
0, 7, 88, 310.6231994628906
0, 7, 89, 295.2840270996094
0, 7, 90, 309.414306640625
0, 7, 91, 317.35205078125
0, 7, 92, 287.1710510253906
0, 7, 93, 306.3953552246094
0, 7, 94, 275.2152709960938
0, 7, 95, 297.5674438476562
0, 7, 96, 330.42724609375
0, 7, 97, 296.9519958496094
0, 7, 98, 291.594970703125
0, 7, 99, 311.2707214355469
0, 7, 100, 282.4298706054688
0, 7, 101, 275.1196594238281
0, 7, 102, 290.3617248535156
0, 7, 103, 292.6746826171875
0, 7, 104, 273.3012084960938
0, 7, 105, 305.3501586914062
0, 7, 106, 317.3293151855469
0, 7, 107, 297.0554809570312
0, 7, 108, 275.7308654785156
0, 7, 109, 236.9026947021484
0, 7, 110, 98.38326263427734
0, 7, 111, 23.92535018920898
0, 7, 112, 13.66523838043213
0, 7, 113, 13.13588905334473
0, 7, 114, 11.71921348571777
0, 7, 115, 13.03814125061035
0, 7, 116, 10.56699371337891
0, 7, 117, 7.177872657775879
0, 7, 118, 9.237126350402832
0, 7, 119, 8.185410499572754
0, 7, 120, 6.507850646972656
0, 7, 121, 5.643207550048828
0, 7, 122, 6.712699413299561
0, 7, 123, 4.312635898590088
0, 7, 124, 3.168037891387939
0, 7, 125, 8.083174705505371
0, 7, 126, 7.248473644256592
0, 7, 127, 2.302218675613403
0, 8, 0, 3.754165887832642
0, 8, 1, 3.12011981010437
0, 8, 2, 5.532293319702148
0, 8, 3, 3.954434394836426
0, 8, 4, 4.672796726226807
0, 8, 5, 6.339543342590332
0, 8, 6, 4.751036643981934
0, 8, 7, 4.847290992736816
0, 8, 8, 7.282182216644287
0, 8, 9, 5.682659149169922
0, 8, 10, 6.654382705688477
0, 8, 11, 11.17278003692627
0, 8, 12, 14.0383243560791
0, 8, 13, 14.60435104370117
0, 8, 14, 13.51993560791016
0, 8, 15, 16.50434875488281
0, 8, 16, 34.33681106567383
0, 8, 17, 131.8051910400391
0, 8, 18, 244.3565216064453
0, 8, 19, 296.1820983886719
0, 8, 20, 284.9710388183594
0, 8, 21, 307.4593505859375
0, 8, 22, 294.4318542480469
0, 8, 23, 273.1822509765625
0, 8, 24, 267.8505249023438
0, 8, 25, 277.0860900878906
0, 8, 26, 306.5145263671875
0, 8, 27, 308.0013732910156
0, 8, 28, 303.8981628417969
0, 8, 29, 321.8102111816406
0, 8, 30, 312.6565551757812
0, 8, 31, 305.9223022460938
0, 8, 32, 279.1566467285156
0, 8, 33, 294.5723266601562
0, 8, 34, 289.3572998046875
0, 8, 35, 279.6021118164062
0, 8, 36, 319.7451171875
0, 8, 37, 339.9955749511719
0, 8, 38, 332.6743774414062
0, 8, 39, 282.7574462890625
0, 8, 40, 304.4495849609375
0, 8, 41, 290.9051818847656
