# TOPAS Version: 3.1.p3
# Parameter File: batch_inserts_334.txt
# Results for scorer Readout_Adipose
# Scored in component: MyBox
# X in 1 bin  of 0.75 cm
# Y in 512 bins of 0.0783984 cm
# Z in 128 bins of 0.078125 cm
# EnergyDeposit ( MeV ) : Sum   
0, 0, 0, 3.404829025268555
0, 0, 1, 2.467415332794189
0, 0, 2, 3.547633647918701
0, 0, 3, 1.771834373474121
0, 0, 4, 2.836384534835815
0, 0, 5, 2.927412748336792
0, 0, 6, 6.489001750946045
0, 0, 7, 11.29939842224121
0, 0, 8, 3.773400545120239
0, 0, 9, 4.493855953216553
0, 0, 10, 5.792637348175049
0, 0, 11, 5.363916397094727
0, 0, 12, 5.513087272644043
0, 0, 13, 6.523517608642578
0, 0, 14, 7.049014091491699
0, 0, 15, 11.24926662445068
0, 0, 16, 9.455143928527832
0, 0, 17, 9.14638614654541
0, 0, 18, 14.04037761688232
0, 0, 19, 42.97146606445312
0, 0, 20, 138.9562683105469
0, 0, 21, 224.0267181396484
0, 0, 22, 250.3062744140625
0, 0, 23, 257.4612426757812
0, 0, 24, 251.1150665283203
0, 0, 25, 259.2627868652344
0, 0, 26, 235.6767578125
0, 0, 27, 238.0483856201172
0, 0, 28, 272.21435546875
0, 0, 29, 253.3861541748047
0, 0, 30, 233.3755340576172
0, 0, 31, 245.0931549072266
0, 0, 32, 264.0626831054688
0, 0, 33, 261.8733520507812
0, 0, 34, 287.8855895996094
0, 0, 35, 267.3146667480469
0, 0, 36, 246.5951995849609
0, 0, 37, 251.7023162841797
0, 0, 38, 269.0926818847656
0, 0, 39, 230.9022369384766
0, 0, 40, 241.6896362304688
0, 0, 41, 266.274169921875
0, 0, 42, 228.5655670166016
0, 0, 43, 261.221923828125
0, 0, 44, 251.5121307373047
0, 0, 45, 253.5816955566406
0, 0, 46, 244.5944366455078
0, 0, 47, 253.3470153808594
0, 0, 48, 268.7841491699219
0, 0, 49, 275.478759765625
0, 0, 50, 251.5765991210938
0, 0, 51, 253.16015625
0, 0, 52, 272.35009765625
0, 0, 53, 292.5009460449219
0, 0, 54, 244.5935974121094
0, 0, 55, 240.7486419677734
0, 0, 56, 277.0177612304688
0, 0, 57, 263.7564392089844
0, 0, 58, 247.0321350097656
0, 0, 59, 272.8733825683594
0, 0, 60, 234.0498504638672
0, 0, 61, 244.4490051269531
0, 0, 62, 257.0965270996094
0, 0, 63, 267.9870300292969
0, 0, 64, 259.2217102050781
0, 0, 65, 260.7599182128906
0, 0, 66, 277.0038452148438
0, 0, 67, 248.591064453125
0, 0, 68, 258.7186584472656
0, 0, 69, 263.68994140625
0, 0, 70, 271.2686462402344
0, 0, 71, 239.6713256835938
0, 0, 72, 252.5339202880859
0, 0, 73, 259.3465881347656
0, 0, 74, 251.6735076904297
0, 0, 75, 241.3358917236328
0, 0, 76, 228.2233276367188
0, 0, 77, 259.9843444824219
0, 0, 78, 256.5137329101562
0, 0, 79, 276.1321105957031
0, 0, 80, 218.4283142089844
0, 0, 81, 266.8301086425781
0, 0, 82, 256.2120056152344
0, 0, 83, 246.228515625
0, 0, 84, 270.6759338378906
0, 0, 85, 231.2701110839844
0, 0, 86, 252.7546539306641
0, 0, 87, 249.5177459716797
0, 0, 88, 260.2156677246094
0, 0, 89, 285.2000732421875
0, 0, 90, 244.5427856445312
0, 0, 91, 279.7865295410156
0, 0, 92, 251.9682769775391
0, 0, 93, 249.3664245605469
0, 0, 94, 248.6278533935547
0, 0, 95, 248.7753601074219
0, 0, 96, 275.3027954101562
0, 0, 97, 276.5374145507812
0, 0, 98, 274.4359741210938
0, 0, 99, 258.7098083496094
0, 0, 100, 259.2576293945312
0, 0, 101, 226.2894592285156
0, 0, 102, 231.1995697021484
0, 0, 103, 270.8047790527344
0, 0, 104, 257.5233764648438
0, 0, 105, 251.8260955810547
0, 0, 106, 249.2750549316406
0, 0, 107, 151.9276885986328
0, 0, 108, 38.80050277709961
0, 0, 109, 13.92274475097656
0, 0, 110, 14.76395606994629
0, 0, 111, 11.03102397918701
0, 0, 112, 5.722692489624023
0, 0, 113, 4.599360942840576
0, 0, 114, 5.344832897186279
0, 0, 115, 6.280702590942383
0, 0, 116, 5.256569862365723
0, 0, 117, 9.735185623168945
0, 0, 118, 5.851666927337646
0, 0, 119, 3.691221475601196
0, 0, 120, 3.203694105148315
0, 0, 121, 3.267703533172607
0, 0, 122, 4.600920677185059
0, 0, 123, 3.325221300125122
0, 0, 124, 7.059277534484863
0, 0, 125, 3.20516562461853
0, 0, 126, 3.287899732589722
0, 0, 127, 5.030789375305176
0, 1, 0, 8.361246109008789
0, 1, 1, 3.871721267700195
0, 1, 2, 5.826756954193115
0, 1, 3, 2.692149877548218
0, 1, 4, 3.261581182479858
0, 1, 5, 2.116512060165405
0, 1, 6, 3.206483364105225
0, 1, 7, 3.058643817901611
0, 1, 8, 6.405017852783203
0, 1, 9, 3.98533034324646
0, 1, 10, 7.573046207427979
0, 1, 11, 12.03650093078613
0, 1, 12, 8.97177791595459
0, 1, 13, 10.20196151733398
0, 1, 14, 7.584790229797363
0, 1, 15, 7.564027309417725
0, 1, 16, 10.53570365905762
0, 1, 17, 12.07648181915283
0, 1, 18, 20.17384719848633
0, 1, 19, 69.90335845947266
0, 1, 20, 196.9651336669922
0, 1, 21, 254.5184631347656
0, 1, 22, 294.5007019042969
0, 1, 23, 281.9291687011719
0, 1, 24, 275.0278625488281
0, 1, 25, 288.3412170410156
0, 1, 26, 268.4594116210938
0, 1, 27, 306.1036376953125
0, 1, 28, 301.0379638671875
0, 1, 29, 296.4200439453125
0, 1, 30, 279.2253723144531
0, 1, 31, 291.0515441894531
0, 1, 32, 289.82861328125
0, 1, 33, 297.6194458007812
0, 1, 34, 292.6944885253906
0, 1, 35, 279.3985290527344
0, 1, 36, 307.4298400878906
0, 1, 37, 298.3782043457031
0, 1, 38, 280.446044921875
0, 1, 39, 295.9408264160156
0, 1, 40, 268.341064453125
0, 1, 41, 285.4323120117188
0, 1, 42, 290.8240966796875
0, 1, 43, 331.2369079589844
0, 1, 44, 278.6132507324219
0, 1, 45, 291.2344665527344
0, 1, 46, 258.8637390136719
0, 1, 47, 310.6374206542969
0, 1, 48, 284.7652587890625
0, 1, 49, 302.5517883300781
0, 1, 50, 262.105712890625
0, 1, 51, 270.7070617675781
0, 1, 52, 295.2025146484375
0, 1, 53, 307.2777404785156
0, 1, 54, 277.2877197265625
0, 1, 55, 295.594482421875
0, 1, 56, 276.781494140625
0, 1, 57, 296.6438293457031
0, 1, 58, 309.7750244140625
0, 1, 59, 292.4679565429688
0, 1, 60, 297.7696228027344
0, 1, 61, 273.9271545410156
0, 1, 62, 306.6952209472656
0, 1, 63, 290.765625
0, 1, 64, 289.4417419433594
0, 1, 65, 295.1595458984375
0, 1, 66, 291.37109375
0, 1, 67, 291.3559265136719
0, 1, 68, 277.8733825683594
0, 1, 69, 279.9146728515625
0, 1, 70, 271.1843872070312
0, 1, 71, 273.2508239746094
0, 1, 72, 287.0079040527344
0, 1, 73, 305.0885620117188
0, 1, 74, 302.1419982910156
0, 1, 75, 292.9830627441406
0, 1, 76, 286.6153259277344
0, 1, 77, 291.1025085449219
0, 1, 78, 303.7254638671875
0, 1, 79, 301.8231811523438
0, 1, 80, 298.2556457519531
0, 1, 81, 300.1145629882812
0, 1, 82, 285.5494995117188
0, 1, 83, 333.9113159179688
0, 1, 84, 308.2847290039062
0, 1, 85, 252.6544342041016
0, 1, 86, 295.5642700195312
0, 1, 87, 291.1854248046875
0, 1, 88, 299.1041870117188
0, 1, 89, 289.5118408203125
0, 1, 90, 270.7219848632812
0, 1, 91, 320.5560302734375
0, 1, 92, 289.9703369140625
0, 1, 93, 288.0569458007812
0, 1, 94, 303.2890014648438
0, 1, 95, 283.1529235839844
0, 1, 96, 283.3523559570312
0, 1, 97, 302.7125244140625
0, 1, 98, 279.2879333496094
0, 1, 99, 265.4382629394531
0, 1, 100, 276.249755859375
0, 1, 101, 283.3342590332031
0, 1, 102, 276.5060119628906
0, 1, 103, 281.2375183105469
0, 1, 104, 306.16162109375
0, 1, 105, 296.8106079101562
0, 1, 106, 262.9288330078125
0, 1, 107, 192.9530792236328
0, 1, 108, 83.15175628662109
0, 1, 109, 23.1579418182373
0, 1, 110, 10.32989501953125
0, 1, 111, 8.27126407623291
0, 1, 112, 14.39496517181396
0, 1, 113, 6.756899833679199
0, 1, 114, 7.159597396850586
0, 1, 115, 7.201642036437988
0, 1, 116, 11.72769260406494
0, 1, 117, 4.930352687835693
0, 1, 118, 5.88924503326416
0, 1, 119, 7.931162357330322
0, 1, 120, 7.392884731292725
0, 1, 121, 7.353740215301514
0, 1, 122, 3.12949538230896
0, 1, 123, 6.109609603881836
0, 1, 124, 5.189681053161621
0, 1, 125, 2.875005960464478
0, 1, 126, 3.49447774887085
0, 1, 127, 2.131669282913208
0, 2, 0, 4.171255588531494
0, 2, 1, 1.462375998497009
0, 2, 2, 4.229998111724854
0, 2, 3, 4.004960536956787
0, 2, 4, 3.75362491607666
0, 2, 5, 2.203632831573486
0, 2, 6, 2.460666179656982
0, 2, 7, 4.41380786895752
0, 2, 8, 5.904455661773682
0, 2, 9, 6.344795227050781
0, 2, 10, 7.667030811309814
0, 2, 11, 6.908232688903809
0, 2, 12, 6.177035331726074
0, 2, 13, 9.535225868225098
0, 2, 14, 10.38060474395752
0, 2, 15, 7.515193939208984
0, 2, 16, 9.114374160766602
0, 2, 17, 17.3316822052002
0, 2, 18, 29.28190040588379
0, 2, 19, 116.1411514282227
0, 2, 20, 244.798583984375
0, 2, 21, 273.2516784667969
0, 2, 22, 314.1947937011719
0, 2, 23, 300.6085815429688
0, 2, 24, 287.5994873046875
0, 2, 25, 302.2681579589844
0, 2, 26, 291.7825622558594
0, 2, 27, 276.642333984375
0, 2, 28, 272.4606018066406
0, 2, 29, 274.3103637695312
0, 2, 30, 292.9981384277344
0, 2, 31, 277.2477416992188
0, 2, 32, 294.3674621582031
0, 2, 33, 283.591064453125
0, 2, 34, 335.1441955566406
0, 2, 35, 287.6040954589844
0, 2, 36, 305.0732727050781
0, 2, 37, 316.5682678222656
0, 2, 38, 312.2435302734375
0, 2, 39, 266.6561584472656
0, 2, 40, 310.1109924316406
0, 2, 41, 291.8531799316406
0, 2, 42, 304.9329223632812
0, 2, 43, 313.3035278320312
0, 2, 44, 312.5289306640625
0, 2, 45, 324.27587890625
0, 2, 46, 286.2143859863281
0, 2, 47, 302.6470642089844
0, 2, 48, 280.2328186035156
0, 2, 49, 278.1848754882812
0, 2, 50, 294.8974609375
0, 2, 51, 284.4299011230469
0, 2, 52, 270.6535034179688
0, 2, 53, 286.8195495605469
0, 2, 54, 281.6376953125
0, 2, 55, 275.7808227539062
0, 2, 56, 302.1206665039062
0, 2, 57, 291.9004516601562
0, 2, 58, 302.9408264160156
0, 2, 59, 289.06689453125
0, 2, 60, 318.2156066894531
0, 2, 61, 302.0101623535156
0, 2, 62, 313.98828125
0, 2, 63, 301.07568359375
0, 2, 64, 294.8985290527344
0, 2, 65, 313.7440185546875
0, 2, 66, 279.5162658691406
0, 2, 67, 292.22119140625
0, 2, 68, 296.5007629394531
0, 2, 69, 310.8756713867188
0, 2, 70, 335.2117309570312
0, 2, 71, 284.6137084960938
0, 2, 72, 300.8853759765625
0, 2, 73, 311.4594421386719
0, 2, 74, 289.48486328125
0, 2, 75, 309.2853698730469
0, 2, 76, 286.8484497070312
0, 2, 77, 296.17822265625
0, 2, 78, 315.1693420410156
0, 2, 79, 309.3890991210938
0, 2, 80, 299.8634643554688
0, 2, 81, 283.4468383789062
0, 2, 82, 317.548095703125
0, 2, 83, 313.2652587890625
0, 2, 84, 287.5633850097656
0, 2, 85, 283.4802856445312
0, 2, 86, 324.8996887207031
0, 2, 87, 286.6776733398438
0, 2, 88, 281.4393615722656
0, 2, 89, 294.6182250976562
0, 2, 90, 297.2456359863281
0, 2, 91, 275.6628723144531
0, 2, 92, 305.9227294921875
0, 2, 93, 317.1412658691406
0, 2, 94, 291.5890808105469
0, 2, 95, 315.8924255371094
0, 2, 96, 315.3912963867188
0, 2, 97, 292.9903564453125
0, 2, 98, 293.1743774414062
0, 2, 99, 273.7068786621094
0, 2, 100, 305.8225708007812
0, 2, 101, 300.5581665039062
0, 2, 102, 297.4731140136719
0, 2, 103, 292.1883239746094
0, 2, 104, 292.7624816894531
0, 2, 105, 274.8507080078125
0, 2, 106, 296.8726196289062
0, 2, 107, 267.4486999511719
0, 2, 108, 116.9933547973633
0, 2, 109, 29.90234565734863
0, 2, 110, 9.409272193908691
0, 2, 111, 12.55415058135986
0, 2, 112, 10.04977416992188
0, 2, 113, 10.61353397369385
0, 2, 114, 10.34787940979004
0, 2, 115, 9.342509269714355
0, 2, 116, 10.10345554351807
0, 2, 117, 7.879784107208252
0, 2, 118, 2.309944629669189
0, 2, 119, 5.566061973571777
0, 2, 120, 5.554371356964111
0, 2, 121, 1.339051604270935
0, 2, 122, 6.220415115356445
0, 2, 123, 6.041738510131836
0, 2, 124, 5.660519123077393
0, 2, 125, 5.981565952301025
0, 2, 126, 2.480242013931274
0, 2, 127, 3.713623046875
0, 3, 0, 4.344191551208496
0, 3, 1, 4.221265316009521
0, 3, 2, 4.36939811706543
0, 3, 3, 0.9809690117835999
0, 3, 4, 3.361499547958374
0, 3, 5, 7.294433116912842
0, 3, 6, 8.435647964477539
0, 3, 7, 6.103172779083252
0, 3, 8, 5.047532081604004
0, 3, 9, 4.831034660339355
0, 3, 10, 6.51214075088501
0, 3, 11, 3.611446619033813
0, 3, 12, 6.979187965393066
0, 3, 13, 16.31415748596191
0, 3, 14, 14.78558540344238
0, 3, 15, 12.67148876190186
0, 3, 16, 10.14390850067139
0, 3, 17, 18.40512847900391
0, 3, 18, 53.35677719116211
0, 3, 19, 178.3199157714844
0, 3, 20, 270.265625
0, 3, 21, 271.69384765625
0, 3, 22, 282.205322265625
0, 3, 23, 285.4880981445312
0, 3, 24, 287.1558837890625
0, 3, 25, 275.0994873046875
0, 3, 26, 304.9203186035156
0, 3, 27, 292.3032836914062
0, 3, 28, 280.5317993164062
0, 3, 29, 337.0362548828125
0, 3, 30, 315.3445129394531
0, 3, 31, 284.1262817382812
0, 3, 32, 305.9235534667969
0, 3, 33, 312.9337768554688
0, 3, 34, 321.2559814453125
0, 3, 35, 307.5248107910156
0, 3, 36, 267.8671875
0, 3, 37, 313.4103088378906
0, 3, 38, 304.66748046875
0, 3, 39, 291.0396118164062
0, 3, 40, 269.0564880371094
0, 3, 41, 299.9745483398438
0, 3, 42, 286.5118103027344
0, 3, 43, 305.0518798828125
0, 3, 44, 312.2178039550781
0, 3, 45, 290.2701721191406
0, 3, 46, 332.2577819824219
0, 3, 47, 299.0338439941406
0, 3, 48, 304.2621154785156
0, 3, 49, 275.7774047851562
0, 3, 50, 290.6290283203125
0, 3, 51, 277.9622192382812
0, 3, 52, 317.9074096679688
0, 3, 53, 286.02685546875
0, 3, 54, 284.3760681152344
0, 3, 55, 284.6875610351562
0, 3, 56, 297.8353576660156
0, 3, 57, 288.4483032226562
0, 3, 58, 305.9197082519531
0, 3, 59, 296.9462585449219
0, 3, 60, 298.3163757324219
0, 3, 61, 265.1990356445312
0, 3, 62, 284.03662109375
0, 3, 63, 307.4052734375
0, 3, 64, 317.1894836425781
0, 3, 65, 306.135498046875
0, 3, 66, 313.2073669433594
0, 3, 67, 317.1502075195312
0, 3, 68, 278.5381774902344
0, 3, 69, 281.7676391601562
0, 3, 70, 286.3487243652344
0, 3, 71, 299.2649230957031
0, 3, 72, 272.2407836914062
0, 3, 73, 306.5335693359375
0, 3, 74, 292.3636779785156
0, 3, 75, 288.8118591308594
0, 3, 76, 306.2851867675781
0, 3, 77, 315.5390625
0, 3, 78, 303.0068664550781
0, 3, 79, 282.6664733886719
0, 3, 80, 289.8578796386719
0, 3, 81, 311.9800109863281
0, 3, 82, 314.7580871582031
0, 3, 83, 300.5773620605469
0, 3, 84, 311.3785705566406
0, 3, 85, 292.4452819824219
0, 3, 86, 302.0379028320312
0, 3, 87, 296.6960144042969
0, 3, 88, 299.6936950683594
0, 3, 89, 297.8392333984375
0, 3, 90, 276.2334289550781
0, 3, 91, 283.8236083984375
0, 3, 92, 302.4905395507812
0, 3, 93, 312.0394897460938
0, 3, 94, 298.3805236816406
0, 3, 95, 334.9985961914062
0, 3, 96, 290.558349609375
0, 3, 97, 284.2657470703125
0, 3, 98, 278.8310241699219
0, 3, 99, 262.0123596191406
0, 3, 100, 284.6340026855469
0, 3, 101, 295.8831481933594
0, 3, 102, 273.3182983398438
0, 3, 103, 320.2250061035156
0, 3, 104, 308.7023620605469
0, 3, 105, 288.5383605957031
0, 3, 106, 300.2671813964844
0, 3, 107, 283.1380615234375
0, 3, 108, 168.7406311035156
0, 3, 109, 57.97962951660156
0, 3, 110, 19.19724273681641
0, 3, 111, 12.14853096008301
0, 3, 112, 11.66979885101318
0, 3, 113, 7.29879093170166
0, 3, 114, 10.15796279907227
0, 3, 115, 7.591048717498779
0, 3, 116, 9.360023498535156
0, 3, 117, 6.456713199615479
0, 3, 118, 5.489861011505127
0, 3, 119, 6.05344820022583
0, 3, 120, 4.703970432281494
0, 3, 121, 2.365935087203979
0, 3, 122, 2.586096286773682
0, 3, 123, 5.664610385894775
0, 3, 124, 5.734879493713379
0, 3, 125, 9.50407886505127
0, 3, 126, 3.865602254867554
0, 3, 127, 4.245212078094482
0, 4, 0, 2.260072946548462
0, 4, 1, 3.955518007278442
0, 4, 2, 4.371568202972412
0, 4, 3, 3.397579193115234
0, 4, 4, 6.819929599761963
0, 4, 5, 7.854917049407959
0, 4, 6, 6.521040916442871
0, 4, 7, 4.047262191772461
0, 4, 8, 4.585910320281982
0, 4, 9, 7.138998508453369
0, 4, 10, 8.015180587768555
0, 4, 11, 7.480315685272217
0, 4, 12, 5.798956871032715
0, 4, 13, 8.543326377868652
0, 4, 14, 11.14048480987549
0, 4, 15, 10.18078708648682
0, 4, 16, 14.1965503692627
0, 4, 17, 18.8884162902832
0, 4, 18, 92.90938568115234
0, 4, 19, 221.2858123779297
0, 4, 20, 283.4969177246094
0, 4, 21, 271.423583984375
0, 4, 22, 303.5242309570312
0, 4, 23, 267.58740234375
0, 4, 24, 289.4285583496094
0, 4, 25, 272.1734619140625
0, 4, 26, 298.2213439941406
0, 4, 27, 283.0468444824219
0, 4, 28, 308.5191345214844
0, 4, 29, 323.1584167480469
0, 4, 30, 310.09716796875
0, 4, 31, 303.8580017089844
0, 4, 32, 281.9983520507812
0, 4, 33, 294.9044799804688
0, 4, 34, 297.9266967773438
0, 4, 35, 312.4839172363281
0, 4, 36, 290.8548278808594
0, 4, 37, 286.5104675292969
0, 4, 38, 297.5167846679688
0, 4, 39, 296.127197265625
0, 4, 40, 303.577880859375
0, 4, 41, 311.5760498046875
0, 4, 42, 329.0223999023438
0, 4, 43, 296.7525024414062
0, 4, 44, 323.7640075683594
0, 4, 45, 323.4535827636719
0, 4, 46, 306.9588012695312
0, 4, 47, 292.14697265625
0, 4, 48, 294.5158386230469
0, 4, 49, 279.0453796386719
0, 4, 50, 296.8950805664062
0, 4, 51, 317.0482482910156
0, 4, 52, 328.7281799316406
0, 4, 53, 303.6564636230469
0, 4, 54, 288.7223815917969
0, 4, 55, 315.5230407714844
0, 4, 56, 288.2571411132812
0, 4, 57, 312.2864990234375
0, 4, 58, 296.9753723144531
0, 4, 59, 308.8849487304688
0, 4, 60, 302.704345703125
0, 4, 61, 315.8968200683594
0, 4, 62, 308.2800903320312
0, 4, 63, 299.4880676269531
0, 4, 64, 329.1220092773438
0, 4, 65, 315.4307250976562
0, 4, 66, 293.7714233398438
0, 4, 67, 283.868896484375
0, 4, 68, 312.0184631347656
0, 4, 69, 277.2617797851562
0, 4, 70, 299.7300720214844
0, 4, 71, 322.0909118652344
0, 4, 72, 333.6555480957031
0, 4, 73, 300.9390258789062
0, 4, 74, 293.4745788574219
0, 4, 75, 288.9814453125
0, 4, 76, 276.4341430664062
0, 4, 77, 279.0225830078125
0, 4, 78, 311.6378479003906
0, 4, 79, 318.9814453125
0, 4, 80, 315.2234497070312
0, 4, 81, 312.5819702148438
0, 4, 82, 298.64404296875
0, 4, 83, 299.8352966308594
0, 4, 84, 294.4905395507812
0, 4, 85, 294.3908386230469
0, 4, 86, 296.5462341308594
0, 4, 87, 285.8175964355469
0, 4, 88, 306.47705078125
0, 4, 89, 296.3683776855469
0, 4, 90, 331.799072265625
0, 4, 91, 301.5469970703125
0, 4, 92, 294.5084228515625
0, 4, 93, 297.8976745605469
0, 4, 94, 294.5101318359375
0, 4, 95, 290.2158813476562
0, 4, 96, 321.5483703613281
0, 4, 97, 273.2232055664062
0, 4, 98, 326.6130981445312
0, 4, 99, 314.4859313964844
0, 4, 100, 302.0130310058594
0, 4, 101, 258.7508850097656
0, 4, 102, 298.7098388671875
0, 4, 103, 316.8800048828125
0, 4, 104, 280.8693542480469
0, 4, 105, 312.3870849609375
0, 4, 106, 286.9718017578125
0, 4, 107, 294.8745727539062
0, 4, 108, 226.8300018310547
0, 4, 109, 81.41603851318359
0, 4, 110, 17.69350051879883
0, 4, 111, 14.02403259277344
0, 4, 112, 9.424617767333984
0, 4, 113, 8.971170425415039
0, 4, 114, 10.13908290863037
0, 4, 115, 9.727460861206055
0, 4, 116, 10.81665515899658
0, 4, 117, 4.927408695220947
0, 4, 118, 9.423080444335938
0, 4, 119, 9.142559051513672
0, 4, 120, 6.098938465118408
0, 4, 121, 5.891148567199707
0, 4, 122, 4.450301170349121
0, 4, 123, 5.680760383605957
0, 4, 124, 4.31588888168335
0, 4, 125, 7.278603553771973
0, 4, 126, 5.136152744293213
0, 4, 127, 3.026632785797119
0, 5, 0, 3.744035482406616
0, 5, 1, 5.222278118133545
0, 5, 2, 6.425992012023926
0, 5, 3, 3.986136198043823
0, 5, 4, 7.193327903747559
0, 5, 5, 5.943047523498535
0, 5, 6, 6.532675743103027
0, 5, 7, 5.138394355773926
0, 5, 8, 3.462984085083008
0, 5, 9, 5.357918262481689
0, 5, 10, 5.989173412322998
0, 5, 11, 10.19074153900146
0, 5, 12, 9.162062644958496
0, 5, 13, 5.019074440002441
0, 5, 14, 11.42263507843018
0, 5, 15, 16.06696128845215
0, 5, 16, 15.79203224182129
0, 5, 17, 30.39952659606934
0, 5, 18, 141.4966888427734
0, 5, 19, 287.6074829101562
0, 5, 20, 307.5171813964844
0, 5, 21, 316.5475463867188
0, 5, 22, 276.6376647949219
0, 5, 23, 311.4306640625
0, 5, 24, 300.6044311523438
0, 5, 25, 288.6228637695312
0, 5, 26, 293.6897888183594
0, 5, 27, 320.0929260253906
0, 5, 28, 302.1238708496094
0, 5, 29, 299.935791015625
0, 5, 30, 325.0557861328125
0, 5, 31, 289.3902893066406
0, 5, 32, 304.307373046875
0, 5, 33, 302.8944396972656
0, 5, 34, 296.5084533691406
0, 5, 35, 310.9437866210938
0, 5, 36, 269.2642211914062
0, 5, 37, 282.0376586914062
0, 5, 38, 294.54248046875
0, 5, 39, 310.0150756835938
0, 5, 40, 309.894775390625
0, 5, 41, 274.4761352539062
0, 5, 42, 305.286865234375
0, 5, 43, 315.6778564453125
0, 5, 44, 291.2202453613281
0, 5, 45, 305.3357849121094
0, 5, 46, 265.3152465820312
0, 5, 47, 281.2848205566406
0, 5, 48, 293.9015502929688
0, 5, 49, 285.2879638671875
0, 5, 50, 293.438232421875
0, 5, 51, 278.0934448242188
0, 5, 52, 268.1698303222656
0, 5, 53, 283.8264465332031
0, 5, 54, 291.0930480957031
0, 5, 55, 343.8748474121094
0, 5, 56, 305.7313537597656
0, 5, 57, 309.6390380859375
0, 5, 58, 312.1047058105469
0, 5, 59, 303.9352722167969
0, 5, 60, 310.144287109375
0, 5, 61, 280.7239379882812
0, 5, 62, 323.2292175292969
0, 5, 63, 289.7870483398438
0, 5, 64, 324.0745544433594
0, 5, 65, 305.4393615722656
0, 5, 66, 328.0834350585938
0, 5, 67, 312.4403991699219
0, 5, 68, 307.8761901855469
0, 5, 69, 310.2626953125
0, 5, 70, 302.4922485351562
0, 5, 71, 275.7595520019531
0, 5, 72, 310.2009887695312
0, 5, 73, 305.69775390625
0, 5, 74, 295.09912109375
0, 5, 75, 294.83544921875
0, 5, 76, 286.5413818359375
0, 5, 77, 297.5084838867188
0, 5, 78, 313.1295166015625
0, 5, 79, 306.7333984375
0, 5, 80, 294.6799621582031
0, 5, 81, 324.8152465820312
0, 5, 82, 323.4552612304688
0, 5, 83, 280.5874633789062
0, 5, 84, 302.0794372558594
0, 5, 85, 272.0734558105469
0, 5, 86, 326.348876953125
0, 5, 87, 282.7966918945312
0, 5, 88, 312.715576171875
0, 5, 89, 303.2389526367188
0, 5, 90, 316.1138305664062
0, 5, 91, 313.4551086425781
0, 5, 92, 297.4663391113281
0, 5, 93, 322.3633422851562
0, 5, 94, 307.4335632324219
0, 5, 95, 296.077880859375
0, 5, 96, 296.231689453125
0, 5, 97, 296.4828491210938
0, 5, 98, 317.9019165039062
0, 5, 99, 303.2296447753906
0, 5, 100, 291.1924438476562
0, 5, 101, 305.2278442382812
0, 5, 102, 291.0953063964844
0, 5, 103, 314.1422119140625
0, 5, 104, 300.8761291503906
0, 5, 105, 292.1734008789062
0, 5, 106, 281.2876892089844
0, 5, 107, 294.2109680175781
0, 5, 108, 267.5238647460938
0, 5, 109, 158.570068359375
0, 5, 110, 40.86237716674805
0, 5, 111, 20.51282119750977
0, 5, 112, 15.9365119934082
0, 5, 113, 12.61374473571777
0, 5, 114, 10.80319976806641
0, 5, 115, 6.918638706207275
0, 5, 116, 8.317289352416992
0, 5, 117, 7.659499645233154
0, 5, 118, 15.63729000091553
0, 5, 119, 3.886553049087524
0, 5, 120, 4.69830846786499
0, 5, 121, 4.837005615234375
0, 5, 122, 5.57101583480835
0, 5, 123, 4.617416858673096
0, 5, 124, 5.818199634552002
0, 5, 125, 3.690944910049438
0, 5, 126, 6.093981742858887
0, 5, 127, 3.065503120422363
0, 6, 0, 5.004861354827881
0, 6, 1, 3.130086183547974
0, 6, 2, 4.693918704986572
0, 6, 3, 6.070697784423828
0, 6, 4, 2.709295749664307
0, 6, 5, 5.66015100479126
0, 6, 6, 11.75542831420898
0, 6, 7, 6.918913841247559
0, 6, 8, 8.755939483642578
0, 6, 9, 7.017457008361816
0, 6, 10, 7.891876220703125
0, 6, 11, 7.538424968719482
0, 6, 12, 9.813173294067383
0, 6, 13, 14.94002246856689
0, 6, 14, 8.292933464050293
0, 6, 15, 15.40169429779053
0, 6, 16, 30.41281127929688
0, 6, 17, 55.78926849365234
0, 6, 18, 175.0116577148438
0, 6, 19, 276.7727355957031
0, 6, 20, 292.5966186523438
0, 6, 21, 315.0469665527344
0, 6, 22, 320.620849609375
0, 6, 23, 304.1805725097656
0, 6, 24, 319.3677673339844
0, 6, 25, 315.2919616699219
0, 6, 26, 319.9217224121094
0, 6, 27, 330.7442932128906
0, 6, 28, 297.9240112304688
0, 6, 29, 332.8407592773438
0, 6, 30, 284.3392028808594
0, 6, 31, 285.857177734375
0, 6, 32, 340.8286437988281
0, 6, 33, 298.782958984375
0, 6, 34, 341.8651733398438
0, 6, 35, 319.4872741699219
0, 6, 36, 274.5874938964844
0, 6, 37, 290.6666259765625
0, 6, 38, 309.6734313964844
0, 6, 39, 300.6940307617188
0, 6, 40, 283.8888854980469
0, 6, 41, 295.3103332519531
0, 6, 42, 310.1011962890625
0, 6, 43, 289.7866516113281
0, 6, 44, 279.5341796875
0, 6, 45, 321.41357421875
0, 6, 46, 302.9568176269531
0, 6, 47, 332.1891174316406
0, 6, 48, 294.560791015625
0, 6, 49, 309.8180847167969
0, 6, 50, 329.2891845703125
0, 6, 51, 310.9361267089844
0, 6, 52, 320.231201171875
0, 6, 53, 325.7886657714844
0, 6, 54, 305.4225158691406
0, 6, 55, 304.4616394042969
0, 6, 56, 293.8035278320312
0, 6, 57, 313.2843933105469
0, 6, 58, 261.2149047851562
0, 6, 59, 303.5063781738281
0, 6, 60, 313.6826782226562
0, 6, 61, 270.8656921386719
0, 6, 62, 337.8416748046875
0, 6, 63, 322.9071960449219
0, 6, 64, 293.0855712890625
0, 6, 65, 284.1286926269531
0, 6, 66, 307.0165100097656
0, 6, 67, 311.2415466308594
0, 6, 68, 294.1464233398438
0, 6, 69, 280.047119140625
0, 6, 70, 274.5022583007812
0, 6, 71, 290.7472839355469
0, 6, 72, 309.8363647460938
0, 6, 73, 293.4497375488281
0, 6, 74, 329.1978149414062
0, 6, 75, 344.2036437988281
0, 6, 76, 298.6224060058594
0, 6, 77, 284.44287109375
0, 6, 78, 276.7928771972656
0, 6, 79, 293.0069885253906
0, 6, 80, 301.6954650878906
0, 6, 81, 314.4827270507812
0, 6, 82, 322.4050598144531
0, 6, 83, 317.3140869140625
0, 6, 84, 295.2633361816406
0, 6, 85, 301.424560546875
0, 6, 86, 330.9859619140625
0, 6, 87, 291.0703735351562
0, 6, 88, 305.7980346679688
0, 6, 89, 305.4977111816406
0, 6, 90, 298.3368225097656
0, 6, 91, 312.4382934570312
0, 6, 92, 282.8251647949219
0, 6, 93, 294.9446716308594
0, 6, 94, 274.0810852050781
0, 6, 95, 298.5916748046875
0, 6, 96, 345.7727661132812
0, 6, 97, 308.474609375
0, 6, 98, 300.2811889648438
0, 6, 99, 272.0971374511719
0, 6, 100, 307.3976440429688
0, 6, 101, 295.36279296875
0, 6, 102, 310.3689575195312
0, 6, 103, 308.1166381835938
0, 6, 104, 291.1327209472656
0, 6, 105, 301.0401000976562
0, 6, 106, 307.0931396484375
0, 6, 107, 308.835205078125
0, 6, 108, 265.6820373535156
0, 6, 109, 186.0264434814453
0, 6, 110, 54.96807861328125
0, 6, 111, 22.13394546508789
0, 6, 112, 13.41664600372314
0, 6, 113, 12.04940223693848
0, 6, 114, 12.76845264434814
0, 6, 115, 11.39784908294678
0, 6, 116, 8.582536697387695
0, 6, 117, 6.676280975341797
0, 6, 118, 10.27901268005371
0, 6, 119, 9.445315361022949
0, 6, 120, 6.266283512115479
0, 6, 121, 7.629026889801025
0, 6, 122, 7.005164623260498
0, 6, 123, 3.851859569549561
0, 6, 124, 6.795722484588623
0, 6, 125, 7.037932872772217
0, 6, 126, 5.012352466583252
0, 6, 127, 6.40838623046875
0, 7, 0, 4.454195976257324
0, 7, 1, 4.836532592773438
0, 7, 2, 6.997689247131348
0, 7, 3, 6.948797225952148
0, 7, 4, 5.922318458557129
0, 7, 5, 5.170843124389648
0, 7, 6, 5.37946605682373
0, 7, 7, 5.058468341827393
0, 7, 8, 6.174242973327637
0, 7, 9, 5.185253620147705
0, 7, 10, 10.15614128112793
0, 7, 11, 9.222763061523438
0, 7, 12, 9.370375633239746
0, 7, 13, 11.67669677734375
0, 7, 14, 12.22775554656982
0, 7, 15, 19.98448181152344
0, 7, 16, 25.41118431091309
0, 7, 17, 96.57427215576172
0, 7, 18, 219.1082611083984
0, 7, 19, 290.5288696289062
0, 7, 20, 297.9989929199219
0, 7, 21, 276.3828735351562
0, 7, 22, 299.5813598632812
0, 7, 23, 290.148681640625
0, 7, 24, 313.4289855957031
0, 7, 25, 323.2004089355469
0, 7, 26, 277.9578247070312
0, 7, 27, 298.5472412109375
0, 7, 28, 325.3443298339844
0, 7, 29, 318.4451293945312
0, 7, 30, 299.6603393554688
0, 7, 31, 276.3222045898438
0, 7, 32, 305.5269165039062
0, 7, 33, 263.0450744628906
0, 7, 34, 298.9674987792969
0, 7, 35, 318.6260986328125
0, 7, 36, 330.3591918945312
0, 7, 37, 322.664306640625
0, 7, 38, 294.1473693847656
0, 7, 39, 305.6110534667969
0, 7, 40, 290.5924987792969
0, 7, 41, 271.1853332519531
0, 7, 42, 299.1543884277344
0, 7, 43, 271.9127502441406
0, 7, 44, 303.8015747070312
0, 7, 45, 295.3965454101562
0, 7, 46, 279.0923461914062
0, 7, 47, 328.0755615234375
0, 7, 48, 288.8574523925781
0, 7, 49, 300.7685852050781
0, 7, 50, 321.2893371582031
0, 7, 51, 299.3841552734375
0, 7, 52, 326.6476440429688
0, 7, 53, 311.971435546875
0, 7, 54, 323.8062438964844
0, 7, 55, 306.6283874511719
0, 7, 56, 278.6370239257812
0, 7, 57, 281.4669189453125
0, 7, 58, 296.7717895507812
0, 7, 59, 292.1620788574219
0, 7, 60, 325.5712585449219
0, 7, 61, 280.5028381347656
0, 7, 62, 297.7984619140625
0, 7, 63, 293.7120361328125
0, 7, 64, 307.5841674804688
0, 7, 65, 329.7853393554688
0, 7, 66, 317.5775146484375
0, 7, 67, 300.9934387207031
0, 7, 68, 280.4252624511719
0, 7, 69, 294.559814453125
0, 7, 70, 301.0038452148438
0, 7, 71, 309.4571533203125
0, 7, 72, 285.7803039550781
0, 7, 73, 296.8868713378906
0, 7, 74, 345.9125061035156
0, 7, 75, 318.9931030273438
0, 7, 76, 323.6545104980469
0, 7, 77, 282.6241760253906
0, 7, 78, 303.3133850097656
0, 7, 79, 299.5525512695312
0, 7, 80, 312.393798828125
0, 7, 81, 318.2647705078125
0, 7, 82, 328.7062377929688
0, 7, 83, 316.2188110351562
0, 7, 84, 312.0149536132812
0, 7, 85, 272.2691345214844
0, 7, 86, 311.1954956054688
0, 7, 87, 309.9972839355469
0, 7, 88, 306.6758422851562
0, 7, 89, 294.1446838378906
0, 7, 90, 306.2075500488281
0, 7, 91, 317.6761169433594
0, 7, 92, 288.4307250976562
0, 7, 93, 308.5586242675781
0, 7, 94, 278.7503662109375
0, 7, 95, 298.7529602050781
0, 7, 96, 331.6908874511719
0, 7, 97, 295.2245178222656
0, 7, 98, 291.4254150390625
0, 7, 99, 310.4954223632812
0, 7, 100, 281.4674682617188
0, 7, 101, 277.4335327148438
0, 7, 102, 294.9494323730469
0, 7, 103, 293.3940734863281
0, 7, 104, 273.8936462402344
0, 7, 105, 308.6847229003906
0, 7, 106, 317.4945983886719
0, 7, 107, 297.5118408203125
0, 7, 108, 272.8367614746094
0, 7, 109, 234.8804779052734
0, 7, 110, 98.20920562744141
0, 7, 111, 24.22017478942871
0, 7, 112, 13.50039863586426
0, 7, 113, 14.55990600585938
0, 7, 114, 13.91105842590332
0, 7, 115, 12.41092967987061
0, 7, 116, 10.71221923828125
0, 7, 117, 5.066993236541748
0, 7, 118, 7.658401966094971
0, 7, 119, 6.867446899414062
0, 7, 120, 4.892880916595459
0, 7, 121, 6.499635219573975
0, 7, 122, 9.020280838012695
0, 7, 123, 6.778707027435303
0, 7, 124, 3.465597867965698
0, 7, 125, 6.152677536010742
0, 7, 126, 8.714163780212402
0, 7, 127, 5.111278057098389
0, 8, 0, 4.671387195587158
0, 8, 1, 4.924758434295654
0, 8, 2, 4.474258899688721
0, 8, 3, 2.058516502380371
0, 8, 4, 4.678055763244629
0, 8, 5, 3.595823526382446
0, 8, 6, 4.493681907653809
0, 8, 7, 6.636642932891846
0, 8, 8, 8.522614479064941
0, 8, 9, 5.206828594207764
0, 8, 10, 7.463972091674805
0, 8, 11, 12.01122379302979
0, 8, 12, 13.90152168273926
0, 8, 13, 16.14680480957031
0, 8, 14, 14.06031227111816
0, 8, 15, 17.01847267150879
0, 8, 16, 31.48061752319336
0, 8, 17, 129.7357940673828
0, 8, 18, 243.7031555175781
0, 8, 19, 295.4010925292969
0, 8, 20, 285.4639587402344
0, 8, 21, 307.6808776855469
0, 8, 22, 295.8267211914062
0, 8, 23, 273.5147399902344
0, 8, 24, 267.8173217773438
0, 8, 25, 275.1418762207031
0, 8, 26, 307.0155334472656
0, 8, 27, 308.51806640625
0, 8, 28, 303.5529174804688
0, 8, 29, 320.8536071777344
0, 8, 30, 315.2091979980469
0, 8, 31, 305.4136657714844
0, 8, 32, 278.9804382324219
0, 8, 33, 293.9713134765625
0, 8, 34, 289.4440307617188
0, 8, 35, 279.7492065429688
0, 8, 36, 315.5700988769531
0, 8, 37, 338.9906311035156
0, 8, 38, 332.7223205566406
0, 8, 39, 280.0252380371094
0, 8, 40, 303.7366638183594
