# TOPAS Version: 3.1.p3
# Parameter File: batch_inserts_130.txt
# Results for scorer Readout_Adipose
# Scored in component: MyBox
# X in 1 bin  of 0.75 cm
# Y in 512 bins of 0.0783984 cm
# Z in 128 bins of 0.078125 cm
# EnergyDeposit ( MeV ) : Sum   
0, 0, 0, 5.127233505249023
0, 0, 1, 2.118760347366333
0, 0, 2, 2.455652713775635
0, 0, 3, 1.723491787910461
0, 0, 4, 4.234687805175781
0, 0, 5, 2.65046763420105
0, 0, 6, 7.515942096710205
0, 0, 7, 8.460679054260254
0, 0, 8, 2.93335223197937
0, 0, 9, 4.684387683868408
0, 0, 10, 6.982021808624268
0, 0, 11, 4.718368530273438
0, 0, 12, 3.927925825119019
0, 0, 13, 5.495282173156738
0, 0, 14, 7.98212718963623
0, 0, 15, 9.903914451599121
0, 0, 16, 8.590351104736328
0, 0, 17, 8.519670486450195
0, 0, 18, 12.84064769744873
0, 0, 19, 42.89726257324219
0, 0, 20, 139.7747802734375
0, 0, 21, 221.7469177246094
0, 0, 22, 248.7540283203125
0, 0, 23, 257.0054016113281
0, 0, 24, 252.0544281005859
0, 0, 25, 258.1053161621094
0, 0, 26, 233.0907897949219
0, 0, 27, 236.7988739013672
0, 0, 28, 270.6821594238281
0, 0, 29, 251.8803863525391
0, 0, 30, 229.8746795654297
0, 0, 31, 244.3397674560547
0, 0, 32, 263.408203125
0, 0, 33, 262.4780883789062
0, 0, 34, 287.0782775878906
0, 0, 35, 267.0146789550781
0, 0, 36, 247.0095367431641
0, 0, 37, 253.9597930908203
0, 0, 38, 268.3031616210938
0, 0, 39, 229.3687744140625
0, 0, 40, 240.6036224365234
0, 0, 41, 264.5426330566406
0, 0, 42, 230.6686401367188
0, 0, 43, 259.7703552246094
0, 0, 44, 252.947265625
0, 0, 45, 253.7363128662109
0, 0, 46, 243.4388122558594
0, 0, 47, 252.8631591796875
0, 0, 48, 270.4391784667969
0, 0, 49, 274.0852661132812
0, 0, 50, 250.8907012939453
0, 0, 51, 254.9679260253906
0, 0, 52, 271.7046508789062
0, 0, 53, 293.8171691894531
0, 0, 54, 241.7675170898438
0, 0, 55, 239.6378631591797
0, 0, 56, 277.5458984375
0, 0, 57, 262.3201904296875
0, 0, 58, 247.1650238037109
0, 0, 59, 271.0388488769531
0, 0, 60, 234.9882354736328
0, 0, 61, 245.0323181152344
0, 0, 62, 256.8315734863281
0, 0, 63, 267.537353515625
0, 0, 64, 254.7994384765625
0, 0, 65, 261.5322875976562
0, 0, 66, 277.2468872070312
0, 0, 67, 247.6531219482422
0, 0, 68, 258.8365478515625
0, 0, 69, 261.5057678222656
0, 0, 70, 272.7539672851562
0, 0, 71, 238.0683441162109
0, 0, 72, 249.8559875488281
0, 0, 73, 258.2005004882812
0, 0, 74, 251.2319488525391
0, 0, 75, 241.9018859863281
0, 0, 76, 229.6374969482422
0, 0, 77, 258.7467041015625
0, 0, 78, 256.7197570800781
0, 0, 79, 279.0656127929688
0, 0, 80, 216.3381652832031
0, 0, 81, 266.0845336914062
0, 0, 82, 257.1766662597656
0, 0, 83, 248.4626617431641
0, 0, 84, 269.8578491210938
0, 0, 85, 231.2958526611328
0, 0, 86, 252.6228485107422
0, 0, 87, 250.7571258544922
0, 0, 88, 261.6643676757812
0, 0, 89, 283.6078186035156
0, 0, 90, 243.4675598144531
0, 0, 91, 282.2643737792969
0, 0, 92, 254.0552673339844
0, 0, 93, 251.0636444091797
0, 0, 94, 250.2077484130859
0, 0, 95, 247.9063262939453
0, 0, 96, 274.3882751464844
0, 0, 97, 274.1129760742188
0, 0, 98, 272.7778930664062
0, 0, 99, 259.3515625
0, 0, 100, 258.4858093261719
0, 0, 101, 227.7659301757812
0, 0, 102, 235.7406463623047
0, 0, 103, 269.9756164550781
0, 0, 104, 254.1674194335938
0, 0, 105, 252.200439453125
0, 0, 106, 247.2209625244141
0, 0, 107, 153.1149444580078
0, 0, 108, 37.54563140869141
0, 0, 109, 11.35199451446533
0, 0, 110, 12.8405122756958
0, 0, 111, 9.474532127380371
0, 0, 112, 6.933028221130371
0, 0, 113, 4.988149166107178
0, 0, 114, 8.852703094482422
0, 0, 115, 3.902035236358643
0, 0, 116, 5.553786277770996
0, 0, 117, 6.237183094024658
0, 0, 118, 7.49946928024292
0, 0, 119, 4.463892459869385
0, 0, 120, 3.270078897476196
0, 0, 121, 3.148477792739868
0, 0, 122, 5.583255767822266
0, 0, 123, 7.301061153411865
0, 0, 124, 6.324901103973389
0, 0, 125, 4.374798774719238
0, 0, 126, 5.809544086456299
0, 0, 127, 2.27046275138855
0, 1, 0, 6.955160140991211
0, 1, 1, 2.17623496055603
0, 1, 2, 4.390081882476807
0, 1, 3, 1.823201060295105
0, 1, 4, 3.552166223526001
0, 1, 5, 4.620640754699707
0, 1, 6, 5.156666278839111
0, 1, 7, 6.214946746826172
0, 1, 8, 5.516682147979736
0, 1, 9, 3.50217866897583
0, 1, 10, 10.16408729553223
0, 1, 11, 11.34346580505371
0, 1, 12, 8.063576698303223
0, 1, 13, 8.289949417114258
0, 1, 14, 8.677921295166016
0, 1, 15, 10.24263668060303
0, 1, 16, 12.74316596984863
0, 1, 17, 10.39476680755615
0, 1, 18, 22.96333312988281
0, 1, 19, 65.29774475097656
0, 1, 20, 199.5006713867188
0, 1, 21, 256.556640625
0, 1, 22, 298.304931640625
0, 1, 23, 282.4942932128906
0, 1, 24, 275.9377136230469
0, 1, 25, 288.0660705566406
0, 1, 26, 269.3038940429688
0, 1, 27, 307.2159729003906
0, 1, 28, 299.3916931152344
0, 1, 29, 295.0999755859375
0, 1, 30, 282.3067932128906
0, 1, 31, 290.9986572265625
0, 1, 32, 289.9819641113281
0, 1, 33, 296.7069396972656
0, 1, 34, 293.455810546875
0, 1, 35, 278.3580932617188
0, 1, 36, 306.2326049804688
0, 1, 37, 295.5404052734375
0, 1, 38, 278.1315307617188
0, 1, 39, 295.0623168945312
0, 1, 40, 265.4042358398438
0, 1, 41, 287.1959838867188
0, 1, 42, 288.9940185546875
0, 1, 43, 332.3956298828125
0, 1, 44, 277.5755920410156
0, 1, 45, 292.5886840820312
0, 1, 46, 258.7227783203125
0, 1, 47, 309.8728332519531
0, 1, 48, 283.8614807128906
0, 1, 49, 303.3333740234375
0, 1, 50, 264.8058166503906
0, 1, 51, 271.7954711914062
0, 1, 52, 295.5299377441406
0, 1, 53, 303.5135803222656
0, 1, 54, 273.797607421875
0, 1, 55, 293.0007934570312
0, 1, 56, 278.3701782226562
0, 1, 57, 299.2544555664062
0, 1, 58, 310.3548889160156
0, 1, 59, 292.7406616210938
0, 1, 60, 296.3601379394531
0, 1, 61, 275.3330078125
0, 1, 62, 309.1764221191406
0, 1, 63, 289.9896545410156
0, 1, 64, 289.3423461914062
0, 1, 65, 294.5788269042969
0, 1, 66, 294.2493591308594
0, 1, 67, 292.8887023925781
0, 1, 68, 277.3614807128906
0, 1, 69, 278.8580627441406
0, 1, 70, 270.8734741210938
0, 1, 71, 272.8860778808594
0, 1, 72, 285.1713256835938
0, 1, 73, 303.7190856933594
0, 1, 74, 304.554931640625
0, 1, 75, 292.7551574707031
0, 1, 76, 288.5811462402344
0, 1, 77, 290.1729125976562
0, 1, 78, 298.6907653808594
0, 1, 79, 303.3614196777344
0, 1, 80, 296.3816528320312
0, 1, 81, 299.5479736328125
0, 1, 82, 284.4801940917969
0, 1, 83, 330.5335388183594
0, 1, 84, 308.2539367675781
0, 1, 85, 252.9629669189453
0, 1, 86, 293.9780578613281
0, 1, 87, 289.8017883300781
0, 1, 88, 297.0679931640625
0, 1, 89, 292.9265441894531
0, 1, 90, 270.3099975585938
0, 1, 91, 318.5613098144531
0, 1, 92, 291.4683837890625
0, 1, 93, 285.9118347167969
0, 1, 94, 302.4385986328125
0, 1, 95, 284.4668579101562
0, 1, 96, 282.1629028320312
0, 1, 97, 301.7997436523438
0, 1, 98, 278.2669067382812
0, 1, 99, 268.16748046875
0, 1, 100, 278.430908203125
0, 1, 101, 280.4945373535156
0, 1, 102, 278.4957580566406
0, 1, 103, 281.5218505859375
0, 1, 104, 305.1260375976562
0, 1, 105, 295.8782958984375
0, 1, 106, 260.003173828125
0, 1, 107, 191.81396484375
0, 1, 108, 82.42392730712891
0, 1, 109, 23.59439468383789
0, 1, 110, 11.3099889755249
0, 1, 111, 7.714289665222168
0, 1, 112, 12.26492023468018
0, 1, 113, 6.867795467376709
0, 1, 114, 6.25158166885376
0, 1, 115, 5.259483814239502
0, 1, 116, 10.95702648162842
0, 1, 117, 5.695549964904785
0, 1, 118, 4.571161270141602
0, 1, 119, 4.179425716400146
0, 1, 120, 5.635309219360352
0, 1, 121, 2.442909240722656
0, 1, 122, 3.427282094955444
0, 1, 123, 3.846667289733887
0, 1, 124, 8.31563663482666
0, 1, 125, 4.765060424804688
0, 1, 126, 2.191423892974854
0, 1, 127, 1.545178890228271
0, 2, 0, 5.653590202331543
0, 2, 1, 2.03528094291687
0, 2, 2, 4.724902629852295
0, 2, 3, 7.177325248718262
0, 2, 4, 2.214924335479736
0, 2, 5, 2.141706943511963
0, 2, 6, 2.857647657394409
0, 2, 7, 5.0131516456604
0, 2, 8, 5.050187587738037
0, 2, 9, 6.156576156616211
0, 2, 10, 7.549471855163574
0, 2, 11, 5.392932415008545
0, 2, 12, 6.510993003845215
0, 2, 13, 10.37793159484863
0, 2, 14, 9.339333534240723
0, 2, 15, 8.985115051269531
0, 2, 16, 8.980741500854492
0, 2, 17, 16.1871395111084
0, 2, 18, 30.48895645141602
0, 2, 19, 115.0267486572266
0, 2, 20, 247.2433929443359
0, 2, 21, 271.4826354980469
0, 2, 22, 316.6719665527344
0, 2, 23, 302.8457641601562
0, 2, 24, 286.8271179199219
0, 2, 25, 302.7878723144531
0, 2, 26, 292.8451538085938
0, 2, 27, 275.4533081054688
0, 2, 28, 272.7866821289062
0, 2, 29, 275.2263488769531
0, 2, 30, 289.6913757324219
0, 2, 31, 279.5983276367188
0, 2, 32, 293.8002624511719
0, 2, 33, 281.3581237792969
0, 2, 34, 330.99609375
0, 2, 35, 289.5487060546875
0, 2, 36, 303.5876159667969
0, 2, 37, 316.1438598632812
0, 2, 38, 312.7579650878906
0, 2, 39, 267.7553405761719
0, 2, 40, 308.3873596191406
0, 2, 41, 293.4905395507812
0, 2, 42, 304.1802368164062
0, 2, 43, 314.2441711425781
0, 2, 44, 312.5830383300781
0, 2, 45, 324.6344299316406
0, 2, 46, 287.503662109375
0, 2, 47, 302.9258422851562
0, 2, 48, 279.7023010253906
0, 2, 49, 279.3700866699219
0, 2, 50, 294.0160522460938
0, 2, 51, 283.8054809570312
0, 2, 52, 275.5894470214844
0, 2, 53, 285.9774780273438
0, 2, 54, 280.3883666992188
0, 2, 55, 276.6818542480469
0, 2, 56, 303.9622802734375
0, 2, 57, 293.05078125
0, 2, 58, 304.4696655273438
0, 2, 59, 288.7958068847656
0, 2, 60, 319.9605102539062
0, 2, 61, 302.57470703125
0, 2, 62, 314.64404296875
0, 2, 63, 302.083740234375
0, 2, 64, 297.2554931640625
0, 2, 65, 314.4698486328125
0, 2, 66, 279.8875122070312
0, 2, 67, 291.5905151367188
0, 2, 68, 295.2837829589844
0, 2, 69, 312.644775390625
0, 2, 70, 334.7529296875
0, 2, 71, 284.9814147949219
0, 2, 72, 302.1007690429688
0, 2, 73, 311.4284362792969
0, 2, 74, 286.1209411621094
0, 2, 75, 305.953125
0, 2, 76, 288.0869140625
0, 2, 77, 298.6822509765625
0, 2, 78, 316.5908508300781
0, 2, 79, 307.9871826171875
0, 2, 80, 294.8682556152344
0, 2, 81, 283.8340148925781
0, 2, 82, 320.6518859863281
0, 2, 83, 311.5920715332031
0, 2, 84, 288.0221252441406
0, 2, 85, 284.1710205078125
0, 2, 86, 323.4688110351562
0, 2, 87, 287.1416931152344
0, 2, 88, 281.0246276855469
0, 2, 89, 296.3968505859375
0, 2, 90, 297.7672729492188
0, 2, 91, 275.8760375976562
0, 2, 92, 307.6268920898438
0, 2, 93, 317.27978515625
0, 2, 94, 291.6180419921875
0, 2, 95, 316.5664672851562
0, 2, 96, 314.6130065917969
0, 2, 97, 289.8497619628906
0, 2, 98, 292.7457885742188
0, 2, 99, 273.1470947265625
0, 2, 100, 305.6343994140625
0, 2, 101, 300.8181457519531
0, 2, 102, 296.873046875
0, 2, 103, 293.1782531738281
0, 2, 104, 291.5084228515625
0, 2, 105, 272.6617431640625
0, 2, 106, 295.5775146484375
0, 2, 107, 268.7194519042969
0, 2, 108, 115.4346694946289
0, 2, 109, 32.46646499633789
0, 2, 110, 9.615961074829102
0, 2, 111, 10.49442291259766
0, 2, 112, 7.554360866546631
0, 2, 113, 11.72440242767334
0, 2, 114, 8.783858299255371
0, 2, 115, 8.578395843505859
0, 2, 116, 9.773774147033691
0, 2, 117, 9.597082138061523
0, 2, 118, 5.243388175964355
0, 2, 119, 3.583586454391479
0, 2, 120, 6.046458721160889
0, 2, 121, 1.788225650787354
0, 2, 122, 4.493428230285645
0, 2, 123, 4.243170261383057
0, 2, 124, 4.33103084564209
0, 2, 125, 5.587612152099609
0, 2, 126, 3.850269556045532
0, 2, 127, 4.392981052398682
0, 3, 0, 3.736479520797729
0, 3, 1, 2.780843496322632
0, 3, 2, 3.997647047042847
0, 3, 3, 0.9113256931304932
0, 3, 4, 4.900512218475342
0, 3, 5, 8.153141975402832
0, 3, 6, 6.036978244781494
0, 3, 7, 5.932743072509766
0, 3, 8, 4.694913387298584
0, 3, 9, 6.690025806427002
0, 3, 10, 6.74693489074707
0, 3, 11, 5.569528102874756
0, 3, 12, 9.754189491271973
0, 3, 13, 15.85292053222656
0, 3, 14, 11.11125755310059
0, 3, 15, 13.23707008361816
0, 3, 16, 12.66528797149658
0, 3, 17, 21.47928619384766
0, 3, 18, 52.03396987915039
0, 3, 19, 174.8933563232422
0, 3, 20, 268.6761169433594
0, 3, 21, 271.4032897949219
0, 3, 22, 284.2705688476562
0, 3, 23, 285.4441528320312
0, 3, 24, 286.188232421875
0, 3, 25, 269.2510681152344
0, 3, 26, 302.9492797851562
0, 3, 27, 292.4884033203125
0, 3, 28, 279.2916870117188
0, 3, 29, 339.4419250488281
0, 3, 30, 314.7474670410156
0, 3, 31, 285.3420104980469
0, 3, 32, 307.7104187011719
0, 3, 33, 313.2258605957031
0, 3, 34, 322.0577392578125
0, 3, 35, 305.9503784179688
0, 3, 36, 269.4893493652344
0, 3, 37, 311.5275573730469
0, 3, 38, 304.9304809570312
0, 3, 39, 291.4750061035156
0, 3, 40, 266.5750122070312
0, 3, 41, 299.322265625
0, 3, 42, 283.9060974121094
0, 3, 43, 306.8462219238281
0, 3, 44, 311.23486328125
0, 3, 45, 290.4214172363281
0, 3, 46, 328.1163940429688
0, 3, 47, 298.21630859375
0, 3, 48, 302.7949829101562
0, 3, 49, 278.1963500976562
0, 3, 50, 291.7512512207031
0, 3, 51, 276.2235107421875
0, 3, 52, 315.027587890625
0, 3, 53, 287.1743774414062
0, 3, 54, 285.3300170898438
0, 3, 55, 283.4336242675781
0, 3, 56, 297.476806640625
0, 3, 57, 288.3154296875
0, 3, 58, 306.5480651855469
0, 3, 59, 296.0108032226562
0, 3, 60, 300.02587890625
0, 3, 61, 264.8239135742188
0, 3, 62, 283.5797119140625
0, 3, 63, 305.3482360839844
0, 3, 64, 315.2491149902344
0, 3, 65, 303.8454895019531
0, 3, 66, 314.0552978515625
0, 3, 67, 317.0111999511719
0, 3, 68, 279.2857360839844
0, 3, 69, 282.7326354980469
0, 3, 70, 287.1723022460938
0, 3, 71, 299.6967468261719
0, 3, 72, 270.0265502929688
0, 3, 73, 306.375244140625
0, 3, 74, 292.687255859375
0, 3, 75, 291.9341125488281
0, 3, 76, 306.4901428222656
0, 3, 77, 313.3900146484375
0, 3, 78, 304.1495056152344
0, 3, 79, 283.1659240722656
0, 3, 80, 290.4679870605469
0, 3, 81, 312.4740905761719
0, 3, 82, 315.7899169921875
0, 3, 83, 301.8961486816406
0, 3, 84, 311.1729736328125
0, 3, 85, 294.6491088867188
0, 3, 86, 300.8106079101562
0, 3, 87, 298.0089111328125
0, 3, 88, 298.3324584960938
0, 3, 89, 297.2926330566406
0, 3, 90, 276.6553649902344
0, 3, 91, 284.8533630371094
0, 3, 92, 304.6474304199219
0, 3, 93, 312.4151916503906
0, 3, 94, 296.849365234375
0, 3, 95, 335.7878112792969
0, 3, 96, 295.1782531738281
0, 3, 97, 282.1555480957031
0, 3, 98, 277.8015747070312
0, 3, 99, 262.1297912597656
0, 3, 100, 285.859130859375
0, 3, 101, 297.1638793945312
0, 3, 102, 275.9313354492188
0, 3, 103, 320.7000122070312
0, 3, 104, 308.3565673828125
0, 3, 105, 288.0197448730469
0, 3, 106, 302.7108764648438
0, 3, 107, 284.1760559082031
0, 3, 108, 168.6179656982422
0, 3, 109, 59.32673645019531
0, 3, 110, 17.09317207336426
0, 3, 111, 12.44513130187988
0, 3, 112, 15.10675621032715
0, 3, 113, 8.226931571960449
0, 3, 114, 11.30798435211182
0, 3, 115, 6.620658397674561
0, 3, 116, 9.824706077575684
0, 3, 117, 6.943527698516846
0, 3, 118, 9.687124252319336
0, 3, 119, 4.606344223022461
0, 3, 120, 8.151667594909668
0, 3, 121, 2.906554460525513
0, 3, 122, 2.211680173873901
0, 3, 123, 5.378205299377441
0, 3, 124, 4.360380172729492
0, 3, 125, 6.132592678070068
0, 3, 126, 3.110140085220337
0, 3, 127, 3.900696992874146
0, 4, 0, 2.993672609329224
0, 4, 1, 5.659378051757812
0, 4, 2, 4.473759174346924
0, 4, 3, 4.029234886169434
0, 4, 4, 6.425350189208984
0, 4, 5, 9.173703193664551
0, 4, 6, 5.752120018005371
0, 4, 7, 4.194287776947021
0, 4, 8, 3.928217649459839
0, 4, 9, 6.155972003936768
0, 4, 10, 7.148417472839355
0, 4, 11, 5.341957092285156
0, 4, 12, 5.95329475402832
0, 4, 13, 7.589395046234131
0, 4, 14, 10.98191356658936
0, 4, 15, 9.01337718963623
0, 4, 16, 14.26364898681641
0, 4, 17, 17.95965766906738
0, 4, 18, 92.06863403320312
0, 4, 19, 223.2411193847656
0, 4, 20, 285.0970153808594
0, 4, 21, 272.5369567871094
0, 4, 22, 305.8665161132812
0, 4, 23, 266.0652465820312
0, 4, 24, 288.193603515625
0, 4, 25, 272.4992370605469
0, 4, 26, 294.4661865234375
0, 4, 27, 283.7482604980469
0, 4, 28, 306.5696105957031
0, 4, 29, 322.9572143554688
0, 4, 30, 309.2776489257812
0, 4, 31, 302.6690063476562
0, 4, 32, 283.5802307128906
0, 4, 33, 296.1631164550781
0, 4, 34, 301.2069091796875
0, 4, 35, 311.91064453125
0, 4, 36, 291.5790710449219
0, 4, 37, 288.8091735839844
0, 4, 38, 298.0569458007812
0, 4, 39, 295.0065002441406
0, 4, 40, 301.6964111328125
0, 4, 41, 316.5652770996094
0, 4, 42, 329.3377685546875
0, 4, 43, 297.5277709960938
0, 4, 44, 320.5032653808594
0, 4, 45, 323.9288024902344
0, 4, 46, 305.574462890625
0, 4, 47, 294.9794921875
0, 4, 48, 295.3779602050781
0, 4, 49, 277.7479858398438
0, 4, 50, 297.2412719726562
0, 4, 51, 317.1802062988281
0, 4, 52, 326.1904602050781
0, 4, 53, 302.1984252929688
0, 4, 54, 290.330810546875
0, 4, 55, 315.0739440917969
0, 4, 56, 289.5256042480469
0, 4, 57, 310.2993469238281
0, 4, 58, 296.5603637695312
0, 4, 59, 307.7612609863281
0, 4, 60, 302.0019226074219
0, 4, 61, 316.969970703125
0, 4, 62, 309.3268127441406
0, 4, 63, 298.3404235839844
0, 4, 64, 330.3631286621094
0, 4, 65, 316.9067687988281
0, 4, 66, 293.5023803710938
0, 4, 67, 285.0693664550781
0, 4, 68, 311.8196105957031
0, 4, 69, 277.6464233398438
0, 4, 70, 300.1606750488281
0, 4, 71, 320.3138732910156
0, 4, 72, 333.1844177246094
0, 4, 73, 299.8599243164062
0, 4, 74, 293.6083374023438
0, 4, 75, 288.4036560058594
0, 4, 76, 275.0653686523438
0, 4, 77, 278.1715393066406
0, 4, 78, 307.2098083496094
0, 4, 79, 318.2541809082031
0, 4, 80, 316.931396484375
0, 4, 81, 312.669189453125
0, 4, 82, 297.6052551269531
0, 4, 83, 300.5765991210938
0, 4, 84, 293.5779724121094
0, 4, 85, 295.4913330078125
0, 4, 86, 296.3449096679688
0, 4, 87, 285.089599609375
0, 4, 88, 306.6636962890625
0, 4, 89, 296.0974731445312
0, 4, 90, 334.6079406738281
0, 4, 91, 302.2179260253906
0, 4, 92, 289.1524658203125
0, 4, 93, 297.0035400390625
0, 4, 94, 291.692626953125
0, 4, 95, 288.9991149902344
0, 4, 96, 323.5055236816406
0, 4, 97, 273.7200622558594
0, 4, 98, 328.84619140625
0, 4, 99, 313.8767395019531
0, 4, 100, 300.8785705566406
0, 4, 101, 256.2951049804688
0, 4, 102, 295.4583435058594
0, 4, 103, 316.4505920410156
0, 4, 104, 281.76171875
0, 4, 105, 310.2136840820312
0, 4, 106, 286.6166381835938
0, 4, 107, 294.6905517578125
0, 4, 108, 226.1066589355469
0, 4, 109, 79.30755615234375
0, 4, 110, 16.7795581817627
0, 4, 111, 13.36865425109863
0, 4, 112, 10.616943359375
0, 4, 113, 11.21451282501221
0, 4, 114, 8.932762145996094
0, 4, 115, 10.23934745788574
0, 4, 116, 8.787467956542969
0, 4, 117, 6.360405445098877
0, 4, 118, 9.043857574462891
0, 4, 119, 12.06341457366943
0, 4, 120, 3.843523263931274
0, 4, 121, 4.905189037322998
0, 4, 122, 3.137511730194092
0, 4, 123, 6.692350387573242
0, 4, 124, 5.927383422851562
0, 4, 125, 10.29508495330811
0, 4, 126, 5.182736873626709
0, 4, 127, 4.953076362609863
0, 5, 0, 4.143260478973389
0, 5, 1, 2.391907215118408
0, 5, 2, 6.340920925140381
0, 5, 3, 3.970786571502686
0, 5, 4, 5.638590812683105
0, 5, 5, 8.689242362976074
0, 5, 6, 5.854726791381836
0, 5, 7, 5.108715057373047
0, 5, 8, 3.894973754882812
0, 5, 9, 5.789073944091797
0, 5, 10, 5.966723442077637
0, 5, 11, 10.36421680450439
0, 5, 12, 9.655414581298828
0, 5, 13, 4.772641181945801
0, 5, 14, 13.74434947967529
0, 5, 15, 17.84668922424316
0, 5, 16, 14.00124073028564
0, 5, 17, 28.3724365234375
0, 5, 18, 135.4628295898438
0, 5, 19, 287.7803955078125
0, 5, 20, 307.3663940429688
0, 5, 21, 318.48876953125
0, 5, 22, 275.3479309082031
0, 5, 23, 311.7547607421875
0, 5, 24, 302.5973815917969
0, 5, 25, 288.3255615234375
0, 5, 26, 294.3831481933594
0, 5, 27, 322.4714050292969
0, 5, 28, 302.9834594726562
0, 5, 29, 300.1802673339844
0, 5, 30, 324.1990051269531
0, 5, 31, 285.8263549804688
0, 5, 32, 303.0247802734375
0, 5, 33, 305.7011108398438
0, 5, 34, 295.7796630859375
0, 5, 35, 311.1979370117188
0, 5, 36, 273.2893981933594
0, 5, 37, 283.4889221191406
0, 5, 38, 293.4464111328125
0, 5, 39, 312.1487121582031
0, 5, 40, 308.1891784667969
0, 5, 41, 273.6449890136719
0, 5, 42, 306.0515747070312
0, 5, 43, 315.3982543945312
0, 5, 44, 292.3904113769531
0, 5, 45, 302.26318359375
0, 5, 46, 265.0058288574219
0, 5, 47, 279.2352905273438
0, 5, 48, 293.9971923828125
0, 5, 49, 288.6981201171875
0, 5, 50, 294.8233642578125
0, 5, 51, 280.2483520507812
0, 5, 52, 269.2284545898438
0, 5, 53, 285.343017578125
0, 5, 54, 291.2161254882812
0, 5, 55, 343.8453369140625
0, 5, 56, 306.322265625
0, 5, 57, 307.650390625
0, 5, 58, 312.5982360839844
0, 5, 59, 301.1891174316406
0, 5, 60, 308.75439453125
0, 5, 61, 282.2093505859375
0, 5, 62, 328.0017395019531
0, 5, 63, 292.4906616210938
0, 5, 64, 328.7148132324219
0, 5, 65, 305.6795959472656
0, 5, 66, 328.6205749511719
0, 5, 67, 313.8792419433594
0, 5, 68, 309.4671936035156
0, 5, 69, 311.3947448730469
0, 5, 70, 303.6052856445312
0, 5, 71, 272.084716796875
0, 5, 72, 311.9486389160156
0, 5, 73, 303.3082580566406
0, 5, 74, 295.2696533203125
0, 5, 75, 292.9024047851562
0, 5, 76, 284.7176818847656
0, 5, 77, 297.9381103515625
0, 5, 78, 315.1890869140625
0, 5, 79, 308.3944091796875
0, 5, 80, 294.4943237304688
0, 5, 81, 325.7272338867188
0, 5, 82, 324.0491943359375
0, 5, 83, 280.7911376953125
0, 5, 84, 302.5195007324219
0, 5, 85, 273.2862854003906
0, 5, 86, 324.8077392578125
0, 5, 87, 284.2503662109375
0, 5, 88, 313.5143127441406
0, 5, 89, 307.8868408203125
0, 5, 90, 314.6940612792969
0, 5, 91, 314.6394348144531
0, 5, 92, 296.3258361816406
0, 5, 93, 324.0220031738281
0, 5, 94, 308.5343627929688
0, 5, 95, 295.6658325195312
0, 5, 96, 296.8236694335938
0, 5, 97, 295.6719970703125
0, 5, 98, 318.3197937011719
0, 5, 99, 300.5040893554688
0, 5, 100, 289.0674743652344
0, 5, 101, 306.7427062988281
0, 5, 102, 291.4826049804688
0, 5, 103, 314.6361999511719
0, 5, 104, 302.58935546875
0, 5, 105, 291.751708984375
0, 5, 106, 281.1935424804688
0, 5, 107, 291.1633911132812
0, 5, 108, 264.4358825683594
0, 5, 109, 160.0886688232422
0, 5, 110, 40.65886306762695
0, 5, 111, 21.74317741394043
0, 5, 112, 15.03207015991211
0, 5, 113, 14.47796440124512
0, 5, 114, 12.4209098815918
0, 5, 115, 8.169758796691895
0, 5, 116, 7.610537052154541
0, 5, 117, 8.975810050964355
0, 5, 118, 14.25454425811768
0, 5, 119, 4.547556400299072
0, 5, 120, 5.823385238647461
0, 5, 121, 6.856657981872559
0, 5, 122, 9.295750617980957
0, 5, 123, 6.917765617370605
0, 5, 124, 5.718222618103027
0, 5, 125, 4.214948177337646
0, 5, 126, 4.520566940307617
0, 5, 127, 6.294226169586182
0, 6, 0, 2.969077348709106
0, 6, 1, 3.904645681381226
0, 6, 2, 4.6597580909729
0, 6, 3, 6.279736995697021
0, 6, 4, 4.018788814544678
0, 6, 5, 4.577967166900635
0, 6, 6, 8.077190399169922
0, 6, 7, 5.546646118164062
0, 6, 8, 7.705143928527832
0, 6, 9, 6.921839714050293
0, 6, 10, 9.116642951965332
0, 6, 11, 6.863642692565918
0, 6, 12, 7.355520725250244
0, 6, 13, 15.3237943649292
0, 6, 14, 8.997872352600098
0, 6, 15, 16.10077476501465
0, 6, 16, 27.94132804870605
0, 6, 17, 53.15044021606445
0, 6, 18, 174.1753997802734
0, 6, 19, 276.6116943359375
0, 6, 20, 291.5101928710938
0, 6, 21, 312.8124694824219
0, 6, 22, 321.3768615722656
0, 6, 23, 306.25732421875
0, 6, 24, 317.7098693847656
0, 6, 25, 316.376953125
0, 6, 26, 320.2717895507812
0, 6, 27, 335.0820007324219
0, 6, 28, 295.687255859375
0, 6, 29, 332.4012145996094
0, 6, 30, 282.8449096679688
0, 6, 31, 284.7920227050781
0, 6, 32, 340.5284423828125
0, 6, 33, 300.6526489257812
0, 6, 34, 338.7702941894531
0, 6, 35, 322.1928100585938
0, 6, 36, 274.5273132324219
0, 6, 37, 290.4252624511719
0, 6, 38, 310.9017028808594
0, 6, 39, 297.5269165039062
0, 6, 40, 283.5683898925781
0, 6, 41, 298.6144409179688
0, 6, 42, 306.8786926269531
0, 6, 43, 292.0850219726562
0, 6, 44, 281.578369140625
0, 6, 45, 321.3151245117188
0, 6, 46, 301.9502563476562
0, 6, 47, 332.0874328613281
0, 6, 48, 290.7638244628906
0, 6, 49, 312.3099060058594
0, 6, 50, 327.3407287597656
0, 6, 51, 311.270751953125
0, 6, 52, 321.0220947265625
0, 6, 53, 329.5133056640625
0, 6, 54, 303.8087158203125
0, 6, 55, 304.9794921875
0, 6, 56, 293.676513671875
0, 6, 57, 313.9963073730469
0, 6, 58, 261.8063049316406
0, 6, 59, 303.7511596679688
0, 6, 60, 314.4343566894531
0, 6, 61, 272.0584716796875
0, 6, 62, 337.3744201660156
0, 6, 63, 323.8393249511719
0, 6, 64, 290.8374328613281
0, 6, 65, 283.40966796875
0, 6, 66, 304.631591796875
0, 6, 67, 308.2748718261719
0, 6, 68, 295.2109985351562
0, 6, 69, 277.6227722167969
0, 6, 70, 275.1130981445312
0, 6, 71, 288.9918518066406
0, 6, 72, 310.3002319335938
0, 6, 73, 293.0679321289062
0, 6, 74, 333.01708984375
0, 6, 75, 346.2685852050781
0, 6, 76, 298.639404296875
0, 6, 77, 285.0223999023438
0, 6, 78, 279.8962097167969
0, 6, 79, 292.3518676757812
0, 6, 80, 302.1158447265625
0, 6, 81, 316.7631225585938
0, 6, 82, 318.8495483398438
0, 6, 83, 319.6385192871094
0, 6, 84, 295.0219116210938
0, 6, 85, 300.3657531738281
0, 6, 86, 330.5062255859375
0, 6, 87, 292.9266967773438
0, 6, 88, 306.2035827636719
0, 6, 89, 307.3760986328125
0, 6, 90, 298.4171447753906
0, 6, 91, 314.6709594726562
0, 6, 92, 286.4898376464844
0, 6, 93, 296.1723022460938
0, 6, 94, 272.0717468261719
0, 6, 95, 302.1796875
0, 6, 96, 346.9059448242188
0, 6, 97, 307.0624084472656
0, 6, 98, 301.076904296875
0, 6, 99, 273.4384765625
0, 6, 100, 308.508056640625
0, 6, 101, 292.6347961425781
0, 6, 102, 307.5079040527344
0, 6, 103, 309.3939514160156
0, 6, 104, 291.6589050292969
0, 6, 105, 304.6488647460938
0, 6, 106, 308.9208679199219
0, 6, 107, 305.6701354980469
0, 6, 108, 265.4356994628906
0, 6, 109, 186.2897796630859
0, 6, 110, 54.46583557128906
0, 6, 111, 21.22183609008789
0, 6, 112, 12.72420978546143
0, 6, 113, 11.74398040771484
0, 6, 114, 11.97873878479004
0, 6, 115, 12.42517948150635
0, 6, 116, 10.76648235321045
0, 6, 117, 6.633004188537598
0, 6, 118, 8.107348442077637
0, 6, 119, 11.92370128631592
0, 6, 120, 6.142690658569336
0, 6, 121, 6.93488597869873
0, 6, 122, 7.259490966796875
0, 6, 123, 6.553278923034668
0, 6, 124, 6.121408462524414
0, 6, 125, 7.822701930999756
0, 6, 126, 5.332558155059814
0, 6, 127, 6.810337066650391
0, 7, 0, 7.856379508972168
0, 7, 1, 5.144876480102539
0, 7, 2, 5.652061462402344
0, 7, 3, 5.067678928375244
0, 7, 4, 3.891008138656616
0, 7, 5, 4.035601139068604
0, 7, 6, 5.439332008361816
0, 7, 7, 5.136767387390137
0, 7, 8, 7.910792350769043
0, 7, 9, 8.581721305847168
0, 7, 10, 8.852605819702148
0, 7, 11, 11.98446941375732
0, 7, 12, 9.55683708190918
0, 7, 13, 11.53589725494385
0, 7, 14, 11.72107219696045
0, 7, 15, 19.59565734863281
0, 7, 16, 27.09325218200684
0, 7, 17, 98.92929840087891
0, 7, 18, 219.9306488037109
0, 7, 19, 290.0295104980469
0, 7, 20, 296.8405456542969
0, 7, 21, 275.2669372558594
0, 7, 22, 299.5204772949219
0, 7, 23, 288.3461303710938
0, 7, 24, 315.1463623046875
0, 7, 25, 325.0896301269531
0, 7, 26, 281.3182983398438
0, 7, 27, 298.9938049316406
0, 7, 28, 326.0647277832031
0, 7, 29, 319.3504638671875
0, 7, 30, 302.9461975097656
0, 7, 31, 278.5697021484375
0, 7, 32, 304.9971313476562
0, 7, 33, 262.6073608398438
0, 7, 34, 299.0916748046875
0, 7, 35, 319.2995300292969
0, 7, 36, 333.1705932617188
0, 7, 37, 321.1945495605469
0, 7, 38, 297.5547180175781
0, 7, 39, 304.5473022460938
0, 7, 40, 290.0936584472656
0, 7, 41, 271.5945434570312
0, 7, 42, 301.2008666992188
0, 7, 43, 275.3458557128906
0, 7, 44, 303.8591003417969
0, 7, 45, 294.4525756835938
0, 7, 46, 281.437744140625
0, 7, 47, 328.0872192382812
0, 7, 48, 286.4625854492188
0, 7, 49, 300.8663330078125
0, 7, 50, 322.6687622070312
0, 7, 51, 300.5112609863281
0, 7, 52, 327.5302429199219
0, 7, 53, 313.7728881835938
0, 7, 54, 323.7530517578125
0, 7, 55, 305.9205932617188
0, 7, 56, 280.5853881835938
0, 7, 57, 282.8582458496094
0, 7, 58, 296.7648620605469
0, 7, 59, 297.2931518554688
0, 7, 60, 325.2921447753906
0, 7, 61, 276.8960571289062
0, 7, 62, 296.8610229492188
0, 7, 63, 293.1511840820312
0, 7, 64, 306.7776184082031
0, 7, 65, 331.822265625
0, 7, 66, 320.5572509765625
0, 7, 67, 301.6233825683594
0, 7, 68, 279.7665100097656
0, 7, 69, 294.824462890625
0, 7, 70, 301.2899780273438
0, 7, 71, 310.0540771484375
0, 7, 72, 286.0412902832031
0, 7, 73, 296.1689758300781
0, 7, 74, 344.2167053222656
0, 7, 75, 317.7214660644531
0, 7, 76, 322.8648376464844
0, 7, 77, 279.8785095214844
0, 7, 78, 299.9504089355469
0, 7, 79, 299.04638671875
0, 7, 80, 310.2920837402344
0, 7, 81, 319.5060729980469
0, 7, 82, 329.8411254882812
0, 7, 83, 314.4274597167969
0, 7, 84, 311.0136413574219
0, 7, 85, 271.2316284179688
0, 7, 86, 311.3607788085938
0, 7, 87, 309.4093322753906
0, 7, 88, 307.706787109375
0, 7, 89, 293.156005859375
0, 7, 90, 308.9584045410156
0, 7, 91, 316.7158508300781
0, 7, 92, 286.0438537597656
0, 7, 93, 309.3868713378906
0, 7, 94, 272.2112731933594
0, 7, 95, 295.2258911132812
0, 7, 96, 331.1918640136719
0, 7, 97, 294.2373962402344
0, 7, 98, 290.3958129882812
0, 7, 99, 312.5232238769531
0, 7, 100, 282.1350402832031
0, 7, 101, 275.1724243164062
0, 7, 102, 289.7996826171875
0, 7, 103, 292.2357788085938
0, 7, 104, 276.2030334472656
0, 7, 105, 307.7960205078125
0, 7, 106, 317.85400390625
0, 7, 107, 296.7278747558594
0, 7, 108, 272.7776489257812
0, 7, 109, 236.3837585449219
0, 7, 110, 98.07273864746094
0, 7, 111, 23.84394836425781
0, 7, 112, 12.49031257629395
0, 7, 113, 14.52893447875977
0, 7, 114, 14.13880729675293
0, 7, 115, 11.7606840133667
0, 7, 116, 8.429344177246094
0, 7, 117, 5.252280712127686
0, 7, 118, 6.252951145172119
0, 7, 119, 7.920646667480469
0, 7, 120, 5.118621826171875
0, 7, 121, 6.432173728942871
0, 7, 122, 5.387967586517334
0, 7, 123, 8.513917922973633
0, 7, 124, 2.999653339385986
0, 7, 125, 6.959696769714355
0, 7, 126, 6.727207183837891
0, 7, 127, 1.986492156982422
0, 8, 0, 5.437582492828369
0, 8, 1, 3.540200471878052
0, 8, 2, 2.365036964416504
0, 8, 3, 2.803300857543945
0, 8, 4, 4.208174228668213
0, 8, 5, 5.189014434814453
0, 8, 6, 3.992708206176758
0, 8, 7, 5.656119346618652
0, 8, 8, 7.994109630584717
0, 8, 9, 6.348495483398438
0, 8, 10, 8.16382884979248
0, 8, 11, 11.68980407714844
0, 8, 12, 13.02539157867432
0, 8, 13, 17.4022102355957
0, 8, 14, 15.07723522186279
0, 8, 15, 17.91771125793457
0, 8, 16, 33.74079895019531
0, 8, 17, 129.0438690185547
0, 8, 18, 243.1998596191406
0, 8, 19, 298.73828125
0, 8, 20, 284.910888671875
0, 8, 21, 308.9525146484375
0, 8, 22, 296.1925964355469
0, 8, 23, 274.4953918457031
0, 8, 24, 268.9423522949219
0, 8, 25, 275.4269104003906
0, 8, 26, 305.193603515625
0, 8, 27, 308.1061401367188
0, 8, 28, 304.8080749511719
0, 8, 29, 317.7724609375
0, 8, 30, 313.7926330566406
0, 8, 31, 305.278564453125
0, 8, 32, 281.0570983886719
0, 8, 33, 292.63623046875
0, 8, 34, 288.61962890625
0, 8, 35, 280.6594543457031
0, 8, 36, 317.5571899414062
0, 8, 37, 339.7192993164062
0, 8, 38, 331.2080383300781
0, 8, 39, 281.2977294921875
0, 8, 40, 305.3406677246094
