# TOPAS Version: 3.1.p3
# Parameter File: batch_inserts_118.txt
# Results for scorer Readout_Adipose
# Scored in component: MyBox
# X in 1 bin  of 0.75 cm
# Y in 512 bins of 0.0783984 cm
# Z in 128 bins of 0.078125 cm
# EnergyDeposit ( MeV ) : Sum   
0, 0, 0, 4.329342365264893
0, 0, 1, 6.648876667022705
0, 0, 2, 4.272659778594971
0, 0, 3, 2.082482814788818
0, 0, 4, 3.807929515838623
0, 0, 5, 1.348065972328186
0, 0, 6, 5.31031322479248
0, 0, 7, 7.837738037109375
0, 0, 8, 2.461276531219482
0, 0, 9, 5.801146030426025
0, 0, 10, 7.621514797210693
0, 0, 11, 4.361844539642334
0, 0, 12, 4.079724311828613
0, 0, 13, 6.511956214904785
0, 0, 14, 7.981403827667236
0, 0, 15, 9.291627883911133
0, 0, 16, 8.477945327758789
0, 0, 17, 9.531588554382324
0, 0, 18, 12.53546810150146
0, 0, 19, 42.23721313476562
0, 0, 20, 137.9435272216797
0, 0, 21, 221.8395538330078
0, 0, 22, 249.6817626953125
0, 0, 23, 257.9000549316406
0, 0, 24, 251.6455078125
0, 0, 25, 259.0075073242188
0, 0, 26, 234.89599609375
0, 0, 27, 236.2474822998047
0, 0, 28, 271.0724182128906
0, 0, 29, 251.7052459716797
0, 0, 30, 228.7699890136719
0, 0, 31, 244.254638671875
0, 0, 32, 263.2682189941406
0, 0, 33, 262.0404052734375
0, 0, 34, 287.367431640625
0, 0, 35, 268.1885986328125
0, 0, 36, 246.302978515625
0, 0, 37, 253.671142578125
0, 0, 38, 268.0933227539062
0, 0, 39, 228.6963806152344
0, 0, 40, 240.7710113525391
0, 0, 41, 265.7818603515625
0, 0, 42, 229.9138946533203
0, 0, 43, 259.2021179199219
0, 0, 44, 251.7402191162109
0, 0, 45, 252.6823883056641
0, 0, 46, 243.533447265625
0, 0, 47, 254.1029357910156
0, 0, 48, 266.1195678710938
0, 0, 49, 273.1642150878906
0, 0, 50, 254.7843322753906
0, 0, 51, 257.2042846679688
0, 0, 52, 272.5406494140625
0, 0, 53, 294.0463256835938
0, 0, 54, 240.4344635009766
0, 0, 55, 239.2097015380859
0, 0, 56, 277.8948059082031
0, 0, 57, 264.9239501953125
0, 0, 58, 245.8174133300781
0, 0, 59, 271.3965148925781
0, 0, 60, 235.5480499267578
0, 0, 61, 244.4553527832031
0, 0, 62, 255.2067413330078
0, 0, 63, 265.3688354492188
0, 0, 64, 256.1033020019531
0, 0, 65, 261.509033203125
0, 0, 66, 277.7189025878906
0, 0, 67, 246.1714935302734
0, 0, 68, 258.5661315917969
0, 0, 69, 261.5563049316406
0, 0, 70, 272.953125
0, 0, 71, 240.41015625
0, 0, 72, 250.959716796875
0, 0, 73, 259.5256042480469
0, 0, 74, 251.6539764404297
0, 0, 75, 241.0819854736328
0, 0, 76, 229.2117767333984
0, 0, 77, 263.1821594238281
0, 0, 78, 259.2367553710938
0, 0, 79, 280.3881225585938
0, 0, 80, 217.3355560302734
0, 0, 81, 267.6635437011719
0, 0, 82, 256.8726501464844
0, 0, 83, 246.2896881103516
0, 0, 84, 269.9743957519531
0, 0, 85, 231.6482391357422
0, 0, 86, 252.4761962890625
0, 0, 87, 252.6240844726562
0, 0, 88, 258.8197631835938
0, 0, 89, 285.869140625
0, 0, 90, 244.2630310058594
0, 0, 91, 282.7740478515625
0, 0, 92, 254.4652252197266
0, 0, 93, 248.610107421875
0, 0, 94, 248.7286682128906
0, 0, 95, 249.0962219238281
0, 0, 96, 274.1575622558594
0, 0, 97, 272.2124938964844
0, 0, 98, 272.8297424316406
0, 0, 99, 258.7895202636719
0, 0, 100, 259.02099609375
0, 0, 101, 227.1243286132812
0, 0, 102, 233.6553802490234
0, 0, 103, 269.2075805664062
0, 0, 104, 253.9671783447266
0, 0, 105, 250.853271484375
0, 0, 106, 248.1810760498047
0, 0, 107, 153.0321044921875
0, 0, 108, 38.4631462097168
0, 0, 109, 12.03208827972412
0, 0, 110, 12.81698703765869
0, 0, 111, 8.296872138977051
0, 0, 112, 8.300515174865723
0, 0, 113, 4.776642322540283
0, 0, 114, 5.649673938751221
0, 0, 115, 4.405268669128418
0, 0, 116, 4.455729484558105
0, 0, 117, 5.236781120300293
0, 0, 118, 5.505480766296387
0, 0, 119, 6.262918472290039
0, 0, 120, 4.774647235870361
0, 0, 121, 4.238895416259766
0, 0, 122, 3.562505722045898
0, 0, 123, 5.137111663818359
0, 0, 124, 5.317180156707764
0, 0, 125, 3.268869638442993
0, 0, 126, 5.03814697265625
0, 0, 127, 2.098922252655029
0, 1, 0, 8.885801315307617
0, 1, 1, 2.576793670654297
0, 1, 2, 4.003341674804688
0, 1, 3, 1.442516446113586
0, 1, 4, 3.153706789016724
0, 1, 5, 4.363080501556396
0, 1, 6, 4.867237567901611
0, 1, 7, 6.610510349273682
0, 1, 8, 8.455964088439941
0, 1, 9, 4.538108825683594
0, 1, 10, 7.11778450012207
0, 1, 11, 10.65456771850586
0, 1, 12, 8.567115783691406
0, 1, 13, 9.077717781066895
0, 1, 14, 8.283393859863281
0, 1, 15, 8.754414558410645
0, 1, 16, 10.07285499572754
0, 1, 17, 10.58908271789551
0, 1, 18, 21.38000679016113
0, 1, 19, 66.38591003417969
0, 1, 20, 198.4368743896484
0, 1, 21, 255.162109375
0, 1, 22, 295.6181335449219
0, 1, 23, 283.5632019042969
0, 1, 24, 276.1215515136719
0, 1, 25, 288.153564453125
0, 1, 26, 268.4411926269531
0, 1, 27, 307.2397155761719
0, 1, 28, 298.8305969238281
0, 1, 29, 296.0851135253906
0, 1, 30, 281.1743469238281
0, 1, 31, 293.4832153320312
0, 1, 32, 290.138671875
0, 1, 33, 294.8287963867188
0, 1, 34, 292.5913391113281
0, 1, 35, 277.98828125
0, 1, 36, 306.6719665527344
0, 1, 37, 293.7428588867188
0, 1, 38, 277.8581237792969
0, 1, 39, 294.5179443359375
0, 1, 40, 265.70166015625
0, 1, 41, 287.7484741210938
0, 1, 42, 288.6860046386719
0, 1, 43, 333.3258666992188
0, 1, 44, 278.6007385253906
0, 1, 45, 292.5756225585938
0, 1, 46, 258.5864562988281
0, 1, 47, 310.1201477050781
0, 1, 48, 284.5216674804688
0, 1, 49, 300.9670104980469
0, 1, 50, 264.8264770507812
0, 1, 51, 271.3944091796875
0, 1, 52, 293.8390502929688
0, 1, 53, 304.28564453125
0, 1, 54, 273.5279235839844
0, 1, 55, 294.332763671875
0, 1, 56, 278.8392944335938
0, 1, 57, 298.3025512695312
0, 1, 58, 308.4653930664062
0, 1, 59, 293.9976501464844
0, 1, 60, 298.0592346191406
0, 1, 61, 275.0001220703125
0, 1, 62, 309.4315490722656
0, 1, 63, 288.0192260742188
0, 1, 64, 287.8709411621094
0, 1, 65, 294.9337768554688
0, 1, 66, 292.9011535644531
0, 1, 67, 291.7364807128906
0, 1, 68, 278.2806701660156
0, 1, 69, 278.6400146484375
0, 1, 70, 271.2664184570312
0, 1, 71, 272.5925598144531
0, 1, 72, 286.85107421875
0, 1, 73, 305.3106994628906
0, 1, 74, 306.5130920410156
0, 1, 75, 293.0793762207031
0, 1, 76, 284.2671508789062
0, 1, 77, 290.6929931640625
0, 1, 78, 299.6191711425781
0, 1, 79, 302.0823669433594
0, 1, 80, 295.8687744140625
0, 1, 81, 299.7455139160156
0, 1, 82, 282.288818359375
0, 1, 83, 330.0347900390625
0, 1, 84, 308.4344177246094
0, 1, 85, 254.6299743652344
0, 1, 86, 293.726318359375
0, 1, 87, 291.6160888671875
0, 1, 88, 299.8082580566406
0, 1, 89, 289.6921691894531
0, 1, 90, 270.7057800292969
0, 1, 91, 317.373046875
0, 1, 92, 290.8050842285156
0, 1, 93, 286.5750122070312
0, 1, 94, 304.7762756347656
0, 1, 95, 285.2301330566406
0, 1, 96, 282.4137573242188
0, 1, 97, 299.5997314453125
0, 1, 98, 276.7536315917969
0, 1, 99, 268.1202697753906
0, 1, 100, 277.2651977539062
0, 1, 101, 281.4981689453125
0, 1, 102, 276.1441650390625
0, 1, 103, 281.7651062011719
0, 1, 104, 308.5028076171875
0, 1, 105, 295.9655151367188
0, 1, 106, 261.4187622070312
0, 1, 107, 190.9397888183594
0, 1, 108, 80.78444671630859
0, 1, 109, 23.56903839111328
0, 1, 110, 11.13392353057861
0, 1, 111, 8.093542098999023
0, 1, 112, 11.93816566467285
0, 1, 113, 5.699036121368408
0, 1, 114, 5.901654243469238
0, 1, 115, 6.425124645233154
0, 1, 116, 12.23528671264648
0, 1, 117, 5.396672248840332
0, 1, 118, 4.806487083435059
0, 1, 119, 4.385449886322021
0, 1, 120, 6.209515571594238
0, 1, 121, 5.213996887207031
0, 1, 122, 3.038251876831055
0, 1, 123, 2.612111330032349
0, 1, 124, 9.558181762695312
0, 1, 125, 3.711172819137573
0, 1, 126, 2.915574312210083
0, 1, 127, 1.048556089401245
0, 2, 0, 5.195550918579102
0, 2, 1, 4.154092311859131
0, 2, 2, 4.027577877044678
0, 2, 3, 8.41197395324707
0, 2, 4, 2.869902849197388
0, 2, 5, 2.37174654006958
0, 2, 6, 2.531270265579224
0, 2, 7, 6.635683536529541
0, 2, 8, 5.120954513549805
0, 2, 9, 5.54790735244751
0, 2, 10, 6.782036781311035
0, 2, 11, 5.053500652313232
0, 2, 12, 5.997465133666992
0, 2, 13, 9.807249069213867
0, 2, 14, 9.105720520019531
0, 2, 15, 8.024835586547852
0, 2, 16, 9.99161434173584
0, 2, 17, 16.77507019042969
0, 2, 18, 31.15328788757324
0, 2, 19, 115.5969085693359
0, 2, 20, 249.2787322998047
0, 2, 21, 272.9931030273438
0, 2, 22, 315.7616577148438
0, 2, 23, 300.03857421875
0, 2, 24, 285.4709777832031
0, 2, 25, 301.7953186035156
0, 2, 26, 290.9896240234375
0, 2, 27, 276.0635375976562
0, 2, 28, 274.40869140625
0, 2, 29, 276.1612243652344
0, 2, 30, 289.1915588378906
0, 2, 31, 277.4873046875
0, 2, 32, 292.7062072753906
0, 2, 33, 283.1437072753906
0, 2, 34, 333.619384765625
0, 2, 35, 288.9900207519531
0, 2, 36, 305.7242126464844
0, 2, 37, 314.20068359375
0, 2, 38, 311.5235900878906
0, 2, 39, 265.965087890625
0, 2, 40, 307.8572692871094
0, 2, 41, 293.3975830078125
0, 2, 42, 304.4100952148438
0, 2, 43, 314.5260314941406
0, 2, 44, 311.5588073730469
0, 2, 45, 324.3931884765625
0, 2, 46, 286.5174560546875
0, 2, 47, 302.6087341308594
0, 2, 48, 279.9791870117188
0, 2, 49, 281.2834777832031
0, 2, 50, 294.7520446777344
0, 2, 51, 283.8560485839844
0, 2, 52, 274.3521728515625
0, 2, 53, 286.52978515625
0, 2, 54, 282.3081359863281
0, 2, 55, 276.6664733886719
0, 2, 56, 301.0388488769531
0, 2, 57, 292.8289489746094
0, 2, 58, 302.0111694335938
0, 2, 59, 290.5291748046875
0, 2, 60, 319.941162109375
0, 2, 61, 301.4483642578125
0, 2, 62, 313.2428283691406
0, 2, 63, 302.0233154296875
0, 2, 64, 295.9784851074219
0, 2, 65, 314.3297119140625
0, 2, 66, 278.7041931152344
0, 2, 67, 290.6064147949219
0, 2, 68, 295.4338989257812
0, 2, 69, 310.7413024902344
0, 2, 70, 335.3926696777344
0, 2, 71, 283.6495666503906
0, 2, 72, 304.2913513183594
0, 2, 73, 310.8531799316406
0, 2, 74, 287.1708679199219
0, 2, 75, 305.3757019042969
0, 2, 76, 288.4927978515625
0, 2, 77, 299.8464660644531
0, 2, 78, 316.0685119628906
0, 2, 79, 308.1096801757812
0, 2, 80, 297.0739135742188
0, 2, 81, 282.9189453125
0, 2, 82, 319.3442687988281
0, 2, 83, 311.6964416503906
0, 2, 84, 287.6579284667969
0, 2, 85, 281.0056457519531
0, 2, 86, 326.3758850097656
0, 2, 87, 286.9389038085938
0, 2, 88, 279.19189453125
0, 2, 89, 295.7564392089844
0, 2, 90, 294.4759826660156
0, 2, 91, 276.4803771972656
0, 2, 92, 305.5326843261719
0, 2, 93, 315.3230895996094
0, 2, 94, 290.4209289550781
0, 2, 95, 314.07958984375
0, 2, 96, 315.3410034179688
0, 2, 97, 292.6093139648438
0, 2, 98, 291.6503601074219
0, 2, 99, 272.5565490722656
0, 2, 100, 306.3265686035156
0, 2, 101, 300.7997436523438
0, 2, 102, 296.242919921875
0, 2, 103, 292.1375427246094
0, 2, 104, 292.8136291503906
0, 2, 105, 274.3682861328125
0, 2, 106, 295.4633483886719
0, 2, 107, 267.7808532714844
0, 2, 108, 115.2200012207031
0, 2, 109, 32.14101409912109
0, 2, 110, 11.63489627838135
0, 2, 111, 11.82962036132812
0, 2, 112, 7.105976581573486
0, 2, 113, 10.04438400268555
0, 2, 114, 9.920827865600586
0, 2, 115, 9.158949851989746
0, 2, 116, 8.779708862304688
0, 2, 117, 7.705841541290283
0, 2, 118, 3.387659788131714
0, 2, 119, 3.650801181793213
0, 2, 120, 7.961749076843262
0, 2, 121, 2.380621194839478
0, 2, 122, 4.103251934051514
0, 2, 123, 3.935921669006348
0, 2, 124, 5.337222576141357
0, 2, 125, 5.479124546051025
0, 2, 126, 3.941140651702881
0, 2, 127, 5.265337467193604
0, 3, 0, 3.243826866149902
0, 3, 1, 5.095074653625488
0, 3, 2, 3.256868124008179
0, 3, 3, 1.394739270210266
0, 3, 4, 4.103080272674561
0, 3, 5, 7.241644859313965
0, 3, 6, 6.213397979736328
0, 3, 7, 6.109262943267822
0, 3, 8, 7.361672878265381
0, 3, 9, 6.014084339141846
0, 3, 10, 6.556795597076416
0, 3, 11, 4.535609245300293
0, 3, 12, 7.437808513641357
0, 3, 13, 15.35097217559814
0, 3, 14, 12.47989463806152
0, 3, 15, 14.67317295074463
0, 3, 16, 13.26690006256104
0, 3, 17, 20.17712783813477
0, 3, 18, 55.28947067260742
0, 3, 19, 176.3865966796875
0, 3, 20, 268.6790771484375
0, 3, 21, 270.6164245605469
0, 3, 22, 283.5225524902344
0, 3, 23, 287.4340209960938
0, 3, 24, 289.7057495117188
0, 3, 25, 270.8894348144531
0, 3, 26, 303.1706848144531
0, 3, 27, 291.3809814453125
0, 3, 28, 285.045166015625
0, 3, 29, 340.8704528808594
0, 3, 30, 318.280517578125
0, 3, 31, 288.181884765625
0, 3, 32, 308.1942443847656
0, 3, 33, 313.6915283203125
0, 3, 34, 322.2269592285156
0, 3, 35, 307.0515441894531
0, 3, 36, 268.4181518554688
0, 3, 37, 312.448486328125
0, 3, 38, 304.1918640136719
0, 3, 39, 291.0877075195312
0, 3, 40, 267.0392761230469
0, 3, 41, 299.263427734375
0, 3, 42, 288.1953735351562
0, 3, 43, 306.1231689453125
0, 3, 44, 309.5391235351562
0, 3, 45, 289.1880187988281
0, 3, 46, 328.8504943847656
0, 3, 47, 300.7708740234375
0, 3, 48, 304.8355407714844
0, 3, 49, 276.6107788085938
0, 3, 50, 292.1039123535156
0, 3, 51, 275.2202758789062
0, 3, 52, 315.471923828125
0, 3, 53, 289.79931640625
0, 3, 54, 284.2060241699219
0, 3, 55, 284.7843322753906
0, 3, 56, 297.0110778808594
0, 3, 57, 288.6538696289062
0, 3, 58, 305.2187194824219
0, 3, 59, 295.0821228027344
0, 3, 60, 296.9923400878906
0, 3, 61, 264.8118896484375
0, 3, 62, 283.8522644042969
0, 3, 63, 307.6897583007812
0, 3, 64, 316.3734741210938
0, 3, 65, 304.3193664550781
0, 3, 66, 316.9682312011719
0, 3, 67, 317.7663879394531
0, 3, 68, 280.0003356933594
0, 3, 69, 281.396728515625
0, 3, 70, 287.7303466796875
0, 3, 71, 300.6708984375
0, 3, 72, 270.2348022460938
0, 3, 73, 307.3571472167969
0, 3, 74, 291.6212463378906
0, 3, 75, 290.3861694335938
0, 3, 76, 307.7679443359375
0, 3, 77, 315.9633483886719
0, 3, 78, 306.6852722167969
0, 3, 79, 283.5258483886719
0, 3, 80, 289.9618225097656
0, 3, 81, 310.6610412597656
0, 3, 82, 316.8648986816406
0, 3, 83, 302.4472045898438
0, 3, 84, 311.3222351074219
0, 3, 85, 293.386962890625
0, 3, 86, 303.8180236816406
0, 3, 87, 300.5415954589844
0, 3, 88, 300.8243103027344
0, 3, 89, 295.7527465820312
0, 3, 90, 276.90625
0, 3, 91, 284.2439880371094
0, 3, 92, 306.0173645019531
0, 3, 93, 311.8166809082031
0, 3, 94, 297.9913635253906
0, 3, 95, 333.7176208496094
0, 3, 96, 291.0613403320312
0, 3, 97, 282.4001770019531
0, 3, 98, 277.6488037109375
0, 3, 99, 261.7343139648438
0, 3, 100, 285.3784790039062
0, 3, 101, 297.9690856933594
0, 3, 102, 275.3705749511719
0, 3, 103, 320.208984375
0, 3, 104, 309.3720703125
0, 3, 105, 288.2866821289062
0, 3, 106, 301.1779479980469
0, 3, 107, 281.4352111816406
0, 3, 108, 169.0570983886719
0, 3, 109, 57.1330451965332
0, 3, 110, 18.40489959716797
0, 3, 111, 12.58517646789551
0, 3, 112, 12.45783805847168
0, 3, 113, 9.194454193115234
0, 3, 114, 9.115932464599609
0, 3, 115, 6.13481616973877
0, 3, 116, 7.722692012786865
0, 3, 117, 7.401799201965332
0, 3, 118, 11.07233047485352
0, 3, 119, 10.34700107574463
0, 3, 120, 7.96343994140625
0, 3, 121, 3.430070161819458
0, 3, 122, 2.904391527175903
0, 3, 123, 6.112293720245361
0, 3, 124, 5.758305072784424
0, 3, 125, 5.43857479095459
0, 3, 126, 4.846802234649658
0, 3, 127, 3.840249061584473
0, 4, 0, 5.579962730407715
0, 4, 1, 4.641454696655273
0, 4, 2, 2.945334434509277
0, 4, 3, 2.936609983444214
0, 4, 4, 7.661745071411133
0, 4, 5, 9.187131881713867
0, 4, 6, 6.460812091827393
0, 4, 7, 5.35526704788208
0, 4, 8, 3.827092409133911
0, 4, 9, 6.340693473815918
0, 4, 10, 7.151571273803711
0, 4, 11, 7.125012874603271
0, 4, 12, 5.691390514373779
0, 4, 13, 7.13754940032959
0, 4, 14, 10.87460613250732
0, 4, 15, 8.588146209716797
0, 4, 16, 13.49224185943604
0, 4, 17, 19.14664077758789
0, 4, 18, 93.91526031494141
0, 4, 19, 221.0576782226562
0, 4, 20, 287.1539611816406
0, 4, 21, 272.93505859375
0, 4, 22, 304.6824035644531
0, 4, 23, 267.7273254394531
0, 4, 24, 289.2003784179688
0, 4, 25, 272.9656372070312
0, 4, 26, 294.8083801269531
0, 4, 27, 282.2180786132812
0, 4, 28, 308.6660461425781
0, 4, 29, 324.0077514648438
0, 4, 30, 310.5460815429688
0, 4, 31, 304.1807556152344
0, 4, 32, 283.1695861816406
0, 4, 33, 294.9499206542969
0, 4, 34, 296.95361328125
0, 4, 35, 311.4108581542969
0, 4, 36, 292.1342468261719
0, 4, 37, 287.4619140625
0, 4, 38, 302.4742126464844
0, 4, 39, 295.3063049316406
0, 4, 40, 301.5033264160156
0, 4, 41, 313.5079040527344
0, 4, 42, 331.230712890625
0, 4, 43, 296.8199157714844
0, 4, 44, 320.5531005859375
0, 4, 45, 324.6914672851562
0, 4, 46, 304.4179077148438
0, 4, 47, 292.0758972167969
0, 4, 48, 295.1891784667969
0, 4, 49, 277.3393859863281
0, 4, 50, 298.2939758300781
0, 4, 51, 315.6731262207031
0, 4, 52, 327.4555969238281
0, 4, 53, 305.4967041015625
0, 4, 54, 287.611083984375
0, 4, 55, 314.37548828125
0, 4, 56, 289.1943664550781
0, 4, 57, 309.1756896972656
0, 4, 58, 296.575439453125
0, 4, 59, 307.6924133300781
0, 4, 60, 302.8499755859375
0, 4, 61, 313.8681945800781
0, 4, 62, 308.0217590332031
0, 4, 63, 299.6216735839844
0, 4, 64, 329.1949157714844
0, 4, 65, 314.6837463378906
0, 4, 66, 293.3500671386719
0, 4, 67, 285.8738098144531
0, 4, 68, 313.4276428222656
0, 4, 69, 277.3515014648438
0, 4, 70, 300.8553771972656
0, 4, 71, 320.2979125976562
0, 4, 72, 333.2361755371094
0, 4, 73, 299.6513671875
0, 4, 74, 292.2180480957031
0, 4, 75, 290.6858825683594
0, 4, 76, 276.1396484375
0, 4, 77, 277.4998168945312
0, 4, 78, 309.3486633300781
0, 4, 79, 318.2087097167969
0, 4, 80, 316.9759216308594
0, 4, 81, 312.979736328125
0, 4, 82, 300.5964660644531
0, 4, 83, 299.1926879882812
0, 4, 84, 293.1646728515625
0, 4, 85, 294.6831359863281
0, 4, 86, 297.5736999511719
0, 4, 87, 285.7668762207031
0, 4, 88, 304.9515380859375
0, 4, 89, 295.2682189941406
0, 4, 90, 333.645263671875
0, 4, 91, 301.8131103515625
0, 4, 92, 289.3965148925781
0, 4, 93, 297.7288818359375
0, 4, 94, 292.9437255859375
0, 4, 95, 286.6345825195312
0, 4, 96, 324.2792053222656
0, 4, 97, 274.1272583007812
0, 4, 98, 328.1736755371094
0, 4, 99, 313.1276245117188
0, 4, 100, 299.1685180664062
0, 4, 101, 256.9053649902344
0, 4, 102, 295.5313415527344
0, 4, 103, 316.9570922851562
0, 4, 104, 282.2587890625
0, 4, 105, 310.0654296875
0, 4, 106, 286.9960632324219
0, 4, 107, 294.4601745605469
0, 4, 108, 226.8350982666016
0, 4, 109, 79.706298828125
0, 4, 110, 15.60202503204346
0, 4, 111, 17.04978179931641
0, 4, 112, 7.996214389801025
0, 4, 113, 9.630340576171875
0, 4, 114, 8.014049530029297
0, 4, 115, 9.117462158203125
0, 4, 116, 8.359041213989258
0, 4, 117, 8.076032638549805
0, 4, 118, 11.5281457901001
0, 4, 119, 11.61484336853027
0, 4, 120, 6.14296293258667
0, 4, 121, 3.458751916885376
0, 4, 122, 4.70472526550293
0, 4, 123, 5.987390518188477
0, 4, 124, 5.794170379638672
0, 4, 125, 9.394196510314941
0, 4, 126, 5.423788070678711
0, 4, 127, 4.084836006164551
0, 5, 0, 4.039259910583496
0, 5, 1, 3.257181644439697
0, 5, 2, 8.127939224243164
0, 5, 3, 4.059978008270264
0, 5, 4, 4.561985492706299
0, 5, 5, 6.618592739105225
0, 5, 6, 5.97093391418457
0, 5, 7, 4.644152641296387
0, 5, 8, 4.273490905761719
0, 5, 9, 6.10212230682373
0, 5, 10, 6.380441665649414
0, 5, 11, 9.199549674987793
0, 5, 12, 8.628764152526855
0, 5, 13, 4.822896003723145
0, 5, 14, 15.36933898925781
0, 5, 15, 18.33845520019531
0, 5, 16, 14.36023044586182
0, 5, 17, 28.92004013061523
0, 5, 18, 137.5545806884766
0, 5, 19, 287.56787109375
0, 5, 20, 306.2611999511719
0, 5, 21, 318.6261596679688
0, 5, 22, 275.9086608886719
0, 5, 23, 309.6582336425781
0, 5, 24, 302.203369140625
0, 5, 25, 289.6122131347656
0, 5, 26, 294.6612243652344
0, 5, 27, 321.63818359375
0, 5, 28, 302.4371643066406
0, 5, 29, 298.3455810546875
0, 5, 30, 322.5247802734375
0, 5, 31, 286.5564575195312
0, 5, 32, 302.5716857910156
0, 5, 33, 303.2861938476562
0, 5, 34, 297.4727172851562
0, 5, 35, 309.181640625
0, 5, 36, 272.4686889648438
0, 5, 37, 282.8384399414062
0, 5, 38, 293.3660583496094
0, 5, 39, 311.9013061523438
0, 5, 40, 307.6299438476562
0, 5, 41, 273.2030639648438
0, 5, 42, 303.82666015625
0, 5, 43, 315.3581237792969
0, 5, 44, 291.8940734863281
0, 5, 45, 301.9657287597656
0, 5, 46, 264.3499145507812
0, 5, 47, 280.630615234375
0, 5, 48, 294.6726684570312
0, 5, 49, 286.7503967285156
0, 5, 50, 294.0218505859375
0, 5, 51, 278.8847961425781
0, 5, 52, 269.699462890625
0, 5, 53, 284.6301574707031
0, 5, 54, 291.7140197753906
0, 5, 55, 343.6289367675781
0, 5, 56, 306.5766906738281
0, 5, 57, 309.0274047851562
0, 5, 58, 313.4210510253906
0, 5, 59, 304.1551513671875
0, 5, 60, 305.9919738769531
0, 5, 61, 281.3497314453125
0, 5, 62, 326.6248168945312
0, 5, 63, 290.1431274414062
0, 5, 64, 324.3714599609375
0, 5, 65, 306.8928833007812
0, 5, 66, 327.7973022460938
0, 5, 67, 311.7363586425781
0, 5, 68, 308.9256286621094
0, 5, 69, 312.329833984375
0, 5, 70, 303.1998901367188
0, 5, 71, 272.7191162109375
0, 5, 72, 310.3632202148438
0, 5, 73, 301.3327941894531
0, 5, 74, 295.40185546875
0, 5, 75, 294.538818359375
0, 5, 76, 284.3606567382812
0, 5, 77, 298.9801940917969
0, 5, 78, 313.2286682128906
0, 5, 79, 306.7660522460938
0, 5, 80, 294.5786437988281
0, 5, 81, 326.7054138183594
0, 5, 82, 323.4666442871094
0, 5, 83, 280.0161743164062
0, 5, 84, 300.7202758789062
0, 5, 85, 270.8937377929688
0, 5, 86, 325.4741516113281
0, 5, 87, 283.4317016601562
0, 5, 88, 312.8840637207031
0, 5, 89, 304.7955627441406
0, 5, 90, 317.6894836425781
0, 5, 91, 313.7445068359375
0, 5, 92, 297.6705017089844
0, 5, 93, 321.9412231445312
0, 5, 94, 306.1940002441406
0, 5, 95, 297.41015625
0, 5, 96, 297.1250915527344
0, 5, 97, 297.2087707519531
0, 5, 98, 319.2470397949219
0, 5, 99, 300.7510986328125
0, 5, 100, 289.7530212402344
0, 5, 101, 304.311279296875
0, 5, 102, 292.1665649414062
0, 5, 103, 312.0171508789062
0, 5, 104, 301.0420837402344
0, 5, 105, 292.8907165527344
0, 5, 106, 282.3104248046875
0, 5, 107, 296.6717529296875
0, 5, 108, 263.4279174804688
0, 5, 109, 158.3965454101562
0, 5, 110, 39.88454818725586
0, 5, 111, 21.43697357177734
0, 5, 112, 18.55144882202148
0, 5, 113, 13.5608606338501
0, 5, 114, 14.11527824401855
0, 5, 115, 7.211143493652344
0, 5, 116, 7.699012756347656
0, 5, 117, 5.786412239074707
0, 5, 118, 12.94999313354492
0, 5, 119, 5.47136116027832
0, 5, 120, 4.797832489013672
0, 5, 121, 6.034152507781982
0, 5, 122, 5.295040607452393
0, 5, 123, 4.742355346679688
0, 5, 124, 5.918179035186768
0, 5, 125, 5.912448883056641
0, 5, 126, 4.254568576812744
0, 5, 127, 5.333399295806885
0, 6, 0, 6.176053047180176
0, 6, 1, 4.744946479797363
0, 6, 2, 5.100446224212646
0, 6, 3, 5.529831886291504
0, 6, 4, 2.986867666244507
0, 6, 5, 6.76935863494873
0, 6, 6, 10.43908786773682
0, 6, 7, 7.234779834747314
0, 6, 8, 5.993227005004883
0, 6, 9, 7.060755252838135
0, 6, 10, 9.063408851623535
0, 6, 11, 9.051002502441406
0, 6, 12, 8.334274291992188
0, 6, 13, 14.94362258911133
0, 6, 14, 8.791607856750488
0, 6, 15, 18.90668296813965
0, 6, 16, 27.67593955993652
0, 6, 17, 53.73429107666016
0, 6, 18, 172.3627624511719
0, 6, 19, 275.3181762695312
0, 6, 20, 289.853759765625
0, 6, 21, 314.6122436523438
0, 6, 22, 319.8424072265625
0, 6, 23, 305.8366394042969
0, 6, 24, 315.9198303222656
0, 6, 25, 315.7759094238281
0, 6, 26, 322.8411865234375
0, 6, 27, 330.8351135253906
0, 6, 28, 295.9801025390625
0, 6, 29, 332.5410766601562
0, 6, 30, 280.6039733886719
0, 6, 31, 287.512939453125
0, 6, 32, 343.6881408691406
0, 6, 33, 301.6571350097656
0, 6, 34, 341.0655212402344
0, 6, 35, 320.9209289550781
0, 6, 36, 272.8582458496094
0, 6, 37, 290.858642578125
0, 6, 38, 311.8273620605469
0, 6, 39, 298.2083740234375
0, 6, 40, 285.2066345214844
0, 6, 41, 295.2555847167969
0, 6, 42, 306.3619079589844
0, 6, 43, 288.8358459472656
0, 6, 44, 283.3335876464844
0, 6, 45, 320.4580688476562
0, 6, 46, 301.5812072753906
0, 6, 47, 331.5173034667969
0, 6, 48, 292.3923645019531
0, 6, 49, 312.0952453613281
0, 6, 50, 327.2940673828125
0, 6, 51, 309.931884765625
0, 6, 52, 321.4596252441406
0, 6, 53, 330.8802490234375
0, 6, 54, 304.4917297363281
0, 6, 55, 306.172119140625
0, 6, 56, 293.072998046875
0, 6, 57, 311.6501159667969
0, 6, 58, 261.4891052246094
0, 6, 59, 301.1402893066406
0, 6, 60, 313.3909301757812
0, 6, 61, 272.2154541015625
0, 6, 62, 339.2116394042969
0, 6, 63, 325.7032165527344
0, 6, 64, 292.4990844726562
0, 6, 65, 283.2786865234375
0, 6, 66, 303.2483520507812
0, 6, 67, 311.2798767089844
0, 6, 68, 296.5147094726562
0, 6, 69, 278.10498046875
0, 6, 70, 273.4452819824219
0, 6, 71, 290.1353759765625
0, 6, 72, 311.1852722167969
0, 6, 73, 291.4298400878906
0, 6, 74, 331.6813659667969
0, 6, 75, 342.8943176269531
0, 6, 76, 297.8287353515625
0, 6, 77, 285.7434997558594
0, 6, 78, 279.8749389648438
0, 6, 79, 293.3511047363281
0, 6, 80, 302.7230529785156
0, 6, 81, 315.7305908203125
0, 6, 82, 320.5370178222656
0, 6, 83, 321.7578735351562
0, 6, 84, 296.3238830566406
0, 6, 85, 301.0859985351562
0, 6, 86, 331.6876525878906
0, 6, 87, 291.583740234375
0, 6, 88, 307.9842224121094
0, 6, 89, 303.5336608886719
0, 6, 90, 298.3605346679688
0, 6, 91, 313.06103515625
0, 6, 92, 286.50927734375
0, 6, 93, 295.6882934570312
0, 6, 94, 272.6561279296875
0, 6, 95, 300.922607421875
0, 6, 96, 346.1068725585938
0, 6, 97, 307.1742553710938
0, 6, 98, 301.1526184082031
0, 6, 99, 272.0106811523438
0, 6, 100, 311.3638305664062
0, 6, 101, 293.7396545410156
0, 6, 102, 307.0160217285156
0, 6, 103, 307.7442932128906
0, 6, 104, 291.1342163085938
0, 6, 105, 300.8429565429688
0, 6, 106, 305.7680358886719
0, 6, 107, 305.3648986816406
0, 6, 108, 267.382568359375
0, 6, 109, 185.8125457763672
0, 6, 110, 56.77783584594727
0, 6, 111, 21.72120094299316
0, 6, 112, 13.51072978973389
0, 6, 113, 10.4094409942627
0, 6, 114, 11.41020774841309
0, 6, 115, 10.51200294494629
0, 6, 116, 7.901915073394775
0, 6, 117, 5.239195823669434
0, 6, 118, 9.328083038330078
0, 6, 119, 10.2830114364624
0, 6, 120, 5.145443439483643
0, 6, 121, 7.606438159942627
0, 6, 122, 6.720112323760986
0, 6, 123, 5.309032440185547
0, 6, 124, 8.45550537109375
0, 6, 125, 5.550358295440674
0, 6, 126, 4.401122570037842
0, 6, 127, 7.078330993652344
0, 7, 0, 5.752048015594482
0, 7, 1, 3.048622131347656
0, 7, 2, 7.753886699676514
0, 7, 3, 6.907032012939453
0, 7, 4, 5.000636577606201
0, 7, 5, 5.651015281677246
0, 7, 6, 6.025328159332275
0, 7, 7, 5.244557857513428
0, 7, 8, 6.622551441192627
0, 7, 9, 8.012613296508789
0, 7, 10, 8.126399993896484
0, 7, 11, 12.8162727355957
0, 7, 12, 11.59751033782959
0, 7, 13, 11.18894290924072
0, 7, 14, 10.57857418060303
0, 7, 15, 19.03489685058594
0, 7, 16, 27.27950477600098
0, 7, 17, 96.92623138427734
0, 7, 18, 218.8596954345703
0, 7, 19, 288.2130126953125
0, 7, 20, 296.0548095703125
0, 7, 21, 277.9512634277344
0, 7, 22, 299.3558959960938
0, 7, 23, 288.6058959960938
0, 7, 24, 314.195556640625
0, 7, 25, 326.7886962890625
0, 7, 26, 277.3608093261719
0, 7, 27, 297.1536865234375
0, 7, 28, 324.5782165527344
0, 7, 29, 318.2328186035156
0, 7, 30, 299.1710815429688
0, 7, 31, 278.4602661132812
0, 7, 32, 304.9442138671875
0, 7, 33, 263.3398742675781
0, 7, 34, 297.7311096191406
0, 7, 35, 321.2437438964844
0, 7, 36, 331.9610595703125
0, 7, 37, 321.8343811035156
0, 7, 38, 296.6392822265625
0, 7, 39, 307.56201171875
0, 7, 40, 290.0400390625
0, 7, 41, 270.9786071777344
0, 7, 42, 301.1666870117188
0, 7, 43, 274.7300415039062
0, 7, 44, 303.607666015625
0, 7, 45, 293.7939147949219
0, 7, 46, 283.1930236816406
0, 7, 47, 328.0357666015625
0, 7, 48, 284.7862548828125
0, 7, 49, 301.3556213378906
0, 7, 50, 320.4735717773438
0, 7, 51, 299.3562927246094
0, 7, 52, 327.4884948730469
0, 7, 53, 309.2895202636719
0, 7, 54, 323.6853332519531
0, 7, 55, 306.8621215820312
0, 7, 56, 279.9658203125
0, 7, 57, 281.1862487792969
0, 7, 58, 296.0362854003906
0, 7, 59, 292.5918273925781
0, 7, 60, 323.1373901367188
0, 7, 61, 276.7278442382812
0, 7, 62, 296.5647583007812
0, 7, 63, 293.2128601074219
0, 7, 64, 307.2759399414062
0, 7, 65, 331.7319030761719
0, 7, 66, 316.4935607910156
0, 7, 67, 300.8873291015625
0, 7, 68, 279.3975830078125
0, 7, 69, 294.3374938964844
0, 7, 70, 302.7697143554688
0, 7, 71, 312.4671325683594
0, 7, 72, 285.5826416015625
0, 7, 73, 295.0386047363281
0, 7, 74, 343.5215759277344
0, 7, 75, 319.4630737304688
0, 7, 76, 323.0606689453125
0, 7, 77, 281.4840087890625
0, 7, 78, 303.1263427734375
0, 7, 79, 297.2417602539062
0, 7, 80, 310.8542175292969
0, 7, 81, 319.103515625
0, 7, 82, 328.9867858886719
0, 7, 83, 318.6000671386719
0, 7, 84, 310.1923522949219
0, 7, 85, 272.7112731933594
0, 7, 86, 310.1255187988281
0, 7, 87, 309.4087524414062
0, 7, 88, 306.8942260742188
0, 7, 89, 292.03173828125
0, 7, 90, 307.4023742675781
0, 7, 91, 315.7855529785156
0, 7, 92, 287.0557250976562
0, 7, 93, 307.7149658203125
0, 7, 94, 273.6786804199219
0, 7, 95, 296.2281188964844
0, 7, 96, 331.3489685058594
0, 7, 97, 295.7087707519531
0, 7, 98, 290.9651184082031
0, 7, 99, 311.3411560058594
0, 7, 100, 280.5469665527344
0, 7, 101, 277.044189453125
0, 7, 102, 290.9934997558594
0, 7, 103, 291.0838012695312
0, 7, 104, 275.1284484863281
0, 7, 105, 306.0267944335938
0, 7, 106, 318.1571044921875
0, 7, 107, 297.4221496582031
0, 7, 108, 272.7770080566406
0, 7, 109, 237.1991424560547
0, 7, 110, 96.45545959472656
0, 7, 111, 23.47494888305664
0, 7, 112, 12.90330123901367
0, 7, 113, 15.15386772155762
0, 7, 114, 13.69053077697754
0, 7, 115, 14.7437219619751
0, 7, 116, 9.005988121032715
0, 7, 117, 5.523622512817383
0, 7, 118, 7.346244335174561
0, 7, 119, 5.768795013427734
0, 7, 120, 5.000191211700439
0, 7, 121, 8.608697891235352
0, 7, 122, 6.064900875091553
0, 7, 123, 6.738100051879883
0, 7, 124, 3.894346237182617
0, 7, 125, 4.922545909881592
0, 7, 126, 7.515212059020996
0, 7, 127, 3.503168821334839
0, 8, 0, 5.172525405883789
0, 8, 1, 3.120529413223267
0, 8, 2, 2.613781213760376
0, 8, 3, 1.696204781532288
0, 8, 4, 4.688469886779785
0, 8, 5, 4.354786396026611
0, 8, 6, 5.138092517852783
0, 8, 7, 4.862585544586182
0, 8, 8, 7.323193550109863
0, 8, 9, 4.919996738433838
0, 8, 10, 9.009963035583496
0, 8, 11, 10.85813522338867
0, 8, 12, 12.86712551116943
0, 8, 13, 14.13627052307129
0, 8, 14, 14.79229545593262
0, 8, 15, 17.34453010559082
0, 8, 16, 32.22868347167969
0, 8, 17, 129.1194000244141
0, 8, 18, 244.7113952636719
0, 8, 19, 295.2579040527344
0, 8, 20, 287.8884582519531
0, 8, 21, 307.3955993652344
0, 8, 22, 298.4244384765625
0, 8, 23, 275.6390380859375
0, 8, 24, 267.7654113769531
0, 8, 25, 274.1700439453125
0, 8, 26, 305.8124084472656
0, 8, 27, 307.3580932617188
0, 8, 28, 305.555419921875
0, 8, 29, 317.4192199707031
0, 8, 30, 315.9079284667969
0, 8, 31, 304.9444885253906
0, 8, 32, 280.0554504394531
0, 8, 33, 294.2887878417969
0, 8, 34, 289.8407287597656
0, 8, 35, 281.7564697265625
0, 8, 36, 316.8023376464844
0, 8, 37, 339.7979125976562
0, 8, 38, 330.5404663085938
0, 8, 39, 279.7153625488281
0, 8, 40, 304.5892333984375
