# TOPAS Version: 3.1.p3
# Parameter File: batch_inserts_296.txt
# Results for scorer Readout_Adipose
# Scored in component: MyBox
# X in 1 bin  of 0.75 cm
# Y in 512 bins of 0.0783984 cm
# Z in 128 bins of 0.078125 cm
# EnergyDeposit ( MeV ) : Sum   
0, 0, 0, 19.61899948120117
0, 0, 1, 23.52938461303711
0, 0, 2, 23.15114593505859
0, 0, 3, 28.33518600463867
0, 0, 4, 20.13004875183105
0, 0, 5, 19.66495895385742
0, 0, 6, 22.55951309204102
0, 0, 7, 32.51535034179688
0, 0, 8, 25.50254440307617
0, 0, 9, 19.56642150878906
0, 0, 10, 26.72521781921387
0, 0, 11, 30.87468528747559
0, 0, 12, 32.48995590209961
0, 0, 13, 32.60372543334961
0, 0, 14, 33.2319221496582
0, 0, 15, 48.2797737121582
0, 0, 16, 44.78557205200195
0, 0, 17, 45.79558944702148
0, 0, 18, 76.99747467041016
0, 0, 19, 190.4849548339844
0, 0, 20, 701.9469604492188
0, 0, 21, 1189.023681640625
0, 0, 22, 1246.446533203125
0, 0, 23, 1275.022338867188
0, 0, 24, 1286.510864257812
0, 0, 25, 1352.31591796875
0, 0, 26, 1272.56103515625
0, 0, 27, 1279.2333984375
0, 0, 28, 1320.229370117188
0, 0, 29, 1268.746948242188
0, 0, 30, 1261.581787109375
0, 0, 31, 1278.75048828125
0, 0, 32, 1261.342163085938
0, 0, 33, 1239.002807617188
0, 0, 34, 1327.322265625
0, 0, 35, 1301.908081054688
0, 0, 36, 1248.591552734375
0, 0, 37, 1278.997192382812
0, 0, 38, 1249.037719726562
0, 0, 39, 1244.544677734375
0, 0, 40, 1221.610473632812
0, 0, 41, 1272.9033203125
0, 0, 42, 1253.854370117188
0, 0, 43, 1270.017944335938
0, 0, 44, 1224.647338867188
0, 0, 45, 1287.877685546875
0, 0, 46, 1259.98291015625
0, 0, 47, 1238.114990234375
0, 0, 48, 1278.504028320312
0, 0, 49, 1287.8720703125
0, 0, 50, 1308.06298828125
0, 0, 51, 1264.858032226562
0, 0, 52, 1354.811157226562
0, 0, 53, 1329.327270507812
0, 0, 54, 1303.463012695312
0, 0, 55, 1236.312866210938
0, 0, 56, 1322.36767578125
0, 0, 57, 1296.629516601562
0, 0, 58, 1257.765869140625
0, 0, 59, 1334.318725585938
0, 0, 60, 1329.00439453125
0, 0, 61, 1264.216674804688
0, 0, 62, 1236.487548828125
0, 0, 63, 1273.627807617188
0, 0, 64, 1331.5615234375
0, 0, 65, 1286.229248046875
0, 0, 66, 1319.498046875
0, 0, 67, 1219.92138671875
0, 0, 68, 1308.1171875
0, 0, 69, 1328.660888671875
0, 0, 70, 1339.996459960938
0, 0, 71, 1287.4013671875
0, 0, 72, 1314.7060546875
0, 0, 73, 1238.21435546875
0, 0, 74, 1291.2421875
0, 0, 75, 1299.729736328125
0, 0, 76, 1256.635864257812
0, 0, 77, 1287.871948242188
0, 0, 78, 1314.694580078125
0, 0, 79, 1325.405395507812
0, 0, 80, 1259.166137695312
0, 0, 81, 1327.244018554688
0, 0, 82, 1286.632568359375
0, 0, 83, 1288.643432617188
0, 0, 84, 1324.790649414062
0, 0, 85, 1235.109985351562
0, 0, 86, 1265.754028320312
0, 0, 87, 1249.563720703125
0, 0, 88, 1257.320678710938
0, 0, 89, 1333.83251953125
0, 0, 90, 1282.578369140625
0, 0, 91, 1355.241333007812
0, 0, 92, 1303.768432617188
0, 0, 93, 1272.222290039062
0, 0, 94, 1246.078125
0, 0, 95, 1325.31591796875
0, 0, 96, 1280.337768554688
0, 0, 97, 1324.131591796875
0, 0, 98, 1255.717651367188
0, 0, 99, 1249.882080078125
0, 0, 100, 1290.87646484375
0, 0, 101, 1310.509643554688
0, 0, 102, 1234.990112304688
0, 0, 103, 1325.27490234375
0, 0, 104, 1263.669067382812
0, 0, 105, 1266.935668945312
0, 0, 106, 1206.74365234375
0, 0, 107, 787.4544677734375
0, 0, 108, 195.3161468505859
0, 0, 109, 67.00897216796875
0, 0, 110, 60.86069869995117
0, 0, 111, 41.44728469848633
0, 0, 112, 34.20277404785156
0, 0, 113, 35.98456573486328
0, 0, 114, 34.1395263671875
0, 0, 115, 31.35226821899414
0, 0, 116, 32.72201919555664
0, 0, 117, 35.42219543457031
0, 0, 118, 23.7298469543457
0, 0, 119, 20.89936447143555
0, 0, 120, 22.43993949890137
0, 0, 121, 28.77477645874023
0, 0, 122, 20.84820938110352
0, 0, 123, 17.00443649291992
0, 0, 124, 22.50601577758789
0, 0, 125, 22.52986717224121
0, 0, 126, 23.90127182006836
0, 0, 127, 15.22328758239746
0, 1, 0, 25.12188911437988
0, 1, 1, 22.31850051879883
0, 1, 2, 25.29984474182129
0, 1, 3, 25.97334480285645
0, 1, 4, 22.39450073242188
0, 1, 5, 25.18386077880859
0, 1, 6, 22.10454559326172
0, 1, 7, 28.57527351379395
0, 1, 8, 36.89456939697266
0, 1, 9, 32.85123443603516
0, 1, 10, 36.31748199462891
0, 1, 11, 42.73608779907227
0, 1, 12, 39.18603134155273
0, 1, 13, 42.9659423828125
0, 1, 14, 44.62023162841797
0, 1, 15, 47.27228927612305
0, 1, 16, 58.79148483276367
0, 1, 17, 64.79461669921875
0, 1, 18, 94.17095947265625
0, 1, 19, 399.4065246582031
0, 1, 20, 1039.195678710938
0, 1, 21, 1370.781616210938
0, 1, 22, 1475.2236328125
0, 1, 23, 1469.936401367188
0, 1, 24, 1450.83251953125
0, 1, 25, 1426.799560546875
0, 1, 26, 1476.434692382812
0, 1, 27, 1465.938598632812
0, 1, 28, 1491.916015625
0, 1, 29, 1476.038452148438
0, 1, 30, 1508.181518554688
0, 1, 31, 1486.563232421875
0, 1, 32, 1412.721801757812
0, 1, 33, 1497.549682617188
0, 1, 34, 1502.167114257812
0, 1, 35, 1462.079223632812
0, 1, 36, 1490.258056640625
0, 1, 37, 1415.565795898438
0, 1, 38, 1393.836791992188
0, 1, 39, 1522.761596679688
0, 1, 40, 1458.334350585938
0, 1, 41, 1490.43701171875
0, 1, 42, 1493.445678710938
0, 1, 43, 1499.6953125
0, 1, 44, 1449.33935546875
0, 1, 45, 1483.662963867188
0, 1, 46, 1419.805053710938
0, 1, 47, 1435.119995117188
0, 1, 48, 1431.264404296875
0, 1, 49, 1485.222412109375
0, 1, 50, 1443.912841796875
0, 1, 51, 1473.072998046875
0, 1, 52, 1478.693481445312
0, 1, 53, 1472.817260742188
0, 1, 54, 1508.98046875
0, 1, 55, 1493.806884765625
0, 1, 56, 1466.041625976562
0, 1, 57, 1455.82275390625
0, 1, 58, 1428.308715820312
0, 1, 59, 1482.043701171875
0, 1, 60, 1463.726440429688
0, 1, 61, 1449.887573242188
0, 1, 62, 1454.327758789062
0, 1, 63, 1415.52490234375
0, 1, 64, 1472.203369140625
0, 1, 65, 1414.550537109375
0, 1, 66, 1436.704345703125
0, 1, 67, 1459.083129882812
0, 1, 68, 1389.484619140625
0, 1, 69, 1465.442138671875
0, 1, 70, 1429.40478515625
0, 1, 71, 1497.516845703125
0, 1, 72, 1435.808959960938
0, 1, 73, 1490.346069335938
0, 1, 74, 1466.68408203125
0, 1, 75, 1474.670654296875
0, 1, 76, 1458.5234375
0, 1, 77, 1467.783813476562
0, 1, 78, 1453.155639648438
0, 1, 79, 1501.32470703125
0, 1, 80, 1444.81298828125
0, 1, 81, 1429.49072265625
0, 1, 82, 1474.138427734375
0, 1, 83, 1462.978759765625
0, 1, 84, 1532.958984375
0, 1, 85, 1445.782104492188
0, 1, 86, 1405.244262695312
0, 1, 87, 1418.661865234375
0, 1, 88, 1470.692260742188
0, 1, 89, 1476.332275390625
0, 1, 90, 1427.181762695312
0, 1, 91, 1461.561767578125
0, 1, 92, 1414.037109375
0, 1, 93, 1458.086303710938
0, 1, 94, 1466.148315429688
0, 1, 95, 1422.7685546875
0, 1, 96, 1497.027099609375
0, 1, 97, 1515.465942382812
0, 1, 98, 1475.329956054688
0, 1, 99, 1417.645751953125
0, 1, 100, 1449.6005859375
0, 1, 101, 1423.305053710938
0, 1, 102, 1438.531005859375
0, 1, 103, 1410.779418945312
0, 1, 104, 1407.5869140625
0, 1, 105, 1463.671264648438
0, 1, 106, 1367.920043945312
0, 1, 107, 1016.755126953125
0, 1, 108, 403.2521057128906
0, 1, 109, 93.84353637695312
0, 1, 110, 59.57460403442383
0, 1, 111, 56.84945678710938
0, 1, 112, 50.03028869628906
0, 1, 113, 40.69204330444336
0, 1, 114, 39.62979507446289
0, 1, 115, 39.79479598999023
0, 1, 116, 31.66503715515137
0, 1, 117, 33.56036758422852
0, 1, 118, 38.71722030639648
0, 1, 119, 30.8078556060791
0, 1, 120, 32.31539535522461
0, 1, 121, 26.10508728027344
0, 1, 122, 22.96868324279785
0, 1, 123, 24.31377601623535
0, 1, 124, 32.67257308959961
0, 1, 125, 23.4760570526123
0, 1, 126, 16.94158172607422
0, 1, 127, 22.03100395202637
0, 2, 0, 24.31201362609863
0, 2, 1, 21.34882545471191
0, 2, 2, 28.12864303588867
0, 2, 3, 16.1545238494873
0, 2, 4, 22.22016906738281
0, 2, 5, 21.9298267364502
0, 2, 6, 27.92497825622559
0, 2, 7, 25.90506744384766
0, 2, 8, 23.78972625732422
0, 2, 9, 26.06406784057617
0, 2, 10, 30.47159767150879
0, 2, 11, 34.59424591064453
0, 2, 12, 39.18703079223633
0, 2, 13, 49.04854583740234
0, 2, 14, 49.51501083374023
0, 2, 15, 49.93262481689453
0, 2, 16, 58.93576049804688
0, 2, 17, 76.96859741210938
0, 2, 18, 148.5459899902344
0, 2, 19, 610.276611328125
0, 2, 20, 1295.337890625
0, 2, 21, 1433.31689453125
0, 2, 22, 1453.895141601562
0, 2, 23, 1401.076049804688
0, 2, 24, 1445.28369140625
0, 2, 25, 1523.041748046875
0, 2, 26, 1558.434814453125
0, 2, 27, 1458.67431640625
0, 2, 28, 1454.34716796875
0, 2, 29, 1459.252075195312
0, 2, 30, 1460.145385742188
0, 2, 31, 1533.732788085938
0, 2, 32, 1505.822631835938
0, 2, 33, 1444.168823242188
0, 2, 34, 1474.34619140625
0, 2, 35, 1469.824829101562
0, 2, 36, 1527.76220703125
0, 2, 37, 1540.73388671875
0, 2, 38, 1502.309448242188
0, 2, 39, 1462.97265625
0, 2, 40, 1506.62841796875
0, 2, 41, 1518.877319335938
0, 2, 42, 1497.121826171875
0, 2, 43, 1548.223266601562
0, 2, 44, 1454.876831054688
0, 2, 45, 1486.130493164062
0, 2, 46, 1429.671142578125
0, 2, 47, 1448.42041015625
0, 2, 48, 1396.6318359375
0, 2, 49, 1461.473876953125
0, 2, 50, 1445.12841796875
0, 2, 51, 1445.951782226562
0, 2, 52, 1494.487548828125
0, 2, 53, 1518.232543945312
0, 2, 54, 1521.351684570312
0, 2, 55, 1490.043212890625
0, 2, 56, 1463.08203125
0, 2, 57, 1415.298583984375
0, 2, 58, 1453.9033203125
0, 2, 59, 1445.112182617188
0, 2, 60, 1473.455444335938
0, 2, 61, 1443.984008789062
0, 2, 62, 1469.380737304688
0, 2, 63, 1504.093505859375
0, 2, 64, 1457.566284179688
0, 2, 65, 1430.316040039062
0, 2, 66, 1491.67919921875
0, 2, 67, 1501.5673828125
0, 2, 68, 1545.586303710938
0, 2, 69, 1537.923706054688
0, 2, 70, 1513.397216796875
0, 2, 71, 1462.879516601562
0, 2, 72, 1520.455322265625
0, 2, 73, 1517.5576171875
0, 2, 74, 1490.825927734375
0, 2, 75, 1506.24365234375
0, 2, 76, 1452.743408203125
0, 2, 77, 1505.789794921875
0, 2, 78, 1432.643920898438
0, 2, 79, 1540.90673828125
0, 2, 80, 1480.936645507812
0, 2, 81, 1464.095825195312
0, 2, 82, 1558.2705078125
0, 2, 83, 1517.832275390625
0, 2, 84, 1490.833984375
0, 2, 85, 1516.1787109375
0, 2, 86, 1539.842895507812
0, 2, 87, 1483.093017578125
0, 2, 88, 1535.404541015625
0, 2, 89, 1464.0244140625
0, 2, 90, 1436.65234375
0, 2, 91, 1402.150024414062
0, 2, 92, 1479.733276367188
0, 2, 93, 1497.84716796875
0, 2, 94, 1455.374145507812
0, 2, 95, 1548.403930664062
0, 2, 96, 1519.502685546875
0, 2, 97, 1454.384155273438
0, 2, 98, 1464.809936523438
0, 2, 99, 1400.2900390625
0, 2, 100, 1472.357666015625
0, 2, 101, 1479.677734375
0, 2, 102, 1464.8701171875
0, 2, 103, 1389.927734375
0, 2, 104, 1411.577392578125
0, 2, 105, 1396.003784179688
0, 2, 106, 1457.979736328125
0, 2, 107, 1279.546630859375
0, 2, 108, 622.5394287109375
0, 2, 109, 174.9999847412109
0, 2, 110, 68.38684844970703
0, 2, 111, 61.92984390258789
0, 2, 112, 48.62955856323242
0, 2, 113, 48.74734497070312
0, 2, 114, 44.34388732910156
0, 2, 115, 41.94776153564453
0, 2, 116, 33.47786331176758
0, 2, 117, 34.27447891235352
0, 2, 118, 24.94688606262207
0, 2, 119, 29.68838691711426
0, 2, 120, 36.63084411621094
0, 2, 121, 19.62473297119141
0, 2, 122, 31.4832592010498
0, 2, 123, 23.93244934082031
0, 2, 124, 20.22188377380371
0, 2, 125, 27.72710227966309
0, 2, 126, 20.18871307373047
0, 2, 127, 23.94515609741211
0, 3, 0, 11.91463184356689
0, 3, 1, 20.74595069885254
0, 3, 2, 19.38357353210449
0, 3, 3, 24.7702808380127
0, 3, 4, 18.33850860595703
0, 3, 5, 22.68623733520508
0, 3, 6, 34.54483795166016
0, 3, 7, 28.17053604125977
0, 3, 8, 25.09262275695801
0, 3, 9, 26.89203834533691
0, 3, 10, 34.30455017089844
0, 3, 11, 32.47627639770508
0, 3, 12, 39.58996963500977
0, 3, 13, 51.83925247192383
0, 3, 14, 60.77373123168945
0, 3, 15, 54.84494018554688
0, 3, 16, 70.14439392089844
0, 3, 17, 94.65097045898438
0, 3, 18, 232.3513641357422
0, 3, 19, 879.0946655273438
0, 3, 20, 1384.3837890625
0, 3, 21, 1507.078735351562
0, 3, 22, 1460.3115234375
0, 3, 23, 1455.421020507812
0, 3, 24, 1441.634643554688
0, 3, 25, 1464.499145507812
0, 3, 26, 1495.078002929688
0, 3, 27, 1472.600463867188
0, 3, 28, 1490.347534179688
0, 3, 29, 1552.578979492188
0, 3, 30, 1570.662719726562
0, 3, 31, 1515.6474609375
0, 3, 32, 1550.674682617188
0, 3, 33, 1538.616088867188
0, 3, 34, 1486.1953125
0, 3, 35, 1463.462280273438
0, 3, 36, 1449.6484375
0, 3, 37, 1517.712890625
0, 3, 38, 1516.012451171875
0, 3, 39, 1436.965942382812
0, 3, 40, 1438.45751953125
0, 3, 41, 1567.178466796875
0, 3, 42, 1459.949951171875
0, 3, 43, 1455.44482421875
0, 3, 44, 1452.830932617188
0, 3, 45, 1504.988159179688
0, 3, 46, 1507.48876953125
0, 3, 47, 1438.634521484375
0, 3, 48, 1507.293579101562
0, 3, 49, 1451.434814453125
0, 3, 50, 1494.59716796875
0, 3, 51, 1534.849487304688
0, 3, 52, 1537.438354492188
0, 3, 53, 1467.792846679688
0, 3, 54, 1532.741821289062
0, 3, 55, 1501.166748046875
0, 3, 56, 1436.28271484375
0, 3, 57, 1502.240112304688
0, 3, 58, 1513.771850585938
0, 3, 59, 1513.237670898438
0, 3, 60, 1532.502685546875
0, 3, 61, 1478.678344726562
0, 3, 62, 1491.504516601562
0, 3, 63, 1498.859252929688
0, 3, 64, 1499.471313476562
0, 3, 65, 1510.399658203125
0, 3, 66, 1558.974731445312
0, 3, 67, 1547.327758789062
0, 3, 68, 1450.988403320312
0, 3, 69, 1466.663940429688
0, 3, 70, 1384.264282226562
0, 3, 71, 1462.170043945312
0, 3, 72, 1543.7470703125
0, 3, 73, 1495.680908203125
0, 3, 74, 1466.428100585938
0, 3, 75, 1459.21533203125
0, 3, 76, 1581.442504882812
0, 3, 77, 1539.6533203125
0, 3, 78, 1430.871337890625
0, 3, 79, 1493.896240234375
0, 3, 80, 1459.3857421875
0, 3, 81, 1470.552856445312
0, 3, 82, 1550.646362304688
0, 3, 83, 1512.742553710938
0, 3, 84, 1556.367919921875
0, 3, 85, 1473.727172851562
0, 3, 86, 1523.938232421875
0, 3, 87, 1540.183959960938
0, 3, 88, 1455.856201171875
0, 3, 89, 1447.533447265625
0, 3, 90, 1451.017211914062
0, 3, 91, 1418.818115234375
0, 3, 92, 1513.199829101562
0, 3, 93, 1501.607299804688
0, 3, 94, 1519.698364257812
0, 3, 95, 1542.247314453125
0, 3, 96, 1510.602783203125
0, 3, 97, 1461.514526367188
0, 3, 98, 1436.197021484375
0, 3, 99, 1470.667114257812
0, 3, 100, 1468.9189453125
0, 3, 101, 1473.4921875
0, 3, 102, 1522.987548828125
0, 3, 103, 1551.873901367188
0, 3, 104, 1500.8642578125
0, 3, 105, 1515.454711914062
0, 3, 106, 1477.20556640625
0, 3, 107, 1340.126953125
0, 3, 108, 873.1878662109375
0, 3, 109, 263.9781188964844
0, 3, 110, 100.2790374755859
0, 3, 111, 64.72512817382812
0, 3, 112, 60.45002746582031
0, 3, 113, 52.64174270629883
0, 3, 114, 49.64820861816406
0, 3, 115, 47.84798812866211
0, 3, 116, 34.14991760253906
0, 3, 117, 39.28310394287109
0, 3, 118, 38.08090591430664
0, 3, 119, 32.40752410888672
0, 3, 120, 26.60995864868164
0, 3, 121, 24.58252334594727
0, 3, 122, 29.13023376464844
0, 3, 123, 28.49480819702148
0, 3, 124, 18.96623420715332
0, 3, 125, 24.65719032287598
0, 3, 126, 25.24570274353027
0, 3, 127, 19.07281112670898
0, 4, 0, 21.46815299987793
0, 4, 1, 25.38155174255371
0, 4, 2, 18.04022407531738
0, 4, 3, 24.34755516052246
0, 4, 4, 26.5653247833252
0, 4, 5, 32.99430465698242
0, 4, 6, 28.70963096618652
0, 4, 7, 33.93517684936523
0, 4, 8, 29.23580360412598
0, 4, 9, 30.86552619934082
0, 4, 10, 32.17729568481445
0, 4, 11, 42.12936019897461
0, 4, 12, 43.718017578125
0, 4, 13, 52.08813095092773
0, 4, 14, 50.67461776733398
0, 4, 15, 61.67874908447266
0, 4, 16, 74.7532958984375
0, 4, 17, 113.4974060058594
0, 4, 18, 439.1140747070312
0, 4, 19, 1183.486450195312
0, 4, 20, 1443.288818359375
0, 4, 21, 1420.771484375
0, 4, 22, 1437.867431640625
0, 4, 23, 1450.809936523438
0, 4, 24, 1477.435424804688
0, 4, 25, 1401.848022460938
0, 4, 26, 1536.144775390625
0, 4, 27, 1540.90673828125
0, 4, 28, 1515.62353515625
0, 4, 29, 1516.3310546875
0, 4, 30, 1525.010498046875
0, 4, 31, 1573.162963867188
0, 4, 32, 1515.779296875
0, 4, 33, 1494.577392578125
0, 4, 34, 1471.862060546875
0, 4, 35, 1566.817138671875
0, 4, 36, 1505.239013671875
0, 4, 37, 1511.019775390625
0, 4, 38, 1537.4423828125
0, 4, 39, 1470.711547851562
0, 4, 40, 1514.594970703125
0, 4, 41, 1580.025390625
0, 4, 42, 1564.361083984375
0, 4, 43, 1469.607666015625
0, 4, 44, 1499.51953125
0, 4, 45, 1522.095336914062
0, 4, 46, 1470.45263671875
0, 4, 47, 1501.209106445312
0, 4, 48, 1524.417602539062
0, 4, 49, 1472.704345703125
0, 4, 50, 1517.708740234375
0, 4, 51, 1491.2744140625
0, 4, 52, 1492.237548828125
0, 4, 53, 1455.082397460938
0, 4, 54, 1444.332763671875
0, 4, 55, 1524.988037109375
0, 4, 56, 1452.026489257812
0, 4, 57, 1502.113647460938
0, 4, 58, 1457.838012695312
0, 4, 59, 1464.744018554688
0, 4, 60, 1526.8740234375
0, 4, 61, 1498.296752929688
0, 4, 62, 1504.773071289062
0, 4, 63, 1546.84619140625
0, 4, 64, 1591.816284179688
0, 4, 65, 1425.302368164062
0, 4, 66, 1516.18212890625
0, 4, 67, 1519.035278320312
0, 4, 68, 1493.763061523438
0, 4, 69, 1466.708129882812
0, 4, 70, 1545.758544921875
0, 4, 71, 1519.061889648438
0, 4, 72, 1530.875122070312
0, 4, 73, 1494.763793945312
0, 4, 74, 1486.035522460938
0, 4, 75, 1531.69580078125
0, 4, 76, 1480.540771484375
0, 4, 77, 1497.728149414062
0, 4, 78, 1498.705078125
0, 4, 79, 1482.886596679688
0, 4, 80, 1512.425903320312
0, 4, 81, 1523.970703125
0, 4, 82, 1565.857543945312
0, 4, 83, 1500.352294921875
0, 4, 84, 1538.980102539062
0, 4, 85, 1557.528076171875
0, 4, 86, 1526.340087890625
0, 4, 87, 1496.294799804688
0, 4, 88, 1520.392333984375
0, 4, 89, 1480.837890625
0, 4, 90, 1550.987915039062
0, 4, 91, 1553.42333984375
0, 4, 92, 1488.36865234375
0, 4, 93, 1514.130859375
0, 4, 94, 1481.482055664062
0, 4, 95, 1511.07177734375
0, 4, 96, 1441.598388671875
0, 4, 97, 1415.122436523438
0, 4, 98, 1558.262084960938
0, 4, 99, 1512.545288085938
0, 4, 100, 1490.45458984375
0, 4, 101, 1451.489868164062
0, 4, 102, 1446.736328125
0, 4, 103, 1512.567626953125
0, 4, 104, 1511.623291015625
0, 4, 105, 1555.54736328125
0, 4, 106, 1475.436645507812
0, 4, 107, 1453.49169921875
0, 4, 108, 1123.8974609375
0, 4, 109, 436.5730590820312
0, 4, 110, 95.49360656738281
0, 4, 111, 69.11190795898438
0, 4, 112, 60.50772857666016
0, 4, 113, 51.67365646362305
0, 4, 114, 53.10049438476562
0, 4, 115, 44.76953506469727
0, 4, 116, 40.8666877746582
0, 4, 117, 39.18511581420898
0, 4, 118, 42.09761047363281
0, 4, 119, 38.67137908935547
0, 4, 120, 35.03159713745117
0, 4, 121, 31.4322338104248
0, 4, 122, 28.7923583984375
0, 4, 123, 30.15408897399902
0, 4, 124, 18.52799034118652
0, 4, 125, 25.88992881774902
0, 4, 126, 20.32492446899414
0, 4, 127, 21.21028518676758
0, 5, 0, 24.78536033630371
0, 5, 1, 23.42838668823242
0, 5, 2, 30.82589912414551
0, 5, 3, 24.9615306854248
0, 5, 4, 21.53595161437988
0, 5, 5, 35.32004165649414
0, 5, 6, 35.87658309936523
0, 5, 7, 27.78652191162109
0, 5, 8, 32.97455978393555
0, 5, 9, 29.91845893859863
0, 5, 10, 33.33095169067383
0, 5, 11, 35.29336166381836
0, 5, 12, 40.19620895385742
0, 5, 13, 46.24839019775391
0, 5, 14, 66.06776428222656
0, 5, 15, 79.90275573730469
0, 5, 16, 77.06504821777344
0, 5, 17, 155.4740142822266
0, 5, 18, 674.9041748046875
0, 5, 19, 1346.335205078125
0, 5, 20, 1523.794311523438
0, 5, 21, 1491.702392578125
0, 5, 22, 1498.892456054688
0, 5, 23, 1529.982543945312
0, 5, 24, 1463.807861328125
0, 5, 25, 1425.046752929688
0, 5, 26, 1530.669311523438
0, 5, 27, 1536.31103515625
0, 5, 28, 1486.735717773438
0, 5, 29, 1522.415771484375
0, 5, 30, 1496.343017578125
0, 5, 31, 1502.88671875
0, 5, 32, 1596.053466796875
0, 5, 33, 1504.91943359375
0, 5, 34, 1487.4228515625
0, 5, 35, 1514.8369140625
0, 5, 36, 1442.676147460938
0, 5, 37, 1528.650146484375
0, 5, 38, 1550.424072265625
0, 5, 39, 1553.057983398438
0, 5, 40, 1501.123291015625
0, 5, 41, 1482.399536132812
0, 5, 42, 1538.331909179688
0, 5, 43, 1534.201782226562
0, 5, 44, 1539.13916015625
0, 5, 45, 1504.269897460938
0, 5, 46, 1492.297607421875
0, 5, 47, 1482.84033203125
0, 5, 48, 1500.4072265625
0, 5, 49, 1522.060546875
0, 5, 50, 1500.855590820312
0, 5, 51, 1516.272094726562
0, 5, 52, 1428.119873046875
0, 5, 53, 1521.37353515625
0, 5, 54, 1519.124145507812
0, 5, 55, 1527.18994140625
0, 5, 56, 1480.724975585938
0, 5, 57, 1535.9970703125
0, 5, 58, 1506.770141601562
0, 5, 59, 1489.068725585938
0, 5, 60, 1541.203125
0, 5, 61, 1456.163818359375
0, 5, 62, 1591.217895507812
0, 5, 63, 1435.076538085938
0, 5, 64, 1489.959228515625
0, 5, 65, 1467.321533203125
0, 5, 66, 1527.1552734375
0, 5, 67, 1558.174560546875
0, 5, 68, 1463.619873046875
0, 5, 69, 1480.036865234375
0, 5, 70, 1493.250244140625
0, 5, 71, 1474.62646484375
0, 5, 72, 1536.066040039062
0, 5, 73, 1459.61767578125
0, 5, 74, 1493.222778320312
0, 5, 75, 1488.465454101562
0, 5, 76, 1482.854370117188
0, 5, 77, 1518.190307617188
0, 5, 78, 1529.537719726562
0, 5, 79, 1507.228271484375
0, 5, 80, 1516.04833984375
0, 5, 81, 1601.552124023438
0, 5, 82, 1527.827392578125
0, 5, 83, 1491.13525390625
0, 5, 84, 1529.21875
0, 5, 85, 1509.903442382812
0, 5, 86, 1555.493041992188
0, 5, 87, 1472.243896484375
0, 5, 88, 1493.3818359375
0, 5, 89, 1484.41943359375
0, 5, 90, 1481.727294921875
0, 5, 91, 1552.7392578125
0, 5, 92, 1486.423095703125
0, 5, 93, 1559.124633789062
0, 5, 94, 1510.140625
0, 5, 95, 1561.788452148438
0, 5, 96, 1501.942504882812
0, 5, 97, 1510.388793945312
0, 5, 98, 1512.9560546875
0, 5, 99, 1542.747802734375
0, 5, 100, 1437.83642578125
0, 5, 101, 1433.035400390625
0, 5, 102, 1514.496215820312
0, 5, 103, 1472.914672851562
0, 5, 104, 1458.09228515625
0, 5, 105, 1491.0244140625
0, 5, 106, 1461.696533203125
0, 5, 107, 1401.890380859375
0, 5, 108, 1289.692749023438
0, 5, 109, 720.6763916015625
0, 5, 110, 191.9446105957031
0, 5, 111, 88.01683807373047
0, 5, 112, 80.12891387939453
0, 5, 113, 65.17059326171875
0, 5, 114, 58.14489364624023
0, 5, 115, 53.13081741333008
0, 5, 116, 38.8829231262207
0, 5, 117, 33.68367767333984
0, 5, 118, 35.65744400024414
0, 5, 119, 25.22876358032227
0, 5, 120, 31.67543411254883
0, 5, 121, 24.11998748779297
0, 5, 122, 27.64392852783203
0, 5, 123, 25.20172119140625
0, 5, 124, 24.67123413085938
0, 5, 125, 20.2646656036377
0, 5, 126, 21.64410972595215
0, 5, 127, 21.86389541625977
0, 6, 0, 21.31808471679688
0, 6, 1, 26.79742813110352
0, 6, 2, 30.30769157409668
0, 6, 3, 27.43438911437988
0, 6, 4, 23.52489280700684
0, 6, 5, 28.51410293579102
0, 6, 6, 39.59210968017578
0, 6, 7, 30.67537689208984
0, 6, 8, 31.86148643493652
0, 6, 9, 34.82460784912109
0, 6, 10, 36.77177047729492
0, 6, 11, 41.43063354492188
0, 6, 12, 39.78781509399414
0, 6, 13, 59.19128036499023
0, 6, 14, 61.20168685913086
0, 6, 15, 87.51170349121094
0, 6, 16, 114.4710540771484
0, 6, 17, 296.7506103515625
0, 6, 18, 902.6168212890625
0, 6, 19, 1374.226196289062
0, 6, 20, 1436.849731445312
0, 6, 21, 1532.556030273438
0, 6, 22, 1505.320556640625
0, 6, 23, 1526.390625
0, 6, 24, 1474.559692382812
0, 6, 25, 1523.554565429688
0, 6, 26, 1511.809448242188
0, 6, 27, 1519.568969726562
0, 6, 28, 1553.950073242188
0, 6, 29, 1574.631591796875
0, 6, 30, 1509.48974609375
0, 6, 31, 1492.732666015625
0, 6, 32, 1526.187744140625
0, 6, 33, 1495.23681640625
0, 6, 34, 1561.170166015625
0, 6, 35, 1504.75244140625
0, 6, 36, 1442.654052734375
0, 6, 37, 1546.685668945312
0, 6, 38, 1520.91552734375
0, 6, 39, 1523.004638671875
0, 6, 40, 1457.010375976562
0, 6, 41, 1444.003662109375
0, 6, 42, 1518.146850585938
0, 6, 43, 1490.352905273438
0, 6, 44, 1431.574951171875
0, 6, 45, 1545.330200195312
0, 6, 46, 1551.150756835938
0, 6, 47, 1498.98779296875
0, 6, 48, 1526.080078125
0, 6, 49, 1509.5166015625
0, 6, 50, 1578.549438476562
0, 6, 51, 1504.93798828125
0, 6, 52, 1561.0078125
0, 6, 53, 1475.608154296875
0, 6, 54, 1500.902709960938
0, 6, 55, 1572.704956054688
0, 6, 56, 1530.195434570312
0, 6, 57, 1505.875
0, 6, 58, 1466.7841796875
0, 6, 59, 1523.830078125
0, 6, 60, 1470.847045898438
0, 6, 61, 1571.92041015625
0, 6, 62, 1550.30712890625
0, 6, 63, 1497.589111328125
0, 6, 64, 1408.48876953125
0, 6, 65, 1494.02587890625
0, 6, 66, 1506.497802734375
0, 6, 67, 1507.994995117188
0, 6, 68, 1544.014892578125
0, 6, 69, 1479.303100585938
0, 6, 70, 1521.055786132812
0, 6, 71, 1465.996215820312
0, 6, 72, 1594.255126953125
0, 6, 73, 1493.908447265625
0, 6, 74, 1559.028930664062
0, 6, 75, 1538.240112304688
0, 6, 76, 1562.712524414062
0, 6, 77, 1504.779541015625
0, 6, 78, 1444.443725585938
0, 6, 79, 1556.885131835938
0, 6, 80, 1484.987548828125
0, 6, 81, 1482.542602539062
0, 6, 82, 1503.863647460938
0, 6, 83, 1529.214721679688
0, 6, 84, 1525.051635742188
0, 6, 85, 1536.595825195312
0, 6, 86, 1541.510009765625
0, 6, 87, 1572.54833984375
0, 6, 88, 1479.088989257812
0, 6, 89, 1565.641235351562
0, 6, 90, 1488.076416015625
0, 6, 91, 1539.3818359375
0, 6, 92, 1488.508911132812
0, 6, 93, 1495.4462890625
0, 6, 94, 1469.618408203125
0, 6, 95, 1508.450927734375
0, 6, 96, 1519.258422851562
0, 6, 97, 1503.286743164062
0, 6, 98, 1497.3115234375
0, 6, 99, 1479.345703125
0, 6, 100, 1519.814819335938
0, 6, 101, 1511.9404296875
0, 6, 102, 1543.112182617188
0, 6, 103, 1505.825927734375
0, 6, 104, 1462.6513671875
0, 6, 105, 1490.574829101562
0, 6, 106, 1495.832641601562
0, 6, 107, 1504.181274414062
0, 6, 108, 1406.251708984375
0, 6, 109, 927.0838012695312
0, 6, 110, 280.9895324707031
0, 6, 111, 95.38870239257812
0, 6, 112, 73.52171325683594
0, 6, 113, 59.0898551940918
0, 6, 114, 55.31996536254883
0, 6, 115, 43.93959426879883
0, 6, 116, 40.43039321899414
0, 6, 117, 36.9185791015625
0, 6, 118, 39.31826019287109
0, 6, 119, 32.53546142578125
0, 6, 120, 28.11812400817871
0, 6, 121, 27.60311126708984
0, 6, 122, 31.10471153259277
0, 6, 123, 24.65040969848633
0, 6, 124, 34.78173828125
0, 6, 125, 29.75716590881348
0, 6, 126, 21.44660758972168
0, 6, 127, 19.17405128479004
0, 7, 0, 24.38650131225586
0, 7, 1, 32.49514770507812
0, 7, 2, 21.72285842895508
0, 7, 3, 26.55724716186523
0, 7, 4, 20.89687347412109
0, 7, 5, 35.54877853393555
0, 7, 6, 33.93572616577148
0, 7, 7, 36.5663948059082
0, 7, 8, 30.0755558013916
0, 7, 9, 29.6575870513916
0, 7, 10, 46.81571960449219
0, 7, 11, 45.96456909179688
0, 7, 12, 45.9919548034668
0, 7, 13, 61.97618103027344
0, 7, 14, 60.28520965576172
0, 7, 15, 79.61248779296875
0, 7, 16, 134.2096710205078
0, 7, 17, 457.1243286132812
0, 7, 18, 1097.447143554688
0, 7, 19, 1506.009521484375
0, 7, 20, 1486.06494140625
0, 7, 21, 1363.212036132812
0, 7, 22, 1485.229858398438
0, 7, 23, 1457.16552734375
0, 7, 24, 1511.323120117188
0, 7, 25, 1595.651977539062
0, 7, 26, 1522.26904296875
0, 7, 27, 1507.403564453125
0, 7, 28, 1542.357177734375
0, 7, 29, 1579.37890625
0, 7, 30, 1543.158325195312
0, 7, 31, 1438.463623046875
0, 7, 32, 1544.261596679688
0, 7, 33, 1490.117431640625
0, 7, 34, 1478.760009765625
0, 7, 35, 1518.756103515625
0, 7, 36, 1470.721801757812
0, 7, 37, 1601.8876953125
0, 7, 38, 1505.01025390625
0, 7, 39, 1490.034790039062
0, 7, 40, 1538.9423828125
0, 7, 41, 1461.36865234375
0, 7, 42, 1484.613403320312
0, 7, 43, 1441.056884765625
0, 7, 44, 1488.126342773438
0, 7, 45, 1472.597290039062
0, 7, 46, 1515.570678710938
0, 7, 47, 1565.177612304688
0, 7, 48, 1525.483642578125
0, 7, 49, 1535.730102539062
0, 7, 50, 1514.928466796875
0, 7, 51, 1493.816528320312
0, 7, 52, 1520.2626953125
0, 7, 53, 1490.756469726562
0, 7, 54, 1583.048095703125
0, 7, 55, 1469.71630859375
0, 7, 56, 1548.677490234375
0, 7, 57, 1510.988037109375
0, 7, 58, 1548.644897460938
0, 7, 59, 1540.552734375
0, 7, 60, 1549.7314453125
0, 7, 61, 1484.540771484375
0, 7, 62, 1435.528076171875
0, 7, 63, 1513.152709960938
0, 7, 64, 1545.898559570312
0, 7, 65, 1527.387329101562
0, 7, 66, 1541.836303710938
0, 7, 67, 1584.22509765625
0, 7, 68, 1531.077392578125
0, 7, 69, 1516.731689453125
0, 7, 70, 1497.69873046875
0, 7, 71, 1519.78271484375
0, 7, 72, 1523.0869140625
0, 7, 73, 1517.007568359375
0, 7, 74, 1569.660400390625
0, 7, 75, 1536.912719726562
0, 7, 76, 1558.365356445312
0, 7, 77, 1513.962646484375
0, 7, 78, 1510.62060546875
0, 7, 79, 1425.629760742188
0, 7, 80, 1487.3095703125
0, 7, 81, 1494.83203125
0, 7, 82, 1528.385131835938
0, 7, 83, 1544.188232421875
0, 7, 84, 1586.467041015625
0, 7, 85, 1474.638427734375
0, 7, 86, 1498.449951171875
0, 7, 87, 1505.688232421875
0, 7, 88, 1501.641845703125
0, 7, 89, 1555.991821289062
0, 7, 90, 1518.312133789062
0, 7, 91, 1562.013549804688
0, 7, 92, 1539.869262695312
0, 7, 93, 1556.922119140625
0, 7, 94, 1537.832885742188
0, 7, 95, 1504.9052734375
0, 7, 96, 1507.817260742188
0, 7, 97, 1435.654541015625
0, 7, 98, 1484.7333984375
0, 7, 99, 1527.30517578125
0, 7, 100, 1421.911254882812
0, 7, 101, 1465.156372070312
0, 7, 102, 1446.724731445312
0, 7, 103, 1428.94140625
0, 7, 104, 1491.389282226562
0, 7, 105, 1520.797241210938
0, 7, 106, 1566.648071289062
0, 7, 107, 1484.819946289062
0, 7, 108, 1413.864624023438
0, 7, 109, 1146.699462890625
0, 7, 110, 474.4502868652344
0, 7, 111, 129.6469116210938
0, 7, 112, 82.53745269775391
0, 7, 113, 68.64609527587891
0, 7, 114, 57.93554306030273
0, 7, 115, 51.73240661621094
0, 7, 116, 43.58286285400391
0, 7, 117, 46.23368835449219
0, 7, 118, 38.11517715454102
0, 7, 119, 35.60317230224609
0, 7, 120, 24.17605590820312
0, 7, 121, 31.97795867919922
0, 7, 122, 34.71602249145508
0, 7, 123, 33.73894119262695
0, 7, 124, 29.12109184265137
0, 7, 125, 28.86708450317383
0, 7, 126, 25.87667274475098
0, 7, 127, 21.77529335021973
0, 8, 0, 20.43898773193359
0, 8, 1, 21.7769832611084
0, 8, 2, 27.64599990844727
0, 8, 3, 26.67827033996582
0, 8, 4, 29.98056983947754
0, 8, 5, 26.37419700622559
0, 8, 6, 28.30427742004395
0, 8, 7, 27.04938316345215
0, 8, 8, 33.05634307861328
0, 8, 9, 45.68558883666992
0, 8, 10, 41.97785949707031
0, 8, 11, 40.26614761352539
0, 8, 12, 53.35654067993164
0, 8, 13, 69.71280670166016
0, 8, 14, 71.83134460449219
0, 8, 15, 87.08673858642578
0, 8, 16, 171.55908203125
0, 8, 17, 674.31005859375
0, 8, 18, 1277.954711914062
0, 8, 19, 1450.719604492188
0, 8, 20, 1418.82568359375
0, 8, 21, 1410.665161132812
0, 8, 22, 1489.6728515625
0, 8, 23, 1483.3212890625
0, 8, 24, 1440.169067382812
0, 8, 25, 1455.484252929688
0, 8, 26, 1516.300170898438
0, 8, 27, 1522.959106445312
0, 8, 28, 1475.815307617188
0, 8, 29, 1501.52783203125
0, 8, 30, 1483.466552734375
0, 8, 31, 1534.074340820312
0, 8, 32, 1509.15087890625
0, 8, 33, 1482.013671875
0, 8, 34, 1538.154663085938
0, 8, 35, 1438.569580078125
0, 8, 36, 1497.807373046875
0, 8, 37, 1557.255859375
0, 8, 38, 1555.4267578125
0, 8, 39, 1492.2685546875
0, 8, 40, 1536.240112304688
0, 8, 41, 1484.269653320312
0, 8, 42, 1538.261474609375
0, 8, 43, 1433.193725585938
0, 8, 44, 1533.619384765625
0, 8, 45, 1512.001953125
0, 8, 46, 1598.2724609375
0, 8, 47, 1589.933227539062
0, 8, 48, 1545.352416992188
