# TOPAS Version: 3.1.p3
# Parameter File: batch_inserts_164.txt
# Results for scorer Readout_Adipose
# Scored in component: MyBox
# X in 1 bin  of 0.75 cm
# Y in 512 bins of 0.0783984 cm
# Z in 128 bins of 0.078125 cm
# EnergyDeposit ( MeV ) : Sum   
0, 0, 0, 23.45173835754395
0, 0, 1, 20.47901344299316
0, 0, 2, 23.06253051757812
0, 0, 3, 22.35222244262695
0, 0, 4, 18.93091201782227
0, 0, 5, 22.85273361206055
0, 0, 6, 25.00173950195312
0, 0, 7, 34.32204055786133
0, 0, 8, 20.56657028198242
0, 0, 9, 24.8710880279541
0, 0, 10, 23.15327453613281
0, 0, 11, 24.59248733520508
0, 0, 12, 35.22921371459961
0, 0, 13, 30.03931045532227
0, 0, 14, 39.18317031860352
0, 0, 15, 47.10662460327148
0, 0, 16, 44.83927154541016
0, 0, 17, 44.29288101196289
0, 0, 18, 76.23233032226562
0, 0, 19, 186.321044921875
0, 0, 20, 696.3724975585938
0, 0, 21, 1189.353393554688
0, 0, 22, 1242.5048828125
0, 0, 23, 1275.880493164062
0, 0, 24, 1279.747314453125
0, 0, 25, 1355.694213867188
0, 0, 26, 1272.052612304688
0, 0, 27, 1281.491088867188
0, 0, 28, 1319.788818359375
0, 0, 29, 1268.13525390625
0, 0, 30, 1260.544921875
0, 0, 31, 1277.324096679688
0, 0, 32, 1265.1748046875
0, 0, 33, 1240.349243164062
0, 0, 34, 1325.145263671875
0, 0, 35, 1304.65576171875
0, 0, 36, 1252.316284179688
0, 0, 37, 1278.561889648438
0, 0, 38, 1247.692138671875
0, 0, 39, 1244.414428710938
0, 0, 40, 1226.437255859375
0, 0, 41, 1266.8896484375
0, 0, 42, 1250.900268554688
0, 0, 43, 1265.731201171875
0, 0, 44, 1224.87744140625
0, 0, 45, 1291.562744140625
0, 0, 46, 1265.653076171875
0, 0, 47, 1239.278198242188
0, 0, 48, 1276.59521484375
0, 0, 49, 1290.2236328125
0, 0, 50, 1308.643310546875
0, 0, 51, 1262.939819335938
0, 0, 52, 1360.228271484375
0, 0, 53, 1327.203491210938
0, 0, 54, 1296.837646484375
0, 0, 55, 1235.504028320312
0, 0, 56, 1320.5888671875
0, 0, 57, 1290.867919921875
0, 0, 58, 1258.3310546875
0, 0, 59, 1331.66796875
0, 0, 60, 1327.187255859375
0, 0, 61, 1259.30029296875
0, 0, 62, 1239.28759765625
0, 0, 63, 1280.222900390625
0, 0, 64, 1328.003295898438
0, 0, 65, 1280.882568359375
0, 0, 66, 1319.299560546875
0, 0, 67, 1211.615478515625
0, 0, 68, 1314.79052734375
0, 0, 69, 1323.741333007812
0, 0, 70, 1345.9892578125
0, 0, 71, 1285.179809570312
0, 0, 72, 1314.11474609375
0, 0, 73, 1239.789672851562
0, 0, 74, 1288.246826171875
0, 0, 75, 1301.343505859375
0, 0, 76, 1257.908935546875
0, 0, 77, 1281.895751953125
0, 0, 78, 1317.714599609375
0, 0, 79, 1325.72119140625
0, 0, 80, 1263.10302734375
0, 0, 81, 1325.289916992188
0, 0, 82, 1290.14697265625
0, 0, 83, 1290.354858398438
0, 0, 84, 1331.893676757812
0, 0, 85, 1235.342041015625
0, 0, 86, 1260.31884765625
0, 0, 87, 1255.842407226562
0, 0, 88, 1261.510375976562
0, 0, 89, 1331.895263671875
0, 0, 90, 1276.67333984375
0, 0, 91, 1354.958862304688
0, 0, 92, 1304.980834960938
0, 0, 93, 1276.170043945312
0, 0, 94, 1244.791259765625
0, 0, 95, 1327.735595703125
0, 0, 96, 1284.34228515625
0, 0, 97, 1324.487548828125
0, 0, 98, 1256.141845703125
0, 0, 99, 1251.647338867188
0, 0, 100, 1284.640625
0, 0, 101, 1314.48486328125
0, 0, 102, 1231.647338867188
0, 0, 103, 1320.5595703125
0, 0, 104, 1260.98779296875
0, 0, 105, 1271.681762695312
0, 0, 106, 1210.595458984375
0, 0, 107, 780.9624633789062
0, 0, 108, 190.532958984375
0, 0, 109, 66.50855255126953
0, 0, 110, 64.82638549804688
0, 0, 111, 42.02951049804688
0, 0, 112, 36.08871078491211
0, 0, 113, 36.93785095214844
0, 0, 114, 35.22114181518555
0, 0, 115, 31.12376594543457
0, 0, 116, 29.40880012512207
0, 0, 117, 30.38252067565918
0, 0, 118, 24.16096687316895
0, 0, 119, 24.6908016204834
0, 0, 120, 28.32260131835938
0, 0, 121, 28.90460014343262
0, 0, 122, 23.53410530090332
0, 0, 123, 20.29904174804688
0, 0, 124, 22.26342010498047
0, 0, 125, 19.75967979431152
0, 0, 126, 25.63373947143555
0, 0, 127, 11.87995529174805
0, 1, 0, 25.04409217834473
0, 1, 1, 20.22013854980469
0, 1, 2, 25.74399375915527
0, 1, 3, 25.03584098815918
0, 1, 4, 24.50483512878418
0, 1, 5, 29.3216552734375
0, 1, 6, 25.99688148498535
0, 1, 7, 32.54734802246094
0, 1, 8, 34.13810729980469
0, 1, 9, 32.98910140991211
0, 1, 10, 32.90826797485352
0, 1, 11, 42.54818344116211
0, 1, 12, 37.27957916259766
0, 1, 13, 42.74460220336914
0, 1, 14, 43.93722534179688
0, 1, 15, 50.25456237792969
0, 1, 16, 62.15123748779297
0, 1, 17, 56.9862174987793
0, 1, 18, 95.10577392578125
0, 1, 19, 400.7402648925781
0, 1, 20, 1045.430786132812
0, 1, 21, 1376.19384765625
0, 1, 22, 1479.274658203125
0, 1, 23, 1462.51220703125
0, 1, 24, 1447.340087890625
0, 1, 25, 1421.834594726562
0, 1, 26, 1479.040405273438
0, 1, 27, 1464.289184570312
0, 1, 28, 1489.09228515625
0, 1, 29, 1482.302124023438
0, 1, 30, 1506.425170898438
0, 1, 31, 1486.342041015625
0, 1, 32, 1411.62548828125
0, 1, 33, 1500.549072265625
0, 1, 34, 1506.157104492188
0, 1, 35, 1460.770141601562
0, 1, 36, 1488.486694335938
0, 1, 37, 1407.224365234375
0, 1, 38, 1391.817749023438
0, 1, 39, 1519.818603515625
0, 1, 40, 1460.151489257812
0, 1, 41, 1493.392578125
0, 1, 42, 1495.11669921875
0, 1, 43, 1503.007202148438
0, 1, 44, 1449.266723632812
0, 1, 45, 1488.143310546875
0, 1, 46, 1419.160400390625
0, 1, 47, 1434.91357421875
0, 1, 48, 1426.273193359375
0, 1, 49, 1487.51318359375
0, 1, 50, 1439.7626953125
0, 1, 51, 1473.4150390625
0, 1, 52, 1479.497924804688
0, 1, 53, 1474.36962890625
0, 1, 54, 1506.35498046875
0, 1, 55, 1495.005981445312
0, 1, 56, 1472.1337890625
0, 1, 57, 1461.848876953125
0, 1, 58, 1432.42529296875
0, 1, 59, 1481.637084960938
0, 1, 60, 1465.066040039062
0, 1, 61, 1451.53466796875
0, 1, 62, 1456.455810546875
0, 1, 63, 1413.110595703125
0, 1, 64, 1475.828735351562
0, 1, 65, 1417.41845703125
0, 1, 66, 1436.561279296875
0, 1, 67, 1456.47412109375
0, 1, 68, 1383.940307617188
0, 1, 69, 1460.716674804688
0, 1, 70, 1431.954711914062
0, 1, 71, 1497.175903320312
0, 1, 72, 1437.573364257812
0, 1, 73, 1487.53662109375
0, 1, 74, 1467.861694335938
0, 1, 75, 1477.3408203125
0, 1, 76, 1457.393310546875
0, 1, 77, 1468.482299804688
0, 1, 78, 1449.990234375
0, 1, 79, 1497.393920898438
0, 1, 80, 1451.389038085938
0, 1, 81, 1426.2470703125
0, 1, 82, 1472.537719726562
0, 1, 83, 1465.002197265625
0, 1, 84, 1535.304443359375
0, 1, 85, 1450.665771484375
0, 1, 86, 1408.868774414062
0, 1, 87, 1418.871704101562
0, 1, 88, 1472.08642578125
0, 1, 89, 1474.74169921875
0, 1, 90, 1423.972534179688
0, 1, 91, 1464.025634765625
0, 1, 92, 1410.549194335938
0, 1, 93, 1461.201538085938
0, 1, 94, 1465.9296875
0, 1, 95, 1424.378540039062
0, 1, 96, 1497.662109375
0, 1, 97, 1520.26123046875
0, 1, 98, 1480.719360351562
0, 1, 99, 1424.751098632812
0, 1, 100, 1451.141845703125
0, 1, 101, 1410.869873046875
0, 1, 102, 1441.146606445312
0, 1, 103, 1413.764770507812
0, 1, 104, 1408.03466796875
0, 1, 105, 1464.216918945312
0, 1, 106, 1362.778930664062
0, 1, 107, 1023.861572265625
0, 1, 108, 400.83203125
0, 1, 109, 86.95713043212891
0, 1, 110, 71.89166259765625
0, 1, 111, 53.44003295898438
0, 1, 112, 46.88701248168945
0, 1, 113, 38.25590515136719
0, 1, 114, 37.26509475708008
0, 1, 115, 39.77820587158203
0, 1, 116, 34.47472381591797
0, 1, 117, 33.86491012573242
0, 1, 118, 36.6185417175293
0, 1, 119, 27.68720626831055
0, 1, 120, 29.7530345916748
0, 1, 121, 24.63321876525879
0, 1, 122, 17.45853614807129
0, 1, 123, 22.32725524902344
0, 1, 124, 27.47305297851562
0, 1, 125, 15.84564876556396
0, 1, 126, 23.38539123535156
0, 1, 127, 17.7083568572998
0, 2, 0, 19.5495777130127
0, 2, 1, 17.99973678588867
0, 2, 2, 25.00400733947754
0, 2, 3, 22.37149810791016
0, 2, 4, 22.6694278717041
0, 2, 5, 27.4001350402832
0, 2, 6, 20.68342208862305
0, 2, 7, 18.81746101379395
0, 2, 8, 26.71637153625488
0, 2, 9, 27.79774284362793
0, 2, 10, 32.80597686767578
0, 2, 11, 32.67951202392578
0, 2, 12, 41.7003173828125
0, 2, 13, 48.72908401489258
0, 2, 14, 49.04179382324219
0, 2, 15, 50.75384140014648
0, 2, 16, 64.29843902587891
0, 2, 17, 78.73778533935547
0, 2, 18, 143.1299591064453
0, 2, 19, 601.765625
0, 2, 20, 1290.939697265625
0, 2, 21, 1434.411499023438
0, 2, 22, 1462.821044921875
0, 2, 23, 1402.832641601562
0, 2, 24, 1439.368041992188
0, 2, 25, 1526.046508789062
0, 2, 26, 1554.936157226562
0, 2, 27, 1457.02392578125
0, 2, 28, 1457.494506835938
0, 2, 29, 1461.860595703125
0, 2, 30, 1458.171630859375
0, 2, 31, 1535.3681640625
0, 2, 32, 1511.394653320312
0, 2, 33, 1445.82470703125
0, 2, 34, 1472.255126953125
0, 2, 35, 1471.396362304688
0, 2, 36, 1524.324829101562
0, 2, 37, 1542.731567382812
0, 2, 38, 1509.3447265625
0, 2, 39, 1464.07568359375
0, 2, 40, 1500.114501953125
0, 2, 41, 1522.058715820312
0, 2, 42, 1509.386108398438
0, 2, 43, 1551.76220703125
0, 2, 44, 1463.2939453125
0, 2, 45, 1486.8232421875
0, 2, 46, 1428.432495117188
0, 2, 47, 1446.670532226562
0, 2, 48, 1396.321533203125
0, 2, 49, 1459.305419921875
0, 2, 50, 1445.051635742188
0, 2, 51, 1449.657470703125
0, 2, 52, 1495.597900390625
0, 2, 53, 1524.459716796875
0, 2, 54, 1524.744140625
0, 2, 55, 1495.841674804688
0, 2, 56, 1462.693725585938
0, 2, 57, 1413.542236328125
0, 2, 58, 1456.254150390625
0, 2, 59, 1455.865844726562
0, 2, 60, 1475.7275390625
0, 2, 61, 1451.52490234375
0, 2, 62, 1471.370849609375
0, 2, 63, 1511.176635742188
0, 2, 64, 1459.453247070312
0, 2, 65, 1429.977661132812
0, 2, 66, 1487.85400390625
0, 2, 67, 1504.08447265625
0, 2, 68, 1546.524047851562
0, 2, 69, 1537.183227539062
0, 2, 70, 1509.792114257812
0, 2, 71, 1464.54736328125
0, 2, 72, 1516.157592773438
0, 2, 73, 1519.77685546875
0, 2, 74, 1491.343872070312
0, 2, 75, 1504.6396484375
0, 2, 76, 1455.942138671875
0, 2, 77, 1505.087646484375
0, 2, 78, 1437.468017578125
0, 2, 79, 1540.293090820312
0, 2, 80, 1480.374389648438
0, 2, 81, 1465.17919921875
0, 2, 82, 1558.647827148438
0, 2, 83, 1520.92236328125
0, 2, 84, 1490.961669921875
0, 2, 85, 1515.360595703125
0, 2, 86, 1544.27880859375
0, 2, 87, 1487.48193359375
0, 2, 88, 1536.694091796875
0, 2, 89, 1463.238525390625
0, 2, 90, 1433.026733398438
0, 2, 91, 1404.982543945312
0, 2, 92, 1476.70361328125
0, 2, 93, 1495.573364257812
0, 2, 94, 1456.039672851562
0, 2, 95, 1544.271606445312
0, 2, 96, 1517.399291992188
0, 2, 97, 1456.710083007812
0, 2, 98, 1464.662841796875
0, 2, 99, 1403.416870117188
0, 2, 100, 1476.992309570312
0, 2, 101, 1482.126708984375
0, 2, 102, 1455.975830078125
0, 2, 103, 1387.274780273438
0, 2, 104, 1405.211181640625
0, 2, 105, 1397.582763671875
0, 2, 106, 1458.464233398438
0, 2, 107, 1276.455932617188
0, 2, 108, 622.9370727539062
0, 2, 109, 169.8140258789062
0, 2, 110, 70.74810791015625
0, 2, 111, 63.46940231323242
0, 2, 112, 52.97933578491211
0, 2, 113, 45.1602783203125
0, 2, 114, 36.17098999023438
0, 2, 115, 43.41375732421875
0, 2, 116, 36.33486557006836
0, 2, 117, 37.89218139648438
0, 2, 118, 39.27728652954102
0, 2, 119, 29.52587509155273
0, 2, 120, 26.03274917602539
0, 2, 121, 19.01884269714355
0, 2, 122, 27.4362964630127
0, 2, 123, 26.35418319702148
0, 2, 124, 22.1508960723877
0, 2, 125, 27.41357040405273
0, 2, 126, 17.58730506896973
0, 2, 127, 24.29979133605957
0, 3, 0, 14.50337028503418
0, 3, 1, 19.29383087158203
0, 3, 2, 25.11614608764648
0, 3, 3, 21.38459587097168
0, 3, 4, 20.58245277404785
0, 3, 5, 26.23554992675781
0, 3, 6, 31.94352149963379
0, 3, 7, 28.49471855163574
0, 3, 8, 26.89255332946777
0, 3, 9, 32.83025741577148
0, 3, 10, 36.59427261352539
0, 3, 11, 36.69079971313477
0, 3, 12, 44.08455657958984
0, 3, 13, 50.38991165161133
0, 3, 14, 52.73136901855469
0, 3, 15, 57.05231857299805
0, 3, 16, 68.56491088867188
0, 3, 17, 89.66999816894531
0, 3, 18, 242.0409393310547
0, 3, 19, 876.0834350585938
0, 3, 20, 1386.990966796875
0, 3, 21, 1508.736694335938
0, 3, 22, 1470.849853515625
0, 3, 23, 1448.365600585938
0, 3, 24, 1438.420043945312
0, 3, 25, 1468.155883789062
0, 3, 26, 1492.842041015625
0, 3, 27, 1469.649291992188
0, 3, 28, 1488.25830078125
0, 3, 29, 1544.938598632812
0, 3, 30, 1566.89013671875
0, 3, 31, 1512.036865234375
0, 3, 32, 1544.322143554688
0, 3, 33, 1537.09814453125
0, 3, 34, 1487.492309570312
0, 3, 35, 1468.234497070312
0, 3, 36, 1448.9453125
0, 3, 37, 1513.75341796875
0, 3, 38, 1520.988525390625
0, 3, 39, 1444.399169921875
0, 3, 40, 1441.165405273438
0, 3, 41, 1566.203857421875
0, 3, 42, 1460.149658203125
0, 3, 43, 1460.207885742188
0, 3, 44, 1449.63134765625
0, 3, 45, 1507.436401367188
0, 3, 46, 1512.48046875
0, 3, 47, 1445.505004882812
0, 3, 48, 1509.983764648438
0, 3, 49, 1453.761840820312
0, 3, 50, 1495.64208984375
0, 3, 51, 1535.595825195312
0, 3, 52, 1534.077392578125
0, 3, 53, 1462.761962890625
0, 3, 54, 1535.423950195312
0, 3, 55, 1506.435424804688
0, 3, 56, 1436.978637695312
0, 3, 57, 1504.08349609375
0, 3, 58, 1512.628051757812
0, 3, 59, 1511.678344726562
0, 3, 60, 1534.426513671875
0, 3, 61, 1482.554931640625
0, 3, 62, 1493.892333984375
0, 3, 63, 1494.122680664062
0, 3, 64, 1500.771850585938
0, 3, 65, 1511.544677734375
0, 3, 66, 1553.902221679688
0, 3, 67, 1545.606689453125
0, 3, 68, 1444.935668945312
0, 3, 69, 1463.521240234375
0, 3, 70, 1388.584838867188
0, 3, 71, 1464.21484375
0, 3, 72, 1542.132934570312
0, 3, 73, 1504.525512695312
0, 3, 74, 1467.948608398438
0, 3, 75, 1456.07080078125
0, 3, 76, 1572.443237304688
0, 3, 77, 1539.706909179688
0, 3, 78, 1427.767700195312
0, 3, 79, 1490.073120117188
0, 3, 80, 1460.196899414062
0, 3, 81, 1472.378051757812
0, 3, 82, 1553.54736328125
0, 3, 83, 1514.317016601562
0, 3, 84, 1561.36572265625
0, 3, 85, 1480.63818359375
0, 3, 86, 1524.54296875
0, 3, 87, 1538.717529296875
0, 3, 88, 1458.349365234375
0, 3, 89, 1445.080444335938
0, 3, 90, 1454.545654296875
0, 3, 91, 1416.935302734375
0, 3, 92, 1518.865356445312
0, 3, 93, 1498.607421875
0, 3, 94, 1516.032470703125
0, 3, 95, 1539.26220703125
0, 3, 96, 1516.894165039062
0, 3, 97, 1468.534790039062
0, 3, 98, 1432.703247070312
0, 3, 99, 1466.754638671875
0, 3, 100, 1465.255859375
0, 3, 101, 1474.787475585938
0, 3, 102, 1523.431884765625
0, 3, 103, 1556.9033203125
0, 3, 104, 1500.136474609375
0, 3, 105, 1509.3212890625
0, 3, 106, 1479.55126953125
0, 3, 107, 1343.664428710938
0, 3, 108, 871.5758056640625
0, 3, 109, 260.3045959472656
0, 3, 110, 102.1542587280273
0, 3, 111, 63.64788055419922
0, 3, 112, 58.59329986572266
0, 3, 113, 49.64787673950195
0, 3, 114, 50.37504196166992
0, 3, 115, 51.54717636108398
0, 3, 116, 36.84466171264648
0, 3, 117, 41.70580291748047
0, 3, 118, 32.34576797485352
0, 3, 119, 29.45642852783203
0, 3, 120, 30.72695159912109
0, 3, 121, 18.51519012451172
0, 3, 122, 24.11034965515137
0, 3, 123, 23.75262260437012
0, 3, 124, 24.86924743652344
0, 3, 125, 28.11726188659668
0, 3, 126, 29.37516784667969
0, 3, 127, 21.92394638061523
0, 4, 0, 23.04974555969238
0, 4, 1, 23.47509956359863
0, 4, 2, 21.64554214477539
0, 4, 3, 24.12100601196289
0, 4, 4, 27.6477108001709
0, 4, 5, 28.25535011291504
0, 4, 6, 26.14578628540039
0, 4, 7, 29.52123069763184
0, 4, 8, 27.96648406982422
0, 4, 9, 34.88927459716797
0, 4, 10, 34.55659103393555
0, 4, 11, 41.55878067016602
0, 4, 12, 48.4384651184082
0, 4, 13, 50.78804016113281
0, 4, 14, 51.07407379150391
0, 4, 15, 63.44958877563477
0, 4, 16, 77.23245239257812
0, 4, 17, 118.5991592407227
0, 4, 18, 444.3451232910156
0, 4, 19, 1178.241088867188
0, 4, 20, 1443.716430664062
0, 4, 21, 1419.906860351562
0, 4, 22, 1432.344848632812
0, 4, 23, 1455.310791015625
0, 4, 24, 1477.871337890625
0, 4, 25, 1403.209838867188
0, 4, 26, 1536.968139648438
0, 4, 27, 1542.36767578125
0, 4, 28, 1507.044067382812
0, 4, 29, 1515.488647460938
0, 4, 30, 1528.565551757812
0, 4, 31, 1574.693481445312
0, 4, 32, 1521.525756835938
0, 4, 33, 1495.3115234375
0, 4, 34, 1470.129516601562
0, 4, 35, 1560.897216796875
0, 4, 36, 1504.148193359375
0, 4, 37, 1517.646728515625
0, 4, 38, 1537.438110351562
0, 4, 39, 1467.184448242188
0, 4, 40, 1513.386962890625
0, 4, 41, 1585.497314453125
0, 4, 42, 1562.523681640625
0, 4, 43, 1472.490356445312
0, 4, 44, 1496.083129882812
0, 4, 45, 1515.529296875
0, 4, 46, 1465.420043945312
0, 4, 47, 1509.40771484375
0, 4, 48, 1523.974975585938
0, 4, 49, 1469.534545898438
0, 4, 50, 1518.04345703125
0, 4, 51, 1494.791870117188
0, 4, 52, 1491.611694335938
0, 4, 53, 1452.809692382812
0, 4, 54, 1447.571655273438
0, 4, 55, 1527.161743164062
0, 4, 56, 1454.482055664062
0, 4, 57, 1494.952880859375
0, 4, 58, 1463.137451171875
0, 4, 59, 1468.380249023438
0, 4, 60, 1521.5263671875
0, 4, 61, 1498.330444335938
0, 4, 62, 1505.682006835938
0, 4, 63, 1547.885986328125
0, 4, 64, 1595.92041015625
0, 4, 65, 1425.115234375
0, 4, 66, 1514.97021484375
0, 4, 67, 1523.461547851562
0, 4, 68, 1495.870361328125
0, 4, 69, 1468.543090820312
0, 4, 70, 1542.950561523438
0, 4, 71, 1511.860107421875
0, 4, 72, 1528.135986328125
0, 4, 73, 1491.237548828125
0, 4, 74, 1483.722412109375
0, 4, 75, 1535.530639648438
0, 4, 76, 1480.05224609375
0, 4, 77, 1499.346435546875
0, 4, 78, 1499.004638671875
0, 4, 79, 1481.236938476562
0, 4, 80, 1515.712646484375
0, 4, 81, 1528.41162109375
0, 4, 82, 1568.359985351562
0, 4, 83, 1503.750854492188
0, 4, 84, 1530.169921875
0, 4, 85, 1551.158813476562
0, 4, 86, 1524.931518554688
0, 4, 87, 1504.278930664062
0, 4, 88, 1517.379760742188
0, 4, 89, 1484.32958984375
0, 4, 90, 1546.49267578125
0, 4, 91, 1554.11328125
0, 4, 92, 1500.118774414062
0, 4, 93, 1515.997436523438
0, 4, 94, 1485.206665039062
0, 4, 95, 1509.940795898438
0, 4, 96, 1441.769287109375
0, 4, 97, 1407.247802734375
0, 4, 98, 1553.34814453125
0, 4, 99, 1510.105712890625
0, 4, 100, 1492.154174804688
0, 4, 101, 1453.039306640625
0, 4, 102, 1443.461303710938
0, 4, 103, 1513.8310546875
0, 4, 104, 1510.202270507812
0, 4, 105, 1558.8486328125
0, 4, 106, 1475.996215820312
0, 4, 107, 1454.261474609375
0, 4, 108, 1122.560668945312
0, 4, 109, 432.4259033203125
0, 4, 110, 98.87483215332031
0, 4, 111, 70.88741302490234
0, 4, 112, 60.30465316772461
0, 4, 113, 49.32053375244141
0, 4, 114, 52.35251617431641
0, 4, 115, 45.219970703125
0, 4, 116, 36.90989303588867
0, 4, 117, 38.84848403930664
0, 4, 118, 43.29059600830078
0, 4, 119, 42.21597290039062
0, 4, 120, 34.6410026550293
0, 4, 121, 31.95145416259766
0, 4, 122, 27.96742630004883
0, 4, 123, 27.18241119384766
0, 4, 124, 21.9981575012207
0, 4, 125, 32.53404235839844
0, 4, 126, 22.13969230651855
0, 4, 127, 16.94639205932617
0, 5, 0, 22.13153266906738
0, 5, 1, 23.42692947387695
0, 5, 2, 29.45179748535156
0, 5, 3, 20.61018562316895
0, 5, 4, 19.99790954589844
0, 5, 5, 36.15660095214844
0, 5, 6, 28.26617431640625
0, 5, 7, 30.29571151733398
0, 5, 8, 31.88492393493652
0, 5, 9, 26.71215438842773
0, 5, 10, 31.9564151763916
0, 5, 11, 40.04898071289062
0, 5, 12, 42.25606536865234
0, 5, 13, 44.60593795776367
0, 5, 14, 59.47061157226562
0, 5, 15, 79.84219360351562
0, 5, 16, 82.52930450439453
0, 5, 17, 156.7310485839844
0, 5, 18, 676.9437866210938
0, 5, 19, 1339.497436523438
0, 5, 20, 1523.148315429688
0, 5, 21, 1498.759521484375
0, 5, 22, 1500.92578125
0, 5, 23, 1528.035400390625
0, 5, 24, 1462.239990234375
0, 5, 25, 1425.988037109375
0, 5, 26, 1526.96435546875
0, 5, 27, 1537.7099609375
0, 5, 28, 1487.064086914062
0, 5, 29, 1519.310302734375
0, 5, 30, 1494.156982421875
0, 5, 31, 1501.995971679688
0, 5, 32, 1595.299682617188
0, 5, 33, 1499.24560546875
0, 5, 34, 1481.939575195312
0, 5, 35, 1513.301025390625
0, 5, 36, 1447.178466796875
0, 5, 37, 1530.369750976562
0, 5, 38, 1546.18359375
0, 5, 39, 1548.855834960938
0, 5, 40, 1504.64599609375
0, 5, 41, 1480.153930664062
0, 5, 42, 1538.276733398438
0, 5, 43, 1526.766845703125
0, 5, 44, 1542.095703125
0, 5, 45, 1508.779541015625
0, 5, 46, 1493.986938476562
0, 5, 47, 1482.67333984375
0, 5, 48, 1502.1845703125
0, 5, 49, 1520.796997070312
0, 5, 50, 1509.418823242188
0, 5, 51, 1517.576904296875
0, 5, 52, 1427.488525390625
0, 5, 53, 1526.203002929688
0, 5, 54, 1518.027099609375
0, 5, 55, 1519.700317382812
0, 5, 56, 1484.913330078125
0, 5, 57, 1540.760131835938
0, 5, 58, 1505.11767578125
0, 5, 59, 1484.59619140625
0, 5, 60, 1536.05126953125
0, 5, 61, 1453.017944335938
0, 5, 62, 1582.773071289062
0, 5, 63, 1427.9658203125
0, 5, 64, 1485.978393554688
0, 5, 65, 1466.438354492188
0, 5, 66, 1528.10693359375
0, 5, 67, 1558.8642578125
0, 5, 68, 1463.328369140625
0, 5, 69, 1485.223876953125
0, 5, 70, 1487.668334960938
0, 5, 71, 1475.183471679688
0, 5, 72, 1535.491455078125
0, 5, 73, 1466.549926757812
0, 5, 74, 1490.639038085938
0, 5, 75, 1485.707885742188
0, 5, 76, 1473.5615234375
0, 5, 77, 1513.374389648438
0, 5, 78, 1524.880249023438
0, 5, 79, 1510.6484375
0, 5, 80, 1520.70361328125
0, 5, 81, 1597.445190429688
0, 5, 82, 1527
0, 5, 83, 1486.998657226562
0, 5, 84, 1530.565795898438
0, 5, 85, 1515.683959960938
0, 5, 86, 1558.553466796875
0, 5, 87, 1472.268432617188
0, 5, 88, 1498.932250976562
0, 5, 89, 1480.825805664062
0, 5, 90, 1480.749877929688
0, 5, 91, 1552.165161132812
0, 5, 92, 1483.721923828125
0, 5, 93, 1561.610473632812
0, 5, 94, 1508.918701171875
0, 5, 95, 1562.559448242188
0, 5, 96, 1494.504638671875
0, 5, 97, 1505.11181640625
0, 5, 98, 1510.102294921875
0, 5, 99, 1539.818969726562
0, 5, 100, 1435.699951171875
0, 5, 101, 1427.819580078125
0, 5, 102, 1514.282592773438
0, 5, 103, 1469.703491210938
0, 5, 104, 1460.3798828125
0, 5, 105, 1493.693359375
0, 5, 106, 1459.322387695312
0, 5, 107, 1400.199340820312
0, 5, 108, 1286.785522460938
0, 5, 109, 719.34033203125
0, 5, 110, 190.9938507080078
0, 5, 111, 88.27006530761719
0, 5, 112, 77.08985137939453
0, 5, 113, 64.54959869384766
0, 5, 114, 59.83975982666016
0, 5, 115, 55.16310119628906
0, 5, 116, 39.9007682800293
0, 5, 117, 40.52391815185547
0, 5, 118, 38.59471130371094
0, 5, 119, 23.70427513122559
0, 5, 120, 27.58683395385742
0, 5, 121, 26.12524032592773
0, 5, 122, 29.64032936096191
0, 5, 123, 28.35649681091309
0, 5, 124, 26.01618576049805
0, 5, 125, 21.73078536987305
0, 5, 126, 20.73922920227051
0, 5, 127, 23.07558250427246
0, 6, 0, 19.32282257080078
0, 6, 1, 27.65048027038574
0, 6, 2, 27.26698112487793
0, 6, 3, 27.14269065856934
0, 6, 4, 30.04083442687988
0, 6, 5, 35.51103973388672
0, 6, 6, 33.55680847167969
0, 6, 7, 30.23538208007812
0, 6, 8, 34.25404357910156
0, 6, 9, 28.33910369873047
0, 6, 10, 33.81560516357422
0, 6, 11, 38.38869094848633
0, 6, 12, 40.58086013793945
0, 6, 13, 55.42112731933594
0, 6, 14, 62.10592269897461
0, 6, 15, 81.12590789794922
0, 6, 16, 113.8410263061523
0, 6, 17, 296.6074829101562
0, 6, 18, 899.070068359375
0, 6, 19, 1373.881713867188
0, 6, 20, 1439.8046875
0, 6, 21, 1527.971801757812
0, 6, 22, 1499.237670898438
0, 6, 23, 1528.805908203125
0, 6, 24, 1477.461059570312
0, 6, 25, 1530.172729492188
0, 6, 26, 1517.125122070312
0, 6, 27, 1522.783325195312
0, 6, 28, 1554.086303710938
0, 6, 29, 1570.107177734375
0, 6, 30, 1513.542724609375
0, 6, 31, 1492.578369140625
0, 6, 32, 1522.381958007812
0, 6, 33, 1490.96240234375
0, 6, 34, 1559.494384765625
0, 6, 35, 1499.721923828125
0, 6, 36, 1438.656616210938
0, 6, 37, 1546.829467773438
0, 6, 38, 1523.583862304688
0, 6, 39, 1526.180541992188
0, 6, 40, 1459.235595703125
0, 6, 41, 1441.81005859375
0, 6, 42, 1516.899169921875
0, 6, 43, 1487.316162109375
0, 6, 44, 1432.412963867188
0, 6, 45, 1545.022094726562
0, 6, 46, 1550.453002929688
0, 6, 47, 1492.629272460938
0, 6, 48, 1523.901489257812
0, 6, 49, 1512.99951171875
0, 6, 50, 1574.698120117188
0, 6, 51, 1507.829956054688
0, 6, 52, 1565.282836914062
0, 6, 53, 1477.432861328125
0, 6, 54, 1499.8837890625
0, 6, 55, 1575.536865234375
0, 6, 56, 1525.227172851562
0, 6, 57, 1506.725341796875
0, 6, 58, 1466.309814453125
0, 6, 59, 1526.950805664062
0, 6, 60, 1469.77734375
0, 6, 61, 1575.4326171875
0, 6, 62, 1546.651489257812
0, 6, 63, 1490.931640625
0, 6, 64, 1409.721557617188
0, 6, 65, 1489.175415039062
0, 6, 66, 1512.265991210938
0, 6, 67, 1510.679321289062
0, 6, 68, 1549.025756835938
0, 6, 69, 1482.942260742188
0, 6, 70, 1526.544921875
0, 6, 71, 1471.538818359375
0, 6, 72, 1598.859985351562
0, 6, 73, 1486.653930664062
0, 6, 74, 1555.052856445312
0, 6, 75, 1534.646606445312
0, 6, 76, 1566.402465820312
0, 6, 77, 1506.04345703125
0, 6, 78, 1443.572265625
0, 6, 79, 1553.208862304688
0, 6, 80, 1482.6962890625
0, 6, 81, 1482.040405273438
0, 6, 82, 1501.89208984375
0, 6, 83, 1526.887573242188
0, 6, 84, 1523.8935546875
0, 6, 85, 1536.688354492188
0, 6, 86, 1541.85546875
0, 6, 87, 1572.288818359375
0, 6, 88, 1484.25390625
0, 6, 89, 1559.968505859375
0, 6, 90, 1491.922485351562
0, 6, 91, 1543.711791992188
0, 6, 92, 1490.389526367188
0, 6, 93, 1496.03369140625
0, 6, 94, 1471.180908203125
0, 6, 95, 1509.347290039062
0, 6, 96, 1523.984985351562
0, 6, 97, 1508.202026367188
0, 6, 98, 1498.204833984375
0, 6, 99, 1475.753051757812
0, 6, 100, 1522.931030273438
0, 6, 101, 1512.402099609375
0, 6, 102, 1541.015014648438
0, 6, 103, 1497.778930664062
0, 6, 104, 1467.345581054688
0, 6, 105, 1483.051879882812
0, 6, 106, 1498.641479492188
0, 6, 107, 1505.192504882812
0, 6, 108, 1413.34521484375
0, 6, 109, 922.2651977539062
0, 6, 110, 283.7555541992188
0, 6, 111, 94.23004150390625
0, 6, 112, 76.39961242675781
0, 6, 113, 62.63554382324219
0, 6, 114, 52.22121047973633
0, 6, 115, 43.31502914428711
0, 6, 116, 44.87617874145508
0, 6, 117, 41.34836578369141
0, 6, 118, 40.20208358764648
0, 6, 119, 37.16720962524414
0, 6, 120, 32.00335693359375
0, 6, 121, 33.52698135375977
0, 6, 122, 30.14359474182129
0, 6, 123, 28.26834487915039
0, 6, 124, 24.31803512573242
0, 6, 125, 31.9407958984375
0, 6, 126, 22.49946022033691
0, 6, 127, 25.59103965759277
0, 7, 0, 21.07796669006348
0, 7, 1, 28.0555534362793
0, 7, 2, 23.06938743591309
0, 7, 3, 24.17892265319824
0, 7, 4, 22.05552101135254
0, 7, 5, 36.27792739868164
0, 7, 6, 32.63722610473633
0, 7, 7, 35.13674163818359
0, 7, 8, 29.90419006347656
0, 7, 9, 36.43327331542969
0, 7, 10, 44.06105422973633
0, 7, 11, 51.04437637329102
0, 7, 12, 45.47258377075195
0, 7, 13, 52.02192687988281
0, 7, 14, 61.06568908691406
0, 7, 15, 79.05498504638672
0, 7, 16, 130.1959838867188
0, 7, 17, 459.7421569824219
0, 7, 18, 1101.636840820312
0, 7, 19, 1507.89990234375
0, 7, 20, 1487.419189453125
0, 7, 21, 1367.583251953125
0, 7, 22, 1489.064697265625
0, 7, 23, 1451.76806640625
0, 7, 24, 1512.453247070312
0, 7, 25, 1596.734497070312
0, 7, 26, 1518.492309570312
0, 7, 27, 1510.013427734375
0, 7, 28, 1542.564575195312
0, 7, 29, 1576.264282226562
0, 7, 30, 1550.796020507812
0, 7, 31, 1436.978515625
0, 7, 32, 1540.58544921875
0, 7, 33, 1487.434814453125
0, 7, 34, 1478.495727539062
0, 7, 35, 1523.73583984375
0, 7, 36, 1475.711303710938
0, 7, 37, 1598.8896484375
0, 7, 38, 1499.431762695312
0, 7, 39, 1488.234375
0, 7, 40, 1544.812622070312
0, 7, 41, 1463.101806640625
0, 7, 42, 1488.157470703125
0, 7, 43, 1441.855590820312
0, 7, 44, 1492.1748046875
0, 7, 45, 1468.642578125
0, 7, 46, 1509.438110351562
0, 7, 47, 1566.47607421875
0, 7, 48, 1521.903198242188
0, 7, 49, 1542.9580078125
0, 7, 50, 1513.168090820312
0, 7, 51, 1500.57470703125
0, 7, 52, 1516.1494140625
0, 7, 53, 1493.949096679688
0, 7, 54, 1584.82373046875
0, 7, 55, 1470.91650390625
0, 7, 56, 1552.501953125
0, 7, 57, 1512.507568359375
0, 7, 58, 1550.512451171875
0, 7, 59, 1537.239379882812
0, 7, 60, 1551.517578125
0, 7, 61, 1489.850463867188
0, 7, 62, 1438.02783203125
0, 7, 63, 1514.78515625
0, 7, 64, 1548.493774414062
0, 7, 65, 1526.314331054688
0, 7, 66, 1538.551147460938
0, 7, 67, 1579.500366210938
0, 7, 68, 1531.621948242188
0, 7, 69, 1513.805786132812
0, 7, 70, 1493.457641601562
0, 7, 71, 1528.663208007812
0, 7, 72, 1521.596801757812
0, 7, 73, 1517.345336914062
0, 7, 74, 1572.037231445312
0, 7, 75, 1540.877075195312
0, 7, 76, 1561.024658203125
0, 7, 77, 1511.817626953125
0, 7, 78, 1505.970581054688
0, 7, 79, 1426.055053710938
0, 7, 80, 1489.715087890625
0, 7, 81, 1494.716552734375
0, 7, 82, 1533.870727539062
0, 7, 83, 1542.305908203125
0, 7, 84, 1581.146606445312
0, 7, 85, 1480.920532226562
0, 7, 86, 1501.655639648438
0, 7, 87, 1506.399536132812
0, 7, 88, 1500.551025390625
0, 7, 89, 1554.380126953125
0, 7, 90, 1524.922241210938
0, 7, 91, 1565.7587890625
0, 7, 92, 1533.184692382812
0, 7, 93, 1559.931762695312
0, 7, 94, 1537.173828125
0, 7, 95, 1509.472778320312
0, 7, 96, 1506.07568359375
0, 7, 97, 1432.529418945312
0, 7, 98, 1479.961791992188
0, 7, 99, 1525.4931640625
0, 7, 100, 1419.313720703125
0, 7, 101, 1464.171630859375
0, 7, 102, 1447.896850585938
0, 7, 103, 1433.420654296875
0, 7, 104, 1495.010864257812
0, 7, 105, 1523.251342773438
0, 7, 106, 1570.567260742188
0, 7, 107, 1482.448364257812
0, 7, 108, 1408.61474609375
0, 7, 109, 1154.232543945312
0, 7, 110, 470.3876342773438
0, 7, 111, 123.5078964233398
0, 7, 112, 80.27011108398438
0, 7, 113, 73.36431884765625
0, 7, 114, 56.61383819580078
0, 7, 115, 52.21026992797852
0, 7, 116, 44.85642242431641
0, 7, 117, 44.31184387207031
0, 7, 118, 38.38721084594727
0, 7, 119, 32.79198455810547
0, 7, 120, 25.22461891174316
0, 7, 121, 31.46897315979004
0, 7, 122, 37.00741577148438
0, 7, 123, 34.67879104614258
0, 7, 124, 33.53059387207031
0, 7, 125, 24.75373458862305
0, 7, 126, 26.24370956420898
0, 7, 127, 23.96955299377441
0, 8, 0, 22.92916488647461
0, 8, 1, 18.4984073638916
0, 8, 2, 20.96921348571777
0, 8, 3, 24.8384895324707
0, 8, 4, 25.83234786987305
0, 8, 5, 29.57471466064453
0, 8, 6, 33.86879348754883
0, 8, 7, 27.1462459564209
0, 8, 8, 34.39246368408203
0, 8, 9, 43.38079452514648
0, 8, 10, 46.71785354614258
0, 8, 11, 43.06981658935547
0, 8, 12, 53.08791732788086
0, 8, 13, 69.01536560058594
0, 8, 14, 68.11322021484375
0, 8, 15, 85.65469360351562
0, 8, 16, 170.0835418701172
0, 8, 17, 672.5961303710938
0, 8, 18, 1279.64208984375
0, 8, 19, 1447.184936523438
0, 8, 20, 1421.173583984375
0, 8, 21, 1407.574096679688
0, 8, 22, 1485.3935546875
0, 8, 23, 1477.760986328125
0, 8, 24, 1436.477294921875
0, 8, 25, 1455.350219726562
0, 8, 26, 1512.3818359375
0, 8, 27, 1522.689208984375
0, 8, 28, 1475.865234375
0, 8, 29, 1502.3193359375
0, 8, 30, 1483.831176757812
0, 8, 31, 1531.835693359375
0, 8, 32, 1508.697998046875
0, 8, 33, 1482.34423828125
0, 8, 34, 1539.251586914062
0, 8, 35, 1444.938110351562
0, 8, 36, 1498.815673828125
0, 8, 37, 1553.221557617188
0, 8, 38, 1549.332763671875
0, 8, 39, 1493.427612304688
0, 8, 40, 1535.058349609375
0, 8, 41, 1485.5810546875
0, 8, 42, 1540.1689453125
0, 8, 43, 1430.54833984375
0, 8, 44, 1537.421264648438
0, 8, 45, 1518.89453125
0, 8, 46, 1595.575317382812
