# TOPAS Version: 3.1.p3
# Parameter File: batch_inserts_276.txt
# Results for scorer Readout_Adipose
# Scored in component: MyBox
# X in 1 bin  of 0.75 cm
# Y in 512 bins of 0.0783984 cm
# Z in 128 bins of 0.078125 cm
# EnergyDeposit ( MeV ) : Sum   
0, 0, 0, 4.879480838775635
0, 0, 1, 1.354656338691711
0, 0, 2, 2.616259574890137
0, 0, 3, 2.313790559768677
0, 0, 4, 4.190567016601562
0, 0, 5, 2.145349025726318
0, 0, 6, 8.505552291870117
0, 0, 7, 8.866985321044922
0, 0, 8, 2.097193717956543
0, 0, 9, 6.497874736785889
0, 0, 10, 7.750557422637939
0, 0, 11, 4.474170207977295
0, 0, 12, 5.081408500671387
0, 0, 13, 6.463952541351318
0, 0, 14, 7.388613224029541
0, 0, 15, 8.848612785339355
0, 0, 16, 8.496627807617188
0, 0, 17, 9.249064445495605
0, 0, 18, 12.99224758148193
0, 0, 19, 44.8890495300293
0, 0, 20, 142.0690002441406
0, 0, 21, 223.7168121337891
0, 0, 22, 249.4689636230469
0, 0, 23, 258.0566101074219
0, 0, 24, 251.7628479003906
0, 0, 25, 259.135498046875
0, 0, 26, 236.1845703125
0, 0, 27, 237.5700836181641
0, 0, 28, 272.2213439941406
0, 0, 29, 252.7038726806641
0, 0, 30, 230.9565887451172
0, 0, 31, 244.4694671630859
0, 0, 32, 263.556884765625
0, 0, 33, 260.7879943847656
0, 0, 34, 287.180908203125
0, 0, 35, 267.3673706054688
0, 0, 36, 246.9932250976562
0, 0, 37, 253.6793823242188
0, 0, 38, 269.4790344238281
0, 0, 39, 229.5415344238281
0, 0, 40, 242.1167602539062
0, 0, 41, 269.9835205078125
0, 0, 42, 230.5106964111328
0, 0, 43, 259.3882446289062
0, 0, 44, 252.6611938476562
0, 0, 45, 253.2769622802734
0, 0, 46, 244.5455780029297
0, 0, 47, 252.4374542236328
0, 0, 48, 267.9208679199219
0, 0, 49, 273.56103515625
0, 0, 50, 250.4270477294922
0, 0, 51, 251.7453308105469
0, 0, 52, 271.4767150878906
0, 0, 53, 291.4012145996094
0, 0, 54, 243.5854644775391
0, 0, 55, 241.3728637695312
0, 0, 56, 277.6973876953125
0, 0, 57, 263.1054077148438
0, 0, 58, 246.8635864257812
0, 0, 59, 271.4392700195312
0, 0, 60, 234.8555755615234
0, 0, 61, 246.5843048095703
0, 0, 62, 257.7605590820312
0, 0, 63, 265.7963562011719
0, 0, 64, 255.7143096923828
0, 0, 65, 260.9892883300781
0, 0, 66, 275.7701721191406
0, 0, 67, 246.4844512939453
0, 0, 68, 259.5655212402344
0, 0, 69, 263.5473937988281
0, 0, 70, 271.8291931152344
0, 0, 71, 237.1349487304688
0, 0, 72, 249.87646484375
0, 0, 73, 257.572265625
0, 0, 74, 253.1622314453125
0, 0, 75, 242.8093414306641
0, 0, 76, 227.7699890136719
0, 0, 77, 261.4276428222656
0, 0, 78, 255.9636993408203
0, 0, 79, 278.4854431152344
0, 0, 80, 216.3805236816406
0, 0, 81, 266.5482482910156
0, 0, 82, 256.367919921875
0, 0, 83, 247.0637512207031
0, 0, 84, 269.3257141113281
0, 0, 85, 231.5491180419922
0, 0, 86, 253.0960540771484
0, 0, 87, 250.0886535644531
0, 0, 88, 260.5486450195312
0, 0, 89, 282.0820617675781
0, 0, 90, 243.4797210693359
0, 0, 91, 281.61328125
0, 0, 92, 254.7957305908203
0, 0, 93, 250.3711547851562
0, 0, 94, 247.8941040039062
0, 0, 95, 248.4049224853516
0, 0, 96, 276.2871398925781
0, 0, 97, 272.6477966308594
0, 0, 98, 272.5531921386719
0, 0, 99, 257.4666748046875
0, 0, 100, 259.3880310058594
0, 0, 101, 226.8389434814453
0, 0, 102, 231.7374725341797
0, 0, 103, 270.104736328125
0, 0, 104, 254.1677856445312
0, 0, 105, 250.3540954589844
0, 0, 106, 245.9028930664062
0, 0, 107, 151.7854461669922
0, 0, 108, 38.50469589233398
0, 0, 109, 15.07346820831299
0, 0, 110, 12.38229179382324
0, 0, 111, 8.634182929992676
0, 0, 112, 6.973742961883545
0, 0, 113, 6.4659104347229
0, 0, 114, 6.18444299697876
0, 0, 115, 4.727941513061523
0, 0, 116, 7.553032398223877
0, 0, 117, 6.296259880065918
0, 0, 118, 5.146484375
0, 0, 119, 6.222226142883301
0, 0, 120, 3.333586692810059
0, 0, 121, 4.359322547912598
0, 0, 122, 4.055647850036621
0, 0, 123, 2.724384069442749
0, 0, 124, 5.197971820831299
0, 0, 125, 3.83216118812561
0, 0, 126, 5.584435939788818
0, 0, 127, 4.534726619720459
0, 1, 0, 5.981836318969727
0, 1, 1, 4.203055858612061
0, 1, 2, 4.94163179397583
0, 1, 3, 0.9344834089279175
0, 1, 4, 2.286191463470459
0, 1, 5, 2.916409730911255
0, 1, 6, 3.203895330429077
0, 1, 7, 4.12864351272583
0, 1, 8, 7.606464862823486
0, 1, 9, 4.092022895812988
0, 1, 10, 6.418951511383057
0, 1, 11, 11.17592716217041
0, 1, 12, 9.683791160583496
0, 1, 13, 10.04719161987305
0, 1, 14, 7.387703895568848
0, 1, 15, 6.890445709228516
0, 1, 16, 11.10329151153564
0, 1, 17, 11.40738487243652
0, 1, 18, 21.1915283203125
0, 1, 19, 67.16001129150391
0, 1, 20, 197.9992218017578
0, 1, 21, 253.9458618164062
0, 1, 22, 295.9179077148438
0, 1, 23, 283.7154846191406
0, 1, 24, 277.7617492675781
0, 1, 25, 289.2991638183594
0, 1, 26, 269.3616333007812
0, 1, 27, 307.5698547363281
0, 1, 28, 299.6487426757812
0, 1, 29, 296.5765075683594
0, 1, 30, 285.4622497558594
0, 1, 31, 290.5600891113281
0, 1, 32, 289.7082214355469
0, 1, 33, 296.6576232910156
0, 1, 34, 293.5060729980469
0, 1, 35, 278.69384765625
0, 1, 36, 305.8357543945312
0, 1, 37, 296.7348327636719
0, 1, 38, 279.3626403808594
0, 1, 39, 297.2697448730469
0, 1, 40, 267.6397094726562
0, 1, 41, 285.6254577636719
0, 1, 42, 289.8013000488281
0, 1, 43, 332.6997985839844
0, 1, 44, 279.1092834472656
0, 1, 45, 293.5855407714844
0, 1, 46, 259.362548828125
0, 1, 47, 311.6492309570312
0, 1, 48, 284.2740478515625
0, 1, 49, 302.6873779296875
0, 1, 50, 265.0406188964844
0, 1, 51, 275.5953369140625
0, 1, 52, 296.7773132324219
0, 1, 53, 307.1930847167969
0, 1, 54, 274.5968627929688
0, 1, 55, 291.77587890625
0, 1, 56, 277.2999572753906
0, 1, 57, 298.0016479492188
0, 1, 58, 309.6577758789062
0, 1, 59, 290.8342590332031
0, 1, 60, 298.4074401855469
0, 1, 61, 278.3314819335938
0, 1, 62, 307.4656677246094
0, 1, 63, 285.4902954101562
0, 1, 64, 287.9920654296875
0, 1, 65, 297.2047424316406
0, 1, 66, 291.8988037109375
0, 1, 67, 291.9118957519531
0, 1, 68, 276.6300964355469
0, 1, 69, 281.9655151367188
0, 1, 70, 271.0775756835938
0, 1, 71, 272.750244140625
0, 1, 72, 286.7742309570312
0, 1, 73, 304.74755859375
0, 1, 74, 303.3830261230469
0, 1, 75, 293.8005981445312
0, 1, 76, 284.7745361328125
0, 1, 77, 290.6627197265625
0, 1, 78, 296.8719482421875
0, 1, 79, 301.7136535644531
0, 1, 80, 294.5409545898438
0, 1, 81, 299.6582946777344
0, 1, 82, 285.4192810058594
0, 1, 83, 331.6696472167969
0, 1, 84, 311.72802734375
0, 1, 85, 251.7538299560547
0, 1, 86, 294.3406677246094
0, 1, 87, 292.3807373046875
0, 1, 88, 297.6224975585938
0, 1, 89, 291.2053527832031
0, 1, 90, 269.7681274414062
0, 1, 91, 317.0773315429688
0, 1, 92, 290.3514404296875
0, 1, 93, 286.919677734375
0, 1, 94, 303.204345703125
0, 1, 95, 283.3563232421875
0, 1, 96, 282.1236877441406
0, 1, 97, 302.4224548339844
0, 1, 98, 278.3160095214844
0, 1, 99, 265.736572265625
0, 1, 100, 278.5045471191406
0, 1, 101, 281.7171936035156
0, 1, 102, 279.2437133789062
0, 1, 103, 279.7969665527344
0, 1, 104, 306.4440612792969
0, 1, 105, 297.5143737792969
0, 1, 106, 261.763671875
0, 1, 107, 194.8819885253906
0, 1, 108, 79.77676391601562
0, 1, 109, 23.91065979003906
0, 1, 110, 10.87569999694824
0, 1, 111, 9.829599380493164
0, 1, 112, 12.51527404785156
0, 1, 113, 5.514002323150635
0, 1, 114, 6.104772090911865
0, 1, 115, 5.616752624511719
0, 1, 116, 11.64542388916016
0, 1, 117, 6.650189399719238
0, 1, 118, 5.186315536499023
0, 1, 119, 5.458722591400146
0, 1, 120, 5.969490051269531
0, 1, 121, 4.570297718048096
0, 1, 122, 3.282551288604736
0, 1, 123, 2.434472322463989
0, 1, 124, 6.108171939849854
0, 1, 125, 3.035764217376709
0, 1, 126, 4.105185031890869
0, 1, 127, 2.663330793380737
0, 2, 0, 7.552617073059082
0, 2, 1, 1.627339363098145
0, 2, 2, 5.476861953735352
0, 2, 3, 4.744815826416016
0, 2, 4, 6.796051979064941
0, 2, 5, 3.860366344451904
0, 2, 6, 3.503013372421265
0, 2, 7, 3.369812250137329
0, 2, 8, 3.647374868392944
0, 2, 9, 8.194219589233398
0, 2, 10, 8.488559722900391
0, 2, 11, 7.187114715576172
0, 2, 12, 5.827541351318359
0, 2, 13, 10.92676067352295
0, 2, 14, 10.36652946472168
0, 2, 15, 7.584473609924316
0, 2, 16, 9.128973960876465
0, 2, 17, 16.50541114807129
0, 2, 18, 31.57728385925293
0, 2, 19, 117.7796630859375
0, 2, 20, 247.2224731445312
0, 2, 21, 270.9270324707031
0, 2, 22, 315.7929992675781
0, 2, 23, 300.7833557128906
0, 2, 24, 287.2803344726562
0, 2, 25, 304.2191772460938
0, 2, 26, 295.5090026855469
0, 2, 27, 275.2332458496094
0, 2, 28, 274.4183959960938
0, 2, 29, 276.9307250976562
0, 2, 30, 290.9638671875
0, 2, 31, 277.9880065917969
0, 2, 32, 294.1734008789062
0, 2, 33, 284.0077514648438
0, 2, 34, 333.0218811035156
0, 2, 35, 290.5863342285156
0, 2, 36, 303.3681030273438
0, 2, 37, 315.8514099121094
0, 2, 38, 309.7839660644531
0, 2, 39, 267.5477294921875
0, 2, 40, 306.2918701171875
0, 2, 41, 291.215576171875
0, 2, 42, 304.7959289550781
0, 2, 43, 311.8050842285156
0, 2, 44, 311.3389282226562
0, 2, 45, 325.2781372070312
0, 2, 46, 287.5839538574219
0, 2, 47, 303.6085205078125
0, 2, 48, 286.3204345703125
0, 2, 49, 280.792724609375
0, 2, 50, 295.4295654296875
0, 2, 51, 284.1769714355469
0, 2, 52, 272.4428405761719
0, 2, 53, 286.5007934570312
0, 2, 54, 283.4686584472656
0, 2, 55, 274.2304077148438
0, 2, 56, 301.6598510742188
0, 2, 57, 291.8687438964844
0, 2, 58, 302.3887634277344
0, 2, 59, 288.3482360839844
0, 2, 60, 321.0895690917969
0, 2, 61, 302.980712890625
0, 2, 62, 313.6056823730469
0, 2, 63, 302.2207946777344
0, 2, 64, 295.7328186035156
0, 2, 65, 313.3698425292969
0, 2, 66, 280.4036865234375
0, 2, 67, 290.4547424316406
0, 2, 68, 295.5583190917969
0, 2, 69, 311.699951171875
0, 2, 70, 334.9093627929688
0, 2, 71, 283.3708190917969
0, 2, 72, 303.7408752441406
0, 2, 73, 314.1104431152344
0, 2, 74, 285.0586547851562
0, 2, 75, 303.6015930175781
0, 2, 76, 286.6956481933594
0, 2, 77, 297.2185668945312
0, 2, 78, 312.927001953125
0, 2, 79, 307.6891784667969
0, 2, 80, 296.4408264160156
0, 2, 81, 282.0306396484375
0, 2, 82, 319.4260559082031
0, 2, 83, 314.0997009277344
0, 2, 84, 287.7924194335938
0, 2, 85, 282.1225891113281
0, 2, 86, 324.8070678710938
0, 2, 87, 286.7152099609375
0, 2, 88, 279.9808654785156
0, 2, 89, 296.7497253417969
0, 2, 90, 294.8177490234375
0, 2, 91, 276.1903686523438
0, 2, 92, 306.6178283691406
0, 2, 93, 316.1571350097656
0, 2, 94, 291.4679260253906
0, 2, 95, 315.1622009277344
0, 2, 96, 315.5133666992188
0, 2, 97, 291.4569702148438
0, 2, 98, 296.242919921875
0, 2, 99, 274.8114929199219
0, 2, 100, 305.0279541015625
0, 2, 101, 300.3772277832031
0, 2, 102, 297.430908203125
0, 2, 103, 292.2992858886719
0, 2, 104, 291.8689880371094
0, 2, 105, 274.7779541015625
0, 2, 106, 297.2691955566406
0, 2, 107, 269.5626220703125
0, 2, 108, 116.2879943847656
0, 2, 109, 31.46320915222168
0, 2, 110, 9.370779991149902
0, 2, 111, 11.05445289611816
0, 2, 112, 8.07170295715332
0, 2, 113, 9.600817680358887
0, 2, 114, 9.587319374084473
0, 2, 115, 8.012676239013672
0, 2, 116, 7.644430160522461
0, 2, 117, 6.060303211212158
0, 2, 118, 3.965456485748291
0, 2, 119, 5.02105188369751
0, 2, 120, 6.486589431762695
0, 2, 121, 3.953515529632568
0, 2, 122, 6.207415580749512
0, 2, 123, 6.69019603729248
0, 2, 124, 2.460177183151245
0, 2, 125, 4.443823337554932
0, 2, 126, 3.402594089508057
0, 2, 127, 4.15881872177124
0, 3, 0, 3.559681415557861
0, 3, 1, 3.70856761932373
0, 3, 2, 3.767495155334473
0, 3, 3, 1.578238964080811
0, 3, 4, 5.240789890289307
0, 3, 5, 7.373463153839111
0, 3, 6, 7.792638778686523
0, 3, 7, 5.674546718597412
0, 3, 8, 7.022577285766602
0, 3, 9, 4.980433464050293
0, 3, 10, 8.779346466064453
0, 3, 11, 4.107500076293945
0, 3, 12, 6.751955986022949
0, 3, 13, 16.61041450500488
0, 3, 14, 11.58417892456055
0, 3, 15, 14.68264198303223
0, 3, 16, 11.63912391662598
0, 3, 17, 21.19075965881348
0, 3, 18, 50.73901748657227
0, 3, 19, 177.2793884277344
0, 3, 20, 269.9667053222656
0, 3, 21, 273.1790466308594
0, 3, 22, 280.887451171875
0, 3, 23, 287.4934387207031
0, 3, 24, 287.960693359375
0, 3, 25, 271.81494140625
0, 3, 26, 303.8941040039062
0, 3, 27, 291.9354248046875
0, 3, 28, 281.9560852050781
0, 3, 29, 337.9891052246094
0, 3, 30, 317.0849304199219
0, 3, 31, 284.5535888671875
0, 3, 32, 307.0299377441406
0, 3, 33, 314.6673583984375
0, 3, 34, 326.4851684570312
0, 3, 35, 308.4808044433594
0, 3, 36, 269.9692993164062
0, 3, 37, 317.7979431152344
0, 3, 38, 303.8319702148438
0, 3, 39, 287.970703125
0, 3, 40, 267.1133728027344
0, 3, 41, 300.108154296875
0, 3, 42, 286.5541381835938
0, 3, 43, 305.7627868652344
0, 3, 44, 311.4359436035156
0, 3, 45, 290.7156372070312
0, 3, 46, 326.0065002441406
0, 3, 47, 299.9123229980469
0, 3, 48, 304.2408142089844
0, 3, 49, 275.4865112304688
0, 3, 50, 290.0758972167969
0, 3, 51, 275.8311462402344
0, 3, 52, 315.400634765625
0, 3, 53, 287.9531555175781
0, 3, 54, 284.2572631835938
0, 3, 55, 286.3491821289062
0, 3, 56, 300.8312683105469
0, 3, 57, 289.1174621582031
0, 3, 58, 305.6963195800781
0, 3, 59, 298.1766662597656
0, 3, 60, 298.1090087890625
0, 3, 61, 263.7048645019531
0, 3, 62, 283.1731262207031
0, 3, 63, 308.4429321289062
0, 3, 64, 316.4309692382812
0, 3, 65, 306.4589233398438
0, 3, 66, 314.2427368164062
0, 3, 67, 318.2402038574219
0, 3, 68, 278.7933959960938
0, 3, 69, 282.257568359375
0, 3, 70, 288.49560546875
0, 3, 71, 299.6046142578125
0, 3, 72, 271.3007202148438
0, 3, 73, 309.9544372558594
0, 3, 74, 292.6472473144531
0, 3, 75, 292.0147094726562
0, 3, 76, 308.01708984375
0, 3, 77, 314.7613830566406
0, 3, 78, 303.8838500976562
0, 3, 79, 284.8521728515625
0, 3, 80, 292.5600280761719
0, 3, 81, 310.9958801269531
0, 3, 82, 315.370361328125
0, 3, 83, 300.6103820800781
0, 3, 84, 312.0104370117188
0, 3, 85, 293.1134338378906
0, 3, 86, 301.9521789550781
0, 3, 87, 298.4808349609375
0, 3, 88, 298.4209289550781
0, 3, 89, 296.9294128417969
0, 3, 90, 276.6818542480469
0, 3, 91, 284.1025085449219
0, 3, 92, 305.7181091308594
0, 3, 93, 314.4894714355469
0, 3, 94, 298.7492980957031
0, 3, 95, 335.9930419921875
0, 3, 96, 291.0836486816406
0, 3, 97, 283.6618957519531
0, 3, 98, 280.1478576660156
0, 3, 99, 261.8014221191406
0, 3, 100, 283.9638671875
0, 3, 101, 298.135986328125
0, 3, 102, 276.5017700195312
0, 3, 103, 321.6993408203125
0, 3, 104, 309.9339904785156
0, 3, 105, 289.1360473632812
0, 3, 106, 304.4711608886719
0, 3, 107, 281.9224548339844
0, 3, 108, 170.3657989501953
0, 3, 109, 58.91352462768555
0, 3, 110, 17.91806602478027
0, 3, 111, 12.05747699737549
0, 3, 112, 11.36612319946289
0, 3, 113, 5.723052501678467
0, 3, 114, 10.41287612915039
0, 3, 115, 8.353041648864746
0, 3, 116, 6.830219745635986
0, 3, 117, 7.888174057006836
0, 3, 118, 5.432017803192139
0, 3, 119, 3.938640117645264
0, 3, 120, 6.53516149520874
0, 3, 121, 3.573492527008057
0, 3, 122, 2.625016450881958
0, 3, 123, 7.078886032104492
0, 3, 124, 4.682206630706787
0, 3, 125, 6.027314186096191
0, 3, 126, 6.903191566467285
0, 3, 127, 2.233179807662964
0, 4, 0, 3.704792976379395
0, 4, 1, 5.112721920013428
0, 4, 2, 3.549222707748413
0, 4, 3, 3.271160125732422
0, 4, 4, 5.994284152984619
0, 4, 5, 8.456277847290039
0, 4, 6, 8.149441719055176
0, 4, 7, 5.934937953948975
0, 4, 8, 2.888701915740967
0, 4, 9, 7.079710006713867
0, 4, 10, 8.538204193115234
0, 4, 11, 8.544118881225586
0, 4, 12, 5.940383434295654
0, 4, 13, 8.18913459777832
0, 4, 14, 10.96985530853271
0, 4, 15, 10.3691520690918
0, 4, 16, 14.82546806335449
0, 4, 17, 18.40973281860352
0, 4, 18, 94.33421325683594
0, 4, 19, 224.8102722167969
0, 4, 20, 284.2457580566406
0, 4, 21, 272.2210693359375
0, 4, 22, 304.4568786621094
0, 4, 23, 268.8585205078125
0, 4, 24, 290.7581787109375
0, 4, 25, 274.0501403808594
0, 4, 26, 294.4093017578125
0, 4, 27, 281.317138671875
0, 4, 28, 308.1612854003906
0, 4, 29, 324.7492370605469
0, 4, 30, 309.1028747558594
0, 4, 31, 303.2578430175781
0, 4, 32, 280.6554565429688
0, 4, 33, 295.8478088378906
0, 4, 34, 295.8150634765625
0, 4, 35, 313.2195434570312
0, 4, 36, 292.6576538085938
0, 4, 37, 288.7653198242188
0, 4, 38, 298.5948791503906
0, 4, 39, 293.3266906738281
0, 4, 40, 303.0818786621094
0, 4, 41, 313.7589721679688
0, 4, 42, 331.2395629882812
0, 4, 43, 297.6669006347656
0, 4, 44, 322.2652282714844
0, 4, 45, 322.8510437011719
0, 4, 46, 307.3658142089844
0, 4, 47, 292.4659118652344
0, 4, 48, 296.6310119628906
0, 4, 49, 279.9432983398438
0, 4, 50, 294.7664489746094
0, 4, 51, 318.6451110839844
0, 4, 52, 328.0912475585938
0, 4, 53, 303.5809936523438
0, 4, 54, 287.1837768554688
0, 4, 55, 315.7859802246094
0, 4, 56, 287.0307006835938
0, 4, 57, 311.4574279785156
0, 4, 58, 297.5711364746094
0, 4, 59, 308.8473815917969
0, 4, 60, 303.4358215332031
0, 4, 61, 315.5231018066406
0, 4, 62, 306.8146667480469
0, 4, 63, 298.9304809570312
0, 4, 64, 330.9794311523438
0, 4, 65, 316.8282775878906
0, 4, 66, 293.9870300292969
0, 4, 67, 283.9180908203125
0, 4, 68, 312.0211486816406
0, 4, 69, 275.017822265625
0, 4, 70, 298.8461303710938
0, 4, 71, 321.0210266113281
0, 4, 72, 331.4075622558594
0, 4, 73, 297.3722229003906
0, 4, 74, 293.0122375488281
0, 4, 75, 289.3994750976562
0, 4, 76, 275.2615051269531
0, 4, 77, 280.4530944824219
0, 4, 78, 310.5555114746094
0, 4, 79, 319.6169738769531
0, 4, 80, 314.1054992675781
0, 4, 81, 313.0392761230469
0, 4, 82, 297.0873413085938
0, 4, 83, 300.1914367675781
0, 4, 84, 290.93408203125
0, 4, 85, 295.0631408691406
0, 4, 86, 298.0588989257812
0, 4, 87, 284.6195373535156
0, 4, 88, 304.7260131835938
0, 4, 89, 294.3090209960938
0, 4, 90, 332.5929260253906
0, 4, 91, 303.7890625
0, 4, 92, 288.4066467285156
0, 4, 93, 296.0796203613281
0, 4, 94, 291.9414978027344
0, 4, 95, 291.1875
0, 4, 96, 325.8161926269531
0, 4, 97, 272.7042541503906
0, 4, 98, 327.482177734375
0, 4, 99, 314.961669921875
0, 4, 100, 299.6803588867188
0, 4, 101, 257.4451293945312
0, 4, 102, 296.6852111816406
0, 4, 103, 317.4336853027344
0, 4, 104, 281.3971862792969
0, 4, 105, 311.1001281738281
0, 4, 106, 286.4851684570312
0, 4, 107, 296.3129577636719
0, 4, 108, 228.6672821044922
0, 4, 109, 79.15058898925781
0, 4, 110, 17.28061485290527
0, 4, 111, 13.16506767272949
0, 4, 112, 8.881730079650879
0, 4, 113, 11.00285339355469
0, 4, 114, 9.524441719055176
0, 4, 115, 9.244458198547363
0, 4, 116, 9.744963645935059
0, 4, 117, 7.560105323791504
0, 4, 118, 9.174994468688965
0, 4, 119, 9.207049369812012
0, 4, 120, 3.632656574249268
0, 4, 121, 5.125260353088379
0, 4, 122, 5.720095634460449
0, 4, 123, 5.238643169403076
0, 4, 124, 5.380292415618896
0, 4, 125, 8.09642505645752
0, 4, 126, 4.506138324737549
0, 4, 127, 4.7646803855896
0, 5, 0, 4.536702632904053
0, 5, 1, 4.001749515533447
0, 5, 2, 5.052489757537842
0, 5, 3, 2.117890596389771
0, 5, 4, 4.504872798919678
0, 5, 5, 5.336026668548584
0, 5, 6, 7.710840225219727
0, 5, 7, 6.703193664550781
0, 5, 8, 4.728636741638184
0, 5, 9, 5.662076950073242
0, 5, 10, 8.518091201782227
0, 5, 11, 7.992861747741699
0, 5, 12, 9.090819358825684
0, 5, 13, 5.851053714752197
0, 5, 14, 13.19213676452637
0, 5, 15, 15.9079532623291
0, 5, 16, 14.67227363586426
0, 5, 17, 28.41717338562012
0, 5, 18, 135.77392578125
0, 5, 19, 286.3154296875
0, 5, 20, 307.6596984863281
0, 5, 21, 317.8951110839844
0, 5, 22, 274.799072265625
0, 5, 23, 309.9257507324219
0, 5, 24, 301.7203063964844
0, 5, 25, 288.455078125
0, 5, 26, 293.3423156738281
0, 5, 27, 322.2515258789062
0, 5, 28, 303.3001403808594
0, 5, 29, 301.0813598632812
0, 5, 30, 323.4754333496094
0, 5, 31, 289.0499572753906
0, 5, 32, 301.9966125488281
0, 5, 33, 303.0674743652344
0, 5, 34, 299.7091064453125
0, 5, 35, 310.3688659667969
0, 5, 36, 269.1976013183594
0, 5, 37, 282.0575256347656
0, 5, 38, 293.5783386230469
0, 5, 39, 311.21484375
0, 5, 40, 310.2314147949219
0, 5, 41, 275.3113403320312
0, 5, 42, 306.5985717773438
0, 5, 43, 314.2459411621094
0, 5, 44, 292.3214721679688
0, 5, 45, 300.0863647460938
0, 5, 46, 264.232421875
0, 5, 47, 281.0620422363281
0, 5, 48, 291.8320617675781
0, 5, 49, 287.291748046875
0, 5, 50, 294.2965698242188
0, 5, 51, 280.8139953613281
0, 5, 52, 268.9505310058594
0, 5, 53, 283.1346435546875
0, 5, 54, 290.1724548339844
0, 5, 55, 345.4837341308594
0, 5, 56, 307.5601196289062
0, 5, 57, 305.6940612792969
0, 5, 58, 311.29833984375
0, 5, 59, 301.8414306640625
0, 5, 60, 308.8540649414062
0, 5, 61, 280.5452880859375
0, 5, 62, 326.0552673339844
0, 5, 63, 290.1802368164062
0, 5, 64, 322.3663940429688
0, 5, 65, 307.4415588378906
0, 5, 66, 327.919189453125
0, 5, 67, 313.4955749511719
0, 5, 68, 307.4686584472656
0, 5, 69, 312.2707824707031
0, 5, 70, 302.4021911621094
0, 5, 71, 273.2740783691406
0, 5, 72, 312.4360961914062
0, 5, 73, 302.868896484375
0, 5, 74, 298.7205200195312
0, 5, 75, 295.8184509277344
0, 5, 76, 286.1653137207031
0, 5, 77, 301.7218627929688
0, 5, 78, 314.8150329589844
0, 5, 79, 307.4259033203125
0, 5, 80, 294.4964904785156
0, 5, 81, 326.2701110839844
0, 5, 82, 322.6688842773438
0, 5, 83, 281.3145446777344
0, 5, 84, 304.7334289550781
0, 5, 85, 272.2770385742188
0, 5, 86, 326.5804443359375
0, 5, 87, 282.5389709472656
0, 5, 88, 315.4718627929688
0, 5, 89, 303.5142211914062
0, 5, 90, 315.5409240722656
0, 5, 91, 312.4205627441406
0, 5, 92, 295.5126342773438
0, 5, 93, 321.6423950195312
0, 5, 94, 309.8903198242188
0, 5, 95, 297.761474609375
0, 5, 96, 296.8874206542969
0, 5, 97, 296.8486328125
0, 5, 98, 317.9260559082031
0, 5, 99, 302.0193176269531
0, 5, 100, 291.5901489257812
0, 5, 101, 305.9035949707031
0, 5, 102, 291.9550170898438
0, 5, 103, 313.2165832519531
0, 5, 104, 303.9398193359375
0, 5, 105, 293.0444030761719
0, 5, 106, 281.0881042480469
0, 5, 107, 293.6231689453125
0, 5, 108, 263.1745910644531
0, 5, 109, 159.755615234375
0, 5, 110, 39.18470764160156
0, 5, 111, 22.04323387145996
0, 5, 112, 16.92027282714844
0, 5, 113, 14.43843078613281
0, 5, 114, 11.61053657531738
0, 5, 115, 8.29637622833252
0, 5, 116, 8.062769889831543
0, 5, 117, 9.362239837646484
0, 5, 118, 14.64780139923096
0, 5, 119, 4.158413887023926
0, 5, 120, 5.586499691009521
0, 5, 121, 7.138739585876465
0, 5, 122, 6.067892551422119
0, 5, 123, 6.336070537567139
0, 5, 124, 5.208617687225342
0, 5, 125, 3.131765127182007
0, 5, 126, 5.965794086456299
0, 5, 127, 3.736221551895142
0, 6, 0, 4.535161972045898
0, 6, 1, 3.38837742805481
0, 6, 2, 5.190327167510986
0, 6, 3, 5.446307182312012
0, 6, 4, 2.648982048034668
0, 6, 5, 7.755063056945801
0, 6, 6, 6.181916236877441
0, 6, 7, 5.5626540184021
0, 6, 8, 8.76771354675293
0, 6, 9, 5.430120468139648
0, 6, 10, 7.160668849945068
0, 6, 11, 8.495963096618652
0, 6, 12, 9.163773536682129
0, 6, 13, 13.70360279083252
0, 6, 14, 8.565518379211426
0, 6, 15, 17.68392944335938
0, 6, 16, 29.30399322509766
0, 6, 17, 56.54987716674805
0, 6, 18, 174.2285003662109
0, 6, 19, 274.8240356445312
0, 6, 20, 289.8515930175781
0, 6, 21, 313.1688537597656
0, 6, 22, 321.93701171875
0, 6, 23, 306.4852600097656
0, 6, 24, 315.7603759765625
0, 6, 25, 316.4767761230469
0, 6, 26, 319.0119323730469
0, 6, 27, 330.5588073730469
0, 6, 28, 297.5908203125
0, 6, 29, 328.42529296875
0, 6, 30, 281.8697509765625
0, 6, 31, 285.0347595214844
0, 6, 32, 338.5431213378906
0, 6, 33, 298.9667358398438
0, 6, 34, 339.404541015625
0, 6, 35, 320.2767944335938
0, 6, 36, 273.2793579101562
0, 6, 37, 290.0643615722656
0, 6, 38, 311.0331115722656
0, 6, 39, 300.6888732910156
0, 6, 40, 282.9128112792969
0, 6, 41, 295.9039916992188
0, 6, 42, 303.3396911621094
0, 6, 43, 288.4027099609375
0, 6, 44, 280.9427185058594
0, 6, 45, 320.7138671875
0, 6, 46, 301.6675720214844
0, 6, 47, 333.2038879394531
0, 6, 48, 293.2779541015625
0, 6, 49, 311.011962890625
0, 6, 50, 329.0940856933594
0, 6, 51, 310.4595031738281
0, 6, 52, 322.5226440429688
0, 6, 53, 327.9376220703125
0, 6, 54, 304.6276550292969
0, 6, 55, 305.73046875
0, 6, 56, 292.6781616210938
0, 6, 57, 312.4387817382812
0, 6, 58, 263.2020263671875
0, 6, 59, 302.8372497558594
0, 6, 60, 314.4428405761719
0, 6, 61, 271.1612548828125
0, 6, 62, 339.3863830566406
0, 6, 63, 322.5179443359375
0, 6, 64, 292.7197265625
0, 6, 65, 285.4180603027344
0, 6, 66, 305.7523193359375
0, 6, 67, 309.9935913085938
0, 6, 68, 294.25146484375
0, 6, 69, 279.7524719238281
0, 6, 70, 275.0798645019531
0, 6, 71, 289.9690856933594
0, 6, 72, 312.0986633300781
0, 6, 73, 294.4205627441406
0, 6, 74, 331.3270874023438
0, 6, 75, 343.9109191894531
0, 6, 76, 297.3192443847656
0, 6, 77, 288.3087463378906
0, 6, 78, 279.1198120117188
0, 6, 79, 291.8168029785156
0, 6, 80, 298.539306640625
0, 6, 81, 315.5576477050781
0, 6, 82, 319.3522644042969
0, 6, 83, 322.2156677246094
0, 6, 84, 296.6519775390625
0, 6, 85, 301.57763671875
0, 6, 86, 329.3490600585938
0, 6, 87, 293.6344299316406
0, 6, 88, 306.0381774902344
0, 6, 89, 304.4933776855469
0, 6, 90, 299.0715026855469
0, 6, 91, 311.7072448730469
0, 6, 92, 284.8414611816406
0, 6, 93, 296.4958190917969
0, 6, 94, 274.7027282714844
0, 6, 95, 299.4647521972656
0, 6, 96, 349.3902587890625
0, 6, 97, 307.8873596191406
0, 6, 98, 301.9304504394531
0, 6, 99, 272.7066345214844
0, 6, 100, 310.2756042480469
0, 6, 101, 291.7021789550781
0, 6, 102, 305.8631286621094
0, 6, 103, 309.1588745117188
0, 6, 104, 292.0750732421875
0, 6, 105, 299.9259033203125
0, 6, 106, 308.4645690917969
0, 6, 107, 306.1021423339844
0, 6, 108, 265.5205993652344
0, 6, 109, 187.1544342041016
0, 6, 110, 54.74228668212891
0, 6, 111, 22.33064460754395
0, 6, 112, 16.74521636962891
0, 6, 113, 11.7194995880127
0, 6, 114, 12.10037422180176
0, 6, 115, 11.27523708343506
0, 6, 116, 9.202488899230957
0, 6, 117, 8.334935188293457
0, 6, 118, 9.636357307434082
0, 6, 119, 9.332385063171387
0, 6, 120, 5.749519824981689
0, 6, 121, 7.874505996704102
0, 6, 122, 8.185856819152832
0, 6, 123, 6.713985443115234
0, 6, 124, 7.182013511657715
0, 6, 125, 5.771383762359619
0, 6, 126, 4.88219690322876
0, 6, 127, 6.046507358551025
0, 7, 0, 6.129569530487061
0, 7, 1, 3.535714864730835
0, 7, 2, 7.756866931915283
0, 7, 3, 2.029654979705811
0, 7, 4, 5.003133773803711
0, 7, 5, 4.540710926055908
0, 7, 6, 5.698215007781982
0, 7, 7, 4.299026489257812
0, 7, 8, 4.678439617156982
0, 7, 9, 5.601556777954102
0, 7, 10, 8.423260688781738
0, 7, 11, 13.41453075408936
0, 7, 12, 12.36020088195801
0, 7, 13, 10.88114833831787
0, 7, 14, 10.2692346572876
0, 7, 15, 15.59615993499756
0, 7, 16, 25.41314888000488
0, 7, 17, 97.20140838623047
0, 7, 18, 219.3168640136719
0, 7, 19, 288.3838500976562
0, 7, 20, 296.9954528808594
0, 7, 21, 277.95458984375
0, 7, 22, 299.2291870117188
0, 7, 23, 289.7853698730469
0, 7, 24, 313.3853759765625
0, 7, 25, 324.7528381347656
0, 7, 26, 279.8131408691406
0, 7, 27, 296.7557678222656
0, 7, 28, 327.139404296875
0, 7, 29, 318.8701782226562
0, 7, 30, 299.0971069335938
0, 7, 31, 275.1781311035156
0, 7, 32, 305.6556091308594
0, 7, 33, 264.7418518066406
0, 7, 34, 297.267822265625
0, 7, 35, 320.0547790527344
0, 7, 36, 330.644287109375
0, 7, 37, 323.11865234375
0, 7, 38, 295.80419921875
0, 7, 39, 304.3794860839844
0, 7, 40, 291.9639892578125
0, 7, 41, 274.9474487304688
0, 7, 42, 301.5032348632812
0, 7, 43, 274.7285766601562
0, 7, 44, 304.5600280761719
0, 7, 45, 294.71337890625
0, 7, 46, 285.5093383789062
0, 7, 47, 329.6941528320312
0, 7, 48, 285.0875244140625
0, 7, 49, 302.0179138183594
0, 7, 50, 321.1185302734375
0, 7, 51, 297.9015197753906
0, 7, 52, 327.42822265625
0, 7, 53, 311.8639831542969
0, 7, 54, 325.5975646972656
0, 7, 55, 307.2223205566406
0, 7, 56, 280.56298828125
0, 7, 57, 283.8294982910156
0, 7, 58, 295.2629089355469
0, 7, 59, 296.1980895996094
0, 7, 60, 322.4848022460938
0, 7, 61, 277.5409240722656
0, 7, 62, 295.9038696289062
0, 7, 63, 293.5323791503906
0, 7, 64, 304.5205078125
0, 7, 65, 330.7232971191406
0, 7, 66, 317.4609375
0, 7, 67, 301.0520629882812
0, 7, 68, 279.5318908691406
0, 7, 69, 292.1182250976562
0, 7, 70, 302.9976501464844
0, 7, 71, 308.5333557128906
0, 7, 72, 284.103759765625
0, 7, 73, 294.9426879882812
0, 7, 74, 344.5119018554688
0, 7, 75, 318.5338745117188
0, 7, 76, 322.1260681152344
0, 7, 77, 280.8356628417969
0, 7, 78, 303.0710144042969
0, 7, 79, 297.4207458496094
0, 7, 80, 314.7960205078125
0, 7, 81, 319.5588989257812
0, 7, 82, 329.4943542480469
0, 7, 83, 316.9857482910156
0, 7, 84, 309.2368774414062
0, 7, 85, 271.4087524414062
0, 7, 86, 312.5392761230469
0, 7, 87, 311.8130187988281
0, 7, 88, 308.8961181640625
0, 7, 89, 292.3304443359375
0, 7, 90, 308.1876831054688
0, 7, 91, 316.4563598632812
0, 7, 92, 288.2121887207031
0, 7, 93, 307.7306518554688
0, 7, 94, 272.8551025390625
0, 7, 95, 295.754638671875
0, 7, 96, 331.0337829589844
0, 7, 97, 296.3724365234375
0, 7, 98, 290.8911437988281
0, 7, 99, 312.0065307617188
0, 7, 100, 280.9653015136719
0, 7, 101, 277.1085510253906
0, 7, 102, 292.6144104003906
0, 7, 103, 292.9989318847656
0, 7, 104, 274.4685363769531
0, 7, 105, 307.1320190429688
0, 7, 106, 317.2573547363281
0, 7, 107, 295.9300842285156
0, 7, 108, 272.4769897460938
0, 7, 109, 234.9489288330078
0, 7, 110, 96.40400695800781
0, 7, 111, 23.42723846435547
0, 7, 112, 13.42165565490723
0, 7, 113, 14.31945323944092
0, 7, 114, 14.34655666351318
0, 7, 115, 11.23196983337402
0, 7, 116, 7.678269863128662
0, 7, 117, 7.015443801879883
0, 7, 118, 6.742885112762451
0, 7, 119, 8.194211959838867
0, 7, 120, 5.549871921539307
0, 7, 121, 6.294291496276855
0, 7, 122, 7.604689598083496
0, 7, 123, 5.226560115814209
0, 7, 124, 3.128470420837402
0, 7, 125, 6.442332744598389
0, 7, 126, 9.470720291137695
0, 7, 127, 4.409478187561035
0, 8, 0, 3.323692560195923
0, 8, 1, 6.004462242126465
0, 8, 2, 3.340490818023682
0, 8, 3, 2.753596067428589
0, 8, 4, 4.37623929977417
0, 8, 5, 5.463465213775635
0, 8, 6, 4.931577682495117
0, 8, 7, 5.65098762512207
0, 8, 8, 9.661364555358887
0, 8, 9, 5.887715339660645
0, 8, 10, 7.479698657989502
0, 8, 11, 10.01455497741699
0, 8, 12, 13.87821292877197
0, 8, 13, 15.10110569000244
0, 8, 14, 13.04105949401855
0, 8, 15, 19.48423767089844
0, 8, 16, 32.37462615966797
0, 8, 17, 130.0191955566406
0, 8, 18, 243.2495727539062
0, 8, 19, 294.2176208496094
0, 8, 20, 285.3675537109375
0, 8, 21, 307.0258483886719
0, 8, 22, 295.7020263671875
0, 8, 23, 275.1040649414062
0, 8, 24, 269.8537292480469
0, 8, 25, 275.0629272460938
0, 8, 26, 308.3664855957031
0, 8, 27, 308.7854309082031
0, 8, 28, 303.977294921875
0, 8, 29, 321.8655395507812
0, 8, 30, 315.4543762207031
0, 8, 31, 303.4836730957031
0, 8, 32, 281.9860229492188
0, 8, 33, 292.5191955566406
0, 8, 34, 288.6160278320312
0, 8, 35, 280.2862854003906
0, 8, 36, 315.687255859375
0, 8, 37, 338.7403564453125
0, 8, 38, 331.9526672363281
0, 8, 39, 281.8858642578125
0, 8, 40, 303.4231262207031
