# TOPAS Version: 3.1.p3
# Parameter File: batch_inserts_234.txt
# Results for scorer Readout_Adipose
# Scored in component: MyBox
# X in 1 bin  of 0.75 cm
# Y in 512 bins of 0.0783984 cm
# Z in 128 bins of 0.078125 cm
# EnergyDeposit ( MeV ) : Sum   
0, 0, 0, 2.675384521484375
0, 0, 1, 1.979146957397461
0, 0, 2, 3.65804648399353
0, 0, 3, 1.782529592514038
0, 0, 4, 3.509236574172974
0, 0, 5, 1.744584560394287
0, 0, 6, 5.386570930480957
0, 0, 7, 7.538098335266113
0, 0, 8, 2.078850746154785
0, 0, 9, 4.237287044525146
0, 0, 10, 6.050446510314941
0, 0, 11, 3.738251447677612
0, 0, 12, 4.619286060333252
0, 0, 13, 6.513439178466797
0, 0, 14, 6.989666938781738
0, 0, 15, 8.052567481994629
0, 0, 16, 8.126211166381836
0, 0, 17, 10.17607021331787
0, 0, 18, 13.31289386749268
0, 0, 19, 45.3248176574707
0, 0, 20, 139.97509765625
0, 0, 21, 223.1745300292969
0, 0, 22, 249.0717163085938
0, 0, 23, 256.5318298339844
0, 0, 24, 250.2961120605469
0, 0, 25, 258.9700012207031
0, 0, 26, 233.6063385009766
0, 0, 27, 236.7313385009766
0, 0, 28, 271.7864990234375
0, 0, 29, 252.5836181640625
0, 0, 30, 229.9634552001953
0, 0, 31, 243.9437713623047
0, 0, 32, 263.8229064941406
0, 0, 33, 262.3995056152344
0, 0, 34, 288.4774169921875
0, 0, 35, 267.7002258300781
0, 0, 36, 247.2073974609375
0, 0, 37, 252.3076477050781
0, 0, 38, 269.2879028320312
0, 0, 39, 229.7965850830078
0, 0, 40, 240.5457000732422
0, 0, 41, 263.7708740234375
0, 0, 42, 230.3920135498047
0, 0, 43, 261.6577453613281
0, 0, 44, 253.4375610351562
0, 0, 45, 253.0586547851562
0, 0, 46, 244.9776000976562
0, 0, 47, 252.538330078125
0, 0, 48, 266.5366516113281
0, 0, 49, 274.2710876464844
0, 0, 50, 251.1385498046875
0, 0, 51, 254.9825286865234
0, 0, 52, 272.6324768066406
0, 0, 53, 293.5304260253906
0, 0, 54, 242.8521728515625
0, 0, 55, 239.7431640625
0, 0, 56, 276.4208374023438
0, 0, 57, 263.784912109375
0, 0, 58, 246.3596038818359
0, 0, 59, 272.0838928222656
0, 0, 60, 234.5915679931641
0, 0, 61, 245.4101104736328
0, 0, 62, 258.8123474121094
0, 0, 63, 267.8181762695312
0, 0, 64, 254.720703125
0, 0, 65, 260.5081176757812
0, 0, 66, 276.1671752929688
0, 0, 67, 248.3175659179688
0, 0, 68, 260.7326354980469
0, 0, 69, 260.8575439453125
0, 0, 70, 273.9915466308594
0, 0, 71, 238.1212463378906
0, 0, 72, 250.1441497802734
0, 0, 73, 258.3724975585938
0, 0, 74, 251.4398956298828
0, 0, 75, 242.5768585205078
0, 0, 76, 227.9862213134766
0, 0, 77, 262.5022888183594
0, 0, 78, 257.6535949707031
0, 0, 79, 278.6843872070312
0, 0, 80, 215.9250030517578
0, 0, 81, 269.3194580078125
0, 0, 82, 256.31298828125
0, 0, 83, 245.1860504150391
0, 0, 84, 267.8783264160156
0, 0, 85, 232.2234802246094
0, 0, 86, 253.1061096191406
0, 0, 87, 251.8110961914062
0, 0, 88, 258.44677734375
0, 0, 89, 282.2295837402344
0, 0, 90, 246.0147247314453
0, 0, 91, 280.7769470214844
0, 0, 92, 252.7306060791016
0, 0, 93, 249.4674682617188
0, 0, 94, 249.4171905517578
0, 0, 95, 248.9309539794922
0, 0, 96, 276.8182067871094
0, 0, 97, 273.9259033203125
0, 0, 98, 272.9068603515625
0, 0, 99, 258.9274291992188
0, 0, 100, 258.3303527832031
0, 0, 101, 224.5359802246094
0, 0, 102, 231.5791473388672
0, 0, 103, 268.9026489257812
0, 0, 104, 255.4144897460938
0, 0, 105, 250.5416412353516
0, 0, 106, 245.1043853759766
0, 0, 107, 151.7343139648438
0, 0, 108, 37.54338073730469
0, 0, 109, 11.58067512512207
0, 0, 110, 12.85121726989746
0, 0, 111, 8.481842041015625
0, 0, 112, 7.169029712677002
0, 0, 113, 6.849198818206787
0, 0, 114, 7.838391780853271
0, 0, 115, 5.348595142364502
0, 0, 116, 4.807018756866455
0, 0, 117, 6.400316715240479
0, 0, 118, 7.501945972442627
0, 0, 119, 3.961028814315796
0, 0, 120, 2.579025983810425
0, 0, 121, 4.981906890869141
0, 0, 122, 3.272854328155518
0, 0, 123, 3.063651323318481
0, 0, 124, 5.315751075744629
0, 0, 125, 2.574881553649902
0, 0, 126, 4.281046390533447
0, 0, 127, 5.865564823150635
0, 1, 0, 8.745530128479004
0, 1, 1, 3.012407779693604
0, 1, 2, 4.11140775680542
0, 1, 3, 4.171622753143311
0, 1, 4, 2.846238613128662
0, 1, 5, 4.621790885925293
0, 1, 6, 4.377368450164795
0, 1, 7, 5.636983394622803
0, 1, 8, 8.366813659667969
0, 1, 9, 3.514101505279541
0, 1, 10, 8.440197944641113
0, 1, 11, 11.16825485229492
0, 1, 12, 7.962668418884277
0, 1, 13, 10.79794979095459
0, 1, 14, 8.505021095275879
0, 1, 15, 9.154423713684082
0, 1, 16, 11.58053016662598
0, 1, 17, 10.19672870635986
0, 1, 18, 20.32015609741211
0, 1, 19, 65.06263732910156
0, 1, 20, 198.3892364501953
0, 1, 21, 256.1612548828125
0, 1, 22, 297.0763854980469
0, 1, 23, 283.320556640625
0, 1, 24, 275.2798767089844
0, 1, 25, 288.0824584960938
0, 1, 26, 268.6185607910156
0, 1, 27, 306.5711975097656
0, 1, 28, 298.8165283203125
0, 1, 29, 295.1315307617188
0, 1, 30, 280.0597839355469
0, 1, 31, 292.0203552246094
0, 1, 32, 290.2598571777344
0, 1, 33, 296.0183410644531
0, 1, 34, 292.9395751953125
0, 1, 35, 278.6060180664062
0, 1, 36, 307.0896301269531
0, 1, 37, 295.5382690429688
0, 1, 38, 280.0245361328125
0, 1, 39, 296.1173706054688
0, 1, 40, 265.672607421875
0, 1, 41, 285.2291259765625
0, 1, 42, 288.6550903320312
0, 1, 43, 330.5884399414062
0, 1, 44, 277.8014526367188
0, 1, 45, 292.2828369140625
0, 1, 46, 259.5364074707031
0, 1, 47, 309.6992492675781
0, 1, 48, 284.5576477050781
0, 1, 49, 301.4996643066406
0, 1, 50, 264.183349609375
0, 1, 51, 273.6512145996094
0, 1, 52, 293.38037109375
0, 1, 53, 306.0911865234375
0, 1, 54, 273.2385864257812
0, 1, 55, 292.4967651367188
0, 1, 56, 277.6538696289062
0, 1, 57, 296.2913208007812
0, 1, 58, 309.9716491699219
0, 1, 59, 291.995849609375
0, 1, 60, 298.0159301757812
0, 1, 61, 276.1034851074219
0, 1, 62, 307.1311645507812
0, 1, 63, 286.1676330566406
0, 1, 64, 287.4266052246094
0, 1, 65, 294.6336059570312
0, 1, 66, 293.8771057128906
0, 1, 67, 292.230224609375
0, 1, 68, 278.9902038574219
0, 1, 69, 279.3045959472656
0, 1, 70, 272.069091796875
0, 1, 71, 272.3080139160156
0, 1, 72, 284.2903137207031
0, 1, 73, 304.8978576660156
0, 1, 74, 303.6950378417969
0, 1, 75, 294.8009948730469
0, 1, 76, 284.9973449707031
0, 1, 77, 290.7245788574219
0, 1, 78, 297.2131958007812
0, 1, 79, 300.4919738769531
0, 1, 80, 294.8364562988281
0, 1, 81, 301.4591369628906
0, 1, 82, 285.1101379394531
0, 1, 83, 332.9620361328125
0, 1, 84, 308.7792053222656
0, 1, 85, 253.5377044677734
0, 1, 86, 294.5087585449219
0, 1, 87, 291.1342163085938
0, 1, 88, 298.4457092285156
0, 1, 89, 288.5525512695312
0, 1, 90, 272.41748046875
0, 1, 91, 317.9574890136719
0, 1, 92, 290.4036560058594
0, 1, 93, 286.9818725585938
0, 1, 94, 304.4746704101562
0, 1, 95, 285.1424255371094
0, 1, 96, 282.9798278808594
0, 1, 97, 299.3947448730469
0, 1, 98, 279.8417053222656
0, 1, 99, 268.23583984375
0, 1, 100, 276.0069274902344
0, 1, 101, 283.3761901855469
0, 1, 102, 279.5005187988281
0, 1, 103, 283.2961730957031
0, 1, 104, 307.9259643554688
0, 1, 105, 296.9058532714844
0, 1, 106, 260.0315246582031
0, 1, 107, 193.1718292236328
0, 1, 108, 80.65123748779297
0, 1, 109, 22.75238990783691
0, 1, 110, 11.19755172729492
0, 1, 111, 8.106431007385254
0, 1, 112, 11.07175922393799
0, 1, 113, 4.732903480529785
0, 1, 114, 5.965609550476074
0, 1, 115, 6.836383819580078
0, 1, 116, 12.00847053527832
0, 1, 117, 6.54457950592041
0, 1, 118, 4.64710521697998
0, 1, 119, 4.796916484832764
0, 1, 120, 5.530340671539307
0, 1, 121, 3.988672256469727
0, 1, 122, 3.447659015655518
0, 1, 123, 4.78444766998291
0, 1, 124, 6.869880676269531
0, 1, 125, 4.543416023254395
0, 1, 126, 1.286165118217468
0, 1, 127, 2.185442924499512
0, 2, 0, 5.791152954101562
0, 2, 1, 2.732016086578369
0, 2, 2, 4.491572380065918
0, 2, 3, 4.678257465362549
0, 2, 4, 4.13682222366333
0, 2, 5, 1.122830033302307
0, 2, 6, 1.913874268531799
0, 2, 7, 3.891486167907715
0, 2, 8, 4.388596057891846
0, 2, 9, 6.609856605529785
0, 2, 10, 10.32690811157227
0, 2, 11, 5.309767246246338
0, 2, 12, 5.998312950134277
0, 2, 13, 10.39342308044434
0, 2, 14, 9.683559417724609
0, 2, 15, 8.569706916809082
0, 2, 16, 8.699713706970215
0, 2, 17, 16.89417266845703
0, 2, 18, 32.08137512207031
0, 2, 19, 116.1728363037109
0, 2, 20, 245.5882568359375
0, 2, 21, 271.0506896972656
0, 2, 22, 315.1210327148438
0, 2, 23, 300.7640686035156
0, 2, 24, 287.7206726074219
0, 2, 25, 302.2959899902344
0, 2, 26, 293.2911682128906
0, 2, 27, 275.5561218261719
0, 2, 28, 272.6888732910156
0, 2, 29, 274.5985107421875
0, 2, 30, 288.3909301757812
0, 2, 31, 277.6361389160156
0, 2, 32, 295.75537109375
0, 2, 33, 282.8637084960938
0, 2, 34, 331.8924560546875
0, 2, 35, 289.7057495117188
0, 2, 36, 303.3493041992188
0, 2, 37, 314.0669860839844
0, 2, 38, 310.87255859375
0, 2, 39, 266.5174865722656
0, 2, 40, 309.2677001953125
0, 2, 41, 290.9425964355469
0, 2, 42, 304.6137084960938
0, 2, 43, 312.5882263183594
0, 2, 44, 313.1970520019531
0, 2, 45, 325.1867980957031
0, 2, 46, 286.6067199707031
0, 2, 47, 302.2087097167969
0, 2, 48, 281.2409362792969
0, 2, 49, 279.0708618164062
0, 2, 50, 294.6327514648438
0, 2, 51, 284.0601806640625
0, 2, 52, 277.1415710449219
0, 2, 53, 287.6437377929688
0, 2, 54, 278.9977416992188
0, 2, 55, 275.5400085449219
0, 2, 56, 300.9339294433594
0, 2, 57, 291.0328369140625
0, 2, 58, 303.2070922851562
0, 2, 59, 289.8542175292969
0, 2, 60, 318.8222961425781
0, 2, 61, 300.8584899902344
0, 2, 62, 316.0329895019531
0, 2, 63, 304.6351318359375
0, 2, 64, 295.8639526367188
0, 2, 65, 314.8368835449219
0, 2, 66, 279.99560546875
0, 2, 67, 290.8464660644531
0, 2, 68, 296.3352661132812
0, 2, 69, 312.3932189941406
0, 2, 70, 336.0090637207031
0, 2, 71, 283.9148254394531
0, 2, 72, 300.630859375
0, 2, 73, 312.1767883300781
0, 2, 74, 286.491943359375
0, 2, 75, 307.0206604003906
0, 2, 76, 287.5108947753906
0, 2, 77, 299.8209838867188
0, 2, 78, 315.4230651855469
0, 2, 79, 307.3681030273438
0, 2, 80, 298.6780395507812
0, 2, 81, 282.4533081054688
0, 2, 82, 316.5101013183594
0, 2, 83, 311.5097351074219
0, 2, 84, 290.03271484375
0, 2, 85, 285.3229370117188
0, 2, 86, 324.0954895019531
0, 2, 87, 286.8809814453125
0, 2, 88, 281.3074340820312
0, 2, 89, 298.2458190917969
0, 2, 90, 295.722900390625
0, 2, 91, 280.3588256835938
0, 2, 92, 305.4238586425781
0, 2, 93, 316.3377685546875
0, 2, 94, 293.6460266113281
0, 2, 95, 314.8145141601562
0, 2, 96, 314.1880187988281
0, 2, 97, 290.1597595214844
0, 2, 98, 293.1258850097656
0, 2, 99, 273.9219970703125
0, 2, 100, 306.0675048828125
0, 2, 101, 300.1876525878906
0, 2, 102, 296.9641723632812
0, 2, 103, 291.8824157714844
0, 2, 104, 293.22412109375
0, 2, 105, 274.1511535644531
0, 2, 106, 297.5854797363281
0, 2, 107, 270.98046875
0, 2, 108, 115.6326065063477
0, 2, 109, 32.42271041870117
0, 2, 110, 9.62786865234375
0, 2, 111, 13.08267021179199
0, 2, 112, 7.104461669921875
0, 2, 113, 9.618371963500977
0, 2, 114, 8.881242752075195
0, 2, 115, 10.0662727355957
0, 2, 116, 8.496333122253418
0, 2, 117, 6.228536605834961
0, 2, 118, 3.628513336181641
0, 2, 119, 4.983222484588623
0, 2, 120, 6.696840763092041
0, 2, 121, 3.590292692184448
0, 2, 122, 6.606762886047363
0, 2, 123, 3.745753288269043
0, 2, 124, 4.42455005645752
0, 2, 125, 4.468863964080811
0, 2, 126, 3.397249698638916
0, 2, 127, 4.594979286193848
0, 3, 0, 6.174704551696777
0, 3, 1, 2.901076555252075
0, 3, 2, 7.086401462554932
0, 3, 3, 1.146448969841003
0, 3, 4, 7.815470218658447
0, 3, 5, 7.058541774749756
0, 3, 6, 5.870009899139404
0, 3, 7, 6.050912857055664
0, 3, 8, 5.644215106964111
0, 3, 9, 7.359536647796631
0, 3, 10, 5.137545585632324
0, 3, 11, 6.556198596954346
0, 3, 12, 7.776059627532959
0, 3, 13, 15.63813018798828
0, 3, 14, 11.46242427825928
0, 3, 15, 15.24789810180664
0, 3, 16, 11.41889190673828
0, 3, 17, 20.41263580322266
0, 3, 18, 50.23614120483398
0, 3, 19, 175.6292114257812
0, 3, 20, 268.5784606933594
0, 3, 21, 271.5664672851562
0, 3, 22, 281.4673156738281
0, 3, 23, 287.5655822753906
0, 3, 24, 286.2557983398438
0, 3, 25, 271.84228515625
0, 3, 26, 303.9496765136719
0, 3, 27, 291.6390380859375
0, 3, 28, 283.5508728027344
0, 3, 29, 339.9500427246094
0, 3, 30, 316.8749084472656
0, 3, 31, 288.7266235351562
0, 3, 32, 305.9162292480469
0, 3, 33, 314.1375427246094
0, 3, 34, 322.8116760253906
0, 3, 35, 306.7794494628906
0, 3, 36, 271.5004577636719
0, 3, 37, 316.7738952636719
0, 3, 38, 304.384033203125
0, 3, 39, 289.0592041015625
0, 3, 40, 265.3048400878906
0, 3, 41, 299.7803344726562
0, 3, 42, 286.2650451660156
0, 3, 43, 304.3076171875
0, 3, 44, 310.2589416503906
0, 3, 45, 289.7823486328125
0, 3, 46, 329.8564453125
0, 3, 47, 298.8495178222656
0, 3, 48, 303.9162902832031
0, 3, 49, 276.0328369140625
0, 3, 50, 288.87353515625
0, 3, 51, 275.4323120117188
0, 3, 52, 316.8661804199219
0, 3, 53, 290.4500427246094
0, 3, 54, 285.0397338867188
0, 3, 55, 282.6961975097656
0, 3, 56, 299.1130065917969
0, 3, 57, 288.3274841308594
0, 3, 58, 305.8305358886719
0, 3, 59, 296.060302734375
0, 3, 60, 298.5181884765625
0, 3, 61, 263.9285583496094
0, 3, 62, 285.6329040527344
0, 3, 63, 305.85693359375
0, 3, 64, 317.0387268066406
0, 3, 65, 304.0153503417969
0, 3, 66, 315.6714477539062
0, 3, 67, 317.9503479003906
0, 3, 68, 279.8594970703125
0, 3, 69, 281.8753356933594
0, 3, 70, 288.9913635253906
0, 3, 71, 300.3731079101562
0, 3, 72, 271.3406982421875
0, 3, 73, 308.5653076171875
0, 3, 74, 295.3299255371094
0, 3, 75, 288.8541564941406
0, 3, 76, 305.0317993164062
0, 3, 77, 312.3045654296875
0, 3, 78, 302.8489685058594
0, 3, 79, 282.3747253417969
0, 3, 80, 292.2308349609375
0, 3, 81, 310.9382934570312
0, 3, 82, 316.96533203125
0, 3, 83, 301.7024230957031
0, 3, 84, 310.8356018066406
0, 3, 85, 292.2498779296875
0, 3, 86, 303.9892883300781
0, 3, 87, 297.2715759277344
0, 3, 88, 297.1308288574219
0, 3, 89, 295.398681640625
0, 3, 90, 276.9033508300781
0, 3, 91, 285.4696044921875
0, 3, 92, 305.9657592773438
0, 3, 93, 311.7218627929688
0, 3, 94, 298.9442749023438
0, 3, 95, 334.4276428222656
0, 3, 96, 290.3753662109375
0, 3, 97, 283.3560180664062
0, 3, 98, 280.3278198242188
0, 3, 99, 262.7290954589844
0, 3, 100, 283.7523193359375
0, 3, 101, 297.0275268554688
0, 3, 102, 276.3237915039062
0, 3, 103, 320.6340026855469
0, 3, 104, 309.8443298339844
0, 3, 105, 287.7072143554688
0, 3, 106, 303.4298400878906
0, 3, 107, 284.9268798828125
0, 3, 108, 167.8904113769531
0, 3, 109, 58.50122833251953
0, 3, 110, 18.72293090820312
0, 3, 111, 12.22789096832275
0, 3, 112, 11.93067169189453
0, 3, 113, 7.883296012878418
0, 3, 114, 9.138727188110352
0, 3, 115, 6.738971710205078
0, 3, 116, 9.511381149291992
0, 3, 117, 9.341817855834961
0, 3, 118, 11.1509485244751
0, 3, 119, 6.543387889862061
0, 3, 120, 6.57986307144165
0, 3, 121, 2.595844268798828
0, 3, 122, 1.847461700439453
0, 3, 123, 6.898403167724609
0, 3, 124, 4.856969833374023
0, 3, 125, 5.923007488250732
0, 3, 126, 4.788284301757812
0, 3, 127, 2.947902679443359
0, 4, 0, 2.558097839355469
0, 4, 1, 4.99884033203125
0, 4, 2, 3.504126071929932
0, 4, 3, 2.765094041824341
0, 4, 4, 5.61900806427002
0, 4, 5, 9.531001091003418
0, 4, 6, 6.256345748901367
0, 4, 7, 5.899262428283691
0, 4, 8, 3.229527711868286
0, 4, 9, 8.488723754882812
0, 4, 10, 5.753273487091064
0, 4, 11, 5.133411884307861
0, 4, 12, 7.053016662597656
0, 4, 13, 7.289186000823975
0, 4, 14, 13.11194229125977
0, 4, 15, 9.562358856201172
0, 4, 16, 13.56360340118408
0, 4, 17, 19.39469337463379
0, 4, 18, 92.14569091796875
0, 4, 19, 223.6465301513672
0, 4, 20, 284.2495422363281
0, 4, 21, 271.9858703613281
0, 4, 22, 304.23388671875
0, 4, 23, 267.495849609375
0, 4, 24, 288.6307678222656
0, 4, 25, 272.7034912109375
0, 4, 26, 293.7865295410156
0, 4, 27, 283.1202697753906
0, 4, 28, 306.7906494140625
0, 4, 29, 322.5100402832031
0, 4, 30, 308.3725280761719
0, 4, 31, 304.8355712890625
0, 4, 32, 281.6847534179688
0, 4, 33, 297.9292907714844
0, 4, 34, 295.6013793945312
0, 4, 35, 312.5155334472656
0, 4, 36, 295.00341796875
0, 4, 37, 290.9765930175781
0, 4, 38, 299.6773681640625
0, 4, 39, 294.0158386230469
0, 4, 40, 303.430419921875
0, 4, 41, 311.6781311035156
0, 4, 42, 331.400390625
0, 4, 43, 299.3921508789062
0, 4, 44, 321.4302062988281
0, 4, 45, 323.3467712402344
0, 4, 46, 304.3942565917969
0, 4, 47, 292.4486389160156
0, 4, 48, 295.4959106445312
0, 4, 49, 278.9265441894531
0, 4, 50, 295.7701110839844
0, 4, 51, 318.2733764648438
0, 4, 52, 326.2633666992188
0, 4, 53, 303.2941589355469
0, 4, 54, 286.1350708007812
0, 4, 55, 317.8224792480469
0, 4, 56, 287.7416687011719
0, 4, 57, 309.8976440429688
0, 4, 58, 298.2204284667969
0, 4, 59, 308.4525756835938
0, 4, 60, 304.5061340332031
0, 4, 61, 315.29345703125
0, 4, 62, 309.6466674804688
0, 4, 63, 298.8510437011719
0, 4, 64, 331.1060791015625
0, 4, 65, 314.737060546875
0, 4, 66, 291.0978088378906
0, 4, 67, 286.3321838378906
0, 4, 68, 315.3078308105469
0, 4, 69, 275.7356567382812
0, 4, 70, 300.2158508300781
0, 4, 71, 323.0429992675781
0, 4, 72, 333.0561828613281
0, 4, 73, 299.5071411132812
0, 4, 74, 291.621337890625
0, 4, 75, 290.5237121582031
0, 4, 76, 274.4556579589844
0, 4, 77, 279.1734008789062
0, 4, 78, 311.9913330078125
0, 4, 79, 319.3697204589844
0, 4, 80, 316.6926879882812
0, 4, 81, 311.4977111816406
0, 4, 82, 298.0939331054688
0, 4, 83, 301.0967407226562
0, 4, 84, 290.2950439453125
0, 4, 85, 296.3909912109375
0, 4, 86, 299.0818176269531
0, 4, 87, 284.5972595214844
0, 4, 88, 306.567138671875
0, 4, 89, 296.5147399902344
0, 4, 90, 332.2064514160156
0, 4, 91, 302.1319274902344
0, 4, 92, 291.8888244628906
0, 4, 93, 296.2751159667969
0, 4, 94, 292.9390258789062
0, 4, 95, 287.2855529785156
0, 4, 96, 325.4137878417969
0, 4, 97, 273.794921875
0, 4, 98, 326.888427734375
0, 4, 99, 315.7532958984375
0, 4, 100, 301.3246459960938
0, 4, 101, 256.2454528808594
0, 4, 102, 296.4984741210938
0, 4, 103, 316.7106018066406
0, 4, 104, 283.2186279296875
0, 4, 105, 313.038818359375
0, 4, 106, 289.3717956542969
0, 4, 107, 293.4995422363281
0, 4, 108, 225.5637969970703
0, 4, 109, 79.33011627197266
0, 4, 110, 15.75878238677979
0, 4, 111, 13.21147918701172
0, 4, 112, 9.199062347412109
0, 4, 113, 9.052136421203613
0, 4, 114, 9.409537315368652
0, 4, 115, 8.893911361694336
0, 4, 116, 8.88383674621582
0, 4, 117, 7.674461841583252
0, 4, 118, 8.908513069152832
0, 4, 119, 10.19241046905518
0, 4, 120, 4.620736122131348
0, 4, 121, 3.556587934494019
0, 4, 122, 3.578209161758423
0, 4, 123, 6.335584163665771
0, 4, 124, 4.331829071044922
0, 4, 125, 10.19262504577637
0, 4, 126, 6.039469718933105
0, 4, 127, 4.932819843292236
0, 5, 0, 3.978600025177002
0, 5, 1, 5.979651927947998
0, 5, 2, 5.265442371368408
0, 5, 3, 4.769290924072266
0, 5, 4, 4.220100402832031
0, 5, 5, 5.661030292510986
0, 5, 6, 4.604696273803711
0, 5, 7, 6.004030704498291
0, 5, 8, 6.754321098327637
0, 5, 9, 5.05620002746582
0, 5, 10, 8.766759872436523
0, 5, 11, 7.291250705718994
0, 5, 12, 7.205447196960449
0, 5, 13, 4.725518703460693
0, 5, 14, 12.61837196350098
0, 5, 15, 17.39636993408203
0, 5, 16, 15.05056095123291
0, 5, 17, 27.69268798828125
0, 5, 18, 140.1179656982422
0, 5, 19, 292.6204223632812
0, 5, 20, 306.7091064453125
0, 5, 21, 317.1096496582031
0, 5, 22, 276.9710693359375
0, 5, 23, 312.0504455566406
0, 5, 24, 301.6098022460938
0, 5, 25, 289.4464721679688
0, 5, 26, 295.3994445800781
0, 5, 27, 322.2467041015625
0, 5, 28, 302.8717956542969
0, 5, 29, 303.3848266601562
0, 5, 30, 325.0017395019531
0, 5, 31, 285.017578125
0, 5, 32, 303.2740783691406
0, 5, 33, 304.8646545410156
0, 5, 34, 296.5787963867188
0, 5, 35, 310.2994995117188
0, 5, 36, 269.4695434570312
0, 5, 37, 281.8852844238281
0, 5, 38, 291.9195556640625
0, 5, 39, 311.8894958496094
0, 5, 40, 310.1172790527344
0, 5, 41, 273.1153259277344
0, 5, 42, 308.0107116699219
0, 5, 43, 315.3978881835938
0, 5, 44, 291.9278564453125
0, 5, 45, 302.4836730957031
0, 5, 46, 264.8064575195312
0, 5, 47, 282.9705505371094
0, 5, 48, 294.2510070800781
0, 5, 49, 287.1852722167969
0, 5, 50, 295.2667541503906
0, 5, 51, 279.5842895507812
0, 5, 52, 268.69482421875
0, 5, 53, 284.792724609375
0, 5, 54, 292.5469055175781
0, 5, 55, 344.3628234863281
0, 5, 56, 305.0391235351562
0, 5, 57, 308.1651000976562
0, 5, 58, 315.5850524902344
0, 5, 59, 301.696533203125
0, 5, 60, 308.6592407226562
0, 5, 61, 281.3009033203125
0, 5, 62, 327.6809997558594
0, 5, 63, 294.7288208007812
0, 5, 64, 326.3416748046875
0, 5, 65, 307.228271484375
0, 5, 66, 329.2933044433594
0, 5, 67, 312.1677856445312
0, 5, 68, 308.7065124511719
0, 5, 69, 311.4845275878906
0, 5, 70, 300.142578125
0, 5, 71, 273.529052734375
0, 5, 72, 308.7015075683594
0, 5, 73, 302.9736938476562
0, 5, 74, 294.6251220703125
0, 5, 75, 294.3590087890625
0, 5, 76, 287.9930725097656
0, 5, 77, 299.9345092773438
0, 5, 78, 316.1376953125
0, 5, 79, 308.8778076171875
0, 5, 80, 294.8406066894531
0, 5, 81, 325.7169799804688
0, 5, 82, 325.7618103027344
0, 5, 83, 280.4671325683594
0, 5, 84, 300.4533081054688
0, 5, 85, 272.9724426269531
0, 5, 86, 326.3700561523438
0, 5, 87, 284.8706665039062
0, 5, 88, 313.0377807617188
0, 5, 89, 304.37158203125
0, 5, 90, 316.2433471679688
0, 5, 91, 315.2499694824219
0, 5, 92, 296.6552734375
0, 5, 93, 321.3230590820312
0, 5, 94, 308.4682922363281
0, 5, 95, 295.7987976074219
0, 5, 96, 298.1849365234375
0, 5, 97, 295.6042175292969
0, 5, 98, 318.2341003417969
0, 5, 99, 301.8179931640625
0, 5, 100, 289.6716918945312
0, 5, 101, 305.9957885742188
0, 5, 102, 292.9260559082031
0, 5, 103, 313.27587890625
0, 5, 104, 304.4486083984375
0, 5, 105, 290.1195068359375
0, 5, 106, 281.7301940917969
0, 5, 107, 292.7414245605469
0, 5, 108, 265.3681030273438
0, 5, 109, 157.0369720458984
0, 5, 110, 40.57118225097656
0, 5, 111, 21.38529777526855
0, 5, 112, 18.71569442749023
0, 5, 113, 15.12635040283203
0, 5, 114, 14.66347789764404
0, 5, 115, 7.728119373321533
0, 5, 116, 6.590858936309814
0, 5, 117, 6.566287517547607
0, 5, 118, 15.06423664093018
0, 5, 119, 4.932723045349121
0, 5, 120, 7.685887813568115
0, 5, 121, 8.75767993927002
0, 5, 122, 7.219929695129395
0, 5, 123, 5.291043758392334
0, 5, 124, 4.875519752502441
0, 5, 125, 3.86718487739563
0, 5, 126, 6.828459739685059
0, 5, 127, 3.769966602325439
0, 6, 0, 8.095451354980469
0, 6, 1, 3.790136098861694
0, 6, 2, 5.88408088684082
0, 6, 3, 5.815951824188232
0, 6, 4, 3.800653696060181
0, 6, 5, 5.425225257873535
0, 6, 6, 7.962863445281982
0, 6, 7, 5.006310939788818
0, 6, 8, 8.060822486877441
0, 6, 9, 6.246220111846924
0, 6, 10, 6.858127593994141
0, 6, 11, 8.276639938354492
0, 6, 12, 10.98837089538574
0, 6, 13, 14.13773250579834
0, 6, 14, 9.914185523986816
0, 6, 15, 16.41719436645508
0, 6, 16, 29.12120628356934
0, 6, 17, 55.87818908691406
0, 6, 18, 172.2726135253906
0, 6, 19, 275.8064575195312
0, 6, 20, 291.1308898925781
0, 6, 21, 314.6257629394531
0, 6, 22, 320.4739990234375
0, 6, 23, 305.7916259765625
0, 6, 24, 314.5845031738281
0, 6, 25, 315.8528747558594
0, 6, 26, 320.7057495117188
0, 6, 27, 330.9764709472656
0, 6, 28, 294.3870544433594
0, 6, 29, 328.5509338378906
0, 6, 30, 282.3805236816406
0, 6, 31, 285.3431701660156
0, 6, 32, 340.7105407714844
0, 6, 33, 301.4795532226562
0, 6, 34, 340.8720703125
0, 6, 35, 319.7655029296875
0, 6, 36, 272.5407104492188
0, 6, 37, 290.5447998046875
0, 6, 38, 312.3397521972656
0, 6, 39, 299.6815185546875
0, 6, 40, 281.6916198730469
0, 6, 41, 292.9917602539062
0, 6, 42, 303.0508117675781
0, 6, 43, 288.4845275878906
0, 6, 44, 280.232177734375
0, 6, 45, 320.4960632324219
0, 6, 46, 300.5074768066406
0, 6, 47, 333.5501098632812
0, 6, 48, 293.7300109863281
0, 6, 49, 311.4955444335938
0, 6, 50, 328.4220275878906
0, 6, 51, 311.0088195800781
0, 6, 52, 323.4442749023438
0, 6, 53, 328.4082946777344
0, 6, 54, 304.7586059570312
0, 6, 55, 305.6563720703125
0, 6, 56, 292.5607299804688
0, 6, 57, 311.6985778808594
0, 6, 58, 263.5664978027344
0, 6, 59, 302.4577026367188
0, 6, 60, 312.4149169921875
0, 6, 61, 272.1972961425781
0, 6, 62, 337.8324890136719
0, 6, 63, 324.3050537109375
0, 6, 64, 292.1035766601562
0, 6, 65, 284.9702453613281
0, 6, 66, 303.0806884765625
0, 6, 67, 309.2475891113281
0, 6, 68, 293.1797485351562
0, 6, 69, 279.9252624511719
0, 6, 70, 274.2362365722656
0, 6, 71, 290.6895751953125
0, 6, 72, 310.2594299316406
0, 6, 73, 293.2649230957031
0, 6, 74, 329.5189208984375
0, 6, 75, 342.5350036621094
0, 6, 76, 297.8202819824219
0, 6, 77, 287.3720397949219
0, 6, 78, 280.8048706054688
0, 6, 79, 292.726806640625
0, 6, 80, 300.0032958984375
0, 6, 81, 314.3724670410156
0, 6, 82, 318.2820434570312
0, 6, 83, 321.2580871582031
0, 6, 84, 299.3034057617188
0, 6, 85, 303.4108581542969
0, 6, 86, 328.8074951171875
0, 6, 87, 292.4723815917969
0, 6, 88, 306.4233093261719
0, 6, 89, 304.7621154785156
0, 6, 90, 298.4540100097656
0, 6, 91, 310.5407409667969
0, 6, 92, 284.56494140625
0, 6, 93, 294.9105224609375
0, 6, 94, 273.01611328125
0, 6, 95, 301.3922424316406
0, 6, 96, 349.2071838378906
0, 6, 97, 311.0755920410156
0, 6, 98, 303.703369140625
0, 6, 99, 272.1434020996094
0, 6, 100, 308.9228210449219
0, 6, 101, 294.1708984375
0, 6, 102, 305.3382568359375
0, 6, 103, 307.8304443359375
0, 6, 104, 292.1954040527344
0, 6, 105, 300.4143371582031
0, 6, 106, 308.1051330566406
0, 6, 107, 307.2240295410156
0, 6, 108, 266.4800720214844
0, 6, 109, 186.2944030761719
0, 6, 110, 57.17315673828125
0, 6, 111, 21.14753913879395
0, 6, 112, 14.42301940917969
0, 6, 113, 13.85608196258545
0, 6, 114, 12.4392614364624
0, 6, 115, 10.89203071594238
0, 6, 116, 11.38808441162109
0, 6, 117, 8.544201850891113
0, 6, 118, 9.567066192626953
0, 6, 119, 11.3098726272583
0, 6, 120, 4.900769710540771
0, 6, 121, 6.677512645721436
0, 6, 122, 6.327542304992676
0, 6, 123, 5.084986686706543
0, 6, 124, 7.652497291564941
0, 6, 125, 5.738052845001221
0, 6, 126, 4.313284397125244
0, 6, 127, 8.283509254455566
0, 7, 0, 3.978491306304932
0, 7, 1, 3.86116099357605
0, 7, 2, 5.759951591491699
0, 7, 3, 3.836943864822388
0, 7, 4, 3.460079431533813
0, 7, 5, 4.90390682220459
0, 7, 6, 7.298941612243652
0, 7, 7, 6.061398983001709
0, 7, 8, 5.285761833190918
0, 7, 9, 5.98119068145752
0, 7, 10, 7.471072196960449
0, 7, 11, 12.11855697631836
0, 7, 12, 12.00574398040771
0, 7, 13, 12.18465614318848
0, 7, 14, 9.56320858001709
0, 7, 15, 15.97000885009766
0, 7, 16, 28.17109107971191
0, 7, 17, 98.86644744873047
0, 7, 18, 217.1900482177734
0, 7, 19, 289.2840270996094
0, 7, 20, 296.8877868652344
0, 7, 21, 277.5289916992188
0, 7, 22, 297.9859313964844
0, 7, 23, 288.5398254394531
0, 7, 24, 315.3605346679688
0, 7, 25, 323.6090393066406
0, 7, 26, 276.7095336914062
0, 7, 27, 300.7459716796875
0, 7, 28, 329.4844970703125
0, 7, 29, 319.0471801757812
0, 7, 30, 298.9602966308594
0, 7, 31, 276.225830078125
0, 7, 32, 305.3849487304688
0, 7, 33, 260.9840698242188
0, 7, 34, 299.3935852050781
0, 7, 35, 320.1422729492188
0, 7, 36, 332.3491821289062
0, 7, 37, 325.4601135253906
0, 7, 38, 298.3461608886719
0, 7, 39, 307.9235229492188
0, 7, 40, 288.7091674804688
0, 7, 41, 273.4488220214844
0, 7, 42, 300.6091003417969
0, 7, 43, 276.3890686035156
0, 7, 44, 304.36767578125
0, 7, 45, 295.1369934082031
0, 7, 46, 283.8783569335938
0, 7, 47, 331.3755798339844
0, 7, 48, 285.1518249511719
0, 7, 49, 301.3035278320312
0, 7, 50, 320.4333190917969
0, 7, 51, 298.6525573730469
0, 7, 52, 328.4597473144531
0, 7, 53, 311.9433898925781
0, 7, 54, 326.9902038574219
0, 7, 55, 308.2399291992188
0, 7, 56, 278.2327880859375
0, 7, 57, 284.750244140625
0, 7, 58, 296.3879699707031
0, 7, 59, 295.8938903808594
0, 7, 60, 322.1239013671875
0, 7, 61, 278.0733642578125
0, 7, 62, 298.3668823242188
0, 7, 63, 293.8822326660156
0, 7, 64, 306.3883361816406
0, 7, 65, 330.7696838378906
0, 7, 66, 318.2562561035156
0, 7, 67, 301.7572937011719
0, 7, 68, 281.5091552734375
0, 7, 69, 292.78466796875
0, 7, 70, 302.0371398925781
0, 7, 71, 309.4360656738281
0, 7, 72, 287.2610168457031
0, 7, 73, 296.5916748046875
0, 7, 74, 343.7502136230469
0, 7, 75, 320.038818359375
0, 7, 76, 322.5081787109375
0, 7, 77, 280.5072631835938
0, 7, 78, 301.2392272949219
0, 7, 79, 299.5822448730469
0, 7, 80, 309.966796875
0, 7, 81, 321.2295227050781
0, 7, 82, 328.6736755371094
0, 7, 83, 319.7382202148438
0, 7, 84, 309.3102111816406
0, 7, 85, 271.33447265625
0, 7, 86, 311.5371704101562
0, 7, 87, 310.8954772949219
0, 7, 88, 307.5466003417969
0, 7, 89, 294.6650695800781
0, 7, 90, 307.5328369140625
0, 7, 91, 315.766357421875
0, 7, 92, 292.038330078125
0, 7, 93, 308.33056640625
0, 7, 94, 275.5672912597656
0, 7, 95, 297.6685180664062
0, 7, 96, 330.7521057128906
0, 7, 97, 293.5861206054688
0, 7, 98, 290.5591430664062
0, 7, 99, 313.23291015625
0, 7, 100, 281.308837890625
0, 7, 101, 275.9096374511719
0, 7, 102, 290.1645202636719
0, 7, 103, 292.7943115234375
0, 7, 104, 274.7920532226562
0, 7, 105, 306.4714660644531
0, 7, 106, 317.7525329589844
0, 7, 107, 296.6070556640625
0, 7, 108, 273.1848754882812
0, 7, 109, 236.2060089111328
0, 7, 110, 97.07192993164062
0, 7, 111, 24.12603378295898
0, 7, 112, 14.71301174163818
0, 7, 113, 14.7267484664917
0, 7, 114, 13.84084415435791
0, 7, 115, 13.38837718963623
0, 7, 116, 11.00004386901855
0, 7, 117, 10.37404155731201
0, 7, 118, 8.763113975524902
0, 7, 119, 5.535538196563721
0, 7, 120, 5.186873435974121
0, 7, 121, 5.44016170501709
0, 7, 122, 6.318263530731201
0, 7, 123, 6.244081497192383
0, 7, 124, 4.225380897521973
0, 7, 125, 5.928240776062012
0, 7, 126, 8.5018310546875
0, 7, 127, 1.606479644775391
0, 8, 0, 4.523995876312256
0, 8, 1, 4.058860778808594
0, 8, 2, 4.496210098266602
0, 8, 3, 3.762033939361572
0, 8, 4, 3.412298917770386
0, 8, 5, 4.894566535949707
0, 8, 6, 7.520525455474854
0, 8, 7, 5.607489585876465
0, 8, 8, 8.475078582763672
0, 8, 9, 4.624197006225586
0, 8, 10, 6.939087390899658
0, 8, 11, 13.38818359375
0, 8, 12, 16.51676750183105
0, 8, 13, 14.27162170410156
0, 8, 14, 13.62760448455811
0, 8, 15, 18.60923004150391
0, 8, 16, 33.69196701049805
0, 8, 17, 129.5339050292969
0, 8, 18, 245.740966796875
0, 8, 19, 296.264892578125
0, 8, 20, 284.3211364746094
0, 8, 21, 306.5085754394531
0, 8, 22, 294.6752014160156
0, 8, 23, 275.4026184082031
0, 8, 24, 269.0238647460938
0, 8, 25, 274.6909790039062
0, 8, 26, 305.7170715332031
0, 8, 27, 307.1661376953125
0, 8, 28, 302.7276916503906
0, 8, 29, 318.2847290039062
0, 8, 30, 315.672607421875
0, 8, 31, 304.6286010742188
0, 8, 32, 280.7411499023438
0, 8, 33, 295.3825988769531
0, 8, 34, 289.1633605957031
0, 8, 35, 280.05224609375
0, 8, 36, 315.8558959960938
0, 8, 37, 338.3741149902344
0, 8, 38, 331.5101623535156
0, 8, 39, 281.1220092773438
