# TOPAS Version: 3.1.p3
# Parameter File: batch_inserts_222.txt
# Results for scorer Readout_Adipose
# Scored in component: MyBox
# X in 1 bin  of 0.75 cm
# Y in 512 bins of 0.0783984 cm
# Z in 128 bins of 0.078125 cm
# EnergyDeposit ( MeV ) : Sum   
0, 0, 0, 16.21483421325684
0, 0, 1, 18.93205642700195
0, 0, 2, 28.17658615112305
0, 0, 3, 25.58651542663574
0, 0, 4, 19.68392562866211
0, 0, 5, 24.83413505554199
0, 0, 6, 25.23693656921387
0, 0, 7, 34.14795303344727
0, 0, 8, 19.27363395690918
0, 0, 9, 20.75999069213867
0, 0, 10, 23.95539855957031
0, 0, 11, 29.2052173614502
0, 0, 12, 35.85395431518555
0, 0, 13, 30.25316047668457
0, 0, 14, 38.79342269897461
0, 0, 15, 46.71643829345703
0, 0, 16, 47.74990844726562
0, 0, 17, 47.37154006958008
0, 0, 18, 75.56538391113281
0, 0, 19, 188.2506103515625
0, 0, 20, 702.827392578125
0, 0, 21, 1191.392211914062
0, 0, 22, 1251.414184570312
0, 0, 23, 1279.050903320312
0, 0, 24, 1280.3681640625
0, 0, 25, 1358.683959960938
0, 0, 26, 1272.656005859375
0, 0, 27, 1277.185668945312
0, 0, 28, 1321.344116210938
0, 0, 29, 1270.972534179688
0, 0, 30, 1263.708862304688
0, 0, 31, 1281.34228515625
0, 0, 32, 1262.262573242188
0, 0, 33, 1241.247192382812
0, 0, 34, 1324.015380859375
0, 0, 35, 1299.826049804688
0, 0, 36, 1245.988647460938
0, 0, 37, 1284.4091796875
0, 0, 38, 1246.131591796875
0, 0, 39, 1248.02294921875
0, 0, 40, 1225.657958984375
0, 0, 41, 1266.087890625
0, 0, 42, 1253.14794921875
0, 0, 43, 1269.176391601562
0, 0, 44, 1227.7578125
0, 0, 45, 1286.442260742188
0, 0, 46, 1260.953125
0, 0, 47, 1237.614501953125
0, 0, 48, 1273.35498046875
0, 0, 49, 1285.125732421875
0, 0, 50, 1309.621459960938
0, 0, 51, 1267.441772460938
0, 0, 52, 1356.758178710938
0, 0, 53, 1328.096069335938
0, 0, 54, 1298.60546875
0, 0, 55, 1230.795776367188
0, 0, 56, 1318.937377929688
0, 0, 57, 1289.529296875
0, 0, 58, 1255.149047851562
0, 0, 59, 1332.010498046875
0, 0, 60, 1325.445434570312
0, 0, 61, 1261.75390625
0, 0, 62, 1241.860107421875
0, 0, 63, 1278.39404296875
0, 0, 64, 1331.685668945312
0, 0, 65, 1284.672241210938
0, 0, 66, 1319.346435546875
0, 0, 67, 1217.139404296875
0, 0, 68, 1315.890502929688
0, 0, 69, 1331.02880859375
0, 0, 70, 1344.900512695312
0, 0, 71, 1286.652099609375
0, 0, 72, 1312.43994140625
0, 0, 73, 1237.63916015625
0, 0, 74, 1293.915893554688
0, 0, 75, 1295.7861328125
0, 0, 76, 1256.461059570312
0, 0, 77, 1282.722900390625
0, 0, 78, 1315.271606445312
0, 0, 79, 1327.365844726562
0, 0, 80, 1257.4736328125
0, 0, 81, 1321.328491210938
0, 0, 82, 1282.849487304688
0, 0, 83, 1289.24853515625
0, 0, 84, 1327.209594726562
0, 0, 85, 1231.166137695312
0, 0, 86, 1265.763549804688
0, 0, 87, 1253.851196289062
0, 0, 88, 1255.990234375
0, 0, 89, 1335.264404296875
0, 0, 90, 1277.786987304688
0, 0, 91, 1358.5947265625
0, 0, 92, 1306.503784179688
0, 0, 93, 1271.1142578125
0, 0, 94, 1243.813110351562
0, 0, 95, 1326.080078125
0, 0, 96, 1282.99169921875
0, 0, 97, 1325.403076171875
0, 0, 98, 1257.491088867188
0, 0, 99, 1248.307373046875
0, 0, 100, 1284.60009765625
0, 0, 101, 1318.58984375
0, 0, 102, 1230.8349609375
0, 0, 103, 1322.45361328125
0, 0, 104, 1260.509887695312
0, 0, 105, 1270.382446289062
0, 0, 106, 1211.848266601562
0, 0, 107, 780.8054809570312
0, 0, 108, 192.1330261230469
0, 0, 109, 67.27280426025391
0, 0, 110, 62.41854476928711
0, 0, 111, 39.91167068481445
0, 0, 112, 35.52745056152344
0, 0, 113, 29.84720420837402
0, 0, 114, 33.05888366699219
0, 0, 115, 31.18778991699219
0, 0, 116, 26.73600196838379
0, 0, 117, 34.19557952880859
0, 0, 118, 30.34256744384766
0, 0, 119, 22.45644950866699
0, 0, 120, 24.93544578552246
0, 0, 121, 30.76707649230957
0, 0, 122, 23.65847206115723
0, 0, 123, 20.54311752319336
0, 0, 124, 19.28671646118164
0, 0, 125, 18.35914421081543
0, 0, 126, 24.1951847076416
0, 0, 127, 15.21585369110107
0, 1, 0, 22.15103340148926
0, 1, 1, 19.30157279968262
0, 1, 2, 25.92732048034668
0, 1, 3, 23.92311859130859
0, 1, 4, 26.87680053710938
0, 1, 5, 30.48089981079102
0, 1, 6, 24.54629707336426
0, 1, 7, 27.26479339599609
0, 1, 8, 35.64931106567383
0, 1, 9, 30.81970405578613
0, 1, 10, 34.77943801879883
0, 1, 11, 39.77701187133789
0, 1, 12, 38.97801971435547
0, 1, 13, 40.26944351196289
0, 1, 14, 42.34281921386719
0, 1, 15, 47.41547012329102
0, 1, 16, 57.40206909179688
0, 1, 17, 59.29350662231445
0, 1, 18, 95.78347015380859
0, 1, 19, 396.8800964355469
0, 1, 20, 1044.0458984375
0, 1, 21, 1374.861938476562
0, 1, 22, 1479.043823242188
0, 1, 23, 1460.37646484375
0, 1, 24, 1452.45361328125
0, 1, 25, 1421.449951171875
0, 1, 26, 1478.1767578125
0, 1, 27, 1463.540283203125
0, 1, 28, 1486.796142578125
0, 1, 29, 1474.919189453125
0, 1, 30, 1508.403564453125
0, 1, 31, 1486.698852539062
0, 1, 32, 1409.143310546875
0, 1, 33, 1496.968017578125
0, 1, 34, 1500.290405273438
0, 1, 35, 1463.085815429688
0, 1, 36, 1486.85302734375
0, 1, 37, 1409.495849609375
0, 1, 38, 1390.083251953125
0, 1, 39, 1524.927368164062
0, 1, 40, 1462.399780273438
0, 1, 41, 1488.75048828125
0, 1, 42, 1495.486694335938
0, 1, 43, 1500.952880859375
0, 1, 44, 1449.852172851562
0, 1, 45, 1482.939819335938
0, 1, 46, 1418.066772460938
0, 1, 47, 1438.461669921875
0, 1, 48, 1423.794067382812
0, 1, 49, 1488.317993164062
0, 1, 50, 1437.363647460938
0, 1, 51, 1474.282592773438
0, 1, 52, 1477.486572265625
0, 1, 53, 1473.938110351562
0, 1, 54, 1504.60693359375
0, 1, 55, 1493.368896484375
0, 1, 56, 1473.48828125
0, 1, 57, 1455.399780273438
0, 1, 58, 1432.354614257812
0, 1, 59, 1478.84130859375
0, 1, 60, 1468.400634765625
0, 1, 61, 1454.311767578125
0, 1, 62, 1456.184204101562
0, 1, 63, 1415.273681640625
0, 1, 64, 1474.22900390625
0, 1, 65, 1419.806762695312
0, 1, 66, 1438.990234375
0, 1, 67, 1458.00146484375
0, 1, 68, 1387.687622070312
0, 1, 69, 1458.720336914062
0, 1, 70, 1432.458862304688
0, 1, 71, 1492.158447265625
0, 1, 72, 1432.02783203125
0, 1, 73, 1490.283081054688
0, 1, 74, 1468.333618164062
0, 1, 75, 1476.476318359375
0, 1, 76, 1462.261352539062
0, 1, 77, 1464.18408203125
0, 1, 78, 1444.944580078125
0, 1, 79, 1499.963134765625
0, 1, 80, 1451.937133789062
0, 1, 81, 1425.914916992188
0, 1, 82, 1471.449462890625
0, 1, 83, 1459.318725585938
0, 1, 84, 1536.5263671875
0, 1, 85, 1451.541137695312
0, 1, 86, 1410.888793945312
0, 1, 87, 1417.25537109375
0, 1, 88, 1472.654052734375
0, 1, 89, 1472.045776367188
0, 1, 90, 1427.432250976562
0, 1, 91, 1467.547241210938
0, 1, 92, 1412.918212890625
0, 1, 93, 1461.3125
0, 1, 94, 1469.016845703125
0, 1, 95, 1422.37939453125
0, 1, 96, 1496.265380859375
0, 1, 97, 1513.002197265625
0, 1, 98, 1473.626586914062
0, 1, 99, 1424.219970703125
0, 1, 100, 1449.474975585938
0, 1, 101, 1415.181518554688
0, 1, 102, 1443.731201171875
0, 1, 103, 1412.171508789062
0, 1, 104, 1407.22705078125
0, 1, 105, 1461.108276367188
0, 1, 106, 1365.307861328125
0, 1, 107, 1019.686218261719
0, 1, 108, 403.3935852050781
0, 1, 109, 93.46795654296875
0, 1, 110, 62.91884613037109
0, 1, 111, 55.31913375854492
0, 1, 112, 45.18753433227539
0, 1, 113, 42.11356735229492
0, 1, 114, 36.03202438354492
0, 1, 115, 34.37813186645508
0, 1, 116, 35.42482376098633
0, 1, 117, 39.57026672363281
0, 1, 118, 34.74514770507812
0, 1, 119, 28.22092628479004
0, 1, 120, 28.5712718963623
0, 1, 121, 28.84762382507324
0, 1, 122, 18.4776725769043
0, 1, 123, 25.5067253112793
0, 1, 124, 31.38571548461914
0, 1, 125, 23.67571830749512
0, 1, 126, 17.38248634338379
0, 1, 127, 29.19533729553223
0, 2, 0, 22.3497257232666
0, 2, 1, 23.40382194519043
0, 2, 2, 18.58265495300293
0, 2, 3, 22.89146614074707
0, 2, 4, 22.88809204101562
0, 2, 5, 27.02193832397461
0, 2, 6, 23.69458389282227
0, 2, 7, 19.28691482543945
0, 2, 8, 29.87665748596191
0, 2, 9, 27.52957916259766
0, 2, 10, 30.44840812683105
0, 2, 11, 30.44931221008301
0, 2, 12, 37.15170288085938
0, 2, 13, 48.19051742553711
0, 2, 14, 49.30290985107422
0, 2, 15, 52.08382797241211
0, 2, 16, 61.66076278686523
0, 2, 17, 78.31047821044922
0, 2, 18, 145.4212036132812
0, 2, 19, 603.0924682617188
0, 2, 20, 1284.433959960938
0, 2, 21, 1433.294677734375
0, 2, 22, 1460.687866210938
0, 2, 23, 1408.246948242188
0, 2, 24, 1442.3203125
0, 2, 25, 1521.313842773438
0, 2, 26, 1552.476684570312
0, 2, 27, 1457.984375
0, 2, 28, 1459.944213867188
0, 2, 29, 1459.94482421875
0, 2, 30, 1466.469848632812
0, 2, 31, 1534.728271484375
0, 2, 32, 1511.174682617188
0, 2, 33, 1445.648681640625
0, 2, 34, 1472.399047851562
0, 2, 35, 1468.181640625
0, 2, 36, 1525.729125976562
0, 2, 37, 1542.606201171875
0, 2, 38, 1510.245727539062
0, 2, 39, 1466.418823242188
0, 2, 40, 1500.392211914062
0, 2, 41, 1516.2861328125
0, 2, 42, 1505.726196289062
0, 2, 43, 1547.63037109375
0, 2, 44, 1456.932983398438
0, 2, 45, 1480.242065429688
0, 2, 46, 1425.451293945312
0, 2, 47, 1446.91357421875
0, 2, 48, 1397.709350585938
0, 2, 49, 1457.816040039062
0, 2, 50, 1444.83935546875
0, 2, 51, 1447.241333007812
0, 2, 52, 1494.739013671875
0, 2, 53, 1520.1181640625
0, 2, 54, 1527.780151367188
0, 2, 55, 1495.83251953125
0, 2, 56, 1462.431274414062
0, 2, 57, 1412.324340820312
0, 2, 58, 1457.63916015625
0, 2, 59, 1450.29052734375
0, 2, 60, 1471.797607421875
0, 2, 61, 1449.14697265625
0, 2, 62, 1473.410034179688
0, 2, 63, 1508.257080078125
0, 2, 64, 1456.225830078125
0, 2, 65, 1427.26220703125
0, 2, 66, 1485.958251953125
0, 2, 67, 1502.732055664062
0, 2, 68, 1545.994750976562
0, 2, 69, 1538.572875976562
0, 2, 70, 1504.623901367188
0, 2, 71, 1464.5576171875
0, 2, 72, 1516.7841796875
0, 2, 73, 1522.160400390625
0, 2, 74, 1494.468872070312
0, 2, 75, 1500.711669921875
0, 2, 76, 1451.764892578125
0, 2, 77, 1508.194091796875
0, 2, 78, 1432.865234375
0, 2, 79, 1538.274047851562
0, 2, 80, 1476.321044921875
0, 2, 81, 1464.333862304688
0, 2, 82, 1560.703491210938
0, 2, 83, 1516.635620117188
0, 2, 84, 1488.807495117188
0, 2, 85, 1515.472534179688
0, 2, 86, 1540.346557617188
0, 2, 87, 1489.323364257812
0, 2, 88, 1540.902221679688
0, 2, 89, 1468.518798828125
0, 2, 90, 1427.513305664062
0, 2, 91, 1404.0712890625
0, 2, 92, 1478.645385742188
0, 2, 93, 1496.826416015625
0, 2, 94, 1450.9482421875
0, 2, 95, 1546.943969726562
0, 2, 96, 1518.41796875
0, 2, 97, 1453.551391601562
0, 2, 98, 1464.8603515625
0, 2, 99, 1403.917602539062
0, 2, 100, 1473.182006835938
0, 2, 101, 1479.11376953125
0, 2, 102, 1462.48828125
0, 2, 103, 1388.912109375
0, 2, 104, 1415.864624023438
0, 2, 105, 1397.738403320312
0, 2, 106, 1458.492797851562
0, 2, 107, 1275.269287109375
0, 2, 108, 619.9432373046875
0, 2, 109, 177.0396575927734
0, 2, 110, 65.13280487060547
0, 2, 111, 61.77710723876953
0, 2, 112, 43.91399765014648
0, 2, 113, 44.49066543579102
0, 2, 114, 40.55346298217773
0, 2, 115, 43.68153762817383
0, 2, 116, 32.6421012878418
0, 2, 117, 39.53279876708984
0, 2, 118, 30.75260734558105
0, 2, 119, 35.36664581298828
0, 2, 120, 30.7116527557373
0, 2, 121, 19.5119743347168
0, 2, 122, 26.08505249023438
0, 2, 123, 19.86650848388672
0, 2, 124, 22.94409561157227
0, 2, 125, 33.43304061889648
0, 2, 126, 20.2707462310791
0, 2, 127, 22.85863876342773
0, 3, 0, 15.84716796875
0, 3, 1, 22.41410827636719
0, 3, 2, 25.37113189697266
0, 3, 3, 23.73805809020996
0, 3, 4, 16.13830757141113
0, 3, 5, 27.28642463684082
0, 3, 6, 31.6936206817627
0, 3, 7, 30.87432479858398
0, 3, 8, 28.96736526489258
0, 3, 9, 26.41984176635742
0, 3, 10, 35.16998672485352
0, 3, 11, 40.05223083496094
0, 3, 12, 42.64923477172852
0, 3, 13, 52.13297653198242
0, 3, 14, 61.34101486206055
0, 3, 15, 58.51810836791992
0, 3, 16, 71.90501403808594
0, 3, 17, 92.46918487548828
0, 3, 18, 240.3814849853516
0, 3, 19, 879.3535766601562
0, 3, 20, 1380.828369140625
0, 3, 21, 1506.144653320312
0, 3, 22, 1464.961669921875
0, 3, 23, 1452.39990234375
0, 3, 24, 1445.164306640625
0, 3, 25, 1462.837280273438
0, 3, 26, 1495.02490234375
0, 3, 27, 1466.08349609375
0, 3, 28, 1486.517944335938
0, 3, 29, 1545.525634765625
0, 3, 30, 1569.757934570312
0, 3, 31, 1509.431274414062
0, 3, 32, 1547.535278320312
0, 3, 33, 1541.360229492188
0, 3, 34, 1488.201538085938
0, 3, 35, 1464.85888671875
0, 3, 36, 1449.550903320312
0, 3, 37, 1510.842163085938
0, 3, 38, 1518.008178710938
0, 3, 39, 1440.474731445312
0, 3, 40, 1441.520874023438
0, 3, 41, 1564.05859375
0, 3, 42, 1459.801025390625
0, 3, 43, 1452.851806640625
0, 3, 44, 1451.823486328125
0, 3, 45, 1509.440795898438
0, 3, 46, 1507.115112304688
0, 3, 47, 1448.239868164062
0, 3, 48, 1510.346313476562
0, 3, 49, 1450.2099609375
0, 3, 50, 1488.916748046875
0, 3, 51, 1532.867309570312
0, 3, 52, 1534.706909179688
0, 3, 53, 1466.328125
0, 3, 54, 1540.658813476562
0, 3, 55, 1504.429443359375
0, 3, 56, 1435.101440429688
0, 3, 57, 1502.721313476562
0, 3, 58, 1516.564697265625
0, 3, 59, 1512.041137695312
0, 3, 60, 1531.066284179688
0, 3, 61, 1483.792846679688
0, 3, 62, 1492.968994140625
0, 3, 63, 1493.343872070312
0, 3, 64, 1498.996215820312
0, 3, 65, 1515.1416015625
0, 3, 66, 1557.22802734375
0, 3, 67, 1541.168212890625
0, 3, 68, 1448.249633789062
0, 3, 69, 1462.247802734375
0, 3, 70, 1386.1259765625
0, 3, 71, 1462.53662109375
0, 3, 72, 1544.406616210938
0, 3, 73, 1498.518188476562
0, 3, 74, 1465.600341796875
0, 3, 75, 1462.093994140625
0, 3, 76, 1575.3701171875
0, 3, 77, 1542.084716796875
0, 3, 78, 1426.857177734375
0, 3, 79, 1488.459594726562
0, 3, 80, 1462.365844726562
0, 3, 81, 1474.884521484375
0, 3, 82, 1557.77783203125
0, 3, 83, 1514.94189453125
0, 3, 84, 1561.450439453125
0, 3, 85, 1479.661865234375
0, 3, 86, 1523.005615234375
0, 3, 87, 1541.07470703125
0, 3, 88, 1460.248168945312
0, 3, 89, 1453.2373046875
0, 3, 90, 1451.520141601562
0, 3, 91, 1417.4912109375
0, 3, 92, 1514.503295898438
0, 3, 93, 1501.720336914062
0, 3, 94, 1519.642578125
0, 3, 95, 1543.486450195312
0, 3, 96, 1513.851928710938
0, 3, 97, 1467.1982421875
0, 3, 98, 1434.840942382812
0, 3, 99, 1464.364624023438
0, 3, 100, 1465.776123046875
0, 3, 101, 1475.288208007812
0, 3, 102, 1522.639282226562
0, 3, 103, 1553.781982421875
0, 3, 104, 1495.1220703125
0, 3, 105, 1517.388916015625
0, 3, 106, 1478.270874023438
0, 3, 107, 1345.09326171875
0, 3, 108, 874.2138061523438
0, 3, 109, 266.6172180175781
0, 3, 110, 103.2435531616211
0, 3, 111, 63.89240264892578
0, 3, 112, 60.570068359375
0, 3, 113, 51.64253234863281
0, 3, 114, 52.09339141845703
0, 3, 115, 46.32649230957031
0, 3, 116, 37.87225723266602
0, 3, 117, 38.57397079467773
0, 3, 118, 33.26269149780273
0, 3, 119, 29.0726318359375
0, 3, 120, 26.77750587463379
0, 3, 121, 18.17212867736816
0, 3, 122, 23.70603942871094
0, 3, 123, 23.13362312316895
0, 3, 124, 24.7080078125
0, 3, 125, 27.77128601074219
0, 3, 126, 20.63057327270508
0, 3, 127, 21.10153579711914
0, 4, 0, 18.69952583312988
0, 4, 1, 25.01045417785645
0, 4, 2, 20.03586387634277
0, 4, 3, 25.01030921936035
0, 4, 4, 30.02036666870117
0, 4, 5, 32.00217056274414
0, 4, 6, 30.95510292053223
0, 4, 7, 28.48118591308594
0, 4, 8, 27.14096641540527
0, 4, 9, 35.10350036621094
0, 4, 10, 32.03921127319336
0, 4, 11, 38.06256103515625
0, 4, 12, 44.74289703369141
0, 4, 13, 54.50437164306641
0, 4, 14, 47.97782516479492
0, 4, 15, 64.23690032958984
0, 4, 16, 70.22540283203125
0, 4, 17, 117.2839889526367
0, 4, 18, 447.6856689453125
0, 4, 19, 1189.776733398438
0, 4, 20, 1445.61181640625
0, 4, 21, 1420.572265625
0, 4, 22, 1431.150756835938
0, 4, 23, 1450.03271484375
0, 4, 24, 1475.625610351562
0, 4, 25, 1405.137939453125
0, 4, 26, 1534.792602539062
0, 4, 27, 1550.02880859375
0, 4, 28, 1514.930419921875
0, 4, 29, 1520.220336914062
0, 4, 30, 1529.030883789062
0, 4, 31, 1579.725341796875
0, 4, 32, 1515.399658203125
0, 4, 33, 1497.260620117188
0, 4, 34, 1467.831298828125
0, 4, 35, 1559.140502929688
0, 4, 36, 1498.473754882812
0, 4, 37, 1513.551513671875
0, 4, 38, 1532.283569335938
0, 4, 39, 1471.010498046875
0, 4, 40, 1517.372924804688
0, 4, 41, 1589.140869140625
0, 4, 42, 1563.827026367188
0, 4, 43, 1476.117065429688
0, 4, 44, 1496.299682617188
0, 4, 45, 1513.960205078125
0, 4, 46, 1469.638916015625
0, 4, 47, 1501.985473632812
0, 4, 48, 1527.678466796875
0, 4, 49, 1478.451049804688
0, 4, 50, 1516.279296875
0, 4, 51, 1493.784423828125
0, 4, 52, 1492.23681640625
0, 4, 53, 1455.736938476562
0, 4, 54, 1443.68212890625
0, 4, 55, 1529.982299804688
0, 4, 56, 1453.901489257812
0, 4, 57, 1496.886596679688
0, 4, 58, 1462.217651367188
0, 4, 59, 1462.221923828125
0, 4, 60, 1523.537719726562
0, 4, 61, 1498.439575195312
0, 4, 62, 1499.338745117188
0, 4, 63, 1547.31689453125
0, 4, 64, 1596.624145507812
0, 4, 65, 1423.949096679688
0, 4, 66, 1514.201904296875
0, 4, 67, 1519.022094726562
0, 4, 68, 1497.91943359375
0, 4, 69, 1470.85546875
0, 4, 70, 1541.881713867188
0, 4, 71, 1514.973266601562
0, 4, 72, 1531.355590820312
0, 4, 73, 1498.926635742188
0, 4, 74, 1486.94775390625
0, 4, 75, 1537.962768554688
0, 4, 76, 1483.040161132812
0, 4, 77, 1496.909790039062
0, 4, 78, 1502.794921875
0, 4, 79, 1488.421875
0, 4, 80, 1513.783569335938
0, 4, 81, 1528.630981445312
0, 4, 82, 1567.31494140625
0, 4, 83, 1501.625244140625
0, 4, 84, 1536.8330078125
0, 4, 85, 1550.448852539062
0, 4, 86, 1526.190673828125
0, 4, 87, 1499.816772460938
0, 4, 88, 1510.703979492188
0, 4, 89, 1477.742553710938
0, 4, 90, 1542.539428710938
0, 4, 91, 1552.0732421875
0, 4, 92, 1491.1396484375
0, 4, 93, 1515.638305664062
0, 4, 94, 1487.474731445312
0, 4, 95, 1507.866943359375
0, 4, 96, 1441.912841796875
0, 4, 97, 1408.644653320312
0, 4, 98, 1554.045532226562
0, 4, 99, 1512.144409179688
0, 4, 100, 1489.985107421875
0, 4, 101, 1446.898193359375
0, 4, 102, 1448.497924804688
0, 4, 103, 1512.766357421875
0, 4, 104, 1511.345581054688
0, 4, 105, 1555.499633789062
0, 4, 106, 1476.6669921875
0, 4, 107, 1457.677001953125
0, 4, 108, 1118.974731445312
0, 4, 109, 434.7530822753906
0, 4, 110, 96.86258697509766
0, 4, 111, 67.27664947509766
0, 4, 112, 65.68426513671875
0, 4, 113, 49.76716232299805
0, 4, 114, 54.15137481689453
0, 4, 115, 44.00392913818359
0, 4, 116, 36.71217727661133
0, 4, 117, 42.72000885009766
0, 4, 118, 42.71545028686523
0, 4, 119, 39.42261505126953
0, 4, 120, 39.76362609863281
0, 4, 121, 29.64764022827148
0, 4, 122, 30.86083221435547
0, 4, 123, 28.85948753356934
0, 4, 124, 22.33951759338379
0, 4, 125, 29.02720832824707
0, 4, 126, 24.09047698974609
0, 4, 127, 19.32409858703613
0, 5, 0, 24.62009811401367
0, 5, 1, 26.88016510009766
0, 5, 2, 27.56497001647949
0, 5, 3, 25.09581184387207
0, 5, 4, 20.41974258422852
0, 5, 5, 34.58422088623047
0, 5, 6, 28.02609252929688
0, 5, 7, 31.17609214782715
0, 5, 8, 33.51502227783203
0, 5, 9, 32.06572341918945
0, 5, 10, 35.3994026184082
0, 5, 11, 37.00615692138672
0, 5, 12, 39.8517951965332
0, 5, 13, 46.58638763427734
0, 5, 14, 60.24253463745117
0, 5, 15, 76.63111114501953
0, 5, 16, 82.286865234375
0, 5, 17, 153.2185211181641
0, 5, 18, 672.6928100585938
0, 5, 19, 1345.547973632812
0, 5, 20, 1529.408935546875
0, 5, 21, 1495.36767578125
0, 5, 22, 1495.288452148438
0, 5, 23, 1530.614868164062
0, 5, 24, 1461.997924804688
0, 5, 25, 1426.686157226562
0, 5, 26, 1529.200927734375
0, 5, 27, 1541.857421875
0, 5, 28, 1483.558959960938
0, 5, 29, 1519.428344726562
0, 5, 30, 1494.659790039062
0, 5, 31, 1498.261108398438
0, 5, 32, 1595.378784179688
0, 5, 33, 1505.178588867188
0, 5, 34, 1488.149658203125
0, 5, 35, 1511.4638671875
0, 5, 36, 1440.114135742188
0, 5, 37, 1531.284301757812
0, 5, 38, 1548.332885742188
0, 5, 39, 1546.957763671875
0, 5, 40, 1496.818481445312
0, 5, 41, 1478.720458984375
0, 5, 42, 1542.484375
0, 5, 43, 1530.1826171875
0, 5, 44, 1548.67333984375
0, 5, 45, 1506.54736328125
0, 5, 46, 1492.25244140625
0, 5, 47, 1482.923217773438
0, 5, 48, 1499.917846679688
0, 5, 49, 1528.003051757812
0, 5, 50, 1504.162841796875
0, 5, 51, 1520.399658203125
0, 5, 52, 1427.71728515625
0, 5, 53, 1520.943969726562
0, 5, 54, 1517.042846679688
0, 5, 55, 1520.002197265625
0, 5, 56, 1490.143310546875
0, 5, 57, 1543.118408203125
0, 5, 58, 1509.064208984375
0, 5, 59, 1492.292602539062
0, 5, 60, 1535.093872070312
0, 5, 61, 1458.384765625
0, 5, 62, 1584.214599609375
0, 5, 63, 1436.033203125
0, 5, 64, 1489.037109375
0, 5, 65, 1470.857177734375
0, 5, 66, 1527.313598632812
0, 5, 67, 1561.62255859375
0, 5, 68, 1461.455322265625
0, 5, 69, 1488.167358398438
0, 5, 70, 1492.90576171875
0, 5, 71, 1471.206665039062
0, 5, 72, 1537.136596679688
0, 5, 73, 1460.373413085938
0, 5, 74, 1491.064453125
0, 5, 75, 1491.802124023438
0, 5, 76, 1478.7529296875
0, 5, 77, 1522.386596679688
0, 5, 78, 1525.897094726562
0, 5, 79, 1507.217041015625
0, 5, 80, 1524.781982421875
0, 5, 81, 1599.24365234375
0, 5, 82, 1521.879638671875
0, 5, 83, 1487.064331054688
0, 5, 84, 1532.204711914062
0, 5, 85, 1514.682739257812
0, 5, 86, 1561.2900390625
0, 5, 87, 1475.440795898438
0, 5, 88, 1502.249145507812
0, 5, 89, 1478.556640625
0, 5, 90, 1482.6884765625
0, 5, 91, 1552.966674804688
0, 5, 92, 1478.287231445312
0, 5, 93, 1558.223510742188
0, 5, 94, 1516.8408203125
0, 5, 95, 1561.166381835938
0, 5, 96, 1499.858276367188
0, 5, 97, 1505.706298828125
0, 5, 98, 1506.742919921875
0, 5, 99, 1535.687377929688
0, 5, 100, 1434.909057617188
0, 5, 101, 1425.496704101562
0, 5, 102, 1510.868408203125
0, 5, 103, 1474.187866210938
0, 5, 104, 1460.191284179688
0, 5, 105, 1489.637817382812
0, 5, 106, 1458.736694335938
0, 5, 107, 1398.34326171875
0, 5, 108, 1289.961059570312
0, 5, 109, 721.1970825195312
0, 5, 110, 194.3565673828125
0, 5, 111, 94.06158447265625
0, 5, 112, 84.16030883789062
0, 5, 113, 65.21350860595703
0, 5, 114, 58.32818603515625
0, 5, 115, 52.46185302734375
0, 5, 116, 43.54498291015625
0, 5, 117, 34.32051849365234
0, 5, 118, 40.37781524658203
0, 5, 119, 30.09328460693359
0, 5, 120, 24.2103385925293
0, 5, 121, 23.59966087341309
0, 5, 122, 35.90656661987305
0, 5, 123, 28.45134353637695
0, 5, 124, 30.0714054107666
0, 5, 125, 24.05422782897949
0, 5, 126, 21.5699405670166
0, 5, 127, 24.3364086151123
0, 6, 0, 16.97346496582031
0, 6, 1, 26.75134468078613
0, 6, 2, 32.39228439331055
0, 6, 3, 30.53386306762695
0, 6, 4, 24.08929252624512
0, 6, 5, 35.24977111816406
0, 6, 6, 34.68137359619141
0, 6, 7, 36.85575485229492
0, 6, 8, 36.33096313476562
0, 6, 9, 34.23423767089844
0, 6, 10, 35.48848342895508
0, 6, 11, 42.18679428100586
0, 6, 12, 42.17911911010742
0, 6, 13, 61.90535736083984
0, 6, 14, 65.68405151367188
0, 6, 15, 82.94576263427734
0, 6, 16, 114.7481460571289
0, 6, 17, 298.4924011230469
0, 6, 18, 899.7710571289062
0, 6, 19, 1373.66357421875
0, 6, 20, 1432.808837890625
0, 6, 21, 1530.006225585938
0, 6, 22, 1498.11474609375
0, 6, 23, 1533.638427734375
0, 6, 24, 1476.621704101562
0, 6, 25, 1531.231323242188
0, 6, 26, 1524.94091796875
0, 6, 27, 1520.053344726562
0, 6, 28, 1556.05517578125
0, 6, 29, 1576.641235351562
0, 6, 30, 1517.369995117188
0, 6, 31, 1489.952758789062
0, 6, 32, 1521.373779296875
0, 6, 33, 1494.161499023438
0, 6, 34, 1562.346801757812
0, 6, 35, 1503.862915039062
0, 6, 36, 1439.122192382812
0, 6, 37, 1544.800537109375
0, 6, 38, 1525.358032226562
0, 6, 39, 1522.09228515625
0, 6, 40, 1454.706909179688
0, 6, 41, 1439.71337890625
0, 6, 42, 1511.69140625
0, 6, 43, 1487.2666015625
0, 6, 44, 1431.321533203125
0, 6, 45, 1545.595458984375
0, 6, 46, 1551.321044921875
0, 6, 47, 1491.820190429688
0, 6, 48, 1523.294921875
0, 6, 49, 1506.051513671875
0, 6, 50, 1571.57568359375
0, 6, 51, 1498.903686523438
0, 6, 52, 1563.713012695312
0, 6, 53, 1468.872314453125
0, 6, 54, 1501.975830078125
0, 6, 55, 1571.06884765625
0, 6, 56, 1522.174926757812
0, 6, 57, 1501.4765625
0, 6, 58, 1465.383422851562
0, 6, 59, 1521.487670898438
0, 6, 60, 1475.527587890625
0, 6, 61, 1568.322875976562
0, 6, 62, 1546.974487304688
0, 6, 63, 1494.34326171875
0, 6, 64, 1408.389526367188
0, 6, 65, 1492.342041015625
0, 6, 66, 1510.278686523438
0, 6, 67, 1509.441040039062
0, 6, 68, 1545.983154296875
0, 6, 69, 1490.509887695312
0, 6, 70, 1524.511108398438
0, 6, 71, 1472.153198242188
0, 6, 72, 1597.127685546875
0, 6, 73, 1492.263549804688
0, 6, 74, 1555.163330078125
0, 6, 75, 1535.651489257812
0, 6, 76, 1563.10498046875
0, 6, 77, 1506.97216796875
0, 6, 78, 1441.724853515625
0, 6, 79, 1553.616821289062
0, 6, 80, 1483.0185546875
0, 6, 81, 1482.924926757812
0, 6, 82, 1501.201171875
0, 6, 83, 1526.116088867188
0, 6, 84, 1519.485717773438
0, 6, 85, 1540.156372070312
0, 6, 86, 1543.693969726562
0, 6, 87, 1575.86962890625
0, 6, 88, 1478.915771484375
0, 6, 89, 1560.996337890625
0, 6, 90, 1489.957763671875
0, 6, 91, 1549.322021484375
0, 6, 92, 1485.823486328125
0, 6, 93, 1498.612548828125
0, 6, 94, 1470.9453125
0, 6, 95, 1509.444458007812
0, 6, 96, 1520.656982421875
0, 6, 97, 1505.5546875
0, 6, 98, 1493.383178710938
0, 6, 99, 1480.79150390625
0, 6, 100, 1518.285278320312
0, 6, 101, 1517.425903320312
0, 6, 102, 1540.940063476562
0, 6, 103, 1499.494140625
0, 6, 104, 1466.175170898438
0, 6, 105, 1487.246337890625
0, 6, 106, 1497.7509765625
0, 6, 107, 1504.203125
0, 6, 108, 1406.747192382812
0, 6, 109, 925.4255981445312
0, 6, 110, 285.6409301757812
0, 6, 111, 95.64632415771484
0, 6, 112, 79.71473693847656
0, 6, 113, 59.18790817260742
0, 6, 114, 54.35446929931641
0, 6, 115, 47.25156784057617
0, 6, 116, 44.08260345458984
0, 6, 117, 36.392578125
0, 6, 118, 40.22042465209961
0, 6, 119, 32.0921516418457
0, 6, 120, 34.63131332397461
0, 6, 121, 28.6279182434082
0, 6, 122, 32.7645263671875
0, 6, 123, 23.25395774841309
0, 6, 124, 22.47436714172363
0, 6, 125, 28.97125816345215
0, 6, 126, 24.99363899230957
0, 6, 127, 24.15216064453125
0, 7, 0, 20.6195011138916
0, 7, 1, 28.69263648986816
0, 7, 2, 21.94301223754883
0, 7, 3, 23.45969390869141
0, 7, 4, 20.50865936279297
0, 7, 5, 38.85639190673828
0, 7, 6, 33.64238357543945
0, 7, 7, 33.08003616333008
0, 7, 8, 32.39627838134766
0, 7, 9, 39.43648529052734
0, 7, 10, 44.37404632568359
0, 7, 11, 48.64467239379883
0, 7, 12, 49.29549407958984
0, 7, 13, 48.29640960693359
0, 7, 14, 63.08245468139648
0, 7, 15, 79.23551177978516
0, 7, 16, 126.6083831787109
0, 7, 17, 457.4006042480469
0, 7, 18, 1100.556640625
0, 7, 19, 1501.158203125
0, 7, 20, 1487.328247070312
0, 7, 21, 1362.618896484375
0, 7, 22, 1488.264404296875
0, 7, 23, 1454.0810546875
0, 7, 24, 1507.38525390625
0, 7, 25, 1593.023071289062
0, 7, 26, 1512.192016601562
0, 7, 27, 1509.535766601562
0, 7, 28, 1544.2109375
0, 7, 29, 1577.977783203125
0, 7, 30, 1555.605102539062
0, 7, 31, 1437.21435546875
0, 7, 32, 1547.016967773438
0, 7, 33, 1494.79052734375
0, 7, 34, 1478.511474609375
0, 7, 35, 1525.703857421875
0, 7, 36, 1477.281005859375
0, 7, 37, 1600.209228515625
0, 7, 38, 1504.85400390625
0, 7, 39, 1490.342407226562
0, 7, 40, 1542.327880859375
0, 7, 41, 1465.884155273438
0, 7, 42, 1498.277709960938
0, 7, 43, 1442.859130859375
0, 7, 44, 1488.819458007812
0, 7, 45, 1469.982421875
0, 7, 46, 1513.989013671875
0, 7, 47, 1568.629150390625
0, 7, 48, 1525.206298828125
0, 7, 49, 1540.903198242188
0, 7, 50, 1517.54638671875
0, 7, 51, 1499.060668945312
0, 7, 52, 1518.540771484375
0, 7, 53, 1494.609130859375
0, 7, 54, 1589.147583007812
0, 7, 55, 1470.104614257812
0, 7, 56, 1547.63916015625
0, 7, 57, 1511.8916015625
0, 7, 58, 1549.095825195312
0, 7, 59, 1545.804809570312
0, 7, 60, 1549.224243164062
0, 7, 61, 1491.238647460938
0, 7, 62, 1433.43798828125
0, 7, 63, 1513.814697265625
0, 7, 64, 1546.853881835938
0, 7, 65, 1528.993530273438
0, 7, 66, 1534.907104492188
0, 7, 67, 1581.426391601562
0, 7, 68, 1529.461059570312
0, 7, 69, 1520.048217773438
0, 7, 70, 1496.5029296875
0, 7, 71, 1519.440551757812
0, 7, 72, 1523.28076171875
0, 7, 73, 1516.674560546875
0, 7, 74, 1580.338745117188
0, 7, 75, 1534.201293945312
0, 7, 76, 1559.895141601562
0, 7, 77, 1512.363891601562
0, 7, 78, 1511.6416015625
0, 7, 79, 1426.802856445312
0, 7, 80, 1486.744018554688
0, 7, 81, 1494.107543945312
0, 7, 82, 1529.174194335938
0, 7, 83, 1545.214599609375
0, 7, 84, 1585.139526367188
0, 7, 85, 1474.552001953125
0, 7, 86, 1503.475952148438
0, 7, 87, 1506.291748046875
0, 7, 88, 1497.939208984375
0, 7, 89, 1554.574340820312
0, 7, 90, 1521.946655273438
0, 7, 91, 1561.968627929688
0, 7, 92, 1527.622192382812
0, 7, 93, 1554.834594726562
0, 7, 94, 1538.22705078125
0, 7, 95, 1504.727416992188
0, 7, 96, 1508.767211914062
0, 7, 97, 1431.00927734375
0, 7, 98, 1483.661987304688
0, 7, 99, 1529.86962890625
0, 7, 100, 1422.082763671875
0, 7, 101, 1461.5625
0, 7, 102, 1446.28564453125
0, 7, 103, 1429.978393554688
0, 7, 104, 1496.287353515625
0, 7, 105, 1523.403930664062
0, 7, 106, 1567.08251953125
0, 7, 107, 1480.195434570312
0, 7, 108, 1409.754760742188
0, 7, 109, 1146.933715820312
0, 7, 110, 472.5010986328125
0, 7, 111, 125.8927917480469
0, 7, 112, 80.72401428222656
0, 7, 113, 71.95812225341797
0, 7, 114, 57.47096633911133
0, 7, 115, 56.75764846801758
0, 7, 116, 44.68773651123047
0, 7, 117, 45.31579208374023
0, 7, 118, 37.00974273681641
0, 7, 119, 35.40887451171875
0, 7, 120, 20.79120635986328
0, 7, 121, 26.06114768981934
0, 7, 122, 37.01371383666992
0, 7, 123, 39.79473114013672
0, 7, 124, 35.70940780639648
0, 7, 125, 19.79643440246582
0, 7, 126, 26.50461387634277
0, 7, 127, 16.99044799804688
0, 8, 0, 20.83855628967285
0, 8, 1, 21.52314949035645
0, 8, 2, 25.55146980285645
0, 8, 3, 25.1457633972168
0, 8, 4, 26.76947402954102
0, 8, 5, 31.97895812988281
0, 8, 6, 35.00350952148438
0, 8, 7, 27.73859405517578
0, 8, 8, 34.65875244140625
0, 8, 9, 43.7921257019043
0, 8, 10, 39.84414291381836
0, 8, 11, 41.76296997070312
0, 8, 12, 51.21599578857422
0, 8, 13, 68.89210510253906
0, 8, 14, 72.19319152832031
0, 8, 15, 88.68943786621094
0, 8, 16, 170.8190002441406
0, 8, 17, 673.113037109375
0, 8, 18, 1277.062377929688
0, 8, 19, 1447.74609375
0, 8, 20, 1422.026611328125
0, 8, 21, 1405.745971679688
0, 8, 22, 1486.484008789062
0, 8, 23, 1479.244018554688
0, 8, 24, 1436.105102539062
0, 8, 25, 1457.000122070312
0, 8, 26, 1514.435791015625
0, 8, 27, 1520.4599609375
0, 8, 28, 1475.379272460938
0, 8, 29, 1506.273559570312
0, 8, 30, 1487.861450195312
0, 8, 31, 1536.197509765625
0, 8, 32, 1507.313110351562
0, 8, 33, 1486.3984375
0, 8, 34, 1532.557739257812
0, 8, 35, 1444.495727539062
0, 8, 36, 1501.096923828125
0, 8, 37, 1551.463256835938
0, 8, 38, 1553.890014648438
0, 8, 39, 1497.645874023438
0, 8, 40, 1532.525390625
0, 8, 41, 1482.615112304688
0, 8, 42, 1538.740234375
0, 8, 43, 1434.222778320312
0, 8, 44, 1536.60986328125
0, 8, 45, 1512.11181640625
0, 8, 46, 1601.570922851562
0, 8, 47, 1585.30419921875
