# TOPAS Version: 3.1.p3
# Parameter File: batch_inserts_74.txt
# Results for scorer Readout_Adipose
# Scored in component: MyBox
# X in 1 bin  of 0.75 cm
# Y in 512 bins of 0.0783984 cm
# Z in 128 bins of 0.078125 cm
# EnergyDeposit ( MeV ) : Sum   
0, 0, 0, 23.09853553771973
0, 0, 1, 20.441650390625
0, 0, 2, 24.3195686340332
0, 0, 3, 23.77265930175781
0, 0, 4, 24.06792831420898
0, 0, 5, 19.49230003356934
0, 0, 6, 21.59865760803223
0, 0, 7, 33.56777572631836
0, 0, 8, 22.39425849914551
0, 0, 9, 24.33000183105469
0, 0, 10, 26.96297645568848
0, 0, 11, 29.87972450256348
0, 0, 12, 39.66181945800781
0, 0, 13, 30.68988037109375
0, 0, 14, 36.70336151123047
0, 0, 15, 44.92138290405273
0, 0, 16, 49.03547286987305
0, 0, 17, 44.00619506835938
0, 0, 18, 74.58328247070312
0, 0, 19, 194.7006530761719
0, 0, 20, 697.8566284179688
0, 0, 21, 1189.331298828125
0, 0, 22, 1246.162963867188
0, 0, 23, 1272.846313476562
0, 0, 24, 1282.992309570312
0, 0, 25, 1353.738525390625
0, 0, 26, 1267.645385742188
0, 0, 27, 1278.49658203125
0, 0, 28, 1323.448120117188
0, 0, 29, 1271.311279296875
0, 0, 30, 1262.534790039062
0, 0, 31, 1282.747436523438
0, 0, 32, 1264.802124023438
0, 0, 33, 1239.949584960938
0, 0, 34, 1323.301635742188
0, 0, 35, 1303.12060546875
0, 0, 36, 1244.80810546875
0, 0, 37, 1278.897094726562
0, 0, 38, 1251.303833007812
0, 0, 39, 1245.195922851562
0, 0, 40, 1226.360473632812
0, 0, 41, 1273.85205078125
0, 0, 42, 1253.411376953125
0, 0, 43, 1264.289794921875
0, 0, 44, 1226.51611328125
0, 0, 45, 1291.375244140625
0, 0, 46, 1260.181518554688
0, 0, 47, 1240.73876953125
0, 0, 48, 1277.597290039062
0, 0, 49, 1285.704223632812
0, 0, 50, 1311.262329101562
0, 0, 51, 1262.435791015625
0, 0, 52, 1359.382568359375
0, 0, 53, 1326.500366210938
0, 0, 54, 1299.071533203125
0, 0, 55, 1231.379638671875
0, 0, 56, 1324.341186523438
0, 0, 57, 1289.497436523438
0, 0, 58, 1253.804077148438
0, 0, 59, 1330.402221679688
0, 0, 60, 1323.770263671875
0, 0, 61, 1261.585815429688
0, 0, 62, 1244.077758789062
0, 0, 63, 1277.105346679688
0, 0, 64, 1326.229248046875
0, 0, 65, 1288.897705078125
0, 0, 66, 1316.751953125
0, 0, 67, 1219.240478515625
0, 0, 68, 1313.198364257812
0, 0, 69, 1323.858520507812
0, 0, 70, 1347.724731445312
0, 0, 71, 1285.312255859375
0, 0, 72, 1316.688110351562
0, 0, 73, 1239.657592773438
0, 0, 74, 1292.514770507812
0, 0, 75, 1299.194946289062
0, 0, 76, 1257.918090820312
0, 0, 77, 1290.493286132812
0, 0, 78, 1314.354125976562
0, 0, 79, 1323.927490234375
0, 0, 80, 1260.996215820312
0, 0, 81, 1324.552978515625
0, 0, 82, 1285.613037109375
0, 0, 83, 1291.773071289062
0, 0, 84, 1324.924438476562
0, 0, 85, 1230.458862304688
0, 0, 86, 1269.361938476562
0, 0, 87, 1252.74853515625
0, 0, 88, 1253.609375
0, 0, 89, 1331.968139648438
0, 0, 90, 1276.804565429688
0, 0, 91, 1355.73779296875
0, 0, 92, 1306.738647460938
0, 0, 93, 1276.54736328125
0, 0, 94, 1243.639282226562
0, 0, 95, 1326.3388671875
0, 0, 96, 1281.942749023438
0, 0, 97, 1324.406982421875
0, 0, 98, 1262.985595703125
0, 0, 99, 1255.024047851562
0, 0, 100, 1288.59619140625
0, 0, 101, 1312.92724609375
0, 0, 102, 1229.420043945312
0, 0, 103, 1329.604248046875
0, 0, 104, 1262.492553710938
0, 0, 105, 1269.15234375
0, 0, 106, 1208.434936523438
0, 0, 107, 779.966064453125
0, 0, 108, 193.288818359375
0, 0, 109, 65.62565612792969
0, 0, 110, 60.1300163269043
0, 0, 111, 41.29257202148438
0, 0, 112, 37.92333221435547
0, 0, 113, 34.14803695678711
0, 0, 114, 37.29194641113281
0, 0, 115, 27.93411445617676
0, 0, 116, 32.10218048095703
0, 0, 117, 31.60859107971191
0, 0, 118, 23.54363441467285
0, 0, 119, 20.54715728759766
0, 0, 120, 25.72975158691406
0, 0, 121, 30.16515350341797
0, 0, 122, 27.63994216918945
0, 0, 123, 18.58121681213379
0, 0, 124, 19.94646644592285
0, 0, 125, 21.23269653320312
0, 0, 126, 23.77980422973633
0, 0, 127, 19.66264152526855
0, 1, 0, 24.72987747192383
0, 1, 1, 21.2679615020752
0, 1, 2, 28.609619140625
0, 1, 3, 21.26935005187988
0, 1, 4, 22.51648330688477
0, 1, 5, 25.85076141357422
0, 1, 6, 23.11530685424805
0, 1, 7, 29.15833854675293
0, 1, 8, 31.11182975769043
0, 1, 9, 30.15045356750488
0, 1, 10, 30.21402359008789
0, 1, 11, 42.57660675048828
0, 1, 12, 43.93314743041992
0, 1, 13, 45.4082145690918
0, 1, 14, 39.20200729370117
0, 1, 15, 46.95621109008789
0, 1, 16, 58.44635772705078
0, 1, 17, 63.62694549560547
0, 1, 18, 102.6537170410156
0, 1, 19, 400.3563232421875
0, 1, 20, 1041.628173828125
0, 1, 21, 1371.450805664062
0, 1, 22, 1478.859985351562
0, 1, 23, 1465.549926757812
0, 1, 24, 1451.155883789062
0, 1, 25, 1421.416137695312
0, 1, 26, 1472.154663085938
0, 1, 27, 1462.080322265625
0, 1, 28, 1492.411865234375
0, 1, 29, 1476.972290039062
0, 1, 30, 1505.562622070312
0, 1, 31, 1485.365966796875
0, 1, 32, 1412.9052734375
0, 1, 33, 1499.8095703125
0, 1, 34, 1503.670532226562
0, 1, 35, 1462.692016601562
0, 1, 36, 1489.920288085938
0, 1, 37, 1408.30810546875
0, 1, 38, 1391.25927734375
0, 1, 39, 1526.095581054688
0, 1, 40, 1459.022827148438
0, 1, 41, 1490.337646484375
0, 1, 42, 1495.453247070312
0, 1, 43, 1499.1904296875
0, 1, 44, 1453.061889648438
0, 1, 45, 1483.912475585938
0, 1, 46, 1421.767578125
0, 1, 47, 1438.442260742188
0, 1, 48, 1436.208862304688
0, 1, 49, 1487.003051757812
0, 1, 50, 1444.93505859375
0, 1, 51, 1471.549682617188
0, 1, 52, 1476.253662109375
0, 1, 53, 1472.80859375
0, 1, 54, 1498.265014648438
0, 1, 55, 1495.802001953125
0, 1, 56, 1469.846923828125
0, 1, 57, 1455.363037109375
0, 1, 58, 1430.525024414062
0, 1, 59, 1480.868774414062
0, 1, 60, 1465.807495117188
0, 1, 61, 1449.449584960938
0, 1, 62, 1455.692016601562
0, 1, 63, 1416.570922851562
0, 1, 64, 1479.494018554688
0, 1, 65, 1418.336547851562
0, 1, 66, 1438.031616210938
0, 1, 67, 1454.753784179688
0, 1, 68, 1389.413208007812
0, 1, 69, 1471.683349609375
0, 1, 70, 1433.318725585938
0, 1, 71, 1498.10791015625
0, 1, 72, 1431.955078125
0, 1, 73, 1489.170532226562
0, 1, 74, 1468.217407226562
0, 1, 75, 1475.179321289062
0, 1, 76, 1453.792846679688
0, 1, 77, 1462.012084960938
0, 1, 78, 1455.427490234375
0, 1, 79, 1501.053955078125
0, 1, 80, 1451.947998046875
0, 1, 81, 1425.038940429688
0, 1, 82, 1471.886474609375
0, 1, 83, 1463.680053710938
0, 1, 84, 1529.434204101562
0, 1, 85, 1448.2451171875
0, 1, 86, 1408.247192382812
0, 1, 87, 1417.840087890625
0, 1, 88, 1471.852416992188
0, 1, 89, 1469.849975585938
0, 1, 90, 1423.554809570312
0, 1, 91, 1462.466796875
0, 1, 92, 1409.844604492188
0, 1, 93, 1459.859130859375
0, 1, 94, 1467.7646484375
0, 1, 95, 1422.538208007812
0, 1, 96, 1494.545288085938
0, 1, 97, 1519.185913085938
0, 1, 98, 1474.20849609375
0, 1, 99, 1418.21484375
0, 1, 100, 1447.544555664062
0, 1, 101, 1416.69384765625
0, 1, 102, 1439.121704101562
0, 1, 103, 1411.699096679688
0, 1, 104, 1406.912963867188
0, 1, 105, 1460.747680664062
0, 1, 106, 1366.598388671875
0, 1, 107, 1022.717163085938
0, 1, 108, 402.8529968261719
0, 1, 109, 94.98193359375
0, 1, 110, 58.97092437744141
0, 1, 111, 58.81801223754883
0, 1, 112, 45.18979644775391
0, 1, 113, 39.43544769287109
0, 1, 114, 34.62310791015625
0, 1, 115, 38.70812225341797
0, 1, 116, 33.58036804199219
0, 1, 117, 32.18192672729492
0, 1, 118, 36.84828186035156
0, 1, 119, 31.38190841674805
0, 1, 120, 26.27489852905273
0, 1, 121, 26.4374828338623
0, 1, 122, 21.44528198242188
0, 1, 123, 33.67451477050781
0, 1, 124, 30.68080711364746
0, 1, 125, 19.49295616149902
0, 1, 126, 16.50461959838867
0, 1, 127, 16.56339645385742
0, 2, 0, 18.71603775024414
0, 2, 1, 21.86734771728516
0, 2, 2, 19.64027214050293
0, 2, 3, 27.14054298400879
0, 2, 4, 24.46089553833008
0, 2, 5, 23.30527687072754
0, 2, 6, 25.51338958740234
0, 2, 7, 23.56110763549805
0, 2, 8, 27.45829010009766
0, 2, 9, 31.40878486633301
0, 2, 10, 27.41662788391113
0, 2, 11, 29.90938186645508
0, 2, 12, 42.27113342285156
0, 2, 13, 46.16129684448242
0, 2, 14, 52.19503402709961
0, 2, 15, 46.03778839111328
0, 2, 16, 62.26432800292969
0, 2, 17, 81.00603485107422
0, 2, 18, 142.8694763183594
0, 2, 19, 604.4613647460938
0, 2, 20, 1284.142211914062
0, 2, 21, 1433.97607421875
0, 2, 22, 1453.249633789062
0, 2, 23, 1409.67431640625
0, 2, 24, 1444.765991210938
0, 2, 25, 1524.50830078125
0, 2, 26, 1553.261474609375
0, 2, 27, 1454.360717773438
0, 2, 28, 1465.532348632812
0, 2, 29, 1463.3818359375
0, 2, 30, 1462.402221679688
0, 2, 31, 1533.363403320312
0, 2, 32, 1509.94189453125
0, 2, 33, 1443.834838867188
0, 2, 34, 1475.025512695312
0, 2, 35, 1475.2373046875
0, 2, 36, 1522.56982421875
0, 2, 37, 1542.24853515625
0, 2, 38, 1510.040771484375
0, 2, 39, 1466.387084960938
0, 2, 40, 1501.3974609375
0, 2, 41, 1521.072021484375
0, 2, 42, 1502.198608398438
0, 2, 43, 1550.296142578125
0, 2, 44, 1453.446899414062
0, 2, 45, 1484.871215820312
0, 2, 46, 1427.834594726562
0, 2, 47, 1446.442260742188
0, 2, 48, 1394.028930664062
0, 2, 49, 1465.613525390625
0, 2, 50, 1445.140258789062
0, 2, 51, 1443.91845703125
0, 2, 52, 1503.870727539062
0, 2, 53, 1523.6923828125
0, 2, 54, 1526.252075195312
0, 2, 55, 1487.457275390625
0, 2, 56, 1460.948852539062
0, 2, 57, 1414.871826171875
0, 2, 58, 1455.207397460938
0, 2, 59, 1449.423828125
0, 2, 60, 1471.573852539062
0, 2, 61, 1442.891967773438
0, 2, 62, 1467.549194335938
0, 2, 63, 1504.181884765625
0, 2, 64, 1461.850463867188
0, 2, 65, 1423.3515625
0, 2, 66, 1486.067260742188
0, 2, 67, 1504.4755859375
0, 2, 68, 1540.72900390625
0, 2, 69, 1534.254150390625
0, 2, 70, 1504.474487304688
0, 2, 71, 1461.373779296875
0, 2, 72, 1514.98291015625
0, 2, 73, 1522.541137695312
0, 2, 74, 1487.3115234375
0, 2, 75, 1504.942138671875
0, 2, 76, 1448.623901367188
0, 2, 77, 1509.176391601562
0, 2, 78, 1432.186889648438
0, 2, 79, 1542.100830078125
0, 2, 80, 1480.107055664062
0, 2, 81, 1468.219482421875
0, 2, 82, 1558.947143554688
0, 2, 83, 1518.335693359375
0, 2, 84, 1493.786376953125
0, 2, 85, 1510.021118164062
0, 2, 86, 1542.73828125
0, 2, 87, 1483.22607421875
0, 2, 88, 1536.461181640625
0, 2, 89, 1462.21630859375
0, 2, 90, 1425.647094726562
0, 2, 91, 1407.116821289062
0, 2, 92, 1478.504272460938
0, 2, 93, 1493.841796875
0, 2, 94, 1449.649291992188
0, 2, 95, 1545.461303710938
0, 2, 96, 1522.126708984375
0, 2, 97, 1456.8720703125
0, 2, 98, 1466.785766601562
0, 2, 99, 1408.432250976562
0, 2, 100, 1475.025634765625
0, 2, 101, 1477.8994140625
0, 2, 102, 1460.595092773438
0, 2, 103, 1391.2421875
0, 2, 104, 1410.108764648438
0, 2, 105, 1398.114013671875
0, 2, 106, 1460.77978515625
0, 2, 107, 1269.484008789062
0, 2, 108, 617.1209716796875
0, 2, 109, 174.1902618408203
0, 2, 110, 70.61086273193359
0, 2, 111, 57.62213516235352
0, 2, 112, 50.08174514770508
0, 2, 113, 43.89287567138672
0, 2, 114, 41.45467376708984
0, 2, 115, 40.83922958374023
0, 2, 116, 36.38766098022461
0, 2, 117, 31.19447135925293
0, 2, 118, 24.30679321289062
0, 2, 119, 31.91907119750977
0, 2, 120, 31.93782043457031
0, 2, 121, 17.66217422485352
0, 2, 122, 26.92826080322266
0, 2, 123, 19.27731895446777
0, 2, 124, 22.05484008789062
0, 2, 125, 28.32699012756348
0, 2, 126, 16.17108154296875
0, 2, 127, 24.2043342590332
0, 3, 0, 21.05940246582031
0, 3, 1, 20.76154518127441
0, 3, 2, 18.14702987670898
0, 3, 3, 16.19459342956543
0, 3, 4, 21.51416015625
0, 3, 5, 24.43962669372559
0, 3, 6, 31.45120620727539
0, 3, 7, 25.41838645935059
0, 3, 8, 32.35725021362305
0, 3, 9, 26.54538726806641
0, 3, 10, 33.28191757202148
0, 3, 11, 36.91759872436523
0, 3, 12, 38.45784759521484
0, 3, 13, 50.68675994873047
0, 3, 14, 61.08256149291992
0, 3, 15, 56.32753753662109
0, 3, 16, 69.94014739990234
0, 3, 17, 90.63449096679688
0, 3, 18, 238.3727111816406
0, 3, 19, 880.4442138671875
0, 3, 20, 1382.584716796875
0, 3, 21, 1506.878295898438
0, 3, 22, 1462.420288085938
0, 3, 23, 1450.34033203125
0, 3, 24, 1439.41357421875
0, 3, 25, 1464.62744140625
0, 3, 26, 1497.235961914062
0, 3, 27, 1467.150512695312
0, 3, 28, 1491.712158203125
0, 3, 29, 1544.697998046875
0, 3, 30, 1570.181884765625
0, 3, 31, 1510.28271484375
0, 3, 32, 1543.795532226562
0, 3, 33, 1539.456787109375
0, 3, 34, 1490.527221679688
0, 3, 35, 1461.178588867188
0, 3, 36, 1453.068359375
0, 3, 37, 1513.762084960938
0, 3, 38, 1518.095581054688
0, 3, 39, 1435.111572265625
0, 3, 40, 1441.42236328125
0, 3, 41, 1563.51220703125
0, 3, 42, 1463.876831054688
0, 3, 43, 1455.323974609375
0, 3, 44, 1449.52978515625
0, 3, 45, 1511.879272460938
0, 3, 46, 1510.2060546875
0, 3, 47, 1437.023803710938
0, 3, 48, 1511.753540039062
0, 3, 49, 1456.395141601562
0, 3, 50, 1486.76708984375
0, 3, 51, 1534.238647460938
0, 3, 52, 1537.433837890625
0, 3, 53, 1469.14794921875
0, 3, 54, 1533.6591796875
0, 3, 55, 1502.041259765625
0, 3, 56, 1432.726318359375
0, 3, 57, 1503.901245117188
0, 3, 58, 1513.043579101562
0, 3, 59, 1506.826904296875
0, 3, 60, 1533.993774414062
0, 3, 61, 1487.202880859375
0, 3, 62, 1492.552856445312
0, 3, 63, 1493.634643554688
0, 3, 64, 1496.352294921875
0, 3, 65, 1510.325927734375
0, 3, 66, 1562.627075195312
0, 3, 67, 1548.62939453125
0, 3, 68, 1451.4755859375
0, 3, 69, 1463.554443359375
0, 3, 70, 1386.575927734375
0, 3, 71, 1466.790405273438
0, 3, 72, 1549.6142578125
0, 3, 73, 1497.646362304688
0, 3, 74, 1463.424072265625
0, 3, 75, 1459.93603515625
0, 3, 76, 1573.785400390625
0, 3, 77, 1539.579223632812
0, 3, 78, 1428.67431640625
0, 3, 79, 1490.65185546875
0, 3, 80, 1460.30419921875
0, 3, 81, 1470.244262695312
0, 3, 82, 1553.209106445312
0, 3, 83, 1510.911010742188
0, 3, 84, 1565.852783203125
0, 3, 85, 1481.238403320312
0, 3, 86, 1520.251220703125
0, 3, 87, 1534.768188476562
0, 3, 88, 1455.844970703125
0, 3, 89, 1456.375122070312
0, 3, 90, 1449.091552734375
0, 3, 91, 1418.48779296875
0, 3, 92, 1509.234008789062
0, 3, 93, 1499.908325195312
0, 3, 94, 1516.67724609375
0, 3, 95, 1543.634643554688
0, 3, 96, 1514.067504882812
0, 3, 97, 1469.65185546875
0, 3, 98, 1433.293212890625
0, 3, 99, 1466.40966796875
0, 3, 100, 1467.185424804688
0, 3, 101, 1470.869995117188
0, 3, 102, 1516.278930664062
0, 3, 103, 1552.194580078125
0, 3, 104, 1497.61474609375
0, 3, 105, 1513.924682617188
0, 3, 106, 1475.140380859375
0, 3, 107, 1338.509155273438
0, 3, 108, 874.8452758789062
0, 3, 109, 265.2263793945312
0, 3, 110, 105.6733016967773
0, 3, 111, 68.71617126464844
0, 3, 112, 59.57430648803711
0, 3, 113, 55.93697738647461
0, 3, 114, 48.45597457885742
0, 3, 115, 50.11896896362305
0, 3, 116, 37.70524215698242
0, 3, 117, 39.87016296386719
0, 3, 118, 36.32476043701172
0, 3, 119, 29.64123916625977
0, 3, 120, 26.33938026428223
0, 3, 121, 21.38307189941406
0, 3, 122, 26.65173721313477
0, 3, 123, 27.71494293212891
0, 3, 124, 20.2570743560791
0, 3, 125, 25.62371826171875
0, 3, 126, 23.24357795715332
0, 3, 127, 15.57085037231445
0, 4, 0, 19.02839279174805
0, 4, 1, 27.18108558654785
0, 4, 2, 19.95237350463867
0, 4, 3, 18.45073127746582
0, 4, 4, 27.56313133239746
0, 4, 5, 26.26033782958984
0, 4, 6, 30.76088714599609
0, 4, 7, 34.20752716064453
0, 4, 8, 26.7726879119873
0, 4, 9, 29.76284027099609
0, 4, 10, 33.04854965209961
0, 4, 11, 41.44729995727539
0, 4, 12, 45.26007461547852
0, 4, 13, 50.92627716064453
0, 4, 14, 52.14461517333984
0, 4, 15, 63.18064117431641
0, 4, 16, 72.82528686523438
0, 4, 17, 112.4944152832031
0, 4, 18, 443.4336853027344
0, 4, 19, 1178.239990234375
0, 4, 20, 1448.22802734375
0, 4, 21, 1422.222534179688
0, 4, 22, 1431.811401367188
0, 4, 23, 1454.163452148438
0, 4, 24, 1473.42822265625
0, 4, 25, 1399.23046875
0, 4, 26, 1536.306030273438
0, 4, 27, 1544.61181640625
0, 4, 28, 1507.707763671875
0, 4, 29, 1513.613891601562
0, 4, 30, 1531.072265625
0, 4, 31, 1577.36376953125
0, 4, 32, 1514.699096679688
0, 4, 33, 1489.192626953125
0, 4, 34, 1468.651000976562
0, 4, 35, 1561.351928710938
0, 4, 36, 1502.424926757812
0, 4, 37, 1512.318237304688
0, 4, 38, 1533.718505859375
0, 4, 39, 1472.039184570312
0, 4, 40, 1513.0537109375
0, 4, 41, 1582.6240234375
0, 4, 42, 1562.0126953125
0, 4, 43, 1476.886596679688
0, 4, 44, 1497.20361328125
0, 4, 45, 1520.679321289062
0, 4, 46, 1465.860961914062
0, 4, 47, 1501.098510742188
0, 4, 48, 1524.765380859375
0, 4, 49, 1467.151977539062
0, 4, 50, 1517.93603515625
0, 4, 51, 1490.07763671875
0, 4, 52, 1495.412719726562
0, 4, 53, 1452.408813476562
0, 4, 54, 1443.4873046875
0, 4, 55, 1529.381713867188
0, 4, 56, 1452.738891601562
0, 4, 57, 1492.931762695312
0, 4, 58, 1463.356079101562
0, 4, 59, 1463.680419921875
0, 4, 60, 1532.512939453125
0, 4, 61, 1505.853637695312
0, 4, 62, 1505.792724609375
0, 4, 63, 1539.227172851562
0, 4, 64, 1594.371704101562
0, 4, 65, 1428.482177734375
0, 4, 66, 1510.678833007812
0, 4, 67, 1519.431396484375
0, 4, 68, 1497.9765625
0, 4, 69, 1467.980590820312
0, 4, 70, 1543.224365234375
0, 4, 71, 1513.505615234375
0, 4, 72, 1525.2216796875
0, 4, 73, 1494.802978515625
0, 4, 74, 1483.874755859375
0, 4, 75, 1533.310791015625
0, 4, 76, 1476.382446289062
0, 4, 77, 1502.6826171875
0, 4, 78, 1501.479736328125
0, 4, 79, 1480.655029296875
0, 4, 80, 1510.74560546875
0, 4, 81, 1526.379638671875
0, 4, 82, 1574.294555664062
0, 4, 83, 1509.930053710938
0, 4, 84, 1541.201904296875
0, 4, 85, 1546.308837890625
0, 4, 86, 1522.993530273438
0, 4, 87, 1497.56201171875
0, 4, 88, 1512.135375976562
0, 4, 89, 1482.9375
0, 4, 90, 1548.225219726562
0, 4, 91, 1556.691528320312
0, 4, 92, 1496.921142578125
0, 4, 93, 1514.557861328125
0, 4, 94, 1483.473754882812
0, 4, 95, 1510.411010742188
0, 4, 96, 1444.116943359375
0, 4, 97, 1404.024780273438
0, 4, 98, 1556.142700195312
0, 4, 99, 1510.175537109375
0, 4, 100, 1496.568603515625
0, 4, 101, 1449.582641601562
0, 4, 102, 1447.217529296875
0, 4, 103, 1513.214965820312
0, 4, 104, 1508.204711914062
0, 4, 105, 1562.271484375
0, 4, 106, 1478.7568359375
0, 4, 107, 1458.644775390625
0, 4, 108, 1120.538696289062
0, 4, 109, 438.8486328125
0, 4, 110, 99.29283905029297
0, 4, 111, 67.85302734375
0, 4, 112, 56.47859573364258
0, 4, 113, 50.82532501220703
0, 4, 114, 52.59064102172852
0, 4, 115, 49.2535285949707
0, 4, 116, 39.99322128295898
0, 4, 117, 37.24878311157227
0, 4, 118, 42.83549880981445
0, 4, 119, 36.63576889038086
0, 4, 120, 32.11482238769531
0, 4, 121, 29.61966323852539
0, 4, 122, 35.50496292114258
0, 4, 123, 26.85415267944336
0, 4, 124, 24.58626174926758
0, 4, 125, 34.58552551269531
0, 4, 126, 23.00145721435547
0, 4, 127, 18.4942512512207
0, 5, 0, 20.30960083007812
0, 5, 1, 21.61117553710938
0, 5, 2, 26.9030647277832
0, 5, 3, 26.37874221801758
0, 5, 4, 21.46150207519531
0, 5, 5, 32.93140411376953
0, 5, 6, 29.47780418395996
0, 5, 7, 33.16606903076172
0, 5, 8, 36.61868286132812
0, 5, 9, 33.27162551879883
0, 5, 10, 34.18187713623047
0, 5, 11, 39.20956802368164
0, 5, 12, 38.20700454711914
0, 5, 13, 45.66497039794922
0, 5, 14, 65.20584106445312
0, 5, 15, 78.44538116455078
0, 5, 16, 78.59430694580078
0, 5, 17, 157.8646545410156
0, 5, 18, 675.8980712890625
0, 5, 19, 1344.464477539062
0, 5, 20, 1529.513427734375
0, 5, 21, 1492.245483398438
0, 5, 22, 1498.509765625
0, 5, 23, 1533.541381835938
0, 5, 24, 1462.121704101562
0, 5, 25, 1428.755004882812
0, 5, 26, 1525.517456054688
0, 5, 27, 1544.083984375
0, 5, 28, 1487.524658203125
0, 5, 29, 1525.775390625
0, 5, 30, 1500.882568359375
0, 5, 31, 1503.526611328125
0, 5, 32, 1593.852294921875
0, 5, 33, 1504.965698242188
0, 5, 34, 1480.105224609375
0, 5, 35, 1508.556274414062
0, 5, 36, 1442.675048828125
0, 5, 37, 1528.168701171875
0, 5, 38, 1547.203491210938
0, 5, 39, 1547.087646484375
0, 5, 40, 1499.482788085938
0, 5, 41, 1483.068237304688
0, 5, 42, 1538.301513671875
0, 5, 43, 1531.440063476562
0, 5, 44, 1546.484741210938
0, 5, 45, 1509.962158203125
0, 5, 46, 1489.063232421875
0, 5, 47, 1481.524780273438
0, 5, 48, 1505.156860351562
0, 5, 49, 1527.097412109375
0, 5, 50, 1504.313232421875
0, 5, 51, 1519.92041015625
0, 5, 52, 1430.4345703125
0, 5, 53, 1525.94384765625
0, 5, 54, 1520.18798828125
0, 5, 55, 1528.002197265625
0, 5, 56, 1492.549682617188
0, 5, 57, 1536.711547851562
0, 5, 58, 1508.042724609375
0, 5, 59, 1485.265014648438
0, 5, 60, 1532.630981445312
0, 5, 61, 1444.646118164062
0, 5, 62, 1587.21435546875
0, 5, 63, 1433.788330078125
0, 5, 64, 1486.107177734375
0, 5, 65, 1459.800048828125
0, 5, 66, 1523.671997070312
0, 5, 67, 1560.998046875
0, 5, 68, 1464.830078125
0, 5, 69, 1476.057861328125
0, 5, 70, 1491.413208007812
0, 5, 71, 1477.977661132812
0, 5, 72, 1538.856567382812
0, 5, 73, 1458.682006835938
0, 5, 74, 1496.401489257812
0, 5, 75, 1488.748779296875
0, 5, 76, 1473.822631835938
0, 5, 77, 1514.06103515625
0, 5, 78, 1531.620849609375
0, 5, 79, 1513.16162109375
0, 5, 80, 1521.359497070312
0, 5, 81, 1594.140625
0, 5, 82, 1521.781860351562
0, 5, 83, 1487.303588867188
0, 5, 84, 1529.66162109375
0, 5, 85, 1512.4541015625
0, 5, 86, 1558.906372070312
0, 5, 87, 1472.811645507812
0, 5, 88, 1500.118774414062
0, 5, 89, 1482.509521484375
0, 5, 90, 1479.591796875
0, 5, 91, 1552.513305664062
0, 5, 92, 1480.521240234375
0, 5, 93, 1560.403564453125
0, 5, 94, 1509.912841796875
0, 5, 95, 1566.024047851562
0, 5, 96, 1499.76416015625
0, 5, 97, 1506.605712890625
0, 5, 98, 1506.5869140625
0, 5, 99, 1542.652709960938
0, 5, 100, 1435.668212890625
0, 5, 101, 1429.564086914062
0, 5, 102, 1515.919921875
0, 5, 103, 1474.049072265625
0, 5, 104, 1461.861328125
0, 5, 105, 1494.657592773438
0, 5, 106, 1455.716430664062
0, 5, 107, 1405.8828125
0, 5, 108, 1284.5126953125
0, 5, 109, 717.2777099609375
0, 5, 110, 195.2006072998047
0, 5, 111, 91.14353942871094
0, 5, 112, 79.53223419189453
0, 5, 113, 66.03250885009766
0, 5, 114, 56.03359603881836
0, 5, 115, 53.08869552612305
0, 5, 116, 38.82998657226562
0, 5, 117, 39.02461624145508
0, 5, 118, 48.24018859863281
0, 5, 119, 26.88733863830566
0, 5, 120, 34.3474006652832
0, 5, 121, 22.88715553283691
0, 5, 122, 22.78976058959961
0, 5, 123, 23.5446662902832
0, 5, 124, 28.75976943969727
0, 5, 125, 20.88056564331055
0, 5, 126, 20.33911514282227
0, 5, 127, 24.28410911560059
0, 6, 0, 22.48052215576172
0, 6, 1, 29.6613712310791
0, 6, 2, 30.30060577392578
0, 6, 3, 25.69261360168457
0, 6, 4, 21.96811676025391
0, 6, 5, 34.711181640625
0, 6, 6, 34.47624588012695
0, 6, 7, 31.07500457763672
0, 6, 8, 31.6612663269043
0, 6, 9, 31.60506248474121
0, 6, 10, 35.72853088378906
0, 6, 11, 42.47011184692383
0, 6, 12, 40.89207077026367
0, 6, 13, 60.88254928588867
0, 6, 14, 62.60646820068359
0, 6, 15, 81.17107391357422
0, 6, 16, 110.1959838867188
0, 6, 17, 299.4028930664062
0, 6, 18, 897.0045166015625
0, 6, 19, 1375.630737304688
0, 6, 20, 1442.771118164062
0, 6, 21, 1531.652709960938
0, 6, 22, 1505.485473632812
0, 6, 23, 1525.6337890625
0, 6, 24, 1478.356567382812
0, 6, 25, 1528.335205078125
0, 6, 26, 1522.671508789062
0, 6, 27, 1522.294189453125
0, 6, 28, 1547.773559570312
0, 6, 29, 1574.573486328125
0, 6, 30, 1512.51171875
0, 6, 31, 1488.98291015625
0, 6, 32, 1522.009155273438
0, 6, 33, 1497.34326171875
0, 6, 34, 1562.882690429688
0, 6, 35, 1504.974853515625
0, 6, 36, 1439.532348632812
0, 6, 37, 1547.664184570312
0, 6, 38, 1524.775756835938
0, 6, 39, 1521.311645507812
0, 6, 40, 1460.683715820312
0, 6, 41, 1439.263427734375
0, 6, 42, 1514.612426757812
0, 6, 43, 1485.360473632812
0, 6, 44, 1430.206420898438
0, 6, 45, 1547.8720703125
0, 6, 46, 1560.14599609375
0, 6, 47, 1497.169921875
0, 6, 48, 1525.917358398438
0, 6, 49, 1509.541381835938
0, 6, 50, 1574.363159179688
0, 6, 51, 1503.609008789062
0, 6, 52, 1565.212768554688
0, 6, 53, 1472.5859375
0, 6, 54, 1497.939331054688
0, 6, 55, 1573.669311523438
0, 6, 56, 1517.99658203125
0, 6, 57, 1504.14892578125
0, 6, 58, 1469.088256835938
0, 6, 59, 1518.093139648438
0, 6, 60, 1467.990966796875
0, 6, 61, 1571.828979492188
0, 6, 62, 1546.521728515625
0, 6, 63, 1495.145385742188
0, 6, 64, 1406.11181640625
0, 6, 65, 1492.726196289062
0, 6, 66, 1515.185791015625
0, 6, 67, 1517.662475585938
0, 6, 68, 1543.296630859375
0, 6, 69, 1486.319702148438
0, 6, 70, 1526.094848632812
0, 6, 71, 1467.70166015625
0, 6, 72, 1599.86572265625
0, 6, 73, 1489.09521484375
0, 6, 74, 1558.363403320312
0, 6, 75, 1536.297607421875
0, 6, 76, 1569.699829101562
0, 6, 77, 1503.814086914062
0, 6, 78, 1443.228393554688
0, 6, 79, 1554.293701171875
0, 6, 80, 1486.292114257812
0, 6, 81, 1485.26416015625
0, 6, 82, 1504.513061523438
0, 6, 83, 1525.631958007812
0, 6, 84, 1517.624633789062
0, 6, 85, 1536.14501953125
0, 6, 86, 1541.804443359375
0, 6, 87, 1572.30712890625
0, 6, 88, 1477.93505859375
0, 6, 89, 1568.534423828125
0, 6, 90, 1490.012451171875
0, 6, 91, 1544.662109375
0, 6, 92, 1484.316284179688
0, 6, 93, 1496.881469726562
0, 6, 94, 1468.656127929688
0, 6, 95, 1512.8720703125
0, 6, 96, 1521.984008789062
0, 6, 97, 1509.97314453125
0, 6, 98, 1501.722534179688
0, 6, 99, 1481.267456054688
0, 6, 100, 1518.173706054688
0, 6, 101, 1513.387084960938
0, 6, 102, 1540.085571289062
0, 6, 103, 1496.572021484375
0, 6, 104, 1461.561645507812
0, 6, 105, 1486.499633789062
0, 6, 106, 1496.037719726562
0, 6, 107, 1507.872192382812
0, 6, 108, 1410.06982421875
0, 6, 109, 920.3131103515625
0, 6, 110, 280.8181762695312
0, 6, 111, 95.05470275878906
0, 6, 112, 77.62636566162109
0, 6, 113, 57.43056869506836
0, 6, 114, 53.31388092041016
0, 6, 115, 44.69564056396484
0, 6, 116, 45.33880615234375
0, 6, 117, 37.29011917114258
0, 6, 118, 38.00528717041016
0, 6, 119, 33.34754943847656
0, 6, 120, 28.60605621337891
0, 6, 121, 29.3513298034668
0, 6, 122, 27.06463623046875
0, 6, 123, 26.36889266967773
0, 6, 124, 29.57777214050293
0, 6, 125, 33.90813446044922
0, 6, 126, 21.15061950683594
0, 6, 127, 21.75108528137207
0, 7, 0, 22.28768539428711
0, 7, 1, 31.49366188049316
0, 7, 2, 22.42214965820312
0, 7, 3, 20.25322341918945
0, 7, 4, 25.80364418029785
0, 7, 5, 37.47625732421875
0, 7, 6, 36.07377243041992
0, 7, 7, 33.69208526611328
0, 7, 8, 29.05473899841309
0, 7, 9, 31.85353088378906
0, 7, 10, 47.02996063232422
0, 7, 11, 44.4869499206543
0, 7, 12, 49.49759292602539
0, 7, 13, 51.392578125
0, 7, 14, 62.29425811767578
0, 7, 15, 83.69959259033203
0, 7, 16, 135.4717407226562
0, 7, 17, 459.3892517089844
0, 7, 18, 1095.335205078125
0, 7, 19, 1495.79736328125
0, 7, 20, 1483.688720703125
0, 7, 21, 1362.649291992188
0, 7, 22, 1483.8837890625
0, 7, 23, 1457.45263671875
0, 7, 24, 1510.656127929688
0, 7, 25, 1596.8955078125
0, 7, 26, 1517.023315429688
0, 7, 27, 1508.339599609375
0, 7, 28, 1541.50341796875
0, 7, 29, 1575.494750976562
0, 7, 30, 1545.662475585938
0, 7, 31, 1436.218872070312
0, 7, 32, 1542.223510742188
0, 7, 33, 1489.101196289062
0, 7, 34, 1482.092041015625
0, 7, 35, 1519.986206054688
0, 7, 36, 1475.116455078125
0, 7, 37, 1599.569458007812
0, 7, 38, 1503.499877929688
0, 7, 39, 1492.98095703125
0, 7, 40, 1541.582153320312
0, 7, 41, 1462.311767578125
0, 7, 42, 1487.971313476562
0, 7, 43, 1442.124877929688
0, 7, 44, 1490.29736328125
0, 7, 45, 1471.975341796875
0, 7, 46, 1513.083862304688
0, 7, 47, 1563.684448242188
0, 7, 48, 1527.172241210938
0, 7, 49, 1540.709228515625
0, 7, 50, 1513.644287109375
0, 7, 51, 1498.672119140625
0, 7, 52, 1515.898315429688
0, 7, 53, 1492.565551757812
0, 7, 54, 1587.699584960938
0, 7, 55, 1476.257934570312
0, 7, 56, 1553.853271484375
0, 7, 57, 1511.165771484375
0, 7, 58, 1550.356079101562
0, 7, 59, 1543.90283203125
0, 7, 60, 1547.801879882812
0, 7, 61, 1490.2041015625
0, 7, 62, 1434.278198242188
0, 7, 63, 1513.371948242188
0, 7, 64, 1550.280029296875
0, 7, 65, 1528.551879882812
0, 7, 66, 1539.8525390625
0, 7, 67, 1577.825317382812
0, 7, 68, 1534.156494140625
0, 7, 69, 1514.20263671875
0, 7, 70, 1497.350708007812
0, 7, 71, 1518.555053710938
0, 7, 72, 1522.809814453125
0, 7, 73, 1517.86376953125
0, 7, 74, 1572.618408203125
0, 7, 75, 1542.878173828125
0, 7, 76, 1559.511108398438
0, 7, 77, 1510.590087890625
0, 7, 78, 1506.089111328125
0, 7, 79, 1420.741088867188
0, 7, 80, 1488.805908203125
0, 7, 81, 1495.769165039062
0, 7, 82, 1533.107666015625
0, 7, 83, 1543.188598632812
0, 7, 84, 1584.93701171875
0, 7, 85, 1483.588745117188
0, 7, 86, 1502.291137695312
0, 7, 87, 1512.5654296875
0, 7, 88, 1501.333984375
0, 7, 89, 1553.5673828125
0, 7, 90, 1520.926879882812
0, 7, 91, 1565.804443359375
0, 7, 92, 1532.541015625
0, 7, 93, 1552.099975585938
0, 7, 94, 1543.959838867188
0, 7, 95, 1507.757690429688
0, 7, 96, 1514.696899414062
0, 7, 97, 1427.962646484375
0, 7, 98, 1489.681518554688
0, 7, 99, 1526.15966796875
0, 7, 100, 1415.974853515625
0, 7, 101, 1469.572143554688
0, 7, 102, 1451.850463867188
0, 7, 103, 1431.16650390625
0, 7, 104, 1496.795166015625
0, 7, 105, 1524.239501953125
0, 7, 106, 1568.713623046875
0, 7, 107, 1482.849243164062
0, 7, 108, 1415.30419921875
0, 7, 109, 1151.968139648438
0, 7, 110, 468.90234375
0, 7, 111, 128.3863830566406
0, 7, 112, 80.53389739990234
0, 7, 113, 68.36830139160156
0, 7, 114, 54.46819686889648
0, 7, 115, 50.04935073852539
0, 7, 116, 49.52327346801758
0, 7, 117, 47.02605056762695
0, 7, 118, 38.08888626098633
0, 7, 119, 36.8255500793457
0, 7, 120, 23.58834838867188
0, 7, 121, 37.38821029663086
0, 7, 122, 33.31773376464844
0, 7, 123, 33.72566604614258
0, 7, 124, 26.89183044433594
0, 7, 125, 22.54099273681641
0, 7, 126, 24.29937362670898
0, 7, 127, 23.69862174987793
0, 8, 0, 16.01245307922363
0, 8, 1, 18.53639793395996
0, 8, 2, 25.26997566223145
0, 8, 3, 28.28817749023438
0, 8, 4, 24.90940475463867
0, 8, 5, 32.31211853027344
0, 8, 6, 29.75824546813965
0, 8, 7, 26.4348087310791
0, 8, 8, 30.29450225830078
0, 8, 9, 42.79815292358398
0, 8, 10, 40.88433837890625
0, 8, 11, 47.2752571105957
0, 8, 12, 53.65785217285156
0, 8, 13, 71.31565093994141
0, 8, 14, 69.97064971923828
0, 8, 15, 84.12046051025391
0, 8, 16, 177.0188903808594
0, 8, 17, 673.466796875
0, 8, 18, 1279.470092773438
0, 8, 19, 1449.224243164062
0, 8, 20, 1419.81396484375
0, 8, 21, 1414.393432617188
0, 8, 22, 1492.784545898438
0, 8, 23, 1483.904541015625
0, 8, 24, 1435.33544921875
0, 8, 25, 1458.964965820312
0, 8, 26, 1517.125854492188
0, 8, 27, 1525.523803710938
0, 8, 28, 1483.866821289062
0, 8, 29, 1507.380126953125
0, 8, 30, 1486.143310546875
0, 8, 31, 1538.05810546875
0, 8, 32, 1507.510375976562
0, 8, 33, 1483.627563476562
0, 8, 34, 1534.812133789062
0, 8, 35, 1448.157470703125
0, 8, 36, 1498.772827148438
0, 8, 37, 1555.58349609375
0, 8, 38, 1552.9462890625
0, 8, 39, 1492.281860351562
0, 8, 40, 1533.42578125
0, 8, 41, 1484.694091796875
0, 8, 42, 1539.225219726562
0, 8, 43, 1435.990356445312
0, 8, 44, 1535.722778320312
0, 8, 45, 1512.519165039062
