# TOPAS Version: 3.1.p3
# Parameter File: batch_inserts_128.txt
# Results for scorer Readout_Adipose
# Scored in component: MyBox
# X in 1 bin  of 0.75 cm
# Y in 512 bins of 0.0783984 cm
# Z in 128 bins of 0.078125 cm
# EnergyDeposit ( MeV ) : Sum   
0, 0, 0, 21.44390869140625
0, 0, 1, 22.73537254333496
0, 0, 2, 26.02771186828613
0, 0, 3, 19.36433982849121
0, 0, 4, 19.06801223754883
0, 0, 5, 20.50967407226562
0, 0, 6, 27.64205741882324
0, 0, 7, 36.56312942504883
0, 0, 8, 23.3206672668457
0, 0, 9, 23.57322692871094
0, 0, 10, 22.77074241638184
0, 0, 11, 25.54244613647461
0, 0, 12, 39.06199645996094
0, 0, 13, 32.4555549621582
0, 0, 14, 37.60487747192383
0, 0, 15, 45.22790908813477
0, 0, 16, 42.34096145629883
0, 0, 17, 46.12703323364258
0, 0, 18, 72.40413665771484
0, 0, 19, 189.4476776123047
0, 0, 20, 698.231689453125
0, 0, 21, 1186.656005859375
0, 0, 22, 1248.209716796875
0, 0, 23, 1278.458618164062
0, 0, 24, 1280.210083007812
0, 0, 25, 1353.341674804688
0, 0, 26, 1271.811767578125
0, 0, 27, 1278.33740234375
0, 0, 28, 1322.764892578125
0, 0, 29, 1272.485595703125
0, 0, 30, 1263.476684570312
0, 0, 31, 1278.319580078125
0, 0, 32, 1262.50244140625
0, 0, 33, 1244.46826171875
0, 0, 34, 1321.943359375
0, 0, 35, 1298.220458984375
0, 0, 36, 1246.3837890625
0, 0, 37, 1278.667114257812
0, 0, 38, 1250.296142578125
0, 0, 39, 1249.60107421875
0, 0, 40, 1224.522705078125
0, 0, 41, 1267.361450195312
0, 0, 42, 1253.069580078125
0, 0, 43, 1267.78515625
0, 0, 44, 1226.252075195312
0, 0, 45, 1288.543212890625
0, 0, 46, 1262.61767578125
0, 0, 47, 1241.6533203125
0, 0, 48, 1273.895751953125
0, 0, 49, 1288.351440429688
0, 0, 50, 1311.809692382812
0, 0, 51, 1262.7314453125
0, 0, 52, 1359.7998046875
0, 0, 53, 1326.340087890625
0, 0, 54, 1292.66650390625
0, 0, 55, 1233.908935546875
0, 0, 56, 1317.619140625
0, 0, 57, 1285.38232421875
0, 0, 58, 1252.909790039062
0, 0, 59, 1334.866577148438
0, 0, 60, 1328.404418945312
0, 0, 61, 1263.3076171875
0, 0, 62, 1235.420532226562
0, 0, 63, 1277.2880859375
0, 0, 64, 1327.047119140625
0, 0, 65, 1285.300903320312
0, 0, 66, 1320.243896484375
0, 0, 67, 1216.99853515625
0, 0, 68, 1310.1572265625
0, 0, 69, 1327.504760742188
0, 0, 70, 1345.231567382812
0, 0, 71, 1287.357055664062
0, 0, 72, 1314.382202148438
0, 0, 73, 1241.840209960938
0, 0, 74, 1289.544921875
0, 0, 75, 1297.457763671875
0, 0, 76, 1256.697998046875
0, 0, 77, 1290.135131835938
0, 0, 78, 1317.794799804688
0, 0, 79, 1324.66064453125
0, 0, 80, 1262.508178710938
0, 0, 81, 1323.082763671875
0, 0, 82, 1283.213989257812
0, 0, 83, 1289.54443359375
0, 0, 84, 1331.713134765625
0, 0, 85, 1229.644287109375
0, 0, 86, 1262.435546875
0, 0, 87, 1255.169921875
0, 0, 88, 1256.866455078125
0, 0, 89, 1334.009765625
0, 0, 90, 1276.133056640625
0, 0, 91, 1355.958129882812
0, 0, 92, 1300.12451171875
0, 0, 93, 1275.7919921875
0, 0, 94, 1240.674682617188
0, 0, 95, 1328.03955078125
0, 0, 96, 1282.21826171875
0, 0, 97, 1329.469482421875
0, 0, 98, 1255.813232421875
0, 0, 99, 1253.649536132812
0, 0, 100, 1288.430053710938
0, 0, 101, 1316.491333007812
0, 0, 102, 1236.268798828125
0, 0, 103, 1321.9833984375
0, 0, 104, 1259.779541015625
0, 0, 105, 1265.70556640625
0, 0, 106, 1210.680908203125
0, 0, 107, 781.328369140625
0, 0, 108, 195.055908203125
0, 0, 109, 69.06867980957031
0, 0, 110, 62.33271789550781
0, 0, 111, 36.68095016479492
0, 0, 112, 38.16705322265625
0, 0, 113, 33.15641403198242
0, 0, 114, 36.74903869628906
0, 0, 115, 28.98037719726562
0, 0, 116, 28.81683731079102
0, 0, 117, 31.65769195556641
0, 0, 118, 26.72002220153809
0, 0, 119, 18.9703483581543
0, 0, 120, 25.54815864562988
0, 0, 121, 27.25643157958984
0, 0, 122, 24.31105041503906
0, 0, 123, 22.71860313415527
0, 0, 124, 24.61701202392578
0, 0, 125, 20.86978340148926
0, 0, 126, 26.24749755859375
0, 0, 127, 11.61774158477783
0, 1, 0, 26.48270606994629
0, 1, 1, 24.32106971740723
0, 1, 2, 23.34995079040527
0, 1, 3, 25.80476570129395
0, 1, 4, 23.88278961181641
0, 1, 5, 31.81760215759277
0, 1, 6, 28.81115531921387
0, 1, 7, 24.36434364318848
0, 1, 8, 30.96520042419434
0, 1, 9, 30.22223472595215
0, 1, 10, 38.83791351318359
0, 1, 11, 43.31911849975586
0, 1, 12, 36.64768981933594
0, 1, 13, 38.25776672363281
0, 1, 14, 41.43630981445312
0, 1, 15, 49.06777572631836
0, 1, 16, 61.15836334228516
0, 1, 17, 59.92208862304688
0, 1, 18, 97.59889221191406
0, 1, 19, 402.251220703125
0, 1, 20, 1043.430786132812
0, 1, 21, 1370.083740234375
0, 1, 22, 1475.483154296875
0, 1, 23, 1459.879760742188
0, 1, 24, 1451.60009765625
0, 1, 25, 1415.563110351562
0, 1, 26, 1473.733520507812
0, 1, 27, 1466.007202148438
0, 1, 28, 1490.904541015625
0, 1, 29, 1477.607421875
0, 1, 30, 1506.268432617188
0, 1, 31, 1484.399536132812
0, 1, 32, 1412.574829101562
0, 1, 33, 1502.4443359375
0, 1, 34, 1498.632934570312
0, 1, 35, 1457.913818359375
0, 1, 36, 1494.629272460938
0, 1, 37, 1408.984497070312
0, 1, 38, 1390.858032226562
0, 1, 39, 1524.918579101562
0, 1, 40, 1459.349975585938
0, 1, 41, 1492.64306640625
0, 1, 42, 1493.783935546875
0, 1, 43, 1502.807373046875
0, 1, 44, 1449.453125
0, 1, 45, 1489.360717773438
0, 1, 46, 1417.30224609375
0, 1, 47, 1433.6298828125
0, 1, 48, 1427.621826171875
0, 1, 49, 1488.758422851562
0, 1, 50, 1442.445068359375
0, 1, 51, 1475.571411132812
0, 1, 52, 1471.84814453125
0, 1, 53, 1474.289916992188
0, 1, 54, 1506.519653320312
0, 1, 55, 1498.704223632812
0, 1, 56, 1465.86767578125
0, 1, 57, 1459.145385742188
0, 1, 58, 1431.295654296875
0, 1, 59, 1485.709716796875
0, 1, 60, 1462.919067382812
0, 1, 61, 1450.523315429688
0, 1, 62, 1453.673706054688
0, 1, 63, 1416.004760742188
0, 1, 64, 1474.751953125
0, 1, 65, 1414.813598632812
0, 1, 66, 1436.950927734375
0, 1, 67, 1458.065551757812
0, 1, 68, 1392.048217773438
0, 1, 69, 1460.260620117188
0, 1, 70, 1428.5849609375
0, 1, 71, 1495.041625976562
0, 1, 72, 1436.909912109375
0, 1, 73, 1487.005126953125
0, 1, 74, 1471.383544921875
0, 1, 75, 1476.766235351562
0, 1, 76, 1454.153686523438
0, 1, 77, 1455.860717773438
0, 1, 78, 1448.415649414062
0, 1, 79, 1499.515380859375
0, 1, 80, 1452.303833007812
0, 1, 81, 1424.818359375
0, 1, 82, 1476.009643554688
0, 1, 83, 1466.525756835938
0, 1, 84, 1532.6552734375
0, 1, 85, 1450.592163085938
0, 1, 86, 1405.479736328125
0, 1, 87, 1422.113525390625
0, 1, 88, 1472.5966796875
0, 1, 89, 1482.230712890625
0, 1, 90, 1426.992431640625
0, 1, 91, 1463.759399414062
0, 1, 92, 1413.81591796875
0, 1, 93, 1459.981079101562
0, 1, 94, 1467.593505859375
0, 1, 95, 1423.141235351562
0, 1, 96, 1498.150512695312
0, 1, 97, 1518.304077148438
0, 1, 98, 1477.29345703125
0, 1, 99, 1419.232666015625
0, 1, 100, 1449.796020507812
0, 1, 101, 1410.3212890625
0, 1, 102, 1440.326782226562
0, 1, 103, 1411.638305664062
0, 1, 104, 1404.408813476562
0, 1, 105, 1466.616821289062
0, 1, 106, 1365.427734375
0, 1, 107, 1018.761596679688
0, 1, 108, 406.5338439941406
0, 1, 109, 91.69437408447266
0, 1, 110, 66.92222595214844
0, 1, 111, 54.29599761962891
0, 1, 112, 47.6578369140625
0, 1, 113, 41.34922027587891
0, 1, 114, 36.45216369628906
0, 1, 115, 37.93306732177734
0, 1, 116, 33.42292022705078
0, 1, 117, 35.76810073852539
0, 1, 118, 35.82698822021484
0, 1, 119, 30.07180786132812
0, 1, 120, 27.59337615966797
0, 1, 121, 23.3643970489502
0, 1, 122, 22.94817543029785
0, 1, 123, 28.19408798217773
0, 1, 124, 29.81343078613281
0, 1, 125, 15.83289432525635
0, 1, 126, 23.85170936584473
0, 1, 127, 22.07635688781738
0, 2, 0, 19.14951133728027
0, 2, 1, 24.22425270080566
0, 2, 2, 21.42724990844727
0, 2, 3, 23.78512001037598
0, 2, 4, 26.47980880737305
0, 2, 5, 29.09810256958008
0, 2, 6, 19.56331443786621
0, 2, 7, 23.06699180603027
0, 2, 8, 31.32997703552246
0, 2, 9, 26.1613941192627
0, 2, 10, 27.74140357971191
0, 2, 11, 33.89080429077148
0, 2, 12, 39.77336502075195
0, 2, 13, 47.82382202148438
0, 2, 14, 47.73887252807617
0, 2, 15, 44.41740036010742
0, 2, 16, 62.47089767456055
0, 2, 17, 73.59648895263672
0, 2, 18, 141.6266632080078
0, 2, 19, 607.6956787109375
0, 2, 20, 1287.037475585938
0, 2, 21, 1433.60107421875
0, 2, 22, 1462.909301757812
0, 2, 23, 1409.5830078125
0, 2, 24, 1441.357788085938
0, 2, 25, 1525.336181640625
0, 2, 26, 1558.243286132812
0, 2, 27, 1460.515625
0, 2, 28, 1460.623168945312
0, 2, 29, 1461.721435546875
0, 2, 30, 1464.967651367188
0, 2, 31, 1534.349243164062
0, 2, 32, 1512.10546875
0, 2, 33, 1444.343383789062
0, 2, 34, 1473.257446289062
0, 2, 35, 1465.522583007812
0, 2, 36, 1524.0029296875
0, 2, 37, 1543.30810546875
0, 2, 38, 1506.618530273438
0, 2, 39, 1466.72900390625
0, 2, 40, 1502.87548828125
0, 2, 41, 1522.392456054688
0, 2, 42, 1503.369506835938
0, 2, 43, 1557.400756835938
0, 2, 44, 1461.3173828125
0, 2, 45, 1482.281982421875
0, 2, 46, 1428.458129882812
0, 2, 47, 1446.98779296875
0, 2, 48, 1392.096069335938
0, 2, 49, 1463.376220703125
0, 2, 50, 1443.215942382812
0, 2, 51, 1443.401977539062
0, 2, 52, 1500.897583007812
0, 2, 53, 1518.6279296875
0, 2, 54, 1525.3525390625
0, 2, 55, 1499.137451171875
0, 2, 56, 1464.512084960938
0, 2, 57, 1416.44189453125
0, 2, 58, 1449.6650390625
0, 2, 59, 1449.0791015625
0, 2, 60, 1469.869750976562
0, 2, 61, 1443.610229492188
0, 2, 62, 1470.438354492188
0, 2, 63, 1509.498046875
0, 2, 64, 1465.293334960938
0, 2, 65, 1431.722900390625
0, 2, 66, 1487.58642578125
0, 2, 67, 1506.511596679688
0, 2, 68, 1539.83203125
0, 2, 69, 1541.949340820312
0, 2, 70, 1513.184204101562
0, 2, 71, 1459.185668945312
0, 2, 72, 1519.158935546875
0, 2, 73, 1519.152587890625
0, 2, 74, 1490.086059570312
0, 2, 75, 1503.408325195312
0, 2, 76, 1453.8603515625
0, 2, 77, 1506.611938476562
0, 2, 78, 1430.161010742188
0, 2, 79, 1536.167358398438
0, 2, 80, 1477.9306640625
0, 2, 81, 1469.399047851562
0, 2, 82, 1556.397583007812
0, 2, 83, 1517.84521484375
0, 2, 84, 1492.133422851562
0, 2, 85, 1515.150756835938
0, 2, 86, 1542.485595703125
0, 2, 87, 1492.008422851562
0, 2, 88, 1536.683959960938
0, 2, 89, 1468.259521484375
0, 2, 90, 1429.567016601562
0, 2, 91, 1405.083862304688
0, 2, 92, 1476.407348632812
0, 2, 93, 1497.761840820312
0, 2, 94, 1452.197143554688
0, 2, 95, 1546.67578125
0, 2, 96, 1521.43017578125
0, 2, 97, 1456.001342773438
0, 2, 98, 1464.442016601562
0, 2, 99, 1407.2060546875
0, 2, 100, 1472.882080078125
0, 2, 101, 1479.942138671875
0, 2, 102, 1461.486694335938
0, 2, 103, 1386.88525390625
0, 2, 104, 1407.19091796875
0, 2, 105, 1396.709594726562
0, 2, 106, 1457.807861328125
0, 2, 107, 1273.334838867188
0, 2, 108, 621.4166870117188
0, 2, 109, 166.9075927734375
0, 2, 110, 69.75473022460938
0, 2, 111, 61.27606582641602
0, 2, 112, 48.06935501098633
0, 2, 113, 45.05089569091797
0, 2, 114, 36.130859375
0, 2, 115, 40.48342132568359
0, 2, 116, 32.31393051147461
0, 2, 117, 37.7266960144043
0, 2, 118, 35.33772659301758
0, 2, 119, 29.41837310791016
0, 2, 120, 23.97638130187988
0, 2, 121, 21.32208824157715
0, 2, 122, 30.64561462402344
0, 2, 123, 26.61133575439453
0, 2, 124, 21.71201324462891
0, 2, 125, 26.31593322753906
0, 2, 126, 20.1430549621582
0, 2, 127, 21.67887687683105
0, 3, 0, 15.72735118865967
0, 3, 1, 21.20215225219727
0, 3, 2, 24.08743667602539
0, 3, 3, 20.0077018737793
0, 3, 4, 17.3740119934082
0, 3, 5, 26.99613761901855
0, 3, 6, 29.60709953308105
0, 3, 7, 30.56841468811035
0, 3, 8, 28.82000160217285
0, 3, 9, 29.19350433349609
0, 3, 10, 33.71603775024414
0, 3, 11, 36.7296142578125
0, 3, 12, 42.98518371582031
0, 3, 13, 51.59086608886719
0, 3, 14, 55.80097579956055
0, 3, 15, 53.65714645385742
0, 3, 16, 69.43003845214844
0, 3, 17, 87.958740234375
0, 3, 18, 242.5738983154297
0, 3, 19, 878.3209838867188
0, 3, 20, 1388.746704101562
0, 3, 21, 1506.7626953125
0, 3, 22, 1463.568603515625
0, 3, 23, 1449.242553710938
0, 3, 24, 1438.446166992188
0, 3, 25, 1459.96826171875
0, 3, 26, 1495.75634765625
0, 3, 27, 1464.734130859375
0, 3, 28, 1494.682495117188
0, 3, 29, 1544.981689453125
0, 3, 30, 1569.54296875
0, 3, 31, 1513.331298828125
0, 3, 32, 1549.167602539062
0, 3, 33, 1540.94580078125
0, 3, 34, 1487.736083984375
0, 3, 35, 1465.90625
0, 3, 36, 1446.94921875
0, 3, 37, 1512.986328125
0, 3, 38, 1518.703247070312
0, 3, 39, 1445.079833984375
0, 3, 40, 1439.867919921875
0, 3, 41, 1563.853149414062
0, 3, 42, 1465.389282226562
0, 3, 43, 1454.504150390625
0, 3, 44, 1453.220458984375
0, 3, 45, 1502.165649414062
0, 3, 46, 1501.144653320312
0, 3, 47, 1441.761352539062
0, 3, 48, 1512.787353515625
0, 3, 49, 1451.914306640625
0, 3, 50, 1493.0703125
0, 3, 51, 1537.885131835938
0, 3, 52, 1537.595092773438
0, 3, 53, 1467.079833984375
0, 3, 54, 1536.504638671875
0, 3, 55, 1506.989379882812
0, 3, 56, 1439.916625976562
0, 3, 57, 1499.047973632812
0, 3, 58, 1512.576171875
0, 3, 59, 1509.00927734375
0, 3, 60, 1534.92919921875
0, 3, 61, 1481.755981445312
0, 3, 62, 1494.489990234375
0, 3, 63, 1493.55078125
0, 3, 64, 1499.282836914062
0, 3, 65, 1518.74462890625
0, 3, 66, 1551.88525390625
0, 3, 67, 1548.946899414062
0, 3, 68, 1452.235717773438
0, 3, 69, 1461.577270507812
0, 3, 70, 1384.855590820312
0, 3, 71, 1462.13720703125
0, 3, 72, 1549.175170898438
0, 3, 73, 1501.325073242188
0, 3, 74, 1462.284790039062
0, 3, 75, 1463.249755859375
0, 3, 76, 1572.851196289062
0, 3, 77, 1537.453125
0, 3, 78, 1434.082275390625
0, 3, 79, 1491.452758789062
0, 3, 80, 1461.698974609375
0, 3, 81, 1472.112060546875
0, 3, 82, 1555.015747070312
0, 3, 83, 1510.003295898438
0, 3, 84, 1565.446899414062
0, 3, 85, 1478.92236328125
0, 3, 86, 1524.915161132812
0, 3, 87, 1536.516479492188
0, 3, 88, 1456.519653320312
0, 3, 89, 1446.699584960938
0, 3, 90, 1453.450805664062
0, 3, 91, 1424.169067382812
0, 3, 92, 1511.264526367188
0, 3, 93, 1505.835693359375
0, 3, 94, 1514.358642578125
0, 3, 95, 1546.216430664062
0, 3, 96, 1513.102294921875
0, 3, 97, 1465.571899414062
0, 3, 98, 1438.156616210938
0, 3, 99, 1461.764282226562
0, 3, 100, 1467.36083984375
0, 3, 101, 1478.577758789062
0, 3, 102, 1520.631591796875
0, 3, 103, 1556.384643554688
0, 3, 104, 1499.690673828125
0, 3, 105, 1512.202270507812
0, 3, 106, 1478.890014648438
0, 3, 107, 1341.201538085938
0, 3, 108, 871.7740478515625
0, 3, 109, 264.8676147460938
0, 3, 110, 101.9125900268555
0, 3, 111, 67.12964630126953
0, 3, 112, 58.9655876159668
0, 3, 113, 55.58420944213867
0, 3, 114, 45.63699340820312
0, 3, 115, 49.69788360595703
0, 3, 116, 40.2398681640625
0, 3, 117, 35.26861190795898
0, 3, 118, 34.48585510253906
0, 3, 119, 34.77306365966797
0, 3, 120, 27.32435989379883
0, 3, 121, 18.56551742553711
0, 3, 122, 23.97015571594238
0, 3, 123, 24.8213996887207
0, 3, 124, 24.31560516357422
0, 3, 125, 25.65738677978516
0, 3, 126, 24.36274909973145
0, 3, 127, 15.35358142852783
0, 4, 0, 20.17488670349121
0, 4, 1, 24.19855308532715
0, 4, 2, 23.25192260742188
0, 4, 3, 18.59529304504395
0, 4, 4, 25.52500534057617
0, 4, 5, 25.06780433654785
0, 4, 6, 26.67432403564453
0, 4, 7, 26.0526123046875
0, 4, 8, 29.79354095458984
0, 4, 9, 33.28726959228516
0, 4, 10, 30.00781059265137
0, 4, 11, 37.69779205322266
0, 4, 12, 41.94403076171875
0, 4, 13, 56.88959121704102
0, 4, 14, 50.5641975402832
0, 4, 15, 59.61535263061523
0, 4, 16, 69.97573089599609
0, 4, 17, 114.8972473144531
0, 4, 18, 445.5952758789062
0, 4, 19, 1183.531494140625
0, 4, 20, 1443.254516601562
0, 4, 21, 1420.925415039062
0, 4, 22, 1436.16943359375
0, 4, 23, 1449.762939453125
0, 4, 24, 1471.5380859375
0, 4, 25, 1400.15625
0, 4, 26, 1534.630004882812
0, 4, 27, 1546.427490234375
0, 4, 28, 1506.569458007812
0, 4, 29, 1516.834594726562
0, 4, 30, 1530.933471679688
0, 4, 31, 1575.673461914062
0, 4, 32, 1514.001831054688
0, 4, 33, 1496.797607421875
0, 4, 34, 1468.94482421875
0, 4, 35, 1556.02587890625
0, 4, 36, 1498.465698242188
0, 4, 37, 1512.739379882812
0, 4, 38, 1535.837524414062
0, 4, 39, 1470.871704101562
0, 4, 40, 1515.309814453125
0, 4, 41, 1587.661499023438
0, 4, 42, 1557.166015625
0, 4, 43, 1479.440551757812
0, 4, 44, 1500.920776367188
0, 4, 45, 1520.673706054688
0, 4, 46, 1463.938842773438
0, 4, 47, 1508.255737304688
0, 4, 48, 1524.98583984375
0, 4, 49, 1468.893798828125
0, 4, 50, 1514.762084960938
0, 4, 51, 1496.17041015625
0, 4, 52, 1491.755249023438
0, 4, 53, 1456.4775390625
0, 4, 54, 1445.19091796875
0, 4, 55, 1521.593017578125
0, 4, 56, 1455.871459960938
0, 4, 57, 1495.192138671875
0, 4, 58, 1460.540893554688
0, 4, 59, 1465.597900390625
0, 4, 60, 1525.090698242188
0, 4, 61, 1502.325317382812
0, 4, 62, 1514.609985351562
0, 4, 63, 1549.621215820312
0, 4, 64, 1594.57275390625
0, 4, 65, 1422.621826171875
0, 4, 66, 1511.384521484375
0, 4, 67, 1518.34375
0, 4, 68, 1495.174682617188
0, 4, 69, 1467.035034179688
0, 4, 70, 1544.06298828125
0, 4, 71, 1522.427124023438
0, 4, 72, 1533.917846679688
0, 4, 73, 1498.73828125
0, 4, 74, 1485.869018554688
0, 4, 75, 1532.558349609375
0, 4, 76, 1485.545654296875
0, 4, 77, 1501.434936523438
0, 4, 78, 1501.785034179688
0, 4, 79, 1479.762939453125
0, 4, 80, 1518.986572265625
0, 4, 81, 1521.423583984375
0, 4, 82, 1564.16064453125
0, 4, 83, 1503.824951171875
0, 4, 84, 1539.106323242188
0, 4, 85, 1547.621948242188
0, 4, 86, 1525.471557617188
0, 4, 87, 1495.759399414062
0, 4, 88, 1511.297973632812
0, 4, 89, 1477.301635742188
0, 4, 90, 1541.699584960938
0, 4, 91, 1552.673217773438
0, 4, 92, 1492.72607421875
0, 4, 93, 1515.355346679688
0, 4, 94, 1485.198364257812
0, 4, 95, 1508.119262695312
0, 4, 96, 1447.113525390625
0, 4, 97, 1411.9921875
0, 4, 98, 1555.61865234375
0, 4, 99, 1510.324829101562
0, 4, 100, 1490.655517578125
0, 4, 101, 1448.382202148438
0, 4, 102, 1444.36962890625
0, 4, 103, 1514.374755859375
0, 4, 104, 1514.575561523438
0, 4, 105, 1553.440673828125
0, 4, 106, 1478.579833984375
0, 4, 107, 1456.333618164062
0, 4, 108, 1121.85546875
0, 4, 109, 437.0809631347656
0, 4, 110, 100.1831207275391
0, 4, 111, 69.64543914794922
0, 4, 112, 57.79170227050781
0, 4, 113, 53.4980583190918
0, 4, 114, 55.33208465576172
0, 4, 115, 44.13614273071289
0, 4, 116, 31.92740058898926
0, 4, 117, 41.06850433349609
0, 4, 118, 49.90839004516602
0, 4, 119, 37.21175003051758
0, 4, 120, 32.1631965637207
0, 4, 121, 27.50609016418457
0, 4, 122, 30.68247032165527
0, 4, 123, 29.58266067504883
0, 4, 124, 26.06445693969727
0, 4, 125, 31.25878143310547
0, 4, 126, 21.97356605529785
0, 4, 127, 20.36135101318359
0, 5, 0, 20.23742485046387
0, 5, 1, 25.3868579864502
0, 5, 2, 28.50435256958008
0, 5, 3, 26.41279792785645
0, 5, 4, 21.48479080200195
0, 5, 5, 37.33943939208984
0, 5, 6, 28.4310245513916
0, 5, 7, 29.21246719360352
0, 5, 8, 27.23026466369629
0, 5, 9, 27.86552619934082
0, 5, 10, 32.10309219360352
0, 5, 11, 37.57100296020508
0, 5, 12, 41.69832229614258
0, 5, 13, 44.08032608032227
0, 5, 14, 61.02984619140625
0, 5, 15, 82.48421478271484
0, 5, 16, 82.81804656982422
0, 5, 17, 152.1876983642578
0, 5, 18, 676.4281616210938
0, 5, 19, 1344.06640625
0, 5, 20, 1524.781982421875
0, 5, 21, 1491.77001953125
0, 5, 22, 1501.908081054688
0, 5, 23, 1531.241577148438
0, 5, 24, 1463.098266601562
0, 5, 25, 1426.951293945312
0, 5, 26, 1525.730590820312
0, 5, 27, 1538.76220703125
0, 5, 28, 1486.194946289062
0, 5, 29, 1523.036010742188
0, 5, 30, 1489.080200195312
0, 5, 31, 1500.948974609375
0, 5, 32, 1602.029907226562
0, 5, 33, 1500.476318359375
0, 5, 34, 1487.619995117188
0, 5, 35, 1511.907104492188
0, 5, 36, 1441.6494140625
0, 5, 37, 1531.21826171875
0, 5, 38, 1549.850341796875
0, 5, 39, 1553.105590820312
0, 5, 40, 1497.418701171875
0, 5, 41, 1483.130859375
0, 5, 42, 1539.391723632812
0, 5, 43, 1536.850341796875
0, 5, 44, 1539.5791015625
0, 5, 45, 1511.863403320312
0, 5, 46, 1491.628295898438
0, 5, 47, 1481.296020507812
0, 5, 48, 1505.403198242188
0, 5, 49, 1528.05859375
0, 5, 50, 1507.912353515625
0, 5, 51, 1516.068481445312
0, 5, 52, 1429.43994140625
0, 5, 53, 1522.17333984375
0, 5, 54, 1522.22900390625
0, 5, 55, 1518.133544921875
0, 5, 56, 1486.195556640625
0, 5, 57, 1542.08837890625
0, 5, 58, 1507.692504882812
0, 5, 59, 1486.020263671875
0, 5, 60, 1540.448364257812
0, 5, 61, 1450.799072265625
0, 5, 62, 1579.96240234375
0, 5, 63, 1430.527954101562
0, 5, 64, 1489.476318359375
0, 5, 65, 1470.048950195312
0, 5, 66, 1525.985229492188
0, 5, 67, 1556.78662109375
0, 5, 68, 1461.47412109375
0, 5, 69, 1482.79833984375
0, 5, 70, 1493.45703125
0, 5, 71, 1472.054809570312
0, 5, 72, 1530.7392578125
0, 5, 73, 1461.5517578125
0, 5, 74, 1495.885009765625
0, 5, 75, 1490.073364257812
0, 5, 76, 1476.176147460938
0, 5, 77, 1524.459838867188
0, 5, 78, 1527.563842773438
0, 5, 79, 1512.319702148438
0, 5, 80, 1521.742553710938
0, 5, 81, 1592.34033203125
0, 5, 82, 1522.987548828125
0, 5, 83, 1488.459228515625
0, 5, 84, 1534.047729492188
0, 5, 85, 1514.718383789062
0, 5, 86, 1558.095703125
0, 5, 87, 1476.688354492188
0, 5, 88, 1499.789428710938
0, 5, 89, 1482.089233398438
0, 5, 90, 1484.42529296875
0, 5, 91, 1547.256103515625
0, 5, 92, 1483.505615234375
0, 5, 93, 1557.39404296875
0, 5, 94, 1506.153686523438
0, 5, 95, 1556.581420898438
0, 5, 96, 1497.175170898438
0, 5, 97, 1507.770141601562
0, 5, 98, 1511.173828125
0, 5, 99, 1539.149658203125
0, 5, 100, 1431.357177734375
0, 5, 101, 1427.138793945312
0, 5, 102, 1515.878540039062
0, 5, 103, 1471.754272460938
0, 5, 104, 1460.918334960938
0, 5, 105, 1490.612670898438
0, 5, 106, 1454.771362304688
0, 5, 107, 1399.741943359375
0, 5, 108, 1283.888549804688
0, 5, 109, 725.2256469726562
0, 5, 110, 190.9366607666016
0, 5, 111, 93.79599761962891
0, 5, 112, 80.86511993408203
0, 5, 113, 67.33082580566406
0, 5, 114, 63.39351654052734
0, 5, 115, 52.61151123046875
0, 5, 116, 42.8360481262207
0, 5, 117, 34.20104598999023
0, 5, 118, 44.73097991943359
0, 5, 119, 31.7707633972168
0, 5, 120, 28.613037109375
0, 5, 121, 27.15708541870117
0, 5, 122, 30.65396690368652
0, 5, 123, 26.97686004638672
0, 5, 124, 29.03863143920898
0, 5, 125, 20.45048904418945
0, 5, 126, 20.4630012512207
0, 5, 127, 24.78717422485352
0, 6, 0, 20.17524528503418
0, 6, 1, 29.00179481506348
0, 6, 2, 28.79142951965332
0, 6, 3, 31.40434646606445
0, 6, 4, 22.7450065612793
0, 6, 5, 37.15066528320312
0, 6, 6, 39.06995010375977
0, 6, 7, 30.71406173706055
0, 6, 8, 35.5042839050293
0, 6, 9, 35.73249053955078
0, 6, 10, 34.50835418701172
0, 6, 11, 41.10882949829102
0, 6, 12, 37.07337188720703
0, 6, 13, 59.81725692749023
0, 6, 14, 67.59158325195312
0, 6, 15, 82.552001953125
0, 6, 16, 112.5041580200195
0, 6, 17, 296.13134765625
0, 6, 18, 896.7012329101562
0, 6, 19, 1374.774169921875
0, 6, 20, 1437.37841796875
0, 6, 21, 1528.850830078125
0, 6, 22, 1503.421264648438
0, 6, 23, 1530.961303710938
0, 6, 24, 1478.337524414062
0, 6, 25, 1532.41259765625
0, 6, 26, 1520.734619140625
0, 6, 27, 1522.335693359375
0, 6, 28, 1553.016967773438
0, 6, 29, 1572.457275390625
0, 6, 30, 1517.419311523438
0, 6, 31, 1488.99169921875
0, 6, 32, 1531.001220703125
0, 6, 33, 1488.464233398438
0, 6, 34, 1558.146484375
0, 6, 35, 1508.209106445312
0, 6, 36, 1437.004760742188
0, 6, 37, 1549.7041015625
0, 6, 38, 1523.957275390625
0, 6, 39, 1524.587890625
0, 6, 40, 1456.834838867188
0, 6, 41, 1444.561401367188
0, 6, 42, 1514.703369140625
0, 6, 43, 1488.432739257812
0, 6, 44, 1431.782958984375
0, 6, 45, 1545.09716796875
0, 6, 46, 1559.804565429688
0, 6, 47, 1492.865844726562
0, 6, 48, 1524.497192382812
0, 6, 49, 1513.796020507812
0, 6, 50, 1574.22412109375
0, 6, 51, 1504.91943359375
0, 6, 52, 1566.339965820312
0, 6, 53, 1471.072631835938
0, 6, 54, 1498.0166015625
0, 6, 55, 1572.402099609375
0, 6, 56, 1520.702880859375
0, 6, 57, 1504.524169921875
0, 6, 58, 1470.137939453125
0, 6, 59, 1522.895263671875
0, 6, 60, 1474.29833984375
0, 6, 61, 1567.0888671875
0, 6, 62, 1548.07861328125
0, 6, 63, 1492.968139648438
0, 6, 64, 1414.473266601562
0, 6, 65, 1497.010986328125
0, 6, 66, 1515.062744140625
0, 6, 67, 1510.389770507812
0, 6, 68, 1548.838623046875
0, 6, 69, 1489.237670898438
0, 6, 70, 1524.905151367188
0, 6, 71, 1469.990600585938
0, 6, 72, 1591.060302734375
0, 6, 73, 1487.181884765625
0, 6, 74, 1559.5009765625
0, 6, 75, 1536.7138671875
0, 6, 76, 1563.06640625
0, 6, 77, 1504.686767578125
0, 6, 78, 1448.701171875
0, 6, 79, 1557.444946289062
0, 6, 80, 1482.894897460938
0, 6, 81, 1484.797607421875
0, 6, 82, 1507.103149414062
0, 6, 83, 1529.904663085938
0, 6, 84, 1518.224731445312
0, 6, 85, 1530.868286132812
0, 6, 86, 1541.315063476562
0, 6, 87, 1579.746826171875
0, 6, 88, 1479.8857421875
0, 6, 89, 1568.169189453125
0, 6, 90, 1489.230712890625
0, 6, 91, 1538.5751953125
0, 6, 92, 1490.639526367188
0, 6, 93, 1496.934936523438
0, 6, 94, 1473.017944335938
0, 6, 95, 1510.33642578125
0, 6, 96, 1518.785400390625
0, 6, 97, 1505.933349609375
0, 6, 98, 1494.339233398438
0, 6, 99, 1478.611083984375
0, 6, 100, 1520.914184570312
0, 6, 101, 1512.1552734375
0, 6, 102, 1535.0048828125
0, 6, 103, 1499.670776367188
0, 6, 104, 1464.695922851562
0, 6, 105, 1490.455078125
0, 6, 106, 1497.4296875
0, 6, 107, 1508.737915039062
0, 6, 108, 1415.005004882812
0, 6, 109, 923.3193359375
0, 6, 110, 279.7131652832031
0, 6, 111, 97.00225830078125
0, 6, 112, 75.50172424316406
0, 6, 113, 60.59869766235352
0, 6, 114, 53.7895393371582
0, 6, 115, 41.56750869750977
0, 6, 116, 43.31193161010742
0, 6, 117, 34.3181037902832
0, 6, 118, 46.0219841003418
0, 6, 119, 31.33670616149902
0, 6, 120, 28.88105583190918
0, 6, 121, 27.8231258392334
0, 6, 122, 28.11805725097656
0, 6, 123, 26.47645378112793
0, 6, 124, 29.83436393737793
0, 6, 125, 32.59738159179688
0, 6, 126, 25.98809242248535
0, 6, 127, 24.74650382995605
0, 7, 0, 20.83470153808594
0, 7, 1, 30.43629837036133
0, 7, 2, 29.46666526794434
0, 7, 3, 25.85030364990234
0, 7, 4, 24.77096557617188
0, 7, 5, 32.95319366455078
0, 7, 6, 31.91081809997559
0, 7, 7, 38.18800354003906
0, 7, 8, 32.93964004516602
0, 7, 9, 35.16471099853516
0, 7, 10, 47.40971755981445
0, 7, 11, 49.96797180175781
0, 7, 12, 45.33109283447266
0, 7, 13, 51.72236251831055
0, 7, 14, 60.55011749267578
0, 7, 15, 77.68317413330078
0, 7, 16, 131.4736633300781
0, 7, 17, 460.8279418945312
0, 7, 18, 1100.088134765625
0, 7, 19, 1496.191284179688
0, 7, 20, 1483.9267578125
0, 7, 21, 1367.681762695312
0, 7, 22, 1489.958618164062
0, 7, 23, 1452.574951171875
0, 7, 24, 1510.786254882812
0, 7, 25, 1592.283813476562
0, 7, 26, 1520.074096679688
0, 7, 27, 1510.231323242188
0, 7, 28, 1542.567626953125
0, 7, 29, 1575.3828125
0, 7, 30, 1549.537963867188
0, 7, 31, 1435.365966796875
0, 7, 32, 1546.490356445312
0, 7, 33, 1489.839477539062
0, 7, 34, 1484.242919921875
0, 7, 35, 1523.846923828125
0, 7, 36, 1478.578125
0, 7, 37, 1595.1689453125
0, 7, 38, 1503.558227539062
0, 7, 39, 1490.537841796875
0, 7, 40, 1544.775512695312
0, 7, 41, 1465.493286132812
0, 7, 42, 1487.287231445312
0, 7, 43, 1450.312133789062
0, 7, 44, 1490.205444335938
0, 7, 45, 1467.207275390625
0, 7, 46, 1510.608154296875
0, 7, 47, 1562.96337890625
0, 7, 48, 1521.828247070312
0, 7, 49, 1538.312622070312
0, 7, 50, 1515.619140625
0, 7, 51, 1502.824340820312
0, 7, 52, 1515.466186523438
0, 7, 53, 1493.429565429688
0, 7, 54, 1585.173461914062
0, 7, 55, 1468.689453125
0, 7, 56, 1549.921630859375
0, 7, 57, 1518.084350585938
0, 7, 58, 1550.909545898438
0, 7, 59, 1542.24072265625
0, 7, 60, 1547.365234375
0, 7, 61, 1492.977783203125
0, 7, 62, 1432.244262695312
0, 7, 63, 1512.335571289062
0, 7, 64, 1544.848754882812
0, 7, 65, 1529.92724609375
0, 7, 66, 1537.646118164062
0, 7, 67, 1585.717041015625
0, 7, 68, 1529.837036132812
0, 7, 69, 1512.816772460938
0, 7, 70, 1496.834716796875
0, 7, 71, 1524.256469726562
0, 7, 72, 1522.19970703125
0, 7, 73, 1514.286865234375
0, 7, 74, 1578.226928710938
0, 7, 75, 1537.436645507812
0, 7, 76, 1557.527465820312
0, 7, 77, 1511.53515625
0, 7, 78, 1504.887817382812
0, 7, 79, 1424.250244140625
0, 7, 80, 1486.978393554688
0, 7, 81, 1493.590087890625
0, 7, 82, 1538.308837890625
0, 7, 83, 1546.487548828125
0, 7, 84, 1585.425659179688
0, 7, 85, 1481.44140625
0, 7, 86, 1509.152954101562
0, 7, 87, 1505.269409179688
0, 7, 88, 1500.936645507812
0, 7, 89, 1555.805419921875
0, 7, 90, 1519.647216796875
0, 7, 91, 1565.4267578125
0, 7, 92, 1529.082397460938
0, 7, 93, 1554.546020507812
0, 7, 94, 1536.466552734375
0, 7, 95, 1505.10693359375
0, 7, 96, 1506.838500976562
0, 7, 97, 1430.214965820312
0, 7, 98, 1483.998657226562
0, 7, 99, 1523.8369140625
0, 7, 100, 1414.941162109375
0, 7, 101, 1463.36328125
0, 7, 102, 1448.100952148438
0, 7, 103, 1432.273559570312
0, 7, 104, 1495.6455078125
0, 7, 105, 1525.536743164062
0, 7, 106, 1567.443481445312
0, 7, 107, 1485.968017578125
0, 7, 108, 1408.109619140625
0, 7, 109, 1149.80224609375
0, 7, 110, 467.0157470703125
0, 7, 111, 127.2030487060547
0, 7, 112, 78.62438201904297
0, 7, 113, 68.12603759765625
0, 7, 114, 56.02832412719727
0, 7, 115, 50.68286895751953
0, 7, 116, 42.20550918579102
0, 7, 117, 40.22265625
0, 7, 118, 34.26479721069336
0, 7, 119, 34.71193313598633
0, 7, 120, 24.61681175231934
0, 7, 121, 28.15839004516602
0, 7, 122, 34.91153335571289
0, 7, 123, 29.93249893188477
0, 7, 124, 32.29900741577148
0, 7, 125, 24.65753364562988
0, 7, 126, 21.41237449645996
0, 7, 127, 23.38175010681152
0, 8, 0, 22.25829696655273
0, 8, 1, 24.73765182495117
0, 8, 2, 22.30742454528809
0, 8, 3, 26.39461517333984
0, 8, 4, 25.6187915802002
0, 8, 5, 29.42023849487305
0, 8, 6, 38.88397598266602
0, 8, 7, 27.2370777130127
0, 8, 8, 37.01717758178711
0, 8, 9, 43.59371185302734
0, 8, 10, 41.81951522827148
0, 8, 11, 42.13544845581055
0, 8, 12, 55.71686935424805
0, 8, 13, 68.31202697753906
0, 8, 14, 69.2802734375
0, 8, 15, 84.92649841308594
0, 8, 16, 163.6591033935547
0, 8, 17, 672.2245483398438
0, 8, 18, 1271.112426757812
0, 8, 19, 1452.742919921875
0, 8, 20, 1418.141723632812
0, 8, 21, 1413.532348632812
0, 8, 22, 1485.687622070312
0, 8, 23, 1484.394165039062
0, 8, 24, 1433.996948242188
0, 8, 25, 1458.735595703125
0, 8, 26, 1513.513793945312
0, 8, 27, 1519.193969726562
0, 8, 28, 1477.221069335938
0, 8, 29, 1508.488159179688
0, 8, 30, 1485.005249023438
0, 8, 31, 1533.517578125
0, 8, 32, 1509.197631835938
0, 8, 33, 1480.869750976562
0, 8, 34, 1534.192016601562
0, 8, 35, 1437.989990234375
0, 8, 36, 1497.71630859375
0, 8, 37, 1559.166870117188
0, 8, 38, 1557.206665039062
0, 8, 39, 1490.697998046875
0, 8, 40, 1534.581909179688
0, 8, 41, 1482.390258789062
0, 8, 42, 1537.400146484375
0, 8, 43, 1430.618530273438
0, 8, 44, 1533.718505859375
0, 8, 45, 1514.630004882812
0, 8, 46, 1596.7861328125
0, 8, 47, 1584.66455078125
0, 8, 48, 1547.091796875
