# TOPAS Version: 3.1.p3
# Parameter File: batch_inserts_346.txt
# Results for scorer Readout_Adipose
# Scored in component: MyBox
# X in 1 bin  of 0.75 cm
# Y in 512 bins of 0.0783984 cm
# Z in 128 bins of 0.078125 cm
# EnergyDeposit ( MeV ) : Sum   
0, 0, 0, 3.66097617149353
0, 0, 1, 3.272294521331787
0, 0, 2, 5.524330139160156
0, 0, 3, 1.802606821060181
0, 0, 4, 2.36836576461792
0, 0, 5, 3.940978050231934
0, 0, 6, 5.470782279968262
0, 0, 7, 7.717124938964844
0, 0, 8, 3.223404407501221
0, 0, 9, 5.007927417755127
0, 0, 10, 7.597589492797852
0, 0, 11, 4.649567604064941
0, 0, 12, 4.664088726043701
0, 0, 13, 5.723260402679443
0, 0, 14, 8.018416404724121
0, 0, 15, 9.491521835327148
0, 0, 16, 8.780583381652832
0, 0, 17, 9.230710983276367
0, 0, 18, 14.45558547973633
0, 0, 19, 43.87969589233398
0, 0, 20, 138.2880554199219
0, 0, 21, 222.634765625
0, 0, 22, 250.3268432617188
0, 0, 23, 257.2760314941406
0, 0, 24, 251.7783966064453
0, 0, 25, 257.2042236328125
0, 0, 26, 235.4188995361328
0, 0, 27, 236.245849609375
0, 0, 28, 271.6856079101562
0, 0, 29, 253.8954162597656
0, 0, 30, 230.6676788330078
0, 0, 31, 243.1485748291016
0, 0, 32, 263.2181701660156
0, 0, 33, 261.0176696777344
0, 0, 34, 288.2610778808594
0, 0, 35, 267.0187072753906
0, 0, 36, 247.0829010009766
0, 0, 37, 251.9989624023438
0, 0, 38, 268.0322265625
0, 0, 39, 232.4564514160156
0, 0, 40, 240.9480590820312
0, 0, 41, 264.2200317382812
0, 0, 42, 230.8014984130859
0, 0, 43, 262.8252868652344
0, 0, 44, 250.6634979248047
0, 0, 45, 253.8480377197266
0, 0, 46, 244.3094940185547
0, 0, 47, 252.3651275634766
0, 0, 48, 265.8557434082031
0, 0, 49, 273.9742431640625
0, 0, 50, 251.7438354492188
0, 0, 51, 254.1032104492188
0, 0, 52, 275.572021484375
0, 0, 53, 292.3896789550781
0, 0, 54, 242.6423645019531
0, 0, 55, 240.5745697021484
0, 0, 56, 277.9368591308594
0, 0, 57, 262.9679870605469
0, 0, 58, 245.3013610839844
0, 0, 59, 270.9173278808594
0, 0, 60, 236.1698608398438
0, 0, 61, 243.8455963134766
0, 0, 62, 255.8383941650391
0, 0, 63, 265.3969421386719
0, 0, 64, 256.9641723632812
0, 0, 65, 260.3639221191406
0, 0, 66, 275.9080200195312
0, 0, 67, 246.4126434326172
0, 0, 68, 257.4686279296875
0, 0, 69, 262.1487731933594
0, 0, 70, 271.4525756835938
0, 0, 71, 236.7542266845703
0, 0, 72, 250.8491668701172
0, 0, 73, 258.0188903808594
0, 0, 74, 252.8486480712891
0, 0, 75, 240.0433044433594
0, 0, 76, 228.5638732910156
0, 0, 77, 263.6667785644531
0, 0, 78, 256.8329162597656
0, 0, 79, 277.633056640625
0, 0, 80, 216.4474334716797
0, 0, 81, 266.9795532226562
0, 0, 82, 256.9588012695312
0, 0, 83, 245.0298919677734
0, 0, 84, 270.0104064941406
0, 0, 85, 231.6089324951172
0, 0, 86, 252.8312072753906
0, 0, 87, 250.6829833984375
0, 0, 88, 260.1475524902344
0, 0, 89, 284.656494140625
0, 0, 90, 243.5291595458984
0, 0, 91, 280.9603881835938
0, 0, 92, 254.8235015869141
0, 0, 93, 248.9547882080078
0, 0, 94, 247.5902404785156
0, 0, 95, 248.0812530517578
0, 0, 96, 275.5864562988281
0, 0, 97, 272.454345703125
0, 0, 98, 274.557373046875
0, 0, 99, 258.0086059570312
0, 0, 100, 258.0837097167969
0, 0, 101, 225.9987182617188
0, 0, 102, 232.4694519042969
0, 0, 103, 272.2911682128906
0, 0, 104, 255.0870666503906
0, 0, 105, 250.9395599365234
0, 0, 106, 246.4841766357422
0, 0, 107, 151.4434967041016
0, 0, 108, 40.42985534667969
0, 0, 109, 12.0311918258667
0, 0, 110, 11.44858360290527
0, 0, 111, 8.716933250427246
0, 0, 112, 5.783514022827148
0, 0, 113, 4.937565326690674
0, 0, 114, 7.30734395980835
0, 0, 115, 4.788534641265869
0, 0, 116, 5.919555187225342
0, 0, 117, 6.491705417633057
0, 0, 118, 5.98255443572998
0, 0, 119, 5.090120792388916
0, 0, 120, 5.259579658508301
0, 0, 121, 4.129360198974609
0, 0, 122, 6.565855503082275
0, 0, 123, 5.272130966186523
0, 0, 124, 4.262372493743896
0, 0, 125, 1.509632706642151
0, 0, 126, 5.480726718902588
0, 0, 127, 2.764116287231445
0, 1, 0, 6.836796283721924
0, 1, 1, 3.094151258468628
0, 1, 2, 3.977655410766602
0, 1, 3, 1.880274534225464
0, 1, 4, 3.02364182472229
0, 1, 5, 1.770785927772522
0, 1, 6, 7.19314432144165
0, 1, 7, 3.129005432128906
0, 1, 8, 8.375358581542969
0, 1, 9, 3.632773637771606
0, 1, 10, 7.796765327453613
0, 1, 11, 11.77972793579102
0, 1, 12, 8.43896484375
0, 1, 13, 11.75202369689941
0, 1, 14, 9.136028289794922
0, 1, 15, 7.577900409698486
0, 1, 16, 11.42692852020264
0, 1, 17, 11.33014965057373
0, 1, 18, 22.30229377746582
0, 1, 19, 66.80074310302734
0, 1, 20, 197.0324249267578
0, 1, 21, 254.4586181640625
0, 1, 22, 294.8864135742188
0, 1, 23, 281.7958374023438
0, 1, 24, 277.6784057617188
0, 1, 25, 289.0760192871094
0, 1, 26, 266.9328002929688
0, 1, 27, 306.6153564453125
0, 1, 28, 300.9179992675781
0, 1, 29, 297.5959777832031
0, 1, 30, 283.3994750976562
0, 1, 31, 291.8002319335938
0, 1, 32, 291.0096435546875
0, 1, 33, 295.0164489746094
0, 1, 34, 292.4726257324219
0, 1, 35, 277.4553833007812
0, 1, 36, 306.4929809570312
0, 1, 37, 295.4964599609375
0, 1, 38, 282.5735778808594
0, 1, 39, 299.0558471679688
0, 1, 40, 267.1004333496094
0, 1, 41, 285.9106750488281
0, 1, 42, 288.7360229492188
0, 1, 43, 330.9257202148438
0, 1, 44, 278.3595581054688
0, 1, 45, 291.5859069824219
0, 1, 46, 258.7805786132812
0, 1, 47, 311.9973754882812
0, 1, 48, 284.5928344726562
0, 1, 49, 300.3890686035156
0, 1, 50, 262.3295593261719
0, 1, 51, 273.1942749023438
0, 1, 52, 297.1782531738281
0, 1, 53, 303.7907409667969
0, 1, 54, 275.2223205566406
0, 1, 55, 292.9636840820312
0, 1, 56, 277.6681823730469
0, 1, 57, 300.2703552246094
0, 1, 58, 314.0237121582031
0, 1, 59, 292.0738525390625
0, 1, 60, 298.4513549804688
0, 1, 61, 273.7041931152344
0, 1, 62, 308.2117919921875
0, 1, 63, 285.9845581054688
0, 1, 64, 289.9749755859375
0, 1, 65, 297.7231750488281
0, 1, 66, 292.1752624511719
0, 1, 67, 292.5376892089844
0, 1, 68, 277.4898986816406
0, 1, 69, 281.8265380859375
0, 1, 70, 271.2769775390625
0, 1, 71, 273.6139221191406
0, 1, 72, 284.4476928710938
0, 1, 73, 304.31689453125
0, 1, 74, 303.0564270019531
0, 1, 75, 292.4061584472656
0, 1, 76, 284.8862915039062
0, 1, 77, 288.4795532226562
0, 1, 78, 296.3876953125
0, 1, 79, 306.3364562988281
0, 1, 80, 298.6876831054688
0, 1, 81, 300.7807312011719
0, 1, 82, 285.4382629394531
0, 1, 83, 332.0302429199219
0, 1, 84, 308.7325134277344
0, 1, 85, 253.489501953125
0, 1, 86, 294.023681640625
0, 1, 87, 289.6857299804688
0, 1, 88, 298.7281188964844
0, 1, 89, 289.6602783203125
0, 1, 90, 270.3820190429688
0, 1, 91, 316.7972412109375
0, 1, 92, 294.18212890625
0, 1, 93, 285.2738952636719
0, 1, 94, 304.5788879394531
0, 1, 95, 284.01220703125
0, 1, 96, 285.3824462890625
0, 1, 97, 300.7850646972656
0, 1, 98, 276.9798278808594
0, 1, 99, 266.6077575683594
0, 1, 100, 278.6487731933594
0, 1, 101, 282.1735229492188
0, 1, 102, 277.6559753417969
0, 1, 103, 280.5900268554688
0, 1, 104, 306.5538024902344
0, 1, 105, 297.9459533691406
0, 1, 106, 261.7513427734375
0, 1, 107, 190.2368927001953
0, 1, 108, 80.93672180175781
0, 1, 109, 25.68936157226562
0, 1, 110, 11.03970623016357
0, 1, 111, 8.533554077148438
0, 1, 112, 11.0168399810791
0, 1, 113, 5.703773021697998
0, 1, 114, 6.467036724090576
0, 1, 115, 8.410364151000977
0, 1, 116, 11.65911293029785
0, 1, 117, 7.335393905639648
0, 1, 118, 5.467807292938232
0, 1, 119, 7.62003755569458
0, 1, 120, 5.966301441192627
0, 1, 121, 5.392206192016602
0, 1, 122, 4.051092624664307
0, 1, 123, 3.443831205368042
0, 1, 124, 7.69423770904541
0, 1, 125, 3.155198574066162
0, 1, 126, 4.03670072555542
0, 1, 127, 2.54383397102356
0, 2, 0, 4.338598728179932
0, 2, 1, 2.436831712722778
0, 2, 2, 3.379326581954956
0, 2, 3, 3.312648773193359
0, 2, 4, 3.828657150268555
0, 2, 5, 4.326847553253174
0, 2, 6, 2.253104448318481
0, 2, 7, 2.914847135543823
0, 2, 8, 4.612366199493408
0, 2, 9, 5.732994079589844
0, 2, 10, 6.536414623260498
0, 2, 11, 6.385035037994385
0, 2, 12, 7.63303279876709
0, 2, 13, 11.0196704864502
0, 2, 14, 9.900908470153809
0, 2, 15, 7.049081325531006
0, 2, 16, 10.44193077087402
0, 2, 17, 16.830322265625
0, 2, 18, 32.70658874511719
0, 2, 19, 117.0577392578125
0, 2, 20, 248.4002227783203
0, 2, 21, 271.6993408203125
0, 2, 22, 314.7520446777344
0, 2, 23, 299.7943420410156
0, 2, 24, 285.6462707519531
0, 2, 25, 303.633544921875
0, 2, 26, 291.5172729492188
0, 2, 27, 274.9358520507812
0, 2, 28, 273.6784362792969
0, 2, 29, 273.4376525878906
0, 2, 30, 289.30224609375
0, 2, 31, 276.5541076660156
0, 2, 32, 293.8879089355469
0, 2, 33, 283.2530822753906
0, 2, 34, 333.0739440917969
0, 2, 35, 291.6983947753906
0, 2, 36, 304.3888549804688
0, 2, 37, 315.1789245605469
0, 2, 38, 309.5146789550781
0, 2, 39, 267.8170166015625
0, 2, 40, 308.3672485351562
0, 2, 41, 294.2989196777344
0, 2, 42, 305.8093872070312
0, 2, 43, 313.3702392578125
0, 2, 44, 310.9794006347656
0, 2, 45, 323.9586486816406
0, 2, 46, 286.7074890136719
0, 2, 47, 301.8067321777344
0, 2, 48, 287.3805541992188
0, 2, 49, 279.8797302246094
0, 2, 50, 294.1248168945312
0, 2, 51, 285.0845947265625
0, 2, 52, 271.3406982421875
0, 2, 53, 285.42919921875
0, 2, 54, 279.4232482910156
0, 2, 55, 275.2684326171875
0, 2, 56, 301.4542236328125
0, 2, 57, 291.8929443359375
0, 2, 58, 302.8284301757812
0, 2, 59, 289.209228515625
0, 2, 60, 319.4763793945312
0, 2, 61, 301.8327026367188
0, 2, 62, 313.4896850585938
0, 2, 63, 301.7188110351562
0, 2, 64, 295.1100463867188
0, 2, 65, 314.195068359375
0, 2, 66, 281.3608703613281
0, 2, 67, 293.5047302246094
0, 2, 68, 296.9595031738281
0, 2, 69, 310.8744506835938
0, 2, 70, 334.90185546875
0, 2, 71, 284.5755004882812
0, 2, 72, 300.6693115234375
0, 2, 73, 313.2102661132812
0, 2, 74, 287.7781982421875
0, 2, 75, 305.3767700195312
0, 2, 76, 286.5566101074219
0, 2, 77, 298.35107421875
0, 2, 78, 318.0557556152344
0, 2, 79, 308.7099914550781
0, 2, 80, 295.1509399414062
0, 2, 81, 281.9512329101562
0, 2, 82, 319.3847045898438
0, 2, 83, 313.71728515625
0, 2, 84, 290.7573852539062
0, 2, 85, 283.1517639160156
0, 2, 86, 326.9839477539062
0, 2, 87, 287.1076049804688
0, 2, 88, 281.6372985839844
0, 2, 89, 297.4266357421875
0, 2, 90, 295.8738098144531
0, 2, 91, 275.3622741699219
0, 2, 92, 305.5821228027344
0, 2, 93, 315.9444885253906
0, 2, 94, 291.843505859375
0, 2, 95, 315.1939086914062
0, 2, 96, 314.569580078125
0, 2, 97, 293.127197265625
0, 2, 98, 292.2245178222656
0, 2, 99, 272.7362060546875
0, 2, 100, 304.9498291015625
0, 2, 101, 301.0387268066406
0, 2, 102, 295.5737609863281
0, 2, 103, 291.8187561035156
0, 2, 104, 294.3297424316406
0, 2, 105, 274.2066955566406
0, 2, 106, 298.0026245117188
0, 2, 107, 272.8953552246094
0, 2, 108, 116.8745803833008
0, 2, 109, 33.17292404174805
0, 2, 110, 10.84664058685303
0, 2, 111, 10.25094318389893
0, 2, 112, 8.394131660461426
0, 2, 113, 9.59835147857666
0, 2, 114, 10.6450662612915
0, 2, 115, 9.973403930664062
0, 2, 116, 7.589092254638672
0, 2, 117, 5.429533958435059
0, 2, 118, 2.405724287033081
0, 2, 119, 4.886307716369629
0, 2, 120, 5.950962066650391
0, 2, 121, 3.929391860961914
0, 2, 122, 5.238405704498291
0, 2, 123, 6.060649394989014
0, 2, 124, 6.41625452041626
0, 2, 125, 5.725146770477295
0, 2, 126, 3.758461713790894
0, 2, 127, 4.302141666412354
0, 3, 0, 3.916700839996338
0, 3, 1, 4.032157897949219
0, 3, 2, 2.891699552536011
0, 3, 3, 3.674029111862183
0, 3, 4, 3.646476745605469
0, 3, 5, 6.80723237991333
0, 3, 6, 6.611485958099365
0, 3, 7, 4.991687774658203
0, 3, 8, 4.413008213043213
0, 3, 9, 6.716032981872559
0, 3, 10, 6.12297534942627
0, 3, 11, 3.633292436599731
0, 3, 12, 9.22063159942627
0, 3, 13, 14.09965038299561
0, 3, 14, 11.75583457946777
0, 3, 15, 14.80031204223633
0, 3, 16, 13.23901557922363
0, 3, 17, 19.46541976928711
0, 3, 18, 50.50894546508789
0, 3, 19, 174.704345703125
0, 3, 20, 270.9185791015625
0, 3, 21, 271.0583190917969
0, 3, 22, 282.1395263671875
0, 3, 23, 286.9330749511719
0, 3, 24, 286.0009460449219
0, 3, 25, 270.4644470214844
0, 3, 26, 304.2633361816406
0, 3, 27, 291.9116821289062
0, 3, 28, 282.2438659667969
0, 3, 29, 338.1005249023438
0, 3, 30, 316.4946594238281
0, 3, 31, 285.4679260253906
0, 3, 32, 306.5213623046875
0, 3, 33, 315.2799377441406
0, 3, 34, 323.4833068847656
0, 3, 35, 306.5263061523438
0, 3, 36, 270.0620422363281
0, 3, 37, 311.6119079589844
0, 3, 38, 302.3822631835938
0, 3, 39, 291.8839416503906
0, 3, 40, 266.8634643554688
0, 3, 41, 298.1600646972656
0, 3, 42, 285.5876159667969
0, 3, 43, 306.7182922363281
0, 3, 44, 309.9484252929688
0, 3, 45, 291.8521423339844
0, 3, 46, 329.8190307617188
0, 3, 47, 298.8401184082031
0, 3, 48, 302.6927795410156
0, 3, 49, 276.2134704589844
0, 3, 50, 289.9989013671875
0, 3, 51, 277.1019897460938
0, 3, 52, 314.6687622070312
0, 3, 53, 287.8493957519531
0, 3, 54, 285.9554443359375
0, 3, 55, 286.0240173339844
0, 3, 56, 298.7291259765625
0, 3, 57, 286.8926696777344
0, 3, 58, 304.9615478515625
0, 3, 59, 295.6890563964844
0, 3, 60, 297.605224609375
0, 3, 61, 264.3267211914062
0, 3, 62, 285.5166015625
0, 3, 63, 308.5621032714844
0, 3, 64, 317.9039916992188
0, 3, 65, 306.3023681640625
0, 3, 66, 313.6991271972656
0, 3, 67, 319.3125305175781
0, 3, 68, 279.9901428222656
0, 3, 69, 282.294189453125
0, 3, 70, 289.28564453125
0, 3, 71, 297.5925598144531
0, 3, 72, 270.7104187011719
0, 3, 73, 306.2249450683594
0, 3, 74, 292.7482299804688
0, 3, 75, 290.6206359863281
0, 3, 76, 304.8170166015625
0, 3, 77, 313.5256958007812
0, 3, 78, 303.6747741699219
0, 3, 79, 283.5363464355469
0, 3, 80, 290.0133361816406
0, 3, 81, 310.9395141601562
0, 3, 82, 315.3959045410156
0, 3, 83, 300.1918029785156
0, 3, 84, 312.4752807617188
0, 3, 85, 294.5779724121094
0, 3, 86, 303.117431640625
0, 3, 87, 296.4484252929688
0, 3, 88, 296.92919921875
0, 3, 89, 295.9266357421875
0, 3, 90, 278.649658203125
0, 3, 91, 284.4021911621094
0, 3, 92, 302.9176025390625
0, 3, 93, 312.2928771972656
0, 3, 94, 297.6474914550781
0, 3, 95, 336.2942199707031
0, 3, 96, 290.18994140625
0, 3, 97, 285.121337890625
0, 3, 98, 279.081298828125
0, 3, 99, 261.7956237792969
0, 3, 100, 284.9012451171875
0, 3, 101, 296.9506530761719
0, 3, 102, 275.0140686035156
0, 3, 103, 318.3291931152344
0, 3, 104, 307.0332336425781
0, 3, 105, 289.3793640136719
0, 3, 106, 300.9820861816406
0, 3, 107, 282.197265625
0, 3, 108, 170.2835693359375
0, 3, 109, 58.92845916748047
0, 3, 110, 20.89328575134277
0, 3, 111, 12.54697322845459
0, 3, 112, 12.63004875183105
0, 3, 113, 8.784760475158691
0, 3, 114, 10.48504543304443
0, 3, 115, 7.857265472412109
0, 3, 116, 8.828117370605469
0, 3, 117, 7.336566925048828
0, 3, 118, 6.770535469055176
0, 3, 119, 4.921409130096436
0, 3, 120, 3.92568039894104
0, 3, 121, 2.716742753982544
0, 3, 122, 4.174810886383057
0, 3, 123, 5.559877395629883
0, 3, 124, 5.521769046783447
0, 3, 125, 6.314930438995361
0, 3, 126, 7.9387526512146
0, 3, 127, 2.956248044967651
0, 4, 0, 2.92363429069519
0, 4, 1, 6.617331027984619
0, 4, 2, 4.405975341796875
0, 4, 3, 3.227871894836426
0, 4, 4, 6.819769382476807
0, 4, 5, 9.801456451416016
0, 4, 6, 5.839009284973145
0, 4, 7, 3.720183134078979
0, 4, 8, 6.447564125061035
0, 4, 9, 10.0897855758667
0, 4, 10, 9.177435874938965
0, 4, 11, 7.809063911437988
0, 4, 12, 4.771206855773926
0, 4, 13, 7.329706192016602
0, 4, 14, 12.14221668243408
0, 4, 15, 10.12055206298828
0, 4, 16, 17.58868408203125
0, 4, 17, 17.60497283935547
0, 4, 18, 94.176513671875
0, 4, 19, 222.4622344970703
0, 4, 20, 283.5361633300781
0, 4, 21, 272.6546325683594
0, 4, 22, 304.4082641601562
0, 4, 23, 266.9255676269531
0, 4, 24, 289.7365112304688
0, 4, 25, 274.2778625488281
0, 4, 26, 295.09423828125
0, 4, 27, 282.1496887207031
0, 4, 28, 307.1763916015625
0, 4, 29, 323.4762573242188
0, 4, 30, 310.8570556640625
0, 4, 31, 305.5975952148438
0, 4, 32, 280.1532897949219
0, 4, 33, 295.8492431640625
0, 4, 34, 295.3152770996094
0, 4, 35, 312.7190856933594
0, 4, 36, 293.1282348632812
0, 4, 37, 287.5497131347656
0, 4, 38, 299.9457397460938
0, 4, 39, 294.9655456542969
0, 4, 40, 303.7286376953125
0, 4, 41, 309.9602966308594
0, 4, 42, 328.9304504394531
0, 4, 43, 293.9193420410156
0, 4, 44, 322.0536804199219
0, 4, 45, 325.5560913085938
0, 4, 46, 306.5833435058594
0, 4, 47, 292.4917907714844
0, 4, 48, 294.5539245605469
0, 4, 49, 278.1464233398438
0, 4, 50, 295.66162109375
0, 4, 51, 315.5032348632812
0, 4, 52, 329.2001647949219
0, 4, 53, 304.9375305175781
0, 4, 54, 287.5391845703125
0, 4, 55, 315.2655334472656
0, 4, 56, 287.1284790039062
0, 4, 57, 309.2619018554688
0, 4, 58, 295.2646484375
0, 4, 59, 308.1075744628906
0, 4, 60, 303.5625305175781
0, 4, 61, 317.0462341308594
0, 4, 62, 307.5085754394531
0, 4, 63, 298.5976867675781
0, 4, 64, 331.7289733886719
0, 4, 65, 315.6744689941406
0, 4, 66, 293.9728393554688
0, 4, 67, 283.8631286621094
0, 4, 68, 314.5097351074219
0, 4, 69, 276.0804443359375
0, 4, 70, 299.9557189941406
0, 4, 71, 322.8670349121094
0, 4, 72, 332.0153198242188
0, 4, 73, 297.3627624511719
0, 4, 74, 293.6771240234375
0, 4, 75, 288.5685729980469
0, 4, 76, 276.6344604492188
0, 4, 77, 279.7345886230469
0, 4, 78, 308.1311645507812
0, 4, 79, 319.9626159667969
0, 4, 80, 316.6200561523438
0, 4, 81, 312.7977294921875
0, 4, 82, 298.8167419433594
0, 4, 83, 301.8247375488281
0, 4, 84, 290.2163391113281
0, 4, 85, 295.1353149414062
0, 4, 86, 298.672119140625
0, 4, 87, 285.5261535644531
0, 4, 88, 305.4806823730469
0, 4, 89, 294.6401062011719
0, 4, 90, 331.816162109375
0, 4, 91, 302.0224914550781
0, 4, 92, 289.3157348632812
0, 4, 93, 299.0494995117188
0, 4, 94, 293.2810668945312
0, 4, 95, 289.7858276367188
0, 4, 96, 325.4411010742188
0, 4, 97, 273.51171875
0, 4, 98, 327.31689453125
0, 4, 99, 313.0599975585938
0, 4, 100, 300.83154296875
0, 4, 101, 258.7102661132812
0, 4, 102, 298.0144348144531
0, 4, 103, 317.0378723144531
0, 4, 104, 281.2378234863281
0, 4, 105, 312.5033569335938
0, 4, 106, 288.189208984375
0, 4, 107, 297.5388488769531
0, 4, 108, 226.2436218261719
0, 4, 109, 81.96868133544922
0, 4, 110, 15.98648548126221
0, 4, 111, 14.78838062286377
0, 4, 112, 9.347908973693848
0, 4, 113, 9.276778221130371
0, 4, 114, 8.95827579498291
0, 4, 115, 10.45715045928955
0, 4, 116, 10.08300876617432
0, 4, 117, 4.645260810852051
0, 4, 118, 8.468694686889648
0, 4, 119, 8.390210151672363
0, 4, 120, 5.156875610351562
0, 4, 121, 4.149673461914062
0, 4, 122, 3.536019563674927
0, 4, 123, 6.70297384262085
0, 4, 124, 6.276712894439697
0, 4, 125, 11.33693599700928
0, 4, 126, 5.540605545043945
0, 4, 127, 4.952682018280029
0, 5, 0, 3.401370525360107
0, 5, 1, 4.043741703033447
0, 5, 2, 3.323082208633423
0, 5, 3, 4.993683338165283
0, 5, 4, 5.270159244537354
0, 5, 5, 5.272006988525391
0, 5, 6, 5.71776294708252
0, 5, 7, 5.058818340301514
0, 5, 8, 5.853400707244873
0, 5, 9, 7.901928901672363
0, 5, 10, 8.410971641540527
0, 5, 11, 8.982855796813965
0, 5, 12, 8.91618537902832
0, 5, 13, 5.017478466033936
0, 5, 14, 15.3481616973877
0, 5, 15, 14.87481594085693
0, 5, 16, 13.92156219482422
0, 5, 17, 29.91700553894043
0, 5, 18, 138.2074127197266
0, 5, 19, 288.494873046875
0, 5, 20, 306.288818359375
0, 5, 21, 316.4955139160156
0, 5, 22, 275.3590087890625
0, 5, 23, 313.8675537109375
0, 5, 24, 303.19189453125
0, 5, 25, 290.7922973632812
0, 5, 26, 296.4200134277344
0, 5, 27, 321.4476928710938
0, 5, 28, 302.4852600097656
0, 5, 29, 298.4728698730469
0, 5, 30, 322.4595947265625
0, 5, 31, 287.6067199707031
0, 5, 32, 302.7414855957031
0, 5, 33, 304.429931640625
0, 5, 34, 297.5956420898438
0, 5, 35, 308.7231140136719
0, 5, 36, 269.5947570800781
0, 5, 37, 283.3687133789062
0, 5, 38, 293.3224792480469
0, 5, 39, 312.2633361816406
0, 5, 40, 308.0572814941406
0, 5, 41, 274.2891540527344
0, 5, 42, 305.3144836425781
0, 5, 43, 315.2237243652344
0, 5, 44, 291.4606018066406
0, 5, 45, 302.7691955566406
0, 5, 46, 265.6604309082031
0, 5, 47, 281.7434997558594
0, 5, 48, 292.8016052246094
0, 5, 49, 284.7271118164062
0, 5, 50, 295.2648620605469
0, 5, 51, 279.5770874023438
0, 5, 52, 268.5036010742188
0, 5, 53, 285.27783203125
0, 5, 54, 294.0989074707031
0, 5, 55, 347.3210754394531
0, 5, 56, 305.298095703125
0, 5, 57, 308.40185546875
0, 5, 58, 312.0676574707031
0, 5, 59, 303.2471313476562
0, 5, 60, 307.5035705566406
0, 5, 61, 280.6344299316406
0, 5, 62, 323.4401550292969
0, 5, 63, 290.6082153320312
0, 5, 64, 323.2552185058594
0, 5, 65, 306.9792175292969
0, 5, 66, 325.633544921875
0, 5, 67, 313.2600402832031
0, 5, 68, 306.4744567871094
0, 5, 69, 310.5916748046875
0, 5, 70, 302.4661254882812
0, 5, 71, 271.4144592285156
0, 5, 72, 307.8828735351562
0, 5, 73, 302.9280700683594
0, 5, 74, 294.8213195800781
0, 5, 75, 294.7358703613281
0, 5, 76, 285.879150390625
0, 5, 77, 298.9721984863281
0, 5, 78, 315.3450012207031
0, 5, 79, 306.280517578125
0, 5, 80, 296.2522277832031
0, 5, 81, 326.4201354980469
0, 5, 82, 324.5029296875
0, 5, 83, 282.3385925292969
0, 5, 84, 302.1707763671875
0, 5, 85, 270.7228698730469
0, 5, 86, 324.5289916992188
0, 5, 87, 284.8748474121094
0, 5, 88, 317.8293151855469
0, 5, 89, 304.0404052734375
0, 5, 90, 316.3656921386719
0, 5, 91, 312.6229248046875
0, 5, 92, 296.8660583496094
0, 5, 93, 322.2001647949219
0, 5, 94, 307.6434936523438
0, 5, 95, 296.1108703613281
0, 5, 96, 296.475830078125
0, 5, 97, 295.5882873535156
0, 5, 98, 318.1117858886719
0, 5, 99, 303.1218566894531
0, 5, 100, 290.0107421875
0, 5, 101, 308.085205078125
0, 5, 102, 291.4080200195312
0, 5, 103, 312.2130432128906
0, 5, 104, 305.37451171875
0, 5, 105, 290.2353515625
0, 5, 106, 280.8272094726562
0, 5, 107, 292.7342224121094
0, 5, 108, 264.6796875
0, 5, 109, 158.4855651855469
0, 5, 110, 40.39113235473633
0, 5, 111, 21.50170707702637
0, 5, 112, 15.78180408477783
0, 5, 113, 14.30517578125
0, 5, 114, 13.04588985443115
0, 5, 115, 7.807699203491211
0, 5, 116, 7.659799575805664
0, 5, 117, 6.461763381958008
0, 5, 118, 16.19254112243652
0, 5, 119, 3.823027849197388
0, 5, 120, 7.304060935974121
0, 5, 121, 3.525171995162964
0, 5, 122, 5.354465484619141
0, 5, 123, 6.780698776245117
0, 5, 124, 5.348160743713379
0, 5, 125, 3.385079383850098
0, 5, 126, 5.258228302001953
0, 5, 127, 1.97100305557251
0, 6, 0, 4.937430381774902
0, 6, 1, 4.97083044052124
0, 6, 2, 3.722028493881226
0, 6, 3, 5.002402782440186
0, 6, 4, 3.014252185821533
0, 6, 5, 5.337944507598877
0, 6, 6, 10.98920059204102
0, 6, 7, 7.271445274353027
0, 6, 8, 9.597263336181641
0, 6, 9, 8.980127334594727
0, 6, 10, 10.38946151733398
0, 6, 11, 6.982662200927734
0, 6, 12, 9.294998168945312
0, 6, 13, 11.53648376464844
0, 6, 14, 8.172371864318848
0, 6, 15, 16.9975643157959
0, 6, 16, 27.96042251586914
0, 6, 17, 54.14196014404297
0, 6, 18, 173.8300323486328
0, 6, 19, 277.9686889648438
0, 6, 20, 289.6853332519531
0, 6, 21, 314.9181213378906
0, 6, 22, 320.6261901855469
0, 6, 23, 306.7909240722656
0, 6, 24, 316.7834777832031
0, 6, 25, 315.947998046875
0, 6, 26, 318.1828002929688
0, 6, 27, 330.88623046875
0, 6, 28, 297.2427673339844
0, 6, 29, 329.8160095214844
0, 6, 30, 284.879638671875
0, 6, 31, 288.7525634765625
0, 6, 32, 341.4071350097656
0, 6, 33, 299.8215026855469
0, 6, 34, 339.4992370605469
0, 6, 35, 320.7789001464844
0, 6, 36, 273.78564453125
0, 6, 37, 291.4369201660156
0, 6, 38, 311.7362670898438
0, 6, 39, 299.3223266601562
0, 6, 40, 283.8443908691406
0, 6, 41, 294.3740234375
0, 6, 42, 303.4691467285156
0, 6, 43, 289.06396484375
0, 6, 44, 280.7870788574219
0, 6, 45, 320.9457092285156
0, 6, 46, 300.6482849121094
0, 6, 47, 332.5775756835938
0, 6, 48, 293.838623046875
0, 6, 49, 312.7261047363281
0, 6, 50, 327.9057922363281
0, 6, 51, 309.8007202148438
0, 6, 52, 320.5426330566406
0, 6, 53, 327.8755493164062
0, 6, 54, 304.1063842773438
0, 6, 55, 305.8090209960938
0, 6, 56, 294.2448120117188
0, 6, 57, 311.9115905761719
0, 6, 58, 262.4120788574219
0, 6, 59, 301.3079833984375
0, 6, 60, 315.6308288574219
0, 6, 61, 273.8890991210938
0, 6, 62, 338.7378845214844
0, 6, 63, 325.9895324707031
0, 6, 64, 289.623779296875
0, 6, 65, 284.5115356445312
0, 6, 66, 306.3710632324219
0, 6, 67, 312.0637512207031
0, 6, 68, 293.5534057617188
0, 6, 69, 277.2352294921875
0, 6, 70, 275.8228149414062
0, 6, 71, 289.2125854492188
0, 6, 72, 311.6065368652344
0, 6, 73, 292.0457763671875
0, 6, 74, 330.058837890625
0, 6, 75, 343.0824890136719
0, 6, 76, 297.9761657714844
0, 6, 77, 285.8889770507812
0, 6, 78, 279.6884460449219
0, 6, 79, 296.2260437011719
0, 6, 80, 302.6662902832031
0, 6, 81, 315.8619689941406
0, 6, 82, 317.4509887695312
0, 6, 83, 319.4638671875
0, 6, 84, 296.3988647460938
0, 6, 85, 300.3740539550781
0, 6, 86, 330.0109558105469
0, 6, 87, 292.2448425292969
0, 6, 88, 305.0502319335938
0, 6, 89, 306.6087341308594
0, 6, 90, 298.5523986816406
0, 6, 91, 313.9370727539062
0, 6, 92, 284.7878112792969
0, 6, 93, 293.8941040039062
0, 6, 94, 273.1868286132812
0, 6, 95, 299.6535339355469
0, 6, 96, 347.9805603027344
0, 6, 97, 309.167724609375
0, 6, 98, 300.3351440429688
0, 6, 99, 272.8645935058594
0, 6, 100, 309.8857116699219
0, 6, 101, 293.3775939941406
0, 6, 102, 309.3329162597656
0, 6, 103, 308.9114685058594
0, 6, 104, 291.5014953613281
0, 6, 105, 299.8550415039062
0, 6, 106, 306.5135803222656
0, 6, 107, 306.9830627441406
0, 6, 108, 264.8899536132812
0, 6, 109, 186.7279968261719
0, 6, 110, 55.07640075683594
0, 6, 111, 22.01529502868652
0, 6, 112, 15.30819892883301
0, 6, 113, 11.37041664123535
0, 6, 114, 13.89113998413086
0, 6, 115, 12.23357486724854
0, 6, 116, 7.38512659072876
0, 6, 117, 5.118899345397949
0, 6, 118, 9.991594314575195
0, 6, 119, 7.961159706115723
0, 6, 120, 5.253661632537842
0, 6, 121, 6.104541778564453
0, 6, 122, 5.665165424346924
0, 6, 123, 5.191055774688721
0, 6, 124, 6.689840793609619
0, 6, 125, 7.282230377197266
0, 6, 126, 4.316634178161621
0, 6, 127, 8.046690940856934
0, 7, 0, 5.100239753723145
0, 7, 1, 3.344936370849609
0, 7, 2, 5.748421669006348
0, 7, 3, 4.204046726226807
0, 7, 4, 4.721635818481445
0, 7, 5, 5.164995670318604
0, 7, 6, 7.189945220947266
0, 7, 7, 7.019616603851318
0, 7, 8, 4.412660121917725
0, 7, 9, 6.809868335723877
0, 7, 10, 8.261784553527832
0, 7, 11, 12.36653995513916
0, 7, 12, 8.816066741943359
0, 7, 13, 12.54859638214111
0, 7, 14, 10.48062515258789
0, 7, 15, 18.57682800292969
0, 7, 16, 27.86385726928711
0, 7, 17, 97.58849334716797
0, 7, 18, 220.1824340820312
0, 7, 19, 288.0499572753906
0, 7, 20, 295.9201354980469
0, 7, 21, 276.1522521972656
0, 7, 22, 299.6675720214844
0, 7, 23, 289.6263427734375
0, 7, 24, 312.0553588867188
0, 7, 25, 325.3984680175781
0, 7, 26, 277.568603515625
0, 7, 27, 298.3401489257812
0, 7, 28, 325.9999694824219
0, 7, 29, 318.3338317871094
0, 7, 30, 299.9997863769531
0, 7, 31, 277.3347473144531
0, 7, 32, 305.8821716308594
0, 7, 33, 264.6793823242188
0, 7, 34, 297.1878356933594
0, 7, 35, 322.0816345214844
0, 7, 36, 330.4228210449219
0, 7, 37, 322.98779296875
0, 7, 38, 296.4569702148438
0, 7, 39, 305.3510437011719
0, 7, 40, 289.7349853515625
0, 7, 41, 270.0917358398438
0, 7, 42, 301.3052978515625
0, 7, 43, 273.5854187011719
0, 7, 44, 304.4150085449219
0, 7, 45, 295.6900024414062
0, 7, 46, 283.4281005859375
0, 7, 47, 327.8495178222656
0, 7, 48, 287.1445007324219
0, 7, 49, 302.1700439453125
0, 7, 50, 320.6944885253906
0, 7, 51, 298.6492919921875
0, 7, 52, 325.9103393554688
0, 7, 53, 309.8546752929688
0, 7, 54, 322.2996215820312
0, 7, 55, 308.5248107910156
0, 7, 56, 279.8019104003906
0, 7, 57, 283.5572814941406
0, 7, 58, 295.56103515625
0, 7, 59, 294.1720275878906
0, 7, 60, 324.5361022949219
0, 7, 61, 278.3757019042969
0, 7, 62, 295.923095703125
0, 7, 63, 292.4269104003906
0, 7, 64, 307.0141296386719
0, 7, 65, 330.8243408203125
0, 7, 66, 318.7497253417969
0, 7, 67, 301.6908264160156
0, 7, 68, 283.08447265625
0, 7, 69, 293.5115051269531
0, 7, 70, 300.9546203613281
0, 7, 71, 310.0512390136719
0, 7, 72, 284.9130249023438
0, 7, 73, 296.2306823730469
0, 7, 74, 344.3164978027344
0, 7, 75, 317.3216247558594
0, 7, 76, 322.5768127441406
0, 7, 77, 279.1163330078125
0, 7, 78, 301.0802307128906
0, 7, 79, 297.8005981445312
0, 7, 80, 313.1799926757812
0, 7, 81, 319.2759094238281
0, 7, 82, 329.0538024902344
0, 7, 83, 317.2060546875
0, 7, 84, 309.9660949707031
0, 7, 85, 273.104248046875
0, 7, 86, 310.1486511230469
0, 7, 87, 308.8762817382812
0, 7, 88, 306.5713195800781
0, 7, 89, 293.9968872070312
0, 7, 90, 306.6727600097656
0, 7, 91, 313.853515625
0, 7, 92, 292.1248474121094
0, 7, 93, 310.0409851074219
0, 7, 94, 276.6118774414062
0, 7, 95, 296.1398010253906
0, 7, 96, 331.0475158691406
0, 7, 97, 296.045166015625
0, 7, 98, 292.3279724121094
0, 7, 99, 311.0097045898438
0, 7, 100, 282.9892272949219
0, 7, 101, 274.4129638671875
0, 7, 102, 289.94482421875
0, 7, 103, 291.5518798828125
0, 7, 104, 276.2161254882812
0, 7, 105, 308.1692199707031
0, 7, 106, 318.8638916015625
0, 7, 107, 296.9235534667969
0, 7, 108, 273.5447082519531
0, 7, 109, 234.1649322509766
0, 7, 110, 96.26351165771484
0, 7, 111, 24.35169219970703
0, 7, 112, 14.41555690765381
0, 7, 113, 16.07427978515625
0, 7, 114, 12.67864513397217
0, 7, 115, 12.34501838684082
0, 7, 116, 7.623519420623779
0, 7, 117, 6.822916030883789
0, 7, 118, 5.865969181060791
0, 7, 119, 7.979275226593018
0, 7, 120, 5.459023475646973
0, 7, 121, 5.691619873046875
0, 7, 122, 8.653899192810059
0, 7, 123, 5.545238971710205
0, 7, 124, 4.341130256652832
0, 7, 125, 6.413825511932373
0, 7, 126, 7.755821228027344
0, 7, 127, 3.131718635559082
0, 8, 0, 4.661550045013428
0, 8, 1, 6.242874622344971
0, 8, 2, 5.921818256378174
0, 8, 3, 4.590039253234863
0, 8, 4, 3.627496480941772
0, 8, 5, 3.784218788146973
0, 8, 6, 7.854596614837646
0, 8, 7, 5.004618644714355
0, 8, 8, 8.307812690734863
0, 8, 9, 4.756682872772217
0, 8, 10, 5.920837879180908
0, 8, 11, 11.55399322509766
0, 8, 12, 13.04295825958252
0, 8, 13, 16.64579391479492
0, 8, 14, 13.54243469238281
0, 8, 15, 17.62905502319336
0, 8, 16, 32.24314880371094
0, 8, 17, 130.3450469970703
0, 8, 18, 242.2496032714844
0, 8, 19, 294.7265014648438
0, 8, 20, 287.2036743164062
0, 8, 21, 305.5400695800781
0, 8, 22, 294.74560546875
0, 8, 23, 274.9895935058594
0, 8, 24, 269.4461669921875
0, 8, 25, 276.42138671875
0, 8, 26, 305.595947265625
0, 8, 27, 308.2417297363281
0, 8, 28, 303.666748046875
0, 8, 29, 319.2679443359375
0, 8, 30, 314.2108764648438
0, 8, 31, 304.3900146484375
0, 8, 32, 280.2464904785156
0, 8, 33, 294.0572204589844
0, 8, 34, 288.5068054199219
0, 8, 35, 280.1682434082031
0, 8, 36, 315.1749267578125
0, 8, 37, 337.7515563964844
0, 8, 38, 331.837646484375
0, 8, 39, 279.9223937988281
