# TOPAS Version: 3.1.p3
# Parameter File: batch_inserts_258.txt
# Results for scorer Readout_Adipose
# Scored in component: MyBox
# X in 1 bin  of 0.75 cm
# Y in 512 bins of 0.0783984 cm
# Z in 128 bins of 0.078125 cm
# EnergyDeposit ( MeV ) : Sum   
0, 0, 0, 3.847354650497437
0, 0, 1, 1.841677069664001
0, 0, 2, 3.061334848403931
0, 0, 3, 1.311902523040771
0, 0, 4, 3.127151966094971
0, 0, 5, 2.190064668655396
0, 0, 6, 4.970558166503906
0, 0, 7, 11.32655143737793
0, 0, 8, 2.404031753540039
0, 0, 9, 3.486538648605347
0, 0, 10, 7.181332588195801
0, 0, 11, 4.86660099029541
0, 0, 12, 3.709336519241333
0, 0, 13, 6.6805739402771
0, 0, 14, 8.087560653686523
0, 0, 15, 9.404393196105957
0, 0, 16, 8.395020484924316
0, 0, 17, 9.04376220703125
0, 0, 18, 14.27948760986328
0, 0, 19, 46.03866195678711
0, 0, 20, 138.8455200195312
0, 0, 21, 223.5195465087891
0, 0, 22, 249.9868774414062
0, 0, 23, 256.9599914550781
0, 0, 24, 251.4092254638672
0, 0, 25, 257.9777526855469
0, 0, 26, 233.5779266357422
0, 0, 27, 237.4516143798828
0, 0, 28, 271.7270202636719
0, 0, 29, 252.94140625
0, 0, 30, 231.1276702880859
0, 0, 31, 243.3525695800781
0, 0, 32, 263.0327453613281
0, 0, 33, 260.267578125
0, 0, 34, 287.9888305664062
0, 0, 35, 266.1372680664062
0, 0, 36, 246.1613006591797
0, 0, 37, 252.5709533691406
0, 0, 38, 269.627197265625
0, 0, 39, 229.8144989013672
0, 0, 40, 242.0598297119141
0, 0, 41, 267.3906860351562
0, 0, 42, 228.8617553710938
0, 0, 43, 258.4828491210938
0, 0, 44, 251.9896697998047
0, 0, 45, 251.6969451904297
0, 0, 46, 243.4555206298828
0, 0, 47, 253.9515686035156
0, 0, 48, 271.1882629394531
0, 0, 49, 273.6134948730469
0, 0, 50, 251.5657196044922
0, 0, 51, 253.3358917236328
0, 0, 52, 271.9418029785156
0, 0, 53, 291.4555969238281
0, 0, 54, 243.1881713867188
0, 0, 55, 239.5642395019531
0, 0, 56, 277.32568359375
0, 0, 57, 263.0028991699219
0, 0, 58, 247.5692443847656
0, 0, 59, 271.9311218261719
0, 0, 60, 235.4518432617188
0, 0, 61, 245.9786224365234
0, 0, 62, 257.3844299316406
0, 0, 63, 267.2638244628906
0, 0, 64, 255.7278442382812
0, 0, 65, 261.3558654785156
0, 0, 66, 276.6387023925781
0, 0, 67, 249.5247955322266
0, 0, 68, 258.8252868652344
0, 0, 69, 261.0509643554688
0, 0, 70, 271.465576171875
0, 0, 71, 238.3547515869141
0, 0, 72, 250.2113494873047
0, 0, 73, 260.3759460449219
0, 0, 74, 252.7742462158203
0, 0, 75, 240.6878814697266
0, 0, 76, 227.5058746337891
0, 0, 77, 259.6389770507812
0, 0, 78, 258.6278381347656
0, 0, 79, 278.3352661132812
0, 0, 80, 215.9280853271484
0, 0, 81, 267.4140319824219
0, 0, 82, 256.3181457519531
0, 0, 83, 244.4447937011719
0, 0, 84, 270.0450744628906
0, 0, 85, 231.1043090820312
0, 0, 86, 253.0158996582031
0, 0, 87, 251.5965118408203
0, 0, 88, 259.8953857421875
0, 0, 89, 282.6245727539062
0, 0, 90, 245.2619476318359
0, 0, 91, 280.4612426757812
0, 0, 92, 255.4379425048828
0, 0, 93, 250.0324859619141
0, 0, 94, 248.2319030761719
0, 0, 95, 248.0006866455078
0, 0, 96, 276.1997680664062
0, 0, 97, 272.3845520019531
0, 0, 98, 273.705078125
0, 0, 99, 258.3713989257812
0, 0, 100, 257.8803100585938
0, 0, 101, 227.3424072265625
0, 0, 102, 231.8319396972656
0, 0, 103, 270.0506591796875
0, 0, 104, 253.5516510009766
0, 0, 105, 250.6817169189453
0, 0, 106, 246.0127563476562
0, 0, 107, 151.5710144042969
0, 0, 108, 37.74253082275391
0, 0, 109, 11.58201313018799
0, 0, 110, 13.05670356750488
0, 0, 111, 9.28236198425293
0, 0, 112, 6.4785475730896
0, 0, 113, 6.480213642120361
0, 0, 114, 7.742368221282959
0, 0, 115, 5.539997577667236
0, 0, 116, 5.367698192596436
0, 0, 117, 5.224071502685547
0, 0, 118, 5.816476345062256
0, 0, 119, 5.588550567626953
0, 0, 120, 5.272854804992676
0, 0, 121, 4.8304762840271
0, 0, 122, 3.994973421096802
0, 0, 123, 2.234268665313721
0, 0, 124, 3.878555297851562
0, 0, 125, 2.710803031921387
0, 0, 126, 6.014636039733887
0, 0, 127, 5.100546360015869
0, 1, 0, 7.29644250869751
0, 1, 1, 5.493659973144531
0, 1, 2, 5.392775535583496
0, 1, 3, 4.907720565795898
0, 1, 4, 4.406074523925781
0, 1, 5, 2.942989110946655
0, 1, 6, 5.24204158782959
0, 1, 7, 3.494866609573364
0, 1, 8, 7.484883785247803
0, 1, 9, 5.280609130859375
0, 1, 10, 7.765377998352051
0, 1, 11, 11.53508377075195
0, 1, 12, 8.15938663482666
0, 1, 13, 8.967774391174316
0, 1, 14, 7.064112663269043
0, 1, 15, 7.221073627471924
0, 1, 16, 12.16722869873047
0, 1, 17, 11.33608818054199
0, 1, 18, 21.88383293151855
0, 1, 19, 65.607666015625
0, 1, 20, 199.1860809326172
0, 1, 21, 256.6973266601562
0, 1, 22, 297.0830078125
0, 1, 23, 282.1735229492188
0, 1, 24, 275.2582397460938
0, 1, 25, 291.5079650878906
0, 1, 26, 267.1459655761719
0, 1, 27, 306.3975219726562
0, 1, 28, 297.9010009765625
0, 1, 29, 296.2185668945312
0, 1, 30, 279.8650512695312
0, 1, 31, 289.6015014648438
0, 1, 32, 289.6473999023438
0, 1, 33, 296.2705383300781
0, 1, 34, 291.51513671875
0, 1, 35, 277.5480346679688
0, 1, 36, 306.9801635742188
0, 1, 37, 295.0971069335938
0, 1, 38, 278.1050415039062
0, 1, 39, 295.1751098632812
0, 1, 40, 265.7832336425781
0, 1, 41, 285.1438598632812
0, 1, 42, 289.4478149414062
0, 1, 43, 332.8493041992188
0, 1, 44, 279.1047973632812
0, 1, 45, 292.9010925292969
0, 1, 46, 258.1288757324219
0, 1, 47, 311.0014038085938
0, 1, 48, 281.4317932128906
0, 1, 49, 302.9750061035156
0, 1, 50, 262.5823059082031
0, 1, 51, 272.6678161621094
0, 1, 52, 295.1600341796875
0, 1, 53, 304.9578247070312
0, 1, 54, 274.4667663574219
0, 1, 55, 292.5075073242188
0, 1, 56, 280.3854370117188
0, 1, 57, 298.9518432617188
0, 1, 58, 309.411376953125
0, 1, 59, 294.19970703125
0, 1, 60, 298.1483154296875
0, 1, 61, 274.3263244628906
0, 1, 62, 307.1035766601562
0, 1, 63, 285.3811340332031
0, 1, 64, 291.1519470214844
0, 1, 65, 295.919189453125
0, 1, 66, 291.1794738769531
0, 1, 67, 292.0176391601562
0, 1, 68, 278.5374450683594
0, 1, 69, 281.0081176757812
0, 1, 70, 270.30615234375
0, 1, 71, 275.736083984375
0, 1, 72, 284.8589172363281
0, 1, 73, 303.9676208496094
0, 1, 74, 304.4739074707031
0, 1, 75, 292.4033508300781
0, 1, 76, 288.3666381835938
0, 1, 77, 289.6488647460938
0, 1, 78, 299.1941223144531
0, 1, 79, 301.5065612792969
0, 1, 80, 296.7846069335938
0, 1, 81, 301.8923950195312
0, 1, 82, 283.5248718261719
0, 1, 83, 332.1483459472656
0, 1, 84, 308.4427185058594
0, 1, 85, 251.6829681396484
0, 1, 86, 297.9242858886719
0, 1, 87, 289.8242492675781
0, 1, 88, 297.7778930664062
0, 1, 89, 290.8226928710938
0, 1, 90, 268.5083312988281
0, 1, 91, 317.9510192871094
0, 1, 92, 291.0237731933594
0, 1, 93, 285.6678771972656
0, 1, 94, 305.7375183105469
0, 1, 95, 283.8246765136719
0, 1, 96, 282.0016174316406
0, 1, 97, 300.5966796875
0, 1, 98, 277.8633422851562
0, 1, 99, 267.4818725585938
0, 1, 100, 276.8726501464844
0, 1, 101, 285.3443908691406
0, 1, 102, 279.7127685546875
0, 1, 103, 280.6431579589844
0, 1, 104, 308.8466796875
0, 1, 105, 297.140625
0, 1, 106, 261.0802307128906
0, 1, 107, 192.0513458251953
0, 1, 108, 80.29602813720703
0, 1, 109, 22.46269607543945
0, 1, 110, 11.27927303314209
0, 1, 111, 9.129776954650879
0, 1, 112, 11.86997222900391
0, 1, 113, 6.657190322875977
0, 1, 114, 7.064662933349609
0, 1, 115, 6.591511726379395
0, 1, 116, 10.56224918365479
0, 1, 117, 6.475196838378906
0, 1, 118, 4.431686878204346
0, 1, 119, 7.020683288574219
0, 1, 120, 5.425855159759521
0, 1, 121, 2.564185857772827
0, 1, 122, 3.561435222625732
0, 1, 123, 2.1606125831604
0, 1, 124, 9.156822204589844
0, 1, 125, 5.68529224395752
0, 1, 126, 2.092806339263916
0, 1, 127, 3.712276935577393
0, 2, 0, 3.61811637878418
0, 2, 1, 2.060870170593262
0, 2, 2, 6.582067012786865
0, 2, 3, 4.535972118377686
0, 2, 4, 3.841103315353394
0, 2, 5, 1.995193243026733
0, 2, 6, 2.185422420501709
0, 2, 7, 2.843787670135498
0, 2, 8, 4.372636795043945
0, 2, 9, 6.348056316375732
0, 2, 10, 6.994300842285156
0, 2, 11, 6.287792682647705
0, 2, 12, 7.848268508911133
0, 2, 13, 9.867393493652344
0, 2, 14, 10.03657627105713
0, 2, 15, 7.674602508544922
0, 2, 16, 8.113040924072266
0, 2, 17, 17.46460151672363
0, 2, 18, 30.49953460693359
0, 2, 19, 115.4392013549805
0, 2, 20, 246.345947265625
0, 2, 21, 270.3190002441406
0, 2, 22, 316.4496459960938
0, 2, 23, 301.1317749023438
0, 2, 24, 286.146484375
0, 2, 25, 303.3389587402344
0, 2, 26, 293.5111389160156
0, 2, 27, 275.0819702148438
0, 2, 28, 274.8076477050781
0, 2, 29, 274.4653015136719
0, 2, 30, 289.4543151855469
0, 2, 31, 278.5584106445312
0, 2, 32, 293.5436096191406
0, 2, 33, 282.7532653808594
0, 2, 34, 330.6127624511719
0, 2, 35, 290.7308654785156
0, 2, 36, 304.8406372070312
0, 2, 37, 315.8065795898438
0, 2, 38, 311.5155334472656
0, 2, 39, 267.6791381835938
0, 2, 40, 307.4626770019531
0, 2, 41, 290.9457702636719
0, 2, 42, 303.3525390625
0, 2, 43, 310.9293823242188
0, 2, 44, 312.4566345214844
0, 2, 45, 325.0816345214844
0, 2, 46, 288.6751708984375
0, 2, 47, 303.1807861328125
0, 2, 48, 280.9226684570312
0, 2, 49, 280.9426879882812
0, 2, 50, 294.4973754882812
0, 2, 51, 282.990966796875
0, 2, 52, 272.9671325683594
0, 2, 53, 288.2205505371094
0, 2, 54, 280.7315979003906
0, 2, 55, 274.6433410644531
0, 2, 56, 301.11962890625
0, 2, 57, 291.7254028320312
0, 2, 58, 301.8433532714844
0, 2, 59, 286.7046508789062
0, 2, 60, 318.9480285644531
0, 2, 61, 301.4846801757812
0, 2, 62, 314.4619445800781
0, 2, 63, 302.5272827148438
0, 2, 64, 295.9895324707031
0, 2, 65, 314.2352294921875
0, 2, 66, 283.2688903808594
0, 2, 67, 290.1559143066406
0, 2, 68, 296.1365356445312
0, 2, 69, 314.0384521484375
0, 2, 70, 335.6090087890625
0, 2, 71, 283.6736450195312
0, 2, 72, 301.64453125
0, 2, 73, 310.1112670898438
0, 2, 74, 284.8715515136719
0, 2, 75, 303.1044921875
0, 2, 76, 286.7483520507812
0, 2, 77, 301.8555297851562
0, 2, 78, 314.2649536132812
0, 2, 79, 307.31201171875
0, 2, 80, 297.8489379882812
0, 2, 81, 281.734130859375
0, 2, 82, 319.7770690917969
0, 2, 83, 313.1397094726562
0, 2, 84, 288.4367370605469
0, 2, 85, 281.9107971191406
0, 2, 86, 326.7379455566406
0, 2, 87, 287.80908203125
0, 2, 88, 279.8036804199219
0, 2, 89, 296.9932250976562
0, 2, 90, 296.5442810058594
0, 2, 91, 275.4097595214844
0, 2, 92, 304.8167419433594
0, 2, 93, 316.5496520996094
0, 2, 94, 290.2021179199219
0, 2, 95, 314.9599609375
0, 2, 96, 314.9695739746094
0, 2, 97, 293.770263671875
0, 2, 98, 296.3951721191406
0, 2, 99, 275.9795532226562
0, 2, 100, 306.0425415039062
0, 2, 101, 302.2405700683594
0, 2, 102, 299.55712890625
0, 2, 103, 291.796630859375
0, 2, 104, 294.8547058105469
0, 2, 105, 276.3943481445312
0, 2, 106, 296.4606018066406
0, 2, 107, 269.5478210449219
0, 2, 108, 117.2801055908203
0, 2, 109, 31.23773193359375
0, 2, 110, 9.389451026916504
0, 2, 111, 11.83133888244629
0, 2, 112, 8.353075981140137
0, 2, 113, 10.94822883605957
0, 2, 114, 8.687138557434082
0, 2, 115, 10.21253108978271
0, 2, 116, 8.904446601867676
0, 2, 117, 8.401591300964355
0, 2, 118, 2.770777463912964
0, 2, 119, 4.142392158508301
0, 2, 120, 6.762282848358154
0, 2, 121, 2.488922595977783
0, 2, 122, 5.879755020141602
0, 2, 123, 5.58866548538208
0, 2, 124, 3.854965209960938
0, 2, 125, 5.822834968566895
0, 2, 126, 3.378746509552002
0, 2, 127, 5.349030017852783
0, 3, 0, 3.480913639068604
0, 3, 1, 3.562145709991455
0, 3, 2, 3.384048223495483
0, 3, 3, 2.834848642349243
0, 3, 4, 4.160599231719971
0, 3, 5, 7.294464111328125
0, 3, 6, 5.910955905914307
0, 3, 7, 5.39381742477417
0, 3, 8, 5.92214298248291
0, 3, 9, 8.736969947814941
0, 3, 10, 6.311906814575195
0, 3, 11, 4.539831161499023
0, 3, 12, 6.83112621307373
0, 3, 13, 15.9944429397583
0, 3, 14, 10.96057987213135
0, 3, 15, 16.25427055358887
0, 3, 16, 11.29448986053467
0, 3, 17, 19.87846946716309
0, 3, 18, 50.79259490966797
0, 3, 19, 177.3971252441406
0, 3, 20, 269.4842224121094
0, 3, 21, 271.2669982910156
0, 3, 22, 284.4118957519531
0, 3, 23, 285.9799499511719
0, 3, 24, 287.22021484375
0, 3, 25, 272.7240295410156
0, 3, 26, 303.6662902832031
0, 3, 27, 292.4594421386719
0, 3, 28, 283.3609008789062
0, 3, 29, 338.1457824707031
0, 3, 30, 316.7490234375
0, 3, 31, 287.9602966308594
0, 3, 32, 306.9845581054688
0, 3, 33, 314.3804626464844
0, 3, 34, 322.5909118652344
0, 3, 35, 306.7702026367188
0, 3, 36, 269.6408386230469
0, 3, 37, 316.2988586425781
0, 3, 38, 304.4495849609375
0, 3, 39, 288.9904174804688
0, 3, 40, 266.570556640625
0, 3, 41, 300.1347961425781
0, 3, 42, 284.5184936523438
0, 3, 43, 306.9061889648438
0, 3, 44, 310.202880859375
0, 3, 45, 290.001708984375
0, 3, 46, 327.1952819824219
0, 3, 47, 298.8981018066406
0, 3, 48, 303.6954650878906
0, 3, 49, 276.7383422851562
0, 3, 50, 291.90576171875
0, 3, 51, 274.806884765625
0, 3, 52, 316.002685546875
0, 3, 53, 287.6805114746094
0, 3, 54, 284.8388061523438
0, 3, 55, 283.520751953125
0, 3, 56, 298.7361755371094
0, 3, 57, 288.7668762207031
0, 3, 58, 305.7196960449219
0, 3, 59, 295.1636352539062
0, 3, 60, 297.4510803222656
0, 3, 61, 264.9017944335938
0, 3, 62, 286.6513366699219
0, 3, 63, 307.1670837402344
0, 3, 64, 317.4017944335938
0, 3, 65, 305.9994812011719
0, 3, 66, 314.2611389160156
0, 3, 67, 317.3754272460938
0, 3, 68, 280.4335327148438
0, 3, 69, 281.3029174804688
0, 3, 70, 288.6808166503906
0, 3, 71, 299.3435974121094
0, 3, 72, 270.1998596191406
0, 3, 73, 309.4776916503906
0, 3, 74, 293.0955200195312
0, 3, 75, 289.9044189453125
0, 3, 76, 307.3482971191406
0, 3, 77, 314.1756286621094
0, 3, 78, 301.8529052734375
0, 3, 79, 282.4534301757812
0, 3, 80, 292.7873229980469
0, 3, 81, 311.1174621582031
0, 3, 82, 314.9901428222656
0, 3, 83, 300.0966491699219
0, 3, 84, 312.2346496582031
0, 3, 85, 293.7673645019531
0, 3, 86, 301.5610961914062
0, 3, 87, 299.0964660644531
0, 3, 88, 299.1076965332031
0, 3, 89, 296.5636901855469
0, 3, 90, 275.6647338867188
0, 3, 91, 286.4092712402344
0, 3, 92, 306.9004516601562
0, 3, 93, 314.9651794433594
0, 3, 94, 298.9407653808594
0, 3, 95, 334.43310546875
0, 3, 96, 293.54150390625
0, 3, 97, 284.567138671875
0, 3, 98, 278.4888916015625
0, 3, 99, 264.0294494628906
0, 3, 100, 284.7400817871094
0, 3, 101, 298.0040283203125
0, 3, 102, 273.8253784179688
0, 3, 103, 320.7204895019531
0, 3, 104, 308.0624389648438
0, 3, 105, 288.2997131347656
0, 3, 106, 302.1397705078125
0, 3, 107, 282.2508850097656
0, 3, 108, 167.3309783935547
0, 3, 109, 58.18014907836914
0, 3, 110, 19.01390075683594
0, 3, 111, 12.56507110595703
0, 3, 112, 10.7997522354126
0, 3, 113, 6.231756210327148
0, 3, 114, 9.772025108337402
0, 3, 115, 9.510519981384277
0, 3, 116, 6.303761959075928
0, 3, 117, 5.763018608093262
0, 3, 118, 7.469607830047607
0, 3, 119, 6.753000736236572
0, 3, 120, 6.220583438873291
0, 3, 121, 3.532823324203491
0, 3, 122, 2.261248826980591
0, 3, 123, 5.364749908447266
0, 3, 124, 2.273725748062134
0, 3, 125, 5.871740818023682
0, 3, 126, 5.878522872924805
0, 3, 127, 2.583218812942505
0, 4, 0, 2.278321266174316
0, 4, 1, 5.374690532684326
0, 4, 2, 2.942968368530273
0, 4, 3, 3.116430759429932
0, 4, 4, 5.656239986419678
0, 4, 5, 9.055523872375488
0, 4, 6, 6.624387264251709
0, 4, 7, 7.430329322814941
0, 4, 8, 3.379002809524536
0, 4, 9, 6.063952922821045
0, 4, 10, 5.464016437530518
0, 4, 11, 7.79170560836792
0, 4, 12, 6.611946105957031
0, 4, 13, 8.608512878417969
0, 4, 14, 10.12740707397461
0, 4, 15, 11.71924018859863
0, 4, 16, 14.79413032531738
0, 4, 17, 18.2745475769043
0, 4, 18, 93.99581909179688
0, 4, 19, 223.4577331542969
0, 4, 20, 284.9961853027344
0, 4, 21, 271.5986328125
0, 4, 22, 306.6660766601562
0, 4, 23, 266.2864990234375
0, 4, 24, 289.9856262207031
0, 4, 25, 272.7144165039062
0, 4, 26, 295.9022216796875
0, 4, 27, 282.4420776367188
0, 4, 28, 307.270263671875
0, 4, 29, 322.8478698730469
0, 4, 30, 309.4239196777344
0, 4, 31, 303.0572814941406
0, 4, 32, 280.1945190429688
0, 4, 33, 298.6195068359375
0, 4, 34, 296.5035400390625
0, 4, 35, 313.0240478515625
0, 4, 36, 291.4285888671875
0, 4, 37, 288.3583374023438
0, 4, 38, 297.7292175292969
0, 4, 39, 293.3941955566406
0, 4, 40, 301.8021850585938
0, 4, 41, 311.6532897949219
0, 4, 42, 330.4409790039062
0, 4, 43, 297.6338500976562
0, 4, 44, 321.7130432128906
0, 4, 45, 326.1942749023438
0, 4, 46, 305.3047485351562
0, 4, 47, 293.0058898925781
0, 4, 48, 295.6177062988281
0, 4, 49, 277.47607421875
0, 4, 50, 295.0140380859375
0, 4, 51, 316.1564025878906
0, 4, 52, 327.661865234375
0, 4, 53, 304.3219299316406
0, 4, 54, 286.9299621582031
0, 4, 55, 316.1061401367188
0, 4, 56, 287.3036804199219
0, 4, 57, 310.764404296875
0, 4, 58, 297.4171447753906
0, 4, 59, 307.5525512695312
0, 4, 60, 300.845947265625
0, 4, 61, 315.651123046875
0, 4, 62, 306.3545532226562
0, 4, 63, 299.5223693847656
0, 4, 64, 328.8563842773438
0, 4, 65, 314.4030456542969
0, 4, 66, 294.0829772949219
0, 4, 67, 284.2691040039062
0, 4, 68, 312.8328552246094
0, 4, 69, 275.7023010253906
0, 4, 70, 299.0027465820312
0, 4, 71, 320.2096557617188
0, 4, 72, 334.0073852539062
0, 4, 73, 299.1551818847656
0, 4, 74, 292.6132507324219
0, 4, 75, 287.9732055664062
0, 4, 76, 275.5136413574219
0, 4, 77, 278.3146057128906
0, 4, 78, 309.0715637207031
0, 4, 79, 320.2248229980469
0, 4, 80, 315.8106689453125
0, 4, 81, 311.8245239257812
0, 4, 82, 297.6979370117188
0, 4, 83, 302.0277709960938
0, 4, 84, 290.0943908691406
0, 4, 85, 293.997314453125
0, 4, 86, 298.9777221679688
0, 4, 87, 282.3753051757812
0, 4, 88, 308.8565673828125
0, 4, 89, 294.2570495605469
0, 4, 90, 335.5109252929688
0, 4, 91, 301.9498901367188
0, 4, 92, 289.0813598632812
0, 4, 93, 296.3309020996094
0, 4, 94, 290.9823913574219
0, 4, 95, 289.7706909179688
0, 4, 96, 322.0927124023438
0, 4, 97, 275.554931640625
0, 4, 98, 326.6609191894531
0, 4, 99, 314.6757507324219
0, 4, 100, 299.5253601074219
0, 4, 101, 258.0953979492188
0, 4, 102, 298.7875671386719
0, 4, 103, 315.7849731445312
0, 4, 104, 281.7501831054688
0, 4, 105, 310.831787109375
0, 4, 106, 286.5772705078125
0, 4, 107, 294.4759521484375
0, 4, 108, 227.6903991699219
0, 4, 109, 79.41017913818359
0, 4, 110, 16.52813720703125
0, 4, 111, 13.41070079803467
0, 4, 112, 9.955356597900391
0, 4, 113, 11.3593864440918
0, 4, 114, 9.264383316040039
0, 4, 115, 9.320690155029297
0, 4, 116, 8.198512077331543
0, 4, 117, 8.248769760131836
0, 4, 118, 9.938911437988281
0, 4, 119, 8.946969032287598
0, 4, 120, 4.306830406188965
0, 4, 121, 6.744222164154053
0, 4, 122, 4.06412410736084
0, 4, 123, 6.683531761169434
0, 4, 124, 4.039163112640381
0, 4, 125, 9.82976245880127
0, 4, 126, 5.313168525695801
0, 4, 127, 3.275046586990356
0, 5, 0, 3.653512001037598
0, 5, 1, 4.811461925506592
0, 5, 2, 3.865960359573364
0, 5, 3, 3.060487985610962
0, 5, 4, 5.85211706161499
0, 5, 5, 6.70252513885498
0, 5, 6, 9.24946117401123
0, 5, 7, 4.635550022125244
0, 5, 8, 4.901462554931641
0, 5, 9, 4.575257778167725
0, 5, 10, 11.53818416595459
0, 5, 11, 9.159587860107422
0, 5, 12, 6.993508338928223
0, 5, 13, 6.967886447906494
0, 5, 14, 13.53242015838623
0, 5, 15, 14.99280261993408
0, 5, 16, 14.17484474182129
0, 5, 17, 28.88662147521973
0, 5, 18, 135.72021484375
0, 5, 19, 287.4847106933594
0, 5, 20, 307.4165649414062
0, 5, 21, 317.3249816894531
0, 5, 22, 275.1658020019531
0, 5, 23, 312.4541015625
0, 5, 24, 301.771728515625
0, 5, 25, 290.5798950195312
0, 5, 26, 295.1098327636719
0, 5, 27, 320.3359069824219
0, 5, 28, 306.2138061523438
0, 5, 29, 297.2528381347656
0, 5, 30, 325.8785400390625
0, 5, 31, 288.0177307128906
0, 5, 32, 301.22802734375
0, 5, 33, 304.1638793945312
0, 5, 34, 296.9512023925781
0, 5, 35, 310.0240783691406
0, 5, 36, 269.7247619628906
0, 5, 37, 282.5491638183594
0, 5, 38, 293.5276184082031
0, 5, 39, 310.7103881835938
0, 5, 40, 310.0446472167969
0, 5, 41, 272.6520690917969
0, 5, 42, 308.3961486816406
0, 5, 43, 315.3986511230469
0, 5, 44, 292.0055847167969
0, 5, 45, 301.4712219238281
0, 5, 46, 264.8504943847656
0, 5, 47, 279.8118896484375
0, 5, 48, 294.517822265625
0, 5, 49, 286.6642456054688
0, 5, 50, 295.3422546386719
0, 5, 51, 281.9079284667969
0, 5, 52, 269.6795959472656
0, 5, 53, 283.5625
0, 5, 54, 291.9053955078125
0, 5, 55, 344.2451477050781
0, 5, 56, 305.5107727050781
0, 5, 57, 308.7395629882812
0, 5, 58, 312.7998962402344
0, 5, 59, 303.2677612304688
0, 5, 60, 308.3696899414062
0, 5, 61, 280.9573059082031
0, 5, 62, 326.8437805175781
0, 5, 63, 290.7832641601562
0, 5, 64, 323.331787109375
0, 5, 65, 307.373779296875
0, 5, 66, 329.71337890625
0, 5, 67, 313.5640869140625
0, 5, 68, 306.3446960449219
0, 5, 69, 310.388916015625
0, 5, 70, 301.0581665039062
0, 5, 71, 274.3363647460938
0, 5, 72, 310.504150390625
0, 5, 73, 304.8672180175781
0, 5, 74, 298.2737121582031
0, 5, 75, 295.9031982421875
0, 5, 76, 287.1015014648438
0, 5, 77, 299.0933227539062
0, 5, 78, 314.7700805664062
0, 5, 79, 306.518310546875
0, 5, 80, 293.8033142089844
0, 5, 81, 326.5981140136719
0, 5, 82, 324.7096862792969
0, 5, 83, 281.3722534179688
0, 5, 84, 302.97265625
0, 5, 85, 271.1777648925781
0, 5, 86, 323.7153625488281
0, 5, 87, 284.9781188964844
0, 5, 88, 312.4122009277344
0, 5, 89, 303.2334289550781
0, 5, 90, 315.4947204589844
0, 5, 91, 313.2469177246094
0, 5, 92, 296.4391479492188
0, 5, 93, 320.5549011230469
0, 5, 94, 312.0765991210938
0, 5, 95, 297.7246398925781
0, 5, 96, 298.3316650390625
0, 5, 97, 296.857177734375
0, 5, 98, 317.3233032226562
0, 5, 99, 303.0256958007812
0, 5, 100, 291.4393920898438
0, 5, 101, 303.7270812988281
0, 5, 102, 291.7294311523438
0, 5, 103, 315.1934814453125
0, 5, 104, 305.1722106933594
0, 5, 105, 291.9459838867188
0, 5, 106, 280.8835754394531
0, 5, 107, 295.2622680664062
0, 5, 108, 263.0543823242188
0, 5, 109, 157.3988342285156
0, 5, 110, 40.81776428222656
0, 5, 111, 21.59395790100098
0, 5, 112, 15.61129188537598
0, 5, 113, 14.29189586639404
0, 5, 114, 13.22619247436523
0, 5, 115, 6.882088661193848
0, 5, 116, 8.083602905273438
0, 5, 117, 5.881074905395508
0, 5, 118, 14.19124412536621
0, 5, 119, 3.070145606994629
0, 5, 120, 6.995190620422363
0, 5, 121, 6.076492309570312
0, 5, 122, 5.930032253265381
0, 5, 123, 5.762228012084961
0, 5, 124, 5.772053241729736
0, 5, 125, 4.170365810394287
0, 5, 126, 6.254533290863037
0, 5, 127, 3.037575721740723
0, 6, 0, 3.76012134552002
0, 6, 1, 2.626750230789185
0, 6, 2, 4.615128040313721
0, 6, 3, 5.230071067810059
0, 6, 4, 5.084226608276367
0, 6, 5, 5.172735691070557
0, 6, 6, 9.266382217407227
0, 6, 7, 8.014447212219238
0, 6, 8, 7.239936351776123
0, 6, 9, 6.064433097839355
0, 6, 10, 7.043417453765869
0, 6, 11, 6.622320175170898
0, 6, 12, 8.259721755981445
0, 6, 13, 14.02729511260986
0, 6, 14, 8.99862003326416
0, 6, 15, 17.81669235229492
0, 6, 16, 27.83414459228516
0, 6, 17, 56.24443817138672
0, 6, 18, 171.6475524902344
0, 6, 19, 276.4230041503906
0, 6, 20, 292.7190856933594
0, 6, 21, 317.4398193359375
0, 6, 22, 319.5984802246094
0, 6, 23, 305.2057189941406
0, 6, 24, 316.01953125
0, 6, 25, 315.4479064941406
0, 6, 26, 318.1334228515625
0, 6, 27, 329.2698059082031
0, 6, 28, 295.0542602539062
0, 6, 29, 330.5389404296875
0, 6, 30, 280.1319274902344
0, 6, 31, 285.7938842773438
0, 6, 32, 343.2934875488281
0, 6, 33, 300.6525268554688
0, 6, 34, 339.7936706542969
0, 6, 35, 320.1004638671875
0, 6, 36, 273.9020690917969
0, 6, 37, 287.3238525390625
0, 6, 38, 311.9439086914062
0, 6, 39, 299.9805603027344
0, 6, 40, 283.4111328125
0, 6, 41, 295.8603820800781
0, 6, 42, 301.9283752441406
0, 6, 43, 289.9815368652344
0, 6, 44, 280.4340209960938
0, 6, 45, 319.2646789550781
0, 6, 46, 301.587890625
0, 6, 47, 332.9298706054688
0, 6, 48, 292.0381164550781
0, 6, 49, 312.27490234375
0, 6, 50, 329.3397827148438
0, 6, 51, 310.639892578125
0, 6, 52, 321.7212829589844
0, 6, 53, 327.8613586425781
0, 6, 54, 306.3280334472656
0, 6, 55, 306.0033874511719
0, 6, 56, 295.1365356445312
0, 6, 57, 312.5758972167969
0, 6, 58, 260.4766845703125
0, 6, 59, 302.3004455566406
0, 6, 60, 311.8070678710938
0, 6, 61, 270.5201416015625
0, 6, 62, 337.0906677246094
0, 6, 63, 326.5234375
0, 6, 64, 292.5877380371094
0, 6, 65, 284.0339050292969
0, 6, 66, 301.8315124511719
0, 6, 67, 308.3689575195312
0, 6, 68, 294.1921691894531
0, 6, 69, 281.7807006835938
0, 6, 70, 275.3004150390625
0, 6, 71, 289.9418029785156
0, 6, 72, 307.6210327148438
0, 6, 73, 291.05908203125
0, 6, 74, 329.9890441894531
0, 6, 75, 342.9295654296875
0, 6, 76, 295.7113952636719
0, 6, 77, 288.7005310058594
0, 6, 78, 277.8983764648438
0, 6, 79, 291.7275390625
0, 6, 80, 299.1672973632812
0, 6, 81, 316.9015197753906
0, 6, 82, 320.0051574707031
0, 6, 83, 320.5917663574219
0, 6, 84, 295.7477722167969
0, 6, 85, 301.3346862792969
0, 6, 86, 330.7278747558594
0, 6, 87, 290.3063049316406
0, 6, 88, 305.6497192382812
0, 6, 89, 304.7193908691406
0, 6, 90, 300.5247497558594
0, 6, 91, 312.6103210449219
0, 6, 92, 284.6804504394531
0, 6, 93, 297.4974975585938
0, 6, 94, 272.9759216308594
0, 6, 95, 300.2499084472656
0, 6, 96, 347.3093872070312
0, 6, 97, 308.7453002929688
0, 6, 98, 301.7019653320312
0, 6, 99, 270.7308959960938
0, 6, 100, 309.8995361328125
0, 6, 101, 295.28271484375
0, 6, 102, 307.1109924316406
0, 6, 103, 308.830322265625
0, 6, 104, 293.7926025390625
0, 6, 105, 301.1675415039062
0, 6, 106, 306.8381042480469
0, 6, 107, 305.8233642578125
0, 6, 108, 267.2743225097656
0, 6, 109, 184.6281127929688
0, 6, 110, 53.49854278564453
0, 6, 111, 21.74072265625
0, 6, 112, 15.94861602783203
0, 6, 113, 9.751949310302734
0, 6, 114, 11.54236507415771
0, 6, 115, 11.87832832336426
0, 6, 116, 10.04801177978516
0, 6, 117, 10.41684627532959
0, 6, 118, 10.39105319976807
0, 6, 119, 7.300254821777344
0, 6, 120, 5.494503021240234
0, 6, 121, 6.014114379882812
0, 6, 122, 6.798959732055664
0, 6, 123, 4.307115077972412
0, 6, 124, 7.135600566864014
0, 6, 125, 7.340926647186279
0, 6, 126, 2.730209350585938
0, 6, 127, 6.722185134887695
0, 7, 0, 5.562973976135254
0, 7, 1, 3.303696155548096
0, 7, 2, 6.261589050292969
0, 7, 3, 3.060388565063477
0, 7, 4, 3.677333831787109
0, 7, 5, 5.704868316650391
0, 7, 6, 5.630399227142334
0, 7, 7, 4.674922943115234
0, 7, 8, 5.41818904876709
0, 7, 9, 7.071003913879395
0, 7, 10, 8.673361778259277
0, 7, 11, 11.98586082458496
0, 7, 12, 9.946638107299805
0, 7, 13, 9.986728668212891
0, 7, 14, 10.35087108612061
0, 7, 15, 16.16844940185547
0, 7, 16, 26.47297096252441
0, 7, 17, 97.26046752929688
0, 7, 18, 220.1849670410156
0, 7, 19, 290.0097045898438
0, 7, 20, 298.3533935546875
0, 7, 21, 277.3455200195312
0, 7, 22, 300.0875854492188
0, 7, 23, 289.2620239257812
0, 7, 24, 313.1622619628906
0, 7, 25, 325.7254638671875
0, 7, 26, 277.9102783203125
0, 7, 27, 297.9065551757812
0, 7, 28, 327.299072265625
0, 7, 29, 320.8487548828125
0, 7, 30, 302.755859375
0, 7, 31, 277.6470642089844
0, 7, 32, 303.758056640625
0, 7, 33, 266.0148315429688
0, 7, 34, 297.4385681152344
0, 7, 35, 319.8836364746094
0, 7, 36, 333.3150024414062
0, 7, 37, 324.3485107421875
0, 7, 38, 295.7569885253906
0, 7, 39, 305.4837646484375
0, 7, 40, 290.6871948242188
0, 7, 41, 271.1182250976562
0, 7, 42, 300.21142578125
0, 7, 43, 275.4134521484375
0, 7, 44, 303.8262023925781
0, 7, 45, 295.6549072265625
0, 7, 46, 284.6007385253906
0, 7, 47, 328.9008178710938
0, 7, 48, 284.4889221191406
0, 7, 49, 301.8175659179688
0, 7, 50, 321.4867553710938
0, 7, 51, 298.7741394042969
0, 7, 52, 326.9901123046875
0, 7, 53, 309.7651672363281
0, 7, 54, 322.2647705078125
0, 7, 55, 307.2666015625
0, 7, 56, 282.7130432128906
0, 7, 57, 284.5072326660156
0, 7, 58, 295.2278137207031
0, 7, 59, 294.35546875
0, 7, 60, 325.8989868164062
0, 7, 61, 277.6820373535156
0, 7, 62, 296.8546447753906
0, 7, 63, 294.7218017578125
0, 7, 64, 307.0246887207031
0, 7, 65, 332.0383605957031
0, 7, 66, 318.3175048828125
0, 7, 67, 302.6463012695312
0, 7, 68, 279.8184204101562
0, 7, 69, 293.8603515625
0, 7, 70, 300.6812744140625
0, 7, 71, 309.9227294921875
0, 7, 72, 286.2315063476562
0, 7, 73, 296.5077514648438
0, 7, 74, 346.861083984375
0, 7, 75, 320.2747802734375
0, 7, 76, 323.2552795410156
0, 7, 77, 281.5783996582031
0, 7, 78, 303.4183654785156
0, 7, 79, 298.0444641113281
0, 7, 80, 315.2866516113281
0, 7, 81, 323.8910522460938
0, 7, 82, 328.937255859375
0, 7, 83, 319.2940368652344
0, 7, 84, 309.4841918945312
0, 7, 85, 273.397705078125
0, 7, 86, 311.2568664550781
0, 7, 87, 309.0015869140625
0, 7, 88, 309.8040466308594
0, 7, 89, 294.9410400390625
0, 7, 90, 306.9609985351562
0, 7, 91, 315.4472351074219
0, 7, 92, 292.0117797851562
0, 7, 93, 307.0354309082031
0, 7, 94, 274.3121032714844
0, 7, 95, 297.118408203125
0, 7, 96, 330.2486877441406
0, 7, 97, 294.7327575683594
0, 7, 98, 290.0337829589844
0, 7, 99, 311.8646240234375
0, 7, 100, 283.4037170410156
0, 7, 101, 274.661376953125
0, 7, 102, 289.2250366210938
0, 7, 103, 294.8801879882812
0, 7, 104, 274.7694702148438
0, 7, 105, 306.2752075195312
0, 7, 106, 317.5285034179688
0, 7, 107, 294.8247680664062
0, 7, 108, 273.3799743652344
0, 7, 109, 239.1575927734375
0, 7, 110, 97.10328674316406
0, 7, 111, 24.16719818115234
0, 7, 112, 13.8181037902832
0, 7, 113, 13.11433982849121
0, 7, 114, 14.67992401123047
0, 7, 115, 11.44082355499268
0, 7, 116, 7.615256309509277
0, 7, 117, 6.566779613494873
0, 7, 118, 9.048476219177246
0, 7, 119, 8.394667625427246
0, 7, 120, 3.32982063293457
0, 7, 121, 5.029545783996582
0, 7, 122, 7.301015377044678
0, 7, 123, 5.478801250457764
0, 7, 124, 3.350424528121948
0, 7, 125, 6.290207862854004
0, 7, 126, 7.499988555908203
0, 7, 127, 2.620540857315063
0, 8, 0, 6.120151042938232
0, 8, 1, 7.628423690795898
0, 8, 2, 5.587620735168457
0, 8, 3, 1.502120018005371
0, 8, 4, 2.87166428565979
0, 8, 5, 4.885028839111328
0, 8, 6, 5.027387142181396
0, 8, 7, 4.339430809020996
0, 8, 8, 8.015353202819824
0, 8, 9, 4.747705459594727
0, 8, 10, 6.684130191802979
0, 8, 11, 11.23196697235107
0, 8, 12, 13.62971973419189
0, 8, 13, 16.32221221923828
0, 8, 14, 14.34916496276855
0, 8, 15, 20.01217079162598
0, 8, 16, 33.27152252197266
0, 8, 17, 129.1644744873047
0, 8, 18, 245.0619659423828
0, 8, 19, 296.8938293457031
0, 8, 20, 285.4841918945312
0, 8, 21, 307.5824890136719
0, 8, 22, 295.7801208496094
0, 8, 23, 274.6705322265625
0, 8, 24, 268.4124450683594
0, 8, 25, 275.5653381347656
0, 8, 26, 307.1607055664062
0, 8, 27, 308.0187377929688
0, 8, 28, 303.4087219238281
0, 8, 29, 319.3100280761719
0, 8, 30, 313.0620422363281
0, 8, 31, 303.4166259765625
0, 8, 32, 280.427734375
0, 8, 33, 293.3426818847656
0, 8, 34, 289.5471496582031
0, 8, 35, 279.607666015625
0, 8, 36, 317.8339233398438
0, 8, 37, 339.9757385253906
0, 8, 38, 330.8886108398438
0, 8, 39, 280.2119445800781
0, 8, 40, 305.5401611328125
0, 8, 41, 295.4261779785156
