# TOPAS Version: 3.1.p3
# Parameter File: batch_inserts_144.txt
# Results for scorer Readout_Adipose
# Scored in component: MyBox
# X in 1 bin  of 0.75 cm
# Y in 512 bins of 0.0783984 cm
# Z in 128 bins of 0.078125 cm
# EnergyDeposit ( MeV ) : Sum   
0, 0, 0, 5.179339408874512
0, 0, 1, 1.87620747089386
0, 0, 2, 2.657793045043945
0, 0, 3, 1.203941702842712
0, 0, 4, 2.646028757095337
0, 0, 5, 2.09162449836731
0, 0, 6, 7.053153514862061
0, 0, 7, 9.592411041259766
0, 0, 8, 2.123510599136353
0, 0, 9, 5.434798717498779
0, 0, 10, 7.039499282836914
0, 0, 11, 4.597182750701904
0, 0, 12, 4.287015438079834
0, 0, 13, 6.291434764862061
0, 0, 14, 7.532943248748779
0, 0, 15, 8.419632911682129
0, 0, 16, 9.092278480529785
0, 0, 17, 9.456570625305176
0, 0, 18, 14.15962219238281
0, 0, 19, 42.41749572753906
0, 0, 20, 138.2102203369141
0, 0, 21, 223.6178588867188
0, 0, 22, 249.3987426757812
0, 0, 23, 256.6007690429688
0, 0, 24, 250.6608581542969
0, 0, 25, 259.2063293457031
0, 0, 26, 233.8834228515625
0, 0, 27, 237.4810943603516
0, 0, 28, 272.2433776855469
0, 0, 29, 252.2737274169922
0, 0, 30, 229.1449432373047
0, 0, 31, 243.9893341064453
0, 0, 32, 263.5216674804688
0, 0, 33, 262.6129150390625
0, 0, 34, 290.1912841796875
0, 0, 35, 268.9543762207031
0, 0, 36, 246.458984375
0, 0, 37, 252.3427886962891
0, 0, 38, 268.9732360839844
0, 0, 39, 228.7463836669922
0, 0, 40, 241.1195373535156
0, 0, 41, 266.069580078125
0, 0, 42, 229.2095031738281
0, 0, 43, 260.2188415527344
0, 0, 44, 252.6757049560547
0, 0, 45, 252.4083099365234
0, 0, 46, 243.2087860107422
0, 0, 47, 253.4626922607422
0, 0, 48, 266.2709045410156
0, 0, 49, 274.0264282226562
0, 0, 50, 252.1836547851562
0, 0, 51, 257.02734375
0, 0, 52, 272.473388671875
0, 0, 53, 291.1280212402344
0, 0, 54, 241.9819030761719
0, 0, 55, 240.0940704345703
0, 0, 56, 278.5108337402344
0, 0, 57, 262.2008361816406
0, 0, 58, 244.2555847167969
0, 0, 59, 269.4656677246094
0, 0, 60, 234.5055999755859
0, 0, 61, 244.7116088867188
0, 0, 62, 257.1076354980469
0, 0, 63, 266.6810302734375
0, 0, 64, 254.3133697509766
0, 0, 65, 261.0656127929688
0, 0, 66, 276.5584106445312
0, 0, 67, 245.8792419433594
0, 0, 68, 257.8385009765625
0, 0, 69, 261.3343505859375
0, 0, 70, 272.357177734375
0, 0, 71, 238.1444396972656
0, 0, 72, 250.1745452880859
0, 0, 73, 257.9349670410156
0, 0, 74, 250.9904327392578
0, 0, 75, 241.0549774169922
0, 0, 76, 229.0739135742188
0, 0, 77, 259.158203125
0, 0, 78, 256.7781066894531
0, 0, 79, 278.47265625
0, 0, 80, 215.6673736572266
0, 0, 81, 266.4339599609375
0, 0, 82, 255.8814392089844
0, 0, 83, 247.3349914550781
0, 0, 84, 269.6955261230469
0, 0, 85, 231.3202056884766
0, 0, 86, 253.2823791503906
0, 0, 87, 251.1502075195312
0, 0, 88, 260.4667053222656
0, 0, 89, 283.4994506835938
0, 0, 90, 245.6283569335938
0, 0, 91, 280.4719543457031
0, 0, 92, 253.5173492431641
0, 0, 93, 249.7372589111328
0, 0, 94, 249.8018035888672
0, 0, 95, 248.6676940917969
0, 0, 96, 275.81494140625
0, 0, 97, 275.1383666992188
0, 0, 98, 272.4301147460938
0, 0, 99, 257.9820251464844
0, 0, 100, 256.7162170410156
0, 0, 101, 226.9298095703125
0, 0, 102, 234.0246734619141
0, 0, 103, 269.0666198730469
0, 0, 104, 254.4225311279297
0, 0, 105, 253.7376556396484
0, 0, 106, 245.7635803222656
0, 0, 107, 151.1969604492188
0, 0, 108, 37.04172134399414
0, 0, 109, 12.36991405487061
0, 0, 110, 12.03750419616699
0, 0, 111, 8.88569164276123
0, 0, 112, 7.440464973449707
0, 0, 113, 4.927032947540283
0, 0, 114, 7.055304527282715
0, 0, 115, 3.46650242805481
0, 0, 116, 4.73386287689209
0, 0, 117, 6.905854225158691
0, 0, 118, 7.641175746917725
0, 0, 119, 3.619732856750488
0, 0, 120, 4.46510124206543
0, 0, 121, 4.418014526367188
0, 0, 122, 3.441761255264282
0, 0, 123, 3.450732946395874
0, 0, 124, 5.550772190093994
0, 0, 125, 4.202874660491943
0, 0, 126, 5.89606761932373
0, 0, 127, 2.363339185714722
0, 1, 0, 8.11968994140625
0, 1, 1, 2.283161878585815
0, 1, 2, 5.836528301239014
0, 1, 3, 1.60957944393158
0, 1, 4, 2.167111158370972
0, 1, 5, 5.042904376983643
0, 1, 6, 5.539618492126465
0, 1, 7, 7.681083202362061
0, 1, 8, 8.310709953308105
0, 1, 9, 3.907448768615723
0, 1, 10, 6.323821067810059
0, 1, 11, 12.82641410827637
0, 1, 12, 9.392220497131348
0, 1, 13, 9.577116012573242
0, 1, 14, 7.883906841278076
0, 1, 15, 6.629001140594482
0, 1, 16, 12.09344577789307
0, 1, 17, 10.69964981079102
0, 1, 18, 21.21732521057129
0, 1, 19, 67.00312805175781
0, 1, 20, 199.8580474853516
0, 1, 21, 254.343994140625
0, 1, 22, 296.2564697265625
0, 1, 23, 284.6929321289062
0, 1, 24, 279.0038757324219
0, 1, 25, 286.0035705566406
0, 1, 26, 268.7395935058594
0, 1, 27, 306.2135925292969
0, 1, 28, 302.4696350097656
0, 1, 29, 294.9643859863281
0, 1, 30, 280.0005493164062
0, 1, 31, 290.7898254394531
0, 1, 32, 291.7318420410156
0, 1, 33, 294.2804565429688
0, 1, 34, 291.4024963378906
0, 1, 35, 279.296875
0, 1, 36, 307.8559875488281
0, 1, 37, 293.6757507324219
0, 1, 38, 280.2271423339844
0, 1, 39, 295.792724609375
0, 1, 40, 264.8948669433594
0, 1, 41, 288.9869995117188
0, 1, 42, 289.956787109375
0, 1, 43, 332.1876220703125
0, 1, 44, 278.5498352050781
0, 1, 45, 291.6741943359375
0, 1, 46, 260.3645935058594
0, 1, 47, 310.4640197753906
0, 1, 48, 282.7750854492188
0, 1, 49, 303.7759094238281
0, 1, 50, 262.1938781738281
0, 1, 51, 272.4656982421875
0, 1, 52, 296.1014709472656
0, 1, 53, 303.6281433105469
0, 1, 54, 274.0744018554688
0, 1, 55, 294.4493103027344
0, 1, 56, 279.2319641113281
0, 1, 57, 297.693603515625
0, 1, 58, 308.5532531738281
0, 1, 59, 291.32470703125
0, 1, 60, 297.9918212890625
0, 1, 61, 274.1327514648438
0, 1, 62, 309.9733581542969
0, 1, 63, 286.7112121582031
0, 1, 64, 290.2552185058594
0, 1, 65, 296.6072998046875
0, 1, 66, 293.8167114257812
0, 1, 67, 293.2872924804688
0, 1, 68, 279.6256103515625
0, 1, 69, 279.2739562988281
0, 1, 70, 270.6570739746094
0, 1, 71, 274.6128540039062
0, 1, 72, 284.8705749511719
0, 1, 73, 303.7827453613281
0, 1, 74, 304.2611694335938
0, 1, 75, 295.2951965332031
0, 1, 76, 286.1247863769531
0, 1, 77, 287.9839782714844
0, 1, 78, 296.9493713378906
0, 1, 79, 298.60693359375
0, 1, 80, 296.8775634765625
0, 1, 81, 300.0372924804688
0, 1, 82, 283.4567260742188
0, 1, 83, 332.3132629394531
0, 1, 84, 308.4421081542969
0, 1, 85, 253.2608489990234
0, 1, 86, 294.7807006835938
0, 1, 87, 289.9932556152344
0, 1, 88, 298.6716918945312
0, 1, 89, 292.6216735839844
0, 1, 90, 271.1741333007812
0, 1, 91, 318.0693664550781
0, 1, 92, 290.5877380371094
0, 1, 93, 286.6941528320312
0, 1, 94, 303.9163208007812
0, 1, 95, 284.6392517089844
0, 1, 96, 285.0166015625
0, 1, 97, 302.6156005859375
0, 1, 98, 278.0575561523438
0, 1, 99, 267.2763671875
0, 1, 100, 276.2061462402344
0, 1, 101, 280.5471496582031
0, 1, 102, 278.0751953125
0, 1, 103, 281.889892578125
0, 1, 104, 305.8085021972656
0, 1, 105, 296.3290405273438
0, 1, 106, 260.7007446289062
0, 1, 107, 191.5916595458984
0, 1, 108, 82.07823181152344
0, 1, 109, 23.78573608398438
0, 1, 110, 10.9536304473877
0, 1, 111, 9.996170997619629
0, 1, 112, 11.67965126037598
0, 1, 113, 7.300751209259033
0, 1, 114, 6.644234657287598
0, 1, 115, 6.956550121307373
0, 1, 116, 11.15901470184326
0, 1, 117, 4.517741203308105
0, 1, 118, 5.279819488525391
0, 1, 119, 4.284635066986084
0, 1, 120, 5.688491344451904
0, 1, 121, 4.113308429718018
0, 1, 122, 4.34645938873291
0, 1, 123, 3.243364095687866
0, 1, 124, 6.230099201202393
0, 1, 125, 5.037990570068359
0, 1, 126, 3.221548557281494
0, 1, 127, 0.6975396871566772
0, 2, 0, 4.505428791046143
0, 2, 1, 2.649468660354614
0, 2, 2, 4.113052845001221
0, 2, 3, 5.329278945922852
0, 2, 4, 4.300634384155273
0, 2, 5, 1.770134806632996
0, 2, 6, 2.091041803359985
0, 2, 7, 5.621475219726562
0, 2, 8, 6.116766929626465
0, 2, 9, 5.792910575866699
0, 2, 10, 8.422126770019531
0, 2, 11, 5.805666923522949
0, 2, 12, 6.806079387664795
0, 2, 13, 10.86047744750977
0, 2, 14, 9.960188865661621
0, 2, 15, 8.191718101501465
0, 2, 16, 8.917879104614258
0, 2, 17, 16.28229522705078
0, 2, 18, 31.85046005249023
0, 2, 19, 113.7182922363281
0, 2, 20, 246.8278503417969
0, 2, 21, 270.5271911621094
0, 2, 22, 316.3345947265625
0, 2, 23, 301.7645263671875
0, 2, 24, 286.7268981933594
0, 2, 25, 302.4255981445312
0, 2, 26, 294.374267578125
0, 2, 27, 278.1997680664062
0, 2, 28, 273.6548767089844
0, 2, 29, 274.9473876953125
0, 2, 30, 288.4344177246094
0, 2, 31, 278.3593139648438
0, 2, 32, 296.3523254394531
0, 2, 33, 282.9263610839844
0, 2, 34, 332.5510864257812
0, 2, 35, 288.4321594238281
0, 2, 36, 302.482421875
0, 2, 37, 315.4698486328125
0, 2, 38, 310.8836364746094
0, 2, 39, 266.9943542480469
0, 2, 40, 308.6307067871094
0, 2, 41, 293.5291442871094
0, 2, 42, 304.3730163574219
0, 2, 43, 313.1924438476562
0, 2, 44, 312.5635070800781
0, 2, 45, 324.6700744628906
0, 2, 46, 287.8198852539062
0, 2, 47, 302.6356811523438
0, 2, 48, 280.5758056640625
0, 2, 49, 278.4100036621094
0, 2, 50, 294.4791564941406
0, 2, 51, 284.2724609375
0, 2, 52, 273.955078125
0, 2, 53, 285.9576721191406
0, 2, 54, 278.721923828125
0, 2, 55, 276.5895080566406
0, 2, 56, 302.2737731933594
0, 2, 57, 294.801025390625
0, 2, 58, 301.1185302734375
0, 2, 59, 291.2349243164062
0, 2, 60, 319.5331420898438
0, 2, 61, 300.95458984375
0, 2, 62, 315.38818359375
0, 2, 63, 305.0068359375
0, 2, 64, 295.1770935058594
0, 2, 65, 315.9649353027344
0, 2, 66, 279.2818603515625
0, 2, 67, 291.2609252929688
0, 2, 68, 295.6156005859375
0, 2, 69, 309.6212158203125
0, 2, 70, 334.5878295898438
0, 2, 71, 283.2481689453125
0, 2, 72, 300.8234252929688
0, 2, 73, 310.9693298339844
0, 2, 74, 289.7381591796875
0, 2, 75, 303.7690734863281
0, 2, 76, 289.9996643066406
0, 2, 77, 300.7282409667969
0, 2, 78, 315.9376525878906
0, 2, 79, 307.8315124511719
0, 2, 80, 296.6906433105469
0, 2, 81, 283.5484619140625
0, 2, 82, 318.0596008300781
0, 2, 83, 312.1152038574219
0, 2, 84, 287.8350830078125
0, 2, 85, 280.6339416503906
0, 2, 86, 323.2689514160156
0, 2, 87, 286.3396911621094
0, 2, 88, 280.2521057128906
0, 2, 89, 296.7884216308594
0, 2, 90, 295.9012756347656
0, 2, 91, 275.379150390625
0, 2, 92, 305.5549926757812
0, 2, 93, 317.3147277832031
0, 2, 94, 290.4886169433594
0, 2, 95, 315.8353576660156
0, 2, 96, 315.8610229492188
0, 2, 97, 291.4037475585938
0, 2, 98, 296.2338256835938
0, 2, 99, 273.2823486328125
0, 2, 100, 306.2000427246094
0, 2, 101, 300.8222045898438
0, 2, 102, 296.9085388183594
0, 2, 103, 292.2690124511719
0, 2, 104, 293.6893920898438
0, 2, 105, 273.7953491210938
0, 2, 106, 296.9123840332031
0, 2, 107, 268.8287658691406
0, 2, 108, 116.3915557861328
0, 2, 109, 32.87848663330078
0, 2, 110, 11.56514644622803
0, 2, 111, 12.28902244567871
0, 2, 112, 8.90494441986084
0, 2, 113, 9.568448066711426
0, 2, 114, 10.85290336608887
0, 2, 115, 9.230114936828613
0, 2, 116, 7.595160961151123
0, 2, 117, 8.697352409362793
0, 2, 118, 3.447726011276245
0, 2, 119, 2.794937610626221
0, 2, 120, 7.111641407012939
0, 2, 121, 1.503149032592773
0, 2, 122, 4.571379661560059
0, 2, 123, 4.795000076293945
0, 2, 124, 3.634516000747681
0, 2, 125, 5.133833408355713
0, 2, 126, 3.121514558792114
0, 2, 127, 7.043296813964844
0, 3, 0, 3.501806497573853
0, 3, 1, 2.804227352142334
0, 3, 2, 4.262333393096924
0, 3, 3, 2.715498685836792
0, 3, 4, 4.69804573059082
0, 3, 5, 7.170428276062012
0, 3, 6, 6.332135677337646
0, 3, 7, 5.474355220794678
0, 3, 8, 4.718241691589355
0, 3, 9, 5.811151504516602
0, 3, 10, 8.98142147064209
0, 3, 11, 5.263140678405762
0, 3, 12, 7.886656284332275
0, 3, 13, 14.76839351654053
0, 3, 14, 11.19478797912598
0, 3, 15, 13.86304187774658
0, 3, 16, 11.64052677154541
0, 3, 17, 20.84073638916016
0, 3, 18, 56.55728530883789
0, 3, 19, 175.8948669433594
0, 3, 20, 267.9310607910156
0, 3, 21, 269.5267944335938
0, 3, 22, 283.9343872070312
0, 3, 23, 286.1407470703125
0, 3, 24, 287.1615905761719
0, 3, 25, 269.5438537597656
0, 3, 26, 303.0362548828125
0, 3, 27, 291.8880310058594
0, 3, 28, 280.4446716308594
0, 3, 29, 338.2455444335938
0, 3, 30, 315.3765563964844
0, 3, 31, 287.7460632324219
0, 3, 32, 307.5748901367188
0, 3, 33, 314.3350524902344
0, 3, 34, 321.6779174804688
0, 3, 35, 305.8802185058594
0, 3, 36, 267.1882629394531
0, 3, 37, 314.6820068359375
0, 3, 38, 304.6579284667969
0, 3, 39, 291.3759155273438
0, 3, 40, 265.9112243652344
0, 3, 41, 302.7019653320312
0, 3, 42, 287.5367736816406
0, 3, 43, 306.8106994628906
0, 3, 44, 312.0128784179688
0, 3, 45, 290.9954223632812
0, 3, 46, 329.0133056640625
0, 3, 47, 298.9364318847656
0, 3, 48, 305.6781616210938
0, 3, 49, 279.7243041992188
0, 3, 50, 289.4811096191406
0, 3, 51, 277.6694641113281
0, 3, 52, 314.1058349609375
0, 3, 53, 285.822509765625
0, 3, 54, 284.7578125
0, 3, 55, 286.2563781738281
0, 3, 56, 299.0265808105469
0, 3, 57, 286.6261291503906
0, 3, 58, 305.542236328125
0, 3, 59, 293.9037475585938
0, 3, 60, 297.983642578125
0, 3, 61, 264.7247009277344
0, 3, 62, 284.3867492675781
0, 3, 63, 307.5450744628906
0, 3, 64, 317.1514282226562
0, 3, 65, 305.3901672363281
0, 3, 66, 314.5057067871094
0, 3, 67, 318.0041198730469
0, 3, 68, 279.239990234375
0, 3, 69, 283.80322265625
0, 3, 70, 289.7697143554688
0, 3, 71, 299.8531494140625
0, 3, 72, 267.8365173339844
0, 3, 73, 307.3343811035156
0, 3, 74, 293.2085876464844
0, 3, 75, 290.9577331542969
0, 3, 76, 305.3677368164062
0, 3, 77, 314.1383361816406
0, 3, 78, 308.1824951171875
0, 3, 79, 282.6945190429688
0, 3, 80, 290.9878845214844
0, 3, 81, 312.1788024902344
0, 3, 82, 315.9346008300781
0, 3, 83, 300.0436401367188
0, 3, 84, 311.8994140625
0, 3, 85, 295.4974975585938
0, 3, 86, 301.5873107910156
0, 3, 87, 297.2084350585938
0, 3, 88, 298.5208129882812
0, 3, 89, 295.5917358398438
0, 3, 90, 276.4412536621094
0, 3, 91, 282.9949951171875
0, 3, 92, 304.2871704101562
0, 3, 93, 314.0852661132812
0, 3, 94, 300.0879211425781
0, 3, 95, 332.7904357910156
0, 3, 96, 290.2015380859375
0, 3, 97, 284.7384033203125
0, 3, 98, 276.7656860351562
0, 3, 99, 262.0174865722656
0, 3, 100, 284.6633605957031
0, 3, 101, 298.591552734375
0, 3, 102, 274.9163513183594
0, 3, 103, 321.8206481933594
0, 3, 104, 306.8295288085938
0, 3, 105, 287.6432495117188
0, 3, 106, 301.9854736328125
0, 3, 107, 283.1165771484375
0, 3, 108, 166.4131774902344
0, 3, 109, 55.85417556762695
0, 3, 110, 18.86659812927246
0, 3, 111, 12.80467891693115
0, 3, 112, 14.12539672851562
0, 3, 113, 7.098086833953857
0, 3, 114, 8.901793479919434
0, 3, 115, 8.17252254486084
0, 3, 116, 9.164606094360352
0, 3, 117, 8.811826705932617
0, 3, 118, 9.668561935424805
0, 3, 119, 6.234591484069824
0, 3, 120, 8.113568305969238
0, 3, 121, 3.711221933364868
0, 3, 122, 3.420308589935303
0, 3, 123, 5.261334896087646
0, 3, 124, 4.323250293731689
0, 3, 125, 6.847920894622803
0, 3, 126, 4.326088428497314
0, 3, 127, 2.963107347488403
0, 4, 0, 2.357640504837036
0, 4, 1, 4.838198661804199
0, 4, 2, 2.697634935379028
0, 4, 3, 2.274334669113159
0, 4, 4, 6.284563541412354
0, 4, 5, 7.775679111480713
0, 4, 6, 7.679745197296143
0, 4, 7, 4.514742851257324
0, 4, 8, 6.4425368309021
0, 4, 9, 8.601367950439453
0, 4, 10, 7.711626052856445
0, 4, 11, 5.602989196777344
0, 4, 12, 5.345542907714844
0, 4, 13, 7.506805896759033
0, 4, 14, 13.65009498596191
0, 4, 15, 10.17634868621826
0, 4, 16, 15.36708736419678
0, 4, 17, 19.08609199523926
0, 4, 18, 92.40274047851562
0, 4, 19, 222.0722198486328
0, 4, 20, 284.8129577636719
0, 4, 21, 273.5988159179688
0, 4, 22, 304.545166015625
0, 4, 23, 266.9894104003906
0, 4, 24, 289.010986328125
0, 4, 25, 273.1838684082031
0, 4, 26, 295.1965026855469
0, 4, 27, 282.2369689941406
0, 4, 28, 305.3950500488281
0, 4, 29, 323.6512756347656
0, 4, 30, 310.3671264648438
0, 4, 31, 303.4667663574219
0, 4, 32, 283.8572998046875
0, 4, 33, 298.5846252441406
0, 4, 34, 297.4489440917969
0, 4, 35, 313.3631286621094
0, 4, 36, 291.3215637207031
0, 4, 37, 287.0344543457031
0, 4, 38, 298.7216491699219
0, 4, 39, 293.5317993164062
0, 4, 40, 302.3524475097656
0, 4, 41, 312.4046630859375
0, 4, 42, 332.0694885253906
0, 4, 43, 295.1950073242188
0, 4, 44, 320.00341796875
0, 4, 45, 324.8284606933594
0, 4, 46, 307.6860656738281
0, 4, 47, 293.8323669433594
0, 4, 48, 294.2917785644531
0, 4, 49, 277.2163391113281
0, 4, 50, 300.1784362792969
0, 4, 51, 316.9212951660156
0, 4, 52, 327.0760192871094
0, 4, 53, 304.1368103027344
0, 4, 54, 288.5352172851562
0, 4, 55, 316.0161437988281
0, 4, 56, 284.9702758789062
0, 4, 57, 308.1251831054688
0, 4, 58, 297.4781494140625
0, 4, 59, 307.0346374511719
0, 4, 60, 301.2799987792969
0, 4, 61, 315.5946044921875
0, 4, 62, 309.6575317382812
0, 4, 63, 299.1626586914062
0, 4, 64, 330.0039978027344
0, 4, 65, 319.8724670410156
0, 4, 66, 292.9479370117188
0, 4, 67, 285.5383605957031
0, 4, 68, 312.6240234375
0, 4, 69, 275.4432678222656
0, 4, 70, 300.6767272949219
0, 4, 71, 320.82275390625
0, 4, 72, 332.5389404296875
0, 4, 73, 298.3937683105469
0, 4, 74, 291.6105651855469
0, 4, 75, 288.2947387695312
0, 4, 76, 274.2781982421875
0, 4, 77, 278.3280639648438
0, 4, 78, 308.83984375
0, 4, 79, 317.97509765625
0, 4, 80, 316.3135070800781
0, 4, 81, 315.0947875976562
0, 4, 82, 297.1019592285156
0, 4, 83, 300.737060546875
0, 4, 84, 291.572998046875
0, 4, 85, 295.3870239257812
0, 4, 86, 299.3750305175781
0, 4, 87, 285.2364196777344
0, 4, 88, 304.07275390625
0, 4, 89, 294.8892822265625
0, 4, 90, 334.3988342285156
0, 4, 91, 303.1776123046875
0, 4, 92, 290.1789855957031
0, 4, 93, 297.5691833496094
0, 4, 94, 291.1061706542969
0, 4, 95, 288.7662658691406
0, 4, 96, 322.8884887695312
0, 4, 97, 275.4341430664062
0, 4, 98, 326.5292663574219
0, 4, 99, 312.4784240722656
0, 4, 100, 299.9703063964844
0, 4, 101, 256.9767456054688
0, 4, 102, 297.1883544921875
0, 4, 103, 318.3830261230469
0, 4, 104, 282.2622680664062
0, 4, 105, 309.4202270507812
0, 4, 106, 288.4749450683594
0, 4, 107, 294.7412719726562
0, 4, 108, 224.5641326904297
0, 4, 109, 79.27461242675781
0, 4, 110, 16.64788436889648
0, 4, 111, 13.59320831298828
0, 4, 112, 9.032261848449707
0, 4, 113, 9.852975845336914
0, 4, 114, 8.67811107635498
0, 4, 115, 9.616265296936035
0, 4, 116, 7.577539920806885
0, 4, 117, 7.124853134155273
0, 4, 118, 11.48230648040771
0, 4, 119, 9.285305976867676
0, 4, 120, 4.801220417022705
0, 4, 121, 5.757412910461426
0, 4, 122, 5.056496620178223
0, 4, 123, 6.771565437316895
0, 4, 124, 7.180046558380127
0, 4, 125, 10.45171070098877
0, 4, 126, 5.579580307006836
0, 4, 127, 3.753768682479858
0, 5, 0, 3.137729644775391
0, 5, 1, 4.815622806549072
0, 5, 2, 4.351722240447998
0, 5, 3, 3.208779811859131
0, 5, 4, 4.971599102020264
0, 5, 5, 7.774052143096924
0, 5, 6, 5.426949501037598
0, 5, 7, 4.543313026428223
0, 5, 8, 4.746776103973389
0, 5, 9, 5.405317306518555
0, 5, 10, 5.182242393493652
0, 5, 11, 10.71425724029541
0, 5, 12, 8.527992248535156
0, 5, 13, 5.636271476745605
0, 5, 14, 14.35530567169189
0, 5, 15, 17.08620262145996
0, 5, 16, 14.73967361450195
0, 5, 17, 28.98543739318848
0, 5, 18, 136.5714263916016
0, 5, 19, 289.5889282226562
0, 5, 20, 307.5431823730469
0, 5, 21, 320.0330505371094
0, 5, 22, 275.78271484375
0, 5, 23, 309.40478515625
0, 5, 24, 303.3215637207031
0, 5, 25, 290.2799987792969
0, 5, 26, 294.3440551757812
0, 5, 27, 323.1327819824219
0, 5, 28, 301.6153869628906
0, 5, 29, 297.5165100097656
0, 5, 30, 322.9021606445312
0, 5, 31, 285.3204345703125
0, 5, 32, 305.6681518554688
0, 5, 33, 303.9160766601562
0, 5, 34, 298.6185913085938
0, 5, 35, 310.8007202148438
0, 5, 36, 272.1778869628906
0, 5, 37, 281.7595520019531
0, 5, 38, 292.0380859375
0, 5, 39, 313.3349914550781
0, 5, 40, 306.5703430175781
0, 5, 41, 272.4700622558594
0, 5, 42, 304.1429748535156
0, 5, 43, 315.6672668457031
0, 5, 44, 292.1816711425781
0, 5, 45, 302.7795104980469
0, 5, 46, 265.8883361816406
0, 5, 47, 278.7460632324219
0, 5, 48, 295.5010681152344
0, 5, 49, 285.3497619628906
0, 5, 50, 296.7796325683594
0, 5, 51, 280.3501281738281
0, 5, 52, 269.7587585449219
0, 5, 53, 283.4335632324219
0, 5, 54, 293.7801208496094
0, 5, 55, 345.0470581054688
0, 5, 56, 305.6158142089844
0, 5, 57, 308.2388916015625
0, 5, 58, 313.1781921386719
0, 5, 59, 303.4916076660156
0, 5, 60, 307.5111083984375
0, 5, 61, 282.9546203613281
0, 5, 62, 322.8753051757812
0, 5, 63, 291.5187377929688
0, 5, 64, 326.3392028808594
0, 5, 65, 306.4479064941406
0, 5, 66, 327.3182373046875
0, 5, 67, 312.4672241210938
0, 5, 68, 307.1553344726562
0, 5, 69, 314.4349975585938
0, 5, 70, 302.4635314941406
0, 5, 71, 271.8282775878906
0, 5, 72, 309.63818359375
0, 5, 73, 303.1314392089844
0, 5, 74, 294.5078430175781
0, 5, 75, 295.9956970214844
0, 5, 76, 284.4563293457031
0, 5, 77, 297.604736328125
0, 5, 78, 318.9739685058594
0, 5, 79, 307.4874267578125
0, 5, 80, 293.396240234375
0, 5, 81, 324.7963562011719
0, 5, 82, 323.1528015136719
0, 5, 83, 281.0727844238281
0, 5, 84, 301.8720092773438
0, 5, 85, 273.4999389648438
0, 5, 86, 326.7637023925781
0, 5, 87, 285.0523376464844
0, 5, 88, 312.2415466308594
0, 5, 89, 305.5095520019531
0, 5, 90, 316.1666259765625
0, 5, 91, 313.5027465820312
0, 5, 92, 297.2266845703125
0, 5, 93, 321.9336547851562
0, 5, 94, 306.4776916503906
0, 5, 95, 295.470947265625
0, 5, 96, 301.3022155761719
0, 5, 97, 298.8756103515625
0, 5, 98, 317.843505859375
0, 5, 99, 303.16552734375
0, 5, 100, 290.335693359375
0, 5, 101, 304.2808837890625
0, 5, 102, 291.7675476074219
0, 5, 103, 315.5936889648438
0, 5, 104, 303.2089233398438
0, 5, 105, 291.8889465332031
0, 5, 106, 283.4344482421875
0, 5, 107, 291.9524230957031
0, 5, 108, 268.7512817382812
0, 5, 109, 156.5889129638672
0, 5, 110, 40.47221755981445
0, 5, 111, 21.61735725402832
0, 5, 112, 16.04938316345215
0, 5, 113, 13.65911674499512
0, 5, 114, 13.72462844848633
0, 5, 115, 8.07588005065918
0, 5, 116, 8.525239944458008
0, 5, 117, 5.97114896774292
0, 5, 118, 12.28656578063965
0, 5, 119, 5.670974254608154
0, 5, 120, 5.619547843933105
0, 5, 121, 6.253191471099854
0, 5, 122, 5.392947673797607
0, 5, 123, 4.926196575164795
0, 5, 124, 5.980069160461426
0, 5, 125, 4.019551753997803
0, 5, 126, 5.221750259399414
0, 5, 127, 3.104689359664917
0, 6, 0, 3.657791614532471
0, 6, 1, 2.843748092651367
0, 6, 2, 5.740275859832764
0, 6, 3, 7.345944404602051
0, 6, 4, 3.085464715957642
0, 6, 5, 7.110447883605957
0, 6, 6, 7.560834407806396
0, 6, 7, 4.114761829376221
0, 6, 8, 7.470362663269043
0, 6, 9, 5.178223609924316
0, 6, 10, 6.417116165161133
0, 6, 11, 7.837189197540283
0, 6, 12, 7.31705379486084
0, 6, 13, 14.21673202514648
0, 6, 14, 9.551872253417969
0, 6, 15, 16.77867126464844
0, 6, 16, 27.75506210327148
0, 6, 17, 54.1156005859375
0, 6, 18, 171.5289306640625
0, 6, 19, 276.0659484863281
0, 6, 20, 292.6435852050781
0, 6, 21, 315.4663696289062
0, 6, 22, 320.1305847167969
0, 6, 23, 307.2576293945312
0, 6, 24, 316.7066345214844
0, 6, 25, 316.1012573242188
0, 6, 26, 320.7537841796875
0, 6, 27, 332.9820556640625
0, 6, 28, 296.0882873535156
0, 6, 29, 331.0203247070312
0, 6, 30, 281.5448608398438
0, 6, 31, 287.5509033203125
0, 6, 32, 341.4195556640625
0, 6, 33, 301.6300354003906
0, 6, 34, 340.2389221191406
0, 6, 35, 320.1643676757812
0, 6, 36, 272.0374145507812
0, 6, 37, 290.5404663085938
0, 6, 38, 312.2391967773438
0, 6, 39, 300.7078857421875
0, 6, 40, 284.9162902832031
0, 6, 41, 297.784423828125
0, 6, 42, 305.2272338867188
0, 6, 43, 289.3167114257812
0, 6, 44, 281.6612243652344
0, 6, 45, 321.7008666992188
0, 6, 46, 300.45751953125
0, 6, 47, 334.1559753417969
0, 6, 48, 292.7891540527344
0, 6, 49, 311.1824645996094
0, 6, 50, 328.2083129882812
0, 6, 51, 310.674072265625
0, 6, 52, 320.3874816894531
0, 6, 53, 328.4721374511719
0, 6, 54, 304.9741821289062
0, 6, 55, 306.7604675292969
0, 6, 56, 294.7306518554688
0, 6, 57, 314.5634460449219
0, 6, 58, 262.4423217773438
0, 6, 59, 301.8836669921875
0, 6, 60, 312.2863159179688
0, 6, 61, 270.5027770996094
0, 6, 62, 335.0745544433594
0, 6, 63, 321.3301086425781
0, 6, 64, 291.3250427246094
0, 6, 65, 283.2610473632812
0, 6, 66, 304.0816650390625
0, 6, 67, 309.0908203125
0, 6, 68, 295.4868469238281
0, 6, 69, 279.1023254394531
0, 6, 70, 276.3221130371094
0, 6, 71, 290.0569458007812
0, 6, 72, 310.4348449707031
0, 6, 73, 292.2450866699219
0, 6, 74, 331.2156372070312
0, 6, 75, 344.4132995605469
0, 6, 76, 295.5916442871094
0, 6, 77, 285.6430053710938
0, 6, 78, 277.3970642089844
0, 6, 79, 292.2974548339844
0, 6, 80, 299.5544128417969
0, 6, 81, 313.761474609375
0, 6, 82, 318.8910522460938
0, 6, 83, 320.5208129882812
0, 6, 84, 296.8440246582031
0, 6, 85, 303.1739501953125
0, 6, 86, 333.4035949707031
0, 6, 87, 291.7996215820312
0, 6, 88, 306.7139587402344
0, 6, 89, 305.3399658203125
0, 6, 90, 299.5742492675781
0, 6, 91, 310.3230285644531
0, 6, 92, 285.6654357910156
0, 6, 93, 296.2543029785156
0, 6, 94, 274.2816467285156
0, 6, 95, 299.8769226074219
0, 6, 96, 346.4819030761719
0, 6, 97, 308.2341613769531
0, 6, 98, 303.5249938964844
0, 6, 99, 270.1359558105469
0, 6, 100, 309.6918029785156
0, 6, 101, 293.5991821289062
0, 6, 102, 308.7271728515625
0, 6, 103, 308.3036804199219
0, 6, 104, 293.8085632324219
0, 6, 105, 299.8599548339844
0, 6, 106, 307.4266052246094
0, 6, 107, 304.3648376464844
0, 6, 108, 265.2897644042969
0, 6, 109, 186.7699432373047
0, 6, 110, 54.32901763916016
0, 6, 111, 21.65343856811523
0, 6, 112, 12.33983039855957
0, 6, 113, 12.8650016784668
0, 6, 114, 12.06596565246582
0, 6, 115, 11.47128200531006
0, 6, 116, 9.16763973236084
0, 6, 117, 6.424400329589844
0, 6, 118, 8.717931747436523
0, 6, 119, 11.49344539642334
0, 6, 120, 4.981795310974121
0, 6, 121, 7.249734878540039
0, 6, 122, 6.437515735626221
0, 6, 123, 4.463658332824707
0, 6, 124, 5.483759880065918
0, 6, 125, 8.707962989807129
0, 6, 126, 5.941062450408936
0, 6, 127, 6.54599666595459
0, 7, 0, 4.153054237365723
0, 7, 1, 4.692316055297852
0, 7, 2, 5.087692260742188
0, 7, 3, 6.772907257080078
0, 7, 4, 7.318335056304932
0, 7, 5, 3.727176427841187
0, 7, 6, 5.593247890472412
0, 7, 7, 4.67540979385376
0, 7, 8, 6.207835674285889
0, 7, 9, 8.290687561035156
0, 7, 10, 9.293510437011719
0, 7, 11, 14.20721435546875
0, 7, 12, 11.41398620605469
0, 7, 13, 10.64260673522949
0, 7, 14, 11.13195991516113
0, 7, 15, 16.76080131530762
0, 7, 16, 26.23641777038574
0, 7, 17, 97.26560974121094
0, 7, 18, 220.0239868164062
0, 7, 19, 288.1678466796875
0, 7, 20, 299.1226501464844
0, 7, 21, 276.6548461914062
0, 7, 22, 299.7949829101562
0, 7, 23, 289.7390747070312
0, 7, 24, 311.9124755859375
0, 7, 25, 324.9198913574219
0, 7, 26, 276.7200317382812
0, 7, 27, 297.5602416992188
0, 7, 28, 326.3759765625
0, 7, 29, 318.7139892578125
0, 7, 30, 299.9009399414062
0, 7, 31, 279.2621459960938
0, 7, 32, 303.5225524902344
0, 7, 33, 264.7444458007812
0, 7, 34, 300.0682373046875
0, 7, 35, 319.2719421386719
0, 7, 36, 333.3683471679688
0, 7, 37, 323.4636535644531
0, 7, 38, 295.8207092285156
0, 7, 39, 306.0885620117188
0, 7, 40, 288.890869140625
0, 7, 41, 271.9755554199219
0, 7, 42, 301.1486511230469
0, 7, 43, 274.4843444824219
0, 7, 44, 303.2532043457031
0, 7, 45, 295.02099609375
0, 7, 46, 280.9508972167969
0, 7, 47, 327.702392578125
0, 7, 48, 289.287353515625
0, 7, 49, 302.8072204589844
0, 7, 50, 321.5350646972656
0, 7, 51, 299.1914978027344
0, 7, 52, 327.5902709960938
0, 7, 53, 312.0701599121094
0, 7, 54, 324.6489562988281
0, 7, 55, 306.3244018554688
0, 7, 56, 281.92041015625
0, 7, 57, 280.5414428710938
0, 7, 58, 296.8713989257812
0, 7, 59, 293.0694580078125
0, 7, 60, 323.5818176269531
0, 7, 61, 277.8880615234375
0, 7, 62, 298.1244812011719
0, 7, 63, 291.845947265625
0, 7, 64, 305.2894592285156
0, 7, 65, 330.63330078125
0, 7, 66, 317.3036804199219
0, 7, 67, 301.3543090820312
0, 7, 68, 278.9360656738281
0, 7, 69, 293.8536071777344
0, 7, 70, 303.2633056640625
0, 7, 71, 315.7357177734375
0, 7, 72, 290.9432067871094
0, 7, 73, 295.0831604003906
0, 7, 74, 344.3977661132812
0, 7, 75, 320.1880493164062
0, 7, 76, 322.2011108398438
0, 7, 77, 282.0692138671875
0, 7, 78, 300.6173095703125
0, 7, 79, 299.1051635742188
0, 7, 80, 311.4345397949219
0, 7, 81, 318.9787292480469
0, 7, 82, 329.787353515625
0, 7, 83, 316.2030639648438
0, 7, 84, 310.19873046875
0, 7, 85, 271.4329528808594
0, 7, 86, 310.6151123046875
0, 7, 87, 310.6595764160156
0, 7, 88, 305.7777709960938
0, 7, 89, 294.7803344726562
0, 7, 90, 308.3817138671875
0, 7, 91, 314.3403625488281
0, 7, 92, 289.4154052734375
0, 7, 93, 308.2694091796875
0, 7, 94, 272.113037109375
0, 7, 95, 297.6039428710938
0, 7, 96, 331.2710876464844
0, 7, 97, 294.5419921875
0, 7, 98, 290.94970703125
0, 7, 99, 312.1514282226562
0, 7, 100, 282.8961181640625
0, 7, 101, 273.9304504394531
0, 7, 102, 289.571533203125
0, 7, 103, 291.5770263671875
0, 7, 104, 274.7588500976562
0, 7, 105, 305.2404174804688
0, 7, 106, 317.9044494628906
0, 7, 107, 297.4395751953125
0, 7, 108, 273.6267700195312
0, 7, 109, 237.2947540283203
0, 7, 110, 96.13736724853516
0, 7, 111, 25.39288902282715
0, 7, 112, 12.67254066467285
0, 7, 113, 14.71268844604492
0, 7, 114, 14.20719337463379
0, 7, 115, 13.83249568939209
0, 7, 116, 10.43346118927002
0, 7, 117, 5.929759979248047
0, 7, 118, 9.520023345947266
0, 7, 119, 6.826919555664062
0, 7, 120, 4.098575115203857
0, 7, 121, 7.029507637023926
0, 7, 122, 6.449384212493896
0, 7, 123, 5.896714687347412
0, 7, 124, 3.044056177139282
0, 7, 125, 6.511520385742188
0, 7, 126, 6.871018886566162
0, 7, 127, 3.913268566131592
0, 8, 0, 6.544501781463623
0, 8, 1, 5.031907558441162
0, 8, 2, 4.94573974609375
0, 8, 3, 3.915999889373779
0, 8, 4, 3.82024621963501
0, 8, 5, 5.148084163665771
0, 8, 6, 6.437658309936523
0, 8, 7, 4.745484828948975
0, 8, 8, 8.377537727355957
0, 8, 9, 6.1084303855896
0, 8, 10, 9.422396659851074
0, 8, 11, 12.74701023101807
0, 8, 12, 13.38058757781982
0, 8, 13, 16.0279369354248
0, 8, 14, 12.59252643585205
0, 8, 15, 18.70064544677734
0, 8, 16, 33.33014678955078
0, 8, 17, 131.6020965576172
0, 8, 18, 243.3261566162109
0, 8, 19, 296.7078552246094
0, 8, 20, 288.084228515625
0, 8, 21, 306.5574645996094
0, 8, 22, 294.2292785644531
0, 8, 23, 273.8871459960938
0, 8, 24, 269.0550537109375
0, 8, 25, 274.8266906738281
0, 8, 26, 305.2891235351562
0, 8, 27, 308.0802612304688
0, 8, 28, 306.9283752441406
0, 8, 29, 318.9834899902344
0, 8, 30, 312.957763671875
0, 8, 31, 307.2207946777344
0, 8, 32, 279.5926513671875
0, 8, 33, 293.6381530761719
0, 8, 34, 290.0034790039062
0, 8, 35, 278.2516479492188
0, 8, 36, 316.0294189453125
0, 8, 37, 338.8376770019531
0, 8, 38, 332.0976257324219
0, 8, 39, 281.2341613769531
