# TOPAS Version: 3.1.p3
# Parameter File: batch_inserts_254.txt
# Results for scorer Readout_Adipose
# Scored in component: MyBox
# X in 1 bin  of 0.75 cm
# Y in 512 bins of 0.0783984 cm
# Z in 128 bins of 0.078125 cm
# EnergyDeposit ( MeV ) : Sum   
0, 0, 0, 3.910104274749756
0, 0, 1, 1.565337181091309
0, 0, 2, 3.954246044158936
0, 0, 3, 1.50760293006897
0, 0, 4, 5.597357749938965
0, 0, 5, 1.464262723922729
0, 0, 6, 6.304080009460449
0, 0, 7, 9.472063064575195
0, 0, 8, 4.110946178436279
0, 0, 9, 4.221071243286133
0, 0, 10, 6.584108829498291
0, 0, 11, 3.708174705505371
0, 0, 12, 3.939653158187866
0, 0, 13, 7.320271968841553
0, 0, 14, 9.603677749633789
0, 0, 15, 9.57904052734375
0, 0, 16, 8.647372245788574
0, 0, 17, 9.075427055358887
0, 0, 18, 14.63211154937744
0, 0, 19, 44.62709808349609
0, 0, 20, 139.579833984375
0, 0, 21, 223.7475891113281
0, 0, 22, 249.8624420166016
0, 0, 23, 256.3285522460938
0, 0, 24, 250.1112518310547
0, 0, 25, 257.7393188476562
0, 0, 26, 233.5868377685547
0, 0, 27, 236.4797821044922
0, 0, 28, 271.0272521972656
0, 0, 29, 253.1780700683594
0, 0, 30, 229.3958282470703
0, 0, 31, 243.04931640625
0, 0, 32, 264.3001708984375
0, 0, 33, 259.9200439453125
0, 0, 34, 288.5468139648438
0, 0, 35, 266.5826416015625
0, 0, 36, 247.3595886230469
0, 0, 37, 252.2523040771484
0, 0, 38, 270.0196838378906
0, 0, 39, 231.8843841552734
0, 0, 40, 241.6603393554688
0, 0, 41, 265.7117614746094
0, 0, 42, 228.9897308349609
0, 0, 43, 258.3096618652344
0, 0, 44, 251.6971282958984
0, 0, 45, 254.0315704345703
0, 0, 46, 244.1424713134766
0, 0, 47, 253.6555938720703
0, 0, 48, 267.3605651855469
0, 0, 49, 273.4967041015625
0, 0, 50, 253.3898773193359
0, 0, 51, 254.7928009033203
0, 0, 52, 273.7081604003906
0, 0, 53, 291.6648559570312
0, 0, 54, 243.2529907226562
0, 0, 55, 239.0560302734375
0, 0, 56, 276.6683044433594
0, 0, 57, 262.362548828125
0, 0, 58, 247.8036499023438
0, 0, 59, 271.9449157714844
0, 0, 60, 234.0082855224609
0, 0, 61, 244.7411499023438
0, 0, 62, 259.2366027832031
0, 0, 63, 266.8324584960938
0, 0, 64, 254.4397583007812
0, 0, 65, 262.2948913574219
0, 0, 66, 276.1452331542969
0, 0, 67, 247.9101409912109
0, 0, 68, 258.51904296875
0, 0, 69, 260.9735107421875
0, 0, 70, 274.3303527832031
0, 0, 71, 237.7673492431641
0, 0, 72, 249.8996887207031
0, 0, 73, 258.9903259277344
0, 0, 74, 252.4735260009766
0, 0, 75, 240.9470367431641
0, 0, 76, 228.1012573242188
0, 0, 77, 259.3408203125
0, 0, 78, 255.9909210205078
0, 0, 79, 278.8209228515625
0, 0, 80, 218.0874786376953
0, 0, 81, 268.0529479980469
0, 0, 82, 256.5322265625
0, 0, 83, 244.2216339111328
0, 0, 84, 271.1705627441406
0, 0, 85, 231.4788208007812
0, 0, 86, 252.8599090576172
0, 0, 87, 250.6152648925781
0, 0, 88, 261.9437561035156
0, 0, 89, 283.2990417480469
0, 0, 90, 243.7021331787109
0, 0, 91, 284.7528991699219
0, 0, 92, 255.6082000732422
0, 0, 93, 249.3173370361328
0, 0, 94, 247.0321502685547
0, 0, 95, 248.2519073486328
0, 0, 96, 275.2752380371094
0, 0, 97, 272.1124267578125
0, 0, 98, 275.7625427246094
0, 0, 99, 257.2898254394531
0, 0, 100, 258.4757080078125
0, 0, 101, 226.2284393310547
0, 0, 102, 232.3545074462891
0, 0, 103, 270.1394348144531
0, 0, 104, 254.9715881347656
0, 0, 105, 250.7017822265625
0, 0, 106, 244.4120483398438
0, 0, 107, 150.6568603515625
0, 0, 108, 37.79177474975586
0, 0, 109, 10.96797847747803
0, 0, 110, 12.39122772216797
0, 0, 111, 10.92685794830322
0, 0, 112, 6.754197120666504
0, 0, 113, 4.998594760894775
0, 0, 114, 5.47144889831543
0, 0, 115, 6.423230648040771
0, 0, 116, 5.202417373657227
0, 0, 117, 5.636163711547852
0, 0, 118, 6.678046703338623
0, 0, 119, 4.777956962585449
0, 0, 120, 3.295992136001587
0, 0, 121, 3.61825966835022
0, 0, 122, 6.736798763275146
0, 0, 123, 2.216372728347778
0, 0, 124, 5.716802597045898
0, 0, 125, 2.516136169433594
0, 0, 126, 4.920361042022705
0, 0, 127, 6.480024814605713
0, 1, 0, 8.757441520690918
0, 1, 1, 5.904728889465332
0, 1, 2, 4.8899245262146
0, 1, 3, 3.074492454528809
0, 1, 4, 3.099817276000977
0, 1, 5, 3.969801425933838
0, 1, 6, 7.188695907592773
0, 1, 7, 5.876684188842773
0, 1, 8, 7.351556301116943
0, 1, 9, 4.84364128112793
0, 1, 10, 7.180936336517334
0, 1, 11, 11.42140293121338
0, 1, 12, 8.287165641784668
0, 1, 13, 8.600168228149414
0, 1, 14, 8.654428482055664
0, 1, 15, 7.65059757232666
0, 1, 16, 11.88661861419678
0, 1, 17, 12.63776588439941
0, 1, 18, 19.75844955444336
0, 1, 19, 65.65739440917969
0, 1, 20, 198.7959136962891
0, 1, 21, 256.3422241210938
0, 1, 22, 296.9411010742188
0, 1, 23, 283.7294616699219
0, 1, 24, 275.6864013671875
0, 1, 25, 291.3586120605469
0, 1, 26, 267.3487243652344
0, 1, 27, 307.28857421875
0, 1, 28, 299.0395202636719
0, 1, 29, 295.5927429199219
0, 1, 30, 284.2650756835938
0, 1, 31, 291.7639770507812
0, 1, 32, 290.2919921875
0, 1, 33, 297.3417663574219
0, 1, 34, 292.298583984375
0, 1, 35, 277.3355102539062
0, 1, 36, 306.3587951660156
0, 1, 37, 294.7257080078125
0, 1, 38, 279.6084899902344
0, 1, 39, 296.2470703125
0, 1, 40, 265.7597045898438
0, 1, 41, 286.0726623535156
0, 1, 42, 288.2952575683594
0, 1, 43, 331.5735778808594
0, 1, 44, 279.6966247558594
0, 1, 45, 292.6738586425781
0, 1, 46, 259.9281311035156
0, 1, 47, 310.0978088378906
0, 1, 48, 283.7955932617188
0, 1, 49, 302.4991149902344
0, 1, 50, 263.7807922363281
0, 1, 51, 273.7642211914062
0, 1, 52, 296.3487548828125
0, 1, 53, 307.1256713867188
0, 1, 54, 275.2183227539062
0, 1, 55, 292.6465148925781
0, 1, 56, 280.3160400390625
0, 1, 57, 297.0193176269531
0, 1, 58, 310.1303405761719
0, 1, 59, 291.1007385253906
0, 1, 60, 297.8388671875
0, 1, 61, 273.7539367675781
0, 1, 62, 307.7916870117188
0, 1, 63, 287.6584777832031
0, 1, 64, 288.2680969238281
0, 1, 65, 294.85791015625
0, 1, 66, 293.7343444824219
0, 1, 67, 291.9474792480469
0, 1, 68, 277.2214660644531
0, 1, 69, 281.170654296875
0, 1, 70, 273.6366271972656
0, 1, 71, 272.7733154296875
0, 1, 72, 284.9124145507812
0, 1, 73, 303.1794738769531
0, 1, 74, 304.2090759277344
0, 1, 75, 291.4345092773438
0, 1, 76, 286.5422058105469
0, 1, 77, 291.1876525878906
0, 1, 78, 298.4234619140625
0, 1, 79, 303.2460327148438
0, 1, 80, 295.9762268066406
0, 1, 81, 299.3630065917969
0, 1, 82, 286.6646118164062
0, 1, 83, 332.9142761230469
0, 1, 84, 308.72900390625
0, 1, 85, 251.4978179931641
0, 1, 86, 293.9604187011719
0, 1, 87, 290.7731018066406
0, 1, 88, 298.8010559082031
0, 1, 89, 288.6179504394531
0, 1, 90, 269.4400939941406
0, 1, 91, 318.9176330566406
0, 1, 92, 291.0424499511719
0, 1, 93, 287.0194396972656
0, 1, 94, 304.1867370605469
0, 1, 95, 283.2122802734375
0, 1, 96, 283.6248474121094
0, 1, 97, 301.1471862792969
0, 1, 98, 277.2117614746094
0, 1, 99, 266.199462890625
0, 1, 100, 277.4351806640625
0, 1, 101, 282.9576721191406
0, 1, 102, 278.6310729980469
0, 1, 103, 280.8362731933594
0, 1, 104, 307.0471801757812
0, 1, 105, 297.4815979003906
0, 1, 106, 263.9007568359375
0, 1, 107, 192.2251739501953
0, 1, 108, 80.06990051269531
0, 1, 109, 23.03042221069336
0, 1, 110, 10.95589733123779
0, 1, 111, 10.01799011230469
0, 1, 112, 11.2531042098999
0, 1, 113, 7.273808479309082
0, 1, 114, 6.285413265228271
0, 1, 115, 6.275486946105957
0, 1, 116, 11.52446460723877
0, 1, 117, 5.504504680633545
0, 1, 118, 3.894346237182617
0, 1, 119, 4.744822978973389
0, 1, 120, 5.973482608795166
0, 1, 121, 6.047531604766846
0, 1, 122, 5.279575347900391
0, 1, 123, 2.681132793426514
0, 1, 124, 9.947266578674316
0, 1, 125, 4.069661617279053
0, 1, 126, 1.834087252616882
0, 1, 127, 2.129489898681641
0, 2, 0, 4.239584445953369
0, 2, 1, 2.210896253585815
0, 2, 2, 4.699015617370605
0, 2, 3, 5.074161052703857
0, 2, 4, 2.96147632598877
0, 2, 5, 2.89520001411438
0, 2, 6, 2.841079711914062
0, 2, 7, 3.729313135147095
0, 2, 8, 4.90779447555542
0, 2, 9, 5.138377666473389
0, 2, 10, 8.708965301513672
0, 2, 11, 5.967222213745117
0, 2, 12, 6.885847568511963
0, 2, 13, 11.36495971679688
0, 2, 14, 9.316622734069824
0, 2, 15, 7.88572883605957
0, 2, 16, 8.989239692687988
0, 2, 17, 17.89553260803223
0, 2, 18, 32.74393844604492
0, 2, 19, 117.6939926147461
0, 2, 20, 248.1305236816406
0, 2, 21, 271.2763671875
0, 2, 22, 315.66455078125
0, 2, 23, 300.0825500488281
0, 2, 24, 286.5494995117188
0, 2, 25, 304.0826110839844
0, 2, 26, 292.8436584472656
0, 2, 27, 275.1709594726562
0, 2, 28, 272.545654296875
0, 2, 29, 275.0281066894531
0, 2, 30, 291.1675415039062
0, 2, 31, 279.898193359375
0, 2, 32, 294.0068969726562
0, 2, 33, 284.3142700195312
0, 2, 34, 332.8179931640625
0, 2, 35, 291.7132568359375
0, 2, 36, 303.2839050292969
0, 2, 37, 314.5829467773438
0, 2, 38, 314.4242248535156
0, 2, 39, 266.6963195800781
0, 2, 40, 308.3536376953125
0, 2, 41, 290.4507751464844
0, 2, 42, 303.8639526367188
0, 2, 43, 310.6243591308594
0, 2, 44, 310.8912048339844
0, 2, 45, 326.0473327636719
0, 2, 46, 286.9181213378906
0, 2, 47, 302.6927490234375
0, 2, 48, 283.6572570800781
0, 2, 49, 279.9048461914062
0, 2, 50, 295.0391540527344
0, 2, 51, 282.9420776367188
0, 2, 52, 273.1338806152344
0, 2, 53, 286.0546875
0, 2, 54, 280.4053344726562
0, 2, 55, 275.7847595214844
0, 2, 56, 300.524658203125
0, 2, 57, 290.2737121582031
0, 2, 58, 302.5491943359375
0, 2, 59, 289.7293395996094
0, 2, 60, 319.5823059082031
0, 2, 61, 302.0632934570312
0, 2, 62, 313.094482421875
0, 2, 63, 300.3742370605469
0, 2, 64, 297.1858520507812
0, 2, 65, 314.1662292480469
0, 2, 66, 280.7326965332031
0, 2, 67, 291.2817077636719
0, 2, 68, 295.6591796875
0, 2, 69, 311.7698059082031
0, 2, 70, 335.1188049316406
0, 2, 71, 283.2927551269531
0, 2, 72, 303.1288452148438
0, 2, 73, 311.5414428710938
0, 2, 74, 285.5589599609375
0, 2, 75, 304.9622802734375
0, 2, 76, 286.1859436035156
0, 2, 77, 297.0255432128906
0, 2, 78, 316.0211791992188
0, 2, 79, 308.2140197753906
0, 2, 80, 295.6556091308594
0, 2, 81, 281.883544921875
0, 2, 82, 318.0279541015625
0, 2, 83, 312.6025085449219
0, 2, 84, 288.4727172851562
0, 2, 85, 282.3260192871094
0, 2, 86, 325.5084533691406
0, 2, 87, 286.8463745117188
0, 2, 88, 280.7159118652344
0, 2, 89, 298.0030212402344
0, 2, 90, 295.0496826171875
0, 2, 91, 278.1858215332031
0, 2, 92, 304.5446472167969
0, 2, 93, 315.6005554199219
0, 2, 94, 291.2992248535156
0, 2, 95, 315.2486572265625
0, 2, 96, 315.6453247070312
0, 2, 97, 292.331298828125
0, 2, 98, 294.0980834960938
0, 2, 99, 273.8028259277344
0, 2, 100, 304.7384338378906
0, 2, 101, 300.6422424316406
0, 2, 102, 296.7731323242188
0, 2, 103, 291.9532470703125
0, 2, 104, 291.0333557128906
0, 2, 105, 275.9194946289062
0, 2, 106, 298.017333984375
0, 2, 107, 270.3153686523438
0, 2, 108, 116.4490509033203
0, 2, 109, 31.45413208007812
0, 2, 110, 9.594799041748047
0, 2, 111, 11.47122859954834
0, 2, 112, 8.472013473510742
0, 2, 113, 10.87060546875
0, 2, 114, 9.726879119873047
0, 2, 115, 11.25542068481445
0, 2, 116, 7.805350780487061
0, 2, 117, 6.303402423858643
0, 2, 118, 2.471393346786499
0, 2, 119, 6.75428581237793
0, 2, 120, 4.777757167816162
0, 2, 121, 1.503480672836304
0, 2, 122, 6.65259313583374
0, 2, 123, 5.151387691497803
0, 2, 124, 5.951210975646973
0, 2, 125, 7.479260444641113
0, 2, 126, 4.53939151763916
0, 2, 127, 5.359176158905029
0, 3, 0, 3.408586978912354
0, 3, 1, 4.785280704498291
0, 3, 2, 4.755759716033936
0, 3, 3, 1.827820420265198
0, 3, 4, 5.291850090026855
0, 3, 5, 7.331855773925781
0, 3, 6, 7.629318237304688
0, 3, 7, 6.70185661315918
0, 3, 8, 5.637379169464111
0, 3, 9, 5.956238269805908
0, 3, 10, 7.5735182762146
0, 3, 11, 4.954085350036621
0, 3, 12, 7.011583805084229
0, 3, 13, 14.26609706878662
0, 3, 14, 10.26127910614014
0, 3, 15, 14.66799163818359
0, 3, 16, 11.72374248504639
0, 3, 17, 19.86344528198242
0, 3, 18, 50.45269393920898
0, 3, 19, 175.9428558349609
0, 3, 20, 270.081298828125
0, 3, 21, 271.75927734375
0, 3, 22, 281.7874450683594
0, 3, 23, 288.050048828125
0, 3, 24, 287.5292358398438
0, 3, 25, 270.8232116699219
0, 3, 26, 304.9127197265625
0, 3, 27, 293.7698059082031
0, 3, 28, 281.6268310546875
0, 3, 29, 336.9088134765625
0, 3, 30, 318.0981750488281
0, 3, 31, 285.1492004394531
0, 3, 32, 305.1262817382812
0, 3, 33, 314.64697265625
0, 3, 34, 322.5687255859375
0, 3, 35, 306.8838806152344
0, 3, 36, 267.733642578125
0, 3, 37, 317.2004089355469
0, 3, 38, 304.0542297363281
0, 3, 39, 289.0004577636719
0, 3, 40, 266.470703125
0, 3, 41, 297.1171875
0, 3, 42, 286.5137634277344
0, 3, 43, 307.1498413085938
0, 3, 44, 311.1692810058594
0, 3, 45, 289.9434204101562
0, 3, 46, 329.3345642089844
0, 3, 47, 300.3360900878906
0, 3, 48, 301.3054504394531
0, 3, 49, 276.9104309082031
0, 3, 50, 289.0049743652344
0, 3, 51, 274.3076477050781
0, 3, 52, 314.0201416015625
0, 3, 53, 288.3607482910156
0, 3, 54, 286.0619812011719
0, 3, 55, 282.9166870117188
0, 3, 56, 299.0210876464844
0, 3, 57, 288.2142944335938
0, 3, 58, 312.2104187011719
0, 3, 59, 296.0968627929688
0, 3, 60, 297.6064453125
0, 3, 61, 264.3694152832031
0, 3, 62, 285.1405639648438
0, 3, 63, 307.6111450195312
0, 3, 64, 317.9539489746094
0, 3, 65, 304.1627197265625
0, 3, 66, 314.3520202636719
0, 3, 67, 319.2501525878906
0, 3, 68, 278.8758850097656
0, 3, 69, 281.7364501953125
0, 3, 70, 287.9833374023438
0, 3, 71, 297.9055786132812
0, 3, 72, 269.8880310058594
0, 3, 73, 309.7996520996094
0, 3, 74, 293.6309509277344
0, 3, 75, 289.0426635742188
0, 3, 76, 306.4209594726562
0, 3, 77, 313.6897888183594
0, 3, 78, 302.9507446289062
0, 3, 79, 282.2281494140625
0, 3, 80, 292.4991760253906
0, 3, 81, 312.5068359375
0, 3, 82, 314.6077270507812
0, 3, 83, 301.0969848632812
0, 3, 84, 310.5359497070312
0, 3, 85, 293.0762329101562
0, 3, 86, 300.9465026855469
0, 3, 87, 297.3125305175781
0, 3, 88, 298.2602844238281
0, 3, 89, 294.7619018554688
0, 3, 90, 275.4825439453125
0, 3, 91, 284.5406494140625
0, 3, 92, 304.2719421386719
0, 3, 93, 312.7412719726562
0, 3, 94, 297.7250671386719
0, 3, 95, 334.849853515625
0, 3, 96, 290.6100158691406
0, 3, 97, 283.3658447265625
0, 3, 98, 277.4387817382812
0, 3, 99, 262.1048583984375
0, 3, 100, 284.026123046875
0, 3, 101, 298.1168823242188
0, 3, 102, 274.6017150878906
0, 3, 103, 320.432861328125
0, 3, 104, 309.3886413574219
0, 3, 105, 288.1864929199219
0, 3, 106, 301.1358947753906
0, 3, 107, 282.3837585449219
0, 3, 108, 171.2108154296875
0, 3, 109, 57.68154525756836
0, 3, 110, 19.78216171264648
0, 3, 111, 12.76152515411377
0, 3, 112, 14.74186515808105
0, 3, 113, 6.331661701202393
0, 3, 114, 9.052121162414551
0, 3, 115, 8.356169700622559
0, 3, 116, 7.998454093933105
0, 3, 117, 8.290423393249512
0, 3, 118, 6.940827369689941
0, 3, 119, 6.861386299133301
0, 3, 120, 7.165626525878906
0, 3, 121, 2.71286153793335
0, 3, 122, 3.61762547492981
0, 3, 123, 6.498691082000732
0, 3, 124, 1.680241107940674
0, 3, 125, 4.9993577003479
0, 3, 126, 4.802944183349609
0, 3, 127, 3.473803997039795
0, 4, 0, 2.06168007850647
0, 4, 1, 6.481875419616699
0, 4, 2, 2.9557044506073
0, 4, 3, 3.225626945495605
0, 4, 4, 7.035547733306885
0, 4, 5, 8.037424087524414
0, 4, 6, 7.323701858520508
0, 4, 7, 6.359950065612793
0, 4, 8, 4.974177360534668
0, 4, 9, 5.65772819519043
0, 4, 10, 5.947350978851318
0, 4, 11, 6.162981510162354
0, 4, 12, 6.504018306732178
0, 4, 13, 8.117341995239258
0, 4, 14, 12.06853866577148
0, 4, 15, 8.534923553466797
0, 4, 16, 14.54425144195557
0, 4, 17, 18.42484664916992
0, 4, 18, 96.46692657470703
0, 4, 19, 225.2497711181641
0, 4, 20, 282.7065734863281
0, 4, 21, 272.1369018554688
0, 4, 22, 306.61962890625
0, 4, 23, 268.7836303710938
0, 4, 24, 288.4707641601562
0, 4, 25, 272.2304382324219
0, 4, 26, 297.42919921875
0, 4, 27, 282.8681030273438
0, 4, 28, 306.5725708007812
0, 4, 29, 322.8025817871094
0, 4, 30, 308.8808898925781
0, 4, 31, 303.5450439453125
0, 4, 32, 280.6403503417969
0, 4, 33, 298.8973083496094
0, 4, 34, 296.1495666503906
0, 4, 35, 311.3121948242188
0, 4, 36, 295.2949523925781
0, 4, 37, 287.8602294921875
0, 4, 38, 296.8193969726562
0, 4, 39, 292.8394470214844
0, 4, 40, 303.1709594726562
0, 4, 41, 311.58203125
0, 4, 42, 331.0867614746094
0, 4, 43, 298.579833984375
0, 4, 44, 322.5835266113281
0, 4, 45, 323.5334167480469
0, 4, 46, 305.3223266601562
0, 4, 47, 292.578857421875
0, 4, 48, 297.0938415527344
0, 4, 49, 278.8395080566406
0, 4, 50, 297.0113830566406
0, 4, 51, 317.0283813476562
0, 4, 52, 327.9670104980469
0, 4, 53, 304.865234375
0, 4, 54, 286.4930419921875
0, 4, 55, 316.4822387695312
0, 4, 56, 287.509033203125
0, 4, 57, 309.4475708007812
0, 4, 58, 295.7890625
0, 4, 59, 306.9609985351562
0, 4, 60, 302.0266418457031
0, 4, 61, 315.026611328125
0, 4, 62, 309.3884582519531
0, 4, 63, 297.5853881835938
0, 4, 64, 328.6287841796875
0, 4, 65, 314.6634826660156
0, 4, 66, 293.5236206054688
0, 4, 67, 285.4038391113281
0, 4, 68, 314.2662963867188
0, 4, 69, 275.3262023925781
0, 4, 70, 298.2881469726562
0, 4, 71, 321.2110290527344
0, 4, 72, 330.7759399414062
0, 4, 73, 298.3821105957031
0, 4, 74, 293.3901977539062
0, 4, 75, 289.405517578125
0, 4, 76, 275.3611145019531
0, 4, 77, 279.7944641113281
0, 4, 78, 310.6885375976562
0, 4, 79, 318.397216796875
0, 4, 80, 315.8392639160156
0, 4, 81, 312.7295227050781
0, 4, 82, 298.7734375
0, 4, 83, 302.0965881347656
0, 4, 84, 291.7191467285156
0, 4, 85, 295.6509399414062
0, 4, 86, 299.1942443847656
0, 4, 87, 284.6466674804688
0, 4, 88, 307.8593139648438
0, 4, 89, 293.7946166992188
0, 4, 90, 334.187255859375
0, 4, 91, 303.1422119140625
0, 4, 92, 291.6665344238281
0, 4, 93, 296.1368713378906
0, 4, 94, 291.1537780761719
0, 4, 95, 288.7698364257812
0, 4, 96, 324.8064270019531
0, 4, 97, 274.9422607421875
0, 4, 98, 326.93408203125
0, 4, 99, 314.529541015625
0, 4, 100, 300.423828125
0, 4, 101, 255.9944305419922
0, 4, 102, 298.3986511230469
0, 4, 103, 316.31201171875
0, 4, 104, 282.6835327148438
0, 4, 105, 309.666748046875
0, 4, 106, 286.1612548828125
0, 4, 107, 294.9940795898438
0, 4, 108, 225.8526000976562
0, 4, 109, 79.89662170410156
0, 4, 110, 16.73940849304199
0, 4, 111, 13.24759101867676
0, 4, 112, 9.08197021484375
0, 4, 113, 11.04638004302979
0, 4, 114, 9.322785377502441
0, 4, 115, 10.2452917098999
0, 4, 116, 8.947340965270996
0, 4, 117, 7.838847637176514
0, 4, 118, 10.77928638458252
0, 4, 119, 10.38670349121094
0, 4, 120, 5.439957618713379
0, 4, 121, 4.524654388427734
0, 4, 122, 5.454788208007812
0, 4, 123, 6.960299015045166
0, 4, 124, 4.66105842590332
0, 4, 125, 11.9842586517334
0, 4, 126, 4.445091247558594
0, 4, 127, 3.009948015213013
0, 5, 0, 4.495311737060547
0, 5, 1, 2.573402881622314
0, 5, 2, 3.02611780166626
0, 5, 3, 3.187829732894897
0, 5, 4, 5.042007923126221
0, 5, 5, 5.505535125732422
0, 5, 6, 7.688866138458252
0, 5, 7, 6.733076572418213
0, 5, 8, 5.376900672912598
0, 5, 9, 4.589791774749756
0, 5, 10, 7.573928356170654
0, 5, 11, 8.036990165710449
0, 5, 12, 8.11744499206543
0, 5, 13, 7.96144437789917
0, 5, 14, 13.50131130218506
0, 5, 15, 15.91978168487549
0, 5, 16, 13.0377893447876
0, 5, 17, 27.79044151306152
0, 5, 18, 135.0748138427734
0, 5, 19, 288.0433349609375
0, 5, 20, 308.9537658691406
0, 5, 21, 318.6783142089844
0, 5, 22, 277.0479736328125
0, 5, 23, 311.843994140625
0, 5, 24, 302.3931274414062
0, 5, 25, 289.7459411621094
0, 5, 26, 297.0639343261719
0, 5, 27, 321.8026123046875
0, 5, 28, 303.0202941894531
0, 5, 29, 298.7516479492188
0, 5, 30, 327.3016967773438
0, 5, 31, 286.4224548339844
0, 5, 32, 301.2505493164062
0, 5, 33, 303.3458557128906
0, 5, 34, 295.8849182128906
0, 5, 35, 308.4732360839844
0, 5, 36, 268.4215087890625
0, 5, 37, 282.2330322265625
0, 5, 38, 293.3612670898438
0, 5, 39, 312.8602294921875
0, 5, 40, 308.3392639160156
0, 5, 41, 272.5924682617188
0, 5, 42, 305.5667114257812
0, 5, 43, 313.87109375
0, 5, 44, 291.5116577148438
0, 5, 45, 302.8966674804688
0, 5, 46, 264.1405944824219
0, 5, 47, 279.2467041015625
0, 5, 48, 295.2860412597656
0, 5, 49, 286.77783203125
0, 5, 50, 298.2061767578125
0, 5, 51, 279.4773559570312
0, 5, 52, 268.9316101074219
0, 5, 53, 282.6380920410156
0, 5, 54, 292.5308227539062
0, 5, 55, 345.8649291992188
0, 5, 56, 308.7781677246094
0, 5, 57, 307.9996032714844
0, 5, 58, 313.3528442382812
0, 5, 59, 305.1815490722656
0, 5, 60, 308.3946838378906
0, 5, 61, 281.9867553710938
0, 5, 62, 326.4898681640625
0, 5, 63, 291.9253234863281
0, 5, 64, 323.8658752441406
0, 5, 65, 307.044921875
0, 5, 66, 328.4974975585938
0, 5, 67, 311.3069763183594
0, 5, 68, 309.1307067871094
0, 5, 69, 310.9783935546875
0, 5, 70, 298.8499450683594
0, 5, 71, 272.5120544433594
0, 5, 72, 309.7150268554688
0, 5, 73, 303.148193359375
0, 5, 74, 296.1921691894531
0, 5, 75, 294.5415954589844
0, 5, 76, 285.6443786621094
0, 5, 77, 298.2118225097656
0, 5, 78, 315.8612060546875
0, 5, 79, 307.2784729003906
0, 5, 80, 294.6915283203125
0, 5, 81, 324.9036560058594
0, 5, 82, 323.5357360839844
0, 5, 83, 281.8465270996094
0, 5, 84, 300.7831726074219
0, 5, 85, 270.3105773925781
0, 5, 86, 327.0008850097656
0, 5, 87, 282.7139892578125
0, 5, 88, 313.1704711914062
0, 5, 89, 305.5972595214844
0, 5, 90, 315.8006896972656
0, 5, 91, 313.5836181640625
0, 5, 92, 295.06689453125
0, 5, 93, 320.5060729980469
0, 5, 94, 313.3208923339844
0, 5, 95, 295.8607482910156
0, 5, 96, 297.7846069335938
0, 5, 97, 295.0948181152344
0, 5, 98, 320.0183715820312
0, 5, 99, 302.4791564941406
0, 5, 100, 290.1238098144531
0, 5, 101, 304.7766418457031
0, 5, 102, 294.4081115722656
0, 5, 103, 312.8556213378906
0, 5, 104, 302.7822570800781
0, 5, 105, 291.8218078613281
0, 5, 106, 280.9207458496094
0, 5, 107, 293.5145874023438
0, 5, 108, 265.6648864746094
0, 5, 109, 156.7790679931641
0, 5, 110, 40.64312744140625
0, 5, 111, 22.30220031738281
0, 5, 112, 18.84518623352051
0, 5, 113, 14.69284343719482
0, 5, 114, 11.50076675415039
0, 5, 115, 8.607197761535645
0, 5, 116, 8.237226486206055
0, 5, 117, 6.021361351013184
0, 5, 118, 15.05637168884277
0, 5, 119, 4.047391414642334
0, 5, 120, 6.933735370635986
0, 5, 121, 4.915338039398193
0, 5, 122, 5.997305393218994
0, 5, 123, 4.328114032745361
0, 5, 124, 11.22236919403076
0, 5, 125, 4.362524032592773
0, 5, 126, 7.885884284973145
0, 5, 127, 5.602467060089111
0, 6, 0, 3.669919967651367
0, 6, 1, 2.534103870391846
0, 6, 2, 4.086897850036621
0, 6, 3, 4.94200325012207
0, 6, 4, 5.185096263885498
0, 6, 5, 4.443564414978027
0, 6, 6, 9.348034858703613
0, 6, 7, 6.701300144195557
0, 6, 8, 7.509246826171875
0, 6, 9, 5.759267807006836
0, 6, 10, 8.429673194885254
0, 6, 11, 9.621855735778809
0, 6, 12, 8.604862213134766
0, 6, 13, 12.9916934967041
0, 6, 14, 11.36507987976074
0, 6, 15, 18.06923866271973
0, 6, 16, 29.75168228149414
0, 6, 17, 55.13608932495117
0, 6, 18, 173.6609497070312
0, 6, 19, 275.9049682617188
0, 6, 20, 290.8093566894531
0, 6, 21, 315.1341552734375
0, 6, 22, 321.3165893554688
0, 6, 23, 306.7643432617188
0, 6, 24, 315.2012634277344
0, 6, 25, 315.4613037109375
0, 6, 26, 321.1319274902344
0, 6, 27, 330.9764404296875
0, 6, 28, 294.9272766113281
0, 6, 29, 334.9105529785156
0, 6, 30, 283.3014526367188
0, 6, 31, 284.457763671875
0, 6, 32, 338.6552124023438
0, 6, 33, 300.5067443847656
0, 6, 34, 342.0499877929688
0, 6, 35, 319.4878234863281
0, 6, 36, 274.0887145996094
0, 6, 37, 288.6428527832031
0, 6, 38, 312.1615295410156
0, 6, 39, 299.3418579101562
0, 6, 40, 281.8737487792969
0, 6, 41, 295.9265441894531
0, 6, 42, 304.1622009277344
0, 6, 43, 291.9303588867188
0, 6, 44, 281.1395568847656
0, 6, 45, 319.53271484375
0, 6, 46, 303.0901794433594
0, 6, 47, 333.72314453125
0, 6, 48, 291.758056640625
0, 6, 49, 311.6145324707031
0, 6, 50, 327.4628601074219
0, 6, 51, 311.2911682128906
0, 6, 52, 321.8268432617188
0, 6, 53, 327.2751159667969
0, 6, 54, 304.1233825683594
0, 6, 55, 305.8583374023438
0, 6, 56, 293.6607666015625
0, 6, 57, 312.6453552246094
0, 6, 58, 262.6526794433594
0, 6, 59, 303.2628173828125
0, 6, 60, 312.9692993164062
0, 6, 61, 270.9788818359375
0, 6, 62, 337.0857849121094
0, 6, 63, 323.4740905761719
0, 6, 64, 290.2088317871094
0, 6, 65, 282.5171813964844
0, 6, 66, 303.5134887695312
0, 6, 67, 308.5083618164062
0, 6, 68, 292.9264221191406
0, 6, 69, 278.6036376953125
0, 6, 70, 275.7699279785156
0, 6, 71, 290.9566345214844
0, 6, 72, 312.6324768066406
0, 6, 73, 292.3670349121094
0, 6, 74, 331.2565612792969
0, 6, 75, 343.205322265625
0, 6, 76, 296.451904296875
0, 6, 77, 287.7461853027344
0, 6, 78, 279.9916381835938
0, 6, 79, 294.2578430175781
0, 6, 80, 300.8432006835938
0, 6, 81, 315.2074279785156
0, 6, 82, 320.7955932617188
0, 6, 83, 319.03125
0, 6, 84, 297.1706237792969
0, 6, 85, 301.2223815917969
0, 6, 86, 329.2142944335938
0, 6, 87, 292.6327514648438
0, 6, 88, 306.5735778808594
0, 6, 89, 305.28955078125
0, 6, 90, 299.3543701171875
0, 6, 91, 315.0974731445312
0, 6, 92, 284.3746337890625
0, 6, 93, 294.759765625
0, 6, 94, 271.9111022949219
0, 6, 95, 302.6952514648438
0, 6, 96, 349.6133728027344
0, 6, 97, 309.4002380371094
0, 6, 98, 300.6199951171875
0, 6, 99, 273.7663269042969
0, 6, 100, 309.9257507324219
0, 6, 101, 292.2099914550781
0, 6, 102, 305.6610717773438
0, 6, 103, 307.3650207519531
0, 6, 104, 291.8784484863281
0, 6, 105, 300.8053894042969
0, 6, 106, 307.8448486328125
0, 6, 107, 306.9420776367188
0, 6, 108, 266.4911804199219
0, 6, 109, 188.5271606445312
0, 6, 110, 54.12823867797852
0, 6, 111, 23.13662528991699
0, 6, 112, 15.9022912979126
0, 6, 113, 10.41485118865967
0, 6, 114, 11.89290809631348
0, 6, 115, 13.02984523773193
0, 6, 116, 10.27736282348633
0, 6, 117, 7.002419471740723
0, 6, 118, 11.33271789550781
0, 6, 119, 8.927103042602539
0, 6, 120, 4.956435203552246
0, 6, 121, 8.262979507446289
0, 6, 122, 7.784130096435547
0, 6, 123, 5.34751033782959
0, 6, 124, 6.685592174530029
0, 6, 125, 7.594593524932861
0, 6, 126, 4.662491798400879
0, 6, 127, 5.209953308105469
0, 7, 0, 6.263782024383545
0, 7, 1, 3.838506460189819
0, 7, 2, 6.267312526702881
0, 7, 3, 5.080391407012939
0, 7, 4, 4.937934875488281
0, 7, 5, 4.567429065704346
0, 7, 6, 4.729558944702148
0, 7, 7, 4.760390281677246
0, 7, 8, 4.969991207122803
0, 7, 9, 5.373872756958008
0, 7, 10, 7.836597919464111
0, 7, 11, 12.02904510498047
0, 7, 12, 9.288651466369629
0, 7, 13, 11.78975391387939
0, 7, 14, 9.594408988952637
0, 7, 15, 15.6722993850708
0, 7, 16, 25.30332183837891
0, 7, 17, 99.42725372314453
0, 7, 18, 218.1488952636719
0, 7, 19, 292.1615600585938
0, 7, 20, 296.6147155761719
0, 7, 21, 277.0599670410156
0, 7, 22, 298.4890747070312
0, 7, 23, 289.7360534667969
0, 7, 24, 312.9857788085938
0, 7, 25, 323.305908203125
0, 7, 26, 277.8692932128906
0, 7, 27, 298.9083251953125
0, 7, 28, 325.9014282226562
0, 7, 29, 321.4608764648438
0, 7, 30, 299.3195190429688
0, 7, 31, 277.7303771972656
0, 7, 32, 305.7908630371094
0, 7, 33, 263.9721374511719
0, 7, 34, 297.2549743652344
0, 7, 35, 319.9613342285156
0, 7, 36, 330.2737731933594
0, 7, 37, 326.3569030761719
0, 7, 38, 296.2090148925781
0, 7, 39, 306.1567993164062
0, 7, 40, 289.5292053222656
0, 7, 41, 271.5206604003906
0, 7, 42, 299.7035217285156
0, 7, 43, 274.8067932128906
0, 7, 44, 304.0867614746094
0, 7, 45, 295.5146789550781
0, 7, 46, 285.6772766113281
0, 7, 47, 330.3435363769531
0, 7, 48, 284.0572509765625
0, 7, 49, 300.9216003417969
0, 7, 50, 322.4004821777344
0, 7, 51, 299.0284118652344
0, 7, 52, 326.5319519042969
0, 7, 53, 312.761474609375
0, 7, 54, 323.9862060546875
0, 7, 55, 307.7652893066406
0, 7, 56, 279.8079223632812
0, 7, 57, 284.8624267578125
0, 7, 58, 296.1241455078125
0, 7, 59, 295.6011962890625
0, 7, 60, 326.849365234375
0, 7, 61, 277.7130126953125
0, 7, 62, 296.4115905761719
0, 7, 63, 292.9642028808594
0, 7, 64, 305.0859680175781
0, 7, 65, 330.0675964355469
0, 7, 66, 317.8533020019531
0, 7, 67, 301.2781066894531
0, 7, 68, 280.1527099609375
0, 7, 69, 294.7893676757812
0, 7, 70, 301.971923828125
0, 7, 71, 308.7372741699219
0, 7, 72, 285.9276123046875
0, 7, 73, 295.8710327148438
0, 7, 74, 348.3797302246094
0, 7, 75, 317.9691162109375
0, 7, 76, 324.1915588378906
0, 7, 77, 282.9469299316406
0, 7, 78, 301.8646240234375
0, 7, 79, 297.8560791015625
0, 7, 80, 310.1950073242188
0, 7, 81, 319.4414672851562
0, 7, 82, 329.0420227050781
0, 7, 83, 318.8164672851562
0, 7, 84, 309.7895812988281
0, 7, 85, 272.6240234375
0, 7, 86, 311.1616821289062
0, 7, 87, 308.1865539550781
0, 7, 88, 307.83544921875
0, 7, 89, 294.7445678710938
0, 7, 90, 307.1299438476562
0, 7, 91, 316.1639099121094
0, 7, 92, 286.9705810546875
0, 7, 93, 308.693115234375
0, 7, 94, 274.9132690429688
0, 7, 95, 294.5099182128906
0, 7, 96, 332.6070861816406
0, 7, 97, 294.8657836914062
0, 7, 98, 289.9393005371094
0, 7, 99, 311.3951416015625
0, 7, 100, 283.8070678710938
0, 7, 101, 275.9918823242188
0, 7, 102, 290.9626159667969
0, 7, 103, 293.9692077636719
0, 7, 104, 274.6643981933594
0, 7, 105, 307.0747375488281
0, 7, 106, 317.5137329101562
0, 7, 107, 294.5098266601562
0, 7, 108, 272.1716003417969
0, 7, 109, 237.4929046630859
0, 7, 110, 97.65934753417969
0, 7, 111, 24.56333541870117
0, 7, 112, 14.47474956512451
0, 7, 113, 13.21618175506592
0, 7, 114, 14.5646448135376
0, 7, 115, 11.58072090148926
0, 7, 116, 6.494989395141602
0, 7, 117, 7.616891384124756
0, 7, 118, 7.553469181060791
0, 7, 119, 4.767702579498291
0, 7, 120, 3.635568380355835
0, 7, 121, 6.529336452484131
0, 7, 122, 7.214597702026367
0, 7, 123, 6.470149517059326
0, 7, 124, 3.797138214111328
0, 7, 125, 5.861534118652344
0, 7, 126, 6.019814968109131
0, 7, 127, 3.403067350387573
0, 8, 0, 4.769576072692871
0, 8, 1, 4.531879425048828
0, 8, 2, 6.053106784820557
0, 8, 3, 2.200955867767334
0, 8, 4, 2.946603298187256
0, 8, 5, 4.403777122497559
0, 8, 6, 4.669658184051514
0, 8, 7, 6.050965309143066
0, 8, 8, 8.208091735839844
0, 8, 9, 4.706859111785889
0, 8, 10, 7.860104084014893
0, 8, 11, 11.69329833984375
0, 8, 12, 14.6843900680542
0, 8, 13, 18.25619316101074
0, 8, 14, 13.60316276550293
0, 8, 15, 18.05509376525879
0, 8, 16, 33.78014755249023
0, 8, 17, 131.2671813964844
0, 8, 18, 244.6040954589844
0, 8, 19, 294.8634033203125
0, 8, 20, 284.2839050292969
0, 8, 21, 306.2520751953125
0, 8, 22, 294.720947265625
0, 8, 23, 275.8124389648438
0, 8, 24, 268.6111450195312
0, 8, 25, 276.3142700195312
0, 8, 26, 307.9622192382812
0, 8, 27, 307.8650817871094
0, 8, 28, 302.2627258300781
0, 8, 29, 317.8083801269531
0, 8, 30, 314.9888305664062
0, 8, 31, 303.4624633789062
0, 8, 32, 279.6832885742188
0, 8, 33, 296.1639404296875
0, 8, 34, 288.2369689941406
0, 8, 35, 280.8750915527344
0, 8, 36, 316.5638427734375
0, 8, 37, 339.8753662109375
0, 8, 38, 332.0756530761719
0, 8, 39, 280.7847290039062
0, 8, 40, 309.80810546875
