# TOPAS Version: 3.1.p3
# Parameter File: batch_inserts_34.txt
# Results for scorer Readout_Adipose
# Scored in component: MyBox
# X in 1 bin  of 0.75 cm
# Y in 512 bins of 0.0783984 cm
# Z in 128 bins of 0.078125 cm
# EnergyDeposit ( MeV ) : Sum   
0, 0, 0, 23.00987243652344
0, 0, 1, 20.31704521179199
0, 0, 2, 24.98443412780762
0, 0, 3, 24.90132904052734
0, 0, 4, 18.24910736083984
0, 0, 5, 20.592041015625
0, 0, 6, 26.39044952392578
0, 0, 7, 28.43237495422363
0, 0, 8, 27.7716064453125
0, 0, 9, 19.58675384521484
0, 0, 10, 28.07907867431641
0, 0, 11, 28.70174980163574
0, 0, 12, 34.57258987426758
0, 0, 13, 31.75068283081055
0, 0, 14, 38.6148681640625
0, 0, 15, 46.37131118774414
0, 0, 16, 43.43503952026367
0, 0, 17, 47.95548629760742
0, 0, 18, 75.90047454833984
0, 0, 19, 191.7720947265625
0, 0, 20, 699.7506103515625
0, 0, 21, 1188.664916992188
0, 0, 22, 1247.559204101562
0, 0, 23, 1273.55517578125
0, 0, 24, 1282.333374023438
0, 0, 25, 1356.95654296875
0, 0, 26, 1274.760864257812
0, 0, 27, 1279.081176757812
0, 0, 28, 1324.58837890625
0, 0, 29, 1269.406372070312
0, 0, 30, 1268.40185546875
0, 0, 31, 1283.336547851562
0, 0, 32, 1265.180297851562
0, 0, 33, 1244.26513671875
0, 0, 34, 1324.734741210938
0, 0, 35, 1298.681762695312
0, 0, 36, 1245.325317382812
0, 0, 37, 1280.484741210938
0, 0, 38, 1251.117431640625
0, 0, 39, 1245.915649414062
0, 0, 40, 1224.416748046875
0, 0, 41, 1272.185180664062
0, 0, 42, 1254.50048828125
0, 0, 43, 1268.802001953125
0, 0, 44, 1223.826293945312
0, 0, 45, 1289.679443359375
0, 0, 46, 1262.061401367188
0, 0, 47, 1237.960327148438
0, 0, 48, 1275.445678710938
0, 0, 49, 1292.72705078125
0, 0, 50, 1314.870239257812
0, 0, 51, 1265.88232421875
0, 0, 52, 1358.770629882812
0, 0, 53, 1326.635864257812
0, 0, 54, 1297.927856445312
0, 0, 55, 1233.782104492188
0, 0, 56, 1318.738647460938
0, 0, 57, 1290.721801757812
0, 0, 58, 1257.343505859375
0, 0, 59, 1330.609130859375
0, 0, 60, 1327.647827148438
0, 0, 61, 1259.360229492188
0, 0, 62, 1239.268676757812
0, 0, 63, 1274.941040039062
0, 0, 64, 1334.8828125
0, 0, 65, 1286.051879882812
0, 0, 66, 1316.679809570312
0, 0, 67, 1213.913940429688
0, 0, 68, 1312.466064453125
0, 0, 69, 1327.565185546875
0, 0, 70, 1340.724853515625
0, 0, 71, 1285.999389648438
0, 0, 72, 1310.838745117188
0, 0, 73, 1235.14501953125
0, 0, 74, 1287.097290039062
0, 0, 75, 1295.2587890625
0, 0, 76, 1256.42431640625
0, 0, 77, 1287.003662109375
0, 0, 78, 1315.060913085938
0, 0, 79, 1328.6455078125
0, 0, 80, 1259.980712890625
0, 0, 81, 1319.986206054688
0, 0, 82, 1287.136474609375
0, 0, 83, 1291.768310546875
0, 0, 84, 1329.92822265625
0, 0, 85, 1230.9345703125
0, 0, 86, 1267.730834960938
0, 0, 87, 1251.186279296875
0, 0, 88, 1253.629760742188
0, 0, 89, 1332.500122070312
0, 0, 90, 1274.392822265625
0, 0, 91, 1356.183349609375
0, 0, 92, 1309.584716796875
0, 0, 93, 1273.7333984375
0, 0, 94, 1242.486083984375
0, 0, 95, 1328.655883789062
0, 0, 96, 1284.9794921875
0, 0, 97, 1329.033447265625
0, 0, 98, 1255.4111328125
0, 0, 99, 1251.75439453125
0, 0, 100, 1287.90966796875
0, 0, 101, 1311.04541015625
0, 0, 102, 1234.807373046875
0, 0, 103, 1322.5693359375
0, 0, 104, 1263.411987304688
0, 0, 105, 1270.59814453125
0, 0, 106, 1209.467041015625
0, 0, 107, 782.6370849609375
0, 0, 108, 197.1952209472656
0, 0, 109, 68.90052795410156
0, 0, 110, 65.45494079589844
0, 0, 111, 38.81350326538086
0, 0, 112, 35.99152374267578
0, 0, 113, 28.88985061645508
0, 0, 114, 32.5651741027832
0, 0, 115, 29.94103622436523
0, 0, 116, 29.94266891479492
0, 0, 117, 34.04596328735352
0, 0, 118, 23.8485279083252
0, 0, 119, 23.48701286315918
0, 0, 120, 25.57424926757812
0, 0, 121, 28.1602668762207
0, 0, 122, 22.45704460144043
0, 0, 123, 18.04858779907227
0, 0, 124, 21.06845092773438
0, 0, 125, 20.96646499633789
0, 0, 126, 25.46786117553711
0, 0, 127, 15.8971643447876
0, 1, 0, 26.51980590820312
0, 1, 1, 25.83804130554199
0, 1, 2, 18.77107429504395
0, 1, 3, 18.53573417663574
0, 1, 4, 21.75287055969238
0, 1, 5, 22.52444648742676
0, 1, 6, 28.61994743347168
0, 1, 7, 31.9476432800293
0, 1, 8, 28.67674446105957
0, 1, 9, 35.38066482543945
0, 1, 10, 36.38125610351562
0, 1, 11, 42.27050018310547
0, 1, 12, 42.7831916809082
0, 1, 13, 40.78177261352539
0, 1, 14, 40.08412551879883
0, 1, 15, 47.76564025878906
0, 1, 16, 64.98413848876953
0, 1, 17, 64.82756042480469
0, 1, 18, 97.88558197021484
0, 1, 19, 403.8099670410156
0, 1, 20, 1042.8837890625
0, 1, 21, 1373.72216796875
0, 1, 22, 1479.678100585938
0, 1, 23, 1458.53173828125
0, 1, 24, 1449.929565429688
0, 1, 25, 1420.807861328125
0, 1, 26, 1476.951416015625
0, 1, 27, 1463.6845703125
0, 1, 28, 1487.938110351562
0, 1, 29, 1474.744384765625
0, 1, 30, 1506.739135742188
0, 1, 31, 1483.13916015625
0, 1, 32, 1417.371215820312
0, 1, 33, 1500.56982421875
0, 1, 34, 1499.923461914062
0, 1, 35, 1463.033813476562
0, 1, 36, 1488.991333007812
0, 1, 37, 1408.520874023438
0, 1, 38, 1397.905151367188
0, 1, 39, 1521.887329101562
0, 1, 40, 1459.151245117188
0, 1, 41, 1490.624267578125
0, 1, 42, 1495.725463867188
0, 1, 43, 1503.345825195312
0, 1, 44, 1446.183227539062
0, 1, 45, 1484.928100585938
0, 1, 46, 1417.869750976562
0, 1, 47, 1430.525634765625
0, 1, 48, 1428.003662109375
0, 1, 49, 1488.044189453125
0, 1, 50, 1446.282592773438
0, 1, 51, 1479.055419921875
0, 1, 52, 1472.614135742188
0, 1, 53, 1476.980346679688
0, 1, 54, 1511.751831054688
0, 1, 55, 1498.760864257812
0, 1, 56, 1472.160034179688
0, 1, 57, 1455.790161132812
0, 1, 58, 1427.700805664062
0, 1, 59, 1483.60009765625
0, 1, 60, 1463.103759765625
0, 1, 61, 1452.304077148438
0, 1, 62, 1455.091430664062
0, 1, 63, 1411.954956054688
0, 1, 64, 1479.662231445312
0, 1, 65, 1415.830078125
0, 1, 66, 1443.140625
0, 1, 67, 1453.57275390625
0, 1, 68, 1384.513793945312
0, 1, 69, 1463.275268554688
0, 1, 70, 1430.871215820312
0, 1, 71, 1500.423095703125
0, 1, 72, 1432.874633789062
0, 1, 73, 1490.842895507812
0, 1, 74, 1470.9990234375
0, 1, 75, 1477.723876953125
0, 1, 76, 1452.253784179688
0, 1, 77, 1461.500610351562
0, 1, 78, 1451.036499023438
0, 1, 79, 1502.207275390625
0, 1, 80, 1450.654296875
0, 1, 81, 1424.234985351562
0, 1, 82, 1473.546508789062
0, 1, 83, 1463.66943359375
0, 1, 84, 1535.0234375
0, 1, 85, 1449.33544921875
0, 1, 86, 1406.408325195312
0, 1, 87, 1422.294921875
0, 1, 88, 1477.197631835938
0, 1, 89, 1472.263061523438
0, 1, 90, 1424.373779296875
0, 1, 91, 1461.658935546875
0, 1, 92, 1415.562133789062
0, 1, 93, 1460.422729492188
0, 1, 94, 1463.021484375
0, 1, 95, 1422.28271484375
0, 1, 96, 1491.614135742188
0, 1, 97, 1517.961547851562
0, 1, 98, 1478.53857421875
0, 1, 99, 1415.5556640625
0, 1, 100, 1453.55908203125
0, 1, 101, 1416.610717773438
0, 1, 102, 1440.730224609375
0, 1, 103, 1410.468994140625
0, 1, 104, 1405.335815429688
0, 1, 105, 1458.45849609375
0, 1, 106, 1363.363891601562
0, 1, 107, 1021.757507324219
0, 1, 108, 407.8592834472656
0, 1, 109, 87.45214080810547
0, 1, 110, 63.11470794677734
0, 1, 111, 54.74274826049805
0, 1, 112, 50.34582138061523
0, 1, 113, 39.5766487121582
0, 1, 114, 37.04160690307617
0, 1, 115, 40.29254913330078
0, 1, 116, 37.81883239746094
0, 1, 117, 33.59428405761719
0, 1, 118, 41.6437873840332
0, 1, 119, 31.26786994934082
0, 1, 120, 31.51422691345215
0, 1, 121, 25.73720932006836
0, 1, 122, 28.31848526000977
0, 1, 123, 27.08359718322754
0, 1, 124, 33.5739860534668
0, 1, 125, 20.23576736450195
0, 1, 126, 19.27459907531738
0, 1, 127, 24.50906562805176
0, 2, 0, 18.59984970092773
0, 2, 1, 18.2617015838623
0, 2, 2, 25.29742050170898
0, 2, 3, 26.00290870666504
0, 2, 4, 21.98915863037109
0, 2, 5, 27.94841194152832
0, 2, 6, 23.60423851013184
0, 2, 7, 24.28456878662109
0, 2, 8, 31.31280136108398
0, 2, 9, 27.35476112365723
0, 2, 10, 28.59201240539551
0, 2, 11, 33.03872299194336
0, 2, 12, 40.08585357666016
0, 2, 13, 51.57034683227539
0, 2, 14, 45.55309295654297
0, 2, 15, 44.98433303833008
0, 2, 16, 62.85489273071289
0, 2, 17, 81.87155914306641
0, 2, 18, 143.6365661621094
0, 2, 19, 606.5121459960938
0, 2, 20, 1282.115600585938
0, 2, 21, 1430.893798828125
0, 2, 22, 1457.948608398438
0, 2, 23, 1403.39404296875
0, 2, 24, 1442.63134765625
0, 2, 25, 1524.03759765625
0, 2, 26, 1549.988891601562
0, 2, 27, 1452.215698242188
0, 2, 28, 1459.223876953125
0, 2, 29, 1462.350708007812
0, 2, 30, 1466.478393554688
0, 2, 31, 1531.983764648438
0, 2, 32, 1506.168579101562
0, 2, 33, 1445.172973632812
0, 2, 34, 1479.695678710938
0, 2, 35, 1476.249389648438
0, 2, 36, 1524.827392578125
0, 2, 37, 1539.59033203125
0, 2, 38, 1502.085571289062
0, 2, 39, 1468.552856445312
0, 2, 40, 1505.436889648438
0, 2, 41, 1516.14501953125
0, 2, 42, 1499.484375
0, 2, 43, 1550.427490234375
0, 2, 44, 1461.886474609375
0, 2, 45, 1483.91650390625
0, 2, 46, 1428.425415039062
0, 2, 47, 1450.949829101562
0, 2, 48, 1393.016845703125
0, 2, 49, 1468.739990234375
0, 2, 50, 1444.593872070312
0, 2, 51, 1454.406982421875
0, 2, 52, 1494.1923828125
0, 2, 53, 1522.4169921875
0, 2, 54, 1525.171020507812
0, 2, 55, 1494.8037109375
0, 2, 56, 1458.946655273438
0, 2, 57, 1415.879272460938
0, 2, 58, 1453.275024414062
0, 2, 59, 1444.357666015625
0, 2, 60, 1476.541015625
0, 2, 61, 1450.61083984375
0, 2, 62, 1473.4970703125
0, 2, 63, 1507.44384765625
0, 2, 64, 1457.933349609375
0, 2, 65, 1421.121826171875
0, 2, 66, 1489.004638671875
0, 2, 67, 1505.517822265625
0, 2, 68, 1539.80029296875
0, 2, 69, 1539.483764648438
0, 2, 70, 1504.40478515625
0, 2, 71, 1465.896118164062
0, 2, 72, 1517.772583007812
0, 2, 73, 1519.62060546875
0, 2, 74, 1488.581176757812
0, 2, 75, 1503.076782226562
0, 2, 76, 1454.946899414062
0, 2, 77, 1499.490356445312
0, 2, 78, 1428.833862304688
0, 2, 79, 1542.757568359375
0, 2, 80, 1481.083251953125
0, 2, 81, 1467.848754882812
0, 2, 82, 1556.792114257812
0, 2, 83, 1516.884643554688
0, 2, 84, 1490.315063476562
0, 2, 85, 1511.469848632812
0, 2, 86, 1537.827392578125
0, 2, 87, 1488.025268554688
0, 2, 88, 1542.528076171875
0, 2, 89, 1465.335327148438
0, 2, 90, 1432.201049804688
0, 2, 91, 1408.240112304688
0, 2, 92, 1473.669189453125
0, 2, 93, 1495.749145507812
0, 2, 94, 1452.995483398438
0, 2, 95, 1547.1455078125
0, 2, 96, 1520.917236328125
0, 2, 97, 1457.506103515625
0, 2, 98, 1466.300170898438
0, 2, 99, 1405.225219726562
0, 2, 100, 1476.518432617188
0, 2, 101, 1482.342651367188
0, 2, 102, 1465.7373046875
0, 2, 103, 1384.714111328125
0, 2, 104, 1405.6640625
0, 2, 105, 1393.6240234375
0, 2, 106, 1458.317016601562
0, 2, 107, 1272.459716796875
0, 2, 108, 622.63232421875
0, 2, 109, 169.6178436279297
0, 2, 110, 70.26912689208984
0, 2, 111, 62.91488647460938
0, 2, 112, 44.50910186767578
0, 2, 113, 45.93846893310547
0, 2, 114, 43.94116973876953
0, 2, 115, 39.29922103881836
0, 2, 116, 34.2065315246582
0, 2, 117, 33.07149124145508
0, 2, 118, 35.33973693847656
0, 2, 119, 32.65110015869141
0, 2, 120, 30.54459571838379
0, 2, 121, 21.32230377197266
0, 2, 122, 24.49482727050781
0, 2, 123, 21.99954986572266
0, 2, 124, 22.33123397827148
0, 2, 125, 34.84392547607422
0, 2, 126, 18.36895561218262
0, 2, 127, 17.87882423400879
0, 3, 0, 18.37925148010254
0, 3, 1, 20.79582977294922
0, 3, 2, 20.23830413818359
0, 3, 3, 20.54053497314453
0, 3, 4, 18.52050971984863
0, 3, 5, 29.13845062255859
0, 3, 6, 35.89269638061523
0, 3, 7, 29.88203620910645
0, 3, 8, 30.89529609680176
0, 3, 9, 35.3718376159668
0, 3, 10, 37.57259750366211
0, 3, 11, 30.69818305969238
0, 3, 12, 43.70612716674805
0, 3, 13, 53.99360275268555
0, 3, 14, 68.93975830078125
0, 3, 15, 55.74238204956055
0, 3, 16, 68.65361785888672
0, 3, 17, 89.15256500244141
0, 3, 18, 237.5080871582031
0, 3, 19, 883.34423828125
0, 3, 20, 1383.289916992188
0, 3, 21, 1503.795166015625
0, 3, 22, 1462.356323242188
0, 3, 23, 1451.359741210938
0, 3, 24, 1444.403564453125
0, 3, 25, 1466.648681640625
0, 3, 26, 1492.545776367188
0, 3, 27, 1466.961303710938
0, 3, 28, 1488.120971679688
0, 3, 29, 1540.55859375
0, 3, 30, 1574.246704101562
0, 3, 31, 1511.119018554688
0, 3, 32, 1548.773071289062
0, 3, 33, 1540.954833984375
0, 3, 34, 1487.3017578125
0, 3, 35, 1469.067138671875
0, 3, 36, 1453.621459960938
0, 3, 37, 1515.75732421875
0, 3, 38, 1514.274291992188
0, 3, 39, 1435.8662109375
0, 3, 40, 1443.447021484375
0, 3, 41, 1562.900512695312
0, 3, 42, 1467.83154296875
0, 3, 43, 1454.619384765625
0, 3, 44, 1452.44189453125
0, 3, 45, 1510.245727539062
0, 3, 46, 1509.9404296875
0, 3, 47, 1438.830322265625
0, 3, 48, 1509.112182617188
0, 3, 49, 1451.601684570312
0, 3, 50, 1497.329833984375
0, 3, 51, 1536.7607421875
0, 3, 52, 1534.021118164062
0, 3, 53, 1470.123291015625
0, 3, 54, 1541.1083984375
0, 3, 55, 1507.819702148438
0, 3, 56, 1438.161376953125
0, 3, 57, 1500.642700195312
0, 3, 58, 1511.360717773438
0, 3, 59, 1509.036499023438
0, 3, 60, 1531.821533203125
0, 3, 61, 1484.947631835938
0, 3, 62, 1490.215454101562
0, 3, 63, 1498.932861328125
0, 3, 64, 1502.011962890625
0, 3, 65, 1512.711303710938
0, 3, 66, 1554.29248046875
0, 3, 67, 1547.936889648438
0, 3, 68, 1448.895263671875
0, 3, 69, 1463.030639648438
0, 3, 70, 1385.863159179688
0, 3, 71, 1461.720581054688
0, 3, 72, 1552.098876953125
0, 3, 73, 1497.410766601562
0, 3, 74, 1464.571044921875
0, 3, 75, 1461.006469726562
0, 3, 76, 1571.863891601562
0, 3, 77, 1546.07177734375
0, 3, 78, 1430.662353515625
0, 3, 79, 1493.104736328125
0, 3, 80, 1463.074951171875
0, 3, 81, 1471.343383789062
0, 3, 82, 1555.886108398438
0, 3, 83, 1510.4951171875
0, 3, 84, 1561.381103515625
0, 3, 85, 1479.453002929688
0, 3, 86, 1526.280883789062
0, 3, 87, 1540.531982421875
0, 3, 88, 1455.4580078125
0, 3, 89, 1446.26220703125
0, 3, 90, 1451.617919921875
0, 3, 91, 1417.238159179688
0, 3, 92, 1513.437866210938
0, 3, 93, 1496.648681640625
0, 3, 94, 1514.766357421875
0, 3, 95, 1545.925170898438
0, 3, 96, 1514.8955078125
0, 3, 97, 1466.354614257812
0, 3, 98, 1435.495727539062
0, 3, 99, 1467.703491210938
0, 3, 100, 1468.6171875
0, 3, 101, 1473.123657226562
0, 3, 102, 1527.141235351562
0, 3, 103, 1554.65185546875
0, 3, 104, 1501.979614257812
0, 3, 105, 1515.717041015625
0, 3, 106, 1473.837036132812
0, 3, 107, 1337.884643554688
0, 3, 108, 872.6090087890625
0, 3, 109, 264.59765625
0, 3, 110, 102.4387435913086
0, 3, 111, 65.09769439697266
0, 3, 112, 59.96519470214844
0, 3, 113, 50.48949432373047
0, 3, 114, 50.57907104492188
0, 3, 115, 49.03097915649414
0, 3, 116, 39.26346206665039
0, 3, 117, 40.94244384765625
0, 3, 118, 30.1465950012207
0, 3, 119, 31.42783355712891
0, 3, 120, 33.23627090454102
0, 3, 121, 21.96355438232422
0, 3, 122, 25.6872673034668
0, 3, 123, 25.17538070678711
0, 3, 124, 23.17431449890137
0, 3, 125, 29.86052513122559
0, 3, 126, 25.51940155029297
0, 3, 127, 13.59122943878174
0, 4, 0, 23.52969932556152
0, 4, 1, 26.12074851989746
0, 4, 2, 23.91097068786621
0, 4, 3, 21.01625823974609
0, 4, 4, 25.6492977142334
0, 4, 5, 28.26482391357422
0, 4, 6, 30.47543334960938
0, 4, 7, 33.19789123535156
0, 4, 8, 27.86350631713867
0, 4, 9, 33.68182754516602
0, 4, 10, 27.38176536560059
0, 4, 11, 43.57872009277344
0, 4, 12, 48.88941192626953
0, 4, 13, 53.52835845947266
0, 4, 14, 52.36894226074219
0, 4, 15, 62.93278121948242
0, 4, 16, 74.21138763427734
0, 4, 17, 116.5322494506836
0, 4, 18, 447.1752319335938
0, 4, 19, 1183.400268554688
0, 4, 20, 1446.599853515625
0, 4, 21, 1426.125854492188
0, 4, 22, 1441.588500976562
0, 4, 23, 1453.522094726562
0, 4, 24, 1473.903930664062
0, 4, 25, 1406.117919921875
0, 4, 26, 1542.851196289062
0, 4, 27, 1546.149169921875
0, 4, 28, 1505.839599609375
0, 4, 29, 1516.370239257812
0, 4, 30, 1529.193603515625
0, 4, 31, 1570.16064453125
0, 4, 32, 1519.8896484375
0, 4, 33, 1495.375732421875
0, 4, 34, 1473.12548828125
0, 4, 35, 1557.269653320312
0, 4, 36, 1507.796142578125
0, 4, 37, 1511.281616210938
0, 4, 38, 1533.618286132812
0, 4, 39, 1472.897705078125
0, 4, 40, 1514.313110351562
0, 4, 41, 1587.060302734375
0, 4, 42, 1562.4619140625
0, 4, 43, 1472.269775390625
0, 4, 44, 1499.915893554688
0, 4, 45, 1518.411499023438
0, 4, 46, 1466.276611328125
0, 4, 47, 1501.484985351562
0, 4, 48, 1526.166015625
0, 4, 49, 1472.67236328125
0, 4, 50, 1518.516967773438
0, 4, 51, 1491.32568359375
0, 4, 52, 1495.917724609375
0, 4, 53, 1451.948974609375
0, 4, 54, 1443.074096679688
0, 4, 55, 1524.057006835938
0, 4, 56, 1452.800415039062
0, 4, 57, 1501.6630859375
0, 4, 58, 1462.502319335938
0, 4, 59, 1463.618774414062
0, 4, 60, 1523.05126953125
0, 4, 61, 1496.106323242188
0, 4, 62, 1505.302856445312
0, 4, 63, 1549.784545898438
0, 4, 64, 1587.304931640625
0, 4, 65, 1425.693725585938
0, 4, 66, 1510.335327148438
0, 4, 67, 1521.860473632812
0, 4, 68, 1498.074340820312
0, 4, 69, 1469.911499023438
0, 4, 70, 1542.657348632812
0, 4, 71, 1521.509155273438
0, 4, 72, 1525.29638671875
0, 4, 73, 1493.512084960938
0, 4, 74, 1484.521850585938
0, 4, 75, 1536.142456054688
0, 4, 76, 1478.906127929688
0, 4, 77, 1502.505493164062
0, 4, 78, 1501.27880859375
0, 4, 79, 1479.915161132812
0, 4, 80, 1513.085083007812
0, 4, 81, 1523.281127929688
0, 4, 82, 1566.55615234375
0, 4, 83, 1501.330200195312
0, 4, 84, 1534.5732421875
0, 4, 85, 1550.233520507812
0, 4, 86, 1526.684204101562
0, 4, 87, 1494.026245117188
0, 4, 88, 1509.156982421875
0, 4, 89, 1486.341552734375
0, 4, 90, 1542.018920898438
0, 4, 91, 1555.01025390625
0, 4, 92, 1496.755249023438
0, 4, 93, 1514.275268554688
0, 4, 94, 1480.735473632812
0, 4, 95, 1516.554077148438
0, 4, 96, 1447.717895507812
0, 4, 97, 1410.549682617188
0, 4, 98, 1552.918579101562
0, 4, 99, 1510.019653320312
0, 4, 100, 1494.0205078125
0, 4, 101, 1455.390625
0, 4, 102, 1449.264770507812
0, 4, 103, 1518.3642578125
0, 4, 104, 1505.654296875
0, 4, 105, 1555.314453125
0, 4, 106, 1475.562744140625
0, 4, 107, 1454.80224609375
0, 4, 108, 1121.223999023438
0, 4, 109, 434.0759887695312
0, 4, 110, 96.44288635253906
0, 4, 111, 67.85722351074219
0, 4, 112, 61.7964973449707
0, 4, 113, 49.13922882080078
0, 4, 114, 51.40530395507812
0, 4, 115, 37.03876495361328
0, 4, 116, 37.49191284179688
0, 4, 117, 39.34195327758789
0, 4, 118, 43.78780364990234
0, 4, 119, 41.17931365966797
0, 4, 120, 35.67995452880859
0, 4, 121, 30.79263305664062
0, 4, 122, 30.54899024963379
0, 4, 123, 28.94934272766113
0, 4, 124, 21.88489532470703
0, 4, 125, 34.06237411499023
0, 4, 126, 19.39604187011719
0, 4, 127, 12.03580856323242
0, 5, 0, 19.13613510131836
0, 5, 1, 26.39756011962891
0, 5, 2, 31.52778434753418
0, 5, 3, 23.12537956237793
0, 5, 4, 24.31134223937988
0, 5, 5, 33.21789932250977
0, 5, 6, 29.50864028930664
0, 5, 7, 29.58795547485352
0, 5, 8, 34.99865341186523
0, 5, 9, 28.92135620117188
0, 5, 10, 32.15254211425781
0, 5, 11, 34.92587661743164
0, 5, 12, 43.22464752197266
0, 5, 13, 46.64555358886719
0, 5, 14, 60.72305297851562
0, 5, 15, 78.26533508300781
0, 5, 16, 78.87401580810547
0, 5, 17, 156.3604278564453
0, 5, 18, 674.9442138671875
0, 5, 19, 1344.632690429688
0, 5, 20, 1522.784423828125
0, 5, 21, 1492.620971679688
0, 5, 22, 1499.8623046875
0, 5, 23, 1532.082763671875
0, 5, 24, 1468.478637695312
0, 5, 25, 1424.759155273438
0, 5, 26, 1527.11181640625
0, 5, 27, 1538.217651367188
0, 5, 28, 1482.40087890625
0, 5, 29, 1520.621337890625
0, 5, 30, 1492.487060546875
0, 5, 31, 1502.543334960938
0, 5, 32, 1592.118041992188
0, 5, 33, 1497.935546875
0, 5, 34, 1481.389404296875
0, 5, 35, 1509.569580078125
0, 5, 36, 1437.581420898438
0, 5, 37, 1528.741455078125
0, 5, 38, 1543.68603515625
0, 5, 39, 1547.426879882812
0, 5, 40, 1501.90673828125
0, 5, 41, 1484.01123046875
0, 5, 42, 1542.556030273438
0, 5, 43, 1531.912475585938
0, 5, 44, 1543.969848632812
0, 5, 45, 1509.734375
0, 5, 46, 1486.256713867188
0, 5, 47, 1478.459228515625
0, 5, 48, 1499.218017578125
0, 5, 49, 1520.476806640625
0, 5, 50, 1503.076416015625
0, 5, 51, 1517.737548828125
0, 5, 52, 1430.122314453125
0, 5, 53, 1518.330932617188
0, 5, 54, 1518.775756835938
0, 5, 55, 1527.016723632812
0, 5, 56, 1483.858642578125
0, 5, 57, 1536.88671875
0, 5, 58, 1511.738159179688
0, 5, 59, 1489.627075195312
0, 5, 60, 1538.7470703125
0, 5, 61, 1449.515014648438
0, 5, 62, 1583.010131835938
0, 5, 63, 1432.734497070312
0, 5, 64, 1486.97607421875
0, 5, 65, 1466.484497070312
0, 5, 66, 1523.967651367188
0, 5, 67, 1559.501220703125
0, 5, 68, 1460.966186523438
0, 5, 69, 1478.616577148438
0, 5, 70, 1488.378540039062
0, 5, 71, 1472.283935546875
0, 5, 72, 1543.229736328125
0, 5, 73, 1461.654907226562
0, 5, 74, 1491.484619140625
0, 5, 75, 1487.692138671875
0, 5, 76, 1480.679809570312
0, 5, 77, 1520.542846679688
0, 5, 78, 1529.0302734375
0, 5, 79, 1509.157104492188
0, 5, 80, 1523.008056640625
0, 5, 81, 1591.19140625
0, 5, 82, 1529.264038085938
0, 5, 83, 1492.203735351562
0, 5, 84, 1532.113159179688
0, 5, 85, 1512.3984375
0, 5, 86, 1550.907470703125
0, 5, 87, 1468.902587890625
0, 5, 88, 1498.012084960938
0, 5, 89, 1482.620727539062
0, 5, 90, 1484.366455078125
0, 5, 91, 1551.87548828125
0, 5, 92, 1481.83203125
0, 5, 93, 1563.027709960938
0, 5, 94, 1508.715087890625
0, 5, 95, 1560.802368164062
0, 5, 96, 1503.146606445312
0, 5, 97, 1511.8447265625
0, 5, 98, 1516.905395507812
0, 5, 99, 1542.137329101562
0, 5, 100, 1432.68115234375
0, 5, 101, 1432.668090820312
0, 5, 102, 1515.721923828125
0, 5, 103, 1471.911987304688
0, 5, 104, 1459.1455078125
0, 5, 105, 1494.758178710938
0, 5, 106, 1451.897705078125
0, 5, 107, 1402.8037109375
0, 5, 108, 1287.038208007812
0, 5, 109, 719.7382202148438
0, 5, 110, 190.14208984375
0, 5, 111, 90.03696441650391
0, 5, 112, 79.78617858886719
0, 5, 113, 66.33548736572266
0, 5, 114, 60.60226440429688
0, 5, 115, 52.49199676513672
0, 5, 116, 39.27802658081055
0, 5, 117, 38.72892761230469
0, 5, 118, 35.36819076538086
0, 5, 119, 26.41418075561523
0, 5, 120, 31.89081573486328
0, 5, 121, 25.98321151733398
0, 5, 122, 24.6704044342041
0, 5, 123, 23.29893684387207
0, 5, 124, 21.734619140625
0, 5, 125, 22.78073883056641
0, 5, 126, 20.14176559448242
0, 5, 127, 23.22735214233398
0, 6, 0, 21.88284111022949
0, 6, 1, 30.96974945068359
0, 6, 2, 27.83422470092773
0, 6, 3, 31.80150985717773
0, 6, 4, 24.7135181427002
0, 6, 5, 32.03518295288086
0, 6, 6, 33.8276481628418
0, 6, 7, 30.25067138671875
0, 6, 8, 35.43979644775391
0, 6, 9, 32.50662231445312
0, 6, 10, 37.19350433349609
0, 6, 11, 37.89298629760742
0, 6, 12, 39.19971084594727
0, 6, 13, 51.34054946899414
0, 6, 14, 64.60788726806641
0, 6, 15, 84.4759521484375
0, 6, 16, 105.575569152832
0, 6, 17, 298.5581970214844
0, 6, 18, 900.7279052734375
0, 6, 19, 1376.644165039062
0, 6, 20, 1436.85302734375
0, 6, 21, 1534.60986328125
0, 6, 22, 1502.825805664062
0, 6, 23, 1528.452270507812
0, 6, 24, 1480.17626953125
0, 6, 25, 1531.112548828125
0, 6, 26, 1509.657836914062
0, 6, 27, 1521.0419921875
0, 6, 28, 1553.638793945312
0, 6, 29, 1573.028564453125
0, 6, 30, 1516.753051757812
0, 6, 31, 1496.05908203125
0, 6, 32, 1525.103637695312
0, 6, 33, 1491.0126953125
0, 6, 34, 1559.074462890625
0, 6, 35, 1501.53466796875
0, 6, 36, 1438.79248046875
0, 6, 37, 1548.631713867188
0, 6, 38, 1520.095947265625
0, 6, 39, 1526.16357421875
0, 6, 40, 1458.210693359375
0, 6, 41, 1441.737548828125
0, 6, 42, 1517.251098632812
0, 6, 43, 1488.908569335938
0, 6, 44, 1436.700073242188
0, 6, 45, 1544.591918945312
0, 6, 46, 1556.993041992188
0, 6, 47, 1492.197265625
0, 6, 48, 1524.828857421875
0, 6, 49, 1514.680908203125
0, 6, 50, 1576.98388671875
0, 6, 51, 1505.055541992188
0, 6, 52, 1563.764404296875
0, 6, 53, 1471.217895507812
0, 6, 54, 1502.945190429688
0, 6, 55, 1574.062744140625
0, 6, 56, 1524.100341796875
0, 6, 57, 1507.000610351562
0, 6, 58, 1465.149047851562
0, 6, 59, 1522.029541015625
0, 6, 60, 1470.875610351562
0, 6, 61, 1571.237426757812
0, 6, 62, 1546.549560546875
0, 6, 63, 1500.689086914062
0, 6, 64, 1411.662719726562
0, 6, 65, 1490.029663085938
0, 6, 66, 1515.035034179688
0, 6, 67, 1513.851806640625
0, 6, 68, 1547.26806640625
0, 6, 69, 1486.485107421875
0, 6, 70, 1527.724365234375
0, 6, 71, 1472.48291015625
0, 6, 72, 1599.431274414062
0, 6, 73, 1488.421630859375
0, 6, 74, 1559.316650390625
0, 6, 75, 1537.199340820312
0, 6, 76, 1566.254028320312
0, 6, 77, 1504.50244140625
0, 6, 78, 1441.432495117188
0, 6, 79, 1555.118774414062
0, 6, 80, 1483.88232421875
0, 6, 81, 1482.009643554688
0, 6, 82, 1504.335327148438
0, 6, 83, 1525.121948242188
0, 6, 84, 1527.742553710938
0, 6, 85, 1536.955932617188
0, 6, 86, 1544.452514648438
0, 6, 87, 1575.247314453125
0, 6, 88, 1480.70263671875
0, 6, 89, 1561.353881835938
0, 6, 90, 1490.053833007812
0, 6, 91, 1545.78466796875
0, 6, 92, 1492.072998046875
0, 6, 93, 1498.932006835938
0, 6, 94, 1474.708618164062
0, 6, 95, 1509.1962890625
0, 6, 96, 1523.391357421875
0, 6, 97, 1497.984497070312
0, 6, 98, 1498.5869140625
0, 6, 99, 1476.377197265625
0, 6, 100, 1518.849853515625
0, 6, 101, 1518.8740234375
0, 6, 102, 1539.921142578125
0, 6, 103, 1498.77490234375
0, 6, 104, 1465.350952148438
0, 6, 105, 1483.585327148438
0, 6, 106, 1494.375854492188
0, 6, 107, 1505.339233398438
0, 6, 108, 1408.669799804688
0, 6, 109, 926.7556762695312
0, 6, 110, 282.5057983398438
0, 6, 111, 93.32369232177734
0, 6, 112, 77.24696350097656
0, 6, 113, 57.15146255493164
0, 6, 114, 55.73532485961914
0, 6, 115, 47.12483978271484
0, 6, 116, 42.16880035400391
0, 6, 117, 38.9110221862793
0, 6, 118, 42.64571380615234
0, 6, 119, 34.01728439331055
0, 6, 120, 29.91210174560547
0, 6, 121, 30.92319297790527
0, 6, 122, 28.69361877441406
0, 6, 123, 23.31170845031738
0, 6, 124, 31.75854682922363
0, 6, 125, 34.00148010253906
0, 6, 126, 20.18792152404785
0, 6, 127, 23.42615509033203
0, 7, 0, 22.92814254760742
0, 7, 1, 28.82870864868164
0, 7, 2, 22.18292808532715
0, 7, 3, 19.75583267211914
0, 7, 4, 22.12536430358887
0, 7, 5, 36.2371940612793
0, 7, 6, 26.48898887634277
0, 7, 7, 35.56969833374023
0, 7, 8, 29.94953155517578
0, 7, 9, 35.87485122680664
0, 7, 10, 40.39802932739258
0, 7, 11, 49.60006332397461
0, 7, 12, 45.74555969238281
0, 7, 13, 48.35612106323242
0, 7, 14, 60.16949081420898
0, 7, 15, 75.76496887207031
0, 7, 16, 133.3562316894531
0, 7, 17, 456.7236938476562
0, 7, 18, 1097.341918945312
0, 7, 19, 1499.856201171875
0, 7, 20, 1484.738403320312
0, 7, 21, 1364.79736328125
0, 7, 22, 1485.487915039062
0, 7, 23, 1453.578735351562
0, 7, 24, 1508.911865234375
0, 7, 25, 1595.856323242188
0, 7, 26, 1519.734008789062
0, 7, 27, 1510.475463867188
0, 7, 28, 1543.292724609375
0, 7, 29, 1574.2939453125
0, 7, 30, 1549.96875
0, 7, 31, 1436.976196289062
0, 7, 32, 1541.658569335938
0, 7, 33, 1491.34912109375
0, 7, 34, 1477.148559570312
0, 7, 35, 1526.592163085938
0, 7, 36, 1473.744384765625
0, 7, 37, 1598.341918945312
0, 7, 38, 1503.588745117188
0, 7, 39, 1491.630859375
0, 7, 40, 1546.864013671875
0, 7, 41, 1463.38720703125
0, 7, 42, 1483.765014648438
0, 7, 43, 1444.6669921875
0, 7, 44, 1487.656127929688
0, 7, 45, 1474.162475585938
0, 7, 46, 1515.4423828125
0, 7, 47, 1563.482788085938
0, 7, 48, 1520.857055664062
0, 7, 49, 1539.625732421875
0, 7, 50, 1513.85107421875
0, 7, 51, 1495.985717773438
0, 7, 52, 1518.9755859375
0, 7, 53, 1500.765258789062
0, 7, 54, 1584.27978515625
0, 7, 55, 1474.43408203125
0, 7, 56, 1550.646606445312
0, 7, 57, 1508.355224609375
0, 7, 58, 1548.811889648438
0, 7, 59, 1537.150512695312
0, 7, 60, 1547.877075195312
0, 7, 61, 1489.2880859375
0, 7, 62, 1439.7744140625
0, 7, 63, 1514.56982421875
0, 7, 64, 1554.156005859375
0, 7, 65, 1530.587646484375
0, 7, 66, 1536.804077148438
0, 7, 67, 1578.07080078125
0, 7, 68, 1532.779907226562
0, 7, 69, 1512.064086914062
0, 7, 70, 1492.484008789062
0, 7, 71, 1518.467529296875
0, 7, 72, 1520.590087890625
0, 7, 73, 1523.298217773438
0, 7, 74, 1570.5390625
0, 7, 75, 1539.142456054688
0, 7, 76, 1557.600830078125
0, 7, 77, 1511.704956054688
0, 7, 78, 1507.5322265625
0, 7, 79, 1428.289306640625
0, 7, 80, 1495.243286132812
0, 7, 81, 1494.295043945312
0, 7, 82, 1531.861450195312
0, 7, 83, 1547.103149414062
0, 7, 84, 1584.279541015625
0, 7, 85, 1478.344604492188
0, 7, 86, 1502.804931640625
0, 7, 87, 1503.04052734375
0, 7, 88, 1500.490844726562
0, 7, 89, 1552.031005859375
0, 7, 90, 1523.597534179688
0, 7, 91, 1565.466430664062
0, 7, 92, 1530.232543945312
0, 7, 93, 1555.516845703125
0, 7, 94, 1538.5283203125
0, 7, 95, 1501.597778320312
0, 7, 96, 1502.950927734375
0, 7, 97, 1435.346313476562
0, 7, 98, 1485.096923828125
0, 7, 99, 1521.407104492188
0, 7, 100, 1421.772216796875
0, 7, 101, 1468.691528320312
0, 7, 102, 1450.792602539062
0, 7, 103, 1428.757446289062
0, 7, 104, 1496.529052734375
0, 7, 105, 1524.944213867188
0, 7, 106, 1570.922241210938
0, 7, 107, 1481.5927734375
0, 7, 108, 1411.362548828125
0, 7, 109, 1151.282592773438
0, 7, 110, 474.6568298339844
0, 7, 111, 129.3375244140625
0, 7, 112, 83.10204315185547
0, 7, 113, 64.98844909667969
0, 7, 114, 55.14345550537109
0, 7, 115, 49.97934722900391
0, 7, 116, 49.64228820800781
0, 7, 117, 45.33582305908203
0, 7, 118, 36.66635131835938
0, 7, 119, 35.50009155273438
0, 7, 120, 19.46296119689941
0, 7, 121, 27.41737937927246
0, 7, 122, 31.9465274810791
0, 7, 123, 39.58099746704102
0, 7, 124, 30.98209381103516
0, 7, 125, 23.95947456359863
0, 7, 126, 27.80165672302246
0, 7, 127, 25.74453735351562
0, 8, 0, 19.98081970214844
0, 8, 1, 20.64756965637207
0, 8, 2, 27.61195373535156
0, 8, 3, 23.31111526489258
0, 8, 4, 21.70437431335449
0, 8, 5, 34.99569702148438
0, 8, 6, 29.74697303771973
0, 8, 7, 28.59907150268555
0, 8, 8, 36.52037811279297
0, 8, 9, 50.40294647216797
0, 8, 10, 37.39950942993164
0, 8, 11, 43.3399772644043
0, 8, 12, 58.19916534423828
0, 8, 13, 71.25140380859375
0, 8, 14, 71.34870147705078
0, 8, 15, 88.68738555908203
0, 8, 16, 171.843994140625
0, 8, 17, 675.4637451171875
0, 8, 18, 1279.990112304688
0, 8, 19, 1454.833618164062
0, 8, 20, 1421.993774414062
0, 8, 21, 1408.216552734375
0, 8, 22, 1486.88720703125
0, 8, 23, 1482.676147460938
0, 8, 24, 1434.205200195312
0, 8, 25, 1459.338256835938
0, 8, 26, 1516.004150390625
0, 8, 27, 1517.840576171875
0, 8, 28, 1475.199951171875
0, 8, 29, 1503.116088867188
0, 8, 30, 1486.47314453125
0, 8, 31, 1536.725830078125
0, 8, 32, 1511.472290039062
0, 8, 33, 1478.13427734375
0, 8, 34, 1531.143676757812
0, 8, 35, 1444.2548828125
0, 8, 36, 1494.743896484375
0, 8, 37, 1553.03369140625
0, 8, 38, 1552.937133789062
0, 8, 39, 1499.277465820312
0, 8, 40, 1532.2421875
0, 8, 41, 1478.52001953125
0, 8, 42, 1543.26416015625
0, 8, 43, 1435.581298828125
0, 8, 44, 1541.720825195312
0, 8, 45, 1512.975952148438
