# TOPAS Version: 3.1.p3
# Parameter File: batch_inserts_238.txt
# Results for scorer Readout_Adipose
# Scored in component: MyBox
# X in 1 bin  of 0.75 cm
# Y in 512 bins of 0.0783984 cm
# Z in 128 bins of 0.078125 cm
# EnergyDeposit ( MeV ) : Sum   
0, 0, 0, 18.15579223632812
0, 0, 1, 18.92769813537598
0, 0, 2, 22.06769180297852
0, 0, 3, 23.60760307312012
0, 0, 4, 18.51577949523926
0, 0, 5, 24.94396209716797
0, 0, 6, 21.59917259216309
0, 0, 7, 35.59936141967773
0, 0, 8, 25.12040519714355
0, 0, 9, 22.77185249328613
0, 0, 10, 21.63198661804199
0, 0, 11, 25.63193893432617
0, 0, 12, 33.37080001831055
0, 0, 13, 30.9671459197998
0, 0, 14, 36.83539581298828
0, 0, 15, 53.09711837768555
0, 0, 16, 46.92795181274414
0, 0, 17, 46.28608322143555
0, 0, 18, 75.4478759765625
0, 0, 19, 192.2396087646484
0, 0, 20, 702.38134765625
0, 0, 21, 1194.329467773438
0, 0, 22, 1252.183837890625
0, 0, 23, 1274.659423828125
0, 0, 24, 1283.582275390625
0, 0, 25, 1356.729736328125
0, 0, 26, 1273.121704101562
0, 0, 27, 1279.807250976562
0, 0, 28, 1323.360595703125
0, 0, 29, 1270.388061523438
0, 0, 30, 1260.588989257812
0, 0, 31, 1284.920043945312
0, 0, 32, 1264.36962890625
0, 0, 33, 1239.95947265625
0, 0, 34, 1325.738891601562
0, 0, 35, 1304.393188476562
0, 0, 36, 1248.879150390625
0, 0, 37, 1282.422607421875
0, 0, 38, 1247.149658203125
0, 0, 39, 1245.695434570312
0, 0, 40, 1223.177368164062
0, 0, 41, 1272.440185546875
0, 0, 42, 1251.759765625
0, 0, 43, 1268.20947265625
0, 0, 44, 1225.90234375
0, 0, 45, 1289.388671875
0, 0, 46, 1265.713623046875
0, 0, 47, 1237.723022460938
0, 0, 48, 1275.752319335938
0, 0, 49, 1284.921264648438
0, 0, 50, 1309.301513671875
0, 0, 51, 1267.369995117188
0, 0, 52, 1357.223510742188
0, 0, 53, 1324.177001953125
0, 0, 54, 1300.907836914062
0, 0, 55, 1236.137939453125
0, 0, 56, 1319.294067382812
0, 0, 57, 1293.346557617188
0, 0, 58, 1254.385986328125
0, 0, 59, 1333.786254882812
0, 0, 60, 1325.544677734375
0, 0, 61, 1262.32177734375
0, 0, 62, 1239.625610351562
0, 0, 63, 1281.179321289062
0, 0, 64, 1330.532348632812
0, 0, 65, 1284.921020507812
0, 0, 66, 1318.374877929688
0, 0, 67, 1218.778076171875
0, 0, 68, 1310.770629882812
0, 0, 69, 1327.11962890625
0, 0, 70, 1343.4248046875
0, 0, 71, 1288.069946289062
0, 0, 72, 1312.073120117188
0, 0, 73, 1240.47802734375
0, 0, 74, 1292.947143554688
0, 0, 75, 1301.328491210938
0, 0, 76, 1260.4248046875
0, 0, 77, 1287.387573242188
0, 0, 78, 1317.233032226562
0, 0, 79, 1326.902709960938
0, 0, 80, 1263.977661132812
0, 0, 81, 1321.723754882812
0, 0, 82, 1285.315673828125
0, 0, 83, 1289.499633789062
0, 0, 84, 1328.9111328125
0, 0, 85, 1233.756469726562
0, 0, 86, 1263.115234375
0, 0, 87, 1248.967529296875
0, 0, 88, 1253.192016601562
0, 0, 89, 1334.842041015625
0, 0, 90, 1274.803588867188
0, 0, 91, 1354.070678710938
0, 0, 92, 1303.272216796875
0, 0, 93, 1272.739868164062
0, 0, 94, 1245.305419921875
0, 0, 95, 1325.183471679688
0, 0, 96, 1286.20068359375
0, 0, 97, 1324.945190429688
0, 0, 98, 1252.189819335938
0, 0, 99, 1248.677734375
0, 0, 100, 1291.83642578125
0, 0, 101, 1312.27197265625
0, 0, 102, 1233.920166015625
0, 0, 103, 1319.784301757812
0, 0, 104, 1266.644653320312
0, 0, 105, 1268.244018554688
0, 0, 106, 1206.429809570312
0, 0, 107, 783.466064453125
0, 0, 108, 194.6269226074219
0, 0, 109, 65.67900085449219
0, 0, 110, 61.79826736450195
0, 0, 111, 39.33297729492188
0, 0, 112, 36.44606399536133
0, 0, 113, 34.01912689208984
0, 0, 114, 34.27401733398438
0, 0, 115, 39.04073715209961
0, 0, 116, 27.50946044921875
0, 0, 117, 29.50143051147461
0, 0, 118, 26.53722953796387
0, 0, 119, 23.47779655456543
0, 0, 120, 23.58006477355957
0, 0, 121, 27.80412292480469
0, 0, 122, 24.05852508544922
0, 0, 123, 22.46892929077148
0, 0, 124, 24.47857284545898
0, 0, 125, 18.16753578186035
0, 0, 126, 24.00761413574219
0, 0, 127, 19.54380798339844
0, 1, 0, 24.40934944152832
0, 1, 1, 26.3134708404541
0, 1, 2, 24.32024002075195
0, 1, 3, 20.33800506591797
0, 1, 4, 23.32385635375977
0, 1, 5, 32.75751113891602
0, 1, 6, 27.18246841430664
0, 1, 7, 28.24772834777832
0, 1, 8, 38.271484375
0, 1, 9, 30.73620414733887
0, 1, 10, 34.31575775146484
0, 1, 11, 43.26284027099609
0, 1, 12, 38.8485221862793
0, 1, 13, 40.00912094116211
0, 1, 14, 37.74724197387695
0, 1, 15, 47.62633514404297
0, 1, 16, 59.30221176147461
0, 1, 17, 58.47322845458984
0, 1, 18, 99.22161865234375
0, 1, 19, 401.2505187988281
0, 1, 20, 1045.312255859375
0, 1, 21, 1375.069213867188
0, 1, 22, 1476.902099609375
0, 1, 23, 1461.236328125
0, 1, 24, 1448.77880859375
0, 1, 25, 1419.985107421875
0, 1, 26, 1469.674682617188
0, 1, 27, 1466.6015625
0, 1, 28, 1491.25390625
0, 1, 29, 1475.226928710938
0, 1, 30, 1506.568481445312
0, 1, 31, 1484.736206054688
0, 1, 32, 1407.545166015625
0, 1, 33, 1498.678588867188
0, 1, 34, 1497.351440429688
0, 1, 35, 1464.3583984375
0, 1, 36, 1486.584594726562
0, 1, 37, 1410.722045898438
0, 1, 38, 1393.311279296875
0, 1, 39, 1526.277221679688
0, 1, 40, 1460.485107421875
0, 1, 41, 1490.29638671875
0, 1, 42, 1496.460205078125
0, 1, 43, 1504.057861328125
0, 1, 44, 1452.9736328125
0, 1, 45, 1486.301025390625
0, 1, 46, 1421.035522460938
0, 1, 47, 1432.593383789062
0, 1, 48, 1431.278686523438
0, 1, 49, 1485.812744140625
0, 1, 50, 1445.908935546875
0, 1, 51, 1471.563354492188
0, 1, 52, 1477.349487304688
0, 1, 53, 1475.755859375
0, 1, 54, 1508.408935546875
0, 1, 55, 1493.474487304688
0, 1, 56, 1475.787109375
0, 1, 57, 1453.53955078125
0, 1, 58, 1431.052612304688
0, 1, 59, 1481.295288085938
0, 1, 60, 1463.984375
0, 1, 61, 1452.062866210938
0, 1, 62, 1460.584594726562
0, 1, 63, 1415.16015625
0, 1, 64, 1475.487426757812
0, 1, 65, 1416.322143554688
0, 1, 66, 1442.641235351562
0, 1, 67, 1455.387451171875
0, 1, 68, 1390.12548828125
0, 1, 69, 1461.360595703125
0, 1, 70, 1433.15380859375
0, 1, 71, 1496.25048828125
0, 1, 72, 1433.640869140625
0, 1, 73, 1492.89306640625
0, 1, 74, 1467.86962890625
0, 1, 75, 1473.976318359375
0, 1, 76, 1458.383422851562
0, 1, 77, 1463.396240234375
0, 1, 78, 1448.934692382812
0, 1, 79, 1498.863525390625
0, 1, 80, 1452.375854492188
0, 1, 81, 1424.954711914062
0, 1, 82, 1473.464721679688
0, 1, 83, 1464.786987304688
0, 1, 84, 1536.323974609375
0, 1, 85, 1448.845947265625
0, 1, 86, 1410.45068359375
0, 1, 87, 1419.636962890625
0, 1, 88, 1473.370727539062
0, 1, 89, 1468.070068359375
0, 1, 90, 1426.231689453125
0, 1, 91, 1470.52490234375
0, 1, 92, 1407.933715820312
0, 1, 93, 1460.618530273438
0, 1, 94, 1467.581909179688
0, 1, 95, 1421.500366210938
0, 1, 96, 1500.586181640625
0, 1, 97, 1515.982666015625
0, 1, 98, 1476.694091796875
0, 1, 99, 1419.932495117188
0, 1, 100, 1448.139038085938
0, 1, 101, 1415.009399414062
0, 1, 102, 1438.91259765625
0, 1, 103, 1412.33203125
0, 1, 104, 1408.95263671875
0, 1, 105, 1465.069580078125
0, 1, 106, 1369.111694335938
0, 1, 107, 1017.063659667969
0, 1, 108, 402.9415283203125
0, 1, 109, 92.18710327148438
0, 1, 110, 66.86988067626953
0, 1, 111, 54.10431671142578
0, 1, 112, 43.85993194580078
0, 1, 113, 39.31752395629883
0, 1, 114, 30.76194000244141
0, 1, 115, 35.75456619262695
0, 1, 116, 38.35715866088867
0, 1, 117, 34.14371871948242
0, 1, 118, 38.48346328735352
0, 1, 119, 30.42926979064941
0, 1, 120, 30.53325843811035
0, 1, 121, 28.31252670288086
0, 1, 122, 22.1019115447998
0, 1, 123, 25.75923538208008
0, 1, 124, 30.61091804504395
0, 1, 125, 18.98456001281738
0, 1, 126, 15.57283592224121
0, 1, 127, 20.60835266113281
0, 2, 0, 17.43997192382812
0, 2, 1, 21.97551918029785
0, 2, 2, 29.29007339477539
0, 2, 3, 32.10944747924805
0, 2, 4, 24.31981468200684
0, 2, 5, 23.19841957092285
0, 2, 6, 22.2336483001709
0, 2, 7, 25.28758239746094
0, 2, 8, 26.56520652770996
0, 2, 9, 27.22233963012695
0, 2, 10, 31.58143043518066
0, 2, 11, 33.77378845214844
0, 2, 12, 42.28483200073242
0, 2, 13, 44.39177322387695
0, 2, 14, 45.45746994018555
0, 2, 15, 45.1572265625
0, 2, 16, 61.79615783691406
0, 2, 17, 75.85259246826172
0, 2, 18, 147.2929534912109
0, 2, 19, 603.8212890625
0, 2, 20, 1284.775756835938
0, 2, 21, 1440.62744140625
0, 2, 22, 1456.307250976562
0, 2, 23, 1407.080932617188
0, 2, 24, 1442.201293945312
0, 2, 25, 1524.85595703125
0, 2, 26, 1551.445678710938
0, 2, 27, 1453.921508789062
0, 2, 28, 1457.735717773438
0, 2, 29, 1462.565063476562
0, 2, 30, 1463.286376953125
0, 2, 31, 1538.297973632812
0, 2, 32, 1504.7001953125
0, 2, 33, 1444.388916015625
0, 2, 34, 1478.655395507812
0, 2, 35, 1467.168212890625
0, 2, 36, 1522.85888671875
0, 2, 37, 1539.720458984375
0, 2, 38, 1504.111572265625
0, 2, 39, 1464.53369140625
0, 2, 40, 1502.80615234375
0, 2, 41, 1518.0546875
0, 2, 42, 1502.541015625
0, 2, 43, 1547.182739257812
0, 2, 44, 1459.420532226562
0, 2, 45, 1482.2451171875
0, 2, 46, 1421.09423828125
0, 2, 47, 1447.83984375
0, 2, 48, 1398.561645507812
0, 2, 49, 1462.5625
0, 2, 50, 1445.637817382812
0, 2, 51, 1444.350952148438
0, 2, 52, 1498.707763671875
0, 2, 53, 1525.717529296875
0, 2, 54, 1525.459350585938
0, 2, 55, 1492.1865234375
0, 2, 56, 1460.973510742188
0, 2, 57, 1413.01513671875
0, 2, 58, 1459.763916015625
0, 2, 59, 1452.446533203125
0, 2, 60, 1472.472412109375
0, 2, 61, 1446.312866210938
0, 2, 62, 1471.54296875
0, 2, 63, 1510.511108398438
0, 2, 64, 1457.276977539062
0, 2, 65, 1427.544677734375
0, 2, 66, 1490.6201171875
0, 2, 67, 1504.377319335938
0, 2, 68, 1543.963623046875
0, 2, 69, 1543.216918945312
0, 2, 70, 1502.116943359375
0, 2, 71, 1463.50341796875
0, 2, 72, 1514.78369140625
0, 2, 73, 1524.41455078125
0, 2, 74, 1490.996215820312
0, 2, 75, 1505.7724609375
0, 2, 76, 1447.83251953125
0, 2, 77, 1505.157836914062
0, 2, 78, 1434.171875
0, 2, 79, 1540.25439453125
0, 2, 80, 1482.3701171875
0, 2, 81, 1468.976318359375
0, 2, 82, 1559.524536132812
0, 2, 83, 1512.651977539062
0, 2, 84, 1490.363037109375
0, 2, 85, 1514.694946289062
0, 2, 86, 1540.53955078125
0, 2, 87, 1482.781494140625
0, 2, 88, 1540.814086914062
0, 2, 89, 1464.198486328125
0, 2, 90, 1432.22265625
0, 2, 91, 1406.120483398438
0, 2, 92, 1475.455932617188
0, 2, 93, 1494.0576171875
0, 2, 94, 1449.60888671875
0, 2, 95, 1542.94189453125
0, 2, 96, 1514.218872070312
0, 2, 97, 1463.771118164062
0, 2, 98, 1466.10888671875
0, 2, 99, 1401.83740234375
0, 2, 100, 1471.428344726562
0, 2, 101, 1477.851318359375
0, 2, 102, 1461.316772460938
0, 2, 103, 1388.800903320312
0, 2, 104, 1408.260009765625
0, 2, 105, 1393.782592773438
0, 2, 106, 1455.284790039062
0, 2, 107, 1273.95068359375
0, 2, 108, 621.747802734375
0, 2, 109, 170.3453674316406
0, 2, 110, 68.97853851318359
0, 2, 111, 63.50262451171875
0, 2, 112, 43.66427612304688
0, 2, 113, 44.3023796081543
0, 2, 114, 38.66619110107422
0, 2, 115, 41.4599609375
0, 2, 116, 33.07823944091797
0, 2, 117, 37.14228057861328
0, 2, 118, 29.56753921508789
0, 2, 119, 30.68857192993164
0, 2, 120, 26.71110916137695
0, 2, 121, 17.89880752563477
0, 2, 122, 28.53150749206543
0, 2, 123, 20.19104194641113
0, 2, 124, 26.53143119812012
0, 2, 125, 34.57470703125
0, 2, 126, 18.7855052947998
0, 2, 127, 23.30006790161133
0, 3, 0, 18.67907905578613
0, 3, 1, 22.89151000976562
0, 3, 2, 25.23081970214844
0, 3, 3, 20.13116455078125
0, 3, 4, 16.16121292114258
0, 3, 5, 27.04109191894531
0, 3, 6, 30.88472557067871
0, 3, 7, 29.93020439147949
0, 3, 8, 30.22706413269043
0, 3, 9, 31.65998268127441
0, 3, 10, 32.86368560791016
0, 3, 11, 36.1738166809082
0, 3, 12, 45.96401977539062
0, 3, 13, 53.33173370361328
0, 3, 14, 57.61592483520508
0, 3, 15, 56.66684341430664
0, 3, 16, 66.83407592773438
0, 3, 17, 89.2564697265625
0, 3, 18, 238.0564422607422
0, 3, 19, 877.6043701171875
0, 3, 20, 1387.788818359375
0, 3, 21, 1506.73486328125
0, 3, 22, 1459.94580078125
0, 3, 23, 1452.351196289062
0, 3, 24, 1450.15966796875
0, 3, 25, 1465.360229492188
0, 3, 26, 1498.585327148438
0, 3, 27, 1466.871704101562
0, 3, 28, 1493.518310546875
0, 3, 29, 1545.394775390625
0, 3, 30, 1569.782836914062
0, 3, 31, 1516.093383789062
0, 3, 32, 1549.145263671875
0, 3, 33, 1538.654052734375
0, 3, 34, 1490.413818359375
0, 3, 35, 1462.816284179688
0, 3, 36, 1451.747436523438
0, 3, 37, 1518.927978515625
0, 3, 38, 1514.51611328125
0, 3, 39, 1441.6142578125
0, 3, 40, 1441.18359375
0, 3, 41, 1564.442993164062
0, 3, 42, 1458.638305664062
0, 3, 43, 1451.5712890625
0, 3, 44, 1451.507690429688
0, 3, 45, 1507.015625
0, 3, 46, 1509.3642578125
0, 3, 47, 1444.949340820312
0, 3, 48, 1506.393188476562
0, 3, 49, 1450.619384765625
0, 3, 50, 1487.768432617188
0, 3, 51, 1532.958618164062
0, 3, 52, 1535.203979492188
0, 3, 53, 1464.803100585938
0, 3, 54, 1538.356689453125
0, 3, 55, 1504.186157226562
0, 3, 56, 1433.87158203125
0, 3, 57, 1500.652954101562
0, 3, 58, 1511.582275390625
0, 3, 59, 1512.29638671875
0, 3, 60, 1534.729858398438
0, 3, 61, 1481.197998046875
0, 3, 62, 1494.0888671875
0, 3, 63, 1491.961547851562
0, 3, 64, 1501.272216796875
0, 3, 65, 1514.66162109375
0, 3, 66, 1555.199340820312
0, 3, 67, 1545.496826171875
0, 3, 68, 1450.872314453125
0, 3, 69, 1464.364868164062
0, 3, 70, 1390.673828125
0, 3, 71, 1463.761596679688
0, 3, 72, 1545.883178710938
0, 3, 73, 1499.063598632812
0, 3, 74, 1462.250122070312
0, 3, 75, 1461.290283203125
0, 3, 76, 1574.023071289062
0, 3, 77, 1540.355712890625
0, 3, 78, 1429.14453125
0, 3, 79, 1495.38916015625
0, 3, 80, 1461.13232421875
0, 3, 81, 1475.973266601562
0, 3, 82, 1558.694946289062
0, 3, 83, 1517.47021484375
0, 3, 84, 1558.031494140625
0, 3, 85, 1479.455444335938
0, 3, 86, 1522.073974609375
0, 3, 87, 1538.181518554688
0, 3, 88, 1457.344970703125
0, 3, 89, 1447.877807617188
0, 3, 90, 1452.255859375
0, 3, 91, 1417.789916992188
0, 3, 92, 1514.053833007812
0, 3, 93, 1500.007446289062
0, 3, 94, 1515.631103515625
0, 3, 95, 1542.987670898438
0, 3, 96, 1515.082275390625
0, 3, 97, 1463.525512695312
0, 3, 98, 1432.933227539062
0, 3, 99, 1467.044067382812
0, 3, 100, 1468.498779296875
0, 3, 101, 1476.32861328125
0, 3, 102, 1522.545166015625
0, 3, 103, 1550.364990234375
0, 3, 104, 1500.341430664062
0, 3, 105, 1517.957275390625
0, 3, 106, 1479.126586914062
0, 3, 107, 1344.64404296875
0, 3, 108, 874.6953125
0, 3, 109, 267.6425170898438
0, 3, 110, 99.82000732421875
0, 3, 111, 64.35630035400391
0, 3, 112, 59.40061187744141
0, 3, 113, 48.82585906982422
0, 3, 114, 50.10733032226562
0, 3, 115, 48.48070526123047
0, 3, 116, 39.45578384399414
0, 3, 117, 42.09212493896484
0, 3, 118, 34.40837860107422
0, 3, 119, 33.17695999145508
0, 3, 120, 33.95730590820312
0, 3, 121, 17.53910827636719
0, 3, 122, 25.75903129577637
0, 3, 123, 26.45807075500488
0, 3, 124, 20.07768440246582
0, 3, 125, 28.40094566345215
0, 3, 126, 22.91261100769043
0, 3, 127, 17.81215286254883
0, 4, 0, 19.10377883911133
0, 4, 1, 26.01895713806152
0, 4, 2, 20.37432861328125
0, 4, 3, 23.42594528198242
0, 4, 4, 26.59910011291504
0, 4, 5, 29.24614334106445
0, 4, 6, 27.51212310791016
0, 4, 7, 28.57510375976562
0, 4, 8, 24.50488090515137
0, 4, 9, 37.9111442565918
0, 4, 10, 33.16411209106445
0, 4, 11, 37.19804763793945
0, 4, 12, 45.57451629638672
0, 4, 13, 51.31900787353516
0, 4, 14, 49.82306671142578
0, 4, 15, 63.0251579284668
0, 4, 16, 79.33975219726562
0, 4, 17, 114.6926574707031
0, 4, 18, 451.6616516113281
0, 4, 19, 1183.451171875
0, 4, 20, 1445.8876953125
0, 4, 21, 1417.99609375
0, 4, 22, 1431.957885742188
0, 4, 23, 1456.022583007812
0, 4, 24, 1473.547729492188
0, 4, 25, 1404.924926757812
0, 4, 26, 1538.950561523438
0, 4, 27, 1550.313110351562
0, 4, 28, 1505.955322265625
0, 4, 29, 1519.762817382812
0, 4, 30, 1527.192626953125
0, 4, 31, 1574.653564453125
0, 4, 32, 1512.01416015625
0, 4, 33, 1496.118286132812
0, 4, 34, 1473.782836914062
0, 4, 35, 1555.322021484375
0, 4, 36, 1507.260009765625
0, 4, 37, 1512.3193359375
0, 4, 38, 1530.432495117188
0, 4, 39, 1469.4091796875
0, 4, 40, 1517.641357421875
0, 4, 41, 1587.08984375
0, 4, 42, 1561.95361328125
0, 4, 43, 1475.481567382812
0, 4, 44, 1503.42919921875
0, 4, 45, 1521.132568359375
0, 4, 46, 1470.648803710938
0, 4, 47, 1498.774291992188
0, 4, 48, 1527.000732421875
0, 4, 49, 1479.123657226562
0, 4, 50, 1517.46826171875
0, 4, 51, 1496.7060546875
0, 4, 52, 1495.386962890625
0, 4, 53, 1450.959228515625
0, 4, 54, 1442.153198242188
0, 4, 55, 1526.078857421875
0, 4, 56, 1458.270751953125
0, 4, 57, 1502.8837890625
0, 4, 58, 1460.470947265625
0, 4, 59, 1469.21435546875
0, 4, 60, 1525.88818359375
0, 4, 61, 1502.223510742188
0, 4, 62, 1505.518432617188
0, 4, 63, 1550.202514648438
0, 4, 64, 1594.2265625
0, 4, 65, 1428.99560546875
0, 4, 66, 1512.226318359375
0, 4, 67, 1519.639770507812
0, 4, 68, 1499.28466796875
0, 4, 69, 1464.907104492188
0, 4, 70, 1546.350463867188
0, 4, 71, 1517.773803710938
0, 4, 72, 1525.239379882812
0, 4, 73, 1493.236938476562
0, 4, 74, 1487.012817382812
0, 4, 75, 1532.321655273438
0, 4, 76, 1481.13671875
0, 4, 77, 1499.513427734375
0, 4, 78, 1500.347045898438
0, 4, 79, 1481.534790039062
0, 4, 80, 1516.896728515625
0, 4, 81, 1523.078735351562
0, 4, 82, 1569.607299804688
0, 4, 83, 1502.818969726562
0, 4, 84, 1533.90234375
0, 4, 85, 1552.29541015625
0, 4, 86, 1526.97705078125
0, 4, 87, 1491.13720703125
0, 4, 88, 1511.380859375
0, 4, 89, 1479.468383789062
0, 4, 90, 1543.985595703125
0, 4, 91, 1551.818725585938
0, 4, 92, 1489.827758789062
0, 4, 93, 1510.706665039062
0, 4, 94, 1481.809448242188
0, 4, 95, 1506.817138671875
0, 4, 96, 1445.284912109375
0, 4, 97, 1408.336181640625
0, 4, 98, 1551.941040039062
0, 4, 99, 1513.246704101562
0, 4, 100, 1489.826904296875
0, 4, 101, 1445.452392578125
0, 4, 102, 1445.376953125
0, 4, 103, 1513.908935546875
0, 4, 104, 1509.8056640625
0, 4, 105, 1555.183471679688
0, 4, 106, 1479.82177734375
0, 4, 107, 1460.329833984375
0, 4, 108, 1120.50537109375
0, 4, 109, 432.4657592773438
0, 4, 110, 100.1905670166016
0, 4, 111, 67.26540374755859
0, 4, 112, 65.96477508544922
0, 4, 113, 51.12578964233398
0, 4, 114, 53.43453979492188
0, 4, 115, 42.49231338500977
0, 4, 116, 38.10258865356445
0, 4, 117, 43.33078384399414
0, 4, 118, 51.36779022216797
0, 4, 119, 41.15166854858398
0, 4, 120, 35.47654724121094
0, 4, 121, 26.51235580444336
0, 4, 122, 26.68887710571289
0, 4, 123, 28.51290512084961
0, 4, 124, 22.08258247375488
0, 4, 125, 30.32719039916992
0, 4, 126, 27.87960243225098
0, 4, 127, 20.45402908325195
0, 5, 0, 24.45713996887207
0, 5, 1, 28.54141235351562
0, 5, 2, 28.60341835021973
0, 5, 3, 25.20643043518066
0, 5, 4, 21.77816581726074
0, 5, 5, 34.58110809326172
0, 5, 6, 36.97721862792969
0, 5, 7, 27.05148506164551
0, 5, 8, 35.63630676269531
0, 5, 9, 35.37129974365234
0, 5, 10, 31.09116363525391
0, 5, 11, 39.2691535949707
0, 5, 12, 40.10634231567383
0, 5, 13, 43.40292358398438
0, 5, 14, 62.35416793823242
0, 5, 15, 77.41849517822266
0, 5, 16, 76.868408203125
0, 5, 17, 160.9135589599609
0, 5, 18, 676.3590087890625
0, 5, 19, 1345.247436523438
0, 5, 20, 1526.34375
0, 5, 21, 1496.75341796875
0, 5, 22, 1497.912841796875
0, 5, 23, 1527.428588867188
0, 5, 24, 1468.61669921875
0, 5, 25, 1427.1591796875
0, 5, 26, 1526.826782226562
0, 5, 27, 1541.370483398438
0, 5, 28, 1487.103759765625
0, 5, 29, 1524.833374023438
0, 5, 30, 1491.850952148438
0, 5, 31, 1495.539428710938
0, 5, 32, 1592.26025390625
0, 5, 33, 1502.244018554688
0, 5, 34, 1486.061279296875
0, 5, 35, 1513.412109375
0, 5, 36, 1443.409301757812
0, 5, 37, 1531.981689453125
0, 5, 38, 1546.492431640625
0, 5, 39, 1549.565185546875
0, 5, 40, 1500.791259765625
0, 5, 41, 1476.098999023438
0, 5, 42, 1541.108154296875
0, 5, 43, 1531.52587890625
0, 5, 44, 1545.791259765625
0, 5, 45, 1510.122192382812
0, 5, 46, 1489.7314453125
0, 5, 47, 1486.227783203125
0, 5, 48, 1503.978637695312
0, 5, 49, 1525.545654296875
0, 5, 50, 1501.726928710938
0, 5, 51, 1521.75341796875
0, 5, 52, 1429.62841796875
0, 5, 53, 1520.028564453125
0, 5, 54, 1514.818115234375
0, 5, 55, 1518.066650390625
0, 5, 56, 1484.18603515625
0, 5, 57, 1539.325927734375
0, 5, 58, 1509.323608398438
0, 5, 59, 1488.591064453125
0, 5, 60, 1535.587158203125
0, 5, 61, 1453.33349609375
0, 5, 62, 1586.205078125
0, 5, 63, 1433.686889648438
0, 5, 64, 1488.927001953125
0, 5, 65, 1476.699584960938
0, 5, 66, 1529.995727539062
0, 5, 67, 1559.287353515625
0, 5, 68, 1467.352294921875
0, 5, 69, 1489.378051757812
0, 5, 70, 1483.8251953125
0, 5, 71, 1472.91162109375
0, 5, 72, 1538.941162109375
0, 5, 73, 1458.200439453125
0, 5, 74, 1498.725463867188
0, 5, 75, 1490.647583007812
0, 5, 76, 1478.03173828125
0, 5, 77, 1517.491577148438
0, 5, 78, 1527.841064453125
0, 5, 79, 1504.156616210938
0, 5, 80, 1521.619506835938
0, 5, 81, 1591.462280273438
0, 5, 82, 1525.680297851562
0, 5, 83, 1493.45654296875
0, 5, 84, 1538.834106445312
0, 5, 85, 1515.801391601562
0, 5, 86, 1554.972412109375
0, 5, 87, 1473.318481445312
0, 5, 88, 1495.612548828125
0, 5, 89, 1479.94580078125
0, 5, 90, 1485.7001953125
0, 5, 91, 1552.490600585938
0, 5, 92, 1477.4091796875
0, 5, 93, 1557.690551757812
0, 5, 94, 1515.833374023438
0, 5, 95, 1562.8974609375
0, 5, 96, 1494.181640625
0, 5, 97, 1513.4970703125
0, 5, 98, 1504.875610351562
0, 5, 99, 1542.955810546875
0, 5, 100, 1435.52001953125
0, 5, 101, 1428.413330078125
0, 5, 102, 1514.345581054688
0, 5, 103, 1474.0341796875
0, 5, 104, 1458.268798828125
0, 5, 105, 1493.077026367188
0, 5, 106, 1458.574951171875
0, 5, 107, 1396.308837890625
0, 5, 108, 1287.518188476562
0, 5, 109, 722.6299438476562
0, 5, 110, 191.2373504638672
0, 5, 111, 93.44451904296875
0, 5, 112, 83.96605682373047
0, 5, 113, 72.31288909912109
0, 5, 114, 61.45507049560547
0, 5, 115, 52.99014282226562
0, 5, 116, 43.90005874633789
0, 5, 117, 32.47064971923828
0, 5, 118, 41.93266677856445
0, 5, 119, 29.1769905090332
0, 5, 120, 27.15861511230469
0, 5, 121, 23.21734046936035
0, 5, 122, 35.8128776550293
0, 5, 123, 25.52378845214844
0, 5, 124, 26.42616844177246
0, 5, 125, 19.03451728820801
0, 5, 126, 20.31278991699219
0, 5, 127, 20.61631965637207
0, 6, 0, 23.13526344299316
0, 6, 1, 24.88540649414062
0, 6, 2, 27.12024307250977
0, 6, 3, 23.99614334106445
0, 6, 4, 26.1069164276123
0, 6, 5, 33.99415969848633
0, 6, 6, 36.17771911621094
0, 6, 7, 30.47109413146973
0, 6, 8, 37.82182693481445
0, 6, 9, 31.49494934082031
0, 6, 10, 36.24228668212891
0, 6, 11, 44.27316284179688
0, 6, 12, 37.90053558349609
0, 6, 13, 58.29397964477539
0, 6, 14, 64.73793792724609
0, 6, 15, 78.99490356445312
0, 6, 16, 112.0362777709961
0, 6, 17, 297.4996032714844
0, 6, 18, 898.9088134765625
0, 6, 19, 1373.864990234375
0, 6, 20, 1437.5048828125
0, 6, 21, 1529.089111328125
0, 6, 22, 1498.26220703125
0, 6, 23, 1531.850830078125
0, 6, 24, 1476.962768554688
0, 6, 25, 1527.464599609375
0, 6, 26, 1524.137084960938
0, 6, 27, 1520.57080078125
0, 6, 28, 1555.111450195312
0, 6, 29, 1575.145751953125
0, 6, 30, 1515.78955078125
0, 6, 31, 1492.552490234375
0, 6, 32, 1530.945556640625
0, 6, 33, 1495.57373046875
0, 6, 34, 1563.395874023438
0, 6, 35, 1499.975708007812
0, 6, 36, 1442.077514648438
0, 6, 37, 1545.159301757812
0, 6, 38, 1525.417724609375
0, 6, 39, 1528.900390625
0, 6, 40, 1457.025390625
0, 6, 41, 1443.346313476562
0, 6, 42, 1519.059448242188
0, 6, 43, 1482.6201171875
0, 6, 44, 1431.81640625
0, 6, 45, 1551.848266601562
0, 6, 46, 1561.389770507812
0, 6, 47, 1495.208740234375
0, 6, 48, 1526.669189453125
0, 6, 49, 1511.168090820312
0, 6, 50, 1575.6533203125
0, 6, 51, 1503.82080078125
0, 6, 52, 1565.786743164062
0, 6, 53, 1470.595092773438
0, 6, 54, 1503.905639648438
0, 6, 55, 1574.016845703125
0, 6, 56, 1522.073608398438
0, 6, 57, 1507.059814453125
0, 6, 58, 1468.366455078125
0, 6, 59, 1518.001098632812
0, 6, 60, 1470.977783203125
0, 6, 61, 1579.7529296875
0, 6, 62, 1546.156127929688
0, 6, 63, 1496.9951171875
0, 6, 64, 1409.660766601562
0, 6, 65, 1495.672119140625
0, 6, 66, 1512.52197265625
0, 6, 67, 1509.796997070312
0, 6, 68, 1546.90380859375
0, 6, 69, 1486.123046875
0, 6, 70, 1529.826171875
0, 6, 71, 1464.923950195312
0, 6, 72, 1596.474975585938
0, 6, 73, 1493.051147460938
0, 6, 74, 1555.70263671875
0, 6, 75, 1536.456176757812
0, 6, 76, 1565.841552734375
0, 6, 77, 1512.987915039062
0, 6, 78, 1446.127685546875
0, 6, 79, 1558.26025390625
0, 6, 80, 1482.390014648438
0, 6, 81, 1482.708251953125
0, 6, 82, 1500.9833984375
0, 6, 83, 1526.5859375
0, 6, 84, 1521.185302734375
0, 6, 85, 1536.157958984375
0, 6, 86, 1541.780639648438
0, 6, 87, 1570.623168945312
0, 6, 88, 1480.121704101562
0, 6, 89, 1562.511108398438
0, 6, 90, 1489.750610351562
0, 6, 91, 1543.112670898438
0, 6, 92, 1486.60302734375
0, 6, 93, 1496.741088867188
0, 6, 94, 1471.737915039062
0, 6, 95, 1512.8046875
0, 6, 96, 1522.584594726562
0, 6, 97, 1504.323974609375
0, 6, 98, 1495.467163085938
0, 6, 99, 1481.8837890625
0, 6, 100, 1520.189208984375
0, 6, 101, 1513.563110351562
0, 6, 102, 1541.92529296875
0, 6, 103, 1500.780395507812
0, 6, 104, 1467.437866210938
0, 6, 105, 1484.730224609375
0, 6, 106, 1499.7548828125
0, 6, 107, 1504.155395507812
0, 6, 108, 1409.438720703125
0, 6, 109, 919.5003051757812
0, 6, 110, 285.2373962402344
0, 6, 111, 94.35717010498047
0, 6, 112, 81.32631683349609
0, 6, 113, 57.94171524047852
0, 6, 114, 57.7462043762207
0, 6, 115, 43.18656921386719
0, 6, 116, 42.62553405761719
0, 6, 117, 38.81256866455078
0, 6, 118, 40.09041595458984
0, 6, 119, 33.64225769042969
0, 6, 120, 30.87841415405273
0, 6, 121, 29.39050102233887
0, 6, 122, 27.01869201660156
0, 6, 123, 27.02251815795898
0, 6, 124, 28.99209976196289
0, 6, 125, 28.79914093017578
0, 6, 126, 17.10686683654785
0, 6, 127, 22.99034118652344
0, 7, 0, 21.3100528717041
0, 7, 1, 28.40692138671875
0, 7, 2, 22.3345832824707
0, 7, 3, 24.07057189941406
0, 7, 4, 24.8691234588623
0, 7, 5, 32.63839721679688
0, 7, 6, 36.30123519897461
0, 7, 7, 36.41522598266602
0, 7, 8, 29.90890312194824
0, 7, 9, 32.17337799072266
0, 7, 10, 44.510498046875
0, 7, 11, 47.18702697753906
0, 7, 12, 51.49203491210938
0, 7, 13, 50.5478515625
0, 7, 14, 61.42086029052734
0, 7, 15, 80.48624420166016
0, 7, 16, 132.3514099121094
0, 7, 17, 458.5548706054688
0, 7, 18, 1097.50927734375
0, 7, 19, 1502.179443359375
0, 7, 20, 1484.517456054688
0, 7, 21, 1360.734375
0, 7, 22, 1484.894653320312
0, 7, 23, 1455.468627929688
0, 7, 24, 1509.00341796875
0, 7, 25, 1595.020751953125
0, 7, 26, 1517.055419921875
0, 7, 27, 1510.39990234375
0, 7, 28, 1541.089477539062
0, 7, 29, 1576.844848632812
0, 7, 30, 1553.492797851562
0, 7, 31, 1436.837524414062
0, 7, 32, 1545.535522460938
0, 7, 33, 1490.265258789062
0, 7, 34, 1480.461303710938
0, 7, 35, 1525.296142578125
0, 7, 36, 1476.294921875
0, 7, 37, 1598.068237304688
0, 7, 38, 1510.708129882812
0, 7, 39, 1491.1826171875
0, 7, 40, 1540.101318359375
0, 7, 41, 1466.26416015625
0, 7, 42, 1487.793212890625
0, 7, 43, 1439.419921875
0, 7, 44, 1488.421752929688
0, 7, 45, 1467.32080078125
0, 7, 46, 1512.157348632812
0, 7, 47, 1568.1640625
0, 7, 48, 1524.367431640625
0, 7, 49, 1540.871704101562
0, 7, 50, 1514.824096679688
0, 7, 51, 1499.526611328125
0, 7, 52, 1518.853637695312
0, 7, 53, 1496.600341796875
0, 7, 54, 1586.999389648438
0, 7, 55, 1472.51708984375
0, 7, 56, 1545.28466796875
0, 7, 57, 1513.858032226562
0, 7, 58, 1547.964111328125
0, 7, 59, 1539.87646484375
0, 7, 60, 1551.42333984375
0, 7, 61, 1495.23876953125
0, 7, 62, 1433.307250976562
0, 7, 63, 1509.681274414062
0, 7, 64, 1544.612060546875
0, 7, 65, 1526.759887695312
0, 7, 66, 1533.9150390625
0, 7, 67, 1579.88671875
0, 7, 68, 1529.4375
0, 7, 69, 1517.923706054688
0, 7, 70, 1498.135131835938
0, 7, 71, 1521.524291992188
0, 7, 72, 1529.037353515625
0, 7, 73, 1517.9833984375
0, 7, 74, 1579.11767578125
0, 7, 75, 1534.609985351562
0, 7, 76, 1554.980346679688
0, 7, 77, 1511.889892578125
0, 7, 78, 1512.500244140625
0, 7, 79, 1426.333862304688
0, 7, 80, 1488.657470703125
0, 7, 81, 1498.542114257812
0, 7, 82, 1532.982543945312
0, 7, 83, 1545.89599609375
0, 7, 84, 1582.832885742188
0, 7, 85, 1479.988037109375
0, 7, 86, 1500.457641601562
0, 7, 87, 1506.80712890625
0, 7, 88, 1503.001708984375
0, 7, 89, 1555.003173828125
0, 7, 90, 1520.163208007812
0, 7, 91, 1562.615600585938
0, 7, 92, 1525.213623046875
0, 7, 93, 1548.956909179688
0, 7, 94, 1536.146362304688
0, 7, 95, 1502.8876953125
0, 7, 96, 1510.409423828125
0, 7, 97, 1436.341430664062
0, 7, 98, 1480.0869140625
0, 7, 99, 1526.2626953125
0, 7, 100, 1424.6875
0, 7, 101, 1463.167846679688
0, 7, 102, 1450.635375976562
0, 7, 103, 1432.098022460938
0, 7, 104, 1493.099365234375
0, 7, 105, 1521.021240234375
0, 7, 106, 1565.94677734375
0, 7, 107, 1480.89208984375
0, 7, 108, 1409.026489257812
0, 7, 109, 1146.854736328125
0, 7, 110, 470.1410217285156
0, 7, 111, 126.7611465454102
0, 7, 112, 83.17169189453125
0, 7, 113, 69.98464965820312
0, 7, 114, 58.6359977722168
0, 7, 115, 51.21760177612305
0, 7, 116, 45.39265060424805
0, 7, 117, 45.35079956054688
0, 7, 118, 42.54890441894531
0, 7, 119, 33.08379745483398
0, 7, 120, 24.06162261962891
0, 7, 121, 30.23260498046875
0, 7, 122, 33.24460220336914
0, 7, 123, 34.49923324584961
0, 7, 124, 35.38332748413086
0, 7, 125, 23.32779884338379
0, 7, 126, 26.52549934387207
0, 7, 127, 21.46895790100098
0, 8, 0, 21.94469261169434
0, 8, 1, 24.94228172302246
0, 8, 2, 24.70787620544434
0, 8, 3, 28.35738945007324
0, 8, 4, 24.60455131530762
0, 8, 5, 35.21472930908203
0, 8, 6, 33.27897644042969
0, 8, 7, 29.5922737121582
0, 8, 8, 34.50827407836914
0, 8, 9, 44.66078186035156
0, 8, 10, 42.20383071899414
0, 8, 11, 41.62385177612305
0, 8, 12, 49.64207458496094
0, 8, 13, 70.13398742675781
0, 8, 14, 70.97602844238281
0, 8, 15, 89.05982208251953
0, 8, 16, 169.9452056884766
0, 8, 17, 674.3551025390625
0, 8, 18, 1278.517456054688
0, 8, 19, 1449.240478515625
0, 8, 20, 1422.518432617188
0, 8, 21, 1411.154418945312
0, 8, 22, 1488.733764648438
0, 8, 23, 1482.311279296875
0, 8, 24, 1437.08740234375
0, 8, 25, 1457.404541015625
0, 8, 26, 1511.641357421875
0, 8, 27, 1521.46533203125
0, 8, 28, 1480.690307617188
0, 8, 29, 1506.587158203125
0, 8, 30, 1486.606567382812
0, 8, 31, 1532.413452148438
0, 8, 32, 1508.705444335938
0, 8, 33, 1480.93359375
0, 8, 34, 1534.696899414062
0, 8, 35, 1442.418579101562
0, 8, 36, 1495.072998046875
0, 8, 37, 1553.191040039062
0, 8, 38, 1551.636962890625
0, 8, 39, 1490.359741210938
0, 8, 40, 1529.924560546875
0, 8, 41, 1483.860229492188
0, 8, 42, 1536.935546875
0, 8, 43, 1430.494018554688
0, 8, 44, 1533.265258789062
0, 8, 45, 1514.882934570312
0, 8, 46, 1592.497924804688
0, 8, 47, 1588.76904296875
0, 8, 48, 1543.357177734375
0, 8, 49, 1561.419311523438
