# TOPAS Version: 3.1.p3
# Parameter File: batch_inserts_88.txt
# Results for scorer Readout_Adipose
# Scored in component: MyBox
# X in 1 bin  of 0.75 cm
# Y in 512 bins of 0.0783984 cm
# Z in 128 bins of 0.078125 cm
# EnergyDeposit ( MeV ) : Sum   
0, 0, 0, 2.434614896774292
0, 0, 1, 3.88726019859314
0, 0, 2, 3.84227466583252
0, 0, 3, 2.495768547058105
0, 0, 4, 2.989995002746582
0, 0, 5, 1.609496712684631
0, 0, 6, 6.457298755645752
0, 0, 7, 10.47820377349854
0, 0, 8, 4.040073394775391
0, 0, 9, 4.202152252197266
0, 0, 10, 7.776993751525879
0, 0, 11, 5.121698379516602
0, 0, 12, 4.186360359191895
0, 0, 13, 5.944756031036377
0, 0, 14, 7.170218944549561
0, 0, 15, 10.4888801574707
0, 0, 16, 9.327272415161133
0, 0, 17, 8.399656295776367
0, 0, 18, 13.29078197479248
0, 0, 19, 43.71768951416016
0, 0, 20, 138.5117645263672
0, 0, 21, 222.5423889160156
0, 0, 22, 247.7137756347656
0, 0, 23, 255.9415130615234
0, 0, 24, 251.3204650878906
0, 0, 25, 260.2043762207031
0, 0, 26, 235.6532592773438
0, 0, 27, 237.0549774169922
0, 0, 28, 271.9344787597656
0, 0, 29, 251.8052673339844
0, 0, 30, 230.8206634521484
0, 0, 31, 243.824462890625
0, 0, 32, 264.3126831054688
0, 0, 33, 260.0249633789062
0, 0, 34, 286.6439514160156
0, 0, 35, 267.9659729003906
0, 0, 36, 245.5936431884766
0, 0, 37, 251.0374755859375
0, 0, 38, 269.192626953125
0, 0, 39, 230.3186187744141
0, 0, 40, 244.156005859375
0, 0, 41, 264.7784729003906
0, 0, 42, 228.7026519775391
0, 0, 43, 259.3310852050781
0, 0, 44, 251.2406311035156
0, 0, 45, 253.9599761962891
0, 0, 46, 243.9261322021484
0, 0, 47, 253.16552734375
0, 0, 48, 268.1423950195312
0, 0, 49, 275.1030883789062
0, 0, 50, 252.6891021728516
0, 0, 51, 253.1605834960938
0, 0, 52, 274.4020385742188
0, 0, 53, 290.7302856445312
0, 0, 54, 242.4932403564453
0, 0, 55, 239.8372497558594
0, 0, 56, 277.5254821777344
0, 0, 57, 262.4147644042969
0, 0, 58, 245.5737915039062
0, 0, 59, 270.4576416015625
0, 0, 60, 234.53125
0, 0, 61, 245.3356781005859
0, 0, 62, 259.9367370605469
0, 0, 63, 266.4024353027344
0, 0, 64, 255.3612365722656
0, 0, 65, 261.5126953125
0, 0, 66, 275.8538818359375
0, 0, 67, 246.5825958251953
0, 0, 68, 258.1688842773438
0, 0, 69, 260.6677551269531
0, 0, 70, 273.1162719726562
0, 0, 71, 237.1861724853516
0, 0, 72, 250.2677764892578
0, 0, 73, 257.9303283691406
0, 0, 74, 251.5287475585938
0, 0, 75, 238.8034362792969
0, 0, 76, 228.6837615966797
0, 0, 77, 264.4198608398438
0, 0, 78, 256.2084350585938
0, 0, 79, 280.3658447265625
0, 0, 80, 216.2791900634766
0, 0, 81, 266.3370971679688
0, 0, 82, 255.3090362548828
0, 0, 83, 245.0941009521484
0, 0, 84, 270.6273498535156
0, 0, 85, 231.9022216796875
0, 0, 86, 252.7334442138672
0, 0, 87, 250.9175567626953
0, 0, 88, 260.7856750488281
0, 0, 89, 282.8765258789062
0, 0, 90, 242.8644256591797
0, 0, 91, 280.4879150390625
0, 0, 92, 253.1780548095703
0, 0, 93, 248.7926483154297
0, 0, 94, 247.6181945800781
0, 0, 95, 247.2799682617188
0, 0, 96, 275.0561218261719
0, 0, 97, 272.7250366210938
0, 0, 98, 272.3583374023438
0, 0, 99, 259.304931640625
0, 0, 100, 259.0819396972656
0, 0, 101, 225.2722320556641
0, 0, 102, 231.9831848144531
0, 0, 103, 268.4081726074219
0, 0, 104, 253.8618774414062
0, 0, 105, 253.4416656494141
0, 0, 106, 246.3153839111328
0, 0, 107, 153.2359619140625
0, 0, 108, 38.98127365112305
0, 0, 109, 11.83340263366699
0, 0, 110, 11.96974277496338
0, 0, 111, 9.495972633361816
0, 0, 112, 7.765325546264648
0, 0, 113, 6.271325588226318
0, 0, 114, 6.695112228393555
0, 0, 115, 5.024722099304199
0, 0, 116, 4.598832130432129
0, 0, 117, 5.868741989135742
0, 0, 118, 5.861107349395752
0, 0, 119, 4.335840702056885
0, 0, 120, 3.116212129592896
0, 0, 121, 3.20106053352356
0, 0, 122, 6.28993558883667
0, 0, 123, 3.03622579574585
0, 0, 124, 7.13603687286377
0, 0, 125, 3.282732963562012
0, 0, 126, 3.761247396469116
0, 0, 127, 2.794474363327026
0, 1, 0, 8.067963600158691
0, 1, 1, 1.688242077827454
0, 1, 2, 4.375189781188965
0, 1, 3, 2.051366806030273
0, 1, 4, 4.409159183502197
0, 1, 5, 3.92985200881958
0, 1, 6, 4.428025245666504
0, 1, 7, 3.779592990875244
0, 1, 8, 7.893224239349365
0, 1, 9, 4.660819530487061
0, 1, 10, 7.500965595245361
0, 1, 11, 12.03640079498291
0, 1, 12, 8.157779693603516
0, 1, 13, 8.871173858642578
0, 1, 14, 7.052372932434082
0, 1, 15, 7.611610412597656
0, 1, 16, 10.98649883270264
0, 1, 17, 10.66824913024902
0, 1, 18, 21.21637916564941
0, 1, 19, 66.41120147705078
0, 1, 20, 198.7793273925781
0, 1, 21, 254.1074676513672
0, 1, 22, 294.7560119628906
0, 1, 23, 282.2249145507812
0, 1, 24, 276.7617797851562
0, 1, 25, 287.2569274902344
0, 1, 26, 268.8313598632812
0, 1, 27, 305.5155334472656
0, 1, 28, 298.3929443359375
0, 1, 29, 296.1703796386719
0, 1, 30, 281.0048522949219
0, 1, 31, 292.4556884765625
0, 1, 32, 290.6035766601562
0, 1, 33, 297.73974609375
0, 1, 34, 293.1869812011719
0, 1, 35, 278.3036499023438
0, 1, 36, 307.26708984375
0, 1, 37, 297.0342712402344
0, 1, 38, 281.4683227539062
0, 1, 39, 295.7192993164062
0, 1, 40, 265.5935363769531
0, 1, 41, 286.2645263671875
0, 1, 42, 291.0008239746094
0, 1, 43, 330.8454895019531
0, 1, 44, 280.2876281738281
0, 1, 45, 292.5162353515625
0, 1, 46, 260.4952087402344
0, 1, 47, 310.48388671875
0, 1, 48, 284.2592163085938
0, 1, 49, 302.3800048828125
0, 1, 50, 263.8698425292969
0, 1, 51, 270.8805847167969
0, 1, 52, 294.9592590332031
0, 1, 53, 305.2827758789062
0, 1, 54, 273.9983825683594
0, 1, 55, 293.7040100097656
0, 1, 56, 277.4208068847656
0, 1, 57, 296.2377014160156
0, 1, 58, 310.1781616210938
0, 1, 59, 292.05078125
0, 1, 60, 299.008056640625
0, 1, 61, 275.8587951660156
0, 1, 62, 306.687255859375
0, 1, 63, 288.783447265625
0, 1, 64, 292.1820373535156
0, 1, 65, 295.636962890625
0, 1, 66, 294.0210266113281
0, 1, 67, 290.3807067871094
0, 1, 68, 277.2493591308594
0, 1, 69, 283.4794616699219
0, 1, 70, 270.2603454589844
0, 1, 71, 275.2812805175781
0, 1, 72, 285.9454345703125
0, 1, 73, 302.8683471679688
0, 1, 74, 306.8679809570312
0, 1, 75, 292.9350891113281
0, 1, 76, 287.0808410644531
0, 1, 77, 292.21923828125
0, 1, 78, 297.1778869628906
0, 1, 79, 301.5811462402344
0, 1, 80, 296.0250549316406
0, 1, 81, 300.4955749511719
0, 1, 82, 284.36376953125
0, 1, 83, 331.8628540039062
0, 1, 84, 308.4169616699219
0, 1, 85, 252.3044738769531
0, 1, 86, 293.9574584960938
0, 1, 87, 289.4913024902344
0, 1, 88, 296.5883483886719
0, 1, 89, 291.6061706542969
0, 1, 90, 270.9456787109375
0, 1, 91, 319.2982177734375
0, 1, 92, 290.3891906738281
0, 1, 93, 287.4459838867188
0, 1, 94, 302.2212524414062
0, 1, 95, 285.3682861328125
0, 1, 96, 283.16796875
0, 1, 97, 302.9265747070312
0, 1, 98, 279.0970153808594
0, 1, 99, 264.9286193847656
0, 1, 100, 276.7926940917969
0, 1, 101, 281.3345642089844
0, 1, 102, 279.86669921875
0, 1, 103, 282.2020263671875
0, 1, 104, 308.7484130859375
0, 1, 105, 298.3176574707031
0, 1, 106, 262.6932678222656
0, 1, 107, 193.0131072998047
0, 1, 108, 81.72267150878906
0, 1, 109, 23.12243461608887
0, 1, 110, 10.85464191436768
0, 1, 111, 8.999695777893066
0, 1, 112, 12.1191987991333
0, 1, 113, 6.101326465606689
0, 1, 114, 5.580994129180908
0, 1, 115, 8.45639705657959
0, 1, 116, 12.18540477752686
0, 1, 117, 7.470763206481934
0, 1, 118, 5.790262699127197
0, 1, 119, 7.412580013275146
0, 1, 120, 6.067601680755615
0, 1, 121, 4.671838283538818
0, 1, 122, 2.482146978378296
0, 1, 123, 6.197601795196533
0, 1, 124, 8.828202247619629
0, 1, 125, 4.722942352294922
0, 1, 126, 2.53983736038208
0, 1, 127, 0.5576291680335999
0, 2, 0, 6.59089183807373
0, 2, 1, 2.502752065658569
0, 2, 2, 3.665088653564453
0, 2, 3, 4.341814517974854
0, 2, 4, 2.063029289245605
0, 2, 5, 1.566153049468994
0, 2, 6, 1.97611129283905
0, 2, 7, 3.978475570678711
0, 2, 8, 5.440024852752686
0, 2, 9, 5.436458587646484
0, 2, 10, 6.883541107177734
0, 2, 11, 6.58720874786377
0, 2, 12, 6.386548519134521
0, 2, 13, 10.12686920166016
0, 2, 14, 10.60147094726562
0, 2, 15, 7.624884605407715
0, 2, 16, 9.648357391357422
0, 2, 17, 16.85871315002441
0, 2, 18, 31.73588943481445
0, 2, 19, 117.3133316040039
0, 2, 20, 246.2630767822266
0, 2, 21, 271.807861328125
0, 2, 22, 316.0980529785156
0, 2, 23, 300.9833374023438
0, 2, 24, 286.5951232910156
0, 2, 25, 304.012939453125
0, 2, 26, 293.4754028320312
0, 2, 27, 275.7176208496094
0, 2, 28, 273.0562744140625
0, 2, 29, 273.2750244140625
0, 2, 30, 291.3567810058594
0, 2, 31, 276.7325744628906
0, 2, 32, 294.2594604492188
0, 2, 33, 282.3818969726562
0, 2, 34, 333.0069580078125
0, 2, 35, 288.5924682617188
0, 2, 36, 305.5770874023438
0, 2, 37, 315.3709411621094
0, 2, 38, 312.8265075683594
0, 2, 39, 266.3375549316406
0, 2, 40, 310.852783203125
0, 2, 41, 296.7134399414062
0, 2, 42, 302.7004089355469
0, 2, 43, 312.1806640625
0, 2, 44, 311.9574890136719
0, 2, 45, 324.0180358886719
0, 2, 46, 287.0562133789062
0, 2, 47, 303.3478393554688
0, 2, 48, 279.6502380371094
0, 2, 49, 277.4690551757812
0, 2, 50, 294.297119140625
0, 2, 51, 282.9071960449219
0, 2, 52, 270.9043884277344
0, 2, 53, 288.7804870605469
0, 2, 54, 279.3375854492188
0, 2, 55, 273.6320495605469
0, 2, 56, 300.6977233886719
0, 2, 57, 290.7828979492188
0, 2, 58, 301.1833190917969
0, 2, 59, 287.1075744628906
0, 2, 60, 318.9889526367188
0, 2, 61, 300.9407653808594
0, 2, 62, 313.2841186523438
0, 2, 63, 303.4234619140625
0, 2, 64, 296.5022583007812
0, 2, 65, 314.88818359375
0, 2, 66, 283.1132507324219
0, 2, 67, 290.0987243652344
0, 2, 68, 295.1538696289062
0, 2, 69, 310.9929809570312
0, 2, 70, 334.0162353515625
0, 2, 71, 284.2615356445312
0, 2, 72, 301.3728637695312
0, 2, 73, 310.9277954101562
0, 2, 74, 286.2771301269531
0, 2, 75, 302.9301452636719
0, 2, 76, 286.2220458984375
0, 2, 77, 298.8954772949219
0, 2, 78, 315.234619140625
0, 2, 79, 307.9407653808594
0, 2, 80, 296.6549682617188
0, 2, 81, 282.8985290527344
0, 2, 82, 317.0153503417969
0, 2, 83, 312.3790283203125
0, 2, 84, 287.8082275390625
0, 2, 85, 281.5506591796875
0, 2, 86, 327.5675354003906
0, 2, 87, 286.2238464355469
0, 2, 88, 280.553466796875
0, 2, 89, 294.1528015136719
0, 2, 90, 295.6106567382812
0, 2, 91, 274.9847717285156
0, 2, 92, 306.9673461914062
0, 2, 93, 317.8934326171875
0, 2, 94, 290.8327941894531
0, 2, 95, 315.3938903808594
0, 2, 96, 316.5429382324219
0, 2, 97, 291.90185546875
0, 2, 98, 294.9970397949219
0, 2, 99, 273.3240356445312
0, 2, 100, 305.3963928222656
0, 2, 101, 300.5704956054688
0, 2, 102, 296.1704406738281
0, 2, 103, 292.5213317871094
0, 2, 104, 294.173095703125
0, 2, 105, 273.95068359375
0, 2, 106, 298.5487365722656
0, 2, 107, 268.6501159667969
0, 2, 108, 116.0425720214844
0, 2, 109, 31.94149971008301
0, 2, 110, 12.85613632202148
0, 2, 111, 11.60868167877197
0, 2, 112, 7.634799480438232
0, 2, 113, 10.48396015167236
0, 2, 114, 10.86033630371094
0, 2, 115, 8.367927551269531
0, 2, 116, 8.985671997070312
0, 2, 117, 7.439323902130127
0, 2, 118, 3.010483503341675
0, 2, 119, 4.585048198699951
0, 2, 120, 4.538872241973877
0, 2, 121, 1.608585715293884
0, 2, 122, 4.102261543273926
0, 2, 123, 4.330662250518799
0, 2, 124, 3.25429368019104
0, 2, 125, 6.078011035919189
0, 2, 126, 4.670385837554932
0, 2, 127, 5.55176305770874
0, 3, 0, 2.477707862854004
0, 3, 1, 2.648845434188843
0, 3, 2, 3.35197639465332
0, 3, 3, 1.97668731212616
0, 3, 4, 5.00486946105957
0, 3, 5, 7.679852962493896
0, 3, 6, 7.326003074645996
0, 3, 7, 5.313537120819092
0, 3, 8, 5.067427635192871
0, 3, 9, 5.31641960144043
0, 3, 10, 5.735679149627686
0, 3, 11, 3.857338905334473
0, 3, 12, 7.375477313995361
0, 3, 13, 15.3925256729126
0, 3, 14, 12.48497676849365
0, 3, 15, 14.29323673248291
0, 3, 16, 11.85195827484131
0, 3, 17, 18.75004768371582
0, 3, 18, 52.46096801757812
0, 3, 19, 174.6046600341797
0, 3, 20, 269.4423522949219
0, 3, 21, 270.8032531738281
0, 3, 22, 281.5592956542969
0, 3, 23, 286.2507934570312
0, 3, 24, 286.9000549316406
0, 3, 25, 272.0130310058594
0, 3, 26, 304.5194396972656
0, 3, 27, 294.5603332519531
0, 3, 28, 283.6348876953125
0, 3, 29, 339.203125
0, 3, 30, 317.70068359375
0, 3, 31, 287.7489624023438
0, 3, 32, 308.7217712402344
0, 3, 33, 314.1744079589844
0, 3, 34, 322.9548645019531
0, 3, 35, 306.8152160644531
0, 3, 36, 270.5209655761719
0, 3, 37, 312.2982482910156
0, 3, 38, 303.5370178222656
0, 3, 39, 290.3502502441406
0, 3, 40, 267.3579406738281
0, 3, 41, 298.6145324707031
0, 3, 42, 284.2217712402344
0, 3, 43, 307.0588684082031
0, 3, 44, 310.6559143066406
0, 3, 45, 289.0086364746094
0, 3, 46, 329.2611999511719
0, 3, 47, 298.2990112304688
0, 3, 48, 309.58740234375
0, 3, 49, 275.5363159179688
0, 3, 50, 292.2210693359375
0, 3, 51, 276.0046997070312
0, 3, 52, 315.5458984375
0, 3, 53, 288.5584716796875
0, 3, 54, 284.5299072265625
0, 3, 55, 284.9394836425781
0, 3, 56, 298.7235107421875
0, 3, 57, 291.7402038574219
0, 3, 58, 308.889404296875
0, 3, 59, 295.0119934082031
0, 3, 60, 299.0233154296875
0, 3, 61, 265.1645812988281
0, 3, 62, 283.2891235351562
0, 3, 63, 307.458251953125
0, 3, 64, 316.240966796875
0, 3, 65, 304.1102294921875
0, 3, 66, 316.4378967285156
0, 3, 67, 320.597412109375
0, 3, 68, 278.5357055664062
0, 3, 69, 281.9712219238281
0, 3, 70, 288.6339721679688
0, 3, 71, 299.9179992675781
0, 3, 72, 270.7741088867188
0, 3, 73, 310.5369567871094
0, 3, 74, 292.9135131835938
0, 3, 75, 288.6199340820312
0, 3, 76, 305.1515808105469
0, 3, 77, 314.0632629394531
0, 3, 78, 305.6487121582031
0, 3, 79, 282.0349426269531
0, 3, 80, 290.3619689941406
0, 3, 81, 312.0809936523438
0, 3, 82, 316.5277709960938
0, 3, 83, 301.6978759765625
0, 3, 84, 313.0977783203125
0, 3, 85, 294.9555358886719
0, 3, 86, 303.6951904296875
0, 3, 87, 298.289306640625
0, 3, 88, 298.2068481445312
0, 3, 89, 295.5769348144531
0, 3, 90, 278.6075744628906
0, 3, 91, 284.3959350585938
0, 3, 92, 305.0906677246094
0, 3, 93, 314.2456665039062
0, 3, 94, 298.7437438964844
0, 3, 95, 333.91748046875
0, 3, 96, 289.8777770996094
0, 3, 97, 283.9398803710938
0, 3, 98, 276.8455200195312
0, 3, 99, 262.5328674316406
0, 3, 100, 284.3472595214844
0, 3, 101, 297.9431762695312
0, 3, 102, 273.1835632324219
0, 3, 103, 319.3607788085938
0, 3, 104, 308.7478942871094
0, 3, 105, 287.0715637207031
0, 3, 106, 301.9731140136719
0, 3, 107, 283.407958984375
0, 3, 108, 169.1542358398438
0, 3, 109, 57.01139068603516
0, 3, 110, 17.33819007873535
0, 3, 111, 12.37327003479004
0, 3, 112, 13.12466621398926
0, 3, 113, 8.361618995666504
0, 3, 114, 8.323745727539062
0, 3, 115, 6.341851234436035
0, 3, 116, 8.079734802246094
0, 3, 117, 7.544679164886475
0, 3, 118, 6.743827819824219
0, 3, 119, 6.232989311218262
0, 3, 120, 5.738967418670654
0, 3, 121, 4.141357421875
0, 3, 122, 6.509791374206543
0, 3, 123, 6.797067642211914
0, 3, 124, 4.139506816864014
0, 3, 125, 5.070533275604248
0, 3, 126, 5.985462665557861
0, 3, 127, 4.962579727172852
0, 4, 0, 2.463116645812988
0, 4, 1, 4.992664813995361
0, 4, 2, 3.008457899093628
0, 4, 3, 3.090685606002808
0, 4, 4, 5.845489978790283
0, 4, 5, 8.027792930603027
0, 4, 6, 8.578218460083008
0, 4, 7, 5.58591365814209
0, 4, 8, 5.072373867034912
0, 4, 9, 5.510112285614014
0, 4, 10, 6.07679271697998
0, 4, 11, 5.86154317855835
0, 4, 12, 7.230209350585938
0, 4, 13, 8.093794822692871
0, 4, 14, 11.29435920715332
0, 4, 15, 9.890809059143066
0, 4, 16, 12.72502517700195
0, 4, 17, 18.04325866699219
0, 4, 18, 97.25669097900391
0, 4, 19, 224.0927429199219
0, 4, 20, 284.2283935546875
0, 4, 21, 272.3644409179688
0, 4, 22, 304.8264465332031
0, 4, 23, 268.110107421875
0, 4, 24, 288.3896484375
0, 4, 25, 273.7912902832031
0, 4, 26, 294.6023254394531
0, 4, 27, 282.4308166503906
0, 4, 28, 307.7981262207031
0, 4, 29, 321.4607543945312
0, 4, 30, 309.5307312011719
0, 4, 31, 303.6367797851562
0, 4, 32, 281.085205078125
0, 4, 33, 297.3683471679688
0, 4, 34, 299.8111572265625
0, 4, 35, 311.6804809570312
0, 4, 36, 293.4617919921875
0, 4, 37, 286.8659057617188
0, 4, 38, 300.7130432128906
0, 4, 39, 293.7887878417969
0, 4, 40, 301.3269958496094
0, 4, 41, 310.4734497070312
0, 4, 42, 332.0819091796875
0, 4, 43, 296.40966796875
0, 4, 44, 321.5942993164062
0, 4, 45, 322.752685546875
0, 4, 46, 304.56982421875
0, 4, 47, 291.6253356933594
0, 4, 48, 297.1847534179688
0, 4, 49, 277.7698669433594
0, 4, 50, 295.1276550292969
0, 4, 51, 317.3851928710938
0, 4, 52, 327.2563781738281
0, 4, 53, 303.3819885253906
0, 4, 54, 287.9248046875
0, 4, 55, 314.2377014160156
0, 4, 56, 289.151123046875
0, 4, 57, 309.3659973144531
0, 4, 58, 294.5313720703125
0, 4, 59, 311.2294311523438
0, 4, 60, 303.3954772949219
0, 4, 61, 316.3239440917969
0, 4, 62, 306.8819580078125
0, 4, 63, 296.9566650390625
0, 4, 64, 330.5147705078125
0, 4, 65, 314.5594177246094
0, 4, 66, 294.290283203125
0, 4, 67, 285.6608276367188
0, 4, 68, 314.7773132324219
0, 4, 69, 278.0213928222656
0, 4, 70, 300.1591491699219
0, 4, 71, 320.3661804199219
0, 4, 72, 333.0475463867188
0, 4, 73, 297.8289184570312
0, 4, 74, 293.8262023925781
0, 4, 75, 291.837158203125
0, 4, 76, 276.7135009765625
0, 4, 77, 277.228515625
0, 4, 78, 310.2845458984375
0, 4, 79, 319.1700744628906
0, 4, 80, 315.7152099609375
0, 4, 81, 314.7018737792969
0, 4, 82, 297.66162109375
0, 4, 83, 304.1103210449219
0, 4, 84, 292.6007690429688
0, 4, 85, 293.5240783691406
0, 4, 86, 299.1380615234375
0, 4, 87, 288.3982543945312
0, 4, 88, 305.1802368164062
0, 4, 89, 293.4308776855469
0, 4, 90, 332.3142700195312
0, 4, 91, 301.4766235351562
0, 4, 92, 292.0967407226562
0, 4, 93, 298.1231079101562
0, 4, 94, 295.4746704101562
0, 4, 95, 288.5732421875
0, 4, 96, 323.7041320800781
0, 4, 97, 274.0286254882812
0, 4, 98, 327.0787963867188
0, 4, 99, 314.3729553222656
0, 4, 100, 301.9176635742188
0, 4, 101, 257.3507385253906
0, 4, 102, 297.4994506835938
0, 4, 103, 318.0980224609375
0, 4, 104, 280.6847229003906
0, 4, 105, 310.3864440917969
0, 4, 106, 286.3617553710938
0, 4, 107, 298.2219848632812
0, 4, 108, 225.2927703857422
0, 4, 109, 78.72657012939453
0, 4, 110, 16.17207527160645
0, 4, 111, 13.73526668548584
0, 4, 112, 10.12955570220947
0, 4, 113, 10.72469902038574
0, 4, 114, 8.759895324707031
0, 4, 115, 12.03597545623779
0, 4, 116, 10.45912265777588
0, 4, 117, 6.041617393493652
0, 4, 118, 10.49058151245117
0, 4, 119, 8.377140045166016
0, 4, 120, 7.485085487365723
0, 4, 121, 4.524460792541504
0, 4, 122, 3.235006093978882
0, 4, 123, 6.379469394683838
0, 4, 124, 5.807363986968994
0, 4, 125, 7.934349060058594
0, 4, 126, 5.051251411437988
0, 4, 127, 6.131367206573486
0, 5, 0, 3.305653810501099
0, 5, 1, 3.665910005569458
0, 5, 2, 4.402349472045898
0, 5, 3, 3.839152812957764
0, 5, 4, 7.050930500030518
0, 5, 5, 5.857479095458984
0, 5, 6, 6.066671848297119
0, 5, 7, 5.915985584259033
0, 5, 8, 6.533565044403076
0, 5, 9, 5.736373901367188
0, 5, 10, 8.364500999450684
0, 5, 11, 9.607305526733398
0, 5, 12, 9.915358543395996
0, 5, 13, 7.167515277862549
0, 5, 14, 13.18935775756836
0, 5, 15, 15.93474102020264
0, 5, 16, 16.05468368530273
0, 5, 17, 31.1612377166748
0, 5, 18, 138.8589782714844
0, 5, 19, 288.4025268554688
0, 5, 20, 307.4212036132812
0, 5, 21, 315.991943359375
0, 5, 22, 276.1564331054688
0, 5, 23, 311.7266235351562
0, 5, 24, 301.4099426269531
0, 5, 25, 288.2854614257812
0, 5, 26, 294.833251953125
0, 5, 27, 324.7042541503906
0, 5, 28, 302.6242980957031
0, 5, 29, 297.3944702148438
0, 5, 30, 326.1824035644531
0, 5, 31, 286.0061950683594
0, 5, 32, 301.3906860351562
0, 5, 33, 303.6931762695312
0, 5, 34, 295.0276184082031
0, 5, 35, 308.7835693359375
0, 5, 36, 268.0132446289062
0, 5, 37, 282.0812377929688
0, 5, 38, 292.8565979003906
0, 5, 39, 316.6992797851562
0, 5, 40, 311.0691528320312
0, 5, 41, 273.599609375
0, 5, 42, 303.7774353027344
0, 5, 43, 316.3099060058594
0, 5, 44, 291.6544799804688
0, 5, 45, 305.0393676757812
0, 5, 46, 264.8451232910156
0, 5, 47, 281.4100036621094
0, 5, 48, 294.2315673828125
0, 5, 49, 285.2701110839844
0, 5, 50, 294.738525390625
0, 5, 51, 278.749267578125
0, 5, 52, 271.0884704589844
0, 5, 53, 284.9930419921875
0, 5, 54, 291.3297729492188
0, 5, 55, 344.5500793457031
0, 5, 56, 305.2139587402344
0, 5, 57, 307.9502258300781
0, 5, 58, 312.365478515625
0, 5, 59, 303.0919799804688
0, 5, 60, 307.6748352050781
0, 5, 61, 281.1389770507812
0, 5, 62, 327.6921691894531
0, 5, 63, 294.5277404785156
0, 5, 64, 323.0870666503906
0, 5, 65, 310.679443359375
0, 5, 66, 327.6400756835938
0, 5, 67, 310.21142578125
0, 5, 68, 307.1300048828125
0, 5, 69, 312.0028686523438
0, 5, 70, 299.0056457519531
0, 5, 71, 273.1487121582031
0, 5, 72, 309.9681701660156
0, 5, 73, 302.1920471191406
0, 5, 74, 295.3454284667969
0, 5, 75, 294.7661743164062
0, 5, 76, 285.470947265625
0, 5, 77, 297.00244140625
0, 5, 78, 316.6176147460938
0, 5, 79, 306.5617065429688
0, 5, 80, 294.2339477539062
0, 5, 81, 326.5169067382812
0, 5, 82, 323.9120788574219
0, 5, 83, 281.4180297851562
0, 5, 84, 300.9512023925781
0, 5, 85, 270.5320739746094
0, 5, 86, 325.2138366699219
0, 5, 87, 285.07080078125
0, 5, 88, 313.1495971679688
0, 5, 89, 305.5430603027344
0, 5, 90, 316.0762939453125
0, 5, 91, 316.5014953613281
0, 5, 92, 296.349853515625
0, 5, 93, 321.8503112792969
0, 5, 94, 307.4554138183594
0, 5, 95, 296.1018981933594
0, 5, 96, 299.3804016113281
0, 5, 97, 294.526611328125
0, 5, 98, 319.03173828125
0, 5, 99, 302.4057312011719
0, 5, 100, 291.6900634765625
0, 5, 101, 306.2380676269531
0, 5, 102, 293.1234741210938
0, 5, 103, 313.7652587890625
0, 5, 104, 302.6056823730469
0, 5, 105, 293.4909362792969
0, 5, 106, 281.5765075683594
0, 5, 107, 293.2681884765625
0, 5, 108, 264.4198303222656
0, 5, 109, 159.6822204589844
0, 5, 110, 40.61018753051758
0, 5, 111, 20.94913101196289
0, 5, 112, 15.50959873199463
0, 5, 113, 14.34703254699707
0, 5, 114, 12.2630672454834
0, 5, 115, 7.903666496276855
0, 5, 116, 8.069088935852051
0, 5, 117, 8.247681617736816
0, 5, 118, 13.05863380432129
0, 5, 119, 7.169218063354492
0, 5, 120, 6.54328441619873
0, 5, 121, 4.429975032806396
0, 5, 122, 7.008551120758057
0, 5, 123, 4.365478038787842
0, 5, 124, 4.317099571228027
0, 5, 125, 4.028725147247314
0, 5, 126, 6.260335922241211
0, 5, 127, 3.627045631408691
0, 6, 0, 3.434462785720825
0, 6, 1, 2.354647397994995
0, 6, 2, 3.706959962844849
0, 6, 3, 6.388006210327148
0, 6, 4, 4.596694469451904
0, 6, 5, 4.625359058380127
0, 6, 6, 7.248775005340576
0, 6, 7, 6.088597774505615
0, 6, 8, 9.713229179382324
0, 6, 9, 4.988971710205078
0, 6, 10, 7.353477478027344
0, 6, 11, 10.33450984954834
0, 6, 12, 8.152779579162598
0, 6, 13, 14.44776058197021
0, 6, 14, 8.836566925048828
0, 6, 15, 16.56130409240723
0, 6, 16, 27.46522903442383
0, 6, 17, 56.98134994506836
0, 6, 18, 171.7635192871094
0, 6, 19, 275.0548400878906
0, 6, 20, 290.6615295410156
0, 6, 21, 313.214111328125
0, 6, 22, 319.0403137207031
0, 6, 23, 306.4442749023438
0, 6, 24, 318.4227294921875
0, 6, 25, 316.2259826660156
0, 6, 26, 318.0888671875
0, 6, 27, 331.1255187988281
0, 6, 28, 294.5766296386719
0, 6, 29, 332.1349182128906
0, 6, 30, 282.8498840332031
0, 6, 31, 285.3034057617188
0, 6, 32, 340.5670166015625
0, 6, 33, 300.3342895507812
0, 6, 34, 340.3297119140625
0, 6, 35, 319.6344909667969
0, 6, 36, 275.0269775390625
0, 6, 37, 288.0228881835938
0, 6, 38, 310.6918334960938
0, 6, 39, 299.8028259277344
0, 6, 40, 284.2265014648438
0, 6, 41, 295.4108581542969
0, 6, 42, 303.3931884765625
0, 6, 43, 290.5953674316406
0, 6, 44, 280.5487060546875
0, 6, 45, 319.2080993652344
0, 6, 46, 305.715087890625
0, 6, 47, 333.5049743652344
0, 6, 48, 294.2602844238281
0, 6, 49, 311.8716735839844
0, 6, 50, 328.2749328613281
0, 6, 51, 312.0535888671875
0, 6, 52, 321.2879943847656
0, 6, 53, 328.0062255859375
0, 6, 54, 304.0290832519531
0, 6, 55, 305.9570007324219
0, 6, 56, 292.3881225585938
0, 6, 57, 315.1339416503906
0, 6, 58, 261.8021240234375
0, 6, 59, 299.6830749511719
0, 6, 60, 312.4801940917969
0, 6, 61, 271.09375
0, 6, 62, 336.2244873046875
0, 6, 63, 323.6322631835938
0, 6, 64, 292.0255737304688
0, 6, 65, 285.2077026367188
0, 6, 66, 307.4319152832031
0, 6, 67, 313.5966186523438
0, 6, 68, 295.2293395996094
0, 6, 69, 279.7510986328125
0, 6, 70, 275.5386657714844
0, 6, 71, 291.05517578125
0, 6, 72, 311.7594299316406
0, 6, 73, 293.0824279785156
0, 6, 74, 330.6011962890625
0, 6, 75, 342.8000183105469
0, 6, 76, 296.0626220703125
0, 6, 77, 288.3833923339844
0, 6, 78, 277.1707458496094
0, 6, 79, 292.1961975097656
0, 6, 80, 299.3411254882812
0, 6, 81, 315.821533203125
0, 6, 82, 320.4235534667969
0, 6, 83, 320.6437072753906
0, 6, 84, 296.7105407714844
0, 6, 85, 302.1730346679688
0, 6, 86, 331.0594787597656
0, 6, 87, 291.4061584472656
0, 6, 88, 306.4264526367188
0, 6, 89, 304.4211730957031
0, 6, 90, 299.3588562011719
0, 6, 91, 313.7040710449219
0, 6, 92, 284.2147216796875
0, 6, 93, 296.3117370605469
0, 6, 94, 274.0270385742188
0, 6, 95, 298.4934692382812
0, 6, 96, 344.1090698242188
0, 6, 97, 307.6314697265625
0, 6, 98, 301.9971313476562
0, 6, 99, 272.1465454101562
0, 6, 100, 309.2201232910156
0, 6, 101, 294.7638244628906
0, 6, 102, 305.9471130371094
0, 6, 103, 307.2130737304688
0, 6, 104, 291.5237426757812
0, 6, 105, 300.9130249023438
0, 6, 106, 307.34716796875
0, 6, 107, 305.03515625
0, 6, 108, 264.7752380371094
0, 6, 109, 185.4764862060547
0, 6, 110, 55.4705696105957
0, 6, 111, 21.26341438293457
0, 6, 112, 12.54684352874756
0, 6, 113, 10.2540225982666
0, 6, 114, 11.85289192199707
0, 6, 115, 12.37167358398438
0, 6, 116, 9.928315162658691
0, 6, 117, 7.248644828796387
0, 6, 118, 8.107943534851074
0, 6, 119, 8.18392276763916
0, 6, 120, 6.529354095458984
0, 6, 121, 5.699523448944092
0, 6, 122, 5.588478565216064
0, 6, 123, 5.634768009185791
0, 6, 124, 7.160557746887207
0, 6, 125, 8.062604904174805
0, 6, 126, 2.920755863189697
0, 6, 127, 5.373360157012939
0, 7, 0, 7.268032550811768
0, 7, 1, 4.046660900115967
0, 7, 2, 8.656445503234863
0, 7, 3, 4.840168476104736
0, 7, 4, 3.738783359527588
0, 7, 5, 5.995297431945801
0, 7, 6, 8.10536003112793
0, 7, 7, 6.985628604888916
0, 7, 8, 5.875888347625732
0, 7, 9, 5.350594520568848
0, 7, 10, 11.21807670593262
0, 7, 11, 13.90078353881836
0, 7, 12, 9.549151420593262
0, 7, 13, 12.12187004089355
0, 7, 14, 10.58589649200439
0, 7, 15, 17.41426467895508
0, 7, 16, 26.27962684631348
0, 7, 17, 95.84928131103516
0, 7, 18, 218.2472991943359
0, 7, 19, 288.5074157714844
0, 7, 20, 298.079345703125
0, 7, 21, 277.3096923828125
0, 7, 22, 299.418701171875
0, 7, 23, 290.2398376464844
0, 7, 24, 313.9322814941406
0, 7, 25, 324.7033996582031
0, 7, 26, 277.6462097167969
0, 7, 27, 298.1797180175781
0, 7, 28, 325.0948486328125
0, 7, 29, 318.0570068359375
0, 7, 30, 298.5819091796875
0, 7, 31, 276.5401611328125
0, 7, 32, 304.0234680175781
0, 7, 33, 261.9371643066406
0, 7, 34, 299.7526245117188
0, 7, 35, 323.24365234375
0, 7, 36, 329.85693359375
0, 7, 37, 326.6300354003906
0, 7, 38, 295.9533386230469
0, 7, 39, 308.9326477050781
0, 7, 40, 288.3900146484375
0, 7, 41, 270.8599853515625
0, 7, 42, 304.1922912597656
0, 7, 43, 274.4869079589844
0, 7, 44, 303.3047790527344
0, 7, 45, 294.5177307128906
0, 7, 46, 280.9989929199219
0, 7, 47, 326.5852661132812
0, 7, 48, 284.43896484375
0, 7, 49, 304.6318664550781
0, 7, 50, 320.7643432617188
0, 7, 51, 299.7951354980469
0, 7, 52, 325.7820434570312
0, 7, 53, 311.2854919433594
0, 7, 54, 322.6895141601562
0, 7, 55, 306.2755126953125
0, 7, 56, 279.5119934082031
0, 7, 57, 281.6618957519531
0, 7, 58, 296.2406005859375
0, 7, 59, 294.2193908691406
0, 7, 60, 322.9089660644531
0, 7, 61, 278.8684997558594
0, 7, 62, 298.6587219238281
0, 7, 63, 292.1046752929688
0, 7, 64, 309.7965087890625
0, 7, 65, 330.6327819824219
0, 7, 66, 319.8325500488281
0, 7, 67, 301.7730407714844
0, 7, 68, 278.8791198730469
0, 7, 69, 294.9510192871094
0, 7, 70, 301.182861328125
0, 7, 71, 309.8416442871094
0, 7, 72, 285.0451965332031
0, 7, 73, 296.347412109375
0, 7, 74, 344.3489685058594
0, 7, 75, 319.3958740234375
0, 7, 76, 322.6651000976562
0, 7, 77, 282.7414245605469
0, 7, 78, 299.3206787109375
0, 7, 79, 297.91357421875
0, 7, 80, 313.6218872070312
0, 7, 81, 318.4461364746094
0, 7, 82, 329.4043884277344
0, 7, 83, 315.1348876953125
0, 7, 84, 309.9022827148438
0, 7, 85, 272.2680969238281
0, 7, 86, 310.6349487304688
0, 7, 87, 309.4400939941406
0, 7, 88, 307.9799499511719
0, 7, 89, 292.4284362792969
0, 7, 90, 306.3941345214844
0, 7, 91, 313.6010437011719
0, 7, 92, 285.5706787109375
0, 7, 93, 307.242919921875
0, 7, 94, 272.4295654296875
0, 7, 95, 300.4448852539062
0, 7, 96, 330.6413269042969
0, 7, 97, 295.3631896972656
0, 7, 98, 289.6995544433594
0, 7, 99, 312.409912109375
0, 7, 100, 281.1391906738281
0, 7, 101, 275.3116149902344
0, 7, 102, 290.4521789550781
0, 7, 103, 293.6179809570312
0, 7, 104, 275.1897277832031
0, 7, 105, 306.6614990234375
0, 7, 106, 317.5498657226562
0, 7, 107, 298.6065368652344
0, 7, 108, 277.3338012695312
0, 7, 109, 236.8439331054688
0, 7, 110, 98.94588470458984
0, 7, 111, 23.66874313354492
0, 7, 112, 13.30760097503662
0, 7, 113, 17.25950241088867
0, 7, 114, 13.02200698852539
0, 7, 115, 10.21731376647949
0, 7, 116, 10.37256813049316
0, 7, 117, 4.693244934082031
0, 7, 118, 7.762781620025635
0, 7, 119, 8.104922294616699
0, 7, 120, 5.380496978759766
0, 7, 121, 6.629415988922119
0, 7, 122, 7.715686321258545
0, 7, 123, 5.100018501281738
0, 7, 124, 2.872372627258301
0, 7, 125, 6.102481365203857
0, 7, 126, 7.8262619972229
0, 7, 127, 5.265328407287598
0, 8, 0, 5.590763092041016
0, 8, 1, 3.532262802124023
0, 8, 2, 2.990958213806152
0, 8, 3, 2.881478071212769
0, 8, 4, 3.617019891738892
0, 8, 5, 4.588846683502197
0, 8, 6, 6.128610610961914
0, 8, 7, 6.200765132904053
0, 8, 8, 8.867263793945312
0, 8, 9, 4.652097225189209
0, 8, 10, 7.335746765136719
0, 8, 11, 11.79436111450195
0, 8, 12, 12.18670654296875
0, 8, 13, 15.32692623138428
0, 8, 14, 14.50542068481445
0, 8, 15, 17.6249942779541
0, 8, 16, 32.51236724853516
0, 8, 17, 130.82763671875
0, 8, 18, 243.83154296875
0, 8, 19, 293.3750915527344
0, 8, 20, 287.2731628417969
0, 8, 21, 306.3568115234375
0, 8, 22, 297.4826354980469
0, 8, 23, 274.2489624023438
0, 8, 24, 268.0498046875
0, 8, 25, 276.2232971191406
0, 8, 26, 306.2777709960938
0, 8, 27, 307.4204406738281
0, 8, 28, 305.1401672363281
0, 8, 29, 319.6106872558594
0, 8, 30, 313.2062377929688
0, 8, 31, 305.8604431152344
0, 8, 32, 281.6753845214844
0, 8, 33, 293.874755859375
0, 8, 34, 287.5521850585938
0, 8, 35, 282.4073791503906
0, 8, 36, 314.9205627441406
0, 8, 37, 337.8127746582031
0, 8, 38, 331.8568115234375
0, 8, 39, 281.9577331542969
0, 8, 40, 304.0858154296875
