# TOPAS Version: 3.1.p3
# Parameter File: batch_inserts_56.txt
# Results for scorer Readout_Adipose
# Scored in component: MyBox
# X in 1 bin  of 0.75 cm
# Y in 512 bins of 0.0783984 cm
# Z in 128 bins of 0.078125 cm
# EnergyDeposit ( MeV ) : Sum   
0, 0, 0, 19.12099647521973
0, 0, 1, 23.57369041442871
0, 0, 2, 25.90782737731934
0, 0, 3, 24.67918586730957
0, 0, 4, 18.28945732116699
0, 0, 5, 18.49770355224609
0, 0, 6, 21.30317497253418
0, 0, 7, 35.60426330566406
0, 0, 8, 23.30719566345215
0, 0, 9, 24.35924530029297
0, 0, 10, 25.59611511230469
0, 0, 11, 29.62419891357422
0, 0, 12, 33.85234451293945
0, 0, 13, 32.27684020996094
0, 0, 14, 33.53676223754883
0, 0, 15, 50.4251708984375
0, 0, 16, 44.14693069458008
0, 0, 17, 46.60919189453125
0, 0, 18, 74.40126800537109
0, 0, 19, 187.7736968994141
0, 0, 20, 701.8635864257812
0, 0, 21, 1190.756469726562
0, 0, 22, 1249.186889648438
0, 0, 23, 1273.39892578125
0, 0, 24, 1286.776977539062
0, 0, 25, 1352.697265625
0, 0, 26, 1274.787475585938
0, 0, 27, 1283.414794921875
0, 0, 28, 1320.518676757812
0, 0, 29, 1268.118041992188
0, 0, 30, 1262.413208007812
0, 0, 31, 1280.749877929688
0, 0, 32, 1266.402099609375
0, 0, 33, 1241.942749023438
0, 0, 34, 1323.808837890625
0, 0, 35, 1301.777587890625
0, 0, 36, 1242.149169921875
0, 0, 37, 1280.043579101562
0, 0, 38, 1246.5068359375
0, 0, 39, 1240.471557617188
0, 0, 40, 1221.438232421875
0, 0, 41, 1267.292602539062
0, 0, 42, 1254.260498046875
0, 0, 43, 1268.61669921875
0, 0, 44, 1222.883666992188
0, 0, 45, 1286.918701171875
0, 0, 46, 1264.095092773438
0, 0, 47, 1241.6103515625
0, 0, 48, 1277.164794921875
0, 0, 49, 1287.468017578125
0, 0, 50, 1311.447509765625
0, 0, 51, 1264.941772460938
0, 0, 52, 1358.745239257812
0, 0, 53, 1328.36083984375
0, 0, 54, 1301.680053710938
0, 0, 55, 1237.394287109375
0, 0, 56, 1319.035034179688
0, 0, 57, 1293.65478515625
0, 0, 58, 1256.786254882812
0, 0, 59, 1331.1455078125
0, 0, 60, 1324.011474609375
0, 0, 61, 1261.70068359375
0, 0, 62, 1244.076171875
0, 0, 63, 1276.250122070312
0, 0, 64, 1331.748657226562
0, 0, 65, 1285.18359375
0, 0, 66, 1318.168212890625
0, 0, 67, 1218.2900390625
0, 0, 68, 1310.796875
0, 0, 69, 1326.29833984375
0, 0, 70, 1343.654052734375
0, 0, 71, 1290.144409179688
0, 0, 72, 1317.894897460938
0, 0, 73, 1240.19580078125
0, 0, 74, 1292.193237304688
0, 0, 75, 1295.280151367188
0, 0, 76, 1253.116577148438
0, 0, 77, 1286.142944335938
0, 0, 78, 1315.097534179688
0, 0, 79, 1324.560791015625
0, 0, 80, 1256.120971679688
0, 0, 81, 1324.634155273438
0, 0, 82, 1287.845581054688
0, 0, 83, 1291.264038085938
0, 0, 84, 1323.351928710938
0, 0, 85, 1233.858520507812
0, 0, 86, 1265.13525390625
0, 0, 87, 1254.29638671875
0, 0, 88, 1259.352416992188
0, 0, 89, 1337.377319335938
0, 0, 90, 1278.078369140625
0, 0, 91, 1353.847412109375
0, 0, 92, 1304.925415039062
0, 0, 93, 1276.691040039062
0, 0, 94, 1240.277954101562
0, 0, 95, 1324.345458984375
0, 0, 96, 1281.959106445312
0, 0, 97, 1324.186767578125
0, 0, 98, 1254.789672851562
0, 0, 99, 1251.007202148438
0, 0, 100, 1285.744750976562
0, 0, 101, 1312.339599609375
0, 0, 102, 1232.437377929688
0, 0, 103, 1325.982055664062
0, 0, 104, 1263.359375
0, 0, 105, 1272.033569335938
0, 0, 106, 1207.796264648438
0, 0, 107, 781.9220581054688
0, 0, 108, 195.1744842529297
0, 0, 109, 69.95241546630859
0, 0, 110, 60.06693267822266
0, 0, 111, 39.01607513427734
0, 0, 112, 35.85514068603516
0, 0, 113, 33.693115234375
0, 0, 114, 38.43523788452148
0, 0, 115, 29.62602424621582
0, 0, 116, 29.4429874420166
0, 0, 117, 31.62901878356934
0, 0, 118, 23.20658493041992
0, 0, 119, 23.01516914367676
0, 0, 120, 21.13306427001953
0, 0, 121, 29.72733497619629
0, 0, 122, 18.93142127990723
0, 0, 123, 18.13737678527832
0, 0, 124, 21.94989967346191
0, 0, 125, 24.49707794189453
0, 0, 126, 23.39678955078125
0, 0, 127, 14.93948936462402
0, 1, 0, 27.1736888885498
0, 1, 1, 23.25255012512207
0, 1, 2, 24.79370498657227
0, 1, 3, 22.60348129272461
0, 1, 4, 21.76692962646484
0, 1, 5, 24.39057350158691
0, 1, 6, 25.36530494689941
0, 1, 7, 24.91399574279785
0, 1, 8, 36.5943717956543
0, 1, 9, 32.08845901489258
0, 1, 10, 32.12705993652344
0, 1, 11, 44.53771591186523
0, 1, 12, 41.48885726928711
0, 1, 13, 45.38131713867188
0, 1, 14, 39.09419250488281
0, 1, 15, 46.54796981811523
0, 1, 16, 58.90632247924805
0, 1, 17, 65.35762786865234
0, 1, 18, 97.21867370605469
0, 1, 19, 400.095947265625
0, 1, 20, 1041.4560546875
0, 1, 21, 1372.793701171875
0, 1, 22, 1476.2060546875
0, 1, 23, 1466.182250976562
0, 1, 24, 1449.665893554688
0, 1, 25, 1423.232666015625
0, 1, 26, 1475.668090820312
0, 1, 27, 1462.126098632812
0, 1, 28, 1486.538452148438
0, 1, 29, 1476.990966796875
0, 1, 30, 1505.485229492188
0, 1, 31, 1488.3427734375
0, 1, 32, 1411.577880859375
0, 1, 33, 1500.955322265625
0, 1, 34, 1499.2236328125
0, 1, 35, 1460.509521484375
0, 1, 36, 1488.225830078125
0, 1, 37, 1406.013427734375
0, 1, 38, 1395.501586914062
0, 1, 39, 1526.814697265625
0, 1, 40, 1465.794189453125
0, 1, 41, 1491.325317382812
0, 1, 42, 1494.648193359375
0, 1, 43, 1505.368286132812
0, 1, 44, 1452.02685546875
0, 1, 45, 1485.034423828125
0, 1, 46, 1414.97412109375
0, 1, 47, 1433.8349609375
0, 1, 48, 1432.133422851562
0, 1, 49, 1488.525268554688
0, 1, 50, 1439.773071289062
0, 1, 51, 1475.854125976562
0, 1, 52, 1476.716430664062
0, 1, 53, 1477.146850585938
0, 1, 54, 1502.014038085938
0, 1, 55, 1493.2548828125
0, 1, 56, 1468.9189453125
0, 1, 57, 1457.355224609375
0, 1, 58, 1429.087158203125
0, 1, 59, 1481.825317382812
0, 1, 60, 1462.39306640625
0, 1, 61, 1452.424194335938
0, 1, 62, 1453.536376953125
0, 1, 63, 1417.08251953125
0, 1, 64, 1470.414794921875
0, 1, 65, 1416.922485351562
0, 1, 66, 1435.667114257812
0, 1, 67, 1457.83203125
0, 1, 68, 1392.47412109375
0, 1, 69, 1465.23681640625
0, 1, 70, 1430.10498046875
0, 1, 71, 1500.714721679688
0, 1, 72, 1434.64013671875
0, 1, 73, 1488.225341796875
0, 1, 74, 1467.1572265625
0, 1, 75, 1478.454833984375
0, 1, 76, 1459.6171875
0, 1, 77, 1471.245971679688
0, 1, 78, 1453.643920898438
0, 1, 79, 1501.004028320312
0, 1, 80, 1458.580810546875
0, 1, 81, 1430.997192382812
0, 1, 82, 1473.091918945312
0, 1, 83, 1464.227172851562
0, 1, 84, 1534.7958984375
0, 1, 85, 1445.173950195312
0, 1, 86, 1406.418823242188
0, 1, 87, 1419.252319335938
0, 1, 88, 1473.500732421875
0, 1, 89, 1481.52197265625
0, 1, 90, 1422.040283203125
0, 1, 91, 1461.300415039062
0, 1, 92, 1411.269165039062
0, 1, 93, 1460.5556640625
0, 1, 94, 1467.61962890625
0, 1, 95, 1419.36181640625
0, 1, 96, 1496.921630859375
0, 1, 97, 1520.8662109375
0, 1, 98, 1474.380249023438
0, 1, 99, 1417.141845703125
0, 1, 100, 1444.950317382812
0, 1, 101, 1412.864990234375
0, 1, 102, 1439.1142578125
0, 1, 103, 1414.657470703125
0, 1, 104, 1408.818359375
0, 1, 105, 1462.033081054688
0, 1, 106, 1364.708374023438
0, 1, 107, 1019.225402832031
0, 1, 108, 403.7713317871094
0, 1, 109, 94.89322662353516
0, 1, 110, 58.65846633911133
0, 1, 111, 57.23180770874023
0, 1, 112, 53.48224258422852
0, 1, 113, 38.97576522827148
0, 1, 114, 39.45040130615234
0, 1, 115, 40.07151031494141
0, 1, 116, 32.61318969726562
0, 1, 117, 34.75555038452148
0, 1, 118, 34.01069259643555
0, 1, 119, 28.07630729675293
0, 1, 120, 31.4532642364502
0, 1, 121, 24.50900268554688
0, 1, 122, 23.4435920715332
0, 1, 123, 24.89332580566406
0, 1, 124, 31.32760429382324
0, 1, 125, 23.25273895263672
0, 1, 126, 21.59525489807129
0, 1, 127, 19.99198532104492
0, 2, 0, 21.81295013427734
0, 2, 1, 23.43545150756836
0, 2, 2, 23.39648628234863
0, 2, 3, 18.6884937286377
0, 2, 4, 21.67977333068848
0, 2, 5, 19.89359855651855
0, 2, 6, 26.18875694274902
0, 2, 7, 23.73035621643066
0, 2, 8, 28.54538917541504
0, 2, 9, 27.07341003417969
0, 2, 10, 29.03539657592773
0, 2, 11, 34.01263809204102
0, 2, 12, 40.54911041259766
0, 2, 13, 48.75179290771484
0, 2, 14, 49.23789978027344
0, 2, 15, 52.04643249511719
0, 2, 16, 58.19483184814453
0, 2, 17, 76.38452911376953
0, 2, 18, 147.1711578369141
0, 2, 19, 608.8380737304688
0, 2, 20, 1287.899169921875
0, 2, 21, 1429.657470703125
0, 2, 22, 1453.884765625
0, 2, 23, 1406.879028320312
0, 2, 24, 1445.128540039062
0, 2, 25, 1521.674438476562
0, 2, 26, 1557.816528320312
0, 2, 27, 1453.662353515625
0, 2, 28, 1456.923950195312
0, 2, 29, 1458.967041015625
0, 2, 30, 1466.024169921875
0, 2, 31, 1534.3388671875
0, 2, 32, 1506.03857421875
0, 2, 33, 1439.593017578125
0, 2, 34, 1472.501831054688
0, 2, 35, 1470.300048828125
0, 2, 36, 1529.106079101562
0, 2, 37, 1544.218139648438
0, 2, 38, 1507.201416015625
0, 2, 39, 1464.266845703125
0, 2, 40, 1501.750610351562
0, 2, 41, 1515.213012695312
0, 2, 42, 1499.742797851562
0, 2, 43, 1550.1171875
0, 2, 44, 1459.485229492188
0, 2, 45, 1486.633544921875
0, 2, 46, 1429.164306640625
0, 2, 47, 1447.464965820312
0, 2, 48, 1397.135864257812
0, 2, 49, 1461.126953125
0, 2, 50, 1449.752563476562
0, 2, 51, 1445.417724609375
0, 2, 52, 1492.10498046875
0, 2, 53, 1520.16748046875
0, 2, 54, 1524.281616210938
0, 2, 55, 1491.903564453125
0, 2, 56, 1463.126953125
0, 2, 57, 1413.92431640625
0, 2, 58, 1452.267944335938
0, 2, 59, 1447.683959960938
0, 2, 60, 1474.588500976562
0, 2, 61, 1448.209716796875
0, 2, 62, 1468.880859375
0, 2, 63, 1507.320190429688
0, 2, 64, 1460.098022460938
0, 2, 65, 1425.29736328125
0, 2, 66, 1485.884521484375
0, 2, 67, 1505.159057617188
0, 2, 68, 1545.6845703125
0, 2, 69, 1537.377685546875
0, 2, 70, 1511.450439453125
0, 2, 71, 1457.69921875
0, 2, 72, 1521.497924804688
0, 2, 73, 1518.039794921875
0, 2, 74, 1489.787109375
0, 2, 75, 1505.80517578125
0, 2, 76, 1448.350830078125
0, 2, 77, 1510.080444335938
0, 2, 78, 1428.176391601562
0, 2, 79, 1543.329711914062
0, 2, 80, 1479.70361328125
0, 2, 81, 1462.057983398438
0, 2, 82, 1559.700073242188
0, 2, 83, 1514.810180664062
0, 2, 84, 1492.869018554688
0, 2, 85, 1512.423950195312
0, 2, 86, 1542.915893554688
0, 2, 87, 1487.128540039062
0, 2, 88, 1537.313232421875
0, 2, 89, 1464.182739257812
0, 2, 90, 1434.086059570312
0, 2, 91, 1407.65869140625
0, 2, 92, 1477.180786132812
0, 2, 93, 1487.717529296875
0, 2, 94, 1447.281494140625
0, 2, 95, 1546.658569335938
0, 2, 96, 1518.22900390625
0, 2, 97, 1454.791748046875
0, 2, 98, 1464.943725585938
0, 2, 99, 1399.595581054688
0, 2, 100, 1469.308715820312
0, 2, 101, 1481.181762695312
0, 2, 102, 1461.609252929688
0, 2, 103, 1391.518188476562
0, 2, 104, 1413.717407226562
0, 2, 105, 1398.680908203125
0, 2, 106, 1456.993408203125
0, 2, 107, 1271.880249023438
0, 2, 108, 623.475341796875
0, 2, 109, 172.4901733398438
0, 2, 110, 66.49440002441406
0, 2, 111, 63.06575393676758
0, 2, 112, 45.77150344848633
0, 2, 113, 42.74300765991211
0, 2, 114, 45.23409271240234
0, 2, 115, 42.03806304931641
0, 2, 116, 31.83020973205566
0, 2, 117, 33.54399490356445
0, 2, 118, 27.24366569519043
0, 2, 119, 29.17617034912109
0, 2, 120, 30.18774795532227
0, 2, 121, 20.77262878417969
0, 2, 122, 25.21685791015625
0, 2, 123, 24.38119888305664
0, 2, 124, 21.67939758300781
0, 2, 125, 28.31708335876465
0, 2, 126, 21.64175415039062
0, 2, 127, 24.0564022064209
0, 3, 0, 17.7545051574707
0, 3, 1, 23.61728858947754
0, 3, 2, 17.67056655883789
0, 3, 3, 23.18880653381348
0, 3, 4, 23.1816234588623
0, 3, 5, 21.61016082763672
0, 3, 6, 36.45151519775391
0, 3, 7, 31.06554985046387
0, 3, 8, 27.47008895874023
0, 3, 9, 30.13489151000977
0, 3, 10, 35.81569671630859
0, 3, 11, 33.94710540771484
0, 3, 12, 41.78237533569336
0, 3, 13, 52.4532585144043
0, 3, 14, 53.94644165039062
0, 3, 15, 54.8253059387207
0, 3, 16, 65.86100769042969
0, 3, 17, 92.26910400390625
0, 3, 18, 235.2134857177734
0, 3, 19, 881.4583740234375
0, 3, 20, 1388.443725585938
0, 3, 21, 1507.128051757812
0, 3, 22, 1469.776123046875
0, 3, 23, 1451.291625976562
0, 3, 24, 1440.740600585938
0, 3, 25, 1463.362426757812
0, 3, 26, 1493.273803710938
0, 3, 27, 1468.084228515625
0, 3, 28, 1491.638671875
0, 3, 29, 1544.019165039062
0, 3, 30, 1580.546875
0, 3, 31, 1515.287475585938
0, 3, 32, 1542.95263671875
0, 3, 33, 1537.509399414062
0, 3, 34, 1487.34375
0, 3, 35, 1460.190307617188
0, 3, 36, 1452.183959960938
0, 3, 37, 1518.326782226562
0, 3, 38, 1517.038818359375
0, 3, 39, 1436.726806640625
0, 3, 40, 1445.591430664062
0, 3, 41, 1558.089721679688
0, 3, 42, 1463.120483398438
0, 3, 43, 1456.578125
0, 3, 44, 1452.128295898438
0, 3, 45, 1509.238525390625
0, 3, 46, 1510.49658203125
0, 3, 47, 1440.967163085938
0, 3, 48, 1507.714599609375
0, 3, 49, 1450.695922851562
0, 3, 50, 1487.415405273438
0, 3, 51, 1536.327392578125
0, 3, 52, 1537.041381835938
0, 3, 53, 1464.4609375
0, 3, 54, 1532.771240234375
0, 3, 55, 1500.673706054688
0, 3, 56, 1432.396118164062
0, 3, 57, 1502.727661132812
0, 3, 58, 1520.660034179688
0, 3, 59, 1509.708129882812
0, 3, 60, 1533.995483398438
0, 3, 61, 1485.026977539062
0, 3, 62, 1488.140014648438
0, 3, 63, 1496.343994140625
0, 3, 64, 1500.048217773438
0, 3, 65, 1515.27490234375
0, 3, 66, 1553.893188476562
0, 3, 67, 1546.130004882812
0, 3, 68, 1450.03955078125
0, 3, 69, 1467.222045898438
0, 3, 70, 1387.283569335938
0, 3, 71, 1466.419677734375
0, 3, 72, 1549.836669921875
0, 3, 73, 1501.945434570312
0, 3, 74, 1465.604248046875
0, 3, 75, 1458.9912109375
0, 3, 76, 1576.180419921875
0, 3, 77, 1537.240356445312
0, 3, 78, 1428.039794921875
0, 3, 79, 1492.5263671875
0, 3, 80, 1460.389892578125
0, 3, 81, 1474.22509765625
0, 3, 82, 1557.070190429688
0, 3, 83, 1511.508911132812
0, 3, 84, 1558.876586914062
0, 3, 85, 1479.479614257812
0, 3, 86, 1522.665161132812
0, 3, 87, 1542.28759765625
0, 3, 88, 1458.044677734375
0, 3, 89, 1447.5771484375
0, 3, 90, 1454.566284179688
0, 3, 91, 1417.182495117188
0, 3, 92, 1518.451782226562
0, 3, 93, 1500.463012695312
0, 3, 94, 1515.348754882812
0, 3, 95, 1541.68994140625
0, 3, 96, 1508.819946289062
0, 3, 97, 1458.29443359375
0, 3, 98, 1433.005981445312
0, 3, 99, 1471.75
0, 3, 100, 1474.311401367188
0, 3, 101, 1473.919189453125
0, 3, 102, 1518.795166015625
0, 3, 103, 1552.208984375
0, 3, 104, 1497.619018554688
0, 3, 105, 1520.942138671875
0, 3, 106, 1479.258056640625
0, 3, 107, 1340.794311523438
0, 3, 108, 868.7784423828125
0, 3, 109, 262.2040100097656
0, 3, 110, 102.5585784912109
0, 3, 111, 63.17345428466797
0, 3, 112, 58.53546905517578
0, 3, 113, 52.58334732055664
0, 3, 114, 54.06744766235352
0, 3, 115, 53.56783676147461
0, 3, 116, 37.36737060546875
0, 3, 117, 37.60212707519531
0, 3, 118, 36.31267166137695
0, 3, 119, 35.58113861083984
0, 3, 120, 34.16796875
0, 3, 121, 23.11173629760742
0, 3, 122, 23.91312789916992
0, 3, 123, 28.18805503845215
0, 3, 124, 22.68462562561035
0, 3, 125, 26.06026268005371
0, 3, 126, 23.16519355773926
0, 3, 127, 19.10297775268555
0, 4, 0, 21.18819808959961
0, 4, 1, 22.98896408081055
0, 4, 2, 16.27298927307129
0, 4, 3, 22.32553482055664
0, 4, 4, 31.72423934936523
0, 4, 5, 30.03719711303711
0, 4, 6, 26.69623756408691
0, 4, 7, 31.15511131286621
0, 4, 8, 26.8618049621582
0, 4, 9, 31.87571907043457
0, 4, 10, 31.46329689025879
0, 4, 11, 35.71946716308594
0, 4, 12, 45.9130744934082
0, 4, 13, 49.37152481079102
0, 4, 14, 53.4303092956543
0, 4, 15, 60.89805603027344
0, 4, 16, 74.62677001953125
0, 4, 17, 114.4437103271484
0, 4, 18, 439.0874938964844
0, 4, 19, 1181.60888671875
0, 4, 20, 1442.798828125
0, 4, 21, 1421.989868164062
0, 4, 22, 1432.21044921875
0, 4, 23, 1452.388305664062
0, 4, 24, 1474.33154296875
0, 4, 25, 1403.585205078125
0, 4, 26, 1536.454223632812
0, 4, 27, 1544.915161132812
0, 4, 28, 1513.377563476562
0, 4, 29, 1513.90869140625
0, 4, 30, 1526.463256835938
0, 4, 31, 1570.014892578125
0, 4, 32, 1517.131103515625
0, 4, 33, 1493.075927734375
0, 4, 34, 1465.733154296875
0, 4, 35, 1561.861694335938
0, 4, 36, 1507.5556640625
0, 4, 37, 1513.805053710938
0, 4, 38, 1529.277099609375
0, 4, 39, 1470.230712890625
0, 4, 40, 1511.144653320312
0, 4, 41, 1583.753540039062
0, 4, 42, 1563.3271484375
0, 4, 43, 1470.422973632812
0, 4, 44, 1501.400024414062
0, 4, 45, 1520.867309570312
0, 4, 46, 1469.76953125
0, 4, 47, 1505.139038085938
0, 4, 48, 1526.605224609375
0, 4, 49, 1469.09130859375
0, 4, 50, 1517.706665039062
0, 4, 51, 1493.156860351562
0, 4, 52, 1491.178100585938
0, 4, 53, 1452.651977539062
0, 4, 54, 1445.317016601562
0, 4, 55, 1524.129272460938
0, 4, 56, 1454.501708984375
0, 4, 57, 1496.40087890625
0, 4, 58, 1457.915405273438
0, 4, 59, 1465.192993164062
0, 4, 60, 1522.746826171875
0, 4, 61, 1497.409423828125
0, 4, 62, 1509.246948242188
0, 4, 63, 1545.026611328125
0, 4, 64, 1592.660400390625
0, 4, 65, 1421.378295898438
0, 4, 66, 1516.792846679688
0, 4, 67, 1521.94873046875
0, 4, 68, 1492.055053710938
0, 4, 69, 1459.311279296875
0, 4, 70, 1544.32373046875
0, 4, 71, 1516.435180664062
0, 4, 72, 1529.004150390625
0, 4, 73, 1495.878173828125
0, 4, 74, 1487.149536132812
0, 4, 75, 1534.898803710938
0, 4, 76, 1478.269775390625
0, 4, 77, 1496.160278320312
0, 4, 78, 1499.420654296875
0, 4, 79, 1482.012817382812
0, 4, 80, 1510.7392578125
0, 4, 81, 1519.492919921875
0, 4, 82, 1571.599243164062
0, 4, 83, 1502.115112304688
0, 4, 84, 1536.182373046875
0, 4, 85, 1553.41357421875
0, 4, 86, 1526.699462890625
0, 4, 87, 1493.638671875
0, 4, 88, 1521.626098632812
0, 4, 89, 1479.344482421875
0, 4, 90, 1543.1328125
0, 4, 91, 1553.7880859375
0, 4, 92, 1492.838745117188
0, 4, 93, 1512.156616210938
0, 4, 94, 1482.866577148438
0, 4, 95, 1513.499267578125
0, 4, 96, 1442.927124023438
0, 4, 97, 1411.518432617188
0, 4, 98, 1551.477905273438
0, 4, 99, 1511.052124023438
0, 4, 100, 1489.726440429688
0, 4, 101, 1447.334716796875
0, 4, 102, 1446.873657226562
0, 4, 103, 1517.63427734375
0, 4, 104, 1513.036743164062
0, 4, 105, 1558.6845703125
0, 4, 106, 1477.253662109375
0, 4, 107, 1454.453979492188
0, 4, 108, 1119.431884765625
0, 4, 109, 435.1033020019531
0, 4, 110, 100.7834396362305
0, 4, 111, 71.53811645507812
0, 4, 112, 59.49839019775391
0, 4, 113, 50.17191696166992
0, 4, 114, 50.01831817626953
0, 4, 115, 46.13213348388672
0, 4, 116, 41.28780746459961
0, 4, 117, 43.7824592590332
0, 4, 118, 39.59328079223633
0, 4, 119, 36.79955673217773
0, 4, 120, 35.5050163269043
0, 4, 121, 29.56559371948242
0, 4, 122, 30.19679260253906
0, 4, 123, 27.93991661071777
0, 4, 124, 15.84314823150635
0, 4, 125, 26.96128463745117
0, 4, 126, 19.63246154785156
0, 4, 127, 22.21717643737793
0, 5, 0, 22.21076965332031
0, 5, 1, 26.70230865478516
0, 5, 2, 26.93657875061035
0, 5, 3, 23.46417045593262
0, 5, 4, 19.12479019165039
0, 5, 5, 41.10210418701172
0, 5, 6, 30.02532577514648
0, 5, 7, 29.2008056640625
0, 5, 8, 35.43254470825195
0, 5, 9, 32.4373893737793
0, 5, 10, 33.22747039794922
0, 5, 11, 34.90653991699219
0, 5, 12, 42.94396591186523
0, 5, 13, 42.99081802368164
0, 5, 14, 63.41000366210938
0, 5, 15, 79.2587890625
0, 5, 16, 81.11510467529297
0, 5, 17, 155.7468109130859
0, 5, 18, 673.4739379882812
0, 5, 19, 1345.222412109375
0, 5, 20, 1525.318969726562
0, 5, 21, 1490.86962890625
0, 5, 22, 1493.7548828125
0, 5, 23, 1529.671142578125
0, 5, 24, 1462.668701171875
0, 5, 25, 1429.395385742188
0, 5, 26, 1525.936157226562
0, 5, 27, 1540.795288085938
0, 5, 28, 1486.476928710938
0, 5, 29, 1522.553100585938
0, 5, 30, 1496.233276367188
0, 5, 31, 1499.206787109375
0, 5, 32, 1594.108520507812
0, 5, 33, 1506.806762695312
0, 5, 34, 1484.232299804688
0, 5, 35, 1507.0615234375
0, 5, 36, 1442.494262695312
0, 5, 37, 1529.026977539062
0, 5, 38, 1552.979370117188
0, 5, 39, 1550.027587890625
0, 5, 40, 1501.845092773438
0, 5, 41, 1482.805297851562
0, 5, 42, 1540.9267578125
0, 5, 43, 1531.355834960938
0, 5, 44, 1538.036254882812
0, 5, 45, 1503.206787109375
0, 5, 46, 1492.640625
0, 5, 47, 1477.462280273438
0, 5, 48, 1506.28564453125
0, 5, 49, 1524.607421875
0, 5, 50, 1505.154663085938
0, 5, 51, 1522.482055664062
0, 5, 52, 1428.81689453125
0, 5, 53, 1522.5341796875
0, 5, 54, 1516.107177734375
0, 5, 55, 1527.79345703125
0, 5, 56, 1482.70361328125
0, 5, 57, 1538.938842773438
0, 5, 58, 1509.8818359375
0, 5, 59, 1484.167358398438
0, 5, 60, 1542.6708984375
0, 5, 61, 1446.057983398438
0, 5, 62, 1587.579345703125
0, 5, 63, 1430.699340820312
0, 5, 64, 1487.890014648438
0, 5, 65, 1465.526245117188
0, 5, 66, 1531.521484375
0, 5, 67, 1559.157470703125
0, 5, 68, 1466.93359375
0, 5, 69, 1485.596923828125
0, 5, 70, 1491.958374023438
0, 5, 71, 1475.128173828125
0, 5, 72, 1541.057983398438
0, 5, 73, 1460.633422851562
0, 5, 74, 1491.814575195312
0, 5, 75, 1484.167724609375
0, 5, 76, 1477.904296875
0, 5, 77, 1519.8525390625
0, 5, 78, 1529.893920898438
0, 5, 79, 1507.978393554688
0, 5, 80, 1518.358276367188
0, 5, 81, 1593.991455078125
0, 5, 82, 1527.34619140625
0, 5, 83, 1495.124877929688
0, 5, 84, 1534.007202148438
0, 5, 85, 1519.57958984375
0, 5, 86, 1554.791870117188
0, 5, 87, 1474.117431640625
0, 5, 88, 1498.01953125
0, 5, 89, 1481.51220703125
0, 5, 90, 1484.243286132812
0, 5, 91, 1550.915283203125
0, 5, 92, 1489.060546875
0, 5, 93, 1560.073364257812
0, 5, 94, 1515.969970703125
0, 5, 95, 1563.530883789062
0, 5, 96, 1500.157104492188
0, 5, 97, 1510.665893554688
0, 5, 98, 1508.198974609375
0, 5, 99, 1545.789916992188
0, 5, 100, 1437.364379882812
0, 5, 101, 1431.241088867188
0, 5, 102, 1514.88818359375
0, 5, 103, 1474.761596679688
0, 5, 104, 1461.537841796875
0, 5, 105, 1492.029907226562
0, 5, 106, 1459.334228515625
0, 5, 107, 1399.842163085938
0, 5, 108, 1283.748046875
0, 5, 109, 721.0014038085938
0, 5, 110, 191.8137664794922
0, 5, 111, 84.25275421142578
0, 5, 112, 80.15965270996094
0, 5, 113, 68.98831939697266
0, 5, 114, 54.06005859375
0, 5, 115, 49.48513412475586
0, 5, 116, 38.36170196533203
0, 5, 117, 37.35404586791992
0, 5, 118, 39.29220199584961
0, 5, 119, 24.17767715454102
0, 5, 120, 30.78766822814941
0, 5, 121, 23.45036125183105
0, 5, 122, 28.95398902893066
0, 5, 123, 25.9015064239502
0, 5, 124, 30.54313468933105
0, 5, 125, 22.701171875
0, 5, 126, 22.3265323638916
0, 5, 127, 21.62030792236328
0, 6, 0, 22.5996150970459
0, 6, 1, 30.00201797485352
0, 6, 2, 33.7389030456543
0, 6, 3, 24.70834732055664
0, 6, 4, 25.78279876708984
0, 6, 5, 33.23893356323242
0, 6, 6, 31.45278549194336
0, 6, 7, 28.94461441040039
0, 6, 8, 32.37499618530273
0, 6, 9, 30.86736106872559
0, 6, 10, 38.10630416870117
0, 6, 11, 43.8978385925293
0, 6, 12, 43.86911773681641
0, 6, 13, 60.11365509033203
0, 6, 14, 61.60798263549805
0, 6, 15, 82.29608917236328
0, 6, 16, 110.5060882568359
0, 6, 17, 296.6641235351562
0, 6, 18, 897.539306640625
0, 6, 19, 1375.411987304688
0, 6, 20, 1437.08642578125
0, 6, 21, 1534.82861328125
0, 6, 22, 1506.60791015625
0, 6, 23, 1528.254028320312
0, 6, 24, 1479.145141601562
0, 6, 25, 1525.679931640625
0, 6, 26, 1513.722045898438
0, 6, 27, 1520.974853515625
0, 6, 28, 1552.489624023438
0, 6, 29, 1577.22900390625
0, 6, 30, 1521.760498046875
0, 6, 31, 1496.184448242188
0, 6, 32, 1526.283447265625
0, 6, 33, 1492.631225585938
0, 6, 34, 1561.044921875
0, 6, 35, 1504.496704101562
0, 6, 36, 1438.303344726562
0, 6, 37, 1546.100341796875
0, 6, 38, 1521.450317382812
0, 6, 39, 1527.056762695312
0, 6, 40, 1457.510131835938
0, 6, 41, 1441.268798828125
0, 6, 42, 1517.862426757812
0, 6, 43, 1488.066772460938
0, 6, 44, 1432.224609375
0, 6, 45, 1543.617431640625
0, 6, 46, 1553.176147460938
0, 6, 47, 1496.96484375
0, 6, 48, 1525.45361328125
0, 6, 49, 1509.233154296875
0, 6, 50, 1574.330078125
0, 6, 51, 1502.593994140625
0, 6, 52, 1565.392700195312
0, 6, 53, 1473.345336914062
0, 6, 54, 1497.155395507812
0, 6, 55, 1575.731689453125
0, 6, 56, 1525.124145507812
0, 6, 57, 1505.03125
0, 6, 58, 1469.348754882812
0, 6, 59, 1523.65087890625
0, 6, 60, 1470.263305664062
0, 6, 61, 1574.940673828125
0, 6, 62, 1549.485473632812
0, 6, 63, 1496.083740234375
0, 6, 64, 1408.545166015625
0, 6, 65, 1495.109252929688
0, 6, 66, 1509.389770507812
0, 6, 67, 1511.717041015625
0, 6, 68, 1542.874633789062
0, 6, 69, 1482.8583984375
0, 6, 70, 1524.193969726562
0, 6, 71, 1469.435180664062
0, 6, 72, 1597.449584960938
0, 6, 73, 1485.487060546875
0, 6, 74, 1561.044311523438
0, 6, 75, 1540.318237304688
0, 6, 76, 1565.825927734375
0, 6, 77, 1499.032958984375
0, 6, 78, 1445.277465820312
0, 6, 79, 1554.281127929688
0, 6, 80, 1486.136840820312
0, 6, 81, 1485.657470703125
0, 6, 82, 1504.42236328125
0, 6, 83, 1527.244018554688
0, 6, 84, 1524.250366210938
0, 6, 85, 1537.2119140625
0, 6, 86, 1546.45458984375
0, 6, 87, 1574.87255859375
0, 6, 88, 1479.324829101562
0, 6, 89, 1567.655883789062
0, 6, 90, 1492.126342773438
0, 6, 91, 1542.948364257812
0, 6, 92, 1484.67822265625
0, 6, 93, 1496.045776367188
0, 6, 94, 1470.343505859375
0, 6, 95, 1506.178955078125
0, 6, 96, 1521.104248046875
0, 6, 97, 1507.483276367188
0, 6, 98, 1498.079345703125
0, 6, 99, 1477.792724609375
0, 6, 100, 1517.450561523438
0, 6, 101, 1523.409057617188
0, 6, 102, 1540.98974609375
0, 6, 103, 1500.630126953125
0, 6, 104, 1463.339965820312
0, 6, 105, 1482.081787109375
0, 6, 106, 1493.697387695312
0, 6, 107, 1501.1181640625
0, 6, 108, 1407.331665039062
0, 6, 109, 925.7886962890625
0, 6, 110, 283.51416015625
0, 6, 111, 95.12528991699219
0, 6, 112, 81.46380615234375
0, 6, 113, 60.15126419067383
0, 6, 114, 56.22275924682617
0, 6, 115, 44.48419952392578
0, 6, 116, 43.54854965209961
0, 6, 117, 45.17998504638672
0, 6, 118, 38.04772186279297
0, 6, 119, 34.57810211181641
0, 6, 120, 30.49873924255371
0, 6, 121, 24.51564979553223
0, 6, 122, 31.37637519836426
0, 6, 123, 28.33467292785645
0, 6, 124, 33.88397598266602
0, 6, 125, 33.80978393554688
0, 6, 126, 18.5781421661377
0, 6, 127, 18.76850318908691
0, 7, 0, 25.29356575012207
0, 7, 1, 27.17525482177734
0, 7, 2, 23.55255508422852
0, 7, 3, 26.81690406799316
0, 7, 4, 23.54173469543457
0, 7, 5, 36.57782745361328
0, 7, 6, 31.54999732971191
0, 7, 7, 38.00323867797852
0, 7, 8, 33.204345703125
0, 7, 9, 34.08213424682617
0, 7, 10, 48.43479537963867
0, 7, 11, 47.1617317199707
0, 7, 12, 47.5494499206543
0, 7, 13, 54.1524772644043
0, 7, 14, 59.90020370483398
0, 7, 15, 75.09413909912109
0, 7, 16, 135.9353790283203
0, 7, 17, 464.2211608886719
0, 7, 18, 1101.814086914062
0, 7, 19, 1504.153564453125
0, 7, 20, 1487.096801757812
0, 7, 21, 1363.128784179688
0, 7, 22, 1489.162231445312
0, 7, 23, 1454.550170898438
0, 7, 24, 1507.024291992188
0, 7, 25, 1594.545288085938
0, 7, 26, 1523.938110351562
0, 7, 27, 1511.056884765625
0, 7, 28, 1545.731811523438
0, 7, 29, 1581.207397460938
0, 7, 30, 1544.967651367188
0, 7, 31, 1439.541625976562
0, 7, 32, 1541.85986328125
0, 7, 33, 1492.439086914062
0, 7, 34, 1475.989135742188
0, 7, 35, 1522.35205078125
0, 7, 36, 1472.340209960938
0, 7, 37, 1599.215209960938
0, 7, 38, 1503.427734375
0, 7, 39, 1495.07177734375
0, 7, 40, 1541.402709960938
0, 7, 41, 1463.71923828125
0, 7, 42, 1489.380615234375
0, 7, 43, 1444.2490234375
0, 7, 44, 1492.039916992188
0, 7, 45, 1472.005493164062
0, 7, 46, 1511.052001953125
0, 7, 47, 1570.008544921875
0, 7, 48, 1526.057250976562
0, 7, 49, 1534.8779296875
0, 7, 50, 1513.876220703125
0, 7, 51, 1497.8876953125
0, 7, 52, 1518.95361328125
0, 7, 53, 1496.01904296875
0, 7, 54, 1587.757080078125
0, 7, 55, 1474.051635742188
0, 7, 56, 1551.531494140625
0, 7, 57, 1515.308715820312
0, 7, 58, 1545.661010742188
0, 7, 59, 1542.510131835938
0, 7, 60, 1547.910400390625
0, 7, 61, 1491.841674804688
0, 7, 62, 1437.058471679688
0, 7, 63, 1510.524536132812
0, 7, 64, 1546.144409179688
0, 7, 65, 1526.616821289062
0, 7, 66, 1539.843994140625
0, 7, 67, 1577.110229492188
0, 7, 68, 1528.935546875
0, 7, 69, 1518.983764648438
0, 7, 70, 1490.683837890625
0, 7, 71, 1518.236328125
0, 7, 72, 1522.831176757812
0, 7, 73, 1520.762329101562
0, 7, 74, 1572.202270507812
0, 7, 75, 1537.455078125
0, 7, 76, 1555.086669921875
0, 7, 77, 1515.39453125
0, 7, 78, 1513.906860351562
0, 7, 79, 1425.703247070312
0, 7, 80, 1486.580200195312
0, 7, 81, 1499.950073242188
0, 7, 82, 1530.474365234375
0, 7, 83, 1541.647216796875
0, 7, 84, 1586.275024414062
0, 7, 85, 1481.486328125
0, 7, 86, 1505.176879882812
0, 7, 87, 1507.969848632812
0, 7, 88, 1499.8623046875
0, 7, 89, 1553.852416992188
0, 7, 90, 1522.044677734375
0, 7, 91, 1559.931518554688
0, 7, 92, 1531.139892578125
0, 7, 93, 1554.859985351562
0, 7, 94, 1535.454345703125
0, 7, 95, 1505.147338867188
0, 7, 96, 1503.834716796875
0, 7, 97, 1438.164184570312
0, 7, 98, 1484.834106445312
0, 7, 99, 1525.210693359375
0, 7, 100, 1420.720581054688
0, 7, 101, 1463.658813476562
0, 7, 102, 1454.401245117188
0, 7, 103, 1435.962036132812
0, 7, 104, 1492.289916992188
0, 7, 105, 1522.913208007812
0, 7, 106, 1569.506713867188
0, 7, 107, 1485.016235351562
0, 7, 108, 1411.607788085938
0, 7, 109, 1145.258056640625
0, 7, 110, 472.7650146484375
0, 7, 111, 127.3485565185547
0, 7, 112, 81.73271179199219
0, 7, 113, 61.66290664672852
0, 7, 114, 58.5987434387207
0, 7, 115, 49.72785186767578
0, 7, 116, 46.87865447998047
0, 7, 117, 45.45745849609375
0, 7, 118, 42.74313354492188
0, 7, 119, 32.94173812866211
0, 7, 120, 27.31551742553711
0, 7, 121, 34.98953247070312
0, 7, 122, 33.09939575195312
0, 7, 123, 36.15592956542969
0, 7, 124, 34.67000961303711
0, 7, 125, 26.05162239074707
0, 7, 126, 24.02167129516602
0, 7, 127, 18.67060089111328
0, 8, 0, 23.66940879821777
0, 8, 1, 28.76557731628418
0, 8, 2, 23.73683929443359
0, 8, 3, 27.61440086364746
0, 8, 4, 26.87845993041992
0, 8, 5, 29.87094116210938
0, 8, 6, 32.96136093139648
0, 8, 7, 27.04453086853027
0, 8, 8, 32.71902847290039
0, 8, 9, 44.80673599243164
0, 8, 10, 39.69972610473633
0, 8, 11, 44.94197845458984
0, 8, 12, 57.39443206787109
0, 8, 13, 67.95196533203125
0, 8, 14, 71.45826721191406
0, 8, 15, 86.71784210205078
0, 8, 16, 172.5116119384766
0, 8, 17, 676.305908203125
0, 8, 18, 1281.825927734375
0, 8, 19, 1443.238037109375
0, 8, 20, 1426.76220703125
0, 8, 21, 1410.112426757812
0, 8, 22, 1488.81689453125
0, 8, 23, 1480.108154296875
0, 8, 24, 1436.106079101562
0, 8, 25, 1457.601806640625
0, 8, 26, 1513.475952148438
0, 8, 27, 1525.315551757812
0, 8, 28, 1480.55712890625
0, 8, 29, 1512.28564453125
0, 8, 30, 1482.066650390625
0, 8, 31, 1535.109741210938
0, 8, 32, 1510.436767578125
0, 8, 33, 1480.697265625
0, 8, 34, 1538.318969726562
0, 8, 35, 1440.655395507812
0, 8, 36, 1498.453369140625
0, 8, 37, 1553.827270507812
0, 8, 38, 1554.732421875
0, 8, 39, 1496.983764648438
0, 8, 40, 1527.826049804688
0, 8, 41, 1485.582885742188
0, 8, 42, 1541.903564453125
0, 8, 43, 1429.482666015625
0, 8, 44, 1534.822387695312
0, 8, 45, 1509.144775390625
0, 8, 46, 1594.628540039062
0, 8, 47, 1584.79150390625
