# TOPAS Version: 3.1.p3
# Parameter File: batch_inserts_38.txt
# Results for scorer Readout_Adipose
# Scored in component: MyBox
# X in 1 bin  of 0.75 cm
# Y in 512 bins of 0.0783984 cm
# Z in 128 bins of 0.078125 cm
# EnergyDeposit ( MeV ) : Sum   
0, 0, 0, 4.79346752166748
0, 0, 1, 0.9461796879768372
0, 0, 2, 4.615187644958496
0, 0, 3, 1.189254641532898
0, 0, 4, 2.3947434425354
0, 0, 5, 2.579650163650513
0, 0, 6, 7.790812492370605
0, 0, 7, 10.15281963348389
0, 0, 8, 2.767311573028564
0, 0, 9, 2.903994560241699
0, 0, 10, 6.089600086212158
0, 0, 11, 4.38988733291626
0, 0, 12, 4.193511962890625
0, 0, 13, 8.471473693847656
0, 0, 14, 9.845242500305176
0, 0, 15, 9.122677803039551
0, 0, 16, 8.450564384460449
0, 0, 17, 10.87983322143555
0, 0, 18, 12.9046688079834
0, 0, 19, 45.28021240234375
0, 0, 20, 143.0439758300781
0, 0, 21, 223.0880584716797
0, 0, 22, 248.5214996337891
0, 0, 23, 255.0426940917969
0, 0, 24, 251.7638397216797
0, 0, 25, 258.5205078125
0, 0, 26, 235.1321105957031
0, 0, 27, 237.9193267822266
0, 0, 28, 272.9718322753906
0, 0, 29, 252.3648071289062
0, 0, 30, 230.8253173828125
0, 0, 31, 246.4438629150391
0, 0, 32, 265.1367492675781
0, 0, 33, 261.7158508300781
0, 0, 34, 286.9308776855469
0, 0, 35, 266.3343200683594
0, 0, 36, 246.1889495849609
0, 0, 37, 251.8729553222656
0, 0, 38, 267.4337158203125
0, 0, 39, 229.2535858154297
0, 0, 40, 243.8919219970703
0, 0, 41, 264.5729370117188
0, 0, 42, 229.1078338623047
0, 0, 43, 259.8785095214844
0, 0, 44, 250.5391082763672
0, 0, 45, 253.099853515625
0, 0, 46, 244.2725067138672
0, 0, 47, 254.6223297119141
0, 0, 48, 267.4300537109375
0, 0, 49, 275.9100341796875
0, 0, 50, 253.9535522460938
0, 0, 51, 252.7470855712891
0, 0, 52, 273.4812622070312
0, 0, 53, 292.4583740234375
0, 0, 54, 242.9077606201172
0, 0, 55, 239.5873260498047
0, 0, 56, 278.3697509765625
0, 0, 57, 261.4319458007812
0, 0, 58, 247.4945678710938
0, 0, 59, 272.5651550292969
0, 0, 60, 236.919189453125
0, 0, 61, 244.5909729003906
0, 0, 62, 254.8441162109375
0, 0, 63, 266.7040100097656
0, 0, 64, 255.1065063476562
0, 0, 65, 260.9736938476562
0, 0, 66, 276.243408203125
0, 0, 67, 247.8679504394531
0, 0, 68, 258.9133605957031
0, 0, 69, 262.4922790527344
0, 0, 70, 271.905517578125
0, 0, 71, 239.2261962890625
0, 0, 72, 253.0578460693359
0, 0, 73, 257.7935791015625
0, 0, 74, 252.3288421630859
0, 0, 75, 240.7605438232422
0, 0, 76, 229.9644927978516
0, 0, 77, 261.3785095214844
0, 0, 78, 258.4463195800781
0, 0, 79, 279.2529296875
0, 0, 80, 217.1095123291016
0, 0, 81, 266.8938293457031
0, 0, 82, 256.9120788574219
0, 0, 83, 247.4154815673828
0, 0, 84, 268.9391174316406
0, 0, 85, 230.6561737060547
0, 0, 86, 253.3805389404297
0, 0, 87, 251.2637329101562
0, 0, 88, 259.2146301269531
0, 0, 89, 282.8488159179688
0, 0, 90, 243.5375366210938
0, 0, 91, 282.0376586914062
0, 0, 92, 252.0945281982422
0, 0, 93, 249.9049377441406
0, 0, 94, 247.5455322265625
0, 0, 95, 248.882568359375
0, 0, 96, 273.9548950195312
0, 0, 97, 272.2380676269531
0, 0, 98, 271.6773986816406
0, 0, 99, 257.9775085449219
0, 0, 100, 257.0484924316406
0, 0, 101, 227.0900573730469
0, 0, 102, 233.5139312744141
0, 0, 103, 270.5636901855469
0, 0, 104, 254.3607482910156
0, 0, 105, 250.5825958251953
0, 0, 106, 247.3785552978516
0, 0, 107, 152.2365112304688
0, 0, 108, 37.78475570678711
0, 0, 109, 11.95040798187256
0, 0, 110, 11.81568431854248
0, 0, 111, 8.391379356384277
0, 0, 112, 8.410865783691406
0, 0, 113, 5.207722663879395
0, 0, 114, 6.161862373352051
0, 0, 115, 4.981420993804932
0, 0, 116, 5.381388664245605
0, 0, 117, 5.908919811248779
0, 0, 118, 6.242958068847656
0, 0, 119, 3.753990888595581
0, 0, 120, 4.700137615203857
0, 0, 121, 4.314070224761963
0, 0, 122, 4.448928833007812
0, 0, 123, 4.441746711730957
0, 0, 124, 4.563661098480225
0, 0, 125, 3.001543283462524
0, 0, 126, 3.396795034408569
0, 0, 127, 2.099219799041748
0, 1, 0, 5.562464237213135
0, 1, 1, 4.033631801605225
0, 1, 2, 3.634360790252686
0, 1, 3, 1.302943706512451
0, 1, 4, 5.268723487854004
0, 1, 5, 2.556022167205811
0, 1, 6, 3.789120674133301
0, 1, 7, 4.474621295928955
0, 1, 8, 7.71362829208374
0, 1, 9, 3.416385650634766
0, 1, 10, 6.613919734954834
0, 1, 11, 11.19339942932129
0, 1, 12, 10.29798412322998
0, 1, 13, 9.733485221862793
0, 1, 14, 9.355713844299316
0, 1, 15, 7.360021591186523
0, 1, 16, 12.04825019836426
0, 1, 17, 10.23943424224854
0, 1, 18, 19.29535102844238
0, 1, 19, 67.11050415039062
0, 1, 20, 198.9911193847656
0, 1, 21, 254.5940093994141
0, 1, 22, 295.3881530761719
0, 1, 23, 282.3246459960938
0, 1, 24, 276.1368408203125
0, 1, 25, 286.9599609375
0, 1, 26, 268.4115600585938
0, 1, 27, 308.5172424316406
0, 1, 28, 300.7693176269531
0, 1, 29, 300.7942810058594
0, 1, 30, 281.0307922363281
0, 1, 31, 291.1327819824219
0, 1, 32, 289.7379150390625
0, 1, 33, 294.7615051269531
0, 1, 34, 292.8306274414062
0, 1, 35, 279.3880004882812
0, 1, 36, 307.6255798339844
0, 1, 37, 295.7538757324219
0, 1, 38, 281.4152526855469
0, 1, 39, 294.7242431640625
0, 1, 40, 265.0343017578125
0, 1, 41, 287.4427795410156
0, 1, 42, 289.4890747070312
0, 1, 43, 330.9888916015625
0, 1, 44, 279.095947265625
0, 1, 45, 293.5609436035156
0, 1, 46, 259.6572265625
0, 1, 47, 310.8386840820312
0, 1, 48, 284.4595336914062
0, 1, 49, 301.3146667480469
0, 1, 50, 262.4735412597656
0, 1, 51, 273.1154479980469
0, 1, 52, 296.7809753417969
0, 1, 53, 304.8797302246094
0, 1, 54, 275.5679626464844
0, 1, 55, 292.7308044433594
0, 1, 56, 275.9382934570312
0, 1, 57, 297.2545776367188
0, 1, 58, 312.673583984375
0, 1, 59, 294.4328918457031
0, 1, 60, 297.3752746582031
0, 1, 61, 275.2396850585938
0, 1, 62, 308.658935546875
0, 1, 63, 288.8600769042969
0, 1, 64, 290.71728515625
0, 1, 65, 294.9246215820312
0, 1, 66, 291.4264831542969
0, 1, 67, 292.0728149414062
0, 1, 68, 278.8726196289062
0, 1, 69, 279.8744201660156
0, 1, 70, 270.5476989746094
0, 1, 71, 273.2108154296875
0, 1, 72, 288.4821166992188
0, 1, 73, 304.9315795898438
0, 1, 74, 303.0653381347656
0, 1, 75, 292.4249572753906
0, 1, 76, 283.9057006835938
0, 1, 77, 290.8621520996094
0, 1, 78, 297.9708862304688
0, 1, 79, 304.2712707519531
0, 1, 80, 293.9572448730469
0, 1, 81, 298.9707641601562
0, 1, 82, 284.4884033203125
0, 1, 83, 331.1607055664062
0, 1, 84, 310.2958068847656
0, 1, 85, 253.7353515625
0, 1, 86, 294.1121215820312
0, 1, 87, 292.9456481933594
0, 1, 88, 299.942138671875
0, 1, 89, 288.7301330566406
0, 1, 90, 272.1841430664062
0, 1, 91, 317.2632141113281
0, 1, 92, 291.2638854980469
0, 1, 93, 288.1107482910156
0, 1, 94, 302.57763671875
0, 1, 95, 283.2737731933594
0, 1, 96, 282.6817321777344
0, 1, 97, 300.0268249511719
0, 1, 98, 278.7787780761719
0, 1, 99, 266.4755554199219
0, 1, 100, 277.607666015625
0, 1, 101, 280.6539001464844
0, 1, 102, 276.85498046875
0, 1, 103, 280.0913391113281
0, 1, 104, 305.8072814941406
0, 1, 105, 299.0669860839844
0, 1, 106, 261.75048828125
0, 1, 107, 193.4609985351562
0, 1, 108, 80.73529052734375
0, 1, 109, 23.20244979858398
0, 1, 110, 12.80962657928467
0, 1, 111, 8.005877494812012
0, 1, 112, 11.24546146392822
0, 1, 113, 6.478032112121582
0, 1, 114, 5.505283832550049
0, 1, 115, 6.545379638671875
0, 1, 116, 12.66470813751221
0, 1, 117, 6.677841186523438
0, 1, 118, 4.937368869781494
0, 1, 119, 5.534312725067139
0, 1, 120, 3.370778322219849
0, 1, 121, 3.656787395477295
0, 1, 122, 3.936079025268555
0, 1, 123, 3.769762516021729
0, 1, 124, 8.975502967834473
0, 1, 125, 3.520522832870483
0, 1, 126, 6.692724227905273
0, 1, 127, 2.247904777526855
0, 2, 0, 6.164378643035889
0, 2, 1, 3.31773042678833
0, 2, 2, 2.406775951385498
0, 2, 3, 3.531891345977783
0, 2, 4, 3.367750644683838
0, 2, 5, 1.232691764831543
0, 2, 6, 2.249257564544678
0, 2, 7, 4.520452499389648
0, 2, 8, 6.836856365203857
0, 2, 9, 5.440431594848633
0, 2, 10, 7.984702587127686
0, 2, 11, 6.845346450805664
0, 2, 12, 5.729716777801514
0, 2, 13, 9.007390975952148
0, 2, 14, 9.166529655456543
0, 2, 15, 8.36916446685791
0, 2, 16, 11.16068458557129
0, 2, 17, 17.10486221313477
0, 2, 18, 32.06392669677734
0, 2, 19, 117.8599700927734
0, 2, 20, 246.8660278320312
0, 2, 21, 270.8680725097656
0, 2, 22, 315.5722045898438
0, 2, 23, 302.0411071777344
0, 2, 24, 285.8700866699219
0, 2, 25, 303.2874755859375
0, 2, 26, 292.3062744140625
0, 2, 27, 275.2005615234375
0, 2, 28, 272.5705261230469
0, 2, 29, 273.783203125
0, 2, 30, 290.4032897949219
0, 2, 31, 277.0602416992188
0, 2, 32, 295.5809631347656
0, 2, 33, 281.7505798339844
0, 2, 34, 330.7947998046875
0, 2, 35, 291.7933959960938
0, 2, 36, 301.5515747070312
0, 2, 37, 313.9919128417969
0, 2, 38, 310.3699645996094
0, 2, 39, 266.5578918457031
0, 2, 40, 305.5892944335938
0, 2, 41, 292.5874328613281
0, 2, 42, 303.4670715332031
0, 2, 43, 311.6277770996094
0, 2, 44, 314.6775512695312
0, 2, 45, 324.2439880371094
0, 2, 46, 287.2517700195312
0, 2, 47, 302.4559326171875
0, 2, 48, 283.2442932128906
0, 2, 49, 278.7876586914062
0, 2, 50, 294.9316101074219
0, 2, 51, 285.4010620117188
0, 2, 52, 269.7018432617188
0, 2, 53, 288.752685546875
0, 2, 54, 282.9949951171875
0, 2, 55, 276.6042175292969
0, 2, 56, 301.0731506347656
0, 2, 57, 292.4249267578125
0, 2, 58, 303.4773559570312
0, 2, 59, 289.2722473144531
0, 2, 60, 318.1498718261719
0, 2, 61, 302.6462097167969
0, 2, 62, 315.4989318847656
0, 2, 63, 301.525146484375
0, 2, 64, 295.6781921386719
0, 2, 65, 311.7437133789062
0, 2, 66, 279.2813720703125
0, 2, 67, 291.6020202636719
0, 2, 68, 297.4552612304688
0, 2, 69, 311.2622375488281
0, 2, 70, 335.075927734375
0, 2, 71, 284.9102783203125
0, 2, 72, 300.7787475585938
0, 2, 73, 310.9822998046875
0, 2, 74, 286.7296447753906
0, 2, 75, 305.6710205078125
0, 2, 76, 287.031982421875
0, 2, 77, 300.1144104003906
0, 2, 78, 317.3598022460938
0, 2, 79, 308.8785400390625
0, 2, 80, 294.7774658203125
0, 2, 81, 282.2008666992188
0, 2, 82, 321.1796569824219
0, 2, 83, 312.9990844726562
0, 2, 84, 288.2779235839844
0, 2, 85, 281.3943176269531
0, 2, 86, 322.1317443847656
0, 2, 87, 286.2102661132812
0, 2, 88, 281.0405578613281
0, 2, 89, 295.9247436523438
0, 2, 90, 295.2342834472656
0, 2, 91, 277.0791015625
0, 2, 92, 305.2197570800781
0, 2, 93, 316.8899841308594
0, 2, 94, 292.8482360839844
0, 2, 95, 314.3941345214844
0, 2, 96, 315.9017333984375
0, 2, 97, 291.3701171875
0, 2, 98, 295.2380065917969
0, 2, 99, 273.3833312988281
0, 2, 100, 305.6731872558594
0, 2, 101, 301.316162109375
0, 2, 102, 296.8604736328125
0, 2, 103, 291.9527282714844
0, 2, 104, 291.8113403320312
0, 2, 105, 274.7256469726562
0, 2, 106, 297.7947692871094
0, 2, 107, 271.7058410644531
0, 2, 108, 116.0448837280273
0, 2, 109, 31.25127983093262
0, 2, 110, 9.79084300994873
0, 2, 111, 10.54009532928467
0, 2, 112, 9.980772018432617
0, 2, 113, 10.14285373687744
0, 2, 114, 11.77300834655762
0, 2, 115, 7.975136280059814
0, 2, 116, 10.34203433990479
0, 2, 117, 5.269989490509033
0, 2, 118, 3.165920972824097
0, 2, 119, 7.237832069396973
0, 2, 120, 5.618471622467041
0, 2, 121, 3.389872312545776
0, 2, 122, 2.539108276367188
0, 2, 123, 4.826054096221924
0, 2, 124, 2.066735744476318
0, 2, 125, 5.528723239898682
0, 2, 126, 3.43320369720459
0, 2, 127, 4.33140230178833
0, 3, 0, 3.634389162063599
0, 3, 1, 3.632707834243774
0, 3, 2, 3.505948781967163
0, 3, 3, 1.892142534255981
0, 3, 4, 4.400599002838135
0, 3, 5, 8.858833312988281
0, 3, 6, 6.750998020172119
0, 3, 7, 7.229374408721924
0, 3, 8, 6.197670936584473
0, 3, 9, 5.789299964904785
0, 3, 10, 6.220447540283203
0, 3, 11, 3.765870094299316
0, 3, 12, 8.801359176635742
0, 3, 13, 15.29055786132812
0, 3, 14, 12.03170108795166
0, 3, 15, 12.8857364654541
0, 3, 16, 11.74375152587891
0, 3, 17, 19.48872566223145
0, 3, 18, 50.67907333374023
0, 3, 19, 174.3655395507812
0, 3, 20, 270.5669555664062
0, 3, 21, 270.0089416503906
0, 3, 22, 280.5743103027344
0, 3, 23, 287.6419677734375
0, 3, 24, 286.1533203125
0, 3, 25, 271.3214721679688
0, 3, 26, 304.1880187988281
0, 3, 27, 291.414306640625
0, 3, 28, 278.9738159179688
0, 3, 29, 338.6671142578125
0, 3, 30, 316.3821105957031
0, 3, 31, 284.946533203125
0, 3, 32, 305.3752136230469
0, 3, 33, 315.2205200195312
0, 3, 34, 325.1155090332031
0, 3, 35, 305.8798522949219
0, 3, 36, 270.8342895507812
0, 3, 37, 316.2794799804688
0, 3, 38, 302.1844482421875
0, 3, 39, 287.5445556640625
0, 3, 40, 267.0169067382812
0, 3, 41, 299.9767150878906
0, 3, 42, 284.5016784667969
0, 3, 43, 308.8743591308594
0, 3, 44, 312.085693359375
0, 3, 45, 290.7133483886719
0, 3, 46, 325.8093872070312
0, 3, 47, 298.8155517578125
0, 3, 48, 306.9712524414062
0, 3, 49, 275.7673034667969
0, 3, 50, 290.4311218261719
0, 3, 51, 274.7371520996094
0, 3, 52, 314.8802795410156
0, 3, 53, 288.2851867675781
0, 3, 54, 284.9548645019531
0, 3, 55, 284.7867431640625
0, 3, 56, 299.1106872558594
0, 3, 57, 290.3484802246094
0, 3, 58, 308.1679382324219
0, 3, 59, 297.14892578125
0, 3, 60, 298.1435852050781
0, 3, 61, 267.4459838867188
0, 3, 62, 285.3383178710938
0, 3, 63, 309.7001037597656
0, 3, 64, 317.0656433105469
0, 3, 65, 307.5677795410156
0, 3, 66, 314.3157348632812
0, 3, 67, 317.1175842285156
0, 3, 68, 279.1187744140625
0, 3, 69, 280.4112854003906
0, 3, 70, 288.2413330078125
0, 3, 71, 299.0188903808594
0, 3, 72, 269.3760986328125
0, 3, 73, 307.9515686035156
0, 3, 74, 291.7797546386719
0, 3, 75, 288.0924682617188
0, 3, 76, 306.1990966796875
0, 3, 77, 313.78564453125
0, 3, 78, 301.6256713867188
0, 3, 79, 282.1319885253906
0, 3, 80, 292.3448791503906
0, 3, 81, 311.4118041992188
0, 3, 82, 316.6441650390625
0, 3, 83, 300.2915344238281
0, 3, 84, 311.9876403808594
0, 3, 85, 292.7238159179688
0, 3, 86, 300.9612731933594
0, 3, 87, 298.7321472167969
0, 3, 88, 297.3161010742188
0, 3, 89, 294.9891357421875
0, 3, 90, 274.8514404296875
0, 3, 91, 283.4303283691406
0, 3, 92, 306.4984741210938
0, 3, 93, 312.3760681152344
0, 3, 94, 296.4474792480469
0, 3, 95, 334.2744140625
0, 3, 96, 295.1246337890625
0, 3, 97, 281.66748046875
0, 3, 98, 280.7865600585938
0, 3, 99, 261.3410339355469
0, 3, 100, 284.8031311035156
0, 3, 101, 296.6070556640625
0, 3, 102, 276.1582946777344
0, 3, 103, 320.09228515625
0, 3, 104, 309.0090637207031
0, 3, 105, 290.4949951171875
0, 3, 106, 302.6771545410156
0, 3, 107, 281.5467224121094
0, 3, 108, 167.2420349121094
0, 3, 109, 59.01045227050781
0, 3, 110, 17.23090744018555
0, 3, 111, 12.58970165252686
0, 3, 112, 12.98282909393311
0, 3, 113, 5.469082355499268
0, 3, 114, 9.284978866577148
0, 3, 115, 7.366657733917236
0, 3, 116, 7.380285263061523
0, 3, 117, 11.1338529586792
0, 3, 118, 4.8192138671875
0, 3, 119, 4.523131847381592
0, 3, 120, 4.079140663146973
0, 3, 121, 4.958487987518311
0, 3, 122, 2.805769443511963
0, 3, 123, 7.690083503723145
0, 3, 124, 6.585211753845215
0, 3, 125, 5.624920845031738
0, 3, 126, 3.502565860748291
0, 3, 127, 2.847168445587158
0, 4, 0, 1.833733797073364
0, 4, 1, 5.064610958099365
0, 4, 2, 3.552150726318359
0, 4, 3, 2.953237295150757
0, 4, 4, 5.203884124755859
0, 4, 5, 7.726089954376221
0, 4, 6, 6.267071723937988
0, 4, 7, 6.219696044921875
0, 4, 8, 4.503460884094238
0, 4, 9, 5.447995662689209
0, 4, 10, 5.619870662689209
0, 4, 11, 6.548660755157471
0, 4, 12, 5.661730289459229
0, 4, 13, 10.53660869598389
0, 4, 14, 12.89891338348389
0, 4, 15, 13.10581970214844
0, 4, 16, 12.84836292266846
0, 4, 17, 18.34481811523438
0, 4, 18, 91.71792602539062
0, 4, 19, 222.9967956542969
0, 4, 20, 283.9468078613281
0, 4, 21, 272.4812316894531
0, 4, 22, 306.3463439941406
0, 4, 23, 267.7369689941406
0, 4, 24, 289.4843139648438
0, 4, 25, 273.3128662109375
0, 4, 26, 293.7396545410156
0, 4, 27, 282.6370239257812
0, 4, 28, 307.142578125
0, 4, 29, 324.0408325195312
0, 4, 30, 308.9549560546875
0, 4, 31, 303.3904724121094
0, 4, 32, 281.7749328613281
0, 4, 33, 295.1436462402344
0, 4, 34, 298.5613403320312
0, 4, 35, 313.5710144042969
0, 4, 36, 294.7517395019531
0, 4, 37, 289.0975341796875
0, 4, 38, 299.5674438476562
0, 4, 39, 294.5982666015625
0, 4, 40, 302.5809936523438
0, 4, 41, 310.9060363769531
0, 4, 42, 328.8244018554688
0, 4, 43, 297.4016418457031
0, 4, 44, 323.0712280273438
0, 4, 45, 323.5332336425781
0, 4, 46, 307.9410705566406
0, 4, 47, 293.9795227050781
0, 4, 48, 296.4225463867188
0, 4, 49, 279.5001220703125
0, 4, 50, 296.8267211914062
0, 4, 51, 314.7815551757812
0, 4, 52, 326.2862854003906
0, 4, 53, 302.7037048339844
0, 4, 54, 285.7025756835938
0, 4, 55, 313.8935546875
0, 4, 56, 284.7105712890625
0, 4, 57, 311.4861755371094
0, 4, 58, 294.7579345703125
0, 4, 59, 307.8343200683594
0, 4, 60, 301.1282043457031
0, 4, 61, 317.9263916015625
0, 4, 62, 307.0082702636719
0, 4, 63, 298.7330932617188
0, 4, 64, 329.2919006347656
0, 4, 65, 316.2799987792969
0, 4, 66, 296.1269226074219
0, 4, 67, 287.3186340332031
0, 4, 68, 312.4407653808594
0, 4, 69, 275.8819580078125
0, 4, 70, 298.7117919921875
0, 4, 71, 321.2857666015625
0, 4, 72, 331.3824462890625
0, 4, 73, 298.2418823242188
0, 4, 74, 291.8846130371094
0, 4, 75, 289.5321350097656
0, 4, 76, 277.4683532714844
0, 4, 77, 279.08740234375
0, 4, 78, 310.4403076171875
0, 4, 79, 319.2184448242188
0, 4, 80, 315.0701599121094
0, 4, 81, 312.4700622558594
0, 4, 82, 299.3179321289062
0, 4, 83, 300.523681640625
0, 4, 84, 292.2813110351562
0, 4, 85, 294.0761108398438
0, 4, 86, 299.674560546875
0, 4, 87, 284.6389465332031
0, 4, 88, 305.4582824707031
0, 4, 89, 294.8882751464844
0, 4, 90, 335.1346130371094
0, 4, 91, 301.8385009765625
0, 4, 92, 289.7715759277344
0, 4, 93, 296.3666381835938
0, 4, 94, 292.1548156738281
0, 4, 95, 289.9587707519531
0, 4, 96, 326.1748657226562
0, 4, 97, 273.5341491699219
0, 4, 98, 327.1501159667969
0, 4, 99, 314.8270874023438
0, 4, 100, 299.3206787109375
0, 4, 101, 257.3603515625
0, 4, 102, 295.6533813476562
0, 4, 103, 317.4706420898438
0, 4, 104, 281.0802917480469
0, 4, 105, 311.4547424316406
0, 4, 106, 285.987060546875
0, 4, 107, 296.9652709960938
0, 4, 108, 228.5792083740234
0, 4, 109, 79.10993194580078
0, 4, 110, 17.12878608703613
0, 4, 111, 14.83464241027832
0, 4, 112, 9.337862968444824
0, 4, 113, 10.3143310546875
0, 4, 114, 7.555253028869629
0, 4, 115, 10.05029964447021
0, 4, 116, 9.43156909942627
0, 4, 117, 7.34592342376709
0, 4, 118, 8.816296577453613
0, 4, 119, 8.787445068359375
0, 4, 120, 8.140782356262207
0, 4, 121, 5.52607536315918
0, 4, 122, 4.190130233764648
0, 4, 123, 5.254191875457764
0, 4, 124, 4.841275215148926
0, 4, 125, 9.813318252563477
0, 4, 126, 5.338559627532959
0, 4, 127, 2.600774049758911
0, 5, 0, 4.262120723724365
0, 5, 1, 4.028561115264893
0, 5, 2, 4.809091567993164
0, 5, 3, 2.707875490188599
0, 5, 4, 5.358122825622559
0, 5, 5, 6.655773162841797
0, 5, 6, 7.619671821594238
0, 5, 7, 5.237157344818115
0, 5, 8, 4.278116703033447
0, 5, 9, 5.242215156555176
0, 5, 10, 5.953374862670898
0, 5, 11, 7.522127151489258
0, 5, 12, 8.192326545715332
0, 5, 13, 5.307051658630371
0, 5, 14, 11.36971855163574
0, 5, 15, 17.22069358825684
0, 5, 16, 13.20813941955566
0, 5, 17, 31.31840515136719
0, 5, 18, 135.8535614013672
0, 5, 19, 288.8409729003906
0, 5, 20, 306.5704956054688
0, 5, 21, 317.3639526367188
0, 5, 22, 273.8347778320312
0, 5, 23, 310.4967346191406
0, 5, 24, 301.7156066894531
0, 5, 25, 289.5406188964844
0, 5, 26, 295.6456909179688
0, 5, 27, 322.331787109375
0, 5, 28, 302.3818359375
0, 5, 29, 300.1371154785156
0, 5, 30, 326.2029418945312
0, 5, 31, 288.1407165527344
0, 5, 32, 302.6673583984375
0, 5, 33, 303.2325439453125
0, 5, 34, 299.0830383300781
0, 5, 35, 311.1615600585938
0, 5, 36, 267.8893432617188
0, 5, 37, 281.607177734375
0, 5, 38, 295.3838806152344
0, 5, 39, 310.3226318359375
0, 5, 40, 310.2890930175781
0, 5, 41, 274.6663208007812
0, 5, 42, 306.965087890625
0, 5, 43, 315.0011596679688
0, 5, 44, 292.6592407226562
0, 5, 45, 304.1586303710938
0, 5, 46, 265.5298156738281
0, 5, 47, 281.4795532226562
0, 5, 48, 292.2269287109375
0, 5, 49, 285.6234741210938
0, 5, 50, 294.5
0, 5, 51, 279.8336181640625
0, 5, 52, 269.6913146972656
0, 5, 53, 283.6397094726562
0, 5, 54, 292.0150451660156
0, 5, 55, 345.5526123046875
0, 5, 56, 307.577392578125
0, 5, 57, 306.3304748535156
0, 5, 58, 311.6471557617188
0, 5, 59, 302.0609130859375
0, 5, 60, 308.1356506347656
0, 5, 61, 280.13134765625
0, 5, 62, 323.3163757324219
0, 5, 63, 290.6583251953125
0, 5, 64, 322.8641052246094
0, 5, 65, 310.0775756835938
0, 5, 66, 329.8035278320312
0, 5, 67, 314.0093688964844
0, 5, 68, 308.9500122070312
0, 5, 69, 312.3522338867188
0, 5, 70, 304.1870422363281
0, 5, 71, 273.7292785644531
0, 5, 72, 312.0376281738281
0, 5, 73, 304.2177124023438
0, 5, 74, 295.7276916503906
0, 5, 75, 294.5439758300781
0, 5, 76, 286.2095031738281
0, 5, 77, 296.8163757324219
0, 5, 78, 312.9145202636719
0, 5, 79, 309.7541198730469
0, 5, 80, 294.3642578125
0, 5, 81, 326.2559814453125
0, 5, 82, 323.4228210449219
0, 5, 83, 280.9655456542969
0, 5, 84, 302.1101684570312
0, 5, 85, 270.981689453125
0, 5, 86, 325.6533508300781
0, 5, 87, 283.4270629882812
0, 5, 88, 313.8198547363281
0, 5, 89, 307.164794921875
0, 5, 90, 315.7224731445312
0, 5, 91, 314.0390319824219
0, 5, 92, 295.5902709960938
0, 5, 93, 325.0918884277344
0, 5, 94, 312.9334411621094
0, 5, 95, 296.656005859375
0, 5, 96, 300.1690063476562
0, 5, 97, 295.9669494628906
0, 5, 98, 317.7736511230469
0, 5, 99, 302.5137634277344
0, 5, 100, 290.581787109375
0, 5, 101, 306.1186218261719
0, 5, 102, 291.5308837890625
0, 5, 103, 314.1895141601562
0, 5, 104, 300.2564392089844
0, 5, 105, 292.4652709960938
0, 5, 106, 280.3955078125
0, 5, 107, 294.0847473144531
0, 5, 108, 263.3760070800781
0, 5, 109, 162.1669158935547
0, 5, 110, 42.94263076782227
0, 5, 111, 21.12284851074219
0, 5, 112, 17.11793899536133
0, 5, 113, 15.63936519622803
0, 5, 114, 12.60608673095703
0, 5, 115, 7.086586475372314
0, 5, 116, 7.977764129638672
0, 5, 117, 5.916018486022949
0, 5, 118, 12.00309562683105
0, 5, 119, 4.006238460540771
0, 5, 120, 8.243940353393555
0, 5, 121, 6.402067184448242
0, 5, 122, 5.799947738647461
0, 5, 123, 5.551088333129883
0, 5, 124, 5.822418212890625
0, 5, 125, 4.435618877410889
0, 5, 126, 5.34927225112915
0, 5, 127, 2.119688034057617
0, 6, 0, 4.798119068145752
0, 6, 1, 3.594219923019409
0, 6, 2, 5.044867515563965
0, 6, 3, 6.586328506469727
0, 6, 4, 3.989933252334595
0, 6, 5, 5.393322944641113
0, 6, 6, 7.922266960144043
0, 6, 7, 5.208974361419678
0, 6, 8, 7.061305046081543
0, 6, 9, 5.315613269805908
0, 6, 10, 9.621004104614258
0, 6, 11, 9.238512992858887
0, 6, 12, 9.176516532897949
0, 6, 13, 12.50621891021729
0, 6, 14, 8.54827880859375
0, 6, 15, 15.67736721038818
0, 6, 16, 28.90672874450684
0, 6, 17, 57.39737701416016
0, 6, 18, 174.3473815917969
0, 6, 19, 276.8274536132812
0, 6, 20, 293.374267578125
0, 6, 21, 313.7151489257812
0, 6, 22, 322.4355163574219
0, 6, 23, 306.3824157714844
0, 6, 24, 315.9121398925781
0, 6, 25, 317.3272094726562
0, 6, 26, 318.4363403320312
0, 6, 27, 329.8135070800781
0, 6, 28, 295.7613525390625
0, 6, 29, 328.1810913085938
0, 6, 30, 284.4292602539062
0, 6, 31, 286.8616638183594
0, 6, 32, 340.5530395507812
0, 6, 33, 300.0800170898438
0, 6, 34, 338.960693359375
0, 6, 35, 321.2450866699219
0, 6, 36, 272.0574340820312
0, 6, 37, 289.3911743164062
0, 6, 38, 311.6063232421875
0, 6, 39, 300.0467529296875
0, 6, 40, 283.7483825683594
0, 6, 41, 298.138916015625
0, 6, 42, 302.1705017089844
0, 6, 43, 289.502685546875
0, 6, 44, 279.9948425292969
0, 6, 45, 320.6814575195312
0, 6, 46, 304.0570068359375
0, 6, 47, 333.3906860351562
0, 6, 48, 292.0560913085938
0, 6, 49, 313.9680786132812
0, 6, 50, 328.0948181152344
0, 6, 51, 310.990234375
0, 6, 52, 320.3677368164062
0, 6, 53, 326.3445434570312
0, 6, 54, 303.0969848632812
0, 6, 55, 305.3837890625
0, 6, 56, 292.1928405761719
0, 6, 57, 313.2674255371094
0, 6, 58, 262.4339294433594
0, 6, 59, 304.0387878417969
0, 6, 60, 313.785888671875
0, 6, 61, 269.2447814941406
0, 6, 62, 336.041748046875
0, 6, 63, 324.5242614746094
0, 6, 64, 289.7054748535156
0, 6, 65, 284.9385375976562
0, 6, 66, 302.8128356933594
0, 6, 67, 311.4172973632812
0, 6, 68, 294.18994140625
0, 6, 69, 279.4205932617188
0, 6, 70, 274.4111022949219
0, 6, 71, 288.6532287597656
0, 6, 72, 312.113525390625
0, 6, 73, 290.9678955078125
0, 6, 74, 330.9582214355469
0, 6, 75, 346.7398681640625
0, 6, 76, 296.6125793457031
0, 6, 77, 285.8024597167969
0, 6, 78, 277.6971740722656
0, 6, 79, 291.4899291992188
0, 6, 80, 304.9050598144531
0, 6, 81, 315.7868957519531
0, 6, 82, 320.2742309570312
0, 6, 83, 319.7786865234375
0, 6, 84, 297.8360290527344
0, 6, 85, 301.2762756347656
0, 6, 86, 330.5597534179688
0, 6, 87, 297.7662963867188
0, 6, 88, 306.3380126953125
0, 6, 89, 304.0080261230469
0, 6, 90, 298.8540649414062
0, 6, 91, 313.1339721679688
0, 6, 92, 283.337158203125
0, 6, 93, 296.0390625
0, 6, 94, 272.2983093261719
0, 6, 95, 299.1759643554688
0, 6, 96, 345.9520568847656
0, 6, 97, 310.93310546875
0, 6, 98, 299.8886413574219
0, 6, 99, 272.1893310546875
0, 6, 100, 311.4821472167969
0, 6, 101, 294.143310546875
0, 6, 102, 305.5541687011719
0, 6, 103, 308.1641845703125
0, 6, 104, 292.2646179199219
0, 6, 105, 300.9693298339844
0, 6, 106, 305.9709777832031
0, 6, 107, 307.6498718261719
0, 6, 108, 265.9753723144531
0, 6, 109, 187.8436889648438
0, 6, 110, 56.10714721679688
0, 6, 111, 21.70138740539551
0, 6, 112, 15.91081428527832
0, 6, 113, 12.20366382598877
0, 6, 114, 11.61928176879883
0, 6, 115, 12.18833637237549
0, 6, 116, 9.436641693115234
0, 6, 117, 10.84650802612305
0, 6, 118, 10.99255466461182
0, 6, 119, 7.420547485351562
0, 6, 120, 5.876870632171631
0, 6, 121, 6.461143016815186
0, 6, 122, 8.396774291992188
0, 6, 123, 3.705624341964722
0, 6, 124, 6.479765892028809
0, 6, 125, 5.204878330230713
0, 6, 126, 3.632259368896484
0, 6, 127, 5.930163383483887
0, 7, 0, 8.699017524719238
0, 7, 1, 4.609054088592529
0, 7, 2, 5.193465709686279
0, 7, 3, 2.543492555618286
0, 7, 4, 4.740057468414307
0, 7, 5, 4.723889827728271
0, 7, 6, 5.163107872009277
0, 7, 7, 4.277639865875244
0, 7, 8, 4.643317222595215
0, 7, 9, 6.848724842071533
0, 7, 10, 8.401738166809082
0, 7, 11, 11.38430500030518
0, 7, 12, 9.769526481628418
0, 7, 13, 12.46594142913818
0, 7, 14, 11.30624008178711
0, 7, 15, 15.92794132232666
0, 7, 16, 26.78323745727539
0, 7, 17, 98.8953857421875
0, 7, 18, 220.7712249755859
0, 7, 19, 288.7131652832031
0, 7, 20, 296.2203979492188
0, 7, 21, 276.9839477539062
0, 7, 22, 299.52294921875
0, 7, 23, 289.5093078613281
0, 7, 24, 313.883544921875
0, 7, 25, 323.7764587402344
0, 7, 26, 278.6837463378906
0, 7, 27, 297.3911437988281
0, 7, 28, 328.8738403320312
0, 7, 29, 319.6887817382812
0, 7, 30, 303.9463500976562
0, 7, 31, 279.022705078125
0, 7, 32, 304.212646484375
0, 7, 33, 262.0125122070312
0, 7, 34, 296.773193359375
0, 7, 35, 317.5024719238281
0, 7, 36, 330.9572448730469
0, 7, 37, 324.6598510742188
0, 7, 38, 296.6997680664062
0, 7, 39, 308.4743041992188
0, 7, 40, 289.4366760253906
0, 7, 41, 270.5831298828125
0, 7, 42, 303.7005310058594
0, 7, 43, 274.232421875
0, 7, 44, 304.9381408691406
0, 7, 45, 295.1439819335938
0, 7, 46, 281.6943664550781
0, 7, 47, 328.2578735351562
0, 7, 48, 287.789794921875
0, 7, 49, 301.5154113769531
0, 7, 50, 321.5207824707031
0, 7, 51, 299.2088317871094
0, 7, 52, 325.98681640625
0, 7, 53, 311.8106384277344
0, 7, 54, 322.98388671875
0, 7, 55, 306.2057800292969
0, 7, 56, 280.654296875
0, 7, 57, 280.8901977539062
0, 7, 58, 294.5307312011719
0, 7, 59, 292.3189392089844
0, 7, 60, 324.0288696289062
0, 7, 61, 277.4213562011719
0, 7, 62, 298.0379943847656
0, 7, 63, 293.1585388183594
0, 7, 64, 310.9132995605469
0, 7, 65, 333.2654724121094
0, 7, 66, 320.7618713378906
0, 7, 67, 301.4621887207031
0, 7, 68, 280.0508117675781
0, 7, 69, 294.1249389648438
0, 7, 70, 300.9891967773438
0, 7, 71, 308.9345703125
0, 7, 72, 284.3136596679688
0, 7, 73, 295.6513061523438
0, 7, 74, 343.9354858398438
0, 7, 75, 320.6474914550781
0, 7, 76, 321.7375793457031
0, 7, 77, 279.6377868652344
0, 7, 78, 298.6606750488281
0, 7, 79, 297.008544921875
0, 7, 80, 314.5321655273438
0, 7, 81, 319.0510864257812
0, 7, 82, 329.4533386230469
0, 7, 83, 317.5629577636719
0, 7, 84, 308.6981201171875
0, 7, 85, 271.3467102050781
0, 7, 86, 309.6636352539062
0, 7, 87, 309.5777282714844
0, 7, 88, 307.7662963867188
0, 7, 89, 292.444091796875
0, 7, 90, 305.7221984863281
0, 7, 91, 318.2187805175781
0, 7, 92, 287.3091735839844
0, 7, 93, 309.3507690429688
0, 7, 94, 275.2243347167969
0, 7, 95, 297.8669128417969
0, 7, 96, 330.66015625
0, 7, 97, 295.4347534179688
0, 7, 98, 292.2582397460938
0, 7, 99, 312.264892578125
0, 7, 100, 283.822998046875
0, 7, 101, 275.9607849121094
0, 7, 102, 290.9981079101562
0, 7, 103, 293.7079772949219
0, 7, 104, 274.06396484375
0, 7, 105, 307.6324462890625
0, 7, 106, 318.5328063964844
0, 7, 107, 295.8975219726562
0, 7, 108, 274.2251586914062
0, 7, 109, 234.5025939941406
0, 7, 110, 96.00234222412109
0, 7, 111, 22.91646003723145
0, 7, 112, 13.91363334655762
0, 7, 113, 15.8285551071167
0, 7, 114, 13.5038890838623
0, 7, 115, 12.14895439147949
0, 7, 116, 10.11847591400146
0, 7, 117, 4.449313640594482
0, 7, 118, 6.66792106628418
0, 7, 119, 3.595087051391602
0, 7, 120, 5.314553737640381
0, 7, 121, 6.281997203826904
0, 7, 122, 7.482079029083252
0, 7, 123, 7.374405384063721
0, 7, 124, 3.260249853134155
0, 7, 125, 5.654591083526611
0, 7, 126, 8.465434074401855
0, 7, 127, 2.998850107192993
0, 8, 0, 3.425862312316895
0, 8, 1, 3.948265075683594
0, 8, 2, 4.2490234375
0, 8, 3, 1.538751840591431
0, 8, 4, 3.310143947601318
0, 8, 5, 5.627940654754639
0, 8, 6, 5.557397842407227
0, 8, 7, 5.543399333953857
0, 8, 8, 8.01850414276123
0, 8, 9, 5.732105255126953
0, 8, 10, 6.594382286071777
0, 8, 11, 11.75810432434082
0, 8, 12, 13.41518402099609
0, 8, 13, 15.70380210876465
0, 8, 14, 14.29435062408447
0, 8, 15, 17.2956371307373
0, 8, 16, 32.76501083374023
0, 8, 17, 130.7932281494141
0, 8, 18, 243.6542205810547
0, 8, 19, 295.2932739257812
0, 8, 20, 287.8198852539062
0, 8, 21, 308.6665344238281
0, 8, 22, 295.8445434570312
0, 8, 23, 274.9962158203125
0, 8, 24, 268.9058837890625
0, 8, 25, 277.3761596679688
0, 8, 26, 307.1732788085938
0, 8, 27, 306.9555969238281
0, 8, 28, 303.9086303710938
0, 8, 29, 319.6435852050781
0, 8, 30, 312.7454528808594
0, 8, 31, 304.6576538085938
0, 8, 32, 280.2545166015625
0, 8, 33, 294.3085632324219
0, 8, 34, 290.8460083007812
0, 8, 35, 279.3690795898438
0, 8, 36, 316.4853515625
0, 8, 37, 338.6947021484375
0, 8, 38, 330.9370727539062
0, 8, 39, 282.4971618652344
0, 8, 40, 304.6653442382812
