# TOPAS Version: 3.1.p3
# Parameter File: batch_inserts_286.txt
# Results for scorer Readout_Adipose
# Scored in component: MyBox
# X in 1 bin  of 0.75 cm
# Y in 512 bins of 0.0783984 cm
# Z in 128 bins of 0.078125 cm
# EnergyDeposit ( MeV ) : Sum   
0, 0, 0, 23.39906311035156
0, 0, 1, 19.11454391479492
0, 0, 2, 22.02812957763672
0, 0, 3, 25.01165962219238
0, 0, 4, 20.49311828613281
0, 0, 5, 18.51051712036133
0, 0, 6, 25.14437484741211
0, 0, 7, 35.79967880249023
0, 0, 8, 18.85458755493164
0, 0, 9, 20.20396423339844
0, 0, 10, 22.58452796936035
0, 0, 11, 25.74100112915039
0, 0, 12, 35.21242523193359
0, 0, 13, 32.89595794677734
0, 0, 14, 35.09160614013672
0, 0, 15, 44.66822814941406
0, 0, 16, 41.38013076782227
0, 0, 17, 48.90461349487305
0, 0, 18, 74.73030090332031
0, 0, 19, 190.74560546875
0, 0, 20, 700.6146240234375
0, 0, 21, 1194.03564453125
0, 0, 22, 1254.796752929688
0, 0, 23, 1274.613403320312
0, 0, 24, 1285.3291015625
0, 0, 25, 1356.378173828125
0, 0, 26, 1270.589599609375
0, 0, 27, 1276.618896484375
0, 0, 28, 1317.120483398438
0, 0, 29, 1269.001831054688
0, 0, 30, 1262.654174804688
0, 0, 31, 1281.022827148438
0, 0, 32, 1264.603881835938
0, 0, 33, 1243.246826171875
0, 0, 34, 1325.880737304688
0, 0, 35, 1299.856811523438
0, 0, 36, 1246.031372070312
0, 0, 37, 1280.110473632812
0, 0, 38, 1249.2470703125
0, 0, 39, 1246.518676757812
0, 0, 40, 1220.052368164062
0, 0, 41, 1265.622314453125
0, 0, 42, 1253.652465820312
0, 0, 43, 1268.805053710938
0, 0, 44, 1225.822875976562
0, 0, 45, 1288.450927734375
0, 0, 46, 1261.223999023438
0, 0, 47, 1238.808837890625
0, 0, 48, 1279.6484375
0, 0, 49, 1283.051513671875
0, 0, 50, 1307.916748046875
0, 0, 51, 1258.592895507812
0, 0, 52, 1361.830932617188
0, 0, 53, 1325.035400390625
0, 0, 54, 1295.014892578125
0, 0, 55, 1233.732299804688
0, 0, 56, 1316.210327148438
0, 0, 57, 1290.364135742188
0, 0, 58, 1256.022705078125
0, 0, 59, 1333.011108398438
0, 0, 60, 1327.352294921875
0, 0, 61, 1263.677612304688
0, 0, 62, 1242.534057617188
0, 0, 63, 1278.131958007812
0, 0, 64, 1333.14599609375
0, 0, 65, 1284.503540039062
0, 0, 66, 1318.694580078125
0, 0, 67, 1217.145629882812
0, 0, 68, 1308.691772460938
0, 0, 69, 1330.362426757812
0, 0, 70, 1346.223754882812
0, 0, 71, 1287.279052734375
0, 0, 72, 1310.934936523438
0, 0, 73, 1240.292724609375
0, 0, 74, 1291.635009765625
0, 0, 75, 1299.929077148438
0, 0, 76, 1254.60400390625
0, 0, 77, 1282.988647460938
0, 0, 78, 1316.085327148438
0, 0, 79, 1328.375854492188
0, 0, 80, 1264.1689453125
0, 0, 81, 1323.078002929688
0, 0, 82, 1290.397705078125
0, 0, 83, 1291.831787109375
0, 0, 84, 1327.675659179688
0, 0, 85, 1234.699951171875
0, 0, 86, 1269.5634765625
0, 0, 87, 1250.369873046875
0, 0, 88, 1257.1298828125
0, 0, 89, 1337.728637695312
0, 0, 90, 1274.374389648438
0, 0, 91, 1355.95849609375
0, 0, 92, 1306.090698242188
0, 0, 93, 1273.78271484375
0, 0, 94, 1241.226440429688
0, 0, 95, 1327.340209960938
0, 0, 96, 1283.09912109375
0, 0, 97, 1328.593994140625
0, 0, 98, 1254.062377929688
0, 0, 99, 1250.895263671875
0, 0, 100, 1286.970947265625
0, 0, 101, 1316.381469726562
0, 0, 102, 1234.47021484375
0, 0, 103, 1323.394409179688
0, 0, 104, 1262.809814453125
0, 0, 105, 1265.321655273438
0, 0, 106, 1206.344482421875
0, 0, 107, 783.8656616210938
0, 0, 108, 198.9624786376953
0, 0, 109, 70.94824981689453
0, 0, 110, 63.51416778564453
0, 0, 111, 42.0163459777832
0, 0, 112, 37.83651351928711
0, 0, 113, 30.29421615600586
0, 0, 114, 32.1052131652832
0, 0, 115, 28.6590518951416
0, 0, 116, 30.69901657104492
0, 0, 117, 33.8223991394043
0, 0, 118, 24.32999229431152
0, 0, 119, 21.23821067810059
0, 0, 120, 21.02758407592773
0, 0, 121, 29.96963691711426
0, 0, 122, 19.6787281036377
0, 0, 123, 19.78654670715332
0, 0, 124, 20.48938179016113
0, 0, 125, 17.89134407043457
0, 0, 126, 23.05229759216309
0, 0, 127, 19.33864402770996
0, 1, 0, 20.59992218017578
0, 1, 1, 21.69498252868652
0, 1, 2, 23.06111145019531
0, 1, 3, 19.00226974487305
0, 1, 4, 20.26959800720215
0, 1, 5, 23.38046646118164
0, 1, 6, 23.77438354492188
0, 1, 7, 26.03278541564941
0, 1, 8, 44.25679397583008
0, 1, 9, 33.57301712036133
0, 1, 10, 35.13356781005859
0, 1, 11, 40.65373229980469
0, 1, 12, 39.43498992919922
0, 1, 13, 42.15178680419922
0, 1, 14, 41.70822906494141
0, 1, 15, 47.73731994628906
0, 1, 16, 62.71483993530273
0, 1, 17, 61.75970077514648
0, 1, 18, 101.5368118286133
0, 1, 19, 406.2259216308594
0, 1, 20, 1036.614990234375
0, 1, 21, 1371.765625
0, 1, 22, 1478.335693359375
0, 1, 23, 1458.504150390625
0, 1, 24, 1449.804077148438
0, 1, 25, 1417.395385742188
0, 1, 26, 1475.323120117188
0, 1, 27, 1464.1865234375
0, 1, 28, 1489.99853515625
0, 1, 29, 1474.98388671875
0, 1, 30, 1507.506469726562
0, 1, 31, 1486.298461914062
0, 1, 32, 1410.884521484375
0, 1, 33, 1498.81005859375
0, 1, 34, 1499.421752929688
0, 1, 35, 1466.193237304688
0, 1, 36, 1489.684448242188
0, 1, 37, 1413.489379882812
0, 1, 38, 1390.177124023438
0, 1, 39, 1523.193969726562
0, 1, 40, 1466.234741210938
0, 1, 41, 1486.713256835938
0, 1, 42, 1492.671997070312
0, 1, 43, 1502.324829101562
0, 1, 44, 1447.587158203125
0, 1, 45, 1488.498779296875
0, 1, 46, 1420.033813476562
0, 1, 47, 1435.434692382812
0, 1, 48, 1429.785766601562
0, 1, 49, 1481.2177734375
0, 1, 50, 1441.649658203125
0, 1, 51, 1474.054565429688
0, 1, 52, 1481.842041015625
0, 1, 53, 1473.095947265625
0, 1, 54, 1508.139404296875
0, 1, 55, 1497.057739257812
0, 1, 56, 1475.122680664062
0, 1, 57, 1455.457275390625
0, 1, 58, 1429.279663085938
0, 1, 59, 1483.201538085938
0, 1, 60, 1462.70361328125
0, 1, 61, 1449.705078125
0, 1, 62, 1451.502563476562
0, 1, 63, 1418.665649414062
0, 1, 64, 1472.219482421875
0, 1, 65, 1414.722045898438
0, 1, 66, 1435.679565429688
0, 1, 67, 1455.939575195312
0, 1, 68, 1388.90478515625
0, 1, 69, 1463.9345703125
0, 1, 70, 1431.8232421875
0, 1, 71, 1495.913208007812
0, 1, 72, 1437.7802734375
0, 1, 73, 1492.966796875
0, 1, 74, 1466.593383789062
0, 1, 75, 1471.335083007812
0, 1, 76, 1457.6630859375
0, 1, 77, 1465.058715820312
0, 1, 78, 1452.509765625
0, 1, 79, 1500.279907226562
0, 1, 80, 1448.602661132812
0, 1, 81, 1425.168701171875
0, 1, 82, 1474.92529296875
0, 1, 83, 1463.555419921875
0, 1, 84, 1534.019897460938
0, 1, 85, 1447.3984375
0, 1, 86, 1405.543701171875
0, 1, 87, 1416.455444335938
0, 1, 88, 1476.23828125
0, 1, 89, 1470.172241210938
0, 1, 90, 1423.71630859375
0, 1, 91, 1463.885986328125
0, 1, 92, 1413.8994140625
0, 1, 93, 1457.786499023438
0, 1, 94, 1466.751953125
0, 1, 95, 1419.114624023438
0, 1, 96, 1499.85888671875
0, 1, 97, 1516.558837890625
0, 1, 98, 1478.3984375
0, 1, 99, 1418.55126953125
0, 1, 100, 1449.021118164062
0, 1, 101, 1411.745239257812
0, 1, 102, 1439.819580078125
0, 1, 103, 1415.881713867188
0, 1, 104, 1407.462768554688
0, 1, 105, 1465.172607421875
0, 1, 106, 1365.320678710938
0, 1, 107, 1022.913940429688
0, 1, 108, 402.4230651855469
0, 1, 109, 89.55853271484375
0, 1, 110, 60.73647308349609
0, 1, 111, 53.24153518676758
0, 1, 112, 55.05620956420898
0, 1, 113, 38.24876022338867
0, 1, 114, 35.4878044128418
0, 1, 115, 35.57686614990234
0, 1, 116, 34.34494018554688
0, 1, 117, 36.13058090209961
0, 1, 118, 36.94132995605469
0, 1, 119, 35.2845458984375
0, 1, 120, 30.05256843566895
0, 1, 121, 21.65149688720703
0, 1, 122, 23.27181816101074
0, 1, 123, 23.08329582214355
0, 1, 124, 30.93814849853516
0, 1, 125, 17.18929672241211
0, 1, 126, 20.37621307373047
0, 1, 127, 18.96343421936035
0, 2, 0, 23.91448974609375
0, 2, 1, 20.45185852050781
0, 2, 2, 32.33895874023438
0, 2, 3, 20.47853851318359
0, 2, 4, 25.66230201721191
0, 2, 5, 22.87311553955078
0, 2, 6, 25.07488059997559
0, 2, 7, 19.4433765411377
0, 2, 8, 28.04317665100098
0, 2, 9, 29.26262092590332
0, 2, 10, 31.22217178344727
0, 2, 11, 29.12131118774414
0, 2, 12, 36.77220916748047
0, 2, 13, 43.77981185913086
0, 2, 14, 46.30680084228516
0, 2, 15, 48.82968139648438
0, 2, 16, 62.02333831787109
0, 2, 17, 78.34078979492188
0, 2, 18, 140.7042999267578
0, 2, 19, 602.9942016601562
0, 2, 20, 1285.540649414062
0, 2, 21, 1432.954833984375
0, 2, 22, 1455.789672851562
0, 2, 23, 1401.9228515625
0, 2, 24, 1442.123413085938
0, 2, 25, 1525.48291015625
0, 2, 26, 1555.835815429688
0, 2, 27, 1457.516967773438
0, 2, 28, 1460.528076171875
0, 2, 29, 1463.899780273438
0, 2, 30, 1466.945434570312
0, 2, 31, 1534.9501953125
0, 2, 32, 1506.276000976562
0, 2, 33, 1440.831665039062
0, 2, 34, 1477.920532226562
0, 2, 35, 1469.270629882812
0, 2, 36, 1526.361206054688
0, 2, 37, 1540.154174804688
0, 2, 38, 1507.37353515625
0, 2, 39, 1468.171997070312
0, 2, 40, 1500.230834960938
0, 2, 41, 1524.5107421875
0, 2, 42, 1499.613647460938
0, 2, 43, 1546.742797851562
0, 2, 44, 1459.263549804688
0, 2, 45, 1477.614868164062
0, 2, 46, 1428.849731445312
0, 2, 47, 1447.444580078125
0, 2, 48, 1401.449462890625
0, 2, 49, 1467.6435546875
0, 2, 50, 1444.0771484375
0, 2, 51, 1442.593383789062
0, 2, 52, 1493.11865234375
0, 2, 53, 1528.26953125
0, 2, 54, 1526.775268554688
0, 2, 55, 1492.419555664062
0, 2, 56, 1462.79052734375
0, 2, 57, 1413.26904296875
0, 2, 58, 1454.579345703125
0, 2, 59, 1444.580688476562
0, 2, 60, 1476.597534179688
0, 2, 61, 1444.723876953125
0, 2, 62, 1467.587036132812
0, 2, 63, 1509.476806640625
0, 2, 64, 1456.648803710938
0, 2, 65, 1425.021728515625
0, 2, 66, 1491.481323242188
0, 2, 67, 1504.989868164062
0, 2, 68, 1547.50390625
0, 2, 69, 1537.880126953125
0, 2, 70, 1509.314819335938
0, 2, 71, 1459.76806640625
0, 2, 72, 1518.100463867188
0, 2, 73, 1516.649047851562
0, 2, 74, 1487.375
0, 2, 75, 1511.942504882812
0, 2, 76, 1448.69384765625
0, 2, 77, 1509.40380859375
0, 2, 78, 1430.742065429688
0, 2, 79, 1538.12451171875
0, 2, 80, 1483.677612304688
0, 2, 81, 1464.646362304688
0, 2, 82, 1554.5869140625
0, 2, 83, 1514.966430664062
0, 2, 84, 1492.33251953125
0, 2, 85, 1514.493774414062
0, 2, 86, 1540.415161132812
0, 2, 87, 1485.71337890625
0, 2, 88, 1535.684936523438
0, 2, 89, 1463.497436523438
0, 2, 90, 1436.368408203125
0, 2, 91, 1405.20166015625
0, 2, 92, 1475.938232421875
0, 2, 93, 1495.775512695312
0, 2, 94, 1454.54833984375
0, 2, 95, 1544.447631835938
0, 2, 96, 1513.1455078125
0, 2, 97, 1453.44140625
0, 2, 98, 1464.531616210938
0, 2, 99, 1404.819213867188
0, 2, 100, 1476.8427734375
0, 2, 101, 1479.101318359375
0, 2, 102, 1460.9873046875
0, 2, 103, 1388.715698242188
0, 2, 104, 1408.766967773438
0, 2, 105, 1396.068237304688
0, 2, 106, 1460.48828125
0, 2, 107, 1272.197998046875
0, 2, 108, 624.105712890625
0, 2, 109, 166.3548583984375
0, 2, 110, 66.13312530517578
0, 2, 111, 60.14829254150391
0, 2, 112, 49.22827911376953
0, 2, 113, 43.49104309082031
0, 2, 114, 39.11073684692383
0, 2, 115, 40.91194152832031
0, 2, 116, 35.42400360107422
0, 2, 117, 35.24191284179688
0, 2, 118, 30.21152305603027
0, 2, 119, 31.07334518432617
0, 2, 120, 31.05908012390137
0, 2, 121, 20.89779090881348
0, 2, 122, 25.87273979187012
0, 2, 123, 21.99965667724609
0, 2, 124, 26.07074165344238
0, 2, 125, 34.15401458740234
0, 2, 126, 15.80178546905518
0, 2, 127, 21.72848510742188
0, 3, 0, 18.04409408569336
0, 3, 1, 26.85812759399414
0, 3, 2, 20.10829734802246
0, 3, 3, 24.8541374206543
0, 3, 4, 16.73495674133301
0, 3, 5, 21.18619918823242
0, 3, 6, 33.82626724243164
0, 3, 7, 27.69948196411133
0, 3, 8, 25.98052406311035
0, 3, 9, 28.80721092224121
0, 3, 10, 37.8358039855957
0, 3, 11, 34.68523788452148
0, 3, 12, 43.41782760620117
0, 3, 13, 55.46524810791016
0, 3, 14, 60.65510940551758
0, 3, 15, 52.18525695800781
0, 3, 16, 64.68467712402344
0, 3, 17, 88.68772125244141
0, 3, 18, 239.6498718261719
0, 3, 19, 882.1015625
0, 3, 20, 1386.432495117188
0, 3, 21, 1506.96484375
0, 3, 22, 1466.074829101562
0, 3, 23, 1449.068481445312
0, 3, 24, 1440.962646484375
0, 3, 25, 1469.112182617188
0, 3, 26, 1494.185668945312
0, 3, 27, 1463.511474609375
0, 3, 28, 1493.801635742188
0, 3, 29, 1541.4306640625
0, 3, 30, 1570.946899414062
0, 3, 31, 1508.302490234375
0, 3, 32, 1552.166381835938
0, 3, 33, 1540.334106445312
0, 3, 34, 1487.623779296875
0, 3, 35, 1462.714599609375
0, 3, 36, 1451.084594726562
0, 3, 37, 1514.744140625
0, 3, 38, 1517.182983398438
0, 3, 39, 1435.43505859375
0, 3, 40, 1443.5361328125
0, 3, 41, 1565.585205078125
0, 3, 42, 1460.427612304688
0, 3, 43, 1455.89892578125
0, 3, 44, 1457.78564453125
0, 3, 45, 1510.25634765625
0, 3, 46, 1508.390014648438
0, 3, 47, 1444.811279296875
0, 3, 48, 1512.450073242188
0, 3, 49, 1453.23876953125
0, 3, 50, 1494.910888671875
0, 3, 51, 1538.859619140625
0, 3, 52, 1536.979858398438
0, 3, 53, 1466.639282226562
0, 3, 54, 1533.090698242188
0, 3, 55, 1504.097412109375
0, 3, 56, 1438.29296875
0, 3, 57, 1501.837890625
0, 3, 58, 1512.482543945312
0, 3, 59, 1511.895874023438
0, 3, 60, 1536.736938476562
0, 3, 61, 1482.333374023438
0, 3, 62, 1491.206665039062
0, 3, 63, 1492.200927734375
0, 3, 64, 1505.496826171875
0, 3, 65, 1512.755004882812
0, 3, 66, 1555.52978515625
0, 3, 67, 1545.722412109375
0, 3, 68, 1451.7177734375
0, 3, 69, 1473.246948242188
0, 3, 70, 1388.655029296875
0, 3, 71, 1461.291748046875
0, 3, 72, 1551.610961914062
0, 3, 73, 1502.178588867188
0, 3, 74, 1465.744262695312
0, 3, 75, 1459.158813476562
0, 3, 76, 1573.34326171875
0, 3, 77, 1540.096923828125
0, 3, 78, 1429.678466796875
0, 3, 79, 1489.270141601562
0, 3, 80, 1461.46337890625
0, 3, 81, 1471.822143554688
0, 3, 82, 1559.682739257812
0, 3, 83, 1510.108032226562
0, 3, 84, 1560.602294921875
0, 3, 85, 1477.916381835938
0, 3, 86, 1525.438720703125
0, 3, 87, 1542.523071289062
0, 3, 88, 1460.43603515625
0, 3, 89, 1447.138793945312
0, 3, 90, 1456.865966796875
0, 3, 91, 1415.073608398438
0, 3, 92, 1515.370971679688
0, 3, 93, 1504.016479492188
0, 3, 94, 1518.908447265625
0, 3, 95, 1542.559936523438
0, 3, 96, 1517.384521484375
0, 3, 97, 1469.583374023438
0, 3, 98, 1434.1416015625
0, 3, 99, 1466.044921875
0, 3, 100, 1467.669189453125
0, 3, 101, 1472.657470703125
0, 3, 102, 1520.001342773438
0, 3, 103, 1554.237915039062
0, 3, 104, 1499.907470703125
0, 3, 105, 1517.974243164062
0, 3, 106, 1478.907958984375
0, 3, 107, 1339.869384765625
0, 3, 108, 871.3245239257812
0, 3, 109, 264.3822021484375
0, 3, 110, 101.1637420654297
0, 3, 111, 61.90957260131836
0, 3, 112, 57.18293762207031
0, 3, 113, 58.07360076904297
0, 3, 114, 50.59648132324219
0, 3, 115, 48.93158721923828
0, 3, 116, 33.55456924438477
0, 3, 117, 43.90516662597656
0, 3, 118, 35.28665161132812
0, 3, 119, 28.89410209655762
0, 3, 120, 29.50037002563477
0, 3, 121, 20.69879913330078
0, 3, 122, 25.88270950317383
0, 3, 123, 27.31390762329102
0, 3, 124, 18.77259254455566
0, 3, 125, 27.90520668029785
0, 3, 126, 27.21118545532227
0, 3, 127, 17.09330177307129
0, 4, 0, 19.70051765441895
0, 4, 1, 22.63328742980957
0, 4, 2, 17.68693351745605
0, 4, 3, 20.39034271240234
0, 4, 4, 23.98535537719727
0, 4, 5, 30.75314903259277
0, 4, 6, 28.56161308288574
0, 4, 7, 31.81389045715332
0, 4, 8, 25.39700698852539
0, 4, 9, 32.7551383972168
0, 4, 10, 34.26169204711914
0, 4, 11, 38.23088836669922
0, 4, 12, 40.81020736694336
0, 4, 13, 57.45455932617188
0, 4, 14, 50.11498260498047
0, 4, 15, 66.77577209472656
0, 4, 16, 77.09400177001953
0, 4, 17, 116.6040420532227
0, 4, 18, 441.6510925292969
0, 4, 19, 1179.396362304688
0, 4, 20, 1445.158935546875
0, 4, 21, 1418.470092773438
0, 4, 22, 1430.593627929688
0, 4, 23, 1449.521728515625
0, 4, 24, 1477.133544921875
0, 4, 25, 1403.339111328125
0, 4, 26, 1536.916259765625
0, 4, 27, 1544.218017578125
0, 4, 28, 1506.443603515625
0, 4, 29, 1514.607299804688
0, 4, 30, 1531.108154296875
0, 4, 31, 1571.336059570312
0, 4, 32, 1517.27099609375
0, 4, 33, 1493.13720703125
0, 4, 34, 1470.950561523438
0, 4, 35, 1560.572875976562
0, 4, 36, 1504.0244140625
0, 4, 37, 1509.598388671875
0, 4, 38, 1532.050415039062
0, 4, 39, 1472.65087890625
0, 4, 40, 1519.780883789062
0, 4, 41, 1585.085693359375
0, 4, 42, 1564.903564453125
0, 4, 43, 1474.252685546875
0, 4, 44, 1497.548828125
0, 4, 45, 1517.090454101562
0, 4, 46, 1474.507080078125
0, 4, 47, 1504.350830078125
0, 4, 48, 1525.57958984375
0, 4, 49, 1470.875244140625
0, 4, 50, 1517.63525390625
0, 4, 51, 1490.29345703125
0, 4, 52, 1494.016357421875
0, 4, 53, 1457.627807617188
0, 4, 54, 1441.562622070312
0, 4, 55, 1522.9033203125
0, 4, 56, 1454.059326171875
0, 4, 57, 1496.207397460938
0, 4, 58, 1462.737548828125
0, 4, 59, 1466.080444335938
0, 4, 60, 1527.13818359375
0, 4, 61, 1503.4638671875
0, 4, 62, 1503.26611328125
0, 4, 63, 1543.595947265625
0, 4, 64, 1589.212890625
0, 4, 65, 1420.713623046875
0, 4, 66, 1512.75927734375
0, 4, 67, 1520.137817382812
0, 4, 68, 1493.692749023438
0, 4, 69, 1467.26708984375
0, 4, 70, 1549.039306640625
0, 4, 71, 1521.056396484375
0, 4, 72, 1528.994140625
0, 4, 73, 1493.032836914062
0, 4, 74, 1481.757568359375
0, 4, 75, 1532.967895507812
0, 4, 76, 1481.4541015625
0, 4, 77, 1499.527954101562
0, 4, 78, 1501.38330078125
0, 4, 79, 1482.803466796875
0, 4, 80, 1514.1015625
0, 4, 81, 1523.128051757812
0, 4, 82, 1564.019165039062
0, 4, 83, 1501.6181640625
0, 4, 84, 1534.921508789062
0, 4, 85, 1554.82177734375
0, 4, 86, 1525.127319335938
0, 4, 87, 1496.4267578125
0, 4, 88, 1506.74169921875
0, 4, 89, 1479.942138671875
0, 4, 90, 1542.03515625
0, 4, 91, 1553.197387695312
0, 4, 92, 1491.908203125
0, 4, 93, 1514.499877929688
0, 4, 94, 1488.126220703125
0, 4, 95, 1512.61669921875
0, 4, 96, 1439.909790039062
0, 4, 97, 1409.397583007812
0, 4, 98, 1555.427612304688
0, 4, 99, 1512.679809570312
0, 4, 100, 1488.931396484375
0, 4, 101, 1456.324096679688
0, 4, 102, 1453.9560546875
0, 4, 103, 1516.443359375
0, 4, 104, 1507.5703125
0, 4, 105, 1555.236328125
0, 4, 106, 1476.565185546875
0, 4, 107, 1458.076049804688
0, 4, 108, 1120.507080078125
0, 4, 109, 438.8135070800781
0, 4, 110, 98.37918853759766
0, 4, 111, 69.359130859375
0, 4, 112, 61.36589431762695
0, 4, 113, 48.73779678344727
0, 4, 114, 53.04605484008789
0, 4, 115, 43.89828491210938
0, 4, 116, 37.74420166015625
0, 4, 117, 47.47590637207031
0, 4, 118, 35.84321975708008
0, 4, 119, 38.17927169799805
0, 4, 120, 33.79716873168945
0, 4, 121, 32.63760375976562
0, 4, 122, 32.8349494934082
0, 4, 123, 26.30737686157227
0, 4, 124, 23.94491195678711
0, 4, 125, 28.05707740783691
0, 4, 126, 22.38330841064453
0, 4, 127, 16.90778350830078
0, 5, 0, 19.84263610839844
0, 5, 1, 25.82952117919922
0, 5, 2, 29.439453125
0, 5, 3, 26.66510009765625
0, 5, 4, 18.5636157989502
0, 5, 5, 32.7292366027832
0, 5, 6, 30.30321311950684
0, 5, 7, 30.54347610473633
0, 5, 8, 30.72850799560547
0, 5, 9, 33.23873138427734
0, 5, 10, 36.83395004272461
0, 5, 11, 38.89891052246094
0, 5, 12, 42.11835861206055
0, 5, 13, 43.09819412231445
0, 5, 14, 58.46544647216797
0, 5, 15, 77.72681427001953
0, 5, 16, 83.79486083984375
0, 5, 17, 157.2500610351562
0, 5, 18, 672.7056884765625
0, 5, 19, 1346.807495117188
0, 5, 20, 1525.730346679688
0, 5, 21, 1490.469116210938
0, 5, 22, 1498.976806640625
0, 5, 23, 1531.59814453125
0, 5, 24, 1462.637817382812
0, 5, 25, 1426.876342773438
0, 5, 26, 1527.499267578125
0, 5, 27, 1540.975952148438
0, 5, 28, 1490.737426757812
0, 5, 29, 1525.44384765625
0, 5, 30, 1495.366577148438
0, 5, 31, 1501.989990234375
0, 5, 32, 1590.616455078125
0, 5, 33, 1503.135986328125
0, 5, 34, 1485.565551757812
0, 5, 35, 1514.231201171875
0, 5, 36, 1443.913452148438
0, 5, 37, 1525.181030273438
0, 5, 38, 1549.030883789062
0, 5, 39, 1547.996948242188
0, 5, 40, 1499.683715820312
0, 5, 41, 1479.982666015625
0, 5, 42, 1537.3974609375
0, 5, 43, 1534.714111328125
0, 5, 44, 1547.094848632812
0, 5, 45, 1509.872314453125
0, 5, 46, 1491.045776367188
0, 5, 47, 1482.984008789062
0, 5, 48, 1505.7294921875
0, 5, 49, 1526.40576171875
0, 5, 50, 1501.363403320312
0, 5, 51, 1515.790405273438
0, 5, 52, 1428.316528320312
0, 5, 53, 1524.416259765625
0, 5, 54, 1520.12646484375
0, 5, 55, 1528.7275390625
0, 5, 56, 1485.796997070312
0, 5, 57, 1540.03369140625
0, 5, 58, 1505.769287109375
0, 5, 59, 1490.186889648438
0, 5, 60, 1531.673461914062
0, 5, 61, 1452.244506835938
0, 5, 62, 1589.281616210938
0, 5, 63, 1437.630249023438
0, 5, 64, 1487.591796875
0, 5, 65, 1463.461669921875
0, 5, 66, 1528.13525390625
0, 5, 67, 1559.048706054688
0, 5, 68, 1466.574096679688
0, 5, 69, 1481.665405273438
0, 5, 70, 1486.859130859375
0, 5, 71, 1470.55859375
0, 5, 72, 1538.332275390625
0, 5, 73, 1457.045288085938
0, 5, 74, 1496.125366210938
0, 5, 75, 1485.829467773438
0, 5, 76, 1484.2978515625
0, 5, 77, 1523.618774414062
0, 5, 78, 1527.055786132812
0, 5, 79, 1511.022705078125
0, 5, 80, 1516.308227539062
0, 5, 81, 1594.87109375
0, 5, 82, 1527.978149414062
0, 5, 83, 1493.218383789062
0, 5, 84, 1538.544921875
0, 5, 85, 1513.243041992188
0, 5, 86, 1557.751586914062
0, 5, 87, 1475.200073242188
0, 5, 88, 1498.248779296875
0, 5, 89, 1480.774658203125
0, 5, 90, 1479.5986328125
0, 5, 91, 1553.363891601562
0, 5, 92, 1479.239013671875
0, 5, 93, 1559.461669921875
0, 5, 94, 1509.652465820312
0, 5, 95, 1565.619384765625
0, 5, 96, 1498.370239257812
0, 5, 97, 1509.603149414062
0, 5, 98, 1516.658447265625
0, 5, 99, 1543.914672851562
0, 5, 100, 1439.246459960938
0, 5, 101, 1431.687133789062
0, 5, 102, 1513.64404296875
0, 5, 103, 1476.106567382812
0, 5, 104, 1462.734008789062
0, 5, 105, 1489.655151367188
0, 5, 106, 1459.44677734375
0, 5, 107, 1398.619140625
0, 5, 108, 1290.093994140625
0, 5, 109, 724.14404296875
0, 5, 110, 189.7275238037109
0, 5, 111, 90.20120239257812
0, 5, 112, 83.44779968261719
0, 5, 113, 62.91143798828125
0, 5, 114, 53.27214431762695
0, 5, 115, 53.83701705932617
0, 5, 116, 43.83903884887695
0, 5, 117, 40.09894943237305
0, 5, 118, 41.52727127075195
0, 5, 119, 24.30386543273926
0, 5, 120, 24.44840049743652
0, 5, 121, 23.94260406494141
0, 5, 122, 28.85817909240723
0, 5, 123, 28.24036026000977
0, 5, 124, 28.92049217224121
0, 5, 125, 25.84795188903809
0, 5, 126, 20.24538421630859
0, 5, 127, 27.56759452819824
0, 6, 0, 26.76719665527344
0, 6, 1, 28.59051513671875
0, 6, 2, 29.93492698669434
0, 6, 3, 26.47815704345703
0, 6, 4, 25.9683837890625
0, 6, 5, 33.61427307128906
0, 6, 6, 37.39408874511719
0, 6, 7, 32.03916168212891
0, 6, 8, 34.08887481689453
0, 6, 9, 34.05073928833008
0, 6, 10, 33.42995071411133
0, 6, 11, 40.26142883300781
0, 6, 12, 39.70671463012695
0, 6, 13, 62.08893966674805
0, 6, 14, 64.43515014648438
0, 6, 15, 82.46811676025391
0, 6, 16, 114.3960571289062
0, 6, 17, 297.1645202636719
0, 6, 18, 897.533935546875
0, 6, 19, 1377.113525390625
0, 6, 20, 1435.295043945312
0, 6, 21, 1530.936889648438
0, 6, 22, 1506.370239257812
0, 6, 23, 1531.583862304688
0, 6, 24, 1473.866088867188
0, 6, 25, 1526.886962890625
0, 6, 26, 1514.177856445312
0, 6, 27, 1524.641845703125
0, 6, 28, 1555.62841796875
0, 6, 29, 1569.375122070312
0, 6, 30, 1512.21630859375
0, 6, 31, 1495.187255859375
0, 6, 32, 1524.456665039062
0, 6, 33, 1490.322998046875
0, 6, 34, 1558.97509765625
0, 6, 35, 1501.544555664062
0, 6, 36, 1436.575927734375
0, 6, 37, 1546.88525390625
0, 6, 38, 1520.146728515625
0, 6, 39, 1527.368896484375
0, 6, 40, 1460.395874023438
0, 6, 41, 1443.373168945312
0, 6, 42, 1513.9609375
0, 6, 43, 1484.193603515625
0, 6, 44, 1431.489013671875
0, 6, 45, 1544.13037109375
0, 6, 46, 1551.819946289062
0, 6, 47, 1494.990600585938
0, 6, 48, 1525.721313476562
0, 6, 49, 1508.360229492188
0, 6, 50, 1577.92236328125
0, 6, 51, 1503.844482421875
0, 6, 52, 1562.3583984375
0, 6, 53, 1471.452026367188
0, 6, 54, 1496.229858398438
0, 6, 55, 1570.39013671875
0, 6, 56, 1523.497802734375
0, 6, 57, 1501.876342773438
0, 6, 58, 1469.972900390625
0, 6, 59, 1519.652099609375
0, 6, 60, 1470.366943359375
0, 6, 61, 1574.819580078125
0, 6, 62, 1550.209350585938
0, 6, 63, 1500.157958984375
0, 6, 64, 1409.087768554688
0, 6, 65, 1497.00927734375
0, 6, 66, 1507.9765625
0, 6, 67, 1514.472045898438
0, 6, 68, 1545.701049804688
0, 6, 69, 1485.92822265625
0, 6, 70, 1520.908203125
0, 6, 71, 1464.785034179688
0, 6, 72, 1592.912719726562
0, 6, 73, 1492.0302734375
0, 6, 74, 1561.20947265625
0, 6, 75, 1537.941772460938
0, 6, 76, 1565.672241210938
0, 6, 77, 1503.094970703125
0, 6, 78, 1445.432739257812
0, 6, 79, 1557.017333984375
0, 6, 80, 1487.384643554688
0, 6, 81, 1485.509399414062
0, 6, 82, 1503.341064453125
0, 6, 83, 1529.1328125
0, 6, 84, 1523.87744140625
0, 6, 85, 1538.920166015625
0, 6, 86, 1537.23046875
0, 6, 87, 1580.687622070312
0, 6, 88, 1477.778686523438
0, 6, 89, 1561.943237304688
0, 6, 90, 1489.586547851562
0, 6, 91, 1539.690063476562
0, 6, 92, 1484.2392578125
0, 6, 93, 1497.406127929688
0, 6, 94, 1469.46630859375
0, 6, 95, 1514.073486328125
0, 6, 96, 1524.0478515625
0, 6, 97, 1504.71435546875
0, 6, 98, 1499.485595703125
0, 6, 99, 1477.0751953125
0, 6, 100, 1526.27587890625
0, 6, 101, 1514.370727539062
0, 6, 102, 1540.173583984375
0, 6, 103, 1497.971557617188
0, 6, 104, 1461.926513671875
0, 6, 105, 1484.387817382812
0, 6, 106, 1501.482177734375
0, 6, 107, 1505.6181640625
0, 6, 108, 1408.520751953125
0, 6, 109, 930.1343994140625
0, 6, 110, 283.3544921875
0, 6, 111, 93.69483947753906
0, 6, 112, 77.85491943359375
0, 6, 113, 55.28749847412109
0, 6, 114, 60.79045867919922
0, 6, 115, 46.99660873413086
0, 6, 116, 46.73308181762695
0, 6, 117, 41.76377868652344
0, 6, 118, 38.64997482299805
0, 6, 119, 36.85413360595703
0, 6, 120, 36.07822036743164
0, 6, 121, 28.80578804016113
0, 6, 122, 29.05267333984375
0, 6, 123, 27.14861869812012
0, 6, 124, 25.75847244262695
0, 6, 125, 27.43168640136719
0, 6, 126, 23.38008880615234
0, 6, 127, 22.07454299926758
0, 7, 0, 23.3970775604248
0, 7, 1, 26.869384765625
0, 7, 2, 21.18364906311035
0, 7, 3, 23.32686614990234
0, 7, 4, 25.62099075317383
0, 7, 5, 37.31348037719727
0, 7, 6, 31.18836212158203
0, 7, 7, 34.94671630859375
0, 7, 8, 31.48635673522949
0, 7, 9, 29.32828903198242
0, 7, 10, 45.9875602722168
0, 7, 11, 44.83523941040039
0, 7, 12, 45.29302978515625
0, 7, 13, 56.81296539306641
0, 7, 14, 64.37152099609375
0, 7, 15, 81.63468170166016
0, 7, 16, 130.5557403564453
0, 7, 17, 462.4134826660156
0, 7, 18, 1100.060913085938
0, 7, 19, 1505.70263671875
0, 7, 20, 1486.45849609375
0, 7, 21, 1365.74951171875
0, 7, 22, 1487.087768554688
0, 7, 23, 1450.796142578125
0, 7, 24, 1508.8125
0, 7, 25, 1594.977783203125
0, 7, 26, 1521.398681640625
0, 7, 27, 1513.870361328125
0, 7, 28, 1539.62744140625
0, 7, 29, 1578.076904296875
0, 7, 30, 1549.0712890625
0, 7, 31, 1441.07763671875
0, 7, 32, 1547.914306640625
0, 7, 33, 1493.5478515625
0, 7, 34, 1477.564575195312
0, 7, 35, 1517.567260742188
0, 7, 36, 1470.386840820312
0, 7, 37, 1602.772583007812
0, 7, 38, 1502.701538085938
0, 7, 39, 1494.063110351562
0, 7, 40, 1539.80908203125
0, 7, 41, 1465.1279296875
0, 7, 42, 1491.15283203125
0, 7, 43, 1437.938232421875
0, 7, 44, 1486.539428710938
0, 7, 45, 1468.248413085938
0, 7, 46, 1516.376953125
0, 7, 47, 1566.135620117188
0, 7, 48, 1527.3662109375
0, 7, 49, 1537.106567382812
0, 7, 50, 1514.846557617188
0, 7, 51, 1495.767822265625
0, 7, 52, 1517.127563476562
0, 7, 53, 1493.867919921875
0, 7, 54, 1587.33251953125
0, 7, 55, 1474.103515625
0, 7, 56, 1547.633056640625
0, 7, 57, 1513.94287109375
0, 7, 58, 1545.010620117188
0, 7, 59, 1537.522216796875
0, 7, 60, 1550.05224609375
0, 7, 61, 1485.758178710938
0, 7, 62, 1431.833374023438
0, 7, 63, 1514.400268554688
0, 7, 64, 1551.311645507812
0, 7, 65, 1525.11083984375
0, 7, 66, 1537.1865234375
0, 7, 67, 1576.232543945312
0, 7, 68, 1534.615966796875
0, 7, 69, 1513.87255859375
0, 7, 70, 1494.562622070312
0, 7, 71, 1518.928344726562
0, 7, 72, 1525.283569335938
0, 7, 73, 1519.463012695312
0, 7, 74, 1573.409423828125
0, 7, 75, 1535.034301757812
0, 7, 76, 1558.524780273438
0, 7, 77, 1511.983032226562
0, 7, 78, 1508.193359375
0, 7, 79, 1421.880004882812
0, 7, 80, 1483.997802734375
0, 7, 81, 1495.027465820312
0, 7, 82, 1532.251098632812
0, 7, 83, 1546.953002929688
0, 7, 84, 1584.415893554688
0, 7, 85, 1479.382202148438
0, 7, 86, 1500.8798828125
0, 7, 87, 1505.507080078125
0, 7, 88, 1502.845947265625
0, 7, 89, 1547.697509765625
0, 7, 90, 1520.946533203125
0, 7, 91, 1561.365600585938
0, 7, 92, 1525.830932617188
0, 7, 93, 1550.909545898438
0, 7, 94, 1531.151245117188
0, 7, 95, 1505.004150390625
0, 7, 96, 1506.518798828125
0, 7, 97, 1437.889770507812
0, 7, 98, 1480.891357421875
0, 7, 99, 1523.534912109375
0, 7, 100, 1418.026000976562
0, 7, 101, 1465.612182617188
0, 7, 102, 1448.282958984375
0, 7, 103, 1433.023681640625
0, 7, 104, 1494.288940429688
0, 7, 105, 1520.10888671875
0, 7, 106, 1567.795166015625
0, 7, 107, 1482.087036132812
0, 7, 108, 1409.309204101562
0, 7, 109, 1143.193359375
0, 7, 110, 473.868896484375
0, 7, 111, 126.0996704101562
0, 7, 112, 82.00857543945312
0, 7, 113, 67.0546875
0, 7, 114, 55.97193145751953
0, 7, 115, 51.92446136474609
0, 7, 116, 46.35833358764648
0, 7, 117, 40.82298278808594
0, 7, 118, 38.91078567504883
0, 7, 119, 33.56269073486328
0, 7, 120, 22.93896865844727
0, 7, 121, 30.41624069213867
0, 7, 122, 30.29104804992676
0, 7, 123, 34.60961151123047
0, 7, 124, 32.82313537597656
0, 7, 125, 20.17294883728027
0, 7, 126, 27.4577751159668
0, 7, 127, 23.99775886535645
0, 8, 0, 19.29140853881836
0, 8, 1, 22.53632926940918
0, 8, 2, 26.11151695251465
0, 8, 3, 22.25168037414551
0, 8, 4, 27.01853179931641
0, 8, 5, 36.08835983276367
0, 8, 6, 31.73616218566895
0, 8, 7, 27.90059661865234
0, 8, 8, 34.03914260864258
0, 8, 9, 45.50269317626953
0, 8, 10, 38.42894744873047
0, 8, 11, 45.41747665405273
0, 8, 12, 52.86560821533203
0, 8, 13, 72.21004486083984
0, 8, 14, 68.23739624023438
0, 8, 15, 89.21437072753906
0, 8, 16, 175.7841339111328
0, 8, 17, 674.745849609375
0, 8, 18, 1277.373413085938
0, 8, 19, 1446.993896484375
0, 8, 20, 1422.137817382812
0, 8, 21, 1405.886596679688
0, 8, 22, 1490.931884765625
0, 8, 23, 1479.443481445312
0, 8, 24, 1435.5458984375
0, 8, 25, 1457.952758789062
0, 8, 26, 1514.799072265625
0, 8, 27, 1518.647216796875
0, 8, 28, 1477.805908203125
0, 8, 29, 1503.99072265625
0, 8, 30, 1486.977661132812
0, 8, 31, 1535.188354492188
0, 8, 32, 1512.288818359375
0, 8, 33, 1484.208862304688
0, 8, 34, 1537.449829101562
0, 8, 35, 1441.868041992188
0, 8, 36, 1502.265747070312
0, 8, 37, 1556.735107421875
0, 8, 38, 1553.881103515625
0, 8, 39, 1491.196533203125
0, 8, 40, 1529.924682617188
0, 8, 41, 1484.614379882812
0, 8, 42, 1536.415283203125
0, 8, 43, 1432.773559570312
0, 8, 44, 1535.881591796875
0, 8, 45, 1512.476196289062
0, 8, 46, 1597.5712890625
0, 8, 47, 1581.781494140625
