# TOPAS Version: 3.1.p3
# Parameter File: batch_inserts_22.txt
# Results for scorer Readout_Adipose
# Scored in component: MyBox
# X in 1 bin  of 0.75 cm
# Y in 512 bins of 0.0783984 cm
# Z in 128 bins of 0.078125 cm
# EnergyDeposit ( MeV ) : Sum   
0, 0, 0, 23.37756538391113
0, 0, 1, 19.59096145629883
0, 0, 2, 26.4422550201416
0, 0, 3, 25.29132461547852
0, 0, 4, 21.6777172088623
0, 0, 5, 27.27978515625
0, 0, 6, 28.00905418395996
0, 0, 7, 31.63302612304688
0, 0, 8, 22.4555835723877
0, 0, 9, 24.1984806060791
0, 0, 10, 26.78728675842285
0, 0, 11, 31.62459754943848
0, 0, 12, 34.32536697387695
0, 0, 13, 36.27303314208984
0, 0, 14, 35.46218490600586
0, 0, 15, 45.43203353881836
0, 0, 16, 44.46230697631836
0, 0, 17, 46.55781173706055
0, 0, 18, 74.64046478271484
0, 0, 19, 192.7852172851562
0, 0, 20, 704.2692260742188
0, 0, 21, 1192.705200195312
0, 0, 22, 1250.917846679688
0, 0, 23, 1272.659545898438
0, 0, 24, 1282.369750976562
0, 0, 25, 1357.282104492188
0, 0, 26, 1268.384643554688
0, 0, 27, 1278.328857421875
0, 0, 28, 1327.104248046875
0, 0, 29, 1269.296020507812
0, 0, 30, 1261.165283203125
0, 0, 31, 1280.358764648438
0, 0, 32, 1265.075317382812
0, 0, 33, 1243.522705078125
0, 0, 34, 1324.838623046875
0, 0, 35, 1298.962646484375
0, 0, 36, 1242.359619140625
0, 0, 37, 1278.735595703125
0, 0, 38, 1252.265869140625
0, 0, 39, 1243.842041015625
0, 0, 40, 1226.856323242188
0, 0, 41, 1268.7734375
0, 0, 42, 1253.446166992188
0, 0, 43, 1271.53271484375
0, 0, 44, 1228.030639648438
0, 0, 45, 1289.69384765625
0, 0, 46, 1263.132934570312
0, 0, 47, 1243.121215820312
0, 0, 48, 1283.36376953125
0, 0, 49, 1287.4267578125
0, 0, 50, 1310.47998046875
0, 0, 51, 1260.799560546875
0, 0, 52, 1357.447998046875
0, 0, 53, 1323.14697265625
0, 0, 54, 1292.345581054688
0, 0, 55, 1234.17919921875
0, 0, 56, 1318.284423828125
0, 0, 57, 1293.60888671875
0, 0, 58, 1254.5595703125
0, 0, 59, 1337.645874023438
0, 0, 60, 1325.967041015625
0, 0, 61, 1264.084594726562
0, 0, 62, 1240.198852539062
0, 0, 63, 1277.66259765625
0, 0, 64, 1333.51220703125
0, 0, 65, 1287.82666015625
0, 0, 66, 1317.634399414062
0, 0, 67, 1217.215087890625
0, 0, 68, 1310.852294921875
0, 0, 69, 1329.824584960938
0, 0, 70, 1343.296875
0, 0, 71, 1289.934814453125
0, 0, 72, 1310.018310546875
0, 0, 73, 1235.724365234375
0, 0, 74, 1288.310302734375
0, 0, 75, 1299.715209960938
0, 0, 76, 1254.588500976562
0, 0, 77, 1289.02587890625
0, 0, 78, 1314.354736328125
0, 0, 79, 1327.8681640625
0, 0, 80, 1266.257690429688
0, 0, 81, 1323.917602539062
0, 0, 82, 1286.753295898438
0, 0, 83, 1289.18310546875
0, 0, 84, 1328.157958984375
0, 0, 85, 1236.717163085938
0, 0, 86, 1267.602416992188
0, 0, 87, 1249.693725585938
0, 0, 88, 1254.057739257812
0, 0, 89, 1333.76123046875
0, 0, 90, 1275.208374023438
0, 0, 91, 1351.2294921875
0, 0, 92, 1301.510498046875
0, 0, 93, 1275.551147460938
0, 0, 94, 1243.613037109375
0, 0, 95, 1328.842163085938
0, 0, 96, 1286.216552734375
0, 0, 97, 1326.099853515625
0, 0, 98, 1258.296020507812
0, 0, 99, 1252.494995117188
0, 0, 100, 1287.6083984375
0, 0, 101, 1310.675170898438
0, 0, 102, 1236.324340820312
0, 0, 103, 1322.404296875
0, 0, 104, 1262.404907226562
0, 0, 105, 1267.353271484375
0, 0, 106, 1208.5888671875
0, 0, 107, 783.1873168945312
0, 0, 108, 198.1724853515625
0, 0, 109, 72.01998138427734
0, 0, 110, 62.20914840698242
0, 0, 111, 38.0975456237793
0, 0, 112, 32.47456741333008
0, 0, 113, 30.93984413146973
0, 0, 114, 37.71934509277344
0, 0, 115, 29.85127449035645
0, 0, 116, 31.33107948303223
0, 0, 117, 33.77634429931641
0, 0, 118, 25.18622589111328
0, 0, 119, 24.37377166748047
0, 0, 120, 30.47733116149902
0, 0, 121, 30.77189254760742
0, 0, 122, 26.31593704223633
0, 0, 123, 18.14694213867188
0, 0, 124, 22.71648025512695
0, 0, 125, 18.84725570678711
0, 0, 126, 23.16115379333496
0, 0, 127, 18.42835807800293
0, 1, 0, 26.83574867248535
0, 1, 1, 29.64318656921387
0, 1, 2, 25.79108810424805
0, 1, 3, 25.84009742736816
0, 1, 4, 23.40346527099609
0, 1, 5, 23.05630683898926
0, 1, 6, 24.2347469329834
0, 1, 7, 33.08724975585938
0, 1, 8, 32.80938720703125
0, 1, 9, 28.88622283935547
0, 1, 10, 35.00040817260742
0, 1, 11, 44.59152984619141
0, 1, 12, 38.11685562133789
0, 1, 13, 40.77497100830078
0, 1, 14, 37.84411239624023
0, 1, 15, 51.70947647094727
0, 1, 16, 59.91632843017578
0, 1, 17, 62.35039138793945
0, 1, 18, 94.74140167236328
0, 1, 19, 395.7862548828125
0, 1, 20, 1041.616821289062
0, 1, 21, 1375.228759765625
0, 1, 22, 1478.739624023438
0, 1, 23, 1465.716064453125
0, 1, 24, 1450.0927734375
0, 1, 25, 1420.432373046875
0, 1, 26, 1471.854858398438
0, 1, 27, 1467.424560546875
0, 1, 28, 1490.644653320312
0, 1, 29, 1475.818603515625
0, 1, 30, 1505.71923828125
0, 1, 31, 1484.150634765625
0, 1, 32, 1409.9560546875
0, 1, 33, 1501.936645507812
0, 1, 34, 1499.059326171875
0, 1, 35, 1458.949951171875
0, 1, 36, 1488.95947265625
0, 1, 37, 1410.510864257812
0, 1, 38, 1395.613037109375
0, 1, 39, 1526.600463867188
0, 1, 40, 1465.06396484375
0, 1, 41, 1488.182861328125
0, 1, 42, 1495.678344726562
0, 1, 43, 1504.782470703125
0, 1, 44, 1450.842651367188
0, 1, 45, 1483.837890625
0, 1, 46, 1421.466918945312
0, 1, 47, 1428.732788085938
0, 1, 48, 1431.937622070312
0, 1, 49, 1487.14404296875
0, 1, 50, 1448.328247070312
0, 1, 51, 1474.0537109375
0, 1, 52, 1473.093505859375
0, 1, 53, 1475.245361328125
0, 1, 54, 1506.30517578125
0, 1, 55, 1497.976684570312
0, 1, 56, 1469.939819335938
0, 1, 57, 1460.754150390625
0, 1, 58, 1429.890258789062
0, 1, 59, 1479.467895507812
0, 1, 60, 1465.708862304688
0, 1, 61, 1449.637329101562
0, 1, 62, 1456.205078125
0, 1, 63, 1411.709716796875
0, 1, 64, 1471.001342773438
0, 1, 65, 1416.458251953125
0, 1, 66, 1436.502807617188
0, 1, 67, 1456.575439453125
0, 1, 68, 1384.176391601562
0, 1, 69, 1459.938354492188
0, 1, 70, 1432.322143554688
0, 1, 71, 1504.583984375
0, 1, 72, 1434.208862304688
0, 1, 73, 1488.271850585938
0, 1, 74, 1473.554809570312
0, 1, 75, 1482.892578125
0, 1, 76, 1455.615234375
0, 1, 77, 1467.632690429688
0, 1, 78, 1449.145141601562
0, 1, 79, 1502.997314453125
0, 1, 80, 1450.151123046875
0, 1, 81, 1423.7900390625
0, 1, 82, 1474.201049804688
0, 1, 83, 1458.02587890625
0, 1, 84, 1536.311157226562
0, 1, 85, 1445.96484375
0, 1, 86, 1405.560791015625
0, 1, 87, 1425.0283203125
0, 1, 88, 1473.785766601562
0, 1, 89, 1475.967041015625
0, 1, 90, 1422.888793945312
0, 1, 91, 1464.595947265625
0, 1, 92, 1413.243286132812
0, 1, 93, 1459.55029296875
0, 1, 94, 1467.4853515625
0, 1, 95, 1424.006591796875
0, 1, 96, 1496.422241210938
0, 1, 97, 1520.343994140625
0, 1, 98, 1472.6865234375
0, 1, 99, 1418.908203125
0, 1, 100, 1452.109619140625
0, 1, 101, 1413.395751953125
0, 1, 102, 1440.542114257812
0, 1, 103, 1412.669067382812
0, 1, 104, 1406.421997070312
0, 1, 105, 1462.525390625
0, 1, 106, 1362.667846679688
0, 1, 107, 1017.639343261719
0, 1, 108, 402.3749389648438
0, 1, 109, 87.93982696533203
0, 1, 110, 60.88021087646484
0, 1, 111, 56.56426239013672
0, 1, 112, 49.64132308959961
0, 1, 113, 35.06498336791992
0, 1, 114, 36.66852188110352
0, 1, 115, 42.59802627563477
0, 1, 116, 44.29545593261719
0, 1, 117, 37.3641357421875
0, 1, 118, 33.68743515014648
0, 1, 119, 29.34661102294922
0, 1, 120, 31.10169982910156
0, 1, 121, 21.83384132385254
0, 1, 122, 20.67145919799805
0, 1, 123, 24.03219985961914
0, 1, 124, 32.76564025878906
0, 1, 125, 24.85011291503906
0, 1, 126, 20.15036392211914
0, 1, 127, 23.4976863861084
0, 2, 0, 19.23641777038574
0, 2, 1, 17.8481330871582
0, 2, 2, 23.19058609008789
0, 2, 3, 23.86381721496582
0, 2, 4, 20.81923675537109
0, 2, 5, 24.96743202209473
0, 2, 6, 23.41971397399902
0, 2, 7, 24.13248634338379
0, 2, 8, 30.95116996765137
0, 2, 9, 31.76126098632812
0, 2, 10, 28.16549110412598
0, 2, 11, 32.18753433227539
0, 2, 12, 41.68372344970703
0, 2, 13, 47.45489120483398
0, 2, 14, 45.04653167724609
0, 2, 15, 50.05246734619141
0, 2, 16, 61.01032638549805
0, 2, 17, 78.36748504638672
0, 2, 18, 148.3956146240234
0, 2, 19, 603.77099609375
0, 2, 20, 1283.83447265625
0, 2, 21, 1439.283325195312
0, 2, 22, 1455.387939453125
0, 2, 23, 1406.177978515625
0, 2, 24, 1439.931396484375
0, 2, 25, 1522.50146484375
0, 2, 26, 1553.121459960938
0, 2, 27, 1453.1435546875
0, 2, 28, 1456.201171875
0, 2, 29, 1464.3466796875
0, 2, 30, 1462.613647460938
0, 2, 31, 1535.699951171875
0, 2, 32, 1509.2734375
0, 2, 33, 1441.492431640625
0, 2, 34, 1481.319702148438
0, 2, 35, 1473.770385742188
0, 2, 36, 1528.32421875
0, 2, 37, 1540.545043945312
0, 2, 38, 1506.301513671875
0, 2, 39, 1464.004150390625
0, 2, 40, 1499.671508789062
0, 2, 41, 1519.881591796875
0, 2, 42, 1504.261352539062
0, 2, 43, 1549.63916015625
0, 2, 44, 1453.796875
0, 2, 45, 1485.333251953125
0, 2, 46, 1435.328369140625
0, 2, 47, 1442.741455078125
0, 2, 48, 1397.869018554688
0, 2, 49, 1465.27685546875
0, 2, 50, 1444.942626953125
0, 2, 51, 1446.954833984375
0, 2, 52, 1492.996704101562
0, 2, 53, 1524.99853515625
0, 2, 54, 1527.723876953125
0, 2, 55, 1493.483276367188
0, 2, 56, 1466.094360351562
0, 2, 57, 1418.630859375
0, 2, 58, 1448.067260742188
0, 2, 59, 1449.484619140625
0, 2, 60, 1477.737060546875
0, 2, 61, 1446.707153320312
0, 2, 62, 1470.77001953125
0, 2, 63, 1505.965698242188
0, 2, 64, 1463.616088867188
0, 2, 65, 1423.264282226562
0, 2, 66, 1483.009765625
0, 2, 67, 1506.570556640625
0, 2, 68, 1539.940673828125
0, 2, 69, 1534.25341796875
0, 2, 70, 1505.164916992188
0, 2, 71, 1460.330444335938
0, 2, 72, 1515.053588867188
0, 2, 73, 1520.23828125
0, 2, 74, 1490.315063476562
0, 2, 75, 1503.373046875
0, 2, 76, 1454.20458984375
0, 2, 77, 1501.703491210938
0, 2, 78, 1431.553955078125
0, 2, 79, 1537.848999023438
0, 2, 80, 1480.427490234375
0, 2, 81, 1468.403198242188
0, 2, 82, 1557.05810546875
0, 2, 83, 1516.753662109375
0, 2, 84, 1497.526733398438
0, 2, 85, 1513.75537109375
0, 2, 86, 1542.203369140625
0, 2, 87, 1489.242797851562
0, 2, 88, 1541.284057617188
0, 2, 89, 1463.940795898438
0, 2, 90, 1425.970092773438
0, 2, 91, 1402.335571289062
0, 2, 92, 1472.871337890625
0, 2, 93, 1494.2119140625
0, 2, 94, 1449.226318359375
0, 2, 95, 1544.481567382812
0, 2, 96, 1513.631591796875
0, 2, 97, 1457.29052734375
0, 2, 98, 1469.914184570312
0, 2, 99, 1402.641967773438
0, 2, 100, 1477.06005859375
0, 2, 101, 1480.857788085938
0, 2, 102, 1460.080810546875
0, 2, 103, 1388.467895507812
0, 2, 104, 1410.545288085938
0, 2, 105, 1393.60498046875
0, 2, 106, 1462.7236328125
0, 2, 107, 1275.90869140625
0, 2, 108, 624.030029296875
0, 2, 109, 171.5990600585938
0, 2, 110, 68.75281524658203
0, 2, 111, 58.53704833984375
0, 2, 112, 49.27481079101562
0, 2, 113, 45.36713790893555
0, 2, 114, 40.63130187988281
0, 2, 115, 38.62744903564453
0, 2, 116, 33.63472366333008
0, 2, 117, 33.60003662109375
0, 2, 118, 30.87603950500488
0, 2, 119, 30.52355766296387
0, 2, 120, 31.68167877197266
0, 2, 121, 15.74627494812012
0, 2, 122, 22.89357566833496
0, 2, 123, 20.51592445373535
0, 2, 124, 24.09350776672363
0, 2, 125, 25.76895523071289
0, 2, 126, 23.00747299194336
0, 2, 127, 19.94915008544922
0, 3, 0, 19.93665313720703
0, 3, 1, 20.57789993286133
0, 3, 2, 16.9352970123291
0, 3, 3, 24.83035659790039
0, 3, 4, 16.71437454223633
0, 3, 5, 24.36252784729004
0, 3, 6, 33.12043380737305
0, 3, 7, 24.5156078338623
0, 3, 8, 30.51683616638184
0, 3, 9, 27.06121826171875
0, 3, 10, 33.16862106323242
0, 3, 11, 34.22793579101562
0, 3, 12, 37.9793586730957
0, 3, 13, 55.78339385986328
0, 3, 14, 62.35187911987305
0, 3, 15, 53.46433258056641
0, 3, 16, 69.62358093261719
0, 3, 17, 92.33464813232422
0, 3, 18, 238.5935668945312
0, 3, 19, 880.5595703125
0, 3, 20, 1385.015869140625
0, 3, 21, 1500.78515625
0, 3, 22, 1459.633544921875
0, 3, 23, 1448.4208984375
0, 3, 24, 1438.831176757812
0, 3, 25, 1461.5166015625
0, 3, 26, 1493.01123046875
0, 3, 27, 1468.135986328125
0, 3, 28, 1489.617431640625
0, 3, 29, 1542.284057617188
0, 3, 30, 1574.621337890625
0, 3, 31, 1514.783203125
0, 3, 32, 1547.340942382812
0, 3, 33, 1541.750244140625
0, 3, 34, 1491.341674804688
0, 3, 35, 1468.877807617188
0, 3, 36, 1452.232421875
0, 3, 37, 1515.342895507812
0, 3, 38, 1521.932373046875
0, 3, 39, 1438.043334960938
0, 3, 40, 1442.299194335938
0, 3, 41, 1563.282592773438
0, 3, 42, 1465.525634765625
0, 3, 43, 1453.175048828125
0, 3, 44, 1452.149169921875
0, 3, 45, 1510.24072265625
0, 3, 46, 1513.3818359375
0, 3, 47, 1438.089111328125
0, 3, 48, 1507.40380859375
0, 3, 49, 1454.76953125
0, 3, 50, 1488.118041992188
0, 3, 51, 1536.468017578125
0, 3, 52, 1534.118530273438
0, 3, 53, 1466.565185546875
0, 3, 54, 1538.833618164062
0, 3, 55, 1501.508544921875
0, 3, 56, 1439.636596679688
0, 3, 57, 1506.1640625
0, 3, 58, 1515.89794921875
0, 3, 59, 1511.573486328125
0, 3, 60, 1533.971069335938
0, 3, 61, 1488.11865234375
0, 3, 62, 1498.416381835938
0, 3, 63, 1499.21337890625
0, 3, 64, 1501.679321289062
0, 3, 65, 1514.179809570312
0, 3, 66, 1555.340087890625
0, 3, 67, 1550.722045898438
0, 3, 68, 1451.656494140625
0, 3, 69, 1466.562377929688
0, 3, 70, 1389.16162109375
0, 3, 71, 1458.109375
0, 3, 72, 1550.947021484375
0, 3, 73, 1498.798461914062
0, 3, 74, 1465.028076171875
0, 3, 75, 1459.909545898438
0, 3, 76, 1572.193725585938
0, 3, 77, 1542.960205078125
0, 3, 78, 1428.718872070312
0, 3, 79, 1494.654541015625
0, 3, 80, 1464.198974609375
0, 3, 81, 1471.299560546875
0, 3, 82, 1551.92333984375
0, 3, 83, 1512.736328125
0, 3, 84, 1563.929809570312
0, 3, 85, 1482.0341796875
0, 3, 86, 1526.559936523438
0, 3, 87, 1535.507446289062
0, 3, 88, 1457.333862304688
0, 3, 89, 1454.114013671875
0, 3, 90, 1449.29345703125
0, 3, 91, 1416.982299804688
0, 3, 92, 1512.622314453125
0, 3, 93, 1499.858520507812
0, 3, 94, 1516.416381835938
0, 3, 95, 1546.669555664062
0, 3, 96, 1515.774658203125
0, 3, 97, 1467.071044921875
0, 3, 98, 1434.439453125
0, 3, 99, 1464.426513671875
0, 3, 100, 1466.743041992188
0, 3, 101, 1475.66259765625
0, 3, 102, 1517.758544921875
0, 3, 103, 1552.746215820312
0, 3, 104, 1499.504760742188
0, 3, 105, 1515.18896484375
0, 3, 106, 1480.205688476562
0, 3, 107, 1339.053588867188
0, 3, 108, 870.4638671875
0, 3, 109, 262.7901916503906
0, 3, 110, 100.9080657958984
0, 3, 111, 64.84473419189453
0, 3, 112, 59.65011215209961
0, 3, 113, 50.36398315429688
0, 3, 114, 47.78717803955078
0, 3, 115, 55.28461456298828
0, 3, 116, 37.96465682983398
0, 3, 117, 35.52132034301758
0, 3, 118, 38.77482986450195
0, 3, 119, 27.64223861694336
0, 3, 120, 30.08709907531738
0, 3, 121, 18.75933074951172
0, 3, 122, 21.5687255859375
0, 3, 123, 23.62999725341797
0, 3, 124, 19.5207462310791
0, 3, 125, 27.32991981506348
0, 3, 126, 21.95853233337402
0, 3, 127, 14.92248058319092
0, 4, 0, 21.14723777770996
0, 4, 1, 22.66760063171387
0, 4, 2, 19.6404857635498
0, 4, 3, 19.25601577758789
0, 4, 4, 26.19495391845703
0, 4, 5, 29.64817237854004
0, 4, 6, 30.34294509887695
0, 4, 7, 28.48920440673828
0, 4, 8, 25.02303504943848
0, 4, 9, 35.49167251586914
0, 4, 10, 33.81120300292969
0, 4, 11, 43.23990631103516
0, 4, 12, 48.77948379516602
0, 4, 13, 53.89636611938477
0, 4, 14, 51.75299453735352
0, 4, 15, 58.0343017578125
0, 4, 16, 72.10596466064453
0, 4, 17, 114.2841873168945
0, 4, 18, 446.2103576660156
0, 4, 19, 1181.521362304688
0, 4, 20, 1441.46826171875
0, 4, 21, 1422.40771484375
0, 4, 22, 1431.444702148438
0, 4, 23, 1450.644897460938
0, 4, 24, 1472.313720703125
0, 4, 25, 1404.951171875
0, 4, 26, 1538.128784179688
0, 4, 27, 1543.258178710938
0, 4, 28, 1505.40380859375
0, 4, 29, 1516.984252929688
0, 4, 30, 1523.4931640625
0, 4, 31, 1578.277099609375
0, 4, 32, 1517.785278320312
0, 4, 33, 1495.953125
0, 4, 34, 1466.542114257812
0, 4, 35, 1564.412109375
0, 4, 36, 1503.92919921875
0, 4, 37, 1510.0390625
0, 4, 38, 1531.998291015625
0, 4, 39, 1469.229736328125
0, 4, 40, 1516.686279296875
0, 4, 41, 1585.848999023438
0, 4, 42, 1565.908813476562
0, 4, 43, 1473.91015625
0, 4, 44, 1493.693725585938
0, 4, 45, 1519.6611328125
0, 4, 46, 1466.150512695312
0, 4, 47, 1501.690551757812
0, 4, 48, 1523.807861328125
0, 4, 49, 1467.787353515625
0, 4, 50, 1520.013427734375
0, 4, 51, 1497.788696289062
0, 4, 52, 1494.5751953125
0, 4, 53, 1453.82275390625
0, 4, 54, 1443.299682617188
0, 4, 55, 1520.647827148438
0, 4, 56, 1455.011840820312
0, 4, 57, 1496.38818359375
0, 4, 58, 1464.026123046875
0, 4, 59, 1466.730834960938
0, 4, 60, 1523.73486328125
0, 4, 61, 1498.968383789062
0, 4, 62, 1503.040405273438
0, 4, 63, 1543.534423828125
0, 4, 64, 1591.087890625
0, 4, 65, 1423.840209960938
0, 4, 66, 1518.429931640625
0, 4, 67, 1520.09716796875
0, 4, 68, 1502.646118164062
0, 4, 69, 1470.914672851562
0, 4, 70, 1544.793334960938
0, 4, 71, 1516.852172851562
0, 4, 72, 1528.276977539062
0, 4, 73, 1492.710083007812
0, 4, 74, 1486.925903320312
0, 4, 75, 1533.068359375
0, 4, 76, 1481.818969726562
0, 4, 77, 1497.527954101562
0, 4, 78, 1501.29248046875
0, 4, 79, 1485.000610351562
0, 4, 80, 1515.115234375
0, 4, 81, 1524.485595703125
0, 4, 82, 1563.206420898438
0, 4, 83, 1498.609375
0, 4, 84, 1541.27490234375
0, 4, 85, 1548.427978515625
0, 4, 86, 1531.001586914062
0, 4, 87, 1495.897216796875
0, 4, 88, 1511.568359375
0, 4, 89, 1483.516235351562
0, 4, 90, 1549.291381835938
0, 4, 91, 1558.02099609375
0, 4, 92, 1490.430541992188
0, 4, 93, 1513.940795898438
0, 4, 94, 1480.860717773438
0, 4, 95, 1509.05224609375
0, 4, 96, 1442.296875
0, 4, 97, 1409.647705078125
0, 4, 98, 1554.522583007812
0, 4, 99, 1511.5947265625
0, 4, 100, 1487.7890625
0, 4, 101, 1454.058715820312
0, 4, 102, 1443.247802734375
0, 4, 103, 1516.922973632812
0, 4, 104, 1507.93994140625
0, 4, 105, 1553.781127929688
0, 4, 106, 1477.297973632812
0, 4, 107, 1452.912963867188
0, 4, 108, 1118.481689453125
0, 4, 109, 441.7841796875
0, 4, 110, 100.2397232055664
0, 4, 111, 73.56462097167969
0, 4, 112, 66.62663269042969
0, 4, 113, 56.77577209472656
0, 4, 114, 50.99102783203125
0, 4, 115, 40.88637161254883
0, 4, 116, 33.48242568969727
0, 4, 117, 38.19932174682617
0, 4, 118, 42.25910949707031
0, 4, 119, 52.73114013671875
0, 4, 120, 36.40436553955078
0, 4, 121, 29.88826370239258
0, 4, 122, 28.2855052947998
0, 4, 123, 34.16502380371094
0, 4, 124, 20.65892028808594
0, 4, 125, 28.09935569763184
0, 4, 126, 24.2566089630127
0, 4, 127, 15.36770248413086
0, 5, 0, 25.36031723022461
0, 5, 1, 25.32970809936523
0, 5, 2, 27.1208324432373
0, 5, 3, 27.48290061950684
0, 5, 4, 22.97322463989258
0, 5, 5, 36.24585723876953
0, 5, 6, 37.35678863525391
0, 5, 7, 27.36672592163086
0, 5, 8, 35.99887084960938
0, 5, 9, 30.79131698608398
0, 5, 10, 29.44719886779785
0, 5, 11, 38.59380722045898
0, 5, 12, 43.80165100097656
0, 5, 13, 44.70314788818359
0, 5, 14, 58.70907974243164
0, 5, 15, 78.76850128173828
0, 5, 16, 75.79820251464844
0, 5, 17, 158.257568359375
0, 5, 18, 674.3157958984375
0, 5, 19, 1345.159545898438
0, 5, 20, 1522.023681640625
0, 5, 21, 1494.598754882812
0, 5, 22, 1498.158203125
0, 5, 23, 1530.4091796875
0, 5, 24, 1466.454833984375
0, 5, 25, 1428.155151367188
0, 5, 26, 1533.349853515625
0, 5, 27, 1542.167724609375
0, 5, 28, 1488.028076171875
0, 5, 29, 1521.023681640625
0, 5, 30, 1491.129150390625
0, 5, 31, 1503.267211914062
0, 5, 32, 1592.931884765625
0, 5, 33, 1500.30126953125
0, 5, 34, 1481.411376953125
0, 5, 35, 1507.638793945312
0, 5, 36, 1441.541625976562
0, 5, 37, 1528.7529296875
0, 5, 38, 1545.091796875
0, 5, 39, 1546.157836914062
0, 5, 40, 1498.3125
0, 5, 41, 1479.71484375
0, 5, 42, 1545.192504882812
0, 5, 43, 1531.90771484375
0, 5, 44, 1544.893798828125
0, 5, 45, 1510.058349609375
0, 5, 46, 1486.956665039062
0, 5, 47, 1484.33154296875
0, 5, 48, 1504.255493164062
0, 5, 49, 1521.018798828125
0, 5, 50, 1511.533813476562
0, 5, 51, 1520.009155273438
0, 5, 52, 1428.093627929688
0, 5, 53, 1519.5244140625
0, 5, 54, 1521.912963867188
0, 5, 55, 1528.6005859375
0, 5, 56, 1485.166381835938
0, 5, 57, 1536.119140625
0, 5, 58, 1506.918701171875
0, 5, 59, 1485.549682617188
0, 5, 60, 1539.255981445312
0, 5, 61, 1452.096069335938
0, 5, 62, 1581.691284179688
0, 5, 63, 1433.85107421875
0, 5, 64, 1486.805786132812
0, 5, 65, 1467.443115234375
0, 5, 66, 1529.799560546875
0, 5, 67, 1562.491821289062
0, 5, 68, 1463.563232421875
0, 5, 69, 1474.6767578125
0, 5, 70, 1484.954833984375
0, 5, 71, 1471.665161132812
0, 5, 72, 1538.35498046875
0, 5, 73, 1460.310546875
0, 5, 74, 1498.11865234375
0, 5, 75, 1482.361083984375
0, 5, 76, 1475.6708984375
0, 5, 77, 1515.379028320312
0, 5, 78, 1527.0673828125
0, 5, 79, 1510.830200195312
0, 5, 80, 1516.056274414062
0, 5, 81, 1598.236694335938
0, 5, 82, 1522.762817382812
0, 5, 83, 1491.688720703125
0, 5, 84, 1529.180053710938
0, 5, 85, 1510.234375
0, 5, 86, 1555.948974609375
0, 5, 87, 1468.384643554688
0, 5, 88, 1500.288452148438
0, 5, 89, 1488.225341796875
0, 5, 90, 1480.991088867188
0, 5, 91, 1553.424072265625
0, 5, 92, 1483.915161132812
0, 5, 93, 1561.265991210938
0, 5, 94, 1509.038452148438
0, 5, 95, 1561.023681640625
0, 5, 96, 1495.572265625
0, 5, 97, 1511.192504882812
0, 5, 98, 1509.306518554688
0, 5, 99, 1541.956909179688
0, 5, 100, 1433.797973632812
0, 5, 101, 1429.6396484375
0, 5, 102, 1515.232421875
0, 5, 103, 1477.032958984375
0, 5, 104, 1458.961669921875
0, 5, 105, 1491.841674804688
0, 5, 106, 1454.018188476562
0, 5, 107, 1401.236450195312
0, 5, 108, 1287.764282226562
0, 5, 109, 723.3394775390625
0, 5, 110, 192.6845855712891
0, 5, 111, 91.55612182617188
0, 5, 112, 84.81060028076172
0, 5, 113, 63.80945205688477
0, 5, 114, 58.57987213134766
0, 5, 115, 52.78286361694336
0, 5, 116, 42.98840713500977
0, 5, 117, 35.73532485961914
0, 5, 118, 37.96659851074219
0, 5, 119, 27.74578666687012
0, 5, 120, 28.48664665222168
0, 5, 121, 28.09729194641113
0, 5, 122, 27.02828979492188
0, 5, 123, 27.31671524047852
0, 5, 124, 22.42562294006348
0, 5, 125, 26.51811599731445
0, 5, 126, 24.8795108795166
0, 5, 127, 19.80006980895996
0, 6, 0, 22.26222991943359
0, 6, 1, 29.16254043579102
0, 6, 2, 29.40156555175781
0, 6, 3, 35.17303085327148
0, 6, 4, 20.40702056884766
0, 6, 5, 31.46003723144531
0, 6, 6, 32.67588424682617
0, 6, 7, 28.85362434387207
0, 6, 8, 31.53085327148438
0, 6, 9, 36.42512130737305
0, 6, 10, 34.73280334472656
0, 6, 11, 37.88924026489258
0, 6, 12, 40.30880737304688
0, 6, 13, 58.37939453125
0, 6, 14, 63.85805130004883
0, 6, 15, 86.08900451660156
0, 6, 16, 113.5657272338867
0, 6, 17, 296.9387817382812
0, 6, 18, 898.525146484375
0, 6, 19, 1375.181640625
0, 6, 20, 1438.467529296875
0, 6, 21, 1532.27294921875
0, 6, 22, 1500.657470703125
0, 6, 23, 1533.897338867188
0, 6, 24, 1474.84228515625
0, 6, 25, 1529.101806640625
0, 6, 26, 1511.893310546875
0, 6, 27, 1519.821411132812
0, 6, 28, 1553.560424804688
0, 6, 29, 1575.383911132812
0, 6, 30, 1515.0966796875
0, 6, 31, 1490.393188476562
0, 6, 32, 1528.512329101562
0, 6, 33, 1489.308471679688
0, 6, 34, 1559.361694335938
0, 6, 35, 1502.046020507812
0, 6, 36, 1437.880859375
0, 6, 37, 1544.388916015625
0, 6, 38, 1524.613037109375
0, 6, 39, 1519.399169921875
0, 6, 40, 1460.423706054688
0, 6, 41, 1444.33447265625
0, 6, 42, 1513.537231445312
0, 6, 43, 1491.147705078125
0, 6, 44, 1431.187255859375
0, 6, 45, 1547.801025390625
0, 6, 46, 1550.989013671875
0, 6, 47, 1495.792846679688
0, 6, 48, 1526.667846679688
0, 6, 49, 1515.636596679688
0, 6, 50, 1579.746704101562
0, 6, 51, 1503.411254882812
0, 6, 52, 1563.208618164062
0, 6, 53, 1469.890869140625
0, 6, 54, 1500.022216796875
0, 6, 55, 1574.0029296875
0, 6, 56, 1527.523559570312
0, 6, 57, 1507.10009765625
0, 6, 58, 1469.01708984375
0, 6, 59, 1520.216674804688
0, 6, 60, 1473.215087890625
0, 6, 61, 1571.65576171875
0, 6, 62, 1544.951049804688
0, 6, 63, 1494.548217773438
0, 6, 64, 1412.7265625
0, 6, 65, 1490.049194335938
0, 6, 66, 1508.069213867188
0, 6, 67, 1514.19580078125
0, 6, 68, 1544.8955078125
0, 6, 69, 1486.579223632812
0, 6, 70, 1527.124633789062
0, 6, 71, 1472.480712890625
0, 6, 72, 1593.201416015625
0, 6, 73, 1490.054443359375
0, 6, 74, 1559.0400390625
0, 6, 75, 1539.724487304688
0, 6, 76, 1566.539672851562
0, 6, 77, 1501.818115234375
0, 6, 78, 1449.046508789062
0, 6, 79, 1556.093994140625
0, 6, 80, 1488.590209960938
0, 6, 81, 1480.067504882812
0, 6, 82, 1502.803344726562
0, 6, 83, 1525.425415039062
0, 6, 84, 1518.972290039062
0, 6, 85, 1537.12939453125
0, 6, 86, 1539.467407226562
0, 6, 87, 1573.833618164062
0, 6, 88, 1481.337158203125
0, 6, 89, 1566.482543945312
0, 6, 90, 1490.503784179688
0, 6, 91, 1540.981079101562
0, 6, 92, 1487.997436523438
0, 6, 93, 1497.37548828125
0, 6, 94, 1473.6728515625
0, 6, 95, 1511.9990234375
0, 6, 96, 1518.902465820312
0, 6, 97, 1500.42578125
0, 6, 98, 1493.819702148438
0, 6, 99, 1483.949096679688
0, 6, 100, 1525.144897460938
0, 6, 101, 1518.248779296875
0, 6, 102, 1540.861938476562
0, 6, 103, 1496.131591796875
0, 6, 104, 1463.742431640625
0, 6, 105, 1488.793701171875
0, 6, 106, 1495.414428710938
0, 6, 107, 1500.319946289062
0, 6, 108, 1410.12890625
0, 6, 109, 923.5562133789062
0, 6, 110, 283.0039367675781
0, 6, 111, 92.63064575195312
0, 6, 112, 74.32120513916016
0, 6, 113, 55.41827392578125
0, 6, 114, 56.51179504394531
0, 6, 115, 42.06232833862305
0, 6, 116, 40.30504989624023
0, 6, 117, 39.70186614990234
0, 6, 118, 33.88820266723633
0, 6, 119, 33.80025482177734
0, 6, 120, 36.23604583740234
0, 6, 121, 29.42919731140137
0, 6, 122, 31.85283088684082
0, 6, 123, 21.82319831848145
0, 6, 124, 36.79813003540039
0, 6, 125, 33.14758682250977
0, 6, 126, 19.29500770568848
0, 6, 127, 23.65960884094238
0, 7, 0, 25.05524253845215
0, 7, 1, 31.02494239807129
0, 7, 2, 18.86025428771973
0, 7, 3, 26.24216270446777
0, 7, 4, 20.66708755493164
0, 7, 5, 35.41442108154297
0, 7, 6, 33.80709457397461
0, 7, 7, 29.39936065673828
0, 7, 8, 29.12866973876953
0, 7, 9, 34.92013931274414
0, 7, 10, 44.94070053100586
0, 7, 11, 42.82573699951172
0, 7, 12, 42.6562614440918
0, 7, 13, 47.43508148193359
0, 7, 14, 57.40618896484375
0, 7, 15, 77.45614624023438
0, 7, 16, 134.3632354736328
0, 7, 17, 459.8038024902344
0, 7, 18, 1101.933227539062
0, 7, 19, 1500.099487304688
0, 7, 20, 1487.349731445312
0, 7, 21, 1365.346923828125
0, 7, 22, 1491.647216796875
0, 7, 23, 1450.815551757812
0, 7, 24, 1504.951416015625
0, 7, 25, 1600.016235351562
0, 7, 26, 1516.544311523438
0, 7, 27, 1510.064208984375
0, 7, 28, 1550.21533203125
0, 7, 29, 1576.517700195312
0, 7, 30, 1551.023559570312
0, 7, 31, 1441.944091796875
0, 7, 32, 1536.140625
0, 7, 33, 1494.760009765625
0, 7, 34, 1480.441162109375
0, 7, 35, 1526.72705078125
0, 7, 36, 1471.242919921875
0, 7, 37, 1601.015747070312
0, 7, 38, 1499.438842773438
0, 7, 39, 1491.285034179688
0, 7, 40, 1541.369384765625
0, 7, 41, 1462.411254882812
0, 7, 42, 1488.521484375
0, 7, 43, 1443.112915039062
0, 7, 44, 1488.927124023438
0, 7, 45, 1472.598876953125
0, 7, 46, 1510.86962890625
0, 7, 47, 1569.810546875
0, 7, 48, 1518.717651367188
0, 7, 49, 1536.217407226562
0, 7, 50, 1515.068237304688
0, 7, 51, 1496.686279296875
0, 7, 52, 1519.756469726562
0, 7, 53, 1491.808349609375
0, 7, 54, 1590.088623046875
0, 7, 55, 1468.533203125
0, 7, 56, 1548.862426757812
0, 7, 57, 1509.887573242188
0, 7, 58, 1550.819702148438
0, 7, 59, 1538.836547851562
0, 7, 60, 1552.039916992188
0, 7, 61, 1493.224853515625
0, 7, 62, 1438.747924804688
0, 7, 63, 1518.306396484375
0, 7, 64, 1556.998779296875
0, 7, 65, 1522.902221679688
0, 7, 66, 1536.26171875
0, 7, 67, 1581.249145507812
0, 7, 68, 1536.3837890625
0, 7, 69, 1512.014038085938
0, 7, 70, 1496.509033203125
0, 7, 71, 1524.6083984375
0, 7, 72, 1524.774780273438
0, 7, 73, 1520.242309570312
0, 7, 74, 1570.650024414062
0, 7, 75, 1538.95751953125
0, 7, 76, 1554.710693359375
0, 7, 77, 1511.904418945312
0, 7, 78, 1506.984497070312
0, 7, 79, 1421.096557617188
0, 7, 80, 1489.316650390625
0, 7, 81, 1491.444213867188
0, 7, 82, 1528.476196289062
0, 7, 83, 1542.985961914062
0, 7, 84, 1586.217529296875
0, 7, 85, 1479.49609375
0, 7, 86, 1501.094360351562
0, 7, 87, 1514.163330078125
0, 7, 88, 1501.696411132812
0, 7, 89, 1555.543090820312
0, 7, 90, 1520.155029296875
0, 7, 91, 1570.5517578125
0, 7, 92, 1527.326904296875
0, 7, 93, 1556.877807617188
0, 7, 94, 1537.488891601562
0, 7, 95, 1509.325317382812
0, 7, 96, 1508.080688476562
0, 7, 97, 1438.165283203125
0, 7, 98, 1485.878295898438
0, 7, 99, 1527.830322265625
0, 7, 100, 1424.353759765625
0, 7, 101, 1463.580810546875
0, 7, 102, 1447.7265625
0, 7, 103, 1434.802734375
0, 7, 104, 1492.847412109375
0, 7, 105, 1520.863525390625
0, 7, 106, 1563.086303710938
0, 7, 107, 1482.188232421875
0, 7, 108, 1409.031616210938
0, 7, 109, 1155.92724609375
0, 7, 110, 476.9683227539062
0, 7, 111, 125.2683029174805
0, 7, 112, 75.39289855957031
0, 7, 113, 67.64028930664062
0, 7, 114, 55.27194213867188
0, 7, 115, 54.22490692138672
0, 7, 116, 44.7154541015625
0, 7, 117, 48.86520767211914
0, 7, 118, 38.28496551513672
0, 7, 119, 33.73451614379883
0, 7, 120, 20.84467315673828
0, 7, 121, 31.30827140808105
0, 7, 122, 31.82299613952637
0, 7, 123, 32.84687805175781
0, 7, 124, 31.56322479248047
0, 7, 125, 24.20917510986328
0, 7, 126, 25.04627990722656
0, 7, 127, 22.92184638977051
0, 8, 0, 20.92953300476074
0, 8, 1, 18.63389778137207
0, 8, 2, 23.60599708557129
0, 8, 3, 26.83887481689453
0, 8, 4, 24.55003356933594
0, 8, 5, 31.96256637573242
0, 8, 6, 30.33566474914551
0, 8, 7, 31.95418548583984
0, 8, 8, 33.19306564331055
0, 8, 9, 51.69268798828125
0, 8, 10, 37.06523132324219
0, 8, 11, 47.39945220947266
0, 8, 12, 51.9769287109375
0, 8, 13, 76.37028503417969
0, 8, 14, 66.98919677734375
0, 8, 15, 87.7266845703125
0, 8, 16, 171.6133575439453
0, 8, 17, 678.53466796875
0, 8, 18, 1279.383422851562
0, 8, 19, 1451.490478515625
0, 8, 20, 1423.88525390625
0, 8, 21, 1411.978759765625
0, 8, 22, 1488.24365234375
0, 8, 23, 1478.614501953125
0, 8, 24, 1438.907592773438
0, 8, 25, 1453.987548828125
0, 8, 26, 1513.5498046875
0, 8, 27, 1519.7041015625
0, 8, 28, 1479.085327148438
0, 8, 29, 1501.879516601562
0, 8, 30, 1488.819458007812
0, 8, 31, 1533.054565429688
0, 8, 32, 1508.100219726562
0, 8, 33, 1481.494873046875
0, 8, 34, 1533.257446289062
0, 8, 35, 1442.633544921875
0, 8, 36, 1496.16162109375
0, 8, 37, 1556.73974609375
0, 8, 38, 1549.323974609375
0, 8, 39, 1494.793823242188
0, 8, 40, 1530.742309570312
0, 8, 41, 1480.784057617188
0, 8, 42, 1539.584228515625
0, 8, 43, 1435.356811523438
0, 8, 44, 1535.061889648438
0, 8, 45, 1510.6494140625
0, 8, 46, 1595.989013671875
0, 8, 47, 1586.489135742188
0, 8, 48, 1549.322143554688
