# TOPAS Version: 3.1.p3
# Parameter File: batch_inserts_102.txt
# Results for scorer Readout_Adipose
# Scored in component: MyBox
# X in 1 bin  of 0.75 cm
# Y in 512 bins of 0.0783984 cm
# Z in 128 bins of 0.078125 cm
# EnergyDeposit ( MeV ) : Sum   
0, 0, 0, 23.7016658782959
0, 0, 1, 15.80742168426514
0, 0, 2, 25.4249382019043
0, 0, 3, 20.08602142333984
0, 0, 4, 16.3390007019043
0, 0, 5, 19.43805122375488
0, 0, 6, 21.98416709899902
0, 0, 7, 31.46557807922363
0, 0, 8, 20.99635124206543
0, 0, 9, 21.29700469970703
0, 0, 10, 22.76986694335938
0, 0, 11, 25.21809959411621
0, 0, 12, 32.2747802734375
0, 0, 13, 33.41134643554688
0, 0, 14, 46.72687911987305
0, 0, 15, 44.86190414428711
0, 0, 16, 43.86568069458008
0, 0, 17, 45.81986999511719
0, 0, 18, 73.53232574462891
0, 0, 19, 191.2695007324219
0, 0, 20, 702.4290161132812
0, 0, 21, 1191.984252929688
0, 0, 22, 1244.298217773438
0, 0, 23, 1278.52392578125
0, 0, 24, 1283.692260742188
0, 0, 25, 1353.380004882812
0, 0, 26, 1268.224365234375
0, 0, 27, 1284.09033203125
0, 0, 28, 1319.9521484375
0, 0, 29, 1266.307250976562
0, 0, 30, 1259.3564453125
0, 0, 31, 1279.198364257812
0, 0, 32, 1269.516479492188
0, 0, 33, 1246.433837890625
0, 0, 34, 1324.546142578125
0, 0, 35, 1297.349975585938
0, 0, 36, 1244.393920898438
0, 0, 37, 1280.14453125
0, 0, 38, 1247.570922851562
0, 0, 39, 1242.732421875
0, 0, 40, 1224.461303710938
0, 0, 41, 1266.601440429688
0, 0, 42, 1254.21533203125
0, 0, 43, 1273.475463867188
0, 0, 44, 1224.981689453125
0, 0, 45, 1290.403442382812
0, 0, 46, 1264.839233398438
0, 0, 47, 1237.130981445312
0, 0, 48, 1273.608154296875
0, 0, 49, 1286.565185546875
0, 0, 50, 1315.07666015625
0, 0, 51, 1261.79443359375
0, 0, 52, 1361.416870117188
0, 0, 53, 1327.695678710938
0, 0, 54, 1295.327026367188
0, 0, 55, 1239.06298828125
0, 0, 56, 1317.05078125
0, 0, 57, 1290.850341796875
0, 0, 58, 1256.295043945312
0, 0, 59, 1331.41650390625
0, 0, 60, 1323.39892578125
0, 0, 61, 1262.017578125
0, 0, 62, 1240.87939453125
0, 0, 63, 1276.914306640625
0, 0, 64, 1331.940795898438
0, 0, 65, 1289.193115234375
0, 0, 66, 1316.392333984375
0, 0, 67, 1214.324340820312
0, 0, 68, 1309.13427734375
0, 0, 69, 1324.249145507812
0, 0, 70, 1344.683471679688
0, 0, 71, 1286.332153320312
0, 0, 72, 1314.24755859375
0, 0, 73, 1238.08251953125
0, 0, 74, 1290.568115234375
0, 0, 75, 1294.156372070312
0, 0, 76, 1257.439697265625
0, 0, 77, 1285.616577148438
0, 0, 78, 1317.2548828125
0, 0, 79, 1327.742065429688
0, 0, 80, 1262.590087890625
0, 0, 81, 1318.186767578125
0, 0, 82, 1284.466796875
0, 0, 83, 1292.738403320312
0, 0, 84, 1335.997924804688
0, 0, 85, 1231.967529296875
0, 0, 86, 1262.600463867188
0, 0, 87, 1251.857666015625
0, 0, 88, 1256.406372070312
0, 0, 89, 1331.768432617188
0, 0, 90, 1277.492309570312
0, 0, 91, 1357.179077148438
0, 0, 92, 1300.292114257812
0, 0, 93, 1273.59716796875
0, 0, 94, 1246.3564453125
0, 0, 95, 1333.564086914062
0, 0, 96, 1283.609008789062
0, 0, 97, 1322.12841796875
0, 0, 98, 1258.110473632812
0, 0, 99, 1249.695068359375
0, 0, 100, 1286.161987304688
0, 0, 101, 1315.863037109375
0, 0, 102, 1237.8896484375
0, 0, 103, 1323.16064453125
0, 0, 104, 1266.675537109375
0, 0, 105, 1267.095703125
0, 0, 106, 1207.927001953125
0, 0, 107, 778.4993896484375
0, 0, 108, 190.9800872802734
0, 0, 109, 66.74590301513672
0, 0, 110, 66.27180480957031
0, 0, 111, 39.83418655395508
0, 0, 112, 33.35666656494141
0, 0, 113, 29.0992603302002
0, 0, 114, 36.90433883666992
0, 0, 115, 31.6386890411377
0, 0, 116, 27.28753089904785
0, 0, 117, 28.60736083984375
0, 0, 118, 26.21004867553711
0, 0, 119, 21.9436206817627
0, 0, 120, 21.87126541137695
0, 0, 121, 26.45238304138184
0, 0, 122, 27.2999267578125
0, 0, 123, 28.64587593078613
0, 0, 124, 21.29015731811523
0, 0, 125, 23.95816802978516
0, 0, 126, 26.52168464660645
0, 0, 127, 14.85713863372803
0, 1, 0, 24.35885620117188
0, 1, 1, 20.56674194335938
0, 1, 2, 20.47095489501953
0, 1, 3, 16.36564445495605
0, 1, 4, 27.59500885009766
0, 1, 5, 22.70156097412109
0, 1, 6, 24.1584300994873
0, 1, 7, 22.12251853942871
0, 1, 8, 33.40360260009766
0, 1, 9, 28.54608917236328
0, 1, 10, 36.11936569213867
0, 1, 11, 45.63797760009766
0, 1, 12, 40.62643432617188
0, 1, 13, 43.96626281738281
0, 1, 14, 43.20571136474609
0, 1, 15, 43.82645416259766
0, 1, 16, 58.57070159912109
0, 1, 17, 59.50560760498047
0, 1, 18, 100.2478790283203
0, 1, 19, 402.1418762207031
0, 1, 20, 1047.646728515625
0, 1, 21, 1371.394653320312
0, 1, 22, 1471.678344726562
0, 1, 23, 1462.047729492188
0, 1, 24, 1450.750854492188
0, 1, 25, 1417.816040039062
0, 1, 26, 1475.5048828125
0, 1, 27, 1469.000854492188
0, 1, 28, 1487.916381835938
0, 1, 29, 1477.55078125
0, 1, 30, 1509.535888671875
0, 1, 31, 1479.920043945312
0, 1, 32, 1410.106323242188
0, 1, 33, 1497.94140625
0, 1, 34, 1497.320678710938
0, 1, 35, 1463.254638671875
0, 1, 36, 1491.411376953125
0, 1, 37, 1410.662109375
0, 1, 38, 1394.147827148438
0, 1, 39, 1525.807373046875
0, 1, 40, 1464.814086914062
0, 1, 41, 1488.193359375
0, 1, 42, 1493.591064453125
0, 1, 43, 1501.742553710938
0, 1, 44, 1447.04638671875
0, 1, 45, 1484.937622070312
0, 1, 46, 1411.130493164062
0, 1, 47, 1435.478881835938
0, 1, 48, 1424.095703125
0, 1, 49, 1487.699462890625
0, 1, 50, 1441.666259765625
0, 1, 51, 1477.730346679688
0, 1, 52, 1478.4423828125
0, 1, 53, 1469.336791992188
0, 1, 54, 1505.50390625
0, 1, 55, 1492.21533203125
0, 1, 56, 1469.475219726562
0, 1, 57, 1457.975952148438
0, 1, 58, 1430.69091796875
0, 1, 59, 1479.467163085938
0, 1, 60, 1466.429321289062
0, 1, 61, 1449.463134765625
0, 1, 62, 1459.365478515625
0, 1, 63, 1416.815063476562
0, 1, 64, 1478.508911132812
0, 1, 65, 1416.603881835938
0, 1, 66, 1440.327758789062
0, 1, 67, 1453.2373046875
0, 1, 68, 1390.68603515625
0, 1, 69, 1463.487426757812
0, 1, 70, 1434.014282226562
0, 1, 71, 1497.4501953125
0, 1, 72, 1434.873901367188
0, 1, 73, 1493.953247070312
0, 1, 74, 1471.661010742188
0, 1, 75, 1473.019653320312
0, 1, 76, 1456.264282226562
0, 1, 77, 1464.073852539062
0, 1, 78, 1455.084716796875
0, 1, 79, 1502.375
0, 1, 80, 1453.0888671875
0, 1, 81, 1426.765258789062
0, 1, 82, 1469.468017578125
0, 1, 83, 1456.900756835938
0, 1, 84, 1535.691040039062
0, 1, 85, 1455.1611328125
0, 1, 86, 1402.443237304688
0, 1, 87, 1420.480712890625
0, 1, 88, 1478.46826171875
0, 1, 89, 1471.816284179688
0, 1, 90, 1427.570678710938
0, 1, 91, 1461.309448242188
0, 1, 92, 1413.573852539062
0, 1, 93, 1466.236328125
0, 1, 94, 1468.88916015625
0, 1, 95, 1423.16357421875
0, 1, 96, 1498.482055664062
0, 1, 97, 1518.390747070312
0, 1, 98, 1478.056762695312
0, 1, 99, 1415.742919921875
0, 1, 100, 1449.637939453125
0, 1, 101, 1413.311767578125
0, 1, 102, 1443.473876953125
0, 1, 103, 1416.856567382812
0, 1, 104, 1407.858032226562
0, 1, 105, 1460.780151367188
0, 1, 106, 1367.73046875
0, 1, 107, 1020.935180664062
0, 1, 108, 403.8425903320312
0, 1, 109, 99.17848205566406
0, 1, 110, 61.82455444335938
0, 1, 111, 52.93022537231445
0, 1, 112, 45.11138916015625
0, 1, 113, 36.14962387084961
0, 1, 114, 31.97941589355469
0, 1, 115, 40.09856796264648
0, 1, 116, 34.25691986083984
0, 1, 117, 36.16227340698242
0, 1, 118, 36.14690780639648
0, 1, 119, 36.2289924621582
0, 1, 120, 30.2113094329834
0, 1, 121, 22.84089279174805
0, 1, 122, 25.64983940124512
0, 1, 123, 21.27937889099121
0, 1, 124, 28.72082710266113
0, 1, 125, 18.35981750488281
0, 1, 126, 18.21088027954102
0, 1, 127, 20.74484825134277
0, 2, 0, 17.9151496887207
0, 2, 1, 19.8137035369873
0, 2, 2, 22.61966133117676
0, 2, 3, 22.37554359436035
0, 2, 4, 26.78401756286621
0, 2, 5, 25.0892219543457
0, 2, 6, 20.36579895019531
0, 2, 7, 24.16653823852539
0, 2, 8, 24.96158409118652
0, 2, 9, 25.966796875
0, 2, 10, 32.55073928833008
0, 2, 11, 34.31314468383789
0, 2, 12, 37.74814987182617
0, 2, 13, 44.48052978515625
0, 2, 14, 45.70923614501953
0, 2, 15, 44.8128662109375
0, 2, 16, 64.73786926269531
0, 2, 17, 77.84349060058594
0, 2, 18, 142.1216125488281
0, 2, 19, 606.5670776367188
0, 2, 20, 1282.861694335938
0, 2, 21, 1431.40478515625
0, 2, 22, 1459.731689453125
0, 2, 23, 1404.572265625
0, 2, 24, 1443.833251953125
0, 2, 25, 1521.183227539062
0, 2, 26, 1550.389404296875
0, 2, 27, 1455.204833984375
0, 2, 28, 1460.606689453125
0, 2, 29, 1455.669799804688
0, 2, 30, 1464.276245117188
0, 2, 31, 1530.176879882812
0, 2, 32, 1509.455444335938
0, 2, 33, 1439.5517578125
0, 2, 34, 1472.493774414062
0, 2, 35, 1471.46240234375
0, 2, 36, 1524.359375
0, 2, 37, 1543.125732421875
0, 2, 38, 1509.818237304688
0, 2, 39, 1467.881591796875
0, 2, 40, 1506.591796875
0, 2, 41, 1520.938842773438
0, 2, 42, 1509.436279296875
0, 2, 43, 1554.938232421875
0, 2, 44, 1455.384033203125
0, 2, 45, 1481.14306640625
0, 2, 46, 1428.573364257812
0, 2, 47, 1445.767822265625
0, 2, 48, 1397.951293945312
0, 2, 49, 1466.58935546875
0, 2, 50, 1454.891845703125
0, 2, 51, 1447.35546875
0, 2, 52, 1493.013549804688
0, 2, 53, 1525.54248046875
0, 2, 54, 1524.2138671875
0, 2, 55, 1496.4853515625
0, 2, 56, 1463.602294921875
0, 2, 57, 1415.859497070312
0, 2, 58, 1455.587524414062
0, 2, 59, 1452.301391601562
0, 2, 60, 1472.962768554688
0, 2, 61, 1445.853881835938
0, 2, 62, 1469.324584960938
0, 2, 63, 1502.832275390625
0, 2, 64, 1458.959350585938
0, 2, 65, 1425.18017578125
0, 2, 66, 1488.08642578125
0, 2, 67, 1501.96142578125
0, 2, 68, 1541.363037109375
0, 2, 69, 1541.712036132812
0, 2, 70, 1508.6279296875
0, 2, 71, 1463.068481445312
0, 2, 72, 1517.359985351562
0, 2, 73, 1521.735595703125
0, 2, 74, 1489.290161132812
0, 2, 75, 1500.740844726562
0, 2, 76, 1455.706176757812
0, 2, 77, 1508.66943359375
0, 2, 78, 1431.615356445312
0, 2, 79, 1535.741088867188
0, 2, 80, 1476.879272460938
0, 2, 81, 1468.098999023438
0, 2, 82, 1559.380126953125
0, 2, 83, 1516.31640625
0, 2, 84, 1489.1328125
0, 2, 85, 1517.528076171875
0, 2, 86, 1539.770629882812
0, 2, 87, 1485.6806640625
0, 2, 88, 1535.166381835938
0, 2, 89, 1460.949462890625
0, 2, 90, 1431.724975585938
0, 2, 91, 1406.018310546875
0, 2, 92, 1474.490600585938
0, 2, 93, 1493.030883789062
0, 2, 94, 1448.533569335938
0, 2, 95, 1541.92822265625
0, 2, 96, 1514.237060546875
0, 2, 97, 1456.323120117188
0, 2, 98, 1463.165893554688
0, 2, 99, 1403.22705078125
0, 2, 100, 1473.48291015625
0, 2, 101, 1478.941772460938
0, 2, 102, 1465.275024414062
0, 2, 103, 1387.47265625
0, 2, 104, 1410.266967773438
0, 2, 105, 1393.672973632812
0, 2, 106, 1458.198364257812
0, 2, 107, 1275.33740234375
0, 2, 108, 618.53564453125
0, 2, 109, 167.4197082519531
0, 2, 110, 62.58946228027344
0, 2, 111, 63.21073150634766
0, 2, 112, 44.3957405090332
0, 2, 113, 43.72151947021484
0, 2, 114, 37.86272811889648
0, 2, 115, 41.14913177490234
0, 2, 116, 34.48123931884766
0, 2, 117, 36.82404708862305
0, 2, 118, 34.41424560546875
0, 2, 119, 30.35731506347656
0, 2, 120, 29.12638854980469
0, 2, 121, 21.06613922119141
0, 2, 122, 28.3299446105957
0, 2, 123, 20.21035003662109
0, 2, 124, 22.51629257202148
0, 2, 125, 30.93923759460449
0, 2, 126, 17.77859115600586
0, 2, 127, 21.16287612915039
0, 3, 0, 19.69744873046875
0, 3, 1, 22.9511890411377
0, 3, 2, 21.47500038146973
0, 3, 3, 22.82423973083496
0, 3, 4, 24.07596397399902
0, 3, 5, 27.65388488769531
0, 3, 6, 30.79038429260254
0, 3, 7, 24.74368476867676
0, 3, 8, 26.22555923461914
0, 3, 9, 26.62384414672852
0, 3, 10, 29.52734184265137
0, 3, 11, 32.44522094726562
0, 3, 12, 41.91194534301758
0, 3, 13, 49.97552871704102
0, 3, 14, 58.31604766845703
0, 3, 15, 55.3680419921875
0, 3, 16, 65.63832855224609
0, 3, 17, 86.08079528808594
0, 3, 18, 239.941162109375
0, 3, 19, 875.9985961914062
0, 3, 20, 1387.430908203125
0, 3, 21, 1506.791870117188
0, 3, 22, 1460.355224609375
0, 3, 23, 1449.077758789062
0, 3, 24, 1434.105590820312
0, 3, 25, 1461.918090820312
0, 3, 26, 1494.560302734375
0, 3, 27, 1463.62060546875
0, 3, 28, 1498.385375976562
0, 3, 29, 1541.397583007812
0, 3, 30, 1569.39453125
0, 3, 31, 1509.146606445312
0, 3, 32, 1544.262939453125
0, 3, 33, 1543.531982421875
0, 3, 34, 1490.255126953125
0, 3, 35, 1467.569702148438
0, 3, 36, 1447.712158203125
0, 3, 37, 1513.449829101562
0, 3, 38, 1515.229125976562
0, 3, 39, 1438.9765625
0, 3, 40, 1446.3623046875
0, 3, 41, 1560.420288085938
0, 3, 42, 1459.004150390625
0, 3, 43, 1454.658447265625
0, 3, 44, 1451.027221679688
0, 3, 45, 1510.587768554688
0, 3, 46, 1508.309814453125
0, 3, 47, 1442.42822265625
0, 3, 48, 1506.397705078125
0, 3, 49, 1451.30712890625
0, 3, 50, 1494.937744140625
0, 3, 51, 1538.838745117188
0, 3, 52, 1536.961669921875
0, 3, 53, 1465.560668945312
0, 3, 54, 1537.660522460938
0, 3, 55, 1502.414306640625
0, 3, 56, 1437.593994140625
0, 3, 57, 1505.690673828125
0, 3, 58, 1509.620849609375
0, 3, 59, 1507.501831054688
0, 3, 60, 1532.566528320312
0, 3, 61, 1488.921142578125
0, 3, 62, 1493.91650390625
0, 3, 63, 1496.351806640625
0, 3, 64, 1502.905395507812
0, 3, 65, 1515.631591796875
0, 3, 66, 1560.224609375
0, 3, 67, 1543.057739257812
0, 3, 68, 1449.059936523438
0, 3, 69, 1462.4130859375
0, 3, 70, 1386.425903320312
0, 3, 71, 1466.215576171875
0, 3, 72, 1548.953857421875
0, 3, 73, 1502.248291015625
0, 3, 74, 1466.13671875
0, 3, 75, 1460.239013671875
0, 3, 76, 1569.795288085938
0, 3, 77, 1545.03564453125
0, 3, 78, 1430.385009765625
0, 3, 79, 1490.18896484375
0, 3, 80, 1465.080322265625
0, 3, 81, 1471.113037109375
0, 3, 82, 1557.896850585938
0, 3, 83, 1511.620971679688
0, 3, 84, 1566.694091796875
0, 3, 85, 1471.168823242188
0, 3, 86, 1524.019165039062
0, 3, 87, 1541.991821289062
0, 3, 88, 1458.537475585938
0, 3, 89, 1450.71875
0, 3, 90, 1447.04736328125
0, 3, 91, 1418.45263671875
0, 3, 92, 1512.416015625
0, 3, 93, 1498.617309570312
0, 3, 94, 1514.680419921875
0, 3, 95, 1543.595703125
0, 3, 96, 1516.612060546875
0, 3, 97, 1467.634765625
0, 3, 98, 1434.831665039062
0, 3, 99, 1463.096435546875
0, 3, 100, 1462.050537109375
0, 3, 101, 1476.9775390625
0, 3, 102, 1522.182250976562
0, 3, 103, 1553.244750976562
0, 3, 104, 1498.88671875
0, 3, 105, 1512.527221679688
0, 3, 106, 1478.0947265625
0, 3, 107, 1340.9990234375
0, 3, 108, 874.5537719726562
0, 3, 109, 263.7219543457031
0, 3, 110, 98.35908508300781
0, 3, 111, 61.39274597167969
0, 3, 112, 59.36655044555664
0, 3, 113, 51.69527816772461
0, 3, 114, 48.353759765625
0, 3, 115, 50.67338943481445
0, 3, 116, 34.80435943603516
0, 3, 117, 44.38179397583008
0, 3, 118, 35.95756530761719
0, 3, 119, 32.08323287963867
0, 3, 120, 32.28081512451172
0, 3, 121, 22.37273406982422
0, 3, 122, 21.77815246582031
0, 3, 123, 26.94415664672852
0, 3, 124, 22.14240074157715
0, 3, 125, 31.20729637145996
0, 3, 126, 24.08285903930664
0, 3, 127, 14.7742338180542
0, 4, 0, 26.49614715576172
0, 4, 1, 24.7285213470459
0, 4, 2, 17.21063995361328
0, 4, 3, 23.46569442749023
0, 4, 4, 25.88176155090332
0, 4, 5, 27.39100646972656
0, 4, 6, 34.13115692138672
0, 4, 7, 39.19205093383789
0, 4, 8, 29.21191215515137
0, 4, 9, 37.4744873046875
0, 4, 10, 31.96734619140625
0, 4, 11, 37.49624633789062
0, 4, 12, 47.77128219604492
0, 4, 13, 54.48992919921875
0, 4, 14, 54.48219680786133
0, 4, 15, 59.82432556152344
0, 4, 16, 72.22467803955078
0, 4, 17, 115.8750915527344
0, 4, 18, 445.0780334472656
0, 4, 19, 1184.863403320312
0, 4, 20, 1445.234619140625
0, 4, 21, 1422.265258789062
0, 4, 22, 1431.600219726562
0, 4, 23, 1452.082275390625
0, 4, 24, 1472.756591796875
0, 4, 25, 1404.125122070312
0, 4, 26, 1535.105834960938
0, 4, 27, 1544.204223632812
0, 4, 28, 1511.759521484375
0, 4, 29, 1513.708984375
0, 4, 30, 1524.092651367188
0, 4, 31, 1568.982543945312
0, 4, 32, 1517.79443359375
0, 4, 33, 1491.475952148438
0, 4, 34, 1467.56005859375
0, 4, 35, 1561.293823242188
0, 4, 36, 1497.239379882812
0, 4, 37, 1513.460693359375
0, 4, 38, 1537.359985351562
0, 4, 39, 1474.818115234375
0, 4, 40, 1513.663696289062
0, 4, 41, 1585.192260742188
0, 4, 42, 1565.123657226562
0, 4, 43, 1475.719482421875
0, 4, 44, 1498.971435546875
0, 4, 45, 1516.2685546875
0, 4, 46, 1468.578735351562
0, 4, 47, 1503.267456054688
0, 4, 48, 1526.883178710938
0, 4, 49, 1467.33203125
0, 4, 50, 1519.526611328125
0, 4, 51, 1488.505126953125
0, 4, 52, 1489.564453125
0, 4, 53, 1456.147827148438
0, 4, 54, 1442.4619140625
0, 4, 55, 1528.83935546875
0, 4, 56, 1455.876708984375
0, 4, 57, 1495.165161132812
0, 4, 58, 1456.64306640625
0, 4, 59, 1469.281982421875
0, 4, 60, 1530.488891601562
0, 4, 61, 1497.948852539062
0, 4, 62, 1503.821655273438
0, 4, 63, 1543.972412109375
0, 4, 64, 1589.999267578125
0, 4, 65, 1428.3935546875
0, 4, 66, 1513.861083984375
0, 4, 67, 1522.49365234375
0, 4, 68, 1490.96875
0, 4, 69, 1467.329345703125
0, 4, 70, 1541.439819335938
0, 4, 71, 1514.504516601562
0, 4, 72, 1532.6298828125
0, 4, 73, 1499.049438476562
0, 4, 74, 1487.03369140625
0, 4, 75, 1537.189575195312
0, 4, 76, 1484.930053710938
0, 4, 77, 1498.661254882812
0, 4, 78, 1506.338134765625
0, 4, 79, 1484.977905273438
0, 4, 80, 1516.748291015625
0, 4, 81, 1527.936279296875
0, 4, 82, 1564.535522460938
0, 4, 83, 1502.547485351562
0, 4, 84, 1534.81982421875
0, 4, 85, 1551.802124023438
0, 4, 86, 1532.199951171875
0, 4, 87, 1497.2890625
0, 4, 88, 1512.4755859375
0, 4, 89, 1480.451049804688
0, 4, 90, 1547.857666015625
0, 4, 91, 1552.381469726562
0, 4, 92, 1496.55029296875
0, 4, 93, 1516.111083984375
0, 4, 94, 1485.168212890625
0, 4, 95, 1517.233764648438
0, 4, 96, 1447.470703125
0, 4, 97, 1404.60888671875
0, 4, 98, 1552.01611328125
0, 4, 99, 1507.70361328125
0, 4, 100, 1489.109008789062
0, 4, 101, 1452.213012695312
0, 4, 102, 1442.789672851562
0, 4, 103, 1514.842163085938
0, 4, 104, 1504.703979492188
0, 4, 105, 1557.523193359375
0, 4, 106, 1476.411499023438
0, 4, 107, 1455.75634765625
0, 4, 108, 1120.29833984375
0, 4, 109, 434.7210693359375
0, 4, 110, 97.32157135009766
0, 4, 111, 71.89447784423828
0, 4, 112, 59.60849380493164
0, 4, 113, 47.84350967407227
0, 4, 114, 51.68596649169922
0, 4, 115, 44.74418258666992
0, 4, 116, 36.94707107543945
0, 4, 117, 44.90687942504883
0, 4, 118, 43.761962890625
0, 4, 119, 36.29868698120117
0, 4, 120, 38.80141448974609
0, 4, 121, 24.58670616149902
0, 4, 122, 30.49796295166016
0, 4, 123, 25.78680038452148
0, 4, 124, 20.66402435302734
0, 4, 125, 29.48340797424316
0, 4, 126, 21.28986549377441
0, 4, 127, 15.04062747955322
0, 5, 0, 25.4328441619873
0, 5, 1, 20.31072998046875
0, 5, 2, 28.01316070556641
0, 5, 3, 24.17574119567871
0, 5, 4, 22.24555397033691
0, 5, 5, 35.5849494934082
0, 5, 6, 26.7541446685791
0, 5, 7, 31.5458984375
0, 5, 8, 33.04581832885742
0, 5, 9, 36.7916259765625
0, 5, 10, 35.77446746826172
0, 5, 11, 36.72299194335938
0, 5, 12, 43.70510482788086
0, 5, 13, 44.52182388305664
0, 5, 14, 62.78187561035156
0, 5, 15, 80.16614532470703
0, 5, 16, 82.03075408935547
0, 5, 17, 158.6188812255859
0, 5, 18, 676.9048461914062
0, 5, 19, 1347.076782226562
0, 5, 20, 1526.290893554688
0, 5, 21, 1494.151489257812
0, 5, 22, 1493.1171875
0, 5, 23, 1535.760498046875
0, 5, 24, 1465.074584960938
0, 5, 25, 1429.831787109375
0, 5, 26, 1526.385131835938
0, 5, 27, 1537.895385742188
0, 5, 28, 1483.744873046875
0, 5, 29, 1523.176391601562
0, 5, 30, 1495.352172851562
0, 5, 31, 1501.3486328125
0, 5, 32, 1593.803344726562
0, 5, 33, 1498.095703125
0, 5, 34, 1486.176635742188
0, 5, 35, 1514.989501953125
0, 5, 36, 1443.031372070312
0, 5, 37, 1534.911010742188
0, 5, 38, 1546.293212890625
0, 5, 39, 1549.295654296875
0, 5, 40, 1500.172241210938
0, 5, 41, 1488.4501953125
0, 5, 42, 1541.01123046875
0, 5, 43, 1529.682006835938
0, 5, 44, 1539.2265625
0, 5, 45, 1511.671508789062
0, 5, 46, 1486.05224609375
0, 5, 47, 1483.445434570312
0, 5, 48, 1503.102294921875
0, 5, 49, 1523.457641601562
0, 5, 50, 1503.950073242188
0, 5, 51, 1519.240234375
0, 5, 52, 1435.245239257812
0, 5, 53, 1523.863525390625
0, 5, 54, 1521.216064453125
0, 5, 55, 1522.946899414062
0, 5, 56, 1491.963134765625
0, 5, 57, 1542.339233398438
0, 5, 58, 1509.348510742188
0, 5, 59, 1483.919677734375
0, 5, 60, 1536.675903320312
0, 5, 61, 1450.523803710938
0, 5, 62, 1582.991943359375
0, 5, 63, 1435.770751953125
0, 5, 64, 1486.94970703125
0, 5, 65, 1466.046508789062
0, 5, 66, 1522.698120117188
0, 5, 67, 1561.98095703125
0, 5, 68, 1460.230102539062
0, 5, 69, 1483.034912109375
0, 5, 70, 1489.491088867188
0, 5, 71, 1468.63818359375
0, 5, 72, 1536.0673828125
0, 5, 73, 1458.674072265625
0, 5, 74, 1497.650146484375
0, 5, 75, 1492.664672851562
0, 5, 76, 1478.275390625
0, 5, 77, 1518.544921875
0, 5, 78, 1521.406005859375
0, 5, 79, 1509.732666015625
0, 5, 80, 1517.67822265625
0, 5, 81, 1596.945678710938
0, 5, 82, 1525.145751953125
0, 5, 83, 1490.394287109375
0, 5, 84, 1535.754028320312
0, 5, 85, 1515.85107421875
0, 5, 86, 1554.571411132812
0, 5, 87, 1477.4423828125
0, 5, 88, 1500.126831054688
0, 5, 89, 1481.329711914062
0, 5, 90, 1481.55322265625
0, 5, 91, 1557.027709960938
0, 5, 92, 1483.689086914062
0, 5, 93, 1556.647705078125
0, 5, 94, 1509.853149414062
0, 5, 95, 1564.2333984375
0, 5, 96, 1497.897216796875
0, 5, 97, 1508.533203125
0, 5, 98, 1508.9873046875
0, 5, 99, 1543.51611328125
0, 5, 100, 1434.422119140625
0, 5, 101, 1430.726684570312
0, 5, 102, 1513.435668945312
0, 5, 103, 1480.765258789062
0, 5, 104, 1460.54052734375
0, 5, 105, 1490.403564453125
0, 5, 106, 1454.78662109375
0, 5, 107, 1397.83447265625
0, 5, 108, 1291.042236328125
0, 5, 109, 720.7117309570312
0, 5, 110, 198.5467834472656
0, 5, 111, 91.85375213623047
0, 5, 112, 85.58916473388672
0, 5, 113, 66.23448181152344
0, 5, 114, 60.29630279541016
0, 5, 115, 51.22467041015625
0, 5, 116, 43.44056701660156
0, 5, 117, 34.89463806152344
0, 5, 118, 41.95616912841797
0, 5, 119, 24.45802688598633
0, 5, 120, 23.5721435546875
0, 5, 121, 21.19575881958008
0, 5, 122, 31.94669342041016
0, 5, 123, 25.35895919799805
0, 5, 124, 27.26179504394531
0, 5, 125, 23.96900749206543
0, 5, 126, 24.85907936096191
0, 5, 127, 23.97363090515137
0, 6, 0, 18.88635635375977
0, 6, 1, 28.30952835083008
0, 6, 2, 29.96273422241211
0, 6, 3, 27.79695320129395
0, 6, 4, 20.25189208984375
0, 6, 5, 32.45756530761719
0, 6, 6, 36.48707580566406
0, 6, 7, 29.80928802490234
0, 6, 8, 31.45242881774902
0, 6, 9, 32.37455368041992
0, 6, 10, 34.93791580200195
0, 6, 11, 39.30452346801758
0, 6, 12, 40.43947219848633
0, 6, 13, 56.12975311279297
0, 6, 14, 71.82645416259766
0, 6, 15, 84.32472229003906
0, 6, 16, 116.2950820922852
0, 6, 17, 298.8710327148438
0, 6, 18, 900.3890380859375
0, 6, 19, 1373.210693359375
0, 6, 20, 1435.178100585938
0, 6, 21, 1532.377563476562
0, 6, 22, 1505.396728515625
0, 6, 23, 1529.574340820312
0, 6, 24, 1480.661010742188
0, 6, 25, 1529.101318359375
0, 6, 26, 1520.730102539062
0, 6, 27, 1523.758422851562
0, 6, 28, 1556.812622070312
0, 6, 29, 1574.877807617188
0, 6, 30, 1518.779418945312
0, 6, 31, 1492.556518554688
0, 6, 32, 1528.79931640625
0, 6, 33, 1495.185302734375
0, 6, 34, 1560.0244140625
0, 6, 35, 1499.629150390625
0, 6, 36, 1443.268676757812
0, 6, 37, 1546.63916015625
0, 6, 38, 1522.26513671875
0, 6, 39, 1520.039184570312
0, 6, 40, 1458.92041015625
0, 6, 41, 1442.852905273438
0, 6, 42, 1514.88916015625
0, 6, 43, 1485.15771484375
0, 6, 44, 1433.659545898438
0, 6, 45, 1542.73876953125
0, 6, 46, 1556.987060546875
0, 6, 47, 1495.546875
0, 6, 48, 1526.760375976562
0, 6, 49, 1509.206909179688
0, 6, 50, 1572.20361328125
0, 6, 51, 1502.192138671875
0, 6, 52, 1561.580322265625
0, 6, 53, 1473.540283203125
0, 6, 54, 1500.185913085938
0, 6, 55, 1571.425537109375
0, 6, 56, 1525.516479492188
0, 6, 57, 1504.322021484375
0, 6, 58, 1465.997314453125
0, 6, 59, 1517.138916015625
0, 6, 60, 1468.906372070312
0, 6, 61, 1572.40576171875
0, 6, 62, 1545.773803710938
0, 6, 63, 1496.6904296875
0, 6, 64, 1407.33251953125
0, 6, 65, 1497.586791992188
0, 6, 66, 1515.63525390625
0, 6, 67, 1511.641845703125
0, 6, 68, 1548.223388671875
0, 6, 69, 1489.907958984375
0, 6, 70, 1520.820678710938
0, 6, 71, 1474.556030273438
0, 6, 72, 1595.901977539062
0, 6, 73, 1484.59130859375
0, 6, 74, 1559.5634765625
0, 6, 75, 1535.743286132812
0, 6, 76, 1565.47509765625
0, 6, 77, 1508.883178710938
0, 6, 78, 1443.7333984375
0, 6, 79, 1551.870971679688
0, 6, 80, 1485.656494140625
0, 6, 81, 1481.90771484375
0, 6, 82, 1497.0146484375
0, 6, 83, 1524.308837890625
0, 6, 84, 1512.872436523438
0, 6, 85, 1537.50341796875
0, 6, 86, 1541.028930664062
0, 6, 87, 1573.063842773438
0, 6, 88, 1485.893920898438
0, 6, 89, 1564.871948242188
0, 6, 90, 1489.610229492188
0, 6, 91, 1546.049560546875
0, 6, 92, 1489.0380859375
0, 6, 93, 1497.825439453125
0, 6, 94, 1463.95458984375
0, 6, 95, 1511.535888671875
0, 6, 96, 1515.697143554688
0, 6, 97, 1505.402099609375
0, 6, 98, 1496.296875
0, 6, 99, 1476.743041992188
0, 6, 100, 1524.10400390625
0, 6, 101, 1517.187622070312
0, 6, 102, 1542.032104492188
0, 6, 103, 1501.940795898438
0, 6, 104, 1464.463745117188
0, 6, 105, 1482.630249023438
0, 6, 106, 1498.760864257812
0, 6, 107, 1498.970092773438
0, 6, 108, 1406.732177734375
0, 6, 109, 924.9229125976562
0, 6, 110, 281.9582214355469
0, 6, 111, 96.43534088134766
0, 6, 112, 77.77845001220703
0, 6, 113, 56.74620819091797
0, 6, 114, 54.48468017578125
0, 6, 115, 43.22154998779297
0, 6, 116, 45.90507507324219
0, 6, 117, 38.99028778076172
0, 6, 118, 39.47251510620117
0, 6, 119, 36.45221328735352
0, 6, 120, 34.06918334960938
0, 6, 121, 34.05193710327148
0, 6, 122, 28.87689590454102
0, 6, 123, 28.89142799377441
0, 6, 124, 25.82966613769531
0, 6, 125, 31.63417053222656
0, 6, 126, 23.90921211242676
0, 6, 127, 25.27118301391602
0, 7, 0, 26.34920883178711
0, 7, 1, 28.74860191345215
0, 7, 2, 24.64376449584961
0, 7, 3, 23.49191665649414
0, 7, 4, 23.51401519775391
0, 7, 5, 40.20148468017578
0, 7, 6, 35.46264266967773
0, 7, 7, 39.58783721923828
0, 7, 8, 23.69845771789551
0, 7, 9, 33.70509338378906
0, 7, 10, 47.16651153564453
0, 7, 11, 53.21739196777344
0, 7, 12, 44.72830200195312
0, 7, 13, 48.81707382202148
0, 7, 14, 63.63163375854492
0, 7, 15, 80.17842102050781
0, 7, 16, 129.9633636474609
0, 7, 17, 455.8774719238281
0, 7, 18, 1097.797119140625
0, 7, 19, 1500.83642578125
0, 7, 20, 1482.6259765625
0, 7, 21, 1364.156127929688
0, 7, 22, 1487.4384765625
0, 7, 23, 1454.473510742188
0, 7, 24, 1509.23681640625
0, 7, 25, 1590.14208984375
0, 7, 26, 1515.158569335938
0, 7, 27, 1507.498657226562
0, 7, 28, 1544.915405273438
0, 7, 29, 1573.309814453125
0, 7, 30, 1547.419555664062
0, 7, 31, 1436.901977539062
0, 7, 32, 1549.234375
0, 7, 33, 1494.247680664062
0, 7, 34, 1478.57373046875
0, 7, 35, 1518.741821289062
0, 7, 36, 1473.9248046875
0, 7, 37, 1598.282104492188
0, 7, 38, 1511.257080078125
0, 7, 39, 1495.26708984375
0, 7, 40, 1540.947265625
0, 7, 41, 1464.772216796875
0, 7, 42, 1486.830200195312
0, 7, 43, 1443.49560546875
0, 7, 44, 1489.780151367188
0, 7, 45, 1469.431762695312
0, 7, 46, 1506.34521484375
0, 7, 47, 1563.440551757812
0, 7, 48, 1520.087768554688
0, 7, 49, 1542.445190429688
0, 7, 50, 1514.391235351562
0, 7, 51, 1494.67529296875
0, 7, 52, 1512.09375
0, 7, 53, 1497.108032226562
0, 7, 54, 1588.286499023438
0, 7, 55, 1473.783325195312
0, 7, 56, 1550.211181640625
0, 7, 57, 1516.758422851562
0, 7, 58, 1552.625122070312
0, 7, 59, 1541.222900390625
0, 7, 60, 1547.286743164062
0, 7, 61, 1484.33984375
0, 7, 62, 1429.181518554688
0, 7, 63, 1515.651611328125
0, 7, 64, 1545.560668945312
0, 7, 65, 1525.067749023438
0, 7, 66, 1538.983276367188
0, 7, 67, 1581.945678710938
0, 7, 68, 1531.093627929688
0, 7, 69, 1514.97021484375
0, 7, 70, 1493.429321289062
0, 7, 71, 1517.18310546875
0, 7, 72, 1524.418090820312
0, 7, 73, 1517.747192382812
0, 7, 74, 1575.94091796875
0, 7, 75, 1536.556030273438
0, 7, 76, 1558.093505859375
0, 7, 77, 1518.251831054688
0, 7, 78, 1511.274047851562
0, 7, 79, 1427.727783203125
0, 7, 80, 1492.606323242188
0, 7, 81, 1495.754150390625
0, 7, 82, 1529.336547851562
0, 7, 83, 1545.994873046875
0, 7, 84, 1583.723999023438
0, 7, 85, 1476.23291015625
0, 7, 86, 1499.55419921875
0, 7, 87, 1501.461303710938
0, 7, 88, 1501.701538085938
0, 7, 89, 1548.40234375
0, 7, 90, 1523.245361328125
0, 7, 91, 1560.196655273438
0, 7, 92, 1526.5712890625
0, 7, 93, 1554.11572265625
0, 7, 94, 1537.799682617188
0, 7, 95, 1505.841430664062
0, 7, 96, 1509.258056640625
0, 7, 97, 1434.66357421875
0, 7, 98, 1484.771850585938
0, 7, 99, 1525.348876953125
0, 7, 100, 1419.719970703125
0, 7, 101, 1466.04296875
0, 7, 102, 1447.58056640625
0, 7, 103, 1431.105590820312
0, 7, 104, 1498.034912109375
0, 7, 105, 1521.783569335938
0, 7, 106, 1568.187622070312
0, 7, 107, 1478.67626953125
0, 7, 108, 1408.438110351562
0, 7, 109, 1145.286499023438
0, 7, 110, 467.26513671875
0, 7, 111, 128.4998779296875
0, 7, 112, 80.28248596191406
0, 7, 113, 67.41876220703125
0, 7, 114, 56.01902770996094
0, 7, 115, 51.31975173950195
0, 7, 116, 46.63915634155273
0, 7, 117, 43.57566452026367
0, 7, 118, 39.84685134887695
0, 7, 119, 32.01632690429688
0, 7, 120, 20.93277549743652
0, 7, 121, 27.62823486328125
0, 7, 122, 35.82144165039062
0, 7, 123, 38.12944030761719
0, 7, 124, 30.83232688903809
0, 7, 125, 19.13836479187012
0, 7, 126, 26.63536071777344
0, 7, 127, 20.85319519042969
0, 8, 0, 24.31622695922852
0, 8, 1, 22.42214202880859
0, 8, 2, 26.03612518310547
0, 8, 3, 27.58241081237793
0, 8, 4, 24.71507835388184
0, 8, 5, 33.53939437866211
0, 8, 6, 30.07077026367188
0, 8, 7, 31.06854248046875
0, 8, 8, 33.4017219543457
0, 8, 9, 47.77714157104492
0, 8, 10, 41.78760147094727
0, 8, 11, 37.93368530273438
0, 8, 12, 56.51537704467773
0, 8, 13, 72.13597869873047
0, 8, 14, 73.34281158447266
0, 8, 15, 87.35443115234375
0, 8, 16, 174.2529754638672
0, 8, 17, 674.7090454101562
0, 8, 18, 1283.833374023438
0, 8, 19, 1444.582275390625
0, 8, 20, 1417.352783203125
0, 8, 21, 1406.574462890625
0, 8, 22, 1485.158203125
0, 8, 23, 1480.217407226562
0, 8, 24, 1444.033569335938
0, 8, 25, 1456.752319335938
0, 8, 26, 1518.254028320312
0, 8, 27, 1523.750244140625
0, 8, 28, 1475.211303710938
0, 8, 29, 1506.071044921875
0, 8, 30, 1492.035522460938
0, 8, 31, 1534.801391601562
0, 8, 32, 1507.158935546875
0, 8, 33, 1483.496948242188
0, 8, 34, 1534.619018554688
0, 8, 35, 1443.984985351562
0, 8, 36, 1500.967895507812
0, 8, 37, 1549.652709960938
0, 8, 38, 1551.41796875
0, 8, 39, 1494.905639648438
0, 8, 40, 1530.901977539062
0, 8, 41, 1484.578125
0, 8, 42, 1542.778686523438
0, 8, 43, 1434.491088867188
0, 8, 44, 1534.70068359375
0, 8, 45, 1512.746459960938
0, 8, 46, 1602.044799804688
0, 8, 47, 1579.81201171875
0, 8, 48, 1543.962890625
0, 8, 49, 1561.884155273438
