# TOPAS Version: 3.1.p3
# Parameter File: batch_inserts_158.txt
# Results for scorer Readout_Adipose
# Scored in component: MyBox
# X in 1 bin  of 0.75 cm
# Y in 512 bins of 0.0783984 cm
# Z in 128 bins of 0.078125 cm
# EnergyDeposit ( MeV ) : Sum   
0, 0, 0, 4.545261859893799
0, 0, 1, 3.239633321762085
0, 0, 2, 5.494088649749756
0, 0, 3, 1.883452653884888
0, 0, 4, 2.562692165374756
0, 0, 5, 1.304353594779968
0, 0, 6, 7.499397277832031
0, 0, 7, 10.51834297180176
0, 0, 8, 2.680031776428223
0, 0, 9, 5.095051288604736
0, 0, 10, 6.677169322967529
0, 0, 11, 4.440965175628662
0, 0, 12, 4.698929786682129
0, 0, 13, 8.802097320556641
0, 0, 14, 7.232310771942139
0, 0, 15, 8.79787540435791
0, 0, 16, 9.744946479797363
0, 0, 17, 9.490551948547363
0, 0, 18, 13.6658763885498
0, 0, 19, 43.87327194213867
0, 0, 20, 138.0754852294922
0, 0, 21, 224.1711273193359
0, 0, 22, 248.1385955810547
0, 0, 23, 255.4164733886719
0, 0, 24, 251.0445098876953
0, 0, 25, 258.9505615234375
0, 0, 26, 233.8777160644531
0, 0, 27, 239.1310882568359
0, 0, 28, 272.3158264160156
0, 0, 29, 251.5221710205078
0, 0, 30, 228.3999328613281
0, 0, 31, 243.4188842773438
0, 0, 32, 263.5364990234375
0, 0, 33, 261.0836181640625
0, 0, 34, 287.9535522460938
0, 0, 35, 266.6428833007812
0, 0, 36, 246.4164886474609
0, 0, 37, 252.7964172363281
0, 0, 38, 266.5618591308594
0, 0, 39, 229.0892639160156
0, 0, 40, 243.728759765625
0, 0, 41, 265.5077209472656
0, 0, 42, 229.1713104248047
0, 0, 43, 259.7373962402344
0, 0, 44, 252.5381164550781
0, 0, 45, 251.9075317382812
0, 0, 46, 245.1046142578125
0, 0, 47, 254.6998291015625
0, 0, 48, 266.3326416015625
0, 0, 49, 274.9561462402344
0, 0, 50, 251.5597991943359
0, 0, 51, 256.546875
0, 0, 52, 271.2020263671875
0, 0, 53, 291.9759216308594
0, 0, 54, 242.3622283935547
0, 0, 55, 240.6300811767578
0, 0, 56, 278.2605285644531
0, 0, 57, 263.3161926269531
0, 0, 58, 245.2191162109375
0, 0, 59, 268.6964111328125
0, 0, 60, 235.0811920166016
0, 0, 61, 244.1271667480469
0, 0, 62, 260.5127868652344
0, 0, 63, 265.792724609375
0, 0, 64, 255.8397521972656
0, 0, 65, 261.2614135742188
0, 0, 66, 276.4245910644531
0, 0, 67, 246.4807434082031
0, 0, 68, 258.5869750976562
0, 0, 69, 260.9313049316406
0, 0, 70, 272.6134338378906
0, 0, 71, 239.6174468994141
0, 0, 72, 249.4634246826172
0, 0, 73, 258.0944213867188
0, 0, 74, 250.8042144775391
0, 0, 75, 242.4672088623047
0, 0, 76, 229.6298370361328
0, 0, 77, 263.300048828125
0, 0, 78, 260.9030151367188
0, 0, 79, 278.5699157714844
0, 0, 80, 216.0803375244141
0, 0, 81, 267.3056640625
0, 0, 82, 255.3489379882812
0, 0, 83, 246.8930969238281
0, 0, 84, 268.2410888671875
0, 0, 85, 232.2081146240234
0, 0, 86, 254.2830810546875
0, 0, 87, 252.1238250732422
0, 0, 88, 259.5677795410156
0, 0, 89, 282.0055236816406
0, 0, 90, 242.8724060058594
0, 0, 91, 281.4501037597656
0, 0, 92, 252.7535095214844
0, 0, 93, 248.8562469482422
0, 0, 94, 249.6954650878906
0, 0, 95, 247.8297882080078
0, 0, 96, 273.9608764648438
0, 0, 97, 273.8711547851562
0, 0, 98, 272.0352172851562
0, 0, 99, 258.0860290527344
0, 0, 100, 257.2978820800781
0, 0, 101, 227.4871673583984
0, 0, 102, 233.1633605957031
0, 0, 103, 271.6577453613281
0, 0, 104, 255.1983642578125
0, 0, 105, 252.0088195800781
0, 0, 106, 246.0237731933594
0, 0, 107, 151.1351013183594
0, 0, 108, 38.34245300292969
0, 0, 109, 13.73384666442871
0, 0, 110, 14.13517189025879
0, 0, 111, 8.801457405090332
0, 0, 112, 8.476487159729004
0, 0, 113, 6.46232795715332
0, 0, 114, 8.323017120361328
0, 0, 115, 4.506655216217041
0, 0, 116, 4.810473442077637
0, 0, 117, 6.112246036529541
0, 0, 118, 6.656289577484131
0, 0, 119, 3.179270029067993
0, 0, 120, 2.688428163528442
0, 0, 121, 2.987988233566284
0, 0, 122, 4.634560585021973
0, 0, 123, 4.361064434051514
0, 0, 124, 5.30812931060791
0, 0, 125, 3.670617818832397
0, 0, 126, 3.585670471191406
0, 0, 127, 1.87660551071167
0, 1, 0, 9.182519912719727
0, 1, 1, 3.447481870651245
0, 1, 2, 5.120920181274414
0, 1, 3, 2.00133752822876
0, 1, 4, 3.909341335296631
0, 1, 5, 4.628242969512939
0, 1, 6, 7.517063617706299
0, 1, 7, 6.039908885955811
0, 1, 8, 6.738885879516602
0, 1, 9, 4.213253974914551
0, 1, 10, 6.736664295196533
0, 1, 11, 10.48998260498047
0, 1, 12, 7.531218528747559
0, 1, 13, 10.94987201690674
0, 1, 14, 9.590312957763672
0, 1, 15, 7.794557571411133
0, 1, 16, 10.99172210693359
0, 1, 17, 9.682826995849609
0, 1, 18, 21.07344436645508
0, 1, 19, 66.67495727539062
0, 1, 20, 201.5097961425781
0, 1, 21, 254.9596099853516
0, 1, 22, 296.8367309570312
0, 1, 23, 282.8790588378906
0, 1, 24, 276.096923828125
0, 1, 25, 286.7849731445312
0, 1, 26, 268.7258911132812
0, 1, 27, 306.9869384765625
0, 1, 28, 301.9644775390625
0, 1, 29, 296.2527160644531
0, 1, 30, 279.9290466308594
0, 1, 31, 291.7265319824219
0, 1, 32, 289.4934997558594
0, 1, 33, 295.6781005859375
0, 1, 34, 291.7156677246094
0, 1, 35, 278.7447814941406
0, 1, 36, 306.8973999023438
0, 1, 37, 294.0238037109375
0, 1, 38, 278.802978515625
0, 1, 39, 295.5606689453125
0, 1, 40, 265.7854614257812
0, 1, 41, 288.800048828125
0, 1, 42, 289.4871826171875
0, 1, 43, 330.5884704589844
0, 1, 44, 278.5330810546875
0, 1, 45, 293.1197509765625
0, 1, 46, 260.0527648925781
0, 1, 47, 308.8315734863281
0, 1, 48, 284.4182434082031
0, 1, 49, 305.4223937988281
0, 1, 50, 263.8819885253906
0, 1, 51, 273.0201721191406
0, 1, 52, 298.9721984863281
0, 1, 53, 304.5337524414062
0, 1, 54, 273.3364562988281
0, 1, 55, 294.232666015625
0, 1, 56, 278.6327514648438
0, 1, 57, 299.25
0, 1, 58, 310.174072265625
0, 1, 59, 293.3608703613281
0, 1, 60, 297.5515441894531
0, 1, 61, 274.8417053222656
0, 1, 62, 309.0150146484375
0, 1, 63, 287.6695861816406
0, 1, 64, 288.085205078125
0, 1, 65, 295.6409606933594
0, 1, 66, 291.7266235351562
0, 1, 67, 291.6948852539062
0, 1, 68, 277.4819030761719
0, 1, 69, 280.0063171386719
0, 1, 70, 270.9836730957031
0, 1, 71, 272.09912109375
0, 1, 72, 285.5341186523438
0, 1, 73, 304.3446044921875
0, 1, 74, 303.6177368164062
0, 1, 75, 293.3975830078125
0, 1, 76, 285.4211120605469
0, 1, 77, 292.3230285644531
0, 1, 78, 296.66455078125
0, 1, 79, 301.6895446777344
0, 1, 80, 298.0568542480469
0, 1, 81, 300.0952453613281
0, 1, 82, 283.000244140625
0, 1, 83, 334.887451171875
0, 1, 84, 309.7806091308594
0, 1, 85, 252.4596862792969
0, 1, 86, 293.4568786621094
0, 1, 87, 293.2995910644531
0, 1, 88, 298.5771484375
0, 1, 89, 291.5490417480469
0, 1, 90, 269.5086059570312
0, 1, 91, 317.1518859863281
0, 1, 92, 290.6819458007812
0, 1, 93, 286.0538330078125
0, 1, 94, 305.41845703125
0, 1, 95, 284.0206909179688
0, 1, 96, 282.942138671875
0, 1, 97, 302.1518249511719
0, 1, 98, 277.2566528320312
0, 1, 99, 267.8720397949219
0, 1, 100, 276.7513122558594
0, 1, 101, 281.81591796875
0, 1, 102, 277.8963012695312
0, 1, 103, 281.6137390136719
0, 1, 104, 306.6519165039062
0, 1, 105, 297.7452697753906
0, 1, 106, 259.9080200195312
0, 1, 107, 192.978759765625
0, 1, 108, 81.02192687988281
0, 1, 109, 24.17896461486816
0, 1, 110, 11.50864505767822
0, 1, 111, 7.641887664794922
0, 1, 112, 12.53989791870117
0, 1, 113, 5.828633308410645
0, 1, 114, 5.873178005218506
0, 1, 115, 7.670868396759033
0, 1, 116, 12.86046695709229
0, 1, 117, 6.709485054016113
0, 1, 118, 4.433111190795898
0, 1, 119, 4.76116943359375
0, 1, 120, 3.881728410720825
0, 1, 121, 4.588046550750732
0, 1, 122, 3.803249835968018
0, 1, 123, 4.70824146270752
0, 1, 124, 5.909774780273438
0, 1, 125, 2.854071140289307
0, 1, 126, 3.398303031921387
0, 1, 127, 1.760532259941101
0, 2, 0, 5.688137531280518
0, 2, 1, 1.976189494132996
0, 2, 2, 3.389066219329834
0, 2, 3, 3.90322208404541
0, 2, 4, 2.751768350601196
0, 2, 5, 2.081522226333618
0, 2, 6, 2.024087190628052
0, 2, 7, 5.075653076171875
0, 2, 8, 4.513466358184814
0, 2, 9, 4.987263679504395
0, 2, 10, 10.36604022979736
0, 2, 11, 6.150150299072266
0, 2, 12, 6.41244649887085
0, 2, 13, 8.632501602172852
0, 2, 14, 11.857590675354
0, 2, 15, 8.911724090576172
0, 2, 16, 9.84037971496582
0, 2, 17, 16.76454162597656
0, 2, 18, 30.3405876159668
0, 2, 19, 115.1992721557617
0, 2, 20, 246.8756408691406
0, 2, 21, 270.9066772460938
0, 2, 22, 316.7796325683594
0, 2, 23, 300.334228515625
0, 2, 24, 285.1523742675781
0, 2, 25, 302.0592041015625
0, 2, 26, 294.2422485351562
0, 2, 27, 274.9386596679688
0, 2, 28, 272.1146850585938
0, 2, 29, 274.5283813476562
0, 2, 30, 288.2770385742188
0, 2, 31, 278.71435546875
0, 2, 32, 294.8741455078125
0, 2, 33, 282.2408142089844
0, 2, 34, 329.9862670898438
0, 2, 35, 289.3645935058594
0, 2, 36, 301.9331359863281
0, 2, 37, 314.0275268554688
0, 2, 38, 311.6327819824219
0, 2, 39, 264.59814453125
0, 2, 40, 308.2749633789062
0, 2, 41, 292.1339111328125
0, 2, 42, 302.5991821289062
0, 2, 43, 313.8605651855469
0, 2, 44, 310.3426818847656
0, 2, 45, 326.0647277832031
0, 2, 46, 287.8778076171875
0, 2, 47, 303.0450744628906
0, 2, 48, 279.3831176757812
0, 2, 49, 278.1704406738281
0, 2, 50, 294.2958068847656
0, 2, 51, 284.3009338378906
0, 2, 52, 271.0003051757812
0, 2, 53, 287.900146484375
0, 2, 54, 279.1279602050781
0, 2, 55, 276.3721008300781
0, 2, 56, 300.6453247070312
0, 2, 57, 293.2171020507812
0, 2, 58, 304.7800598144531
0, 2, 59, 290.8291931152344
0, 2, 60, 318.4847106933594
0, 2, 61, 300.7705383300781
0, 2, 62, 312.6723022460938
0, 2, 63, 303.6783447265625
0, 2, 64, 294.7152709960938
0, 2, 65, 311.0482177734375
0, 2, 66, 279.6361999511719
0, 2, 67, 291.8362426757812
0, 2, 68, 295.7506408691406
0, 2, 69, 310.8505859375
0, 2, 70, 333.8478393554688
0, 2, 71, 284.2530822753906
0, 2, 72, 301.1309814453125
0, 2, 73, 310.3840026855469
0, 2, 74, 287.7555236816406
0, 2, 75, 303.9008483886719
0, 2, 76, 288.1600036621094
0, 2, 77, 302.3916625976562
0, 2, 78, 318.3401184082031
0, 2, 79, 307.9935913085938
0, 2, 80, 295.90185546875
0, 2, 81, 282.3516540527344
0, 2, 82, 319.3616027832031
0, 2, 83, 313.2071533203125
0, 2, 84, 287.0348510742188
0, 2, 85, 282.8835754394531
0, 2, 86, 323.0955200195312
0, 2, 87, 286.4166564941406
0, 2, 88, 279.3401489257812
0, 2, 89, 297.5851440429688
0, 2, 90, 295.711669921875
0, 2, 91, 276.5482788085938
0, 2, 92, 307.5900573730469
0, 2, 93, 317.3960876464844
0, 2, 94, 293.5932006835938
0, 2, 95, 315.6228332519531
0, 2, 96, 315.3688049316406
0, 2, 97, 290.3395690917969
0, 2, 98, 295.3475341796875
0, 2, 99, 274.5635681152344
0, 2, 100, 306.474609375
0, 2, 101, 303.139404296875
0, 2, 102, 297.7047729492188
0, 2, 103, 293.2405700683594
0, 2, 104, 293.4167175292969
0, 2, 105, 274.6639404296875
0, 2, 106, 297.5834350585938
0, 2, 107, 268.3311767578125
0, 2, 108, 116.5587768554688
0, 2, 109, 32.43053817749023
0, 2, 110, 9.864092826843262
0, 2, 111, 11.53926658630371
0, 2, 112, 9.630608558654785
0, 2, 113, 9.39447021484375
0, 2, 114, 9.229554176330566
0, 2, 115, 8.820248603820801
0, 2, 116, 10.02543544769287
0, 2, 117, 8.476508140563965
0, 2, 118, 4.128940105438232
0, 2, 119, 3.36494517326355
0, 2, 120, 8.384572982788086
0, 2, 121, 2.678776502609253
0, 2, 122, 3.681738138198853
0, 2, 123, 3.115482091903687
0, 2, 124, 3.795310020446777
0, 2, 125, 4.160764217376709
0, 2, 126, 3.564255952835083
0, 2, 127, 4.833643913269043
0, 3, 0, 2.240248918533325
0, 3, 1, 3.553413391113281
0, 3, 2, 4.643644332885742
0, 3, 3, 1.804222345352173
0, 3, 4, 6.731103897094727
0, 3, 5, 7.091076374053955
0, 3, 6, 6.87574291229248
0, 3, 7, 6.3257155418396
0, 3, 8, 4.902238845825195
0, 3, 9, 7.268958568572998
0, 3, 10, 6.780192852020264
0, 3, 11, 5.284459590911865
0, 3, 12, 9.532164573669434
0, 3, 13, 15.06462478637695
0, 3, 14, 11.5887565612793
0, 3, 15, 12.65342426300049
0, 3, 16, 12.3648509979248
0, 3, 17, 21.63166809082031
0, 3, 18, 52.96482849121094
0, 3, 19, 174.4842376708984
0, 3, 20, 269.6712951660156
0, 3, 21, 269.6327514648438
0, 3, 22, 283.361083984375
0, 3, 23, 286.3056030273438
0, 3, 24, 286.7034912109375
0, 3, 25, 270.4432373046875
0, 3, 26, 304.0435180664062
0, 3, 27, 291.4265441894531
0, 3, 28, 280.0584716796875
0, 3, 29, 339.3009643554688
0, 3, 30, 315.6215515136719
0, 3, 31, 284.8743896484375
0, 3, 32, 306.2586669921875
0, 3, 33, 316.5277404785156
0, 3, 34, 321.1102600097656
0, 3, 35, 305.2743530273438
0, 3, 36, 269.6684875488281
0, 3, 37, 315.4339599609375
0, 3, 38, 304.170654296875
0, 3, 39, 288.974365234375
0, 3, 40, 266.0757446289062
0, 3, 41, 301.5373229980469
0, 3, 42, 285.3207092285156
0, 3, 43, 307.4734802246094
0, 3, 44, 311.2481384277344
0, 3, 45, 290.2105712890625
0, 3, 46, 328.9894409179688
0, 3, 47, 300.4939575195312
0, 3, 48, 302.9784851074219
0, 3, 49, 279.5689392089844
0, 3, 50, 290.2485961914062
0, 3, 51, 278.2266540527344
0, 3, 52, 314.963134765625
0, 3, 53, 288.4044189453125
0, 3, 54, 283.0372619628906
0, 3, 55, 285.3981018066406
0, 3, 56, 297.9315795898438
0, 3, 57, 287.7157592773438
0, 3, 58, 307.3562622070312
0, 3, 59, 295.8556823730469
0, 3, 60, 297.1380920410156
0, 3, 61, 267.2868957519531
0, 3, 62, 283.7936401367188
0, 3, 63, 305.7923889160156
0, 3, 64, 317.1989135742188
0, 3, 65, 304.5238952636719
0, 3, 66, 315.289306640625
0, 3, 67, 318.6995544433594
0, 3, 68, 278.8186340332031
0, 3, 69, 281.3279113769531
0, 3, 70, 288.0328674316406
0, 3, 71, 299.3881530761719
0, 3, 72, 268.737548828125
0, 3, 73, 307.5580444335938
0, 3, 74, 292.9151306152344
0, 3, 75, 289.1253356933594
0, 3, 76, 306.4124145507812
0, 3, 77, 311.9456481933594
0, 3, 78, 305.5422973632812
0, 3, 79, 283.1701049804688
0, 3, 80, 289.9502563476562
0, 3, 81, 311.1954650878906
0, 3, 82, 315.9818420410156
0, 3, 83, 299.52490234375
0, 3, 84, 310.1818542480469
0, 3, 85, 294.4122924804688
0, 3, 86, 302.8473205566406
0, 3, 87, 298.3316650390625
0, 3, 88, 297.8497314453125
0, 3, 89, 296.5906982421875
0, 3, 90, 276.9196472167969
0, 3, 91, 284.776123046875
0, 3, 92, 307.1702575683594
0, 3, 93, 313.6689147949219
0, 3, 94, 297.2693481445312
0, 3, 95, 332.3175048828125
0, 3, 96, 290.4199523925781
0, 3, 97, 285.0375366210938
0, 3, 98, 278.8160095214844
0, 3, 99, 262.8034362792969
0, 3, 100, 283.1754150390625
0, 3, 101, 296.720703125
0, 3, 102, 274.7349243164062
0, 3, 103, 321.4404602050781
0, 3, 104, 308.53125
0, 3, 105, 288.4907836914062
0, 3, 106, 302.31396484375
0, 3, 107, 284.2930908203125
0, 3, 108, 167.2772979736328
0, 3, 109, 55.3363037109375
0, 3, 110, 16.97384071350098
0, 3, 111, 13.05157661437988
0, 3, 112, 14.0622091293335
0, 3, 113, 5.546055316925049
0, 3, 114, 9.298554420471191
0, 3, 115, 6.927074909210205
0, 3, 116, 11.9627103805542
0, 3, 117, 8.350193023681641
0, 3, 118, 9.526144027709961
0, 3, 119, 3.950781583786011
0, 3, 120, 6.6319580078125
0, 3, 121, 3.996367931365967
0, 3, 122, 2.238043069839478
0, 3, 123, 6.066064834594727
0, 3, 124, 3.840982913970947
0, 3, 125, 7.615762710571289
0, 3, 126, 3.843582153320312
0, 3, 127, 2.583832502365112
0, 4, 0, 3.948631763458252
0, 4, 1, 5.664337635040283
0, 4, 2, 4.031028747558594
0, 4, 3, 2.545145988464355
0, 4, 4, 7.468056678771973
0, 4, 5, 7.142048358917236
0, 4, 6, 6.908755302429199
0, 4, 7, 5.467987537384033
0, 4, 8, 4.407410621643066
0, 4, 9, 6.410782337188721
0, 4, 10, 7.298691272735596
0, 4, 11, 6.186019897460938
0, 4, 12, 6.093460559844971
0, 4, 13, 8.346880912780762
0, 4, 14, 17.79508590698242
0, 4, 15, 9.393003463745117
0, 4, 16, 14.54561328887939
0, 4, 17, 19.62102127075195
0, 4, 18, 91.66800689697266
0, 4, 19, 222.1819000244141
0, 4, 20, 284.7069396972656
0, 4, 21, 271.9893493652344
0, 4, 22, 305.4833679199219
0, 4, 23, 266.3710021972656
0, 4, 24, 290.7135925292969
0, 4, 25, 272.7061767578125
0, 4, 26, 295.3927612304688
0, 4, 27, 283.693115234375
0, 4, 28, 307.2923583984375
0, 4, 29, 322.5006408691406
0, 4, 30, 310.0319519042969
0, 4, 31, 303.6857299804688
0, 4, 32, 281.4319763183594
0, 4, 33, 296.4432373046875
0, 4, 34, 295.1454467773438
0, 4, 35, 313.0448608398438
0, 4, 36, 293.4929809570312
0, 4, 37, 288.8787231445312
0, 4, 38, 298.9676208496094
0, 4, 39, 295.3364562988281
0, 4, 40, 302.6773681640625
0, 4, 41, 312.2314147949219
0, 4, 42, 329.5696411132812
0, 4, 43, 298.010498046875
0, 4, 44, 322.1731262207031
0, 4, 45, 324.2134094238281
0, 4, 46, 305.1018676757812
0, 4, 47, 291.847412109375
0, 4, 48, 295.232177734375
0, 4, 49, 278.1198120117188
0, 4, 50, 296.8676452636719
0, 4, 51, 315.3719787597656
0, 4, 52, 327.12841796875
0, 4, 53, 304.167236328125
0, 4, 54, 287.0227966308594
0, 4, 55, 313.5748596191406
0, 4, 56, 286.4060974121094
0, 4, 57, 310.3860778808594
0, 4, 58, 295.141357421875
0, 4, 59, 311.4549865722656
0, 4, 60, 304.0899963378906
0, 4, 61, 317.1747131347656
0, 4, 62, 307.8907165527344
0, 4, 63, 298.8714294433594
0, 4, 64, 331.3087463378906
0, 4, 65, 317.1388549804688
0, 4, 66, 294.6023559570312
0, 4, 67, 284.3213806152344
0, 4, 68, 311.6015625
0, 4, 69, 275.4906005859375
0, 4, 70, 298.85400390625
0, 4, 71, 321.0036010742188
0, 4, 72, 333.0264587402344
0, 4, 73, 297.1769409179688
0, 4, 74, 293.4104614257812
0, 4, 75, 289.0934753417969
0, 4, 76, 273.3740539550781
0, 4, 77, 279.6680297851562
0, 4, 78, 310.6590270996094
0, 4, 79, 320.8497314453125
0, 4, 80, 316.0545959472656
0, 4, 81, 315.134033203125
0, 4, 82, 296.9101257324219
0, 4, 83, 300.485595703125
0, 4, 84, 292.951416015625
0, 4, 85, 295.0379333496094
0, 4, 86, 296.4178771972656
0, 4, 87, 284.0168151855469
0, 4, 88, 305.6353759765625
0, 4, 89, 295.1846313476562
0, 4, 90, 334.1190185546875
0, 4, 91, 303.8988952636719
0, 4, 92, 290.9124755859375
0, 4, 93, 295.9018249511719
0, 4, 94, 292.9275207519531
0, 4, 95, 287.61865234375
0, 4, 96, 325.3533935546875
0, 4, 97, 273.8764038085938
0, 4, 98, 329.1022338867188
0, 4, 99, 312.9978637695312
0, 4, 100, 300.0136413574219
0, 4, 101, 256.7020568847656
0, 4, 102, 296.2478942871094
0, 4, 103, 318.7424621582031
0, 4, 104, 281.8970031738281
0, 4, 105, 309.5845336914062
0, 4, 106, 286.7760314941406
0, 4, 107, 295.8341064453125
0, 4, 108, 226.4205780029297
0, 4, 109, 79.11991882324219
0, 4, 110, 16.5838565826416
0, 4, 111, 13.40736389160156
0, 4, 112, 8.034144401550293
0, 4, 113, 11.49132537841797
0, 4, 114, 8.343293190002441
0, 4, 115, 9.714872360229492
0, 4, 116, 7.18708610534668
0, 4, 117, 7.261906147003174
0, 4, 118, 8.666516304016113
0, 4, 119, 9.410836219787598
0, 4, 120, 7.794727325439453
0, 4, 121, 5.710618019104004
0, 4, 122, 3.943265438079834
0, 4, 123, 6.86379337310791
0, 4, 124, 6.302711963653564
0, 4, 125, 9.902447700500488
0, 4, 126, 4.814540386199951
0, 4, 127, 4.670248985290527
0, 5, 0, 3.357253313064575
0, 5, 1, 4.110809326171875
0, 5, 2, 5.790077686309814
0, 5, 3, 2.630684852600098
0, 5, 4, 5.31813907623291
0, 5, 5, 8.630239486694336
0, 5, 6, 5.796813488006592
0, 5, 7, 4.782298564910889
0, 5, 8, 4.308909893035889
0, 5, 9, 6.974085807800293
0, 5, 10, 5.968226432800293
0, 5, 11, 9.02387809753418
0, 5, 12, 7.815521240234375
0, 5, 13, 4.865344524383545
0, 5, 14, 10.93989372253418
0, 5, 15, 16.82005500793457
0, 5, 16, 16.50244331359863
0, 5, 17, 31.12423133850098
0, 5, 18, 136.6632995605469
0, 5, 19, 288.8562622070312
0, 5, 20, 307.5156860351562
0, 5, 21, 317.2026977539062
0, 5, 22, 276.1980590820312
0, 5, 23, 311.7626037597656
0, 5, 24, 302.4277954101562
0, 5, 25, 289.7129821777344
0, 5, 26, 293.77685546875
0, 5, 27, 321.4740600585938
0, 5, 28, 301.2061462402344
0, 5, 29, 298.1298217773438
0, 5, 30, 322.9723205566406
0, 5, 31, 285.3336791992188
0, 5, 32, 307.2020874023438
0, 5, 33, 304.7606201171875
0, 5, 34, 296.1197204589844
0, 5, 35, 310.5496520996094
0, 5, 36, 272.2720947265625
0, 5, 37, 282.0740661621094
0, 5, 38, 291.7557983398438
0, 5, 39, 313.4217834472656
0, 5, 40, 308.3083801269531
0, 5, 41, 273.0223693847656
0, 5, 42, 303.8333740234375
0, 5, 43, 313.9275817871094
0, 5, 44, 292.4766540527344
0, 5, 45, 304.7203674316406
0, 5, 46, 265.2555541992188
0, 5, 47, 279.997802734375
0, 5, 48, 295.1843566894531
0, 5, 49, 286.3590698242188
0, 5, 50, 294.1851806640625
0, 5, 51, 279.0316162109375
0, 5, 52, 268.4765014648438
0, 5, 53, 284.1033935546875
0, 5, 54, 291.8246154785156
0, 5, 55, 344.2724609375
0, 5, 56, 305.5844421386719
0, 5, 57, 307.0381774902344
0, 5, 58, 312.8418884277344
0, 5, 59, 303.6756896972656
0, 5, 60, 306.989990234375
0, 5, 61, 280.9280090332031
0, 5, 62, 323.1654663085938
0, 5, 63, 289.9324035644531
0, 5, 64, 323.7748107910156
0, 5, 65, 307.3811645507812
0, 5, 66, 329.1556396484375
0, 5, 67, 316.0806884765625
0, 5, 68, 307.7213134765625
0, 5, 69, 312.0130004882812
0, 5, 70, 303.5789184570312
0, 5, 71, 273.2606811523438
0, 5, 72, 309.3169860839844
0, 5, 73, 304.1601867675781
0, 5, 74, 296.3894348144531
0, 5, 75, 295.1587524414062
0, 5, 76, 283.9236145019531
0, 5, 77, 296.7524108886719
0, 5, 78, 314.2413024902344
0, 5, 79, 307.4883117675781
0, 5, 80, 296.4615478515625
0, 5, 81, 326.063232421875
0, 5, 82, 323.5408020019531
0, 5, 83, 280.4090881347656
0, 5, 84, 301.9754028320312
0, 5, 85, 271.0686340332031
0, 5, 86, 326.4620666503906
0, 5, 87, 284.8392944335938
0, 5, 88, 312.73388671875
0, 5, 89, 309.2549133300781
0, 5, 90, 316.0687255859375
0, 5, 91, 313.5093688964844
0, 5, 92, 297.5657043457031
0, 5, 93, 322.77197265625
0, 5, 94, 306.3522644042969
0, 5, 95, 297.2859191894531
0, 5, 96, 297.8361511230469
0, 5, 97, 295.3715209960938
0, 5, 98, 318.331787109375
0, 5, 99, 302.6824035644531
0, 5, 100, 290.8779907226562
0, 5, 101, 305.2255554199219
0, 5, 102, 292.4257507324219
0, 5, 103, 314.3534851074219
0, 5, 104, 303.1145629882812
0, 5, 105, 290.7435302734375
0, 5, 106, 280.8117065429688
0, 5, 107, 291.3637390136719
0, 5, 108, 267.1488952636719
0, 5, 109, 156.7227935791016
0, 5, 110, 39.77256393432617
0, 5, 111, 21.63676452636719
0, 5, 112, 17.17888641357422
0, 5, 113, 13.30029487609863
0, 5, 114, 12.91677856445312
0, 5, 115, 8.286038398742676
0, 5, 116, 6.473555564880371
0, 5, 117, 6.958469390869141
0, 5, 118, 11.196608543396
0, 5, 119, 4.237754821777344
0, 5, 120, 6.377100467681885
0, 5, 121, 6.487346172332764
0, 5, 122, 5.276213645935059
0, 5, 123, 3.282990217208862
0, 5, 124, 6.561395645141602
0, 5, 125, 3.607194185256958
0, 5, 126, 4.759618759155273
0, 5, 127, 2.349792242050171
0, 6, 0, 3.959788084030151
0, 6, 1, 2.865053653717041
0, 6, 2, 4.49547815322876
0, 6, 3, 5.7015700340271
0, 6, 4, 3.285843849182129
0, 6, 5, 7.519654273986816
0, 6, 6, 8.680258750915527
0, 6, 7, 4.416967868804932
0, 6, 8, 6.299980640411377
0, 6, 9, 7.54232120513916
0, 6, 10, 9.404552459716797
0, 6, 11, 7.66286563873291
0, 6, 12, 7.619551658630371
0, 6, 13, 11.35378742218018
0, 6, 14, 9.222646713256836
0, 6, 15, 18.82104301452637
0, 6, 16, 28.51429748535156
0, 6, 17, 55.04836273193359
0, 6, 18, 171.6737060546875
0, 6, 19, 276.3565673828125
0, 6, 20, 291.0955200195312
0, 6, 21, 313.2188415527344
0, 6, 22, 318.8898010253906
0, 6, 23, 307.6777038574219
0, 6, 24, 315.7348022460938
0, 6, 25, 315.2025451660156
0, 6, 26, 321.296630859375
0, 6, 27, 330.1001281738281
0, 6, 28, 294.1975708007812
0, 6, 29, 328.9777526855469
0, 6, 30, 280.166259765625
0, 6, 31, 286.2763671875
0, 6, 32, 340.284912109375
0, 6, 33, 301.8949890136719
0, 6, 34, 341.4129333496094
0, 6, 35, 321.2391967773438
0, 6, 36, 276.1992797851562
0, 6, 37, 289.4635314941406
0, 6, 38, 312.4296264648438
0, 6, 39, 298.2822265625
0, 6, 40, 283.1787414550781
0, 6, 41, 296.8200988769531
0, 6, 42, 304.5259704589844
0, 6, 43, 288.18994140625
0, 6, 44, 280.4238891601562
0, 6, 45, 321.2260131835938
0, 6, 46, 301.3330688476562
0, 6, 47, 331.6797790527344
0, 6, 48, 290.999267578125
0, 6, 49, 314.3142700195312
0, 6, 50, 329.8132019042969
0, 6, 51, 311.6205444335938
0, 6, 52, 321.3969116210938
0, 6, 53, 329.0845947265625
0, 6, 54, 303.3442077636719
0, 6, 55, 307.2248840332031
0, 6, 56, 294.5867919921875
0, 6, 57, 312.1113891601562
0, 6, 58, 262.8846130371094
0, 6, 59, 302.7337036132812
0, 6, 60, 312.2720642089844
0, 6, 61, 272.2682495117188
0, 6, 62, 335.6766662597656
0, 6, 63, 322.0391845703125
0, 6, 64, 294.8093872070312
0, 6, 65, 283.5880432128906
0, 6, 66, 303.5787048339844
0, 6, 67, 310.0858154296875
0, 6, 68, 297.6235961914062
0, 6, 69, 277.3936767578125
0, 6, 70, 274.4894104003906
0, 6, 71, 289.2245788574219
0, 6, 72, 311.1620788574219
0, 6, 73, 291.6425476074219
0, 6, 74, 329.8662109375
0, 6, 75, 345.3944396972656
0, 6, 76, 296.5812377929688
0, 6, 77, 287.2259521484375
0, 6, 78, 279.2345275878906
0, 6, 79, 294.7806091308594
0, 6, 80, 299.6991577148438
0, 6, 81, 315.3752746582031
0, 6, 82, 318.8783874511719
0, 6, 83, 321.0213317871094
0, 6, 84, 297.78466796875
0, 6, 85, 301.3006896972656
0, 6, 86, 330.6265563964844
0, 6, 87, 291.2573852539062
0, 6, 88, 307.5780944824219
0, 6, 89, 304.9436950683594
0, 6, 90, 298.8652954101562
0, 6, 91, 311.5897521972656
0, 6, 92, 286.5019836425781
0, 6, 93, 295.9704284667969
0, 6, 94, 272.7528991699219
0, 6, 95, 298.4234313964844
0, 6, 96, 349.8714599609375
0, 6, 97, 308.2962341308594
0, 6, 98, 301.1726684570312
0, 6, 99, 274.6695251464844
0, 6, 100, 312.0380859375
0, 6, 101, 293.9524230957031
0, 6, 102, 307.5938110351562
0, 6, 103, 306.561767578125
0, 6, 104, 291.9685363769531
0, 6, 105, 300.167724609375
0, 6, 106, 308.404296875
0, 6, 107, 304.6622314453125
0, 6, 108, 265.7853393554688
0, 6, 109, 186.4138641357422
0, 6, 110, 54.79708099365234
0, 6, 111, 21.99695587158203
0, 6, 112, 15.05943775177002
0, 6, 113, 11.42451477050781
0, 6, 114, 11.91369247436523
0, 6, 115, 11.88861656188965
0, 6, 116, 8.178072929382324
0, 6, 117, 7.867598056793213
0, 6, 118, 8.395622253417969
0, 6, 119, 14.51421546936035
0, 6, 120, 6.287474155426025
0, 6, 121, 6.400852203369141
0, 6, 122, 6.642831802368164
0, 6, 123, 4.624167442321777
0, 6, 124, 6.300390720367432
0, 6, 125, 7.770320415496826
0, 6, 126, 5.084134578704834
0, 6, 127, 7.761209964752197
0, 7, 0, 5.214381694793701
0, 7, 1, 3.507933616638184
0, 7, 2, 5.211322784423828
0, 7, 3, 6.126246929168701
0, 7, 4, 5.392746925354004
0, 7, 5, 3.616906404495239
0, 7, 6, 4.574949264526367
0, 7, 7, 4.455600738525391
0, 7, 8, 6.091878890991211
0, 7, 9, 12.19660949707031
0, 7, 10, 10.35836696624756
0, 7, 11, 13.29922008514404
0, 7, 12, 11.07504272460938
0, 7, 13, 11.4180326461792
0, 7, 14, 12.4537525177002
0, 7, 15, 17.84812355041504
0, 7, 16, 26.79748153686523
0, 7, 17, 99.843017578125
0, 7, 18, 219.3086547851562
0, 7, 19, 290.3660888671875
0, 7, 20, 295.3730163574219
0, 7, 21, 275.616943359375
0, 7, 22, 298.7570190429688
0, 7, 23, 290.627685546875
0, 7, 24, 312.4027709960938
0, 7, 25, 324.8639526367188
0, 7, 26, 277.070556640625
0, 7, 27, 297.3264465332031
0, 7, 28, 328.1882629394531
0, 7, 29, 317.3996276855469
0, 7, 30, 301.1177368164062
0, 7, 31, 276.3469543457031
0, 7, 32, 303.4290161132812
0, 7, 33, 262.6635437011719
0, 7, 34, 297.3973999023438
0, 7, 35, 317.8281555175781
0, 7, 36, 332.3364868164062
0, 7, 37, 326.0687561035156
0, 7, 38, 296.2378234863281
0, 7, 39, 306.24365234375
0, 7, 40, 290.1017150878906
0, 7, 41, 271.1842041015625
0, 7, 42, 301.0578308105469
0, 7, 43, 277.7089233398438
0, 7, 44, 304.1921691894531
0, 7, 45, 295.8431396484375
0, 7, 46, 282.6553344726562
0, 7, 47, 326.93359375
0, 7, 48, 287.0041198730469
0, 7, 49, 300.5869140625
0, 7, 50, 321.4638366699219
0, 7, 51, 298.7131042480469
0, 7, 52, 324.6583862304688
0, 7, 53, 308.3954772949219
0, 7, 54, 323.3670349121094
0, 7, 55, 306.4096069335938
0, 7, 56, 279.4359130859375
0, 7, 57, 281.2622985839844
0, 7, 58, 299.58642578125
0, 7, 59, 291.8689270019531
0, 7, 60, 322.8291625976562
0, 7, 61, 278.0514526367188
0, 7, 62, 298.8724670410156
0, 7, 63, 295.3123779296875
0, 7, 64, 308.5548400878906
0, 7, 65, 332.4570007324219
0, 7, 66, 321.4798583984375
0, 7, 67, 300.7572021484375
0, 7, 68, 279.6871643066406
0, 7, 69, 293.894287109375
0, 7, 70, 300.4665832519531
0, 7, 71, 309.8085021972656
0, 7, 72, 286.4792785644531
0, 7, 73, 294.8541259765625
0, 7, 74, 343.5474853515625
0, 7, 75, 320.3984985351562
0, 7, 76, 324.8819885253906
0, 7, 77, 283.1023254394531
0, 7, 78, 299.2454833984375
0, 7, 79, 296.6725463867188
0, 7, 80, 311.9710693359375
0, 7, 81, 321.6943664550781
0, 7, 82, 331.1774597167969
0, 7, 83, 317.2976379394531
0, 7, 84, 311.4662780761719
0, 7, 85, 271.6303405761719
0, 7, 86, 310.3120422363281
0, 7, 87, 310.3670043945312
0, 7, 88, 307.0999450683594
0, 7, 89, 293.5363464355469
0, 7, 90, 308.46875
0, 7, 91, 315.6773376464844
0, 7, 92, 290.797607421875
0, 7, 93, 307.6045227050781
0, 7, 94, 272.8164367675781
0, 7, 95, 295.9813842773438
0, 7, 96, 331.0293884277344
0, 7, 97, 296.2246704101562
0, 7, 98, 290.0987243652344
0, 7, 99, 312.070068359375
0, 7, 100, 282.1906127929688
0, 7, 101, 274.6167602539062
0, 7, 102, 290.5454406738281
0, 7, 103, 292.9473876953125
0, 7, 104, 274.7036743164062
0, 7, 105, 305.1773071289062
0, 7, 106, 319.1912841796875
0, 7, 107, 300.0267639160156
0, 7, 108, 273.3690490722656
0, 7, 109, 236.8835144042969
0, 7, 110, 95.67932891845703
0, 7, 111, 24.03628349304199
0, 7, 112, 12.85119438171387
0, 7, 113, 14.99171161651611
0, 7, 114, 13.72806453704834
0, 7, 115, 13.32606506347656
0, 7, 116, 10.56809997558594
0, 7, 117, 8.49644947052002
0, 7, 118, 6.989627361297607
0, 7, 119, 4.696927070617676
0, 7, 120, 6.925626277923584
0, 7, 121, 6.562558174133301
0, 7, 122, 6.487344264984131
0, 7, 123, 4.32017707824707
0, 7, 124, 3.946578025817871
0, 7, 125, 5.643683910369873
0, 7, 126, 7.784309387207031
0, 7, 127, 5.205959796905518
0, 8, 0, 8.204891204833984
0, 8, 1, 3.289398431777954
0, 8, 2, 3.201843976974487
0, 8, 3, 3.515571117401123
0, 8, 4, 3.620102643966675
0, 8, 5, 5.020985126495361
0, 8, 6, 6.288617610931396
0, 8, 7, 5.466417789459229
0, 8, 8, 8.151634216308594
0, 8, 9, 6.983054637908936
0, 8, 10, 7.051537990570068
0, 8, 11, 12.74296379089355
0, 8, 12, 14.67483043670654
0, 8, 13, 17.3880558013916
0, 8, 14, 15.46110248565674
0, 8, 15, 18.29994773864746
0, 8, 16, 32.86513519287109
0, 8, 17, 130.0360717773438
0, 8, 18, 244.5391540527344
0, 8, 19, 298.58349609375
0, 8, 20, 284.8785400390625
0, 8, 21, 305.69677734375
0, 8, 22, 294.7144470214844
0, 8, 23, 274.2565307617188
0, 8, 24, 267.8013916015625
0, 8, 25, 275.754150390625
0, 8, 26, 306.5774536132812
0, 8, 27, 306.6250610351562
0, 8, 28, 303.9145812988281
0, 8, 29, 320.2041320800781
0, 8, 30, 315.4369201660156
0, 8, 31, 305.5338134765625
0, 8, 32, 280.7001037597656
0, 8, 33, 297.181884765625
0, 8, 34, 288.0551452636719
0, 8, 35, 279.2845764160156
0, 8, 36, 314.4280090332031
0, 8, 37, 337.8897705078125
0, 8, 38, 332.1621398925781
0, 8, 39, 280.7522583007812
0, 8, 40, 304.341552734375
