# TOPAS Version: 3.1.p3
# Parameter File: batch_inserts_40.txt
# Results for scorer Readout_Adipose
# Scored in component: MyBox
# X in 1 bin  of 0.75 cm
# Y in 512 bins of 0.0783984 cm
# Z in 128 bins of 0.078125 cm
# EnergyDeposit ( MeV ) : Sum   
0, 0, 0, 19.21542549133301
0, 0, 1, 19.42801856994629
0, 0, 2, 27.83563613891602
0, 0, 3, 23.91642189025879
0, 0, 4, 21.69326591491699
0, 0, 5, 25.05888366699219
0, 0, 6, 29.39335441589355
0, 0, 7, 33.9171142578125
0, 0, 8, 24.24541473388672
0, 0, 9, 24.47273063659668
0, 0, 10, 26.39163017272949
0, 0, 11, 24.46642303466797
0, 0, 12, 33.11639785766602
0, 0, 13, 33.56044769287109
0, 0, 14, 34.90580368041992
0, 0, 15, 49.69620513916016
0, 0, 16, 49.15040969848633
0, 0, 17, 44.30102920532227
0, 0, 18, 73.79070281982422
0, 0, 19, 189.9331207275391
0, 0, 20, 700.942626953125
0, 0, 21, 1189.182373046875
0, 0, 22, 1247.4072265625
0, 0, 23, 1272.325927734375
0, 0, 24, 1281.528076171875
0, 0, 25, 1356.06640625
0, 0, 26, 1272.886474609375
0, 0, 27, 1282.424438476562
0, 0, 28, 1322.397705078125
0, 0, 29, 1272.127075195312
0, 0, 30, 1263.090087890625
0, 0, 31, 1280.226684570312
0, 0, 32, 1268.47216796875
0, 0, 33, 1246.115966796875
0, 0, 34, 1326.1162109375
0, 0, 35, 1297.769287109375
0, 0, 36, 1246.35986328125
0, 0, 37, 1278.837646484375
0, 0, 38, 1247.149658203125
0, 0, 39, 1241.013549804688
0, 0, 40, 1222.362548828125
0, 0, 41, 1268.390380859375
0, 0, 42, 1257.364013671875
0, 0, 43, 1268.864990234375
0, 0, 44, 1226.892211914062
0, 0, 45, 1289.603271484375
0, 0, 46, 1265.004272460938
0, 0, 47, 1238.683837890625
0, 0, 48, 1278.471435546875
0, 0, 49, 1286.727416992188
0, 0, 50, 1310.817749023438
0, 0, 51, 1266.024780273438
0, 0, 52, 1360.812866210938
0, 0, 53, 1331.319946289062
0, 0, 54, 1303.94970703125
0, 0, 55, 1232.875122070312
0, 0, 56, 1317.8642578125
0, 0, 57, 1294.564819335938
0, 0, 58, 1251.1845703125
0, 0, 59, 1332.150390625
0, 0, 60, 1325.738403320312
0, 0, 61, 1261.834716796875
0, 0, 62, 1240.119140625
0, 0, 63, 1275.21826171875
0, 0, 64, 1328.609008789062
0, 0, 65, 1283.229125976562
0, 0, 66, 1315.871704101562
0, 0, 67, 1217.422973632812
0, 0, 68, 1311.812377929688
0, 0, 69, 1325.162719726562
0, 0, 70, 1342.281494140625
0, 0, 71, 1288.947631835938
0, 0, 72, 1314.024536132812
0, 0, 73, 1238.633666992188
0, 0, 74, 1290.493774414062
0, 0, 75, 1300.616943359375
0, 0, 76, 1256.916381835938
0, 0, 77, 1282.818115234375
0, 0, 78, 1313.787963867188
0, 0, 79, 1325.566772460938
0, 0, 80, 1264.747924804688
0, 0, 81, 1324.071044921875
0, 0, 82, 1285.292846679688
0, 0, 83, 1294.678344726562
0, 0, 84, 1326.191650390625
0, 0, 85, 1231.8134765625
0, 0, 86, 1268.072021484375
0, 0, 87, 1249.34228515625
0, 0, 88, 1254.69873046875
0, 0, 89, 1333.914672851562
0, 0, 90, 1279.15576171875
0, 0, 91, 1358.942749023438
0, 0, 92, 1299.9013671875
0, 0, 93, 1273.974243164062
0, 0, 94, 1240.734008789062
0, 0, 95, 1328.717529296875
0, 0, 96, 1281.160400390625
0, 0, 97, 1326.312255859375
0, 0, 98, 1253.072509765625
0, 0, 99, 1253.832641601562
0, 0, 100, 1285.932250976562
0, 0, 101, 1313.413696289062
0, 0, 102, 1237.787841796875
0, 0, 103, 1320.018798828125
0, 0, 104, 1264.203735351562
0, 0, 105, 1269.353759765625
0, 0, 106, 1207.763305664062
0, 0, 107, 780.0121459960938
0, 0, 108, 198.5282440185547
0, 0, 109, 68.51853942871094
0, 0, 110, 64.45532989501953
0, 0, 111, 36.85628509521484
0, 0, 112, 36.31529998779297
0, 0, 113, 34.37473678588867
0, 0, 114, 35.26607131958008
0, 0, 115, 29.81399917602539
0, 0, 116, 28.07063674926758
0, 0, 117, 31.45406532287598
0, 0, 118, 23.47741317749023
0, 0, 119, 20.35835075378418
0, 0, 120, 23.92531967163086
0, 0, 121, 28.92516899108887
0, 0, 122, 22.86231994628906
0, 0, 123, 14.94860935211182
0, 0, 124, 18.89730834960938
0, 0, 125, 23.12807655334473
0, 0, 126, 24.5222225189209
0, 0, 127, 16.69901657104492
0, 1, 0, 23.27151489257812
0, 1, 1, 23.04957580566406
0, 1, 2, 22.32764053344727
0, 1, 3, 19.90848731994629
0, 1, 4, 23.33432579040527
0, 1, 5, 23.77546882629395
0, 1, 6, 23.9816837310791
0, 1, 7, 28.15674209594727
0, 1, 8, 31.74151992797852
0, 1, 9, 34.25385665893555
0, 1, 10, 34.93739700317383
0, 1, 11, 41.85703659057617
0, 1, 12, 41.09616088867188
0, 1, 13, 44.50771713256836
0, 1, 14, 40.99263000488281
0, 1, 15, 48.0288200378418
0, 1, 16, 57.82679748535156
0, 1, 17, 57.70733642578125
0, 1, 18, 94.90716552734375
0, 1, 19, 397.9397583007812
0, 1, 20, 1038.63671875
0, 1, 21, 1374.43408203125
0, 1, 22, 1477.618896484375
0, 1, 23, 1461.53173828125
0, 1, 24, 1448.900390625
0, 1, 25, 1419.960083007812
0, 1, 26, 1473.91357421875
0, 1, 27, 1461.5361328125
0, 1, 28, 1489.290649414062
0, 1, 29, 1472.94677734375
0, 1, 30, 1505.97216796875
0, 1, 31, 1484.374267578125
0, 1, 32, 1412.0546875
0, 1, 33, 1499.948852539062
0, 1, 34, 1501.936157226562
0, 1, 35, 1464.206420898438
0, 1, 36, 1489.947387695312
0, 1, 37, 1409.10888671875
0, 1, 38, 1397.623291015625
0, 1, 39, 1524.489135742188
0, 1, 40, 1462.435424804688
0, 1, 41, 1485.869506835938
0, 1, 42, 1493.478759765625
0, 1, 43, 1503.016235351562
0, 1, 44, 1448.78173828125
0, 1, 45, 1488.083618164062
0, 1, 46, 1421.105712890625
0, 1, 47, 1437.755859375
0, 1, 48, 1425.635009765625
0, 1, 49, 1490.249145507812
0, 1, 50, 1447.284912109375
0, 1, 51, 1477.843383789062
0, 1, 52, 1476.0400390625
0, 1, 53, 1475.569213867188
0, 1, 54, 1507.247802734375
0, 1, 55, 1495.113647460938
0, 1, 56, 1469.285278320312
0, 1, 57, 1457.3916015625
0, 1, 58, 1431.715454101562
0, 1, 59, 1485.623291015625
0, 1, 60, 1462.168212890625
0, 1, 61, 1448.160278320312
0, 1, 62, 1457.881469726562
0, 1, 63, 1419.923583984375
0, 1, 64, 1478.66064453125
0, 1, 65, 1417.200317382812
0, 1, 66, 1438.4375
0, 1, 67, 1458.606689453125
0, 1, 68, 1389.414916992188
0, 1, 69, 1464.09326171875
0, 1, 70, 1433.105590820312
0, 1, 71, 1495.289306640625
0, 1, 72, 1437.3310546875
0, 1, 73, 1489.454711914062
0, 1, 74, 1473.215942382812
0, 1, 75, 1478.720825195312
0, 1, 76, 1459.274780273438
0, 1, 77, 1467.611572265625
0, 1, 78, 1452.346069335938
0, 1, 79, 1504.929077148438
0, 1, 80, 1447.705932617188
0, 1, 81, 1422.435424804688
0, 1, 82, 1472.076171875
0, 1, 83, 1460.037109375
0, 1, 84, 1535.146240234375
0, 1, 85, 1448.967407226562
0, 1, 86, 1402.4609375
0, 1, 87, 1425.478271484375
0, 1, 88, 1471.511108398438
0, 1, 89, 1474.828857421875
0, 1, 90, 1425.439819335938
0, 1, 91, 1458.175415039062
0, 1, 92, 1416.720825195312
0, 1, 93, 1463.491455078125
0, 1, 94, 1468.129150390625
0, 1, 95, 1421.41357421875
0, 1, 96, 1499.430419921875
0, 1, 97, 1518.234497070312
0, 1, 98, 1476.732177734375
0, 1, 99, 1415.989135742188
0, 1, 100, 1445.045532226562
0, 1, 101, 1414.128295898438
0, 1, 102, 1442.048583984375
0, 1, 103, 1412.111206054688
0, 1, 104, 1404.955932617188
0, 1, 105, 1462.5068359375
0, 1, 106, 1364.47412109375
0, 1, 107, 1020.169372558594
0, 1, 108, 404.0157775878906
0, 1, 109, 89.83810424804688
0, 1, 110, 66.21949005126953
0, 1, 111, 56.09392929077148
0, 1, 112, 44.71977996826172
0, 1, 113, 37.82233047485352
0, 1, 114, 37.71096420288086
0, 1, 115, 38.57413482666016
0, 1, 116, 36.98300933837891
0, 1, 117, 35.06325149536133
0, 1, 118, 36.90745544433594
0, 1, 119, 33.67502212524414
0, 1, 120, 28.96438217163086
0, 1, 121, 28.60225677490234
0, 1, 122, 21.93579292297363
0, 1, 123, 24.07970428466797
0, 1, 124, 30.34654426574707
0, 1, 125, 18.5107364654541
0, 1, 126, 19.60868644714355
0, 1, 127, 23.37567520141602
0, 2, 0, 22.99658584594727
0, 2, 1, 18.55501174926758
0, 2, 2, 27.45412826538086
0, 2, 3, 19.572021484375
0, 2, 4, 22.1377067565918
0, 2, 5, 26.05508804321289
0, 2, 6, 25.493408203125
0, 2, 7, 20.38737487792969
0, 2, 8, 28.79790687561035
0, 2, 9, 27.0460033416748
0, 2, 10, 30.53785133361816
0, 2, 11, 36.48300552368164
0, 2, 12, 44.63435363769531
0, 2, 13, 44.01360702514648
0, 2, 14, 42.51396179199219
0, 2, 15, 53.09680938720703
0, 2, 16, 57.52348327636719
0, 2, 17, 76.42555236816406
0, 2, 18, 144.4741363525391
0, 2, 19, 607.6766357421875
0, 2, 20, 1283.094604492188
0, 2, 21, 1432.226318359375
0, 2, 22, 1455.666259765625
0, 2, 23, 1409.875732421875
0, 2, 24, 1435.208129882812
0, 2, 25, 1520.345336914062
0, 2, 26, 1553.877563476562
0, 2, 27, 1453.311279296875
0, 2, 28, 1458.071166992188
0, 2, 29, 1461.010375976562
0, 2, 30, 1465.027221679688
0, 2, 31, 1536.55322265625
0, 2, 32, 1511.649169921875
0, 2, 33, 1444.688110351562
0, 2, 34, 1474.496826171875
0, 2, 35, 1469.810791015625
0, 2, 36, 1524.860717773438
0, 2, 37, 1539.615356445312
0, 2, 38, 1505.304809570312
0, 2, 39, 1466.40380859375
0, 2, 40, 1502.64599609375
0, 2, 41, 1515.817504882812
0, 2, 42, 1504.734130859375
0, 2, 43, 1551.312255859375
0, 2, 44, 1457.526611328125
0, 2, 45, 1481.409423828125
0, 2, 46, 1426.773681640625
0, 2, 47, 1445.750732421875
0, 2, 48, 1398.3583984375
0, 2, 49, 1461.35546875
0, 2, 50, 1446.100708007812
0, 2, 51, 1446.514282226562
0, 2, 52, 1488.379028320312
0, 2, 53, 1522.94775390625
0, 2, 54, 1526.76416015625
0, 2, 55, 1492.114868164062
0, 2, 56, 1459.326049804688
0, 2, 57, 1414.197387695312
0, 2, 58, 1452.067749023438
0, 2, 59, 1444.284057617188
0, 2, 60, 1474.289306640625
0, 2, 61, 1447.459716796875
0, 2, 62, 1472.389526367188
0, 2, 63, 1508.55224609375
0, 2, 64, 1461.2822265625
0, 2, 65, 1424.614624023438
0, 2, 66, 1485.489990234375
0, 2, 67, 1504.11474609375
0, 2, 68, 1543.658813476562
0, 2, 69, 1535.909057617188
0, 2, 70, 1509.360229492188
0, 2, 71, 1466.589721679688
0, 2, 72, 1515.542846679688
0, 2, 73, 1520.462768554688
0, 2, 74, 1488.556030273438
0, 2, 75, 1502.776611328125
0, 2, 76, 1448.729125976562
0, 2, 77, 1506.918823242188
0, 2, 78, 1426.585815429688
0, 2, 79, 1538.109741210938
0, 2, 80, 1475.496948242188
0, 2, 81, 1464.570434570312
0, 2, 82, 1556.731689453125
0, 2, 83, 1515.041625976562
0, 2, 84, 1489.684936523438
0, 2, 85, 1513.610229492188
0, 2, 86, 1540.165893554688
0, 2, 87, 1485.534545898438
0, 2, 88, 1536.933349609375
0, 2, 89, 1462.12255859375
0, 2, 90, 1429.204833984375
0, 2, 91, 1408.031005859375
0, 2, 92, 1478.300170898438
0, 2, 93, 1494.93603515625
0, 2, 94, 1452.234252929688
0, 2, 95, 1543.429443359375
0, 2, 96, 1516.691162109375
0, 2, 97, 1453.378173828125
0, 2, 98, 1466.719970703125
0, 2, 99, 1402.684448242188
0, 2, 100, 1472.381103515625
0, 2, 101, 1478.949340820312
0, 2, 102, 1469.272705078125
0, 2, 103, 1388.817504882812
0, 2, 104, 1408.387084960938
0, 2, 105, 1394.712036132812
0, 2, 106, 1460.470703125
0, 2, 107, 1274.576171875
0, 2, 108, 621.8573608398438
0, 2, 109, 169.4990844726562
0, 2, 110, 65.50006103515625
0, 2, 111, 63.82952117919922
0, 2, 112, 46.64815521240234
0, 2, 113, 46.5046501159668
0, 2, 114, 40.51789855957031
0, 2, 115, 44.91012573242188
0, 2, 116, 32.46686935424805
0, 2, 117, 28.99228477478027
0, 2, 118, 30.99268341064453
0, 2, 119, 31.19933128356934
0, 2, 120, 30.51950073242188
0, 2, 121, 16.19002914428711
0, 2, 122, 27.1379451751709
0, 2, 123, 21.33965873718262
0, 2, 124, 24.31348037719727
0, 2, 125, 28.10124588012695
0, 2, 126, 21.56406784057617
0, 2, 127, 19.97396850585938
0, 3, 0, 17.12889099121094
0, 3, 1, 24.78765487670898
0, 3, 2, 22.46780776977539
0, 3, 3, 18.03878784179688
0, 3, 4, 17.86652755737305
0, 3, 5, 26.5548267364502
0, 3, 6, 32.29935455322266
0, 3, 7, 31.07528686523438
0, 3, 8, 29.65790748596191
0, 3, 9, 29.05783081054688
0, 3, 10, 34.8882942199707
0, 3, 11, 34.20086288452148
0, 3, 12, 47.23355865478516
0, 3, 13, 50.02665710449219
0, 3, 14, 55.97366714477539
0, 3, 15, 53.4109992980957
0, 3, 16, 64.56981658935547
0, 3, 17, 93.78669738769531
0, 3, 18, 245.0358123779297
0, 3, 19, 881.9580078125
0, 3, 20, 1386.35791015625
0, 3, 21, 1506.059448242188
0, 3, 22, 1462.712158203125
0, 3, 23, 1447.778076171875
0, 3, 24, 1436.88427734375
0, 3, 25, 1462.989135742188
0, 3, 26, 1498.664184570312
0, 3, 27, 1466.5615234375
0, 3, 28, 1486.072143554688
0, 3, 29, 1544.494995117188
0, 3, 30, 1566.737548828125
0, 3, 31, 1512.700439453125
0, 3, 32, 1547.068481445312
0, 3, 33, 1545.153076171875
0, 3, 34, 1483.393920898438
0, 3, 35, 1466.06982421875
0, 3, 36, 1451.40478515625
0, 3, 37, 1521.399658203125
0, 3, 38, 1513.695556640625
0, 3, 39, 1432.890991210938
0, 3, 40, 1444.966674804688
0, 3, 41, 1562.663452148438
0, 3, 42, 1462.511108398438
0, 3, 43, 1453.4384765625
0, 3, 44, 1455.193481445312
0, 3, 45, 1511.024658203125
0, 3, 46, 1506.380493164062
0, 3, 47, 1443.8251953125
0, 3, 48, 1506.9951171875
0, 3, 49, 1452.719970703125
0, 3, 50, 1491.8916015625
0, 3, 51, 1534.87841796875
0, 3, 52, 1537.3818359375
0, 3, 53, 1465.463623046875
0, 3, 54, 1534.971435546875
0, 3, 55, 1508.341796875
0, 3, 56, 1434.161254882812
0, 3, 57, 1503.129638671875
0, 3, 58, 1511.496215820312
0, 3, 59, 1512.128662109375
0, 3, 60, 1531.740966796875
0, 3, 61, 1486.167236328125
0, 3, 62, 1494.241333007812
0, 3, 63, 1495.960205078125
0, 3, 64, 1497.572265625
0, 3, 65, 1517.846313476562
0, 3, 66, 1565.579956054688
0, 3, 67, 1546.357788085938
0, 3, 68, 1449.68115234375
0, 3, 69, 1464.634643554688
0, 3, 70, 1384.9560546875
0, 3, 71, 1459.582153320312
0, 3, 72, 1552.5927734375
0, 3, 73, 1502.531127929688
0, 3, 74, 1462.056274414062
0, 3, 75, 1457.608764648438
0, 3, 76, 1573.578002929688
0, 3, 77, 1544.096801757812
0, 3, 78, 1426.410766601562
0, 3, 79, 1495.031982421875
0, 3, 80, 1466.134155273438
0, 3, 81, 1473.165405273438
0, 3, 82, 1557.59814453125
0, 3, 83, 1513.949584960938
0, 3, 84, 1564.068725585938
0, 3, 85, 1481.272827148438
0, 3, 86, 1528.891967773438
0, 3, 87, 1541.92626953125
0, 3, 88, 1457.715698242188
0, 3, 89, 1448.930908203125
0, 3, 90, 1447.983032226562
0, 3, 91, 1419.539306640625
0, 3, 92, 1513.560913085938
0, 3, 93, 1499.5810546875
0, 3, 94, 1513.643188476562
0, 3, 95, 1542.139282226562
0, 3, 96, 1515.03125
0, 3, 97, 1462.700073242188
0, 3, 98, 1434.580810546875
0, 3, 99, 1464.430297851562
0, 3, 100, 1471.876708984375
0, 3, 101, 1473.906860351562
0, 3, 102, 1522.843872070312
0, 3, 103, 1557.489624023438
0, 3, 104, 1497.149658203125
0, 3, 105, 1518.5283203125
0, 3, 106, 1477.80419921875
0, 3, 107, 1342.26806640625
0, 3, 108, 873.7213745117188
0, 3, 109, 262.8463134765625
0, 3, 110, 101.2652282714844
0, 3, 111, 61.53093338012695
0, 3, 112, 59.13999176025391
0, 3, 113, 47.62334060668945
0, 3, 114, 46.30668640136719
0, 3, 115, 52.63800430297852
0, 3, 116, 39.15851974487305
0, 3, 117, 40.2206916809082
0, 3, 118, 35.94302368164062
0, 3, 119, 31.34486961364746
0, 3, 120, 25.5693531036377
0, 3, 121, 22.3638916015625
0, 3, 122, 23.29439163208008
0, 3, 123, 23.75287055969238
0, 3, 124, 23.21565055847168
0, 3, 125, 28.38275527954102
0, 3, 126, 27.98457908630371
0, 3, 127, 17.08333015441895
0, 4, 0, 18.45190048217773
0, 4, 1, 21.06617546081543
0, 4, 2, 18.10477066040039
0, 4, 3, 21.70193290710449
0, 4, 4, 23.23548126220703
0, 4, 5, 28.56600761413574
0, 4, 6, 28.50844383239746
0, 4, 7, 36.54262161254883
0, 4, 8, 31.30851745605469
0, 4, 9, 30.94179534912109
0, 4, 10, 28.0934886932373
0, 4, 11, 42.20374298095703
0, 4, 12, 43.59163665771484
0, 4, 13, 54.02385330200195
0, 4, 14, 52.24290084838867
0, 4, 15, 63.79668045043945
0, 4, 16, 71.54357147216797
0, 4, 17, 120.3654861450195
0, 4, 18, 441.3092041015625
0, 4, 19, 1178.895385742188
0, 4, 20, 1443.670654296875
0, 4, 21, 1425.21875
0, 4, 22, 1437.06982421875
0, 4, 23, 1451.275024414062
0, 4, 24, 1472.782470703125
0, 4, 25, 1408.660888671875
0, 4, 26, 1536.343627929688
0, 4, 27, 1544.904174804688
0, 4, 28, 1501.423706054688
0, 4, 29, 1514.064331054688
0, 4, 30, 1522.619750976562
0, 4, 31, 1569.246948242188
0, 4, 32, 1515.862060546875
0, 4, 33, 1493.136596679688
0, 4, 34, 1471.05615234375
0, 4, 35, 1563.585205078125
0, 4, 36, 1502.059326171875
0, 4, 37, 1509.865844726562
0, 4, 38, 1529.521362304688
0, 4, 39, 1468.573486328125
0, 4, 40, 1512.424194335938
0, 4, 41, 1590.281860351562
0, 4, 42, 1560.996337890625
0, 4, 43, 1478.035034179688
0, 4, 44, 1501.241577148438
0, 4, 45, 1520.899291992188
0, 4, 46, 1474.52392578125
0, 4, 47, 1503.533935546875
0, 4, 48, 1526.57763671875
0, 4, 49, 1469.66748046875
0, 4, 50, 1524.014892578125
0, 4, 51, 1493.063354492188
0, 4, 52, 1490.761108398438
0, 4, 53, 1455.619750976562
0, 4, 54, 1440.234252929688
0, 4, 55, 1522.883422851562
0, 4, 56, 1452.602416992188
0, 4, 57, 1492.764892578125
0, 4, 58, 1464.899780273438
0, 4, 59, 1461.835205078125
0, 4, 60, 1524.64501953125
0, 4, 61, 1499.402465820312
0, 4, 62, 1506.376831054688
0, 4, 63, 1544.843994140625
0, 4, 64, 1589.227416992188
0, 4, 65, 1420.091552734375
0, 4, 66, 1511.560302734375
0, 4, 67, 1518.408813476562
0, 4, 68, 1495.182861328125
0, 4, 69, 1467.810791015625
0, 4, 70, 1548.749755859375
0, 4, 71, 1515.448364257812
0, 4, 72, 1528.1650390625
0, 4, 73, 1493.069580078125
0, 4, 74, 1483.624145507812
0, 4, 75, 1539.794311523438
0, 4, 76, 1477.039916992188
0, 4, 77, 1498.749633789062
0, 4, 78, 1503.796142578125
0, 4, 79, 1483.712524414062
0, 4, 80, 1516.330810546875
0, 4, 81, 1521.042724609375
0, 4, 82, 1569.539916992188
0, 4, 83, 1507.21875
0, 4, 84, 1538.8544921875
0, 4, 85, 1552.0712890625
0, 4, 86, 1527.35888671875
0, 4, 87, 1494.668334960938
0, 4, 88, 1514.061889648438
0, 4, 89, 1483.551513671875
0, 4, 90, 1548.897827148438
0, 4, 91, 1554.843872070312
0, 4, 92, 1490.811645507812
0, 4, 93, 1511.266479492188
0, 4, 94, 1483.685791015625
0, 4, 95, 1514.213500976562
0, 4, 96, 1444.876342773438
0, 4, 97, 1403.7431640625
0, 4, 98, 1553.011962890625
0, 4, 99, 1516.726928710938
0, 4, 100, 1488.916381835938
0, 4, 101, 1450.59619140625
0, 4, 102, 1445.844116210938
0, 4, 103, 1518.024169921875
0, 4, 104, 1505.378784179688
0, 4, 105, 1554.47119140625
0, 4, 106, 1474.079833984375
0, 4, 107, 1452.459838867188
0, 4, 108, 1117.200439453125
0, 4, 109, 433.3346252441406
0, 4, 110, 96.67857360839844
0, 4, 111, 69.84159851074219
0, 4, 112, 58.45339202880859
0, 4, 113, 47.85211563110352
0, 4, 114, 50.84989166259766
0, 4, 115, 43.13467407226562
0, 4, 116, 36.54285049438477
0, 4, 117, 44.23070907592773
0, 4, 118, 36.88339614868164
0, 4, 119, 37.52419281005859
0, 4, 120, 39.38906478881836
0, 4, 121, 31.53865432739258
0, 4, 122, 26.43311500549316
0, 4, 123, 30.32294654846191
0, 4, 124, 27.38492965698242
0, 4, 125, 31.4475269317627
0, 4, 126, 20.66315078735352
0, 4, 127, 16.58150291442871
0, 5, 0, 23.26985931396484
0, 5, 1, 24.23847579956055
0, 5, 2, 37.5782356262207
0, 5, 3, 23.89859390258789
0, 5, 4, 24.60516929626465
0, 5, 5, 35.58335113525391
0, 5, 6, 29.42480850219727
0, 5, 7, 25.41513252258301
0, 5, 8, 29.65561866760254
0, 5, 9, 29.16318130493164
0, 5, 10, 31.29563140869141
0, 5, 11, 36.50375747680664
0, 5, 12, 43.4350471496582
0, 5, 13, 44.15468215942383
0, 5, 14, 61.6593132019043
0, 5, 15, 73.97767639160156
0, 5, 16, 83.18306732177734
0, 5, 17, 158.5668792724609
0, 5, 18, 673.8526611328125
0, 5, 19, 1351.9345703125
0, 5, 20, 1526.048828125
0, 5, 21, 1494.118041992188
0, 5, 22, 1501.189819335938
0, 5, 23, 1529.947265625
0, 5, 24, 1466.330200195312
0, 5, 25, 1427.199096679688
0, 5, 26, 1530.095458984375
0, 5, 27, 1543.812255859375
0, 5, 28, 1488.03564453125
0, 5, 29, 1520.967895507812
0, 5, 30, 1496.955200195312
0, 5, 31, 1499.76513671875
0, 5, 32, 1597.723999023438
0, 5, 33, 1499.061157226562
0, 5, 34, 1486.841064453125
0, 5, 35, 1507.608032226562
0, 5, 36, 1441.027221679688
0, 5, 37, 1530.257080078125
0, 5, 38, 1548.592407226562
0, 5, 39, 1544.804931640625
0, 5, 40, 1498.102661132812
0, 5, 41, 1478.828857421875
0, 5, 42, 1541.968505859375
0, 5, 43, 1533.207641601562
0, 5, 44, 1545.741943359375
0, 5, 45, 1512.610473632812
0, 5, 46, 1494.643676757812
0, 5, 47, 1482.35546875
0, 5, 48, 1498.401733398438
0, 5, 49, 1519.043701171875
0, 5, 50, 1498.836791992188
0, 5, 51, 1520.05419921875
0, 5, 52, 1430.740600585938
0, 5, 53, 1524.168090820312
0, 5, 54, 1518.674682617188
0, 5, 55, 1525.364379882812
0, 5, 56, 1489.9658203125
0, 5, 57, 1539.123413085938
0, 5, 58, 1507.549560546875
0, 5, 59, 1489.501586914062
0, 5, 60, 1537.4765625
0, 5, 61, 1450.560546875
0, 5, 62, 1580.18212890625
0, 5, 63, 1436.453857421875
0, 5, 64, 1487.704345703125
0, 5, 65, 1465.847778320312
0, 5, 66, 1526.932739257812
0, 5, 67, 1561.440673828125
0, 5, 68, 1460.008911132812
0, 5, 69, 1478.652221679688
0, 5, 70, 1491.92431640625
0, 5, 71, 1473.751342773438
0, 5, 72, 1541.008911132812
0, 5, 73, 1460.786010742188
0, 5, 74, 1491.447875976562
0, 5, 75, 1490.86328125
0, 5, 76, 1476.283813476562
0, 5, 77, 1518.824829101562
0, 5, 78, 1525.510009765625
0, 5, 79, 1509.062866210938
0, 5, 80, 1519.34326171875
0, 5, 81, 1591.18310546875
0, 5, 82, 1526.644165039062
0, 5, 83, 1489.508178710938
0, 5, 84, 1533.560424804688
0, 5, 85, 1512.58349609375
0, 5, 86, 1553.478393554688
0, 5, 87, 1471.90185546875
0, 5, 88, 1497.58349609375
0, 5, 89, 1480.657592773438
0, 5, 90, 1482.286865234375
0, 5, 91, 1549.185424804688
0, 5, 92, 1483.509765625
0, 5, 93, 1557.554077148438
0, 5, 94, 1515.498657226562
0, 5, 95, 1563.202758789062
0, 5, 96, 1505.648559570312
0, 5, 97, 1513.137451171875
0, 5, 98, 1509.213256835938
0, 5, 99, 1540.105346679688
0, 5, 100, 1435.367309570312
0, 5, 101, 1429.249267578125
0, 5, 102, 1513.111694335938
0, 5, 103, 1478.007568359375
0, 5, 104, 1456.874145507812
0, 5, 105, 1492.672729492188
0, 5, 106, 1456.884399414062
0, 5, 107, 1408.523193359375
0, 5, 108, 1289.449951171875
0, 5, 109, 723.3806762695312
0, 5, 110, 191.8985748291016
0, 5, 111, 87.561767578125
0, 5, 112, 86.67887115478516
0, 5, 113, 71.20760345458984
0, 5, 114, 63.63967132568359
0, 5, 115, 53.26439666748047
0, 5, 116, 36.02969360351562
0, 5, 117, 34.6876335144043
0, 5, 118, 40.20335006713867
0, 5, 119, 32.91981506347656
0, 5, 120, 31.60959053039551
0, 5, 121, 24.95626640319824
0, 5, 122, 28.99336433410645
0, 5, 123, 25.44357872009277
0, 5, 124, 26.09210395812988
0, 5, 125, 21.78168487548828
0, 5, 126, 20.45114517211914
0, 5, 127, 19.59199905395508
0, 6, 0, 23.44809341430664
0, 6, 1, 25.49333000183105
0, 6, 2, 29.86352729797363
0, 6, 3, 25.87157249450684
0, 6, 4, 22.98314666748047
0, 6, 5, 28.15447425842285
0, 6, 6, 32.84799575805664
0, 6, 7, 33.9472770690918
0, 6, 8, 31.47827911376953
0, 6, 9, 32.12284469604492
0, 6, 10, 38.60588836669922
0, 6, 11, 37.96450042724609
0, 6, 12, 36.71091461181641
0, 6, 13, 57.17202377319336
0, 6, 14, 63.93422317504883
0, 6, 15, 84.50550842285156
0, 6, 16, 110.5199508666992
0, 6, 17, 298.4309692382812
0, 6, 18, 901.4482421875
0, 6, 19, 1371.710205078125
0, 6, 20, 1437.216064453125
0, 6, 21, 1532.123779296875
0, 6, 22, 1506.77099609375
0, 6, 23, 1531.12548828125
0, 6, 24, 1475.3251953125
0, 6, 25, 1526.615234375
0, 6, 26, 1523.189697265625
0, 6, 27, 1518.830322265625
0, 6, 28, 1555.1669921875
0, 6, 29, 1569.57421875
0, 6, 30, 1518.595825195312
0, 6, 31, 1492.445678710938
0, 6, 32, 1523.765014648438
0, 6, 33, 1493.053466796875
0, 6, 34, 1560.787963867188
0, 6, 35, 1501.236694335938
0, 6, 36, 1437.918823242188
0, 6, 37, 1544.723388671875
0, 6, 38, 1518.660278320312
0, 6, 39, 1526.420532226562
0, 6, 40, 1458.988891601562
0, 6, 41, 1441.639282226562
0, 6, 42, 1513.775512695312
0, 6, 43, 1483.385498046875
0, 6, 44, 1432.892333984375
0, 6, 45, 1544.102416992188
0, 6, 46, 1556.188354492188
0, 6, 47, 1494.027465820312
0, 6, 48, 1528.186645507812
0, 6, 49, 1513.068481445312
0, 6, 50, 1576.0986328125
0, 6, 51, 1502.234985351562
0, 6, 52, 1560.02099609375
0, 6, 53, 1468.151611328125
0, 6, 54, 1498.765380859375
0, 6, 55, 1574.31591796875
0, 6, 56, 1526.74072265625
0, 6, 57, 1504.459350585938
0, 6, 58, 1467.870361328125
0, 6, 59, 1523.454467773438
0, 6, 60, 1473.412719726562
0, 6, 61, 1573.759155273438
0, 6, 62, 1542.873657226562
0, 6, 63, 1496.636596679688
0, 6, 64, 1414.783325195312
0, 6, 65, 1490.507934570312
0, 6, 66, 1511.973510742188
0, 6, 67, 1514.236083984375
0, 6, 68, 1545.278686523438
0, 6, 69, 1482.535766601562
0, 6, 70, 1528.680541992188
0, 6, 71, 1468.454956054688
0, 6, 72, 1597.299560546875
0, 6, 73, 1490.406494140625
0, 6, 74, 1559.5576171875
0, 6, 75, 1540.051635742188
0, 6, 76, 1565.601196289062
0, 6, 77, 1504.6474609375
0, 6, 78, 1448.826538085938
0, 6, 79, 1556.84814453125
0, 6, 80, 1487.294677734375
0, 6, 81, 1485.104370117188
0, 6, 82, 1505.509155273438
0, 6, 83, 1531.051513671875
0, 6, 84, 1520.9716796875
0, 6, 85, 1530.581665039062
0, 6, 86, 1544.347412109375
0, 6, 87, 1582.348999023438
0, 6, 88, 1472.124267578125
0, 6, 89, 1564.608276367188
0, 6, 90, 1488.945068359375
0, 6, 91, 1542.440063476562
0, 6, 92, 1488.49560546875
0, 6, 93, 1503.150146484375
0, 6, 94, 1469.211791992188
0, 6, 95, 1508.480346679688
0, 6, 96, 1519.446044921875
0, 6, 97, 1503.183349609375
0, 6, 98, 1498.007446289062
0, 6, 99, 1482.79345703125
0, 6, 100, 1523.904541015625
0, 6, 101, 1515.852905273438
0, 6, 102, 1540.725341796875
0, 6, 103, 1497.237548828125
0, 6, 104, 1468.275756835938
0, 6, 105, 1487.083862304688
0, 6, 106, 1495.213745117188
0, 6, 107, 1501.85888671875
0, 6, 108, 1406.725219726562
0, 6, 109, 924.3595581054688
0, 6, 110, 283.1575622558594
0, 6, 111, 94.37326049804688
0, 6, 112, 77.97759246826172
0, 6, 113, 55.05615997314453
0, 6, 114, 54.96001052856445
0, 6, 115, 43.02451705932617
0, 6, 116, 38.47856903076172
0, 6, 117, 42.10296630859375
0, 6, 118, 41.9779167175293
0, 6, 119, 34.61745071411133
0, 6, 120, 30.2145938873291
0, 6, 121, 27.1591911315918
0, 6, 122, 30.21791076660156
0, 6, 123, 28.70050239562988
0, 6, 124, 30.46677589416504
0, 6, 125, 28.7379035949707
0, 6, 126, 21.12717056274414
0, 6, 127, 20.79976463317871
0, 7, 0, 22.63551902770996
0, 7, 1, 32.19775009155273
0, 7, 2, 20.79341316223145
0, 7, 3, 22.5206298828125
0, 7, 4, 23.46510124206543
0, 7, 5, 41.54469680786133
0, 7, 6, 35.79645156860352
0, 7, 7, 38.43753051757812
0, 7, 8, 35.20094680786133
0, 7, 9, 31.98724555969238
0, 7, 10, 43.69675827026367
0, 7, 11, 53.98027801513672
0, 7, 12, 48.75164794921875
0, 7, 13, 46.56109619140625
0, 7, 14, 60.64802169799805
0, 7, 15, 74.49504852294922
0, 7, 16, 133.9434204101562
0, 7, 17, 456.1893005371094
0, 7, 18, 1102.367309570312
0, 7, 19, 1503.392944335938
0, 7, 20, 1487.596313476562
0, 7, 21, 1363.350341796875
0, 7, 22, 1489.793334960938
0, 7, 23, 1454.793334960938
0, 7, 24, 1510.664794921875
0, 7, 25, 1591.64013671875
0, 7, 26, 1520.006713867188
0, 7, 27, 1509.6884765625
0, 7, 28, 1549.420532226562
0, 7, 29, 1577.027954101562
0, 7, 30, 1547.780151367188
0, 7, 31, 1436.266845703125
0, 7, 32, 1538.758178710938
0, 7, 33, 1489.317138671875
0, 7, 34, 1480.161987304688
0, 7, 35, 1519.563720703125
0, 7, 36, 1471.8271484375
0, 7, 37, 1601.955810546875
0, 7, 38, 1503.960693359375
0, 7, 39, 1495.590698242188
0, 7, 40, 1547.445068359375
0, 7, 41, 1461.832153320312
0, 7, 42, 1491.574584960938
0, 7, 43, 1444.493041992188
0, 7, 44, 1489.494873046875
0, 7, 45, 1471.005249023438
0, 7, 46, 1513.132568359375
0, 7, 47, 1568.172607421875
0, 7, 48, 1524.24609375
0, 7, 49, 1542.856811523438
0, 7, 50, 1510.60498046875
0, 7, 51, 1498.81982421875
0, 7, 52, 1518.0791015625
0, 7, 53, 1492.532836914062
0, 7, 54, 1590.755737304688
0, 7, 55, 1474.2841796875
0, 7, 56, 1551.298706054688
0, 7, 57, 1512.399780273438
0, 7, 58, 1548.9404296875
0, 7, 59, 1537.093383789062
0, 7, 60, 1549.104125976562
0, 7, 61, 1492.756103515625
0, 7, 62, 1438.63134765625
0, 7, 63, 1514.099975585938
0, 7, 64, 1551.1171875
0, 7, 65, 1531.4892578125
0, 7, 66, 1547.292358398438
0, 7, 67, 1577.9296875
0, 7, 68, 1530.60205078125
0, 7, 69, 1507.97021484375
0, 7, 70, 1490.308471679688
0, 7, 71, 1520.231079101562
0, 7, 72, 1522.67236328125
0, 7, 73, 1515.868530273438
0, 7, 74, 1570.239501953125
0, 7, 75, 1535.655883789062
0, 7, 76, 1557.062866210938
0, 7, 77, 1516.555908203125
0, 7, 78, 1505.588745117188
0, 7, 79, 1424.078002929688
0, 7, 80, 1486.10107421875
0, 7, 81, 1496.602905273438
0, 7, 82, 1531.986328125
0, 7, 83, 1540.438354492188
0, 7, 84, 1582.794067382812
0, 7, 85, 1482.567504882812
0, 7, 86, 1501.337768554688
0, 7, 87, 1503.7626953125
0, 7, 88, 1506.063232421875
0, 7, 89, 1554.479248046875
0, 7, 90, 1521.568725585938
0, 7, 91, 1564.727661132812
0, 7, 92, 1529.901733398438
0, 7, 93, 1554.757080078125
0, 7, 94, 1539.672119140625
0, 7, 95, 1503.16650390625
0, 7, 96, 1509.039184570312
0, 7, 97, 1438.568969726562
0, 7, 98, 1483.883056640625
0, 7, 99, 1525.12158203125
0, 7, 100, 1419.197631835938
0, 7, 101, 1464.572998046875
0, 7, 102, 1451.473510742188
0, 7, 103, 1432.460815429688
0, 7, 104, 1496.173461914062
0, 7, 105, 1523.699096679688
0, 7, 106, 1569.318603515625
0, 7, 107, 1480.695678710938
0, 7, 108, 1407.157958984375
0, 7, 109, 1146.255126953125
0, 7, 110, 472.8984069824219
0, 7, 111, 125.3913497924805
0, 7, 112, 87.24658203125
0, 7, 113, 64.777587890625
0, 7, 114, 56.10288238525391
0, 7, 115, 52.29538345336914
0, 7, 116, 52.33437728881836
0, 7, 117, 42.03827285766602
0, 7, 118, 34.6942253112793
0, 7, 119, 35.63515090942383
0, 7, 120, 22.65267944335938
0, 7, 121, 28.43009567260742
0, 7, 122, 32.17269515991211
0, 7, 123, 38.65707778930664
0, 7, 124, 29.79902839660645
0, 7, 125, 25.94945907592773
0, 7, 126, 29.6692008972168
0, 7, 127, 19.16164588928223
0, 8, 0, 17.55142402648926
0, 8, 1, 17.85858726501465
0, 8, 2, 23.92007446289062
0, 8, 3, 28.93428039550781
0, 8, 4, 24.15866279602051
0, 8, 5, 31.89098739624023
0, 8, 6, 29.21548461914062
0, 8, 7, 25.51806449890137
0, 8, 8, 37.34719085693359
0, 8, 9, 49.41248321533203
0, 8, 10, 42.0754508972168
0, 8, 11, 44.63297653198242
0, 8, 12, 57.44049453735352
0, 8, 13, 73.95817565917969
0, 8, 14, 71.74176025390625
0, 8, 15, 84.57283020019531
0, 8, 16, 172.8807830810547
0, 8, 17, 679.4228515625
0, 8, 18, 1278.109741210938
0, 8, 19, 1446.688232421875
0, 8, 20, 1428.161499023438
0, 8, 21, 1408.195922851562
0, 8, 22, 1486.029174804688
0, 8, 23, 1481.135498046875
0, 8, 24, 1434.3544921875
0, 8, 25, 1463.809448242188
0, 8, 26, 1514.05126953125
0, 8, 27, 1519.531005859375
0, 8, 28, 1478.06103515625
0, 8, 29, 1506.654296875
0, 8, 30, 1486.046997070312
0, 8, 31, 1530.13427734375
0, 8, 32, 1509.76416015625
0, 8, 33, 1476.901123046875
0, 8, 34, 1539.296752929688
0, 8, 35, 1439.879516601562
0, 8, 36, 1498.810180664062
0, 8, 37, 1554.532470703125
0, 8, 38, 1547.739135742188
0, 8, 39, 1491.086303710938
0, 8, 40, 1526.118286132812
0, 8, 41, 1483.589477539062
0, 8, 42, 1540.725463867188
0, 8, 43, 1437.846557617188
0, 8, 44, 1540.456176757812
0, 8, 45, 1510.935424804688
