# TOPAS Version: 3.1.p3
# Parameter File: batch_inserts_142.txt
# Results for scorer Readout_Adipose
# Scored in component: MyBox
# X in 1 bin  of 0.75 cm
# Y in 512 bins of 0.0783984 cm
# Z in 128 bins of 0.078125 cm
# EnergyDeposit ( MeV ) : Sum   
0, 0, 0, 4.837879180908203
0, 0, 1, 1.832492113113403
0, 0, 2, 3.091623783111572
0, 0, 3, 1.758150815963745
0, 0, 4, 3.935686349868774
0, 0, 5, 1.761556386947632
0, 0, 6, 7.657327175140381
0, 0, 7, 9.736336708068848
0, 0, 8, 2.011275053024292
0, 0, 9, 4.390785217285156
0, 0, 10, 7.086760520935059
0, 0, 11, 6.120110034942627
0, 0, 12, 4.249446868896484
0, 0, 13, 6.921377658843994
0, 0, 14, 8.171799659729004
0, 0, 15, 9.230591773986816
0, 0, 16, 8.496061325073242
0, 0, 17, 9.887153625488281
0, 0, 18, 13.90956974029541
0, 0, 19, 42.4017333984375
0, 0, 20, 138.2129364013672
0, 0, 21, 223.6965637207031
0, 0, 22, 247.6249084472656
0, 0, 23, 255.2568359375
0, 0, 24, 252.3293914794922
0, 0, 25, 258.4620666503906
0, 0, 26, 233.5771789550781
0, 0, 27, 237.1906127929688
0, 0, 28, 274.6861267089844
0, 0, 29, 252.3525238037109
0, 0, 30, 229.0765533447266
0, 0, 31, 243.8929138183594
0, 0, 32, 262.8937683105469
0, 0, 33, 262.0235900878906
0, 0, 34, 289.78759765625
0, 0, 35, 267.8617553710938
0, 0, 36, 247.3886871337891
0, 0, 37, 252.4004974365234
0, 0, 38, 267.7694702148438
0, 0, 39, 229.3362426757812
0, 0, 40, 240.6915130615234
0, 0, 41, 266.5787353515625
0, 0, 42, 229.9524230957031
0, 0, 43, 261.2140197753906
0, 0, 44, 252.8801422119141
0, 0, 45, 252.2418060302734
0, 0, 46, 244.0312652587891
0, 0, 47, 253.1247711181641
0, 0, 48, 266.031494140625
0, 0, 49, 273.5274658203125
0, 0, 50, 252.1168365478516
0, 0, 51, 256.1096801757812
0, 0, 52, 271.6396484375
0, 0, 53, 291.0725402832031
0, 0, 54, 241.0933380126953
0, 0, 55, 241.6870727539062
0, 0, 56, 277.3163452148438
0, 0, 57, 262.6317443847656
0, 0, 58, 245.9992980957031
0, 0, 59, 270.6621704101562
0, 0, 60, 233.3278961181641
0, 0, 61, 244.0407867431641
0, 0, 62, 257.0369262695312
0, 0, 63, 267.6549377441406
0, 0, 64, 255.4047393798828
0, 0, 65, 261.6395263671875
0, 0, 66, 276.5156555175781
0, 0, 67, 245.5445861816406
0, 0, 68, 257.9520874023438
0, 0, 69, 261.7411499023438
0, 0, 70, 274.5050659179688
0, 0, 71, 238.9749450683594
0, 0, 72, 250.0352783203125
0, 0, 73, 257.7094116210938
0, 0, 74, 252.0348205566406
0, 0, 75, 242.050048828125
0, 0, 76, 229.2204132080078
0, 0, 77, 260.3906555175781
0, 0, 78, 256.1521606445312
0, 0, 79, 278.8393859863281
0, 0, 80, 215.6631774902344
0, 0, 81, 266.6774291992188
0, 0, 82, 257.3507080078125
0, 0, 83, 245.4647827148438
0, 0, 84, 266.8840637207031
0, 0, 85, 230.9069366455078
0, 0, 86, 252.832763671875
0, 0, 87, 251.0547790527344
0, 0, 88, 261.3040466308594
0, 0, 89, 284.4983825683594
0, 0, 90, 244.2961273193359
0, 0, 91, 281.4852294921875
0, 0, 92, 254.7687683105469
0, 0, 93, 249.5575103759766
0, 0, 94, 249.0771636962891
0, 0, 95, 248.4751434326172
0, 0, 96, 275.9431762695312
0, 0, 97, 272.3226928710938
0, 0, 98, 272.7453308105469
0, 0, 99, 258.9889221191406
0, 0, 100, 257.4513244628906
0, 0, 101, 226.4726867675781
0, 0, 102, 232.2832183837891
0, 0, 103, 269.2474670410156
0, 0, 104, 254.7692565917969
0, 0, 105, 251.4734954833984
0, 0, 106, 245.8193817138672
0, 0, 107, 152.0788726806641
0, 0, 108, 38.49610900878906
0, 0, 109, 12.15983486175537
0, 0, 110, 12.32338523864746
0, 0, 111, 8.612234115600586
0, 0, 112, 8.00836181640625
0, 0, 113, 4.774405002593994
0, 0, 114, 6.360728740692139
0, 0, 115, 5.006136894226074
0, 0, 116, 5.022053718566895
0, 0, 117, 6.543592929840088
0, 0, 118, 6.116288661956787
0, 0, 119, 5.219327926635742
0, 0, 120, 4.142274856567383
0, 0, 121, 3.759235858917236
0, 0, 122, 4.623471736907959
0, 0, 123, 4.888205528259277
0, 0, 124, 3.871447086334229
0, 0, 125, 3.597845077514648
0, 0, 126, 4.070158004760742
0, 0, 127, 2.392684459686279
0, 1, 0, 7.815146923065186
0, 1, 1, 1.817067980766296
0, 1, 2, 4.454163551330566
0, 1, 3, 1.561208367347717
0, 1, 4, 2.289606332778931
0, 1, 5, 4.30462646484375
0, 1, 6, 6.922576904296875
0, 1, 7, 6.174804210662842
0, 1, 8, 8.101254463195801
0, 1, 9, 3.56348991394043
0, 1, 10, 7.333883762359619
0, 1, 11, 11.62356376647949
0, 1, 12, 9.10197925567627
0, 1, 13, 8.966365814208984
0, 1, 14, 7.790824890136719
0, 1, 15, 6.720855712890625
0, 1, 16, 11.91022872924805
0, 1, 17, 11.69550514221191
0, 1, 18, 19.93999099731445
0, 1, 19, 66.17629241943359
0, 1, 20, 199.6496734619141
0, 1, 21, 255.5321502685547
0, 1, 22, 296.2564697265625
0, 1, 23, 282.4364013671875
0, 1, 24, 275.5558776855469
0, 1, 25, 286.1742553710938
0, 1, 26, 268.9989624023438
0, 1, 27, 306.8559265136719
0, 1, 28, 302.2667541503906
0, 1, 29, 294.3992919921875
0, 1, 30, 279.7755126953125
0, 1, 31, 291.9548645019531
0, 1, 32, 291.6685485839844
0, 1, 33, 295.8926086425781
0, 1, 34, 292.2196655273438
0, 1, 35, 280.3479919433594
0, 1, 36, 308.2235717773438
0, 1, 37, 294.7459411621094
0, 1, 38, 279.5839233398438
0, 1, 39, 295.7064208984375
0, 1, 40, 265.4753723144531
0, 1, 41, 287.9429016113281
0, 1, 42, 289.6880798339844
0, 1, 43, 331.4187316894531
0, 1, 44, 279.9469299316406
0, 1, 45, 292.1254577636719
0, 1, 46, 260.6006164550781
0, 1, 47, 310.6383666992188
0, 1, 48, 284.3629455566406
0, 1, 49, 301.7123413085938
0, 1, 50, 263.6293029785156
0, 1, 51, 273.2997436523438
0, 1, 52, 295.9153442382812
0, 1, 53, 303.3470764160156
0, 1, 54, 274.8625793457031
0, 1, 55, 295.2339782714844
0, 1, 56, 278.1994018554688
0, 1, 57, 297.8316345214844
0, 1, 58, 308.3383483886719
0, 1, 59, 290.2872009277344
0, 1, 60, 297.2908325195312
0, 1, 61, 274.8753356933594
0, 1, 62, 309.94140625
0, 1, 63, 286.2460327148438
0, 1, 64, 288.7744445800781
0, 1, 65, 297.108154296875
0, 1, 66, 292.3572387695312
0, 1, 67, 290.4915771484375
0, 1, 68, 278.153564453125
0, 1, 69, 280.3765258789062
0, 1, 70, 271.1172180175781
0, 1, 71, 274.5389099121094
0, 1, 72, 284.10546875
0, 1, 73, 304.3271789550781
0, 1, 74, 303.9728088378906
0, 1, 75, 293.9570007324219
0, 1, 76, 285.2065124511719
0, 1, 77, 289.6540832519531
0, 1, 78, 297.3275146484375
0, 1, 79, 299.6558837890625
0, 1, 80, 296.4418334960938
0, 1, 81, 299.1264343261719
0, 1, 82, 283.2017517089844
0, 1, 83, 333.074462890625
0, 1, 84, 309.3726806640625
0, 1, 85, 252.78173828125
0, 1, 86, 293.6803588867188
0, 1, 87, 290.0230102539062
0, 1, 88, 297.7515258789062
0, 1, 89, 289.6310424804688
0, 1, 90, 270.83544921875
0, 1, 91, 317.3634338378906
0, 1, 92, 290.5504760742188
0, 1, 93, 286.4364013671875
0, 1, 94, 303.9091491699219
0, 1, 95, 283.8760681152344
0, 1, 96, 285.9496765136719
0, 1, 97, 304.0311889648438
0, 1, 98, 278.5007019042969
0, 1, 99, 267.3482666015625
0, 1, 100, 276.4880676269531
0, 1, 101, 280.7550964355469
0, 1, 102, 276.8955993652344
0, 1, 103, 282.6600646972656
0, 1, 104, 309.6255798339844
0, 1, 105, 297.3820190429688
0, 1, 106, 264.7741088867188
0, 1, 107, 192.1598510742188
0, 1, 108, 80.94127655029297
0, 1, 109, 23.78913116455078
0, 1, 110, 11.10743141174316
0, 1, 111, 9.058574676513672
0, 1, 112, 12.01834106445312
0, 1, 113, 6.701288223266602
0, 1, 114, 6.823578834533691
0, 1, 115, 7.10675573348999
0, 1, 116, 10.01591110229492
0, 1, 117, 5.851354598999023
0, 1, 118, 5.630006790161133
0, 1, 119, 4.419321060180664
0, 1, 120, 8.163116455078125
0, 1, 121, 2.915692329406738
0, 1, 122, 4.562393188476562
0, 1, 123, 3.339606046676636
0, 1, 124, 8.190676689147949
0, 1, 125, 5.052232265472412
0, 1, 126, 3.672183036804199
0, 1, 127, 0.9173178672790527
0, 2, 0, 4.692938327789307
0, 2, 1, 2.216004848480225
0, 2, 2, 3.617499828338623
0, 2, 3, 5.587941646575928
0, 2, 4, 6.117260932922363
0, 2, 5, 2.024812936782837
0, 2, 6, 2.39921498298645
0, 2, 7, 5.429959297180176
0, 2, 8, 5.989799022674561
0, 2, 9, 5.475773811340332
0, 2, 10, 9.644942283630371
0, 2, 11, 4.923992156982422
0, 2, 12, 5.839198589324951
0, 2, 13, 9.726458549499512
0, 2, 14, 9.290325164794922
0, 2, 15, 8.275331497192383
0, 2, 16, 10.94104671478271
0, 2, 17, 16.67866325378418
0, 2, 18, 32.08986282348633
0, 2, 19, 114.2585678100586
0, 2, 20, 247.15478515625
0, 2, 21, 271.2802124023438
0, 2, 22, 315.8120422363281
0, 2, 23, 301.5625915527344
0, 2, 24, 286.455322265625
0, 2, 25, 302.8150329589844
0, 2, 26, 292.82080078125
0, 2, 27, 275.0133972167969
0, 2, 28, 270.9737854003906
0, 2, 29, 274.7796936035156
0, 2, 30, 288.0172424316406
0, 2, 31, 277.3452453613281
0, 2, 32, 294.68603515625
0, 2, 33, 280.7171020507812
0, 2, 34, 332.6491088867188
0, 2, 35, 289.1090698242188
0, 2, 36, 304.2922973632812
0, 2, 37, 317.5760803222656
0, 2, 38, 309.960205078125
0, 2, 39, 265.2064208984375
0, 2, 40, 308.4767761230469
0, 2, 41, 292.9479064941406
0, 2, 42, 304.3149719238281
0, 2, 43, 312.1163330078125
0, 2, 44, 311.6528625488281
0, 2, 45, 324.8185424804688
0, 2, 46, 287.5399475097656
0, 2, 47, 301.9526062011719
0, 2, 48, 282.8058471679688
0, 2, 49, 279.9302978515625
0, 2, 50, 294.8147277832031
0, 2, 51, 284.27685546875
0, 2, 52, 276.1885375976562
0, 2, 53, 287.3236694335938
0, 2, 54, 279.7705993652344
0, 2, 55, 275.58984375
0, 2, 56, 301.3599853515625
0, 2, 57, 290.6569213867188
0, 2, 58, 301.319580078125
0, 2, 59, 290.8838500976562
0, 2, 60, 318.3900451660156
0, 2, 61, 301.2413940429688
0, 2, 62, 317.1685791015625
0, 2, 63, 305.1506042480469
0, 2, 64, 295.6973876953125
0, 2, 65, 313.8130493164062
0, 2, 66, 279.8921508789062
0, 2, 67, 291.7002563476562
0, 2, 68, 295.9198303222656
0, 2, 69, 310.8626403808594
0, 2, 70, 334.5382385253906
0, 2, 71, 282.1214599609375
0, 2, 72, 301.0667114257812
0, 2, 73, 310.7318725585938
0, 2, 74, 290.3325805664062
0, 2, 75, 303.1883239746094
0, 2, 76, 289.1451416015625
0, 2, 77, 297.5570678710938
0, 2, 78, 317.9039916992188
0, 2, 79, 307.7928466796875
0, 2, 80, 297.1326599121094
0, 2, 81, 283.732421875
0, 2, 82, 318.3681640625
0, 2, 83, 313.9110412597656
0, 2, 84, 287.9649658203125
0, 2, 85, 280.6414184570312
0, 2, 86, 324.8224487304688
0, 2, 87, 286.79833984375
0, 2, 88, 280.7936096191406
0, 2, 89, 297.4967346191406
0, 2, 90, 296.2915344238281
0, 2, 91, 275.7808837890625
0, 2, 92, 305.9144287109375
0, 2, 93, 318.4543762207031
0, 2, 94, 290.2763977050781
0, 2, 95, 314.2233581542969
0, 2, 96, 315.7746276855469
0, 2, 97, 293.765380859375
0, 2, 98, 293.8604125976562
0, 2, 99, 273.8453369140625
0, 2, 100, 306.3705444335938
0, 2, 101, 301.8832397460938
0, 2, 102, 297.2909545898438
0, 2, 103, 292.4529113769531
0, 2, 104, 292.298828125
0, 2, 105, 274.1954956054688
0, 2, 106, 295.2522277832031
0, 2, 107, 269.6904907226562
0, 2, 108, 116.0033950805664
0, 2, 109, 33.53365707397461
0, 2, 110, 10.2784309387207
0, 2, 111, 12.17717266082764
0, 2, 112, 9.817591667175293
0, 2, 113, 10.43659687042236
0, 2, 114, 12.39067268371582
0, 2, 115, 11.54806613922119
0, 2, 116, 10.11599922180176
0, 2, 117, 8.447534561157227
0, 2, 118, 3.797603607177734
0, 2, 119, 2.883751392364502
0, 2, 120, 6.853860378265381
0, 2, 121, 2.618608713150024
0, 2, 122, 4.029995918273926
0, 2, 123, 3.494890451431274
0, 2, 124, 2.453909158706665
0, 2, 125, 5.707568168640137
0, 2, 126, 3.353704214096069
0, 2, 127, 5.18335485458374
0, 3, 0, 2.547570466995239
0, 3, 1, 2.609499216079712
0, 3, 2, 3.958940505981445
0, 3, 3, 0.9113256931304932
0, 3, 4, 3.524062871932983
0, 3, 5, 5.777381896972656
0, 3, 6, 6.2726149559021
0, 3, 7, 4.806307315826416
0, 3, 8, 4.948493003845215
0, 3, 9, 7.085840702056885
0, 3, 10, 9.600568771362305
0, 3, 11, 5.65860652923584
0, 3, 12, 8.583218574523926
0, 3, 13, 14.68956089019775
0, 3, 14, 13.00607395172119
0, 3, 15, 12.84351634979248
0, 3, 16, 12.06894779205322
0, 3, 17, 21.92998695373535
0, 3, 18, 54.37142944335938
0, 3, 19, 176.9014739990234
0, 3, 20, 269.1620483398438
0, 3, 21, 269.4797973632812
0, 3, 22, 284.2818908691406
0, 3, 23, 285.6121215820312
0, 3, 24, 285.6347351074219
0, 3, 25, 268.929931640625
0, 3, 26, 304.9161376953125
0, 3, 27, 291.0834350585938
0, 3, 28, 279.7391357421875
0, 3, 29, 338.2831726074219
0, 3, 30, 315.8773193359375
0, 3, 31, 285.8464050292969
0, 3, 32, 307.6409912109375
0, 3, 33, 314.6121520996094
0, 3, 34, 322.0693359375
0, 3, 35, 306.4930419921875
0, 3, 36, 267.2295532226562
0, 3, 37, 312.1098327636719
0, 3, 38, 304.5103759765625
0, 3, 39, 290.317626953125
0, 3, 40, 266.1796264648438
0, 3, 41, 303.5927429199219
0, 3, 42, 284.8535461425781
0, 3, 43, 308.4786071777344
0, 3, 44, 310.2514038085938
0, 3, 45, 290.2695617675781
0, 3, 46, 332.2573852539062
0, 3, 47, 299.1021118164062
0, 3, 48, 304.3188781738281
0, 3, 49, 278.0701904296875
0, 3, 50, 289.9388732910156
0, 3, 51, 276.0636901855469
0, 3, 52, 314.3501892089844
0, 3, 53, 285.9841918945312
0, 3, 54, 284.8781433105469
0, 3, 55, 285.1429138183594
0, 3, 56, 297.9951171875
0, 3, 57, 288.5102233886719
0, 3, 58, 306.7059326171875
0, 3, 59, 292.9408874511719
0, 3, 60, 297.6247863769531
0, 3, 61, 265.7258605957031
0, 3, 62, 282.0032043457031
0, 3, 63, 305.5523986816406
0, 3, 64, 315.4385070800781
0, 3, 65, 305.8084106445312
0, 3, 66, 315.2887268066406
0, 3, 67, 318.6913757324219
0, 3, 68, 280.0412902832031
0, 3, 69, 283.1034851074219
0, 3, 70, 289.6749572753906
0, 3, 71, 299.0918579101562
0, 3, 72, 268.9271545410156
0, 3, 73, 306.4992065429688
0, 3, 74, 293.3608093261719
0, 3, 75, 289.8294677734375
0, 3, 76, 306.1010437011719
0, 3, 77, 314.7746276855469
0, 3, 78, 306.7729797363281
0, 3, 79, 281.4521789550781
0, 3, 80, 290.8224792480469
0, 3, 81, 310.8653869628906
0, 3, 82, 316.0834045410156
0, 3, 83, 300.1968994140625
0, 3, 84, 310.7634887695312
0, 3, 85, 292.9751281738281
0, 3, 86, 301.5363159179688
0, 3, 87, 298.509521484375
0, 3, 88, 297.26318359375
0, 3, 89, 297.65625
0, 3, 90, 276.4879760742188
0, 3, 91, 283.9650573730469
0, 3, 92, 303.7694091796875
0, 3, 93, 312.7998657226562
0, 3, 94, 297.6008911132812
0, 3, 95, 333.8291625976562
0, 3, 96, 289.892333984375
0, 3, 97, 285.351806640625
0, 3, 98, 277.2849426269531
0, 3, 99, 261.4512634277344
0, 3, 100, 282.9435424804688
0, 3, 101, 297.6693725585938
0, 3, 102, 273.7178344726562
0, 3, 103, 320.27685546875
0, 3, 104, 310.040771484375
0, 3, 105, 287.1482849121094
0, 3, 106, 302.4690856933594
0, 3, 107, 283.2623291015625
0, 3, 108, 167.2965698242188
0, 3, 109, 55.19464874267578
0, 3, 110, 18.40423011779785
0, 3, 111, 13.20200157165527
0, 3, 112, 12.93263912200928
0, 3, 113, 6.677298545837402
0, 3, 114, 10.08274936676025
0, 3, 115, 7.205979824066162
0, 3, 116, 8.337769508361816
0, 3, 117, 6.96683406829834
0, 3, 118, 8.158359527587891
0, 3, 119, 9.68868350982666
0, 3, 120, 9.009786605834961
0, 3, 121, 4.956392765045166
0, 3, 122, 3.125691652297974
0, 3, 123, 5.47434139251709
0, 3, 124, 4.544421195983887
0, 3, 125, 5.221894264221191
0, 3, 126, 5.584208965301514
0, 3, 127, 2.635130643844604
0, 4, 0, 2.814619779586792
0, 4, 1, 4.127820014953613
0, 4, 2, 2.237357616424561
0, 4, 3, 3.252927541732788
0, 4, 4, 6.246711730957031
0, 4, 5, 8.307888984680176
0, 4, 6, 7.421523571014404
0, 4, 7, 4.299160003662109
0, 4, 8, 5.780508995056152
0, 4, 9, 5.65403413772583
0, 4, 10, 8.453967094421387
0, 4, 11, 6.84622049331665
0, 4, 12, 6.757625579833984
0, 4, 13, 8.378247261047363
0, 4, 14, 12.42108535766602
0, 4, 15, 9.136405944824219
0, 4, 16, 13.1837911605835
0, 4, 17, 18.16179275512695
0, 4, 18, 93.48344421386719
0, 4, 19, 222.428466796875
0, 4, 20, 284.1943359375
0, 4, 21, 272.5289611816406
0, 4, 22, 304.2725524902344
0, 4, 23, 267.5492858886719
0, 4, 24, 288.3536071777344
0, 4, 25, 271.5469055175781
0, 4, 26, 296.1397399902344
0, 4, 27, 282.8041687011719
0, 4, 28, 306.7705383300781
0, 4, 29, 325.3939819335938
0, 4, 30, 310.2569274902344
0, 4, 31, 303.6186218261719
0, 4, 32, 280.3939208984375
0, 4, 33, 297.4179382324219
0, 4, 34, 294.8836975097656
0, 4, 35, 312.8213806152344
0, 4, 36, 291.0140075683594
0, 4, 37, 287.6734619140625
0, 4, 38, 300.4109802246094
0, 4, 39, 295.1178588867188
0, 4, 40, 301.5933837890625
0, 4, 41, 311.0227355957031
0, 4, 42, 329.2852172851562
0, 4, 43, 295.1417541503906
0, 4, 44, 319.85009765625
0, 4, 45, 323.8787231445312
0, 4, 46, 305.5932006835938
0, 4, 47, 293.1629943847656
0, 4, 48, 294.8729248046875
0, 4, 49, 278.2093200683594
0, 4, 50, 297.1781005859375
0, 4, 51, 315.9617919921875
0, 4, 52, 327.3766174316406
0, 4, 53, 303.4393920898438
0, 4, 54, 287.9835510253906
0, 4, 55, 313.3757019042969
0, 4, 56, 286.521484375
0, 4, 57, 310.9052124023438
0, 4, 58, 296.4826049804688
0, 4, 59, 307.5971069335938
0, 4, 60, 301.2689208984375
0, 4, 61, 315.8246459960938
0, 4, 62, 310.4415283203125
0, 4, 63, 301.1815185546875
0, 4, 64, 329.2471923828125
0, 4, 65, 318.6627807617188
0, 4, 66, 292.8565673828125
0, 4, 67, 286.8930358886719
0, 4, 68, 311.9208374023438
0, 4, 69, 276.7903137207031
0, 4, 70, 298.6529846191406
0, 4, 71, 321.6430969238281
0, 4, 72, 331.5694580078125
0, 4, 73, 298.3089294433594
0, 4, 74, 292.6285705566406
0, 4, 75, 288.9449768066406
0, 4, 76, 274.1365051269531
0, 4, 77, 277.0921325683594
0, 4, 78, 308.268798828125
0, 4, 79, 318.068603515625
0, 4, 80, 316.88671875
0, 4, 81, 313.8622741699219
0, 4, 82, 297.4000854492188
0, 4, 83, 300.2586059570312
0, 4, 84, 291.6956481933594
0, 4, 85, 295.894775390625
0, 4, 86, 296.9786376953125
0, 4, 87, 283.5618286132812
0, 4, 88, 304.4447326660156
0, 4, 89, 296.4873657226562
0, 4, 90, 335.1101989746094
0, 4, 91, 303.0600280761719
0, 4, 92, 290.9718933105469
0, 4, 93, 299.1669311523438
0, 4, 94, 291.5669860839844
0, 4, 95, 288.4401245117188
0, 4, 96, 323.9961853027344
0, 4, 97, 274.5579833984375
0, 4, 98, 327.124267578125
0, 4, 99, 313.5451354980469
0, 4, 100, 299.3007202148438
0, 4, 101, 256.3413696289062
0, 4, 102, 296.5452880859375
0, 4, 103, 317.882080078125
0, 4, 104, 282.3157348632812
0, 4, 105, 310.4148864746094
0, 4, 106, 288.0553894042969
0, 4, 107, 293.7119445800781
0, 4, 108, 224.927001953125
0, 4, 109, 78.81800079345703
0, 4, 110, 16.10578727722168
0, 4, 111, 13.53858375549316
0, 4, 112, 8.690901756286621
0, 4, 113, 8.760976791381836
0, 4, 114, 6.711085796356201
0, 4, 115, 9.41288948059082
0, 4, 116, 9.003593444824219
0, 4, 117, 6.087573051452637
0, 4, 118, 12.19174003601074
0, 4, 119, 11.53169345855713
0, 4, 120, 8.202392578125
0, 4, 121, 5.178101062774658
0, 4, 122, 4.746021270751953
0, 4, 123, 6.529942989349365
0, 4, 124, 7.338225364685059
0, 4, 125, 9.792282104492188
0, 4, 126, 6.261245727539062
0, 4, 127, 3.499452352523804
0, 5, 0, 5.521092891693115
0, 5, 1, 2.490496397018433
0, 5, 2, 5.160425186157227
0, 5, 3, 4.894023895263672
0, 5, 4, 5.586581230163574
0, 5, 5, 8.091457366943359
0, 5, 6, 6.611537933349609
0, 5, 7, 4.334403991699219
0, 5, 8, 4.890308856964111
0, 5, 9, 4.551159858703613
0, 5, 10, 4.684508323669434
0, 5, 11, 8.827622413635254
0, 5, 12, 9.261776924133301
0, 5, 13, 5.736064434051514
0, 5, 14, 12.82114887237549
0, 5, 15, 15.91188049316406
0, 5, 16, 15.50910568237305
0, 5, 17, 29.5047435760498
0, 5, 18, 135.7823028564453
0, 5, 19, 289.1455383300781
0, 5, 20, 308.0439453125
0, 5, 21, 321.1029357910156
0, 5, 22, 277.4921875
0, 5, 23, 310.2804870605469
0, 5, 24, 303.5582580566406
0, 5, 25, 289.6047973632812
0, 5, 26, 294.3205261230469
0, 5, 27, 322.794677734375
0, 5, 28, 302.3660888671875
0, 5, 29, 297.4045715332031
0, 5, 30, 323.6773071289062
0, 5, 31, 285.6390991210938
0, 5, 32, 308.3244018554688
0, 5, 33, 303.3268737792969
0, 5, 34, 296.7813415527344
0, 5, 35, 310.6771240234375
0, 5, 36, 271.5371398925781
0, 5, 37, 281.8410339355469
0, 5, 38, 291.8045959472656
0, 5, 39, 313.5720825195312
0, 5, 40, 308.2432556152344
0, 5, 41, 273.4751892089844
0, 5, 42, 306.6591796875
0, 5, 43, 313.4947509765625
0, 5, 44, 290.97021484375
0, 5, 45, 301.4238586425781
0, 5, 46, 265.6244201660156
0, 5, 47, 279.2874755859375
0, 5, 48, 294.4912719726562
0, 5, 49, 286.7979125976562
0, 5, 50, 293.5842590332031
0, 5, 51, 279.0647583007812
0, 5, 52, 269.9766540527344
0, 5, 53, 285.6527709960938
0, 5, 54, 293.7651672363281
0, 5, 55, 345.76220703125
0, 5, 56, 305.1886596679688
0, 5, 57, 305.4537048339844
0, 5, 58, 312.3141479492188
0, 5, 59, 303.2638854980469
0, 5, 60, 308.1016845703125
0, 5, 61, 281.742431640625
0, 5, 62, 323.6961364746094
0, 5, 63, 290.5537109375
0, 5, 64, 323.9040222167969
0, 5, 65, 306.7504577636719
0, 5, 66, 328.0757446289062
0, 5, 67, 314.9185180664062
0, 5, 68, 308.2399291992188
0, 5, 69, 312.802734375
0, 5, 70, 303.1809997558594
0, 5, 71, 272.4602966308594
0, 5, 72, 311.1136779785156
0, 5, 73, 303.0715637207031
0, 5, 74, 294.6600036621094
0, 5, 75, 293.8195190429688
0, 5, 76, 284.6375427246094
0, 5, 77, 297.1134033203125
0, 5, 78, 316.5339660644531
0, 5, 79, 307.931640625
0, 5, 80, 294.2212829589844
0, 5, 81, 326.214111328125
0, 5, 82, 323.1669921875
0, 5, 83, 282.4490356445312
0, 5, 84, 301.7307434082031
0, 5, 85, 272.7080078125
0, 5, 86, 326.7230834960938
0, 5, 87, 284.7437744140625
0, 5, 88, 312.0845642089844
0, 5, 89, 305.935791015625
0, 5, 90, 315.9201049804688
0, 5, 91, 313.5980224609375
0, 5, 92, 297.2753295898438
0, 5, 93, 322.3330993652344
0, 5, 94, 306.2685241699219
0, 5, 95, 295.223388671875
0, 5, 96, 298.9629821777344
0, 5, 97, 295.0929870605469
0, 5, 98, 319.3474426269531
0, 5, 99, 302.5702819824219
0, 5, 100, 291.0066528320312
0, 5, 101, 304.5462646484375
0, 5, 102, 292.1753234863281
0, 5, 103, 313.7281799316406
0, 5, 104, 301.9174194335938
0, 5, 105, 292.7036437988281
0, 5, 106, 282.3593139648438
0, 5, 107, 291.9214477539062
0, 5, 108, 267.55224609375
0, 5, 109, 157.8336639404297
0, 5, 110, 40.40141296386719
0, 5, 111, 21.16143798828125
0, 5, 112, 15.05900573730469
0, 5, 113, 14.40703105926514
0, 5, 114, 14.63884735107422
0, 5, 115, 6.885509967803955
0, 5, 116, 9.407605171203613
0, 5, 117, 6.629669666290283
0, 5, 118, 12.43826484680176
0, 5, 119, 3.616128206253052
0, 5, 120, 4.831306934356689
0, 5, 121, 7.070644378662109
0, 5, 122, 4.297307014465332
0, 5, 123, 3.693230152130127
0, 5, 124, 6.323722839355469
0, 5, 125, 5.192873001098633
0, 5, 126, 6.180172920227051
0, 5, 127, 3.601091146469116
0, 6, 0, 3.5420823097229
0, 6, 1, 4.080444812774658
0, 6, 2, 6.344449996948242
0, 6, 3, 6.376115798950195
0, 6, 4, 4.76724100112915
0, 6, 5, 5.338391780853271
0, 6, 6, 7.709463596343994
0, 6, 7, 5.5956130027771
0, 6, 8, 9.420470237731934
0, 6, 9, 5.48828125
0, 6, 10, 8.145349502563477
0, 6, 11, 9.061559677124023
0, 6, 12, 9.07532787322998
0, 6, 13, 12.44294261932373
0, 6, 14, 8.798025131225586
0, 6, 15, 17.05803871154785
0, 6, 16, 28.15000534057617
0, 6, 17, 54.04500579833984
0, 6, 18, 172.1898040771484
0, 6, 19, 274.9236755371094
0, 6, 20, 290.398193359375
0, 6, 21, 317.3760070800781
0, 6, 22, 318.9777526855469
0, 6, 23, 307.3478393554688
0, 6, 24, 315.8438720703125
0, 6, 25, 316.0169677734375
0, 6, 26, 321.3590698242188
0, 6, 27, 331.5405578613281
0, 6, 28, 293.7650756835938
0, 6, 29, 330.5543823242188
0, 6, 30, 281.4518432617188
0, 6, 31, 287.0504760742188
0, 6, 32, 340.3775329589844
0, 6, 33, 299.5111083984375
0, 6, 34, 341.0683898925781
0, 6, 35, 320.1302185058594
0, 6, 36, 272.1463317871094
0, 6, 37, 290.5194091796875
0, 6, 38, 313.8488464355469
0, 6, 39, 298.1213684082031
0, 6, 40, 285.6065368652344
0, 6, 41, 297.0391845703125
0, 6, 42, 304.2814331054688
0, 6, 43, 288.1194152832031
0, 6, 44, 281.6413269042969
0, 6, 45, 319.7273559570312
0, 6, 46, 300.8146667480469
0, 6, 47, 335.7994689941406
0, 6, 48, 292.5238342285156
0, 6, 49, 311.3895568847656
0, 6, 50, 328.3154296875
0, 6, 51, 311.6388244628906
0, 6, 52, 321.347412109375
0, 6, 53, 330.6301879882812
0, 6, 54, 303.8720092773438
0, 6, 55, 304.8080444335938
0, 6, 56, 293.3993225097656
0, 6, 57, 313.6839294433594
0, 6, 58, 261.2760925292969
0, 6, 59, 303.5104064941406
0, 6, 60, 315.4400329589844
0, 6, 61, 271.7920837402344
0, 6, 62, 335.28369140625
0, 6, 63, 321.9764099121094
0, 6, 64, 290.5321960449219
0, 6, 65, 284.7544860839844
0, 6, 66, 303.2828369140625
0, 6, 67, 311.1217956542969
0, 6, 68, 296.2274780273438
0, 6, 69, 280.0584106445312
0, 6, 70, 275.9994506835938
0, 6, 71, 290.7321166992188
0, 6, 72, 309.23193359375
0, 6, 73, 292.7667541503906
0, 6, 74, 330.763916015625
0, 6, 75, 345.7800903320312
0, 6, 76, 295.384033203125
0, 6, 77, 285.1584777832031
0, 6, 78, 279.0293579101562
0, 6, 79, 292.6881713867188
0, 6, 80, 299.6914978027344
0, 6, 81, 315.6311340332031
0, 6, 82, 319.0242309570312
0, 6, 83, 320.2543640136719
0, 6, 84, 296.4306335449219
0, 6, 85, 300.7565307617188
0, 6, 86, 331.5325012207031
0, 6, 87, 293.0738830566406
0, 6, 88, 308.6611633300781
0, 6, 89, 305.3464965820312
0, 6, 90, 300.5652465820312
0, 6, 91, 312.1285705566406
0, 6, 92, 285.3567199707031
0, 6, 93, 295.1772766113281
0, 6, 94, 274.3553771972656
0, 6, 95, 300.538818359375
0, 6, 96, 347.9367065429688
0, 6, 97, 307.7164306640625
0, 6, 98, 302.0359191894531
0, 6, 99, 272.4981994628906
0, 6, 100, 310.3271484375
0, 6, 101, 294.2573547363281
0, 6, 102, 309.6026000976562
0, 6, 103, 306.6018371582031
0, 6, 104, 290.8783569335938
0, 6, 105, 299.7232666015625
0, 6, 106, 307.498779296875
0, 6, 107, 304.6525573730469
0, 6, 108, 266.3526916503906
0, 6, 109, 186.2409515380859
0, 6, 110, 55.28499984741211
0, 6, 111, 21.72500991821289
0, 6, 112, 12.35540103912354
0, 6, 113, 10.3751916885376
0, 6, 114, 11.84109210968018
0, 6, 115, 10.28402423858643
0, 6, 116, 9.234390258789062
0, 6, 117, 5.98705530166626
0, 6, 118, 10.91835784912109
0, 6, 119, 11.47153663635254
0, 6, 120, 5.274779319763184
0, 6, 121, 6.571820259094238
0, 6, 122, 8.12169075012207
0, 6, 123, 3.810988187789917
0, 6, 124, 5.571036338806152
0, 6, 125, 7.00023889541626
0, 6, 126, 5.160304069519043
0, 6, 127, 8.006657600402832
0, 7, 0, 3.601735353469849
0, 7, 1, 3.633607149124146
0, 7, 2, 5.730301380157471
0, 7, 3, 5.048483848571777
0, 7, 4, 10.384934425354
0, 7, 5, 3.635950803756714
0, 7, 6, 6.496338844299316
0, 7, 7, 4.228657245635986
0, 7, 8, 6.102914810180664
0, 7, 9, 9.734158515930176
0, 7, 10, 7.949991703033447
0, 7, 11, 11.83768367767334
0, 7, 12, 10.57061958312988
0, 7, 13, 10.24841499328613
0, 7, 14, 10.88272285461426
0, 7, 15, 16.60636901855469
0, 7, 16, 25.90995979309082
0, 7, 17, 97.53694915771484
0, 7, 18, 220.7666473388672
0, 7, 19, 290.4727783203125
0, 7, 20, 299.1304931640625
0, 7, 21, 276.4008483886719
0, 7, 22, 300.6847229003906
0, 7, 23, 291.2447204589844
0, 7, 24, 311.6781311035156
0, 7, 25, 326.4168395996094
0, 7, 26, 277.0800170898438
0, 7, 27, 297.6978149414062
0, 7, 28, 328.8861083984375
0, 7, 29, 318.6748352050781
0, 7, 30, 299.572265625
0, 7, 31, 279.4678649902344
0, 7, 32, 304.4263610839844
0, 7, 33, 265.8072509765625
0, 7, 34, 298.3418579101562
0, 7, 35, 320.0181274414062
0, 7, 36, 332.992919921875
0, 7, 37, 324.7907104492188
0, 7, 38, 296.0803527832031
0, 7, 39, 305.0156555175781
0, 7, 40, 289.2875671386719
0, 7, 41, 270.4598693847656
0, 7, 42, 300.6735534667969
0, 7, 43, 275.7947082519531
0, 7, 44, 302.9723205566406
0, 7, 45, 296.576171875
0, 7, 46, 281.8629150390625
0, 7, 47, 327.3663024902344
0, 7, 48, 287.575439453125
0, 7, 49, 301.2188415527344
0, 7, 50, 321.1898193359375
0, 7, 51, 298.5853881835938
0, 7, 52, 328.255859375
0, 7, 53, 309.1453247070312
0, 7, 54, 323.808349609375
0, 7, 55, 306.6205749511719
0, 7, 56, 280.4161376953125
0, 7, 57, 281.7787170410156
0, 7, 58, 296.4150390625
0, 7, 59, 292.9880981445312
0, 7, 60, 323.3729248046875
0, 7, 61, 276.537109375
0, 7, 62, 297.3346557617188
0, 7, 63, 295.4469909667969
0, 7, 64, 308.2002563476562
0, 7, 65, 332.4795532226562
0, 7, 66, 318.6646728515625
0, 7, 67, 303.6924133300781
0, 7, 68, 279.2273254394531
0, 7, 69, 294.217529296875
0, 7, 70, 301.5523986816406
0, 7, 71, 309.8918762207031
0, 7, 72, 284.4744262695312
0, 7, 73, 296.3549194335938
0, 7, 74, 343.8357849121094
0, 7, 75, 318.2970886230469
0, 7, 76, 323.5903015136719
0, 7, 77, 282.0482177734375
0, 7, 78, 300.740966796875
0, 7, 79, 298.662353515625
0, 7, 80, 311.3402099609375
0, 7, 81, 318.890380859375
0, 7, 82, 328.9457092285156
0, 7, 83, 316.4498291015625
0, 7, 84, 310.832275390625
0, 7, 85, 272.0254516601562
0, 7, 86, 310.5873107910156
0, 7, 87, 310.2185668945312
0, 7, 88, 306.4137878417969
0, 7, 89, 292.7982788085938
0, 7, 90, 308.110107421875
0, 7, 91, 313.8459777832031
0, 7, 92, 286.4754028320312
0, 7, 93, 307.9090576171875
0, 7, 94, 272.2845764160156
0, 7, 95, 296.8241882324219
0, 7, 96, 330.9412536621094
0, 7, 97, 294.1355895996094
0, 7, 98, 292.8955688476562
0, 7, 99, 313.8268737792969
0, 7, 100, 283.9443664550781
0, 7, 101, 274.1456909179688
0, 7, 102, 289.5955810546875
0, 7, 103, 291.5090026855469
0, 7, 104, 275.6026916503906
0, 7, 105, 307.4201965332031
0, 7, 106, 317.8730773925781
0, 7, 107, 298.1571044921875
0, 7, 108, 274.56884765625
0, 7, 109, 236.7407989501953
0, 7, 110, 96.66944885253906
0, 7, 111, 25.15986061096191
0, 7, 112, 12.6135425567627
0, 7, 113, 14.95586395263672
0, 7, 114, 14.9353494644165
0, 7, 115, 12.68036365509033
0, 7, 116, 11.03322982788086
0, 7, 117, 4.855315208435059
0, 7, 118, 8.023952484130859
0, 7, 119, 7.219287395477295
0, 7, 120, 5.44101095199585
0, 7, 121, 6.830307960510254
0, 7, 122, 5.185390949249268
0, 7, 123, 5.761071681976318
0, 7, 124, 3.615841150283813
0, 7, 125, 6.458720207214355
0, 7, 126, 7.021090984344482
0, 7, 127, 2.951740026473999
0, 8, 0, 4.705044746398926
0, 8, 1, 3.950490236282349
0, 8, 2, 3.803746938705444
0, 8, 3, 2.595876932144165
0, 8, 4, 5.520613670349121
0, 8, 5, 4.242609977722168
0, 8, 6, 5.913796901702881
0, 8, 7, 4.682012557983398
0, 8, 8, 7.869052410125732
0, 8, 9, 4.748896598815918
0, 8, 10, 7.334651947021484
0, 8, 11, 11.62666797637939
0, 8, 12, 14.86373901367188
0, 8, 13, 16.86999320983887
0, 8, 14, 15.01714515686035
0, 8, 15, 17.02890968322754
0, 8, 16, 33.5921630859375
0, 8, 17, 130.7715454101562
0, 8, 18, 242.3207550048828
0, 8, 19, 297.1621398925781
0, 8, 20, 285.7416076660156
0, 8, 21, 305.7453002929688
0, 8, 22, 294.5912780761719
0, 8, 23, 274.7409973144531
0, 8, 24, 268.00341796875
0, 8, 25, 273.6235961914062
0, 8, 26, 305.4760131835938
0, 8, 27, 308.5571899414062
0, 8, 28, 306.283447265625
0, 8, 29, 318.3439025878906
0, 8, 30, 313.9418640136719
0, 8, 31, 305.2440185546875
0, 8, 32, 282.12353515625
0, 8, 33, 295.0821533203125
0, 8, 34, 289.7789611816406
0, 8, 35, 280.1853942871094
0, 8, 36, 314.265625
0, 8, 37, 339.7765808105469
0, 8, 38, 334.0436706542969
0, 8, 39, 281.792724609375
0, 8, 40, 305.4935302734375
0, 8, 41, 289.6349182128906
