# TOPAS Version: 3.1.p3
# Parameter File: batch_inserts_126.txt
# Results for scorer Readout_Adipose
# Scored in component: MyBox
# X in 1 bin  of 0.75 cm
# Y in 512 bins of 0.0783984 cm
# Z in 128 bins of 0.078125 cm
# EnergyDeposit ( MeV ) : Sum   
0, 0, 0, 4.801862239837646
0, 0, 1, 1.758336067199707
0, 0, 2, 4.8858962059021
0, 0, 3, 1.066943049430847
0, 0, 4, 4.031311511993408
0, 0, 5, 3.033648490905762
0, 0, 6, 6.42537784576416
0, 0, 7, 8.331382751464844
0, 0, 8, 2.713394403457642
0, 0, 9, 4.714229583740234
0, 0, 10, 6.00888204574585
0, 0, 11, 5.930499076843262
0, 0, 12, 4.298562049865723
0, 0, 13, 6.848110675811768
0, 0, 14, 7.424943447113037
0, 0, 15, 10.82138156890869
0, 0, 16, 10.01207256317139
0, 0, 17, 9.075399398803711
0, 0, 18, 12.0766019821167
0, 0, 19, 44.61092758178711
0, 0, 20, 140.3235626220703
0, 0, 21, 223.4367065429688
0, 0, 22, 248.2165374755859
0, 0, 23, 255.6009063720703
0, 0, 24, 250.2396087646484
0, 0, 25, 257.8412475585938
0, 0, 26, 235.2724304199219
0, 0, 27, 238.4179077148438
0, 0, 28, 271.382080078125
0, 0, 29, 251.1432189941406
0, 0, 30, 231.3897705078125
0, 0, 31, 243.975341796875
0, 0, 32, 263.6800231933594
0, 0, 33, 262.5569763183594
0, 0, 34, 289.0632019042969
0, 0, 35, 268.0848999023438
0, 0, 36, 246.6325988769531
0, 0, 37, 254.0765991210938
0, 0, 38, 269.5457458496094
0, 0, 39, 228.9595184326172
0, 0, 40, 241.37841796875
0, 0, 41, 265.4989929199219
0, 0, 42, 227.8910827636719
0, 0, 43, 259.979248046875
0, 0, 44, 253.0957183837891
0, 0, 45, 254.5460357666016
0, 0, 46, 243.8758239746094
0, 0, 47, 253.4920654296875
0, 0, 48, 268.0705261230469
0, 0, 49, 275.4084167480469
0, 0, 50, 251.6736450195312
0, 0, 51, 255.0699615478516
0, 0, 52, 274.2829895019531
0, 0, 53, 293.7434692382812
0, 0, 54, 240.9019165039062
0, 0, 55, 240.2565612792969
0, 0, 56, 278.3515930175781
0, 0, 57, 260.7984313964844
0, 0, 58, 244.6024780273438
0, 0, 59, 270.5910949707031
0, 0, 60, 236.4384765625
0, 0, 61, 244.5856170654297
0, 0, 62, 257.8830261230469
0, 0, 63, 269.5170288085938
0, 0, 64, 255.4706573486328
0, 0, 65, 260.4680480957031
0, 0, 66, 276.3564147949219
0, 0, 67, 246.8107604980469
0, 0, 68, 258.9253540039062
0, 0, 69, 261.5353088378906
0, 0, 70, 272.0866088867188
0, 0, 71, 237.1494598388672
0, 0, 72, 249.65478515625
0, 0, 73, 259.4655151367188
0, 0, 74, 252.8143005371094
0, 0, 75, 242.3016662597656
0, 0, 76, 228.8236389160156
0, 0, 77, 259.2050476074219
0, 0, 78, 256.4293823242188
0, 0, 79, 280.2343139648438
0, 0, 80, 214.6695251464844
0, 0, 81, 266.0432434082031
0, 0, 82, 257.4357604980469
0, 0, 83, 245.9268493652344
0, 0, 84, 269.4659729003906
0, 0, 85, 230.9366760253906
0, 0, 86, 254.9905853271484
0, 0, 87, 250.9395141601562
0, 0, 88, 261.2667541503906
0, 0, 89, 284.6879272460938
0, 0, 90, 244.1260986328125
0, 0, 91, 283.0432739257812
0, 0, 92, 254.6860656738281
0, 0, 93, 249.1898651123047
0, 0, 94, 247.9045257568359
0, 0, 95, 248.1037750244141
0, 0, 96, 275.6798706054688
0, 0, 97, 274.6186828613281
0, 0, 98, 272.8421936035156
0, 0, 99, 259.0727233886719
0, 0, 100, 258.2324829101562
0, 0, 101, 227.0333099365234
0, 0, 102, 235.0527038574219
0, 0, 103, 268.6737365722656
0, 0, 104, 254.5995635986328
0, 0, 105, 252.6199340820312
0, 0, 106, 246.0221710205078
0, 0, 107, 151.4266510009766
0, 0, 108, 40.14284515380859
0, 0, 109, 11.76598167419434
0, 0, 110, 12.28317165374756
0, 0, 111, 9.626003265380859
0, 0, 112, 7.749515533447266
0, 0, 113, 4.738709926605225
0, 0, 114, 6.076292991638184
0, 0, 115, 5.866898059844971
0, 0, 116, 5.833212375640869
0, 0, 117, 5.834006309509277
0, 0, 118, 6.113224506378174
0, 0, 119, 3.347392320632935
0, 0, 120, 3.744892358779907
0, 0, 121, 4.110595226287842
0, 0, 122, 3.415500164031982
0, 0, 123, 3.430822134017944
0, 0, 124, 6.12457799911499
0, 0, 125, 3.473446607589722
0, 0, 126, 4.340635776519775
0, 0, 127, 2.25609302520752
0, 1, 0, 6.540380477905273
0, 1, 1, 3.211137056350708
0, 1, 2, 3.996081352233887
0, 1, 3, 1.725117206573486
0, 1, 4, 2.469286680221558
0, 1, 5, 5.067418575286865
0, 1, 6, 6.525181770324707
0, 1, 7, 5.216536998748779
0, 1, 8, 6.814646244049072
0, 1, 9, 4.354435443878174
0, 1, 10, 6.770758152008057
0, 1, 11, 11.78277969360352
0, 1, 12, 9.322328567504883
0, 1, 13, 8.94959831237793
0, 1, 14, 7.502684116363525
0, 1, 15, 7.337373733520508
0, 1, 16, 11.5149564743042
0, 1, 17, 10.01359748840332
0, 1, 18, 21.36684417724609
0, 1, 19, 66.910888671875
0, 1, 20, 199.0461273193359
0, 1, 21, 257.1752319335938
0, 1, 22, 297.5267028808594
0, 1, 23, 282.8324584960938
0, 1, 24, 277.1189575195312
0, 1, 25, 287.9652099609375
0, 1, 26, 267.82421875
0, 1, 27, 306.135009765625
0, 1, 28, 298.1991882324219
0, 1, 29, 295.1026000976562
0, 1, 30, 280.5871276855469
0, 1, 31, 291.0357971191406
0, 1, 32, 289.9100036621094
0, 1, 33, 294.7247009277344
0, 1, 34, 296.1164855957031
0, 1, 35, 279.2839050292969
0, 1, 36, 308.3960571289062
0, 1, 37, 294.9447937011719
0, 1, 38, 281.7611999511719
0, 1, 39, 295.2781677246094
0, 1, 40, 266.0511779785156
0, 1, 41, 286.1630554199219
0, 1, 42, 290.5631408691406
0, 1, 43, 335.5119934082031
0, 1, 44, 276.49072265625
0, 1, 45, 294.0958862304688
0, 1, 46, 259.9851379394531
0, 1, 47, 309.6376647949219
0, 1, 48, 284.6782836914062
0, 1, 49, 303.0639038085938
0, 1, 50, 265.314697265625
0, 1, 51, 273.2076110839844
0, 1, 52, 294.558349609375
0, 1, 53, 303.3013000488281
0, 1, 54, 273.9066772460938
0, 1, 55, 294.9425659179688
0, 1, 56, 277.9847717285156
0, 1, 57, 297.5473937988281
0, 1, 58, 310.2800598144531
0, 1, 59, 292.1280822753906
0, 1, 60, 297.45654296875
0, 1, 61, 275.5574035644531
0, 1, 62, 310.6124267578125
0, 1, 63, 286.9974670410156
0, 1, 64, 290.0202026367188
0, 1, 65, 296.2494506835938
0, 1, 66, 292.2308044433594
0, 1, 67, 290.1701965332031
0, 1, 68, 277.2470397949219
0, 1, 69, 278.9520568847656
0, 1, 70, 270.6546630859375
0, 1, 71, 273.3571166992188
0, 1, 72, 285.8551025390625
0, 1, 73, 302.773193359375
0, 1, 74, 305.6911315917969
0, 1, 75, 293.7309875488281
0, 1, 76, 285.9211730957031
0, 1, 77, 289.9256286621094
0, 1, 78, 299.2379760742188
0, 1, 79, 300.4425048828125
0, 1, 80, 295.0316162109375
0, 1, 81, 299.2673645019531
0, 1, 82, 283.8798217773438
0, 1, 83, 331.6044311523438
0, 1, 84, 308.5677795410156
0, 1, 85, 253.8691864013672
0, 1, 86, 293.4161987304688
0, 1, 87, 289.3259887695312
0, 1, 88, 298.8981323242188
0, 1, 89, 289.8999328613281
0, 1, 90, 272.4459228515625
0, 1, 91, 318.697998046875
0, 1, 92, 291.919677734375
0, 1, 93, 286.6716003417969
0, 1, 94, 302.4908447265625
0, 1, 95, 285.1712646484375
0, 1, 96, 284.0278015136719
0, 1, 97, 305.7867126464844
0, 1, 98, 278.4961242675781
0, 1, 99, 267.5126953125
0, 1, 100, 277.3849487304688
0, 1, 101, 281.61376953125
0, 1, 102, 277.3511657714844
0, 1, 103, 281.9930419921875
0, 1, 104, 306.1690673828125
0, 1, 105, 297.5816955566406
0, 1, 106, 261.3045959472656
0, 1, 107, 191.0671691894531
0, 1, 108, 82.61708068847656
0, 1, 109, 24.30500221252441
0, 1, 110, 12.87846565246582
0, 1, 111, 8.80506706237793
0, 1, 112, 15.58914566040039
0, 1, 113, 8.091814994812012
0, 1, 114, 5.896867275238037
0, 1, 115, 5.087067127227783
0, 1, 116, 9.951411247253418
0, 1, 117, 6.370311737060547
0, 1, 118, 6.315570831298828
0, 1, 119, 3.7444167137146
0, 1, 120, 5.542969226837158
0, 1, 121, 3.653738737106323
0, 1, 122, 3.200008392333984
0, 1, 123, 3.058931112289429
0, 1, 124, 7.567879199981689
0, 1, 125, 2.997626066207886
0, 1, 126, 3.190795660018921
0, 1, 127, 0.7459710240364075
0, 2, 0, 4.264381408691406
0, 2, 1, 2.253099679946899
0, 2, 2, 3.255233764648438
0, 2, 3, 5.99029016494751
0, 2, 4, 3.694099187850952
0, 2, 5, 3.792531490325928
0, 2, 6, 2.039648771286011
0, 2, 7, 5.382997512817383
0, 2, 8, 4.658742427825928
0, 2, 9, 5.666200637817383
0, 2, 10, 6.794309139251709
0, 2, 11, 6.292191028594971
0, 2, 12, 7.314371585845947
0, 2, 13, 9.227980613708496
0, 2, 14, 10.64892101287842
0, 2, 15, 10.37167263031006
0, 2, 16, 9.989983558654785
0, 2, 17, 15.54932594299316
0, 2, 18, 31.53470039367676
0, 2, 19, 114.7928314208984
0, 2, 20, 248.2705535888672
0, 2, 21, 270.5476379394531
0, 2, 22, 316.66015625
0, 2, 23, 300.1357116699219
0, 2, 24, 286.5637817382812
0, 2, 25, 303.2982177734375
0, 2, 26, 293.4750366210938
0, 2, 27, 275.3507385253906
0, 2, 28, 272.3756103515625
0, 2, 29, 274.813720703125
0, 2, 30, 290.1367797851562
0, 2, 31, 277.4621887207031
0, 2, 32, 293.2162780761719
0, 2, 33, 282.697998046875
0, 2, 34, 334.8568725585938
0, 2, 35, 288.3139953613281
0, 2, 36, 303.6401062011719
0, 2, 37, 314.1360778808594
0, 2, 38, 311.0311584472656
0, 2, 39, 266.6619873046875
0, 2, 40, 307.8412780761719
0, 2, 41, 293.1622619628906
0, 2, 42, 303.502685546875
0, 2, 43, 313.0480651855469
0, 2, 44, 312.4801635742188
0, 2, 45, 324.3745422363281
0, 2, 46, 288.9925231933594
0, 2, 47, 301.8748168945312
0, 2, 48, 279.7936096191406
0, 2, 49, 278.7705993652344
0, 2, 50, 295.3903503417969
0, 2, 51, 282.2351989746094
0, 2, 52, 273.6295471191406
0, 2, 53, 285.5954284667969
0, 2, 54, 280.3481750488281
0, 2, 55, 276.4665222167969
0, 2, 56, 300.95751953125
0, 2, 57, 290.7800598144531
0, 2, 58, 300.362548828125
0, 2, 59, 290.8193969726562
0, 2, 60, 319.9278869628906
0, 2, 61, 301.8969421386719
0, 2, 62, 313.3804626464844
0, 2, 63, 302.506591796875
0, 2, 64, 295.4343872070312
0, 2, 65, 312.3030395507812
0, 2, 66, 280.9645385742188
0, 2, 67, 292.5051879882812
0, 2, 68, 295.7162780761719
0, 2, 69, 311.9112548828125
0, 2, 70, 335.1863098144531
0, 2, 71, 286.5260620117188
0, 2, 72, 302.9806518554688
0, 2, 73, 311.5880432128906
0, 2, 74, 285.8372802734375
0, 2, 75, 307.0546875
0, 2, 76, 290.0121459960938
0, 2, 77, 300.3145141601562
0, 2, 78, 315.1018371582031
0, 2, 79, 306.8531799316406
0, 2, 80, 295.2852172851562
0, 2, 81, 284.06982421875
0, 2, 82, 318.7948608398438
0, 2, 83, 312.3237915039062
0, 2, 84, 288.7027893066406
0, 2, 85, 280.4792785644531
0, 2, 86, 323.3191833496094
0, 2, 87, 287.9559936523438
0, 2, 88, 279.8614501953125
0, 2, 89, 298.6231384277344
0, 2, 90, 296.4480895996094
0, 2, 91, 276.7177429199219
0, 2, 92, 305.933349609375
0, 2, 93, 318.2827453613281
0, 2, 94, 290.5344543457031
0, 2, 95, 316.3798522949219
0, 2, 96, 315.8169250488281
0, 2, 97, 290.169921875
0, 2, 98, 295.8934631347656
0, 2, 99, 274.0215454101562
0, 2, 100, 308.2005920410156
0, 2, 101, 301.8603210449219
0, 2, 102, 296.5481872558594
0, 2, 103, 294.4659118652344
0, 2, 104, 291.5640563964844
0, 2, 105, 273.3321533203125
0, 2, 106, 298.0885314941406
0, 2, 107, 269.6712951660156
0, 2, 108, 117.2065734863281
0, 2, 109, 32.49685668945312
0, 2, 110, 9.797277450561523
0, 2, 111, 11.33944320678711
0, 2, 112, 8.28164005279541
0, 2, 113, 10.65765762329102
0, 2, 114, 11.01998233795166
0, 2, 115, 8.462563514709473
0, 2, 116, 9.626348495483398
0, 2, 117, 7.827873706817627
0, 2, 118, 3.248560190200806
0, 2, 119, 2.89603328704834
0, 2, 120, 7.263521194458008
0, 2, 121, 2.712118864059448
0, 2, 122, 5.483405590057373
0, 2, 123, 4.328325271606445
0, 2, 124, 3.321889877319336
0, 2, 125, 7.577110767364502
0, 2, 126, 4.157543659210205
0, 2, 127, 4.17710542678833
0, 3, 0, 4.791790008544922
0, 3, 1, 2.885310888290405
0, 3, 2, 3.888837099075317
0, 3, 3, 1.769982695579529
0, 3, 4, 2.939531803131104
0, 3, 5, 8.963481903076172
0, 3, 6, 6.330714225769043
0, 3, 7, 5.383159637451172
0, 3, 8, 4.122989654541016
0, 3, 9, 5.731237411499023
0, 3, 10, 7.56824779510498
0, 3, 11, 6.822135448455811
0, 3, 12, 8.949253082275391
0, 3, 13, 14.99587059020996
0, 3, 14, 13.85334873199463
0, 3, 15, 14.53492546081543
0, 3, 16, 12.84961223602295
0, 3, 17, 21.48293685913086
0, 3, 18, 54.1768684387207
0, 3, 19, 175.0531768798828
0, 3, 20, 268.7856750488281
0, 3, 21, 269.79296875
0, 3, 22, 282.9912109375
0, 3, 23, 286.4515075683594
0, 3, 24, 287.3691711425781
0, 3, 25, 269.9811706542969
0, 3, 26, 302.9603576660156
0, 3, 27, 292.1643981933594
0, 3, 28, 278.8880310058594
0, 3, 29, 338.2054748535156
0, 3, 30, 316.0903625488281
0, 3, 31, 287.3887023925781
0, 3, 32, 306.7473449707031
0, 3, 33, 312.9899597167969
0, 3, 34, 320.7718811035156
0, 3, 35, 307.3811340332031
0, 3, 36, 270.8609313964844
0, 3, 37, 312.3829650878906
0, 3, 38, 302.6808776855469
0, 3, 39, 293.0746154785156
0, 3, 40, 265.3393249511719
0, 3, 41, 301.8925170898438
0, 3, 42, 284.1735534667969
0, 3, 43, 307.6473693847656
0, 3, 44, 309.2010498046875
0, 3, 45, 289.3049011230469
0, 3, 46, 327.1657409667969
0, 3, 47, 302.2257690429688
0, 3, 48, 305.4008483886719
0, 3, 49, 279.9899597167969
0, 3, 50, 289.6990966796875
0, 3, 51, 274.4999389648438
0, 3, 52, 316.7019958496094
0, 3, 53, 288.5254516601562
0, 3, 54, 283.7061157226562
0, 3, 55, 285.1988220214844
0, 3, 56, 298.7886352539062
0, 3, 57, 290.6092224121094
0, 3, 58, 305.9403991699219
0, 3, 59, 293.0860900878906
0, 3, 60, 298.8094482421875
0, 3, 61, 266.3678283691406
0, 3, 62, 285.5614318847656
0, 3, 63, 307.539794921875
0, 3, 64, 315.9058227539062
0, 3, 65, 304.9403076171875
0, 3, 66, 315.8223266601562
0, 3, 67, 318.0083923339844
0, 3, 68, 279.6672973632812
0, 3, 69, 282.9981079101562
0, 3, 70, 288.8524475097656
0, 3, 71, 302.7376098632812
0, 3, 72, 270.7552795410156
0, 3, 73, 307.8529663085938
0, 3, 74, 291.2823791503906
0, 3, 75, 289.0887451171875
0, 3, 76, 306.3053283691406
0, 3, 77, 312.9467163085938
0, 3, 78, 304.6438598632812
0, 3, 79, 283.427978515625
0, 3, 80, 290.5387268066406
0, 3, 81, 312.5110168457031
0, 3, 82, 316.1092834472656
0, 3, 83, 301.0962219238281
0, 3, 84, 317.3868713378906
0, 3, 85, 292.8904724121094
0, 3, 86, 302.0380859375
0, 3, 87, 297.6237182617188
0, 3, 88, 299.2263793945312
0, 3, 89, 296.71337890625
0, 3, 90, 278.4755859375
0, 3, 91, 285.0788879394531
0, 3, 92, 304.3141479492188
0, 3, 93, 313.1004638671875
0, 3, 94, 297.9051513671875
0, 3, 95, 334.4277954101562
0, 3, 96, 289.3495178222656
0, 3, 97, 281.4589233398438
0, 3, 98, 278.436767578125
0, 3, 99, 262.1592102050781
0, 3, 100, 284.0679626464844
0, 3, 101, 297.9230346679688
0, 3, 102, 276.1661071777344
0, 3, 103, 322.2292785644531
0, 3, 104, 308.7997131347656
0, 3, 105, 287.84326171875
0, 3, 106, 302.1133728027344
0, 3, 107, 283.7293701171875
0, 3, 108, 166.9566650390625
0, 3, 109, 57.65533065795898
0, 3, 110, 17.74491500854492
0, 3, 111, 13.01539421081543
0, 3, 112, 11.56969165802002
0, 3, 113, 8.616741180419922
0, 3, 114, 9.93072509765625
0, 3, 115, 7.397078990936279
0, 3, 116, 8.571150779724121
0, 3, 117, 7.155660629272461
0, 3, 118, 10.37527751922607
0, 3, 119, 3.487495899200439
0, 3, 120, 7.903320789337158
0, 3, 121, 3.34485125541687
0, 3, 122, 2.784866809844971
0, 3, 123, 6.690400123596191
0, 3, 124, 5.989185810089111
0, 3, 125, 4.580556392669678
0, 3, 126, 5.001156330108643
0, 3, 127, 2.116229057312012
0, 4, 0, 6.370178699493408
0, 4, 1, 5.91215991973877
0, 4, 2, 4.239964962005615
0, 4, 3, 3.473350048065186
0, 4, 4, 5.216420650482178
0, 4, 5, 7.910328388214111
0, 4, 6, 5.547528266906738
0, 4, 7, 6.187254905700684
0, 4, 8, 3.583591461181641
0, 4, 9, 7.605669975280762
0, 4, 10, 5.876134395599365
0, 4, 11, 7.064249038696289
0, 4, 12, 5.939662933349609
0, 4, 13, 7.653303146362305
0, 4, 14, 11.81052494049072
0, 4, 15, 7.467983245849609
0, 4, 16, 12.92025566101074
0, 4, 17, 19.09201812744141
0, 4, 18, 92.63397979736328
0, 4, 19, 223.1273345947266
0, 4, 20, 285.7077941894531
0, 4, 21, 273.9198303222656
0, 4, 22, 304.5691223144531
0, 4, 23, 266.8036804199219
0, 4, 24, 289.4254455566406
0, 4, 25, 273.1430358886719
0, 4, 26, 294.5241088867188
0, 4, 27, 282.5902709960938
0, 4, 28, 309.1742858886719
0, 4, 29, 322.9454345703125
0, 4, 30, 309.288818359375
0, 4, 31, 304.7792053222656
0, 4, 32, 280.8677673339844
0, 4, 33, 295.9712829589844
0, 4, 34, 296.7463989257812
0, 4, 35, 312.5159301757812
0, 4, 36, 290.5942077636719
0, 4, 37, 290.5019836425781
0, 4, 38, 302.6774291992188
0, 4, 39, 295.465576171875
0, 4, 40, 304.610595703125
0, 4, 41, 310.5081481933594
0, 4, 42, 329.3222045898438
0, 4, 43, 295.0008239746094
0, 4, 44, 320.0793151855469
0, 4, 45, 323.7799987792969
0, 4, 46, 305.2438354492188
0, 4, 47, 293.2889404296875
0, 4, 48, 294.1842651367188
0, 4, 49, 278.5509033203125
0, 4, 50, 295.8716735839844
0, 4, 51, 319.3515930175781
0, 4, 52, 325.9975891113281
0, 4, 53, 303.5311584472656
0, 4, 54, 288.5506591796875
0, 4, 55, 314.5707397460938
0, 4, 56, 287.4895935058594
0, 4, 57, 312.8883972167969
0, 4, 58, 295.1382446289062
0, 4, 59, 308.7672424316406
0, 4, 60, 304.3380126953125
0, 4, 61, 316.4424133300781
0, 4, 62, 308.5208435058594
0, 4, 63, 298.3434753417969
0, 4, 64, 330.0991821289062
0, 4, 65, 319.4313049316406
0, 4, 66, 292.9686889648438
0, 4, 67, 286.5851440429688
0, 4, 68, 312.1550598144531
0, 4, 69, 277.6250610351562
0, 4, 70, 301.1155700683594
0, 4, 71, 323.934326171875
0, 4, 72, 331.73388671875
0, 4, 73, 300.0951232910156
0, 4, 74, 293.7544555664062
0, 4, 75, 289.1033325195312
0, 4, 76, 275.6943969726562
0, 4, 77, 278.6004638671875
0, 4, 78, 307.490478515625
0, 4, 79, 318.44921875
0, 4, 80, 318.322021484375
0, 4, 81, 311.7594909667969
0, 4, 82, 297.3222045898438
0, 4, 83, 301.1053466796875
0, 4, 84, 288.79736328125
0, 4, 85, 295.349365234375
0, 4, 86, 296.386962890625
0, 4, 87, 285.287841796875
0, 4, 88, 305.3712158203125
0, 4, 89, 294.0973815917969
0, 4, 90, 332.7780456542969
0, 4, 91, 303.3632507324219
0, 4, 92, 289.4504089355469
0, 4, 93, 297.8536071777344
0, 4, 94, 291.7806701660156
0, 4, 95, 290.2408752441406
0, 4, 96, 322.1573791503906
0, 4, 97, 277.006103515625
0, 4, 98, 327.0676574707031
0, 4, 99, 314.1171264648438
0, 4, 100, 300.1997680664062
0, 4, 101, 258.4546203613281
0, 4, 102, 295.0788879394531
0, 4, 103, 318.5141296386719
0, 4, 104, 282.4931945800781
0, 4, 105, 310.3564758300781
0, 4, 106, 286.6412658691406
0, 4, 107, 297.1234436035156
0, 4, 108, 225.2455444335938
0, 4, 109, 78.95652008056641
0, 4, 110, 16.45142936706543
0, 4, 111, 13.50194454193115
0, 4, 112, 9.566802978515625
0, 4, 113, 9.086139678955078
0, 4, 114, 9.356221199035645
0, 4, 115, 8.889204025268555
0, 4, 116, 7.624195098876953
0, 4, 117, 6.452298164367676
0, 4, 118, 11.96326446533203
0, 4, 119, 11.13122081756592
0, 4, 120, 5.317140579223633
0, 4, 121, 5.299732208251953
0, 4, 122, 3.434044361114502
0, 4, 123, 6.027112007141113
0, 4, 124, 6.27175760269165
0, 4, 125, 8.528180122375488
0, 4, 126, 5.633972644805908
0, 4, 127, 4.314249992370605
0, 5, 0, 2.790553331375122
0, 5, 1, 4.575414657592773
0, 5, 2, 5.154703617095947
0, 5, 3, 3.519158124923706
0, 5, 4, 6.854377746582031
0, 5, 5, 8.372465133666992
0, 5, 6, 7.22324800491333
0, 5, 7, 5.574784278869629
0, 5, 8, 3.570283889770508
0, 5, 9, 5.039642810821533
0, 5, 10, 6.905072212219238
0, 5, 11, 9.480636596679688
0, 5, 12, 8.772265434265137
0, 5, 13, 6.267546653747559
0, 5, 14, 13.14373588562012
0, 5, 15, 16.15152359008789
0, 5, 16, 14.03757286071777
0, 5, 17, 28.10416793823242
0, 5, 18, 135.4197540283203
0, 5, 19, 289.905029296875
0, 5, 20, 307.1508178710938
0, 5, 21, 317.6785583496094
0, 5, 22, 275.6240539550781
0, 5, 23, 310.7035827636719
0, 5, 24, 301.5823059082031
0, 5, 25, 289.0467224121094
0, 5, 26, 294.5525817871094
0, 5, 27, 323.0947570800781
0, 5, 28, 306.3186645507812
0, 5, 29, 296.3432312011719
0, 5, 30, 324.6493835449219
0, 5, 31, 285.8924255371094
0, 5, 32, 302.505615234375
0, 5, 33, 306.4521789550781
0, 5, 34, 295.1240539550781
0, 5, 35, 308.4996948242188
0, 5, 36, 271.06103515625
0, 5, 37, 283.7044067382812
0, 5, 38, 292.3128662109375
0, 5, 39, 316.5913696289062
0, 5, 40, 308.0513916015625
0, 5, 41, 273.4044494628906
0, 5, 42, 304.6191711425781
0, 5, 43, 314.7842407226562
0, 5, 44, 292.9942932128906
0, 5, 45, 301.5366821289062
0, 5, 46, 266.7146301269531
0, 5, 47, 280.560302734375
0, 5, 48, 296.0062561035156
0, 5, 49, 286.4241943359375
0, 5, 50, 293.7579650878906
0, 5, 51, 280.1317138671875
0, 5, 52, 269.3977966308594
0, 5, 53, 287.8540954589844
0, 5, 54, 293.0931701660156
0, 5, 55, 344.6427612304688
0, 5, 56, 307.3371276855469
0, 5, 57, 307.65771484375
0, 5, 58, 312.5240783691406
0, 5, 59, 302.8573913574219
0, 5, 60, 307.4693603515625
0, 5, 61, 280.7925109863281
0, 5, 62, 322.2530517578125
0, 5, 63, 293.5054016113281
0, 5, 64, 327.912841796875
0, 5, 65, 307.9866943359375
0, 5, 66, 327.0199890136719
0, 5, 67, 311.92919921875
0, 5, 68, 308.6162109375
0, 5, 69, 310.9095153808594
0, 5, 70, 301.4684753417969
0, 5, 71, 271.2653503417969
0, 5, 72, 309.3361206054688
0, 5, 73, 302.3177490234375
0, 5, 74, 295.6916198730469
0, 5, 75, 294.8519897460938
0, 5, 76, 285.0431213378906
0, 5, 77, 296.9171447753906
0, 5, 78, 316.07177734375
0, 5, 79, 308.5792236328125
0, 5, 80, 294.4797668457031
0, 5, 81, 326.6254272460938
0, 5, 82, 322.4924621582031
0, 5, 83, 280.3603820800781
0, 5, 84, 302.9910583496094
0, 5, 85, 271.8841247558594
0, 5, 86, 324.96875
0, 5, 87, 286.5867004394531
0, 5, 88, 313.768310546875
0, 5, 89, 304.3782958984375
0, 5, 90, 316.4456176757812
0, 5, 91, 315.3849182128906
0, 5, 92, 296.000732421875
0, 5, 93, 325.53857421875
0, 5, 94, 306.7919006347656
0, 5, 95, 295.9679870605469
0, 5, 96, 300.5466003417969
0, 5, 97, 295.8170776367188
0, 5, 98, 318.3199462890625
0, 5, 99, 301.4212951660156
0, 5, 100, 293.5325317382812
0, 5, 101, 304.6311340332031
0, 5, 102, 292.0909729003906
0, 5, 103, 312.94140625
0, 5, 104, 301.0698547363281
0, 5, 105, 292.1035461425781
0, 5, 106, 282.0108947753906
0, 5, 107, 295.131591796875
0, 5, 108, 263.5770568847656
0, 5, 109, 158.1424255371094
0, 5, 110, 38.94609832763672
0, 5, 111, 20.8411865234375
0, 5, 112, 14.98646354675293
0, 5, 113, 15.58746242523193
0, 5, 114, 15.1692943572998
0, 5, 115, 6.807006359100342
0, 5, 116, 7.581064701080322
0, 5, 117, 8.411811828613281
0, 5, 118, 14.8438892364502
0, 5, 119, 5.74251651763916
0, 5, 120, 7.853962898254395
0, 5, 121, 4.617836952209473
0, 5, 122, 7.836213111877441
0, 5, 123, 5.861819744110107
0, 5, 124, 7.497579097747803
0, 5, 125, 4.973567008972168
0, 5, 126, 4.714900016784668
0, 5, 127, 3.504192590713501
0, 6, 0, 4.501808643341064
0, 6, 1, 3.350751876831055
0, 6, 2, 6.098697185516357
0, 6, 3, 6.24077844619751
0, 6, 4, 2.890323400497437
0, 6, 5, 5.054399490356445
0, 6, 6, 6.56773042678833
0, 6, 7, 6.162416934967041
0, 6, 8, 8.984147071838379
0, 6, 9, 6.958430290222168
0, 6, 10, 8.990585327148438
0, 6, 11, 7.233133792877197
0, 6, 12, 8.378392219543457
0, 6, 13, 12.96558856964111
0, 6, 14, 9.201424598693848
0, 6, 15, 17.89830017089844
0, 6, 16, 28.36177635192871
0, 6, 17, 55.50928497314453
0, 6, 18, 172.0822906494141
0, 6, 19, 276.9924621582031
0, 6, 20, 290.1820678710938
0, 6, 21, 314.2709655761719
0, 6, 22, 321.2703247070312
0, 6, 23, 307.0505676269531
0, 6, 24, 316.5792846679688
0, 6, 25, 316.7575378417969
0, 6, 26, 320.8916625976562
0, 6, 27, 330.5850524902344
0, 6, 28, 297.2100524902344
0, 6, 29, 330.3354797363281
0, 6, 30, 279.98095703125
0, 6, 31, 285.4906616210938
0, 6, 32, 341.7495422363281
0, 6, 33, 299.9218139648438
0, 6, 34, 340.5916748046875
0, 6, 35, 320.5579833984375
0, 6, 36, 272.1548461914062
0, 6, 37, 289.1721801757812
0, 6, 38, 312.7641296386719
0, 6, 39, 298.476318359375
0, 6, 40, 290.136962890625
0, 6, 41, 296.7376403808594
0, 6, 42, 306.5676574707031
0, 6, 43, 288.6398620605469
0, 6, 44, 281.97705078125
0, 6, 45, 321.3645324707031
0, 6, 46, 301.4954528808594
0, 6, 47, 331.4127807617188
0, 6, 48, 292.4256591796875
0, 6, 49, 311.72802734375
0, 6, 50, 326.6759338378906
0, 6, 51, 311.6329345703125
0, 6, 52, 320.0743713378906
0, 6, 53, 330.3530578613281
0, 6, 54, 304.8822937011719
0, 6, 55, 305.5567016601562
0, 6, 56, 292.300537109375
0, 6, 57, 313.1178588867188
0, 6, 58, 261.5979309082031
0, 6, 59, 301.9085998535156
0, 6, 60, 312.9851379394531
0, 6, 61, 269.9779052734375
0, 6, 62, 334.9439086914062
0, 6, 63, 321.8118896484375
0, 6, 64, 292.4800415039062
0, 6, 65, 283.9327087402344
0, 6, 66, 302.8573913574219
0, 6, 67, 309.6870422363281
0, 6, 68, 296.5052185058594
0, 6, 69, 278.423095703125
0, 6, 70, 277.8995971679688
0, 6, 71, 289.3218994140625
0, 6, 72, 309.3004455566406
0, 6, 73, 292.0218811035156
0, 6, 74, 329.5335998535156
0, 6, 75, 345.7429809570312
0, 6, 76, 296.4343872070312
0, 6, 77, 287.0438537597656
0, 6, 78, 279.588623046875
0, 6, 79, 292.5125732421875
0, 6, 80, 298.5469970703125
0, 6, 81, 313.4170837402344
0, 6, 82, 319.1676330566406
0, 6, 83, 320.9534606933594
0, 6, 84, 295.4462280273438
0, 6, 85, 300.6646728515625
0, 6, 86, 330.263427734375
0, 6, 87, 290.54443359375
0, 6, 88, 306.3772583007812
0, 6, 89, 306.6084594726562
0, 6, 90, 298.5505065917969
0, 6, 91, 311.0535888671875
0, 6, 92, 286.3789672851562
0, 6, 93, 295.6144104003906
0, 6, 94, 273.2171325683594
0, 6, 95, 298.6865539550781
0, 6, 96, 346.4362487792969
0, 6, 97, 308.3069152832031
0, 6, 98, 300.9141235351562
0, 6, 99, 272.4024047851562
0, 6, 100, 310.9149475097656
0, 6, 101, 293.6793518066406
0, 6, 102, 307.6527099609375
0, 6, 103, 306.6119689941406
0, 6, 104, 293.6851806640625
0, 6, 105, 301.7980346679688
0, 6, 106, 308.4273986816406
0, 6, 107, 306.0257873535156
0, 6, 108, 266.2179260253906
0, 6, 109, 186.8564453125
0, 6, 110, 53.13043594360352
0, 6, 111, 23.52030372619629
0, 6, 112, 12.20301818847656
0, 6, 113, 10.50965881347656
0, 6, 114, 11.47007751464844
0, 6, 115, 12.34011077880859
0, 6, 116, 9.725003242492676
0, 6, 117, 5.732792854309082
0, 6, 118, 8.786291122436523
0, 6, 119, 8.837566375732422
0, 6, 120, 5.275980949401855
0, 6, 121, 5.378242492675781
0, 6, 122, 7.379150390625
0, 6, 123, 4.812201499938965
0, 6, 124, 6.142574310302734
0, 6, 125, 5.968781471252441
0, 6, 126, 7.089826107025146
0, 6, 127, 8.707386016845703
0, 7, 0, 4.057084560394287
0, 7, 1, 4.566948413848877
0, 7, 2, 4.885596752166748
0, 7, 3, 3.808913707733154
0, 7, 4, 6.927901268005371
0, 7, 5, 3.684696912765503
0, 7, 6, 5.520309925079346
0, 7, 7, 4.555264949798584
0, 7, 8, 5.756165504455566
0, 7, 9, 8.386107444763184
0, 7, 10, 7.931011199951172
0, 7, 11, 13.52431678771973
0, 7, 12, 10.47221660614014
0, 7, 13, 13.24716472625732
0, 7, 14, 10.63084125518799
0, 7, 15, 16.82658004760742
0, 7, 16, 26.0034065246582
0, 7, 17, 98.77002716064453
0, 7, 18, 219.8957672119141
0, 7, 19, 288.5305786132812
0, 7, 20, 297.4750366210938
0, 7, 21, 277.426025390625
0, 7, 22, 299.5127563476562
0, 7, 23, 289.2901611328125
0, 7, 24, 313.7501220703125
0, 7, 25, 326.0001831054688
0, 7, 26, 276.7619018554688
0, 7, 27, 299.4803771972656
0, 7, 28, 327.4272155761719
0, 7, 29, 320.121826171875
0, 7, 30, 300.1909484863281
0, 7, 31, 277.0578918457031
0, 7, 32, 307.138916015625
0, 7, 33, 263.3692626953125
0, 7, 34, 297.7205810546875
0, 7, 35, 320.0769348144531
0, 7, 36, 334.0332336425781
0, 7, 37, 321.5314636230469
0, 7, 38, 295.5547790527344
0, 7, 39, 307.24560546875
0, 7, 40, 288.4582824707031
0, 7, 41, 269.6553039550781
0, 7, 42, 301.2644348144531
0, 7, 43, 277.2735595703125
0, 7, 44, 302.8566284179688
0, 7, 45, 295.1526184082031
0, 7, 46, 281.0609436035156
0, 7, 47, 328.1774597167969
0, 7, 48, 286.988037109375
0, 7, 49, 302.8696594238281
0, 7, 50, 322.50244140625
0, 7, 51, 299.0041198730469
0, 7, 52, 325.5926513671875
0, 7, 53, 310.5311584472656
0, 7, 54, 325.25
0, 7, 55, 305.9561767578125
0, 7, 56, 280.5677490234375
0, 7, 57, 285.4371337890625
0, 7, 58, 297.4679870605469
0, 7, 59, 292.8779296875
0, 7, 60, 322.9019775390625
0, 7, 61, 278.869873046875
0, 7, 62, 297.5271911621094
0, 7, 63, 293.4640502929688
0, 7, 64, 304.8521728515625
0, 7, 65, 331.5483093261719
0, 7, 66, 318.5103149414062
0, 7, 67, 301.8257446289062
0, 7, 68, 278.4824829101562
0, 7, 69, 295.1047058105469
0, 7, 70, 303.0979614257812
0, 7, 71, 310.4642028808594
0, 7, 72, 285.1537780761719
0, 7, 73, 296.4854125976562
0, 7, 74, 344.5735473632812
0, 7, 75, 318.2898864746094
0, 7, 76, 324.3573913574219
0, 7, 77, 284.0904541015625
0, 7, 78, 299.4386596679688
0, 7, 79, 297.0588989257812
0, 7, 80, 312.2088317871094
0, 7, 81, 318.6221313476562
0, 7, 82, 332.4394836425781
0, 7, 83, 315.8848266601562
0, 7, 84, 309.7550048828125
0, 7, 85, 272.1469116210938
0, 7, 86, 311.05712890625
0, 7, 87, 309.1131896972656
0, 7, 88, 305.2159118652344
0, 7, 89, 291.7898559570312
0, 7, 90, 307.2762145996094
0, 7, 91, 314.9851989746094
0, 7, 92, 286.1171264648438
0, 7, 93, 308.621337890625
0, 7, 94, 272.5001525878906
0, 7, 95, 295.0041809082031
0, 7, 96, 331.6170654296875
0, 7, 97, 293.3507080078125
0, 7, 98, 290.1848449707031
0, 7, 99, 312.3407592773438
0, 7, 100, 281.0244750976562
0, 7, 101, 275.0347290039062
0, 7, 102, 291.1034851074219
0, 7, 103, 290.9662780761719
0, 7, 104, 275.480224609375
0, 7, 105, 305.7275695800781
0, 7, 106, 317.5303039550781
0, 7, 107, 296.4955139160156
0, 7, 108, 272.3109130859375
0, 7, 109, 236.4760894775391
0, 7, 110, 96.03278350830078
0, 7, 111, 23.86725044250488
0, 7, 112, 14.23796558380127
0, 7, 113, 14.0204906463623
0, 7, 114, 12.10711097717285
0, 7, 115, 13.29507637023926
0, 7, 116, 6.61651611328125
0, 7, 117, 6.519387722015381
0, 7, 118, 7.420199394226074
0, 7, 119, 6.3496413230896
0, 7, 120, 8.675118446350098
0, 7, 121, 5.816930770874023
0, 7, 122, 6.530231475830078
0, 7, 123, 6.212355136871338
0, 7, 124, 2.440552234649658
0, 7, 125, 6.298435688018799
0, 7, 126, 7.142399787902832
0, 7, 127, 5.559782981872559
0, 8, 0, 4.310089111328125
0, 8, 1, 4.193307399749756
0, 8, 2, 4.704109668731689
0, 8, 3, 2.362187623977661
0, 8, 4, 5.882920742034912
0, 8, 5, 3.700647354125977
0, 8, 6, 4.929646492004395
0, 8, 7, 4.810686111450195
0, 8, 8, 6.964602947235107
0, 8, 9, 4.695349216461182
0, 8, 10, 6.072751045227051
0, 8, 11, 12.0528450012207
0, 8, 12, 13.74567890167236
0, 8, 13, 17.65469741821289
0, 8, 14, 15.12433242797852
0, 8, 15, 19.58206558227539
0, 8, 16, 34.93489837646484
0, 8, 17, 131.3910064697266
0, 8, 18, 242.4486694335938
0, 8, 19, 295.4924011230469
0, 8, 20, 285.9059753417969
0, 8, 21, 309.8910827636719
0, 8, 22, 297.1366577148438
0, 8, 23, 274.2723083496094
0, 8, 24, 269.594970703125
0, 8, 25, 277.0030517578125
0, 8, 26, 307.4277648925781
0, 8, 27, 309.4151306152344
0, 8, 28, 304.4095764160156
0, 8, 29, 318.8785095214844
0, 8, 30, 313.9446411132812
0, 8, 31, 304.9543151855469
0, 8, 32, 280.3969116210938
0, 8, 33, 294.6860961914062
0, 8, 34, 288.2423400878906
0, 8, 35, 279.9630126953125
0, 8, 36, 317.5937805175781
0, 8, 37, 338.1519775390625
0, 8, 38, 331.6653137207031
0, 8, 39, 281.0699768066406
0, 8, 40, 305.5759582519531
