# TOPAS Version: 3.1.p3
# Parameter File: batch_inserts_184.txt
# Results for scorer Readout_Adipose
# Scored in component: MyBox
# X in 1 bin  of 0.75 cm
# Y in 512 bins of 0.0783984 cm
# Z in 128 bins of 0.078125 cm
# EnergyDeposit ( MeV ) : Sum   
0, 0, 0, 7.590073585510254
0, 0, 1, 1.789483904838562
0, 0, 2, 4.469336032867432
0, 0, 3, 1.470142841339111
0, 0, 4, 5.485743045806885
0, 0, 5, 3.563742876052856
0, 0, 6, 9.369742393493652
0, 0, 7, 9.074030876159668
0, 0, 8, 1.860971212387085
0, 0, 9, 4.316995620727539
0, 0, 10, 6.079378128051758
0, 0, 11, 4.438154220581055
0, 0, 12, 6.181768417358398
0, 0, 13, 6.462939262390137
0, 0, 14, 6.603161811828613
0, 0, 15, 9.97575855255127
0, 0, 16, 8.665517807006836
0, 0, 17, 9.062539100646973
0, 0, 18, 12.97226333618164
0, 0, 19, 43.96341705322266
0, 0, 20, 139.3359832763672
0, 0, 21, 224.5231018066406
0, 0, 22, 247.8866271972656
0, 0, 23, 255.4918365478516
0, 0, 24, 251.1954345703125
0, 0, 25, 258.0390319824219
0, 0, 26, 235.1970977783203
0, 0, 27, 237.5620422363281
0, 0, 28, 272.6861267089844
0, 0, 29, 251.2559509277344
0, 0, 30, 229.5658874511719
0, 0, 31, 243.4253845214844
0, 0, 32, 263.4874267578125
0, 0, 33, 259.7936096191406
0, 0, 34, 288.5631103515625
0, 0, 35, 266.8482360839844
0, 0, 36, 245.6533203125
0, 0, 37, 253.538330078125
0, 0, 38, 269.4961242675781
0, 0, 39, 228.9741363525391
0, 0, 40, 242.4756774902344
0, 0, 41, 265.4234924316406
0, 0, 42, 228.8211975097656
0, 0, 43, 260.5081176757812
0, 0, 44, 253.0357055664062
0, 0, 45, 254.0643005371094
0, 0, 46, 244.0631561279297
0, 0, 47, 255.3010559082031
0, 0, 48, 266.3563537597656
0, 0, 49, 273.4276123046875
0, 0, 50, 249.7592468261719
0, 0, 51, 257.5591430664062
0, 0, 52, 272.6395568847656
0, 0, 53, 292.6567993164062
0, 0, 54, 241.2533874511719
0, 0, 55, 239.6052093505859
0, 0, 56, 277.4192810058594
0, 0, 57, 263.7135620117188
0, 0, 58, 247.9881896972656
0, 0, 59, 269.9466857910156
0, 0, 60, 235.4338836669922
0, 0, 61, 245.0762023925781
0, 0, 62, 259.1240539550781
0, 0, 63, 269.5263671875
0, 0, 64, 254.8724822998047
0, 0, 65, 260.7730712890625
0, 0, 66, 276.877197265625
0, 0, 67, 247.861083984375
0, 0, 68, 258.3841552734375
0, 0, 69, 260.6501159667969
0, 0, 70, 272.2018432617188
0, 0, 71, 238.9776916503906
0, 0, 72, 249.4199066162109
0, 0, 73, 258.7785034179688
0, 0, 74, 249.8631896972656
0, 0, 75, 242.3510131835938
0, 0, 76, 227.6099853515625
0, 0, 77, 259.2351684570312
0, 0, 78, 256.6717224121094
0, 0, 79, 279.2644958496094
0, 0, 80, 216.3656311035156
0, 0, 81, 267.2257080078125
0, 0, 82, 255.5500946044922
0, 0, 83, 245.3418121337891
0, 0, 84, 268.8377380371094
0, 0, 85, 231.1871185302734
0, 0, 86, 254.2379913330078
0, 0, 87, 251.4324493408203
0, 0, 88, 260.3125610351562
0, 0, 89, 283.2602233886719
0, 0, 90, 244.2878723144531
0, 0, 91, 280.8881225585938
0, 0, 92, 253.9162902832031
0, 0, 93, 249.5919952392578
0, 0, 94, 249.1593627929688
0, 0, 95, 248.3091430664062
0, 0, 96, 275.8758544921875
0, 0, 97, 272.3035888671875
0, 0, 98, 274.3381042480469
0, 0, 99, 258.8834533691406
0, 0, 100, 258.7505798339844
0, 0, 101, 226.6836090087891
0, 0, 102, 232.5797882080078
0, 0, 103, 269.6374816894531
0, 0, 104, 254.1785888671875
0, 0, 105, 252.9287109375
0, 0, 106, 245.5261383056641
0, 0, 107, 152.7724456787109
0, 0, 108, 37.17654800415039
0, 0, 109, 11.74190616607666
0, 0, 110, 12.04549694061279
0, 0, 111, 8.146574020385742
0, 0, 112, 6.690528392791748
0, 0, 113, 4.596404075622559
0, 0, 114, 7.84680700302124
0, 0, 115, 5.235074520111084
0, 0, 116, 5.547438621520996
0, 0, 117, 5.337719440460205
0, 0, 118, 8.186704635620117
0, 0, 119, 4.354005336761475
0, 0, 120, 3.390524387359619
0, 0, 121, 3.641797304153442
0, 0, 122, 4.655195713043213
0, 0, 123, 3.330214977264404
0, 0, 124, 5.085226058959961
0, 0, 125, 4.66843318939209
0, 0, 126, 3.900586605072021
0, 0, 127, 3.779939413070679
0, 1, 0, 9.204939842224121
0, 1, 1, 2.334957122802734
0, 1, 2, 3.556920766830444
0, 1, 3, 4.500510692596436
0, 1, 4, 2.63909912109375
0, 1, 5, 4.899765968322754
0, 1, 6, 6.524099349975586
0, 1, 7, 3.057163238525391
0, 1, 8, 7.265652656555176
0, 1, 9, 4.864570617675781
0, 1, 10, 6.935741901397705
0, 1, 11, 11.19402122497559
0, 1, 12, 8.034201622009277
0, 1, 13, 11.6953239440918
0, 1, 14, 7.195589542388916
0, 1, 15, 7.066815853118896
0, 1, 16, 11.15237522125244
0, 1, 17, 10.85950946807861
0, 1, 18, 21.32364845275879
0, 1, 19, 66.88027954101562
0, 1, 20, 201.6898040771484
0, 1, 21, 255.5608673095703
0, 1, 22, 299.1870727539062
0, 1, 23, 283.9095458984375
0, 1, 24, 276.3209838867188
0, 1, 25, 288.2469482421875
0, 1, 26, 269.4651489257812
0, 1, 27, 306.31494140625
0, 1, 28, 300.2209167480469
0, 1, 29, 296.0843505859375
0, 1, 30, 279.2511291503906
0, 1, 31, 291.3447265625
0, 1, 32, 289.714111328125
0, 1, 33, 296.6801452636719
0, 1, 34, 292.8128356933594
0, 1, 35, 278.6172485351562
0, 1, 36, 306.69921875
0, 1, 37, 295.1961364746094
0, 1, 38, 280.9738159179688
0, 1, 39, 295.6072082519531
0, 1, 40, 265.8484191894531
0, 1, 41, 286.4570007324219
0, 1, 42, 289.3190002441406
0, 1, 43, 332.1446228027344
0, 1, 44, 277.8445739746094
0, 1, 45, 292.1517944335938
0, 1, 46, 259.7128295898438
0, 1, 47, 311.0645751953125
0, 1, 48, 283.6259765625
0, 1, 49, 302.9434509277344
0, 1, 50, 262.5383605957031
0, 1, 51, 272.4499816894531
0, 1, 52, 296.317138671875
0, 1, 53, 303.7705078125
0, 1, 54, 274.9418640136719
0, 1, 55, 293.6801147460938
0, 1, 56, 280.0859680175781
0, 1, 57, 300.1706237792969
0, 1, 58, 311.1512145996094
0, 1, 59, 290.8732604980469
0, 1, 60, 298.0575866699219
0, 1, 61, 275.2140197753906
0, 1, 62, 307.9682922363281
0, 1, 63, 287.4997863769531
0, 1, 64, 290.297607421875
0, 1, 65, 299.3777770996094
0, 1, 66, 292.867431640625
0, 1, 67, 292.9201354980469
0, 1, 68, 278.3573608398438
0, 1, 69, 280.143310546875
0, 1, 70, 270.607666015625
0, 1, 71, 275.3353881835938
0, 1, 72, 286.6278991699219
0, 1, 73, 302.7445678710938
0, 1, 74, 305.0672912597656
0, 1, 75, 293.8680725097656
0, 1, 76, 284.2899475097656
0, 1, 77, 289.8578186035156
0, 1, 78, 297.7490234375
0, 1, 79, 302.3134155273438
0, 1, 80, 296.2496032714844
0, 1, 81, 301.7217407226562
0, 1, 82, 284.5352783203125
0, 1, 83, 332.4138793945312
0, 1, 84, 307.772705078125
0, 1, 85, 252.8657989501953
0, 1, 86, 293.4514770507812
0, 1, 87, 289.6026306152344
0, 1, 88, 298.3975219726562
0, 1, 89, 293.041015625
0, 1, 90, 269.1102905273438
0, 1, 91, 317.1700744628906
0, 1, 92, 289.2316284179688
0, 1, 93, 285.7320251464844
0, 1, 94, 303.8587646484375
0, 1, 95, 284.2647399902344
0, 1, 96, 283.3341979980469
0, 1, 97, 302.889892578125
0, 1, 98, 278.6408081054688
0, 1, 99, 271.0839538574219
0, 1, 100, 276.3209228515625
0, 1, 101, 283.69384765625
0, 1, 102, 277.8809814453125
0, 1, 103, 282.2489318847656
0, 1, 104, 306.0025634765625
0, 1, 105, 299.0498352050781
0, 1, 106, 261.5745239257812
0, 1, 107, 191.4110260009766
0, 1, 108, 80.45294189453125
0, 1, 109, 23.88229370117188
0, 1, 110, 11.44259738922119
0, 1, 111, 8.361690521240234
0, 1, 112, 11.27993869781494
0, 1, 113, 6.048878192901611
0, 1, 114, 6.382367134094238
0, 1, 115, 6.155715942382812
0, 1, 116, 9.264610290527344
0, 1, 117, 4.627439498901367
0, 1, 118, 6.012028217315674
0, 1, 119, 4.690566062927246
0, 1, 120, 4.361719608306885
0, 1, 121, 2.085045576095581
0, 1, 122, 3.94216513633728
0, 1, 123, 2.600260257720947
0, 1, 124, 7.535048007965088
0, 1, 125, 4.06404447555542
0, 1, 126, 1.902105569839478
0, 1, 127, 1.979087114334106
0, 2, 0, 7.480653762817383
0, 2, 1, 2.672879219055176
0, 2, 2, 3.437982082366943
0, 2, 3, 3.760451555252075
0, 2, 4, 2.956271886825562
0, 2, 5, 3.696569919586182
0, 2, 6, 2.164769411087036
0, 2, 7, 4.308641910552979
0, 2, 8, 5.160707473754883
0, 2, 9, 6.401721954345703
0, 2, 10, 8.332700729370117
0, 2, 11, 6.585296630859375
0, 2, 12, 5.924875259399414
0, 2, 13, 8.978303909301758
0, 2, 14, 9.168704986572266
0, 2, 15, 7.76011323928833
0, 2, 16, 9.605507850646973
0, 2, 17, 18.04059219360352
0, 2, 18, 29.05014419555664
0, 2, 19, 115.3124313354492
0, 2, 20, 246.3255157470703
0, 2, 21, 270.6283569335938
0, 2, 22, 319.0724487304688
0, 2, 23, 299.7312316894531
0, 2, 24, 286.075439453125
0, 2, 25, 302.2369079589844
0, 2, 26, 294.5477905273438
0, 2, 27, 274.3609008789062
0, 2, 28, 272.3573303222656
0, 2, 29, 272.8468017578125
0, 2, 30, 288.3757934570312
0, 2, 31, 277.3070373535156
0, 2, 32, 294.1194458007812
0, 2, 33, 282.4114074707031
0, 2, 34, 331.6763000488281
0, 2, 35, 288.7944641113281
0, 2, 36, 305.8692932128906
0, 2, 37, 314.1683654785156
0, 2, 38, 310.9690551757812
0, 2, 39, 266.9833679199219
0, 2, 40, 308.3406982421875
0, 2, 41, 291.6663208007812
0, 2, 42, 303.9497680664062
0, 2, 43, 313.5851135253906
0, 2, 44, 309.9893798828125
0, 2, 45, 324.1338195800781
0, 2, 46, 287.9359741210938
0, 2, 47, 303.0333557128906
0, 2, 48, 280.2412109375
0, 2, 49, 278.2568969726562
0, 2, 50, 294.4344787597656
0, 2, 51, 286.6050109863281
0, 2, 52, 272.7191772460938
0, 2, 53, 285.5303039550781
0, 2, 54, 278.7131042480469
0, 2, 55, 274.9524841308594
0, 2, 56, 304.8934936523438
0, 2, 57, 291.0115661621094
0, 2, 58, 303.56103515625
0, 2, 59, 292.6837463378906
0, 2, 60, 320.306640625
0, 2, 61, 301.3305969238281
0, 2, 62, 312.3450317382812
0, 2, 63, 302.6242065429688
0, 2, 64, 295.8099975585938
0, 2, 65, 312.634521484375
0, 2, 66, 280.5145568847656
0, 2, 67, 291.0218811035156
0, 2, 68, 296.2035827636719
0, 2, 69, 312.5587158203125
0, 2, 70, 333.7793579101562
0, 2, 71, 284.2346801757812
0, 2, 72, 304.3105773925781
0, 2, 73, 312.6928405761719
0, 2, 74, 286.516357421875
0, 2, 75, 306.5486755371094
0, 2, 76, 288.2333679199219
0, 2, 77, 301.8865966796875
0, 2, 78, 313.173095703125
0, 2, 79, 308.1459655761719
0, 2, 80, 297.5899047851562
0, 2, 81, 283.4732055664062
0, 2, 82, 319.880615234375
0, 2, 83, 313.6718444824219
0, 2, 84, 286.9045715332031
0, 2, 85, 283.5878601074219
0, 2, 86, 324.2406005859375
0, 2, 87, 285.8933715820312
0, 2, 88, 279.5070495605469
0, 2, 89, 294.8740539550781
0, 2, 90, 297.0986022949219
0, 2, 91, 276.1798400878906
0, 2, 92, 305.08154296875
0, 2, 93, 318.3612365722656
0, 2, 94, 291.2756958007812
0, 2, 95, 315.43603515625
0, 2, 96, 315.3931274414062
0, 2, 97, 292.0674133300781
0, 2, 98, 293.0310668945312
0, 2, 99, 274.1097412109375
0, 2, 100, 306.1927490234375
0, 2, 101, 300.3432006835938
0, 2, 102, 296.1272888183594
0, 2, 103, 292.8930358886719
0, 2, 104, 292.1353149414062
0, 2, 105, 274.0786743164062
0, 2, 106, 296.8275756835938
0, 2, 107, 270.7601928710938
0, 2, 108, 116.2110214233398
0, 2, 109, 32.40340042114258
0, 2, 110, 10.54368591308594
0, 2, 111, 13.0477237701416
0, 2, 112, 10.19255542755127
0, 2, 113, 9.13734245300293
0, 2, 114, 9.353792190551758
0, 2, 115, 9.59526252746582
0, 2, 116, 7.60312557220459
0, 2, 117, 8.710068702697754
0, 2, 118, 3.251852035522461
0, 2, 119, 3.234759569168091
0, 2, 120, 6.659602165222168
0, 2, 121, 3.755711793899536
0, 2, 122, 3.45593523979187
0, 2, 123, 3.571953058242798
0, 2, 124, 5.579720497131348
0, 2, 125, 4.043177604675293
0, 2, 126, 3.295444250106812
0, 2, 127, 5.675570011138916
0, 3, 0, 2.222226619720459
0, 3, 1, 2.729094266891479
0, 3, 2, 3.053556680679321
0, 3, 3, 1.443800091743469
0, 3, 4, 6.951462268829346
0, 3, 5, 7.830556869506836
0, 3, 6, 7.27772855758667
0, 3, 7, 5.948263645172119
0, 3, 8, 5.799717903137207
0, 3, 9, 6.546038150787354
0, 3, 10, 5.082666873931885
0, 3, 11, 4.336874485015869
0, 3, 12, 9.019694328308105
0, 3, 13, 14.73345565795898
0, 3, 14, 12.03896331787109
0, 3, 15, 13.96978569030762
0, 3, 16, 13.11675071716309
0, 3, 17, 21.38103866577148
0, 3, 18, 55.69422149658203
0, 3, 19, 175.8617553710938
0, 3, 20, 271.5201721191406
0, 3, 21, 270.6499938964844
0, 3, 22, 281.8905639648438
0, 3, 23, 286.95703125
0, 3, 24, 285.6795654296875
0, 3, 25, 272.1515808105469
0, 3, 26, 303.3575744628906
0, 3, 27, 291.8502197265625
0, 3, 28, 285.6484680175781
0, 3, 29, 337.9841003417969
0, 3, 30, 315.9824829101562
0, 3, 31, 286.0804138183594
0, 3, 32, 308.3296813964844
0, 3, 33, 313.8226928710938
0, 3, 34, 322.12255859375
0, 3, 35, 305.8653259277344
0, 3, 36, 270.56396484375
0, 3, 37, 313.6919250488281
0, 3, 38, 303.3746032714844
0, 3, 39, 289.3813781738281
0, 3, 40, 269.0602111816406
0, 3, 41, 303.2074890136719
0, 3, 42, 283.7448120117188
0, 3, 43, 306.7321472167969
0, 3, 44, 310.9582214355469
0, 3, 45, 289.7691345214844
0, 3, 46, 329.2078857421875
0, 3, 47, 300.0744934082031
0, 3, 48, 303.7830200195312
0, 3, 49, 276.7216186523438
0, 3, 50, 292.0396728515625
0, 3, 51, 275.8392639160156
0, 3, 52, 315.3927001953125
0, 3, 53, 288.0846557617188
0, 3, 54, 285.0291442871094
0, 3, 55, 284.4469604492188
0, 3, 56, 297.936767578125
0, 3, 57, 291.116943359375
0, 3, 58, 305.5874328613281
0, 3, 59, 295.0865478515625
0, 3, 60, 297.7071533203125
0, 3, 61, 264.1427001953125
0, 3, 62, 283.9447326660156
0, 3, 63, 307.2688903808594
0, 3, 64, 315.7166442871094
0, 3, 65, 303.797119140625
0, 3, 66, 316.0202941894531
0, 3, 67, 319.8497009277344
0, 3, 68, 279.6954650878906
0, 3, 69, 282.6794738769531
0, 3, 70, 288.4971923828125
0, 3, 71, 298.5120544433594
0, 3, 72, 268.5723266601562
0, 3, 73, 308.1193237304688
0, 3, 74, 293.546630859375
0, 3, 75, 290.2117004394531
0, 3, 76, 305.2738647460938
0, 3, 77, 314.0814819335938
0, 3, 78, 303.2304382324219
0, 3, 79, 282.3511047363281
0, 3, 80, 292.3317565917969
0, 3, 81, 314.1773071289062
0, 3, 82, 315.0591430664062
0, 3, 83, 301.4010314941406
0, 3, 84, 310.3744201660156
0, 3, 85, 296.4431457519531
0, 3, 86, 303.7721252441406
0, 3, 87, 297.6282653808594
0, 3, 88, 298.0548706054688
0, 3, 89, 296.180419921875
0, 3, 90, 275.935546875
0, 3, 91, 285.4209289550781
0, 3, 92, 302.9138488769531
0, 3, 93, 312.558837890625
0, 3, 94, 298.185302734375
0, 3, 95, 334.321533203125
0, 3, 96, 290.8714294433594
0, 3, 97, 284.7790222167969
0, 3, 98, 278.4943542480469
0, 3, 99, 261.1140747070312
0, 3, 100, 282.4326782226562
0, 3, 101, 297.0203552246094
0, 3, 102, 275.22607421875
0, 3, 103, 321.0665283203125
0, 3, 104, 308.0332641601562
0, 3, 105, 287.7638854980469
0, 3, 106, 304.0671997070312
0, 3, 107, 285.1258239746094
0, 3, 108, 167.6487426757812
0, 3, 109, 55.62192153930664
0, 3, 110, 16.9849739074707
0, 3, 111, 12.41929721832275
0, 3, 112, 11.78229331970215
0, 3, 113, 7.358776092529297
0, 3, 114, 8.695963859558105
0, 3, 115, 6.48787260055542
0, 3, 116, 8.555769920349121
0, 3, 117, 8.579903602600098
0, 3, 118, 7.311172962188721
0, 3, 119, 6.283774375915527
0, 3, 120, 6.535088539123535
0, 3, 121, 2.54140043258667
0, 3, 122, 2.940070390701294
0, 3, 123, 6.277435302734375
0, 3, 124, 2.464518070220947
0, 3, 125, 5.65986967086792
0, 3, 126, 4.956853866577148
0, 3, 127, 3.235708951950073
0, 4, 0, 1.596042633056641
0, 4, 1, 5.150490760803223
0, 4, 2, 3.836959838867188
0, 4, 3, 1.266820907592773
0, 4, 4, 6.506529808044434
0, 4, 5, 8.296768188476562
0, 4, 6, 5.607790946960449
0, 4, 7, 4.886494636535645
0, 4, 8, 4.863683700561523
0, 4, 9, 8.496415138244629
0, 4, 10, 7.763437747955322
0, 4, 11, 5.356011867523193
0, 4, 12, 5.285051345825195
0, 4, 13, 8.705292701721191
0, 4, 14, 12.89049816131592
0, 4, 15, 11.52309989929199
0, 4, 16, 14.51027393341064
0, 4, 17, 18.66829872131348
0, 4, 18, 91.90887451171875
0, 4, 19, 223.1777801513672
0, 4, 20, 285.593994140625
0, 4, 21, 271.978271484375
0, 4, 22, 303.5079345703125
0, 4, 23, 269.3965454101562
0, 4, 24, 289.64990234375
0, 4, 25, 271.7077331542969
0, 4, 26, 294.4826965332031
0, 4, 27, 282.6077270507812
0, 4, 28, 308.16552734375
0, 4, 29, 323.7860717773438
0, 4, 30, 309.5464477539062
0, 4, 31, 304.7802124023438
0, 4, 32, 281.8648376464844
0, 4, 33, 296.1559143066406
0, 4, 34, 297.3220520019531
0, 4, 35, 311.3181457519531
0, 4, 36, 293.0248413085938
0, 4, 37, 289.6380920410156
0, 4, 38, 297.575927734375
0, 4, 39, 293.0962524414062
0, 4, 40, 301.7608032226562
0, 4, 41, 312.0208740234375
0, 4, 42, 328.9529418945312
0, 4, 43, 297.1341552734375
0, 4, 44, 320.1773986816406
0, 4, 45, 323.1426696777344
0, 4, 46, 306.4878234863281
0, 4, 47, 293.2758483886719
0, 4, 48, 295.8038330078125
0, 4, 49, 277.3565979003906
0, 4, 50, 299.464111328125
0, 4, 51, 318.6687622070312
0, 4, 52, 328.7536010742188
0, 4, 53, 304.0389709472656
0, 4, 54, 288.6423950195312
0, 4, 55, 315.6221618652344
0, 4, 56, 288.3228454589844
0, 4, 57, 308.547607421875
0, 4, 58, 296.6141052246094
0, 4, 59, 308.1341857910156
0, 4, 60, 302.6131591796875
0, 4, 61, 314.3769226074219
0, 4, 62, 308.9698791503906
0, 4, 63, 300.1428833007812
0, 4, 64, 330.7006530761719
0, 4, 65, 315.2376708984375
0, 4, 66, 294.0362854003906
0, 4, 67, 284.1976928710938
0, 4, 68, 312.24658203125
0, 4, 69, 275.5899658203125
0, 4, 70, 299.6806945800781
0, 4, 71, 320.9510192871094
0, 4, 72, 331.9632873535156
0, 4, 73, 300.817626953125
0, 4, 74, 291.5532836914062
0, 4, 75, 294.0114440917969
0, 4, 76, 277.9775390625
0, 4, 77, 277.6172485351562
0, 4, 78, 310.537353515625
0, 4, 79, 318.7655944824219
0, 4, 80, 319.0469665527344
0, 4, 81, 312.8135070800781
0, 4, 82, 298.6093139648438
0, 4, 83, 301.2606506347656
0, 4, 84, 290.2159729003906
0, 4, 85, 294.7778015136719
0, 4, 86, 296.5630798339844
0, 4, 87, 284.6784973144531
0, 4, 88, 307.5379638671875
0, 4, 89, 294.6824951171875
0, 4, 90, 333.5952453613281
0, 4, 91, 304.6695251464844
0, 4, 92, 290.7438049316406
0, 4, 93, 297.0829467773438
0, 4, 94, 291.0614318847656
0, 4, 95, 288.0068664550781
0, 4, 96, 323.1240539550781
0, 4, 97, 275.1684265136719
0, 4, 98, 327.3936462402344
0, 4, 99, 316.3861389160156
0, 4, 100, 302.8407897949219
0, 4, 101, 256.5500183105469
0, 4, 102, 296.79931640625
0, 4, 103, 317.4473266601562
0, 4, 104, 283.0836181640625
0, 4, 105, 310.0157775878906
0, 4, 106, 288.086181640625
0, 4, 107, 295.4834899902344
0, 4, 108, 226.3392028808594
0, 4, 109, 78.97096252441406
0, 4, 110, 15.51693248748779
0, 4, 111, 13.79148197174072
0, 4, 112, 9.586919784545898
0, 4, 113, 13.00104522705078
0, 4, 114, 10.56024074554443
0, 4, 115, 10.26954364776611
0, 4, 116, 7.710214614868164
0, 4, 117, 7.193690299987793
0, 4, 118, 11.05644035339355
0, 4, 119, 9.641587257385254
0, 4, 120, 7.519480228424072
0, 4, 121, 5.440932750701904
0, 4, 122, 3.887094259262085
0, 4, 123, 6.233116149902344
0, 4, 124, 7.075233459472656
0, 4, 125, 9.30695915222168
0, 4, 126, 6.106691837310791
0, 4, 127, 4.19635534286499
0, 5, 0, 3.60616135597229
0, 5, 1, 3.094375371932983
0, 5, 2, 4.337281703948975
0, 5, 3, 3.028828382492065
0, 5, 4, 5.24552583694458
0, 5, 5, 7.002424716949463
0, 5, 6, 5.477635383605957
0, 5, 7, 6.491165637969971
0, 5, 8, 3.75888204574585
0, 5, 9, 4.667864799499512
0, 5, 10, 7.23020076751709
0, 5, 11, 8.689773559570312
0, 5, 12, 6.871480464935303
0, 5, 13, 5.33556604385376
0, 5, 14, 11.77050590515137
0, 5, 15, 18.48303413391113
0, 5, 16, 14.29907131195068
0, 5, 17, 29.4669189453125
0, 5, 18, 136.2804260253906
0, 5, 19, 285.99169921875
0, 5, 20, 308.4873046875
0, 5, 21, 317.4927368164062
0, 5, 22, 275.6187744140625
0, 5, 23, 310.6040954589844
0, 5, 24, 302.1727294921875
0, 5, 25, 289.4869384765625
0, 5, 26, 295.9259033203125
0, 5, 27, 321.0764770507812
0, 5, 28, 303.3048095703125
0, 5, 29, 297.9808654785156
0, 5, 30, 321.5254211425781
0, 5, 31, 285.0706176757812
0, 5, 32, 303.9254150390625
0, 5, 33, 305.6929626464844
0, 5, 34, 296.865478515625
0, 5, 35, 308.1092224121094
0, 5, 36, 268.9808959960938
0, 5, 37, 283.7203369140625
0, 5, 38, 293.4240112304688
0, 5, 39, 312.1511840820312
0, 5, 40, 308.5953979492188
0, 5, 41, 271.8510437011719
0, 5, 42, 306.2318725585938
0, 5, 43, 311.880859375
0, 5, 44, 293.2730102539062
0, 5, 45, 302.7120666503906
0, 5, 46, 265.6163024902344
0, 5, 47, 279.9624633789062
0, 5, 48, 294.5989685058594
0, 5, 49, 287.3687438964844
0, 5, 50, 295.1065368652344
0, 5, 51, 281.6842041015625
0, 5, 52, 269.38623046875
0, 5, 53, 285.5775146484375
0, 5, 54, 291.0281372070312
0, 5, 55, 344.5382080078125
0, 5, 56, 305.8193359375
0, 5, 57, 305.6329956054688
0, 5, 58, 312.7749633789062
0, 5, 59, 303.1967468261719
0, 5, 60, 305.8652954101562
0, 5, 61, 281.2952575683594
0, 5, 62, 325.7649841308594
0, 5, 63, 292.4589538574219
0, 5, 64, 322.3185424804688
0, 5, 65, 306.7672424316406
0, 5, 66, 327.6397094726562
0, 5, 67, 312.3681030273438
0, 5, 68, 308.5758361816406
0, 5, 69, 312.4161682128906
0, 5, 70, 302.9421997070312
0, 5, 71, 272.2539672851562
0, 5, 72, 309.1982421875
0, 5, 73, 301.4228820800781
0, 5, 74, 294.6788940429688
0, 5, 75, 293.0614929199219
0, 5, 76, 284.9883422851562
0, 5, 77, 298.8392333984375
0, 5, 78, 313.9292907714844
0, 5, 79, 306.0151977539062
0, 5, 80, 295.2461242675781
0, 5, 81, 325.5780639648438
0, 5, 82, 323.4260864257812
0, 5, 83, 281.03759765625
0, 5, 84, 303.9540100097656
0, 5, 85, 271.8982238769531
0, 5, 86, 327.68798828125
0, 5, 87, 286.638671875
0, 5, 88, 315.4360961914062
0, 5, 89, 305.4572143554688
0, 5, 90, 315.0011291503906
0, 5, 91, 313.4955139160156
0, 5, 92, 298.0890808105469
0, 5, 93, 321.6517639160156
0, 5, 94, 307.3131103515625
0, 5, 95, 297.017822265625
0, 5, 96, 297.1676635742188
0, 5, 97, 295.1528930664062
0, 5, 98, 318.4483337402344
0, 5, 99, 300.6197509765625
0, 5, 100, 291.9176025390625
0, 5, 101, 306.59765625
0, 5, 102, 292.2665710449219
0, 5, 103, 313.8191528320312
0, 5, 104, 303.5800170898438
0, 5, 105, 292.2284240722656
0, 5, 106, 282.1358032226562
0, 5, 107, 291.9826049804688
0, 5, 108, 268.4751281738281
0, 5, 109, 157.6018218994141
0, 5, 110, 41.52707672119141
0, 5, 111, 21.23749923706055
0, 5, 112, 17.45236206054688
0, 5, 113, 13.59700489044189
0, 5, 114, 13.585768699646
0, 5, 115, 6.897486686706543
0, 5, 116, 7.764914035797119
0, 5, 117, 6.62993335723877
0, 5, 118, 11.74701118469238
0, 5, 119, 2.136515855789185
0, 5, 120, 9.600324630737305
0, 5, 121, 4.433486938476562
0, 5, 122, 7.111108779907227
0, 5, 123, 3.778451204299927
0, 5, 124, 5.973223686218262
0, 5, 125, 5.41873836517334
0, 5, 126, 7.282173633575439
0, 5, 127, 4.622958183288574
0, 6, 0, 4.612357139587402
0, 6, 1, 2.907381057739258
0, 6, 2, 5.102910041809082
0, 6, 3, 6.258081436157227
0, 6, 4, 3.657455921173096
0, 6, 5, 5.272828102111816
0, 6, 6, 7.536340236663818
0, 6, 7, 6.559342384338379
0, 6, 8, 5.839680194854736
0, 6, 9, 5.872763633728027
0, 6, 10, 7.63292121887207
0, 6, 11, 9.564668655395508
0, 6, 12, 7.810024261474609
0, 6, 13, 14.8726167678833
0, 6, 14, 8.346961975097656
0, 6, 15, 16.17906188964844
0, 6, 16, 29.43442344665527
0, 6, 17, 55.07464599609375
0, 6, 18, 174.0434112548828
0, 6, 19, 277.0932922363281
0, 6, 20, 292.7576293945312
0, 6, 21, 313.1041564941406
0, 6, 22, 321.1896057128906
0, 6, 23, 305.26416015625
0, 6, 24, 315.8906555175781
0, 6, 25, 316.7973022460938
0, 6, 26, 320.8522033691406
0, 6, 27, 331.3055725097656
0, 6, 28, 296.2974853515625
0, 6, 29, 329.1280517578125
0, 6, 30, 279.5551452636719
0, 6, 31, 288.6060485839844
0, 6, 32, 339.9986877441406
0, 6, 33, 302.8431701660156
0, 6, 34, 340.5940856933594
0, 6, 35, 319.4364624023438
0, 6, 36, 275.3919982910156
0, 6, 37, 290.6746215820312
0, 6, 38, 311.8460388183594
0, 6, 39, 296.9295959472656
0, 6, 40, 285.7473449707031
0, 6, 41, 296.248046875
0, 6, 42, 305.16015625
0, 6, 43, 287.4590759277344
0, 6, 44, 279.8630981445312
0, 6, 45, 318.3038024902344
0, 6, 46, 300.4212646484375
0, 6, 47, 331.592529296875
0, 6, 48, 293.0558776855469
0, 6, 49, 310.8623046875
0, 6, 50, 327.7772521972656
0, 6, 51, 310.6666870117188
0, 6, 52, 320.6119079589844
0, 6, 53, 327.2144165039062
0, 6, 54, 302.6191101074219
0, 6, 55, 307.5955200195312
0, 6, 56, 293.5472106933594
0, 6, 57, 313.4974975585938
0, 6, 58, 263.0239562988281
0, 6, 59, 302.2953491210938
0, 6, 60, 312.31494140625
0, 6, 61, 272.9853210449219
0, 6, 62, 335.1003112792969
0, 6, 63, 323.036865234375
0, 6, 64, 291.6176452636719
0, 6, 65, 285.4767761230469
0, 6, 66, 303.7912292480469
0, 6, 67, 310.9233093261719
0, 6, 68, 297.867919921875
0, 6, 69, 278.8464965820312
0, 6, 70, 275.2702941894531
0, 6, 71, 289.5845947265625
0, 6, 72, 313.4298706054688
0, 6, 73, 293.899658203125
0, 6, 74, 330.0989379882812
0, 6, 75, 343.1244201660156
0, 6, 76, 297.6326904296875
0, 6, 77, 286.0318298339844
0, 6, 78, 278.3409423828125
0, 6, 79, 296.0220642089844
0, 6, 80, 298.2536010742188
0, 6, 81, 314.2499694824219
0, 6, 82, 320.2953491210938
0, 6, 83, 323.2560729980469
0, 6, 84, 297.5837707519531
0, 6, 85, 302.0089721679688
0, 6, 86, 331.0220642089844
0, 6, 87, 292.864990234375
0, 6, 88, 307.245361328125
0, 6, 89, 303.7499084472656
0, 6, 90, 300.5341796875
0, 6, 91, 311.58642578125
0, 6, 92, 285.3948669433594
0, 6, 93, 296.2685546875
0, 6, 94, 273.4315795898438
0, 6, 95, 299.8330078125
0, 6, 96, 350.6529846191406
0, 6, 97, 309.5911560058594
0, 6, 98, 302.3651733398438
0, 6, 99, 270.8634643554688
0, 6, 100, 313.8171997070312
0, 6, 101, 292.6681518554688
0, 6, 102, 306.6564331054688
0, 6, 103, 307.2843627929688
0, 6, 104, 292.3533325195312
0, 6, 105, 302.2446594238281
0, 6, 106, 306.6996459960938
0, 6, 107, 305.52587890625
0, 6, 108, 267.5175170898438
0, 6, 109, 187.2737121582031
0, 6, 110, 55.17016220092773
0, 6, 111, 21.27191162109375
0, 6, 112, 12.01150512695312
0, 6, 113, 10.45868587493896
0, 6, 114, 15.27615356445312
0, 6, 115, 12.20060539245605
0, 6, 116, 8.371551513671875
0, 6, 117, 5.549713611602783
0, 6, 118, 11.43104553222656
0, 6, 119, 11.96897220611572
0, 6, 120, 4.779491901397705
0, 6, 121, 4.796710968017578
0, 6, 122, 5.579861164093018
0, 6, 123, 5.069987773895264
0, 6, 124, 7.186483860015869
0, 6, 125, 7.403096675872803
0, 6, 126, 3.221346139907837
0, 6, 127, 6.303720474243164
0, 7, 0, 4.255300521850586
0, 7, 1, 3.782135725021362
0, 7, 2, 6.289348125457764
0, 7, 3, 3.937020301818848
0, 7, 4, 3.613131523132324
0, 7, 5, 3.618662118911743
0, 7, 6, 5.521045684814453
0, 7, 7, 6.718114852905273
0, 7, 8, 5.869579792022705
0, 7, 9, 8.390972137451172
0, 7, 10, 10.35057926177979
0, 7, 11, 10.81620502471924
0, 7, 12, 12.62122821807861
0, 7, 13, 11.84941387176514
0, 7, 14, 10.59501838684082
0, 7, 15, 14.81165981292725
0, 7, 16, 25.64220428466797
0, 7, 17, 98.05573272705078
0, 7, 18, 217.6524047851562
0, 7, 19, 290.3335266113281
0, 7, 20, 295.2290649414062
0, 7, 21, 277.3665161132812
0, 7, 22, 298.4960021972656
0, 7, 23, 289.3357849121094
0, 7, 24, 313.6096496582031
0, 7, 25, 326.050537109375
0, 7, 26, 276.7169494628906
0, 7, 27, 297.7837524414062
0, 7, 28, 328.7901916503906
0, 7, 29, 318.4407348632812
0, 7, 30, 302.3004455566406
0, 7, 31, 278.083984375
0, 7, 32, 305.3109130859375
0, 7, 33, 260.9857788085938
0, 7, 34, 296.9543762207031
0, 7, 35, 319.3957214355469
0, 7, 36, 330.1657409667969
0, 7, 37, 323.83447265625
0, 7, 38, 295.5779724121094
0, 7, 39, 305.6386413574219
0, 7, 40, 289.7568359375
0, 7, 41, 270.4803466796875
0, 7, 42, 304.2732849121094
0, 7, 43, 277.2455749511719
0, 7, 44, 306.9936218261719
0, 7, 45, 295.4068298339844
0, 7, 46, 283.2075500488281
0, 7, 47, 329.3588256835938
0, 7, 48, 286.4085998535156
0, 7, 49, 301.2660827636719
0, 7, 50, 321.8393859863281
0, 7, 51, 298.5686645507812
0, 7, 52, 326.1387329101562
0, 7, 53, 310.0569763183594
0, 7, 54, 324.002685546875
0, 7, 55, 306.2664489746094
0, 7, 56, 281.5516357421875
0, 7, 57, 280.6842956542969
0, 7, 58, 297.636474609375
0, 7, 59, 293.9884033203125
0, 7, 60, 322.676025390625
0, 7, 61, 278.9788818359375
0, 7, 62, 296.7356567382812
0, 7, 63, 293.9822387695312
0, 7, 64, 309.9506225585938
0, 7, 65, 331.0189819335938
0, 7, 66, 318.1958618164062
0, 7, 67, 300.6537780761719
0, 7, 68, 280.8849487304688
0, 7, 69, 294.3619689941406
0, 7, 70, 300.0877075195312
0, 7, 71, 310.2212829589844
0, 7, 72, 283.8185424804688
0, 7, 73, 295.6302795410156
0, 7, 74, 344.2895812988281
0, 7, 75, 318.2846069335938
0, 7, 76, 323.7911682128906
0, 7, 77, 280.9947509765625
0, 7, 78, 298.3724670410156
0, 7, 79, 295.8331298828125
0, 7, 80, 311.1375732421875
0, 7, 81, 323.1942138671875
0, 7, 82, 331.7688293457031
0, 7, 83, 318.9259033203125
0, 7, 84, 309.8831176757812
0, 7, 85, 271.8296508789062
0, 7, 86, 311.6845397949219
0, 7, 87, 310.081298828125
0, 7, 88, 306.1604614257812
0, 7, 89, 293.4201049804688
0, 7, 90, 308.4046020507812
0, 7, 91, 314.7104797363281
0, 7, 92, 287.9953308105469
0, 7, 93, 310.1829223632812
0, 7, 94, 274.6226501464844
0, 7, 95, 295.3218383789062
0, 7, 96, 329.2983703613281
0, 7, 97, 295.9578247070312
0, 7, 98, 290.8102111816406
0, 7, 99, 310.6640930175781
0, 7, 100, 280.6910705566406
0, 7, 101, 277.0638732910156
0, 7, 102, 290.4243469238281
0, 7, 103, 291.1271057128906
0, 7, 104, 275.0918579101562
0, 7, 105, 305.4858703613281
0, 7, 106, 318.4822082519531
0, 7, 107, 297.9514465332031
0, 7, 108, 273.0355529785156
0, 7, 109, 237.06298828125
0, 7, 110, 95.06827545166016
0, 7, 111, 23.49883460998535
0, 7, 112, 15.47712707519531
0, 7, 113, 15.29410171508789
0, 7, 114, 15.3946361541748
0, 7, 115, 12.57301902770996
0, 7, 116, 12.1475248336792
0, 7, 117, 5.698904991149902
0, 7, 118, 8.54241943359375
0, 7, 119, 8.134768486022949
0, 7, 120, 4.55573844909668
0, 7, 121, 5.959639549255371
0, 7, 122, 5.178571224212646
0, 7, 123, 4.693279266357422
0, 7, 124, 3.899305582046509
0, 7, 125, 5.750034809112549
0, 7, 126, 9.901463508605957
0, 7, 127, 3.429458379745483
0, 8, 0, 5.936721801757812
0, 8, 1, 3.339924097061157
0, 8, 2, 4.07390308380127
0, 8, 3, 3.507574796676636
0, 8, 4, 3.718320846557617
0, 8, 5, 4.404719829559326
0, 8, 6, 6.361932277679443
0, 8, 7, 5.725595474243164
0, 8, 8, 8.975385665893555
0, 8, 9, 5.303967952728271
0, 8, 10, 7.398867130279541
0, 8, 11, 11.82238101959229
0, 8, 12, 13.10427761077881
0, 8, 13, 15.25308322906494
0, 8, 14, 12.87633895874023
0, 8, 15, 18.9824161529541
0, 8, 16, 31.93091201782227
0, 8, 17, 132.3606414794922
0, 8, 18, 242.493408203125
0, 8, 19, 294.0619201660156
0, 8, 20, 285.0854797363281
0, 8, 21, 307.3269348144531
0, 8, 22, 293.9591674804688
0, 8, 23, 275.207275390625
0, 8, 24, 267.9378967285156
0, 8, 25, 277.3409423828125
0, 8, 26, 306.8952941894531
0, 8, 27, 307.6715698242188
0, 8, 28, 302.2471313476562
0, 8, 29, 320.273193359375
0, 8, 30, 313.6087036132812
0, 8, 31, 302.6922607421875
0, 8, 32, 279.6504821777344
0, 8, 33, 293.3114318847656
0, 8, 34, 289.7921142578125
0, 8, 35, 279.74267578125
0, 8, 36, 316.5297546386719
0, 8, 37, 338.6832885742188
0, 8, 38, 331.635009765625
0, 8, 39, 281.8293151855469
0, 8, 40, 305.5360412597656
