# TOPAS Version: 3.1.p3
# Parameter File: batch_inserts_242.txt
# Results for scorer Readout_Adipose
# Scored in component: MyBox
# X in 1 bin  of 0.75 cm
# Y in 512 bins of 0.0783984 cm
# Z in 128 bins of 0.078125 cm
# EnergyDeposit ( MeV ) : Sum   
0, 0, 0, 18.5748233795166
0, 0, 1, 22.50414276123047
0, 0, 2, 26.47939491271973
0, 0, 3, 25.32707595825195
0, 0, 4, 19.60934638977051
0, 0, 5, 25.27340507507324
0, 0, 6, 25.25643539428711
0, 0, 7, 34.48342514038086
0, 0, 8, 21.80447959899902
0, 0, 9, 22.01024055480957
0, 0, 10, 23.64764976501465
0, 0, 11, 25.82257843017578
0, 0, 12, 35.97991561889648
0, 0, 13, 34.96412658691406
0, 0, 14, 39.48562240600586
0, 0, 15, 49.04544067382812
0, 0, 16, 47.61528778076172
0, 0, 17, 46.97872161865234
0, 0, 18, 76.09165954589844
0, 0, 19, 194.1403656005859
0, 0, 20, 702.7922973632812
0, 0, 21, 1193.375854492188
0, 0, 22, 1252.320190429688
0, 0, 23, 1273.6943359375
0, 0, 24, 1279.3271484375
0, 0, 25, 1356.613037109375
0, 0, 26, 1275.9521484375
0, 0, 27, 1280.573608398438
0, 0, 28, 1321.747314453125
0, 0, 29, 1270.199584960938
0, 0, 30, 1262.885620117188
0, 0, 31, 1282.147216796875
0, 0, 32, 1263.458740234375
0, 0, 33, 1242.4970703125
0, 0, 34, 1323.857177734375
0, 0, 35, 1303.851684570312
0, 0, 36, 1248.731689453125
0, 0, 37, 1279.98681640625
0, 0, 38, 1245.611328125
0, 0, 39, 1245.140258789062
0, 0, 40, 1225.345825195312
0, 0, 41, 1269.173950195312
0, 0, 42, 1253.259765625
0, 0, 43, 1274.390014648438
0, 0, 44, 1230.17236328125
0, 0, 45, 1288.865356445312
0, 0, 46, 1261.633422851562
0, 0, 47, 1239.449829101562
0, 0, 48, 1274.311767578125
0, 0, 49, 1286.807983398438
0, 0, 50, 1307.927978515625
0, 0, 51, 1261.869262695312
0, 0, 52, 1358.062744140625
0, 0, 53, 1327.891479492188
0, 0, 54, 1303.569580078125
0, 0, 55, 1234.4775390625
0, 0, 56, 1317.881103515625
0, 0, 57, 1291.644775390625
0, 0, 58, 1254.547241210938
0, 0, 59, 1333.352783203125
0, 0, 60, 1326.439697265625
0, 0, 61, 1260.462524414062
0, 0, 62, 1243.845581054688
0, 0, 63, 1284.0732421875
0, 0, 64, 1326.678955078125
0, 0, 65, 1289.2158203125
0, 0, 66, 1317.055053710938
0, 0, 67, 1218.641479492188
0, 0, 68, 1310.859130859375
0, 0, 69, 1322.426391601562
0, 0, 70, 1345.637573242188
0, 0, 71, 1288.18017578125
0, 0, 72, 1317.279663085938
0, 0, 73, 1241.391479492188
0, 0, 74, 1290.991333007812
0, 0, 75, 1298.261352539062
0, 0, 76, 1258.588745117188
0, 0, 77, 1284.709350585938
0, 0, 78, 1313.724853515625
0, 0, 79, 1327.081909179688
0, 0, 80, 1262.669311523438
0, 0, 81, 1321.524780273438
0, 0, 82, 1284.602416992188
0, 0, 83, 1292.208618164062
0, 0, 84, 1326.527221679688
0, 0, 85, 1235.868774414062
0, 0, 86, 1265.506958007812
0, 0, 87, 1250.461059570312
0, 0, 88, 1256.125732421875
0, 0, 89, 1335.730590820312
0, 0, 90, 1273.456787109375
0, 0, 91, 1353.9375
0, 0, 92, 1301.016479492188
0, 0, 93, 1273.78125
0, 0, 94, 1244.279541015625
0, 0, 95, 1324.730712890625
0, 0, 96, 1282.165649414062
0, 0, 97, 1322.3720703125
0, 0, 98, 1254.070190429688
0, 0, 99, 1247.48095703125
0, 0, 100, 1290.606567382812
0, 0, 101, 1316.072021484375
0, 0, 102, 1231.636962890625
0, 0, 103, 1321.621948242188
0, 0, 104, 1261.673461914062
0, 0, 105, 1267.481567382812
0, 0, 106, 1209.393432617188
0, 0, 107, 781.2379150390625
0, 0, 108, 194.94677734375
0, 0, 109, 64.89882659912109
0, 0, 110, 63.86100006103516
0, 0, 111, 39.86120223999023
0, 0, 112, 33.88613891601562
0, 0, 113, 29.52272415161133
0, 0, 114, 34.64062118530273
0, 0, 115, 30.74153137207031
0, 0, 116, 24.2058162689209
0, 0, 117, 28.9213752746582
0, 0, 118, 27.02338981628418
0, 0, 119, 23.8924732208252
0, 0, 120, 24.85576629638672
0, 0, 121, 26.33403396606445
0, 0, 122, 26.49918746948242
0, 0, 123, 18.2590274810791
0, 0, 124, 22.35223770141602
0, 0, 125, 19.12860488891602
0, 0, 126, 26.37130546569824
0, 0, 127, 19.23142623901367
0, 1, 0, 25.64044380187988
0, 1, 1, 29.51215934753418
0, 1, 2, 26.8856258392334
0, 1, 3, 24.37461280822754
0, 1, 4, 24.73058700561523
0, 1, 5, 29.40939140319824
0, 1, 6, 24.38002777099609
0, 1, 7, 31.63603210449219
0, 1, 8, 32.19335556030273
0, 1, 9, 33.7634162902832
0, 1, 10, 34.68804550170898
0, 1, 11, 42.01219177246094
0, 1, 12, 38.83904647827148
0, 1, 13, 43.22467803955078
0, 1, 14, 38.77109146118164
0, 1, 15, 52.74839401245117
0, 1, 16, 59.6360969543457
0, 1, 17, 59.2510986328125
0, 1, 18, 100.7266845703125
0, 1, 19, 402.2711181640625
0, 1, 20, 1044.259765625
0, 1, 21, 1379.20947265625
0, 1, 22, 1478.939453125
0, 1, 23, 1459.370727539062
0, 1, 24, 1449.53125
0, 1, 25, 1418.953002929688
0, 1, 26, 1469.856323242188
0, 1, 27, 1465.353149414062
0, 1, 28, 1489.599243164062
0, 1, 29, 1475.104736328125
0, 1, 30, 1506.915649414062
0, 1, 31, 1487.999877929688
0, 1, 32, 1410.851684570312
0, 1, 33, 1501.890380859375
0, 1, 34, 1496.249633789062
0, 1, 35, 1461.537719726562
0, 1, 36, 1484.444946289062
0, 1, 37, 1406.426635742188
0, 1, 38, 1394.204345703125
0, 1, 39, 1528.413330078125
0, 1, 40, 1460.827758789062
0, 1, 41, 1491.756713867188
0, 1, 42, 1498.594360351562
0, 1, 43, 1502.50830078125
0, 1, 44, 1451.761474609375
0, 1, 45, 1487.585815429688
0, 1, 46, 1421.40380859375
0, 1, 47, 1433.95556640625
0, 1, 48, 1434.864624023438
0, 1, 49, 1486.253295898438
0, 1, 50, 1443.275268554688
0, 1, 51, 1470.923217773438
0, 1, 52, 1471.748779296875
0, 1, 53, 1474.794067382812
0, 1, 54, 1504.773559570312
0, 1, 55, 1497.3720703125
0, 1, 56, 1471.078125
0, 1, 57, 1455.625854492188
0, 1, 58, 1428.697265625
0, 1, 59, 1477.50537109375
0, 1, 60, 1463.694946289062
0, 1, 61, 1450.574462890625
0, 1, 62, 1453.903076171875
0, 1, 63, 1416.407592773438
0, 1, 64, 1477.255737304688
0, 1, 65, 1417.0439453125
0, 1, 66, 1439.832275390625
0, 1, 67, 1452.978759765625
0, 1, 68, 1392.626831054688
0, 1, 69, 1466.200805664062
0, 1, 70, 1432.12255859375
0, 1, 71, 1495.757446289062
0, 1, 72, 1433.776489257812
0, 1, 73, 1488.333129882812
0, 1, 74, 1469.7744140625
0, 1, 75, 1477.559448242188
0, 1, 76, 1455.093383789062
0, 1, 77, 1466.9130859375
0, 1, 78, 1444.463989257812
0, 1, 79, 1502.723876953125
0, 1, 80, 1449.207275390625
0, 1, 81, 1423.522094726562
0, 1, 82, 1473.936401367188
0, 1, 83, 1461.514892578125
0, 1, 84, 1538.239135742188
0, 1, 85, 1447.097290039062
0, 1, 86, 1408.238037109375
0, 1, 87, 1416.225341796875
0, 1, 88, 1468.036499023438
0, 1, 89, 1470.786376953125
0, 1, 90, 1423.554443359375
0, 1, 91, 1466.161376953125
0, 1, 92, 1409.620239257812
0, 1, 93, 1457.396728515625
0, 1, 94, 1467.379638671875
0, 1, 95, 1421.482055664062
0, 1, 96, 1497.464477539062
0, 1, 97, 1515.551147460938
0, 1, 98, 1479.19677734375
0, 1, 99, 1423.899291992188
0, 1, 100, 1450.50732421875
0, 1, 101, 1416.876586914062
0, 1, 102, 1443.256103515625
0, 1, 103, 1416.898315429688
0, 1, 104, 1406.515747070312
0, 1, 105, 1463.51416015625
0, 1, 106, 1368.43798828125
0, 1, 107, 1018.6591796875
0, 1, 108, 403.14013671875
0, 1, 109, 97.58396911621094
0, 1, 110, 63.45396041870117
0, 1, 111, 54.96020126342773
0, 1, 112, 52.60104751586914
0, 1, 113, 35.39547729492188
0, 1, 114, 34.09359741210938
0, 1, 115, 40.95623397827148
0, 1, 116, 34.05301666259766
0, 1, 117, 35.73474502563477
0, 1, 118, 35.23356246948242
0, 1, 119, 30.35892486572266
0, 1, 120, 30.92913627624512
0, 1, 121, 23.47858238220215
0, 1, 122, 18.57554054260254
0, 1, 123, 25.41916656494141
0, 1, 124, 30.89794921875
0, 1, 125, 21.51652526855469
0, 1, 126, 20.00548553466797
0, 1, 127, 17.15682029724121
0, 2, 0, 21.64727592468262
0, 2, 1, 24.41497611999512
0, 2, 2, 27.825439453125
0, 2, 3, 23.35445976257324
0, 2, 4, 22.30296897888184
0, 2, 5, 22.48818206787109
0, 2, 6, 21.28878974914551
0, 2, 7, 23.59042930603027
0, 2, 8, 26.71548843383789
0, 2, 9, 27.3325309753418
0, 2, 10, 30.26136779785156
0, 2, 11, 31.85932350158691
0, 2, 12, 39.27785873413086
0, 2, 13, 41.93347930908203
0, 2, 14, 41.88205337524414
0, 2, 15, 41.88510131835938
0, 2, 16, 64.57518768310547
0, 2, 17, 80.11322021484375
0, 2, 18, 145.3107299804688
0, 2, 19, 606.781005859375
0, 2, 20, 1284.831298828125
0, 2, 21, 1438.6826171875
0, 2, 22, 1460.736450195312
0, 2, 23, 1408.170654296875
0, 2, 24, 1442.555908203125
0, 2, 25, 1524.278930664062
0, 2, 26, 1554.866821289062
0, 2, 27, 1452.709350585938
0, 2, 28, 1461.2900390625
0, 2, 29, 1459.515869140625
0, 2, 30, 1461.79931640625
0, 2, 31, 1531.512451171875
0, 2, 32, 1507.52587890625
0, 2, 33, 1443.029541015625
0, 2, 34, 1472.618774414062
0, 2, 35, 1471.442749023438
0, 2, 36, 1529.688354492188
0, 2, 37, 1541.512573242188
0, 2, 38, 1504.8623046875
0, 2, 39, 1462.194580078125
0, 2, 40, 1503.111450195312
0, 2, 41, 1519.16015625
0, 2, 42, 1501.354614257812
0, 2, 43, 1551.642700195312
0, 2, 44, 1457.1650390625
0, 2, 45, 1483.563842773438
0, 2, 46, 1424.083740234375
0, 2, 47, 1444.73095703125
0, 2, 48, 1395.285400390625
0, 2, 49, 1461.135620117188
0, 2, 50, 1442.945678710938
0, 2, 51, 1443.716064453125
0, 2, 52, 1494.392944335938
0, 2, 53, 1526.587646484375
0, 2, 54, 1527.11572265625
0, 2, 55, 1494.430297851562
0, 2, 56, 1462.404174804688
0, 2, 57, 1410.651977539062
0, 2, 58, 1457.6806640625
0, 2, 59, 1449.513671875
0, 2, 60, 1468.768676757812
0, 2, 61, 1448.651000976562
0, 2, 62, 1473.258544921875
0, 2, 63, 1507.364868164062
0, 2, 64, 1457.20458984375
0, 2, 65, 1428.302490234375
0, 2, 66, 1491.071166992188
0, 2, 67, 1502.289306640625
0, 2, 68, 1540.537475585938
0, 2, 69, 1539.834838867188
0, 2, 70, 1508.099853515625
0, 2, 71, 1468.081298828125
0, 2, 72, 1517.810424804688
0, 2, 73, 1523.452270507812
0, 2, 74, 1494.302856445312
0, 2, 75, 1507.291625976562
0, 2, 76, 1453.3125
0, 2, 77, 1506.907592773438
0, 2, 78, 1433.656127929688
0, 2, 79, 1537.485107421875
0, 2, 80, 1479.778076171875
0, 2, 81, 1467.866577148438
0, 2, 82, 1560.627197265625
0, 2, 83, 1512.260864257812
0, 2, 84, 1491.112182617188
0, 2, 85, 1517.1220703125
0, 2, 86, 1538.9501953125
0, 2, 87, 1489.862548828125
0, 2, 88, 1534.668701171875
0, 2, 89, 1465.967529296875
0, 2, 90, 1430.442016601562
0, 2, 91, 1401.015869140625
0, 2, 92, 1478.562255859375
0, 2, 93, 1495.416259765625
0, 2, 94, 1454.3232421875
0, 2, 95, 1546.210571289062
0, 2, 96, 1512.790283203125
0, 2, 97, 1453.537719726562
0, 2, 98, 1466.622314453125
0, 2, 99, 1405.366333007812
0, 2, 100, 1470.380493164062
0, 2, 101, 1479.048706054688
0, 2, 102, 1460.239501953125
0, 2, 103, 1383.474853515625
0, 2, 104, 1408.982666015625
0, 2, 105, 1397.628173828125
0, 2, 106, 1457.718017578125
0, 2, 107, 1273.19140625
0, 2, 108, 622.7670288085938
0, 2, 109, 170.5977478027344
0, 2, 110, 72.67367553710938
0, 2, 111, 66.89577484130859
0, 2, 112, 44.48584365844727
0, 2, 113, 43.59156799316406
0, 2, 114, 35.79097366333008
0, 2, 115, 40.52072906494141
0, 2, 116, 32.76823425292969
0, 2, 117, 37.42416763305664
0, 2, 118, 28.42675399780273
0, 2, 119, 33.96471405029297
0, 2, 120, 28.91044235229492
0, 2, 121, 22.00878143310547
0, 2, 122, 23.31133460998535
0, 2, 123, 22.43395805358887
0, 2, 124, 27.21931838989258
0, 2, 125, 29.59735679626465
0, 2, 126, 21.23877906799316
0, 2, 127, 22.37795448303223
0, 3, 0, 20.51076507568359
0, 3, 1, 21.76984024047852
0, 3, 2, 25.23631858825684
0, 3, 3, 22.44341850280762
0, 3, 4, 21.03692054748535
0, 3, 5, 26.19804191589355
0, 3, 6, 31.77324295043945
0, 3, 7, 28.45434188842773
0, 3, 8, 26.92052459716797
0, 3, 9, 33.7133674621582
0, 3, 10, 35.40583419799805
0, 3, 11, 32.33307647705078
0, 3, 12, 48.3544921875
0, 3, 13, 54.1874885559082
0, 3, 14, 61.07293319702148
0, 3, 15, 56.9388542175293
0, 3, 16, 70.39305877685547
0, 3, 17, 89.86611938476562
0, 3, 18, 235.1159820556641
0, 3, 19, 875.299072265625
0, 3, 20, 1387.851318359375
0, 3, 21, 1506.373413085938
0, 3, 22, 1461.313720703125
0, 3, 23, 1453.899291992188
0, 3, 24, 1441.197265625
0, 3, 25, 1462.943115234375
0, 3, 26, 1497.481079101562
0, 3, 27, 1472.703369140625
0, 3, 28, 1496.095336914062
0, 3, 29, 1545.984619140625
0, 3, 30, 1572.338256835938
0, 3, 31, 1514.903930664062
0, 3, 32, 1548.517333984375
0, 3, 33, 1539.3134765625
0, 3, 34, 1489.879516601562
0, 3, 35, 1462.916381835938
0, 3, 36, 1448.602905273438
0, 3, 37, 1514.865478515625
0, 3, 38, 1518.96826171875
0, 3, 39, 1439.633666992188
0, 3, 40, 1439.50634765625
0, 3, 41, 1566.2099609375
0, 3, 42, 1461.86083984375
0, 3, 43, 1450.519287109375
0, 3, 44, 1448.834716796875
0, 3, 45, 1510.452270507812
0, 3, 46, 1510.051513671875
0, 3, 47, 1440.971435546875
0, 3, 48, 1510.315673828125
0, 3, 49, 1461.391235351562
0, 3, 50, 1492.162963867188
0, 3, 51, 1541.588500976562
0, 3, 52, 1533.583129882812
0, 3, 53, 1468.3720703125
0, 3, 54, 1536.998901367188
0, 3, 55, 1503.60205078125
0, 3, 56, 1435.25048828125
0, 3, 57, 1503.890014648438
0, 3, 58, 1512.568481445312
0, 3, 59, 1510.40673828125
0, 3, 60, 1530.7890625
0, 3, 61, 1480.55859375
0, 3, 62, 1496.76220703125
0, 3, 63, 1493.293334960938
0, 3, 64, 1505.231201171875
0, 3, 65, 1512.774536132812
0, 3, 66, 1555.107055664062
0, 3, 67, 1544.269287109375
0, 3, 68, 1446.824584960938
0, 3, 69, 1457.972412109375
0, 3, 70, 1392.06787109375
0, 3, 71, 1466.192138671875
0, 3, 72, 1546.460815429688
0, 3, 73, 1499.334350585938
0, 3, 74, 1465.9873046875
0, 3, 75, 1458.991333007812
0, 3, 76, 1573.30517578125
0, 3, 77, 1538.29638671875
0, 3, 78, 1430.226806640625
0, 3, 79, 1500.375366210938
0, 3, 80, 1467.54248046875
0, 3, 81, 1476.06689453125
0, 3, 82, 1555.486328125
0, 3, 83, 1514.66748046875
0, 3, 84, 1562.90576171875
0, 3, 85, 1481.9677734375
0, 3, 86, 1526.796630859375
0, 3, 87, 1536.312866210938
0, 3, 88, 1457.62548828125
0, 3, 89, 1456.705322265625
0, 3, 90, 1454.414184570312
0, 3, 91, 1421.726806640625
0, 3, 92, 1511.67578125
0, 3, 93, 1499.363403320312
0, 3, 94, 1512.291259765625
0, 3, 95, 1541.700561523438
0, 3, 96, 1515.244384765625
0, 3, 97, 1467.0361328125
0, 3, 98, 1435.380249023438
0, 3, 99, 1470.174072265625
0, 3, 100, 1468.957763671875
0, 3, 101, 1473.6474609375
0, 3, 102, 1521.779296875
0, 3, 103, 1553.215576171875
0, 3, 104, 1500.240356445312
0, 3, 105, 1514.084228515625
0, 3, 106, 1478.481689453125
0, 3, 107, 1339.800903320312
0, 3, 108, 876.4219360351562
0, 3, 109, 269.2222595214844
0, 3, 110, 100.2720260620117
0, 3, 111, 65.33033752441406
0, 3, 112, 64.13998413085938
0, 3, 113, 48.99724197387695
0, 3, 114, 48.93332290649414
0, 3, 115, 51.76378631591797
0, 3, 116, 42.73398590087891
0, 3, 117, 37.11954879760742
0, 3, 118, 38.52412414550781
0, 3, 119, 29.97268867492676
0, 3, 120, 31.06633567810059
0, 3, 121, 17.94950485229492
0, 3, 122, 29.38798332214355
0, 3, 123, 22.93066787719727
0, 3, 124, 19.92020416259766
0, 3, 125, 24.2153434753418
0, 3, 126, 24.72303009033203
0, 3, 127, 14.66732788085938
0, 4, 0, 19.8906078338623
0, 4, 1, 24.68852996826172
0, 4, 2, 18.04718971252441
0, 4, 3, 28.31974983215332
0, 4, 4, 24.61848831176758
0, 4, 5, 26.82515525817871
0, 4, 6, 27.59757423400879
0, 4, 7, 28.98987197875977
0, 4, 8, 28.57540893554688
0, 4, 9, 36.56604766845703
0, 4, 10, 33.8056526184082
0, 4, 11, 39.59432601928711
0, 4, 12, 43.92843627929688
0, 4, 13, 53.56289291381836
0, 4, 14, 59.02132797241211
0, 4, 15, 62.68586349487305
0, 4, 16, 74.50755310058594
0, 4, 17, 113.7534103393555
0, 4, 18, 449.2330627441406
0, 4, 19, 1183.753662109375
0, 4, 20, 1445.254638671875
0, 4, 21, 1420.064453125
0, 4, 22, 1432.269653320312
0, 4, 23, 1452.7529296875
0, 4, 24, 1474.006591796875
0, 4, 25, 1407.49951171875
0, 4, 26, 1537.231689453125
0, 4, 27, 1551.146362304688
0, 4, 28, 1505.862548828125
0, 4, 29, 1515.790161132812
0, 4, 30, 1523.18505859375
0, 4, 31, 1569.5224609375
0, 4, 32, 1514.166870117188
0, 4, 33, 1496.092529296875
0, 4, 34, 1472.936889648438
0, 4, 35, 1562.885375976562
0, 4, 36, 1506.587890625
0, 4, 37, 1511.526611328125
0, 4, 38, 1528.498413085938
0, 4, 39, 1467.149658203125
0, 4, 40, 1513.229125976562
0, 4, 41, 1585.20654296875
0, 4, 42, 1564.510009765625
0, 4, 43, 1471.34375
0, 4, 44, 1496.616333007812
0, 4, 45, 1516.1962890625
0, 4, 46, 1471.578002929688
0, 4, 47, 1500.199096679688
0, 4, 48, 1529.814086914062
0, 4, 49, 1473.592651367188
0, 4, 50, 1519.888671875
0, 4, 51, 1489.670288085938
0, 4, 52, 1495.020263671875
0, 4, 53, 1452.93212890625
0, 4, 54, 1438.99365234375
0, 4, 55, 1529.4775390625
0, 4, 56, 1457.420654296875
0, 4, 57, 1498.130615234375
0, 4, 58, 1462.330444335938
0, 4, 59, 1464.1748046875
0, 4, 60, 1523.526489257812
0, 4, 61, 1503.998413085938
0, 4, 62, 1500.023315429688
0, 4, 63, 1547.086669921875
0, 4, 64, 1595.14306640625
0, 4, 65, 1427.043701171875
0, 4, 66, 1514.505004882812
0, 4, 67, 1519.148315429688
0, 4, 68, 1504.160888671875
0, 4, 69, 1468.099487304688
0, 4, 70, 1544.928833007812
0, 4, 71, 1518.19970703125
0, 4, 72, 1525.405639648438
0, 4, 73, 1495.329467773438
0, 4, 74, 1483.572631835938
0, 4, 75, 1533.368286132812
0, 4, 76, 1481.401611328125
0, 4, 77, 1498.900268554688
0, 4, 78, 1503.784545898438
0, 4, 79, 1479.40966796875
0, 4, 80, 1517.015502929688
0, 4, 81, 1522.083129882812
0, 4, 82, 1564.888427734375
0, 4, 83, 1506.158325195312
0, 4, 84, 1536.994384765625
0, 4, 85, 1552.603637695312
0, 4, 86, 1525.898193359375
0, 4, 87, 1497.525268554688
0, 4, 88, 1515.950927734375
0, 4, 89, 1482.693603515625
0, 4, 90, 1543.666137695312
0, 4, 91, 1553.499267578125
0, 4, 92, 1493.636352539062
0, 4, 93, 1511.685424804688
0, 4, 94, 1479.140380859375
0, 4, 95, 1505.728881835938
0, 4, 96, 1451.8779296875
0, 4, 97, 1410.166870117188
0, 4, 98, 1553.723754882812
0, 4, 99, 1509.705444335938
0, 4, 100, 1489.667724609375
0, 4, 101, 1448.329711914062
0, 4, 102, 1447.69140625
0, 4, 103, 1514.544189453125
0, 4, 104, 1514.350341796875
0, 4, 105, 1554.001586914062
0, 4, 106, 1480.446655273438
0, 4, 107, 1455.074584960938
0, 4, 108, 1119.277954101562
0, 4, 109, 433.1786804199219
0, 4, 110, 97.79287719726562
0, 4, 111, 67.40896606445312
0, 4, 112, 60.23748779296875
0, 4, 113, 51.3055419921875
0, 4, 114, 58.98406600952148
0, 4, 115, 40.68951797485352
0, 4, 116, 37.79616546630859
0, 4, 117, 36.29152679443359
0, 4, 118, 41.97558975219727
0, 4, 119, 42.57828903198242
0, 4, 120, 36.94380569458008
0, 4, 121, 26.80606842041016
0, 4, 122, 29.72694778442383
0, 4, 123, 28.00836563110352
0, 4, 124, 23.52257537841797
0, 4, 125, 34.89968109130859
0, 4, 126, 23.27660942077637
0, 4, 127, 17.2762336730957
0, 5, 0, 22.05917930603027
0, 5, 1, 26.18278694152832
0, 5, 2, 27.82715797424316
0, 5, 3, 24.7471866607666
0, 5, 4, 21.7086124420166
0, 5, 5, 37.69214630126953
0, 5, 6, 34.46588516235352
0, 5, 7, 28.62728500366211
0, 5, 8, 31.53808212280273
0, 5, 9, 30.52859687805176
0, 5, 10, 37.40362548828125
0, 5, 11, 37.90783309936523
0, 5, 12, 38.50273513793945
0, 5, 13, 45.90215301513672
0, 5, 14, 62.8648567199707
0, 5, 15, 78.74116516113281
0, 5, 16, 76.31369018554688
0, 5, 17, 160.2155456542969
0, 5, 18, 677.8141479492188
0, 5, 19, 1346.630859375
0, 5, 20, 1525.259521484375
0, 5, 21, 1494.024536132812
0, 5, 22, 1496.0625
0, 5, 23, 1529.410400390625
0, 5, 24, 1463.708618164062
0, 5, 25, 1426.839233398438
0, 5, 26, 1529.391479492188
0, 5, 27, 1537.093017578125
0, 5, 28, 1486.958618164062
0, 5, 29, 1524.122802734375
0, 5, 30, 1494.399658203125
0, 5, 31, 1496.722778320312
0, 5, 32, 1596.9140625
0, 5, 33, 1503.368896484375
0, 5, 34, 1486.7861328125
0, 5, 35, 1510.331787109375
0, 5, 36, 1440.572631835938
0, 5, 37, 1529.880981445312
0, 5, 38, 1546.1943359375
0, 5, 39, 1552.413330078125
0, 5, 40, 1498.46240234375
0, 5, 41, 1477.920288085938
0, 5, 42, 1540.211547851562
0, 5, 43, 1529.983276367188
0, 5, 44, 1541.006225585938
0, 5, 45, 1506.835571289062
0, 5, 46, 1491.470092773438
0, 5, 47, 1483.237915039062
0, 5, 48, 1498.189697265625
0, 5, 49, 1522.226440429688
0, 5, 50, 1503.271118164062
0, 5, 51, 1520.11962890625
0, 5, 52, 1428.0751953125
0, 5, 53, 1521.390625
0, 5, 54, 1521.483520507812
0, 5, 55, 1521.869262695312
0, 5, 56, 1482.948120117188
0, 5, 57, 1538.026977539062
0, 5, 58, 1511.502075195312
0, 5, 59, 1490.416748046875
0, 5, 60, 1538.956787109375
0, 5, 61, 1447.88525390625
0, 5, 62, 1589.678100585938
0, 5, 63, 1438.821411132812
0, 5, 64, 1491.388061523438
0, 5, 65, 1475.329223632812
0, 5, 66, 1527.98974609375
0, 5, 67, 1562.232177734375
0, 5, 68, 1466.591796875
0, 5, 69, 1480.19921875
0, 5, 70, 1490.491333007812
0, 5, 71, 1473.907348632812
0, 5, 72, 1540.055541992188
0, 5, 73, 1461.219482421875
0, 5, 74, 1492.561767578125
0, 5, 75, 1483.794799804688
0, 5, 76, 1479.364135742188
0, 5, 77, 1517.066162109375
0, 5, 78, 1526.426879882812
0, 5, 79, 1508.956787109375
0, 5, 80, 1522.344604492188
0, 5, 81, 1597.899780273438
0, 5, 82, 1523.193481445312
0, 5, 83, 1487.232421875
0, 5, 84, 1530.173217773438
0, 5, 85, 1510.90966796875
0, 5, 86, 1558.453125
0, 5, 87, 1471.358276367188
0, 5, 88, 1498.287231445312
0, 5, 89, 1480.139526367188
0, 5, 90, 1486.186889648438
0, 5, 91, 1553.192504882812
0, 5, 92, 1478.557373046875
0, 5, 93, 1557.008178710938
0, 5, 94, 1513.5927734375
0, 5, 95, 1561.7431640625
0, 5, 96, 1503.155639648438
0, 5, 97, 1512.716674804688
0, 5, 98, 1508.654052734375
0, 5, 99, 1541.665283203125
0, 5, 100, 1434.971435546875
0, 5, 101, 1429.612915039062
0, 5, 102, 1519.581420898438
0, 5, 103, 1473.996704101562
0, 5, 104, 1459.5224609375
0, 5, 105, 1491.278930664062
0, 5, 106, 1458.112060546875
0, 5, 107, 1403.079345703125
0, 5, 108, 1293.92333984375
0, 5, 109, 721.292236328125
0, 5, 110, 194.6631774902344
0, 5, 111, 90.04621887207031
0, 5, 112, 81.26431274414062
0, 5, 113, 67.77984619140625
0, 5, 114, 57.94663238525391
0, 5, 115, 53.14529037475586
0, 5, 116, 42.45902633666992
0, 5, 117, 37.81266403198242
0, 5, 118, 43.60041427612305
0, 5, 119, 24.1577262878418
0, 5, 120, 31.56908798217773
0, 5, 121, 23.53535270690918
0, 5, 122, 33.21295166015625
0, 5, 123, 26.58315277099609
0, 5, 124, 22.7095890045166
0, 5, 125, 19.36569213867188
0, 5, 126, 20.41184234619141
0, 5, 127, 21.62626075744629
0, 6, 0, 20.94380378723145
0, 6, 1, 28.02910614013672
0, 6, 2, 29.50189781188965
0, 6, 3, 26.70582580566406
0, 6, 4, 21.76603507995605
0, 6, 5, 35.01401519775391
0, 6, 6, 39.92098617553711
0, 6, 7, 30.65142250061035
0, 6, 8, 35.08989715576172
0, 6, 9, 31.90151405334473
0, 6, 10, 34.32882690429688
0, 6, 11, 44.36769866943359
0, 6, 12, 38.50135803222656
0, 6, 13, 55.62076568603516
0, 6, 14, 64.74321746826172
0, 6, 15, 85.3958740234375
0, 6, 16, 114.1029891967773
0, 6, 17, 297.1467590332031
0, 6, 18, 896.8706665039062
0, 6, 19, 1373.305053710938
0, 6, 20, 1436.290161132812
0, 6, 21, 1525.765747070312
0, 6, 22, 1500.797241210938
0, 6, 23, 1529.970092773438
0, 6, 24, 1480.3671875
0, 6, 25, 1525.614501953125
0, 6, 26, 1519.763305664062
0, 6, 27, 1520.381713867188
0, 6, 28, 1554.385864257812
0, 6, 29, 1578.5478515625
0, 6, 30, 1514.924560546875
0, 6, 31, 1493.522583007812
0, 6, 32, 1526.663452148438
0, 6, 33, 1490.266845703125
0, 6, 34, 1560.480224609375
0, 6, 35, 1505.527221679688
0, 6, 36, 1441.6689453125
0, 6, 37, 1546.6484375
0, 6, 38, 1521.047119140625
0, 6, 39, 1523.311767578125
0, 6, 40, 1457.942626953125
0, 6, 41, 1441.66943359375
0, 6, 42, 1519.195068359375
0, 6, 43, 1488.088745117188
0, 6, 44, 1433.09521484375
0, 6, 45, 1549.273315429688
0, 6, 46, 1556.552368164062
0, 6, 47, 1496.7158203125
0, 6, 48, 1526.10791015625
0, 6, 49, 1507.84130859375
0, 6, 50, 1577.52734375
0, 6, 51, 1501.929077148438
0, 6, 52, 1564.820190429688
0, 6, 53, 1472.038208007812
0, 6, 54, 1504.001220703125
0, 6, 55, 1573.413818359375
0, 6, 56, 1524.347534179688
0, 6, 57, 1506.61083984375
0, 6, 58, 1466.48974609375
0, 6, 59, 1523.390869140625
0, 6, 60, 1471.267456054688
0, 6, 61, 1567.627075195312
0, 6, 62, 1542.226928710938
0, 6, 63, 1496.112548828125
0, 6, 64, 1413.50634765625
0, 6, 65, 1491.223876953125
0, 6, 66, 1513.849853515625
0, 6, 67, 1510.513916015625
0, 6, 68, 1542.375244140625
0, 6, 69, 1483.034790039062
0, 6, 70, 1523.5712890625
0, 6, 71, 1461.263793945312
0, 6, 72, 1596.167114257812
0, 6, 73, 1491.365234375
0, 6, 74, 1559.089965820312
0, 6, 75, 1539.325927734375
0, 6, 76, 1565.0322265625
0, 6, 77, 1509.20458984375
0, 6, 78, 1445.691650390625
0, 6, 79, 1558.410766601562
0, 6, 80, 1479.556274414062
0, 6, 81, 1481.737182617188
0, 6, 82, 1505.290649414062
0, 6, 83, 1525.5380859375
0, 6, 84, 1521.229248046875
0, 6, 85, 1535.394775390625
0, 6, 86, 1539.793334960938
0, 6, 87, 1574.2724609375
0, 6, 88, 1478.026733398438
0, 6, 89, 1562.933227539062
0, 6, 90, 1493.951416015625
0, 6, 91, 1541.936767578125
0, 6, 92, 1484.792846679688
0, 6, 93, 1497.639404296875
0, 6, 94, 1474.62890625
0, 6, 95, 1513.067626953125
0, 6, 96, 1522.673583984375
0, 6, 97, 1505.395629882812
0, 6, 98, 1496.159790039062
0, 6, 99, 1483.318237304688
0, 6, 100, 1523.592529296875
0, 6, 101, 1512.9091796875
0, 6, 102, 1536.52880859375
0, 6, 103, 1499.057861328125
0, 6, 104, 1469.06640625
0, 6, 105, 1482.94287109375
0, 6, 106, 1499.15869140625
0, 6, 107, 1513.15771484375
0, 6, 108, 1406.414794921875
0, 6, 109, 920.28564453125
0, 6, 110, 286.2801208496094
0, 6, 111, 97.68463134765625
0, 6, 112, 78.56620788574219
0, 6, 113, 57.96371078491211
0, 6, 114, 54.80995559692383
0, 6, 115, 43.43553924560547
0, 6, 116, 47.05342864990234
0, 6, 117, 37.8666877746582
0, 6, 118, 35.64651489257812
0, 6, 119, 35.65232849121094
0, 6, 120, 31.46589088439941
0, 6, 121, 31.13549423217773
0, 6, 122, 26.01132202148438
0, 6, 123, 25.16944313049316
0, 6, 124, 27.46693420410156
0, 6, 125, 31.85175895690918
0, 6, 126, 20.21243095397949
0, 6, 127, 24.37449645996094
0, 7, 0, 22.80350875854492
0, 7, 1, 25.57120132446289
0, 7, 2, 18.39105033874512
0, 7, 3, 26.83635139465332
0, 7, 4, 25.62216949462891
0, 7, 5, 36.30199432373047
0, 7, 6, 31.26557540893555
0, 7, 7, 36.32205963134766
0, 7, 8, 37.27463150024414
0, 7, 9, 38.59917831420898
0, 7, 10, 46.15048217773438
0, 7, 11, 51.23163986206055
0, 7, 12, 46.83512878417969
0, 7, 13, 53.62487411499023
0, 7, 14, 66.22647857666016
0, 7, 15, 81.36614990234375
0, 7, 16, 132.7549285888672
0, 7, 17, 459.5669860839844
0, 7, 18, 1099.791625976562
0, 7, 19, 1503.985107421875
0, 7, 20, 1485.387939453125
0, 7, 21, 1361.561157226562
0, 7, 22, 1487.82666015625
0, 7, 23, 1452.285400390625
0, 7, 24, 1506.2763671875
0, 7, 25, 1594.758666992188
0, 7, 26, 1515.899658203125
0, 7, 27, 1510.088989257812
0, 7, 28, 1542.43994140625
0, 7, 29, 1576.652587890625
0, 7, 30, 1549.674438476562
0, 7, 31, 1434.152465820312
0, 7, 32, 1544.864501953125
0, 7, 33, 1495.79150390625
0, 7, 34, 1481.328247070312
0, 7, 35, 1523.206787109375
0, 7, 36, 1474.876220703125
0, 7, 37, 1598.4267578125
0, 7, 38, 1508.518920898438
0, 7, 39, 1491.2158203125
0, 7, 40, 1548.07568359375
0, 7, 41, 1465.125
0, 7, 42, 1490.710083007812
0, 7, 43, 1439.71533203125
0, 7, 44, 1491.342163085938
0, 7, 45, 1472.305908203125
0, 7, 46, 1511.598754882812
0, 7, 47, 1568.800659179688
0, 7, 48, 1522.00439453125
0, 7, 49, 1537.926879882812
0, 7, 50, 1514.626220703125
0, 7, 51, 1495.719482421875
0, 7, 52, 1516.375122070312
0, 7, 53, 1496.212280273438
0, 7, 54, 1583.052734375
0, 7, 55, 1469.350341796875
0, 7, 56, 1547.0458984375
0, 7, 57, 1515.048706054688
0, 7, 58, 1551.010986328125
0, 7, 59, 1540.859375
0, 7, 60, 1546.947143554688
0, 7, 61, 1495.2333984375
0, 7, 62, 1432.852661132812
0, 7, 63, 1511.102172851562
0, 7, 64, 1544.187377929688
0, 7, 65, 1527.450927734375
0, 7, 66, 1539.0888671875
0, 7, 67, 1578.578002929688
0, 7, 68, 1528.6396484375
0, 7, 69, 1515.525268554688
0, 7, 70, 1498.7607421875
0, 7, 71, 1524.42431640625
0, 7, 72, 1527.5859375
0, 7, 73, 1519.813232421875
0, 7, 74, 1579.18896484375
0, 7, 75, 1536.885986328125
0, 7, 76, 1556.320678710938
0, 7, 77, 1514.1650390625
0, 7, 78, 1503.99169921875
0, 7, 79, 1426.539916992188
0, 7, 80, 1490.16650390625
0, 7, 81, 1497.391479492188
0, 7, 82, 1530.6484375
0, 7, 83, 1545.149780273438
0, 7, 84, 1582.74169921875
0, 7, 85, 1479.399291992188
0, 7, 86, 1497.644775390625
0, 7, 87, 1507.4326171875
0, 7, 88, 1501.8076171875
0, 7, 89, 1559.02978515625
0, 7, 90, 1516.765502929688
0, 7, 91, 1561.093383789062
0, 7, 92, 1528.043334960938
0, 7, 93, 1549.240966796875
0, 7, 94, 1535.4228515625
0, 7, 95, 1509.344848632812
0, 7, 96, 1511.410766601562
0, 7, 97, 1435.649169921875
0, 7, 98, 1482.443725585938
0, 7, 99, 1529.343383789062
0, 7, 100, 1422.708862304688
0, 7, 101, 1464.279296875
0, 7, 102, 1447.793579101562
0, 7, 103, 1431.18701171875
0, 7, 104, 1494.472290039062
0, 7, 105, 1523.968872070312
0, 7, 106, 1567.433837890625
0, 7, 107, 1482.361083984375
0, 7, 108, 1409.811279296875
0, 7, 109, 1150.181762695312
0, 7, 110, 470.3075256347656
0, 7, 111, 125.1503219604492
0, 7, 112, 78.33713531494141
0, 7, 113, 69.74432373046875
0, 7, 114, 53.80284118652344
0, 7, 115, 49.7978515625
0, 7, 116, 44.00933074951172
0, 7, 117, 46.94875335693359
0, 7, 118, 43.63259124755859
0, 7, 119, 34.92362594604492
0, 7, 120, 20.58514213562012
0, 7, 121, 30.17539405822754
0, 7, 122, 34.57751083374023
0, 7, 123, 36.77639770507812
0, 7, 124, 33.68196105957031
0, 7, 125, 24.8272705078125
0, 7, 126, 28.04844093322754
0, 7, 127, 19.51434516906738
0, 8, 0, 21.60099792480469
0, 8, 1, 25.38921356201172
0, 8, 2, 23.48502349853516
0, 8, 3, 26.58602714538574
0, 8, 4, 26.09714698791504
0, 8, 5, 32.86350250244141
0, 8, 6, 35.56170654296875
0, 8, 7, 28.70634651184082
0, 8, 8, 36.86260223388672
0, 8, 9, 43.77913284301758
0, 8, 10, 42.71145248413086
0, 8, 11, 47.63479614257812
0, 8, 12, 49.31692886352539
0, 8, 13, 72.47947692871094
0, 8, 14, 70.88298034667969
0, 8, 15, 87.20943450927734
0, 8, 16, 171.2662506103516
0, 8, 17, 678.1725463867188
0, 8, 18, 1277.919311523438
0, 8, 19, 1447.104736328125
0, 8, 20, 1418.427734375
0, 8, 21, 1409.145385742188
0, 8, 22, 1486.68017578125
0, 8, 23, 1476.217529296875
0, 8, 24, 1435.197387695312
0, 8, 25, 1458.572387695312
0, 8, 26, 1508.15380859375
0, 8, 27, 1521.4638671875
0, 8, 28, 1477.552978515625
0, 8, 29, 1502.719970703125
0, 8, 30, 1488.672729492188
0, 8, 31, 1539.232055664062
0, 8, 32, 1506.892211914062
0, 8, 33, 1482.32666015625
0, 8, 34, 1533.272094726562
0, 8, 35, 1441.234375
0, 8, 36, 1496.571166992188
0, 8, 37, 1551.617431640625
0, 8, 38, 1552.076171875
0, 8, 39, 1490.655395507812
0, 8, 40, 1527.905639648438
0, 8, 41, 1486.074829101562
0, 8, 42, 1540.211181640625
0, 8, 43, 1437.686157226562
0, 8, 44, 1532.858764648438
0, 8, 45, 1511.52392578125
0, 8, 46, 1597.021118164062
0, 8, 47, 1586.009033203125
0, 8, 48, 1547.716552734375
0, 8, 49, 1567.45947265625
