# TOPAS Version: 3.1.p3
# Parameter File: batch_inserts_20.txt
# Results for scorer Readout_Adipose
# Scored in component: MyBox
# X in 1 bin  of 0.75 cm
# Y in 512 bins of 0.0783984 cm
# Z in 128 bins of 0.078125 cm
# EnergyDeposit ( MeV ) : Sum   
0, 0, 0, 3.555893659591675
0, 0, 1, 2.859145641326904
0, 0, 2, 4.890137195587158
0, 0, 3, 1.983832120895386
0, 0, 4, 5.089502334594727
0, 0, 5, 2.671979904174805
0, 0, 6, 7.004897117614746
0, 0, 7, 8.573064804077148
0, 0, 8, 3.345510005950928
0, 0, 9, 3.431182861328125
0, 0, 10, 6.083361625671387
0, 0, 11, 4.676449775695801
0, 0, 12, 5.692567825317383
0, 0, 13, 6.803638935089111
0, 0, 14, 8.077960968017578
0, 0, 15, 9.745058059692383
0, 0, 16, 8.161459922790527
0, 0, 17, 8.810103416442871
0, 0, 18, 14.64011192321777
0, 0, 19, 44.68387985229492
0, 0, 20, 140.6756439208984
0, 0, 21, 223.3128814697266
0, 0, 22, 250.4383239746094
0, 0, 23, 256.5643005371094
0, 0, 24, 251.4690093994141
0, 0, 25, 261.29052734375
0, 0, 26, 233.45556640625
0, 0, 27, 236.5392608642578
0, 0, 28, 272.2885131835938
0, 0, 29, 251.4905548095703
0, 0, 30, 229.1248931884766
0, 0, 31, 243.3686370849609
0, 0, 32, 263.5466003417969
0, 0, 33, 264.1481323242188
0, 0, 34, 290.4378356933594
0, 0, 35, 268.1031799316406
0, 0, 36, 246.9320831298828
0, 0, 37, 252.1429595947266
0, 0, 38, 271.5548095703125
0, 0, 39, 231.1769561767578
0, 0, 40, 242.4380645751953
0, 0, 41, 266.5336608886719
0, 0, 42, 230.1809387207031
0, 0, 43, 261.3726501464844
0, 0, 44, 253.0056304931641
0, 0, 45, 253.2009887695312
0, 0, 46, 243.5923461914062
0, 0, 47, 252.2448120117188
0, 0, 48, 266.7863464355469
0, 0, 49, 274.6071472167969
0, 0, 50, 250.8519287109375
0, 0, 51, 253.4599151611328
0, 0, 52, 273.7006225585938
0, 0, 53, 292.2950744628906
0, 0, 54, 243.2753753662109
0, 0, 55, 239.7154541015625
0, 0, 56, 277.3299865722656
0, 0, 57, 266.0300903320312
0, 0, 58, 246.4731597900391
0, 0, 59, 273.2587585449219
0, 0, 60, 234.7637329101562
0, 0, 61, 245.9709014892578
0, 0, 62, 256.9709167480469
0, 0, 63, 265.7627258300781
0, 0, 64, 255.3128051757812
0, 0, 65, 262.5279846191406
0, 0, 66, 278.1313781738281
0, 0, 67, 246.6386413574219
0, 0, 68, 258.5207824707031
0, 0, 69, 262.3061218261719
0, 0, 70, 271.341064453125
0, 0, 71, 238.9854736328125
0, 0, 72, 249.8122253417969
0, 0, 73, 260.9730529785156
0, 0, 74, 252.8743591308594
0, 0, 75, 241.7245178222656
0, 0, 76, 228.1987609863281
0, 0, 77, 260.3644104003906
0, 0, 78, 255.8788452148438
0, 0, 79, 277.6637268066406
0, 0, 80, 217.7080688476562
0, 0, 81, 268.0469055175781
0, 0, 82, 256.7101440429688
0, 0, 83, 244.5201721191406
0, 0, 84, 269.9819030761719
0, 0, 85, 231.8968505859375
0, 0, 86, 254.8109588623047
0, 0, 87, 250.6488494873047
0, 0, 88, 259.4680480957031
0, 0, 89, 283.1367797851562
0, 0, 90, 243.43212890625
0, 0, 91, 280.0975341796875
0, 0, 92, 252.2381439208984
0, 0, 93, 248.9426422119141
0, 0, 94, 248.6136627197266
0, 0, 95, 247.1098785400391
0, 0, 96, 273.4773559570312
0, 0, 97, 272.1665649414062
0, 0, 98, 272.8097839355469
0, 0, 99, 258.2770080566406
0, 0, 100, 258.839599609375
0, 0, 101, 227.3876800537109
0, 0, 102, 234.5125427246094
0, 0, 103, 271.0355529785156
0, 0, 104, 254.2071380615234
0, 0, 105, 254.0971832275391
0, 0, 106, 247.6684265136719
0, 0, 107, 151.8666534423828
0, 0, 108, 37.88472747802734
0, 0, 109, 12.30336380004883
0, 0, 110, 13.09029388427734
0, 0, 111, 10.30021858215332
0, 0, 112, 8.188754081726074
0, 0, 113, 5.020379543304443
0, 0, 114, 6.124808788299561
0, 0, 115, 5.882548809051514
0, 0, 116, 6.335616588592529
0, 0, 117, 6.769418239593506
0, 0, 118, 5.714896678924561
0, 0, 119, 5.616304874420166
0, 0, 120, 2.668164014816284
0, 0, 121, 4.338156223297119
0, 0, 122, 3.891245603561401
0, 0, 123, 4.134475708007812
0, 0, 124, 5.387557029724121
0, 0, 125, 3.219268560409546
0, 0, 126, 4.155422210693359
0, 0, 127, 2.733498334884644
0, 1, 0, 7.518967628479004
0, 1, 1, 4.517004013061523
0, 1, 2, 3.434167861938477
0, 1, 3, 2.565351963043213
0, 1, 4, 3.283156633377075
0, 1, 5, 2.270248174667358
0, 1, 6, 4.191225528717041
0, 1, 7, 6.490026950836182
0, 1, 8, 6.920302391052246
0, 1, 9, 4.899514198303223
0, 1, 10, 6.630776405334473
0, 1, 11, 11.24676322937012
0, 1, 12, 9.983338356018066
0, 1, 13, 10.58868503570557
0, 1, 14, 8.010950088500977
0, 1, 15, 7.81840181350708
0, 1, 16, 10.66192436218262
0, 1, 17, 12.49346256256104
0, 1, 18, 21.00569152832031
0, 1, 19, 67.87042236328125
0, 1, 20, 199.8162689208984
0, 1, 21, 254.8851013183594
0, 1, 22, 294.7745666503906
0, 1, 23, 282.5578308105469
0, 1, 24, 276.2953186035156
0, 1, 25, 286.1257019042969
0, 1, 26, 268.420654296875
0, 1, 27, 306.8768310546875
0, 1, 28, 301.342041015625
0, 1, 29, 296.1656188964844
0, 1, 30, 279.1274108886719
0, 1, 31, 290.9083251953125
0, 1, 32, 290.832763671875
0, 1, 33, 296.3418273925781
0, 1, 34, 291.6251525878906
0, 1, 35, 279.6235656738281
0, 1, 36, 307.3493957519531
0, 1, 37, 295.2884216308594
0, 1, 38, 279.2483215332031
0, 1, 39, 295.7567443847656
0, 1, 40, 265.1911926269531
0, 1, 41, 286.9526062011719
0, 1, 42, 290.1957702636719
0, 1, 43, 332.040283203125
0, 1, 44, 277.5083923339844
0, 1, 45, 291.9373779296875
0, 1, 46, 258.8119812011719
0, 1, 47, 311.4888000488281
0, 1, 48, 284.7783508300781
0, 1, 49, 303.5848388671875
0, 1, 50, 262.4464721679688
0, 1, 51, 272.3306579589844
0, 1, 52, 297.4223327636719
0, 1, 53, 305.2416687011719
0, 1, 54, 276.0015563964844
0, 1, 55, 292.18603515625
0, 1, 56, 276.0332336425781
0, 1, 57, 297.2139892578125
0, 1, 58, 309.7359619140625
0, 1, 59, 291.8318481445312
0, 1, 60, 296.1697998046875
0, 1, 61, 274.3480529785156
0, 1, 62, 308.4743957519531
0, 1, 63, 285.6036987304688
0, 1, 64, 287.5580139160156
0, 1, 65, 293.7361450195312
0, 1, 66, 292.2971496582031
0, 1, 67, 292.6993103027344
0, 1, 68, 277.715576171875
0, 1, 69, 280.25537109375
0, 1, 70, 272.7435607910156
0, 1, 71, 273.3596801757812
0, 1, 72, 286.1406860351562
0, 1, 73, 303.7631225585938
0, 1, 74, 303.3720703125
0, 1, 75, 291.4716491699219
0, 1, 76, 285.2302551269531
0, 1, 77, 292.5564575195312
0, 1, 78, 302.2344360351562
0, 1, 79, 300.380126953125
0, 1, 80, 297.2581176757812
0, 1, 81, 301.5242919921875
0, 1, 82, 285.7779846191406
0, 1, 83, 331.7854309082031
0, 1, 84, 308.8617858886719
0, 1, 85, 252.4553375244141
0, 1, 86, 293.8161315917969
0, 1, 87, 290.0536193847656
0, 1, 88, 297.4404296875
0, 1, 89, 289.8825988769531
0, 1, 90, 269.4465026855469
0, 1, 91, 317.2201538085938
0, 1, 92, 290.8396911621094
0, 1, 93, 286.3070068359375
0, 1, 94, 304.5408325195312
0, 1, 95, 286.276611328125
0, 1, 96, 284.4395446777344
0, 1, 97, 299.475830078125
0, 1, 98, 277.9922790527344
0, 1, 99, 265.1090087890625
0, 1, 100, 277.4668579101562
0, 1, 101, 282.0247497558594
0, 1, 102, 276.6567993164062
0, 1, 103, 281.4255676269531
0, 1, 104, 306.0786437988281
0, 1, 105, 296.3334655761719
0, 1, 106, 261.6517028808594
0, 1, 107, 193.1264801025391
0, 1, 108, 80.54761505126953
0, 1, 109, 24.77580833435059
0, 1, 110, 11.79304695129395
0, 1, 111, 7.985762596130371
0, 1, 112, 13.15580940246582
0, 1, 113, 7.265809059143066
0, 1, 114, 7.506432056427002
0, 1, 115, 7.319961547851562
0, 1, 116, 11.20604515075684
0, 1, 117, 7.541538238525391
0, 1, 118, 4.572744369506836
0, 1, 119, 7.457617282867432
0, 1, 120, 11.18366146087646
0, 1, 121, 4.61497163772583
0, 1, 122, 2.941360473632812
0, 1, 123, 3.165553569793701
0, 1, 124, 9.34505558013916
0, 1, 125, 3.225333452224731
0, 1, 126, 2.450253486633301
0, 1, 127, 1.039692521095276
0, 2, 0, 3.128294467926025
0, 2, 1, 2.40005898475647
0, 2, 2, 3.584833145141602
0, 2, 3, 4.171802043914795
0, 2, 4, 3.065313816070557
0, 2, 5, 1.249204516410828
0, 2, 6, 2.885832071304321
0, 2, 7, 3.7277991771698
0, 2, 8, 4.00725793838501
0, 2, 9, 4.701325416564941
0, 2, 10, 7.330058574676514
0, 2, 11, 8.248196601867676
0, 2, 12, 6.177986145019531
0, 2, 13, 10.21063804626465
0, 2, 14, 11.42440891265869
0, 2, 15, 7.439003467559814
0, 2, 16, 8.843832015991211
0, 2, 17, 16.93716621398926
0, 2, 18, 34.55642700195312
0, 2, 19, 114.4898300170898
0, 2, 20, 246.9596252441406
0, 2, 21, 272.6185302734375
0, 2, 22, 315.8108215332031
0, 2, 23, 299.6621398925781
0, 2, 24, 285.4915771484375
0, 2, 25, 301.580810546875
0, 2, 26, 291.7881774902344
0, 2, 27, 276.0498352050781
0, 2, 28, 273.1752624511719
0, 2, 29, 277.4271850585938
0, 2, 30, 289.1568603515625
0, 2, 31, 277.350830078125
0, 2, 32, 294.0291442871094
0, 2, 33, 281.787109375
0, 2, 34, 334.1931457519531
0, 2, 35, 292.7036743164062
0, 2, 36, 301.7603149414062
0, 2, 37, 315.2540893554688
0, 2, 38, 309.8970642089844
0, 2, 39, 267.9598083496094
0, 2, 40, 306.5260925292969
0, 2, 41, 292.6607666015625
0, 2, 42, 305.2052917480469
0, 2, 43, 311.7229309082031
0, 2, 44, 311.1671142578125
0, 2, 45, 325.3134155273438
0, 2, 46, 288.22998046875
0, 2, 47, 302.6981506347656
0, 2, 48, 281.7234497070312
0, 2, 49, 280.0322265625
0, 2, 50, 295.3565063476562
0, 2, 51, 284.7082214355469
0, 2, 52, 270.3919677734375
0, 2, 53, 287.4533386230469
0, 2, 54, 279.7537841796875
0, 2, 55, 277.166259765625
0, 2, 56, 302.5303344726562
0, 2, 57, 291.0761413574219
0, 2, 58, 304.1227722167969
0, 2, 59, 289.8014831542969
0, 2, 60, 319.2416381835938
0, 2, 61, 301.9561767578125
0, 2, 62, 315.8951110839844
0, 2, 63, 302.52734375
0, 2, 64, 296.9156799316406
0, 2, 65, 312.7962341308594
0, 2, 66, 279.8379211425781
0, 2, 67, 291.1119995117188
0, 2, 68, 296.3758544921875
0, 2, 69, 311.0157775878906
0, 2, 70, 333.7046813964844
0, 2, 71, 283.0418395996094
0, 2, 72, 300.7752685546875
0, 2, 73, 312.1305541992188
0, 2, 74, 286.6094360351562
0, 2, 75, 305.5391540527344
0, 2, 76, 285.9727172851562
0, 2, 77, 296.7832336425781
0, 2, 78, 315.1359558105469
0, 2, 79, 308.2253112792969
0, 2, 80, 298.4113159179688
0, 2, 81, 280.8406066894531
0, 2, 82, 318.4194946289062
0, 2, 83, 312.144287109375
0, 2, 84, 288.73193359375
0, 2, 85, 281.5528259277344
0, 2, 86, 326.2744140625
0, 2, 87, 287.6707153320312
0, 2, 88, 280.3797302246094
0, 2, 89, 295.5535278320312
0, 2, 90, 294.8153991699219
0, 2, 91, 275.533203125
0, 2, 92, 304.3388671875
0, 2, 93, 317.2439270019531
0, 2, 94, 292.1094970703125
0, 2, 95, 316.5123596191406
0, 2, 96, 315.2359313964844
0, 2, 97, 295.4425964355469
0, 2, 98, 294.9486694335938
0, 2, 99, 273.1387939453125
0, 2, 100, 307.158203125
0, 2, 101, 303.0429382324219
0, 2, 102, 296.141845703125
0, 2, 103, 292.0635070800781
0, 2, 104, 293.1354064941406
0, 2, 105, 274.9072570800781
0, 2, 106, 296.3538818359375
0, 2, 107, 268.454345703125
0, 2, 108, 116.3593826293945
0, 2, 109, 31.32213020324707
0, 2, 110, 9.758018493652344
0, 2, 111, 12.90179347991943
0, 2, 112, 9.319574356079102
0, 2, 113, 10.265061378479
0, 2, 114, 10.76218128204346
0, 2, 115, 9.008040428161621
0, 2, 116, 7.824548244476318
0, 2, 117, 5.591511249542236
0, 2, 118, 3.687864542007446
0, 2, 119, 3.219760179519653
0, 2, 120, 5.054897785186768
0, 2, 121, 2.157972812652588
0, 2, 122, 3.759613513946533
0, 2, 123, 3.601604700088501
0, 2, 124, 3.132586240768433
0, 2, 125, 8.33009147644043
0, 2, 126, 5.039637088775635
0, 2, 127, 4.704719543457031
0, 3, 0, 3.585476398468018
0, 3, 1, 4.25404691696167
0, 3, 2, 3.297488451004028
0, 3, 3, 2.217596054077148
0, 3, 4, 6.043102741241455
0, 3, 5, 7.244623184204102
0, 3, 6, 7.141976833343506
0, 3, 7, 4.510838508605957
0, 3, 8, 5.844676971435547
0, 3, 9, 7.681400299072266
0, 3, 10, 6.257500648498535
0, 3, 11, 5.149235248565674
0, 3, 12, 6.28990364074707
0, 3, 13, 17.77450370788574
0, 3, 14, 11.10258102416992
0, 3, 15, 14.41786670684814
0, 3, 16, 12.37930488586426
0, 3, 17, 20.09958457946777
0, 3, 18, 55.50374984741211
0, 3, 19, 175.6927795410156
0, 3, 20, 271.1636047363281
0, 3, 21, 272.0712585449219
0, 3, 22, 280.8057861328125
0, 3, 23, 285.7937316894531
0, 3, 24, 285.6146240234375
0, 3, 25, 271.570556640625
0, 3, 26, 303.1549072265625
0, 3, 27, 295.8135681152344
0, 3, 28, 280.901123046875
0, 3, 29, 337.4395446777344
0, 3, 30, 316.69970703125
0, 3, 31, 286.6995544433594
0, 3, 32, 307.7316589355469
0, 3, 33, 314.1488647460938
0, 3, 34, 324.0523376464844
0, 3, 35, 306.7103271484375
0, 3, 36, 268.3435363769531
0, 3, 37, 314.1984252929688
0, 3, 38, 304.0936584472656
0, 3, 39, 287.8699340820312
0, 3, 40, 267.2627868652344
0, 3, 41, 300.1944885253906
0, 3, 42, 286.9222106933594
0, 3, 43, 305.2666625976562
0, 3, 44, 310.437255859375
0, 3, 45, 291.0566101074219
0, 3, 46, 329.8543701171875
0, 3, 47, 299.6541137695312
0, 3, 48, 305.3955993652344
0, 3, 49, 276.5355834960938
0, 3, 50, 290.05615234375
0, 3, 51, 276.5679626464844
0, 3, 52, 316.6466369628906
0, 3, 53, 288.9097595214844
0, 3, 54, 283.831298828125
0, 3, 55, 283.6372985839844
0, 3, 56, 298.9291381835938
0, 3, 57, 289.2548522949219
0, 3, 58, 309.1685791015625
0, 3, 59, 295.3107604980469
0, 3, 60, 299.22314453125
0, 3, 61, 266.0453186035156
0, 3, 62, 283.5940551757812
0, 3, 63, 308.0146179199219
0, 3, 64, 319.7439880371094
0, 3, 65, 309.0162963867188
0, 3, 66, 314.5067443847656
0, 3, 67, 319.3732299804688
0, 3, 68, 280.0366821289062
0, 3, 69, 283.1433410644531
0, 3, 70, 287.9425659179688
0, 3, 71, 297.3293151855469
0, 3, 72, 268.7157592773438
0, 3, 73, 306.8014831542969
0, 3, 74, 291.9782409667969
0, 3, 75, 288.7144470214844
0, 3, 76, 305.9936828613281
0, 3, 77, 315.5248718261719
0, 3, 78, 307.9925842285156
0, 3, 79, 283.4207153320312
0, 3, 80, 290.4868469238281
0, 3, 81, 309.1056213378906
0, 3, 82, 315.3716430664062
0, 3, 83, 301.2421264648438
0, 3, 84, 310.8560485839844
0, 3, 85, 291.5788879394531
0, 3, 86, 301.8652038574219
0, 3, 87, 297.6943359375
0, 3, 88, 300.405029296875
0, 3, 89, 297.4405517578125
0, 3, 90, 275.4836730957031
0, 3, 91, 282.9435119628906
0, 3, 92, 305.7577514648438
0, 3, 93, 313.5387878417969
0, 3, 94, 298.8495788574219
0, 3, 95, 334.6595153808594
0, 3, 96, 291.5316772460938
0, 3, 97, 282.1000366210938
0, 3, 98, 278.4711608886719
0, 3, 99, 262.1910095214844
0, 3, 100, 283.9768981933594
0, 3, 101, 296.349609375
0, 3, 102, 274.8492431640625
0, 3, 103, 321.5954284667969
0, 3, 104, 308.2848815917969
0, 3, 105, 288.9820556640625
0, 3, 106, 301.1561889648438
0, 3, 107, 281.1550598144531
0, 3, 108, 167.9905853271484
0, 3, 109, 57.73218154907227
0, 3, 110, 18.90126419067383
0, 3, 111, 12.23992347717285
0, 3, 112, 12.22500419616699
0, 3, 113, 5.74979829788208
0, 3, 114, 9.70753002166748
0, 3, 115, 7.400230884552002
0, 3, 116, 7.921741008758545
0, 3, 117, 6.425412178039551
0, 3, 118, 6.192484855651855
0, 3, 119, 6.376829147338867
0, 3, 120, 6.993578910827637
0, 3, 121, 3.717752695083618
0, 3, 122, 2.096916198730469
0, 3, 123, 6.087101459503174
0, 3, 124, 2.721755504608154
0, 3, 125, 7.918214321136475
0, 3, 126, 5.604764461517334
0, 3, 127, 2.85202693939209
0, 4, 0, 2.47306227684021
0, 4, 1, 5.530719757080078
0, 4, 2, 3.097749948501587
0, 4, 3, 2.292657613754272
0, 4, 4, 5.175145626068115
0, 4, 5, 8.020956039428711
0, 4, 6, 6.492483615875244
0, 4, 7, 5.410858154296875
0, 4, 8, 5.410247325897217
0, 4, 9, 5.388045310974121
0, 4, 10, 6.578062057495117
0, 4, 11, 5.481852054595947
0, 4, 12, 6.599157333374023
0, 4, 13, 8.671796798706055
0, 4, 14, 11.28605079650879
0, 4, 15, 9.570008277893066
0, 4, 16, 13.55819416046143
0, 4, 17, 18.33979988098145
0, 4, 18, 91.95172882080078
0, 4, 19, 222.3917083740234
0, 4, 20, 285.5438232421875
0, 4, 21, 272.0475158691406
0, 4, 22, 305.2367553710938
0, 4, 23, 267.2721252441406
0, 4, 24, 289.6801452636719
0, 4, 25, 272.1217346191406
0, 4, 26, 297.2072448730469
0, 4, 27, 284.0763549804688
0, 4, 28, 306.6343078613281
0, 4, 29, 321.9097595214844
0, 4, 30, 309.333740234375
0, 4, 31, 303.0162963867188
0, 4, 32, 282.0054016113281
0, 4, 33, 296.2129821777344
0, 4, 34, 298.5727844238281
0, 4, 35, 312.5517272949219
0, 4, 36, 293.9154968261719
0, 4, 37, 288.7869262695312
0, 4, 38, 298.1271667480469
0, 4, 39, 296.2073974609375
0, 4, 40, 302.9241638183594
0, 4, 41, 312.2813110351562
0, 4, 42, 328.6094360351562
0, 4, 43, 297.1341857910156
0, 4, 44, 320.359619140625
0, 4, 45, 325.2923583984375
0, 4, 46, 305.445068359375
0, 4, 47, 293.326416015625
0, 4, 48, 294.7887268066406
0, 4, 49, 280.2040100097656
0, 4, 50, 296.1941223144531
0, 4, 51, 315.9999084472656
0, 4, 52, 325.9028930664062
0, 4, 53, 305.0870666503906
0, 4, 54, 288.5890502929688
0, 4, 55, 315.8649597167969
0, 4, 56, 287.0397033691406
0, 4, 57, 309.7262268066406
0, 4, 58, 293.1537475585938
0, 4, 59, 305.9963989257812
0, 4, 60, 302.0258178710938
0, 4, 61, 315.2776794433594
0, 4, 62, 308.83984375
0, 4, 63, 299.770263671875
0, 4, 64, 328.5810241699219
0, 4, 65, 317.6102905273438
0, 4, 66, 294.7452087402344
0, 4, 67, 284.5430297851562
0, 4, 68, 314.4512939453125
0, 4, 69, 275.7954711914062
0, 4, 70, 301.2754516601562
0, 4, 71, 320.5351867675781
0, 4, 72, 331.9625549316406
0, 4, 73, 300.7023620605469
0, 4, 74, 292.1485290527344
0, 4, 75, 287.9085388183594
0, 4, 76, 275.0260009765625
0, 4, 77, 276.5036010742188
0, 4, 78, 311.4713439941406
0, 4, 79, 318.7469482421875
0, 4, 80, 316.1113891601562
0, 4, 81, 312.5942077636719
0, 4, 82, 297.7199401855469
0, 4, 83, 301.994140625
0, 4, 84, 294.8665161132812
0, 4, 85, 295.9557800292969
0, 4, 86, 298.9937744140625
0, 4, 87, 286.2111206054688
0, 4, 88, 306.7274169921875
0, 4, 89, 295.1947631835938
0, 4, 90, 332.3109436035156
0, 4, 91, 302.5816040039062
0, 4, 92, 289.5654296875
0, 4, 93, 297.746826171875
0, 4, 94, 291.8462219238281
0, 4, 95, 289.7435302734375
0, 4, 96, 322.1509399414062
0, 4, 97, 274.2447204589844
0, 4, 98, 326.382080078125
0, 4, 99, 312.6284484863281
0, 4, 100, 300.7656555175781
0, 4, 101, 257.8796081542969
0, 4, 102, 297.8446655273438
0, 4, 103, 316.9247741699219
0, 4, 104, 281.1093444824219
0, 4, 105, 310.173095703125
0, 4, 106, 286.9390563964844
0, 4, 107, 293.2764892578125
0, 4, 108, 226.4062957763672
0, 4, 109, 79.47226715087891
0, 4, 110, 16.63000106811523
0, 4, 111, 13.34027576446533
0, 4, 112, 9.358817100524902
0, 4, 113, 8.635733604431152
0, 4, 114, 8.948671340942383
0, 4, 115, 8.779963493347168
0, 4, 116, 10.07808971405029
0, 4, 117, 9.126294136047363
0, 4, 118, 9.21193790435791
0, 4, 119, 9.141860961914062
0, 4, 120, 6.80925178527832
0, 4, 121, 5.050216674804688
0, 4, 122, 4.501019954681396
0, 4, 123, 5.61760139465332
0, 4, 124, 4.129886150360107
0, 4, 125, 9.11870288848877
0, 4, 126, 5.257317066192627
0, 4, 127, 3.054326295852661
0, 5, 0, 3.143548727035522
0, 5, 1, 2.817202091217041
0, 5, 2, 4.626533985137939
0, 5, 3, 4.226702690124512
0, 5, 4, 7.274110317230225
0, 5, 5, 5.347827911376953
0, 5, 6, 12.51278018951416
0, 5, 7, 5.080559730529785
0, 5, 8, 4.324262142181396
0, 5, 9, 4.963958263397217
0, 5, 10, 7.820539474487305
0, 5, 11, 8.573764801025391
0, 5, 12, 8.421891212463379
0, 5, 13, 5.012863636016846
0, 5, 14, 10.19092273712158
0, 5, 15, 17.76581954956055
0, 5, 16, 13.06140422821045
0, 5, 17, 27.77628326416016
0, 5, 18, 137.3418731689453
0, 5, 19, 290.0814208984375
0, 5, 20, 306.5388793945312
0, 5, 21, 316.7094116210938
0, 5, 22, 274.6189880371094
0, 5, 23, 311.7127380371094
0, 5, 24, 302.5126647949219
0, 5, 25, 289.9131164550781
0, 5, 26, 295.05419921875
0, 5, 27, 323.7742919921875
0, 5, 28, 301.9623107910156
0, 5, 29, 299.3392333984375
0, 5, 30, 324.1883544921875
0, 5, 31, 289.083740234375
0, 5, 32, 303.51123046875
0, 5, 33, 303.5008239746094
0, 5, 34, 295.7059936523438
0, 5, 35, 309.1864929199219
0, 5, 36, 268.7992553710938
0, 5, 37, 282.6807250976562
0, 5, 38, 293.2007446289062
0, 5, 39, 310.8950805664062
0, 5, 40, 306.9550170898438
0, 5, 41, 273.8772583007812
0, 5, 42, 307.1379699707031
0, 5, 43, 314.0530395507812
0, 5, 44, 291.4896240234375
0, 5, 45, 305.2558288574219
0, 5, 46, 265.69873046875
0, 5, 47, 282.8224792480469
0, 5, 48, 293.1006774902344
0, 5, 49, 284.5208129882812
0, 5, 50, 294.6834716796875
0, 5, 51, 280.1526184082031
0, 5, 52, 268.9220275878906
0, 5, 53, 282.7581787109375
0, 5, 54, 291.0812072753906
0, 5, 55, 344.4974975585938
0, 5, 56, 306.2049560546875
0, 5, 57, 305.7884826660156
0, 5, 58, 315.2289123535156
0, 5, 59, 301.5070190429688
0, 5, 60, 307.2666015625
0, 5, 61, 282.9197387695312
0, 5, 62, 323.6717224121094
0, 5, 63, 290.876708984375
0, 5, 64, 322.7505187988281
0, 5, 65, 309.1499938964844
0, 5, 66, 325.4015502929688
0, 5, 67, 313.1996459960938
0, 5, 68, 307.4224853515625
0, 5, 69, 309.78369140625
0, 5, 70, 299.0627136230469
0, 5, 71, 272.5487365722656
0, 5, 72, 312.12451171875
0, 5, 73, 301.7781982421875
0, 5, 74, 295.9153137207031
0, 5, 75, 293.3540344238281
0, 5, 76, 285.5885009765625
0, 5, 77, 298.8061218261719
0, 5, 78, 313.5015258789062
0, 5, 79, 307.4471435546875
0, 5, 80, 294.2195129394531
0, 5, 81, 325.3569641113281
0, 5, 82, 323.5993957519531
0, 5, 83, 284.390625
0, 5, 84, 301.0607604980469
0, 5, 85, 272.0007629394531
0, 5, 86, 325.0271606445312
0, 5, 87, 283.2114868164062
0, 5, 88, 314.0508728027344
0, 5, 89, 303.8197326660156
0, 5, 90, 315.650146484375
0, 5, 91, 312.8517456054688
0, 5, 92, 295.6734008789062
0, 5, 93, 322.5377197265625
0, 5, 94, 309.0052795410156
0, 5, 95, 294.947509765625
0, 5, 96, 297.3222961425781
0, 5, 97, 296.3594970703125
0, 5, 98, 318.9986572265625
0, 5, 99, 304.4354553222656
0, 5, 100, 291.10595703125
0, 5, 101, 305.6336059570312
0, 5, 102, 295.9789428710938
0, 5, 103, 313.57470703125
0, 5, 104, 304.3768920898438
0, 5, 105, 294.2887878417969
0, 5, 106, 283.9909973144531
0, 5, 107, 293.1120910644531
0, 5, 108, 265.4677124023438
0, 5, 109, 155.8933715820312
0, 5, 110, 40.60493469238281
0, 5, 111, 20.79827690124512
0, 5, 112, 15.43685722351074
0, 5, 113, 14.84643936157227
0, 5, 114, 13.14082431793213
0, 5, 115, 8.275887489318848
0, 5, 116, 7.458990097045898
0, 5, 117, 7.748383522033691
0, 5, 118, 11.54094314575195
0, 5, 119, 3.541098833084106
0, 5, 120, 7.314993381500244
0, 5, 121, 6.396332263946533
0, 5, 122, 6.578689098358154
0, 5, 123, 5.648315906524658
0, 5, 124, 4.896522045135498
0, 5, 125, 5.325682640075684
0, 5, 126, 5.116420745849609
0, 5, 127, 3.714342594146729
0, 6, 0, 3.25543999671936
0, 6, 1, 2.83144211769104
0, 6, 2, 6.507236957550049
0, 6, 3, 7.465732097625732
0, 6, 4, 3.567049980163574
0, 6, 5, 5.388607025146484
0, 6, 6, 7.347885131835938
0, 6, 7, 5.504592895507812
0, 6, 8, 8.302827835083008
0, 6, 9, 7.727002143859863
0, 6, 10, 7.510740756988525
0, 6, 11, 6.568831920623779
0, 6, 12, 12.0832576751709
0, 6, 13, 15.6707181930542
0, 6, 14, 9.323134422302246
0, 6, 15, 16.91286468505859
0, 6, 16, 28.94258880615234
0, 6, 17, 54.16983413696289
0, 6, 18, 172.8372802734375
0, 6, 19, 279.1947631835938
0, 6, 20, 291.3228149414062
0, 6, 21, 315.1922912597656
0, 6, 22, 320.0545959472656
0, 6, 23, 306.2330322265625
0, 6, 24, 315.5873413085938
0, 6, 25, 318.1733093261719
0, 6, 26, 319.4664001464844
0, 6, 27, 330.3693542480469
0, 6, 28, 297.2357788085938
0, 6, 29, 329.7972717285156
0, 6, 30, 282.335205078125
0, 6, 31, 288.9766540527344
0, 6, 32, 339.7637939453125
0, 6, 33, 299.0708312988281
0, 6, 34, 342.04150390625
0, 6, 35, 321.9595947265625
0, 6, 36, 273.2571716308594
0, 6, 37, 287.9844055175781
0, 6, 38, 310.9481811523438
0, 6, 39, 297.7801513671875
0, 6, 40, 283.6585083007812
0, 6, 41, 296.4322204589844
0, 6, 42, 303.7534790039062
0, 6, 43, 290.7314453125
0, 6, 44, 280.8491516113281
0, 6, 45, 320.3564758300781
0, 6, 46, 302.6099853515625
0, 6, 47, 333.8163757324219
0, 6, 48, 293.0689697265625
0, 6, 49, 311.334228515625
0, 6, 50, 326.98828125
0, 6, 51, 309.8890991210938
0, 6, 52, 321.9281921386719
0, 6, 53, 327.6318054199219
0, 6, 54, 302.6746215820312
0, 6, 55, 307.8089294433594
0, 6, 56, 294.2589416503906
0, 6, 57, 311.452880859375
0, 6, 58, 262.0697937011719
0, 6, 59, 299.5128479003906
0, 6, 60, 312.5777587890625
0, 6, 61, 271.6887512207031
0, 6, 62, 335.3624572753906
0, 6, 63, 324.6002807617188
0, 6, 64, 292.3028259277344
0, 6, 65, 284.63427734375
0, 6, 66, 302.5497436523438
0, 6, 67, 309.7481994628906
0, 6, 68, 294.1673278808594
0, 6, 69, 278.7683715820312
0, 6, 70, 275.3022766113281
0, 6, 71, 291.788330078125
0, 6, 72, 312.0268859863281
0, 6, 73, 294.3386535644531
0, 6, 74, 331.1173706054688
0, 6, 75, 344.565185546875
0, 6, 76, 297.6416015625
0, 6, 77, 284.6429748535156
0, 6, 78, 278.0081787109375
0, 6, 79, 292.1123046875
0, 6, 80, 298.9580688476562
0, 6, 81, 315.4197082519531
0, 6, 82, 319.2078857421875
0, 6, 83, 320.1916809082031
0, 6, 84, 296.9193115234375
0, 6, 85, 303.2636108398438
0, 6, 86, 330.1001892089844
0, 6, 87, 293.5950012207031
0, 6, 88, 306.1847839355469
0, 6, 89, 306.9884338378906
0, 6, 90, 300.1700134277344
0, 6, 91, 313.7748107910156
0, 6, 92, 284.7122802734375
0, 6, 93, 297.4279479980469
0, 6, 94, 276.5934753417969
0, 6, 95, 300.71875
0, 6, 96, 347.1621398925781
0, 6, 97, 309.5909118652344
0, 6, 98, 301.1373596191406
0, 6, 99, 272.4197082519531
0, 6, 100, 309.1715393066406
0, 6, 101, 292.774169921875
0, 6, 102, 306.2495422363281
0, 6, 103, 308.0238342285156
0, 6, 104, 292.6354675292969
0, 6, 105, 300.9617614746094
0, 6, 106, 308.0220336914062
0, 6, 107, 305.5348205566406
0, 6, 108, 265.5430297851562
0, 6, 109, 185.6386260986328
0, 6, 110, 53.58160018920898
0, 6, 111, 21.42047119140625
0, 6, 112, 12.17801952362061
0, 6, 113, 10.41041088104248
0, 6, 114, 11.60279273986816
0, 6, 115, 10.41007328033447
0, 6, 116, 8.431954383850098
0, 6, 117, 7.583615779876709
0, 6, 118, 7.964156150817871
0, 6, 119, 7.237046241760254
0, 6, 120, 6.50639820098877
0, 6, 121, 10.39512538909912
0, 6, 122, 12.232985496521
0, 6, 123, 6.852691650390625
0, 6, 124, 7.422052383422852
0, 6, 125, 9.707450866699219
0, 6, 126, 4.500120162963867
0, 6, 127, 7.900174140930176
0, 7, 0, 5.752050876617432
0, 7, 1, 3.661154747009277
0, 7, 2, 7.493375778198242
0, 7, 3, 2.727454423904419
0, 7, 4, 5.765435218811035
0, 7, 5, 4.496914863586426
0, 7, 6, 7.615057468414307
0, 7, 7, 6.335206508636475
0, 7, 8, 5.893738746643066
0, 7, 9, 6.942091941833496
0, 7, 10, 9.529738426208496
0, 7, 11, 11.26775455474854
0, 7, 12, 8.395900726318359
0, 7, 13, 10.20191192626953
0, 7, 14, 11.32377338409424
0, 7, 15, 17.67668533325195
0, 7, 16, 26.27707290649414
0, 7, 17, 96.59251403808594
0, 7, 18, 218.3127593994141
0, 7, 19, 291.2934265136719
0, 7, 20, 296.5084228515625
0, 7, 21, 276.1325988769531
0, 7, 22, 298.2864379882812
0, 7, 23, 289.610107421875
0, 7, 24, 314.8003845214844
0, 7, 25, 325.832275390625
0, 7, 26, 276.8865966796875
0, 7, 27, 297.3556213378906
0, 7, 28, 327.6431274414062
0, 7, 29, 320.5874938964844
0, 7, 30, 303.8922424316406
0, 7, 31, 279.7899780273438
0, 7, 32, 304.3036804199219
0, 7, 33, 264.056884765625
0, 7, 34, 296.9463195800781
0, 7, 35, 319.6847534179688
0, 7, 36, 330.9856262207031
0, 7, 37, 327.7037658691406
0, 7, 38, 295.1211547851562
0, 7, 39, 305.7621765136719
0, 7, 40, 290.1011657714844
0, 7, 41, 274.5060729980469
0, 7, 42, 299.8317565917969
0, 7, 43, 275.4192199707031
0, 7, 44, 305.93505859375
0, 7, 45, 295.5087890625
0, 7, 46, 280.4935913085938
0, 7, 47, 328.173583984375
0, 7, 48, 284.078857421875
0, 7, 49, 301.3321228027344
0, 7, 50, 321.661865234375
0, 7, 51, 298.8014526367188
0, 7, 52, 324.6103210449219
0, 7, 53, 310.0452575683594
0, 7, 54, 324.9587097167969
0, 7, 55, 310.6578674316406
0, 7, 56, 278.4083862304688
0, 7, 57, 281.4757690429688
0, 7, 58, 294.988525390625
0, 7, 59, 294.2604064941406
0, 7, 60, 323.6243286132812
0, 7, 61, 277.2127685546875
0, 7, 62, 298.058837890625
0, 7, 63, 293.8594665527344
0, 7, 64, 308.8117065429688
0, 7, 65, 330.1484069824219
0, 7, 66, 318.5790710449219
0, 7, 67, 300.3314514160156
0, 7, 68, 279.9768676757812
0, 7, 69, 296.4030456542969
0, 7, 70, 300.8387145996094
0, 7, 71, 310.5808715820312
0, 7, 72, 285.5552062988281
0, 7, 73, 299.2208862304688
0, 7, 74, 344.5811157226562
0, 7, 75, 321.7577209472656
0, 7, 76, 323.3677673339844
0, 7, 77, 280.8976745605469
0, 7, 78, 301.4669799804688
0, 7, 79, 298.298828125
0, 7, 80, 313.805908203125
0, 7, 81, 319.8507385253906
0, 7, 82, 328.6472778320312
0, 7, 83, 317.6103515625
0, 7, 84, 309.8725891113281
0, 7, 85, 271.5202331542969
0, 7, 86, 312.0445556640625
0, 7, 87, 309.0061340332031
0, 7, 88, 310.0135803222656
0, 7, 89, 293.4724731445312
0, 7, 90, 306.3959350585938
0, 7, 91, 319.860107421875
0, 7, 92, 288.5220031738281
0, 7, 93, 307.0639343261719
0, 7, 94, 272.3413391113281
0, 7, 95, 300.4700012207031
0, 7, 96, 331.4642333984375
0, 7, 97, 294.1468505859375
0, 7, 98, 291.1451721191406
0, 7, 99, 313.6028442382812
0, 7, 100, 284.9808654785156
0, 7, 101, 275.4616088867188
0, 7, 102, 290.7888488769531
0, 7, 103, 291.7130126953125
0, 7, 104, 273.1014709472656
0, 7, 105, 308.9352416992188
0, 7, 106, 317.3707580566406
0, 7, 107, 298.6468811035156
0, 7, 108, 273.94970703125
0, 7, 109, 238.0561370849609
0, 7, 110, 97.72048950195312
0, 7, 111, 25.07985496520996
0, 7, 112, 13.81239032745361
0, 7, 113, 13.81209373474121
0, 7, 114, 11.86865711212158
0, 7, 115, 12.21890830993652
0, 7, 116, 8.368311882019043
0, 7, 117, 7.125455856323242
0, 7, 118, 8.019490242004395
0, 7, 119, 3.48932147026062
0, 7, 120, 3.862719535827637
0, 7, 121, 5.655332565307617
0, 7, 122, 5.877397537231445
0, 7, 123, 7.471497535705566
0, 7, 124, 4.98151159286499
0, 7, 125, 7.826317310333252
0, 7, 126, 7.659653186798096
0, 7, 127, 4.403481483459473
0, 8, 0, 3.511169672012329
0, 8, 1, 3.671423435211182
0, 8, 2, 2.856133937835693
0, 8, 3, 1.331975817680359
0, 8, 4, 5.295990943908691
0, 8, 5, 4.080682277679443
0, 8, 6, 6.130071640014648
0, 8, 7, 5.205949783325195
0, 8, 8, 7.034140110015869
0, 8, 9, 5.446005821228027
0, 8, 10, 7.740094661712646
0, 8, 11, 11.05587673187256
0, 8, 12, 13.49266242980957
0, 8, 13, 17.69380760192871
0, 8, 14, 13.12508773803711
0, 8, 15, 18.07923316955566
0, 8, 16, 32.50040054321289
0, 8, 17, 131.6506805419922
0, 8, 18, 243.6048583984375
0, 8, 19, 294.4207763671875
0, 8, 20, 284.5923767089844
0, 8, 21, 308.7083435058594
0, 8, 22, 294.3766784667969
0, 8, 23, 273.7351684570312
0, 8, 24, 268.4383544921875
0, 8, 25, 275.5390625
0, 8, 26, 305.2196655273438
0, 8, 27, 311.8833618164062
0, 8, 28, 303.4310913085938
0, 8, 29, 318.9571228027344
0, 8, 30, 316.5348205566406
0, 8, 31, 304.026123046875
0, 8, 32, 280.2420959472656
0, 8, 33, 293.3872375488281
0, 8, 34, 288.8340759277344
0, 8, 35, 281.1515502929688
0, 8, 36, 316.2565612792969
0, 8, 37, 341.1920776367188
0, 8, 38, 331.1365966796875
0, 8, 39, 283.1944580078125
0, 8, 40, 304.3716125488281
