# TOPAS Version: 3.1.p3
# Parameter File: batch_inserts_270.txt
# Results for scorer Readout_Adipose
# Scored in component: MyBox
# X in 1 bin  of 0.75 cm
# Y in 512 bins of 0.0783984 cm
# Z in 128 bins of 0.078125 cm
# EnergyDeposit ( MeV ) : Sum   
0, 0, 0, 4.774074077606201
0, 0, 1, 1.834268927574158
0, 0, 2, 2.625770092010498
0, 0, 3, 2.905352354049683
0, 0, 4, 3.921483278274536
0, 0, 5, 2.901795625686646
0, 0, 6, 7.200841903686523
0, 0, 7, 8.202304840087891
0, 0, 8, 2.54071831703186
0, 0, 9, 3.546674013137817
0, 0, 10, 7.189602851867676
0, 0, 11, 4.948051929473877
0, 0, 12, 3.752624988555908
0, 0, 13, 7.311031818389893
0, 0, 14, 7.739825248718262
0, 0, 15, 9.082377433776855
0, 0, 16, 7.813776016235352
0, 0, 17, 8.987988471984863
0, 0, 18, 14.11335754394531
0, 0, 19, 44.48963928222656
0, 0, 20, 141.0002899169922
0, 0, 21, 223.8243865966797
0, 0, 22, 251.1449127197266
0, 0, 23, 257.2398071289062
0, 0, 24, 249.9465026855469
0, 0, 25, 257.9200134277344
0, 0, 26, 233.6055755615234
0, 0, 27, 236.0422973632812
0, 0, 28, 272.3245239257812
0, 0, 29, 254.5712432861328
0, 0, 30, 232.8348388671875
0, 0, 31, 246.2057800292969
0, 0, 32, 263.4376220703125
0, 0, 33, 261.1500244140625
0, 0, 34, 290.2039489746094
0, 0, 35, 266.5900573730469
0, 0, 36, 245.9446563720703
0, 0, 37, 253.1688537597656
0, 0, 38, 270.0617370605469
0, 0, 39, 230.0425720214844
0, 0, 40, 242.2986145019531
0, 0, 41, 266.3263549804688
0, 0, 42, 228.7354278564453
0, 0, 43, 262.7911071777344
0, 0, 44, 251.7368774414062
0, 0, 45, 254.4115905761719
0, 0, 46, 244.2460174560547
0, 0, 47, 254.9124298095703
0, 0, 48, 267.9318237304688
0, 0, 49, 273.5287170410156
0, 0, 50, 251.4194793701172
0, 0, 51, 253.6391754150391
0, 0, 52, 272.8583068847656
0, 0, 53, 291.5798034667969
0, 0, 54, 243.4398498535156
0, 0, 55, 240.4378509521484
0, 0, 56, 277.3091430664062
0, 0, 57, 265.4060363769531
0, 0, 58, 247.9900054931641
0, 0, 59, 272.8047485351562
0, 0, 60, 236.0578308105469
0, 0, 61, 245.1033935546875
0, 0, 62, 255.9164886474609
0, 0, 63, 265.6957092285156
0, 0, 64, 254.6363830566406
0, 0, 65, 261.6641540527344
0, 0, 66, 276.4936218261719
0, 0, 67, 248.1622314453125
0, 0, 68, 259.1210021972656
0, 0, 69, 262.9014892578125
0, 0, 70, 272.9518127441406
0, 0, 71, 237.3744201660156
0, 0, 72, 249.4864196777344
0, 0, 73, 258.1896362304688
0, 0, 74, 252.8509979248047
0, 0, 75, 239.3995208740234
0, 0, 76, 231.4415283203125
0, 0, 77, 260.3106384277344
0, 0, 78, 256.0774230957031
0, 0, 79, 277.0194702148438
0, 0, 80, 219.0903778076172
0, 0, 81, 267.9329528808594
0, 0, 82, 258.0097961425781
0, 0, 83, 244.4925231933594
0, 0, 84, 269.3525085449219
0, 0, 85, 231.0531463623047
0, 0, 86, 252.6238098144531
0, 0, 87, 251.0998229980469
0, 0, 88, 259.9208068847656
0, 0, 89, 281.2655639648438
0, 0, 90, 243.7946624755859
0, 0, 91, 280.9490966796875
0, 0, 92, 254.9048614501953
0, 0, 93, 249.9007110595703
0, 0, 94, 247.7216491699219
0, 0, 95, 247.3609619140625
0, 0, 96, 276.174072265625
0, 0, 97, 271.7536315917969
0, 0, 98, 274.3187255859375
0, 0, 99, 258.3578186035156
0, 0, 100, 260.312744140625
0, 0, 101, 227.5679931640625
0, 0, 102, 234.1093902587891
0, 0, 103, 272.2023620605469
0, 0, 104, 254.1298522949219
0, 0, 105, 251.5383453369141
0, 0, 106, 245.5174865722656
0, 0, 107, 151.9954223632812
0, 0, 108, 38.33809661865234
0, 0, 109, 12.74239063262939
0, 0, 110, 12.36798572540283
0, 0, 111, 10.16603851318359
0, 0, 112, 7.172837257385254
0, 0, 113, 5.578220844268799
0, 0, 114, 5.869988441467285
0, 0, 115, 5.334560394287109
0, 0, 116, 6.518080234527588
0, 0, 117, 7.989400863647461
0, 0, 118, 6.621546268463135
0, 0, 119, 4.15470552444458
0, 0, 120, 4.373486042022705
0, 0, 121, 4.362236976623535
0, 0, 122, 4.27540111541748
0, 0, 123, 3.356241464614868
0, 0, 124, 6.290557861328125
0, 0, 125, 3.453975200653076
0, 0, 126, 4.095941543579102
0, 0, 127, 3.93465518951416
0, 1, 0, 6.117674827575684
0, 1, 1, 2.118524789810181
0, 1, 2, 4.707700729370117
0, 1, 3, 2.263190031051636
0, 1, 4, 3.615096569061279
0, 1, 5, 5.301178455352783
0, 1, 6, 4.040746212005615
0, 1, 7, 3.755577802658081
0, 1, 8, 7.733596801757812
0, 1, 9, 6.108180522918701
0, 1, 10, 7.890758037567139
0, 1, 11, 12.99610328674316
0, 1, 12, 8.405492782592773
0, 1, 13, 10.19054889678955
0, 1, 14, 8.59809398651123
0, 1, 15, 6.785765647888184
0, 1, 16, 12.09985733032227
0, 1, 17, 13.26322364807129
0, 1, 18, 20.54106712341309
0, 1, 19, 65.82653045654297
0, 1, 20, 198.712646484375
0, 1, 21, 253.9202880859375
0, 1, 22, 295.8316040039062
0, 1, 23, 283.7925109863281
0, 1, 24, 276.5865478515625
0, 1, 25, 289.1077270507812
0, 1, 26, 270.6990356445312
0, 1, 27, 306.8567199707031
0, 1, 28, 301.9597778320312
0, 1, 29, 296.0413818359375
0, 1, 30, 283.3240661621094
0, 1, 31, 290.506103515625
0, 1, 32, 291.7750244140625
0, 1, 33, 296.9287109375
0, 1, 34, 292.9818420410156
0, 1, 35, 277.9352722167969
0, 1, 36, 307.4972229003906
0, 1, 37, 295.6182861328125
0, 1, 38, 281.6800842285156
0, 1, 39, 294.6740417480469
0, 1, 40, 265.5516357421875
0, 1, 41, 285.9765319824219
0, 1, 42, 289.9124450683594
0, 1, 43, 331.5797729492188
0, 1, 44, 278.8403930664062
0, 1, 45, 292.4818725585938
0, 1, 46, 258.7405090332031
0, 1, 47, 312.3348388671875
0, 1, 48, 284.2528076171875
0, 1, 49, 303.6920166015625
0, 1, 50, 262.7235412597656
0, 1, 51, 270.7799987792969
0, 1, 52, 296.6845397949219
0, 1, 53, 303.7816467285156
0, 1, 54, 277.0469665527344
0, 1, 55, 293.0112609863281
0, 1, 56, 277.7835998535156
0, 1, 57, 298.3656921386719
0, 1, 58, 309.90283203125
0, 1, 59, 292.3197326660156
0, 1, 60, 297.0157165527344
0, 1, 61, 274.2436218261719
0, 1, 62, 307.5029907226562
0, 1, 63, 286.4446411132812
0, 1, 64, 287.8556823730469
0, 1, 65, 293.72119140625
0, 1, 66, 293.113037109375
0, 1, 67, 292.8835754394531
0, 1, 68, 278.2169189453125
0, 1, 69, 282.3477478027344
0, 1, 70, 272.7330322265625
0, 1, 71, 274.070068359375
0, 1, 72, 286.3306884765625
0, 1, 73, 305.94775390625
0, 1, 74, 305.12353515625
0, 1, 75, 292.7447509765625
0, 1, 76, 284.7127990722656
0, 1, 77, 290.1238403320312
0, 1, 78, 294.9058837890625
0, 1, 79, 300.3568725585938
0, 1, 80, 296.4690856933594
0, 1, 81, 301.2208862304688
0, 1, 82, 283.8880615234375
0, 1, 83, 333.075927734375
0, 1, 84, 308.8843994140625
0, 1, 85, 252.4277496337891
0, 1, 86, 294.0704345703125
0, 1, 87, 290.3287048339844
0, 1, 88, 297.5431518554688
0, 1, 89, 292.4583129882812
0, 1, 90, 269.5709838867188
0, 1, 91, 317.6103515625
0, 1, 92, 292.2261047363281
0, 1, 93, 286.1831665039062
0, 1, 94, 303.3223266601562
0, 1, 95, 283.6434631347656
0, 1, 96, 283.0150146484375
0, 1, 97, 300.2912902832031
0, 1, 98, 276.4459838867188
0, 1, 99, 266.6832275390625
0, 1, 100, 278.5503540039062
0, 1, 101, 281.3131103515625
0, 1, 102, 281.0664978027344
0, 1, 103, 280.8524780273438
0, 1, 104, 306.9505310058594
0, 1, 105, 297.9718322753906
0, 1, 106, 261.8860778808594
0, 1, 107, 194.1282653808594
0, 1, 108, 80.42059326171875
0, 1, 109, 23.94500541687012
0, 1, 110, 10.78963470458984
0, 1, 111, 9.624008178710938
0, 1, 112, 10.74038887023926
0, 1, 113, 4.594841480255127
0, 1, 114, 5.855358600616455
0, 1, 115, 6.145611763000488
0, 1, 116, 10.01468944549561
0, 1, 117, 6.327565670013428
0, 1, 118, 6.040050983428955
0, 1, 119, 5.123462677001953
0, 1, 120, 5.917850971221924
0, 1, 121, 4.516496181488037
0, 1, 122, 3.630408525466919
0, 1, 123, 2.452332735061646
0, 1, 124, 7.663284778594971
0, 1, 125, 4.845963478088379
0, 1, 126, 2.890218734741211
0, 1, 127, 1.312907814979553
0, 2, 0, 5.024216651916504
0, 2, 1, 2.614787817001343
0, 2, 2, 5.004553318023682
0, 2, 3, 4.25907039642334
0, 2, 4, 2.454328298568726
0, 2, 5, 2.408887147903442
0, 2, 6, 1.650219321250916
0, 2, 7, 4.200602054595947
0, 2, 8, 4.562526226043701
0, 2, 9, 7.129476547241211
0, 2, 10, 10.11035346984863
0, 2, 11, 6.303035736083984
0, 2, 12, 7.321508884429932
0, 2, 13, 10.44826221466064
0, 2, 14, 10.18342590332031
0, 2, 15, 8.289287567138672
0, 2, 16, 7.923510551452637
0, 2, 17, 16.97415351867676
0, 2, 18, 30.7415943145752
0, 2, 19, 118.8064270019531
0, 2, 20, 248.3941192626953
0, 2, 21, 270.6092834472656
0, 2, 22, 316.3454284667969
0, 2, 23, 300.1241760253906
0, 2, 24, 288.3081665039062
0, 2, 25, 302.8988342285156
0, 2, 26, 293.7366943359375
0, 2, 27, 274.6929931640625
0, 2, 28, 273.7515563964844
0, 2, 29, 273.578125
0, 2, 30, 292.2266845703125
0, 2, 31, 280.438720703125
0, 2, 32, 294.4013671875
0, 2, 33, 281.7913208007812
0, 2, 34, 330.1408081054688
0, 2, 35, 290.3997497558594
0, 2, 36, 303.7911071777344
0, 2, 37, 317.0555725097656
0, 2, 38, 312.559814453125
0, 2, 39, 266.6432800292969
0, 2, 40, 306.3013610839844
0, 2, 41, 291.6173095703125
0, 2, 42, 303.5537414550781
0, 2, 43, 313.2162780761719
0, 2, 44, 311.8742980957031
0, 2, 45, 325.4365844726562
0, 2, 46, 285.4632568359375
0, 2, 47, 302.4395751953125
0, 2, 48, 284.5545043945312
0, 2, 49, 277.9297485351562
0, 2, 50, 296.3393859863281
0, 2, 51, 283.1895446777344
0, 2, 52, 273.7549133300781
0, 2, 53, 288.9596557617188
0, 2, 54, 280.873779296875
0, 2, 55, 275.0093994140625
0, 2, 56, 301.548583984375
0, 2, 57, 290.8634338378906
0, 2, 58, 301.1866455078125
0, 2, 59, 288.8046264648438
0, 2, 60, 319.0879821777344
0, 2, 61, 301.8001403808594
0, 2, 62, 314.4404907226562
0, 2, 63, 304.6250305175781
0, 2, 64, 295.2120971679688
0, 2, 65, 315.8522338867188
0, 2, 66, 281.3706665039062
0, 2, 67, 290.3104858398438
0, 2, 68, 295.4137268066406
0, 2, 69, 312.0346374511719
0, 2, 70, 334.8774719238281
0, 2, 71, 285.5850524902344
0, 2, 72, 304.4231262207031
0, 2, 73, 311.2711181640625
0, 2, 74, 285.8662719726562
0, 2, 75, 303.2462768554688
0, 2, 76, 288.2193908691406
0, 2, 77, 298.861328125
0, 2, 78, 314.9486999511719
0, 2, 79, 309.3887939453125
0, 2, 80, 297.7635498046875
0, 2, 81, 281.0830993652344
0, 2, 82, 318.8629150390625
0, 2, 83, 312.92431640625
0, 2, 84, 291.6858825683594
0, 2, 85, 281.2850646972656
0, 2, 86, 325.3493041992188
0, 2, 87, 288.9307861328125
0, 2, 88, 280.00048828125
0, 2, 89, 296.0302734375
0, 2, 90, 296.9893188476562
0, 2, 91, 276.2759704589844
0, 2, 92, 304.824462890625
0, 2, 93, 316.0315246582031
0, 2, 94, 291.7314147949219
0, 2, 95, 315.5118103027344
0, 2, 96, 316.6874389648438
0, 2, 97, 291.3874206542969
0, 2, 98, 294.2166137695312
0, 2, 99, 275.4388427734375
0, 2, 100, 305.5351867675781
0, 2, 101, 300.1616821289062
0, 2, 102, 297.6913452148438
0, 2, 103, 290.8622436523438
0, 2, 104, 292.3639221191406
0, 2, 105, 276.4176025390625
0, 2, 106, 296.1138305664062
0, 2, 107, 269.9998474121094
0, 2, 108, 117.1574554443359
0, 2, 109, 32.29419708251953
0, 2, 110, 9.542004585266113
0, 2, 111, 10.90407657623291
0, 2, 112, 7.654966831207275
0, 2, 113, 10.34138870239258
0, 2, 114, 11.16755676269531
0, 2, 115, 9.519180297851562
0, 2, 116, 7.542539596557617
0, 2, 117, 7.606252670288086
0, 2, 118, 3.090972661972046
0, 2, 119, 2.449334383010864
0, 2, 120, 7.058837890625
0, 2, 121, 1.725895643234253
0, 2, 122, 4.363492012023926
0, 2, 123, 6.673186779022217
0, 2, 124, 3.442261219024658
0, 2, 125, 6.676969051361084
0, 2, 126, 3.69825553894043
0, 2, 127, 3.925493955612183
0, 3, 0, 4.069129467010498
0, 3, 1, 3.57629132270813
0, 3, 2, 3.802446842193604
0, 3, 3, 1.594992756843567
0, 3, 4, 4.143829822540283
0, 3, 5, 7.142500400543213
0, 3, 6, 5.976485729217529
0, 3, 7, 6.471260547637939
0, 3, 8, 5.017704010009766
0, 3, 9, 6.623058795928955
0, 3, 10, 7.069647312164307
0, 3, 11, 4.730772972106934
0, 3, 12, 6.876793384552002
0, 3, 13, 17.76497077941895
0, 3, 14, 12.92185878753662
0, 3, 15, 15.16804981231689
0, 3, 16, 11.04547214508057
0, 3, 17, 19.7364616394043
0, 3, 18, 51.69612121582031
0, 3, 19, 175.6210327148438
0, 3, 20, 269.7842102050781
0, 3, 21, 271.885009765625
0, 3, 22, 280.7655639648438
0, 3, 23, 285.8964538574219
0, 3, 24, 286.6384887695312
0, 3, 25, 273.2260437011719
0, 3, 26, 304.8441162109375
0, 3, 27, 291.9738159179688
0, 3, 28, 281.9377746582031
0, 3, 29, 341.0508117675781
0, 3, 30, 315.8861694335938
0, 3, 31, 285.139892578125
0, 3, 32, 307.0648498535156
0, 3, 33, 314.0284729003906
0, 3, 34, 322.2752075195312
0, 3, 35, 308.1677856445312
0, 3, 36, 269.0276794433594
0, 3, 37, 316.5807495117188
0, 3, 38, 302.7002258300781
0, 3, 39, 289.8557434082031
0, 3, 40, 265.4427795410156
0, 3, 41, 301.7731018066406
0, 3, 42, 285.072998046875
0, 3, 43, 306.4239501953125
0, 3, 44, 310.3726806640625
0, 3, 45, 290.4623107910156
0, 3, 46, 329.9374084472656
0, 3, 47, 299.6492004394531
0, 3, 48, 302.6005859375
0, 3, 49, 275.5120849609375
0, 3, 50, 290.5693664550781
0, 3, 51, 278.3342895507812
0, 3, 52, 314.5610656738281
0, 3, 53, 287.2638854980469
0, 3, 54, 285.2081909179688
0, 3, 55, 283.6310729980469
0, 3, 56, 299.7588500976562
0, 3, 57, 289.6585998535156
0, 3, 58, 309.0101013183594
0, 3, 59, 296.3193054199219
0, 3, 60, 297.8526306152344
0, 3, 61, 264.3549194335938
0, 3, 62, 284.2324523925781
0, 3, 63, 306.7899780273438
0, 3, 64, 318.2014465332031
0, 3, 65, 304.1672058105469
0, 3, 66, 314.6756896972656
0, 3, 67, 317.9569396972656
0, 3, 68, 279.931884765625
0, 3, 69, 281.3221130371094
0, 3, 70, 288.6539001464844
0, 3, 71, 299.2324523925781
0, 3, 72, 272.3182678222656
0, 3, 73, 310.5406494140625
0, 3, 74, 291.9049072265625
0, 3, 75, 289.3801574707031
0, 3, 76, 305.0804748535156
0, 3, 77, 315.9764709472656
0, 3, 78, 302.3678894042969
0, 3, 79, 282.6973571777344
0, 3, 80, 291.084228515625
0, 3, 81, 310.3539428710938
0, 3, 82, 316.0325622558594
0, 3, 83, 300.2970581054688
0, 3, 84, 311.5530700683594
0, 3, 85, 293.8392639160156
0, 3, 86, 301.3656921386719
0, 3, 87, 300.1675720214844
0, 3, 88, 298.4899597167969
0, 3, 89, 295.6795043945312
0, 3, 90, 277.3543090820312
0, 3, 91, 282.8852233886719
0, 3, 92, 305.0357360839844
0, 3, 93, 312.1337890625
0, 3, 94, 296.980712890625
0, 3, 95, 335.0705261230469
0, 3, 96, 290.0708618164062
0, 3, 97, 284.0177001953125
0, 3, 98, 277.7009582519531
0, 3, 99, 263.1082458496094
0, 3, 100, 284.4772033691406
0, 3, 101, 297.5791320800781
0, 3, 102, 277.2146606445312
0, 3, 103, 320.7581787109375
0, 3, 104, 309.0075988769531
0, 3, 105, 287.1454467773438
0, 3, 106, 302.1715698242188
0, 3, 107, 283.2979431152344
0, 3, 108, 169.5608825683594
0, 3, 109, 58.48284530639648
0, 3, 110, 19.1055908203125
0, 3, 111, 12.78534317016602
0, 3, 112, 12.34495162963867
0, 3, 113, 5.958559036254883
0, 3, 114, 9.775287628173828
0, 3, 115, 7.121751308441162
0, 3, 116, 6.300224781036377
0, 3, 117, 7.735312461853027
0, 3, 118, 6.03899621963501
0, 3, 119, 6.134810924530029
0, 3, 120, 4.965499877929688
0, 3, 121, 2.98570990562439
0, 3, 122, 2.899352550506592
0, 3, 123, 5.198526859283447
0, 3, 124, 2.59953236579895
0, 3, 125, 5.497678279876709
0, 3, 126, 6.658012390136719
0, 3, 127, 2.754203796386719
0, 4, 0, 2.948837041854858
0, 4, 1, 7.446760654449463
0, 4, 2, 2.769482851028442
0, 4, 3, 4.314345359802246
0, 4, 4, 5.877742290496826
0, 4, 5, 7.946565628051758
0, 4, 6, 7.274401187896729
0, 4, 7, 6.038501739501953
0, 4, 8, 5.792481422424316
0, 4, 9, 4.687220573425293
0, 4, 10, 5.446073055267334
0, 4, 11, 7.1484375
0, 4, 12, 8.020256042480469
0, 4, 13, 7.777897834777832
0, 4, 14, 10.42894458770752
0, 4, 15, 8.596037864685059
0, 4, 16, 13.92871284484863
0, 4, 17, 18.94723510742188
0, 4, 18, 97.21076965332031
0, 4, 19, 223.3694152832031
0, 4, 20, 284.1880798339844
0, 4, 21, 272.8253784179688
0, 4, 22, 305.1647644042969
0, 4, 23, 267.1193237304688
0, 4, 24, 288.397216796875
0, 4, 25, 273.7991943359375
0, 4, 26, 293.7655029296875
0, 4, 27, 283.0133361816406
0, 4, 28, 306.1524353027344
0, 4, 29, 321.6985778808594
0, 4, 30, 308.6273193359375
0, 4, 31, 303.3055114746094
0, 4, 32, 280.7469177246094
0, 4, 33, 295.8536376953125
0, 4, 34, 299.3354187011719
0, 4, 35, 312.2175903320312
0, 4, 36, 296.5894165039062
0, 4, 37, 285.9016418457031
0, 4, 38, 297.2340087890625
0, 4, 39, 292.3067932128906
0, 4, 40, 303.0918273925781
0, 4, 41, 313.2361145019531
0, 4, 42, 329.3710327148438
0, 4, 43, 296.656982421875
0, 4, 44, 320.7689208984375
0, 4, 45, 325.0315246582031
0, 4, 46, 306.3347778320312
0, 4, 47, 292.4185180664062
0, 4, 48, 295.5166320800781
0, 4, 49, 277.718505859375
0, 4, 50, 296.2642517089844
0, 4, 51, 316.3777160644531
0, 4, 52, 328.4490356445312
0, 4, 53, 302.6544189453125
0, 4, 54, 286.4783325195312
0, 4, 55, 317.5004577636719
0, 4, 56, 285.8781127929688
0, 4, 57, 309.3950805664062
0, 4, 58, 293.5142211914062
0, 4, 59, 308.0778198242188
0, 4, 60, 301.8761901855469
0, 4, 61, 315.0618286132812
0, 4, 62, 306.3626098632812
0, 4, 63, 298.0043029785156
0, 4, 64, 329.5914916992188
0, 4, 65, 315.5352478027344
0, 4, 66, 293.9630737304688
0, 4, 67, 283.7198486328125
0, 4, 68, 312.2029418945312
0, 4, 69, 276.5392456054688
0, 4, 70, 299.9850158691406
0, 4, 71, 321.197509765625
0, 4, 72, 333.6473693847656
0, 4, 73, 299.2485656738281
0, 4, 74, 292.2371520996094
0, 4, 75, 291.4423828125
0, 4, 76, 275.6302795410156
0, 4, 77, 278.7290344238281
0, 4, 78, 312.9578247070312
0, 4, 79, 319.108154296875
0, 4, 80, 315.0511474609375
0, 4, 81, 314.8408203125
0, 4, 82, 297.2539978027344
0, 4, 83, 302.0356750488281
0, 4, 84, 290.3435363769531
0, 4, 85, 297.0099487304688
0, 4, 86, 300.1960144042969
0, 4, 87, 284.7621154785156
0, 4, 88, 306.6673278808594
0, 4, 89, 294.1053161621094
0, 4, 90, 332.6511535644531
0, 4, 91, 304.8140563964844
0, 4, 92, 289.7433166503906
0, 4, 93, 296.6872253417969
0, 4, 94, 291.8412475585938
0, 4, 95, 288.9556884765625
0, 4, 96, 324.43115234375
0, 4, 97, 275.2455444335938
0, 4, 98, 327.6358642578125
0, 4, 99, 314.1773071289062
0, 4, 100, 300.8988342285156
0, 4, 101, 256.7879028320312
0, 4, 102, 299.9975891113281
0, 4, 103, 317.8538208007812
0, 4, 104, 282.6889953613281
0, 4, 105, 309.4794616699219
0, 4, 106, 285.8832397460938
0, 4, 107, 296.9349670410156
0, 4, 108, 227.3081207275391
0, 4, 109, 79.76922607421875
0, 4, 110, 16.64420127868652
0, 4, 111, 13.54699325561523
0, 4, 112, 8.181591033935547
0, 4, 113, 11.72482585906982
0, 4, 114, 8.218052864074707
0, 4, 115, 11.05682182312012
0, 4, 116, 9.746955871582031
0, 4, 117, 7.835136890411377
0, 4, 118, 10.53841400146484
0, 4, 119, 10.52090263366699
0, 4, 120, 5.265810012817383
0, 4, 121, 5.570878982543945
0, 4, 122, 4.405889987945557
0, 4, 123, 6.335891723632812
0, 4, 124, 4.69648265838623
0, 4, 125, 9.661442756652832
0, 4, 126, 4.5199875831604
0, 4, 127, 3.213630199432373
0, 5, 0, 3.650857925415039
0, 5, 1, 3.340317010879517
0, 5, 2, 4.152877330780029
0, 5, 3, 3.504951238632202
0, 5, 4, 5.816571712493896
0, 5, 5, 5.105720996856689
0, 5, 6, 7.229301929473877
0, 5, 7, 7.096961975097656
0, 5, 8, 3.96991753578186
0, 5, 9, 4.389474868774414
0, 5, 10, 7.004133701324463
0, 5, 11, 8.770201683044434
0, 5, 12, 8.048398971557617
0, 5, 13, 4.724165439605713
0, 5, 14, 13.36392879486084
0, 5, 15, 16.19108581542969
0, 5, 16, 13.33821964263916
0, 5, 17, 27.87293243408203
0, 5, 18, 136.5238494873047
0, 5, 19, 288.4210815429688
0, 5, 20, 306.1312561035156
0, 5, 21, 317.6550903320312
0, 5, 22, 276.1369018554688
0, 5, 23, 311.8114318847656
0, 5, 24, 302.0460510253906
0, 5, 25, 288.4076843261719
0, 5, 26, 294.2422180175781
0, 5, 27, 320.7555541992188
0, 5, 28, 303.0470275878906
0, 5, 29, 298.1033020019531
0, 5, 30, 323.85986328125
0, 5, 31, 290.6390380859375
0, 5, 32, 301.5298767089844
0, 5, 33, 303.4734802246094
0, 5, 34, 298.1463928222656
0, 5, 35, 312.1952514648438
0, 5, 36, 268.129150390625
0, 5, 37, 283.8423461914062
0, 5, 38, 293.0353393554688
0, 5, 39, 312.27392578125
0, 5, 40, 307.2445373535156
0, 5, 41, 274.2940979003906
0, 5, 42, 306.5813903808594
0, 5, 43, 315.2949523925781
0, 5, 44, 291.4561462402344
0, 5, 45, 300.2441711425781
0, 5, 46, 264.6613464355469
0, 5, 47, 279.7285461425781
0, 5, 48, 291.8976440429688
0, 5, 49, 285.755615234375
0, 5, 50, 294.5726623535156
0, 5, 51, 280.2030029296875
0, 5, 52, 269.4424438476562
0, 5, 53, 283.708740234375
0, 5, 54, 291.669677734375
0, 5, 55, 345.0964965820312
0, 5, 56, 306.2403259277344
0, 5, 57, 306.1505737304688
0, 5, 58, 313.0245361328125
0, 5, 59, 305.6916198730469
0, 5, 60, 308.4524230957031
0, 5, 61, 281.4659118652344
0, 5, 62, 325.6462097167969
0, 5, 63, 291.4324951171875
0, 5, 64, 324.7677917480469
0, 5, 65, 306.7355041503906
0, 5, 66, 327.9906311035156
0, 5, 67, 311.9381408691406
0, 5, 68, 307.44677734375
0, 5, 69, 310.001953125
0, 5, 70, 301.5111694335938
0, 5, 71, 271.7727966308594
0, 5, 72, 310.6700134277344
0, 5, 73, 302.8310852050781
0, 5, 74, 296.0211181640625
0, 5, 75, 296.137939453125
0, 5, 76, 285.5789794921875
0, 5, 77, 298.0022277832031
0, 5, 78, 316.6443481445312
0, 5, 79, 307.9496765136719
0, 5, 80, 295.6626586914062
0, 5, 81, 325.7235412597656
0, 5, 82, 326.028076171875
0, 5, 83, 281.9989929199219
0, 5, 84, 301.8573303222656
0, 5, 85, 272.4754028320312
0, 5, 86, 324.1564636230469
0, 5, 87, 282.5509643554688
0, 5, 88, 313.4430541992188
0, 5, 89, 303.6518249511719
0, 5, 90, 314.8500061035156
0, 5, 91, 312.9767761230469
0, 5, 92, 296.5872802734375
0, 5, 93, 322.1385192871094
0, 5, 94, 314.323974609375
0, 5, 95, 298.2692565917969
0, 5, 96, 296.0048828125
0, 5, 97, 295.7522888183594
0, 5, 98, 318.19580078125
0, 5, 99, 301.1172180175781
0, 5, 100, 291.2045593261719
0, 5, 101, 306.2991638183594
0, 5, 102, 294.656494140625
0, 5, 103, 313.9495239257812
0, 5, 104, 301.1358947753906
0, 5, 105, 292.9019470214844
0, 5, 106, 281.7159729003906
0, 5, 107, 293.7579345703125
0, 5, 108, 265.1281127929688
0, 5, 109, 157.44091796875
0, 5, 110, 39.50321578979492
0, 5, 111, 21.1657886505127
0, 5, 112, 16.33477020263672
0, 5, 113, 13.93116760253906
0, 5, 114, 13.4615650177002
0, 5, 115, 7.297757625579834
0, 5, 116, 7.864511489868164
0, 5, 117, 6.445890426635742
0, 5, 118, 14.64658164978027
0, 5, 119, 3.330622434616089
0, 5, 120, 10.06240653991699
0, 5, 121, 6.135965824127197
0, 5, 122, 7.438654899597168
0, 5, 123, 6.529971599578857
0, 5, 124, 5.151203632354736
0, 5, 125, 2.747866153717041
0, 5, 126, 5.518543243408203
0, 5, 127, 3.107519865036011
0, 6, 0, 5.963442802429199
0, 6, 1, 4.536189556121826
0, 6, 2, 4.959498405456543
0, 6, 3, 7.471177101135254
0, 6, 4, 3.372336149215698
0, 6, 5, 5.2381591796875
0, 6, 6, 6.535115242004395
0, 6, 7, 6.053750038146973
0, 6, 8, 8.707942008972168
0, 6, 9, 5.239521026611328
0, 6, 10, 8.678562164306641
0, 6, 11, 8.195396423339844
0, 6, 12, 9.244916915893555
0, 6, 13, 14.03756809234619
0, 6, 14, 9.196305274963379
0, 6, 15, 15.59216403961182
0, 6, 16, 28.64864158630371
0, 6, 17, 54.53158950805664
0, 6, 18, 173.1369934082031
0, 6, 19, 274.9855346679688
0, 6, 20, 291.0332641601562
0, 6, 21, 313.9717407226562
0, 6, 22, 320.67822265625
0, 6, 23, 304.9606018066406
0, 6, 24, 315.712646484375
0, 6, 25, 315.8956298828125
0, 6, 26, 320.3448486328125
0, 6, 27, 329.5787658691406
0, 6, 28, 295.9097595214844
0, 6, 29, 330.7050476074219
0, 6, 30, 281.7036437988281
0, 6, 31, 285.0406188964844
0, 6, 32, 339.0191955566406
0, 6, 33, 299.2574768066406
0, 6, 34, 340.9840698242188
0, 6, 35, 320.1322937011719
0, 6, 36, 273.5632934570312
0, 6, 37, 289.6119384765625
0, 6, 38, 310.9275207519531
0, 6, 39, 299.7508544921875
0, 6, 40, 284.5112915039062
0, 6, 41, 294.96142578125
0, 6, 42, 302.4330444335938
0, 6, 43, 288.9065551757812
0, 6, 44, 280.6412963867188
0, 6, 45, 320.341796875
0, 6, 46, 301.6788635253906
0, 6, 47, 332.4795532226562
0, 6, 48, 293.3060302734375
0, 6, 49, 313.6787719726562
0, 6, 50, 330.0346984863281
0, 6, 51, 310.9786071777344
0, 6, 52, 320.5564880371094
0, 6, 53, 327.8819885253906
0, 6, 54, 305.8452453613281
0, 6, 55, 304.030029296875
0, 6, 56, 293.1552734375
0, 6, 57, 313.2611694335938
0, 6, 58, 262.2152404785156
0, 6, 59, 304.0451049804688
0, 6, 60, 312.4692687988281
0, 6, 61, 270.5830688476562
0, 6, 62, 339.8413391113281
0, 6, 63, 323.1845397949219
0, 6, 64, 290.9229125976562
0, 6, 65, 285.1333923339844
0, 6, 66, 304.3205871582031
0, 6, 67, 309.0577392578125
0, 6, 68, 294.5148620605469
0, 6, 69, 280.9584350585938
0, 6, 70, 273.9503784179688
0, 6, 71, 289.2697143554688
0, 6, 72, 309.2786560058594
0, 6, 73, 291.3377380371094
0, 6, 74, 330.8932495117188
0, 6, 75, 344.2169189453125
0, 6, 76, 300.958740234375
0, 6, 77, 287.6647033691406
0, 6, 78, 279.4654235839844
0, 6, 79, 293.5422058105469
0, 6, 80, 298.9833068847656
0, 6, 81, 315.9131469726562
0, 6, 82, 318.6295166015625
0, 6, 83, 320.7442626953125
0, 6, 84, 297.5819091796875
0, 6, 85, 301.7222290039062
0, 6, 86, 328.4949340820312
0, 6, 87, 294.2244873046875
0, 6, 88, 306.1871337890625
0, 6, 89, 303.0242614746094
0, 6, 90, 299.4851379394531
0, 6, 91, 311.4044189453125
0, 6, 92, 287.6835632324219
0, 6, 93, 296.0310668945312
0, 6, 94, 273.287109375
0, 6, 95, 300.5785217285156
0, 6, 96, 346.5053100585938
0, 6, 97, 310.3003234863281
0, 6, 98, 301.1488342285156
0, 6, 99, 273.4524841308594
0, 6, 100, 310.8095092773438
0, 6, 101, 292.9409790039062
0, 6, 102, 306.3867492675781
0, 6, 103, 308.2415466308594
0, 6, 104, 294.0559997558594
0, 6, 105, 301.1721496582031
0, 6, 106, 306.6863403320312
0, 6, 107, 305.4360656738281
0, 6, 108, 264.9925231933594
0, 6, 109, 187.8060607910156
0, 6, 110, 54.98012542724609
0, 6, 111, 21.97330093383789
0, 6, 112, 15.91611480712891
0, 6, 113, 10.61113357543945
0, 6, 114, 12.89143943786621
0, 6, 115, 14.67667102813721
0, 6, 116, 10.84712696075439
0, 6, 117, 8.204004287719727
0, 6, 118, 12.99806118011475
0, 6, 119, 8.652833938598633
0, 6, 120, 5.697294235229492
0, 6, 121, 7.805040836334229
0, 6, 122, 8.188763618469238
0, 6, 123, 4.68713903427124
0, 6, 124, 7.099210262298584
0, 6, 125, 6.39188289642334
0, 6, 126, 4.184231758117676
0, 6, 127, 7.187379360198975
0, 7, 0, 4.814620018005371
0, 7, 1, 2.96462082862854
0, 7, 2, 5.474653720855713
0, 7, 3, 2.000403881072998
0, 7, 4, 3.605205535888672
0, 7, 5, 5.337681770324707
0, 7, 6, 6.53046703338623
0, 7, 7, 5.524375438690186
0, 7, 8, 4.589860439300537
0, 7, 9, 5.103933811187744
0, 7, 10, 8.97550106048584
0, 7, 11, 15.03166580200195
0, 7, 12, 11.41108512878418
0, 7, 13, 10.45776462554932
0, 7, 14, 10.44421291351318
0, 7, 15, 17.78956413269043
0, 7, 16, 25.02091217041016
0, 7, 17, 100.9175872802734
0, 7, 18, 218.6736145019531
0, 7, 19, 290.4874572753906
0, 7, 20, 297.5087280273438
0, 7, 21, 276.2391967773438
0, 7, 22, 299.0686340332031
0, 7, 23, 289.4204406738281
0, 7, 24, 313.3225402832031
0, 7, 25, 324.6939086914062
0, 7, 26, 277.5232238769531
0, 7, 27, 299.3468017578125
0, 7, 28, 329.1380004882812
0, 7, 29, 316.7367248535156
0, 7, 30, 298.2997131347656
0, 7, 31, 277.9308471679688
0, 7, 32, 304.2574768066406
0, 7, 33, 263.4486999511719
0, 7, 34, 297.0921325683594
0, 7, 35, 321.0505065917969
0, 7, 36, 331.6332092285156
0, 7, 37, 322.9816284179688
0, 7, 38, 294.4055480957031
0, 7, 39, 305.6867065429688
0, 7, 40, 289.1195678710938
0, 7, 41, 274.5673828125
0, 7, 42, 303.9538269042969
0, 7, 43, 272.6987915039062
0, 7, 44, 304.5380249023438
0, 7, 45, 294.4036560058594
0, 7, 46, 283.89599609375
0, 7, 47, 330.8028259277344
0, 7, 48, 285.6410217285156
0, 7, 49, 301.37255859375
0, 7, 50, 321.1833190917969
0, 7, 51, 299.2298278808594
0, 7, 52, 327.9341125488281
0, 7, 53, 313.2938842773438
0, 7, 54, 322.82666015625
0, 7, 55, 307.28564453125
0, 7, 56, 280.2582397460938
0, 7, 57, 282.8654479980469
0, 7, 58, 296.1966857910156
0, 7, 59, 294.1107788085938
0, 7, 60, 323.9792785644531
0, 7, 61, 276.9204406738281
0, 7, 62, 297.6106567382812
0, 7, 63, 291.8781127929688
0, 7, 64, 305.8816528320312
0, 7, 65, 333.8849182128906
0, 7, 66, 317.2997131347656
0, 7, 67, 302.38671875
0, 7, 68, 279.0464782714844
0, 7, 69, 295.0218200683594
0, 7, 70, 302.5306701660156
0, 7, 71, 308.6342163085938
0, 7, 72, 283.7883605957031
0, 7, 73, 296.2144775390625
0, 7, 74, 347.3207702636719
0, 7, 75, 319.8728332519531
0, 7, 76, 323.08447265625
0, 7, 77, 278.562255859375
0, 7, 78, 301.1729125976562
0, 7, 79, 296.7203674316406
0, 7, 80, 310.3876953125
0, 7, 81, 319.8341369628906
0, 7, 82, 328.0901794433594
0, 7, 83, 318.0162353515625
0, 7, 84, 309.0639953613281
0, 7, 85, 271.5962219238281
0, 7, 86, 311.8568115234375
0, 7, 87, 310.5243530273438
0, 7, 88, 310.0356750488281
0, 7, 89, 293.4089660644531
0, 7, 90, 307.8855590820312
0, 7, 91, 317.6155700683594
0, 7, 92, 289.6736755371094
0, 7, 93, 306.4354553222656
0, 7, 94, 272.3529357910156
0, 7, 95, 297.0938720703125
0, 7, 96, 331.4898071289062
0, 7, 97, 295.111572265625
0, 7, 98, 290.2247314453125
0, 7, 99, 309.7175903320312
0, 7, 100, 280.3292541503906
0, 7, 101, 274.8604431152344
0, 7, 102, 291.2047119140625
0, 7, 103, 293.10595703125
0, 7, 104, 276.6238708496094
0, 7, 105, 306.9149475097656
0, 7, 106, 317.7580261230469
0, 7, 107, 296.7074279785156
0, 7, 108, 273.2367248535156
0, 7, 109, 236.76025390625
0, 7, 110, 98.70085906982422
0, 7, 111, 24.92136001586914
0, 7, 112, 13.75914859771729
0, 7, 113, 13.46468544006348
0, 7, 114, 13.84374046325684
0, 7, 115, 9.942553520202637
0, 7, 116, 8.43002986907959
0, 7, 117, 5.266525745391846
0, 7, 118, 8.989717483520508
0, 7, 119, 5.087666511535645
0, 7, 120, 5.827044486999512
0, 7, 121, 5.349821090698242
0, 7, 122, 6.030240058898926
0, 7, 123, 5.343060970306396
0, 7, 124, 4.816103458404541
0, 7, 125, 5.950734615325928
0, 7, 126, 10.80109405517578
0, 7, 127, 1.951197743415833
0, 8, 0, 5.432295799255371
0, 8, 1, 4.798960208892822
0, 8, 2, 3.980570554733276
0, 8, 3, 2.928509712219238
0, 8, 4, 3.055928707122803
0, 8, 5, 3.835155963897705
0, 8, 6, 5.628483295440674
0, 8, 7, 5.024720191955566
0, 8, 8, 7.393583297729492
0, 8, 9, 4.564716339111328
0, 8, 10, 8.015810012817383
0, 8, 11, 10.4341402053833
0, 8, 12, 12.67662811279297
0, 8, 13, 15.47156524658203
0, 8, 14, 13.20493984222412
0, 8, 15, 19.45163917541504
0, 8, 16, 33.58746337890625
0, 8, 17, 129.1049041748047
0, 8, 18, 243.4893798828125
0, 8, 19, 297.0339660644531
0, 8, 20, 285.3670654296875
0, 8, 21, 308.462158203125
0, 8, 22, 295.29150390625
0, 8, 23, 275.3262329101562
0, 8, 24, 269.0589904785156
0, 8, 25, 277.9552001953125
0, 8, 26, 306.0678405761719
0, 8, 27, 309.5958862304688
0, 8, 28, 302.2106628417969
0, 8, 29, 319.4790649414062
0, 8, 30, 312.6653442382812
0, 8, 31, 303.5124206542969
0, 8, 32, 280.2676391601562
0, 8, 33, 294.3557434082031
0, 8, 34, 287.9071960449219
0, 8, 35, 281.0689392089844
0, 8, 36, 315.4357604980469
0, 8, 37, 340.2487182617188
0, 8, 38, 330.5790405273438
0, 8, 39, 281.4264526367188
