# TOPAS Version: 3.1.p3
# Parameter File: batch_inserts_294.txt
# Results for scorer Readout_Adipose
# Scored in component: MyBox
# X in 1 bin  of 0.75 cm
# Y in 512 bins of 0.0783984 cm
# Z in 128 bins of 0.078125 cm
# EnergyDeposit ( MeV ) : Sum   
0, 0, 0, 3.847621202468872
0, 0, 1, 2.50198769569397
0, 0, 2, 3.145511627197266
0, 0, 3, 1.856409072875977
0, 0, 4, 2.579625368118286
0, 0, 5, 4.429902076721191
0, 0, 6, 6.962621688842773
0, 0, 7, 7.466274738311768
0, 0, 8, 4.269949436187744
0, 0, 9, 5.917883396148682
0, 0, 10, 5.78459644317627
0, 0, 11, 4.397469520568848
0, 0, 12, 5.064843654632568
0, 0, 13, 7.480991840362549
0, 0, 14, 7.230593681335449
0, 0, 15, 8.428732872009277
0, 0, 16, 9.019365310668945
0, 0, 17, 8.412925720214844
0, 0, 18, 15.11841011047363
0, 0, 19, 41.9388542175293
0, 0, 20, 139.9403686523438
0, 0, 21, 225.1390991210938
0, 0, 22, 249.3508148193359
0, 0, 23, 258.0211181640625
0, 0, 24, 251.1352844238281
0, 0, 25, 258.5962829589844
0, 0, 26, 234.0709533691406
0, 0, 27, 237.4734191894531
0, 0, 28, 272.1767883300781
0, 0, 29, 252.5468444824219
0, 0, 30, 232.2725524902344
0, 0, 31, 243.5415649414062
0, 0, 32, 262.8937683105469
0, 0, 33, 259.8023681640625
0, 0, 34, 286.5257263183594
0, 0, 35, 266.7064819335938
0, 0, 36, 246.8072204589844
0, 0, 37, 253.9432983398438
0, 0, 38, 269.5396118164062
0, 0, 39, 229.9347686767578
0, 0, 40, 243.6405181884766
0, 0, 41, 267.4277648925781
0, 0, 42, 229.1046295166016
0, 0, 43, 259.7440795898438
0, 0, 44, 251.9573364257812
0, 0, 45, 254.8633270263672
0, 0, 46, 244.7644348144531
0, 0, 47, 254.1812133789062
0, 0, 48, 271.4517822265625
0, 0, 49, 272.8819885253906
0, 0, 50, 250.0088195800781
0, 0, 51, 252.5258483886719
0, 0, 52, 271.6833801269531
0, 0, 53, 291.8128356933594
0, 0, 54, 242.1199951171875
0, 0, 55, 240.3988037109375
0, 0, 56, 279.8797912597656
0, 0, 57, 263.1217651367188
0, 0, 58, 247.4304809570312
0, 0, 59, 268.9459838867188
0, 0, 60, 234.1383209228516
0, 0, 61, 245.6147155761719
0, 0, 62, 259.2947692871094
0, 0, 63, 266.4024658203125
0, 0, 64, 256.4659729003906
0, 0, 65, 261.0313415527344
0, 0, 66, 276.2345275878906
0, 0, 67, 247.431396484375
0, 0, 68, 258.2063598632812
0, 0, 69, 260.9465637207031
0, 0, 70, 272.3571472167969
0, 0, 71, 237.8154907226562
0, 0, 72, 252.4085540771484
0, 0, 73, 256.8904113769531
0, 0, 74, 251.2146911621094
0, 0, 75, 239.9428558349609
0, 0, 76, 228.3221435546875
0, 0, 77, 260.1253051757812
0, 0, 78, 257.5062561035156
0, 0, 79, 278.2175903320312
0, 0, 80, 216.0373077392578
0, 0, 81, 267.0871887207031
0, 0, 82, 257.1334533691406
0, 0, 83, 246.55615234375
0, 0, 84, 269.5950622558594
0, 0, 85, 233.2840118408203
0, 0, 86, 252.1682891845703
0, 0, 87, 251.5005950927734
0, 0, 88, 260.3367919921875
0, 0, 89, 284.1357421875
0, 0, 90, 243.8209228515625
0, 0, 91, 280.3116149902344
0, 0, 92, 252.3998107910156
0, 0, 93, 250.0262603759766
0, 0, 94, 248.9722747802734
0, 0, 95, 247.1870269775391
0, 0, 96, 274.9043579101562
0, 0, 97, 271.5263061523438
0, 0, 98, 274.2293701171875
0, 0, 99, 258.0764465332031
0, 0, 100, 259.7604370117188
0, 0, 101, 227.7215118408203
0, 0, 102, 232.3275299072266
0, 0, 103, 271.9301452636719
0, 0, 104, 253.1190490722656
0, 0, 105, 250.5373382568359
0, 0, 106, 246.4060974121094
0, 0, 107, 151.8647155761719
0, 0, 108, 38.07454681396484
0, 0, 109, 12.01205444335938
0, 0, 110, 15.16020965576172
0, 0, 111, 8.576908111572266
0, 0, 112, 8.095817565917969
0, 0, 113, 5.124042987823486
0, 0, 114, 6.045373916625977
0, 0, 115, 6.558494091033936
0, 0, 116, 6.068300724029541
0, 0, 117, 5.365932941436768
0, 0, 118, 6.776118755340576
0, 0, 119, 3.683076858520508
0, 0, 120, 5.710968494415283
0, 0, 121, 3.747679471969604
0, 0, 122, 4.080577850341797
0, 0, 123, 2.009739398956299
0, 0, 124, 4.748948574066162
0, 0, 125, 4.120961666107178
0, 0, 126, 5.544332027435303
0, 0, 127, 3.145665884017944
0, 1, 0, 8.565245628356934
0, 1, 1, 2.478078365325928
0, 1, 2, 4.675076961517334
0, 1, 3, 2.512675523757935
0, 1, 4, 2.133415222167969
0, 1, 5, 3.982787370681763
0, 1, 6, 3.321802854537964
0, 1, 7, 5.793776035308838
0, 1, 8, 7.256701469421387
0, 1, 9, 3.267972230911255
0, 1, 10, 6.860227584838867
0, 1, 11, 13.07955741882324
0, 1, 12, 8.328293800354004
0, 1, 13, 10.48774147033691
0, 1, 14, 7.315394878387451
0, 1, 15, 8.734535217285156
0, 1, 16, 12.36856269836426
0, 1, 17, 10.43188858032227
0, 1, 18, 19.54907417297363
0, 1, 19, 65.96290588378906
0, 1, 20, 200.7156982421875
0, 1, 21, 254.8052062988281
0, 1, 22, 294.7379455566406
0, 1, 23, 285.6607360839844
0, 1, 24, 275.6926574707031
0, 1, 25, 289.9144897460938
0, 1, 26, 268.0755615234375
0, 1, 27, 307.0894775390625
0, 1, 28, 299.8749084472656
0, 1, 29, 295.7309265136719
0, 1, 30, 284.7665100097656
0, 1, 31, 294.1809387207031
0, 1, 32, 292.6053466796875
0, 1, 33, 295.7396545410156
0, 1, 34, 292.9710693359375
0, 1, 35, 278.3377380371094
0, 1, 36, 305.5534057617188
0, 1, 37, 293.8104248046875
0, 1, 38, 281.3512878417969
0, 1, 39, 294.573974609375
0, 1, 40, 266.5840454101562
0, 1, 41, 285.6695251464844
0, 1, 42, 290.4625549316406
0, 1, 43, 331.5545654296875
0, 1, 44, 278.8118591308594
0, 1, 45, 293.1532897949219
0, 1, 46, 258.9697570800781
0, 1, 47, 309.1030883789062
0, 1, 48, 284.5675048828125
0, 1, 49, 302.6145629882812
0, 1, 50, 261.5643310546875
0, 1, 51, 273.5758666992188
0, 1, 52, 295.1989135742188
0, 1, 53, 305.8317260742188
0, 1, 54, 274.1781616210938
0, 1, 55, 293.6047058105469
0, 1, 56, 275.8227844238281
0, 1, 57, 297.6895751953125
0, 1, 58, 312.2192077636719
0, 1, 59, 292.9869384765625
0, 1, 60, 297.1467590332031
0, 1, 61, 276.4270629882812
0, 1, 62, 307.6212463378906
0, 1, 63, 285.4960021972656
0, 1, 64, 288.366943359375
0, 1, 65, 293.256103515625
0, 1, 66, 293.2205200195312
0, 1, 67, 290.8727111816406
0, 1, 68, 276.5216064453125
0, 1, 69, 279.9356384277344
0, 1, 70, 270.9645690917969
0, 1, 71, 272.648681640625
0, 1, 72, 286.3832397460938
0, 1, 73, 304.9476928710938
0, 1, 74, 302.7145690917969
0, 1, 75, 292.1683959960938
0, 1, 76, 283.9100646972656
0, 1, 77, 290.5390014648438
0, 1, 78, 296.8153686523438
0, 1, 79, 302.5670166015625
0, 1, 80, 299.240966796875
0, 1, 81, 300.0113525390625
0, 1, 82, 282.2378540039062
0, 1, 83, 330.1051025390625
0, 1, 84, 308.0617370605469
0, 1, 85, 253.5240478515625
0, 1, 86, 296.5649108886719
0, 1, 87, 290.4615783691406
0, 1, 88, 298.5119018554688
0, 1, 89, 292.4994506835938
0, 1, 90, 269.1618347167969
0, 1, 91, 318.1651916503906
0, 1, 92, 291.282470703125
0, 1, 93, 286.8823547363281
0, 1, 94, 302.7913513183594
0, 1, 95, 283.2780151367188
0, 1, 96, 282.8351135253906
0, 1, 97, 301.066650390625
0, 1, 98, 277.0309448242188
0, 1, 99, 265.2474365234375
0, 1, 100, 277.4785461425781
0, 1, 101, 281.6430358886719
0, 1, 102, 277.0062561035156
0, 1, 103, 282.302001953125
0, 1, 104, 307.818603515625
0, 1, 105, 296.965087890625
0, 1, 106, 260.2390747070312
0, 1, 107, 190.8054809570312
0, 1, 108, 81.65729522705078
0, 1, 109, 25.32761383056641
0, 1, 110, 12.47856616973877
0, 1, 111, 9.125566482543945
0, 1, 112, 12.10112285614014
0, 1, 113, 5.039268493652344
0, 1, 114, 6.500038623809814
0, 1, 115, 5.16123628616333
0, 1, 116, 12.88977432250977
0, 1, 117, 7.151645183563232
0, 1, 118, 5.073592662811279
0, 1, 119, 6.324305057525635
0, 1, 120, 4.148480415344238
0, 1, 121, 3.124277591705322
0, 1, 122, 3.873871088027954
0, 1, 123, 4.310214042663574
0, 1, 124, 6.8006911277771
0, 1, 125, 4.630680561065674
0, 1, 126, 5.808106899261475
0, 1, 127, 2.902252197265625
0, 2, 0, 5.103910446166992
0, 2, 1, 2.907079935073853
0, 2, 2, 5.395632266998291
0, 2, 3, 4.189061164855957
0, 2, 4, 2.766692399978638
0, 2, 5, 1.223005175590515
0, 2, 6, 2.150912046432495
0, 2, 7, 2.968815803527832
0, 2, 8, 3.490087509155273
0, 2, 9, 6.553053379058838
0, 2, 10, 8.400798797607422
0, 2, 11, 5.83397912979126
0, 2, 12, 5.968843460083008
0, 2, 13, 10.72573566436768
0, 2, 14, 11.36473655700684
0, 2, 15, 7.582351207733154
0, 2, 16, 7.944972991943359
0, 2, 17, 15.40762805938721
0, 2, 18, 30.8006763458252
0, 2, 19, 115.8765563964844
0, 2, 20, 247.2866363525391
0, 2, 21, 270.6083374023438
0, 2, 22, 315.2951354980469
0, 2, 23, 300.6412048339844
0, 2, 24, 286.0892639160156
0, 2, 25, 301.7924194335938
0, 2, 26, 295.5231018066406
0, 2, 27, 275.2798156738281
0, 2, 28, 271.8106689453125
0, 2, 29, 273.7114562988281
0, 2, 30, 290.3534545898438
0, 2, 31, 278.6396179199219
0, 2, 32, 293.9913330078125
0, 2, 33, 283.5185241699219
0, 2, 34, 333.0420532226562
0, 2, 35, 290.9999084472656
0, 2, 36, 304.3492736816406
0, 2, 37, 317.0113220214844
0, 2, 38, 312.5043029785156
0, 2, 39, 266.37060546875
0, 2, 40, 304.9259643554688
0, 2, 41, 292.7787780761719
0, 2, 42, 302.6694641113281
0, 2, 43, 313.4053649902344
0, 2, 44, 310.1720581054688
0, 2, 45, 325.9307556152344
0, 2, 46, 290.0240173339844
0, 2, 47, 302.4254760742188
0, 2, 48, 281.2047729492188
0, 2, 49, 279.5859375
0, 2, 50, 295.9956359863281
0, 2, 51, 284.9682312011719
0, 2, 52, 273.0986633300781
0, 2, 53, 286.6355895996094
0, 2, 54, 280.000732421875
0, 2, 55, 276.5387268066406
0, 2, 56, 303.1988525390625
0, 2, 57, 290.6883850097656
0, 2, 58, 302.5993957519531
0, 2, 59, 289.9801940917969
0, 2, 60, 318.8704223632812
0, 2, 61, 301.8898315429688
0, 2, 62, 313.62890625
0, 2, 63, 302.4497375488281
0, 2, 64, 296.3943176269531
0, 2, 65, 318.3316040039062
0, 2, 66, 279.3177795410156
0, 2, 67, 290.2226867675781
0, 2, 68, 296.154296875
0, 2, 69, 311.4058837890625
0, 2, 70, 335.3995971679688
0, 2, 71, 283.0274658203125
0, 2, 72, 303.1730651855469
0, 2, 73, 311.3492126464844
0, 2, 74, 284.7703247070312
0, 2, 75, 303.2244262695312
0, 2, 76, 285.8114013671875
0, 2, 77, 298.6149597167969
0, 2, 78, 313.7173156738281
0, 2, 79, 310.7911071777344
0, 2, 80, 296.5234680175781
0, 2, 81, 281.39453125
0, 2, 82, 319.9953918457031
0, 2, 83, 312.8947143554688
0, 2, 84, 286.9054565429688
0, 2, 85, 282.3274536132812
0, 2, 86, 323.8069763183594
0, 2, 87, 286.1496887207031
0, 2, 88, 278.8075561523438
0, 2, 89, 294.6038208007812
0, 2, 90, 295.2726135253906
0, 2, 91, 278.2675170898438
0, 2, 92, 305.2154235839844
0, 2, 93, 316.7254333496094
0, 2, 94, 289.7794189453125
0, 2, 95, 313.9695739746094
0, 2, 96, 315.6337280273438
0, 2, 97, 291.3221435546875
0, 2, 98, 295.4736022949219
0, 2, 99, 274.1369018554688
0, 2, 100, 305.2295227050781
0, 2, 101, 301.5412902832031
0, 2, 102, 297.5015258789062
0, 2, 103, 292.4109191894531
0, 2, 104, 293.2125854492188
0, 2, 105, 273.3532104492188
0, 2, 106, 296.2253112792969
0, 2, 107, 269.7796936035156
0, 2, 108, 117.7733535766602
0, 2, 109, 31.68735122680664
0, 2, 110, 9.533169746398926
0, 2, 111, 10.22371959686279
0, 2, 112, 5.902653694152832
0, 2, 113, 9.44815731048584
0, 2, 114, 9.761070251464844
0, 2, 115, 10.50196647644043
0, 2, 116, 9.441328048706055
0, 2, 117, 9.055778503417969
0, 2, 118, 3.002447843551636
0, 2, 119, 6.28407096862793
0, 2, 120, 7.627585411071777
0, 2, 121, 1.097540736198425
0, 2, 122, 3.857185125350952
0, 2, 123, 4.003148555755615
0, 2, 124, 5.108325958251953
0, 2, 125, 3.850064516067505
0, 2, 126, 3.194497346878052
0, 2, 127, 3.985767841339111
0, 3, 0, 2.438639402389526
0, 3, 1, 2.50392746925354
0, 3, 2, 5.341226100921631
0, 3, 3, 2.212437868118286
0, 3, 4, 3.713446140289307
0, 3, 5, 5.803666114807129
0, 3, 6, 6.173211097717285
0, 3, 7, 4.765543460845947
0, 3, 8, 5.690727233886719
0, 3, 9, 4.815756797790527
0, 3, 10, 5.985931396484375
0, 3, 11, 6.285422325134277
0, 3, 12, 5.854681015014648
0, 3, 13, 14.90418910980225
0, 3, 14, 11.27695083618164
0, 3, 15, 13.83830165863037
0, 3, 16, 11.89236068725586
0, 3, 17, 19.42766380310059
0, 3, 18, 52.72411346435547
0, 3, 19, 177.3862152099609
0, 3, 20, 269.7350158691406
0, 3, 21, 271.4385070800781
0, 3, 22, 283.3039855957031
0, 3, 23, 286.3941650390625
0, 3, 24, 287.2695922851562
0, 3, 25, 271.38671875
0, 3, 26, 303.6032409667969
0, 3, 27, 291.0074768066406
0, 3, 28, 281.5086059570312
0, 3, 29, 337.8717651367188
0, 3, 30, 317.7019958496094
0, 3, 31, 285.6554565429688
0, 3, 32, 306.0464477539062
0, 3, 33, 314.3251037597656
0, 3, 34, 322.47021484375
0, 3, 35, 306.8261413574219
0, 3, 36, 272.7591247558594
0, 3, 37, 315.8122863769531
0, 3, 38, 303.4031677246094
0, 3, 39, 286.1619873046875
0, 3, 40, 265.0397033691406
0, 3, 41, 300.5127563476562
0, 3, 42, 284.4090270996094
0, 3, 43, 304.9742126464844
0, 3, 44, 310.3963623046875
0, 3, 45, 289.6640625
0, 3, 46, 331.3203735351562
0, 3, 47, 302.3829956054688
0, 3, 48, 303.9371337890625
0, 3, 49, 278.0453491210938
0, 3, 50, 290.8243713378906
0, 3, 51, 274.1947937011719
0, 3, 52, 316.0923461914062
0, 3, 53, 289.3386535644531
0, 3, 54, 285.1899108886719
0, 3, 55, 285.15185546875
0, 3, 56, 298.76904296875
0, 3, 57, 288.0166015625
0, 3, 58, 309.3178405761719
0, 3, 59, 296.3010559082031
0, 3, 60, 298.5599365234375
0, 3, 61, 264.3318176269531
0, 3, 62, 285.8379211425781
0, 3, 63, 306.4201354980469
0, 3, 64, 315.879638671875
0, 3, 65, 305.2731323242188
0, 3, 66, 318.0737609863281
0, 3, 67, 319.6396789550781
0, 3, 68, 280.2251281738281
0, 3, 69, 284.8703002929688
0, 3, 70, 287.7062377929688
0, 3, 71, 300.7902526855469
0, 3, 72, 272.7590026855469
0, 3, 73, 307.2798461914062
0, 3, 74, 293.7795715332031
0, 3, 75, 292.6312866210938
0, 3, 76, 306.5757141113281
0, 3, 77, 317.03759765625
0, 3, 78, 304.0739440917969
0, 3, 79, 282.4481811523438
0, 3, 80, 289.0638732910156
0, 3, 81, 310.9108581542969
0, 3, 82, 316.008544921875
0, 3, 83, 300.5436096191406
0, 3, 84, 311.8507080078125
0, 3, 85, 294.7890014648438
0, 3, 86, 303.1306457519531
0, 3, 87, 297.5118103027344
0, 3, 88, 300.2676086425781
0, 3, 89, 296.0833435058594
0, 3, 90, 274.4794311523438
0, 3, 91, 284.6646118164062
0, 3, 92, 303.852783203125
0, 3, 93, 314.0742797851562
0, 3, 94, 300.9708557128906
0, 3, 95, 334.8691101074219
0, 3, 96, 290.6111450195312
0, 3, 97, 282.1108703613281
0, 3, 98, 276.7958679199219
0, 3, 99, 262.761962890625
0, 3, 100, 284.2621154785156
0, 3, 101, 296.9636840820312
0, 3, 102, 273.7122497558594
0, 3, 103, 319.7684936523438
0, 3, 104, 309.3117370605469
0, 3, 105, 288.4309997558594
0, 3, 106, 303.3360900878906
0, 3, 107, 282.2603759765625
0, 3, 108, 169.2596282958984
0, 3, 109, 57.181884765625
0, 3, 110, 19.64479446411133
0, 3, 111, 12.10462856292725
0, 3, 112, 13.7592601776123
0, 3, 113, 5.689765453338623
0, 3, 114, 9.913237571716309
0, 3, 115, 7.246914863586426
0, 3, 116, 7.751370906829834
0, 3, 117, 5.719538688659668
0, 3, 118, 8.900476455688477
0, 3, 119, 3.371943235397339
0, 3, 120, 5.6162109375
0, 3, 121, 6.752902984619141
0, 3, 122, 3.657174825668335
0, 3, 123, 6.454999446868896
0, 3, 124, 2.676920413970947
0, 3, 125, 7.93096923828125
0, 3, 126, 3.162085771560669
0, 3, 127, 3.159596920013428
0, 4, 0, 5.424149990081787
0, 4, 1, 4.28424596786499
0, 4, 2, 2.462905168533325
0, 4, 3, 2.98017144203186
0, 4, 4, 6.455787658691406
0, 4, 5, 12.70423603057861
0, 4, 6, 6.650294780731201
0, 4, 7, 4.192630767822266
0, 4, 8, 3.067542791366577
0, 4, 9, 4.608088970184326
0, 4, 10, 7.642570018768311
0, 4, 11, 5.464882850646973
0, 4, 12, 8.214072227478027
0, 4, 13, 8.331974983215332
0, 4, 14, 15.30916690826416
0, 4, 15, 9.945849418640137
0, 4, 16, 14.64377021789551
0, 4, 17, 18.57230567932129
0, 4, 18, 92.51380920410156
0, 4, 19, 221.6486511230469
0, 4, 20, 285.9295349121094
0, 4, 21, 275.8250732421875
0, 4, 22, 305.90625
0, 4, 23, 265.5220642089844
0, 4, 24, 288.9766235351562
0, 4, 25, 274.5689086914062
0, 4, 26, 296.7973327636719
0, 4, 27, 283.1353759765625
0, 4, 28, 309.6369934082031
0, 4, 29, 321.7432556152344
0, 4, 30, 308.6763000488281
0, 4, 31, 305.30810546875
0, 4, 32, 281.8577270507812
0, 4, 33, 297.104736328125
0, 4, 34, 295.2015991210938
0, 4, 35, 311.9582824707031
0, 4, 36, 292.2271118164062
0, 4, 37, 288.3142700195312
0, 4, 38, 296.0409240722656
0, 4, 39, 295.2784729003906
0, 4, 40, 302.5391540527344
0, 4, 41, 314.6603393554688
0, 4, 42, 331.4819641113281
0, 4, 43, 296.961181640625
0, 4, 44, 321.1982727050781
0, 4, 45, 326.0276184082031
0, 4, 46, 306.9529724121094
0, 4, 47, 292.0837097167969
0, 4, 48, 296.6623840332031
0, 4, 49, 278.3693542480469
0, 4, 50, 296.451904296875
0, 4, 51, 316.2947387695312
0, 4, 52, 327.8130493164062
0, 4, 53, 304.5517578125
0, 4, 54, 289.4969787597656
0, 4, 55, 316.158203125
0, 4, 56, 285.3879699707031
0, 4, 57, 312.1938781738281
0, 4, 58, 296.0927429199219
0, 4, 59, 309.7433776855469
0, 4, 60, 303.6080017089844
0, 4, 61, 315.3450927734375
0, 4, 62, 306.3383178710938
0, 4, 63, 301.1103820800781
0, 4, 64, 330.1661682128906
0, 4, 65, 315.3680725097656
0, 4, 66, 299.3525085449219
0, 4, 67, 287.172607421875
0, 4, 68, 315.9029541015625
0, 4, 69, 276.7500305175781
0, 4, 70, 299.8756408691406
0, 4, 71, 322.1549682617188
0, 4, 72, 332.7282104492188
0, 4, 73, 299.2148742675781
0, 4, 74, 294.8920593261719
0, 4, 75, 290.3282165527344
0, 4, 76, 273.9661865234375
0, 4, 77, 277.3602600097656
0, 4, 78, 310.6433715820312
0, 4, 79, 318.85498046875
0, 4, 80, 316.7743225097656
0, 4, 81, 312.0878601074219
0, 4, 82, 298.4030151367188
0, 4, 83, 300.076416015625
0, 4, 84, 293.2791442871094
0, 4, 85, 297.0842895507812
0, 4, 86, 298.2188110351562
0, 4, 87, 286.5001220703125
0, 4, 88, 306.6594543457031
0, 4, 89, 294.8393859863281
0, 4, 90, 331.7545166015625
0, 4, 91, 303.1822204589844
0, 4, 92, 288.4180297851562
0, 4, 93, 296.1719665527344
0, 4, 94, 292.3998107910156
0, 4, 95, 289.0895385742188
0, 4, 96, 324.5644226074219
0, 4, 97, 276.4616088867188
0, 4, 98, 328.2130737304688
0, 4, 99, 313.2479553222656
0, 4, 100, 300.0393981933594
0, 4, 101, 256.7692260742188
0, 4, 102, 296.2496032714844
0, 4, 103, 317.639892578125
0, 4, 104, 281.0818176269531
0, 4, 105, 310.4984436035156
0, 4, 106, 287.918701171875
0, 4, 107, 295.0911254882812
0, 4, 108, 226.2976989746094
0, 4, 109, 79.06021881103516
0, 4, 110, 17.39433479309082
0, 4, 111, 14.3090705871582
0, 4, 112, 10.345947265625
0, 4, 113, 12.16804122924805
0, 4, 114, 9.54150390625
0, 4, 115, 9.87425708770752
0, 4, 116, 11.17588424682617
0, 4, 117, 6.670145034790039
0, 4, 118, 10.96558856964111
0, 4, 119, 11.47312450408936
0, 4, 120, 5.074679374694824
0, 4, 121, 5.5742506980896
0, 4, 122, 3.715712308883667
0, 4, 123, 7.258138656616211
0, 4, 124, 4.128392696380615
0, 4, 125, 9.036594390869141
0, 4, 126, 4.105824947357178
0, 4, 127, 4.607404232025146
0, 5, 0, 2.978034019470215
0, 5, 1, 3.025367259979248
0, 5, 2, 5.693589210510254
0, 5, 3, 4.401782512664795
0, 5, 4, 6.777124881744385
0, 5, 5, 6.828939914703369
0, 5, 6, 7.115193367004395
0, 5, 7, 4.404084205627441
0, 5, 8, 5.097338199615479
0, 5, 9, 4.675739765167236
0, 5, 10, 7.39069652557373
0, 5, 11, 7.924209594726562
0, 5, 12, 10.21322536468506
0, 5, 13, 5.284797668457031
0, 5, 14, 13.21235179901123
0, 5, 15, 17.94945335388184
0, 5, 16, 14.00643444061279
0, 5, 17, 27.95281791687012
0, 5, 18, 137.2493896484375
0, 5, 19, 287.395751953125
0, 5, 20, 307.0221252441406
0, 5, 21, 317.3265380859375
0, 5, 22, 274.963134765625
0, 5, 23, 309.7866821289062
0, 5, 24, 300.7080688476562
0, 5, 25, 288.3864440917969
0, 5, 26, 296.2386169433594
0, 5, 27, 322.9463806152344
0, 5, 28, 302.6399536132812
0, 5, 29, 299.1792297363281
0, 5, 30, 322.4046325683594
0, 5, 31, 287.4110412597656
0, 5, 32, 303.0891723632812
0, 5, 33, 305.5933837890625
0, 5, 34, 301.5852966308594
0, 5, 35, 309.9845886230469
0, 5, 36, 270.2531127929688
0, 5, 37, 284.1871337890625
0, 5, 38, 294.4741516113281
0, 5, 39, 313.2732543945312
0, 5, 40, 310.1550903320312
0, 5, 41, 273.5146484375
0, 5, 42, 307.8184814453125
0, 5, 43, 314.1486206054688
0, 5, 44, 293.6646728515625
0, 5, 45, 302.2155456542969
0, 5, 46, 267.0367431640625
0, 5, 47, 281.848388671875
0, 5, 48, 292.9041137695312
0, 5, 49, 285.8729553222656
0, 5, 50, 292.6857604980469
0, 5, 51, 279.9806823730469
0, 5, 52, 268.733642578125
0, 5, 53, 285.7196960449219
0, 5, 54, 290.5704040527344
0, 5, 55, 346.1909484863281
0, 5, 56, 308.2728881835938
0, 5, 57, 309.0820007324219
0, 5, 58, 311.2905578613281
0, 5, 59, 302.503662109375
0, 5, 60, 308.2407836914062
0, 5, 61, 281.7960510253906
0, 5, 62, 325.28564453125
0, 5, 63, 291.7394409179688
0, 5, 64, 321.8226623535156
0, 5, 65, 307.765380859375
0, 5, 66, 327.9141540527344
0, 5, 67, 311.6940002441406
0, 5, 68, 308.7872314453125
0, 5, 69, 310.1885681152344
0, 5, 70, 301.7175598144531
0, 5, 71, 272.4980773925781
0, 5, 72, 309.9093933105469
0, 5, 73, 301.468994140625
0, 5, 74, 296.5078735351562
0, 5, 75, 293.6761779785156
0, 5, 76, 287.0123596191406
0, 5, 77, 299.008544921875
0, 5, 78, 314.7165222167969
0, 5, 79, 307.1692504882812
0, 5, 80, 294.6839904785156
0, 5, 81, 326.0670776367188
0, 5, 82, 325.3615417480469
0, 5, 83, 282.9400634765625
0, 5, 84, 302.8039245605469
0, 5, 85, 272.9274597167969
0, 5, 86, 325.4822692871094
0, 5, 87, 284.0540161132812
0, 5, 88, 314.5068054199219
0, 5, 89, 305.55078125
0, 5, 90, 316.3718872070312
0, 5, 91, 313.6025695800781
0, 5, 92, 295.1547241210938
0, 5, 93, 321.401611328125
0, 5, 94, 308.4501647949219
0, 5, 95, 297.6939086914062
0, 5, 96, 297.4398498535156
0, 5, 97, 295.5877990722656
0, 5, 98, 320.4617614746094
0, 5, 99, 304.302734375
0, 5, 100, 290.9026184082031
0, 5, 101, 305.5887145996094
0, 5, 102, 291.4166870117188
0, 5, 103, 313.9159240722656
0, 5, 104, 302.2963256835938
0, 5, 105, 292.3633728027344
0, 5, 106, 283.0823364257812
0, 5, 107, 294.0361633300781
0, 5, 108, 265.5279541015625
0, 5, 109, 156.8127288818359
0, 5, 110, 40.90476226806641
0, 5, 111, 19.44792175292969
0, 5, 112, 17.14275932312012
0, 5, 113, 15.25389003753662
0, 5, 114, 13.20103168487549
0, 5, 115, 8.792542457580566
0, 5, 116, 7.401317119598389
0, 5, 117, 5.903682708740234
0, 5, 118, 16.22370529174805
0, 5, 119, 8.737648963928223
0, 5, 120, 5.878979682922363
0, 5, 121, 5.873307704925537
0, 5, 122, 6.992435932159424
0, 5, 123, 5.920987606048584
0, 5, 124, 7.605635643005371
0, 5, 125, 3.291475057601929
0, 5, 126, 7.018088817596436
0, 5, 127, 2.52547812461853
0, 6, 0, 3.300843477249146
0, 6, 1, 2.801481246948242
0, 6, 2, 6.999006271362305
0, 6, 3, 7.104268074035645
0, 6, 4, 3.190935611724854
0, 6, 5, 6.566330432891846
0, 6, 6, 6.104784488677979
0, 6, 7, 6.074521541595459
0, 6, 8, 5.63870906829834
0, 6, 9, 5.606705188751221
0, 6, 10, 6.537831783294678
0, 6, 11, 7.655250072479248
0, 6, 12, 8.030248641967773
0, 6, 13, 17.64825439453125
0, 6, 14, 8.790704727172852
0, 6, 15, 17.6036434173584
0, 6, 16, 28.3968391418457
0, 6, 17, 58.44689178466797
0, 6, 18, 173.1635589599609
0, 6, 19, 277.7169799804688
0, 6, 20, 290.6466369628906
0, 6, 21, 313.8356018066406
0, 6, 22, 320.6771850585938
0, 6, 23, 306.4472045898438
0, 6, 24, 316.8861389160156
0, 6, 25, 315.6844787597656
0, 6, 26, 319.4217834472656
0, 6, 27, 329.968994140625
0, 6, 28, 295.2919616699219
0, 6, 29, 328.5043640136719
0, 6, 30, 281.4007568359375
0, 6, 31, 285.9767456054688
0, 6, 32, 339.7303161621094
0, 6, 33, 298.5294494628906
0, 6, 34, 339.9031066894531
0, 6, 35, 322.1300659179688
0, 6, 36, 272.882568359375
0, 6, 37, 287.2125854492188
0, 6, 38, 310.6617431640625
0, 6, 39, 301.6089477539062
0, 6, 40, 284.3863525390625
0, 6, 41, 296.7301025390625
0, 6, 42, 302.5228881835938
0, 6, 43, 288.7599487304688
0, 6, 44, 280.8776550292969
0, 6, 45, 318.892578125
0, 6, 46, 302.5761413574219
0, 6, 47, 332.5451354980469
0, 6, 48, 291.7304077148438
0, 6, 49, 311.0702514648438
0, 6, 50, 329.3894958496094
0, 6, 51, 310.8716125488281
0, 6, 52, 321.1004333496094
0, 6, 53, 329.3388671875
0, 6, 54, 303.5587768554688
0, 6, 55, 305.393798828125
0, 6, 56, 293.4427490234375
0, 6, 57, 314.5792236328125
0, 6, 58, 260.8129577636719
0, 6, 59, 301.8706359863281
0, 6, 60, 312.5670776367188
0, 6, 61, 270.495849609375
0, 6, 62, 338.5472717285156
0, 6, 63, 322.4830322265625
0, 6, 64, 290.3486328125
0, 6, 65, 286.504638671875
0, 6, 66, 302.6847839355469
0, 6, 67, 309.1046142578125
0, 6, 68, 292.6443176269531
0, 6, 69, 277.8158264160156
0, 6, 70, 274.4405212402344
0, 6, 71, 289.21630859375
0, 6, 72, 311.6902770996094
0, 6, 73, 296.2279052734375
0, 6, 74, 331.6042785644531
0, 6, 75, 342.9954833984375
0, 6, 76, 296.6320190429688
0, 6, 77, 286.374267578125
0, 6, 78, 281.8765869140625
0, 6, 79, 291.6478881835938
0, 6, 80, 301.9919738769531
0, 6, 81, 314.1059265136719
0, 6, 82, 319.6288452148438
0, 6, 83, 318.8253173828125
0, 6, 84, 296.8277587890625
0, 6, 85, 299.661865234375
0, 6, 86, 332.1237182617188
0, 6, 87, 292.9767761230469
0, 6, 88, 306.2029113769531
0, 6, 89, 303.0489501953125
0, 6, 90, 298.477294921875
0, 6, 91, 310.7716979980469
0, 6, 92, 284.3580017089844
0, 6, 93, 299.3233947753906
0, 6, 94, 274.6354675292969
0, 6, 95, 299.1420593261719
0, 6, 96, 348.1206970214844
0, 6, 97, 309.6013793945312
0, 6, 98, 301.2363586425781
0, 6, 99, 273.3876953125
0, 6, 100, 311.3813171386719
0, 6, 101, 293.9700012207031
0, 6, 102, 308.2936706542969
0, 6, 103, 308.0845947265625
0, 6, 104, 288.5527954101562
0, 6, 105, 301.4472045898438
0, 6, 106, 307.7078552246094
0, 6, 107, 307.9677734375
0, 6, 108, 265.5271606445312
0, 6, 109, 190.2235107421875
0, 6, 110, 55.9573860168457
0, 6, 111, 24.01682662963867
0, 6, 112, 14.01408290863037
0, 6, 113, 10.94783020019531
0, 6, 114, 13.87516784667969
0, 6, 115, 12.07112216949463
0, 6, 116, 11.18581104278564
0, 6, 117, 8.612335205078125
0, 6, 118, 8.010218620300293
0, 6, 119, 7.278863906860352
0, 6, 120, 4.663406372070312
0, 6, 121, 7.880845546722412
0, 6, 122, 5.667500495910645
0, 6, 123, 5.364490509033203
0, 6, 124, 7.080885410308838
0, 6, 125, 8.013582229614258
0, 6, 126, 5.549312114715576
0, 6, 127, 7.151262283325195
0, 7, 0, 8.251710891723633
0, 7, 1, 3.362866878509521
0, 7, 2, 5.421133995056152
0, 7, 3, 4.962111949920654
0, 7, 4, 4.564655780792236
0, 7, 5, 5.965576171875
0, 7, 6, 7.408716678619385
0, 7, 7, 7.494981288909912
0, 7, 8, 8.434372901916504
0, 7, 9, 6.117167472839355
0, 7, 10, 7.445481777191162
0, 7, 11, 13.65835952758789
0, 7, 12, 12.71275234222412
0, 7, 13, 12.02740859985352
0, 7, 14, 10.00302028656006
0, 7, 15, 17.72284317016602
0, 7, 16, 25.63088989257812
0, 7, 17, 96.90538024902344
0, 7, 18, 221.1851959228516
0, 7, 19, 289.6835021972656
0, 7, 20, 297.7492370605469
0, 7, 21, 276.830810546875
0, 7, 22, 299.6484680175781
0, 7, 23, 290.4851684570312
0, 7, 24, 313.5587158203125
0, 7, 25, 324.4891357421875
0, 7, 26, 277.1348266601562
0, 7, 27, 296.1188354492188
0, 7, 28, 330.3563842773438
0, 7, 29, 322.1271057128906
0, 7, 30, 298.94970703125
0, 7, 31, 277.0520629882812
0, 7, 32, 303.9753112792969
0, 7, 33, 263.4184875488281
0, 7, 34, 296.6436157226562
0, 7, 35, 318.7735290527344
0, 7, 36, 330.9054260253906
0, 7, 37, 323.0752563476562
0, 7, 38, 296.4814147949219
0, 7, 39, 309.4677124023438
0, 7, 40, 290.09326171875
0, 7, 41, 270.6018676757812
0, 7, 42, 300.0472106933594
0, 7, 43, 279.6942443847656
0, 7, 44, 303.4763488769531
0, 7, 45, 295.6758117675781
0, 7, 46, 282.3118591308594
0, 7, 47, 328.5644226074219
0, 7, 48, 285.4911193847656
0, 7, 49, 302.9203491210938
0, 7, 50, 321.1488647460938
0, 7, 51, 299.3899536132812
0, 7, 52, 325.179931640625
0, 7, 53, 308.8778991699219
0, 7, 54, 323.1952209472656
0, 7, 55, 307.1869812011719
0, 7, 56, 278.6198120117188
0, 7, 57, 284.9619140625
0, 7, 58, 296.3737182617188
0, 7, 59, 295.3842468261719
0, 7, 60, 322.2793884277344
0, 7, 61, 277.0357666015625
0, 7, 62, 297.6552734375
0, 7, 63, 293.5859985351562
0, 7, 64, 305.2007751464844
0, 7, 65, 332.1169128417969
0, 7, 66, 319.4870910644531
0, 7, 67, 302.9340515136719
0, 7, 68, 280.7025451660156
0, 7, 69, 293.4456481933594
0, 7, 70, 301.7790222167969
0, 7, 71, 309.2904357910156
0, 7, 72, 285.9471435546875
0, 7, 73, 295.1366882324219
0, 7, 74, 343.3613891601562
0, 7, 75, 319.6001892089844
0, 7, 76, 322.6373901367188
0, 7, 77, 281.5458068847656
0, 7, 78, 300.2671813964844
0, 7, 79, 300.4571838378906
0, 7, 80, 311.6459655761719
0, 7, 81, 320.0130920410156
0, 7, 82, 328.2230529785156
0, 7, 83, 317.5198364257812
0, 7, 84, 310.0806884765625
0, 7, 85, 272.290283203125
0, 7, 86, 309.8214111328125
0, 7, 87, 311.9918518066406
0, 7, 88, 307.1454772949219
0, 7, 89, 293.6613464355469
0, 7, 90, 307.6614379882812
0, 7, 91, 316.6994018554688
0, 7, 92, 290.2997131347656
0, 7, 93, 310.2591552734375
0, 7, 94, 273.2579956054688
0, 7, 95, 295.3361206054688
0, 7, 96, 333.4317626953125
0, 7, 97, 295.2117309570312
0, 7, 98, 291.4075927734375
0, 7, 99, 312.4346313476562
0, 7, 100, 280.3211059570312
0, 7, 101, 275.0003051757812
0, 7, 102, 292.1505126953125
0, 7, 103, 295.4934997558594
0, 7, 104, 274.1837768554688
0, 7, 105, 307.1478576660156
0, 7, 106, 317.1213989257812
0, 7, 107, 298.3751525878906
0, 7, 108, 272.8922729492188
0, 7, 109, 233.9974365234375
0, 7, 110, 95.53034210205078
0, 7, 111, 22.93569183349609
0, 7, 112, 16.20788383483887
0, 7, 113, 14.39264965057373
0, 7, 114, 15.57117176055908
0, 7, 115, 11.56479835510254
0, 7, 116, 8.380025863647461
0, 7, 117, 5.539926052093506
0, 7, 118, 7.763144969940186
0, 7, 119, 8.557462692260742
0, 7, 120, 5.667769432067871
0, 7, 121, 7.025694370269775
0, 7, 122, 8.381782531738281
0, 7, 123, 3.401453256607056
0, 7, 124, 3.21837043762207
0, 7, 125, 6.431617259979248
0, 7, 126, 8.019729614257812
0, 7, 127, 2.835834503173828
0, 8, 0, 4.787591934204102
0, 8, 1, 6.778141975402832
0, 8, 2, 4.572787284851074
0, 8, 3, 3.496549606323242
0, 8, 4, 3.209671497344971
0, 8, 5, 4.640401840209961
0, 8, 6, 6.957781314849854
0, 8, 7, 5.421085834503174
0, 8, 8, 8.182777404785156
0, 8, 9, 4.540910720825195
0, 8, 10, 7.591969966888428
0, 8, 11, 12.62122631072998
0, 8, 12, 11.92138004302979
0, 8, 13, 12.66755962371826
0, 8, 14, 14.48002433776855
0, 8, 15, 17.96607208251953
0, 8, 16, 32.5390510559082
0, 8, 17, 129.9652709960938
0, 8, 18, 241.9297943115234
0, 8, 19, 293.9336547851562
0, 8, 20, 284.7063598632812
0, 8, 21, 307.6486511230469
0, 8, 22, 294.8553771972656
0, 8, 23, 276.6897888183594
0, 8, 24, 269.5481262207031
0, 8, 25, 275.02001953125
0, 8, 26, 305.9207763671875
0, 8, 27, 306.7839965820312
0, 8, 28, 302.4563598632812
0, 8, 29, 319.3526611328125
0, 8, 30, 315.2658386230469
0, 8, 31, 303.9077453613281
0, 8, 32, 279.5626525878906
0, 8, 33, 292.1531677246094
0, 8, 34, 291.0603942871094
0, 8, 35, 279.0211486816406
0, 8, 36, 314.6063232421875
0, 8, 37, 340.3523559570312
0, 8, 38, 333.0412902832031
0, 8, 39, 281.439453125
