# TOPAS Version: 3.1.p3
# Parameter File: batch_inserts_162.txt
# Results for scorer Readout_Adipose
# Scored in component: MyBox
# X in 1 bin  of 0.75 cm
# Y in 512 bins of 0.0783984 cm
# Z in 128 bins of 0.078125 cm
# EnergyDeposit ( MeV ) : Sum   
0, 0, 0, 5.401936054229736
0, 0, 1, 3.241316318511963
0, 0, 2, 2.421123743057251
0, 0, 3, 1.431409478187561
0, 0, 4, 2.754793643951416
0, 0, 5, 1.844507932662964
0, 0, 6, 7.094071865081787
0, 0, 7, 8.351341247558594
0, 0, 8, 3.32568621635437
0, 0, 9, 4.556580066680908
0, 0, 10, 5.876977443695068
0, 0, 11, 4.47105598449707
0, 0, 12, 4.006633758544922
0, 0, 13, 5.824577808380127
0, 0, 14, 9.919281005859375
0, 0, 15, 9.642648696899414
0, 0, 16, 9.022236824035645
0, 0, 17, 10.64074325561523
0, 0, 18, 13.67279815673828
0, 0, 19, 42.44020462036133
0, 0, 20, 138.0355529785156
0, 0, 21, 222.4565887451172
0, 0, 22, 247.6988830566406
0, 0, 23, 257.0811767578125
0, 0, 24, 251.0886077880859
0, 0, 25, 258.0983276367188
0, 0, 26, 235.3137664794922
0, 0, 27, 237.9527435302734
0, 0, 28, 272.8980407714844
0, 0, 29, 251.8769073486328
0, 0, 30, 228.6007232666016
0, 0, 31, 244.0025482177734
0, 0, 32, 265.4732666015625
0, 0, 33, 262.8326110839844
0, 0, 34, 289.5335083007812
0, 0, 35, 268.1484680175781
0, 0, 36, 248.6556243896484
0, 0, 37, 252.0983123779297
0, 0, 38, 268.4146728515625
0, 0, 39, 229.0208587646484
0, 0, 40, 242.1897583007812
0, 0, 41, 265.5344543457031
0, 0, 42, 229.9658050537109
0, 0, 43, 259.2613525390625
0, 0, 44, 252.2373352050781
0, 0, 45, 253.6309814453125
0, 0, 46, 245.3625793457031
0, 0, 47, 253.5146026611328
0, 0, 48, 267.2608947753906
0, 0, 49, 273.6270141601562
0, 0, 50, 250.123779296875
0, 0, 51, 254.1621704101562
0, 0, 52, 272.4473571777344
0, 0, 53, 291.4835510253906
0, 0, 54, 243.1722869873047
0, 0, 55, 241.2007751464844
0, 0, 56, 277.3157958984375
0, 0, 57, 261.8578186035156
0, 0, 58, 245.5997467041016
0, 0, 59, 268.9386596679688
0, 0, 60, 234.0497283935547
0, 0, 61, 244.4893035888672
0, 0, 62, 258.7571716308594
0, 0, 63, 269.292724609375
0, 0, 64, 256.1595153808594
0, 0, 65, 261.14453125
0, 0, 66, 276.2985229492188
0, 0, 67, 245.8235778808594
0, 0, 68, 258.853271484375
0, 0, 69, 261.6110534667969
0, 0, 70, 271.8338012695312
0, 0, 71, 239.5663146972656
0, 0, 72, 249.8647003173828
0, 0, 73, 259.1091003417969
0, 0, 74, 250.75341796875
0, 0, 75, 241.9771423339844
0, 0, 76, 230.2046966552734
0, 0, 77, 260.0026245117188
0, 0, 78, 258.688720703125
0, 0, 79, 278.1047973632812
0, 0, 80, 214.8831939697266
0, 0, 81, 266.2424011230469
0, 0, 82, 255.9899444580078
0, 0, 83, 246.8436584472656
0, 0, 84, 267.696044921875
0, 0, 85, 231.6527557373047
0, 0, 86, 254.1582183837891
0, 0, 87, 252.0744323730469
0, 0, 88, 260.6009521484375
0, 0, 89, 281.9833679199219
0, 0, 90, 247.4549865722656
0, 0, 91, 280.974609375
0, 0, 92, 253.9533386230469
0, 0, 93, 249.7528228759766
0, 0, 94, 249.7928009033203
0, 0, 95, 249.1569061279297
0, 0, 96, 276.5585632324219
0, 0, 97, 272.6864318847656
0, 0, 98, 272.3294372558594
0, 0, 99, 259.4909057617188
0, 0, 100, 258.2383117675781
0, 0, 101, 225.8848571777344
0, 0, 102, 233.5641784667969
0, 0, 103, 270.0356140136719
0, 0, 104, 255.0544586181641
0, 0, 105, 252.3241729736328
0, 0, 106, 245.4890441894531
0, 0, 107, 152.0548400878906
0, 0, 108, 37.40561294555664
0, 0, 109, 12.36058044433594
0, 0, 110, 11.84430122375488
0, 0, 111, 8.789374351501465
0, 0, 112, 7.799621105194092
0, 0, 113, 4.924479007720947
0, 0, 114, 7.135202884674072
0, 0, 115, 4.079031944274902
0, 0, 116, 5.161301612854004
0, 0, 117, 6.320018291473389
0, 0, 118, 5.819674015045166
0, 0, 119, 3.967891693115234
0, 0, 120, 3.532775640487671
0, 0, 121, 3.376950740814209
0, 0, 122, 3.90352725982666
0, 0, 123, 4.268984794616699
0, 0, 124, 5.472086906433105
0, 0, 125, 5.439439296722412
0, 0, 126, 5.258285045623779
0, 0, 127, 2.332705020904541
0, 1, 0, 7.162109851837158
0, 1, 1, 2.02817702293396
0, 1, 2, 4.795304298400879
0, 1, 3, 2.111180305480957
0, 1, 4, 3.87869119644165
0, 1, 5, 4.568009853363037
0, 1, 6, 5.397780418395996
0, 1, 7, 5.325008392333984
0, 1, 8, 8.35090160369873
0, 1, 9, 4.631840229034424
0, 1, 10, 7.023525714874268
0, 1, 11, 12.26621055603027
0, 1, 12, 8.055271148681641
0, 1, 13, 8.113377571105957
0, 1, 14, 7.209145545959473
0, 1, 15, 7.837934017181396
0, 1, 16, 10.91750526428223
0, 1, 17, 9.256027221679688
0, 1, 18, 20.68652153015137
0, 1, 19, 66.24559783935547
0, 1, 20, 203.6129455566406
0, 1, 21, 254.8491363525391
0, 1, 22, 297.18798828125
0, 1, 23, 282.6595764160156
0, 1, 24, 278.14501953125
0, 1, 25, 288.794189453125
0, 1, 26, 269.290283203125
0, 1, 27, 305.8229675292969
0, 1, 28, 299.11767578125
0, 1, 29, 295.6232604980469
0, 1, 30, 281.0790100097656
0, 1, 31, 290.9850463867188
0, 1, 32, 291.2052612304688
0, 1, 33, 297.6580810546875
0, 1, 34, 292.3191833496094
0, 1, 35, 278.9269104003906
0, 1, 36, 307.5308532714844
0, 1, 37, 294.4348449707031
0, 1, 38, 280.7429504394531
0, 1, 39, 294.8230590820312
0, 1, 40, 264.8946533203125
0, 1, 41, 287.9223327636719
0, 1, 42, 290.0555419921875
0, 1, 43, 331.5745544433594
0, 1, 44, 277.73193359375
0, 1, 45, 292.1776733398438
0, 1, 46, 259.5881958007812
0, 1, 47, 310.6127624511719
0, 1, 48, 282.2425231933594
0, 1, 49, 304.48486328125
0, 1, 50, 263.0542907714844
0, 1, 51, 273.1024780273438
0, 1, 52, 297.9506225585938
0, 1, 53, 304.2760314941406
0, 1, 54, 274.9904174804688
0, 1, 55, 294.5987854003906
0, 1, 56, 279.8768005371094
0, 1, 57, 298.9884948730469
0, 1, 58, 308.4060668945312
0, 1, 59, 291.3131713867188
0, 1, 60, 298.2452087402344
0, 1, 61, 274.4017028808594
0, 1, 62, 307.3414611816406
0, 1, 63, 286.1107177734375
0, 1, 64, 290.5655822753906
0, 1, 65, 297.0524597167969
0, 1, 66, 291.5845031738281
0, 1, 67, 290.3663024902344
0, 1, 68, 277.6767883300781
0, 1, 69, 280.5429382324219
0, 1, 70, 270.7352905273438
0, 1, 71, 273.2198486328125
0, 1, 72, 286.5626831054688
0, 1, 73, 302.2232360839844
0, 1, 74, 305.4097900390625
0, 1, 75, 291.5211791992188
0, 1, 76, 286.9153442382812
0, 1, 77, 293.2136535644531
0, 1, 78, 298.2305603027344
0, 1, 79, 299.0875854492188
0, 1, 80, 296.6836547851562
0, 1, 81, 299.6059875488281
0, 1, 82, 284.7896728515625
0, 1, 83, 333.2633056640625
0, 1, 84, 308.9854736328125
0, 1, 85, 253.2921142578125
0, 1, 86, 293.6393432617188
0, 1, 87, 289.7623901367188
0, 1, 88, 297.6480102539062
0, 1, 89, 292.8675842285156
0, 1, 90, 270.8912353515625
0, 1, 91, 317.9938354492188
0, 1, 92, 290.3611450195312
0, 1, 93, 286.2351684570312
0, 1, 94, 303.4354248046875
0, 1, 95, 284.8310546875
0, 1, 96, 284.6052856445312
0, 1, 97, 302.534423828125
0, 1, 98, 277.2105712890625
0, 1, 99, 267.4050903320312
0, 1, 100, 276.6739196777344
0, 1, 101, 281.3495483398438
0, 1, 102, 278.9352722167969
0, 1, 103, 281.7163696289062
0, 1, 104, 306.5352783203125
0, 1, 105, 298.2907104492188
0, 1, 106, 259.8792114257812
0, 1, 107, 192.2322235107422
0, 1, 108, 80.77497100830078
0, 1, 109, 23.8891429901123
0, 1, 110, 12.55543899536133
0, 1, 111, 8.101968765258789
0, 1, 112, 11.8871545791626
0, 1, 113, 7.394443988800049
0, 1, 114, 7.570722579956055
0, 1, 115, 8.319962501525879
0, 1, 116, 10.90665626525879
0, 1, 117, 5.083345413208008
0, 1, 118, 5.913790702819824
0, 1, 119, 4.855791091918945
0, 1, 120, 4.166286945343018
0, 1, 121, 2.843000888824463
0, 1, 122, 2.878920316696167
0, 1, 123, 3.08049201965332
0, 1, 124, 9.050451278686523
0, 1, 125, 4.80367374420166
0, 1, 126, 3.408963441848755
0, 1, 127, 1.13386344909668
0, 2, 0, 3.959381103515625
0, 2, 1, 1.891517996788025
0, 2, 2, 4.194764614105225
0, 2, 3, 3.98453688621521
0, 2, 4, 3.787682771682739
0, 2, 5, 2.667006015777588
0, 2, 6, 2.107968330383301
0, 2, 7, 5.570377349853516
0, 2, 8, 5.409976482391357
0, 2, 9, 4.575205326080322
0, 2, 10, 7.639493942260742
0, 2, 11, 6.450757026672363
0, 2, 12, 6.15709114074707
0, 2, 13, 12.17677783966064
0, 2, 14, 10.50784206390381
0, 2, 15, 8.383514404296875
0, 2, 16, 8.71159553527832
0, 2, 17, 15.905029296875
0, 2, 18, 29.6594352722168
0, 2, 19, 115.0822143554688
0, 2, 20, 245.9182281494141
0, 2, 21, 270.2596130371094
0, 2, 22, 317.1443786621094
0, 2, 23, 300.5635986328125
0, 2, 24, 285.2930297851562
0, 2, 25, 302.5632019042969
0, 2, 26, 294.5007019042969
0, 2, 27, 276.4315795898438
0, 2, 28, 273.3641662597656
0, 2, 29, 276.2120361328125
0, 2, 30, 288.1954956054688
0, 2, 31, 278.2468566894531
0, 2, 32, 296.5849609375
0, 2, 33, 283.6159973144531
0, 2, 34, 332.4593200683594
0, 2, 35, 288.0503234863281
0, 2, 36, 302.8560485839844
0, 2, 37, 315.0188293457031
0, 2, 38, 311.5076599121094
0, 2, 39, 265.1604919433594
0, 2, 40, 308.9813842773438
0, 2, 41, 293.0282897949219
0, 2, 42, 303.773681640625
0, 2, 43, 313.3181457519531
0, 2, 44, 311.585693359375
0, 2, 45, 325.6731262207031
0, 2, 46, 287.7837219238281
0, 2, 47, 302.0970153808594
0, 2, 48, 278.9962463378906
0, 2, 49, 277.2547912597656
0, 2, 50, 293.4523010253906
0, 2, 51, 286.7484130859375
0, 2, 52, 271.0287475585938
0, 2, 53, 285.85302734375
0, 2, 54, 278.7879943847656
0, 2, 55, 275.4435729980469
0, 2, 56, 301.3965759277344
0, 2, 57, 294.4111022949219
0, 2, 58, 304.8956604003906
0, 2, 59, 294.2312622070312
0, 2, 60, 321.6030578613281
0, 2, 61, 301.2108764648438
0, 2, 62, 315.1120300292969
0, 2, 63, 304.7581481933594
0, 2, 64, 296.40673828125
0, 2, 65, 313.8171691894531
0, 2, 66, 278.5859069824219
0, 2, 67, 292.8702697753906
0, 2, 68, 296.5408935546875
0, 2, 69, 309.1332702636719
0, 2, 70, 333.9003295898438
0, 2, 71, 283.9236450195312
0, 2, 72, 299.8491821289062
0, 2, 73, 310.9107360839844
0, 2, 74, 286.5980834960938
0, 2, 75, 302.7577209472656
0, 2, 76, 289.7333984375
0, 2, 77, 298.9169311523438
0, 2, 78, 319.5060424804688
0, 2, 79, 308.9000549316406
0, 2, 80, 298.5366821289062
0, 2, 81, 282.3966369628906
0, 2, 82, 318.7680053710938
0, 2, 83, 313.6202087402344
0, 2, 84, 288.5868225097656
0, 2, 85, 281.5099487304688
0, 2, 86, 324.8056640625
0, 2, 87, 286.839599609375
0, 2, 88, 280.2874145507812
0, 2, 89, 296.0081176757812
0, 2, 90, 295.133544921875
0, 2, 91, 275.4743041992188
0, 2, 92, 305.8864440917969
0, 2, 93, 316.5744323730469
0, 2, 94, 292.0311584472656
0, 2, 95, 315.5940551757812
0, 2, 96, 315.0052795410156
0, 2, 97, 290.9930114746094
0, 2, 98, 295.8767700195312
0, 2, 99, 274.2716369628906
0, 2, 100, 307.2750854492188
0, 2, 101, 302.1401977539062
0, 2, 102, 297.1372680664062
0, 2, 103, 293.0941772460938
0, 2, 104, 292.22216796875
0, 2, 105, 273.4831848144531
0, 2, 106, 297.2895812988281
0, 2, 107, 268.9208679199219
0, 2, 108, 115.8865966796875
0, 2, 109, 33.59086608886719
0, 2, 110, 10.07792472839355
0, 2, 111, 10.54421043395996
0, 2, 112, 9.443541526794434
0, 2, 113, 9.775144577026367
0, 2, 114, 9.202392578125
0, 2, 115, 10.99825477600098
0, 2, 116, 8.786154747009277
0, 2, 117, 10.04423904418945
0, 2, 118, 5.13079309463501
0, 2, 119, 2.511238574981689
0, 2, 120, 7.592686176300049
0, 2, 121, 2.16865611076355
0, 2, 122, 3.868079900741577
0, 2, 123, 4.442121028900146
0, 2, 124, 3.516543865203857
0, 2, 125, 4.65540075302124
0, 2, 126, 3.163930177688599
0, 2, 127, 5.343422889709473
0, 3, 0, 2.194324493408203
0, 3, 1, 3.011589288711548
0, 3, 2, 5.498784065246582
0, 3, 3, 3.203798294067383
0, 3, 4, 4.995074272155762
0, 3, 5, 6.754058361053467
0, 3, 6, 6.616668224334717
0, 3, 7, 5.132943153381348
0, 3, 8, 4.651092052459717
0, 3, 9, 6.968434810638428
0, 3, 10, 5.827210426330566
0, 3, 11, 5.51175594329834
0, 3, 12, 8.329660415649414
0, 3, 13, 14.40274524688721
0, 3, 14, 10.19805431365967
0, 3, 15, 12.46896457672119
0, 3, 16, 12.71415138244629
0, 3, 17, 21.75910377502441
0, 3, 18, 54.01192855834961
0, 3, 19, 174.5184173583984
0, 3, 20, 270.5196228027344
0, 3, 21, 269.8739318847656
0, 3, 22, 285.3796997070312
0, 3, 23, 287.1969604492188
0, 3, 24, 286.0615539550781
0, 3, 25, 270.9234619140625
0, 3, 26, 303.2361145019531
0, 3, 27, 292.3980407714844
0, 3, 28, 280.182373046875
0, 3, 29, 339.1485595703125
0, 3, 30, 315.7151184082031
0, 3, 31, 285.6903686523438
0, 3, 32, 306.5095520019531
0, 3, 33, 313.3803100585938
0, 3, 34, 320.5429382324219
0, 3, 35, 306.0365905761719
0, 3, 36, 268.2703857421875
0, 3, 37, 315.1159057617188
0, 3, 38, 305.2518920898438
0, 3, 39, 291.7982482910156
0, 3, 40, 267.40185546875
0, 3, 41, 302.5498046875
0, 3, 42, 284.3839416503906
0, 3, 43, 307.3531799316406
0, 3, 44, 311.4571533203125
0, 3, 45, 291.4546813964844
0, 3, 46, 329.89794921875
0, 3, 47, 300.3394165039062
0, 3, 48, 305.6124267578125
0, 3, 49, 280.0867309570312
0, 3, 50, 291.4598388671875
0, 3, 51, 278.2959899902344
0, 3, 52, 314.4862060546875
0, 3, 53, 286.610595703125
0, 3, 54, 284.2254028320312
0, 3, 55, 286.6976623535156
0, 3, 56, 298.8802185058594
0, 3, 57, 289.7584533691406
0, 3, 58, 307.7356872558594
0, 3, 59, 293.9749450683594
0, 3, 60, 297.6192932128906
0, 3, 61, 265.6681213378906
0, 3, 62, 283.8299255371094
0, 3, 63, 308.7592163085938
0, 3, 64, 315.4708862304688
0, 3, 65, 304.2049865722656
0, 3, 66, 316.2109985351562
0, 3, 67, 318.8128051757812
0, 3, 68, 279.5269470214844
0, 3, 69, 280.5447692871094
0, 3, 70, 287.7840270996094
0, 3, 71, 299.2318725585938
0, 3, 72, 267.6083374023438
0, 3, 73, 308.4667663574219
0, 3, 74, 293.2235717773438
0, 3, 75, 290.6691284179688
0, 3, 76, 304.9594116210938
0, 3, 77, 313.3215026855469
0, 3, 78, 304.9243774414062
0, 3, 79, 282.9112243652344
0, 3, 80, 290.7938537597656
0, 3, 81, 310.2684631347656
0, 3, 82, 314.4974670410156
0, 3, 83, 300.0912780761719
0, 3, 84, 310.40478515625
0, 3, 85, 291.7419738769531
0, 3, 86, 301.1641540527344
0, 3, 87, 300.0759887695312
0, 3, 88, 298.1464538574219
0, 3, 89, 297.7944641113281
0, 3, 90, 278.0811462402344
0, 3, 91, 283.7052612304688
0, 3, 92, 302.9793395996094
0, 3, 93, 312.3044128417969
0, 3, 94, 296.6128540039062
0, 3, 95, 335.4000244140625
0, 3, 96, 294.6414489746094
0, 3, 97, 287.2473754882812
0, 3, 98, 280.9657287597656
0, 3, 99, 260.3478088378906
0, 3, 100, 284.0411987304688
0, 3, 101, 296.2066650390625
0, 3, 102, 275.2464294433594
0, 3, 103, 321.9624938964844
0, 3, 104, 305.6629333496094
0, 3, 105, 287.2532958984375
0, 3, 106, 301.6595458984375
0, 3, 107, 285.0079650878906
0, 3, 108, 166.5722961425781
0, 3, 109, 55.70923233032227
0, 3, 110, 17.21242523193359
0, 3, 111, 12.04380416870117
0, 3, 112, 13.35026168823242
0, 3, 113, 5.669327259063721
0, 3, 114, 8.31804370880127
0, 3, 115, 6.280380249023438
0, 3, 116, 8.635649681091309
0, 3, 117, 8.855210304260254
0, 3, 118, 8.118531227111816
0, 3, 119, 5.35418701171875
0, 3, 120, 7.023804187774658
0, 3, 121, 3.616343259811401
0, 3, 122, 2.314361333847046
0, 3, 123, 4.395266056060791
0, 3, 124, 4.997031211853027
0, 3, 125, 7.534328937530518
0, 3, 126, 6.799726009368896
0, 3, 127, 3.087321758270264
0, 4, 0, 3.668487310409546
0, 4, 1, 4.817155361175537
0, 4, 2, 2.421187877655029
0, 4, 3, 2.437530040740967
0, 4, 4, 4.959464073181152
0, 4, 5, 7.71182918548584
0, 4, 6, 6.422011852264404
0, 4, 7, 8.795747756958008
0, 4, 8, 4.136890888214111
0, 4, 9, 6.807223320007324
0, 4, 10, 5.626835346221924
0, 4, 11, 6.19303035736084
0, 4, 12, 5.987205028533936
0, 4, 13, 9.006440162658691
0, 4, 14, 13.8331241607666
0, 4, 15, 9.687560081481934
0, 4, 16, 12.62925624847412
0, 4, 17, 19.1399097442627
0, 4, 18, 93.37465667724609
0, 4, 19, 223.0611419677734
0, 4, 20, 284.9081115722656
0, 4, 21, 271.3690795898438
0, 4, 22, 304.9416198730469
0, 4, 23, 266.6895751953125
0, 4, 24, 288.8158569335938
0, 4, 25, 272.2508239746094
0, 4, 26, 294.41162109375
0, 4, 27, 281.6884155273438
0, 4, 28, 305.6421813964844
0, 4, 29, 322.6704711914062
0, 4, 30, 311.0715637207031
0, 4, 31, 306.2172546386719
0, 4, 32, 280.3653564453125
0, 4, 33, 297.1211547851562
0, 4, 34, 295.8539428710938
0, 4, 35, 312.9318237304688
0, 4, 36, 291.5832214355469
0, 4, 37, 288.5389404296875
0, 4, 38, 298.9780883789062
0, 4, 39, 295.1762084960938
0, 4, 40, 301.2496948242188
0, 4, 41, 311.3652038574219
0, 4, 42, 328.8366394042969
0, 4, 43, 295.6323547363281
0, 4, 44, 322.8192749023438
0, 4, 45, 322.7529296875
0, 4, 46, 304.3519287109375
0, 4, 47, 293.2604370117188
0, 4, 48, 294.5234375
0, 4, 49, 277.7750244140625
0, 4, 50, 299.0725708007812
0, 4, 51, 315.364501953125
0, 4, 52, 326.5107116699219
0, 4, 53, 305.5895080566406
0, 4, 54, 288.6882019042969
0, 4, 55, 313.7851867675781
0, 4, 56, 285.1719665527344
0, 4, 57, 309.0468444824219
0, 4, 58, 294.2397155761719
0, 4, 59, 307.3695678710938
0, 4, 60, 302.6632995605469
0, 4, 61, 314.9447631835938
0, 4, 62, 307.593017578125
0, 4, 63, 300.1378784179688
0, 4, 64, 331.6436157226562
0, 4, 65, 317.3115234375
0, 4, 66, 293.4457397460938
0, 4, 67, 287.1534118652344
0, 4, 68, 310.7550659179688
0, 4, 69, 276.015625
0, 4, 70, 298.4012451171875
0, 4, 71, 320.2744445800781
0, 4, 72, 333.6654357910156
0, 4, 73, 297.4254150390625
0, 4, 74, 291.8243713378906
0, 4, 75, 290.4447326660156
0, 4, 76, 273.6559753417969
0, 4, 77, 278.3450622558594
0, 4, 78, 308.3298034667969
0, 4, 79, 319.2398071289062
0, 4, 80, 316.1411437988281
0, 4, 81, 314.9651489257812
0, 4, 82, 296.7027282714844
0, 4, 83, 300.8687438964844
0, 4, 84, 290.648193359375
0, 4, 85, 296.0578308105469
0, 4, 86, 297.3588562011719
0, 4, 87, 283.7918701171875
0, 4, 88, 305.0289611816406
0, 4, 89, 294.8467407226562
0, 4, 90, 333.7015075683594
0, 4, 91, 300.9953918457031
0, 4, 92, 290.4051513671875
0, 4, 93, 297.9091796875
0, 4, 94, 292.3384094238281
0, 4, 95, 288.6534118652344
0, 4, 96, 325.6291809082031
0, 4, 97, 273.4936828613281
0, 4, 98, 326.8290100097656
0, 4, 99, 313.1559448242188
0, 4, 100, 302.7850952148438
0, 4, 101, 257.4627685546875
0, 4, 102, 296.2796936035156
0, 4, 103, 318.5064392089844
0, 4, 104, 281.291748046875
0, 4, 105, 309.9795532226562
0, 4, 106, 287.3120727539062
0, 4, 107, 295.8494262695312
0, 4, 108, 225.4581604003906
0, 4, 109, 78.97870635986328
0, 4, 110, 16.34848976135254
0, 4, 111, 13.62605476379395
0, 4, 112, 10.23654937744141
0, 4, 113, 12.40383720397949
0, 4, 114, 7.134017467498779
0, 4, 115, 10.55200672149658
0, 4, 116, 7.493266105651855
0, 4, 117, 6.74772834777832
0, 4, 118, 7.976492404937744
0, 4, 119, 8.573631286621094
0, 4, 120, 6.934782028198242
0, 4, 121, 4.460029125213623
0, 4, 122, 3.037806987762451
0, 4, 123, 6.787047386169434
0, 4, 124, 4.857413291931152
0, 4, 125, 9.542803764343262
0, 4, 126, 4.586583137512207
0, 4, 127, 3.639784574508667
0, 5, 0, 3.866694211959839
0, 5, 1, 3.1131272315979
0, 5, 2, 5.453327178955078
0, 5, 3, 3.299849510192871
0, 5, 4, 4.855262279510498
0, 5, 5, 7.874971389770508
0, 5, 6, 6.022666454315186
0, 5, 7, 4.538619518280029
0, 5, 8, 4.655678749084473
0, 5, 9, 5.661332130432129
0, 5, 10, 8.030013084411621
0, 5, 11, 9.24132251739502
0, 5, 12, 9.827383041381836
0, 5, 13, 4.76203727722168
0, 5, 14, 12.38423824310303
0, 5, 15, 18.37505912780762
0, 5, 16, 14.84630870819092
0, 5, 17, 29.8946361541748
0, 5, 18, 136.3584289550781
0, 5, 19, 287.1237487792969
0, 5, 20, 308.2789001464844
0, 5, 21, 317.0622863769531
0, 5, 22, 275.3202209472656
0, 5, 23, 310.7796325683594
0, 5, 24, 302.3197021484375
0, 5, 25, 289.4850463867188
0, 5, 26, 293.8974304199219
0, 5, 27, 322.5991821289062
0, 5, 28, 302.788330078125
0, 5, 29, 296.2074584960938
0, 5, 30, 323.2086486816406
0, 5, 31, 285.2160339355469
0, 5, 32, 303.8478393554688
0, 5, 33, 304.4599304199219
0, 5, 34, 296.1013488769531
0, 5, 35, 312.2153015136719
0, 5, 36, 270.6971435546875
0, 5, 37, 282.4082336425781
0, 5, 38, 291.2224731445312
0, 5, 39, 312.3121337890625
0, 5, 40, 307.1202087402344
0, 5, 41, 271.8200988769531
0, 5, 42, 305.5665283203125
0, 5, 43, 313.3055114746094
0, 5, 44, 294.4264221191406
0, 5, 45, 304.3982849121094
0, 5, 46, 265.3004455566406
0, 5, 47, 278.8893432617188
0, 5, 48, 295.3529052734375
0, 5, 49, 286.3828125
0, 5, 50, 299.0523681640625
0, 5, 51, 278.9288024902344
0, 5, 52, 269.6256713867188
0, 5, 53, 284.5723266601562
0, 5, 54, 293.1128845214844
0, 5, 55, 345.2073974609375
0, 5, 56, 304.9096069335938
0, 5, 57, 306.6361083984375
0, 5, 58, 312.3168029785156
0, 5, 59, 302.5342712402344
0, 5, 60, 308.6468811035156
0, 5, 61, 283.0466003417969
0, 5, 62, 324.4159851074219
0, 5, 63, 290.1791076660156
0, 5, 64, 322.3382568359375
0, 5, 65, 308.3982238769531
0, 5, 66, 328.5546875
0, 5, 67, 315.2341918945312
0, 5, 68, 306.8382263183594
0, 5, 69, 314.4537658691406
0, 5, 70, 302.59814453125
0, 5, 71, 271.8203125
0, 5, 72, 310.3709106445312
0, 5, 73, 304.2602233886719
0, 5, 74, 295.3370666503906
0, 5, 75, 295.5387573242188
0, 5, 76, 284.2097473144531
0, 5, 77, 297.2338562011719
0, 5, 78, 316.4443969726562
0, 5, 79, 306.4457702636719
0, 5, 80, 295.2544250488281
0, 5, 81, 324.2873840332031
0, 5, 82, 324.3477172851562
0, 5, 83, 279.8890686035156
0, 5, 84, 301.7614440917969
0, 5, 85, 272.4303283691406
0, 5, 86, 326.1527099609375
0, 5, 87, 287.4885864257812
0, 5, 88, 313.4327087402344
0, 5, 89, 304.0918579101562
0, 5, 90, 315.8197631835938
0, 5, 91, 317.2217712402344
0, 5, 92, 298.5784301757812
0, 5, 93, 320.7301330566406
0, 5, 94, 307.9385986328125
0, 5, 95, 295.426513671875
0, 5, 96, 302.1809692382812
0, 5, 97, 298.4996337890625
0, 5, 98, 318.260009765625
0, 5, 99, 302.552734375
0, 5, 100, 290.0678405761719
0, 5, 101, 304.2032165527344
0, 5, 102, 291.4285888671875
0, 5, 103, 313.9854431152344
0, 5, 104, 301.7738952636719
0, 5, 105, 291.9282836914062
0, 5, 106, 281.8165893554688
0, 5, 107, 291.6851196289062
0, 5, 108, 266.8332824707031
0, 5, 109, 158.3677978515625
0, 5, 110, 39.08196640014648
0, 5, 111, 21.06848335266113
0, 5, 112, 15.48786544799805
0, 5, 113, 14.71907711029053
0, 5, 114, 13.58014678955078
0, 5, 115, 7.116055488586426
0, 5, 116, 8.948822021484375
0, 5, 117, 8.069960594177246
0, 5, 118, 11.27431201934814
0, 5, 119, 3.86364221572876
0, 5, 120, 6.416811466217041
0, 5, 121, 6.873836994171143
0, 5, 122, 6.585474014282227
0, 5, 123, 3.98578953742981
0, 5, 124, 5.689774036407471
0, 5, 125, 4.748743057250977
0, 5, 126, 4.803792953491211
0, 5, 127, 2.528635263442993
0, 6, 0, 3.911225080490112
0, 6, 1, 3.275272130966187
0, 6, 2, 5.001930713653564
0, 6, 3, 5.841143608093262
0, 6, 4, 3.204371213912964
0, 6, 5, 5.447314262390137
0, 6, 6, 8.321063041687012
0, 6, 7, 4.745728015899658
0, 6, 8, 5.957249641418457
0, 6, 9, 7.427314758300781
0, 6, 10, 6.958512783050537
0, 6, 11, 7.760592937469482
0, 6, 12, 7.794213771820068
0, 6, 13, 11.59184074401855
0, 6, 14, 8.586611747741699
0, 6, 15, 16.44674491882324
0, 6, 16, 27.13815879821777
0, 6, 17, 55.38697052001953
0, 6, 18, 171.7655944824219
0, 6, 19, 275.0662841796875
0, 6, 20, 290.0168151855469
0, 6, 21, 313.1793823242188
0, 6, 22, 318.8718872070312
0, 6, 23, 305.2762756347656
0, 6, 24, 315.0866088867188
0, 6, 25, 315.3602905273438
0, 6, 26, 321.8475646972656
0, 6, 27, 330.0616760253906
0, 6, 28, 295.6687622070312
0, 6, 29, 329.977294921875
0, 6, 30, 281.9260559082031
0, 6, 31, 287.066650390625
0, 6, 32, 340.5537414550781
0, 6, 33, 300.9812927246094
0, 6, 34, 338.8190002441406
0, 6, 35, 321.1808776855469
0, 6, 36, 274.1052551269531
0, 6, 37, 288.9947204589844
0, 6, 38, 314.1971740722656
0, 6, 39, 297.7073669433594
0, 6, 40, 283.8409729003906
0, 6, 41, 297.9517517089844
0, 6, 42, 305.0402526855469
0, 6, 43, 288.9334716796875
0, 6, 44, 280.1820373535156
0, 6, 45, 320.7465209960938
0, 6, 46, 300.2558898925781
0, 6, 47, 332.0230407714844
0, 6, 48, 291.8934020996094
0, 6, 49, 313.1590270996094
0, 6, 50, 330.2567443847656
0, 6, 51, 313.0696716308594
0, 6, 52, 321.1437377929688
0, 6, 53, 330.799560546875
0, 6, 54, 303.6840515136719
0, 6, 55, 307.3253173828125
0, 6, 56, 293.782470703125
0, 6, 57, 313.1954650878906
0, 6, 58, 262.123046875
0, 6, 59, 302.5438232421875
0, 6, 60, 312.3339538574219
0, 6, 61, 270.9831848144531
0, 6, 62, 334.484619140625
0, 6, 63, 321.296875
0, 6, 64, 292.829345703125
0, 6, 65, 284.116943359375
0, 6, 66, 302.2057800292969
0, 6, 67, 310.1634826660156
0, 6, 68, 295.4588928222656
0, 6, 69, 278.0821228027344
0, 6, 70, 274.7725219726562
0, 6, 71, 289.7133483886719
0, 6, 72, 309.2740173339844
0, 6, 73, 291.4305725097656
0, 6, 74, 329.9446411132812
0, 6, 75, 343.8722534179688
0, 6, 76, 296.6729736328125
0, 6, 77, 286.4700927734375
0, 6, 78, 278.0473937988281
0, 6, 79, 294.7835693359375
0, 6, 80, 299.9575500488281
0, 6, 81, 315.6631469726562
0, 6, 82, 320.414306640625
0, 6, 83, 320.8853454589844
0, 6, 84, 296.2075805664062
0, 6, 85, 300.0411071777344
0, 6, 86, 332.0538940429688
0, 6, 87, 288.1333618164062
0, 6, 88, 306.5350036621094
0, 6, 89, 303.3960876464844
0, 6, 90, 299.3887329101562
0, 6, 91, 312.3226318359375
0, 6, 92, 288.234619140625
0, 6, 93, 298.9862060546875
0, 6, 94, 272.3376770019531
0, 6, 95, 301.8450622558594
0, 6, 96, 346.6817626953125
0, 6, 97, 309.9361267089844
0, 6, 98, 302.4151916503906
0, 6, 99, 269.7940368652344
0, 6, 100, 312.1676025390625
0, 6, 101, 292.6355590820312
0, 6, 102, 306.9268188476562
0, 6, 103, 307.5429992675781
0, 6, 104, 293.7589416503906
0, 6, 105, 300.8963623046875
0, 6, 106, 306.799072265625
0, 6, 107, 304.6572875976562
0, 6, 108, 268.2802734375
0, 6, 109, 188.5507507324219
0, 6, 110, 57.17453765869141
0, 6, 111, 21.81633186340332
0, 6, 112, 14.30702877044678
0, 6, 113, 10.67862510681152
0, 6, 114, 12.24323749542236
0, 6, 115, 11.82816410064697
0, 6, 116, 9.650273323059082
0, 6, 117, 5.744021415710449
0, 6, 118, 10.55911159515381
0, 6, 119, 13.53568840026855
0, 6, 120, 4.432889461517334
0, 6, 121, 8.304003715515137
0, 6, 122, 7.190773487091064
0, 6, 123, 6.96806526184082
0, 6, 124, 6.029031276702881
0, 6, 125, 7.660732269287109
0, 6, 126, 5.200357913970947
0, 6, 127, 7.392368316650391
0, 7, 0, 6.030513763427734
0, 7, 1, 3.250284433364868
0, 7, 2, 5.831665515899658
0, 7, 3, 4.605264186859131
0, 7, 4, 2.788251638412476
0, 7, 5, 3.626011848449707
0, 7, 6, 8.275070190429688
0, 7, 7, 5.351693630218506
0, 7, 8, 5.40510892868042
0, 7, 9, 8.003517150878906
0, 7, 10, 8.866986274719238
0, 7, 11, 12.64820575714111
0, 7, 12, 11.36252593994141
0, 7, 13, 11.71148777008057
0, 7, 14, 12.09432315826416
0, 7, 15, 16.69557571411133
0, 7, 16, 28.06183624267578
0, 7, 17, 98.17025756835938
0, 7, 18, 221.2183685302734
0, 7, 19, 290.6002502441406
0, 7, 20, 297.7988891601562
0, 7, 21, 277.7918395996094
0, 7, 22, 298.8018798828125
0, 7, 23, 288.7564392089844
0, 7, 24, 313.4662780761719
0, 7, 25, 327.2655944824219
0, 7, 26, 277.959716796875
0, 7, 27, 298.0309448242188
0, 7, 28, 325.9887390136719
0, 7, 29, 320.2488403320312
0, 7, 30, 302.7737731933594
0, 7, 31, 276.7892150878906
0, 7, 32, 303.3505554199219
0, 7, 33, 262.26171875
0, 7, 34, 297.4710083007812
0, 7, 35, 320.5317687988281
0, 7, 36, 330.9703369140625
0, 7, 37, 322.78564453125
0, 7, 38, 295.7830200195312
0, 7, 39, 306.4762573242188
0, 7, 40, 291.4421081542969
0, 7, 41, 271.5152587890625
0, 7, 42, 301.7315063476562
0, 7, 43, 277.693115234375
0, 7, 44, 303.947021484375
0, 7, 45, 293.5418395996094
0, 7, 46, 281.5897216796875
0, 7, 47, 327.4065551757812
0, 7, 48, 286.7772521972656
0, 7, 49, 304.8519287109375
0, 7, 50, 322.3451232910156
0, 7, 51, 298.4796752929688
0, 7, 52, 325.1573486328125
0, 7, 53, 309.3692016601562
0, 7, 54, 323.59814453125
0, 7, 55, 307.8321228027344
0, 7, 56, 280.2497863769531
0, 7, 57, 281.7977294921875
0, 7, 58, 299.6990661621094
0, 7, 59, 295.1411437988281
0, 7, 60, 324.996826171875
0, 7, 61, 279.4382934570312
0, 7, 62, 298.7088928222656
0, 7, 63, 293.5030822753906
0, 7, 64, 307.0325622558594
0, 7, 65, 332.0220336914062
0, 7, 66, 320.3566589355469
0, 7, 67, 301.7666931152344
0, 7, 68, 278.9670715332031
0, 7, 69, 295.7649841308594
0, 7, 70, 302.6428527832031
0, 7, 71, 310.42724609375
0, 7, 72, 283.3156433105469
0, 7, 73, 295.9429626464844
0, 7, 74, 343.9196472167969
0, 7, 75, 318.2723388671875
0, 7, 76, 323.62646484375
0, 7, 77, 283.7334899902344
0, 7, 78, 299.4335327148438
0, 7, 79, 296.8809509277344
0, 7, 80, 310.6593627929688
0, 7, 81, 322.3630065917969
0, 7, 82, 328.9979858398438
0, 7, 83, 316.4607849121094
0, 7, 84, 309.4551086425781
0, 7, 85, 271.071533203125
0, 7, 86, 309.4740600585938
0, 7, 87, 311.5069274902344
0, 7, 88, 306.4477233886719
0, 7, 89, 294.6905822753906
0, 7, 90, 308.6640319824219
0, 7, 91, 315.0040893554688
0, 7, 92, 290.7139892578125
0, 7, 93, 307.771240234375
0, 7, 94, 273.6310119628906
0, 7, 95, 295.0848388671875
0, 7, 96, 331.1651611328125
0, 7, 97, 294.5843505859375
0, 7, 98, 290.4973754882812
0, 7, 99, 312.6883544921875
0, 7, 100, 282.9126586914062
0, 7, 101, 274.6784057617188
0, 7, 102, 289.4530639648438
0, 7, 103, 291.8070373535156
0, 7, 104, 275.3544311523438
0, 7, 105, 307.1881103515625
0, 7, 106, 320.382568359375
0, 7, 107, 297.092529296875
0, 7, 108, 274.0263977050781
0, 7, 109, 239.1149444580078
0, 7, 110, 96.64311981201172
0, 7, 111, 23.61328887939453
0, 7, 112, 12.70603466033936
0, 7, 113, 15.83104515075684
0, 7, 114, 16.28598976135254
0, 7, 115, 14.01961994171143
0, 7, 116, 10.83663845062256
0, 7, 117, 4.656226634979248
0, 7, 118, 7.868584156036377
0, 7, 119, 5.792031764984131
0, 7, 120, 5.930213928222656
0, 7, 121, 7.864533424377441
0, 7, 122, 4.918899536132812
0, 7, 123, 3.694823741912842
0, 7, 124, 4.254748344421387
0, 7, 125, 7.81660270690918
0, 7, 126, 10.12599086761475
0, 7, 127, 6.148394584655762
0, 8, 0, 4.298894882202148
0, 8, 1, 6.093416213989258
0, 8, 2, 2.941595077514648
0, 8, 3, 3.151592969894409
0, 8, 4, 4.73477029800415
0, 8, 5, 4.367518901824951
0, 8, 6, 5.100994110107422
0, 8, 7, 6.081962585449219
0, 8, 8, 8.401584625244141
0, 8, 9, 5.068115711212158
0, 8, 10, 8.648163795471191
0, 8, 11, 12.94635772705078
0, 8, 12, 13.71718311309814
0, 8, 13, 15.48221778869629
0, 8, 14, 12.27286434173584
0, 8, 15, 17.18966484069824
0, 8, 16, 34.53246688842773
0, 8, 17, 130.8579406738281
0, 8, 18, 243.2492218017578
0, 8, 19, 298.4154357910156
0, 8, 20, 285.5135498046875
0, 8, 21, 305.6969604492188
0, 8, 22, 296.3199157714844
0, 8, 23, 274.3909301757812
0, 8, 24, 268.8631896972656
0, 8, 25, 276.8562927246094
0, 8, 26, 306.3623046875
0, 8, 27, 306.1959838867188
0, 8, 28, 305.9640502929688
0, 8, 29, 318.4524536132812
0, 8, 30, 313.296875
0, 8, 31, 303.933349609375
0, 8, 32, 281.169921875
0, 8, 33, 293.422607421875
0, 8, 34, 289.2882385253906
0, 8, 35, 279.1845397949219
0, 8, 36, 315.3216552734375
0, 8, 37, 340.4840393066406
0, 8, 38, 331.4528503417969
0, 8, 39, 280.4349975585938
0, 8, 40, 305.1656799316406
