# TOPAS Version: 3.1.p3
# Parameter File: batch_inserts_192.txt
# Results for scorer Readout_Adipose
# Scored in component: MyBox
# X in 1 bin  of 0.75 cm
# Y in 512 bins of 0.0783984 cm
# Z in 128 bins of 0.078125 cm
# EnergyDeposit ( MeV ) : Sum   
0, 0, 0, 6.978020668029785
0, 0, 1, 2.169531106948853
0, 0, 2, 6.646103382110596
0, 0, 3, 2.452091455459595
0, 0, 4, 3.537675619125366
0, 0, 5, 4.850505352020264
0, 0, 6, 7.083358764648438
0, 0, 7, 7.926264762878418
0, 0, 8, 3.2344651222229
0, 0, 9, 6.029033660888672
0, 0, 10, 8.31995677947998
0, 0, 11, 5.155116081237793
0, 0, 12, 4.158570766448975
0, 0, 13, 7.930821895599365
0, 0, 14, 6.978562831878662
0, 0, 15, 10.07758045196533
0, 0, 16, 7.732179641723633
0, 0, 17, 9.208375930786133
0, 0, 18, 13.27108192443848
0, 0, 19, 42.77275848388672
0, 0, 20, 139.2527923583984
0, 0, 21, 224.3068542480469
0, 0, 22, 249.1558532714844
0, 0, 23, 258.3519897460938
0, 0, 24, 251.4024810791016
0, 0, 25, 258.3693542480469
0, 0, 26, 234.0714721679688
0, 0, 27, 236.2778625488281
0, 0, 28, 271.570068359375
0, 0, 29, 251.2732849121094
0, 0, 30, 231.1714324951172
0, 0, 31, 243.6097869873047
0, 0, 32, 263.8784790039062
0, 0, 33, 261.8284606933594
0, 0, 34, 287.3579711914062
0, 0, 35, 267.77001953125
0, 0, 36, 246.2144927978516
0, 0, 37, 251.6913909912109
0, 0, 38, 267.6954040527344
0, 0, 39, 228.6493377685547
0, 0, 40, 241.2435760498047
0, 0, 41, 264.5743408203125
0, 0, 42, 229.9640960693359
0, 0, 43, 259.5369567871094
0, 0, 44, 252.6989135742188
0, 0, 45, 253.8952484130859
0, 0, 46, 244.1716156005859
0, 0, 47, 254.8930511474609
0, 0, 48, 266.1128540039062
0, 0, 49, 273.7582092285156
0, 0, 50, 249.8524780273438
0, 0, 51, 255.5963439941406
0, 0, 52, 271.712646484375
0, 0, 53, 292.3181762695312
0, 0, 54, 243.0593566894531
0, 0, 55, 240.1404876708984
0, 0, 56, 278.1218872070312
0, 0, 57, 262.6800231933594
0, 0, 58, 245.7375030517578
0, 0, 59, 269.7237243652344
0, 0, 60, 233.6174621582031
0, 0, 61, 245.5804290771484
0, 0, 62, 258.4898376464844
0, 0, 63, 268.1639404296875
0, 0, 64, 256.8278503417969
0, 0, 65, 259.7216186523438
0, 0, 66, 275.9704284667969
0, 0, 67, 246.2195587158203
0, 0, 68, 258.092529296875
0, 0, 69, 261.4471130371094
0, 0, 70, 271.5554809570312
0, 0, 71, 237.4783477783203
0, 0, 72, 252.3321533203125
0, 0, 73, 257.6803588867188
0, 0, 74, 250.8894195556641
0, 0, 75, 241.1208343505859
0, 0, 76, 227.8746032714844
0, 0, 77, 259.5299987792969
0, 0, 78, 258.9978942871094
0, 0, 79, 279.0836486816406
0, 0, 80, 215.4199829101562
0, 0, 81, 266.2496337890625
0, 0, 82, 256.8818664550781
0, 0, 83, 246.1390991210938
0, 0, 84, 269.8958740234375
0, 0, 85, 232.8222961425781
0, 0, 86, 253.7586822509766
0, 0, 87, 251.4855804443359
0, 0, 88, 259.1843566894531
0, 0, 89, 281.9684448242188
0, 0, 90, 244.5616760253906
0, 0, 91, 284.1910400390625
0, 0, 92, 252.5071563720703
0, 0, 93, 249.1782684326172
0, 0, 94, 249.8107452392578
0, 0, 95, 248.2050628662109
0, 0, 96, 275.4380493164062
0, 0, 97, 271.7404174804688
0, 0, 98, 273.3148193359375
0, 0, 99, 258.43017578125
0, 0, 100, 258.2105407714844
0, 0, 101, 227.0055389404297
0, 0, 102, 234.5929565429688
0, 0, 103, 269.6184692382812
0, 0, 104, 255.75537109375
0, 0, 105, 250.7835083007812
0, 0, 106, 245.2316436767578
0, 0, 107, 151.1468658447266
0, 0, 108, 37.35520553588867
0, 0, 109, 11.2365894317627
0, 0, 110, 12.66430568695068
0, 0, 111, 8.00457763671875
0, 0, 112, 6.815814018249512
0, 0, 113, 5.384013652801514
0, 0, 114, 7.389745235443115
0, 0, 115, 5.918513774871826
0, 0, 116, 5.310282707214355
0, 0, 117, 6.251204490661621
0, 0, 118, 7.310950756072998
0, 0, 119, 3.843070030212402
0, 0, 120, 2.718775749206543
0, 0, 121, 3.600131750106812
0, 0, 122, 5.221943378448486
0, 0, 123, 4.021571636199951
0, 0, 124, 5.202596187591553
0, 0, 125, 2.64988899230957
0, 0, 126, 3.889543294906616
0, 0, 127, 2.474880218505859
0, 1, 0, 8.236701965332031
0, 1, 1, 3.118557453155518
0, 1, 2, 4.902400970458984
0, 1, 3, 2.313297510147095
0, 1, 4, 3.277507543563843
0, 1, 5, 3.197026968002319
0, 1, 6, 7.011684894561768
0, 1, 7, 5.806394577026367
0, 1, 8, 7.93282413482666
0, 1, 9, 5.404955863952637
0, 1, 10, 6.345035552978516
0, 1, 11, 11.0182991027832
0, 1, 12, 8.920927047729492
0, 1, 13, 9.714254379272461
0, 1, 14, 8.71315860748291
0, 1, 15, 8.041152000427246
0, 1, 16, 12.13776588439941
0, 1, 17, 10.6223201751709
0, 1, 18, 21.16156196594238
0, 1, 19, 68.56027221679688
0, 1, 20, 199.8010101318359
0, 1, 21, 255.8262634277344
0, 1, 22, 298.638916015625
0, 1, 23, 283.0000915527344
0, 1, 24, 274.853759765625
0, 1, 25, 287.5392456054688
0, 1, 26, 269.5284729003906
0, 1, 27, 307.7009582519531
0, 1, 28, 298.1789855957031
0, 1, 29, 298.0346984863281
0, 1, 30, 280.9360961914062
0, 1, 31, 292.5562133789062
0, 1, 32, 289.5068054199219
0, 1, 33, 294.7810974121094
0, 1, 34, 291.8506469726562
0, 1, 35, 278.0244445800781
0, 1, 36, 306.2166442871094
0, 1, 37, 294.7448120117188
0, 1, 38, 279.6087646484375
0, 1, 39, 294.9906005859375
0, 1, 40, 266.1390075683594
0, 1, 41, 286.5282287597656
0, 1, 42, 289.9486083984375
0, 1, 43, 332.8207092285156
0, 1, 44, 278.2559814453125
0, 1, 45, 291.8780822753906
0, 1, 46, 259.9644470214844
0, 1, 47, 309.3846130371094
0, 1, 48, 286.015869140625
0, 1, 49, 302.2658081054688
0, 1, 50, 262.6846313476562
0, 1, 51, 272.4154357910156
0, 1, 52, 295.3271179199219
0, 1, 53, 303.7327575683594
0, 1, 54, 274.4324035644531
0, 1, 55, 293.5859069824219
0, 1, 56, 281.2098999023438
0, 1, 57, 302.6934204101562
0, 1, 58, 310.1135559082031
0, 1, 59, 293.5990905761719
0, 1, 60, 296.5849304199219
0, 1, 61, 274.5816955566406
0, 1, 62, 309.2044677734375
0, 1, 63, 289.1059265136719
0, 1, 64, 288.0301208496094
0, 1, 65, 295.7066650390625
0, 1, 66, 291.4689636230469
0, 1, 67, 290.4727783203125
0, 1, 68, 278.5899963378906
0, 1, 69, 280.0600891113281
0, 1, 70, 272.2945556640625
0, 1, 71, 273.6454162597656
0, 1, 72, 287.8706970214844
0, 1, 73, 304.1314086914062
0, 1, 74, 306.3734436035156
0, 1, 75, 291.4765625
0, 1, 76, 287.4850769042969
0, 1, 77, 288.9273681640625
0, 1, 78, 295.7127990722656
0, 1, 79, 300.7939147949219
0, 1, 80, 296.6943054199219
0, 1, 81, 301.761474609375
0, 1, 82, 282.45361328125
0, 1, 83, 331.6588439941406
0, 1, 84, 307.1882629394531
0, 1, 85, 252.2764739990234
0, 1, 86, 294.4216918945312
0, 1, 87, 290.4797058105469
0, 1, 88, 299.7560119628906
0, 1, 89, 290.8152465820312
0, 1, 90, 270.1145629882812
0, 1, 91, 317.4615783691406
0, 1, 92, 288.9252319335938
0, 1, 93, 287.804931640625
0, 1, 94, 304.4419555664062
0, 1, 95, 284.8796997070312
0, 1, 96, 284.0007019042969
0, 1, 97, 300.8721618652344
0, 1, 98, 278.4464416503906
0, 1, 99, 266.7621154785156
0, 1, 100, 275.7646789550781
0, 1, 101, 281.5806884765625
0, 1, 102, 278.0913696289062
0, 1, 103, 279.8681945800781
0, 1, 104, 306.9951782226562
0, 1, 105, 296.447509765625
0, 1, 106, 260.2671203613281
0, 1, 107, 191.5854034423828
0, 1, 108, 79.71178436279297
0, 1, 109, 24.34765243530273
0, 1, 110, 12.5936393737793
0, 1, 111, 9.486101150512695
0, 1, 112, 11.85188293457031
0, 1, 113, 5.466359615325928
0, 1, 114, 5.428673267364502
0, 1, 115, 6.169835567474365
0, 1, 116, 10.29415607452393
0, 1, 117, 5.008138179779053
0, 1, 118, 5.784904956817627
0, 1, 119, 4.534581184387207
0, 1, 120, 3.611100673675537
0, 1, 121, 2.831395387649536
0, 1, 122, 4.282517910003662
0, 1, 123, 4.148520946502686
0, 1, 124, 8.043024063110352
0, 1, 125, 4.53750467300415
0, 1, 126, 3.075169563293457
0, 1, 127, 2.479638576507568
0, 2, 0, 5.443300247192383
0, 2, 1, 2.918489933013916
0, 2, 2, 4.28850793838501
0, 2, 3, 4.317832946777344
0, 2, 4, 3.638117074966431
0, 2, 5, 2.0380859375
0, 2, 6, 3.04244327545166
0, 2, 7, 4.966823101043701
0, 2, 8, 4.898855686187744
0, 2, 9, 4.943137168884277
0, 2, 10, 9.387248992919922
0, 2, 11, 9.023519515991211
0, 2, 12, 7.254304885864258
0, 2, 13, 12.60543346405029
0, 2, 14, 11.0388650894165
0, 2, 15, 7.137113571166992
0, 2, 16, 11.88017272949219
0, 2, 17, 15.83897495269775
0, 2, 18, 28.27161979675293
0, 2, 19, 117.5573043823242
0, 2, 20, 246.7124176025391
0, 2, 21, 270.8011779785156
0, 2, 22, 317.3466186523438
0, 2, 23, 299.9130249023438
0, 2, 24, 285.9398803710938
0, 2, 25, 302.1240234375
0, 2, 26, 291.0274658203125
0, 2, 27, 275.7608032226562
0, 2, 28, 272.7884216308594
0, 2, 29, 273.9009094238281
0, 2, 30, 288.0748901367188
0, 2, 31, 277.8812255859375
0, 2, 32, 294.715576171875
0, 2, 33, 283.2022399902344
0, 2, 34, 332.7778015136719
0, 2, 35, 290.0378723144531
0, 2, 36, 305.4041442871094
0, 2, 37, 315.8118591308594
0, 2, 38, 309.4603881835938
0, 2, 39, 267.4991455078125
0, 2, 40, 308.1367492675781
0, 2, 41, 294.817626953125
0, 2, 42, 303.1142883300781
0, 2, 43, 312.57958984375
0, 2, 44, 311.6392517089844
0, 2, 45, 326.2254638671875
0, 2, 46, 288.329833984375
0, 2, 47, 304.1198120117188
0, 2, 48, 279.0014953613281
0, 2, 49, 278.4541320800781
0, 2, 50, 293.7239379882812
0, 2, 51, 284.1552734375
0, 2, 52, 273.6608276367188
0, 2, 53, 287.3671264648438
0, 2, 54, 279.4906005859375
0, 2, 55, 273.9597473144531
0, 2, 56, 301.0923156738281
0, 2, 57, 290.9317016601562
0, 2, 58, 301.0132751464844
0, 2, 59, 291.3663330078125
0, 2, 60, 318.2727661132812
0, 2, 61, 301.8643798828125
0, 2, 62, 314.2747802734375
0, 2, 63, 303.0476989746094
0, 2, 64, 294.5772094726562
0, 2, 65, 312.514892578125
0, 2, 66, 279.2691040039062
0, 2, 67, 291.9230041503906
0, 2, 68, 295.4671936035156
0, 2, 69, 310.1642150878906
0, 2, 70, 334.0244140625
0, 2, 71, 282.781005859375
0, 2, 72, 300.1102294921875
0, 2, 73, 310.4916381835938
0, 2, 74, 285.9935913085938
0, 2, 75, 307.5993041992188
0, 2, 76, 286.7984313964844
0, 2, 77, 299.5910339355469
0, 2, 78, 313.8340759277344
0, 2, 79, 307.72509765625
0, 2, 80, 296.5780639648438
0, 2, 81, 283.4961242675781
0, 2, 82, 319.0973815917969
0, 2, 83, 314.7540893554688
0, 2, 84, 287.3311462402344
0, 2, 85, 282.876220703125
0, 2, 86, 326.601806640625
0, 2, 87, 285.8260498046875
0, 2, 88, 280.6812438964844
0, 2, 89, 297.0641479492188
0, 2, 90, 294.5066833496094
0, 2, 91, 277.1592407226562
0, 2, 92, 306.9195251464844
0, 2, 93, 315.9778747558594
0, 2, 94, 292.001220703125
0, 2, 95, 313.2030944824219
0, 2, 96, 314.3478698730469
0, 2, 97, 293.8101196289062
0, 2, 98, 296.3108825683594
0, 2, 99, 273.7615051269531
0, 2, 100, 306.7893371582031
0, 2, 101, 300.574951171875
0, 2, 102, 297.0243530273438
0, 2, 103, 293.922119140625
0, 2, 104, 292.3581237792969
0, 2, 105, 273.6296691894531
0, 2, 106, 297.6438903808594
0, 2, 107, 272.1144714355469
0, 2, 108, 115.5385208129883
0, 2, 109, 31.89189338684082
0, 2, 110, 10.3975305557251
0, 2, 111, 10.63949584960938
0, 2, 112, 8.094118118286133
0, 2, 113, 10.70072555541992
0, 2, 114, 8.475852012634277
0, 2, 115, 9.576481819152832
0, 2, 116, 8.765653610229492
0, 2, 117, 7.039316177368164
0, 2, 118, 1.660211324691772
0, 2, 119, 4.798100471496582
0, 2, 120, 6.54788064956665
0, 2, 121, 3.784351348876953
0, 2, 122, 4.631636619567871
0, 2, 123, 5.695287704467773
0, 2, 124, 6.931983947753906
0, 2, 125, 5.98151683807373
0, 2, 126, 4.39647102355957
0, 2, 127, 5.398611545562744
0, 3, 0, 3.220871686935425
0, 3, 1, 3.80366849899292
0, 3, 2, 3.340131759643555
0, 3, 3, 1.422809720039368
0, 3, 4, 3.325931072235107
0, 3, 5, 7.007328510284424
0, 3, 6, 6.990428447723389
0, 3, 7, 6.454775810241699
0, 3, 8, 6.133391857147217
0, 3, 9, 9.65900993347168
0, 3, 10, 6.1149001121521
0, 3, 11, 4.618146896362305
0, 3, 12, 7.837715148925781
0, 3, 13, 15.29491233825684
0, 3, 14, 11.46684455871582
0, 3, 15, 14.81479167938232
0, 3, 16, 10.98357105255127
0, 3, 17, 20.23537445068359
0, 3, 18, 54.99425888061523
0, 3, 19, 175.7334289550781
0, 3, 20, 269.7645263671875
0, 3, 21, 270.7605285644531
0, 3, 22, 281.2008056640625
0, 3, 23, 285.5904235839844
0, 3, 24, 287.103271484375
0, 3, 25, 270.7059631347656
0, 3, 26, 304.4114990234375
0, 3, 27, 291.4139099121094
0, 3, 28, 281.9656066894531
0, 3, 29, 338.5094604492188
0, 3, 30, 315.8734436035156
0, 3, 31, 289.85009765625
0, 3, 32, 306.2872619628906
0, 3, 33, 313.7923278808594
0, 3, 34, 323.0576477050781
0, 3, 35, 306.8057556152344
0, 3, 36, 271.97265625
0, 3, 37, 315.3257751464844
0, 3, 38, 303.8945617675781
0, 3, 39, 290.2705383300781
0, 3, 40, 266.8227844238281
0, 3, 41, 300.5712585449219
0, 3, 42, 284.9197692871094
0, 3, 43, 307.3710632324219
0, 3, 44, 312.3214111328125
0, 3, 45, 289.8903198242188
0, 3, 46, 329.9719848632812
0, 3, 47, 298.8065490722656
0, 3, 48, 303.6008605957031
0, 3, 49, 277.9791564941406
0, 3, 50, 292.1718139648438
0, 3, 51, 276.0286254882812
0, 3, 52, 317.4973754882812
0, 3, 53, 287.3829040527344
0, 3, 54, 285.9191284179688
0, 3, 55, 285.1535034179688
0, 3, 56, 298.5811767578125
0, 3, 57, 287.4216918945312
0, 3, 58, 305.1776123046875
0, 3, 59, 293.4039306640625
0, 3, 60, 297.3334655761719
0, 3, 61, 266.1552734375
0, 3, 62, 283.6954956054688
0, 3, 63, 306.3795166015625
0, 3, 64, 315.720703125
0, 3, 65, 307.5950927734375
0, 3, 66, 314.4193420410156
0, 3, 67, 317.718017578125
0, 3, 68, 279.4224548339844
0, 3, 69, 285.0773315429688
0, 3, 70, 288.4886474609375
0, 3, 71, 298.3164367675781
0, 3, 72, 270.8652954101562
0, 3, 73, 309.7822265625
0, 3, 74, 293.8743286132812
0, 3, 75, 292.8770446777344
0, 3, 76, 304.9758605957031
0, 3, 77, 313.8994140625
0, 3, 78, 306.0819702148438
0, 3, 79, 282.2484741210938
0, 3, 80, 290.4596557617188
0, 3, 81, 310.5717163085938
0, 3, 82, 316.1722717285156
0, 3, 83, 300.9486999511719
0, 3, 84, 309.627685546875
0, 3, 85, 292.0696716308594
0, 3, 86, 302.7606201171875
0, 3, 87, 296.7435607910156
0, 3, 88, 297.7704162597656
0, 3, 89, 295.6373901367188
0, 3, 90, 275.4716796875
0, 3, 91, 285.69580078125
0, 3, 92, 302.4948425292969
0, 3, 93, 313.15673828125
0, 3, 94, 297.5093383789062
0, 3, 95, 334.1489868164062
0, 3, 96, 289.2976379394531
0, 3, 97, 284.9598388671875
0, 3, 98, 277.240478515625
0, 3, 99, 261.0896301269531
0, 3, 100, 283.4491882324219
0, 3, 101, 296.7512512207031
0, 3, 102, 274.7170104980469
0, 3, 103, 320.4064025878906
0, 3, 104, 308.1692199707031
0, 3, 105, 287.8492736816406
0, 3, 106, 304.0394592285156
0, 3, 107, 282.4537658691406
0, 3, 108, 168.3860931396484
0, 3, 109, 55.888671875
0, 3, 110, 17.59317016601562
0, 3, 111, 12.66721820831299
0, 3, 112, 15.86444568634033
0, 3, 113, 6.296244621276855
0, 3, 114, 9.093713760375977
0, 3, 115, 6.778162956237793
0, 3, 116, 8.356829643249512
0, 3, 117, 8.104025840759277
0, 3, 118, 6.005218505859375
0, 3, 119, 4.841050624847412
0, 3, 120, 7.616700649261475
0, 3, 121, 3.848664283752441
0, 3, 122, 3.113354682922363
0, 3, 123, 7.336386680603027
0, 3, 124, 3.738881349563599
0, 3, 125, 6.989903450012207
0, 3, 126, 4.895882129669189
0, 3, 127, 2.347659349441528
0, 4, 0, 3.175765514373779
0, 4, 1, 3.632874488830566
0, 4, 2, 2.440606355667114
0, 4, 3, 1.847549200057983
0, 4, 4, 5.127659320831299
0, 4, 5, 8.832874298095703
0, 4, 6, 8.483489036560059
0, 4, 7, 5.177545070648193
0, 4, 8, 4.870223522186279
0, 4, 9, 5.443849563598633
0, 4, 10, 5.722039699554443
0, 4, 11, 8.406843185424805
0, 4, 12, 7.12528657913208
0, 4, 13, 10.37550067901611
0, 4, 14, 9.867725372314453
0, 4, 15, 10.11458110809326
0, 4, 16, 12.94036293029785
0, 4, 17, 19.69600868225098
0, 4, 18, 91.97028350830078
0, 4, 19, 223.1983032226562
0, 4, 20, 284.2876892089844
0, 4, 21, 272.3118896484375
0, 4, 22, 306.5165100097656
0, 4, 23, 267.8841247558594
0, 4, 24, 288.959228515625
0, 4, 25, 271.9689331054688
0, 4, 26, 296.5656127929688
0, 4, 27, 282.6458435058594
0, 4, 28, 309.1786193847656
0, 4, 29, 322.1723937988281
0, 4, 30, 309.7409057617188
0, 4, 31, 306.9066467285156
0, 4, 32, 281.10888671875
0, 4, 33, 295.5780334472656
0, 4, 34, 295.5749816894531
0, 4, 35, 311.3120422363281
0, 4, 36, 292.2318725585938
0, 4, 37, 288.4293518066406
0, 4, 38, 297.8289794921875
0, 4, 39, 294.876220703125
0, 4, 40, 301.9753723144531
0, 4, 41, 313.2105407714844
0, 4, 42, 328.6804809570312
0, 4, 43, 295.5567321777344
0, 4, 44, 320.5462951660156
0, 4, 45, 323.1230773925781
0, 4, 46, 304.8612976074219
0, 4, 47, 292.3074340820312
0, 4, 48, 297.7173156738281
0, 4, 49, 276.7121276855469
0, 4, 50, 296.3817138671875
0, 4, 51, 316.4144897460938
0, 4, 52, 327.1894226074219
0, 4, 53, 304.7958984375
0, 4, 54, 288.6367492675781
0, 4, 55, 315.1327819824219
0, 4, 56, 284.8121643066406
0, 4, 57, 309.9544067382812
0, 4, 58, 297.9845275878906
0, 4, 59, 308.6550903320312
0, 4, 60, 301.4791564941406
0, 4, 61, 316.225341796875
0, 4, 62, 309.47607421875
0, 4, 63, 298.45654296875
0, 4, 64, 331.0267333984375
0, 4, 65, 315.9911804199219
0, 4, 66, 293.1148071289062
0, 4, 67, 286.1364440917969
0, 4, 68, 312.5304260253906
0, 4, 69, 275.9896850585938
0, 4, 70, 298.9125671386719
0, 4, 71, 324.8841247558594
0, 4, 72, 334.2030639648438
0, 4, 73, 298.8801574707031
0, 4, 74, 293.1683044433594
0, 4, 75, 289.8703918457031
0, 4, 76, 273.3868408203125
0, 4, 77, 278.7257080078125
0, 4, 78, 309.4679260253906
0, 4, 79, 317.8942565917969
0, 4, 80, 317.0751342773438
0, 4, 81, 313.1643981933594
0, 4, 82, 297.9118347167969
0, 4, 83, 304.0752258300781
0, 4, 84, 291.9154052734375
0, 4, 85, 296.4711608886719
0, 4, 86, 296.9585571289062
0, 4, 87, 284.7363891601562
0, 4, 88, 304.9361267089844
0, 4, 89, 295.5269775390625
0, 4, 90, 332.9424438476562
0, 4, 91, 301.0246887207031
0, 4, 92, 289.092041015625
0, 4, 93, 295.7695007324219
0, 4, 94, 291.3576354980469
0, 4, 95, 286.7228088378906
0, 4, 96, 325.63818359375
0, 4, 97, 273.8580017089844
0, 4, 98, 327.9302978515625
0, 4, 99, 314.100341796875
0, 4, 100, 300.7399597167969
0, 4, 101, 256.5040588378906
0, 4, 102, 297.6242065429688
0, 4, 103, 317.6965637207031
0, 4, 104, 282.6492614746094
0, 4, 105, 310.9356384277344
0, 4, 106, 288.7968139648438
0, 4, 107, 296.4392395019531
0, 4, 108, 225.8894958496094
0, 4, 109, 78.84646606445312
0, 4, 110, 15.77685928344727
0, 4, 111, 13.51599502563477
0, 4, 112, 9.255160331726074
0, 4, 113, 12.16408443450928
0, 4, 114, 9.555980682373047
0, 4, 115, 11.00033473968506
0, 4, 116, 12.19038391113281
0, 4, 117, 7.45936107635498
0, 4, 118, 11.63608360290527
0, 4, 119, 11.85736083984375
0, 4, 120, 6.84828519821167
0, 4, 121, 3.443479299545288
0, 4, 122, 4.071301937103271
0, 4, 123, 6.746868133544922
0, 4, 124, 5.050172328948975
0, 4, 125, 8.099425315856934
0, 4, 126, 3.978371381759644
0, 4, 127, 5.970521450042725
0, 5, 0, 3.905585289001465
0, 5, 1, 3.536713600158691
0, 5, 2, 4.606595039367676
0, 5, 3, 3.142114162445068
0, 5, 4, 6.027577877044678
0, 5, 5, 7.064518451690674
0, 5, 6, 6.332651615142822
0, 5, 7, 6.385746002197266
0, 5, 8, 4.262638092041016
0, 5, 9, 3.962162494659424
0, 5, 10, 8.347578048706055
0, 5, 11, 8.287620544433594
0, 5, 12, 7.969231128692627
0, 5, 13, 4.6116042137146
0, 5, 14, 13.46938419342041
0, 5, 15, 17.56293106079102
0, 5, 16, 13.59643936157227
0, 5, 17, 28.93746948242188
0, 5, 18, 136.6419982910156
0, 5, 19, 286.5784301757812
0, 5, 20, 307.3445434570312
0, 5, 21, 315.8152160644531
0, 5, 22, 275.6819152832031
0, 5, 23, 310.6092224121094
0, 5, 24, 301.7087707519531
0, 5, 25, 289.366943359375
0, 5, 26, 296.5138549804688
0, 5, 27, 322.5883483886719
0, 5, 28, 303.1506042480469
0, 5, 29, 298.555419921875
0, 5, 30, 324.2707824707031
0, 5, 31, 286.0151672363281
0, 5, 32, 301.685791015625
0, 5, 33, 304.3783264160156
0, 5, 34, 296.4232788085938
0, 5, 35, 310.5044555664062
0, 5, 36, 271.0834655761719
0, 5, 37, 284.9623107910156
0, 5, 38, 291.5403747558594
0, 5, 39, 311.7146606445312
0, 5, 40, 307.8940734863281
0, 5, 41, 271.991455078125
0, 5, 42, 305.0691833496094
0, 5, 43, 311.6838989257812
0, 5, 44, 291.9448547363281
0, 5, 45, 300.2114562988281
0, 5, 46, 264.8995361328125
0, 5, 47, 278.9315795898438
0, 5, 48, 293.7027893066406
0, 5, 49, 286.6351623535156
0, 5, 50, 295.4874267578125
0, 5, 51, 279.3365783691406
0, 5, 52, 267.2623596191406
0, 5, 53, 283.1245422363281
0, 5, 54, 290.5152587890625
0, 5, 55, 344.9320373535156
0, 5, 56, 305.5435791015625
0, 5, 57, 306.3519592285156
0, 5, 58, 312.8117065429688
0, 5, 59, 302.5094299316406
0, 5, 60, 310.3917236328125
0, 5, 61, 282.8221435546875
0, 5, 62, 325.3757019042969
0, 5, 63, 292.9272155761719
0, 5, 64, 321.9272766113281
0, 5, 65, 309.0993347167969
0, 5, 66, 327.9841613769531
0, 5, 67, 312.8403625488281
0, 5, 68, 309.8695983886719
0, 5, 69, 313.0460205078125
0, 5, 70, 303.4143981933594
0, 5, 71, 274.9229736328125
0, 5, 72, 312.5848388671875
0, 5, 73, 301.1821594238281
0, 5, 74, 295.2492370605469
0, 5, 75, 293.592529296875
0, 5, 76, 288.1795043945312
0, 5, 77, 299.1168823242188
0, 5, 78, 313.0726623535156
0, 5, 79, 307.490478515625
0, 5, 80, 294.7802734375
0, 5, 81, 324.8812255859375
0, 5, 82, 323.6901245117188
0, 5, 83, 281.4787292480469
0, 5, 84, 302.2275390625
0, 5, 85, 272.177734375
0, 5, 86, 326.8192138671875
0, 5, 87, 286.9257202148438
0, 5, 88, 314.5181884765625
0, 5, 89, 304.55029296875
0, 5, 90, 316.3396606445312
0, 5, 91, 314.6091918945312
0, 5, 92, 296.7785034179688
0, 5, 93, 321.4281616210938
0, 5, 94, 309.4452209472656
0, 5, 95, 296.0448303222656
0, 5, 96, 297.7109680175781
0, 5, 97, 295.107421875
0, 5, 98, 318.3648376464844
0, 5, 99, 301.8836975097656
0, 5, 100, 288.7807312011719
0, 5, 101, 304.7122192382812
0, 5, 102, 290.9844360351562
0, 5, 103, 313.2234802246094
0, 5, 104, 303.4713745117188
0, 5, 105, 292.3835754394531
0, 5, 106, 281.5731201171875
0, 5, 107, 291.0667724609375
0, 5, 108, 265.8345947265625
0, 5, 109, 156.6609954833984
0, 5, 110, 39.7473030090332
0, 5, 111, 20.75077438354492
0, 5, 112, 20.25161743164062
0, 5, 113, 14.5351505279541
0, 5, 114, 13.06101894378662
0, 5, 115, 6.264448165893555
0, 5, 116, 6.766397476196289
0, 5, 117, 8.726964950561523
0, 5, 118, 11.62529468536377
0, 5, 119, 5.273975372314453
0, 5, 120, 6.914006233215332
0, 5, 121, 6.236311912536621
0, 5, 122, 5.984856128692627
0, 5, 123, 5.614840507507324
0, 5, 124, 4.97596549987793
0, 5, 125, 5.910048484802246
0, 5, 126, 6.885180473327637
0, 5, 127, 3.373159885406494
0, 6, 0, 5.783005714416504
0, 6, 1, 4.135026931762695
0, 6, 2, 5.107887744903564
0, 6, 3, 5.837854385375977
0, 6, 4, 3.307716608047485
0, 6, 5, 6.361433029174805
0, 6, 6, 8.403692245483398
0, 6, 7, 5.979628562927246
0, 6, 8, 6.268954277038574
0, 6, 9, 7.391373634338379
0, 6, 10, 8.801606178283691
0, 6, 11, 8.206592559814453
0, 6, 12, 8.23350715637207
0, 6, 13, 15.43854713439941
0, 6, 14, 8.617897033691406
0, 6, 15, 17.95209121704102
0, 6, 16, 27.41532897949219
0, 6, 17, 55.2751579284668
0, 6, 18, 174.2421264648438
0, 6, 19, 276.7940673828125
0, 6, 20, 291.0666198730469
0, 6, 21, 313.3875732421875
0, 6, 22, 319.3704528808594
0, 6, 23, 306.7619018554688
0, 6, 24, 315.7952880859375
0, 6, 25, 316.8025207519531
0, 6, 26, 319.3659362792969
0, 6, 27, 331.4425354003906
0, 6, 28, 296.2919616699219
0, 6, 29, 330.7518310546875
0, 6, 30, 284.2816162109375
0, 6, 31, 286.7515869140625
0, 6, 32, 340.296875
0, 6, 33, 301.4866638183594
0, 6, 34, 340.3055419921875
0, 6, 35, 320.427001953125
0, 6, 36, 274.5892333984375
0, 6, 37, 288.7600402832031
0, 6, 38, 312.0746459960938
0, 6, 39, 299.1596984863281
0, 6, 40, 283.8934326171875
0, 6, 41, 296.3196411132812
0, 6, 42, 304.6167907714844
0, 6, 43, 288.261474609375
0, 6, 44, 283.2335205078125
0, 6, 45, 318.6698303222656
0, 6, 46, 299.7999572753906
0, 6, 47, 333.1596374511719
0, 6, 48, 291.1416320800781
0, 6, 49, 312.5487670898438
0, 6, 50, 329.1686096191406
0, 6, 51, 309.6315612792969
0, 6, 52, 320.5911254882812
0, 6, 53, 329.3094482421875
0, 6, 54, 302.4447937011719
0, 6, 55, 305.1741027832031
0, 6, 56, 296.8282470703125
0, 6, 57, 313.2789001464844
0, 6, 58, 262.0284423828125
0, 6, 59, 303.9905395507812
0, 6, 60, 312.4938354492188
0, 6, 61, 271.6322937011719
0, 6, 62, 335.4176940917969
0, 6, 63, 322.8015441894531
0, 6, 64, 292.2000427246094
0, 6, 65, 283.0157775878906
0, 6, 66, 304.1449890136719
0, 6, 67, 308.7729187011719
0, 6, 68, 292.710205078125
0, 6, 69, 279.2738647460938
0, 6, 70, 275.3344421386719
0, 6, 71, 288.6303405761719
0, 6, 72, 309.9666748046875
0, 6, 73, 294.6161193847656
0, 6, 74, 329.7398986816406
0, 6, 75, 344.9844055175781
0, 6, 76, 296.7473754882812
0, 6, 77, 285.8825073242188
0, 6, 78, 280.0168762207031
0, 6, 79, 294.0486450195312
0, 6, 80, 298.0933227539062
0, 6, 81, 314.9307556152344
0, 6, 82, 320.656005859375
0, 6, 83, 322.3989868164062
0, 6, 84, 296.8168640136719
0, 6, 85, 301.101806640625
0, 6, 86, 329.3467712402344
0, 6, 87, 294.6884155273438
0, 6, 88, 305.8135681152344
0, 6, 89, 303.1878051757812
0, 6, 90, 299.1920776367188
0, 6, 91, 310.8611450195312
0, 6, 92, 285.4644165039062
0, 6, 93, 297.43017578125
0, 6, 94, 272.0176696777344
0, 6, 95, 299.7662658691406
0, 6, 96, 346.8937072753906
0, 6, 97, 310.0577697753906
0, 6, 98, 301.3548889160156
0, 6, 99, 272.3174438476562
0, 6, 100, 311.6856384277344
0, 6, 101, 294.2432556152344
0, 6, 102, 307.6058349609375
0, 6, 103, 307.2127685546875
0, 6, 104, 291.9198608398438
0, 6, 105, 301.8297424316406
0, 6, 106, 308.4640197753906
0, 6, 107, 306.9027404785156
0, 6, 108, 267.1703186035156
0, 6, 109, 187.6736602783203
0, 6, 110, 56.58053207397461
0, 6, 111, 21.27116012573242
0, 6, 112, 13.82327270507812
0, 6, 113, 10.56711673736572
0, 6, 114, 13.0383415222168
0, 6, 115, 12.14953231811523
0, 6, 116, 12.11569404602051
0, 6, 117, 7.936933040618896
0, 6, 118, 12.67071723937988
0, 6, 119, 10.14247035980225
0, 6, 120, 6.054166316986084
0, 6, 121, 5.530380249023438
0, 6, 122, 6.416162014007568
0, 6, 123, 4.704793930053711
0, 6, 124, 5.048063278198242
0, 6, 125, 10.80013942718506
0, 6, 126, 3.743045091629028
0, 6, 127, 5.782243251800537
0, 7, 0, 6.70850944519043
0, 7, 1, 2.925111055374146
0, 7, 2, 5.749646663665771
0, 7, 3, 2.53217625617981
0, 7, 4, 6.192263126373291
0, 7, 5, 4.677319526672363
0, 7, 6, 4.837844371795654
0, 7, 7, 6.464481830596924
0, 7, 8, 5.51718807220459
0, 7, 9, 7.397326469421387
0, 7, 10, 9.572742462158203
0, 7, 11, 11.94536685943604
0, 7, 12, 9.871162414550781
0, 7, 13, 11.2701358795166
0, 7, 14, 10.50453281402588
0, 7, 15, 16.15706253051758
0, 7, 16, 26.6129264831543
0, 7, 17, 98.520263671875
0, 7, 18, 218.4740753173828
0, 7, 19, 289.5718383789062
0, 7, 20, 298.99853515625
0, 7, 21, 280.5569152832031
0, 7, 22, 298.6678771972656
0, 7, 23, 289.6998291015625
0, 7, 24, 312.6104736328125
0, 7, 25, 324.5147094726562
0, 7, 26, 280.1365661621094
0, 7, 27, 298.2506408691406
0, 7, 28, 327.4554138183594
0, 7, 29, 318.1080627441406
0, 7, 30, 301.3615112304688
0, 7, 31, 280.727783203125
0, 7, 32, 305.476318359375
0, 7, 33, 260.3861694335938
0, 7, 34, 296.8031921386719
0, 7, 35, 319.8245849609375
0, 7, 36, 329.8213806152344
0, 7, 37, 324.4049072265625
0, 7, 38, 297.9775085449219
0, 7, 39, 309.2759399414062
0, 7, 40, 290.9635620117188
0, 7, 41, 269.9432678222656
0, 7, 42, 300.8921508789062
0, 7, 43, 277.8048095703125
0, 7, 44, 304.5704040527344
0, 7, 45, 296.1782531738281
0, 7, 46, 284.7734680175781
0, 7, 47, 330.4246826171875
0, 7, 48, 288.5794677734375
0, 7, 49, 302.5244445800781
0, 7, 50, 321.7218017578125
0, 7, 51, 298.5620422363281
0, 7, 52, 326.5044860839844
0, 7, 53, 309.0765991210938
0, 7, 54, 325.9909057617188
0, 7, 55, 306.4936218261719
0, 7, 56, 283.430419921875
0, 7, 57, 282.564208984375
0, 7, 58, 297.002197265625
0, 7, 59, 295.4186401367188
0, 7, 60, 321.810302734375
0, 7, 61, 277.8162841796875
0, 7, 62, 298.7816162109375
0, 7, 63, 293.78173828125
0, 7, 64, 305.3963012695312
0, 7, 65, 329.9051513671875
0, 7, 66, 318.4888000488281
0, 7, 67, 301.0548706054688
0, 7, 68, 279.1879577636719
0, 7, 69, 295.1380004882812
0, 7, 70, 301.1283569335938
0, 7, 71, 310.4076232910156
0, 7, 72, 283.169921875
0, 7, 73, 295.9855651855469
0, 7, 74, 343.7682189941406
0, 7, 75, 318.089599609375
0, 7, 76, 322.72216796875
0, 7, 77, 280.3702392578125
0, 7, 78, 299.6708984375
0, 7, 79, 297.6304016113281
0, 7, 80, 310.0023193359375
0, 7, 81, 319.90869140625
0, 7, 82, 330.0185241699219
0, 7, 83, 317.8815612792969
0, 7, 84, 308.8121643066406
0, 7, 85, 271.9472961425781
0, 7, 86, 312.1394348144531
0, 7, 87, 309.9646911621094
0, 7, 88, 307.4093322753906
0, 7, 89, 293.7392272949219
0, 7, 90, 306.6945495605469
0, 7, 91, 314.0727233886719
0, 7, 92, 289.3863830566406
0, 7, 93, 309.112548828125
0, 7, 94, 276.1570739746094
0, 7, 95, 296.0154724121094
0, 7, 96, 330.4398498535156
0, 7, 97, 295.1950988769531
0, 7, 98, 290.4800720214844
0, 7, 99, 313.9504699707031
0, 7, 100, 281.4257202148438
0, 7, 101, 276.4879455566406
0, 7, 102, 294.0469055175781
0, 7, 103, 291.1561584472656
0, 7, 104, 274.7383728027344
0, 7, 105, 306.0038452148438
0, 7, 106, 317.6842041015625
0, 7, 107, 297.1036682128906
0, 7, 108, 273.0726318359375
0, 7, 109, 237.0929718017578
0, 7, 110, 95.02640533447266
0, 7, 111, 23.51111030578613
0, 7, 112, 14.63111019134521
0, 7, 113, 13.53472805023193
0, 7, 114, 15.49214363098145
0, 7, 115, 14.79664421081543
0, 7, 116, 8.823118209838867
0, 7, 117, 4.927485466003418
0, 7, 118, 8.430639266967773
0, 7, 119, 6.959485530853271
0, 7, 120, 5.510251522064209
0, 7, 121, 6.829510688781738
0, 7, 122, 7.862765312194824
0, 7, 123, 6.299800872802734
0, 7, 124, 3.085638761520386
0, 7, 125, 9.043838500976562
0, 7, 126, 8.733376502990723
0, 7, 127, 3.543920993804932
0, 8, 0, 5.198727607727051
0, 8, 1, 3.583468198776245
0, 8, 2, 3.862131595611572
0, 8, 3, 2.811869621276855
0, 8, 4, 3.458123683929443
0, 8, 5, 5.716898441314697
0, 8, 6, 5.537914752960205
0, 8, 7, 5.1087646484375
0, 8, 8, 9.904390335083008
0, 8, 9, 5.280386924743652
0, 8, 10, 9.373078346252441
0, 8, 11, 11.24379062652588
0, 8, 12, 13.63492298126221
0, 8, 13, 13.90884494781494
0, 8, 14, 11.78010940551758
0, 8, 15, 18.2222957611084
0, 8, 16, 32.99979400634766
0, 8, 17, 131.1486053466797
0, 8, 18, 241.5513305664062
0, 8, 19, 295.9488525390625
0, 8, 20, 286.5205688476562
0, 8, 21, 305.9546508789062
0, 8, 22, 295.92041015625
0, 8, 23, 276.3726196289062
0, 8, 24, 268.49072265625
0, 8, 25, 274.1709289550781
0, 8, 26, 306.9989318847656
0, 8, 27, 306.7391967773438
0, 8, 28, 307.1346740722656
0, 8, 29, 319.0348205566406
0, 8, 30, 312.909423828125
0, 8, 31, 305.1020812988281
0, 8, 32, 284.3421020507812
0, 8, 33, 295.4571838378906
0, 8, 34, 289.7036743164062
0, 8, 35, 280.1676330566406
0, 8, 36, 314.1260986328125
0, 8, 37, 341.9417114257812
0, 8, 38, 332.2821960449219
0, 8, 39, 280.326904296875
0, 8, 40, 306.3970642089844
