# TOPAS Version: 3.1.p3
# Parameter File: batch_inserts_64.txt
# Results for scorer Readout_Adipose
# Scored in component: MyBox
# X in 1 bin  of 0.75 cm
# Y in 512 bins of 0.0783984 cm
# Z in 128 bins of 0.078125 cm
# EnergyDeposit ( MeV ) : Sum   
0, 0, 0, 24.84837341308594
0, 0, 1, 20.52902412414551
0, 0, 2, 24.40448379516602
0, 0, 3, 24.45967292785645
0, 0, 4, 25.71919631958008
0, 0, 5, 18.98442077636719
0, 0, 6, 21.93417930603027
0, 0, 7, 29.70542907714844
0, 0, 8, 24.44989395141602
0, 0, 9, 23.07874488830566
0, 0, 10, 22.89555931091309
0, 0, 11, 31.51604270935059
0, 0, 12, 33.4209098815918
0, 0, 13, 30.82869529724121
0, 0, 14, 35.52913665771484
0, 0, 15, 46.78213119506836
0, 0, 16, 46.12975311279297
0, 0, 17, 44.19382095336914
0, 0, 18, 76.08596801757812
0, 0, 19, 191.5735778808594
0, 0, 20, 699.3822631835938
0, 0, 21, 1194.196044921875
0, 0, 22, 1251.125244140625
0, 0, 23, 1272.150512695312
0, 0, 24, 1279.695068359375
0, 0, 25, 1354.774658203125
0, 0, 26, 1276.107299804688
0, 0, 27, 1279.554809570312
0, 0, 28, 1324.105224609375
0, 0, 29, 1272.081665039062
0, 0, 30, 1264.193969726562
0, 0, 31, 1284.455322265625
0, 0, 32, 1265.10400390625
0, 0, 33, 1240.116577148438
0, 0, 34, 1328.025756835938
0, 0, 35, 1303.765991210938
0, 0, 36, 1244.818237304688
0, 0, 37, 1279.895141601562
0, 0, 38, 1248.562133789062
0, 0, 39, 1242.6201171875
0, 0, 40, 1221.0517578125
0, 0, 41, 1270.233642578125
0, 0, 42, 1255.379272460938
0, 0, 43, 1265.640258789062
0, 0, 44, 1224.448974609375
0, 0, 45, 1287.397583007812
0, 0, 46, 1263.512451171875
0, 0, 47, 1241.416625976562
0, 0, 48, 1275.362060546875
0, 0, 49, 1283.578369140625
0, 0, 50, 1306.669677734375
0, 0, 51, 1265.766357421875
0, 0, 52, 1360.093017578125
0, 0, 53, 1327.10107421875
0, 0, 54, 1293.005981445312
0, 0, 55, 1229.869873046875
0, 0, 56, 1318.308837890625
0, 0, 57, 1292.374755859375
0, 0, 58, 1254.322265625
0, 0, 59, 1331.25390625
0, 0, 60, 1325.683837890625
0, 0, 61, 1263.503173828125
0, 0, 62, 1244.510375976562
0, 0, 63, 1278.457763671875
0, 0, 64, 1329.573608398438
0, 0, 65, 1285.886596679688
0, 0, 66, 1316.1103515625
0, 0, 67, 1212.678344726562
0, 0, 68, 1309.937866210938
0, 0, 69, 1327.031616210938
0, 0, 70, 1344.590209960938
0, 0, 71, 1284.0576171875
0, 0, 72, 1313.614624023438
0, 0, 73, 1242.0869140625
0, 0, 74, 1289.71484375
0, 0, 75, 1295.352661132812
0, 0, 76, 1255.685668945312
0, 0, 77, 1288.036987304688
0, 0, 78, 1313.952758789062
0, 0, 79, 1330.24853515625
0, 0, 80, 1261.261596679688
0, 0, 81, 1319.175903320312
0, 0, 82, 1285.922119140625
0, 0, 83, 1288.692626953125
0, 0, 84, 1321.68017578125
0, 0, 85, 1234.445556640625
0, 0, 86, 1270.91796875
0, 0, 87, 1251.160522460938
0, 0, 88, 1253.749877929688
0, 0, 89, 1332.3671875
0, 0, 90, 1278.084838867188
0, 0, 91, 1358.125122070312
0, 0, 92, 1301.73095703125
0, 0, 93, 1274.664184570312
0, 0, 94, 1242.546264648438
0, 0, 95, 1327.884765625
0, 0, 96, 1282.269653320312
0, 0, 97, 1323.5068359375
0, 0, 98, 1256.837646484375
0, 0, 99, 1253.865600585938
0, 0, 100, 1289.639404296875
0, 0, 101, 1316.564575195312
0, 0, 102, 1238.1787109375
0, 0, 103, 1320.982177734375
0, 0, 104, 1265.469360351562
0, 0, 105, 1267.076904296875
0, 0, 106, 1206.063110351562
0, 0, 107, 782.1929931640625
0, 0, 108, 196.3316650390625
0, 0, 109, 67.55716705322266
0, 0, 110, 60.92033004760742
0, 0, 111, 42.94703674316406
0, 0, 112, 35.88301086425781
0, 0, 113, 30.71598815917969
0, 0, 114, 34.38381576538086
0, 0, 115, 33.53733444213867
0, 0, 116, 30.58778190612793
0, 0, 117, 30.92702674865723
0, 0, 118, 29.71844291687012
0, 0, 119, 23.57918930053711
0, 0, 120, 25.21348762512207
0, 0, 121, 27.98414993286133
0, 0, 122, 19.43463897705078
0, 0, 123, 18.40442276000977
0, 0, 124, 25.21446800231934
0, 0, 125, 23.03435516357422
0, 0, 126, 21.46859169006348
0, 0, 127, 16.2925853729248
0, 1, 0, 22.00388526916504
0, 1, 1, 17.39592742919922
0, 1, 2, 25.05595016479492
0, 1, 3, 22.93319129943848
0, 1, 4, 20.64573669433594
0, 1, 5, 26.48103713989258
0, 1, 6, 23.18898010253906
0, 1, 7, 23.90617561340332
0, 1, 8, 32.18961715698242
0, 1, 9, 30.16240310668945
0, 1, 10, 33.67234039306641
0, 1, 11, 45.84259414672852
0, 1, 12, 37.98693084716797
0, 1, 13, 46.59504318237305
0, 1, 14, 40.84235382080078
0, 1, 15, 47.89868927001953
0, 1, 16, 59.73817443847656
0, 1, 17, 69.04499816894531
0, 1, 18, 100.728157043457
0, 1, 19, 399.4696655273438
0, 1, 20, 1039.694580078125
0, 1, 21, 1374.090454101562
0, 1, 22, 1477.860961914062
0, 1, 23, 1463.328491210938
0, 1, 24, 1452.305541992188
0, 1, 25, 1416.669555664062
0, 1, 26, 1472.45703125
0, 1, 27, 1465.6630859375
0, 1, 28, 1488.647338867188
0, 1, 29, 1480.39208984375
0, 1, 30, 1503.651000976562
0, 1, 31, 1489.455200195312
0, 1, 32, 1413.226196289062
0, 1, 33, 1505.166870117188
0, 1, 34, 1500.8076171875
0, 1, 35, 1461.470825195312
0, 1, 36, 1488.936767578125
0, 1, 37, 1411.950439453125
0, 1, 38, 1395.062622070312
0, 1, 39, 1522.810180664062
0, 1, 40, 1462.92041015625
0, 1, 41, 1486.362426757812
0, 1, 42, 1496.629638671875
0, 1, 43, 1501.547973632812
0, 1, 44, 1450.336303710938
0, 1, 45, 1485.381225585938
0, 1, 46, 1425.549560546875
0, 1, 47, 1432.00634765625
0, 1, 48, 1432.3408203125
0, 1, 49, 1486.888549804688
0, 1, 50, 1443.172485351562
0, 1, 51, 1467.927978515625
0, 1, 52, 1475.235961914062
0, 1, 53, 1473.546142578125
0, 1, 54, 1506.138305664062
0, 1, 55, 1493.925903320312
0, 1, 56, 1472.190551757812
0, 1, 57, 1458.002075195312
0, 1, 58, 1426.764404296875
0, 1, 59, 1484.725952148438
0, 1, 60, 1465.848266601562
0, 1, 61, 1447.733642578125
0, 1, 62, 1453.5400390625
0, 1, 63, 1414.622314453125
0, 1, 64, 1475.607055664062
0, 1, 65, 1413.249633789062
0, 1, 66, 1439.656005859375
0, 1, 67, 1453.3955078125
0, 1, 68, 1388.295166015625
0, 1, 69, 1461.82568359375
0, 1, 70, 1428.681640625
0, 1, 71, 1500.588134765625
0, 1, 72, 1432.259765625
0, 1, 73, 1486.415161132812
0, 1, 74, 1470.138305664062
0, 1, 75, 1476.277221679688
0, 1, 76, 1450.908569335938
0, 1, 77, 1467.75732421875
0, 1, 78, 1447.4345703125
0, 1, 79, 1501.755737304688
0, 1, 80, 1444.764038085938
0, 1, 81, 1423.556518554688
0, 1, 82, 1477.92333984375
0, 1, 83, 1462.49462890625
0, 1, 84, 1535.821899414062
0, 1, 85, 1449.168090820312
0, 1, 86, 1403.881958007812
0, 1, 87, 1424.561767578125
0, 1, 88, 1476.856323242188
0, 1, 89, 1474.5185546875
0, 1, 90, 1423.322387695312
0, 1, 91, 1461.04052734375
0, 1, 92, 1411.637573242188
0, 1, 93, 1460.79248046875
0, 1, 94, 1468.158203125
0, 1, 95, 1427.212768554688
0, 1, 96, 1493.526000976562
0, 1, 97, 1515.49267578125
0, 1, 98, 1475.601684570312
0, 1, 99, 1423.202880859375
0, 1, 100, 1448.095947265625
0, 1, 101, 1413.433349609375
0, 1, 102, 1440.482788085938
0, 1, 103, 1416.135131835938
0, 1, 104, 1406.728149414062
0, 1, 105, 1464.013549804688
0, 1, 106, 1362.917358398438
0, 1, 107, 1019.523742675781
0, 1, 108, 408.5394592285156
0, 1, 109, 92.50861358642578
0, 1, 110, 64.60997772216797
0, 1, 111, 57.92082595825195
0, 1, 112, 46.73347854614258
0, 1, 113, 39.77535629272461
0, 1, 114, 41.37577819824219
0, 1, 115, 37.25594711303711
0, 1, 116, 34.95540618896484
0, 1, 117, 37.51679992675781
0, 1, 118, 37.16497421264648
0, 1, 119, 31.35092353820801
0, 1, 120, 27.7093505859375
0, 1, 121, 26.87502861022949
0, 1, 122, 23.9027099609375
0, 1, 123, 28.62735557556152
0, 1, 124, 27.91079521179199
0, 1, 125, 21.16980361938477
0, 1, 126, 14.48512077331543
0, 1, 127, 20.43022155761719
0, 2, 0, 15.28323459625244
0, 2, 1, 19.52927589416504
0, 2, 2, 20.33029747009277
0, 2, 3, 17.9277458190918
0, 2, 4, 22.4277229309082
0, 2, 5, 22.56063842773438
0, 2, 6, 23.35988235473633
0, 2, 7, 23.82536315917969
0, 2, 8, 26.45839500427246
0, 2, 9, 34.23755264282227
0, 2, 10, 28.57397651672363
0, 2, 11, 32.82439041137695
0, 2, 12, 40.55094528198242
0, 2, 13, 44.20452499389648
0, 2, 14, 48.58676910400391
0, 2, 15, 51.51396942138672
0, 2, 16, 63.64532852172852
0, 2, 17, 78.84716796875
0, 2, 18, 145.6715240478516
0, 2, 19, 609.8452758789062
0, 2, 20, 1281.000854492188
0, 2, 21, 1438.136596679688
0, 2, 22, 1451.720825195312
0, 2, 23, 1400.547729492188
0, 2, 24, 1438.235595703125
0, 2, 25, 1519.330200195312
0, 2, 26, 1550.802978515625
0, 2, 27, 1451.978637695312
0, 2, 28, 1462.255737304688
0, 2, 29, 1462.19580078125
0, 2, 30, 1462.720336914062
0, 2, 31, 1533.244750976562
0, 2, 32, 1508.160034179688
0, 2, 33, 1444.991943359375
0, 2, 34, 1475.428344726562
0, 2, 35, 1471.172729492188
0, 2, 36, 1522.0693359375
0, 2, 37, 1544.253051757812
0, 2, 38, 1509.160034179688
0, 2, 39, 1468.1015625
0, 2, 40, 1505.8515625
0, 2, 41, 1512.91162109375
0, 2, 42, 1501.368408203125
0, 2, 43, 1547.760864257812
0, 2, 44, 1455.368530273438
0, 2, 45, 1482.444458007812
0, 2, 46, 1431.565795898438
0, 2, 47, 1448.8203125
0, 2, 48, 1400.625854492188
0, 2, 49, 1464.267944335938
0, 2, 50, 1451.677368164062
0, 2, 51, 1445.560180664062
0, 2, 52, 1489.877563476562
0, 2, 53, 1523.085571289062
0, 2, 54, 1523.094482421875
0, 2, 55, 1488.845581054688
0, 2, 56, 1461.850952148438
0, 2, 57, 1415.98095703125
0, 2, 58, 1463.308959960938
0, 2, 59, 1448.784423828125
0, 2, 60, 1472.02734375
0, 2, 61, 1449.189453125
0, 2, 62, 1469.91943359375
0, 2, 63, 1509.508422851562
0, 2, 64, 1458.916259765625
0, 2, 65, 1424.074584960938
0, 2, 66, 1490.325805664062
0, 2, 67, 1506.75830078125
0, 2, 68, 1538.333618164062
0, 2, 69, 1539.083129882812
0, 2, 70, 1502.497802734375
0, 2, 71, 1457.795776367188
0, 2, 72, 1517.045776367188
0, 2, 73, 1517.11474609375
0, 2, 74, 1490.610961914062
0, 2, 75, 1507.808715820312
0, 2, 76, 1450.874633789062
0, 2, 77, 1506.103149414062
0, 2, 78, 1431.617065429688
0, 2, 79, 1536.069946289062
0, 2, 80, 1483.348266601562
0, 2, 81, 1464.166748046875
0, 2, 82, 1555.831176757812
0, 2, 83, 1519.87939453125
0, 2, 84, 1495.970947265625
0, 2, 85, 1509.859985351562
0, 2, 86, 1535.8974609375
0, 2, 87, 1490.820068359375
0, 2, 88, 1538.11767578125
0, 2, 89, 1464.12451171875
0, 2, 90, 1429.21240234375
0, 2, 91, 1406.298095703125
0, 2, 92, 1478.272583007812
0, 2, 93, 1489.134765625
0, 2, 94, 1454.4423828125
0, 2, 95, 1546.15673828125
0, 2, 96, 1519.6650390625
0, 2, 97, 1457.081176757812
0, 2, 98, 1465.909790039062
0, 2, 99, 1401.79736328125
0, 2, 100, 1473.428833007812
0, 2, 101, 1478.369140625
0, 2, 102, 1465.534790039062
0, 2, 103, 1391.132202148438
0, 2, 104, 1409.505126953125
0, 2, 105, 1394.423583984375
0, 2, 106, 1459.168090820312
0, 2, 107, 1275.053344726562
0, 2, 108, 625.9197998046875
0, 2, 109, 171.9548492431641
0, 2, 110, 69.93342590332031
0, 2, 111, 63.59971237182617
0, 2, 112, 50.99770736694336
0, 2, 113, 46.44700241088867
0, 2, 114, 39.5565299987793
0, 2, 115, 38.25152206420898
0, 2, 116, 36.62346267700195
0, 2, 117, 30.72700309753418
0, 2, 118, 30.45897102355957
0, 2, 119, 31.34466743469238
0, 2, 120, 28.58386039733887
0, 2, 121, 20.84497451782227
0, 2, 122, 28.18423271179199
0, 2, 123, 21.0629825592041
0, 2, 124, 22.54167175292969
0, 2, 125, 28.38129806518555
0, 2, 126, 20.36506652832031
0, 2, 127, 23.53736686706543
0, 3, 0, 17.4615592956543
0, 3, 1, 22.76612854003906
0, 3, 2, 20.30731391906738
0, 3, 3, 23.75704956054688
0, 3, 4, 24.74590301513672
0, 3, 5, 27.5720272064209
0, 3, 6, 29.47251510620117
0, 3, 7, 26.80665588378906
0, 3, 8, 29.39597511291504
0, 3, 9, 26.91439437866211
0, 3, 10, 35.74626159667969
0, 3, 11, 33.90648651123047
0, 3, 12, 42.76022338867188
0, 3, 13, 47.52217102050781
0, 3, 14, 53.76603698730469
0, 3, 15, 58.41969680786133
0, 3, 16, 66.00695037841797
0, 3, 17, 87.3865966796875
0, 3, 18, 240.2336273193359
0, 3, 19, 873.69970703125
0, 3, 20, 1386.936279296875
0, 3, 21, 1504.422729492188
0, 3, 22, 1460.233520507812
0, 3, 23, 1453.171997070312
0, 3, 24, 1437.32470703125
0, 3, 25, 1467.691772460938
0, 3, 26, 1498.831665039062
0, 3, 27, 1465.544189453125
0, 3, 28, 1486.951171875
0, 3, 29, 1543.41650390625
0, 3, 30, 1567.413696289062
0, 3, 31, 1515.818725585938
0, 3, 32, 1542.953002929688
0, 3, 33, 1536.60693359375
0, 3, 34, 1487.962158203125
0, 3, 35, 1459.4052734375
0, 3, 36, 1454.81787109375
0, 3, 37, 1515.805786132812
0, 3, 38, 1519.101806640625
0, 3, 39, 1444.886352539062
0, 3, 40, 1438.744995117188
0, 3, 41, 1567.28271484375
0, 3, 42, 1459.232788085938
0, 3, 43, 1456.399291992188
0, 3, 44, 1449.46484375
0, 3, 45, 1510.893676757812
0, 3, 46, 1502.533569335938
0, 3, 47, 1441.332763671875
0, 3, 48, 1512.475341796875
0, 3, 49, 1449.09716796875
0, 3, 50, 1490.020141601562
0, 3, 51, 1546.55712890625
0, 3, 52, 1541.935302734375
0, 3, 53, 1466.042114257812
0, 3, 54, 1533.69482421875
0, 3, 55, 1500.671752929688
0, 3, 56, 1439.998779296875
0, 3, 57, 1506.782104492188
0, 3, 58, 1514.607055664062
0, 3, 59, 1505.968505859375
0, 3, 60, 1530.352661132812
0, 3, 61, 1480.399780273438
0, 3, 62, 1491.093872070312
0, 3, 63, 1492.07177734375
0, 3, 64, 1498.388427734375
0, 3, 65, 1514.271362304688
0, 3, 66, 1558.647583007812
0, 3, 67, 1548.44580078125
0, 3, 68, 1448.769653320312
0, 3, 69, 1473.500610351562
0, 3, 70, 1390.738891601562
0, 3, 71, 1466.366577148438
0, 3, 72, 1549.075561523438
0, 3, 73, 1503.853881835938
0, 3, 74, 1465.670532226562
0, 3, 75, 1458.506591796875
0, 3, 76, 1572.404174804688
0, 3, 77, 1541.413452148438
0, 3, 78, 1429.503051757812
0, 3, 79, 1492.552490234375
0, 3, 80, 1460.820434570312
0, 3, 81, 1472.754028320312
0, 3, 82, 1555.072509765625
0, 3, 83, 1510.574340820312
0, 3, 84, 1556.415283203125
0, 3, 85, 1476.4296875
0, 3, 86, 1525.698974609375
0, 3, 87, 1536.97998046875
0, 3, 88, 1461.548706054688
0, 3, 89, 1447.129272460938
0, 3, 90, 1447.115966796875
0, 3, 91, 1422.380737304688
0, 3, 92, 1512.371337890625
0, 3, 93, 1502.220581054688
0, 3, 94, 1513.466674804688
0, 3, 95, 1541.53466796875
0, 3, 96, 1510.73681640625
0, 3, 97, 1459.0166015625
0, 3, 98, 1435.120361328125
0, 3, 99, 1459.264038085938
0, 3, 100, 1470.02734375
0, 3, 101, 1472.206909179688
0, 3, 102, 1518.791748046875
0, 3, 103, 1551.324829101562
0, 3, 104, 1500.757934570312
0, 3, 105, 1518.373413085938
0, 3, 106, 1478.762329101562
0, 3, 107, 1338.511108398438
0, 3, 108, 872.998291015625
0, 3, 109, 263.7397766113281
0, 3, 110, 105.1259307861328
0, 3, 111, 61.68960952758789
0, 3, 112, 63.92850112915039
0, 3, 113, 58.21614074707031
0, 3, 114, 53.89655303955078
0, 3, 115, 52.66614532470703
0, 3, 116, 34.87474060058594
0, 3, 117, 40.32084655761719
0, 3, 118, 36.50178909301758
0, 3, 119, 26.66604232788086
0, 3, 120, 36.07945251464844
0, 3, 121, 18.78106689453125
0, 3, 122, 26.80659484863281
0, 3, 123, 29.01920509338379
0, 3, 124, 24.33465003967285
0, 3, 125, 24.8676643371582
0, 3, 126, 22.73275375366211
0, 3, 127, 16.37153244018555
0, 4, 0, 19.42501640319824
0, 4, 1, 29.2127628326416
0, 4, 2, 20.7587890625
0, 4, 3, 21.12206840515137
0, 4, 4, 23.00281715393066
0, 4, 5, 26.04942512512207
0, 4, 6, 33.7891960144043
0, 4, 7, 38.70721054077148
0, 4, 8, 28.75191688537598
0, 4, 9, 35.1700325012207
0, 4, 10, 37.81926727294922
0, 4, 11, 37.74086380004883
0, 4, 12, 50.65785217285156
0, 4, 13, 50.96392059326172
0, 4, 14, 48.82067489624023
0, 4, 15, 65.39162445068359
0, 4, 16, 72.87326049804688
0, 4, 17, 114.9065093994141
0, 4, 18, 440.1330261230469
0, 4, 19, 1177.245849609375
0, 4, 20, 1439.516357421875
0, 4, 21, 1423.882080078125
0, 4, 22, 1434.628295898438
0, 4, 23, 1451.277587890625
0, 4, 24, 1474.772827148438
0, 4, 25, 1408.914184570312
0, 4, 26, 1536.870971679688
0, 4, 27, 1544.453735351562
0, 4, 28, 1506.14013671875
0, 4, 29, 1511.16796875
0, 4, 30, 1525.052978515625
0, 4, 31, 1572.408325195312
0, 4, 32, 1518.8525390625
0, 4, 33, 1491.25732421875
0, 4, 34, 1471.084716796875
0, 4, 35, 1558.553955078125
0, 4, 36, 1504.019775390625
0, 4, 37, 1507.523803710938
0, 4, 38, 1532.1298828125
0, 4, 39, 1466.535034179688
0, 4, 40, 1518.78857421875
0, 4, 41, 1586.7412109375
0, 4, 42, 1564.468383789062
0, 4, 43, 1472.27001953125
0, 4, 44, 1499.618896484375
0, 4, 45, 1520.734497070312
0, 4, 46, 1471.989868164062
0, 4, 47, 1504.703125
0, 4, 48, 1524.52734375
0, 4, 49, 1469.335327148438
0, 4, 50, 1520.435424804688
0, 4, 51, 1486.459838867188
0, 4, 52, 1495.248046875
0, 4, 53, 1454.91259765625
0, 4, 54, 1443.611083984375
0, 4, 55, 1528.008056640625
0, 4, 56, 1457.37744140625
0, 4, 57, 1493.105224609375
0, 4, 58, 1456.49755859375
0, 4, 59, 1458.716918945312
0, 4, 60, 1527.902099609375
0, 4, 61, 1499.840576171875
0, 4, 62, 1512.048706054688
0, 4, 63, 1544.692138671875
0, 4, 64, 1590.68603515625
0, 4, 65, 1426.60205078125
0, 4, 66, 1514.459838867188
0, 4, 67, 1526.447265625
0, 4, 68, 1496.498779296875
0, 4, 69, 1468.492919921875
0, 4, 70, 1547.322509765625
0, 4, 71, 1520.354614257812
0, 4, 72, 1533.150146484375
0, 4, 73, 1492.322387695312
0, 4, 74, 1490.152099609375
0, 4, 75, 1534.1123046875
0, 4, 76, 1480.705444335938
0, 4, 77, 1498.657470703125
0, 4, 78, 1499.887329101562
0, 4, 79, 1480.236450195312
0, 4, 80, 1516.302124023438
0, 4, 81, 1521.791381835938
0, 4, 82, 1563.69775390625
0, 4, 83, 1506.1064453125
0, 4, 84, 1538.113159179688
0, 4, 85, 1549.262573242188
0, 4, 86, 1529.405883789062
0, 4, 87, 1497.86767578125
0, 4, 88, 1517.562866210938
0, 4, 89, 1487.101928710938
0, 4, 90, 1543.25537109375
0, 4, 91, 1560.872924804688
0, 4, 92, 1496.398315429688
0, 4, 93, 1514.702880859375
0, 4, 94, 1484.203369140625
0, 4, 95, 1514.267211914062
0, 4, 96, 1441.79638671875
0, 4, 97, 1408.988525390625
0, 4, 98, 1552.016723632812
0, 4, 99, 1504.389404296875
0, 4, 100, 1497.202880859375
0, 4, 101, 1448.57666015625
0, 4, 102, 1448.269897460938
0, 4, 103, 1512.6484375
0, 4, 104, 1507.539428710938
0, 4, 105, 1557.529907226562
0, 4, 106, 1476.857421875
0, 4, 107, 1455.745239257812
0, 4, 108, 1117.480224609375
0, 4, 109, 437.9650573730469
0, 4, 110, 98.89202117919922
0, 4, 111, 67.03617095947266
0, 4, 112, 57.90625381469727
0, 4, 113, 48.41212844848633
0, 4, 114, 56.59773254394531
0, 4, 115, 46.06961059570312
0, 4, 116, 37.78995895385742
0, 4, 117, 40.58369445800781
0, 4, 118, 46.91401290893555
0, 4, 119, 42.42313385009766
0, 4, 120, 34.28606796264648
0, 4, 121, 31.14720153808594
0, 4, 122, 30.12331962585449
0, 4, 123, 23.5963077545166
0, 4, 124, 19.00381851196289
0, 4, 125, 28.34197807312012
0, 4, 126, 20.71918106079102
0, 4, 127, 23.57201385498047
0, 5, 0, 21.65158653259277
0, 5, 1, 24.66745376586914
0, 5, 2, 26.93549156188965
0, 5, 3, 22.64162254333496
0, 5, 4, 18.36348152160645
0, 5, 5, 32.07016372680664
0, 5, 6, 32.39557266235352
0, 5, 7, 29.99206733703613
0, 5, 8, 31.33343124389648
0, 5, 9, 29.46434783935547
0, 5, 10, 33.61842346191406
0, 5, 11, 38.35757064819336
0, 5, 12, 37.53256988525391
0, 5, 13, 48.86692047119141
0, 5, 14, 65.19004821777344
0, 5, 15, 79.69537353515625
0, 5, 16, 85.44072723388672
0, 5, 17, 156.8755645751953
0, 5, 18, 680.3265380859375
0, 5, 19, 1345.7314453125
0, 5, 20, 1530.151245117188
0, 5, 21, 1496.516479492188
0, 5, 22, 1492.923095703125
0, 5, 23, 1529.499389648438
0, 5, 24, 1471.4140625
0, 5, 25, 1423.814453125
0, 5, 26, 1525.3935546875
0, 5, 27, 1541.225708007812
0, 5, 28, 1485.110961914062
0, 5, 29, 1521.883544921875
0, 5, 30, 1503.116943359375
0, 5, 31, 1503.499145507812
0, 5, 32, 1594.906005859375
0, 5, 33, 1504.662475585938
0, 5, 34, 1483.030029296875
0, 5, 35, 1512.944091796875
0, 5, 36, 1442.808349609375
0, 5, 37, 1527.009399414062
0, 5, 38, 1545.183837890625
0, 5, 39, 1549.82861328125
0, 5, 40, 1496.593139648438
0, 5, 41, 1479.057861328125
0, 5, 42, 1540.439575195312
0, 5, 43, 1534.7607421875
0, 5, 44, 1543.002563476562
0, 5, 45, 1505.968627929688
0, 5, 46, 1486.2275390625
0, 5, 47, 1485.432373046875
0, 5, 48, 1502.899047851562
0, 5, 49, 1521.074584960938
0, 5, 50, 1500.781127929688
0, 5, 51, 1520.427001953125
0, 5, 52, 1431.283203125
0, 5, 53, 1522.891235351562
0, 5, 54, 1517.398559570312
0, 5, 55, 1528.885009765625
0, 5, 56, 1484.792358398438
0, 5, 57, 1536.65625
0, 5, 58, 1506.955078125
0, 5, 59, 1486.110717773438
0, 5, 60, 1534.632202148438
0, 5, 61, 1454.718627929688
0, 5, 62, 1579.222045898438
0, 5, 63, 1436.12744140625
0, 5, 64, 1486.6826171875
0, 5, 65, 1460.782836914062
0, 5, 66, 1527.0712890625
0, 5, 67, 1558.068359375
0, 5, 68, 1462.040405273438
0, 5, 69, 1475.9912109375
0, 5, 70, 1489.585083007812
0, 5, 71, 1470.021850585938
0, 5, 72, 1540.188232421875
0, 5, 73, 1461.439086914062
0, 5, 74, 1491.599609375
0, 5, 75, 1485.422607421875
0, 5, 76, 1477.959594726562
0, 5, 77, 1518.380493164062
0, 5, 78, 1530.238403320312
0, 5, 79, 1514.8203125
0, 5, 80, 1521.176147460938
0, 5, 81, 1592.9501953125
0, 5, 82, 1524.193969726562
0, 5, 83, 1492.1064453125
0, 5, 84, 1535.778198242188
0, 5, 85, 1511.033325195312
0, 5, 86, 1557.512939453125
0, 5, 87, 1477.140014648438
0, 5, 88, 1498.484130859375
0, 5, 89, 1483.95458984375
0, 5, 90, 1478.522827148438
0, 5, 91, 1550.11865234375
0, 5, 92, 1481.559326171875
0, 5, 93, 1557.009399414062
0, 5, 94, 1511.398681640625
0, 5, 95, 1563.06298828125
0, 5, 96, 1497.0732421875
0, 5, 97, 1506.733032226562
0, 5, 98, 1510.614868164062
0, 5, 99, 1545.034057617188
0, 5, 100, 1434.298706054688
0, 5, 101, 1425.355590820312
0, 5, 102, 1513.137939453125
0, 5, 103, 1475.680297851562
0, 5, 104, 1460.831298828125
0, 5, 105, 1491.488159179688
0, 5, 106, 1453.198852539062
0, 5, 107, 1403.657470703125
0, 5, 108, 1289.82568359375
0, 5, 109, 725.8369750976562
0, 5, 110, 191.4989318847656
0, 5, 111, 88.60592651367188
0, 5, 112, 81.21515655517578
0, 5, 113, 66.16879272460938
0, 5, 114, 62.5306282043457
0, 5, 115, 51.5830192565918
0, 5, 116, 45.54545211791992
0, 5, 117, 33.23759078979492
0, 5, 118, 39.13122940063477
0, 5, 119, 25.76693153381348
0, 5, 120, 29.78292465209961
0, 5, 121, 25.98944091796875
0, 5, 122, 27.37880897521973
0, 5, 123, 26.98192977905273
0, 5, 124, 30.1884651184082
0, 5, 125, 23.06734466552734
0, 5, 126, 18.10787200927734
0, 5, 127, 29.60647010803223
0, 6, 0, 23.38168716430664
0, 6, 1, 28.76347732543945
0, 6, 2, 28.1678466796875
0, 6, 3, 28.96004676818848
0, 6, 4, 23.91400337219238
0, 6, 5, 37.62545776367188
0, 6, 6, 34.53856658935547
0, 6, 7, 29.99929237365723
0, 6, 8, 32.29695892333984
0, 6, 9, 32.66494369506836
0, 6, 10, 35.34620666503906
0, 6, 11, 45.11290740966797
0, 6, 12, 39.80075454711914
0, 6, 13, 65.72123718261719
0, 6, 14, 62.83206176757812
0, 6, 15, 85.22550201416016
0, 6, 16, 109.3020095825195
0, 6, 17, 299.73095703125
0, 6, 18, 897.0243530273438
0, 6, 19, 1377.233642578125
0, 6, 20, 1440.848510742188
0, 6, 21, 1529.282958984375
0, 6, 22, 1503.838500976562
0, 6, 23, 1530.384155273438
0, 6, 24, 1474.968627929688
0, 6, 25, 1524.240112304688
0, 6, 26, 1519.265991210938
0, 6, 27, 1524.922729492188
0, 6, 28, 1552.131958007812
0, 6, 29, 1576.419921875
0, 6, 30, 1508.706787109375
0, 6, 31, 1489.143798828125
0, 6, 32, 1531.234375
0, 6, 33, 1490.545532226562
0, 6, 34, 1566.957397460938
0, 6, 35, 1500.26025390625
0, 6, 36, 1438.249877929688
0, 6, 37, 1544.71826171875
0, 6, 38, 1522.304809570312
0, 6, 39, 1523.30078125
0, 6, 40, 1453.21044921875
0, 6, 41, 1437.63623046875
0, 6, 42, 1514.174072265625
0, 6, 43, 1493.176025390625
0, 6, 44, 1437.95849609375
0, 6, 45, 1556.021850585938
0, 6, 46, 1551.8369140625
0, 6, 47, 1502.951171875
0, 6, 48, 1524.435791015625
0, 6, 49, 1512.765625
0, 6, 50, 1577.272094726562
0, 6, 51, 1502.890747070312
0, 6, 52, 1563.765991210938
0, 6, 53, 1470.953491210938
0, 6, 54, 1497.463256835938
0, 6, 55, 1570.431274414062
0, 6, 56, 1526.974853515625
0, 6, 57, 1509.25
0, 6, 58, 1467.113037109375
0, 6, 59, 1523.093627929688
0, 6, 60, 1473.688232421875
0, 6, 61, 1567.575073242188
0, 6, 62, 1543.671997070312
0, 6, 63, 1494.026611328125
0, 6, 64, 1409.657104492188
0, 6, 65, 1497.248413085938
0, 6, 66, 1512.78076171875
0, 6, 67, 1510.739868164062
0, 6, 68, 1547.919677734375
0, 6, 69, 1485.0224609375
0, 6, 70, 1522.584716796875
0, 6, 71, 1464.678344726562
0, 6, 72, 1600.612060546875
0, 6, 73, 1488.354614257812
0, 6, 74, 1561.106567382812
0, 6, 75, 1541.041137695312
0, 6, 76, 1570.234985351562
0, 6, 77, 1500.1279296875
0, 6, 78, 1443.55419921875
0, 6, 79, 1557.734619140625
0, 6, 80, 1480.775146484375
0, 6, 81, 1484.257690429688
0, 6, 82, 1498.005615234375
0, 6, 83, 1526.14990234375
0, 6, 84, 1516.461791992188
0, 6, 85, 1541.15673828125
0, 6, 86, 1540.410522460938
0, 6, 87, 1574.880859375
0, 6, 88, 1472.795776367188
0, 6, 89, 1563.985595703125
0, 6, 90, 1492.609130859375
0, 6, 91, 1539.989990234375
0, 6, 92, 1486.57568359375
0, 6, 93, 1497.666870117188
0, 6, 94, 1468.607666015625
0, 6, 95, 1509.479248046875
0, 6, 96, 1518.684936523438
0, 6, 97, 1506.039428710938
0, 6, 98, 1494.949462890625
0, 6, 99, 1483.293212890625
0, 6, 100, 1522.166015625
0, 6, 101, 1518.891357421875
0, 6, 102, 1541.64404296875
0, 6, 103, 1496.712646484375
0, 6, 104, 1464.800415039062
0, 6, 105, 1483.83544921875
0, 6, 106, 1498.626342773438
0, 6, 107, 1497.717529296875
0, 6, 108, 1409.88818359375
0, 6, 109, 920.6482543945312
0, 6, 110, 280.6584167480469
0, 6, 111, 91.25527954101562
0, 6, 112, 74.68644714355469
0, 6, 113, 60.54506301879883
0, 6, 114, 53.13124084472656
0, 6, 115, 46.66210556030273
0, 6, 116, 39.83795547485352
0, 6, 117, 40.28319931030273
0, 6, 118, 40.89999771118164
0, 6, 119, 30.11785697937012
0, 6, 120, 28.99944305419922
0, 6, 121, 26.82722091674805
0, 6, 122, 26.76006126403809
0, 6, 123, 24.55579566955566
0, 6, 124, 35.91445922851562
0, 6, 125, 29.30300712585449
0, 6, 126, 18.69286155700684
0, 6, 127, 18.93924903869629
0, 7, 0, 23.28278732299805
0, 7, 1, 30.2991828918457
0, 7, 2, 23.45219230651855
0, 7, 3, 25.6952075958252
0, 7, 4, 26.74916458129883
0, 7, 5, 38.3397331237793
0, 7, 6, 32.94358444213867
0, 7, 7, 35.52130889892578
0, 7, 8, 26.40999031066895
0, 7, 9, 36.37195587158203
0, 7, 10, 45.64595031738281
0, 7, 11, 47.20466995239258
0, 7, 12, 46.07814788818359
0, 7, 13, 47.35191345214844
0, 7, 14, 66.95121002197266
0, 7, 15, 75.83430480957031
0, 7, 16, 131.2102355957031
0, 7, 17, 457.7649536132812
0, 7, 18, 1101.843139648438
0, 7, 19, 1500.629638671875
0, 7, 20, 1484.32958984375
0, 7, 21, 1365.8720703125
0, 7, 22, 1486.318237304688
0, 7, 23, 1456.26806640625
0, 7, 24, 1514.095581054688
0, 7, 25, 1593.412231445312
0, 7, 26, 1516.543579101562
0, 7, 27, 1507.270874023438
0, 7, 28, 1542.817749023438
0, 7, 29, 1575.283813476562
0, 7, 30, 1543.453002929688
0, 7, 31, 1439.368774414062
0, 7, 32, 1540.593505859375
0, 7, 33, 1494.81005859375
0, 7, 34, 1487.241821289062
0, 7, 35, 1523.923461914062
0, 7, 36, 1471.411010742188
0, 7, 37, 1600.791748046875
0, 7, 38, 1502.310424804688
0, 7, 39, 1492.953979492188
0, 7, 40, 1544.294799804688
0, 7, 41, 1463.391967773438
0, 7, 42, 1491.485961914062
0, 7, 43, 1442.29736328125
0, 7, 44, 1489.401123046875
0, 7, 45, 1469.758544921875
0, 7, 46, 1512.220336914062
0, 7, 47, 1563.76708984375
0, 7, 48, 1528.662353515625
0, 7, 49, 1540.932739257812
0, 7, 50, 1514.122314453125
0, 7, 51, 1498.637451171875
0, 7, 52, 1516.928588867188
0, 7, 53, 1498.73583984375
0, 7, 54, 1586.910522460938
0, 7, 55, 1471.545532226562
0, 7, 56, 1549.513793945312
0, 7, 57, 1510.532958984375
0, 7, 58, 1545.853637695312
0, 7, 59, 1542.181640625
0, 7, 60, 1547.673828125
0, 7, 61, 1490.6826171875
0, 7, 62, 1437.531982421875
0, 7, 63, 1514.121948242188
0, 7, 64, 1545.211059570312
0, 7, 65, 1526.309326171875
0, 7, 66, 1533.679931640625
0, 7, 67, 1578.431640625
0, 7, 68, 1532.298583984375
0, 7, 69, 1515.6953125
0, 7, 70, 1498.686401367188
0, 7, 71, 1516.579223632812
0, 7, 72, 1520.043579101562
0, 7, 73, 1519.4599609375
0, 7, 74, 1567.93359375
0, 7, 75, 1538.566284179688
0, 7, 76, 1560.495239257812
0, 7, 77, 1510.533081054688
0, 7, 78, 1507.7021484375
0, 7, 79, 1424.676513671875
0, 7, 80, 1491.989868164062
0, 7, 81, 1494.90087890625
0, 7, 82, 1532.016967773438
0, 7, 83, 1543.627563476562
0, 7, 84, 1583.255737304688
0, 7, 85, 1474.439575195312
0, 7, 86, 1503.069946289062
0, 7, 87, 1511.375
0, 7, 88, 1496.8359375
0, 7, 89, 1555.1044921875
0, 7, 90, 1521.218505859375
0, 7, 91, 1560.152587890625
0, 7, 92, 1533.218139648438
0, 7, 93, 1556.553100585938
0, 7, 94, 1541.049682617188
0, 7, 95, 1506.461547851562
0, 7, 96, 1508.212524414062
0, 7, 97, 1433.60986328125
0, 7, 98, 1487.133056640625
0, 7, 99, 1528.102661132812
0, 7, 100, 1419.110107421875
0, 7, 101, 1466.0390625
0, 7, 102, 1449.375732421875
0, 7, 103, 1428.279174804688
0, 7, 104, 1490.448364257812
0, 7, 105, 1523.095092773438
0, 7, 106, 1569.052978515625
0, 7, 107, 1485.037719726562
0, 7, 108, 1411.626342773438
0, 7, 109, 1140.684936523438
0, 7, 110, 471.4002075195312
0, 7, 111, 129.0790405273438
0, 7, 112, 81.09279632568359
0, 7, 113, 68.32232666015625
0, 7, 114, 58.53296279907227
0, 7, 115, 51.07568740844727
0, 7, 116, 48.8366813659668
0, 7, 117, 44.98652267456055
0, 7, 118, 33.73562622070312
0, 7, 119, 38.84854125976562
0, 7, 120, 23.57931709289551
0, 7, 121, 31.57434463500977
0, 7, 122, 35.70136260986328
0, 7, 123, 38.87989807128906
0, 7, 124, 32.9120979309082
0, 7, 125, 26.42678833007812
0, 7, 126, 23.84662246704102
0, 7, 127, 24.42875099182129
0, 8, 0, 21.57285690307617
0, 8, 1, 18.88013648986816
0, 8, 2, 23.21940803527832
0, 8, 3, 27.62017631530762
0, 8, 4, 27.55902290344238
0, 8, 5, 28.56070327758789
0, 8, 6, 32.10699844360352
0, 8, 7, 28.71260643005371
0, 8, 8, 33.41557693481445
0, 8, 9, 45.80489730834961
0, 8, 10, 41.04815673828125
0, 8, 11, 46.74005889892578
0, 8, 12, 60.94154357910156
0, 8, 13, 70.17576599121094
0, 8, 14, 67.23591613769531
0, 8, 15, 84.17892456054688
0, 8, 16, 170.8845062255859
0, 8, 17, 678.5531616210938
0, 8, 18, 1276.93359375
0, 8, 19, 1447.591552734375
0, 8, 20, 1424.893798828125
0, 8, 21, 1413.201904296875
0, 8, 22, 1495.2275390625
0, 8, 23, 1480.572265625
0, 8, 24, 1434.060180664062
0, 8, 25, 1452.790649414062
0, 8, 26, 1516.830810546875
0, 8, 27, 1527.14501953125
0, 8, 28, 1476.223754882812
0, 8, 29, 1504.828857421875
0, 8, 30, 1486.409545898438
0, 8, 31, 1540.395629882812
0, 8, 32, 1509.98193359375
0, 8, 33, 1484.425537109375
0, 8, 34, 1532.34326171875
0, 8, 35, 1440.428466796875
0, 8, 36, 1499.665771484375
0, 8, 37, 1555.888061523438
0, 8, 38, 1551.358032226562
0, 8, 39, 1497.926147460938
0, 8, 40, 1526.991821289062
0, 8, 41, 1481.841918945312
0, 8, 42, 1541.336669921875
0, 8, 43, 1429.767211914062
0, 8, 44, 1533.607177734375
0, 8, 45, 1513.196411132812
0, 8, 46, 1597.022827148438
0, 8, 47, 1582.686157226562
0, 8, 48, 1544.486572265625
