# TOPAS Version: 3.1.p3
# Parameter File: batch_inserts_58.txt
# Results for scorer Readout_Adipose
# Scored in component: MyBox
# X in 1 bin  of 0.75 cm
# Y in 512 bins of 0.0783984 cm
# Z in 128 bins of 0.078125 cm
# EnergyDeposit ( MeV ) : Sum   
0, 0, 0, 22.93502044677734
0, 0, 1, 17.96871757507324
0, 0, 2, 26.70937156677246
0, 0, 3, 26.0487174987793
0, 0, 4, 21.24542999267578
0, 0, 5, 22.93789482116699
0, 0, 6, 22.00509643554688
0, 0, 7, 33.11841201782227
0, 0, 8, 24.8272533416748
0, 0, 9, 24.36365699768066
0, 0, 10, 26.75768661499023
0, 0, 11, 27.58447647094727
0, 0, 12, 34.84675979614258
0, 0, 13, 29.04083061218262
0, 0, 14, 34.955078125
0, 0, 15, 44.08286285400391
0, 0, 16, 45.03971099853516
0, 0, 17, 45.30197525024414
0, 0, 18, 71.77969360351562
0, 0, 19, 188.9090576171875
0, 0, 20, 697.237060546875
0, 0, 21, 1193.314697265625
0, 0, 22, 1249.139038085938
0, 0, 23, 1273.3388671875
0, 0, 24, 1281.2919921875
0, 0, 25, 1352.564697265625
0, 0, 26, 1271.109741210938
0, 0, 27, 1281.775512695312
0, 0, 28, 1320.073120117188
0, 0, 29, 1269.232299804688
0, 0, 30, 1265.987060546875
0, 0, 31, 1280.6611328125
0, 0, 32, 1268.892700195312
0, 0, 33, 1243.268310546875
0, 0, 34, 1326.237548828125
0, 0, 35, 1306.03515625
0, 0, 36, 1239.394409179688
0, 0, 37, 1280.580810546875
0, 0, 38, 1247.50146484375
0, 0, 39, 1242.650390625
0, 0, 40, 1226.603149414062
0, 0, 41, 1272.256103515625
0, 0, 42, 1252.734741210938
0, 0, 43, 1266.974487304688
0, 0, 44, 1224.330932617188
0, 0, 45, 1288.9921875
0, 0, 46, 1260.921875
0, 0, 47, 1240.53564453125
0, 0, 48, 1276.173828125
0, 0, 49, 1285.283813476562
0, 0, 50, 1309.122436523438
0, 0, 51, 1266.416015625
0, 0, 52, 1356.998046875
0, 0, 53, 1324.720825195312
0, 0, 54, 1298.400268554688
0, 0, 55, 1233.0810546875
0, 0, 56, 1323.834350585938
0, 0, 57, 1292.948974609375
0, 0, 58, 1255.569702148438
0, 0, 59, 1330.447021484375
0, 0, 60, 1327.534301757812
0, 0, 61, 1263.062377929688
0, 0, 62, 1248.770874023438
0, 0, 63, 1279.238159179688
0, 0, 64, 1327.40087890625
0, 0, 65, 1284.790161132812
0, 0, 66, 1315.982543945312
0, 0, 67, 1215.030151367188
0, 0, 68, 1306.086791992188
0, 0, 69, 1325.464477539062
0, 0, 70, 1343.804321289062
0, 0, 71, 1289.174560546875
0, 0, 72, 1313.028686523438
0, 0, 73, 1237.276733398438
0, 0, 74, 1290.655639648438
0, 0, 75, 1296.2958984375
0, 0, 76, 1254.30859375
0, 0, 77, 1290.454467773438
0, 0, 78, 1317.917724609375
0, 0, 79, 1323.14404296875
0, 0, 80, 1258.706909179688
0, 0, 81, 1322.811157226562
0, 0, 82, 1287.866943359375
0, 0, 83, 1291.676879882812
0, 0, 84, 1324.896118164062
0, 0, 85, 1237.578979492188
0, 0, 86, 1264.69384765625
0, 0, 87, 1252.401123046875
0, 0, 88, 1256.697265625
0, 0, 89, 1335.079833984375
0, 0, 90, 1272.61474609375
0, 0, 91, 1352.5068359375
0, 0, 92, 1296.436279296875
0, 0, 93, 1279.207397460938
0, 0, 94, 1241.423217773438
0, 0, 95, 1325.805297851562
0, 0, 96, 1280.236083984375
0, 0, 97, 1327.417724609375
0, 0, 98, 1254.918823242188
0, 0, 99, 1250.791625976562
0, 0, 100, 1286.599243164062
0, 0, 101, 1314.627563476562
0, 0, 102, 1234.698852539062
0, 0, 103, 1327.1943359375
0, 0, 104, 1264.446044921875
0, 0, 105, 1268.794311523438
0, 0, 106, 1206.099853515625
0, 0, 107, 783.0897216796875
0, 0, 108, 198.9735260009766
0, 0, 109, 67.90253448486328
0, 0, 110, 70.29981231689453
0, 0, 111, 41.77922821044922
0, 0, 112, 36.26758193969727
0, 0, 113, 36.22029495239258
0, 0, 114, 37.92879867553711
0, 0, 115, 32.05655670166016
0, 0, 116, 26.81204032897949
0, 0, 117, 34.66201400756836
0, 0, 118, 26.09854888916016
0, 0, 119, 20.28987693786621
0, 0, 120, 22.54359817504883
0, 0, 121, 27.07417488098145
0, 0, 122, 18.12994003295898
0, 0, 123, 20.99549674987793
0, 0, 124, 24.52585983276367
0, 0, 125, 20.34386253356934
0, 0, 126, 20.61247634887695
0, 0, 127, 16.4428539276123
0, 1, 0, 20.66653442382812
0, 1, 1, 21.83983039855957
0, 1, 2, 29.34937858581543
0, 1, 3, 24.0388011932373
0, 1, 4, 21.62413597106934
0, 1, 5, 21.7999095916748
0, 1, 6, 25.59185600280762
0, 1, 7, 25.4122200012207
0, 1, 8, 34.21413803100586
0, 1, 9, 32.30974960327148
0, 1, 10, 28.72514724731445
0, 1, 11, 41.24721527099609
0, 1, 12, 39.27668380737305
0, 1, 13, 42.41333389282227
0, 1, 14, 38.79047775268555
0, 1, 15, 47.93752288818359
0, 1, 16, 57.52878189086914
0, 1, 17, 61.45320510864258
0, 1, 18, 100.0316772460938
0, 1, 19, 404.0152587890625
0, 1, 20, 1045.119140625
0, 1, 21, 1371.920166015625
0, 1, 22, 1477.121826171875
0, 1, 23, 1463.514038085938
0, 1, 24, 1454.5732421875
0, 1, 25, 1422.518432617188
0, 1, 26, 1478.892822265625
0, 1, 27, 1466.325805664062
0, 1, 28, 1490.488159179688
0, 1, 29, 1479.907836914062
0, 1, 30, 1510.501708984375
0, 1, 31, 1487.1474609375
0, 1, 32, 1413.131469726562
0, 1, 33, 1500.206298828125
0, 1, 34, 1500.303955078125
0, 1, 35, 1459.651489257812
0, 1, 36, 1493.458740234375
0, 1, 37, 1408.567138671875
0, 1, 38, 1395.124877929688
0, 1, 39, 1525.087768554688
0, 1, 40, 1465.701049804688
0, 1, 41, 1491.0458984375
0, 1, 42, 1495.701171875
0, 1, 43, 1499.234375
0, 1, 44, 1451.593994140625
0, 1, 45, 1484.987182617188
0, 1, 46, 1415.369995117188
0, 1, 47, 1431.689453125
0, 1, 48, 1431.818481445312
0, 1, 49, 1485.4482421875
0, 1, 50, 1440.92578125
0, 1, 51, 1475.269287109375
0, 1, 52, 1478.165649414062
0, 1, 53, 1472.751831054688
0, 1, 54, 1498.419555664062
0, 1, 55, 1495.446044921875
0, 1, 56, 1469.4853515625
0, 1, 57, 1461.707641601562
0, 1, 58, 1429.5244140625
0, 1, 59, 1481.8017578125
0, 1, 60, 1463.9248046875
0, 1, 61, 1447.901000976562
0, 1, 62, 1455.290283203125
0, 1, 63, 1418.778564453125
0, 1, 64, 1472.292602539062
0, 1, 65, 1414.850341796875
0, 1, 66, 1441.427490234375
0, 1, 67, 1456.790893554688
0, 1, 68, 1385.869506835938
0, 1, 69, 1461.734497070312
0, 1, 70, 1429.614501953125
0, 1, 71, 1495.7177734375
0, 1, 72, 1435.243530273438
0, 1, 73, 1490.720825195312
0, 1, 74, 1466.914916992188
0, 1, 75, 1479.661743164062
0, 1, 76, 1453.904663085938
0, 1, 77, 1466.630981445312
0, 1, 78, 1451.321166992188
0, 1, 79, 1498.042724609375
0, 1, 80, 1450.493041992188
0, 1, 81, 1421.674072265625
0, 1, 82, 1471.298217773438
0, 1, 83, 1461.606689453125
0, 1, 84, 1532.578125
0, 1, 85, 1448.452514648438
0, 1, 86, 1406.064453125
0, 1, 87, 1423.646118164062
0, 1, 88, 1470.181518554688
0, 1, 89, 1475.133056640625
0, 1, 90, 1426.020385742188
0, 1, 91, 1465.662719726562
0, 1, 92, 1417.305053710938
0, 1, 93, 1457.993530273438
0, 1, 94, 1465.6376953125
0, 1, 95, 1420.05224609375
0, 1, 96, 1494.534912109375
0, 1, 97, 1519.251586914062
0, 1, 98, 1475.899169921875
0, 1, 99, 1417.136352539062
0, 1, 100, 1447.187377929688
0, 1, 101, 1417.132568359375
0, 1, 102, 1438.042724609375
0, 1, 103, 1412.186767578125
0, 1, 104, 1408.309814453125
0, 1, 105, 1460.376342773438
0, 1, 106, 1362.70361328125
0, 1, 107, 1018.781677246094
0, 1, 108, 404.6148986816406
0, 1, 109, 94.05535125732422
0, 1, 110, 58.92346572875977
0, 1, 111, 61.25092697143555
0, 1, 112, 48.29101943969727
0, 1, 113, 41.27867126464844
0, 1, 114, 33.11240386962891
0, 1, 115, 38.23404693603516
0, 1, 116, 34.70504760742188
0, 1, 117, 35.13848876953125
0, 1, 118, 33.86714553833008
0, 1, 119, 30.22070121765137
0, 1, 120, 30.69666862487793
0, 1, 121, 25.85663414001465
0, 1, 122, 23.82987976074219
0, 1, 123, 24.04046058654785
0, 1, 124, 29.65658569335938
0, 1, 125, 17.28582572937012
0, 1, 126, 17.91486358642578
0, 1, 127, 20.05893135070801
0, 2, 0, 24.54532432556152
0, 2, 1, 17.76892471313477
0, 2, 2, 18.02178001403809
0, 2, 3, 19.39850997924805
0, 2, 4, 26.64987182617188
0, 2, 5, 20.72165679931641
0, 2, 6, 23.36186027526855
0, 2, 7, 22.25601768493652
0, 2, 8, 24.69420623779297
0, 2, 9, 28.08152770996094
0, 2, 10, 28.96156311035156
0, 2, 11, 33.68330001831055
0, 2, 12, 45.02429962158203
0, 2, 13, 48.40442657470703
0, 2, 14, 46.48862457275391
0, 2, 15, 48.6514778137207
0, 2, 16, 66.64363861083984
0, 2, 17, 80.49359130859375
0, 2, 18, 144.7241516113281
0, 2, 19, 608.2181396484375
0, 2, 20, 1284.72412109375
0, 2, 21, 1436.189453125
0, 2, 22, 1451.63037109375
0, 2, 23, 1403.496948242188
0, 2, 24, 1441.336669921875
0, 2, 25, 1524.354614257812
0, 2, 26, 1554.595458984375
0, 2, 27, 1451.796997070312
0, 2, 28, 1455.020263671875
0, 2, 29, 1460.526733398438
0, 2, 30, 1463.439575195312
0, 2, 31, 1529.960815429688
0, 2, 32, 1508.633178710938
0, 2, 33, 1443.41162109375
0, 2, 34, 1469.609619140625
0, 2, 35, 1471.938110351562
0, 2, 36, 1524.149658203125
0, 2, 37, 1541.847290039062
0, 2, 38, 1505.897216796875
0, 2, 39, 1470.013916015625
0, 2, 40, 1504.070556640625
0, 2, 41, 1516.376953125
0, 2, 42, 1496.957885742188
0, 2, 43, 1548.084106445312
0, 2, 44, 1458.252319335938
0, 2, 45, 1480.837890625
0, 2, 46, 1430.494140625
0, 2, 47, 1446.61767578125
0, 2, 48, 1398.557739257812
0, 2, 49, 1463.105224609375
0, 2, 50, 1448.755493164062
0, 2, 51, 1445.341430664062
0, 2, 52, 1496.459350585938
0, 2, 53, 1521.336547851562
0, 2, 54, 1527.367919921875
0, 2, 55, 1491.956909179688
0, 2, 56, 1459.14599609375
0, 2, 57, 1418.74609375
0, 2, 58, 1451.943969726562
0, 2, 59, 1448.17333984375
0, 2, 60, 1472.20361328125
0, 2, 61, 1445.82080078125
0, 2, 62, 1468.017944335938
0, 2, 63, 1502.295166015625
0, 2, 64, 1458.240234375
0, 2, 65, 1423.567138671875
0, 2, 66, 1488.040649414062
0, 2, 67, 1507.8984375
0, 2, 68, 1543.71826171875
0, 2, 69, 1537.761840820312
0, 2, 70, 1511.016723632812
0, 2, 71, 1460.868530273438
0, 2, 72, 1518.281005859375
0, 2, 73, 1520.35302734375
0, 2, 74, 1485.252075195312
0, 2, 75, 1507.425415039062
0, 2, 76, 1451.933715820312
0, 2, 77, 1509.557983398438
0, 2, 78, 1429.9482421875
0, 2, 79, 1544.640991210938
0, 2, 80, 1481.4130859375
0, 2, 81, 1465.87841796875
0, 2, 82, 1559.596557617188
0, 2, 83, 1513.598876953125
0, 2, 84, 1496.254272460938
0, 2, 85, 1511.109130859375
0, 2, 86, 1537.06884765625
0, 2, 87, 1493.725463867188
0, 2, 88, 1538.329711914062
0, 2, 89, 1462.62060546875
0, 2, 90, 1433.64892578125
0, 2, 91, 1406.532348632812
0, 2, 92, 1478.855834960938
0, 2, 93, 1489.730590820312
0, 2, 94, 1446.459228515625
0, 2, 95, 1542.28466796875
0, 2, 96, 1521.427490234375
0, 2, 97, 1454.46826171875
0, 2, 98, 1461.89111328125
0, 2, 99, 1402.340698242188
0, 2, 100, 1473.966186523438
0, 2, 101, 1476.760620117188
0, 2, 102, 1461.29150390625
0, 2, 103, 1391.66357421875
0, 2, 104, 1410.489868164062
0, 2, 105, 1393.8291015625
0, 2, 106, 1457.109497070312
0, 2, 107, 1270.890014648438
0, 2, 108, 621.8522338867188
0, 2, 109, 169.1484069824219
0, 2, 110, 65.02705383300781
0, 2, 111, 63.20021057128906
0, 2, 112, 47.85787582397461
0, 2, 113, 42.7215461730957
0, 2, 114, 47.48429870605469
0, 2, 115, 44.83219528198242
0, 2, 116, 34.96223449707031
0, 2, 117, 29.13586235046387
0, 2, 118, 27.28226470947266
0, 2, 119, 32.23134613037109
0, 2, 120, 29.76212501525879
0, 2, 121, 21.72046089172363
0, 2, 122, 24.65374946594238
0, 2, 123, 19.77081489562988
0, 2, 124, 22.75275421142578
0, 2, 125, 28.97024536132812
0, 2, 126, 16.7313175201416
0, 2, 127, 20.14176940917969
0, 3, 0, 17.54212951660156
0, 3, 1, 22.25325965881348
0, 3, 2, 18.07690620422363
0, 3, 3, 22.78424835205078
0, 3, 4, 22.2360668182373
0, 3, 5, 23.12851905822754
0, 3, 6, 34.06264114379883
0, 3, 7, 31.63507080078125
0, 3, 8, 26.41563987731934
0, 3, 9, 27.61174583435059
0, 3, 10, 31.59475517272949
0, 3, 11, 32.88792037963867
0, 3, 12, 41.34484481811523
0, 3, 13, 57.85224533081055
0, 3, 14, 63.36891555786133
0, 3, 15, 54.10246658325195
0, 3, 16, 65.58829498291016
0, 3, 17, 87.12973785400391
0, 3, 18, 238.6400146484375
0, 3, 19, 879.5116577148438
0, 3, 20, 1386.602905273438
0, 3, 21, 1507.658935546875
0, 3, 22, 1459.639282226562
0, 3, 23, 1454.215942382812
0, 3, 24, 1435.29296875
0, 3, 25, 1462.616088867188
0, 3, 26, 1497.54248046875
0, 3, 27, 1464.894409179688
0, 3, 28, 1489.951416015625
0, 3, 29, 1539.891723632812
0, 3, 30, 1571.76708984375
0, 3, 31, 1510.4609375
0, 3, 32, 1540.905395507812
0, 3, 33, 1541.980224609375
0, 3, 34, 1491.995361328125
0, 3, 35, 1458.545654296875
0, 3, 36, 1452.1904296875
0, 3, 37, 1516.19970703125
0, 3, 38, 1517.874755859375
0, 3, 39, 1436.917724609375
0, 3, 40, 1444.192749023438
0, 3, 41, 1556.750122070312
0, 3, 42, 1461.322021484375
0, 3, 43, 1457.872924804688
0, 3, 44, 1453.506713867188
0, 3, 45, 1507.219116210938
0, 3, 46, 1510.714721679688
0, 3, 47, 1439.5341796875
0, 3, 48, 1507.22509765625
0, 3, 49, 1450.435180664062
0, 3, 50, 1488.523071289062
0, 3, 51, 1536.611572265625
0, 3, 52, 1537.53759765625
0, 3, 53, 1469.947265625
0, 3, 54, 1532.932739257812
0, 3, 55, 1498.380249023438
0, 3, 56, 1432.38916015625
0, 3, 57, 1502.766479492188
0, 3, 58, 1511.466552734375
0, 3, 59, 1514.026000976562
0, 3, 60, 1532.100463867188
0, 3, 61, 1486.907592773438
0, 3, 62, 1490.203857421875
0, 3, 63, 1491.446411132812
0, 3, 64, 1498.189697265625
0, 3, 65, 1511.934692382812
0, 3, 66, 1558.652587890625
0, 3, 67, 1542.720703125
0, 3, 68, 1448.612915039062
0, 3, 69, 1464.599853515625
0, 3, 70, 1383.865112304688
0, 3, 71, 1463.408569335938
0, 3, 72, 1551.767578125
0, 3, 73, 1502.039794921875
0, 3, 74, 1465.028076171875
0, 3, 75, 1456.524291992188
0, 3, 76, 1579.820556640625
0, 3, 77, 1542.262329101562
0, 3, 78, 1427.906982421875
0, 3, 79, 1493.519897460938
0, 3, 80, 1466.730712890625
0, 3, 81, 1472.237182617188
0, 3, 82, 1555.696044921875
0, 3, 83, 1510.442260742188
0, 3, 84, 1554.800903320312
0, 3, 85, 1477.320922851562
0, 3, 86, 1526.830444335938
0, 3, 87, 1538.264770507812
0, 3, 88, 1458.30419921875
0, 3, 89, 1445.800537109375
0, 3, 90, 1448.125366210938
0, 3, 91, 1416.697265625
0, 3, 92, 1512.741943359375
0, 3, 93, 1498.776245117188
0, 3, 94, 1518.966430664062
0, 3, 95, 1541.94287109375
0, 3, 96, 1512.327880859375
0, 3, 97, 1462.473266601562
0, 3, 98, 1432.07373046875
0, 3, 99, 1469.098999023438
0, 3, 100, 1472.208740234375
0, 3, 101, 1476.34716796875
0, 3, 102, 1520.711059570312
0, 3, 103, 1552.83154296875
0, 3, 104, 1497.292724609375
0, 3, 105, 1517.942749023438
0, 3, 106, 1475.980712890625
0, 3, 107, 1339.030029296875
0, 3, 108, 872.8361206054688
0, 3, 109, 263.7245483398438
0, 3, 110, 101.4879302978516
0, 3, 111, 65.78827667236328
0, 3, 112, 58.45670700073242
0, 3, 113, 55.31810760498047
0, 3, 114, 52.22799682617188
0, 3, 115, 49.12073516845703
0, 3, 116, 36.21463394165039
0, 3, 117, 40.03518295288086
0, 3, 118, 40.53160858154297
0, 3, 119, 33.86170959472656
0, 3, 120, 35.49012756347656
0, 3, 121, 23.68232917785645
0, 3, 122, 25.50777816772461
0, 3, 123, 23.89568710327148
0, 3, 124, 23.08640480041504
0, 3, 125, 24.2238712310791
0, 3, 126, 28.54540824890137
0, 3, 127, 19.69834899902344
0, 4, 0, 24.22391128540039
0, 4, 1, 27.53801727294922
0, 4, 2, 16.91553115844727
0, 4, 3, 26.24334716796875
0, 4, 4, 28.74094581604004
0, 4, 5, 24.97132873535156
0, 4, 6, 29.86850929260254
0, 4, 7, 28.16856384277344
0, 4, 8, 25.35147857666016
0, 4, 9, 34.47212982177734
0, 4, 10, 31.77024459838867
0, 4, 11, 39.79925537109375
0, 4, 12, 47.37396240234375
0, 4, 13, 53.85581588745117
0, 4, 14, 52.54481506347656
0, 4, 15, 65.20611572265625
0, 4, 16, 73.46968841552734
0, 4, 17, 112.8062973022461
0, 4, 18, 442.2435302734375
0, 4, 19, 1180.461669921875
0, 4, 20, 1440.775756835938
0, 4, 21, 1417.339111328125
0, 4, 22, 1436.078369140625
0, 4, 23, 1450.445434570312
0, 4, 24, 1472.730346679688
0, 4, 25, 1404.522094726562
0, 4, 26, 1533.286254882812
0, 4, 27, 1543.351806640625
0, 4, 28, 1508.259399414062
0, 4, 29, 1512.96142578125
0, 4, 30, 1526.636352539062
0, 4, 31, 1574.674682617188
0, 4, 32, 1514.006591796875
0, 4, 33, 1492.50439453125
0, 4, 34, 1471.4189453125
0, 4, 35, 1560.542236328125
0, 4, 36, 1504.888549804688
0, 4, 37, 1511.593505859375
0, 4, 38, 1529.797485351562
0, 4, 39, 1471.010864257812
0, 4, 40, 1515.056884765625
0, 4, 41, 1592.567504882812
0, 4, 42, 1564.251831054688
0, 4, 43, 1475.755615234375
0, 4, 44, 1494.683471679688
0, 4, 45, 1517.563842773438
0, 4, 46, 1467.292358398438
0, 4, 47, 1502.231079101562
0, 4, 48, 1522.74169921875
0, 4, 49, 1469.820068359375
0, 4, 50, 1518.206298828125
0, 4, 51, 1489.0712890625
0, 4, 52, 1489.796875
0, 4, 53, 1452.157592773438
0, 4, 54, 1443.34033203125
0, 4, 55, 1525.582153320312
0, 4, 56, 1453.201416015625
0, 4, 57, 1490.310913085938
0, 4, 58, 1459.0009765625
0, 4, 59, 1458.76318359375
0, 4, 60, 1522.635864257812
0, 4, 61, 1500.857055664062
0, 4, 62, 1504.918701171875
0, 4, 63, 1550.392700195312
0, 4, 64, 1594.222778320312
0, 4, 65, 1425.321533203125
0, 4, 66, 1515.3759765625
0, 4, 67, 1520.966552734375
0, 4, 68, 1498.674194335938
0, 4, 69, 1469.74609375
0, 4, 70, 1545.625732421875
0, 4, 71, 1519.955688476562
0, 4, 72, 1525.79736328125
0, 4, 73, 1492.626098632812
0, 4, 74, 1485.419677734375
0, 4, 75, 1537.440063476562
0, 4, 76, 1477.8173828125
0, 4, 77, 1498.038330078125
0, 4, 78, 1502.885009765625
0, 4, 79, 1480.254150390625
0, 4, 80, 1507.162231445312
0, 4, 81, 1529.645385742188
0, 4, 82, 1570.5751953125
0, 4, 83, 1503.357177734375
0, 4, 84, 1538.353149414062
0, 4, 85, 1556.399169921875
0, 4, 86, 1523.308959960938
0, 4, 87, 1495.198608398438
0, 4, 88, 1517.444702148438
0, 4, 89, 1482.135498046875
0, 4, 90, 1544.29150390625
0, 4, 91, 1553.27880859375
0, 4, 92, 1488.909545898438
0, 4, 93, 1518.0361328125
0, 4, 94, 1483.661254882812
0, 4, 95, 1515.87451171875
0, 4, 96, 1445.336303710938
0, 4, 97, 1408.17333984375
0, 4, 98, 1553.056762695312
0, 4, 99, 1510.649536132812
0, 4, 100, 1489.521484375
0, 4, 101, 1447.172607421875
0, 4, 102, 1448.642578125
0, 4, 103, 1515.312744140625
0, 4, 104, 1510.478149414062
0, 4, 105, 1555.508422851562
0, 4, 106, 1476.598266601562
0, 4, 107, 1452.738037109375
0, 4, 108, 1120.3125
0, 4, 109, 435.6084899902344
0, 4, 110, 97.22401428222656
0, 4, 111, 67.32866668701172
0, 4, 112, 61.93385314941406
0, 4, 113, 48.33866882324219
0, 4, 114, 48.20267105102539
0, 4, 115, 50.28460311889648
0, 4, 116, 40.89518356323242
0, 4, 117, 43.33674621582031
0, 4, 118, 39.4948844909668
0, 4, 119, 38.08769226074219
0, 4, 120, 33.75532150268555
0, 4, 121, 27.04022789001465
0, 4, 122, 28.53241348266602
0, 4, 123, 25.85379028320312
0, 4, 124, 20.55282783508301
0, 4, 125, 27.95873069763184
0, 4, 126, 19.17733001708984
0, 4, 127, 18.5623664855957
0, 5, 0, 22.24899673461914
0, 5, 1, 26.49452018737793
0, 5, 2, 26.52444267272949
0, 5, 3, 22.45148849487305
0, 5, 4, 21.97007751464844
0, 5, 5, 39.19238662719727
0, 5, 6, 28.66876983642578
0, 5, 7, 28.34385871887207
0, 5, 8, 32.08642578125
0, 5, 9, 29.99009132385254
0, 5, 10, 33.23271942138672
0, 5, 11, 40.87464904785156
0, 5, 12, 38.00315856933594
0, 5, 13, 46.58827972412109
0, 5, 14, 62.30710220336914
0, 5, 15, 78.26399993896484
0, 5, 16, 80.44259643554688
0, 5, 17, 162.1833038330078
0, 5, 18, 675.0993041992188
0, 5, 19, 1344.663818359375
0, 5, 20, 1526.982421875
0, 5, 21, 1492.599853515625
0, 5, 22, 1493.93359375
0, 5, 23, 1532.189575195312
0, 5, 24, 1465.54345703125
0, 5, 25, 1428.082885742188
0, 5, 26, 1524.259765625
0, 5, 27, 1540.099243164062
0, 5, 28, 1487.185424804688
0, 5, 29, 1523.028564453125
0, 5, 30, 1497.689819335938
0, 5, 31, 1499.621337890625
0, 5, 32, 1594.826904296875
0, 5, 33, 1505.411865234375
0, 5, 34, 1479.507446289062
0, 5, 35, 1512.28466796875
0, 5, 36, 1445.603149414062
0, 5, 37, 1529.961181640625
0, 5, 38, 1549.686279296875
0, 5, 39, 1543.14990234375
0, 5, 40, 1504.221069335938
0, 5, 41, 1483.509399414062
0, 5, 42, 1540.488037109375
0, 5, 43, 1532.744995117188
0, 5, 44, 1543.522705078125
0, 5, 45, 1513.555786132812
0, 5, 46, 1483.760620117188
0, 5, 47, 1480.061279296875
0, 5, 48, 1502.967895507812
0, 5, 49, 1524.20458984375
0, 5, 50, 1501.256225585938
0, 5, 51, 1519.964111328125
0, 5, 52, 1428.836669921875
0, 5, 53, 1523.205078125
0, 5, 54, 1521.243896484375
0, 5, 55, 1527.877319335938
0, 5, 56, 1486.772338867188
0, 5, 57, 1540.015258789062
0, 5, 58, 1508.20751953125
0, 5, 59, 1484.081665039062
0, 5, 60, 1541.449096679688
0, 5, 61, 1445.38134765625
0, 5, 62, 1584.116577148438
0, 5, 63, 1433.977661132812
0, 5, 64, 1492.301513671875
0, 5, 65, 1461.269409179688
0, 5, 66, 1525.5
0, 5, 67, 1558.520141601562
0, 5, 68, 1462.783569335938
0, 5, 69, 1476.636596679688
0, 5, 70, 1495.733154296875
0, 5, 71, 1475.387573242188
0, 5, 72, 1544.398681640625
0, 5, 73, 1459.30224609375
0, 5, 74, 1489.816528320312
0, 5, 75, 1488.61669921875
0, 5, 76, 1478.271728515625
0, 5, 77, 1523.248779296875
0, 5, 78, 1530.204223632812
0, 5, 79, 1509.368774414062
0, 5, 80, 1520.271484375
0, 5, 81, 1594.07373046875
0, 5, 82, 1533.2236328125
0, 5, 83, 1493.546508789062
0, 5, 84, 1531.743041992188
0, 5, 85, 1509.57861328125
0, 5, 86, 1557.130737304688
0, 5, 87, 1471.1064453125
0, 5, 88, 1499.329711914062
0, 5, 89, 1481.00634765625
0, 5, 90, 1480.895263671875
0, 5, 91, 1549.761108398438
0, 5, 92, 1483.510986328125
0, 5, 93, 1562.7958984375
0, 5, 94, 1514.294067382812
0, 5, 95, 1566.134765625
0, 5, 96, 1498.05322265625
0, 5, 97, 1508.0966796875
0, 5, 98, 1512.683349609375
0, 5, 99, 1542.400024414062
0, 5, 100, 1433.581665039062
0, 5, 101, 1431.119262695312
0, 5, 102, 1512.08984375
0, 5, 103, 1473.770751953125
0, 5, 104, 1457.080200195312
0, 5, 105, 1490.787719726562
0, 5, 106, 1461.232543945312
0, 5, 107, 1399.975341796875
0, 5, 108, 1288.519653320312
0, 5, 109, 722.5357666015625
0, 5, 110, 192.0024719238281
0, 5, 111, 85.84471893310547
0, 5, 112, 81.52596282958984
0, 5, 113, 68.75356292724609
0, 5, 114, 57.03326034545898
0, 5, 115, 50.79896926879883
0, 5, 116, 38.05276107788086
0, 5, 117, 34.65949630737305
0, 5, 118, 36.57420349121094
0, 5, 119, 24.44563674926758
0, 5, 120, 26.5258731842041
0, 5, 121, 21.91738700866699
0, 5, 122, 31.07977867126465
0, 5, 123, 25.79477310180664
0, 5, 124, 27.5545711517334
0, 5, 125, 17.4738655090332
0, 5, 126, 19.87939453125
0, 5, 127, 21.95231819152832
0, 6, 0, 21.10141372680664
0, 6, 1, 28.62595367431641
0, 6, 2, 28.67878150939941
0, 6, 3, 25.43254089355469
0, 6, 4, 28.09280204772949
0, 6, 5, 33.73538208007812
0, 6, 6, 33.56261825561523
0, 6, 7, 32.31283569335938
0, 6, 8, 37.03682327270508
0, 6, 9, 37.47320556640625
0, 6, 10, 40.31280899047852
0, 6, 11, 46.39633941650391
0, 6, 12, 38.6734619140625
0, 6, 13, 58.09600067138672
0, 6, 14, 57.92047500610352
0, 6, 15, 81.12691497802734
0, 6, 16, 114.4623336791992
0, 6, 17, 297.9961242675781
0, 6, 18, 899.18408203125
0, 6, 19, 1377.960693359375
0, 6, 20, 1437.2177734375
0, 6, 21, 1531.946655273438
0, 6, 22, 1504.359741210938
0, 6, 23, 1528.928955078125
0, 6, 24, 1480.658081054688
0, 6, 25, 1525.474487304688
0, 6, 26, 1516.819702148438
0, 6, 27, 1524.027099609375
0, 6, 28, 1552.966430664062
0, 6, 29, 1573.7373046875
0, 6, 30, 1513.092529296875
0, 6, 31, 1495.383544921875
0, 6, 32, 1520.99267578125
0, 6, 33, 1496.454956054688
0, 6, 34, 1563.527099609375
0, 6, 35, 1499.849609375
0, 6, 36, 1437.97119140625
0, 6, 37, 1541.657104492188
0, 6, 38, 1522.967163085938
0, 6, 39, 1526.382202148438
0, 6, 40, 1460.374389648438
0, 6, 41, 1444.169067382812
0, 6, 42, 1516.352783203125
0, 6, 43, 1482.36767578125
0, 6, 44, 1431.77685546875
0, 6, 45, 1547.010620117188
0, 6, 46, 1559.187255859375
0, 6, 47, 1498.762329101562
0, 6, 48, 1526.504150390625
0, 6, 49, 1507.804443359375
0, 6, 50, 1573.591064453125
0, 6, 51, 1504.658813476562
0, 6, 52, 1565.597900390625
0, 6, 53, 1470.853393554688
0, 6, 54, 1495.259765625
0, 6, 55, 1578.302124023438
0, 6, 56, 1522.76171875
0, 6, 57, 1504.150024414062
0, 6, 58, 1470.52734375
0, 6, 59, 1522.057983398438
0, 6, 60, 1469.76953125
0, 6, 61, 1572.51904296875
0, 6, 62, 1551.174926757812
0, 6, 63, 1496.6728515625
0, 6, 64, 1410.349365234375
0, 6, 65, 1493.037963867188
0, 6, 66, 1510.067138671875
0, 6, 67, 1512.021484375
0, 6, 68, 1544.411865234375
0, 6, 69, 1487.38232421875
0, 6, 70, 1522.685913085938
0, 6, 71, 1469.785888671875
0, 6, 72, 1597.487915039062
0, 6, 73, 1491.553833007812
0, 6, 74, 1560.9921875
0, 6, 75, 1536.904174804688
0, 6, 76, 1563.415405273438
0, 6, 77, 1502.980712890625
0, 6, 78, 1446.966064453125
0, 6, 79, 1551.785034179688
0, 6, 80, 1488.0439453125
0, 6, 81, 1483.631958007812
0, 6, 82, 1503.007202148438
0, 6, 83, 1525.826538085938
0, 6, 84, 1520.534912109375
0, 6, 85, 1540.138061523438
0, 6, 86, 1543.051391601562
0, 6, 87, 1575.516357421875
0, 6, 88, 1475.337646484375
0, 6, 89, 1565.62353515625
0, 6, 90, 1492.077514648438
0, 6, 91, 1541.909790039062
0, 6, 92, 1485.276123046875
0, 6, 93, 1496.101318359375
0, 6, 94, 1468.937133789062
0, 6, 95, 1508.857543945312
0, 6, 96, 1520.072875976562
0, 6, 97, 1505.359130859375
0, 6, 98, 1497.924560546875
0, 6, 99, 1476.475708007812
0, 6, 100, 1521.48046875
0, 6, 101, 1514.400512695312
0, 6, 102, 1544.183227539062
0, 6, 103, 1496.789794921875
0, 6, 104, 1467.35791015625
0, 6, 105, 1485.766235351562
0, 6, 106, 1497.682861328125
0, 6, 107, 1502.222778320312
0, 6, 108, 1409.793701171875
0, 6, 109, 927.358154296875
0, 6, 110, 282.7412414550781
0, 6, 111, 92.07472229003906
0, 6, 112, 80.24544525146484
0, 6, 113, 60.05171585083008
0, 6, 114, 55.69634628295898
0, 6, 115, 45.02989196777344
0, 6, 116, 42.46213531494141
0, 6, 117, 41.32899856567383
0, 6, 118, 37.57434463500977
0, 6, 119, 29.74680137634277
0, 6, 120, 30.01758766174316
0, 6, 121, 28.87516021728516
0, 6, 122, 27.03608894348145
0, 6, 123, 23.24288749694824
0, 6, 124, 32.88846206665039
0, 6, 125, 35.01941299438477
0, 6, 126, 23.73837661743164
0, 6, 127, 20.39139747619629
0, 7, 0, 27.48758697509766
0, 7, 1, 25.14708518981934
0, 7, 2, 21.38833427429199
0, 7, 3, 25.45168685913086
0, 7, 4, 22.46065139770508
0, 7, 5, 36.52068328857422
0, 7, 6, 32.02265930175781
0, 7, 7, 33.47094345092773
0, 7, 8, 28.40375900268555
0, 7, 9, 35.71120834350586
0, 7, 10, 44.5800666809082
0, 7, 11, 46.15371322631836
0, 7, 12, 47.15307998657227
0, 7, 13, 54.06154251098633
0, 7, 14, 59.73005294799805
0, 7, 15, 77.42138671875
0, 7, 16, 131.3681335449219
0, 7, 17, 457.4461059570312
0, 7, 18, 1101.430786132812
0, 7, 19, 1501.08740234375
0, 7, 20, 1489.126831054688
0, 7, 21, 1362.2197265625
0, 7, 22, 1486.817504882812
0, 7, 23, 1454.203979492188
0, 7, 24, 1509.919677734375
0, 7, 25, 1596.997192382812
0, 7, 26, 1523.572265625
0, 7, 27, 1512.63818359375
0, 7, 28, 1544.196533203125
0, 7, 29, 1573.462280273438
0, 7, 30, 1543.225219726562
0, 7, 31, 1434.001098632812
0, 7, 32, 1542.05908203125
0, 7, 33, 1486.996337890625
0, 7, 34, 1480.447875976562
0, 7, 35, 1521.395141601562
0, 7, 36, 1474.621337890625
0, 7, 37, 1596.11669921875
0, 7, 38, 1500.742431640625
0, 7, 39, 1495.3720703125
0, 7, 40, 1545.1640625
0, 7, 41, 1463.440063476562
0, 7, 42, 1482.141967773438
0, 7, 43, 1440.920288085938
0, 7, 44, 1491.967163085938
0, 7, 45, 1468.252807617188
0, 7, 46, 1512.833251953125
0, 7, 47, 1564.891235351562
0, 7, 48, 1525.642456054688
0, 7, 49, 1539.27587890625
0, 7, 50, 1515.088012695312
0, 7, 51, 1496.210327148438
0, 7, 52, 1521.378295898438
0, 7, 53, 1490.962890625
0, 7, 54, 1588.362060546875
0, 7, 55, 1471.106079101562
0, 7, 56, 1548.1484375
0, 7, 57, 1513.448120117188
0, 7, 58, 1547.844482421875
0, 7, 59, 1538.587524414062
0, 7, 60, 1555.450927734375
0, 7, 61, 1492.321166992188
0, 7, 62, 1436.84326171875
0, 7, 63, 1510.89404296875
0, 7, 64, 1548.10791015625
0, 7, 65, 1523.498779296875
0, 7, 66, 1535.772705078125
0, 7, 67, 1583.869384765625
0, 7, 68, 1535.983276367188
0, 7, 69, 1514.753051757812
0, 7, 70, 1490.834350585938
0, 7, 71, 1517.911865234375
0, 7, 72, 1523.042114257812
0, 7, 73, 1512.883422851562
0, 7, 74, 1570.32470703125
0, 7, 75, 1536.04345703125
0, 7, 76, 1558.940673828125
0, 7, 77, 1512.013427734375
0, 7, 78, 1509.30615234375
0, 7, 79, 1427.043334960938
0, 7, 80, 1487.49267578125
0, 7, 81, 1496.662231445312
0, 7, 82, 1529.143798828125
0, 7, 83, 1543.419067382812
0, 7, 84, 1586.492553710938
0, 7, 85, 1479.043212890625
0, 7, 86, 1499.173828125
0, 7, 87, 1508.399536132812
0, 7, 88, 1501.112060546875
0, 7, 89, 1553.52783203125
0, 7, 90, 1520.251586914062
0, 7, 91, 1562.145751953125
0, 7, 92, 1531.006958007812
0, 7, 93, 1556.90283203125
0, 7, 94, 1533.482543945312
0, 7, 95, 1509.603149414062
0, 7, 96, 1508.047119140625
0, 7, 97, 1434.773193359375
0, 7, 98, 1481.610961914062
0, 7, 99, 1525.19921875
0, 7, 100, 1417.395629882812
0, 7, 101, 1467.620727539062
0, 7, 102, 1452.068969726562
0, 7, 103, 1428.089111328125
0, 7, 104, 1491.340698242188
0, 7, 105, 1522.2373046875
0, 7, 106, 1567.122924804688
0, 7, 107, 1481.672607421875
0, 7, 108, 1411.130493164062
0, 7, 109, 1147.052978515625
0, 7, 110, 477.939697265625
0, 7, 111, 128.204833984375
0, 7, 112, 79.04216766357422
0, 7, 113, 64.67544555664062
0, 7, 114, 58.26167678833008
0, 7, 115, 51.44730758666992
0, 7, 116, 49.51621627807617
0, 7, 117, 45.64644241333008
0, 7, 118, 40.56453323364258
0, 7, 119, 36.41488265991211
0, 7, 120, 21.70666694641113
0, 7, 121, 31.50984001159668
0, 7, 122, 33.88369750976562
0, 7, 123, 36.90330123901367
0, 7, 124, 34.13698959350586
0, 7, 125, 29.16474151611328
0, 7, 126, 26.93331909179688
0, 7, 127, 21.17484474182129
0, 8, 0, 19.30194664001465
0, 8, 1, 20.99025726318359
0, 8, 2, 26.27421951293945
0, 8, 3, 25.93807029724121
0, 8, 4, 29.01197624206543
0, 8, 5, 30.21230888366699
0, 8, 6, 31.1207218170166
0, 8, 7, 28.0538387298584
0, 8, 8, 38.13745880126953
0, 8, 9, 42.86032485961914
0, 8, 10, 36.40844345092773
0, 8, 11, 43.22942352294922
0, 8, 12, 54.64896392822266
0, 8, 13, 70.00155639648438
0, 8, 14, 70.90550231933594
0, 8, 15, 91.98313903808594
0, 8, 16, 174.5780792236328
0, 8, 17, 679.057373046875
0, 8, 18, 1282.163452148438
0, 8, 19, 1447.968017578125
0, 8, 20, 1423.162231445312
0, 8, 21, 1408.911010742188
0, 8, 22, 1489.423950195312
0, 8, 23, 1478.83154296875
0, 8, 24, 1436.255249023438
0, 8, 25, 1455.47802734375
0, 8, 26, 1513.030151367188
0, 8, 27, 1529.196044921875
0, 8, 28, 1479.9521484375
0, 8, 29, 1509.441528320312
0, 8, 30, 1484.902709960938
0, 8, 31, 1535.671020507812
0, 8, 32, 1507.8984375
0, 8, 33, 1482.406616210938
0, 8, 34, 1537.37890625
0, 8, 35, 1441.697631835938
0, 8, 36, 1497.066772460938
0, 8, 37, 1557.58984375
0, 8, 38, 1551.52197265625
0, 8, 39, 1492.48486328125
0, 8, 40, 1527.564453125
0, 8, 41, 1487.956298828125
0, 8, 42, 1542.72998046875
0, 8, 43, 1431.344116210938
0, 8, 44, 1534.420043945312
0, 8, 45, 1511.740112304688
0, 8, 46, 1596.55224609375
0, 8, 47, 1585.78466796875
0, 8, 48, 1547.120971679688
