# TOPAS Version: 3.1.p3
# Parameter File: batch_inserts_302.txt
# Results for scorer Readout_Adipose
# Scored in component: MyBox
# X in 1 bin  of 0.75 cm
# Y in 512 bins of 0.0783984 cm
# Z in 128 bins of 0.078125 cm
# EnergyDeposit ( MeV ) : Sum   
0, 0, 0, 4.183883666992188
0, 0, 1, 2.053157806396484
0, 0, 2, 6.259807109832764
0, 0, 3, 3.50871205329895
0, 0, 4, 4.278997898101807
0, 0, 5, 3.551968812942505
0, 0, 6, 7.038920402526855
0, 0, 7, 9.713179588317871
0, 0, 8, 5.133017063140869
0, 0, 9, 3.867366075515747
0, 0, 10, 6.18645191192627
0, 0, 11, 4.312404632568359
0, 0, 12, 5.447934627532959
0, 0, 13, 7.251700878143311
0, 0, 14, 7.389769554138184
0, 0, 15, 9.800458908081055
0, 0, 16, 8.333065986633301
0, 0, 17, 8.65858268737793
0, 0, 18, 14.8214282989502
0, 0, 19, 44.60346221923828
0, 0, 20, 141.0006408691406
0, 0, 21, 225.5418395996094
0, 0, 22, 249.3172302246094
0, 0, 23, 256.3506469726562
0, 0, 24, 250.1523742675781
0, 0, 25, 261.5949401855469
0, 0, 26, 234.1083526611328
0, 0, 27, 237.6085357666016
0, 0, 28, 273.0370788574219
0, 0, 29, 253.4522094726562
0, 0, 30, 232.8397216796875
0, 0, 31, 244.6858367919922
0, 0, 32, 263.7559204101562
0, 0, 33, 259.4546508789062
0, 0, 34, 288.507568359375
0, 0, 35, 267.4765625
0, 0, 36, 246.6484069824219
0, 0, 37, 255.4294891357422
0, 0, 38, 267.9234008789062
0, 0, 39, 232.9641265869141
0, 0, 40, 241.8137817382812
0, 0, 41, 267.1255493164062
0, 0, 42, 227.9382934570312
0, 0, 43, 260.1130065917969
0, 0, 44, 250.705810546875
0, 0, 45, 254.1705627441406
0, 0, 46, 247.4288787841797
0, 0, 47, 254.0150299072266
0, 0, 48, 266.6988220214844
0, 0, 49, 271.8910522460938
0, 0, 50, 251.8586273193359
0, 0, 51, 253.1326293945312
0, 0, 52, 272.8054809570312
0, 0, 53, 289.6905212402344
0, 0, 54, 244.0201263427734
0, 0, 55, 240.2903747558594
0, 0, 56, 278.2740173339844
0, 0, 57, 263.0345153808594
0, 0, 58, 245.5056915283203
0, 0, 59, 270.9430236816406
0, 0, 60, 236.4714508056641
0, 0, 61, 246.4455718994141
0, 0, 62, 257.8243103027344
0, 0, 63, 266.3980712890625
0, 0, 64, 255.0662841796875
0, 0, 65, 261.5804748535156
0, 0, 66, 277.4311828613281
0, 0, 67, 246.0543212890625
0, 0, 68, 257.3367614746094
0, 0, 69, 261.2236938476562
0, 0, 70, 272.1865539550781
0, 0, 71, 237.1372985839844
0, 0, 72, 250.7198333740234
0, 0, 73, 262.064453125
0, 0, 74, 251.6952514648438
0, 0, 75, 240.5287628173828
0, 0, 76, 227.7477264404297
0, 0, 77, 260.3700561523438
0, 0, 78, 255.0499877929688
0, 0, 79, 278.0428466796875
0, 0, 80, 218.2053833007812
0, 0, 81, 266.4216918945312
0, 0, 82, 256.621826171875
0, 0, 83, 245.0216369628906
0, 0, 84, 270.0504150390625
0, 0, 85, 232.3008270263672
0, 0, 86, 254.6490020751953
0, 0, 87, 249.0160522460938
0, 0, 88, 261.0087280273438
0, 0, 89, 282.5681457519531
0, 0, 90, 242.9823150634766
0, 0, 91, 280.5668029785156
0, 0, 92, 251.3224029541016
0, 0, 93, 252.1606292724609
0, 0, 94, 249.2677612304688
0, 0, 95, 247.9056701660156
0, 0, 96, 276.2554321289062
0, 0, 97, 274.1255798339844
0, 0, 98, 273.4014587402344
0, 0, 99, 260.9575500488281
0, 0, 100, 259.92138671875
0, 0, 101, 227.80224609375
0, 0, 102, 233.0457458496094
0, 0, 103, 270.3429260253906
0, 0, 104, 253.7081146240234
0, 0, 105, 252.1380157470703
0, 0, 106, 246.6882171630859
0, 0, 107, 152.7444305419922
0, 0, 108, 39.91960525512695
0, 0, 109, 11.64183807373047
0, 0, 110, 12.62701511383057
0, 0, 111, 12.1237735748291
0, 0, 112, 7.212197780609131
0, 0, 113, 6.009081840515137
0, 0, 114, 7.617767333984375
0, 0, 115, 5.264255046844482
0, 0, 116, 4.566020011901855
0, 0, 117, 6.340407848358154
0, 0, 118, 6.657456874847412
0, 0, 119, 4.388212203979492
0, 0, 120, 5.56385612487793
0, 0, 121, 3.245255947113037
0, 0, 122, 5.739443778991699
0, 0, 123, 2.93591833114624
0, 0, 124, 5.587635040283203
0, 0, 125, 2.485833883285522
0, 0, 126, 4.204380512237549
0, 0, 127, 5.485422611236572
0, 1, 0, 7.714804172515869
0, 1, 1, 4.471646785736084
0, 1, 2, 4.374780654907227
0, 1, 3, 1.331212401390076
0, 1, 4, 3.355552911758423
0, 1, 5, 2.278874397277832
0, 1, 6, 3.677968978881836
0, 1, 7, 2.954036712646484
0, 1, 8, 6.208394050598145
0, 1, 9, 4.125504016876221
0, 1, 10, 7.691219806671143
0, 1, 11, 12.68170547485352
0, 1, 12, 8.381792068481445
0, 1, 13, 8.747566223144531
0, 1, 14, 7.643617153167725
0, 1, 15, 6.985736846923828
0, 1, 16, 12.90185642242432
0, 1, 17, 10.89995384216309
0, 1, 18, 20.63718605041504
0, 1, 19, 66.70977020263672
0, 1, 20, 198.0000457763672
0, 1, 21, 254.8412780761719
0, 1, 22, 297.6990356445312
0, 1, 23, 284.315673828125
0, 1, 24, 275.5836791992188
0, 1, 25, 289.4156188964844
0, 1, 26, 267.0883483886719
0, 1, 27, 305.8263549804688
0, 1, 28, 298.6982421875
0, 1, 29, 296.7604370117188
0, 1, 30, 282.5796813964844
0, 1, 31, 291.7109069824219
0, 1, 32, 289.9789733886719
0, 1, 33, 296.9177551269531
0, 1, 34, 292.7697143554688
0, 1, 35, 281.1116027832031
0, 1, 36, 305.3748779296875
0, 1, 37, 294.9898376464844
0, 1, 38, 281.5387268066406
0, 1, 39, 296.99462890625
0, 1, 40, 268.8319396972656
0, 1, 41, 286.3962097167969
0, 1, 42, 291.1181335449219
0, 1, 43, 331.7970581054688
0, 1, 44, 278.489990234375
0, 1, 45, 292.3334045410156
0, 1, 46, 261.1992492675781
0, 1, 47, 310.0740966796875
0, 1, 48, 283.8881225585938
0, 1, 49, 301.645263671875
0, 1, 50, 262.6925659179688
0, 1, 51, 272.5420837402344
0, 1, 52, 295.921142578125
0, 1, 53, 304.4098815917969
0, 1, 54, 274.7420959472656
0, 1, 55, 292.2643432617188
0, 1, 56, 279.77587890625
0, 1, 57, 296.5260314941406
0, 1, 58, 312.1334838867188
0, 1, 59, 295.3007507324219
0, 1, 60, 297.1346740722656
0, 1, 61, 273.0311584472656
0, 1, 62, 309.7735595703125
0, 1, 63, 285.5073852539062
0, 1, 64, 288.5691223144531
0, 1, 65, 294.1316528320312
0, 1, 66, 292.8090515136719
0, 1, 67, 292.6873474121094
0, 1, 68, 276.7764282226562
0, 1, 69, 280.267578125
0, 1, 70, 268.939208984375
0, 1, 71, 272.8199157714844
0, 1, 72, 287.6229553222656
0, 1, 73, 302.6275024414062
0, 1, 74, 304.4514465332031
0, 1, 75, 291.3771362304688
0, 1, 76, 284.1213073730469
0, 1, 77, 287.1260375976562
0, 1, 78, 296.763671875
0, 1, 79, 304.0948791503906
0, 1, 80, 295.3140258789062
0, 1, 81, 300.2819519042969
0, 1, 82, 284.8691101074219
0, 1, 83, 331.7137756347656
0, 1, 84, 308.0265197753906
0, 1, 85, 252.0523529052734
0, 1, 86, 296.0714721679688
0, 1, 87, 290.8750610351562
0, 1, 88, 297.1099243164062
0, 1, 89, 290.3214416503906
0, 1, 90, 270.2158813476562
0, 1, 91, 317.9182434082031
0, 1, 92, 291.5373840332031
0, 1, 93, 285.3290710449219
0, 1, 94, 303.7607116699219
0, 1, 95, 283.2056579589844
0, 1, 96, 283.1255187988281
0, 1, 97, 301.3182067871094
0, 1, 98, 278.0561218261719
0, 1, 99, 268.1658935546875
0, 1, 100, 275.843994140625
0, 1, 101, 283.6256408691406
0, 1, 102, 279.4318542480469
0, 1, 103, 282.2767944335938
0, 1, 104, 307.4863586425781
0, 1, 105, 297.5472412109375
0, 1, 106, 262.226318359375
0, 1, 107, 190.8853302001953
0, 1, 108, 81.22095489501953
0, 1, 109, 22.74300575256348
0, 1, 110, 11.22556209564209
0, 1, 111, 10.22311019897461
0, 1, 112, 13.07961845397949
0, 1, 113, 6.627987384796143
0, 1, 114, 6.189652442932129
0, 1, 115, 6.648880481719971
0, 1, 116, 11.86045551300049
0, 1, 117, 6.957615375518799
0, 1, 118, 6.051414489746094
0, 1, 119, 6.256256580352783
0, 1, 120, 4.114677429199219
0, 1, 121, 4.506046772003174
0, 1, 122, 3.579363822937012
0, 1, 123, 4.421775817871094
0, 1, 124, 6.819038391113281
0, 1, 125, 3.691205739974976
0, 1, 126, 2.104865550994873
0, 1, 127, 2.0514235496521
0, 2, 0, 4.4311203956604
0, 2, 1, 1.298158645629883
0, 2, 2, 3.957673788070679
0, 2, 3, 4.606290817260742
0, 2, 4, 3.771591901779175
0, 2, 5, 3.688163995742798
0, 2, 6, 1.745484471321106
0, 2, 7, 3.018641233444214
0, 2, 8, 4.382454395294189
0, 2, 9, 6.381306648254395
0, 2, 10, 9.629508972167969
0, 2, 11, 7.347618579864502
0, 2, 12, 6.581454277038574
0, 2, 13, 10.16780567169189
0, 2, 14, 11.15686702728271
0, 2, 15, 7.748673439025879
0, 2, 16, 10.02996635437012
0, 2, 17, 17.2110538482666
0, 2, 18, 32.61888122558594
0, 2, 19, 116.0877380371094
0, 2, 20, 246.2588195800781
0, 2, 21, 270.9363708496094
0, 2, 22, 315.70751953125
0, 2, 23, 300.2993774414062
0, 2, 24, 288.1933898925781
0, 2, 25, 304.6610107421875
0, 2, 26, 292.0985412597656
0, 2, 27, 275.2587280273438
0, 2, 28, 273.5206298828125
0, 2, 29, 274.545654296875
0, 2, 30, 289.3265991210938
0, 2, 31, 278.0381164550781
0, 2, 32, 295.1062927246094
0, 2, 33, 282.4251708984375
0, 2, 34, 333.2507934570312
0, 2, 35, 289.5299682617188
0, 2, 36, 304.9796447753906
0, 2, 37, 316.2561645507812
0, 2, 38, 312.5519104003906
0, 2, 39, 266.3638000488281
0, 2, 40, 310.7872314453125
0, 2, 41, 292.9871520996094
0, 2, 42, 303.0291748046875
0, 2, 43, 310.6065673828125
0, 2, 44, 313.5129699707031
0, 2, 45, 324.4566345214844
0, 2, 46, 289.7531433105469
0, 2, 47, 304.5775451660156
0, 2, 48, 279.9215087890625
0, 2, 49, 277.8145446777344
0, 2, 50, 296.0086975097656
0, 2, 51, 285.1239013671875
0, 2, 52, 273.7484436035156
0, 2, 53, 288.180419921875
0, 2, 54, 281.0215454101562
0, 2, 55, 273.0357360839844
0, 2, 56, 302.0641784667969
0, 2, 57, 294.1229248046875
0, 2, 58, 300.9173278808594
0, 2, 59, 286.478271484375
0, 2, 60, 319.308837890625
0, 2, 61, 300.7807312011719
0, 2, 62, 312.5152282714844
0, 2, 63, 303.9459533691406
0, 2, 64, 296.1778869628906
0, 2, 65, 315.6443176269531
0, 2, 66, 279.3282470703125
0, 2, 67, 290.2031555175781
0, 2, 68, 295.5606079101562
0, 2, 69, 314.2780456542969
0, 2, 70, 335.6761169433594
0, 2, 71, 284.7476196289062
0, 2, 72, 302.7705383300781
0, 2, 73, 310.0660400390625
0, 2, 74, 286.4051208496094
0, 2, 75, 304.6603393554688
0, 2, 76, 286.4085083007812
0, 2, 77, 302.5949096679688
0, 2, 78, 313.4725952148438
0, 2, 79, 309.395751953125
0, 2, 80, 298.380615234375
0, 2, 81, 283.2715759277344
0, 2, 82, 318.1091918945312
0, 2, 83, 311.1257019042969
0, 2, 84, 287.4985961914062
0, 2, 85, 281.8662414550781
0, 2, 86, 325.5746765136719
0, 2, 87, 287.0260009765625
0, 2, 88, 281.3896789550781
0, 2, 89, 297.1078796386719
0, 2, 90, 295.990966796875
0, 2, 91, 275.7662658691406
0, 2, 92, 306.3522033691406
0, 2, 93, 318.1172485351562
0, 2, 94, 292.3850402832031
0, 2, 95, 314.7409362792969
0, 2, 96, 314.7584838867188
0, 2, 97, 294.6770935058594
0, 2, 98, 293.3889770507812
0, 2, 99, 272.8111572265625
0, 2, 100, 305.8370361328125
0, 2, 101, 301.8090209960938
0, 2, 102, 297.3460388183594
0, 2, 103, 291.1279296875
0, 2, 104, 292.787353515625
0, 2, 105, 274.3456726074219
0, 2, 106, 297.07568359375
0, 2, 107, 269.8518676757812
0, 2, 108, 117.8505706787109
0, 2, 109, 32.01601028442383
0, 2, 110, 9.950442314147949
0, 2, 111, 12.42321109771729
0, 2, 112, 6.20087194442749
0, 2, 113, 11.10798168182373
0, 2, 114, 9.940929412841797
0, 2, 115, 10.81090354919434
0, 2, 116, 11.19321632385254
0, 2, 117, 7.366403102874756
0, 2, 118, 5.202450275421143
0, 2, 119, 7.542931079864502
0, 2, 120, 5.991085529327393
0, 2, 121, 4.046751499176025
0, 2, 122, 3.365014791488647
0, 2, 123, 3.488054037094116
0, 2, 124, 3.995003223419189
0, 2, 125, 6.405232429504395
0, 2, 126, 5.364559173583984
0, 2, 127, 5.691697120666504
0, 3, 0, 3.453704118728638
0, 3, 1, 3.328527927398682
0, 3, 2, 4.52216625213623
0, 3, 3, 1.93967878818512
0, 3, 4, 3.304748296737671
0, 3, 5, 5.931910991668701
0, 3, 6, 6.0826416015625
0, 3, 7, 5.990985870361328
0, 3, 8, 6.234219551086426
0, 3, 9, 6.113015651702881
0, 3, 10, 5.590147018432617
0, 3, 11, 3.409745454788208
0, 3, 12, 8.984938621520996
0, 3, 13, 14.83755016326904
0, 3, 14, 11.25609111785889
0, 3, 15, 15.88266086578369
0, 3, 16, 11.96011543273926
0, 3, 17, 18.21148681640625
0, 3, 18, 52.38838577270508
0, 3, 19, 176.6762542724609
0, 3, 20, 270.7202453613281
0, 3, 21, 271.7223815917969
0, 3, 22, 280.3616027832031
0, 3, 23, 287.3664855957031
0, 3, 24, 288.3476257324219
0, 3, 25, 273.5910339355469
0, 3, 26, 303.7920837402344
0, 3, 27, 291.6730651855469
0, 3, 28, 283.3567504882812
0, 3, 29, 338.1962280273438
0, 3, 30, 317.5498657226562
0, 3, 31, 289.0230102539062
0, 3, 32, 307.2670288085938
0, 3, 33, 316.1240234375
0, 3, 34, 320.3421936035156
0, 3, 35, 305.6403503417969
0, 3, 36, 268.3433227539062
0, 3, 37, 315.6233215332031
0, 3, 38, 302.9111633300781
0, 3, 39, 289.6814270019531
0, 3, 40, 266.100830078125
0, 3, 41, 299.7427673339844
0, 3, 42, 285.9530944824219
0, 3, 43, 308.2275695800781
0, 3, 44, 310.5444641113281
0, 3, 45, 290.0470886230469
0, 3, 46, 328.8900451660156
0, 3, 47, 299.3054809570312
0, 3, 48, 304.6688537597656
0, 3, 49, 277.5852966308594
0, 3, 50, 292.99267578125
0, 3, 51, 275.3192443847656
0, 3, 52, 315.6494750976562
0, 3, 53, 290.5444946289062
0, 3, 54, 283.8119812011719
0, 3, 55, 283.6642150878906
0, 3, 56, 297.2688598632812
0, 3, 57, 288.6664428710938
0, 3, 58, 307.5485534667969
0, 3, 59, 296.9118041992188
0, 3, 60, 299.5848999023438
0, 3, 61, 265.40625
0, 3, 62, 283.6742248535156
0, 3, 63, 306.1428527832031
0, 3, 64, 315.80810546875
0, 3, 65, 304.2826843261719
0, 3, 66, 314.2057495117188
0, 3, 67, 318.4962463378906
0, 3, 68, 280.0486145019531
0, 3, 69, 281.6851196289062
0, 3, 70, 287.039794921875
0, 3, 71, 300.9613952636719
0, 3, 72, 270.4670715332031
0, 3, 73, 308.8414916992188
0, 3, 74, 291.8790283203125
0, 3, 75, 289.9308776855469
0, 3, 76, 305.0405578613281
0, 3, 77, 314.1295776367188
0, 3, 78, 301.9966430664062
0, 3, 79, 280.7901611328125
0, 3, 80, 290.5570983886719
0, 3, 81, 310.0479431152344
0, 3, 82, 314.6103515625
0, 3, 83, 301.5086669921875
0, 3, 84, 311.8181457519531
0, 3, 85, 297.0237426757812
0, 3, 86, 305.706298828125
0, 3, 87, 300.0746459960938
0, 3, 88, 297.260986328125
0, 3, 89, 299.6119995117188
0, 3, 90, 276.0338745117188
0, 3, 91, 284.3684387207031
0, 3, 92, 303.2036437988281
0, 3, 93, 312.99658203125
0, 3, 94, 297.202392578125
0, 3, 95, 334.1213684082031
0, 3, 96, 290.1875305175781
0, 3, 97, 282.8760375976562
0, 3, 98, 277.7337646484375
0, 3, 99, 264.201904296875
0, 3, 100, 287.614013671875
0, 3, 101, 296.9356689453125
0, 3, 102, 275.4986572265625
0, 3, 103, 321.0688781738281
0, 3, 104, 308.300048828125
0, 3, 105, 289.3020629882812
0, 3, 106, 302.1376037597656
0, 3, 107, 281.1682434082031
0, 3, 108, 168.60693359375
0, 3, 109, 58.27190017700195
0, 3, 110, 21.48737335205078
0, 3, 111, 12.80729293823242
0, 3, 112, 11.83845996856689
0, 3, 113, 10.4473934173584
0, 3, 114, 11.02063941955566
0, 3, 115, 8.648238182067871
0, 3, 116, 6.766211032867432
0, 3, 117, 6.121447086334229
0, 3, 118, 6.786045551300049
0, 3, 119, 5.538748264312744
0, 3, 120, 3.580204963684082
0, 3, 121, 2.641613483428955
0, 3, 122, 7.46721887588501
0, 3, 123, 6.960753440856934
0, 3, 124, 4.218971729278564
0, 3, 125, 6.284822463989258
0, 3, 126, 4.224709987640381
0, 3, 127, 2.596297979354858
0, 4, 0, 2.960773229598999
0, 4, 1, 4.908516407012939
0, 4, 2, 3.993168354034424
0, 4, 3, 1.506810307502747
0, 4, 4, 6.823674201965332
0, 4, 5, 7.467273235321045
0, 4, 6, 8.128732681274414
0, 4, 7, 4.268096923828125
0, 4, 8, 3.060318470001221
0, 4, 9, 5.312913417816162
0, 4, 10, 9.613687515258789
0, 4, 11, 7.334244251251221
0, 4, 12, 6.396748065948486
0, 4, 13, 8.040303230285645
0, 4, 14, 9.164252281188965
0, 4, 15, 9.360197067260742
0, 4, 16, 13.81306934356689
0, 4, 17, 17.44815254211426
0, 4, 18, 94.32727813720703
0, 4, 19, 222.3246917724609
0, 4, 20, 286.688720703125
0, 4, 21, 273.5317993164062
0, 4, 22, 304.3511962890625
0, 4, 23, 266.7276611328125
0, 4, 24, 293.096435546875
0, 4, 25, 272.3495483398438
0, 4, 26, 295.2466735839844
0, 4, 27, 284.4979553222656
0, 4, 28, 306.3184204101562
0, 4, 29, 322.2171325683594
0, 4, 30, 309.1917724609375
0, 4, 31, 305.3464660644531
0, 4, 32, 280.4248046875
0, 4, 33, 296.1495666503906
0, 4, 34, 298.2756652832031
0, 4, 35, 311.4315185546875
0, 4, 36, 293.5309448242188
0, 4, 37, 286.3985290527344
0, 4, 38, 296.5837707519531
0, 4, 39, 296.11962890625
0, 4, 40, 303.8346862792969
0, 4, 41, 312.806884765625
0, 4, 42, 330.7767333984375
0, 4, 43, 293.7600402832031
0, 4, 44, 321.013916015625
0, 4, 45, 325.4980773925781
0, 4, 46, 308.3362121582031
0, 4, 47, 292.0757141113281
0, 4, 48, 295.7115173339844
0, 4, 49, 278.0550231933594
0, 4, 50, 297.5796813964844
0, 4, 51, 315.1505432128906
0, 4, 52, 328.5780639648438
0, 4, 53, 304.4371032714844
0, 4, 54, 286.7223205566406
0, 4, 55, 320.0220336914062
0, 4, 56, 286.1103820800781
0, 4, 57, 311.6168212890625
0, 4, 58, 295.5768737792969
0, 4, 59, 308.67626953125
0, 4, 60, 301.0419616699219
0, 4, 61, 316.5021057128906
0, 4, 62, 307.2645874023438
0, 4, 63, 299.5185241699219
0, 4, 64, 330.4244995117188
0, 4, 65, 316.0761413574219
0, 4, 66, 292.8645324707031
0, 4, 67, 285.1235046386719
0, 4, 68, 313.5020141601562
0, 4, 69, 277.015625
0, 4, 70, 300.8459167480469
0, 4, 71, 321.2632141113281
0, 4, 72, 332.7920227050781
0, 4, 73, 297.610595703125
0, 4, 74, 292.5075378417969
0, 4, 75, 290.8858947753906
0, 4, 76, 273.9333801269531
0, 4, 77, 277.48193359375
0, 4, 78, 308.2032775878906
0, 4, 79, 319.2821044921875
0, 4, 80, 315.8319091796875
0, 4, 81, 312.8195190429688
0, 4, 82, 297.9107971191406
0, 4, 83, 300.6854248046875
0, 4, 84, 292.0916442871094
0, 4, 85, 294.7358093261719
0, 4, 86, 299.2189331054688
0, 4, 87, 285.3839111328125
0, 4, 88, 306.7222290039062
0, 4, 89, 294.7762756347656
0, 4, 90, 331.8668212890625
0, 4, 91, 301.8605041503906
0, 4, 92, 290.807373046875
0, 4, 93, 296.893798828125
0, 4, 94, 293.3629760742188
0, 4, 95, 289.047119140625
0, 4, 96, 321.8394165039062
0, 4, 97, 273.9173889160156
0, 4, 98, 327.8186340332031
0, 4, 99, 314.0086364746094
0, 4, 100, 299.5696411132812
0, 4, 101, 257.7168579101562
0, 4, 102, 301.2716674804688
0, 4, 103, 318.9664916992188
0, 4, 104, 282.2016296386719
0, 4, 105, 309.9798889160156
0, 4, 106, 286.739501953125
0, 4, 107, 298.639404296875
0, 4, 108, 225.1625366210938
0, 4, 109, 79.89964294433594
0, 4, 110, 17.24591255187988
0, 4, 111, 14.09921741485596
0, 4, 112, 8.119003295898438
0, 4, 113, 9.434595108032227
0, 4, 114, 7.587406158447266
0, 4, 115, 9.003555297851562
0, 4, 116, 9.462867736816406
0, 4, 117, 8.665521621704102
0, 4, 118, 10.1850414276123
0, 4, 119, 7.986353874206543
0, 4, 120, 6.227247714996338
0, 4, 121, 5.908384799957275
0, 4, 122, 3.914611577987671
0, 4, 123, 5.656445980072021
0, 4, 124, 5.420343399047852
0, 4, 125, 9.358064651489258
0, 4, 126, 3.992679595947266
0, 4, 127, 3.332878351211548
0, 5, 0, 6.867617607116699
0, 5, 1, 2.908450603485107
0, 5, 2, 2.542985200881958
0, 5, 3, 5.631430149078369
0, 5, 4, 4.795753479003906
0, 5, 5, 5.233154296875
0, 5, 6, 6.108181476593018
0, 5, 7, 4.809235095977783
0, 5, 8, 4.854829788208008
0, 5, 9, 5.90326976776123
0, 5, 10, 5.724702835083008
0, 5, 11, 7.652581214904785
0, 5, 12, 8.784123420715332
0, 5, 13, 7.901784420013428
0, 5, 14, 13.06322002410889
0, 5, 15, 17.08629417419434
0, 5, 16, 14.97432327270508
0, 5, 17, 30.68027877807617
0, 5, 18, 136.3836364746094
0, 5, 19, 286.6998901367188
0, 5, 20, 307.0675964355469
0, 5, 21, 316.6873168945312
0, 5, 22, 276.1572875976562
0, 5, 23, 310.2503662109375
0, 5, 24, 303.1884155273438
0, 5, 25, 288.921630859375
0, 5, 26, 294.1459655761719
0, 5, 27, 322.7856140136719
0, 5, 28, 303.0538635253906
0, 5, 29, 298.3526000976562
0, 5, 30, 325.9766540527344
0, 5, 31, 286.5052795410156
0, 5, 32, 301.656005859375
0, 5, 33, 304.32763671875
0, 5, 34, 297.4736633300781
0, 5, 35, 310.1042175292969
0, 5, 36, 269.8151245117188
0, 5, 37, 280.9388732910156
0, 5, 38, 295.3669128417969
0, 5, 39, 311.6171264648438
0, 5, 40, 309.938720703125
0, 5, 41, 273.6485595703125
0, 5, 42, 304.1087036132812
0, 5, 43, 314.9547119140625
0, 5, 44, 292.4815063476562
0, 5, 45, 301.2186279296875
0, 5, 46, 264.5187377929688
0, 5, 47, 278.8214416503906
0, 5, 48, 292.7911071777344
0, 5, 49, 287.7771911621094
0, 5, 50, 295.0896911621094
0, 5, 51, 281.2604064941406
0, 5, 52, 272.6015930175781
0, 5, 53, 286.1011962890625
0, 5, 54, 293.4093322753906
0, 5, 55, 345.7037353515625
0, 5, 56, 304.5391845703125
0, 5, 57, 307.0474243164062
0, 5, 58, 311.3720703125
0, 5, 59, 304.6940612792969
0, 5, 60, 307.7342834472656
0, 5, 61, 281.9263916015625
0, 5, 62, 327.3109436035156
0, 5, 63, 290.4089965820312
0, 5, 64, 323.8978576660156
0, 5, 65, 305.3698120117188
0, 5, 66, 328.59228515625
0, 5, 67, 311.0805358886719
0, 5, 68, 313.1643981933594
0, 5, 69, 310.9177551269531
0, 5, 70, 299.5597534179688
0, 5, 71, 271.191650390625
0, 5, 72, 311.8952331542969
0, 5, 73, 302.5542907714844
0, 5, 74, 295.5367126464844
0, 5, 75, 293.2917785644531
0, 5, 76, 287.6562805175781
0, 5, 77, 301.8024291992188
0, 5, 78, 315.7078857421875
0, 5, 79, 308.1284484863281
0, 5, 80, 294.4984436035156
0, 5, 81, 326.989013671875
0, 5, 82, 325.4512023925781
0, 5, 83, 282.5853881835938
0, 5, 84, 301.10986328125
0, 5, 85, 269.1123962402344
0, 5, 86, 325.254150390625
0, 5, 87, 284.4472961425781
0, 5, 88, 313.3870544433594
0, 5, 89, 304.0191345214844
0, 5, 90, 316.3957214355469
0, 5, 91, 312.7242736816406
0, 5, 92, 296.3919067382812
0, 5, 93, 322.5725708007812
0, 5, 94, 307.8766479492188
0, 5, 95, 296.7124938964844
0, 5, 96, 300.4280090332031
0, 5, 97, 295.8776245117188
0, 5, 98, 318.5393981933594
0, 5, 99, 302.2242431640625
0, 5, 100, 291.663330078125
0, 5, 101, 305.5408020019531
0, 5, 102, 292.132568359375
0, 5, 103, 313.232666015625
0, 5, 104, 302.4613037109375
0, 5, 105, 294.6156616210938
0, 5, 106, 281.056396484375
0, 5, 107, 294.4842834472656
0, 5, 108, 265.83642578125
0, 5, 109, 158.0247344970703
0, 5, 110, 39.44725036621094
0, 5, 111, 19.35489082336426
0, 5, 112, 19.34974098205566
0, 5, 113, 14.91991519927979
0, 5, 114, 15.72372817993164
0, 5, 115, 8.42945671081543
0, 5, 116, 9.86976146697998
0, 5, 117, 7.607573986053467
0, 5, 118, 14.63524627685547
0, 5, 119, 7.906147003173828
0, 5, 120, 5.7915940284729
0, 5, 121, 4.92780590057373
0, 5, 122, 5.703893184661865
0, 5, 123, 4.887403011322021
0, 5, 124, 7.008813381195068
0, 5, 125, 3.942931890487671
0, 5, 126, 7.334183692932129
0, 5, 127, 2.323859214782715
0, 6, 0, 5.083034992218018
0, 6, 1, 4.264433860778809
0, 6, 2, 5.280444622039795
0, 6, 3, 5.889727115631104
0, 6, 4, 4.278190612792969
0, 6, 5, 6.755095481872559
0, 6, 6, 6.712385654449463
0, 6, 7, 6.203250408172607
0, 6, 8, 7.557688236236572
0, 6, 9, 5.024768829345703
0, 6, 10, 9.10518741607666
0, 6, 11, 7.682359218597412
0, 6, 12, 9.804832458496094
0, 6, 13, 16.23513412475586
0, 6, 14, 8.04923152923584
0, 6, 15, 16.82379150390625
0, 6, 16, 27.49624061584473
0, 6, 17, 55.16337203979492
0, 6, 18, 174.4664459228516
0, 6, 19, 275.827392578125
0, 6, 20, 291.6663208007812
0, 6, 21, 317.0672607421875
0, 6, 22, 321.1146850585938
0, 6, 23, 304.2206726074219
0, 6, 24, 317.2820129394531
0, 6, 25, 317.5601196289062
0, 6, 26, 320.2596740722656
0, 6, 27, 331.395751953125
0, 6, 28, 295.1322326660156
0, 6, 29, 330.4147644042969
0, 6, 30, 280.2116394042969
0, 6, 31, 286.2192687988281
0, 6, 32, 339.9869995117188
0, 6, 33, 299.9618530273438
0, 6, 34, 339.4583129882812
0, 6, 35, 321.5558776855469
0, 6, 36, 273.4797668457031
0, 6, 37, 289.9124145507812
0, 6, 38, 310.189453125
0, 6, 39, 298.7250671386719
0, 6, 40, 283.436279296875
0, 6, 41, 294.8892517089844
0, 6, 42, 303.3829345703125
0, 6, 43, 290.9648742675781
0, 6, 44, 283.9044799804688
0, 6, 45, 319.7016296386719
0, 6, 46, 302.2712707519531
0, 6, 47, 334.7641296386719
0, 6, 48, 292.4115905761719
0, 6, 49, 312.2453918457031
0, 6, 50, 328.580322265625
0, 6, 51, 310.405517578125
0, 6, 52, 322.6563110351562
0, 6, 53, 327.2809753417969
0, 6, 54, 304.5436096191406
0, 6, 55, 303.47119140625
0, 6, 56, 296.2958068847656
0, 6, 57, 312.8005065917969
0, 6, 58, 260.60546875
0, 6, 59, 300.5060729980469
0, 6, 60, 314.6655883789062
0, 6, 61, 269.6476745605469
0, 6, 62, 337.8293151855469
0, 6, 63, 321.7618713378906
0, 6, 64, 289.62158203125
0, 6, 65, 285.8761901855469
0, 6, 66, 304.114013671875
0, 6, 67, 309.4367370605469
0, 6, 68, 294.1607360839844
0, 6, 69, 278.1918640136719
0, 6, 70, 274.757080078125
0, 6, 71, 289.5157165527344
0, 6, 72, 308.3504943847656
0, 6, 73, 295.9964599609375
0, 6, 74, 329.1685485839844
0, 6, 75, 344.0573425292969
0, 6, 76, 298.2181091308594
0, 6, 77, 284.3580017089844
0, 6, 78, 277.9906311035156
0, 6, 79, 292.5424194335938
0, 6, 80, 301.5405883789062
0, 6, 81, 314.3603820800781
0, 6, 82, 318.3666076660156
0, 6, 83, 319.3702087402344
0, 6, 84, 296.9281921386719
0, 6, 85, 299.1583862304688
0, 6, 86, 329.7604675292969
0, 6, 87, 291.9750671386719
0, 6, 88, 304.7640686035156
0, 6, 89, 304.3176574707031
0, 6, 90, 299.9672546386719
0, 6, 91, 311.9142456054688
0, 6, 92, 285.6741943359375
0, 6, 93, 295.0663146972656
0, 6, 94, 272.5786437988281
0, 6, 95, 299.76416015625
0, 6, 96, 348.97412109375
0, 6, 97, 307.8317565917969
0, 6, 98, 301.8471984863281
0, 6, 99, 271.3044128417969
0, 6, 100, 309.7828369140625
0, 6, 101, 292.6593017578125
0, 6, 102, 307.2640075683594
0, 6, 103, 306.32080078125
0, 6, 104, 289.7757873535156
0, 6, 105, 300.7777709960938
0, 6, 106, 307.8940734863281
0, 6, 107, 305.7261657714844
0, 6, 108, 266.0791320800781
0, 6, 109, 186.3983306884766
0, 6, 110, 54.26186370849609
0, 6, 111, 20.47659683227539
0, 6, 112, 13.13833904266357
0, 6, 113, 10.30480766296387
0, 6, 114, 13.46059513092041
0, 6, 115, 14.39826774597168
0, 6, 116, 9.710254669189453
0, 6, 117, 7.339730739593506
0, 6, 118, 9.408408164978027
0, 6, 119, 9.146570205688477
0, 6, 120, 5.517279148101807
0, 6, 121, 7.770012855529785
0, 6, 122, 5.976169109344482
0, 6, 123, 5.267987251281738
0, 6, 124, 6.333510398864746
0, 6, 125, 7.37126636505127
0, 6, 126, 4.415076732635498
0, 6, 127, 5.886332035064697
0, 7, 0, 5.046061992645264
0, 7, 1, 2.982523679733276
0, 7, 2, 5.904316902160645
0, 7, 3, 6.75058650970459
0, 7, 4, 4.628576278686523
0, 7, 5, 6.453154563903809
0, 7, 6, 6.086222171783447
0, 7, 7, 6.869551658630371
0, 7, 8, 5.130619049072266
0, 7, 9, 5.141092300415039
0, 7, 10, 8.396889686584473
0, 7, 11, 11.43218517303467
0, 7, 12, 11.2165060043335
0, 7, 13, 11.2341480255127
0, 7, 14, 10.12265586853027
0, 7, 15, 18.67170906066895
0, 7, 16, 24.96323585510254
0, 7, 17, 97.24633026123047
0, 7, 18, 216.9142761230469
0, 7, 19, 290.4747924804688
0, 7, 20, 294.6307067871094
0, 7, 21, 280.4721069335938
0, 7, 22, 299.5506896972656
0, 7, 23, 291.75244140625
0, 7, 24, 313.0744934082031
0, 7, 25, 322.99951171875
0, 7, 26, 276.75146484375
0, 7, 27, 296.56787109375
0, 7, 28, 326.6756286621094
0, 7, 29, 318.4410095214844
0, 7, 30, 300.6057434082031
0, 7, 31, 277.9716796875
0, 7, 32, 306.6526794433594
0, 7, 33, 262.9286804199219
0, 7, 34, 300.1882629394531
0, 7, 35, 318.0971069335938
0, 7, 36, 329.0800476074219
0, 7, 37, 323.4432067871094
0, 7, 38, 295.8471069335938
0, 7, 39, 306.3427734375
0, 7, 40, 289.6656799316406
0, 7, 41, 271.9592895507812
0, 7, 42, 305.0768127441406
0, 7, 43, 273.1782836914062
0, 7, 44, 305.0915832519531
0, 7, 45, 293.8370361328125
0, 7, 46, 281.9808044433594
0, 7, 47, 329.9138488769531
0, 7, 48, 288.4312438964844
0, 7, 49, 303.1304931640625
0, 7, 50, 320.5967712402344
0, 7, 51, 299.3523559570312
0, 7, 52, 326.4888916015625
0, 7, 53, 311.6939086914062
0, 7, 54, 324.1247863769531
0, 7, 55, 306.5218200683594
0, 7, 56, 278.4155883789062
0, 7, 57, 285.4295959472656
0, 7, 58, 297.6854553222656
0, 7, 59, 293.1712036132812
0, 7, 60, 325.5131225585938
0, 7, 61, 279.705078125
0, 7, 62, 298.4108581542969
0, 7, 63, 293.4899291992188
0, 7, 64, 307.6924743652344
0, 7, 65, 331.4120178222656
0, 7, 66, 321.0805053710938
0, 7, 67, 300.55078125
0, 7, 68, 279.7783813476562
0, 7, 69, 300.3216247558594
0, 7, 70, 301.5686645507812
0, 7, 71, 308.424072265625
0, 7, 72, 286.9142761230469
0, 7, 73, 297.9458923339844
0, 7, 74, 343.8374328613281
0, 7, 75, 319.63671875
0, 7, 76, 329.6548767089844
0, 7, 77, 280.086181640625
0, 7, 78, 301.420654296875
0, 7, 79, 297.9239196777344
0, 7, 80, 310.0067443847656
0, 7, 81, 318.85302734375
0, 7, 82, 329.6224670410156
0, 7, 83, 317.8188781738281
0, 7, 84, 310.468505859375
0, 7, 85, 272.1662292480469
0, 7, 86, 309.7439270019531
0, 7, 87, 310.532470703125
0, 7, 88, 307.6113586425781
0, 7, 89, 292.8984680175781
0, 7, 90, 307.1060791015625
0, 7, 91, 316.8313293457031
0, 7, 92, 285.3983154296875
0, 7, 93, 308.1820678710938
0, 7, 94, 274.1203002929688
0, 7, 95, 294.8626403808594
0, 7, 96, 331.5672302246094
0, 7, 97, 296.2118225097656
0, 7, 98, 291.7532348632812
0, 7, 99, 312.364990234375
0, 7, 100, 281.1828918457031
0, 7, 101, 274.7666320800781
0, 7, 102, 289.7133483886719
0, 7, 103, 293.3873291015625
0, 7, 104, 274.40966796875
0, 7, 105, 306.4667358398438
0, 7, 106, 317.3883361816406
0, 7, 107, 296.330078125
0, 7, 108, 273.5242919921875
0, 7, 109, 235.5723724365234
0, 7, 110, 100.2084426879883
0, 7, 111, 24.11552810668945
0, 7, 112, 13.07371711730957
0, 7, 113, 14.49784755706787
0, 7, 114, 12.35330581665039
0, 7, 115, 9.29725170135498
0, 7, 116, 9.035998344421387
0, 7, 117, 4.597097396850586
0, 7, 118, 8.483919143676758
0, 7, 119, 6.859634399414062
0, 7, 120, 4.140616893768311
0, 7, 121, 5.205141067504883
0, 7, 122, 8.766266822814941
0, 7, 123, 8.754294395446777
0, 7, 124, 5.642394542694092
0, 7, 125, 6.999756336212158
0, 7, 126, 10.59835052490234
0, 7, 127, 5.895563125610352
0, 8, 0, 3.695589780807495
0, 8, 1, 5.956056118011475
0, 8, 2, 5.187941551208496
0, 8, 3, 2.455605030059814
0, 8, 4, 5.251971244812012
0, 8, 5, 5.149032592773438
0, 8, 6, 4.6072096824646
0, 8, 7, 4.467643737792969
0, 8, 8, 9.780882835388184
0, 8, 9, 5.175971031188965
0, 8, 10, 7.851004123687744
0, 8, 11, 10.29065418243408
0, 8, 12, 13.62977123260498
0, 8, 13, 16.83108520507812
0, 8, 14, 15.18804931640625
0, 8, 15, 19.96325302124023
0, 8, 16, 32.67975234985352
0, 8, 17, 129.8074188232422
0, 8, 18, 243.6824188232422
0, 8, 19, 294.5708312988281
0, 8, 20, 284.67041015625
0, 8, 21, 306.8149719238281
0, 8, 22, 294.7981262207031
0, 8, 23, 275.3083801269531
0, 8, 24, 267.7896728515625
0, 8, 25, 276.9689331054688
0, 8, 26, 305.9916381835938
0, 8, 27, 307.0144348144531
0, 8, 28, 303.46484375
0, 8, 29, 322.3171997070312
0, 8, 30, 314.2588195800781
0, 8, 31, 305.2249755859375
0, 8, 32, 282.3207702636719
0, 8, 33, 293.655517578125
0, 8, 34, 290.0754699707031
0, 8, 35, 280.0017395019531
0, 8, 36, 316.7001342773438
0, 8, 37, 338.8490295410156
0, 8, 38, 333.955810546875
0, 8, 39, 279.8590393066406
0, 8, 40, 302.7391052246094
0, 8, 41, 291.811279296875
