# TOPAS Version: 3.1.p3
# Parameter File: batch_inserts_238.txt
# Results for scorer Readout_Adipose
# Scored in component: MyBox
# X in 1 bin  of 0.75 cm
# Y in 512 bins of 0.0783984 cm
# Z in 128 bins of 0.078125 cm
# EnergyDeposit ( MeV ) : Sum   
0, 0, 0, 2.520576000213623
0, 0, 1, 1.574639201164246
0, 0, 2, 3.897387504577637
0, 0, 3, 1.569620966911316
0, 0, 4, 4.192100048065186
0, 0, 5, 1.907366752624512
0, 0, 6, 5.455154418945312
0, 0, 7, 9.927620887756348
0, 0, 8, 3.745316028594971
0, 0, 9, 6.042177200317383
0, 0, 10, 6.296791553497314
0, 0, 11, 4.49211311340332
0, 0, 12, 4.25910472869873
0, 0, 13, 6.556841850280762
0, 0, 14, 7.387175559997559
0, 0, 15, 9.901750564575195
0, 0, 16, 8.93460750579834
0, 0, 17, 8.900152206420898
0, 0, 18, 13.60554885864258
0, 0, 19, 43.81030654907227
0, 0, 20, 139.9804534912109
0, 0, 21, 225.0144653320312
0, 0, 22, 248.7591552734375
0, 0, 23, 257.4795532226562
0, 0, 24, 250.2074279785156
0, 0, 25, 258.9866638183594
0, 0, 26, 234.7605743408203
0, 0, 27, 237.7692108154297
0, 0, 28, 272.9107360839844
0, 0, 29, 252.2976989746094
0, 0, 30, 232.1546936035156
0, 0, 31, 244.1577301025391
0, 0, 32, 264.7131042480469
0, 0, 33, 261.2698364257812
0, 0, 34, 287.9118041992188
0, 0, 35, 267.6815185546875
0, 0, 36, 247.1271057128906
0, 0, 37, 253.6614837646484
0, 0, 38, 268.5417785644531
0, 0, 39, 229.4963531494141
0, 0, 40, 241.1335601806641
0, 0, 41, 266.915283203125
0, 0, 42, 230.6937255859375
0, 0, 43, 261.6534118652344
0, 0, 44, 252.8465576171875
0, 0, 45, 253.1078796386719
0, 0, 46, 243.7478179931641
0, 0, 47, 254.0045166015625
0, 0, 48, 268.3618469238281
0, 0, 49, 274.1845092773438
0, 0, 50, 251.3849029541016
0, 0, 51, 252.8423309326172
0, 0, 52, 272.7623291015625
0, 0, 53, 290.7886962890625
0, 0, 54, 243.7965087890625
0, 0, 55, 241.6939239501953
0, 0, 56, 278.9476623535156
0, 0, 57, 263.3309936523438
0, 0, 58, 246.7675170898438
0, 0, 59, 272.0645141601562
0, 0, 60, 234.2424163818359
0, 0, 61, 246.7878875732422
0, 0, 62, 256.7850646972656
0, 0, 63, 267.5037231445312
0, 0, 64, 254.5839691162109
0, 0, 65, 262.0698852539062
0, 0, 66, 278.5087890625
0, 0, 67, 248.6405334472656
0, 0, 68, 257.6126403808594
0, 0, 69, 261.779052734375
0, 0, 70, 274.2530822753906
0, 0, 71, 239.1119995117188
0, 0, 72, 249.9771270751953
0, 0, 73, 257.8382263183594
0, 0, 74, 252.1532745361328
0, 0, 75, 243.7684631347656
0, 0, 76, 227.8988342285156
0, 0, 77, 260.5832214355469
0, 0, 78, 257.2991638183594
0, 0, 79, 279.2386169433594
0, 0, 80, 218.1845703125
0, 0, 81, 267.7550354003906
0, 0, 82, 256.3079833984375
0, 0, 83, 246.0430755615234
0, 0, 84, 270.7319030761719
0, 0, 85, 231.4258117675781
0, 0, 86, 252.8395843505859
0, 0, 87, 250.2917785644531
0, 0, 88, 257.9407653808594
0, 0, 89, 284.1247863769531
0, 0, 90, 243.1820220947266
0, 0, 91, 280.8496704101562
0, 0, 92, 252.9435119628906
0, 0, 93, 249.4047088623047
0, 0, 94, 249.3402404785156
0, 0, 95, 247.9930572509766
0, 0, 96, 273.9927673339844
0, 0, 97, 273.3423767089844
0, 0, 98, 273.616943359375
0, 0, 99, 258.2111206054688
0, 0, 100, 258.1026916503906
0, 0, 101, 226.1659088134766
0, 0, 102, 232.1279144287109
0, 0, 103, 269.0030517578125
0, 0, 104, 255.7977600097656
0, 0, 105, 250.8226928710938
0, 0, 106, 245.145263671875
0, 0, 107, 151.5592193603516
0, 0, 108, 37.92686080932617
0, 0, 109, 11.77738285064697
0, 0, 110, 13.67170143127441
0, 0, 111, 8.64418888092041
0, 0, 112, 6.674397468566895
0, 0, 113, 5.066824436187744
0, 0, 114, 6.894214153289795
0, 0, 115, 9.281916618347168
0, 0, 116, 5.587429046630859
0, 0, 117, 4.995246410369873
0, 0, 118, 6.80363941192627
0, 0, 119, 4.484810352325439
0, 0, 120, 2.631637573242188
0, 0, 121, 3.62578558921814
0, 0, 122, 3.583614587783813
0, 0, 123, 4.128219127655029
0, 0, 124, 5.725266456604004
0, 0, 125, 1.914806723594666
0, 0, 126, 4.310458183288574
0, 0, 127, 4.730513572692871
0, 1, 0, 7.116051197052002
0, 1, 1, 4.073905944824219
0, 1, 2, 4.111239910125732
0, 1, 3, 2.454811096191406
0, 1, 4, 5.063374042510986
0, 1, 5, 4.158820152282715
0, 1, 6, 4.995105266571045
0, 1, 7, 4.602432727813721
0, 1, 8, 9.476158142089844
0, 1, 9, 3.862127780914307
0, 1, 10, 7.965006351470947
0, 1, 11, 11.64934730529785
0, 1, 12, 7.964840888977051
0, 1, 13, 8.657320976257324
0, 1, 14, 8.197146415710449
0, 1, 15, 8.014946937561035
0, 1, 16, 13.60996723175049
0, 1, 17, 11.0305290222168
0, 1, 18, 20.63779067993164
0, 1, 19, 67.22425842285156
0, 1, 20, 203.4810333251953
0, 1, 21, 255.1532897949219
0, 1, 22, 297.0738525390625
0, 1, 23, 283.9908142089844
0, 1, 24, 275.756591796875
0, 1, 25, 289.7153015136719
0, 1, 26, 267.5595397949219
0, 1, 27, 306.7087097167969
0, 1, 28, 297.9632568359375
0, 1, 29, 295.0570373535156
0, 1, 30, 280.3274536132812
0, 1, 31, 290.8106079101562
0, 1, 32, 290.2920532226562
0, 1, 33, 296.3181457519531
0, 1, 34, 292.5128479003906
0, 1, 35, 278.8500366210938
0, 1, 36, 305.7596435546875
0, 1, 37, 298.4509582519531
0, 1, 38, 280.3699340820312
0, 1, 39, 295.3331298828125
0, 1, 40, 266.4545288085938
0, 1, 41, 285.21484375
0, 1, 42, 289.5740051269531
0, 1, 43, 331.6288146972656
0, 1, 44, 278.7091369628906
0, 1, 45, 294.7263793945312
0, 1, 46, 259.93896484375
0, 1, 47, 309.5306701660156
0, 1, 48, 284.9412231445312
0, 1, 49, 304.0714111328125
0, 1, 50, 262.9963684082031
0, 1, 51, 272.3129272460938
0, 1, 52, 296.1001281738281
0, 1, 53, 307.1634826660156
0, 1, 54, 275.7547302246094
0, 1, 55, 292.0097351074219
0, 1, 56, 280.1698608398438
0, 1, 57, 297.1101684570312
0, 1, 58, 311.5198364257812
0, 1, 59, 290.7363891601562
0, 1, 60, 297.0890808105469
0, 1, 61, 275.838134765625
0, 1, 62, 311.4242858886719
0, 1, 63, 287.555908203125
0, 1, 64, 287.7916259765625
0, 1, 65, 293.8948059082031
0, 1, 66, 292.7332153320312
0, 1, 67, 290.7881164550781
0, 1, 68, 279.0840454101562
0, 1, 69, 278.4458923339844
0, 1, 70, 274.2996215820312
0, 1, 71, 272.4576416015625
0, 1, 72, 284.8310546875
0, 1, 73, 308.3453063964844
0, 1, 74, 304.4095764160156
0, 1, 75, 292.8683776855469
0, 1, 76, 284.5137023925781
0, 1, 77, 289.7705688476562
0, 1, 78, 295.3424987792969
0, 1, 79, 300.8875427246094
0, 1, 80, 296.5396118164062
0, 1, 81, 301.4989624023438
0, 1, 82, 283.9786071777344
0, 1, 83, 333.9653625488281
0, 1, 84, 308.334228515625
0, 1, 85, 252.2709350585938
0, 1, 86, 295.4298400878906
0, 1, 87, 290.9859313964844
0, 1, 88, 299.2599182128906
0, 1, 89, 288.7098693847656
0, 1, 90, 272.7923583984375
0, 1, 91, 319.6610412597656
0, 1, 92, 290.5672302246094
0, 1, 93, 286.6986083984375
0, 1, 94, 303.5047912597656
0, 1, 95, 283.7915649414062
0, 1, 96, 285.2582092285156
0, 1, 97, 301.4307556152344
0, 1, 98, 279.1658630371094
0, 1, 99, 267.9617614746094
0, 1, 100, 276.4464111328125
0, 1, 101, 281.6747741699219
0, 1, 102, 277.83447265625
0, 1, 103, 281.1667175292969
0, 1, 104, 307.4443664550781
0, 1, 105, 297.7901611328125
0, 1, 106, 263.3110656738281
0, 1, 107, 191.4248352050781
0, 1, 108, 80.73172760009766
0, 1, 109, 23.86715316772461
0, 1, 110, 11.81113815307617
0, 1, 111, 8.008148193359375
0, 1, 112, 11.62881088256836
0, 1, 113, 5.067563056945801
0, 1, 114, 5.362316131591797
0, 1, 115, 6.749664306640625
0, 1, 116, 14.08720779418945
0, 1, 117, 4.552580833435059
0, 1, 118, 5.906928062438965
0, 1, 119, 3.630678176879883
0, 1, 120, 5.829635143280029
0, 1, 121, 4.646293640136719
0, 1, 122, 4.048255443572998
0, 1, 123, 4.709190368652344
0, 1, 124, 10.24067497253418
0, 1, 125, 3.578295469284058
0, 1, 126, 3.327593088150024
0, 1, 127, 2.506274938583374
0, 2, 0, 4.223864555358887
0, 2, 1, 3.752400398254395
0, 2, 2, 4.689628601074219
0, 2, 3, 4.977138996124268
0, 2, 4, 2.772854328155518
0, 2, 5, 1.655719399452209
0, 2, 6, 2.02304482460022
0, 2, 7, 5.420012474060059
0, 2, 8, 4.210537433624268
0, 2, 9, 6.676441669464111
0, 2, 10, 9.696961402893066
0, 2, 11, 6.125778198242188
0, 2, 12, 5.941571712493896
0, 2, 13, 9.810881614685059
0, 2, 14, 9.829954147338867
0, 2, 15, 9.139799118041992
0, 2, 16, 9.56887149810791
0, 2, 17, 17.55366516113281
0, 2, 18, 33.4827995300293
0, 2, 19, 115.93408203125
0, 2, 20, 245.6865539550781
0, 2, 21, 270.4655456542969
0, 2, 22, 315.0709533691406
0, 2, 23, 302.4080810546875
0, 2, 24, 286.5483093261719
0, 2, 25, 301.7826843261719
0, 2, 26, 291.9873657226562
0, 2, 27, 276.513916015625
0, 2, 28, 272.0570678710938
0, 2, 29, 275.6736145019531
0, 2, 30, 289.18310546875
0, 2, 31, 278.6042175292969
0, 2, 32, 294.1604614257812
0, 2, 33, 282.7137145996094
0, 2, 34, 333.5515747070312
0, 2, 35, 289.7272338867188
0, 2, 36, 302.3688354492188
0, 2, 37, 314.7349548339844
0, 2, 38, 312.1380310058594
0, 2, 39, 266.1995849609375
0, 2, 40, 308.3639526367188
0, 2, 41, 291.8756713867188
0, 2, 42, 303.7724304199219
0, 2, 43, 311.1400756835938
0, 2, 44, 311.2420349121094
0, 2, 45, 324.8213806152344
0, 2, 46, 286.335693359375
0, 2, 47, 304.1654968261719
0, 2, 48, 281.8082885742188
0, 2, 49, 278.3859252929688
0, 2, 50, 295.194580078125
0, 2, 51, 283.304931640625
0, 2, 52, 273.2762756347656
0, 2, 53, 288.6011352539062
0, 2, 54, 281.7025756835938
0, 2, 55, 275.3838195800781
0, 2, 56, 300.382080078125
0, 2, 57, 290.5682678222656
0, 2, 58, 303.7558898925781
0, 2, 59, 290.1141967773438
0, 2, 60, 319.7053527832031
0, 2, 61, 301.2297668457031
0, 2, 62, 315.1103210449219
0, 2, 63, 303.889404296875
0, 2, 64, 297.8915710449219
0, 2, 65, 314.8892517089844
0, 2, 66, 281.8529357910156
0, 2, 67, 292.4623718261719
0, 2, 68, 296.9199523925781
0, 2, 69, 311.4274291992188
0, 2, 70, 333.2074279785156
0, 2, 71, 282.2852783203125
0, 2, 72, 301.4220581054688
0, 2, 73, 312.4295959472656
0, 2, 74, 286.9205322265625
0, 2, 75, 304.2943115234375
0, 2, 76, 288.9128723144531
0, 2, 77, 298.8578186035156
0, 2, 78, 315.9051208496094
0, 2, 79, 308.6299133300781
0, 2, 80, 295.7315368652344
0, 2, 81, 282.7923278808594
0, 2, 82, 318.1497802734375
0, 2, 83, 312.2415466308594
0, 2, 84, 288.3712463378906
0, 2, 85, 281.3751525878906
0, 2, 86, 323.8117065429688
0, 2, 87, 285.5783996582031
0, 2, 88, 279.6723327636719
0, 2, 89, 297.890380859375
0, 2, 90, 295.1728820800781
0, 2, 91, 279.0615539550781
0, 2, 92, 305.7110595703125
0, 2, 93, 316.3284606933594
0, 2, 94, 292.1000061035156
0, 2, 95, 314.71044921875
0, 2, 96, 314.9707641601562
0, 2, 97, 293.9147338867188
0, 2, 98, 294.3958435058594
0, 2, 99, 273.8523254394531
0, 2, 100, 305.4583435058594
0, 2, 101, 300.2467346191406
0, 2, 102, 297.2173461914062
0, 2, 103, 293.5046997070312
0, 2, 104, 291.7154541015625
0, 2, 105, 273.9373779296875
0, 2, 106, 296.6798095703125
0, 2, 107, 269.3998107910156
0, 2, 108, 115.7187652587891
0, 2, 109, 31.12087440490723
0, 2, 110, 9.822054862976074
0, 2, 111, 13.347336769104
0, 2, 112, 6.988890647888184
0, 2, 113, 9.850520133972168
0, 2, 114, 9.41690731048584
0, 2, 115, 9.707605361938477
0, 2, 116, 8.111035346984863
0, 2, 117, 10.69223022460938
0, 2, 118, 1.515420794487
0, 2, 119, 3.223044157028198
0, 2, 120, 6.22813606262207
0, 2, 121, 1.067481875419617
0, 2, 122, 5.05875301361084
0, 2, 123, 4.450924396514893
0, 2, 124, 3.561736106872559
0, 2, 125, 6.238322257995605
0, 2, 126, 3.23943567276001
0, 2, 127, 5.609211921691895
0, 3, 0, 4.314179420471191
0, 3, 1, 2.602869033813477
0, 3, 2, 4.731950283050537
0, 3, 3, 1.175349354743958
0, 3, 4, 4.407645702362061
0, 3, 5, 6.396028518676758
0, 3, 6, 7.457254886627197
0, 3, 7, 5.985944747924805
0, 3, 8, 5.210661888122559
0, 3, 9, 5.48258638381958
0, 3, 10, 5.879574298858643
0, 3, 11, 4.260612964630127
0, 3, 12, 7.852705001831055
0, 3, 13, 15.09310722351074
0, 3, 14, 10.1826810836792
0, 3, 15, 14.64396190643311
0, 3, 16, 11.06570243835449
0, 3, 17, 19.59943389892578
0, 3, 18, 52.03464889526367
0, 3, 19, 175.2857360839844
0, 3, 20, 268.288818359375
0, 3, 21, 271.8009948730469
0, 3, 22, 281.3382263183594
0, 3, 23, 287.8235778808594
0, 3, 24, 287.9555969238281
0, 3, 25, 272.2841491699219
0, 3, 26, 303.8446655273438
0, 3, 27, 292.5186157226562
0, 3, 28, 282.847412109375
0, 3, 29, 338.3368530273438
0, 3, 30, 316.3591003417969
0, 3, 31, 288.7782592773438
0, 3, 32, 306.4729919433594
0, 3, 33, 313.8372497558594
0, 3, 34, 323.1320495605469
0, 3, 35, 308.0135192871094
0, 3, 36, 269.8132629394531
0, 3, 37, 317.0322875976562
0, 3, 38, 302.7869567871094
0, 3, 39, 290.5543823242188
0, 3, 40, 267.5816955566406
0, 3, 41, 298.65478515625
0, 3, 42, 285.6907043457031
0, 3, 43, 304.8366394042969
0, 3, 44, 312.0570983886719
0, 3, 45, 289.9443359375
0, 3, 46, 329.754150390625
0, 3, 47, 298.9450073242188
0, 3, 48, 302.1903381347656
0, 3, 49, 275.5469055175781
0, 3, 50, 291.0550231933594
0, 3, 51, 274.9640197753906
0, 3, 52, 315.621337890625
0, 3, 53, 286.8861083984375
0, 3, 54, 285.1615600585938
0, 3, 55, 282.203369140625
0, 3, 56, 297.6315307617188
0, 3, 57, 288.4613952636719
0, 3, 58, 306.4430847167969
0, 3, 59, 295.9666137695312
0, 3, 60, 297.7637634277344
0, 3, 61, 263.2428283691406
0, 3, 62, 284.4616394042969
0, 3, 63, 306.2472839355469
0, 3, 64, 316.6067199707031
0, 3, 65, 305.1533508300781
0, 3, 66, 314.9398498535156
0, 3, 67, 318.8759155273438
0, 3, 68, 280.0213012695312
0, 3, 69, 283.8045654296875
0, 3, 70, 289.3430786132812
0, 3, 71, 300.05908203125
0, 3, 72, 269.0449829101562
0, 3, 73, 308.9835205078125
0, 3, 74, 291.5156555175781
0, 3, 75, 290.4668884277344
0, 3, 76, 304.778564453125
0, 3, 77, 312.7218322753906
0, 3, 78, 303.3499450683594
0, 3, 79, 283.3613891601562
0, 3, 80, 289.3890686035156
0, 3, 81, 312.5752868652344
0, 3, 82, 317.4201049804688
0, 3, 83, 301.3262939453125
0, 3, 84, 309.9887390136719
0, 3, 85, 296.7661743164062
0, 3, 86, 301.786376953125
0, 3, 87, 299.0249633789062
0, 3, 88, 299.5790100097656
0, 3, 89, 296.3307495117188
0, 3, 90, 276.4811401367188
0, 3, 91, 285.0077514648438
0, 3, 92, 304.8239135742188
0, 3, 93, 312.1033935546875
0, 3, 94, 299.4052124023438
0, 3, 95, 335.056640625
0, 3, 96, 290.7133178710938
0, 3, 97, 284.6312866210938
0, 3, 98, 278.5478210449219
0, 3, 99, 263.2192993164062
0, 3, 100, 285.2597351074219
0, 3, 101, 297.9664611816406
0, 3, 102, 274.7602844238281
0, 3, 103, 321.6609497070312
0, 3, 104, 309.1951599121094
0, 3, 105, 287.3893737792969
0, 3, 106, 303.7004699707031
0, 3, 107, 283.6636047363281
0, 3, 108, 168.8212432861328
0, 3, 109, 57.08938598632812
0, 3, 110, 16.85280609130859
0, 3, 111, 13.09615230560303
0, 3, 112, 12.45560550689697
0, 3, 113, 6.910754203796387
0, 3, 114, 11.43886756896973
0, 3, 115, 7.226200103759766
0, 3, 116, 7.53660249710083
0, 3, 117, 9.529074668884277
0, 3, 118, 6.289615631103516
0, 3, 119, 6.161818504333496
0, 3, 120, 8.370905876159668
0, 3, 121, 2.201140642166138
0, 3, 122, 2.925431489944458
0, 3, 123, 7.449646949768066
0, 3, 124, 2.148071765899658
0, 3, 125, 7.253019332885742
0, 3, 126, 5.357482433319092
0, 3, 127, 3.968729496002197
0, 4, 0, 2.774219512939453
0, 4, 1, 4.632969856262207
0, 4, 2, 3.240736722946167
0, 4, 3, 1.850011825561523
0, 4, 4, 6.729316234588623
0, 4, 5, 9.229508399963379
0, 4, 6, 6.327043533325195
0, 4, 7, 4.924376964569092
0, 4, 8, 4.122061729431152
0, 4, 9, 9.643167495727539
0, 4, 10, 7.771937370300293
0, 4, 11, 6.288994789123535
0, 4, 12, 7.591257095336914
0, 4, 13, 7.908982276916504
0, 4, 14, 10.1295166015625
0, 4, 15, 8.78170108795166
0, 4, 16, 15.88978290557861
0, 4, 17, 18.65641975402832
0, 4, 18, 95.07627105712891
0, 4, 19, 224.9879760742188
0, 4, 20, 284.3175964355469
0, 4, 21, 271.8501586914062
0, 4, 22, 305.3874206542969
0, 4, 23, 268.0639038085938
0, 4, 24, 288.5892639160156
0, 4, 25, 273.1781921386719
0, 4, 26, 296.0162353515625
0, 4, 27, 282.7651977539062
0, 4, 28, 307.2067260742188
0, 4, 29, 322.261962890625
0, 4, 30, 310.1455688476562
0, 4, 31, 304.1730041503906
0, 4, 32, 281.7756652832031
0, 4, 33, 297.1575317382812
0, 4, 34, 297.050537109375
0, 4, 35, 311.306884765625
0, 4, 36, 291.7930603027344
0, 4, 37, 288.6372985839844
0, 4, 38, 297.4032592773438
0, 4, 39, 294.1863098144531
0, 4, 40, 304.7727661132812
0, 4, 41, 311.9494323730469
0, 4, 42, 330.5817260742188
0, 4, 43, 297.9210815429688
0, 4, 44, 323.4763488769531
0, 4, 45, 326.5657348632812
0, 4, 46, 304.6104431152344
0, 4, 47, 292.5365295410156
0, 4, 48, 296.4629821777344
0, 4, 49, 278.1290283203125
0, 4, 50, 295.3239440917969
0, 4, 51, 318.3268432617188
0, 4, 52, 327.0166625976562
0, 4, 53, 303.9126281738281
0, 4, 54, 287.2430419921875
0, 4, 55, 317.0257873535156
0, 4, 56, 289.077392578125
0, 4, 57, 310.4843444824219
0, 4, 58, 295.5389099121094
0, 4, 59, 307.9244079589844
0, 4, 60, 302.1952819824219
0, 4, 61, 314.5253295898438
0, 4, 62, 308.0188903808594
0, 4, 63, 297.6298217773438
0, 4, 64, 330.8468627929688
0, 4, 65, 315.3162536621094
0, 4, 66, 292.0333862304688
0, 4, 67, 287.5460510253906
0, 4, 68, 313.7741394042969
0, 4, 69, 274.9787902832031
0, 4, 70, 300.2490539550781
0, 4, 71, 321.4962768554688
0, 4, 72, 332.1030883789062
0, 4, 73, 298.5957641601562
0, 4, 74, 293.6305236816406
0, 4, 75, 290.5763854980469
0, 4, 76, 274.827392578125
0, 4, 77, 278.9851379394531
0, 4, 78, 309.396728515625
0, 4, 79, 319.1116943359375
0, 4, 80, 318.0045776367188
0, 4, 81, 312.0971374511719
0, 4, 82, 297.9915466308594
0, 4, 83, 300.9263610839844
0, 4, 84, 291.8348999023438
0, 4, 85, 294.4442138671875
0, 4, 86, 298.159912109375
0, 4, 87, 283.5322875976562
0, 4, 88, 305.9818420410156
0, 4, 89, 294.4294128417969
0, 4, 90, 331.8938903808594
0, 4, 91, 301.5020141601562
0, 4, 92, 288.8360900878906
0, 4, 93, 296.4435119628906
0, 4, 94, 290.993896484375
0, 4, 95, 287.9793090820312
0, 4, 96, 323.3187561035156
0, 4, 97, 273.68798828125
0, 4, 98, 327.9647827148438
0, 4, 99, 313.3540649414062
0, 4, 100, 300.4447021484375
0, 4, 101, 256.3503112792969
0, 4, 102, 297.1281127929688
0, 4, 103, 316.752197265625
0, 4, 104, 282.2142333984375
0, 4, 105, 309.6573486328125
0, 4, 106, 288.6243896484375
0, 4, 107, 296.3597106933594
0, 4, 108, 225.9628601074219
0, 4, 109, 78.77173614501953
0, 4, 110, 16.89895057678223
0, 4, 111, 14.24789237976074
0, 4, 112, 7.751231670379639
0, 4, 113, 8.60047721862793
0, 4, 114, 8.248825073242188
0, 4, 115, 9.549647331237793
0, 4, 116, 9.79835033416748
0, 4, 117, 7.382576942443848
0, 4, 118, 11.0734338760376
0, 4, 119, 9.024544715881348
0, 4, 120, 5.393094062805176
0, 4, 121, 5.631458759307861
0, 4, 122, 5.68424129486084
0, 4, 123, 6.027153968811035
0, 4, 124, 4.389547824859619
0, 4, 125, 10.4572925567627
0, 4, 126, 8.125877380371094
0, 4, 127, 5.859360218048096
0, 5, 0, 7.117734909057617
0, 5, 1, 4.819599151611328
0, 5, 2, 4.307025909423828
0, 5, 3, 4.541676044464111
0, 5, 4, 5.429723262786865
0, 5, 5, 5.944480419158936
0, 5, 6, 8.227063179016113
0, 5, 7, 4.425522327423096
0, 5, 8, 5.991466999053955
0, 5, 9, 5.869601249694824
0, 5, 10, 7.237494945526123
0, 5, 11, 8.110148429870605
0, 5, 12, 8.674631118774414
0, 5, 13, 4.59820556640625
0, 5, 14, 12.84360980987549
0, 5, 15, 16.92815780639648
0, 5, 16, 14.22690773010254
0, 5, 17, 28.95113754272461
0, 5, 18, 138.2866363525391
0, 5, 19, 289.7709045410156
0, 5, 20, 306.2921752929688
0, 5, 21, 316.9425659179688
0, 5, 22, 277.8323059082031
0, 5, 23, 309.7253112792969
0, 5, 24, 302.3063049316406
0, 5, 25, 289.804931640625
0, 5, 26, 294.6460266113281
0, 5, 27, 321.6002502441406
0, 5, 28, 302.4820861816406
0, 5, 29, 300.13427734375
0, 5, 30, 323.445556640625
0, 5, 31, 285.5543212890625
0, 5, 32, 302.4403076171875
0, 5, 33, 302.951171875
0, 5, 34, 299.3763122558594
0, 5, 35, 309.7833557128906
0, 5, 36, 269.7455139160156
0, 5, 37, 282.7232666015625
0, 5, 38, 292.1604309082031
0, 5, 39, 311.7018127441406
0, 5, 40, 309.23779296875
0, 5, 41, 273.6171875
0, 5, 42, 305.7125549316406
0, 5, 43, 314.6632080078125
0, 5, 44, 293.2039184570312
0, 5, 45, 302.8303527832031
0, 5, 46, 264.9274291992188
0, 5, 47, 280.2943725585938
0, 5, 48, 295.0469970703125
0, 5, 49, 286.3694763183594
0, 5, 50, 294.5376892089844
0, 5, 51, 279.9392700195312
0, 5, 52, 269.4300537109375
0, 5, 53, 282.6160583496094
0, 5, 54, 291.5755004882812
0, 5, 55, 343.7915954589844
0, 5, 56, 304.8986511230469
0, 5, 57, 308.0661010742188
0, 5, 58, 314.8630676269531
0, 5, 59, 304.7538757324219
0, 5, 60, 308.0332336425781
0, 5, 61, 281.0006713867188
0, 5, 62, 324.6972045898438
0, 5, 63, 291.6912536621094
0, 5, 64, 323.9684143066406
0, 5, 65, 309.0754089355469
0, 5, 66, 330.5771789550781
0, 5, 67, 311.142333984375
0, 5, 68, 311.5439147949219
0, 5, 69, 312.7970581054688
0, 5, 70, 299.8207702636719
0, 5, 71, 274.9009399414062
0, 5, 72, 308.3810424804688
0, 5, 73, 302.0301818847656
0, 5, 74, 296.141845703125
0, 5, 75, 295.4449768066406
0, 5, 76, 288.00048828125
0, 5, 77, 298.926025390625
0, 5, 78, 318.2443542480469
0, 5, 79, 304.9114379882812
0, 5, 80, 294.56103515625
0, 5, 81, 325.2293395996094
0, 5, 82, 325.5420837402344
0, 5, 83, 281.0348815917969
0, 5, 84, 301.3696594238281
0, 5, 85, 273.1148376464844
0, 5, 86, 326.2230834960938
0, 5, 87, 284.1517639160156
0, 5, 88, 312.9808654785156
0, 5, 89, 304.3362121582031
0, 5, 90, 317.7156066894531
0, 5, 91, 312.7385864257812
0, 5, 92, 295.2846984863281
0, 5, 93, 322.3739013671875
0, 5, 94, 308.8349914550781
0, 5, 95, 296.79931640625
0, 5, 96, 296.9657897949219
0, 5, 97, 295.9497375488281
0, 5, 98, 318.3650512695312
0, 5, 99, 305.1271667480469
0, 5, 100, 291.5134887695312
0, 5, 101, 306.2762145996094
0, 5, 102, 292.5564575195312
0, 5, 103, 313.05224609375
0, 5, 104, 301.38134765625
0, 5, 105, 293.2643432617188
0, 5, 106, 281.6986694335938
0, 5, 107, 292.2479248046875
0, 5, 108, 265.6722106933594
0, 5, 109, 158.7521362304688
0, 5, 110, 40.3652229309082
0, 5, 111, 20.74811553955078
0, 5, 112, 17.64853477478027
0, 5, 113, 16.22239685058594
0, 5, 114, 14.90916633605957
0, 5, 115, 7.977537155151367
0, 5, 116, 6.47885274887085
0, 5, 117, 6.450804233551025
0, 5, 118, 13.81494140625
0, 5, 119, 6.878567218780518
0, 5, 120, 4.911852359771729
0, 5, 121, 5.359947681427002
0, 5, 122, 6.829587459564209
0, 5, 123, 6.196973323822021
0, 5, 124, 5.364866733551025
0, 5, 125, 3.695146083831787
0, 5, 126, 5.934396266937256
0, 5, 127, 3.529174327850342
0, 6, 0, 7.555588722229004
0, 6, 1, 2.237578630447388
0, 6, 2, 5.451073169708252
0, 6, 3, 4.406763076782227
0, 6, 4, 3.573832750320435
0, 6, 5, 6.401090621948242
0, 6, 6, 8.811398506164551
0, 6, 7, 7.00450611114502
0, 6, 8, 8.619750022888184
0, 6, 9, 6.467170238494873
0, 6, 10, 8.745889663696289
0, 6, 11, 8.413712501525879
0, 6, 12, 8.954268455505371
0, 6, 13, 15.07328128814697
0, 6, 14, 9.732307434082031
0, 6, 15, 16.81398963928223
0, 6, 16, 28.98429679870605
0, 6, 17, 55.14436721801758
0, 6, 18, 174.1485748291016
0, 6, 19, 276.6803894042969
0, 6, 20, 290.8504638671875
0, 6, 21, 315.107177734375
0, 6, 22, 319.5604248046875
0, 6, 23, 305.9663391113281
0, 6, 24, 314.8870544433594
0, 6, 25, 315.6407775878906
0, 6, 26, 321.7769165039062
0, 6, 27, 331.2185974121094
0, 6, 28, 297.5911865234375
0, 6, 29, 329.8747863769531
0, 6, 30, 283.9347229003906
0, 6, 31, 286.2693481445312
0, 6, 32, 340.4387512207031
0, 6, 33, 301.2105712890625
0, 6, 34, 340.957275390625
0, 6, 35, 320.2709655761719
0, 6, 36, 275.2652587890625
0, 6, 37, 287.4628295898438
0, 6, 38, 314.7760925292969
0, 6, 39, 301.2322998046875
0, 6, 40, 282.7360229492188
0, 6, 41, 295.1477355957031
0, 6, 42, 302.8682861328125
0, 6, 43, 288.2994995117188
0, 6, 44, 280.9709167480469
0, 6, 45, 323.520263671875
0, 6, 46, 304.9192504882812
0, 6, 47, 332.2941284179688
0, 6, 48, 292.9581909179688
0, 6, 49, 312.83544921875
0, 6, 50, 328.2220764160156
0, 6, 51, 312.0322265625
0, 6, 52, 320.8968505859375
0, 6, 53, 327.58935546875
0, 6, 54, 303.6972351074219
0, 6, 55, 307.0038757324219
0, 6, 56, 295.6629638671875
0, 6, 57, 311.6766967773438
0, 6, 58, 261.7132263183594
0, 6, 59, 300.9190979003906
0, 6, 60, 312.5935668945312
0, 6, 61, 275.7181396484375
0, 6, 62, 337.2405395507812
0, 6, 63, 321.8237915039062
0, 6, 64, 291.9501342773438
0, 6, 65, 286.131103515625
0, 6, 66, 302.5956420898438
0, 6, 67, 309.314697265625
0, 6, 68, 292.5831604003906
0, 6, 69, 278.1853942871094
0, 6, 70, 273.9946594238281
0, 6, 71, 289.6096496582031
0, 6, 72, 309.3494262695312
0, 6, 73, 292.52392578125
0, 6, 74, 329.6058959960938
0, 6, 75, 342.888671875
0, 6, 76, 296.3279724121094
0, 6, 77, 289.6110229492188
0, 6, 78, 278.7057495117188
0, 6, 79, 291.8670654296875
0, 6, 80, 298.9273986816406
0, 6, 81, 313.9214782714844
0, 6, 82, 318.3041076660156
0, 6, 83, 320.3240661621094
0, 6, 84, 297.3475341796875
0, 6, 85, 300.9880676269531
0, 6, 86, 329.8453063964844
0, 6, 87, 292.2204284667969
0, 6, 88, 305.6448974609375
0, 6, 89, 303.742919921875
0, 6, 90, 298.8702087402344
0, 6, 91, 314.0517883300781
0, 6, 92, 284.1789855957031
0, 6, 93, 296.0607604980469
0, 6, 94, 274.7537536621094
0, 6, 95, 300.5454711914062
0, 6, 96, 350.31640625
0, 6, 97, 310.5375366210938
0, 6, 98, 300.6346435546875
0, 6, 99, 270.7862548828125
0, 6, 100, 309.5633239746094
0, 6, 101, 292.3395690917969
0, 6, 102, 307.8623046875
0, 6, 103, 309.0404663085938
0, 6, 104, 291.5788879394531
0, 6, 105, 301.2332458496094
0, 6, 106, 307.5791931152344
0, 6, 107, 304.7898559570312
0, 6, 108, 267.146728515625
0, 6, 109, 185.3516082763672
0, 6, 110, 54.62868881225586
0, 6, 111, 21.36525917053223
0, 6, 112, 15.56384181976318
0, 6, 113, 13.94217777252197
0, 6, 114, 12.69295120239258
0, 6, 115, 11.55324745178223
0, 6, 116, 8.973011016845703
0, 6, 117, 6.870943069458008
0, 6, 118, 9.345600128173828
0, 6, 119, 8.903752326965332
0, 6, 120, 5.337404727935791
0, 6, 121, 6.666817188262939
0, 6, 122, 6.370136737823486
0, 6, 123, 7.313938140869141
0, 6, 124, 8.180880546569824
0, 6, 125, 6.250649452209473
0, 6, 126, 2.682530879974365
0, 6, 127, 7.69549036026001
0, 7, 0, 5.401620864868164
0, 7, 1, 5.543707370758057
0, 7, 2, 5.252665042877197
0, 7, 3, 6.420881271362305
0, 7, 4, 4.501389503479004
0, 7, 5, 4.584668636322021
0, 7, 6, 8.44007396697998
0, 7, 7, 6.85305118560791
0, 7, 8, 4.961585521697998
0, 7, 9, 5.389912128448486
0, 7, 10, 8.367447853088379
0, 7, 11, 11.63576221466064
0, 7, 12, 10.48454856872559
0, 7, 13, 12.12441635131836
0, 7, 14, 11.80652618408203
0, 7, 15, 18.47289657592773
0, 7, 16, 27.73384857177734
0, 7, 17, 98.79145050048828
0, 7, 18, 218.5387878417969
0, 7, 19, 290.0108337402344
0, 7, 20, 297.703857421875
0, 7, 21, 275.980224609375
0, 7, 22, 298.2727355957031
0, 7, 23, 292.4052124023438
0, 7, 24, 314.6724548339844
0, 7, 25, 323.8878784179688
0, 7, 26, 277.1164855957031
0, 7, 27, 298.930908203125
0, 7, 28, 326.3892211914062
0, 7, 29, 319.1329650878906
0, 7, 30, 301.0765686035156
0, 7, 31, 276.1245422363281
0, 7, 32, 306.1034545898438
0, 7, 33, 261.950927734375
0, 7, 34, 299.2525939941406
0, 7, 35, 320.3274230957031
0, 7, 36, 331.4583435058594
0, 7, 37, 325.5899353027344
0, 7, 38, 297.6129760742188
0, 7, 39, 307.8313598632812
0, 7, 40, 289.5599670410156
0, 7, 41, 273.364013671875
0, 7, 42, 299.7248840332031
0, 7, 43, 274.9912109375
0, 7, 44, 304.8082885742188
0, 7, 45, 295.5256652832031
0, 7, 46, 284.2823791503906
0, 7, 47, 329.852294921875
0, 7, 48, 285.0560302734375
0, 7, 49, 303.5771789550781
0, 7, 50, 320.4565734863281
0, 7, 51, 298.810546875
0, 7, 52, 326.45703125
0, 7, 53, 313.2514953613281
0, 7, 54, 323.4901123046875
0, 7, 55, 307.4974670410156
0, 7, 56, 279.4605407714844
0, 7, 57, 284.7183532714844
0, 7, 58, 296.5506591796875
0, 7, 59, 292.3323364257812
0, 7, 60, 322.7770385742188
0, 7, 61, 280.3092041015625
0, 7, 62, 297.8380126953125
0, 7, 63, 292.5673217773438
0, 7, 64, 305.6400756835938
0, 7, 65, 329.7897033691406
0, 7, 66, 317.5928039550781
0, 7, 67, 302.5381164550781
0, 7, 68, 279.1360168457031
0, 7, 69, 293.8140258789062
0, 7, 70, 304.2216186523438
0, 7, 71, 309.1160583496094
0, 7, 72, 286.6472778320312
0, 7, 73, 296.7413330078125
0, 7, 74, 345.2145080566406
0, 7, 75, 318.7666320800781
0, 7, 76, 321.9788208007812
0, 7, 77, 280.391357421875
0, 7, 78, 306.6452941894531
0, 7, 79, 299.3894653320312
0, 7, 80, 312.0112915039062
0, 7, 81, 320.6705932617188
0, 7, 82, 328.6655883789062
0, 7, 83, 318.5234985351562
0, 7, 84, 308.955810546875
0, 7, 85, 272.0545959472656
0, 7, 86, 310.2752990722656
0, 7, 87, 308.6383361816406
0, 7, 88, 309.1897583007812
0, 7, 89, 294.4087524414062
0, 7, 90, 308.3117065429688
0, 7, 91, 316.2568664550781
0, 7, 92, 290.0834350585938
0, 7, 93, 308.6109008789062
0, 7, 94, 272.6322021484375
0, 7, 95, 295.0587463378906
0, 7, 96, 330.771484375
0, 7, 97, 295.1607055664062
0, 7, 98, 290.3971862792969
0, 7, 99, 312.8631896972656
0, 7, 100, 281.6719970703125
0, 7, 101, 274.9072265625
0, 7, 102, 289.9544372558594
0, 7, 103, 292.3486022949219
0, 7, 104, 277.7612915039062
0, 7, 105, 306.2185363769531
0, 7, 106, 317.169677734375
0, 7, 107, 298.3179016113281
0, 7, 108, 272.4804077148438
0, 7, 109, 235.843017578125
0, 7, 110, 98.12813568115234
0, 7, 111, 24.27685356140137
0, 7, 112, 13.54600715637207
0, 7, 113, 13.82525444030762
0, 7, 114, 16.53600692749023
0, 7, 115, 13.98165607452393
0, 7, 116, 7.977981567382812
0, 7, 117, 7.994151592254639
0, 7, 118, 10.43933391571045
0, 7, 119, 4.970503807067871
0, 7, 120, 5.319641590118408
0, 7, 121, 5.118079662322998
0, 7, 122, 6.997185707092285
0, 7, 123, 4.415475368499756
0, 7, 124, 3.472792148590088
0, 7, 125, 5.855777263641357
0, 7, 126, 8.567373275756836
0, 7, 127, 4.22331428527832
0, 8, 0, 6.185854434967041
0, 8, 1, 4.934041500091553
0, 8, 2, 4.83127498626709
0, 8, 3, 5.091701507568359
0, 8, 4, 4.184545516967773
0, 8, 5, 5.493442058563232
0, 8, 6, 4.99782657623291
0, 8, 7, 4.857920169830322
0, 8, 8, 7.567090511322021
0, 8, 9, 4.960817337036133
0, 8, 10, 7.161647319793701
0, 8, 11, 11.99445247650146
0, 8, 12, 13.10411739349365
0, 8, 13, 15.09908580780029
0, 8, 14, 14.42661666870117
0, 8, 15, 19.26279830932617
0, 8, 16, 32.79137802124023
0, 8, 17, 130.8912048339844
0, 8, 18, 243.8837432861328
0, 8, 19, 295.8243103027344
0, 8, 20, 285.7196044921875
0, 8, 21, 306.34619140625
0, 8, 22, 294.2978515625
0, 8, 23, 277.7484436035156
0, 8, 24, 269.1448364257812
0, 8, 25, 274.789794921875
0, 8, 26, 306.0517883300781
0, 8, 27, 309.5575561523438
0, 8, 28, 305.6023864746094
0, 8, 29, 318.914794921875
0, 8, 30, 314.8884887695312
0, 8, 31, 303.5329895019531
0, 8, 32, 280.0752563476562
0, 8, 33, 293.6873779296875
0, 8, 34, 289.4594116210938
0, 8, 35, 279.3734130859375
0, 8, 36, 315.1543884277344
0, 8, 37, 339.1163940429688
0, 8, 38, 330.9591064453125
0, 8, 39, 281.180419921875
