# TOPAS Version: 3.1.p3
# Parameter File: batch_inserts_116.txt
# Results for scorer Readout_Adipose
# Scored in component: MyBox
# X in 1 bin  of 0.75 cm
# Y in 512 bins of 0.0783984 cm
# Z in 128 bins of 0.078125 cm
# EnergyDeposit ( MeV ) : Sum   
0, 0, 0, 17.92484855651855
0, 0, 1, 21.72202682495117
0, 0, 2, 23.79683113098145
0, 0, 3, 20.46057891845703
0, 0, 4, 17.02993583679199
0, 0, 5, 20.76424407958984
0, 0, 6, 22.19910049438477
0, 0, 7, 37.28317642211914
0, 0, 8, 25.5299243927002
0, 0, 9, 26.31826400756836
0, 0, 10, 24.47043609619141
0, 0, 11, 28.49534034729004
0, 0, 12, 36.9693489074707
0, 0, 13, 31.69075584411621
0, 0, 14, 40.126708984375
0, 0, 15, 45.70133590698242
0, 0, 16, 43.19693756103516
0, 0, 17, 46.39204025268555
0, 0, 18, 74.92693328857422
0, 0, 19, 190.7675476074219
0, 0, 20, 700.3671875
0, 0, 21, 1189.765502929688
0, 0, 22, 1248.859252929688
0, 0, 23, 1276.2216796875
0, 0, 24, 1278.303955078125
0, 0, 25, 1353.280029296875
0, 0, 26, 1271.654296875
0, 0, 27, 1278.16162109375
0, 0, 28, 1320.204223632812
0, 0, 29, 1270.692504882812
0, 0, 30, 1261.113159179688
0, 0, 31, 1283.634765625
0, 0, 32, 1267.791137695312
0, 0, 33, 1242.893188476562
0, 0, 34, 1323.967651367188
0, 0, 35, 1300.94384765625
0, 0, 36, 1245.01123046875
0, 0, 37, 1277.2216796875
0, 0, 38, 1244.879028320312
0, 0, 39, 1244.2236328125
0, 0, 40, 1228.395751953125
0, 0, 41, 1272.782104492188
0, 0, 42, 1255.298217773438
0, 0, 43, 1266.613159179688
0, 0, 44, 1225.546997070312
0, 0, 45, 1287.213623046875
0, 0, 46, 1261.899536132812
0, 0, 47, 1240.718383789062
0, 0, 48, 1274.5322265625
0, 0, 49, 1287.984008789062
0, 0, 50, 1307.189697265625
0, 0, 51, 1263.555053710938
0, 0, 52, 1362.7607421875
0, 0, 53, 1326.46728515625
0, 0, 54, 1294.637817382812
0, 0, 55, 1235.462524414062
0, 0, 56, 1318.52099609375
0, 0, 57, 1291.649047851562
0, 0, 58, 1255.596923828125
0, 0, 59, 1330.43310546875
0, 0, 60, 1325.268798828125
0, 0, 61, 1264.28955078125
0, 0, 62, 1237.209594726562
0, 0, 63, 1277.527465820312
0, 0, 64, 1327.889404296875
0, 0, 65, 1286.62548828125
0, 0, 66, 1317.819946289062
0, 0, 67, 1214.183715820312
0, 0, 68, 1309.138427734375
0, 0, 69, 1327.004516601562
0, 0, 70, 1349.34033203125
0, 0, 71, 1287.096069335938
0, 0, 72, 1313.526733398438
0, 0, 73, 1241.079345703125
0, 0, 74, 1289.820068359375
0, 0, 75, 1297.68115234375
0, 0, 76, 1258.781127929688
0, 0, 77, 1292.233154296875
0, 0, 78, 1316.6650390625
0, 0, 79, 1327.434326171875
0, 0, 80, 1268.95703125
0, 0, 81, 1317.952758789062
0, 0, 82, 1288.129760742188
0, 0, 83, 1290.734985351562
0, 0, 84, 1333.2490234375
0, 0, 85, 1234.674072265625
0, 0, 86, 1266.471435546875
0, 0, 87, 1251.26318359375
0, 0, 88, 1256.6181640625
0, 0, 89, 1334.032348632812
0, 0, 90, 1274.803955078125
0, 0, 91, 1357.840576171875
0, 0, 92, 1300.39453125
0, 0, 93, 1273.375854492188
0, 0, 94, 1239.635620117188
0, 0, 95, 1328.600341796875
0, 0, 96, 1280.008666992188
0, 0, 97, 1325.885498046875
0, 0, 98, 1259.869384765625
0, 0, 99, 1244.98583984375
0, 0, 100, 1287.335083007812
0, 0, 101, 1313.084106445312
0, 0, 102, 1233.453735351562
0, 0, 103, 1317.216430664062
0, 0, 104, 1261.11865234375
0, 0, 105, 1271.845825195312
0, 0, 106, 1209.826293945312
0, 0, 107, 777.873291015625
0, 0, 108, 193.2433624267578
0, 0, 109, 68.12663269042969
0, 0, 110, 62.99354553222656
0, 0, 111, 38.9627799987793
0, 0, 112, 37.2432746887207
0, 0, 113, 32.85866165161133
0, 0, 114, 33.61513137817383
0, 0, 115, 31.15141868591309
0, 0, 116, 25.84500312805176
0, 0, 117, 34.02002334594727
0, 0, 118, 28.08660697937012
0, 0, 119, 22.47678756713867
0, 0, 120, 27.81467437744141
0, 0, 121, 24.2234001159668
0, 0, 122, 25.75948715209961
0, 0, 123, 25.63986587524414
0, 0, 124, 25.70695114135742
0, 0, 125, 19.92693519592285
0, 0, 126, 25.4969482421875
0, 0, 127, 12.31290245056152
0, 1, 0, 22.85861587524414
0, 1, 1, 21.49912261962891
0, 1, 2, 18.30756378173828
0, 1, 3, 20.30295562744141
0, 1, 4, 27.54834365844727
0, 1, 5, 30.41481018066406
0, 1, 6, 23.04794120788574
0, 1, 7, 26.34395027160645
0, 1, 8, 29.19834518432617
0, 1, 9, 31.19700050354004
0, 1, 10, 32.31410598754883
0, 1, 11, 38.72019195556641
0, 1, 12, 34.42453002929688
0, 1, 13, 40.19500350952148
0, 1, 14, 40.16743087768555
0, 1, 15, 45.87862014770508
0, 1, 16, 57.23365783691406
0, 1, 17, 62.03178787231445
0, 1, 18, 96.68815612792969
0, 1, 19, 398.3136901855469
0, 1, 20, 1034.81396484375
0, 1, 21, 1374.02685546875
0, 1, 22, 1478.070434570312
0, 1, 23, 1467.966186523438
0, 1, 24, 1446.793823242188
0, 1, 25, 1416.8525390625
0, 1, 26, 1474.747436523438
0, 1, 27, 1465.698486328125
0, 1, 28, 1490.74072265625
0, 1, 29, 1475.35009765625
0, 1, 30, 1508.881103515625
0, 1, 31, 1485.123779296875
0, 1, 32, 1410.362548828125
0, 1, 33, 1498.870971679688
0, 1, 34, 1501.666015625
0, 1, 35, 1460.992553710938
0, 1, 36, 1491.972045898438
0, 1, 37, 1412.608154296875
0, 1, 38, 1391.836181640625
0, 1, 39, 1525.33154296875
0, 1, 40, 1459.414428710938
0, 1, 41, 1486.776611328125
0, 1, 42, 1492.38720703125
0, 1, 43, 1501.416381835938
0, 1, 44, 1451.841430664062
0, 1, 45, 1489.971557617188
0, 1, 46, 1422.280883789062
0, 1, 47, 1438.00146484375
0, 1, 48, 1430.76513671875
0, 1, 49, 1485.355712890625
0, 1, 50, 1441.540283203125
0, 1, 51, 1476.135986328125
0, 1, 52, 1477.5595703125
0, 1, 53, 1471.085327148438
0, 1, 54, 1510.801025390625
0, 1, 55, 1495.927124023438
0, 1, 56, 1467.637329101562
0, 1, 57, 1457.490112304688
0, 1, 58, 1430.1748046875
0, 1, 59, 1485.672729492188
0, 1, 60, 1466.088745117188
0, 1, 61, 1451.148559570312
0, 1, 62, 1457.279174804688
0, 1, 63, 1415.118408203125
0, 1, 64, 1473.698364257812
0, 1, 65, 1418.95068359375
0, 1, 66, 1440.46142578125
0, 1, 67, 1454.474609375
0, 1, 68, 1386.680419921875
0, 1, 69, 1461.079467773438
0, 1, 70, 1428.403564453125
0, 1, 71, 1498.341064453125
0, 1, 72, 1433.97900390625
0, 1, 73, 1488.771362304688
0, 1, 74, 1475.82421875
0, 1, 75, 1479.969848632812
0, 1, 76, 1454.915771484375
0, 1, 77, 1467.208129882812
0, 1, 78, 1447.668579101562
0, 1, 79, 1500.787841796875
0, 1, 80, 1451.833862304688
0, 1, 81, 1422.15966796875
0, 1, 82, 1471.671875
0, 1, 83, 1464.239624023438
0, 1, 84, 1533.037841796875
0, 1, 85, 1449.856811523438
0, 1, 86, 1402.882446289062
0, 1, 87, 1421.06884765625
0, 1, 88, 1473.014282226562
0, 1, 89, 1475.416015625
0, 1, 90, 1421.173461914062
0, 1, 91, 1463.913818359375
0, 1, 92, 1406.4677734375
0, 1, 93, 1464.825927734375
0, 1, 94, 1467.9404296875
0, 1, 95, 1420.9052734375
0, 1, 96, 1496.947998046875
0, 1, 97, 1517.499633789062
0, 1, 98, 1478.232543945312
0, 1, 99, 1422.060668945312
0, 1, 100, 1445.079711914062
0, 1, 101, 1410.712036132812
0, 1, 102, 1441.471557617188
0, 1, 103, 1413.166870117188
0, 1, 104, 1410.921264648438
0, 1, 105, 1466.112182617188
0, 1, 106, 1363.327514648438
0, 1, 107, 1022.585327148438
0, 1, 108, 401.3772277832031
0, 1, 109, 91.00823211669922
0, 1, 110, 61.98999786376953
0, 1, 111, 54.20101165771484
0, 1, 112, 45.40446853637695
0, 1, 113, 45.16897201538086
0, 1, 114, 32.09598159790039
0, 1, 115, 40.01510238647461
0, 1, 116, 35.61835098266602
0, 1, 117, 34.53509140014648
0, 1, 118, 34.44416046142578
0, 1, 119, 27.89557838439941
0, 1, 120, 30.3436107635498
0, 1, 121, 27.56683540344238
0, 1, 122, 22.79518890380859
0, 1, 123, 21.85831069946289
0, 1, 124, 31.63364601135254
0, 1, 125, 18.61196899414062
0, 1, 126, 21.36449813842773
0, 1, 127, 21.10512924194336
0, 2, 0, 17.52866744995117
0, 2, 1, 22.40684700012207
0, 2, 2, 25.28720474243164
0, 2, 3, 25.33506202697754
0, 2, 4, 24.66278839111328
0, 2, 5, 25.55197334289551
0, 2, 6, 20.35058403015137
0, 2, 7, 21.4447135925293
0, 2, 8, 26.18815803527832
0, 2, 9, 26.080322265625
0, 2, 10, 28.60659217834473
0, 2, 11, 31.95047569274902
0, 2, 12, 40.40794372558594
0, 2, 13, 47.70204162597656
0, 2, 14, 46.11537551879883
0, 2, 15, 43.64604568481445
0, 2, 16, 61.29896926879883
0, 2, 17, 78.59893035888672
0, 2, 18, 144.8747863769531
0, 2, 19, 605.8521118164062
0, 2, 20, 1289.594848632812
0, 2, 21, 1431.36181640625
0, 2, 22, 1463.734375
0, 2, 23, 1405.104858398438
0, 2, 24, 1439.273071289062
0, 2, 25, 1522.342651367188
0, 2, 26, 1551.454467773438
0, 2, 27, 1460.301635742188
0, 2, 28, 1459.773315429688
0, 2, 29, 1459.550415039062
0, 2, 30, 1463.632934570312
0, 2, 31, 1538.141357421875
0, 2, 32, 1503.546752929688
0, 2, 33, 1440.515625
0, 2, 34, 1475.506103515625
0, 2, 35, 1469.906616210938
0, 2, 36, 1522.911865234375
0, 2, 37, 1540.578491210938
0, 2, 38, 1502.857421875
0, 2, 39, 1464.484741210938
0, 2, 40, 1508.419067382812
0, 2, 41, 1518.588623046875
0, 2, 42, 1503.822387695312
0, 2, 43, 1551.211669921875
0, 2, 44, 1464.031982421875
0, 2, 45, 1483.43505859375
0, 2, 46, 1423.16943359375
0, 2, 47, 1448.43017578125
0, 2, 48, 1396.239868164062
0, 2, 49, 1460.11962890625
0, 2, 50, 1445.126831054688
0, 2, 51, 1451.298217773438
0, 2, 52, 1493.576538085938
0, 2, 53, 1524.273803710938
0, 2, 54, 1526.63525390625
0, 2, 55, 1494.510986328125
0, 2, 56, 1464.168090820312
0, 2, 57, 1413.213134765625
0, 2, 58, 1457.167236328125
0, 2, 59, 1445.739501953125
0, 2, 60, 1473.1640625
0, 2, 61, 1446.498657226562
0, 2, 62, 1468.718505859375
0, 2, 63, 1506.541015625
0, 2, 64, 1454.819458007812
0, 2, 65, 1425.512939453125
0, 2, 66, 1492.109741210938
0, 2, 67, 1504.124877929688
0, 2, 68, 1541.634399414062
0, 2, 69, 1536.495239257812
0, 2, 70, 1508.295166015625
0, 2, 71, 1463.959350585938
0, 2, 72, 1516.51953125
0, 2, 73, 1518.94287109375
0, 2, 74, 1495.647338867188
0, 2, 75, 1505.644653320312
0, 2, 76, 1450.810302734375
0, 2, 77, 1506.566284179688
0, 2, 78, 1433.424072265625
0, 2, 79, 1546.49951171875
0, 2, 80, 1478.986328125
0, 2, 81, 1464.80029296875
0, 2, 82, 1562.564697265625
0, 2, 83, 1513.820434570312
0, 2, 84, 1492.1767578125
0, 2, 85, 1517.756103515625
0, 2, 86, 1542.69970703125
0, 2, 87, 1493.980834960938
0, 2, 88, 1539.872802734375
0, 2, 89, 1466.58544921875
0, 2, 90, 1433.138549804688
0, 2, 91, 1405.474243164062
0, 2, 92, 1478.990966796875
0, 2, 93, 1498.458251953125
0, 2, 94, 1449.957763671875
0, 2, 95, 1543.167114257812
0, 2, 96, 1512.72314453125
0, 2, 97, 1453.218017578125
0, 2, 98, 1459.379760742188
0, 2, 99, 1404.413696289062
0, 2, 100, 1473.18896484375
0, 2, 101, 1482.23681640625
0, 2, 102, 1461.165893554688
0, 2, 103, 1387.458862304688
0, 2, 104, 1410.124755859375
0, 2, 105, 1392.712890625
0, 2, 106, 1454.30517578125
0, 2, 107, 1272.606567382812
0, 2, 108, 624.693115234375
0, 2, 109, 172.6532440185547
0, 2, 110, 68.70516967773438
0, 2, 111, 64.73869323730469
0, 2, 112, 44.81587219238281
0, 2, 113, 44.43224334716797
0, 2, 114, 42.82418441772461
0, 2, 115, 38.75640869140625
0, 2, 116, 32.28508377075195
0, 2, 117, 41.63175964355469
0, 2, 118, 37.36826705932617
0, 2, 119, 31.2111873626709
0, 2, 120, 27.43111228942871
0, 2, 121, 22.23222160339355
0, 2, 122, 29.07089805603027
0, 2, 123, 18.3023853302002
0, 2, 124, 24.27004051208496
0, 2, 125, 27.81451988220215
0, 2, 126, 21.62486457824707
0, 2, 127, 19.47724342346191
0, 3, 0, 17.00251388549805
0, 3, 1, 23.84213256835938
0, 3, 2, 24.43999290466309
0, 3, 3, 22.35516738891602
0, 3, 4, 22.50038909912109
0, 3, 5, 23.26815223693848
0, 3, 6, 32.93498992919922
0, 3, 7, 34.35919189453125
0, 3, 8, 28.97987174987793
0, 3, 9, 28.46101379394531
0, 3, 10, 35.57059860229492
0, 3, 11, 38.4267692565918
0, 3, 12, 44.05205917358398
0, 3, 13, 50.29772186279297
0, 3, 14, 57.98728942871094
0, 3, 15, 55.44223403930664
0, 3, 16, 71.54031372070312
0, 3, 17, 86.66603851318359
0, 3, 18, 243.5143890380859
0, 3, 19, 872.3777465820312
0, 3, 20, 1385.47119140625
0, 3, 21, 1510.339599609375
0, 3, 22, 1458.348999023438
0, 3, 23, 1451.510498046875
0, 3, 24, 1437.339111328125
0, 3, 25, 1463.474975585938
0, 3, 26, 1494.521118164062
0, 3, 27, 1465.008544921875
0, 3, 28, 1489.388549804688
0, 3, 29, 1543.716674804688
0, 3, 30, 1568.732543945312
0, 3, 31, 1519.517700195312
0, 3, 32, 1543.134521484375
0, 3, 33, 1539.830444335938
0, 3, 34, 1487.226440429688
0, 3, 35, 1463.955810546875
0, 3, 36, 1448.383178710938
0, 3, 37, 1515.47119140625
0, 3, 38, 1518.654541015625
0, 3, 39, 1442.010986328125
0, 3, 40, 1439.228393554688
0, 3, 41, 1555.108276367188
0, 3, 42, 1459.665161132812
0, 3, 43, 1454.185791015625
0, 3, 44, 1452.468872070312
0, 3, 45, 1507.8642578125
0, 3, 46, 1508.91845703125
0, 3, 47, 1438.347778320312
0, 3, 48, 1510.329345703125
0, 3, 49, 1451.356567382812
0, 3, 50, 1490.078125
0, 3, 51, 1533.191650390625
0, 3, 52, 1536.376708984375
0, 3, 53, 1463.419921875
0, 3, 54, 1537.40185546875
0, 3, 55, 1501.150756835938
0, 3, 56, 1438.210083007812
0, 3, 57, 1505.119506835938
0, 3, 58, 1514.830200195312
0, 3, 59, 1514.169921875
0, 3, 60, 1533.604858398438
0, 3, 61, 1488.913452148438
0, 3, 62, 1492.119018554688
0, 3, 63, 1496.808715820312
0, 3, 64, 1498.64453125
0, 3, 65, 1514.544799804688
0, 3, 66, 1553.005615234375
0, 3, 67, 1545.947143554688
0, 3, 68, 1446.687622070312
0, 3, 69, 1464.053833007812
0, 3, 70, 1385.537353515625
0, 3, 71, 1464.198364257812
0, 3, 72, 1548.852905273438
0, 3, 73, 1504.007690429688
0, 3, 74, 1464.9658203125
0, 3, 75, 1459.945190429688
0, 3, 76, 1577.109130859375
0, 3, 77, 1545.0087890625
0, 3, 78, 1434.4345703125
0, 3, 79, 1495.264892578125
0, 3, 80, 1460.1533203125
0, 3, 81, 1470.970336914062
0, 3, 82, 1550.244140625
0, 3, 83, 1510.932739257812
0, 3, 84, 1562.03271484375
0, 3, 85, 1477.721435546875
0, 3, 86, 1523.2421875
0, 3, 87, 1543.76025390625
0, 3, 88, 1461.42626953125
0, 3, 89, 1447.444580078125
0, 3, 90, 1450.626708984375
0, 3, 91, 1417.033081054688
0, 3, 92, 1508.180053710938
0, 3, 93, 1501.265991210938
0, 3, 94, 1515.8076171875
0, 3, 95, 1545.223022460938
0, 3, 96, 1513.359741210938
0, 3, 97, 1465.428588867188
0, 3, 98, 1430.716796875
0, 3, 99, 1462.436767578125
0, 3, 100, 1464.88427734375
0, 3, 101, 1476.137573242188
0, 3, 102, 1519.398315429688
0, 3, 103, 1549.053344726562
0, 3, 104, 1496.547241210938
0, 3, 105, 1513.038940429688
0, 3, 106, 1478.764038085938
0, 3, 107, 1339.018798828125
0, 3, 108, 869.676513671875
0, 3, 109, 262.6917724609375
0, 3, 110, 102.1482238769531
0, 3, 111, 66.98959350585938
0, 3, 112, 58.85860443115234
0, 3, 113, 51.84177017211914
0, 3, 114, 49.22220611572266
0, 3, 115, 49.57665252685547
0, 3, 116, 33.13888549804688
0, 3, 117, 35.46956253051758
0, 3, 118, 34.95686340332031
0, 3, 119, 35.98794174194336
0, 3, 120, 32.19101333618164
0, 3, 121, 19.95445442199707
0, 3, 122, 26.6857967376709
0, 3, 123, 25.59678268432617
0, 3, 124, 22.98943710327148
0, 3, 125, 26.3175163269043
0, 3, 126, 20.95371437072754
0, 3, 127, 17.07308197021484
0, 4, 0, 22.73091888427734
0, 4, 1, 28.05494117736816
0, 4, 2, 19.19231224060059
0, 4, 3, 18.84366416931152
0, 4, 4, 27.19571685791016
0, 4, 5, 27.65774154663086
0, 4, 6, 30.90927314758301
0, 4, 7, 29.33306694030762
0, 4, 8, 26.05172538757324
0, 4, 9, 32.51268005371094
0, 4, 10, 33.52811813354492
0, 4, 11, 41.91986465454102
0, 4, 12, 41.92516708374023
0, 4, 13, 53.40995407104492
0, 4, 14, 51.04726028442383
0, 4, 15, 61.77692794799805
0, 4, 16, 73.51242065429688
0, 4, 17, 115.6424179077148
0, 4, 18, 443.7975463867188
0, 4, 19, 1178.100463867188
0, 4, 20, 1451.51416015625
0, 4, 21, 1419.886596679688
0, 4, 22, 1433.48876953125
0, 4, 23, 1449.133422851562
0, 4, 24, 1475.633056640625
0, 4, 25, 1402.091186523438
0, 4, 26, 1540.8359375
0, 4, 27, 1542.106689453125
0, 4, 28, 1512.49462890625
0, 4, 29, 1518.847290039062
0, 4, 30, 1523.409912109375
0, 4, 31, 1572.933715820312
0, 4, 32, 1516.411743164062
0, 4, 33, 1491.549682617188
0, 4, 34, 1470.313598632812
0, 4, 35, 1556.765380859375
0, 4, 36, 1497.767333984375
0, 4, 37, 1514.59814453125
0, 4, 38, 1537.741943359375
0, 4, 39, 1469.702270507812
0, 4, 40, 1511.16357421875
0, 4, 41, 1586.602905273438
0, 4, 42, 1562.98291015625
0, 4, 43, 1482.348876953125
0, 4, 44, 1499.795288085938
0, 4, 45, 1514.869750976562
0, 4, 46, 1467.925537109375
0, 4, 47, 1505.628784179688
0, 4, 48, 1525.276123046875
0, 4, 49, 1467.94482421875
0, 4, 50, 1514.970947265625
0, 4, 51, 1487.0126953125
0, 4, 52, 1494.577026367188
0, 4, 53, 1455.908813476562
0, 4, 54, 1441.704345703125
0, 4, 55, 1525.4716796875
0, 4, 56, 1457.318115234375
0, 4, 57, 1494.337280273438
0, 4, 58, 1455.192138671875
0, 4, 59, 1462.16552734375
0, 4, 60, 1527.853271484375
0, 4, 61, 1495.1474609375
0, 4, 62, 1512.071044921875
0, 4, 63, 1543.58984375
0, 4, 64, 1590.690795898438
0, 4, 65, 1425.567749023438
0, 4, 66, 1511.050415039062
0, 4, 67, 1521.366943359375
0, 4, 68, 1496.570678710938
0, 4, 69, 1469.448974609375
0, 4, 70, 1549.317749023438
0, 4, 71, 1515.206787109375
0, 4, 72, 1530.161743164062
0, 4, 73, 1494.32958984375
0, 4, 74, 1490.421142578125
0, 4, 75, 1537.970703125
0, 4, 76, 1485.460083007812
0, 4, 77, 1498.973876953125
0, 4, 78, 1503.69482421875
0, 4, 79, 1485.847534179688
0, 4, 80, 1518.460083007812
0, 4, 81, 1523.38427734375
0, 4, 82, 1565.53662109375
0, 4, 83, 1505.081298828125
0, 4, 84, 1539.131103515625
0, 4, 85, 1555.057739257812
0, 4, 86, 1526.176879882812
0, 4, 87, 1498.041259765625
0, 4, 88, 1515.234252929688
0, 4, 89, 1483.74658203125
0, 4, 90, 1545.8740234375
0, 4, 91, 1557.237670898438
0, 4, 92, 1489.915771484375
0, 4, 93, 1516.943481445312
0, 4, 94, 1480.0458984375
0, 4, 95, 1506.950073242188
0, 4, 96, 1445.283569335938
0, 4, 97, 1410.56884765625
0, 4, 98, 1557.423095703125
0, 4, 99, 1510.086547851562
0, 4, 100, 1485.686401367188
0, 4, 101, 1449.746337890625
0, 4, 102, 1444.5361328125
0, 4, 103, 1513.94775390625
0, 4, 104, 1507.437744140625
0, 4, 105, 1559.66259765625
0, 4, 106, 1478.997192382812
0, 4, 107, 1452.834594726562
0, 4, 108, 1124.372436523438
0, 4, 109, 433.5986633300781
0, 4, 110, 95.49980163574219
0, 4, 111, 66.26139068603516
0, 4, 112, 63.28802108764648
0, 4, 113, 44.35851287841797
0, 4, 114, 50.09069442749023
0, 4, 115, 46.09442901611328
0, 4, 116, 35.01847457885742
0, 4, 117, 43.74297714233398
0, 4, 118, 43.12260437011719
0, 4, 119, 39.63142013549805
0, 4, 120, 30.22002220153809
0, 4, 121, 23.00861740112305
0, 4, 122, 30.96970558166504
0, 4, 123, 25.43723678588867
0, 4, 124, 24.18357849121094
0, 4, 125, 28.56453514099121
0, 4, 126, 23.5430850982666
0, 4, 127, 22.20263862609863
0, 5, 0, 21.21438407897949
0, 5, 1, 24.44119834899902
0, 5, 2, 33.51392364501953
0, 5, 3, 24.71818351745605
0, 5, 4, 26.10175323486328
0, 5, 5, 34.40280914306641
0, 5, 6, 33.02998733520508
0, 5, 7, 29.12874984741211
0, 5, 8, 26.82637214660645
0, 5, 9, 32.70761871337891
0, 5, 10, 33.78264999389648
0, 5, 11, 38.36605453491211
0, 5, 12, 36.97259902954102
0, 5, 13, 42.54449844360352
0, 5, 14, 63.38482284545898
0, 5, 15, 81.86917877197266
0, 5, 16, 83.40430450439453
0, 5, 17, 158.0301971435547
0, 5, 18, 672.9956665039062
0, 5, 19, 1345.23974609375
0, 5, 20, 1528.046875
0, 5, 21, 1493.630126953125
0, 5, 22, 1496.6630859375
0, 5, 23, 1532.990844726562
0, 5, 24, 1465.1337890625
0, 5, 25, 1425.98046875
0, 5, 26, 1529.718383789062
0, 5, 27, 1533.590209960938
0, 5, 28, 1483.24609375
0, 5, 29, 1525.174682617188
0, 5, 30, 1490.515625
0, 5, 31, 1498.995727539062
0, 5, 32, 1592.442749023438
0, 5, 33, 1499.297607421875
0, 5, 34, 1487.474853515625
0, 5, 35, 1514.362670898438
0, 5, 36, 1444.08349609375
0, 5, 37, 1531.66357421875
0, 5, 38, 1544.74560546875
0, 5, 39, 1550.902709960938
0, 5, 40, 1500.377685546875
0, 5, 41, 1481.47412109375
0, 5, 42, 1541.940307617188
0, 5, 43, 1532.47119140625
0, 5, 44, 1539.631103515625
0, 5, 45, 1511.50341796875
0, 5, 46, 1489.74560546875
0, 5, 47, 1487.003784179688
0, 5, 48, 1503.204467773438
0, 5, 49, 1524.51806640625
0, 5, 50, 1504.9169921875
0, 5, 51, 1515.442504882812
0, 5, 52, 1429.439697265625
0, 5, 53, 1524.334716796875
0, 5, 54, 1521.6513671875
0, 5, 55, 1521.414672851562
0, 5, 56, 1488.655395507812
0, 5, 57, 1540.578369140625
0, 5, 58, 1505.911376953125
0, 5, 59, 1484.593017578125
0, 5, 60, 1532.87353515625
0, 5, 61, 1449.904296875
0, 5, 62, 1585.66650390625
0, 5, 63, 1433.680297851562
0, 5, 64, 1488.717407226562
0, 5, 65, 1471.147583007812
0, 5, 66, 1533.87353515625
0, 5, 67, 1560.09326171875
0, 5, 68, 1463.730346679688
0, 5, 69, 1480.62060546875
0, 5, 70, 1488.981689453125
0, 5, 71, 1473.293212890625
0, 5, 72, 1536.458374023438
0, 5, 73, 1460.37890625
0, 5, 74, 1493.550170898438
0, 5, 75, 1485.872436523438
0, 5, 76, 1478.661010742188
0, 5, 77, 1515.394409179688
0, 5, 78, 1523.945556640625
0, 5, 79, 1508.743041992188
0, 5, 80, 1514.357177734375
0, 5, 81, 1597.075317382812
0, 5, 82, 1524.758911132812
0, 5, 83, 1487.478393554688
0, 5, 84, 1528.184814453125
0, 5, 85, 1514.772094726562
0, 5, 86, 1562.19775390625
0, 5, 87, 1467.741333007812
0, 5, 88, 1499.7763671875
0, 5, 89, 1478.844116210938
0, 5, 90, 1486.115112304688
0, 5, 91, 1546.87255859375
0, 5, 92, 1484.87255859375
0, 5, 93, 1556.610595703125
0, 5, 94, 1503.898315429688
0, 5, 95, 1564.588134765625
0, 5, 96, 1498.181518554688
0, 5, 97, 1514.285522460938
0, 5, 98, 1509.701293945312
0, 5, 99, 1541.726684570312
0, 5, 100, 1433.49658203125
0, 5, 101, 1425.799438476562
0, 5, 102, 1519.441040039062
0, 5, 103, 1474.46875
0, 5, 104, 1459.572998046875
0, 5, 105, 1488.99462890625
0, 5, 106, 1455.882446289062
0, 5, 107, 1402.091186523438
0, 5, 108, 1289.229736328125
0, 5, 109, 718.7318725585938
0, 5, 110, 192.4750366210938
0, 5, 111, 91.7987060546875
0, 5, 112, 84.37333679199219
0, 5, 113, 65.07068634033203
0, 5, 114, 61.31345367431641
0, 5, 115, 54.14033889770508
0, 5, 116, 37.75885772705078
0, 5, 117, 34.30641174316406
0, 5, 118, 46.71173858642578
0, 5, 119, 28.70453643798828
0, 5, 120, 22.86477470397949
0, 5, 121, 25.12397003173828
0, 5, 122, 31.70309638977051
0, 5, 123, 28.23360061645508
0, 5, 124, 34.05562591552734
0, 5, 125, 23.91643714904785
0, 5, 126, 22.09794616699219
0, 5, 127, 22.30585098266602
0, 6, 0, 20.53513336181641
0, 6, 1, 28.48037147521973
0, 6, 2, 28.48817443847656
0, 6, 3, 29.47174835205078
0, 6, 4, 25.39472007751465
0, 6, 5, 38.57435607910156
0, 6, 6, 40.81958770751953
0, 6, 7, 37.40726089477539
0, 6, 8, 33.93576812744141
0, 6, 9, 35.24993896484375
0, 6, 10, 38.98067092895508
0, 6, 11, 37.31919479370117
0, 6, 12, 41.55208587646484
0, 6, 13, 55.61613082885742
0, 6, 14, 71.34354400634766
0, 6, 15, 86.12444305419922
0, 6, 16, 120.9936218261719
0, 6, 17, 296.5179138183594
0, 6, 18, 898.2141723632812
0, 6, 19, 1373.138671875
0, 6, 20, 1439.313598632812
0, 6, 21, 1530.758178710938
0, 6, 22, 1503.199096679688
0, 6, 23, 1531.1064453125
0, 6, 24, 1478.385131835938
0, 6, 25, 1525.638305664062
0, 6, 26, 1520.81982421875
0, 6, 27, 1523.3974609375
0, 6, 28, 1549.59521484375
0, 6, 29, 1577.02880859375
0, 6, 30, 1518.826171875
0, 6, 31, 1495.615600585938
0, 6, 32, 1529.375
0, 6, 33, 1489.694458007812
0, 6, 34, 1564.3828125
0, 6, 35, 1502.6162109375
0, 6, 36, 1441.711181640625
0, 6, 37, 1547.56396484375
0, 6, 38, 1520.80859375
0, 6, 39, 1526.829345703125
0, 6, 40, 1459.95068359375
0, 6, 41, 1443.110229492188
0, 6, 42, 1516.48876953125
0, 6, 43, 1482.159057617188
0, 6, 44, 1427.276611328125
0, 6, 45, 1542.038818359375
0, 6, 46, 1553.643676757812
0, 6, 47, 1496.829467773438
0, 6, 48, 1525.3486328125
0, 6, 49, 1512.283203125
0, 6, 50, 1575.426391601562
0, 6, 51, 1502.763916015625
0, 6, 52, 1563.831665039062
0, 6, 53, 1474.868774414062
0, 6, 54, 1507.088500976562
0, 6, 55, 1575.4423828125
0, 6, 56, 1517.78759765625
0, 6, 57, 1511.08544921875
0, 6, 58, 1469.700073242188
0, 6, 59, 1521.412109375
0, 6, 60, 1469.315063476562
0, 6, 61, 1573.383422851562
0, 6, 62, 1546.37060546875
0, 6, 63, 1496.252563476562
0, 6, 64, 1414.018798828125
0, 6, 65, 1492.344482421875
0, 6, 66, 1513.616333007812
0, 6, 67, 1514.19677734375
0, 6, 68, 1550.022216796875
0, 6, 69, 1490.080322265625
0, 6, 70, 1522.06298828125
0, 6, 71, 1471.218139648438
0, 6, 72, 1595.654663085938
0, 6, 73, 1485.058715820312
0, 6, 74, 1557.975708007812
0, 6, 75, 1534.894287109375
0, 6, 76, 1566.705688476562
0, 6, 77, 1505.09375
0, 6, 78, 1444.893920898438
0, 6, 79, 1554.258422851562
0, 6, 80, 1485.17529296875
0, 6, 81, 1479.944580078125
0, 6, 82, 1506.916748046875
0, 6, 83, 1529.104614257812
0, 6, 84, 1519.89794921875
0, 6, 85, 1535.33837890625
0, 6, 86, 1544.447387695312
0, 6, 87, 1567.516845703125
0, 6, 88, 1479.847290039062
0, 6, 89, 1562.837524414062
0, 6, 90, 1489.294555664062
0, 6, 91, 1541.650512695312
0, 6, 92, 1489.672729492188
0, 6, 93, 1494.676879882812
0, 6, 94, 1468.170288085938
0, 6, 95, 1512.625244140625
0, 6, 96, 1514.312133789062
0, 6, 97, 1505.4521484375
0, 6, 98, 1495.1689453125
0, 6, 99, 1480.151000976562
0, 6, 100, 1522.56494140625
0, 6, 101, 1519.260986328125
0, 6, 102, 1539.306396484375
0, 6, 103, 1498.562744140625
0, 6, 104, 1463.098754882812
0, 6, 105, 1487.069458007812
0, 6, 106, 1495.89208984375
0, 6, 107, 1506.639282226562
0, 6, 108, 1412.535034179688
0, 6, 109, 925.9378051757812
0, 6, 110, 279.9971313476562
0, 6, 111, 95.90072631835938
0, 6, 112, 75.71274566650391
0, 6, 113, 59.60783767700195
0, 6, 114, 55.15595626831055
0, 6, 115, 41.09281921386719
0, 6, 116, 39.3463249206543
0, 6, 117, 36.70610427856445
0, 6, 118, 39.05466079711914
0, 6, 119, 35.65000915527344
0, 6, 120, 26.95845985412598
0, 6, 121, 27.84431266784668
0, 6, 122, 26.68635940551758
0, 6, 123, 30.98271560668945
0, 6, 124, 36.33135986328125
0, 6, 125, 29.87172889709473
0, 6, 126, 26.08158302307129
0, 6, 127, 20.06194305419922
0, 7, 0, 27.13395500183105
0, 7, 1, 24.57811546325684
0, 7, 2, 21.53241157531738
0, 7, 3, 23.91149520874023
0, 7, 4, 22.20831108093262
0, 7, 5, 38.80009078979492
0, 7, 6, 33.60811996459961
0, 7, 7, 35.42829895019531
0, 7, 8, 31.36462020874023
0, 7, 9, 33.48660278320312
0, 7, 10, 45.41183090209961
0, 7, 11, 51.75814056396484
0, 7, 12, 48.61530303955078
0, 7, 13, 51.76126098632812
0, 7, 14, 70.76424407958984
0, 7, 15, 80.57664489746094
0, 7, 16, 131.702392578125
0, 7, 17, 457.3647766113281
0, 7, 18, 1097.73046875
0, 7, 19, 1503.094482421875
0, 7, 20, 1489.361694335938
0, 7, 21, 1369.041870117188
0, 7, 22, 1484.275634765625
0, 7, 23, 1454.236328125
0, 7, 24, 1508.328002929688
0, 7, 25, 1594.329833984375
0, 7, 26, 1518.1328125
0, 7, 27, 1509.643432617188
0, 7, 28, 1542.177856445312
0, 7, 29, 1579.345703125
0, 7, 30, 1547.95947265625
0, 7, 31, 1436.943725585938
0, 7, 32, 1540.661254882812
0, 7, 33, 1496.8466796875
0, 7, 34, 1481.874633789062
0, 7, 35, 1522.438354492188
0, 7, 36, 1479.416137695312
0, 7, 37, 1598.3466796875
0, 7, 38, 1508.055419921875
0, 7, 39, 1488.173828125
0, 7, 40, 1547.063110351562
0, 7, 41, 1463.618896484375
0, 7, 42, 1480.609497070312
0, 7, 43, 1442.114379882812
0, 7, 44, 1489.560180664062
0, 7, 45, 1468.132202148438
0, 7, 46, 1508.273315429688
0, 7, 47, 1563.829956054688
0, 7, 48, 1520.986450195312
0, 7, 49, 1541.006225585938
0, 7, 50, 1512.725708007812
0, 7, 51, 1501.186157226562
0, 7, 52, 1515.661376953125
0, 7, 53, 1496.870727539062
0, 7, 54, 1585.460083007812
0, 7, 55, 1468.4619140625
0, 7, 56, 1547.179077148438
0, 7, 57, 1513.41015625
0, 7, 58, 1547.567993164062
0, 7, 59, 1540.007568359375
0, 7, 60, 1545.3759765625
0, 7, 61, 1492.8349609375
0, 7, 62, 1431.9140625
0, 7, 63, 1516.505004882812
0, 7, 64, 1543.491333007812
0, 7, 65, 1529.498046875
0, 7, 66, 1533.678833007812
0, 7, 67, 1581.36669921875
0, 7, 68, 1533.861206054688
0, 7, 69, 1517.016723632812
0, 7, 70, 1498.987060546875
0, 7, 71, 1530.385864257812
0, 7, 72, 1519.20556640625
0, 7, 73, 1518.051391601562
0, 7, 74, 1577.02978515625
0, 7, 75, 1538.515991210938
0, 7, 76, 1560.912963867188
0, 7, 77, 1513.209350585938
0, 7, 78, 1507.468627929688
0, 7, 79, 1424.882446289062
0, 7, 80, 1484.827880859375
0, 7, 81, 1497.254272460938
0, 7, 82, 1533.046752929688
0, 7, 83, 1545.8154296875
0, 7, 84, 1582.392822265625
0, 7, 85, 1479.299682617188
0, 7, 86, 1502.426147460938
0, 7, 87, 1504.657104492188
0, 7, 88, 1501.6005859375
0, 7, 89, 1554.942138671875
0, 7, 90, 1519.319091796875
0, 7, 91, 1559.5078125
0, 7, 92, 1532.255981445312
0, 7, 93, 1555.237915039062
0, 7, 94, 1533.695922851562
0, 7, 95, 1510.968505859375
0, 7, 96, 1510.116088867188
0, 7, 97, 1433.254638671875
0, 7, 98, 1483.918579101562
0, 7, 99, 1520.306030273438
0, 7, 100, 1420.963745117188
0, 7, 101, 1468.472900390625
0, 7, 102, 1449.080078125
0, 7, 103, 1430.931762695312
0, 7, 104, 1492.756103515625
0, 7, 105, 1522.88720703125
0, 7, 106, 1572.37353515625
0, 7, 107, 1479.96923828125
0, 7, 108, 1408.780395507812
0, 7, 109, 1145.976440429688
0, 7, 110, 467.6526489257812
0, 7, 111, 123.3167953491211
0, 7, 112, 72.64412689208984
0, 7, 113, 70.552978515625
0, 7, 114, 56.44371032714844
0, 7, 115, 51.02404022216797
0, 7, 116, 44.40380477905273
0, 7, 117, 47.21217346191406
0, 7, 118, 36.2038459777832
0, 7, 119, 32.17061233520508
0, 7, 120, 23.11809158325195
0, 7, 121, 29.67195320129395
0, 7, 122, 33.6314697265625
0, 7, 123, 33.36418914794922
0, 7, 124, 27.86410140991211
0, 7, 125, 21.35230445861816
0, 7, 126, 25.19553565979004
0, 7, 127, 20.06408500671387
0, 8, 0, 20.94348907470703
0, 8, 1, 20.3201732635498
0, 8, 2, 25.52163505554199
0, 8, 3, 28.98849105834961
0, 8, 4, 26.97482490539551
0, 8, 5, 35.77805328369141
0, 8, 6, 30.9507999420166
0, 8, 7, 27.44505310058594
0, 8, 8, 37.60203552246094
0, 8, 9, 47.62396240234375
0, 8, 10, 44.79872512817383
0, 8, 11, 41.80301666259766
0, 8, 12, 51.21479415893555
0, 8, 13, 70.56050109863281
0, 8, 14, 66.76676177978516
0, 8, 15, 84.33739471435547
0, 8, 16, 162.8600616455078
0, 8, 17, 674.1129150390625
0, 8, 18, 1279.149047851562
0, 8, 19, 1446.669311523438
0, 8, 20, 1417.189453125
0, 8, 21, 1410.822631835938
0, 8, 22, 1491.409545898438
0, 8, 23, 1476.04736328125
0, 8, 24, 1435.468139648438
0, 8, 25, 1459.995483398438
0, 8, 26, 1517.554809570312
0, 8, 27, 1525.39697265625
0, 8, 28, 1477.500122070312
0, 8, 29, 1501.27783203125
0, 8, 30, 1491.969116210938
0, 8, 31, 1534.212036132812
0, 8, 32, 1508.8271484375
0, 8, 33, 1477.610107421875
0, 8, 34, 1535.603759765625
0, 8, 35, 1439.514282226562
0, 8, 36, 1501.941162109375
0, 8, 37, 1553.754638671875
0, 8, 38, 1550.7587890625
0, 8, 39, 1496.696411132812
0, 8, 40, 1530.348388671875
0, 8, 41, 1483.998657226562
0, 8, 42, 1538.060913085938
0, 8, 43, 1434.0283203125
0, 8, 44, 1537.22021484375
0, 8, 45, 1515.776489257812
0, 8, 46, 1601.562622070312
0, 8, 47, 1589.689086914062
0, 8, 48, 1545.059692382812
0, 8, 49, 1561.703735351562
