# TOPAS Version: 3.1.p3
# Parameter File: batch_inserts_310.txt
# Results for scorer Readout_Adipose
# Scored in component: MyBox
# X in 1 bin  of 0.75 cm
# Y in 512 bins of 0.0783984 cm
# Z in 128 bins of 0.078125 cm
# EnergyDeposit ( MeV ) : Sum   
0, 0, 0, 21.7424144744873
0, 0, 1, 23.31274604797363
0, 0, 2, 26.06023597717285
0, 0, 3, 28.03785705566406
0, 0, 4, 18.88490104675293
0, 0, 5, 23.06818580627441
0, 0, 6, 30.22607040405273
0, 0, 7, 34.66288757324219
0, 0, 8, 24.20217514038086
0, 0, 9, 23.09787178039551
0, 0, 10, 30.43930625915527
0, 0, 11, 32.82120895385742
0, 0, 12, 32.94277572631836
0, 0, 13, 33.25091171264648
0, 0, 14, 35.81232070922852
0, 0, 15, 43.2008056640625
0, 0, 16, 44.3575439453125
0, 0, 17, 46.56683731079102
0, 0, 18, 71.63288116455078
0, 0, 19, 195.6031036376953
0, 0, 20, 701.7926635742188
0, 0, 21, 1189.145874023438
0, 0, 22, 1246.429931640625
0, 0, 23, 1273.829956054688
0, 0, 24, 1283.217407226562
0, 0, 25, 1356.471801757812
0, 0, 26, 1269.277465820312
0, 0, 27, 1275.5810546875
0, 0, 28, 1323.3837890625
0, 0, 29, 1271.178466796875
0, 0, 30, 1267.340698242188
0, 0, 31, 1280.7841796875
0, 0, 32, 1268.817138671875
0, 0, 33, 1243.182861328125
0, 0, 34, 1325.206665039062
0, 0, 35, 1299.557861328125
0, 0, 36, 1248.003540039062
0, 0, 37, 1284.532348632812
0, 0, 38, 1247.3662109375
0, 0, 39, 1244.2490234375
0, 0, 40, 1227.019409179688
0, 0, 41, 1268.862670898438
0, 0, 42, 1253.75146484375
0, 0, 43, 1265.09130859375
0, 0, 44, 1224.821655273438
0, 0, 45, 1290.414184570312
0, 0, 46, 1261.810180664062
0, 0, 47, 1243.275756835938
0, 0, 48, 1280.181640625
0, 0, 49, 1287.597778320312
0, 0, 50, 1317.322265625
0, 0, 51, 1267.875610351562
0, 0, 52, 1360.006591796875
0, 0, 53, 1328.562377929688
0, 0, 54, 1293.381713867188
0, 0, 55, 1230.560913085938
0, 0, 56, 1317.752075195312
0, 0, 57, 1293.45166015625
0, 0, 58, 1255.39501953125
0, 0, 59, 1332.966064453125
0, 0, 60, 1323.789916992188
0, 0, 61, 1263.342895507812
0, 0, 62, 1236.706787109375
0, 0, 63, 1280.744873046875
0, 0, 64, 1332.215087890625
0, 0, 65, 1289.879760742188
0, 0, 66, 1317.176025390625
0, 0, 67, 1218.747680664062
0, 0, 68, 1312.000244140625
0, 0, 69, 1329.920532226562
0, 0, 70, 1343.004150390625
0, 0, 71, 1287.61279296875
0, 0, 72, 1311.681396484375
0, 0, 73, 1240.587158203125
0, 0, 74, 1293.23828125
0, 0, 75, 1297.981079101562
0, 0, 76, 1257.932861328125
0, 0, 77, 1285.991088867188
0, 0, 78, 1318.041015625
0, 0, 79, 1322.014526367188
0, 0, 80, 1258.66162109375
0, 0, 81, 1321.640258789062
0, 0, 82, 1288.258911132812
0, 0, 83, 1291.938720703125
0, 0, 84, 1326.448364257812
0, 0, 85, 1234.341552734375
0, 0, 86, 1265.89599609375
0, 0, 87, 1251.308715820312
0, 0, 88, 1259.817260742188
0, 0, 89, 1336.374267578125
0, 0, 90, 1276.87548828125
0, 0, 91, 1354.473876953125
0, 0, 92, 1303.44775390625
0, 0, 93, 1269.379516601562
0, 0, 94, 1242.818237304688
0, 0, 95, 1327.915771484375
0, 0, 96, 1281.695556640625
0, 0, 97, 1326.187377929688
0, 0, 98, 1255.868530273438
0, 0, 99, 1247.822509765625
0, 0, 100, 1288.979125976562
0, 0, 101, 1315.4560546875
0, 0, 102, 1233.05615234375
0, 0, 103, 1317.979614257812
0, 0, 104, 1259.513305664062
0, 0, 105, 1266.859497070312
0, 0, 106, 1210.246337890625
0, 0, 107, 781.3438110351562
0, 0, 108, 195.9615631103516
0, 0, 109, 68.53728485107422
0, 0, 110, 60.04677581787109
0, 0, 111, 40.90765380859375
0, 0, 112, 32.79868698120117
0, 0, 113, 36.6458740234375
0, 0, 114, 31.7165470123291
0, 0, 115, 27.53059005737305
0, 0, 116, 26.03546524047852
0, 0, 117, 29.25837707519531
0, 0, 118, 25.8127384185791
0, 0, 119, 19.06853485107422
0, 0, 120, 24.94431304931641
0, 0, 121, 29.7992115020752
0, 0, 122, 25.28272819519043
0, 0, 123, 23.18390846252441
0, 0, 124, 21.84737777709961
0, 0, 125, 22.06781196594238
0, 0, 126, 21.85105895996094
0, 0, 127, 15.63037109375
0, 1, 0, 25.74844932556152
0, 1, 1, 19.23956871032715
0, 1, 2, 24.00063705444336
0, 1, 3, 19.15229034423828
0, 1, 4, 21.8289852142334
0, 1, 5, 24.07936859130859
0, 1, 6, 21.18181800842285
0, 1, 7, 29.19214057922363
0, 1, 8, 32.75490951538086
0, 1, 9, 29.3259391784668
0, 1, 10, 31.31281280517578
0, 1, 11, 44.27198791503906
0, 1, 12, 34.98736953735352
0, 1, 13, 44.73720169067383
0, 1, 14, 42.65386581420898
0, 1, 15, 46.84725570678711
0, 1, 16, 58.63200378417969
0, 1, 17, 65.29523468017578
0, 1, 18, 98.608642578125
0, 1, 19, 394.9611206054688
0, 1, 20, 1039.269287109375
0, 1, 21, 1369.317016601562
0, 1, 22, 1478.974243164062
0, 1, 23, 1471.603515625
0, 1, 24, 1452.059204101562
0, 1, 25, 1421.896728515625
0, 1, 26, 1472.902099609375
0, 1, 27, 1464.680419921875
0, 1, 28, 1490.942016601562
0, 1, 29, 1483.569458007812
0, 1, 30, 1507.484008789062
0, 1, 31, 1488.310913085938
0, 1, 32, 1409.22802734375
0, 1, 33, 1503.521850585938
0, 1, 34, 1500.402709960938
0, 1, 35, 1462.038330078125
0, 1, 36, 1493.325317382812
0, 1, 37, 1407.908447265625
0, 1, 38, 1392.750366210938
0, 1, 39, 1521.2451171875
0, 1, 40, 1460.508056640625
0, 1, 41, 1490.251953125
0, 1, 42, 1496.831909179688
0, 1, 43, 1499.87353515625
0, 1, 44, 1449.2216796875
0, 1, 45, 1482.704223632812
0, 1, 46, 1419.428466796875
0, 1, 47, 1435.55126953125
0, 1, 48, 1433.979858398438
0, 1, 49, 1488.938354492188
0, 1, 50, 1446.165283203125
0, 1, 51, 1470.816772460938
0, 1, 52, 1482.86572265625
0, 1, 53, 1472.96875
0, 1, 54, 1506.78955078125
0, 1, 55, 1497.325927734375
0, 1, 56, 1468.632690429688
0, 1, 57, 1457.217651367188
0, 1, 58, 1424.8740234375
0, 1, 59, 1484.044555664062
0, 1, 60, 1468.432373046875
0, 1, 61, 1447.01611328125
0, 1, 62, 1456.253051757812
0, 1, 63, 1419.24267578125
0, 1, 64, 1473.082275390625
0, 1, 65, 1413.600463867188
0, 1, 66, 1437.729858398438
0, 1, 67, 1455.23779296875
0, 1, 68, 1390.7265625
0, 1, 69, 1461.15478515625
0, 1, 70, 1431.703002929688
0, 1, 71, 1495.603149414062
0, 1, 72, 1432.713623046875
0, 1, 73, 1491.523559570312
0, 1, 74, 1464.779174804688
0, 1, 75, 1476.759155273438
0, 1, 76, 1448.812133789062
0, 1, 77, 1467.415771484375
0, 1, 78, 1453.286743164062
0, 1, 79, 1503.052612304688
0, 1, 80, 1449.06396484375
0, 1, 81, 1427.86181640625
0, 1, 82, 1472.140014648438
0, 1, 83, 1461.530517578125
0, 1, 84, 1532.633056640625
0, 1, 85, 1451.493408203125
0, 1, 86, 1409.619018554688
0, 1, 87, 1419.9794921875
0, 1, 88, 1470.465942382812
0, 1, 89, 1473.839721679688
0, 1, 90, 1424.723876953125
0, 1, 91, 1462.68994140625
0, 1, 92, 1414.037963867188
0, 1, 93, 1463.827514648438
0, 1, 94, 1465.8134765625
0, 1, 95, 1419.097534179688
0, 1, 96, 1497.299438476562
0, 1, 97, 1515.000244140625
0, 1, 98, 1477.000854492188
0, 1, 99, 1422.920043945312
0, 1, 100, 1451.319458007812
0, 1, 101, 1416.642944335938
0, 1, 102, 1440.603637695312
0, 1, 103, 1414.572143554688
0, 1, 104, 1405.765258789062
0, 1, 105, 1461.95654296875
0, 1, 106, 1368.140991210938
0, 1, 107, 1022.401611328125
0, 1, 108, 403.6380615234375
0, 1, 109, 94.06707000732422
0, 1, 110, 61.60322570800781
0, 1, 111, 52.27256011962891
0, 1, 112, 54.48261642456055
0, 1, 113, 37.38259124755859
0, 1, 114, 36.38809585571289
0, 1, 115, 39.72139358520508
0, 1, 116, 34.56914520263672
0, 1, 117, 33.93141174316406
0, 1, 118, 34.30005645751953
0, 1, 119, 34.40175628662109
0, 1, 120, 27.24067306518555
0, 1, 121, 22.72836875915527
0, 1, 122, 24.00839042663574
0, 1, 123, 21.89412307739258
0, 1, 124, 27.72004699707031
0, 1, 125, 17.44359397888184
0, 1, 126, 19.89321327209473
0, 1, 127, 20.60203742980957
0, 2, 0, 17.19315528869629
0, 2, 1, 20.02092361450195
0, 2, 2, 23.47967720031738
0, 2, 3, 19.13353157043457
0, 2, 4, 20.56440734863281
0, 2, 5, 23.55489921569824
0, 2, 6, 28.92460250854492
0, 2, 7, 20.54483222961426
0, 2, 8, 24.38825035095215
0, 2, 9, 28.98682403564453
0, 2, 10, 24.35277366638184
0, 2, 11, 36.94355773925781
0, 2, 12, 44.90883255004883
0, 2, 13, 44.74617385864258
0, 2, 14, 46.07165145874023
0, 2, 15, 41.89849472045898
0, 2, 16, 61.52848052978516
0, 2, 17, 84.489013671875
0, 2, 18, 142.5867767333984
0, 2, 19, 609.8373413085938
0, 2, 20, 1286.714111328125
0, 2, 21, 1436.43310546875
0, 2, 22, 1454.50439453125
0, 2, 23, 1398.109985351562
0, 2, 24, 1439.271850585938
0, 2, 25, 1526.534545898438
0, 2, 26, 1553.294311523438
0, 2, 27, 1462.681640625
0, 2, 28, 1455.807250976562
0, 2, 29, 1466.858642578125
0, 2, 30, 1463.601928710938
0, 2, 31, 1534.862426757812
0, 2, 32, 1506.320190429688
0, 2, 33, 1443.639770507812
0, 2, 34, 1476.530151367188
0, 2, 35, 1471.223754882812
0, 2, 36, 1524.152465820312
0, 2, 37, 1538.673095703125
0, 2, 38, 1504.112182617188
0, 2, 39, 1468.3759765625
0, 2, 40, 1505.596801757812
0, 2, 41, 1513.475463867188
0, 2, 42, 1500.930297851562
0, 2, 43, 1550.259765625
0, 2, 44, 1457.354125976562
0, 2, 45, 1484.40185546875
0, 2, 46, 1425.970825195312
0, 2, 47, 1449.612548828125
0, 2, 48, 1400.811157226562
0, 2, 49, 1462.72900390625
0, 2, 50, 1440.742919921875
0, 2, 51, 1447.510009765625
0, 2, 52, 1500.034057617188
0, 2, 53, 1521.269897460938
0, 2, 54, 1517.927490234375
0, 2, 55, 1489.916870117188
0, 2, 56, 1464.8671875
0, 2, 57, 1411.892578125
0, 2, 58, 1455.093627929688
0, 2, 59, 1446.513305664062
0, 2, 60, 1471.193603515625
0, 2, 61, 1447.776977539062
0, 2, 62, 1473.361328125
0, 2, 63, 1503.480834960938
0, 2, 64, 1454.566772460938
0, 2, 65, 1424.535766601562
0, 2, 66, 1491.80810546875
0, 2, 67, 1504.135009765625
0, 2, 68, 1541.14208984375
0, 2, 69, 1532.047973632812
0, 2, 70, 1511.460205078125
0, 2, 71, 1461.313354492188
0, 2, 72, 1518.463745117188
0, 2, 73, 1521.961547851562
0, 2, 74, 1487.887939453125
0, 2, 75, 1504.216674804688
0, 2, 76, 1445.700317382812
0, 2, 77, 1504.302856445312
0, 2, 78, 1432.691162109375
0, 2, 79, 1540.99755859375
0, 2, 80, 1481.471801757812
0, 2, 81, 1462.7587890625
0, 2, 82, 1556.607543945312
0, 2, 83, 1512.95361328125
0, 2, 84, 1493.444580078125
0, 2, 85, 1511.175659179688
0, 2, 86, 1539.7216796875
0, 2, 87, 1486.7568359375
0, 2, 88, 1535.131469726562
0, 2, 89, 1464.769897460938
0, 2, 90, 1435.7978515625
0, 2, 91, 1405.217651367188
0, 2, 92, 1475.497192382812
0, 2, 93, 1496.2548828125
0, 2, 94, 1451.796020507812
0, 2, 95, 1543.995361328125
0, 2, 96, 1519.394165039062
0, 2, 97, 1452.588500976562
0, 2, 98, 1468.229858398438
0, 2, 99, 1402.100952148438
0, 2, 100, 1474.034790039062
0, 2, 101, 1481.525146484375
0, 2, 102, 1460.731689453125
0, 2, 103, 1387.603149414062
0, 2, 104, 1410.246704101562
0, 2, 105, 1396.661987304688
0, 2, 106, 1455.80322265625
0, 2, 107, 1282.0654296875
0, 2, 108, 621.34423828125
0, 2, 109, 173.6606140136719
0, 2, 110, 67.301025390625
0, 2, 111, 56.48468780517578
0, 2, 112, 43.20571136474609
0, 2, 113, 44.08735275268555
0, 2, 114, 40.1689338684082
0, 2, 115, 44.79846954345703
0, 2, 116, 31.50895309448242
0, 2, 117, 33.30487823486328
0, 2, 118, 29.5488395690918
0, 2, 119, 34.34828186035156
0, 2, 120, 28.90115356445312
0, 2, 121, 22.73054885864258
0, 2, 122, 28.38219261169434
0, 2, 123, 25.41760063171387
0, 2, 124, 23.13833045959473
0, 2, 125, 29.28226661682129
0, 2, 126, 19.72978591918945
0, 2, 127, 22.6430721282959
0, 3, 0, 17.99351692199707
0, 3, 1, 23.56428337097168
0, 3, 2, 20.05654335021973
0, 3, 3, 23.36113929748535
0, 3, 4, 19.37951469421387
0, 3, 5, 22.12201690673828
0, 3, 6, 32.57641983032227
0, 3, 7, 26.26444435119629
0, 3, 8, 29.84052658081055
0, 3, 9, 27.45970726013184
0, 3, 10, 34.46244430541992
0, 3, 11, 37.68141174316406
0, 3, 12, 44.96807098388672
0, 3, 13, 55.3187255859375
0, 3, 14, 63.42024612426758
0, 3, 15, 57.67876815795898
0, 3, 16, 66.28211975097656
0, 3, 17, 88.87216186523438
0, 3, 18, 236.6973724365234
0, 3, 19, 880.720947265625
0, 3, 20, 1384.279052734375
0, 3, 21, 1511.37548828125
0, 3, 22, 1458.924072265625
0, 3, 23, 1452.030883789062
0, 3, 24, 1438.71044921875
0, 3, 25, 1463.939208984375
0, 3, 26, 1503.136474609375
0, 3, 27, 1464.73486328125
0, 3, 28, 1493.15771484375
0, 3, 29, 1542.658325195312
0, 3, 30, 1572.38330078125
0, 3, 31, 1517.5185546875
0, 3, 32, 1547.12158203125
0, 3, 33, 1538.877563476562
0, 3, 34, 1482.854858398438
0, 3, 35, 1464.349243164062
0, 3, 36, 1450.815795898438
0, 3, 37, 1518.961181640625
0, 3, 38, 1517.216674804688
0, 3, 39, 1436.635131835938
0, 3, 40, 1443.97802734375
0, 3, 41, 1562.970336914062
0, 3, 42, 1463.186157226562
0, 3, 43, 1453.880493164062
0, 3, 44, 1454.868286132812
0, 3, 45, 1512.3671875
0, 3, 46, 1510.53173828125
0, 3, 47, 1438.10302734375
0, 3, 48, 1506.893432617188
0, 3, 49, 1455.533203125
0, 3, 50, 1488.9794921875
0, 3, 51, 1534.678588867188
0, 3, 52, 1540.542724609375
0, 3, 53, 1467.133178710938
0, 3, 54, 1535.05322265625
0, 3, 55, 1505.708129882812
0, 3, 56, 1434.072875976562
0, 3, 57, 1506.71240234375
0, 3, 58, 1514.421020507812
0, 3, 59, 1512.34716796875
0, 3, 60, 1531.461181640625
0, 3, 61, 1477.916015625
0, 3, 62, 1492.045166015625
0, 3, 63, 1497.267456054688
0, 3, 64, 1500.652099609375
0, 3, 65, 1518.428344726562
0, 3, 66, 1557.67333984375
0, 3, 67, 1547.267822265625
0, 3, 68, 1446.681640625
0, 3, 69, 1468.95751953125
0, 3, 70, 1392.69189453125
0, 3, 71, 1464.149658203125
0, 3, 72, 1549.81494140625
0, 3, 73, 1498.674072265625
0, 3, 74, 1467.36181640625
0, 3, 75, 1456.068481445312
0, 3, 76, 1574.888427734375
0, 3, 77, 1541.123901367188
0, 3, 78, 1429.97900390625
0, 3, 79, 1499.006225585938
0, 3, 80, 1459.08935546875
0, 3, 81, 1474.613159179688
0, 3, 82, 1554.569702148438
0, 3, 83, 1507.954223632812
0, 3, 84, 1557.82568359375
0, 3, 85, 1477.083862304688
0, 3, 86, 1521.817504882812
0, 3, 87, 1533.7060546875
0, 3, 88, 1460.780029296875
0, 3, 89, 1453.441040039062
0, 3, 90, 1449.801513671875
0, 3, 91, 1425.593383789062
0, 3, 92, 1511.472534179688
0, 3, 93, 1502.470581054688
0, 3, 94, 1515.794311523438
0, 3, 95, 1541.720092773438
0, 3, 96, 1512.638549804688
0, 3, 97, 1462.095336914062
0, 3, 98, 1436.533203125
0, 3, 99, 1465.9404296875
0, 3, 100, 1471.872924804688
0, 3, 101, 1473.596313476562
0, 3, 102, 1519.920288085938
0, 3, 103, 1551.158447265625
0, 3, 104, 1502.233154296875
0, 3, 105, 1520.876586914062
0, 3, 106, 1480.438232421875
0, 3, 107, 1341.776611328125
0, 3, 108, 874.9778442382812
0, 3, 109, 267.3267822265625
0, 3, 110, 104.7496719360352
0, 3, 111, 64.27076721191406
0, 3, 112, 60.31915664672852
0, 3, 113, 52.18725967407227
0, 3, 114, 53.74388122558594
0, 3, 115, 51.48388671875
0, 3, 116, 39.61794662475586
0, 3, 117, 39.05599212646484
0, 3, 118, 33.40594863891602
0, 3, 119, 31.28118324279785
0, 3, 120, 27.62527275085449
0, 3, 121, 19.50812339782715
0, 3, 122, 24.07126998901367
0, 3, 123, 21.28970336914062
0, 3, 124, 20.97320938110352
0, 3, 125, 24.93347930908203
0, 3, 126, 23.13784599304199
0, 3, 127, 16.26264190673828
0, 4, 0, 19.27726936340332
0, 4, 1, 24.28741073608398
0, 4, 2, 18.33828926086426
0, 4, 3, 17.46437454223633
0, 4, 4, 30.39267158508301
0, 4, 5, 34.55001449584961
0, 4, 6, 35.21089553833008
0, 4, 7, 35.55388259887695
0, 4, 8, 27.80145835876465
0, 4, 9, 33.2684440612793
0, 4, 10, 38.86134719848633
0, 4, 11, 44.85453414916992
0, 4, 12, 42.25153732299805
0, 4, 13, 51.27460861206055
0, 4, 14, 48.5092887878418
0, 4, 15, 63.3951530456543
0, 4, 16, 72.44873809814453
0, 4, 17, 112.1304779052734
0, 4, 18, 445.699462890625
0, 4, 19, 1176.5625
0, 4, 20, 1439.414184570312
0, 4, 21, 1422.165161132812
0, 4, 22, 1435.06591796875
0, 4, 23, 1447.885375976562
0, 4, 24, 1476.629516601562
0, 4, 25, 1407.352294921875
0, 4, 26, 1541.078247070312
0, 4, 27, 1546.612426757812
0, 4, 28, 1512.080932617188
0, 4, 29, 1515.510009765625
0, 4, 30, 1520.904663085938
0, 4, 31, 1573.963623046875
0, 4, 32, 1516.805297851562
0, 4, 33, 1498.570190429688
0, 4, 34, 1474.945434570312
0, 4, 35, 1561.307006835938
0, 4, 36, 1499.771850585938
0, 4, 37, 1512.178588867188
0, 4, 38, 1532.835815429688
0, 4, 39, 1473.189331054688
0, 4, 40, 1515.153564453125
0, 4, 41, 1587.9462890625
0, 4, 42, 1557.201538085938
0, 4, 43, 1477.199096679688
0, 4, 44, 1496.759399414062
0, 4, 45, 1518.54296875
0, 4, 46, 1466.580444335938
0, 4, 47, 1505.37939453125
0, 4, 48, 1523.830322265625
0, 4, 49, 1474.040283203125
0, 4, 50, 1520.9052734375
0, 4, 51, 1492.39111328125
0, 4, 52, 1491.170654296875
0, 4, 53, 1455.907958984375
0, 4, 54, 1443.354736328125
0, 4, 55, 1522.064208984375
0, 4, 56, 1453.658569335938
0, 4, 57, 1500.177612304688
0, 4, 58, 1457.875
0, 4, 59, 1459.795654296875
0, 4, 60, 1530.200317382812
0, 4, 61, 1499.71142578125
0, 4, 62, 1508.999267578125
0, 4, 63, 1548.726196289062
0, 4, 64, 1592.678100585938
0, 4, 65, 1425.97802734375
0, 4, 66, 1515.387573242188
0, 4, 67, 1519.284057617188
0, 4, 68, 1498.374145507812
0, 4, 69, 1472.722290039062
0, 4, 70, 1545.16796875
0, 4, 71, 1518.775146484375
0, 4, 72, 1532.254150390625
0, 4, 73, 1493.859741210938
0, 4, 74, 1486.3193359375
0, 4, 75, 1536.266723632812
0, 4, 76, 1479.361694335938
0, 4, 77, 1494.60791015625
0, 4, 78, 1505.68310546875
0, 4, 79, 1480.2998046875
0, 4, 80, 1514.561889648438
0, 4, 81, 1526.575805664062
0, 4, 82, 1566.340698242188
0, 4, 83, 1505.455322265625
0, 4, 84, 1539.333129882812
0, 4, 85, 1550.523193359375
0, 4, 86, 1528.497680664062
0, 4, 87, 1493.1982421875
0, 4, 88, 1521.286743164062
0, 4, 89, 1479.891845703125
0, 4, 90, 1544.057006835938
0, 4, 91, 1551.504760742188
0, 4, 92, 1484.7431640625
0, 4, 93, 1518.540893554688
0, 4, 94, 1486.404418945312
0, 4, 95, 1512.297485351562
0, 4, 96, 1449.165771484375
0, 4, 97, 1408.282104492188
0, 4, 98, 1549.345336914062
0, 4, 99, 1513.682495117188
0, 4, 100, 1487.840576171875
0, 4, 101, 1449.650756835938
0, 4, 102, 1448.925903320312
0, 4, 103, 1513.114135742188
0, 4, 104, 1509.826049804688
0, 4, 105, 1559.535034179688
0, 4, 106, 1476.116455078125
0, 4, 107, 1453.136352539062
0, 4, 108, 1122.791015625
0, 4, 109, 433.7381591796875
0, 4, 110, 97.02757263183594
0, 4, 111, 70.64884948730469
0, 4, 112, 65.14321136474609
0, 4, 113, 54.60585784912109
0, 4, 114, 52.5112190246582
0, 4, 115, 47.14302062988281
0, 4, 116, 38.99787521362305
0, 4, 117, 37.61724853515625
0, 4, 118, 45.07696151733398
0, 4, 119, 38.74994277954102
0, 4, 120, 33.02704620361328
0, 4, 121, 26.53821182250977
0, 4, 122, 31.1390380859375
0, 4, 123, 28.72877502441406
0, 4, 124, 21.44520378112793
0, 4, 125, 29.89995384216309
0, 4, 126, 20.57051277160645
0, 4, 127, 20.21013832092285
0, 5, 0, 18.96919250488281
0, 5, 1, 24.32333755493164
0, 5, 2, 28.08185958862305
0, 5, 3, 28.69082260131836
0, 5, 4, 22.2864990234375
0, 5, 5, 37.03377532958984
0, 5, 6, 36.09832000732422
0, 5, 7, 32.08803939819336
0, 5, 8, 35.17587280273438
0, 5, 9, 32.27863311767578
0, 5, 10, 33.30215454101562
0, 5, 11, 35.58988952636719
0, 5, 12, 42.9610481262207
0, 5, 13, 45.86056137084961
0, 5, 14, 65.18175506591797
0, 5, 15, 82.09871673583984
0, 5, 16, 82.82802581787109
0, 5, 17, 155.7669067382812
0, 5, 18, 674.858642578125
0, 5, 19, 1348.22216796875
0, 5, 20, 1526.810302734375
0, 5, 21, 1490.128295898438
0, 5, 22, 1490.710815429688
0, 5, 23, 1529.8671875
0, 5, 24, 1462.741943359375
0, 5, 25, 1425.8408203125
0, 5, 26, 1525.26708984375
0, 5, 27, 1538.30126953125
0, 5, 28, 1485.005126953125
0, 5, 29, 1525.201171875
0, 5, 30, 1492.22607421875
0, 5, 31, 1499.512817382812
0, 5, 32, 1593.4951171875
0, 5, 33, 1502.875122070312
0, 5, 34, 1485.914672851562
0, 5, 35, 1507.83447265625
0, 5, 36, 1443.857788085938
0, 5, 37, 1529.69873046875
0, 5, 38, 1545.69873046875
0, 5, 39, 1556.6787109375
0, 5, 40, 1502.816040039062
0, 5, 41, 1478.2177734375
0, 5, 42, 1547.704223632812
0, 5, 43, 1530.316772460938
0, 5, 44, 1547.637817382812
0, 5, 45, 1508.6220703125
0, 5, 46, 1488.407470703125
0, 5, 47, 1480.698486328125
0, 5, 48, 1502.479736328125
0, 5, 49, 1520.594482421875
0, 5, 50, 1499.963256835938
0, 5, 51, 1523.063110351562
0, 5, 52, 1433.137939453125
0, 5, 53, 1524.103881835938
0, 5, 54, 1524.071166992188
0, 5, 55, 1525.9912109375
0, 5, 56, 1485.754028320312
0, 5, 57, 1536.795776367188
0, 5, 58, 1509.057373046875
0, 5, 59, 1481.7255859375
0, 5, 60, 1535.344360351562
0, 5, 61, 1448.83544921875
0, 5, 62, 1591.178955078125
0, 5, 63, 1433.7314453125
0, 5, 64, 1488.18359375
0, 5, 65, 1458.506103515625
0, 5, 66, 1527.033447265625
0, 5, 67, 1561.585693359375
0, 5, 68, 1458.855102539062
0, 5, 69, 1478.8828125
0, 5, 70, 1485.973999023438
0, 5, 71, 1469.229248046875
0, 5, 72, 1536.890502929688
0, 5, 73, 1461.840576171875
0, 5, 74, 1494.194458007812
0, 5, 75, 1482.022705078125
0, 5, 76, 1481.395629882812
0, 5, 77, 1519.509887695312
0, 5, 78, 1527.327392578125
0, 5, 79, 1506.532348632812
0, 5, 80, 1515.851318359375
0, 5, 81, 1601.525024414062
0, 5, 82, 1524.113647460938
0, 5, 83, 1488.5283203125
0, 5, 84, 1532.435791015625
0, 5, 85, 1510.306640625
0, 5, 86, 1557.33447265625
0, 5, 87, 1475.098022460938
0, 5, 88, 1496.130004882812
0, 5, 89, 1483.066040039062
0, 5, 90, 1477.300415039062
0, 5, 91, 1551.342529296875
0, 5, 92, 1483.585327148438
0, 5, 93, 1561.939331054688
0, 5, 94, 1509.8759765625
0, 5, 95, 1561.428588867188
0, 5, 96, 1498.987915039062
0, 5, 97, 1506.96728515625
0, 5, 98, 1512.393920898438
0, 5, 99, 1543.221923828125
0, 5, 100, 1434.08447265625
0, 5, 101, 1429.212158203125
0, 5, 102, 1516.78955078125
0, 5, 103, 1480.6298828125
0, 5, 104, 1459.533935546875
0, 5, 105, 1496.111328125
0, 5, 106, 1460.075073242188
0, 5, 107, 1402.745971679688
0, 5, 108, 1290.998168945312
0, 5, 109, 720.197509765625
0, 5, 110, 193.6675567626953
0, 5, 111, 87.95272064208984
0, 5, 112, 81.369140625
0, 5, 113, 62.49517822265625
0, 5, 114, 54.72222137451172
0, 5, 115, 52.40576553344727
0, 5, 116, 42.36310577392578
0, 5, 117, 36.32151412963867
0, 5, 118, 39.22536468505859
0, 5, 119, 22.17916107177734
0, 5, 120, 28.80044746398926
0, 5, 121, 28.1094799041748
0, 5, 122, 30.44413375854492
0, 5, 123, 29.80618858337402
0, 5, 124, 28.41557693481445
0, 5, 125, 23.36499977111816
0, 5, 126, 26.54836273193359
0, 5, 127, 24.5752010345459
0, 6, 0, 24.22488212585449
0, 6, 1, 29.10553169250488
0, 6, 2, 29.21900939941406
0, 6, 3, 34.59377288818359
0, 6, 4, 24.71215629577637
0, 6, 5, 30.6231861114502
0, 6, 6, 38.01887512207031
0, 6, 7, 32.7840461730957
0, 6, 8, 32.85665130615234
0, 6, 9, 41.81264495849609
0, 6, 10, 38.65497589111328
0, 6, 11, 35.274169921875
0, 6, 12, 42.32669067382812
0, 6, 13, 55.95482635498047
0, 6, 14, 58.63516998291016
0, 6, 15, 82.03535461425781
0, 6, 16, 112.8884124755859
0, 6, 17, 300.9441833496094
0, 6, 18, 901.5188598632812
0, 6, 19, 1381.725341796875
0, 6, 20, 1440.82080078125
0, 6, 21, 1534.329711914062
0, 6, 22, 1503.689086914062
0, 6, 23, 1528.207153320312
0, 6, 24, 1476.949462890625
0, 6, 25, 1527.326416015625
0, 6, 26, 1518.646728515625
0, 6, 27, 1521.533325195312
0, 6, 28, 1549.785888671875
0, 6, 29, 1579.058837890625
0, 6, 30, 1515.741577148438
0, 6, 31, 1493.888793945312
0, 6, 32, 1520.8896484375
0, 6, 33, 1501.670532226562
0, 6, 34, 1563.298217773438
0, 6, 35, 1503.36669921875
0, 6, 36, 1438.274047851562
0, 6, 37, 1547.686157226562
0, 6, 38, 1520.17626953125
0, 6, 39, 1523.341064453125
0, 6, 40, 1465.373413085938
0, 6, 41, 1435.808471679688
0, 6, 42, 1511.233642578125
0, 6, 43, 1484.65576171875
0, 6, 44, 1428.23779296875
0, 6, 45, 1548.489868164062
0, 6, 46, 1551.702270507812
0, 6, 47, 1496.115112304688
0, 6, 48, 1523.701538085938
0, 6, 49, 1507.090698242188
0, 6, 50, 1574.46044921875
0, 6, 51, 1506.032348632812
0, 6, 52, 1564.0302734375
0, 6, 53, 1470.990844726562
0, 6, 54, 1499.886840820312
0, 6, 55, 1569.646362304688
0, 6, 56, 1524.415649414062
0, 6, 57, 1505.337646484375
0, 6, 58, 1468.120971679688
0, 6, 59, 1519.046508789062
0, 6, 60, 1468.364501953125
0, 6, 61, 1568.862915039062
0, 6, 62, 1545.705932617188
0, 6, 63, 1497.373413085938
0, 6, 64, 1407.200927734375
0, 6, 65, 1489.517700195312
0, 6, 66, 1510.091430664062
0, 6, 67, 1510.593383789062
0, 6, 68, 1544.595336914062
0, 6, 69, 1483.0673828125
0, 6, 70, 1523.729248046875
0, 6, 71, 1469.345947265625
0, 6, 72, 1595.97314453125
0, 6, 73, 1490.8359375
0, 6, 74, 1561.5087890625
0, 6, 75, 1536.743408203125
0, 6, 76, 1567.264770507812
0, 6, 77, 1501.175903320312
0, 6, 78, 1446.494262695312
0, 6, 79, 1554.334716796875
0, 6, 80, 1484.128784179688
0, 6, 81, 1482.802490234375
0, 6, 82, 1503.100219726562
0, 6, 83, 1530.305297851562
0, 6, 84, 1520.268676757812
0, 6, 85, 1533.005615234375
0, 6, 86, 1537.329956054688
0, 6, 87, 1570.226806640625
0, 6, 88, 1474.95068359375
0, 6, 89, 1565.026611328125
0, 6, 90, 1492.794921875
0, 6, 91, 1543.2392578125
0, 6, 92, 1482.755859375
0, 6, 93, 1499.141357421875
0, 6, 94, 1467.351928710938
0, 6, 95, 1506.192749023438
0, 6, 96, 1523.7119140625
0, 6, 97, 1505.997192382812
0, 6, 98, 1498.380126953125
0, 6, 99, 1489.752685546875
0, 6, 100, 1520.2451171875
0, 6, 101, 1516.987670898438
0, 6, 102, 1540.572021484375
0, 6, 103, 1500.365234375
0, 6, 104, 1462.711791992188
0, 6, 105, 1486.590087890625
0, 6, 106, 1502.350219726562
0, 6, 107, 1503.199951171875
0, 6, 108, 1410.702392578125
0, 6, 109, 925.2154541015625
0, 6, 110, 288.347900390625
0, 6, 111, 93.72563934326172
0, 6, 112, 73.48834991455078
0, 6, 113, 58.28976821899414
0, 6, 114, 56.54516983032227
0, 6, 115, 45.81217575073242
0, 6, 116, 44.47040939331055
0, 6, 117, 40.28430938720703
0, 6, 118, 36.10797500610352
0, 6, 119, 35.33912658691406
0, 6, 120, 29.8658504486084
0, 6, 121, 26.36687278747559
0, 6, 122, 27.57669067382812
0, 6, 123, 24.44166374206543
0, 6, 124, 34.94370269775391
0, 6, 125, 32.68556213378906
0, 6, 126, 21.5645637512207
0, 6, 127, 22.21120452880859
0, 7, 0, 23.76950645446777
0, 7, 1, 31.62551498413086
0, 7, 2, 23.60644340515137
0, 7, 3, 25.51711845397949
0, 7, 4, 25.35738754272461
0, 7, 5, 34.1436653137207
0, 7, 6, 33.2261848449707
0, 7, 7, 35.36987686157227
0, 7, 8, 27.50692749023438
0, 7, 9, 31.13191223144531
0, 7, 10, 43.10080718994141
0, 7, 11, 47.27907562255859
0, 7, 12, 43.94570541381836
0, 7, 13, 56.71094131469727
0, 7, 14, 62.64376068115234
0, 7, 15, 80.20563507080078
0, 7, 16, 132.64599609375
0, 7, 17, 454.7066040039062
0, 7, 18, 1098.452880859375
0, 7, 19, 1498.709838867188
0, 7, 20, 1480.76708984375
0, 7, 21, 1363.799438476562
0, 7, 22, 1487.247192382812
0, 7, 23, 1457.114013671875
0, 7, 24, 1505.36669921875
0, 7, 25, 1590.783325195312
0, 7, 26, 1514.435668945312
0, 7, 27, 1512.188720703125
0, 7, 28, 1546.671020507812
0, 7, 29, 1577.713012695312
0, 7, 30, 1549.835571289062
0, 7, 31, 1432.537963867188
0, 7, 32, 1542.56396484375
0, 7, 33, 1485.567749023438
0, 7, 34, 1482.590942382812
0, 7, 35, 1520.479370117188
0, 7, 36, 1476.797241210938
0, 7, 37, 1602.485107421875
0, 7, 38, 1504.899169921875
0, 7, 39, 1492.80419921875
0, 7, 40, 1542.579345703125
0, 7, 41, 1464.977294921875
0, 7, 42, 1495.783325195312
0, 7, 43, 1441.9794921875
0, 7, 44, 1485.890991210938
0, 7, 45, 1465.049194335938
0, 7, 46, 1509.870361328125
0, 7, 47, 1568.237182617188
0, 7, 48, 1524.79345703125
0, 7, 49, 1542.972045898438
0, 7, 50, 1519.7060546875
0, 7, 51, 1494.575805664062
0, 7, 52, 1515.484497070312
0, 7, 53, 1495.545532226562
0, 7, 54, 1587.30029296875
0, 7, 55, 1472.206787109375
0, 7, 56, 1548.487670898438
0, 7, 57, 1508.67578125
0, 7, 58, 1551.175903320312
0, 7, 59, 1540.453369140625
0, 7, 60, 1549.172607421875
0, 7, 61, 1486.405639648438
0, 7, 62, 1435.202880859375
0, 7, 63, 1515.635375976562
0, 7, 64, 1548.466552734375
0, 7, 65, 1529.146240234375
0, 7, 66, 1531.66943359375
0, 7, 67, 1581.473754882812
0, 7, 68, 1532.351440429688
0, 7, 69, 1513.006958007812
0, 7, 70, 1497.741455078125
0, 7, 71, 1519.704345703125
0, 7, 72, 1527.279052734375
0, 7, 73, 1516.617919921875
0, 7, 74, 1572.018432617188
0, 7, 75, 1536.92822265625
0, 7, 76, 1557.2998046875
0, 7, 77, 1511.249145507812
0, 7, 78, 1506.56640625
0, 7, 79, 1425.6240234375
0, 7, 80, 1487.487915039062
0, 7, 81, 1497.422485351562
0, 7, 82, 1530.624389648438
0, 7, 83, 1543.69873046875
0, 7, 84, 1588.0859375
0, 7, 85, 1476.935424804688
0, 7, 86, 1502.735717773438
0, 7, 87, 1513.942016601562
0, 7, 88, 1506.238159179688
0, 7, 89, 1554.825805664062
0, 7, 90, 1521.396118164062
0, 7, 91, 1564.917846679688
0, 7, 92, 1534.320556640625
0, 7, 93, 1551.677001953125
0, 7, 94, 1538.38525390625
0, 7, 95, 1506.452758789062
0, 7, 96, 1505.828002929688
0, 7, 97, 1433.864013671875
0, 7, 98, 1484.522216796875
0, 7, 99, 1535.170288085938
0, 7, 100, 1419.006958007812
0, 7, 101, 1468.122802734375
0, 7, 102, 1453.57470703125
0, 7, 103, 1429.87744140625
0, 7, 104, 1492.595458984375
0, 7, 105, 1524.7646484375
0, 7, 106, 1567.559692382812
0, 7, 107, 1479.916870117188
0, 7, 108, 1416.368774414062
0, 7, 109, 1142.70947265625
0, 7, 110, 472.9949035644531
0, 7, 111, 125.3253784179688
0, 7, 112, 83.35353851318359
0, 7, 113, 67.39315795898438
0, 7, 114, 60.40873718261719
0, 7, 115, 49.82959747314453
0, 7, 116, 47.21751403808594
0, 7, 117, 44.39377975463867
0, 7, 118, 37.01443099975586
0, 7, 119, 35.76603698730469
0, 7, 120, 22.16616630554199
0, 7, 121, 33.33204650878906
0, 7, 122, 33.92406845092773
0, 7, 123, 32.45848846435547
0, 7, 124, 29.02291679382324
0, 7, 125, 25.18459892272949
0, 7, 126, 26.12908363342285
0, 7, 127, 18.99326133728027
0, 8, 0, 19.83022499084473
0, 8, 1, 22.4778995513916
0, 8, 2, 26.8420352935791
0, 8, 3, 26.97066116333008
0, 8, 4, 29.11075973510742
0, 8, 5, 28.17063331604004
0, 8, 6, 26.67571258544922
0, 8, 7, 32.12214660644531
0, 8, 8, 36.30435943603516
0, 8, 9, 45.84336853027344
0, 8, 10, 39.21712875366211
0, 8, 11, 39.57938766479492
0, 8, 12, 54.87562561035156
0, 8, 13, 67.71994018554688
0, 8, 14, 70.74339294433594
0, 8, 15, 88.7403564453125
0, 8, 16, 165.3363037109375
0, 8, 17, 673.4769287109375
0, 8, 18, 1276.88037109375
0, 8, 19, 1442.390991210938
0, 8, 20, 1419.938842773438
0, 8, 21, 1402.780029296875
0, 8, 22, 1488.370971679688
0, 8, 23, 1477.673095703125
0, 8, 24, 1438.79052734375
0, 8, 25, 1458.015502929688
0, 8, 26, 1514.810302734375
0, 8, 27, 1524.343872070312
0, 8, 28, 1478.500366210938
0, 8, 29, 1504.232421875
0, 8, 30, 1486.710205078125
0, 8, 31, 1537.0400390625
0, 8, 32, 1514.982177734375
0, 8, 33, 1480.136840820312
0, 8, 34, 1531.734985351562
0, 8, 35, 1439.322265625
0, 8, 36, 1501.828857421875
0, 8, 37, 1554.85009765625
0, 8, 38, 1557.118041992188
0, 8, 39, 1489.985717773438
0, 8, 40, 1534.282958984375
0, 8, 41, 1482.732543945312
0, 8, 42, 1541.609497070312
0, 8, 43, 1429.731079101562
0, 8, 44, 1534.699829101562
0, 8, 45, 1516.839965820312
0, 8, 46, 1598.770751953125
0, 8, 47, 1592.468139648438
