# TOPAS Version: 3.1.p3
# Parameter File: batch_inserts_212.txt
# Results for scorer Readout_Adipose
# Scored in component: MyBox
# X in 1 bin  of 0.75 cm
# Y in 512 bins of 0.0783984 cm
# Z in 128 bins of 0.078125 cm
# EnergyDeposit ( MeV ) : Sum   
0, 0, 0, 3.54468560218811
0, 0, 1, 4.089608192443848
0, 0, 2, 5.684638500213623
0, 0, 3, 1.517457842826843
0, 0, 4, 5.831185817718506
0, 0, 5, 2.753320455551147
0, 0, 6, 7.946598052978516
0, 0, 7, 8.431264877319336
0, 0, 8, 1.898587107658386
0, 0, 9, 4.394890308380127
0, 0, 10, 6.334326267242432
0, 0, 11, 4.256668090820312
0, 0, 12, 4.815651893615723
0, 0, 13, 5.687961578369141
0, 0, 14, 6.221682071685791
0, 0, 15, 8.765236854553223
0, 0, 16, 8.047865867614746
0, 0, 17, 11.84699630737305
0, 0, 18, 15.2297420501709
0, 0, 19, 43.12355041503906
0, 0, 20, 139.8610992431641
0, 0, 21, 223.8778839111328
0, 0, 22, 247.7137756347656
0, 0, 23, 257.1712951660156
0, 0, 24, 249.9657745361328
0, 0, 25, 257.4776611328125
0, 0, 26, 236.7823791503906
0, 0, 27, 238.2479400634766
0, 0, 28, 273.3724365234375
0, 0, 29, 252.9658050537109
0, 0, 30, 230.4507141113281
0, 0, 31, 244.0199737548828
0, 0, 32, 264.243408203125
0, 0, 33, 260.8996887207031
0, 0, 34, 285.5094299316406
0, 0, 35, 266.6189880371094
0, 0, 36, 246.2382965087891
0, 0, 37, 252.1797332763672
0, 0, 38, 267.2073364257812
0, 0, 39, 229.7569885253906
0, 0, 40, 241.0882415771484
0, 0, 41, 268.0188598632812
0, 0, 42, 230.4704284667969
0, 0, 43, 261.9049682617188
0, 0, 44, 253.3702850341797
0, 0, 45, 252.3785858154297
0, 0, 46, 244.5904541015625
0, 0, 47, 253.6066284179688
0, 0, 48, 265.6231079101562
0, 0, 49, 273.701416015625
0, 0, 50, 251.3671112060547
0, 0, 51, 255.6920776367188
0, 0, 52, 272.9954528808594
0, 0, 53, 291.6059875488281
0, 0, 54, 242.4866333007812
0, 0, 55, 239.5515594482422
0, 0, 56, 277.62890625
0, 0, 57, 262.4620971679688
0, 0, 58, 244.9195709228516
0, 0, 59, 271.4772644042969
0, 0, 60, 233.9377746582031
0, 0, 61, 245.7073516845703
0, 0, 62, 257.5101318359375
0, 0, 63, 267.6563415527344
0, 0, 64, 255.705078125
0, 0, 65, 261.5451049804688
0, 0, 66, 277.5499267578125
0, 0, 67, 247.8549957275391
0, 0, 68, 259.3748779296875
0, 0, 69, 260.9125061035156
0, 0, 70, 270.6019592285156
0, 0, 71, 238.3740539550781
0, 0, 72, 249.4088134765625
0, 0, 73, 258.0842590332031
0, 0, 74, 250.6131744384766
0, 0, 75, 240.7990875244141
0, 0, 76, 229.2196197509766
0, 0, 77, 261.9092102050781
0, 0, 78, 258.3953857421875
0, 0, 79, 276.2913208007812
0, 0, 80, 218.2895202636719
0, 0, 81, 267.9446411132812
0, 0, 82, 255.9424133300781
0, 0, 83, 244.1888275146484
0, 0, 84, 267.4206237792969
0, 0, 85, 231.5733184814453
0, 0, 86, 253.0893707275391
0, 0, 87, 251.3517913818359
0, 0, 88, 258.9465637207031
0, 0, 89, 282.9587707519531
0, 0, 90, 244.1870269775391
0, 0, 91, 280.8504638671875
0, 0, 92, 251.9721527099609
0, 0, 93, 248.4838409423828
0, 0, 94, 249.5276641845703
0, 0, 95, 248.0507965087891
0, 0, 96, 276.158447265625
0, 0, 97, 272.0826416015625
0, 0, 98, 274.2444152832031
0, 0, 99, 258.3902587890625
0, 0, 100, 258.5916442871094
0, 0, 101, 227.3047943115234
0, 0, 102, 233.2039642333984
0, 0, 103, 270.1395263671875
0, 0, 104, 255.6294403076172
0, 0, 105, 250.617919921875
0, 0, 106, 245.7624664306641
0, 0, 107, 151.7523803710938
0, 0, 108, 38.28708267211914
0, 0, 109, 11.69541931152344
0, 0, 110, 12.65232944488525
0, 0, 111, 8.178709030151367
0, 0, 112, 6.69136905670166
0, 0, 113, 5.475977897644043
0, 0, 114, 7.50648021697998
0, 0, 115, 7.126020431518555
0, 0, 116, 4.537422180175781
0, 0, 117, 5.581778526306152
0, 0, 118, 7.363345146179199
0, 0, 119, 3.599016189575195
0, 0, 120, 3.903836488723755
0, 0, 121, 3.110733032226562
0, 0, 122, 5.38902759552002
0, 0, 123, 5.297141551971436
0, 0, 124, 6.069277763366699
0, 0, 125, 4.507895946502686
0, 0, 126, 4.034940242767334
0, 0, 127, 4.715865135192871
0, 1, 0, 7.624189853668213
0, 1, 1, 2.567955017089844
0, 1, 2, 5.069880962371826
0, 1, 3, 1.750343084335327
0, 1, 4, 3.193410634994507
0, 1, 5, 3.972310543060303
0, 1, 6, 3.150111436843872
0, 1, 7, 5.281976699829102
0, 1, 8, 8.924028396606445
0, 1, 9, 3.946464061737061
0, 1, 10, 6.820921897888184
0, 1, 11, 11.92175483703613
0, 1, 12, 8.80612850189209
0, 1, 13, 9.195561408996582
0, 1, 14, 7.729307651519775
0, 1, 15, 8.151055335998535
0, 1, 16, 10.40747547149658
0, 1, 17, 11.6867561340332
0, 1, 18, 20.8555908203125
0, 1, 19, 68.86024475097656
0, 1, 20, 205.0157012939453
0, 1, 21, 255.5042114257812
0, 1, 22, 297.8145446777344
0, 1, 23, 283.4171447753906
0, 1, 24, 275.4169006347656
0, 1, 25, 290.2984924316406
0, 1, 26, 269.2637634277344
0, 1, 27, 305.7813110351562
0, 1, 28, 298.1897583007812
0, 1, 29, 295.9418640136719
0, 1, 30, 279.3681030273438
0, 1, 31, 292.2028503417969
0, 1, 32, 290.4938659667969
0, 1, 33, 295.554931640625
0, 1, 34, 292.8775939941406
0, 1, 35, 279.9086608886719
0, 1, 36, 306.6642456054688
0, 1, 37, 295.8378601074219
0, 1, 38, 279.4268188476562
0, 1, 39, 296.4246215820312
0, 1, 40, 266.9593811035156
0, 1, 41, 285.23583984375
0, 1, 42, 288.6708984375
0, 1, 43, 330.1403503417969
0, 1, 44, 278.1620788574219
0, 1, 45, 293.04296875
0, 1, 46, 261.9215698242188
0, 1, 47, 310.2474975585938
0, 1, 48, 286.6631774902344
0, 1, 49, 302.3828125
0, 1, 50, 262.0906066894531
0, 1, 51, 273.1968994140625
0, 1, 52, 293.6936645507812
0, 1, 53, 303.9556274414062
0, 1, 54, 274.2063598632812
0, 1, 55, 294.4823608398438
0, 1, 56, 278.0474548339844
0, 1, 57, 297.857421875
0, 1, 58, 311.3810119628906
0, 1, 59, 293.1472473144531
0, 1, 60, 297.5915832519531
0, 1, 61, 273.7497863769531
0, 1, 62, 310.0981140136719
0, 1, 63, 286.53759765625
0, 1, 64, 287.7632751464844
0, 1, 65, 294.7061462402344
0, 1, 66, 292.2034606933594
0, 1, 67, 292.3066101074219
0, 1, 68, 277.8511962890625
0, 1, 69, 281.4010925292969
0, 1, 70, 271.2890930175781
0, 1, 71, 273.2068481445312
0, 1, 72, 283.8917541503906
0, 1, 73, 303.67529296875
0, 1, 74, 304.5264892578125
0, 1, 75, 295.6941223144531
0, 1, 76, 284.1679382324219
0, 1, 77, 289.5965576171875
0, 1, 78, 298.1137390136719
0, 1, 79, 301.6055603027344
0, 1, 80, 296.3516540527344
0, 1, 81, 299.9913635253906
0, 1, 82, 284.1427001953125
0, 1, 83, 332.1495361328125
0, 1, 84, 309.5927124023438
0, 1, 85, 252.8479309082031
0, 1, 86, 293.82568359375
0, 1, 87, 289.7351379394531
0, 1, 88, 298.5967712402344
0, 1, 89, 288.7453002929688
0, 1, 90, 270.8229064941406
0, 1, 91, 318.0815734863281
0, 1, 92, 290.8623962402344
0, 1, 93, 287.0238952636719
0, 1, 94, 302.9203491210938
0, 1, 95, 284.3771362304688
0, 1, 96, 283.5684814453125
0, 1, 97, 302.9989013671875
0, 1, 98, 277.7624206542969
0, 1, 99, 268.3140869140625
0, 1, 100, 275.8348388671875
0, 1, 101, 280.3554382324219
0, 1, 102, 278.1266784667969
0, 1, 103, 280.7440185546875
0, 1, 104, 307.0234680175781
0, 1, 105, 296.4395446777344
0, 1, 106, 262.8392028808594
0, 1, 107, 192.1692352294922
0, 1, 108, 80.42688751220703
0, 1, 109, 24.17431831359863
0, 1, 110, 11.73862075805664
0, 1, 111, 9.679349899291992
0, 1, 112, 10.4478931427002
0, 1, 113, 4.736469268798828
0, 1, 114, 6.599197864532471
0, 1, 115, 6.18344783782959
0, 1, 116, 10.73742771148682
0, 1, 117, 4.379679679870605
0, 1, 118, 3.17153525352478
0, 1, 119, 5.096920967102051
0, 1, 120, 5.010757923126221
0, 1, 121, 6.692482471466064
0, 1, 122, 2.288976192474365
0, 1, 123, 4.019101142883301
0, 1, 124, 8.001033782958984
0, 1, 125, 4.726845741271973
0, 1, 126, 1.441672205924988
0, 1, 127, 1.15924072265625
0, 2, 0, 4.288077831268311
0, 2, 1, 2.506969928741455
0, 2, 2, 3.521321535110474
0, 2, 3, 3.531433343887329
0, 2, 4, 2.967379808425903
0, 2, 5, 1.648710608482361
0, 2, 6, 2.014055252075195
0, 2, 7, 4.146893978118896
0, 2, 8, 6.495126724243164
0, 2, 9, 5.140044212341309
0, 2, 10, 7.707004070281982
0, 2, 11, 5.34640645980835
0, 2, 12, 5.464953422546387
0, 2, 13, 10.55454063415527
0, 2, 14, 9.333854675292969
0, 2, 15, 8.221184730529785
0, 2, 16, 9.647613525390625
0, 2, 17, 16.56159210205078
0, 2, 18, 29.01063346862793
0, 2, 19, 116.7955474853516
0, 2, 20, 249.3989715576172
0, 2, 21, 271.5435180664062
0, 2, 22, 315.0634460449219
0, 2, 23, 299.8080139160156
0, 2, 24, 285.6471862792969
0, 2, 25, 302.1121520996094
0, 2, 26, 292.6385803222656
0, 2, 27, 277.0060729980469
0, 2, 28, 272.0196838378906
0, 2, 29, 273.0627136230469
0, 2, 30, 288.27880859375
0, 2, 31, 279.4490661621094
0, 2, 32, 293.5597229003906
0, 2, 33, 281.7175903320312
0, 2, 34, 330.6561584472656
0, 2, 35, 290.4759521484375
0, 2, 36, 303.4574279785156
0, 2, 37, 316.1762390136719
0, 2, 38, 310.0322875976562
0, 2, 39, 266.355712890625
0, 2, 40, 307.1841430664062
0, 2, 41, 295.3376159667969
0, 2, 42, 305.2164611816406
0, 2, 43, 312.936767578125
0, 2, 44, 311.6999816894531
0, 2, 45, 325.0254516601562
0, 2, 46, 287.220703125
0, 2, 47, 303.2988586425781
0, 2, 48, 280.8611450195312
0, 2, 49, 280.6566467285156
0, 2, 50, 294.4562072753906
0, 2, 51, 284.1012878417969
0, 2, 52, 272.2957458496094
0, 2, 53, 285.609619140625
0, 2, 54, 279.9300537109375
0, 2, 55, 274.0576171875
0, 2, 56, 300.6801147460938
0, 2, 57, 291.4573059082031
0, 2, 58, 300.8598327636719
0, 2, 59, 291.7471008300781
0, 2, 60, 319.2045288085938
0, 2, 61, 302.0292663574219
0, 2, 62, 314.5170288085938
0, 2, 63, 302.2815246582031
0, 2, 64, 295.5649719238281
0, 2, 65, 312.397705078125
0, 2, 66, 279.7167358398438
0, 2, 67, 290.3164367675781
0, 2, 68, 295.8390808105469
0, 2, 69, 310.061767578125
0, 2, 70, 334.2494506835938
0, 2, 71, 284.0451354980469
0, 2, 72, 301.0353698730469
0, 2, 73, 311.2342529296875
0, 2, 74, 285.1269226074219
0, 2, 75, 306.0037536621094
0, 2, 76, 286.1017150878906
0, 2, 77, 299.6149291992188
0, 2, 78, 314.8984069824219
0, 2, 79, 307.9353942871094
0, 2, 80, 296.8089294433594
0, 2, 81, 281.0758361816406
0, 2, 82, 318.9765930175781
0, 2, 83, 313.7026062011719
0, 2, 84, 288.49169921875
0, 2, 85, 282.7893371582031
0, 2, 86, 323.7272338867188
0, 2, 87, 285.8366394042969
0, 2, 88, 280.7489929199219
0, 2, 89, 297.1303100585938
0, 2, 90, 296.9353637695312
0, 2, 91, 276.0735473632812
0, 2, 92, 305.825927734375
0, 2, 93, 318.1374816894531
0, 2, 94, 291.1240844726562
0, 2, 95, 313.3008422851562
0, 2, 96, 315.2653503417969
0, 2, 97, 288.8280944824219
0, 2, 98, 293.0744323730469
0, 2, 99, 273.3208923339844
0, 2, 100, 306.1582336425781
0, 2, 101, 301.0249633789062
0, 2, 102, 296.4580078125
0, 2, 103, 291.7892761230469
0, 2, 104, 291.7126159667969
0, 2, 105, 273.2151489257812
0, 2, 106, 298.0283508300781
0, 2, 107, 272.025634765625
0, 2, 108, 115.7595977783203
0, 2, 109, 31.6651725769043
0, 2, 110, 11.3355541229248
0, 2, 111, 15.04883766174316
0, 2, 112, 7.617311477661133
0, 2, 113, 10.03493309020996
0, 2, 114, 9.395933151245117
0, 2, 115, 9.257692337036133
0, 2, 116, 7.738637924194336
0, 2, 117, 8.006766319274902
0, 2, 118, 3.365451097488403
0, 2, 119, 4.636641502380371
0, 2, 120, 8.198902130126953
0, 2, 121, 3.47137451171875
0, 2, 122, 5.001749038696289
0, 2, 123, 3.974005222320557
0, 2, 124, 4.101956367492676
0, 2, 125, 4.756388664245605
0, 2, 126, 3.166068553924561
0, 2, 127, 6.983834266662598
0, 3, 0, 3.520354747772217
0, 3, 1, 3.448850154876709
0, 3, 2, 4.616677761077881
0, 3, 3, 2.104314565658569
0, 3, 4, 3.54487419128418
0, 3, 5, 6.178352832794189
0, 3, 6, 8.299720764160156
0, 3, 7, 6.462185859680176
0, 3, 8, 4.955746650695801
0, 3, 9, 6.191197872161865
0, 3, 10, 7.381909847259521
0, 3, 11, 6.092265129089355
0, 3, 12, 8.30706787109375
0, 3, 13, 14.92167949676514
0, 3, 14, 10.04484939575195
0, 3, 15, 13.41644763946533
0, 3, 16, 13.02636623382568
0, 3, 17, 19.93594932556152
0, 3, 18, 54.55339431762695
0, 3, 19, 177.1908111572266
0, 3, 20, 268.2678833007812
0, 3, 21, 270.6344299316406
0, 3, 22, 282.7569885253906
0, 3, 23, 285.6264038085938
0, 3, 24, 288.8737182617188
0, 3, 25, 271.4532775878906
0, 3, 26, 304.3296813964844
0, 3, 27, 292.3659057617188
0, 3, 28, 282.209228515625
0, 3, 29, 338.996337890625
0, 3, 30, 316.65185546875
0, 3, 31, 287.9765930175781
0, 3, 32, 306.4486083984375
0, 3, 33, 314.2018432617188
0, 3, 34, 324.6290283203125
0, 3, 35, 306.3981018066406
0, 3, 36, 268.5958251953125
0, 3, 37, 313.54833984375
0, 3, 38, 304.2402038574219
0, 3, 39, 288.3601989746094
0, 3, 40, 265.8102416992188
0, 3, 41, 300.0223693847656
0, 3, 42, 284.0407104492188
0, 3, 43, 307.3038024902344
0, 3, 44, 310.76025390625
0, 3, 45, 290.3015441894531
0, 3, 46, 329.7673645019531
0, 3, 47, 300.2078857421875
0, 3, 48, 301.871337890625
0, 3, 49, 276.29736328125
0, 3, 50, 291.02783203125
0, 3, 51, 276.3946838378906
0, 3, 52, 315.2643127441406
0, 3, 53, 286.5293884277344
0, 3, 54, 285.2844848632812
0, 3, 55, 283.0550231933594
0, 3, 56, 298.0275268554688
0, 3, 57, 288.6772766113281
0, 3, 58, 304.2088012695312
0, 3, 59, 292.8042907714844
0, 3, 60, 299.0190124511719
0, 3, 61, 264.5835571289062
0, 3, 62, 282.2491149902344
0, 3, 63, 306.7586669921875
0, 3, 64, 317.656494140625
0, 3, 65, 306.005615234375
0, 3, 66, 314.1114807128906
0, 3, 67, 316.9302978515625
0, 3, 68, 280.0945739746094
0, 3, 69, 283.4499206542969
0, 3, 70, 287.3968200683594
0, 3, 71, 299.8234558105469
0, 3, 72, 270.5954284667969
0, 3, 73, 310.0020446777344
0, 3, 74, 296.9872741699219
0, 3, 75, 288.8645629882812
0, 3, 76, 306.0261535644531
0, 3, 77, 313.4866333007812
0, 3, 78, 307.7066955566406
0, 3, 79, 281.0228576660156
0, 3, 80, 291.1979064941406
0, 3, 81, 311.2262268066406
0, 3, 82, 315.5816040039062
0, 3, 83, 301.5312805175781
0, 3, 84, 311.6955871582031
0, 3, 85, 293.9179077148438
0, 3, 86, 302.8323974609375
0, 3, 87, 296.8435668945312
0, 3, 88, 298.0514831542969
0, 3, 89, 297.5829162597656
0, 3, 90, 276.3563232421875
0, 3, 91, 285.3412475585938
0, 3, 92, 306.570556640625
0, 3, 93, 312.3353576660156
0, 3, 94, 299.6281433105469
0, 3, 95, 334.3194580078125
0, 3, 96, 289.955078125
0, 3, 97, 286.666259765625
0, 3, 98, 278.8098449707031
0, 3, 99, 261.9459533691406
0, 3, 100, 284.550537109375
0, 3, 101, 295.5384216308594
0, 3, 102, 273.3153076171875
0, 3, 103, 320.3053283691406
0, 3, 104, 309.5801696777344
0, 3, 105, 287.78369140625
0, 3, 106, 302.5179748535156
0, 3, 107, 284.9330749511719
0, 3, 108, 168.1902770996094
0, 3, 109, 56.79412078857422
0, 3, 110, 18.01418495178223
0, 3, 111, 15.21782207489014
0, 3, 112, 12.82365798950195
0, 3, 113, 6.215949535369873
0, 3, 114, 10.98259925842285
0, 3, 115, 7.955593109130859
0, 3, 116, 12.03306770324707
0, 3, 117, 7.510650634765625
0, 3, 118, 9.608769416809082
0, 3, 119, 5.425410270690918
0, 3, 120, 6.15730094909668
0, 3, 121, 2.675302982330322
0, 3, 122, 1.762097716331482
0, 3, 123, 4.896397113800049
0, 3, 124, 1.934494614601135
0, 3, 125, 7.702524185180664
0, 3, 126, 4.682335376739502
0, 3, 127, 3.10166597366333
0, 4, 0, 2.884083032608032
0, 4, 1, 3.92536187171936
0, 4, 2, 2.768855571746826
0, 4, 3, 2.123036861419678
0, 4, 4, 5.568347930908203
0, 4, 5, 7.466118335723877
0, 4, 6, 6.732147216796875
0, 4, 7, 5.604996204376221
0, 4, 8, 4.161622524261475
0, 4, 9, 8.747180938720703
0, 4, 10, 7.536536693572998
0, 4, 11, 6.036646366119385
0, 4, 12, 7.849266052246094
0, 4, 13, 7.57974910736084
0, 4, 14, 12.7586841583252
0, 4, 15, 8.898358345031738
0, 4, 16, 14.26482772827148
0, 4, 17, 18.11597061157227
0, 4, 18, 93.82283782958984
0, 4, 19, 223.4876403808594
0, 4, 20, 284.5995483398438
0, 4, 21, 273.2669372558594
0, 4, 22, 305.0341491699219
0, 4, 23, 267.7631225585938
0, 4, 24, 288.3251647949219
0, 4, 25, 271.4951171875
0, 4, 26, 294.0365600585938
0, 4, 27, 283.0787963867188
0, 4, 28, 305.5723571777344
0, 4, 29, 322.2138671875
0, 4, 30, 309.1584167480469
0, 4, 31, 306.6674194335938
0, 4, 32, 279.9335021972656
0, 4, 33, 295.9878540039062
0, 4, 34, 297.3660583496094
0, 4, 35, 311.3335571289062
0, 4, 36, 294.5572204589844
0, 4, 37, 287.5913391113281
0, 4, 38, 297.2510070800781
0, 4, 39, 295.4180603027344
0, 4, 40, 301.6790161132812
0, 4, 41, 311.36865234375
0, 4, 42, 331.7854614257812
0, 4, 43, 296.9246215820312
0, 4, 44, 320.7934875488281
0, 4, 45, 323.9210510253906
0, 4, 46, 305.2774658203125
0, 4, 47, 292.2069702148438
0, 4, 48, 295.2923278808594
0, 4, 49, 276.0610046386719
0, 4, 50, 296.2654418945312
0, 4, 51, 315.1194458007812
0, 4, 52, 325.7974853515625
0, 4, 53, 305.6525573730469
0, 4, 54, 288.3246459960938
0, 4, 55, 314.9503173828125
0, 4, 56, 287.453369140625
0, 4, 57, 308.9242553710938
0, 4, 58, 298.3648376464844
0, 4, 59, 307.2825012207031
0, 4, 60, 302.6714782714844
0, 4, 61, 314.9673156738281
0, 4, 62, 308.0541687011719
0, 4, 63, 298.2000122070312
0, 4, 64, 331.7326049804688
0, 4, 65, 316.0474243164062
0, 4, 66, 294.1206359863281
0, 4, 67, 283.7393493652344
0, 4, 68, 312.2690734863281
0, 4, 69, 275.4968872070312
0, 4, 70, 298.365478515625
0, 4, 71, 321.138916015625
0, 4, 72, 334.156982421875
0, 4, 73, 297.8361511230469
0, 4, 74, 292.98193359375
0, 4, 75, 290.8639221191406
0, 4, 76, 274.4287109375
0, 4, 77, 279.0807189941406
0, 4, 78, 309.3102722167969
0, 4, 79, 319.7358703613281
0, 4, 80, 316.0560607910156
0, 4, 81, 311.9995727539062
0, 4, 82, 297.5691528320312
0, 4, 83, 301.7035522460938
0, 4, 84, 293.1793823242188
0, 4, 85, 295.3524475097656
0, 4, 86, 298.3124084472656
0, 4, 87, 285.7958984375
0, 4, 88, 306.7447509765625
0, 4, 89, 293.7464294433594
0, 4, 90, 331.8594360351562
0, 4, 91, 302.5078125
0, 4, 92, 288.8805847167969
0, 4, 93, 296.1073608398438
0, 4, 94, 292.86572265625
0, 4, 95, 289.0522155761719
0, 4, 96, 323.4762878417969
0, 4, 97, 273.7140502929688
0, 4, 98, 327.0823669433594
0, 4, 99, 312.9700012207031
0, 4, 100, 302.5260314941406
0, 4, 101, 258.3178405761719
0, 4, 102, 296.5887756347656
0, 4, 103, 316.76123046875
0, 4, 104, 282.2471923828125
0, 4, 105, 309.8915100097656
0, 4, 106, 288.1059875488281
0, 4, 107, 295.4183654785156
0, 4, 108, 226.0276794433594
0, 4, 109, 79.99192047119141
0, 4, 110, 15.58257675170898
0, 4, 111, 12.8731575012207
0, 4, 112, 10.27730941772461
0, 4, 113, 10.19455051422119
0, 4, 114, 8.093969345092773
0, 4, 115, 9.963252067565918
0, 4, 116, 7.394998073577881
0, 4, 117, 8.731176376342773
0, 4, 118, 9.407944679260254
0, 4, 119, 7.655564308166504
0, 4, 120, 5.123083591461182
0, 4, 121, 5.405457496643066
0, 4, 122, 3.898326873779297
0, 4, 123, 7.124082088470459
0, 4, 124, 5.724749565124512
0, 4, 125, 9.754435539245605
0, 4, 126, 7.21300745010376
0, 4, 127, 5.300695896148682
0, 5, 0, 3.407163858413696
0, 5, 1, 3.448058605194092
0, 5, 2, 6.504411220550537
0, 5, 3, 3.473212242126465
0, 5, 4, 6.331523895263672
0, 5, 5, 5.940971374511719
0, 5, 6, 5.782503128051758
0, 5, 7, 6.308213710784912
0, 5, 8, 5.280701637268066
0, 5, 9, 4.77432918548584
0, 5, 10, 5.82647180557251
0, 5, 11, 7.925086975097656
0, 5, 12, 7.03844165802002
0, 5, 13, 5.156175136566162
0, 5, 14, 12.83282375335693
0, 5, 15, 17.13197326660156
0, 5, 16, 14.8372974395752
0, 5, 17, 28.56331825256348
0, 5, 18, 137.0917205810547
0, 5, 19, 286.7946166992188
0, 5, 20, 309.796875
0, 5, 21, 316.58544921875
0, 5, 22, 275.3447875976562
0, 5, 23, 309.7294921875
0, 5, 24, 301.7356567382812
0, 5, 25, 290.0428161621094
0, 5, 26, 294.0056457519531
0, 5, 27, 321.9489440917969
0, 5, 28, 302.4822692871094
0, 5, 29, 297.8030700683594
0, 5, 30, 324.9049987792969
0, 5, 31, 284.9154357910156
0, 5, 32, 302.2665100097656
0, 5, 33, 306.3696899414062
0, 5, 34, 296.6573791503906
0, 5, 35, 309.4235534667969
0, 5, 36, 271.3130493164062
0, 5, 37, 284.2221984863281
0, 5, 38, 292.5088806152344
0, 5, 39, 310.7980651855469
0, 5, 40, 307.9679260253906
0, 5, 41, 272.7945861816406
0, 5, 42, 307.1428833007812
0, 5, 43, 314.6155395507812
0, 5, 44, 293.3879699707031
0, 5, 45, 301.6969909667969
0, 5, 46, 264.0203857421875
0, 5, 47, 281.718994140625
0, 5, 48, 294.4351501464844
0, 5, 49, 286.6505432128906
0, 5, 50, 297.2310485839844
0, 5, 51, 281.4069213867188
0, 5, 52, 269.4395751953125
0, 5, 53, 283.6024169921875
0, 5, 54, 291.5054321289062
0, 5, 55, 344.8863830566406
0, 5, 56, 305.3207092285156
0, 5, 57, 308.0536499023438
0, 5, 58, 316.7452392578125
0, 5, 59, 305.1368408203125
0, 5, 60, 306.4436950683594
0, 5, 61, 281.4219665527344
0, 5, 62, 324.0811157226562
0, 5, 63, 290.3828735351562
0, 5, 64, 322.3720397949219
0, 5, 65, 307.1763916015625
0, 5, 66, 328.4669189453125
0, 5, 67, 312.1329040527344
0, 5, 68, 310.5429382324219
0, 5, 69, 309.9798889160156
0, 5, 70, 300.9996643066406
0, 5, 71, 272.5520629882812
0, 5, 72, 310.3753356933594
0, 5, 73, 302.4495849609375
0, 5, 74, 295.6922607421875
0, 5, 75, 295.8948364257812
0, 5, 76, 286.5998229980469
0, 5, 77, 298.1923217773438
0, 5, 78, 312.8653869628906
0, 5, 79, 306.3971252441406
0, 5, 80, 296.0154724121094
0, 5, 81, 326.1484680175781
0, 5, 82, 322.74853515625
0, 5, 83, 281.6679077148438
0, 5, 84, 303.5364990234375
0, 5, 85, 271.6898803710938
0, 5, 86, 327.2892456054688
0, 5, 87, 287.5180969238281
0, 5, 88, 312.4851684570312
0, 5, 89, 305.1491088867188
0, 5, 90, 316.5817565917969
0, 5, 91, 313.0719604492188
0, 5, 92, 295.3786926269531
0, 5, 93, 321.9845275878906
0, 5, 94, 309.1715087890625
0, 5, 95, 299.1005249023438
0, 5, 96, 297.9272766113281
0, 5, 97, 294.9741516113281
0, 5, 98, 319.546142578125
0, 5, 99, 301.1273498535156
0, 5, 100, 290.2881469726562
0, 5, 101, 304.3682861328125
0, 5, 102, 292.5131225585938
0, 5, 103, 313.387939453125
0, 5, 104, 303.2726745605469
0, 5, 105, 293.3967590332031
0, 5, 106, 282.2075500488281
0, 5, 107, 293.8341064453125
0, 5, 108, 266.4024658203125
0, 5, 109, 157.4692687988281
0, 5, 110, 39.25236129760742
0, 5, 111, 21.05217933654785
0, 5, 112, 16.97538566589355
0, 5, 113, 14.29688358306885
0, 5, 114, 13.50337696075439
0, 5, 115, 7.542366027832031
0, 5, 116, 7.436415195465088
0, 5, 117, 6.882474422454834
0, 5, 118, 11.52530002593994
0, 5, 119, 8.08798885345459
0, 5, 120, 6.665948390960693
0, 5, 121, 4.83777379989624
0, 5, 122, 6.359655857086182
0, 5, 123, 6.040170192718506
0, 5, 124, 5.092652797698975
0, 5, 125, 4.152707576751709
0, 5, 126, 6.446331024169922
0, 5, 127, 5.656901359558105
0, 6, 0, 3.73833155632019
0, 6, 1, 3.213268280029297
0, 6, 2, 4.448812484741211
0, 6, 3, 5.10990571975708
0, 6, 4, 4.7825608253479
0, 6, 5, 7.356690883636475
0, 6, 6, 8.229941368103027
0, 6, 7, 5.121067047119141
0, 6, 8, 8.852934837341309
0, 6, 9, 7.16460132598877
0, 6, 10, 10.33603572845459
0, 6, 11, 7.399538516998291
0, 6, 12, 8.829364776611328
0, 6, 13, 17.32397270202637
0, 6, 14, 10.19243049621582
0, 6, 15, 15.82900714874268
0, 6, 16, 27.13592529296875
0, 6, 17, 54.5379524230957
0, 6, 18, 176.1631164550781
0, 6, 19, 276.1099853515625
0, 6, 20, 290.8805847167969
0, 6, 21, 314.1521301269531
0, 6, 22, 320.6220092773438
0, 6, 23, 305.84423828125
0, 6, 24, 315.7271423339844
0, 6, 25, 315.4914245605469
0, 6, 26, 322.0045776367188
0, 6, 27, 333.7324523925781
0, 6, 28, 298.6474304199219
0, 6, 29, 329.4400024414062
0, 6, 30, 280.6478271484375
0, 6, 31, 286.8874816894531
0, 6, 32, 340.3536682128906
0, 6, 33, 300.9251403808594
0, 6, 34, 339.6798095703125
0, 6, 35, 319.1527709960938
0, 6, 36, 273.6731567382812
0, 6, 37, 287.5221862792969
0, 6, 38, 313.6744079589844
0, 6, 39, 299.8367004394531
0, 6, 40, 283.4849243164062
0, 6, 41, 294.6847839355469
0, 6, 42, 306.4126281738281
0, 6, 43, 289.0562744140625
0, 6, 44, 279.74609375
0, 6, 45, 318.0715637207031
0, 6, 46, 301.0647277832031
0, 6, 47, 332.2170104980469
0, 6, 48, 291.5666809082031
0, 6, 49, 311.8115844726562
0, 6, 50, 327.7901306152344
0, 6, 51, 310.3804016113281
0, 6, 52, 321.6968078613281
0, 6, 53, 328.0158081054688
0, 6, 54, 304.712646484375
0, 6, 55, 306.3263244628906
0, 6, 56, 293.3717346191406
0, 6, 57, 311.5352172851562
0, 6, 58, 261.9439392089844
0, 6, 59, 302.6211547851562
0, 6, 60, 314.2405700683594
0, 6, 61, 270.0033874511719
0, 6, 62, 339.7015380859375
0, 6, 63, 322.7118225097656
0, 6, 64, 292.4375305175781
0, 6, 65, 282.9947814941406
0, 6, 66, 302.9795532226562
0, 6, 67, 311.0394592285156
0, 6, 68, 293.7972412109375
0, 6, 69, 280.5775146484375
0, 6, 70, 276.1954650878906
0, 6, 71, 289.0994262695312
0, 6, 72, 308.7802429199219
0, 6, 73, 291.3722534179688
0, 6, 74, 331.4705200195312
0, 6, 75, 343.8634948730469
0, 6, 76, 296.8328552246094
0, 6, 77, 285.9575500488281
0, 6, 78, 279.0183410644531
0, 6, 79, 292.3914794921875
0, 6, 80, 298.8009338378906
0, 6, 81, 313.5988159179688
0, 6, 82, 319.6920166015625
0, 6, 83, 319.80810546875
0, 6, 84, 294.9205932617188
0, 6, 85, 300.6040344238281
0, 6, 86, 330.4389953613281
0, 6, 87, 290.8081970214844
0, 6, 88, 306.2386169433594
0, 6, 89, 304.29736328125
0, 6, 90, 299.750732421875
0, 6, 91, 311.2895202636719
0, 6, 92, 286.2579345703125
0, 6, 93, 297.4994506835938
0, 6, 94, 273.5439147949219
0, 6, 95, 298.9771728515625
0, 6, 96, 348.554443359375
0, 6, 97, 308.3352661132812
0, 6, 98, 299.8814086914062
0, 6, 99, 271.300537109375
0, 6, 100, 309.7573852539062
0, 6, 101, 293.9609375
0, 6, 102, 307.6992797851562
0, 6, 103, 308.2992248535156
0, 6, 104, 292.2644958496094
0, 6, 105, 302.2453002929688
0, 6, 106, 306.8323364257812
0, 6, 107, 305.4622497558594
0, 6, 108, 265.8946838378906
0, 6, 109, 187.0278015136719
0, 6, 110, 54.08280944824219
0, 6, 111, 22.45589637756348
0, 6, 112, 13.23727607727051
0, 6, 113, 10.67678260803223
0, 6, 114, 13.95187664031982
0, 6, 115, 13.02603530883789
0, 6, 116, 10.17369079589844
0, 6, 117, 10.83174705505371
0, 6, 118, 12.00295448303223
0, 6, 119, 8.067110061645508
0, 6, 120, 5.825090408325195
0, 6, 121, 6.680678844451904
0, 6, 122, 8.386441230773926
0, 6, 123, 4.18806791305542
0, 6, 124, 5.363313674926758
0, 6, 125, 6.713569164276123
0, 6, 126, 2.955543756484985
0, 6, 127, 6.660432815551758
0, 7, 0, 8.485329627990723
0, 7, 1, 4.561002731323242
0, 7, 2, 5.180967330932617
0, 7, 3, 4.800235271453857
0, 7, 4, 4.276872158050537
0, 7, 5, 4.760432243347168
0, 7, 6, 5.236568450927734
0, 7, 7, 5.313964366912842
0, 7, 8, 6.669838905334473
0, 7, 9, 7.081246376037598
0, 7, 10, 8.072020530700684
0, 7, 11, 10.04100608825684
0, 7, 12, 9.912805557250977
0, 7, 13, 12.21764755249023
0, 7, 14, 10.2636661529541
0, 7, 15, 15.35755348205566
0, 7, 16, 27.90856742858887
0, 7, 17, 97.94960784912109
0, 7, 18, 219.5816345214844
0, 7, 19, 290.6795654296875
0, 7, 20, 298.9130859375
0, 7, 21, 278.2790832519531
0, 7, 22, 298.1571350097656
0, 7, 23, 290.3370361328125
0, 7, 24, 313.4398498535156
0, 7, 25, 325.8971557617188
0, 7, 26, 277.3852233886719
0, 7, 27, 297.4244689941406
0, 7, 28, 326.8662414550781
0, 7, 29, 319.1694641113281
0, 7, 30, 303.4754333496094
0, 7, 31, 277.1182861328125
0, 7, 32, 305.1752319335938
0, 7, 33, 263.6855163574219
0, 7, 34, 296.4411010742188
0, 7, 35, 322.3836669921875
0, 7, 36, 331.1272277832031
0, 7, 37, 324.1367797851562
0, 7, 38, 297.63134765625
0, 7, 39, 305.3865356445312
0, 7, 40, 289.2306518554688
0, 7, 41, 272.735595703125
0, 7, 42, 300.6139831542969
0, 7, 43, 275.330810546875
0, 7, 44, 306.2662658691406
0, 7, 45, 295.0902709960938
0, 7, 46, 285.1133422851562
0, 7, 47, 326.5208129882812
0, 7, 48, 286.7518615722656
0, 7, 49, 300.7982177734375
0, 7, 50, 322.1367492675781
0, 7, 51, 298.0532531738281
0, 7, 52, 326.0934448242188
0, 7, 53, 308.9936828613281
0, 7, 54, 322.2140808105469
0, 7, 55, 306.8974914550781
0, 7, 56, 278.7229614257812
0, 7, 57, 283.7967834472656
0, 7, 58, 297.5191345214844
0, 7, 59, 294.537841796875
0, 7, 60, 322.8577575683594
0, 7, 61, 278.8404235839844
0, 7, 62, 298.6463928222656
0, 7, 63, 294.2640075683594
0, 7, 64, 306.8796997070312
0, 7, 65, 330.5175476074219
0, 7, 66, 320.5818176269531
0, 7, 67, 302.2526245117188
0, 7, 68, 279.8394470214844
0, 7, 69, 295.8196716308594
0, 7, 70, 301.1894226074219
0, 7, 71, 311.6411743164062
0, 7, 72, 284.2288208007812
0, 7, 73, 296.1034851074219
0, 7, 74, 343.4520263671875
0, 7, 75, 319.0462951660156
0, 7, 76, 325.939453125
0, 7, 77, 279.8682861328125
0, 7, 78, 304.3001708984375
0, 7, 79, 296.9780578613281
0, 7, 80, 310.4916687011719
0, 7, 81, 321.6372680664062
0, 7, 82, 332.2806701660156
0, 7, 83, 317.0978698730469
0, 7, 84, 309.805908203125
0, 7, 85, 272.0899963378906
0, 7, 86, 310.6326904296875
0, 7, 87, 311.2912292480469
0, 7, 88, 306.4059143066406
0, 7, 89, 293.0432739257812
0, 7, 90, 309.1149597167969
0, 7, 91, 315.4007873535156
0, 7, 92, 288.1413879394531
0, 7, 93, 308.2569885253906
0, 7, 94, 274.0998229980469
0, 7, 95, 295.6154479980469
0, 7, 96, 331.7003479003906
0, 7, 97, 295.8654479980469
0, 7, 98, 290.6139221191406
0, 7, 99, 310.0803527832031
0, 7, 100, 282.2550659179688
0, 7, 101, 274.8909606933594
0, 7, 102, 290.8682861328125
0, 7, 103, 292.8808288574219
0, 7, 104, 274.0991516113281
0, 7, 105, 305.995849609375
0, 7, 106, 317.0271606445312
0, 7, 107, 297.775634765625
0, 7, 108, 274.7221984863281
0, 7, 109, 237.5167083740234
0, 7, 110, 96.81907653808594
0, 7, 111, 24.49868774414062
0, 7, 112, 13.81945610046387
0, 7, 113, 13.80755805969238
0, 7, 114, 11.84993743896484
0, 7, 115, 11.77414608001709
0, 7, 116, 8.44542407989502
0, 7, 117, 4.493068695068359
0, 7, 118, 6.812490463256836
0, 7, 119, 7.570781707763672
0, 7, 120, 4.731872081756592
0, 7, 121, 6.935843467712402
0, 7, 122, 5.883118152618408
0, 7, 123, 8.485610008239746
0, 7, 124, 3.603976011276245
0, 7, 125, 5.115882396697998
0, 7, 126, 9.493282318115234
0, 7, 127, 5.925650119781494
0, 8, 0, 4.744969844818115
0, 8, 1, 2.726571083068848
0, 8, 2, 3.363326072692871
0, 8, 3, 2.430531740188599
0, 8, 4, 4.128705501556396
0, 8, 5, 3.958754539489746
0, 8, 6, 7.001550197601318
0, 8, 7, 6.861371040344238
0, 8, 8, 8.11574649810791
0, 8, 9, 6.698508739471436
0, 8, 10, 8.666388511657715
0, 8, 11, 12.55721282958984
0, 8, 12, 13.48725032806396
0, 8, 13, 15.30115032196045
0, 8, 14, 13.92604827880859
0, 8, 15, 17.85783386230469
0, 8, 16, 31.74802017211914
0, 8, 17, 129.8671875
0, 8, 18, 243.0454406738281
0, 8, 19, 296.4036865234375
0, 8, 20, 284.8690795898438
0, 8, 21, 306.731689453125
0, 8, 22, 295.4903259277344
0, 8, 23, 274.8756408691406
0, 8, 24, 270.4780578613281
0, 8, 25, 274.0825805664062
0, 8, 26, 306.4763793945312
0, 8, 27, 306.9356994628906
0, 8, 28, 303.6457214355469
0, 8, 29, 320.5506591796875
0, 8, 30, 312.9296569824219
0, 8, 31, 306.1982421875
0, 8, 32, 280.9231872558594
0, 8, 33, 295.675537109375
0, 8, 34, 289.2833557128906
0, 8, 35, 281.3494567871094
0, 8, 36, 316.209716796875
0, 8, 37, 341.2066650390625
0, 8, 38, 330.64111328125
0, 8, 39, 280.0509033203125
0, 8, 40, 304.5995483398438
