# TOPAS Version: 3.1.p3
# Parameter File: batch_inserts_330.txt
# Results for scorer Readout_Adipose
# Scored in component: MyBox
# X in 1 bin  of 0.75 cm
# Y in 512 bins of 0.0783984 cm
# Z in 128 bins of 0.078125 cm
# EnergyDeposit ( MeV ) : Sum   
0, 0, 0, 2.964580774307251
0, 0, 1, 2.245685577392578
0, 0, 2, 3.927161931991577
0, 0, 3, 1.755393624305725
0, 0, 4, 2.270765542984009
0, 0, 5, 3.603857517242432
0, 0, 6, 6.925513744354248
0, 0, 7, 11.15681457519531
0, 0, 8, 4.624233722686768
0, 0, 9, 4.723200798034668
0, 0, 10, 6.701212406158447
0, 0, 11, 4.871854305267334
0, 0, 12, 4.04417610168457
0, 0, 13, 4.86833381652832
0, 0, 14, 8.341397285461426
0, 0, 15, 9.121535301208496
0, 0, 16, 9.747282981872559
0, 0, 17, 8.354093551635742
0, 0, 18, 13.72802925109863
0, 0, 19, 45.04428482055664
0, 0, 20, 138.3944549560547
0, 0, 21, 222.5130462646484
0, 0, 22, 247.8548126220703
0, 0, 23, 257.1865844726562
0, 0, 24, 250.4004821777344
0, 0, 25, 258.3921508789062
0, 0, 26, 236.6733245849609
0, 0, 27, 236.0755767822266
0, 0, 28, 272.0841979980469
0, 0, 29, 253.3192443847656
0, 0, 30, 231.3408660888672
0, 0, 31, 243.3830871582031
0, 0, 32, 267.3468322753906
0, 0, 33, 259.4733276367188
0, 0, 34, 289.4699096679688
0, 0, 35, 266.6436157226562
0, 0, 36, 247.8117828369141
0, 0, 37, 253.4583282470703
0, 0, 38, 269.6568603515625
0, 0, 39, 228.1277008056641
0, 0, 40, 242.2228698730469
0, 0, 41, 265.5084228515625
0, 0, 42, 227.7762603759766
0, 0, 43, 260.1469421386719
0, 0, 44, 251.2465209960938
0, 0, 45, 254.3583679199219
0, 0, 46, 244.5873413085938
0, 0, 47, 253.6989135742188
0, 0, 48, 266.5241394042969
0, 0, 49, 275.6364440917969
0, 0, 50, 252.8793792724609
0, 0, 51, 254.5496368408203
0, 0, 52, 271.8982238769531
0, 0, 53, 292.251953125
0, 0, 54, 243.7195281982422
0, 0, 55, 241.7418060302734
0, 0, 56, 280.1425476074219
0, 0, 57, 264.1159362792969
0, 0, 58, 245.1414794921875
0, 0, 59, 270.0579528808594
0, 0, 60, 235.8433074951172
0, 0, 61, 245.3207244873047
0, 0, 62, 256.651123046875
0, 0, 63, 266.3109741210938
0, 0, 64, 255.9672393798828
0, 0, 65, 261.5557250976562
0, 0, 66, 277.20458984375
0, 0, 67, 247.0380401611328
0, 0, 68, 258.2127075195312
0, 0, 69, 264.4658508300781
0, 0, 70, 274.5974731445312
0, 0, 71, 238.1045989990234
0, 0, 72, 252.6055450439453
0, 0, 73, 257.0782775878906
0, 0, 74, 250.3542938232422
0, 0, 75, 242.2226409912109
0, 0, 76, 229.0631561279297
0, 0, 77, 261.4094543457031
0, 0, 78, 255.3409576416016
0, 0, 79, 279.4838256835938
0, 0, 80, 217.0427703857422
0, 0, 81, 266.527587890625
0, 0, 82, 258.0939636230469
0, 0, 83, 244.4975891113281
0, 0, 84, 267.104248046875
0, 0, 85, 231.548095703125
0, 0, 86, 254.0435333251953
0, 0, 87, 249.8625793457031
0, 0, 88, 260.8937683105469
0, 0, 89, 283.1547546386719
0, 0, 90, 245.5332641601562
0, 0, 91, 281.150146484375
0, 0, 92, 252.2501831054688
0, 0, 93, 250.1776275634766
0, 0, 94, 248.4242706298828
0, 0, 95, 248.0886535644531
0, 0, 96, 275.339111328125
0, 0, 97, 272.4236450195312
0, 0, 98, 273.0416564941406
0, 0, 99, 258.1607971191406
0, 0, 100, 259.217041015625
0, 0, 101, 224.8638000488281
0, 0, 102, 232.6925964355469
0, 0, 103, 270.8653564453125
0, 0, 104, 254.2412109375
0, 0, 105, 251.6962890625
0, 0, 106, 248.1705474853516
0, 0, 107, 153.1780853271484
0, 0, 108, 37.79883575439453
0, 0, 109, 11.24260997772217
0, 0, 110, 12.20830249786377
0, 0, 111, 9.509843826293945
0, 0, 112, 6.545340538024902
0, 0, 113, 5.159876346588135
0, 0, 114, 5.916323661804199
0, 0, 115, 4.223340511322021
0, 0, 116, 6.280251979827881
0, 0, 117, 6.557114124298096
0, 0, 118, 6.38156270980835
0, 0, 119, 6.575224876403809
0, 0, 120, 2.746087789535522
0, 0, 121, 4.786696910858154
0, 0, 122, 5.666247367858887
0, 0, 123, 6.114830017089844
0, 0, 124, 5.790215015411377
0, 0, 125, 1.792261123657227
0, 0, 126, 4.349969387054443
0, 0, 127, 4.396141052246094
0, 1, 0, 7.490944385528564
0, 1, 1, 5.059403419494629
0, 1, 2, 3.993029594421387
0, 1, 3, 1.029166340827942
0, 1, 4, 3.650152921676636
0, 1, 5, 3.974306106567383
0, 1, 6, 2.934440612792969
0, 1, 7, 2.178457975387573
0, 1, 8, 6.784467697143555
0, 1, 9, 5.917942523956299
0, 1, 10, 7.825971603393555
0, 1, 11, 11.31050968170166
0, 1, 12, 8.428116798400879
0, 1, 13, 11.45027923583984
0, 1, 14, 7.100246906280518
0, 1, 15, 8.530055046081543
0, 1, 16, 10.57472705841064
0, 1, 17, 11.72740936279297
0, 1, 18, 21.03542709350586
0, 1, 19, 69.00199127197266
0, 1, 20, 199.1699523925781
0, 1, 21, 255.1720886230469
0, 1, 22, 296.2796020507812
0, 1, 23, 286.0142822265625
0, 1, 24, 276.3955688476562
0, 1, 25, 292.0568237304688
0, 1, 26, 269.199462890625
0, 1, 27, 305.8435363769531
0, 1, 28, 299.3574829101562
0, 1, 29, 297.2576904296875
0, 1, 30, 280.9659729003906
0, 1, 31, 291.3893737792969
0, 1, 32, 289.873046875
0, 1, 33, 297.1534423828125
0, 1, 34, 291.8948974609375
0, 1, 35, 278.88134765625
0, 1, 36, 307.2988586425781
0, 1, 37, 297.7402648925781
0, 1, 38, 279.9901733398438
0, 1, 39, 297.6111145019531
0, 1, 40, 267.5479125976562
0, 1, 41, 285.8904724121094
0, 1, 42, 289.7718811035156
0, 1, 43, 331.6648254394531
0, 1, 44, 278.0733337402344
0, 1, 45, 291.4599914550781
0, 1, 46, 259.9801025390625
0, 1, 47, 312.2765502929688
0, 1, 48, 284.5054016113281
0, 1, 49, 301.3135070800781
0, 1, 50, 265.6949768066406
0, 1, 51, 271.0197448730469
0, 1, 52, 293.8591003417969
0, 1, 53, 306.3785400390625
0, 1, 54, 273.8036499023438
0, 1, 55, 293.4065246582031
0, 1, 56, 276.7268981933594
0, 1, 57, 296.5989379882812
0, 1, 58, 310.295166015625
0, 1, 59, 294.2856140136719
0, 1, 60, 297.1097106933594
0, 1, 61, 273.0769348144531
0, 1, 62, 306.6794128417969
0, 1, 63, 290.2564697265625
0, 1, 64, 288.8811950683594
0, 1, 65, 295.6481323242188
0, 1, 66, 291.9121398925781
0, 1, 67, 291.4881896972656
0, 1, 68, 277.064453125
0, 1, 69, 278.977783203125
0, 1, 70, 270.2643432617188
0, 1, 71, 272.720458984375
0, 1, 72, 287.5162963867188
0, 1, 73, 304.770263671875
0, 1, 74, 303.3284912109375
0, 1, 75, 294.0159606933594
0, 1, 76, 286.7238464355469
0, 1, 77, 289.0398559570312
0, 1, 78, 296.4960021972656
0, 1, 79, 302.2684631347656
0, 1, 80, 295.9410705566406
0, 1, 81, 300.2210693359375
0, 1, 82, 283.2692260742188
0, 1, 83, 330.928955078125
0, 1, 84, 310.2516479492188
0, 1, 85, 254.5756683349609
0, 1, 86, 296.1030883789062
0, 1, 87, 291.0005493164062
0, 1, 88, 299.1944580078125
0, 1, 89, 289.3855895996094
0, 1, 90, 270.5308837890625
0, 1, 91, 316.8482666015625
0, 1, 92, 290.4083251953125
0, 1, 93, 287.4591369628906
0, 1, 94, 303.2372131347656
0, 1, 95, 284.2151489257812
0, 1, 96, 283.7736206054688
0, 1, 97, 302.2597961425781
0, 1, 98, 277.05615234375
0, 1, 99, 265.0741577148438
0, 1, 100, 276.5933227539062
0, 1, 101, 281.4928283691406
0, 1, 102, 277.0284118652344
0, 1, 103, 280.86962890625
0, 1, 104, 307.1719055175781
0, 1, 105, 296.660888671875
0, 1, 106, 260.8876037597656
0, 1, 107, 191.361572265625
0, 1, 108, 81.30464935302734
0, 1, 109, 22.63980293273926
0, 1, 110, 11.97634696960449
0, 1, 111, 9.313092231750488
0, 1, 112, 12.57119369506836
0, 1, 113, 6.170843124389648
0, 1, 114, 6.022146701812744
0, 1, 115, 7.346582889556885
0, 1, 116, 10.85699558258057
0, 1, 117, 7.406262874603271
0, 1, 118, 5.104121685028076
0, 1, 119, 7.624094486236572
0, 1, 120, 6.318903923034668
0, 1, 121, 4.151515007019043
0, 1, 122, 2.708460807800293
0, 1, 123, 3.450795888900757
0, 1, 124, 10.06399726867676
0, 1, 125, 4.208278656005859
0, 1, 126, 2.373052835464478
0, 1, 127, 2.010050773620605
0, 2, 0, 6.242096424102783
0, 2, 1, 1.963730096817017
0, 2, 2, 3.232853412628174
0, 2, 3, 3.710435152053833
0, 2, 4, 3.910426139831543
0, 2, 5, 1.949597239494324
0, 2, 6, 2.929120540618896
0, 2, 7, 4.690871715545654
0, 2, 8, 4.225615978240967
0, 2, 9, 6.490494728088379
0, 2, 10, 7.359127521514893
0, 2, 11, 6.223909378051758
0, 2, 12, 7.555633068084717
0, 2, 13, 11.36741065979004
0, 2, 14, 10.09625053405762
0, 2, 15, 6.39570426940918
0, 2, 16, 10.56822109222412
0, 2, 17, 18.93095016479492
0, 2, 18, 30.99802780151367
0, 2, 19, 115.0210266113281
0, 2, 20, 246.5045776367188
0, 2, 21, 270.3209838867188
0, 2, 22, 316.2897338867188
0, 2, 23, 302.5980224609375
0, 2, 24, 287.6012268066406
0, 2, 25, 303.2998046875
0, 2, 26, 292.4667053222656
0, 2, 27, 275.6866455078125
0, 2, 28, 272.7262268066406
0, 2, 29, 273.2542419433594
0, 2, 30, 291.2588500976562
0, 2, 31, 276.4686584472656
0, 2, 32, 295.0933532714844
0, 2, 33, 281.9906311035156
0, 2, 34, 331.1473693847656
0, 2, 35, 287.7253112792969
0, 2, 36, 305.2382507324219
0, 2, 37, 316.5176696777344
0, 2, 38, 311.1051635742188
0, 2, 39, 265.5994567871094
0, 2, 40, 308.2815551757812
0, 2, 41, 294.1205444335938
0, 2, 42, 301.5751953125
0, 2, 43, 312.4835815429688
0, 2, 44, 309.8190002441406
0, 2, 45, 324.137451171875
0, 2, 46, 288.1590576171875
0, 2, 47, 302.5596923828125
0, 2, 48, 280.75927734375
0, 2, 49, 278.4031372070312
0, 2, 50, 293.462890625
0, 2, 51, 284.3405456542969
0, 2, 52, 271.6292419433594
0, 2, 53, 289.5420837402344
0, 2, 54, 278.9631652832031
0, 2, 55, 273.8827514648438
0, 2, 56, 300.6122436523438
0, 2, 57, 290.7593688964844
0, 2, 58, 304.8174438476562
0, 2, 59, 291.2511291503906
0, 2, 60, 320.6257934570312
0, 2, 61, 302.0391845703125
0, 2, 62, 313.7085266113281
0, 2, 63, 301.0189819335938
0, 2, 64, 295.7985534667969
0, 2, 65, 314.5057983398438
0, 2, 66, 280.2635192871094
0, 2, 67, 290.5247497558594
0, 2, 68, 295.7169494628906
0, 2, 69, 312.0713195800781
0, 2, 70, 333.0706481933594
0, 2, 71, 288.1891784667969
0, 2, 72, 300.7520141601562
0, 2, 73, 311.8089904785156
0, 2, 74, 284.9020690917969
0, 2, 75, 303.6912841796875
0, 2, 76, 287.2620239257812
0, 2, 77, 296.6650695800781
0, 2, 78, 314.4084777832031
0, 2, 79, 309.2606201171875
0, 2, 80, 295.1184692382812
0, 2, 81, 283.5563354492188
0, 2, 82, 317.2126159667969
0, 2, 83, 314.8892822265625
0, 2, 84, 287.7098999023438
0, 2, 85, 283.2406311035156
0, 2, 86, 322.9132385253906
0, 2, 87, 285.6182861328125
0, 2, 88, 280.8681945800781
0, 2, 89, 296.3911743164062
0, 2, 90, 294.9400024414062
0, 2, 91, 275.2987976074219
0, 2, 92, 306.3525085449219
0, 2, 93, 316.5823974609375
0, 2, 94, 291.3773803710938
0, 2, 95, 315.5750427246094
0, 2, 96, 314.1638488769531
0, 2, 97, 292.4364624023438
0, 2, 98, 293.6734619140625
0, 2, 99, 274.3804321289062
0, 2, 100, 305.5722351074219
0, 2, 101, 301.912109375
0, 2, 102, 297.9586486816406
0, 2, 103, 290.9765014648438
0, 2, 104, 293.2307739257812
0, 2, 105, 274.2466125488281
0, 2, 106, 296.3982238769531
0, 2, 107, 270.5301513671875
0, 2, 108, 116.7497406005859
0, 2, 109, 31.0065860748291
0, 2, 110, 9.782757759094238
0, 2, 111, 12.90451240539551
0, 2, 112, 8.559259414672852
0, 2, 113, 9.689288139343262
0, 2, 114, 9.210372924804688
0, 2, 115, 10.09816741943359
0, 2, 116, 8.708846092224121
0, 2, 117, 5.739102363586426
0, 2, 118, 4.169458866119385
0, 2, 119, 3.770919561386108
0, 2, 120, 6.559953212738037
0, 2, 121, 3.387553930282593
0, 2, 122, 3.867759943008423
0, 2, 123, 5.430417060852051
0, 2, 124, 2.66570520401001
0, 2, 125, 5.089946269989014
0, 2, 126, 3.583853483200073
0, 2, 127, 4.674675941467285
0, 3, 0, 3.865540742874146
0, 3, 1, 3.80228590965271
0, 3, 2, 3.956409454345703
0, 3, 3, 2.504909515380859
0, 3, 4, 3.729544162750244
0, 3, 5, 6.748746871948242
0, 3, 6, 6.888493537902832
0, 3, 7, 5.821511745452881
0, 3, 8, 6.319981098175049
0, 3, 9, 4.885109901428223
0, 3, 10, 7.706563949584961
0, 3, 11, 4.00963306427002
0, 3, 12, 6.959311962127686
0, 3, 13, 18.14840126037598
0, 3, 14, 13.14213371276855
0, 3, 15, 13.60506534576416
0, 3, 16, 12.44390869140625
0, 3, 17, 19.9069766998291
0, 3, 18, 51.27534103393555
0, 3, 19, 179.7615051269531
0, 3, 20, 269.8486022949219
0, 3, 21, 273.0482482910156
0, 3, 22, 282.6263732910156
0, 3, 23, 286.2189331054688
0, 3, 24, 288.4538269042969
0, 3, 25, 272.1283874511719
0, 3, 26, 303.6473083496094
0, 3, 27, 291.5051574707031
0, 3, 28, 282.0254211425781
0, 3, 29, 338.9459533691406
0, 3, 30, 316.8245544433594
0, 3, 31, 284.5663146972656
0, 3, 32, 306.5733337402344
0, 3, 33, 313.3589172363281
0, 3, 34, 321.5023803710938
0, 3, 35, 308.3707275390625
0, 3, 36, 270.5110778808594
0, 3, 37, 313.1866149902344
0, 3, 38, 302.2838439941406
0, 3, 39, 293.1478576660156
0, 3, 40, 265.8739624023438
0, 3, 41, 299.334716796875
0, 3, 42, 285.3945007324219
0, 3, 43, 305.5681457519531
0, 3, 44, 312.0457153320312
0, 3, 45, 290.4638977050781
0, 3, 46, 327.5359802246094
0, 3, 47, 299.2013244628906
0, 3, 48, 301.3456726074219
0, 3, 49, 275.7650146484375
0, 3, 50, 290.1555786132812
0, 3, 51, 274.7384948730469
0, 3, 52, 315.7627258300781
0, 3, 53, 285.6641845703125
0, 3, 54, 283.65283203125
0, 3, 55, 284.7113037109375
0, 3, 56, 298.6163940429688
0, 3, 57, 289.2754516601562
0, 3, 58, 307.011474609375
0, 3, 59, 293.9544067382812
0, 3, 60, 297.4815673828125
0, 3, 61, 264.2848510742188
0, 3, 62, 283.1888122558594
0, 3, 63, 307.3335876464844
0, 3, 64, 317.5841369628906
0, 3, 65, 306.0606994628906
0, 3, 66, 314.4215698242188
0, 3, 67, 318.8564147949219
0, 3, 68, 279.5182189941406
0, 3, 69, 283.145751953125
0, 3, 70, 288.1174926757812
0, 3, 71, 299.0433654785156
0, 3, 72, 269.4457397460938
0, 3, 73, 309.341796875
0, 3, 74, 295.1853332519531
0, 3, 75, 288.7080383300781
0, 3, 76, 307.0470275878906
0, 3, 77, 313.6974182128906
0, 3, 78, 306.2348937988281
0, 3, 79, 281.37646484375
0, 3, 80, 291.5614929199219
0, 3, 81, 309.9719848632812
0, 3, 82, 315.7085876464844
0, 3, 83, 300.6204528808594
0, 3, 84, 313.6697998046875
0, 3, 85, 291.8878784179688
0, 3, 86, 305.3180541992188
0, 3, 87, 297.736083984375
0, 3, 88, 296.7334594726562
0, 3, 89, 298.3581237792969
0, 3, 90, 278.1008605957031
0, 3, 91, 284.4611206054688
0, 3, 92, 305.4728088378906
0, 3, 93, 313.9060363769531
0, 3, 94, 296.5556335449219
0, 3, 95, 336.171142578125
0, 3, 96, 289.9982604980469
0, 3, 97, 283.66455078125
0, 3, 98, 281.0117492675781
0, 3, 99, 262.4903564453125
0, 3, 100, 285.4071655273438
0, 3, 101, 298.0097045898438
0, 3, 102, 273.7396850585938
0, 3, 103, 320.0736083984375
0, 3, 104, 308.0093078613281
0, 3, 105, 287.0755615234375
0, 3, 106, 301.5083312988281
0, 3, 107, 280.2619323730469
0, 3, 108, 170.7800598144531
0, 3, 109, 57.75555419921875
0, 3, 110, 16.75571823120117
0, 3, 111, 12.07580184936523
0, 3, 112, 13.28519916534424
0, 3, 113, 7.408305644989014
0, 3, 114, 10.16093158721924
0, 3, 115, 8.380719184875488
0, 3, 116, 7.297936916351318
0, 3, 117, 7.997974395751953
0, 3, 118, 7.256051540374756
0, 3, 119, 7.692341804504395
0, 3, 120, 2.909943103790283
0, 3, 121, 2.274843454360962
0, 3, 122, 4.776576042175293
0, 3, 123, 7.037282943725586
0, 3, 124, 2.534624814987183
0, 3, 125, 5.272845268249512
0, 3, 126, 5.128886222839355
0, 3, 127, 2.446625947952271
0, 4, 0, 2.666377067565918
0, 4, 1, 4.017922401428223
0, 4, 2, 2.479647397994995
0, 4, 3, 1.888414859771729
0, 4, 4, 5.304258823394775
0, 4, 5, 9.647547721862793
0, 4, 6, 5.941359043121338
0, 4, 7, 4.751517772674561
0, 4, 8, 4.201910972595215
0, 4, 9, 6.673604488372803
0, 4, 10, 7.778221607208252
0, 4, 11, 6.587172508239746
0, 4, 12, 11.11732006072998
0, 4, 13, 9.025091171264648
0, 4, 14, 11.00320339202881
0, 4, 15, 8.366222381591797
0, 4, 16, 14.71700382232666
0, 4, 17, 17.43285942077637
0, 4, 18, 92.0035400390625
0, 4, 19, 222.8936614990234
0, 4, 20, 284.4951477050781
0, 4, 21, 273.1831359863281
0, 4, 22, 303.7949523925781
0, 4, 23, 267.26123046875
0, 4, 24, 290.1666259765625
0, 4, 25, 271.5769653320312
0, 4, 26, 295.4787902832031
0, 4, 27, 282.4905700683594
0, 4, 28, 307.2727355957031
0, 4, 29, 325.3691101074219
0, 4, 30, 310.1072387695312
0, 4, 31, 305.4597778320312
0, 4, 32, 281.4140930175781
0, 4, 33, 295.263427734375
0, 4, 34, 297.1583862304688
0, 4, 35, 312.0311279296875
0, 4, 36, 292.6578979492188
0, 4, 37, 284.8026733398438
0, 4, 38, 298.3004760742188
0, 4, 39, 295.0367431640625
0, 4, 40, 303.359130859375
0, 4, 41, 312.6075134277344
0, 4, 42, 330.3994750976562
0, 4, 43, 295.6452941894531
0, 4, 44, 321.6378479003906
0, 4, 45, 326.1477966308594
0, 4, 46, 305.8567199707031
0, 4, 47, 292.8917846679688
0, 4, 48, 298.6741638183594
0, 4, 49, 278.0824279785156
0, 4, 50, 295.4387512207031
0, 4, 51, 318.24365234375
0, 4, 52, 327.1325988769531
0, 4, 53, 303.259765625
0, 4, 54, 287.3147583007812
0, 4, 55, 314.7046203613281
0, 4, 56, 287.7304077148438
0, 4, 57, 309.0661315917969
0, 4, 58, 297.7529907226562
0, 4, 59, 307.9287109375
0, 4, 60, 304.6639404296875
0, 4, 61, 315.5550537109375
0, 4, 62, 311.52294921875
0, 4, 63, 299.3698425292969
0, 4, 64, 329.0809326171875
0, 4, 65, 314.1286926269531
0, 4, 66, 294.7134399414062
0, 4, 67, 284.3987426757812
0, 4, 68, 311.5079040527344
0, 4, 69, 275.1272888183594
0, 4, 70, 299.9876403808594
0, 4, 71, 322.1977844238281
0, 4, 72, 332.3089294433594
0, 4, 73, 299.088134765625
0, 4, 74, 292.3558349609375
0, 4, 75, 290.6683654785156
0, 4, 76, 275.0411682128906
0, 4, 77, 279.462890625
0, 4, 78, 307.9117126464844
0, 4, 79, 318.7266540527344
0, 4, 80, 316.2406921386719
0, 4, 81, 312.1293334960938
0, 4, 82, 297.379638671875
0, 4, 83, 301.0763854980469
0, 4, 84, 295.1919250488281
0, 4, 85, 295.0603637695312
0, 4, 86, 299.4243774414062
0, 4, 87, 285.5506286621094
0, 4, 88, 306.0143432617188
0, 4, 89, 296.2581481933594
0, 4, 90, 331.8809814453125
0, 4, 91, 301.9216003417969
0, 4, 92, 288.6614379882812
0, 4, 93, 297.1599731445312
0, 4, 94, 295.0747375488281
0, 4, 95, 288.8618774414062
0, 4, 96, 324.4017944335938
0, 4, 97, 272.7901611328125
0, 4, 98, 326.3436279296875
0, 4, 99, 312.7488708496094
0, 4, 100, 303.5209655761719
0, 4, 101, 259.7565612792969
0, 4, 102, 298.7642517089844
0, 4, 103, 317.4229736328125
0, 4, 104, 280.5760498046875
0, 4, 105, 310.6078796386719
0, 4, 106, 286.021240234375
0, 4, 107, 295.5692443847656
0, 4, 108, 227.3969421386719
0, 4, 109, 81.01784515380859
0, 4, 110, 15.6129264831543
0, 4, 111, 13.11236381530762
0, 4, 112, 8.668102264404297
0, 4, 113, 9.79263973236084
0, 4, 114, 7.945652008056641
0, 4, 115, 9.849433898925781
0, 4, 116, 7.474648952484131
0, 4, 117, 7.723311424255371
0, 4, 118, 9.515349388122559
0, 4, 119, 9.544964790344238
0, 4, 120, 6.741897583007812
0, 4, 121, 3.610939502716064
0, 4, 122, 5.634504795074463
0, 4, 123, 6.932787418365479
0, 4, 124, 5.948474884033203
0, 4, 125, 9.24742603302002
0, 4, 126, 4.055537223815918
0, 4, 127, 3.958365917205811
0, 5, 0, 6.43941593170166
0, 5, 1, 4.015762329101562
0, 5, 2, 4.241285800933838
0, 5, 3, 3.914670467376709
0, 5, 4, 5.315626621246338
0, 5, 5, 7.70464563369751
0, 5, 6, 4.538779735565186
0, 5, 7, 4.424081802368164
0, 5, 8, 6.210332870483398
0, 5, 9, 4.91464376449585
0, 5, 10, 7.963117599487305
0, 5, 11, 8.028568267822266
0, 5, 12, 8.984882354736328
0, 5, 13, 5.995177745819092
0, 5, 14, 12.04630661010742
0, 5, 15, 16.40162086486816
0, 5, 16, 15.11174392700195
0, 5, 17, 29.60984230041504
0, 5, 18, 137.6050415039062
0, 5, 19, 287.7097473144531
0, 5, 20, 307.9102783203125
0, 5, 21, 316.494384765625
0, 5, 22, 276.3029479980469
0, 5, 23, 309.9817810058594
0, 5, 24, 301.3062438964844
0, 5, 25, 288.9036865234375
0, 5, 26, 293.4658813476562
0, 5, 27, 321.8658142089844
0, 5, 28, 304.5074462890625
0, 5, 29, 300.2268371582031
0, 5, 30, 324.3963623046875
0, 5, 31, 286.8734436035156
0, 5, 32, 303.104248046875
0, 5, 33, 304.6393432617188
0, 5, 34, 296.2874450683594
0, 5, 35, 308.5148010253906
0, 5, 36, 267.8739318847656
0, 5, 37, 282.4061279296875
0, 5, 38, 292.1671142578125
0, 5, 39, 314.2510375976562
0, 5, 40, 308.6298217773438
0, 5, 41, 272.5317077636719
0, 5, 42, 305.4943237304688
0, 5, 43, 315.3835144042969
0, 5, 44, 291.4461669921875
0, 5, 45, 303.8338012695312
0, 5, 46, 265.7700500488281
0, 5, 47, 279.1193237304688
0, 5, 48, 292.3724365234375
0, 5, 49, 288.7138671875
0, 5, 50, 294.5762329101562
0, 5, 51, 279.2476196289062
0, 5, 52, 268.0359802246094
0, 5, 53, 284.8663330078125
0, 5, 54, 292.4176330566406
0, 5, 55, 343.9072875976562
0, 5, 56, 306.8629760742188
0, 5, 57, 311.6512756347656
0, 5, 58, 314.0490112304688
0, 5, 59, 302.9875793457031
0, 5, 60, 309.5102233886719
0, 5, 61, 281.8336181640625
0, 5, 62, 327.1434020996094
0, 5, 63, 291.3439025878906
0, 5, 64, 321.6380920410156
0, 5, 65, 310.2301635742188
0, 5, 66, 326.5901489257812
0, 5, 67, 310.1543579101562
0, 5, 68, 306.5691528320312
0, 5, 69, 310.9303283691406
0, 5, 70, 301.4959716796875
0, 5, 71, 271.9060668945312
0, 5, 72, 309.998291015625
0, 5, 73, 302.3348388671875
0, 5, 74, 295.4396057128906
0, 5, 75, 294.7634582519531
0, 5, 76, 285.3355407714844
0, 5, 77, 300.2461547851562
0, 5, 78, 316.8478698730469
0, 5, 79, 308.5058898925781
0, 5, 80, 296.5620727539062
0, 5, 81, 326.931396484375
0, 5, 82, 323.4043579101562
0, 5, 83, 282.8571166992188
0, 5, 84, 301.6205139160156
0, 5, 85, 270.4539794921875
0, 5, 86, 324.5923767089844
0, 5, 87, 286.331787109375
0, 5, 88, 313.9430236816406
0, 5, 89, 306.9234313964844
0, 5, 90, 315.4960021972656
0, 5, 91, 314.6787109375
0, 5, 92, 297.6461486816406
0, 5, 93, 325.3157348632812
0, 5, 94, 307.0009460449219
0, 5, 95, 297.7086791992188
0, 5, 96, 296.3145446777344
0, 5, 97, 295.6419677734375
0, 5, 98, 318.5890502929688
0, 5, 99, 302.8733215332031
0, 5, 100, 290.1398315429688
0, 5, 101, 305.6322631835938
0, 5, 102, 292.6994323730469
0, 5, 103, 313.2510375976562
0, 5, 104, 304.0245666503906
0, 5, 105, 292.5339660644531
0, 5, 106, 280.9313659667969
0, 5, 107, 292.793212890625
0, 5, 108, 263.8705444335938
0, 5, 109, 159.5987396240234
0, 5, 110, 40.01779937744141
0, 5, 111, 20.81616592407227
0, 5, 112, 16.28048324584961
0, 5, 113, 14.53495121002197
0, 5, 114, 13.06457805633545
0, 5, 115, 6.867847919464111
0, 5, 116, 7.864678382873535
0, 5, 117, 8.176238059997559
0, 5, 118, 12.96665287017822
0, 5, 119, 5.154560089111328
0, 5, 120, 5.069146156311035
0, 5, 121, 4.574754238128662
0, 5, 122, 4.678053855895996
0, 5, 123, 4.350567817687988
0, 5, 124, 6.490252494812012
0, 5, 125, 4.793328285217285
0, 5, 126, 6.334600925445557
0, 5, 127, 2.273212432861328
0, 6, 0, 4.199408054351807
0, 6, 1, 2.422814607620239
0, 6, 2, 4.235861301422119
0, 6, 3, 7.413970947265625
0, 6, 4, 3.728823661804199
0, 6, 5, 5.23795223236084
0, 6, 6, 7.846014499664307
0, 6, 7, 6.751145362854004
0, 6, 8, 7.750527381896973
0, 6, 9, 6.67542028427124
0, 6, 10, 7.584755897521973
0, 6, 11, 7.871176242828369
0, 6, 12, 10.04719829559326
0, 6, 13, 13.34194374084473
0, 6, 14, 7.238850116729736
0, 6, 15, 17.04630088806152
0, 6, 16, 29.47557258605957
0, 6, 17, 55.46973037719727
0, 6, 18, 174.0715179443359
0, 6, 19, 276.4164733886719
0, 6, 20, 290.5433654785156
0, 6, 21, 317.052978515625
0, 6, 22, 322.6372985839844
0, 6, 23, 305.8692932128906
0, 6, 24, 317.3070678710938
0, 6, 25, 317.6575927734375
0, 6, 26, 318.806884765625
0, 6, 27, 330.1735229492188
0, 6, 28, 298.1453857421875
0, 6, 29, 330.2284851074219
0, 6, 30, 281.2072143554688
0, 6, 31, 285.7043151855469
0, 6, 32, 340.4989013671875
0, 6, 33, 299.3470764160156
0, 6, 34, 339.041259765625
0, 6, 35, 319.609619140625
0, 6, 36, 273.1845092773438
0, 6, 37, 288.657958984375
0, 6, 38, 311.1744689941406
0, 6, 39, 301.3719787597656
0, 6, 40, 281.81494140625
0, 6, 41, 293.92236328125
0, 6, 42, 306.8804321289062
0, 6, 43, 290.2210388183594
0, 6, 44, 280.5366821289062
0, 6, 45, 321.6858520507812
0, 6, 46, 301.3760070800781
0, 6, 47, 335.4844055175781
0, 6, 48, 294.7847290039062
0, 6, 49, 311.8072509765625
0, 6, 50, 330.3438720703125
0, 6, 51, 311.1231689453125
0, 6, 52, 320.7504577636719
0, 6, 53, 325.8541259765625
0, 6, 54, 305.2503662109375
0, 6, 55, 306.5534057617188
0, 6, 56, 294.7440490722656
0, 6, 57, 311.9894104003906
0, 6, 58, 264.1114501953125
0, 6, 59, 300.9270935058594
0, 6, 60, 315.7294921875
0, 6, 61, 272.0384216308594
0, 6, 62, 338.1370849609375
0, 6, 63, 322.7828063964844
0, 6, 64, 290.7120056152344
0, 6, 65, 284.0843505859375
0, 6, 66, 303.9873046875
0, 6, 67, 310.8055114746094
0, 6, 68, 293.1481628417969
0, 6, 69, 278.2189025878906
0, 6, 70, 275.1446533203125
0, 6, 71, 289.7565002441406
0, 6, 72, 312.5843505859375
0, 6, 73, 292.2351379394531
0, 6, 74, 329.4658813476562
0, 6, 75, 344.2290649414062
0, 6, 76, 297.1160583496094
0, 6, 77, 287.5482177734375
0, 6, 78, 279.760986328125
0, 6, 79, 292.3709716796875
0, 6, 80, 300.97607421875
0, 6, 81, 313.4571838378906
0, 6, 82, 319.9943237304688
0, 6, 83, 318.7423095703125
0, 6, 84, 295.6407470703125
0, 6, 85, 299.9952087402344
0, 6, 86, 330.2019348144531
0, 6, 87, 294.6739196777344
0, 6, 88, 306.9097595214844
0, 6, 89, 304.8218078613281
0, 6, 90, 298.2006225585938
0, 6, 91, 314.8721008300781
0, 6, 92, 285.9927978515625
0, 6, 93, 294.5021057128906
0, 6, 94, 274.4238586425781
0, 6, 95, 299.8640747070312
0, 6, 96, 348.2592468261719
0, 6, 97, 308.7572021484375
0, 6, 98, 301.2720642089844
0, 6, 99, 269.9088439941406
0, 6, 100, 308.6160888671875
0, 6, 101, 293.9939270019531
0, 6, 102, 308.5791320800781
0, 6, 103, 307.7782287597656
0, 6, 104, 292.0217590332031
0, 6, 105, 302.6306762695312
0, 6, 106, 307.95556640625
0, 6, 107, 306.1362915039062
0, 6, 108, 265.99609375
0, 6, 109, 185.9366302490234
0, 6, 110, 56.83156967163086
0, 6, 111, 21.58932685852051
0, 6, 112, 12.45903491973877
0, 6, 113, 11.61995410919189
0, 6, 114, 11.80839443206787
0, 6, 115, 11.54014205932617
0, 6, 116, 8.508890151977539
0, 6, 117, 6.270081520080566
0, 6, 118, 10.78622531890869
0, 6, 119, 6.961825847625732
0, 6, 120, 5.990290641784668
0, 6, 121, 5.70032262802124
0, 6, 122, 5.574112415313721
0, 6, 123, 3.270578384399414
0, 6, 124, 6.276145458221436
0, 6, 125, 7.513791561126709
0, 6, 126, 5.21414041519165
0, 6, 127, 5.479291439056396
0, 7, 0, 9.050172805786133
0, 7, 1, 5.493011474609375
0, 7, 2, 5.976222038269043
0, 7, 3, 4.458403587341309
0, 7, 4, 2.971436500549316
0, 7, 5, 6.131142616271973
0, 7, 6, 7.385069370269775
0, 7, 7, 7.642409324645996
0, 7, 8, 4.707712173461914
0, 7, 9, 5.995518207550049
0, 7, 10, 9.165427207946777
0, 7, 11, 9.167599678039551
0, 7, 12, 10.77543830871582
0, 7, 13, 13.72975730895996
0, 7, 14, 10.61877059936523
0, 7, 15, 17.35238456726074
0, 7, 16, 26.40512847900391
0, 7, 17, 96.79373168945312
0, 7, 18, 221.0540008544922
0, 7, 19, 288.6761474609375
0, 7, 20, 296.3169555664062
0, 7, 21, 277.2709655761719
0, 7, 22, 299.1315612792969
0, 7, 23, 290.1013793945312
0, 7, 24, 312.1334533691406
0, 7, 25, 324.4110412597656
0, 7, 26, 276.5883178710938
0, 7, 27, 299.1763000488281
0, 7, 28, 325.4486083984375
0, 7, 29, 317.2703247070312
0, 7, 30, 305.1893920898438
0, 7, 31, 281.4305114746094
0, 7, 32, 306.795654296875
0, 7, 33, 265.5026245117188
0, 7, 34, 301.029541015625
0, 7, 35, 323.1098937988281
0, 7, 36, 331.8461608886719
0, 7, 37, 325.3152465820312
0, 7, 38, 296.1944580078125
0, 7, 39, 307.1829223632812
0, 7, 40, 290.0174255371094
0, 7, 41, 271.2695922851562
0, 7, 42, 299.81103515625
0, 7, 43, 272.9922180175781
0, 7, 44, 303.9122009277344
0, 7, 45, 294.1728210449219
0, 7, 46, 280.9780883789062
0, 7, 47, 329.7757263183594
0, 7, 48, 285.9638061523438
0, 7, 49, 301.9216003417969
0, 7, 50, 322.2409362792969
0, 7, 51, 299.6722412109375
0, 7, 52, 326.2764282226562
0, 7, 53, 311.4413452148438
0, 7, 54, 323.3920288085938
0, 7, 55, 308.2152099609375
0, 7, 56, 279.3088073730469
0, 7, 57, 281.0288391113281
0, 7, 58, 294.2043151855469
0, 7, 59, 292.6112670898438
0, 7, 60, 324.8042602539062
0, 7, 61, 278.5242309570312
0, 7, 62, 300.0434265136719
0, 7, 63, 291.6908264160156
0, 7, 64, 309.2010498046875
0, 7, 65, 331.2459716796875
0, 7, 66, 319.3133850097656
0, 7, 67, 301.8716125488281
0, 7, 68, 279.934326171875
0, 7, 69, 294.6876525878906
0, 7, 70, 303.8812866210938
0, 7, 71, 309.1448364257812
0, 7, 72, 283.657470703125
0, 7, 73, 297.8338012695312
0, 7, 74, 344.7304077148438
0, 7, 75, 318.5143737792969
0, 7, 76, 323.8360900878906
0, 7, 77, 280.0785522460938
0, 7, 78, 300.4256591796875
0, 7, 79, 299.3984375
0, 7, 80, 313.8631896972656
0, 7, 81, 319.2869262695312
0, 7, 82, 328.1887817382812
0, 7, 83, 315.5588989257812
0, 7, 84, 311.7807006835938
0, 7, 85, 272.7505187988281
0, 7, 86, 311.4084167480469
0, 7, 87, 310.5398254394531
0, 7, 88, 309.285400390625
0, 7, 89, 292.4632568359375
0, 7, 90, 305.5025634765625
0, 7, 91, 313.3455200195312
0, 7, 92, 287.4507751464844
0, 7, 93, 306.8221130371094
0, 7, 94, 272.4380798339844
0, 7, 95, 294.6033325195312
0, 7, 96, 332.9140319824219
0, 7, 97, 295.9537963867188
0, 7, 98, 291.3020324707031
0, 7, 99, 311.7270202636719
0, 7, 100, 281.1378479003906
0, 7, 101, 273.9815063476562
0, 7, 102, 291.3932495117188
0, 7, 103, 293.04052734375
0, 7, 104, 274.6044006347656
0, 7, 105, 305.7842712402344
0, 7, 106, 317.1189575195312
0, 7, 107, 297.0594482421875
0, 7, 108, 273.3148803710938
0, 7, 109, 235.9065551757812
0, 7, 110, 96.79206848144531
0, 7, 111, 24.69668197631836
0, 7, 112, 13.54344844818115
0, 7, 113, 15.12714862823486
0, 7, 114, 15.55618762969971
0, 7, 115, 11.72966957092285
0, 7, 116, 8.216164588928223
0, 7, 117, 6.952203750610352
0, 7, 118, 10.27741241455078
0, 7, 119, 6.05327033996582
0, 7, 120, 4.233053684234619
0, 7, 121, 10.08604621887207
0, 7, 122, 8.153552055358887
0, 7, 123, 6.437284469604492
0, 7, 124, 3.805891036987305
0, 7, 125, 7.940107822418213
0, 7, 126, 9.195693016052246
0, 7, 127, 2.462223529815674
0, 8, 0, 3.100896120071411
0, 8, 1, 5.004534721374512
0, 8, 2, 5.886520862579346
0, 8, 3, 3.718133211135864
0, 8, 4, 5.418606281280518
0, 8, 5, 4.498073101043701
0, 8, 6, 4.904484748840332
0, 8, 7, 5.980372428894043
0, 8, 8, 7.997677803039551
0, 8, 9, 5.296599864959717
0, 8, 10, 9.280994415283203
0, 8, 11, 12.44895267486572
0, 8, 12, 12.33949089050293
0, 8, 13, 15.93941402435303
0, 8, 14, 14.22690486907959
0, 8, 15, 20.11745643615723
0, 8, 16, 32.00214004516602
0, 8, 17, 129.7409515380859
0, 8, 18, 241.6295928955078
0, 8, 19, 293.95703125
0, 8, 20, 286.0932312011719
0, 8, 21, 307.7868347167969
0, 8, 22, 298.4569702148438
0, 8, 23, 273.99169921875
0, 8, 24, 268.6535339355469
0, 8, 25, 276.5141296386719
0, 8, 26, 306.207275390625
0, 8, 27, 307.7974243164062
0, 8, 28, 302.7619323730469
0, 8, 29, 321.2714233398438
0, 8, 30, 313.6589660644531
0, 8, 31, 302.5081787109375
0, 8, 32, 281.0220642089844
0, 8, 33, 293.9508361816406
0, 8, 34, 287.2380981445312
0, 8, 35, 280.3373107910156
0, 8, 36, 314.579833984375
0, 8, 37, 340.1109313964844
0, 8, 38, 333.3168334960938
0, 8, 39, 282.6984558105469
