# TOPAS Version: 3.1.p3
# Parameter File: batch_inserts_240.txt
# Results for scorer Readout_Adipose
# Scored in component: MyBox
# X in 1 bin  of 0.75 cm
# Y in 512 bins of 0.0783984 cm
# Z in 128 bins of 0.078125 cm
# EnergyDeposit ( MeV ) : Sum   
0, 0, 0, 4.233587265014648
0, 0, 1, 1.640254020690918
0, 0, 2, 3.409988403320312
0, 0, 3, 1.404217004776001
0, 0, 4, 3.159895658493042
0, 0, 5, 4.621654987335205
0, 0, 6, 6.370506763458252
0, 0, 7, 10.15030574798584
0, 0, 8, 2.05683422088623
0, 0, 9, 4.037806034088135
0, 0, 10, 8.245580673217773
0, 0, 11, 4.62831974029541
0, 0, 12, 4.67603874206543
0, 0, 13, 6.485769271850586
0, 0, 14, 6.940938472747803
0, 0, 15, 9.310376167297363
0, 0, 16, 7.89882230758667
0, 0, 17, 9.450912475585938
0, 0, 18, 13.96087741851807
0, 0, 19, 44.71161651611328
0, 0, 20, 141.7139892578125
0, 0, 21, 224.9330902099609
0, 0, 22, 249.102294921875
0, 0, 23, 257.67724609375
0, 0, 24, 250.6319732666016
0, 0, 25, 258.8060607910156
0, 0, 26, 234.4176330566406
0, 0, 27, 236.3981628417969
0, 0, 28, 270.5577697753906
0, 0, 29, 251.6602783203125
0, 0, 30, 230.3287506103516
0, 0, 31, 243.4042663574219
0, 0, 32, 263.6415710449219
0, 0, 33, 261.6481018066406
0, 0, 34, 287.5027770996094
0, 0, 35, 267.3189392089844
0, 0, 36, 246.9659576416016
0, 0, 37, 252.1876831054688
0, 0, 38, 268.5427551269531
0, 0, 39, 230.2137298583984
0, 0, 40, 240.8630523681641
0, 0, 41, 266.9498596191406
0, 0, 42, 229.5099792480469
0, 0, 43, 260.0057067871094
0, 0, 44, 252.9842987060547
0, 0, 45, 252.6760406494141
0, 0, 46, 243.3767852783203
0, 0, 47, 253.8832550048828
0, 0, 48, 266.6266784667969
0, 0, 49, 273.7446899414062
0, 0, 50, 250.7251434326172
0, 0, 51, 253.2003326416016
0, 0, 52, 272.373291015625
0, 0, 53, 291.6199951171875
0, 0, 54, 243.6226654052734
0, 0, 55, 240.1498107910156
0, 0, 56, 277.4004516601562
0, 0, 57, 264.7612915039062
0, 0, 58, 246.8135070800781
0, 0, 59, 272.4056091308594
0, 0, 60, 234.1305541992188
0, 0, 61, 245.2734985351562
0, 0, 62, 257.6384582519531
0, 0, 63, 266.9347534179688
0, 0, 64, 254.2372283935547
0, 0, 65, 262.642822265625
0, 0, 66, 277.4933166503906
0, 0, 67, 247.4896240234375
0, 0, 68, 259.1863403320312
0, 0, 69, 261.4808349609375
0, 0, 70, 272.99365234375
0, 0, 71, 238.449951171875
0, 0, 72, 250.2144775390625
0, 0, 73, 258.1375122070312
0, 0, 74, 252.0617828369141
0, 0, 75, 241.8125305175781
0, 0, 76, 228.6049041748047
0, 0, 77, 260.3255920410156
0, 0, 78, 257.6227722167969
0, 0, 79, 277.5067443847656
0, 0, 80, 217.9595489501953
0, 0, 81, 267.4148254394531
0, 0, 82, 257.07666015625
0, 0, 83, 245.787841796875
0, 0, 84, 269.7157897949219
0, 0, 85, 231.1974792480469
0, 0, 86, 252.800048828125
0, 0, 87, 251.4092864990234
0, 0, 88, 258.069091796875
0, 0, 89, 281.8989868164062
0, 0, 90, 242.9646759033203
0, 0, 91, 280.7376708984375
0, 0, 92, 252.7735443115234
0, 0, 93, 248.9850006103516
0, 0, 94, 249.0725555419922
0, 0, 95, 248.0634918212891
0, 0, 96, 274.3656311035156
0, 0, 97, 274.6310729980469
0, 0, 98, 275.4441833496094
0, 0, 99, 259.2482604980469
0, 0, 100, 259.4382934570312
0, 0, 101, 226.1157073974609
0, 0, 102, 232.1979827880859
0, 0, 103, 268.7044982910156
0, 0, 104, 256.1242370605469
0, 0, 105, 250.4052581787109
0, 0, 106, 246.541748046875
0, 0, 107, 152.1037139892578
0, 0, 108, 38.11385726928711
0, 0, 109, 11.61171913146973
0, 0, 110, 12.49719619750977
0, 0, 111, 7.971696376800537
0, 0, 112, 6.383280754089355
0, 0, 113, 5.019220352172852
0, 0, 114, 6.952497482299805
0, 0, 115, 5.545236587524414
0, 0, 116, 5.245806217193604
0, 0, 117, 4.94917106628418
0, 0, 118, 6.23503589630127
0, 0, 119, 4.065011024475098
0, 0, 120, 2.965961694717407
0, 0, 121, 2.944282054901123
0, 0, 122, 4.596028804779053
0, 0, 123, 3.499808073043823
0, 0, 124, 5.206398010253906
0, 0, 125, 1.984702706336975
0, 0, 126, 3.37228536605835
0, 0, 127, 5.790929794311523
0, 1, 0, 7.82131290435791
0, 1, 1, 3.924898862838745
0, 1, 2, 3.932852029800415
0, 1, 3, 2.575588941574097
0, 1, 4, 5.343844413757324
0, 1, 5, 3.495900392532349
0, 1, 6, 5.885192394256592
0, 1, 7, 3.944349050521851
0, 1, 8, 9.059549331665039
0, 1, 9, 3.839454412460327
0, 1, 10, 6.976861953735352
0, 1, 11, 11.08681488037109
0, 1, 12, 7.678733825683594
0, 1, 13, 7.970605373382568
0, 1, 14, 7.058414936065674
0, 1, 15, 8.078914642333984
0, 1, 16, 11.6770076751709
0, 1, 17, 10.54795455932617
0, 1, 18, 20.61881828308105
0, 1, 19, 66.87581634521484
0, 1, 20, 198.6596374511719
0, 1, 21, 256.365966796875
0, 1, 22, 299.0953979492188
0, 1, 23, 283.1450500488281
0, 1, 24, 275.3475341796875
0, 1, 25, 290.9888000488281
0, 1, 26, 269.7888488769531
0, 1, 27, 306.2720031738281
0, 1, 28, 299.0581359863281
0, 1, 29, 294.6250305175781
0, 1, 30, 280.1059875488281
0, 1, 31, 293.4805908203125
0, 1, 32, 290.654296875
0, 1, 33, 296.8736572265625
0, 1, 34, 292.9662780761719
0, 1, 35, 278.9356384277344
0, 1, 36, 306.0725402832031
0, 1, 37, 296.0924682617188
0, 1, 38, 278.2213134765625
0, 1, 39, 297.4939575195312
0, 1, 40, 266.1636962890625
0, 1, 41, 285.1521606445312
0, 1, 42, 289.8365783691406
0, 1, 43, 330.6097412109375
0, 1, 44, 278.2018737792969
0, 1, 45, 293.1288146972656
0, 1, 46, 259.4356689453125
0, 1, 47, 308.4202270507812
0, 1, 48, 285.2197875976562
0, 1, 49, 303.8780212402344
0, 1, 50, 263.3522644042969
0, 1, 51, 275.0233459472656
0, 1, 52, 294.4761962890625
0, 1, 53, 305.7173767089844
0, 1, 54, 273.1862182617188
0, 1, 55, 293.1398010253906
0, 1, 56, 277.3663024902344
0, 1, 57, 297.5733337402344
0, 1, 58, 310.8058471679688
0, 1, 59, 290.0424194335938
0, 1, 60, 296.8302917480469
0, 1, 61, 275.6493835449219
0, 1, 62, 308.7964172363281
0, 1, 63, 284.9912414550781
0, 1, 64, 287.9831848144531
0, 1, 65, 293.7089538574219
0, 1, 66, 292.2506713867188
0, 1, 67, 292.4447326660156
0, 1, 68, 278.9031066894531
0, 1, 69, 280.9388122558594
0, 1, 70, 272.44677734375
0, 1, 71, 273.3567199707031
0, 1, 72, 283.9191284179688
0, 1, 73, 306.4033508300781
0, 1, 74, 302.8839721679688
0, 1, 75, 294.4031372070312
0, 1, 76, 283.7599182128906
0, 1, 77, 292.43310546875
0, 1, 78, 295.0319519042969
0, 1, 79, 302.2198791503906
0, 1, 80, 297.3771057128906
0, 1, 81, 300.9347839355469
0, 1, 82, 283.5929870605469
0, 1, 83, 332.40673828125
0, 1, 84, 307.9216003417969
0, 1, 85, 251.3289794921875
0, 1, 86, 294.8407287597656
0, 1, 87, 289.833251953125
0, 1, 88, 298.2197570800781
0, 1, 89, 289.7962036132812
0, 1, 90, 269.7388916015625
0, 1, 91, 318.86376953125
0, 1, 92, 292.3197937011719
0, 1, 93, 285.7696838378906
0, 1, 94, 303.837646484375
0, 1, 95, 283.7843627929688
0, 1, 96, 283.2035217285156
0, 1, 97, 299.7265930175781
0, 1, 98, 280.8309936523438
0, 1, 99, 267.1594848632812
0, 1, 100, 276.8408508300781
0, 1, 101, 281.88623046875
0, 1, 102, 276.9629211425781
0, 1, 103, 281.5867614746094
0, 1, 104, 306.3436889648438
0, 1, 105, 296.4242553710938
0, 1, 106, 261.6893310546875
0, 1, 107, 190.8546600341797
0, 1, 108, 80.77940368652344
0, 1, 109, 23.30830955505371
0, 1, 110, 11.83868980407715
0, 1, 111, 9.307778358459473
0, 1, 112, 11.63414192199707
0, 1, 113, 4.858846664428711
0, 1, 114, 6.113027095794678
0, 1, 115, 6.355398654937744
0, 1, 116, 10.61882877349854
0, 1, 117, 5.048881053924561
0, 1, 118, 4.670270442962646
0, 1, 119, 4.473572254180908
0, 1, 120, 5.037768840789795
0, 1, 121, 3.952583789825439
0, 1, 122, 4.857117176055908
0, 1, 123, 5.002057075500488
0, 1, 124, 9.298857688903809
0, 1, 125, 4.57860279083252
0, 1, 126, 2.687387228012085
0, 1, 127, 2.142098188400269
0, 2, 0, 6.042809009552002
0, 2, 1, 1.642473220825195
0, 2, 2, 5.189980506896973
0, 2, 3, 7.367893695831299
0, 2, 4, 3.648902654647827
0, 2, 5, 2.089873552322388
0, 2, 6, 1.590310215950012
0, 2, 7, 4.135283470153809
0, 2, 8, 4.763405799865723
0, 2, 9, 6.133831024169922
0, 2, 10, 9.061392784118652
0, 2, 11, 6.042805671691895
0, 2, 12, 6.45817232131958
0, 2, 13, 10.6475944519043
0, 2, 14, 9.828147888183594
0, 2, 15, 9.004114151000977
0, 2, 16, 10.06355381011963
0, 2, 17, 17.06254005432129
0, 2, 18, 32.84687805175781
0, 2, 19, 115.9433441162109
0, 2, 20, 244.80712890625
0, 2, 21, 270.2207641601562
0, 2, 22, 315.80224609375
0, 2, 23, 299.7831726074219
0, 2, 24, 286.0940551757812
0, 2, 25, 301.4837036132812
0, 2, 26, 292.6953125
0, 2, 27, 276.64111328125
0, 2, 28, 273.323486328125
0, 2, 29, 274.4826354980469
0, 2, 30, 288.42236328125
0, 2, 31, 276.6918334960938
0, 2, 32, 294.5283508300781
0, 2, 33, 283.711181640625
0, 2, 34, 332.1982727050781
0, 2, 35, 291.154296875
0, 2, 36, 304.0621948242188
0, 2, 37, 314.0937805175781
0, 2, 38, 313.0911560058594
0, 2, 39, 265.4581298828125
0, 2, 40, 307.6590576171875
0, 2, 41, 291.3701171875
0, 2, 42, 303.7745971679688
0, 2, 43, 312.6839294433594
0, 2, 44, 313.0553894042969
0, 2, 45, 324.3146667480469
0, 2, 46, 286.2367248535156
0, 2, 47, 303.007568359375
0, 2, 48, 282.9577026367188
0, 2, 49, 278.7558898925781
0, 2, 50, 293.9735107421875
0, 2, 51, 283.3340759277344
0, 2, 52, 273.258544921875
0, 2, 53, 286.7562255859375
0, 2, 54, 280.8609619140625
0, 2, 55, 275.9765625
0, 2, 56, 300.8870544433594
0, 2, 57, 290.9223022460938
0, 2, 58, 305.6306762695312
0, 2, 59, 289.0228881835938
0, 2, 60, 319.0787963867188
0, 2, 61, 302.0444641113281
0, 2, 62, 313.361328125
0, 2, 63, 302.6576843261719
0, 2, 64, 297.90576171875
0, 2, 65, 314.7488403320312
0, 2, 66, 279.9281616210938
0, 2, 67, 292.01123046875
0, 2, 68, 296.4950561523438
0, 2, 69, 311.1236877441406
0, 2, 70, 333.9503173828125
0, 2, 71, 283.3572082519531
0, 2, 72, 301.3691711425781
0, 2, 73, 311.5973205566406
0, 2, 74, 286.0299377441406
0, 2, 75, 304.2367553710938
0, 2, 76, 288.08544921875
0, 2, 77, 300.24853515625
0, 2, 78, 315.4400024414062
0, 2, 79, 307.9953002929688
0, 2, 80, 297.6954956054688
0, 2, 81, 283.5306701660156
0, 2, 82, 320.8888549804688
0, 2, 83, 312.7250366210938
0, 2, 84, 288.6494140625
0, 2, 85, 283.0942993164062
0, 2, 86, 324.2984924316406
0, 2, 87, 286.6190185546875
0, 2, 88, 280.2452087402344
0, 2, 89, 298.2223510742188
0, 2, 90, 295.02685546875
0, 2, 91, 278.2253723144531
0, 2, 92, 303.962646484375
0, 2, 93, 316.3658447265625
0, 2, 94, 291.4138793945312
0, 2, 95, 316.5791015625
0, 2, 96, 313.9846801757812
0, 2, 97, 292.5621948242188
0, 2, 98, 294.9855651855469
0, 2, 99, 273.7466430664062
0, 2, 100, 305.0735168457031
0, 2, 101, 300.2456665039062
0, 2, 102, 297.8344421386719
0, 2, 103, 293.1604614257812
0, 2, 104, 292.9638061523438
0, 2, 105, 274.4350891113281
0, 2, 106, 297.1657104492188
0, 2, 107, 269.980224609375
0, 2, 108, 115.4087448120117
0, 2, 109, 30.97109985351562
0, 2, 110, 10.03311920166016
0, 2, 111, 13.08408355712891
0, 2, 112, 7.051125049591064
0, 2, 113, 9.714707374572754
0, 2, 114, 9.220093727111816
0, 2, 115, 10.05030536651611
0, 2, 116, 10.68197536468506
0, 2, 117, 5.688087940216064
0, 2, 118, 3.336727857589722
0, 2, 119, 3.000273704528809
0, 2, 120, 6.707389831542969
0, 2, 121, 1.738590121269226
0, 2, 122, 4.317511081695557
0, 2, 123, 4.744789123535156
0, 2, 124, 4.627400398254395
0, 2, 125, 6.0950927734375
0, 2, 126, 2.721461057662964
0, 2, 127, 5.20143985748291
0, 3, 0, 4.140370845794678
0, 3, 1, 3.086595058441162
0, 3, 2, 3.769352436065674
0, 3, 3, 1.103351712226868
0, 3, 4, 3.753098249435425
0, 3, 5, 6.335309982299805
0, 3, 6, 7.302786827087402
0, 3, 7, 6.030725479125977
0, 3, 8, 7.131668090820312
0, 3, 9, 5.56777811050415
0, 3, 10, 6.299576282501221
0, 3, 11, 2.872433662414551
0, 3, 12, 8.95504093170166
0, 3, 13, 14.94592761993408
0, 3, 14, 10.90775680541992
0, 3, 15, 15.93187236785889
0, 3, 16, 11.49846744537354
0, 3, 17, 19.42666435241699
0, 3, 18, 50.78424835205078
0, 3, 19, 176.0033874511719
0, 3, 20, 270.5582580566406
0, 3, 21, 270.6961364746094
0, 3, 22, 281.5755310058594
0, 3, 23, 286.2010192871094
0, 3, 24, 287.9696960449219
0, 3, 25, 270.8652648925781
0, 3, 26, 304.4534606933594
0, 3, 27, 292.8204040527344
0, 3, 28, 281.8084716796875
0, 3, 29, 338.7002258300781
0, 3, 30, 316.1156616210938
0, 3, 31, 288.6206970214844
0, 3, 32, 309.1651916503906
0, 3, 33, 314.2442626953125
0, 3, 34, 323.4963073730469
0, 3, 35, 308.0709838867188
0, 3, 36, 270.0349731445312
0, 3, 37, 318.6995239257812
0, 3, 38, 303.5392761230469
0, 3, 39, 288.6376647949219
0, 3, 40, 266.6625366210938
0, 3, 41, 298.1776428222656
0, 3, 42, 284.7297973632812
0, 3, 43, 304.4723510742188
0, 3, 44, 311.9990844726562
0, 3, 45, 290.4710998535156
0, 3, 46, 329.5852355957031
0, 3, 47, 300.3100891113281
0, 3, 48, 301.5755615234375
0, 3, 49, 275.9959106445312
0, 3, 50, 290.7487487792969
0, 3, 51, 276.3745727539062
0, 3, 52, 316.2694702148438
0, 3, 53, 288.2930297851562
0, 3, 54, 284.8167114257812
0, 3, 55, 283.8523864746094
0, 3, 56, 298.0390930175781
0, 3, 57, 286.9356384277344
0, 3, 58, 305.054443359375
0, 3, 59, 295.9591674804688
0, 3, 60, 297.5428161621094
0, 3, 61, 263.842529296875
0, 3, 62, 287.0837097167969
0, 3, 63, 309.791748046875
0, 3, 64, 316.8002624511719
0, 3, 65, 305.1795349121094
0, 3, 66, 318.7299499511719
0, 3, 67, 318.6439208984375
0, 3, 68, 279.5785217285156
0, 3, 69, 283.7019958496094
0, 3, 70, 289.8490600585938
0, 3, 71, 299.1810607910156
0, 3, 72, 269.8380126953125
0, 3, 73, 309.0145263671875
0, 3, 74, 292.9190673828125
0, 3, 75, 290.5858459472656
0, 3, 76, 305.0373229980469
0, 3, 77, 314.7261352539062
0, 3, 78, 307.5885009765625
0, 3, 79, 284.8672485351562
0, 3, 80, 293.0892639160156
0, 3, 81, 312.4618225097656
0, 3, 82, 317.3551330566406
0, 3, 83, 300.2543640136719
0, 3, 84, 312.2530212402344
0, 3, 85, 294.7559814453125
0, 3, 86, 302.2569885253906
0, 3, 87, 298.17724609375
0, 3, 88, 298.9725341796875
0, 3, 89, 297.2135314941406
0, 3, 90, 275.9749145507812
0, 3, 91, 284.7201232910156
0, 3, 92, 305.5773315429688
0, 3, 93, 312.2377014160156
0, 3, 94, 296.6649780273438
0, 3, 95, 334.54345703125
0, 3, 96, 291.9049072265625
0, 3, 97, 286.1831970214844
0, 3, 98, 278.9194946289062
0, 3, 99, 263.8137817382812
0, 3, 100, 285.2672424316406
0, 3, 101, 296.9449462890625
0, 3, 102, 275.4826354980469
0, 3, 103, 319.9403991699219
0, 3, 104, 308.6992797851562
0, 3, 105, 288.4847106933594
0, 3, 106, 304.6383972167969
0, 3, 107, 282.4136047363281
0, 3, 108, 168.6741027832031
0, 3, 109, 57.57442092895508
0, 3, 110, 18.21774864196777
0, 3, 111, 13.58814334869385
0, 3, 112, 11.25353240966797
0, 3, 113, 6.323850631713867
0, 3, 114, 10.42037105560303
0, 3, 115, 7.060416698455811
0, 3, 116, 8.752259254455566
0, 3, 117, 8.706399917602539
0, 3, 118, 6.150985717773438
0, 3, 119, 6.139851093292236
0, 3, 120, 6.602023124694824
0, 3, 121, 1.876129269599915
0, 3, 122, 5.765090942382812
0, 3, 123, 7.480848789215088
0, 3, 124, 2.423489332199097
0, 3, 125, 4.975661277770996
0, 3, 126, 4.925220489501953
0, 3, 127, 2.594884872436523
0, 4, 0, 3.245150804519653
0, 4, 1, 4.740005493164062
0, 4, 2, 2.911160707473755
0, 4, 3, 2.134194612503052
0, 4, 4, 6.849116325378418
0, 4, 5, 10.46265602111816
0, 4, 6, 6.269147396087646
0, 4, 7, 4.347877502441406
0, 4, 8, 3.518988132476807
0, 4, 9, 7.929760456085205
0, 4, 10, 6.547788619995117
0, 4, 11, 7.174878597259521
0, 4, 12, 7.285545825958252
0, 4, 13, 8.124488830566406
0, 4, 14, 12.60830307006836
0, 4, 15, 9.677580833435059
0, 4, 16, 14.73564434051514
0, 4, 17, 18.45677947998047
0, 4, 18, 93.04761505126953
0, 4, 19, 224.4349670410156
0, 4, 20, 284.0364379882812
0, 4, 21, 273.5503845214844
0, 4, 22, 305.5556640625
0, 4, 23, 266.434814453125
0, 4, 24, 288.625
0, 4, 25, 271.5444641113281
0, 4, 26, 293.9430847167969
0, 4, 27, 286.9790954589844
0, 4, 28, 308.1338500976562
0, 4, 29, 321.8246154785156
0, 4, 30, 309.1150207519531
0, 4, 31, 305.7198181152344
0, 4, 32, 280.986083984375
0, 4, 33, 296.1641235351562
0, 4, 34, 297.4974670410156
0, 4, 35, 311.6674194335938
0, 4, 36, 292.7085266113281
0, 4, 37, 285.8956909179688
0, 4, 38, 297.3133850097656
0, 4, 39, 292.8003234863281
0, 4, 40, 302.5699462890625
0, 4, 41, 311.7480773925781
0, 4, 42, 329.862060546875
0, 4, 43, 297.4455871582031
0, 4, 44, 320.4590759277344
0, 4, 45, 326.5260009765625
0, 4, 46, 305.8456726074219
0, 4, 47, 293.1053466796875
0, 4, 48, 297.0000915527344
0, 4, 49, 277.1822814941406
0, 4, 50, 295.4891052246094
0, 4, 51, 316.5977478027344
0, 4, 52, 327.2658996582031
0, 4, 53, 304.7855529785156
0, 4, 54, 287.0477905273438
0, 4, 55, 316.8187866210938
0, 4, 56, 287.8251953125
0, 4, 57, 311.3334655761719
0, 4, 58, 294.65576171875
0, 4, 59, 308.1585083007812
0, 4, 60, 301.3349609375
0, 4, 61, 314.912841796875
0, 4, 62, 307.5218811035156
0, 4, 63, 297.5344543457031
0, 4, 64, 329.5700073242188
0, 4, 65, 315.2581176757812
0, 4, 66, 293.0584716796875
0, 4, 67, 284.5538330078125
0, 4, 68, 312.8793640136719
0, 4, 69, 275.6274108886719
0, 4, 70, 298.4359130859375
0, 4, 71, 321.8575134277344
0, 4, 72, 330.7461547851562
0, 4, 73, 299.6133422851562
0, 4, 74, 292.6732177734375
0, 4, 75, 290.2051086425781
0, 4, 76, 275.3872375488281
0, 4, 77, 277.5051574707031
0, 4, 78, 311.2650146484375
0, 4, 79, 319.4822082519531
0, 4, 80, 315.091796875
0, 4, 81, 311.35107421875
0, 4, 82, 299.3649597167969
0, 4, 83, 303.3668518066406
0, 4, 84, 291.3843994140625
0, 4, 85, 293.2755737304688
0, 4, 86, 298.8660888671875
0, 4, 87, 283.1217346191406
0, 4, 88, 305.5864562988281
0, 4, 89, 295.244384765625
0, 4, 90, 332.6461486816406
0, 4, 91, 301.3057861328125
0, 4, 92, 288.1255493164062
0, 4, 93, 295.7625732421875
0, 4, 94, 292.4918823242188
0, 4, 95, 287.6990966796875
0, 4, 96, 324.9027404785156
0, 4, 97, 274.0390930175781
0, 4, 98, 326.9394226074219
0, 4, 99, 314.900146484375
0, 4, 100, 300.5604858398438
0, 4, 101, 256.3063049316406
0, 4, 102, 297.0670166015625
0, 4, 103, 316.8706359863281
0, 4, 104, 282.6512451171875
0, 4, 105, 311.3615112304688
0, 4, 106, 288.62841796875
0, 4, 107, 295.8212280273438
0, 4, 108, 225.8055877685547
0, 4, 109, 79.23979187011719
0, 4, 110, 17.05795097351074
0, 4, 111, 13.32082366943359
0, 4, 112, 9.956535339355469
0, 4, 113, 10.64524078369141
0, 4, 114, 8.245875358581543
0, 4, 115, 11.42681789398193
0, 4, 116, 9.115614891052246
0, 4, 117, 6.280044555664062
0, 4, 118, 11.66072940826416
0, 4, 119, 9.217185020446777
0, 4, 120, 4.752994060516357
0, 4, 121, 4.215184211730957
0, 4, 122, 6.030038833618164
0, 4, 123, 6.690353870391846
0, 4, 124, 3.995357275009155
0, 4, 125, 9.910199165344238
0, 4, 126, 6.729533195495605
0, 4, 127, 3.306180238723755
0, 5, 0, 4.250759601593018
0, 5, 1, 4.686416149139404
0, 5, 2, 4.447423458099365
0, 5, 3, 4.377139568328857
0, 5, 4, 4.942456722259521
0, 5, 5, 7.560225009918213
0, 5, 6, 4.671104907989502
0, 5, 7, 5.249833583831787
0, 5, 8, 8.368985176086426
0, 5, 9, 4.155913829803467
0, 5, 10, 7.513219356536865
0, 5, 11, 8.415483474731445
0, 5, 12, 7.172359943389893
0, 5, 13, 7.818026065826416
0, 5, 14, 12.94037342071533
0, 5, 15, 16.88121604919434
0, 5, 16, 14.58285713195801
0, 5, 17, 29.46909332275391
0, 5, 18, 137.5043334960938
0, 5, 19, 289.2576904296875
0, 5, 20, 307.212646484375
0, 5, 21, 317.6832580566406
0, 5, 22, 277.6430053710938
0, 5, 23, 311.1748352050781
0, 5, 24, 301.8677673339844
0, 5, 25, 290.1292114257812
0, 5, 26, 294.1407165527344
0, 5, 27, 322.5364990234375
0, 5, 28, 302.7689819335938
0, 5, 29, 297.5944213867188
0, 5, 30, 323.5132446289062
0, 5, 31, 285.0938720703125
0, 5, 32, 301.8681945800781
0, 5, 33, 302.7117614746094
0, 5, 34, 295.9064025878906
0, 5, 35, 310.001220703125
0, 5, 36, 268.9690551757812
0, 5, 37, 284.2745971679688
0, 5, 38, 291.0079040527344
0, 5, 39, 313.0078430175781
0, 5, 40, 310.6757507324219
0, 5, 41, 273.0408020019531
0, 5, 42, 305.4327697753906
0, 5, 43, 314.2600708007812
0, 5, 44, 292.6867065429688
0, 5, 45, 302.0012512207031
0, 5, 46, 264.5889892578125
0, 5, 47, 279.6266174316406
0, 5, 48, 294.1722106933594
0, 5, 49, 285.475830078125
0, 5, 50, 295.9506530761719
0, 5, 51, 279.77001953125
0, 5, 52, 271.2546081542969
0, 5, 53, 283.1471557617188
0, 5, 54, 291.1849975585938
0, 5, 55, 343.8688659667969
0, 5, 56, 304.98193359375
0, 5, 57, 308.3885498046875
0, 5, 58, 315.9146728515625
0, 5, 59, 303.1423950195312
0, 5, 60, 310.0124206542969
0, 5, 61, 283.2888488769531
0, 5, 62, 326.60107421875
0, 5, 63, 292.7894592285156
0, 5, 64, 324.2139892578125
0, 5, 65, 307.3190307617188
0, 5, 66, 330.2020263671875
0, 5, 67, 311.5831604003906
0, 5, 68, 307.5743408203125
0, 5, 69, 311.4737854003906
0, 5, 70, 300.2576293945312
0, 5, 71, 273.257080078125
0, 5, 72, 310.3291320800781
0, 5, 73, 303.2039184570312
0, 5, 74, 294.9263916015625
0, 5, 75, 294.9942321777344
0, 5, 76, 286.8882751464844
0, 5, 77, 299.7174377441406
0, 5, 78, 315.2305297851562
0, 5, 79, 305.268310546875
0, 5, 80, 294.7153625488281
0, 5, 81, 325.0397338867188
0, 5, 82, 326.6192626953125
0, 5, 83, 280.4249267578125
0, 5, 84, 302.9514770507812
0, 5, 85, 272.4508361816406
0, 5, 86, 324.941650390625
0, 5, 87, 283.7420959472656
0, 5, 88, 312.4372253417969
0, 5, 89, 303.2944641113281
0, 5, 90, 317.5051879882812
0, 5, 91, 312.9742126464844
0, 5, 92, 295.5144958496094
0, 5, 93, 322.5345153808594
0, 5, 94, 308.5546875
0, 5, 95, 296.9553527832031
0, 5, 96, 297.4197692871094
0, 5, 97, 295.6770629882812
0, 5, 98, 318.7515869140625
0, 5, 99, 303.1210632324219
0, 5, 100, 291.1622619628906
0, 5, 101, 307.97900390625
0, 5, 102, 293.4170532226562
0, 5, 103, 312.80810546875
0, 5, 104, 302.0682067871094
0, 5, 105, 292.3712463378906
0, 5, 106, 281.0993347167969
0, 5, 107, 293.0088806152344
0, 5, 108, 267.0262451171875
0, 5, 109, 159.2398986816406
0, 5, 110, 39.71965408325195
0, 5, 111, 21.68487548828125
0, 5, 112, 17.39487838745117
0, 5, 113, 14.90214920043945
0, 5, 114, 12.19614410400391
0, 5, 115, 8.635135650634766
0, 5, 116, 6.898082733154297
0, 5, 117, 6.810573577880859
0, 5, 118, 13.99654006958008
0, 5, 119, 4.962582588195801
0, 5, 120, 7.669371604919434
0, 5, 121, 5.290996074676514
0, 5, 122, 6.466648101806641
0, 5, 123, 8.319637298583984
0, 5, 124, 3.747828006744385
0, 5, 125, 4.736791610717773
0, 5, 126, 6.028689384460449
0, 5, 127, 4.056914329528809
0, 6, 0, 4.318792343139648
0, 6, 1, 2.133169889450073
0, 6, 2, 5.032341957092285
0, 6, 3, 5.671566486358643
0, 6, 4, 3.169923543930054
0, 6, 5, 5.721632957458496
0, 6, 6, 9.020042419433594
0, 6, 7, 7.24399471282959
0, 6, 8, 9.964946746826172
0, 6, 9, 6.264417171478271
0, 6, 10, 8.312530517578125
0, 6, 11, 8.482354164123535
0, 6, 12, 8.461697578430176
0, 6, 13, 18.67399787902832
0, 6, 14, 9.46198558807373
0, 6, 15, 16.13079452514648
0, 6, 16, 26.80130958557129
0, 6, 17, 55.68504333496094
0, 6, 18, 171.9892120361328
0, 6, 19, 277.4299621582031
0, 6, 20, 290.4934692382812
0, 6, 21, 316.4073181152344
0, 6, 22, 321.4087524414062
0, 6, 23, 306.906005859375
0, 6, 24, 315.9588012695312
0, 6, 25, 315.3395080566406
0, 6, 26, 321.4647827148438
0, 6, 27, 330.066162109375
0, 6, 28, 296.2592163085938
0, 6, 29, 331.7284545898438
0, 6, 30, 280.9296569824219
0, 6, 31, 286.3545532226562
0, 6, 32, 341.353759765625
0, 6, 33, 301.7162780761719
0, 6, 34, 341.8186950683594
0, 6, 35, 321.3564758300781
0, 6, 36, 274.1456604003906
0, 6, 37, 288.0237731933594
0, 6, 38, 314.9209594726562
0, 6, 39, 298.7881164550781
0, 6, 40, 281.4368286132812
0, 6, 41, 296.6406860351562
0, 6, 42, 304.0296020507812
0, 6, 43, 289.2164001464844
0, 6, 44, 279.6908569335938
0, 6, 45, 319.4353637695312
0, 6, 46, 301.1233215332031
0, 6, 47, 333.0995483398438
0, 6, 48, 292.7568969726562
0, 6, 49, 312.0000610351562
0, 6, 50, 327.8810119628906
0, 6, 51, 310.2254028320312
0, 6, 52, 320.05419921875
0, 6, 53, 326.3863220214844
0, 6, 54, 303.6286315917969
0, 6, 55, 307.7789306640625
0, 6, 56, 294.2384948730469
0, 6, 57, 312.1210632324219
0, 6, 58, 261.6513061523438
0, 6, 59, 302.382568359375
0, 6, 60, 311.8602600097656
0, 6, 61, 272.1640014648438
0, 6, 62, 335.9644775390625
0, 6, 63, 321.82177734375
0, 6, 64, 290.5432739257812
0, 6, 65, 283.4585876464844
0, 6, 66, 301.9154052734375
0, 6, 67, 309.7948913574219
0, 6, 68, 294.7867126464844
0, 6, 69, 278.14697265625
0, 6, 70, 275.1831359863281
0, 6, 71, 289.6052551269531
0, 6, 72, 310.8109436035156
0, 6, 73, 294.3701782226562
0, 6, 74, 329.490234375
0, 6, 75, 343.4729919433594
0, 6, 76, 298.4859313964844
0, 6, 77, 288.6170654296875
0, 6, 78, 278.9241638183594
0, 6, 79, 293.864990234375
0, 6, 80, 298.2357482910156
0, 6, 81, 314.0327453613281
0, 6, 82, 318.5426940917969
0, 6, 83, 320.7066345214844
0, 6, 84, 295.9576110839844
0, 6, 85, 300.7681274414062
0, 6, 86, 328.816650390625
0, 6, 87, 295.3779296875
0, 6, 88, 307.4390563964844
0, 6, 89, 303.7929992675781
0, 6, 90, 299.5515441894531
0, 6, 91, 313.318359375
0, 6, 92, 284.4801940917969
0, 6, 93, 295.9703979492188
0, 6, 94, 274.4102478027344
0, 6, 95, 300.9991149902344
0, 6, 96, 349.0917663574219
0, 6, 97, 307.4579772949219
0, 6, 98, 301.8078308105469
0, 6, 99, 270.4996643066406
0, 6, 100, 310.2734680175781
0, 6, 101, 294.6114196777344
0, 6, 102, 305.7763366699219
0, 6, 103, 308.6804504394531
0, 6, 104, 292.8971252441406
0, 6, 105, 301.4845275878906
0, 6, 106, 308.6946105957031
0, 6, 107, 305.5736694335938
0, 6, 108, 266.9927368164062
0, 6, 109, 185.5860900878906
0, 6, 110, 55.04184722900391
0, 6, 111, 21.41456604003906
0, 6, 112, 14.70524024963379
0, 6, 113, 13.36621189117432
0, 6, 114, 12.206711769104
0, 6, 115, 11.34410572052002
0, 6, 116, 11.22177886962891
0, 6, 117, 6.202059268951416
0, 6, 118, 12.6646089553833
0, 6, 119, 8.403186798095703
0, 6, 120, 4.961756229400635
0, 6, 121, 6.19437837600708
0, 6, 122, 8.475753784179688
0, 6, 123, 7.278929233551025
0, 6, 124, 7.592925071716309
0, 6, 125, 7.588283538818359
0, 6, 126, 4.130881786346436
0, 6, 127, 6.200693130493164
0, 7, 0, 4.624157428741455
0, 7, 1, 3.20717191696167
0, 7, 2, 9.412376403808594
0, 7, 3, 5.86506986618042
0, 7, 4, 3.22652530670166
0, 7, 5, 6.634562969207764
0, 7, 6, 5.050277709960938
0, 7, 7, 6.768280506134033
0, 7, 8, 4.639698505401611
0, 7, 9, 5.710464954376221
0, 7, 10, 7.840418338775635
0, 7, 11, 12.00614929199219
0, 7, 12, 10.26504993438721
0, 7, 13, 9.995397567749023
0, 7, 14, 11.76385498046875
0, 7, 15, 19.37729072570801
0, 7, 16, 26.80028533935547
0, 7, 17, 98.20114135742188
0, 7, 18, 216.8094787597656
0, 7, 19, 288.3070373535156
0, 7, 20, 298.94970703125
0, 7, 21, 276.4281616210938
0, 7, 22, 298.1293029785156
0, 7, 23, 288.8205261230469
0, 7, 24, 314.6819763183594
0, 7, 25, 325.4875793457031
0, 7, 26, 277.0660095214844
0, 7, 27, 298.1751708984375
0, 7, 28, 326.4157104492188
0, 7, 29, 318.6989135742188
0, 7, 30, 304.0683898925781
0, 7, 31, 276.9356079101562
0, 7, 32, 305.4829406738281
0, 7, 33, 264.4985656738281
0, 7, 34, 296.7145385742188
0, 7, 35, 320.9830627441406
0, 7, 36, 332.9292907714844
0, 7, 37, 324.081787109375
0, 7, 38, 296.8641662597656
0, 7, 39, 310.5013732910156
0, 7, 40, 295.2926330566406
0, 7, 41, 272.516357421875
0, 7, 42, 300.0186157226562
0, 7, 43, 275.5275268554688
0, 7, 44, 303.9516906738281
0, 7, 45, 295.4480895996094
0, 7, 46, 283.6074829101562
0, 7, 47, 329.8070983886719
0, 7, 48, 284.4997253417969
0, 7, 49, 300.487060546875
0, 7, 50, 320.5089111328125
0, 7, 51, 299.1891479492188
0, 7, 52, 326.6465148925781
0, 7, 53, 312.1436767578125
0, 7, 54, 322.565185546875
0, 7, 55, 308.1103210449219
0, 7, 56, 282.5637512207031
0, 7, 57, 283.0963134765625
0, 7, 58, 296.3237609863281
0, 7, 59, 295.1067810058594
0, 7, 60, 322.9457702636719
0, 7, 61, 277.7121276855469
0, 7, 62, 298.1436157226562
0, 7, 63, 292.9696960449219
0, 7, 64, 305.224365234375
0, 7, 65, 329.9209594726562
0, 7, 66, 318.403076171875
0, 7, 67, 302.7516479492188
0, 7, 68, 279.6605834960938
0, 7, 69, 295.3797912597656
0, 7, 70, 303.8199462890625
0, 7, 71, 309.8065185546875
0, 7, 72, 287.0814514160156
0, 7, 73, 297.7318725585938
0, 7, 74, 345.1212463378906
0, 7, 75, 317.6706848144531
0, 7, 76, 321.646728515625
0, 7, 77, 281.2594909667969
0, 7, 78, 301.3292846679688
0, 7, 79, 296.8250732421875
0, 7, 80, 312.0909118652344
0, 7, 81, 320.8216247558594
0, 7, 82, 327.6124877929688
0, 7, 83, 317.9605712890625
0, 7, 84, 310.3622131347656
0, 7, 85, 272.1413879394531
0, 7, 86, 311.6985168457031
0, 7, 87, 309.6699829101562
0, 7, 88, 307.0437927246094
0, 7, 89, 294.7046508789062
0, 7, 90, 307.8098754882812
0, 7, 91, 314.8525390625
0, 7, 92, 288.6181640625
0, 7, 93, 310.0376586914062
0, 7, 94, 272.7822570800781
0, 7, 95, 297.9815673828125
0, 7, 96, 330.4216003417969
0, 7, 97, 294.2664184570312
0, 7, 98, 290.9303588867188
0, 7, 99, 311.5252685546875
0, 7, 100, 280.8910827636719
0, 7, 101, 275.4042053222656
0, 7, 102, 289.9876708984375
0, 7, 103, 291.8790283203125
0, 7, 104, 276.2088012695312
0, 7, 105, 307.7266540527344
0, 7, 106, 317.8471984863281
0, 7, 107, 297.2182922363281
0, 7, 108, 272.5673217773438
0, 7, 109, 236.4449157714844
0, 7, 110, 97.77178192138672
0, 7, 111, 24.57810020446777
0, 7, 112, 15.77400493621826
0, 7, 113, 13.09220409393311
0, 7, 114, 13.40928649902344
0, 7, 115, 12.22756004333496
0, 7, 116, 9.155472755432129
0, 7, 117, 7.88477087020874
0, 7, 118, 7.068691730499268
0, 7, 119, 6.917297840118408
0, 7, 120, 6.131132125854492
0, 7, 121, 5.717070579528809
0, 7, 122, 6.57098913192749
0, 7, 123, 5.010645389556885
0, 7, 124, 3.088882684707642
0, 7, 125, 6.469769954681396
0, 7, 126, 8.739689826965332
0, 7, 127, 2.164867877960205
0, 8, 0, 5.51426362991333
0, 8, 1, 5.997897148132324
0, 8, 2, 4.427437305450439
0, 8, 3, 6.249000549316406
0, 8, 4, 6.785178184509277
0, 8, 5, 4.831475257873535
0, 8, 6, 7.256701469421387
0, 8, 7, 5.366569519042969
0, 8, 8, 7.857480049133301
0, 8, 9, 8.011690139770508
0, 8, 10, 7.855078220367432
0, 8, 11, 12.1968412399292
0, 8, 12, 14.10817050933838
0, 8, 13, 13.63391494750977
0, 8, 14, 14.00700569152832
0, 8, 15, 17.99091911315918
0, 8, 16, 35.10535049438477
0, 8, 17, 130.5264892578125
0, 8, 18, 242.6806182861328
0, 8, 19, 295.9921264648438
0, 8, 20, 285.0436096191406
0, 8, 21, 306.6320495605469
0, 8, 22, 294.642578125
0, 8, 23, 275.703857421875
0, 8, 24, 269.6406555175781
0, 8, 25, 274.8721008300781
0, 8, 26, 305.5687561035156
0, 8, 27, 307.1841125488281
0, 8, 28, 303.2731018066406
0, 8, 29, 317.9980163574219
0, 8, 30, 314.7019958496094
0, 8, 31, 304.7022094726562
0, 8, 32, 281.227294921875
0, 8, 33, 296.1697692871094
0, 8, 34, 287.9371948242188
0, 8, 35, 278.2583923339844
0, 8, 36, 316.2232360839844
0, 8, 37, 338.4904479980469
0, 8, 38, 330.6324462890625
0, 8, 39, 283.1181640625
0, 8, 40, 303.4513549804688
