# TOPAS Version: 3.1.p3
# Parameter File: batch_inserts_230.txt
# Results for scorer Readout_Adipose
# Scored in component: MyBox
# X in 1 bin  of 0.75 cm
# Y in 512 bins of 0.0783984 cm
# Z in 128 bins of 0.078125 cm
# EnergyDeposit ( MeV ) : Sum   
0, 0, 0, 2.990461349487305
0, 0, 1, 1.913905382156372
0, 0, 2, 4.424734115600586
0, 0, 3, 1.574723362922668
0, 0, 4, 5.142996311187744
0, 0, 5, 3.194308757781982
0, 0, 6, 7.480014324188232
0, 0, 7, 7.857126712799072
0, 0, 8, 2.763566017150879
0, 0, 9, 5.169003486633301
0, 0, 10, 6.104424953460693
0, 0, 11, 4.377854824066162
0, 0, 12, 4.798902034759521
0, 0, 13, 6.958479404449463
0, 0, 14, 6.555355548858643
0, 0, 15, 8.132380485534668
0, 0, 16, 9.050127029418945
0, 0, 17, 8.771364212036133
0, 0, 18, 12.93977069854736
0, 0, 19, 43.60664749145508
0, 0, 20, 139.57275390625
0, 0, 21, 224.3565521240234
0, 0, 22, 248.2294921875
0, 0, 23, 258.06298828125
0, 0, 24, 251.4816589355469
0, 0, 25, 258.8789672851562
0, 0, 26, 234.2255096435547
0, 0, 27, 236.8662872314453
0, 0, 28, 272.3854675292969
0, 0, 29, 251.4991912841797
0, 0, 30, 229.6680145263672
0, 0, 31, 244.1853942871094
0, 0, 32, 263.0262756347656
0, 0, 33, 262.0909729003906
0, 0, 34, 287.83203125
0, 0, 35, 266.4975280761719
0, 0, 36, 247.0499877929688
0, 0, 37, 252.3987731933594
0, 0, 38, 268.7981262207031
0, 0, 39, 230.3939056396484
0, 0, 40, 241.8324737548828
0, 0, 41, 265.4700927734375
0, 0, 42, 232.6315155029297
0, 0, 43, 258.9732360839844
0, 0, 44, 253.415283203125
0, 0, 45, 254.6992034912109
0, 0, 46, 243.4222259521484
0, 0, 47, 252.7421417236328
0, 0, 48, 265.5507202148438
0, 0, 49, 274.498779296875
0, 0, 50, 250.0453186035156
0, 0, 51, 254.5235443115234
0, 0, 52, 273.3563232421875
0, 0, 53, 291.7005310058594
0, 0, 54, 241.9880065917969
0, 0, 55, 239.6816558837891
0, 0, 56, 277.464599609375
0, 0, 57, 262.7710266113281
0, 0, 58, 246.9633483886719
0, 0, 59, 273.389892578125
0, 0, 60, 235.1600036621094
0, 0, 61, 246.2846221923828
0, 0, 62, 258.5850830078125
0, 0, 63, 268.5303039550781
0, 0, 64, 254.5723571777344
0, 0, 65, 259.91064453125
0, 0, 66, 277.2709655761719
0, 0, 67, 248.2033996582031
0, 0, 68, 259.142822265625
0, 0, 69, 260.5391235351562
0, 0, 70, 272.6070556640625
0, 0, 71, 238.5907745361328
0, 0, 72, 250.7793121337891
0, 0, 73, 258.6896057128906
0, 0, 74, 250.2937316894531
0, 0, 75, 243.7105865478516
0, 0, 76, 229.3232421875
0, 0, 77, 260.574951171875
0, 0, 78, 256.0340881347656
0, 0, 79, 278.0236511230469
0, 0, 80, 216.2870941162109
0, 0, 81, 268.6654357910156
0, 0, 82, 257.4640502929688
0, 0, 83, 244.8568572998047
0, 0, 84, 267.6369323730469
0, 0, 85, 231.5574493408203
0, 0, 86, 253.4762725830078
0, 0, 87, 250.3842163085938
0, 0, 88, 258.4367065429688
0, 0, 89, 282.069091796875
0, 0, 90, 243.9713592529297
0, 0, 91, 282.8806762695312
0, 0, 92, 252.8050231933594
0, 0, 93, 250.8552398681641
0, 0, 94, 250.2016296386719
0, 0, 95, 247.8520355224609
0, 0, 96, 275.7567749023438
0, 0, 97, 272.2470397949219
0, 0, 98, 275.1300354003906
0, 0, 99, 258.2103881835938
0, 0, 100, 258.9880065917969
0, 0, 101, 227.5031280517578
0, 0, 102, 232.7746124267578
0, 0, 103, 269.02197265625
0, 0, 104, 254.1659545898438
0, 0, 105, 250.2360229492188
0, 0, 106, 245.0992889404297
0, 0, 107, 151.4160614013672
0, 0, 108, 38.06290054321289
0, 0, 109, 11.72317123413086
0, 0, 110, 13.21438884735107
0, 0, 111, 8.89222526550293
0, 0, 112, 6.304607391357422
0, 0, 113, 5.087701320648193
0, 0, 114, 6.111161708831787
0, 0, 115, 4.095379829406738
0, 0, 116, 5.234132766723633
0, 0, 117, 6.387102127075195
0, 0, 118, 6.764806747436523
0, 0, 119, 5.968138217926025
0, 0, 120, 2.598971605300903
0, 0, 121, 4.967215538024902
0, 0, 122, 4.739975452423096
0, 0, 123, 2.883320093154907
0, 0, 124, 4.875646591186523
0, 0, 125, 3.637725353240967
0, 0, 126, 5.094951152801514
0, 0, 127, 8.722763061523438
0, 1, 0, 7.213338375091553
0, 1, 1, 3.406267642974854
0, 1, 2, 3.816150903701782
0, 1, 3, 1.292246222496033
0, 1, 4, 3.339628458023071
0, 1, 5, 4.162574768066406
0, 1, 6, 4.204320430755615
0, 1, 7, 4.686341285705566
0, 1, 8, 8.812373161315918
0, 1, 9, 5.472212314605713
0, 1, 10, 7.855998992919922
0, 1, 11, 10.34305191040039
0, 1, 12, 7.800642490386963
0, 1, 13, 10.55539894104004
0, 1, 14, 6.925384998321533
0, 1, 15, 8.316601753234863
0, 1, 16, 11.4826488494873
0, 1, 17, 10.15617942810059
0, 1, 18, 20.56780624389648
0, 1, 19, 65.72759246826172
0, 1, 20, 198.1855621337891
0, 1, 21, 255.9331512451172
0, 1, 22, 297.3780212402344
0, 1, 23, 282.7824096679688
0, 1, 24, 276.1760559082031
0, 1, 25, 288.6764526367188
0, 1, 26, 268.65771484375
0, 1, 27, 306.4826354980469
0, 1, 28, 298.8465881347656
0, 1, 29, 295.7035217285156
0, 1, 30, 280.9439392089844
0, 1, 31, 294.2616882324219
0, 1, 32, 290.0435791015625
0, 1, 33, 296.2261657714844
0, 1, 34, 291.6882629394531
0, 1, 35, 278.8307189941406
0, 1, 36, 306.2695007324219
0, 1, 37, 295.3484802246094
0, 1, 38, 280.8401489257812
0, 1, 39, 298.0106201171875
0, 1, 40, 265.7562255859375
0, 1, 41, 286.4411315917969
0, 1, 42, 289.4307556152344
0, 1, 43, 333.3945922851562
0, 1, 44, 278.6182861328125
0, 1, 45, 292.0091247558594
0, 1, 46, 260.4926147460938
0, 1, 47, 310.905517578125
0, 1, 48, 284.6238708496094
0, 1, 49, 300.6196594238281
0, 1, 50, 263.205078125
0, 1, 51, 272.9614868164062
0, 1, 52, 294.0569458007812
0, 1, 53, 305.2621765136719
0, 1, 54, 274.7066955566406
0, 1, 55, 292.8605346679688
0, 1, 56, 280.8849487304688
0, 1, 57, 296.5117492675781
0, 1, 58, 311.5541381835938
0, 1, 59, 291.2147827148438
0, 1, 60, 297.2463073730469
0, 1, 61, 274.2192077636719
0, 1, 62, 308.3728637695312
0, 1, 63, 285.3008117675781
0, 1, 64, 288.3250122070312
0, 1, 65, 297.7862243652344
0, 1, 66, 291.4508972167969
0, 1, 67, 292.1131591796875
0, 1, 68, 277.1689147949219
0, 1, 69, 279.5450744628906
0, 1, 70, 271.7549438476562
0, 1, 71, 275.4456176757812
0, 1, 72, 286.0510559082031
0, 1, 73, 304.9142761230469
0, 1, 74, 303.6938781738281
0, 1, 75, 292.8086242675781
0, 1, 76, 284.5879516601562
0, 1, 77, 291.3363647460938
0, 1, 78, 296.9392700195312
0, 1, 79, 302.0813293457031
0, 1, 80, 294.703369140625
0, 1, 81, 299.9120178222656
0, 1, 82, 283.0538940429688
0, 1, 83, 332.6162719726562
0, 1, 84, 310.9060668945312
0, 1, 85, 251.9135437011719
0, 1, 86, 295.8687744140625
0, 1, 87, 291.9069213867188
0, 1, 88, 298.7163696289062
0, 1, 89, 289.3799743652344
0, 1, 90, 269.2345275878906
0, 1, 91, 317.1412658691406
0, 1, 92, 291.8263549804688
0, 1, 93, 286.4618530273438
0, 1, 94, 304.0233764648438
0, 1, 95, 283.3055725097656
0, 1, 96, 281.9747314453125
0, 1, 97, 302.2078247070312
0, 1, 98, 280.5327758789062
0, 1, 99, 267.2505493164062
0, 1, 100, 276.3398132324219
0, 1, 101, 281.4814758300781
0, 1, 102, 277.6187744140625
0, 1, 103, 282.68408203125
0, 1, 104, 307.2916870117188
0, 1, 105, 295.8235473632812
0, 1, 106, 260.5538635253906
0, 1, 107, 192.5606384277344
0, 1, 108, 80.19861602783203
0, 1, 109, 22.92729187011719
0, 1, 110, 10.68347454071045
0, 1, 111, 8.136309623718262
0, 1, 112, 10.79109954833984
0, 1, 113, 4.229639530181885
0, 1, 114, 6.679027557373047
0, 1, 115, 7.34757137298584
0, 1, 116, 10.98499584197998
0, 1, 117, 5.565852642059326
0, 1, 118, 4.709991931915283
0, 1, 119, 6.060420513153076
0, 1, 120, 4.568950653076172
0, 1, 121, 4.545844078063965
0, 1, 122, 3.167982578277588
0, 1, 123, 2.911116361618042
0, 1, 124, 8.305846214294434
0, 1, 125, 3.692269325256348
0, 1, 126, 1.755646467208862
0, 1, 127, 2.122943639755249
0, 2, 0, 6.815142631530762
0, 2, 1, 1.655139207839966
0, 2, 2, 4.430097103118896
0, 2, 3, 4.668209075927734
0, 2, 4, 3.422828912734985
0, 2, 5, 1.60614550113678
0, 2, 6, 1.690624594688416
0, 2, 7, 5.791702270507812
0, 2, 8, 3.889817953109741
0, 2, 9, 6.048418998718262
0, 2, 10, 9.723696708679199
0, 2, 11, 6.867706298828125
0, 2, 12, 6.780004024505615
0, 2, 13, 9.306262969970703
0, 2, 14, 10.27285766601562
0, 2, 15, 7.415050983428955
0, 2, 16, 9.77418327331543
0, 2, 17, 17.51962471008301
0, 2, 18, 31.73020362854004
0, 2, 19, 117.1089096069336
0, 2, 20, 247.1541290283203
0, 2, 21, 270.7267761230469
0, 2, 22, 315.305419921875
0, 2, 23, 301.0957946777344
0, 2, 24, 287.8724975585938
0, 2, 25, 301.6706237792969
0, 2, 26, 294.2537231445312
0, 2, 27, 275.3296813964844
0, 2, 28, 274.0896606445312
0, 2, 29, 276.0850524902344
0, 2, 30, 288.9070434570312
0, 2, 31, 277.6321411132812
0, 2, 32, 292.9919128417969
0, 2, 33, 282.9802551269531
0, 2, 34, 330.242431640625
0, 2, 35, 288.2254333496094
0, 2, 36, 303.6423950195312
0, 2, 37, 314.1053466796875
0, 2, 38, 310.7341613769531
0, 2, 39, 268.4674987792969
0, 2, 40, 308.3722534179688
0, 2, 41, 290.5310363769531
0, 2, 42, 302.4964599609375
0, 2, 43, 311.7330017089844
0, 2, 44, 311.6134643554688
0, 2, 45, 325.2071533203125
0, 2, 46, 285.6393127441406
0, 2, 47, 302.6117858886719
0, 2, 48, 279.4885559082031
0, 2, 49, 280.5733642578125
0, 2, 50, 295.4201354980469
0, 2, 51, 283.8663024902344
0, 2, 52, 274.1143188476562
0, 2, 53, 287.1182556152344
0, 2, 54, 280.2666931152344
0, 2, 55, 277.8160095214844
0, 2, 56, 300.6079406738281
0, 2, 57, 290.9404602050781
0, 2, 58, 302.4674377441406
0, 2, 59, 290.3736877441406
0, 2, 60, 318.4746398925781
0, 2, 61, 302.481201171875
0, 2, 62, 313.1024475097656
0, 2, 63, 304.0769348144531
0, 2, 64, 296.9554748535156
0, 2, 65, 312.452880859375
0, 2, 66, 280.2061767578125
0, 2, 67, 290.3216857910156
0, 2, 68, 296.5031433105469
0, 2, 69, 310.5700073242188
0, 2, 70, 334.3157653808594
0, 2, 71, 283.533447265625
0, 2, 72, 301.571533203125
0, 2, 73, 311.4951171875
0, 2, 74, 286.9275512695312
0, 2, 75, 304.9136047363281
0, 2, 76, 286.3245239257812
0, 2, 77, 299.1672973632812
0, 2, 78, 314.7830810546875
0, 2, 79, 307.4051818847656
0, 2, 80, 296.8701477050781
0, 2, 81, 283.3607177734375
0, 2, 82, 318.2376403808594
0, 2, 83, 312.2778625488281
0, 2, 84, 288.8834228515625
0, 2, 85, 281.1073303222656
0, 2, 86, 323.8888549804688
0, 2, 87, 286.6572265625
0, 2, 88, 280.6530151367188
0, 2, 89, 297.43310546875
0, 2, 90, 294.4425048828125
0, 2, 91, 279.6170654296875
0, 2, 92, 304.3522033691406
0, 2, 93, 317.4132080078125
0, 2, 94, 293.158447265625
0, 2, 95, 313.9965515136719
0, 2, 96, 316.2391052246094
0, 2, 97, 292.5181579589844
0, 2, 98, 292.8546142578125
0, 2, 99, 274.5801391601562
0, 2, 100, 306.7084045410156
0, 2, 101, 300.5661315917969
0, 2, 102, 296.3029479980469
0, 2, 103, 292.4960632324219
0, 2, 104, 293.9790649414062
0, 2, 105, 274.600341796875
0, 2, 106, 296.9568786621094
0, 2, 107, 267.9496765136719
0, 2, 108, 115.8806762695312
0, 2, 109, 32.14377975463867
0, 2, 110, 9.653440475463867
0, 2, 111, 12.97507381439209
0, 2, 112, 7.635616302490234
0, 2, 113, 10.21528911590576
0, 2, 114, 8.654672622680664
0, 2, 115, 8.712117195129395
0, 2, 116, 9.268664360046387
0, 2, 117, 6.006020545959473
0, 2, 118, 3.707359313964844
0, 2, 119, 2.740444898605347
0, 2, 120, 7.811294555664062
0, 2, 121, 3.069069862365723
0, 2, 122, 6.511862277984619
0, 2, 123, 3.955907821655273
0, 2, 124, 3.669440031051636
0, 2, 125, 5.901088714599609
0, 2, 126, 3.907747983932495
0, 2, 127, 5.661553382873535
0, 3, 0, 4.11098575592041
0, 3, 1, 2.988420248031616
0, 3, 2, 4.992921352386475
0, 3, 3, 2.085403442382812
0, 3, 4, 6.021374225616455
0, 3, 5, 6.533565521240234
0, 3, 6, 6.284703731536865
0, 3, 7, 5.133389949798584
0, 3, 8, 5.567728996276855
0, 3, 9, 5.38347864151001
0, 3, 10, 5.044250011444092
0, 3, 11, 4.625974655151367
0, 3, 12, 9.63588809967041
0, 3, 13, 14.23949432373047
0, 3, 14, 10.56743621826172
0, 3, 15, 14.1571798324585
0, 3, 16, 12.49092197418213
0, 3, 17, 20.02151107788086
0, 3, 18, 52.22526550292969
0, 3, 19, 176.0070343017578
0, 3, 20, 268.7704467773438
0, 3, 21, 271.2584838867188
0, 3, 22, 282.0274963378906
0, 3, 23, 285.9211120605469
0, 3, 24, 285.6185607910156
0, 3, 25, 270.5906982421875
0, 3, 26, 303.931396484375
0, 3, 27, 291.3052978515625
0, 3, 28, 280.1277160644531
0, 3, 29, 338.9426574707031
0, 3, 30, 316.8852233886719
0, 3, 31, 286.5026245117188
0, 3, 32, 308.3646850585938
0, 3, 33, 314.9502563476562
0, 3, 34, 321.631591796875
0, 3, 35, 305.6535034179688
0, 3, 36, 272.7432861328125
0, 3, 37, 315.4032287597656
0, 3, 38, 305.4078063964844
0, 3, 39, 288.406494140625
0, 3, 40, 267.2242126464844
0, 3, 41, 299.7171630859375
0, 3, 42, 286.8436584472656
0, 3, 43, 304.8435363769531
0, 3, 44, 311.3409729003906
0, 3, 45, 291.1938781738281
0, 3, 46, 329.3581237792969
0, 3, 47, 299.3222045898438
0, 3, 48, 303.1602172851562
0, 3, 49, 275.3612670898438
0, 3, 50, 289.5748596191406
0, 3, 51, 275.4887084960938
0, 3, 52, 317.5684814453125
0, 3, 53, 287.4795227050781
0, 3, 54, 284.4713439941406
0, 3, 55, 282.4610595703125
0, 3, 56, 298.9208374023438
0, 3, 57, 286.8435363769531
0, 3, 58, 304.8692321777344
0, 3, 59, 293.9516296386719
0, 3, 60, 298.1472473144531
0, 3, 61, 263.6868591308594
0, 3, 62, 284.7207641601562
0, 3, 63, 306.2737121582031
0, 3, 64, 316.214599609375
0, 3, 65, 305.5375366210938
0, 3, 66, 317.0355224609375
0, 3, 67, 317.0050048828125
0, 3, 68, 278.6404418945312
0, 3, 69, 283.4921569824219
0, 3, 70, 288.1788024902344
0, 3, 71, 300.1224365234375
0, 3, 72, 270.1995849609375
0, 3, 73, 309.0776977539062
0, 3, 74, 293.8831481933594
0, 3, 75, 290.2991943359375
0, 3, 76, 304.9482421875
0, 3, 77, 315.8630981445312
0, 3, 78, 305.4056091308594
0, 3, 79, 282.5934753417969
0, 3, 80, 291.3604125976562
0, 3, 81, 310.5559692382812
0, 3, 82, 316.2226257324219
0, 3, 83, 301.570556640625
0, 3, 84, 313.4899291992188
0, 3, 85, 292.8942260742188
0, 3, 86, 302.7713623046875
0, 3, 87, 297.388427734375
0, 3, 88, 298.7943115234375
0, 3, 89, 295.4512329101562
0, 3, 90, 276.9547424316406
0, 3, 91, 284.294677734375
0, 3, 92, 305.0161437988281
0, 3, 93, 312.6144409179688
0, 3, 94, 297.4460754394531
0, 3, 95, 333.5119323730469
0, 3, 96, 289.9226989746094
0, 3, 97, 285.174560546875
0, 3, 98, 278.1130981445312
0, 3, 99, 261.5213623046875
0, 3, 100, 284.4305419921875
0, 3, 101, 297.3131103515625
0, 3, 102, 274.0995788574219
0, 3, 103, 320.3815612792969
0, 3, 104, 308.5418701171875
0, 3, 105, 287.5581359863281
0, 3, 106, 305.3088073730469
0, 3, 107, 284.94921875
0, 3, 108, 168.8399963378906
0, 3, 109, 56.63142395019531
0, 3, 110, 18.40049171447754
0, 3, 111, 12.46517658233643
0, 3, 112, 11.07456493377686
0, 3, 113, 6.566691398620605
0, 3, 114, 8.953377723693848
0, 3, 115, 8.13397216796875
0, 3, 116, 10.33617687225342
0, 3, 117, 7.906362056732178
0, 3, 118, 7.550482749938965
0, 3, 119, 8.12397289276123
0, 3, 120, 6.506338119506836
0, 3, 121, 2.020646572113037
0, 3, 122, 4.596256256103516
0, 3, 123, 6.570665836334229
0, 3, 124, 4.332024574279785
0, 3, 125, 6.70315408706665
0, 3, 126, 3.002817392349243
0, 3, 127, 2.240861892700195
0, 4, 0, 2.684104681015015
0, 4, 1, 4.800944805145264
0, 4, 2, 2.809300899505615
0, 4, 3, 2.725933074951172
0, 4, 4, 7.04496955871582
0, 4, 5, 9.154801368713379
0, 4, 6, 5.408786296844482
0, 4, 7, 5.107377052307129
0, 4, 8, 3.339832067489624
0, 4, 9, 7.896900653839111
0, 4, 10, 6.617669582366943
0, 4, 11, 6.060255527496338
0, 4, 12, 5.093637466430664
0, 4, 13, 8.392470359802246
0, 4, 14, 12.21382522583008
0, 4, 15, 9.278918266296387
0, 4, 16, 15.67419815063477
0, 4, 17, 17.84811401367188
0, 4, 18, 92.83457183837891
0, 4, 19, 223.9873046875
0, 4, 20, 285.2978820800781
0, 4, 21, 272.9600830078125
0, 4, 22, 305.3727722167969
0, 4, 23, 267.56201171875
0, 4, 24, 288.4812622070312
0, 4, 25, 273.8963317871094
0, 4, 26, 295.4820251464844
0, 4, 27, 284.0838623046875
0, 4, 28, 307.1482543945312
0, 4, 29, 322.6368103027344
0, 4, 30, 311.1096801757812
0, 4, 31, 306.5171508789062
0, 4, 32, 280.6136169433594
0, 4, 33, 296.2373046875
0, 4, 34, 300.1353149414062
0, 4, 35, 312.8094177246094
0, 4, 36, 294.2491149902344
0, 4, 37, 291.0159301757812
0, 4, 38, 298.1293029785156
0, 4, 39, 292.6490173339844
0, 4, 40, 302.1781616210938
0, 4, 41, 312.8027648925781
0, 4, 42, 331.1313781738281
0, 4, 43, 298.3536987304688
0, 4, 44, 320.6939697265625
0, 4, 45, 324.9602661132812
0, 4, 46, 305.9806213378906
0, 4, 47, 292.6234130859375
0, 4, 48, 298.6995239257812
0, 4, 49, 276.3398132324219
0, 4, 50, 295.4678344726562
0, 4, 51, 316.056884765625
0, 4, 52, 325.8169250488281
0, 4, 53, 305.0745544433594
0, 4, 54, 287.5508728027344
0, 4, 55, 316.2687683105469
0, 4, 56, 288.6489562988281
0, 4, 57, 310.5231018066406
0, 4, 58, 297.2397155761719
0, 4, 59, 309.8844604492188
0, 4, 60, 302.5079345703125
0, 4, 61, 314.40087890625
0, 4, 62, 307.7266540527344
0, 4, 63, 299.3143005371094
0, 4, 64, 329.9555358886719
0, 4, 65, 315.0697631835938
0, 4, 66, 290.8143310546875
0, 4, 67, 285.8760986328125
0, 4, 68, 314.0565185546875
0, 4, 69, 275.3493957519531
0, 4, 70, 298.3766479492188
0, 4, 71, 321.8762512207031
0, 4, 72, 333.8756103515625
0, 4, 73, 298.7709350585938
0, 4, 74, 291.4232482910156
0, 4, 75, 290.97802734375
0, 4, 76, 274.7521057128906
0, 4, 77, 278.2149047851562
0, 4, 78, 309.4252014160156
0, 4, 79, 319.2588195800781
0, 4, 80, 316.6035461425781
0, 4, 81, 313.0706481933594
0, 4, 82, 297.3553161621094
0, 4, 83, 302.2992858886719
0, 4, 84, 291.5687255859375
0, 4, 85, 294.7457885742188
0, 4, 86, 299.349853515625
0, 4, 87, 284.82275390625
0, 4, 88, 305.080322265625
0, 4, 89, 294.2715148925781
0, 4, 90, 332.3704223632812
0, 4, 91, 303.9295654296875
0, 4, 92, 288.5523681640625
0, 4, 93, 295.8402404785156
0, 4, 94, 291.8988647460938
0, 4, 95, 287.7730712890625
0, 4, 96, 324.1683044433594
0, 4, 97, 274.0150451660156
0, 4, 98, 326.7436218261719
0, 4, 99, 313.5965881347656
0, 4, 100, 302.7788391113281
0, 4, 101, 256.0291137695312
0, 4, 102, 298.2161254882812
0, 4, 103, 316.4449768066406
0, 4, 104, 282.3001403808594
0, 4, 105, 313.5161437988281
0, 4, 106, 288.1059875488281
0, 4, 107, 295.8384399414062
0, 4, 108, 225.9076385498047
0, 4, 109, 79.28733825683594
0, 4, 110, 15.51907634735107
0, 4, 111, 13.56893444061279
0, 4, 112, 8.345260620117188
0, 4, 113, 11.35220432281494
0, 4, 114, 9.21706485748291
0, 4, 115, 10.04770755767822
0, 4, 116, 7.265199184417725
0, 4, 117, 8.769946098327637
0, 4, 118, 10.15029144287109
0, 4, 119, 8.279890060424805
0, 4, 120, 6.352417945861816
0, 4, 121, 3.843596696853638
0, 4, 122, 4.810592651367188
0, 4, 123, 6.097822189331055
0, 4, 124, 6.788012027740479
0, 4, 125, 11.10804843902588
0, 4, 126, 4.990461826324463
0, 4, 127, 4.461156368255615
0, 5, 0, 5.838387966156006
0, 5, 1, 3.880492687225342
0, 5, 2, 5.753730297088623
0, 5, 3, 4.114480972290039
0, 5, 4, 4.911539554595947
0, 5, 5, 4.82205057144165
0, 5, 6, 4.895565986633301
0, 5, 7, 5.094933032989502
0, 5, 8, 5.255817890167236
0, 5, 9, 4.812770366668701
0, 5, 10, 7.730531692504883
0, 5, 11, 7.068296909332275
0, 5, 12, 7.434675693511963
0, 5, 13, 5.018327713012695
0, 5, 14, 12.46109390258789
0, 5, 15, 17.43516731262207
0, 5, 16, 14.71796131134033
0, 5, 17, 29.68301582336426
0, 5, 18, 139.7882843017578
0, 5, 19, 291.1123352050781
0, 5, 20, 306.4233093261719
0, 5, 21, 317.6228637695312
0, 5, 22, 276.76513671875
0, 5, 23, 312.2083435058594
0, 5, 24, 301.5470275878906
0, 5, 25, 290.5780334472656
0, 5, 26, 294.649169921875
0, 5, 27, 322.0912170410156
0, 5, 28, 304.7094421386719
0, 5, 29, 301.0812683105469
0, 5, 30, 322.4058227539062
0, 5, 31, 284.6429443359375
0, 5, 32, 302.3878784179688
0, 5, 33, 304.0510559082031
0, 5, 34, 296.5224304199219
0, 5, 35, 309.1921997070312
0, 5, 36, 269.3681030273438
0, 5, 37, 282.1405334472656
0, 5, 38, 291.8701782226562
0, 5, 39, 313.9744567871094
0, 5, 40, 309.1471862792969
0, 5, 41, 272.6045227050781
0, 5, 42, 306.9891052246094
0, 5, 43, 313.6640930175781
0, 5, 44, 292.1366882324219
0, 5, 45, 303.6781616210938
0, 5, 46, 264.4850463867188
0, 5, 47, 280.4902648925781
0, 5, 48, 298.6588439941406
0, 5, 49, 286.73486328125
0, 5, 50, 297.5166625976562
0, 5, 51, 278.7860107421875
0, 5, 52, 268.1449584960938
0, 5, 53, 283.7639465332031
0, 5, 54, 291.1742553710938
0, 5, 55, 345.9607238769531
0, 5, 56, 304.6452026367188
0, 5, 57, 308.1428527832031
0, 5, 58, 313.4565734863281
0, 5, 59, 302.6611328125
0, 5, 60, 310.6261291503906
0, 5, 61, 281.0812072753906
0, 5, 62, 327.6119079589844
0, 5, 63, 292.0285339355469
0, 5, 64, 323.826416015625
0, 5, 65, 305.4786987304688
0, 5, 66, 328.2359008789062
0, 5, 67, 311.7982177734375
0, 5, 68, 308.9912414550781
0, 5, 69, 310.4189147949219
0, 5, 70, 301.1448974609375
0, 5, 71, 273.2225952148438
0, 5, 72, 309.8533325195312
0, 5, 73, 301.2955017089844
0, 5, 74, 295.3094787597656
0, 5, 75, 294.6876220703125
0, 5, 76, 285.3438720703125
0, 5, 77, 303.6450500488281
0, 5, 78, 316.7311401367188
0, 5, 79, 306.2401123046875
0, 5, 80, 295.6748657226562
0, 5, 81, 325.1082763671875
0, 5, 82, 323.822265625
0, 5, 83, 279.7459716796875
0, 5, 84, 302.9548034667969
0, 5, 85, 270.9945068359375
0, 5, 86, 327.2510986328125
0, 5, 87, 284.8548889160156
0, 5, 88, 314.8069763183594
0, 5, 89, 304.12255859375
0, 5, 90, 316.3194580078125
0, 5, 91, 312.833740234375
0, 5, 92, 296.32421875
0, 5, 93, 322.2283630371094
0, 5, 94, 308.3287963867188
0, 5, 95, 296.2781372070312
0, 5, 96, 296.6459350585938
0, 5, 97, 294.3441467285156
0, 5, 98, 317.90771484375
0, 5, 99, 301.1644287109375
0, 5, 100, 289.8673400878906
0, 5, 101, 310.335205078125
0, 5, 102, 293.9882202148438
0, 5, 103, 313.5465087890625
0, 5, 104, 305.4447326660156
0, 5, 105, 290.9089660644531
0, 5, 106, 280.8226623535156
0, 5, 107, 293.4337768554688
0, 5, 108, 265.5606994628906
0, 5, 109, 156.9329223632812
0, 5, 110, 40.31620025634766
0, 5, 111, 23.60923004150391
0, 5, 112, 17.93827438354492
0, 5, 113, 13.97715187072754
0, 5, 114, 13.87693119049072
0, 5, 115, 8.168283462524414
0, 5, 116, 7.202224731445312
0, 5, 117, 4.957971096038818
0, 5, 118, 13.63052940368652
0, 5, 119, 4.417887687683105
0, 5, 120, 7.025241374969482
0, 5, 121, 6.970832824707031
0, 5, 122, 7.563732147216797
0, 5, 123, 5.963136196136475
0, 5, 124, 7.335044860839844
0, 5, 125, 3.814857006072998
0, 5, 126, 7.202006816864014
0, 5, 127, 4.65269947052002
0, 6, 0, 5.210537433624268
0, 6, 1, 2.213142871856689
0, 6, 2, 4.962977886199951
0, 6, 3, 5.27476978302002
0, 6, 4, 3.714917421340942
0, 6, 5, 7.275725364685059
0, 6, 6, 10.74500751495361
0, 6, 7, 5.988405704498291
0, 6, 8, 9.265978813171387
0, 6, 9, 6.129233360290527
0, 6, 10, 8.49687385559082
0, 6, 11, 7.77148962020874
0, 6, 12, 9.265844345092773
0, 6, 13, 16.45194625854492
0, 6, 14, 9.300390243530273
0, 6, 15, 15.47621536254883
0, 6, 16, 29.01206970214844
0, 6, 17, 54.19626235961914
0, 6, 18, 175.5371246337891
0, 6, 19, 275.9457702636719
0, 6, 20, 291.5466003417969
0, 6, 21, 313.33740234375
0, 6, 22, 318.7790832519531
0, 6, 23, 304.5030212402344
0, 6, 24, 316.1350708007812
0, 6, 25, 316.0889892578125
0, 6, 26, 321.3699035644531
0, 6, 27, 330.8230895996094
0, 6, 28, 294.767822265625
0, 6, 29, 329.4503479003906
0, 6, 30, 283.5523681640625
0, 6, 31, 287.3211669921875
0, 6, 32, 339.1838989257812
0, 6, 33, 300.6851501464844
0, 6, 34, 339.2218017578125
0, 6, 35, 320.5979919433594
0, 6, 36, 272.4886779785156
0, 6, 37, 288.9092407226562
0, 6, 38, 313.6880493164062
0, 6, 39, 298.2408142089844
0, 6, 40, 282.0707397460938
0, 6, 41, 295.8319091796875
0, 6, 42, 304.6445922851562
0, 6, 43, 288.1990661621094
0, 6, 44, 279.3413696289062
0, 6, 45, 320.6519165039062
0, 6, 46, 300.3318176269531
0, 6, 47, 333.9913024902344
0, 6, 48, 291.6802368164062
0, 6, 49, 313.9451904296875
0, 6, 50, 327.8734741210938
0, 6, 51, 310.6744689941406
0, 6, 52, 322.9527282714844
0, 6, 53, 326.9031982421875
0, 6, 54, 303.7801513671875
0, 6, 55, 306.060791015625
0, 6, 56, 291.7270202636719
0, 6, 57, 312.0683288574219
0, 6, 58, 264.3182373046875
0, 6, 59, 301.97705078125
0, 6, 60, 312.7022399902344
0, 6, 61, 270.4683227539062
0, 6, 62, 337.0133361816406
0, 6, 63, 324.7886047363281
0, 6, 64, 291.3214111328125
0, 6, 65, 283.126708984375
0, 6, 66, 302.8997192382812
0, 6, 67, 310.0773620605469
0, 6, 68, 293.3474731445312
0, 6, 69, 280.4702758789062
0, 6, 70, 272.6864013671875
0, 6, 71, 289.4196166992188
0, 6, 72, 309.7093200683594
0, 6, 73, 292.9391174316406
0, 6, 74, 330.8429260253906
0, 6, 75, 343.5558776855469
0, 6, 76, 298.0313415527344
0, 6, 77, 286.2104187011719
0, 6, 78, 278.6775207519531
0, 6, 79, 293.3589172363281
0, 6, 80, 298.1878051757812
0, 6, 81, 314.2221984863281
0, 6, 82, 319.0415344238281
0, 6, 83, 320.7561340332031
0, 6, 84, 296.1777038574219
0, 6, 85, 303.0243530273438
0, 6, 86, 328.9814758300781
0, 6, 87, 291.7281188964844
0, 6, 88, 305.6373901367188
0, 6, 89, 303.9781188964844
0, 6, 90, 299.8694458007812
0, 6, 91, 313.1457824707031
0, 6, 92, 287.1013488769531
0, 6, 93, 294.2251892089844
0, 6, 94, 272.8894653320312
0, 6, 95, 302.2849426269531
0, 6, 96, 350.532958984375
0, 6, 97, 307.994384765625
0, 6, 98, 301.1377258300781
0, 6, 99, 271.964599609375
0, 6, 100, 311.820556640625
0, 6, 101, 292.1003112792969
0, 6, 102, 307.4185485839844
0, 6, 103, 308.1493530273438
0, 6, 104, 293.1033020019531
0, 6, 105, 300.168212890625
0, 6, 106, 308.1571044921875
0, 6, 107, 306.01904296875
0, 6, 108, 267.6206359863281
0, 6, 109, 186.7993621826172
0, 6, 110, 56.3866081237793
0, 6, 111, 23.10758781433105
0, 6, 112, 13.16842555999756
0, 6, 113, 13.583251953125
0, 6, 114, 12.30630302429199
0, 6, 115, 12.78102111816406
0, 6, 116, 9.709696769714355
0, 6, 117, 9.72945499420166
0, 6, 118, 12.12956619262695
0, 6, 119, 6.026988506317139
0, 6, 120, 6.616044998168945
0, 6, 121, 5.62791109085083
0, 6, 122, 6.777290821075439
0, 6, 123, 6.031169891357422
0, 6, 124, 6.265880107879639
0, 6, 125, 9.172542572021484
0, 6, 126, 3.421044111251831
0, 6, 127, 8.639316558837891
0, 7, 0, 5.240039825439453
0, 7, 1, 3.475270986557007
0, 7, 2, 6.154462337493896
0, 7, 3, 3.915904760360718
0, 7, 4, 3.349785804748535
0, 7, 5, 5.29491662979126
0, 7, 6, 5.974533557891846
0, 7, 7, 5.773827075958252
0, 7, 8, 4.909533977508545
0, 7, 9, 6.936431407928467
0, 7, 10, 8.941982269287109
0, 7, 11, 11.63595390319824
0, 7, 12, 10.43891334533691
0, 7, 13, 11.30014991760254
0, 7, 14, 10.21475696563721
0, 7, 15, 17.00784111022949
0, 7, 16, 26.2266674041748
0, 7, 17, 99.39642333984375
0, 7, 18, 217.3400115966797
0, 7, 19, 287.9419555664062
0, 7, 20, 296.3080139160156
0, 7, 21, 278.00390625
0, 7, 22, 300.03369140625
0, 7, 23, 289.0881652832031
0, 7, 24, 313.0553588867188
0, 7, 25, 324.1830444335938
0, 7, 26, 276.9695739746094
0, 7, 27, 298.2445983886719
0, 7, 28, 326.23046875
0, 7, 29, 317.6741333007812
0, 7, 30, 299.7521362304688
0, 7, 31, 278.1692810058594
0, 7, 32, 307.1940002441406
0, 7, 33, 263.7190551757812
0, 7, 34, 298.4353332519531
0, 7, 35, 318.7816162109375
0, 7, 36, 331.159912109375
0, 7, 37, 324.1445922851562
0, 7, 38, 295.4888916015625
0, 7, 39, 306.4737854003906
0, 7, 40, 289.4777526855469
0, 7, 41, 272.6950378417969
0, 7, 42, 300.1463317871094
0, 7, 43, 277.0232238769531
0, 7, 44, 303.9993591308594
0, 7, 45, 294.8902893066406
0, 7, 46, 282.510498046875
0, 7, 47, 330.6410217285156
0, 7, 48, 286.5612182617188
0, 7, 49, 300.8196105957031
0, 7, 50, 322.0663452148438
0, 7, 51, 298.6122741699219
0, 7, 52, 327.2113037109375
0, 7, 53, 309.5467224121094
0, 7, 54, 323.5068664550781
0, 7, 55, 308.3844909667969
0, 7, 56, 278.8981323242188
0, 7, 57, 282.2017211914062
0, 7, 58, 296.2818298339844
0, 7, 59, 293.0552062988281
0, 7, 60, 322.494873046875
0, 7, 61, 278.9673767089844
0, 7, 62, 297.4938659667969
0, 7, 63, 294.6464538574219
0, 7, 64, 306.0899658203125
0, 7, 65, 331.2199401855469
0, 7, 66, 319.2937927246094
0, 7, 67, 301.5958862304688
0, 7, 68, 278.89306640625
0, 7, 69, 295.9799194335938
0, 7, 70, 302.5930480957031
0, 7, 71, 308.7207946777344
0, 7, 72, 284.4770812988281
0, 7, 73, 298.2082824707031
0, 7, 74, 344.9671630859375
0, 7, 75, 318.2587280273438
0, 7, 76, 323.3358154296875
0, 7, 77, 279.6855773925781
0, 7, 78, 303.1123046875
0, 7, 79, 296.9805908203125
0, 7, 80, 311.9502258300781
0, 7, 81, 321.3831176757812
0, 7, 82, 328.8966979980469
0, 7, 83, 320.2992248535156
0, 7, 84, 309.278076171875
0, 7, 85, 273.3645324707031
0, 7, 86, 311.043212890625
0, 7, 87, 308.6581726074219
0, 7, 88, 308.5307312011719
0, 7, 89, 293.1686401367188
0, 7, 90, 309.0028991699219
0, 7, 91, 316.0625915527344
0, 7, 92, 289.1029052734375
0, 7, 93, 307.80419921875
0, 7, 94, 273.2952880859375
0, 7, 95, 296.9707641601562
0, 7, 96, 330.9041442871094
0, 7, 97, 292.8719177246094
0, 7, 98, 291.5428771972656
0, 7, 99, 311.6650085449219
0, 7, 100, 280.7803344726562
0, 7, 101, 274.5342407226562
0, 7, 102, 290.0007934570312
0, 7, 103, 292.0687255859375
0, 7, 104, 274.7134704589844
0, 7, 105, 305.8836364746094
0, 7, 106, 317.0669250488281
0, 7, 107, 296.6679077148438
0, 7, 108, 272.367919921875
0, 7, 109, 236.7039489746094
0, 7, 110, 95.84387969970703
0, 7, 111, 24.1227912902832
0, 7, 112, 13.83003902435303
0, 7, 113, 14.22876167297363
0, 7, 114, 12.51775741577148
0, 7, 115, 12.24232769012451
0, 7, 116, 10.09592533111572
0, 7, 117, 6.64242696762085
0, 7, 118, 9.767914772033691
0, 7, 119, 8.13853645324707
0, 7, 120, 4.231882095336914
0, 7, 121, 6.031896114349365
0, 7, 122, 6.237560272216797
0, 7, 123, 6.700099945068359
0, 7, 124, 3.455475568771362
0, 7, 125, 5.515826225280762
0, 7, 126, 8.278417587280273
0, 7, 127, 2.614210367202759
0, 8, 0, 5.2227783203125
0, 8, 1, 3.772107362747192
0, 8, 2, 4.092111110687256
0, 8, 3, 3.12299656867981
0, 8, 4, 4.52401065826416
0, 8, 5, 5.670760154724121
0, 8, 6, 6.855820655822754
0, 8, 7, 5.381989479064941
0, 8, 8, 8.1514892578125
0, 8, 9, 3.957434177398682
0, 8, 10, 6.708078861236572
0, 8, 11, 14.42065620422363
0, 8, 12, 15.74960803985596
0, 8, 13, 14.69880390167236
0, 8, 14, 13.0731201171875
0, 8, 15, 19.12223434448242
0, 8, 16, 31.97173309326172
0, 8, 17, 131.0397796630859
0, 8, 18, 243.0673217773438
0, 8, 19, 296.0643920898438
0, 8, 20, 284.0474548339844
0, 8, 21, 306.7105712890625
0, 8, 22, 295.4267578125
0, 8, 23, 274.6199035644531
0, 8, 24, 270.7837829589844
0, 8, 25, 274.9870300292969
0, 8, 26, 305.48486328125
0, 8, 27, 307.4603576660156
0, 8, 28, 303.9559631347656
0, 8, 29, 318.4178161621094
0, 8, 30, 314.8558654785156
0, 8, 31, 304.3560791015625
0, 8, 32, 281.35107421875
0, 8, 33, 294.1598815917969
0, 8, 34, 288.5130615234375
0, 8, 35, 280.7587890625
0, 8, 36, 315.1891174316406
0, 8, 37, 338.7645263671875
0, 8, 38, 331.9987182617188
0, 8, 39, 282.9658508300781
