# TOPAS Version: 3.1.p3
# Parameter File: batch_inserts_134.txt
# Results for scorer Readout_Adipose
# Scored in component: MyBox
# X in 1 bin  of 0.75 cm
# Y in 512 bins of 0.0783984 cm
# Z in 128 bins of 0.078125 cm
# EnergyDeposit ( MeV ) : Sum   
0, 0, 0, 6.590142250061035
0, 0, 1, 1.832694053649902
0, 0, 2, 2.789168119430542
0, 0, 3, 1.352751851081848
0, 0, 4, 4.286164283752441
0, 0, 5, 2.715145826339722
0, 0, 6, 7.202640533447266
0, 0, 7, 9.188751220703125
0, 0, 8, 2.553238391876221
0, 0, 9, 4.982212543487549
0, 0, 10, 8.78516960144043
0, 0, 11, 4.487574577331543
0, 0, 12, 6.44607400894165
0, 0, 13, 7.763872623443604
0, 0, 14, 9.351350784301758
0, 0, 15, 9.330727577209473
0, 0, 16, 8.704190254211426
0, 0, 17, 8.641576766967773
0, 0, 18, 13.82500648498535
0, 0, 19, 43.2943229675293
0, 0, 20, 140.3139495849609
0, 0, 21, 222.8228912353516
0, 0, 22, 248.2447052001953
0, 0, 23, 255.7928314208984
0, 0, 24, 250.3207702636719
0, 0, 25, 259.1552734375
0, 0, 26, 234.3403167724609
0, 0, 27, 236.7154388427734
0, 0, 28, 271.1528625488281
0, 0, 29, 252.1417846679688
0, 0, 30, 228.6752471923828
0, 0, 31, 244.2393035888672
0, 0, 32, 263.1588439941406
0, 0, 33, 261.4372253417969
0, 0, 34, 287.5177612304688
0, 0, 35, 266.8822937011719
0, 0, 36, 246.8930816650391
0, 0, 37, 252.9225158691406
0, 0, 38, 267.1452026367188
0, 0, 39, 229.6570129394531
0, 0, 40, 241.5066528320312
0, 0, 41, 264.9811706542969
0, 0, 42, 229.5704498291016
0, 0, 43, 259.223876953125
0, 0, 44, 251.9564056396484
0, 0, 45, 252.5101165771484
0, 0, 46, 244.26220703125
0, 0, 47, 253.2089691162109
0, 0, 48, 266.6556701660156
0, 0, 49, 273.2861633300781
0, 0, 50, 252.6591644287109
0, 0, 51, 255.5117340087891
0, 0, 52, 271.7754516601562
0, 0, 53, 292.6767272949219
0, 0, 54, 242.1916961669922
0, 0, 55, 240.2540435791016
0, 0, 56, 279.7774047851562
0, 0, 57, 263.7302551269531
0, 0, 58, 246.0063018798828
0, 0, 59, 268.5975341796875
0, 0, 60, 233.8292236328125
0, 0, 61, 243.7875061035156
0, 0, 62, 256.9979858398438
0, 0, 63, 267.3766479492188
0, 0, 64, 254.6871948242188
0, 0, 65, 260.6885681152344
0, 0, 66, 276.7912292480469
0, 0, 67, 245.6948699951172
0, 0, 68, 258.559814453125
0, 0, 69, 260.8798522949219
0, 0, 70, 271.5758361816406
0, 0, 71, 239.5004272460938
0, 0, 72, 250.2226715087891
0, 0, 73, 258.4225158691406
0, 0, 74, 251.6385345458984
0, 0, 75, 240.5937805175781
0, 0, 76, 229.0272521972656
0, 0, 77, 260.274169921875
0, 0, 78, 259.3042602539062
0, 0, 79, 278.955810546875
0, 0, 80, 214.9913635253906
0, 0, 81, 267.2615966796875
0, 0, 82, 259.076171875
0, 0, 83, 246.7500762939453
0, 0, 84, 269.2777709960938
0, 0, 85, 231.3707122802734
0, 0, 86, 255.1213073730469
0, 0, 87, 250.7399444580078
0, 0, 88, 259.4403991699219
0, 0, 89, 285.3814697265625
0, 0, 90, 244.5061340332031
0, 0, 91, 281.8394165039062
0, 0, 92, 253.4168853759766
0, 0, 93, 252.1395874023438
0, 0, 94, 248.4673156738281
0, 0, 95, 248.2823486328125
0, 0, 96, 276.0034484863281
0, 0, 97, 272.3630676269531
0, 0, 98, 272.5437927246094
0, 0, 99, 259.158203125
0, 0, 100, 259.0906982421875
0, 0, 101, 225.8419952392578
0, 0, 102, 233.0239715576172
0, 0, 103, 268.7292785644531
0, 0, 104, 255.2538604736328
0, 0, 105, 251.583251953125
0, 0, 106, 243.9039154052734
0, 0, 107, 150.0861968994141
0, 0, 108, 39.27377700805664
0, 0, 109, 11.23826789855957
0, 0, 110, 12.00456619262695
0, 0, 111, 9.225673675537109
0, 0, 112, 8.279165267944336
0, 0, 113, 4.822547435760498
0, 0, 114, 6.690053939819336
0, 0, 115, 3.369321346282959
0, 0, 116, 5.465384006500244
0, 0, 117, 5.301438331604004
0, 0, 118, 7.044765949249268
0, 0, 119, 5.904450416564941
0, 0, 120, 3.003814220428467
0, 0, 121, 2.933584690093994
0, 0, 122, 5.663628101348877
0, 0, 123, 3.772669553756714
0, 0, 124, 4.906691551208496
0, 0, 125, 4.470513343811035
0, 0, 126, 5.729089736938477
0, 0, 127, 3.235399723052979
0, 1, 0, 7.417623996734619
0, 1, 1, 2.973851680755615
0, 1, 2, 4.812758922576904
0, 1, 3, 1.934345483779907
0, 1, 4, 3.819153070449829
0, 1, 5, 4.656041145324707
0, 1, 6, 5.321306705474854
0, 1, 7, 4.506702423095703
0, 1, 8, 7.031674385070801
0, 1, 9, 3.87094521522522
0, 1, 10, 8.383157730102539
0, 1, 11, 11.01064300537109
0, 1, 12, 8.562286376953125
0, 1, 13, 8.826921463012695
0, 1, 14, 7.354689121246338
0, 1, 15, 7.037442207336426
0, 1, 16, 11.38771057128906
0, 1, 17, 10.06308364868164
0, 1, 18, 21.4653491973877
0, 1, 19, 65.35563659667969
0, 1, 20, 199.9342346191406
0, 1, 21, 255.1593322753906
0, 1, 22, 297.2412414550781
0, 1, 23, 282.1242370605469
0, 1, 24, 277.8165588378906
0, 1, 25, 291.8883361816406
0, 1, 26, 267.7186584472656
0, 1, 27, 306.3950805664062
0, 1, 28, 300.2846984863281
0, 1, 29, 295.4508361816406
0, 1, 30, 279.7828979492188
0, 1, 31, 292.1723022460938
0, 1, 32, 289.9826965332031
0, 1, 33, 297.46533203125
0, 1, 34, 293.5175476074219
0, 1, 35, 277.3512878417969
0, 1, 36, 307.3575134277344
0, 1, 37, 294.2927856445312
0, 1, 38, 279.5286560058594
0, 1, 39, 294.7258911132812
0, 1, 40, 265.0807495117188
0, 1, 41, 287.10107421875
0, 1, 42, 289.2376098632812
0, 1, 43, 331.895263671875
0, 1, 44, 277.2254333496094
0, 1, 45, 291.9057312011719
0, 1, 46, 258.1090698242188
0, 1, 47, 311.1822509765625
0, 1, 48, 284.3466491699219
0, 1, 49, 303.3341369628906
0, 1, 50, 262.8792724609375
0, 1, 51, 272.00390625
0, 1, 52, 296.2387390136719
0, 1, 53, 305.09375
0, 1, 54, 274.2866821289062
0, 1, 55, 293.8474731445312
0, 1, 56, 278.7739562988281
0, 1, 57, 301.5877685546875
0, 1, 58, 310.0463256835938
0, 1, 59, 291.0253295898438
0, 1, 60, 298.9054870605469
0, 1, 61, 275.4410705566406
0, 1, 62, 309.236328125
0, 1, 63, 286.899169921875
0, 1, 64, 291.9064025878906
0, 1, 65, 296.6308288574219
0, 1, 66, 292.9491882324219
0, 1, 67, 291.2909851074219
0, 1, 68, 278.66357421875
0, 1, 69, 279.8116760253906
0, 1, 70, 269.8818969726562
0, 1, 71, 274.5158081054688
0, 1, 72, 284.5286560058594
0, 1, 73, 305.6539916992188
0, 1, 74, 304.8912658691406
0, 1, 75, 295.3905029296875
0, 1, 76, 284.6652221679688
0, 1, 77, 289.892822265625
0, 1, 78, 298.6737365722656
0, 1, 79, 300.8602905273438
0, 1, 80, 296.9555358886719
0, 1, 81, 299.7864990234375
0, 1, 82, 285.0900268554688
0, 1, 83, 334.6092834472656
0, 1, 84, 309.0766296386719
0, 1, 85, 258.6295776367188
0, 1, 86, 293.8330383300781
0, 1, 87, 288.9172668457031
0, 1, 88, 299.6031494140625
0, 1, 89, 290.3787841796875
0, 1, 90, 271.186279296875
0, 1, 91, 320.5481872558594
0, 1, 92, 290.5535888671875
0, 1, 93, 285.5234069824219
0, 1, 94, 304.0040893554688
0, 1, 95, 285.763671875
0, 1, 96, 283.4273071289062
0, 1, 97, 303.1485900878906
0, 1, 98, 276.9250793457031
0, 1, 99, 268.1276245117188
0, 1, 100, 276.4845581054688
0, 1, 101, 283.2916564941406
0, 1, 102, 277.55419921875
0, 1, 103, 280.9667663574219
0, 1, 104, 305.0097961425781
0, 1, 105, 296.478271484375
0, 1, 106, 264.7830810546875
0, 1, 107, 193.0560607910156
0, 1, 108, 80.26573944091797
0, 1, 109, 24.10959053039551
0, 1, 110, 10.93591403961182
0, 1, 111, 8.528665542602539
0, 1, 112, 11.26052856445312
0, 1, 113, 8.246185302734375
0, 1, 114, 6.050777912139893
0, 1, 115, 7.707851409912109
0, 1, 116, 11.75910758972168
0, 1, 117, 4.9149489402771
0, 1, 118, 4.180953025817871
0, 1, 119, 3.971133470535278
0, 1, 120, 7.742730140686035
0, 1, 121, 3.388293504714966
0, 1, 122, 4.315560817718506
0, 1, 123, 4.60994815826416
0, 1, 124, 7.524813652038574
0, 1, 125, 4.101320743560791
0, 1, 126, 1.545556783676147
0, 1, 127, 1.426584482192993
0, 2, 0, 2.301395893096924
0, 2, 1, 4.867948532104492
0, 2, 2, 4.570326328277588
0, 2, 3, 5.728516101837158
0, 2, 4, 3.589241027832031
0, 2, 5, 3.834500551223755
0, 2, 6, 2.860861301422119
0, 2, 7, 5.189173221588135
0, 2, 8, 4.87006139755249
0, 2, 9, 4.728237152099609
0, 2, 10, 8.722281455993652
0, 2, 11, 4.995879650115967
0, 2, 12, 5.982402324676514
0, 2, 13, 8.364658355712891
0, 2, 14, 8.752665519714355
0, 2, 15, 6.887435436248779
0, 2, 16, 8.947242736816406
0, 2, 17, 18.74374771118164
0, 2, 18, 30.42678070068359
0, 2, 19, 116.6132965087891
0, 2, 20, 248.7325286865234
0, 2, 21, 272.2603454589844
0, 2, 22, 316.513427734375
0, 2, 23, 301.4637451171875
0, 2, 24, 286.0919494628906
0, 2, 25, 302.9669799804688
0, 2, 26, 292.1842041015625
0, 2, 27, 274.8302917480469
0, 2, 28, 274.5481872558594
0, 2, 29, 273.8344116210938
0, 2, 30, 289.7505798339844
0, 2, 31, 278.0664367675781
0, 2, 32, 294.324951171875
0, 2, 33, 280.5399169921875
0, 2, 34, 332.063720703125
0, 2, 35, 290.1164245605469
0, 2, 36, 302.6004943847656
0, 2, 37, 314.7999877929688
0, 2, 38, 310.8295288085938
0, 2, 39, 267.9226684570312
0, 2, 40, 307.7519226074219
0, 2, 41, 291.8553466796875
0, 2, 42, 303.8754272460938
0, 2, 43, 315.1214904785156
0, 2, 44, 312.7190551757812
0, 2, 45, 324.9149169921875
0, 2, 46, 286.8633117675781
0, 2, 47, 303.0049133300781
0, 2, 48, 283.224365234375
0, 2, 49, 278.6809997558594
0, 2, 50, 292.9986267089844
0, 2, 51, 281.955810546875
0, 2, 52, 273.9031982421875
0, 2, 53, 287.2837524414062
0, 2, 54, 281.6410827636719
0, 2, 55, 277.2805480957031
0, 2, 56, 301.0634765625
0, 2, 57, 291.6618957519531
0, 2, 58, 301.6890563964844
0, 2, 59, 290.7935791015625
0, 2, 60, 320.3165588378906
0, 2, 61, 302.6573181152344
0, 2, 62, 314.3556213378906
0, 2, 63, 304.09326171875
0, 2, 64, 296.6953430175781
0, 2, 65, 311.7639465332031
0, 2, 66, 279.8361511230469
0, 2, 67, 290.6729125976562
0, 2, 68, 296.7321166992188
0, 2, 69, 310.0147094726562
0, 2, 70, 334.6687316894531
0, 2, 71, 283.9056091308594
0, 2, 72, 300.7143859863281
0, 2, 73, 311.9559326171875
0, 2, 74, 287.9959716796875
0, 2, 75, 304.9947509765625
0, 2, 76, 288.2154541015625
0, 2, 77, 299.1713562011719
0, 2, 78, 314.7962951660156
0, 2, 79, 307.2893371582031
0, 2, 80, 296.3777160644531
0, 2, 81, 282.7355651855469
0, 2, 82, 320.0663146972656
0, 2, 83, 312.7185363769531
0, 2, 84, 288.317138671875
0, 2, 85, 283.4949340820312
0, 2, 86, 324.3606262207031
0, 2, 87, 288.3367309570312
0, 2, 88, 280.402587890625
0, 2, 89, 296.8761596679688
0, 2, 90, 297.2204895019531
0, 2, 91, 275.7200012207031
0, 2, 92, 305.4162902832031
0, 2, 93, 318.1483764648438
0, 2, 94, 291.9508972167969
0, 2, 95, 314.7026672363281
0, 2, 96, 314.8177185058594
0, 2, 97, 289.9795227050781
0, 2, 98, 292.1871337890625
0, 2, 99, 274.2161560058594
0, 2, 100, 307.5728759765625
0, 2, 101, 301.5478210449219
0, 2, 102, 296.0039367675781
0, 2, 103, 292.8227233886719
0, 2, 104, 291.6732482910156
0, 2, 105, 274.3127136230469
0, 2, 106, 295.1683044433594
0, 2, 107, 268.3570861816406
0, 2, 108, 116.3672409057617
0, 2, 109, 34.30148315429688
0, 2, 110, 10.0559663772583
0, 2, 111, 10.63828182220459
0, 2, 112, 8.71830940246582
0, 2, 113, 9.641429901123047
0, 2, 114, 10.01494598388672
0, 2, 115, 9.121471405029297
0, 2, 116, 9.665946960449219
0, 2, 117, 7.171338558197021
0, 2, 118, 3.676778316497803
0, 2, 119, 5.774324893951416
0, 2, 120, 6.091604232788086
0, 2, 121, 3.663483381271362
0, 2, 122, 3.425652027130127
0, 2, 123, 3.309592962265015
0, 2, 124, 3.598091125488281
0, 2, 125, 5.501937389373779
0, 2, 126, 3.264378070831299
0, 2, 127, 4.199119567871094
0, 3, 0, 3.948868751525879
0, 3, 1, 2.722178936004639
0, 3, 2, 4.317665576934814
0, 3, 3, 1.721548199653625
0, 3, 4, 5.048063278198242
0, 3, 5, 6.153604030609131
0, 3, 6, 6.507678031921387
0, 3, 7, 6.249635219573975
0, 3, 8, 4.527652263641357
0, 3, 9, 4.322635173797607
0, 3, 10, 7.326091766357422
0, 3, 11, 6.045794010162354
0, 3, 12, 8.806902885437012
0, 3, 13, 14.56788063049316
0, 3, 14, 12.19256114959717
0, 3, 15, 14.29092216491699
0, 3, 16, 13.39024925231934
0, 3, 17, 21.70805168151855
0, 3, 18, 53.31386566162109
0, 3, 19, 174.8265228271484
0, 3, 20, 270.0380249023438
0, 3, 21, 271.3700866699219
0, 3, 22, 283.4428405761719
0, 3, 23, 285.7528686523438
0, 3, 24, 286.76904296875
0, 3, 25, 270.8482360839844
0, 3, 26, 303.9119262695312
0, 3, 27, 291.4779663085938
0, 3, 28, 282.9930725097656
0, 3, 29, 338.5832214355469
0, 3, 30, 316.3097534179688
0, 3, 31, 287.0962524414062
0, 3, 32, 308.6330871582031
0, 3, 33, 313.2706909179688
0, 3, 34, 322.4440002441406
0, 3, 35, 306.2928466796875
0, 3, 36, 268.8782958984375
0, 3, 37, 312.4290771484375
0, 3, 38, 304.6823425292969
0, 3, 39, 291.2135314941406
0, 3, 40, 265.9254760742188
0, 3, 41, 299.4829711914062
0, 3, 42, 287.7246398925781
0, 3, 43, 308.231201171875
0, 3, 44, 309.88720703125
0, 3, 45, 290.3549194335938
0, 3, 46, 328.5365600585938
0, 3, 47, 299.3045043945312
0, 3, 48, 304.49169921875
0, 3, 49, 277.5647583007812
0, 3, 50, 291.5968627929688
0, 3, 51, 276.3097839355469
0, 3, 52, 314.1828918457031
0, 3, 53, 286.9491882324219
0, 3, 54, 286.1025390625
0, 3, 55, 283.7574768066406
0, 3, 56, 298.8269958496094
0, 3, 57, 287.7264404296875
0, 3, 58, 306.7819213867188
0, 3, 59, 297.1683044433594
0, 3, 60, 297.5708618164062
0, 3, 61, 263.7067565917969
0, 3, 62, 283.7508850097656
0, 3, 63, 308.7043151855469
0, 3, 64, 314.9563598632812
0, 3, 65, 305.7079162597656
0, 3, 66, 316.2760314941406
0, 3, 67, 318.2705383300781
0, 3, 68, 278.7860717773438
0, 3, 69, 282.9012451171875
0, 3, 70, 287.5550231933594
0, 3, 71, 298.7897033691406
0, 3, 72, 270.797607421875
0, 3, 73, 307.8770446777344
0, 3, 74, 291.9883117675781
0, 3, 75, 291.7348022460938
0, 3, 76, 306.3552551269531
0, 3, 77, 312.554443359375
0, 3, 78, 306.8022155761719
0, 3, 79, 282.7611694335938
0, 3, 80, 290.2713623046875
0, 3, 81, 310.0656127929688
0, 3, 82, 314.5818481445312
0, 3, 83, 302.3070678710938
0, 3, 84, 312.1152648925781
0, 3, 85, 294.2608032226562
0, 3, 86, 301.1984558105469
0, 3, 87, 298.1924743652344
0, 3, 88, 299.861572265625
0, 3, 89, 296.6968078613281
0, 3, 90, 276.7145080566406
0, 3, 91, 284.7284545898438
0, 3, 92, 303.104248046875
0, 3, 93, 312.6882934570312
0, 3, 94, 297.1597290039062
0, 3, 95, 333.42529296875
0, 3, 96, 290.7159729003906
0, 3, 97, 284.1071166992188
0, 3, 98, 277.5626220703125
0, 3, 99, 261.9536743164062
0, 3, 100, 285.4561462402344
0, 3, 101, 296.619140625
0, 3, 102, 273.2353515625
0, 3, 103, 320.2682800292969
0, 3, 104, 308.5569458007812
0, 3, 105, 287.3680419921875
0, 3, 106, 302.4830017089844
0, 3, 107, 284.0521545410156
0, 3, 108, 168.0731506347656
0, 3, 109, 58.63911056518555
0, 3, 110, 17.0271167755127
0, 3, 111, 12.70904636383057
0, 3, 112, 13.24352741241455
0, 3, 113, 5.727056503295898
0, 3, 114, 9.321725845336914
0, 3, 115, 6.86924934387207
0, 3, 116, 10.02508068084717
0, 3, 117, 7.51392650604248
0, 3, 118, 10.29106903076172
0, 3, 119, 4.441052436828613
0, 3, 120, 5.65305757522583
0, 3, 121, 2.109389305114746
0, 3, 122, 3.884033203125
0, 3, 123, 6.396472930908203
0, 3, 124, 4.201292037963867
0, 3, 125, 6.304893016815186
0, 3, 126, 4.898231506347656
0, 3, 127, 2.902360200881958
0, 4, 0, 3.579507350921631
0, 4, 1, 6.047018051147461
0, 4, 2, 2.863120317459106
0, 4, 3, 2.598380565643311
0, 4, 4, 6.473028659820557
0, 4, 5, 7.910762786865234
0, 4, 6, 6.160630702972412
0, 4, 7, 5.798582553863525
0, 4, 8, 4.661495685577393
0, 4, 9, 7.0223388671875
0, 4, 10, 5.345969676971436
0, 4, 11, 5.816030979156494
0, 4, 12, 6.521965026855469
0, 4, 13, 7.638613700866699
0, 4, 14, 10.30430698394775
0, 4, 15, 10.1621561050415
0, 4, 16, 14.82577991485596
0, 4, 17, 17.74268341064453
0, 4, 18, 91.78992462158203
0, 4, 19, 222.1256866455078
0, 4, 20, 284.9375305175781
0, 4, 21, 272.9232177734375
0, 4, 22, 304.3878784179688
0, 4, 23, 265.8482971191406
0, 4, 24, 289.4256591796875
0, 4, 25, 271.5841064453125
0, 4, 26, 294.3363952636719
0, 4, 27, 282.9885864257812
0, 4, 28, 306.3515319824219
0, 4, 29, 326.8434448242188
0, 4, 30, 309.3010864257812
0, 4, 31, 303.8961181640625
0, 4, 32, 281.1221008300781
0, 4, 33, 297.2934875488281
0, 4, 34, 296.8624572753906
0, 4, 35, 311.6830749511719
0, 4, 36, 293.7089233398438
0, 4, 37, 290.52392578125
0, 4, 38, 298.4242553710938
0, 4, 39, 294.3306884765625
0, 4, 40, 302.3388671875
0, 4, 41, 313.6556396484375
0, 4, 42, 329.2214965820312
0, 4, 43, 296.6421508789062
0, 4, 44, 321.078125
0, 4, 45, 323.7578125
0, 4, 46, 304.8445434570312
0, 4, 47, 291.8883972167969
0, 4, 48, 294.1253356933594
0, 4, 49, 276.3772583007812
0, 4, 50, 296.6732482910156
0, 4, 51, 316.508056640625
0, 4, 52, 327.9830017089844
0, 4, 53, 302.9773559570312
0, 4, 54, 289.8363037109375
0, 4, 55, 314.2718505859375
0, 4, 56, 287.8964233398438
0, 4, 57, 309.0941467285156
0, 4, 58, 296.5267639160156
0, 4, 59, 308.8302917480469
0, 4, 60, 301.9535522460938
0, 4, 61, 316.5397338867188
0, 4, 62, 308.482177734375
0, 4, 63, 299.7660522460938
0, 4, 64, 328.8777465820312
0, 4, 65, 316.153564453125
0, 4, 66, 294.4655456542969
0, 4, 67, 285.7891540527344
0, 4, 68, 311.7887573242188
0, 4, 69, 276.5126953125
0, 4, 70, 299.0793762207031
0, 4, 71, 321.4394226074219
0, 4, 72, 331.9421081542969
0, 4, 73, 297.244140625
0, 4, 74, 292.3592529296875
0, 4, 75, 288.9014282226562
0, 4, 76, 274.0675354003906
0, 4, 77, 277.1623229980469
0, 4, 78, 309.4577941894531
0, 4, 79, 318.08544921875
0, 4, 80, 316.8635559082031
0, 4, 81, 315.396240234375
0, 4, 82, 297.0684509277344
0, 4, 83, 299.3991088867188
0, 4, 84, 291.4917602539062
0, 4, 85, 295.8984985351562
0, 4, 86, 296.6878051757812
0, 4, 87, 284.3451843261719
0, 4, 88, 305.995849609375
0, 4, 89, 295.5164184570312
0, 4, 90, 333.5538330078125
0, 4, 91, 301.8774719238281
0, 4, 92, 292.9365234375
0, 4, 93, 298.2782592773438
0, 4, 94, 290.6734924316406
0, 4, 95, 287.310302734375
0, 4, 96, 325.0709533691406
0, 4, 97, 275.4279479980469
0, 4, 98, 327.5390625
0, 4, 99, 312.4924926757812
0, 4, 100, 299.4168395996094
0, 4, 101, 257.085693359375
0, 4, 102, 297.3033142089844
0, 4, 103, 316.7449340820312
0, 4, 104, 282.1819152832031
0, 4, 105, 309.6852722167969
0, 4, 106, 286.29833984375
0, 4, 107, 296.4469909667969
0, 4, 108, 224.9364318847656
0, 4, 109, 79.39560699462891
0, 4, 110, 15.54422855377197
0, 4, 111, 13.25024890899658
0, 4, 112, 8.444307327270508
0, 4, 113, 11.73158359527588
0, 4, 114, 7.698761463165283
0, 4, 115, 11.25827789306641
0, 4, 116, 8.688851356506348
0, 4, 117, 8.115108489990234
0, 4, 118, 11.23239994049072
0, 4, 119, 10.94664859771729
0, 4, 120, 6.050077438354492
0, 4, 121, 6.902315139770508
0, 4, 122, 3.690282106399536
0, 4, 123, 6.313278198242188
0, 4, 124, 6.369340419769287
0, 4, 125, 11.68227672576904
0, 4, 126, 4.222899436950684
0, 4, 127, 4.481063842773438
0, 5, 0, 3.117681503295898
0, 5, 1, 3.277235507965088
0, 5, 2, 5.630807399749756
0, 5, 3, 5.207142353057861
0, 5, 4, 4.882398128509521
0, 5, 5, 6.792746543884277
0, 5, 6, 7.851975440979004
0, 5, 7, 5.332581520080566
0, 5, 8, 5.125065326690674
0, 5, 9, 5.37406587600708
0, 5, 10, 6.466818332672119
0, 5, 11, 8.683172225952148
0, 5, 12, 7.135734081268311
0, 5, 13, 5.022940158843994
0, 5, 14, 12.24423694610596
0, 5, 15, 16.33172416687012
0, 5, 16, 15.03779315948486
0, 5, 17, 27.9141788482666
0, 5, 18, 135.1641235351562
0, 5, 19, 287.4888916015625
0, 5, 20, 307.7783203125
0, 5, 21, 317.8613891601562
0, 5, 22, 275.4123229980469
0, 5, 23, 309.677490234375
0, 5, 24, 302.5885925292969
0, 5, 25, 288.4818115234375
0, 5, 26, 295.011962890625
0, 5, 27, 323.18505859375
0, 5, 28, 303.3322143554688
0, 5, 29, 300.2405700683594
0, 5, 30, 325.5803833007812
0, 5, 31, 288.8039855957031
0, 5, 32, 307.5020446777344
0, 5, 33, 307.0321350097656
0, 5, 34, 296.9490661621094
0, 5, 35, 311.9238891601562
0, 5, 36, 272.0163879394531
0, 5, 37, 285.0556945800781
0, 5, 38, 292.9578247070312
0, 5, 39, 313.0347900390625
0, 5, 40, 307.7493591308594
0, 5, 41, 272.3934326171875
0, 5, 42, 304.3857421875
0, 5, 43, 313.7211608886719
0, 5, 44, 292.2378234863281
0, 5, 45, 303.1389770507812
0, 5, 46, 265.3753967285156
0, 5, 47, 282.335205078125
0, 5, 48, 297.7391052246094
0, 5, 49, 286.0086669921875
0, 5, 50, 294.5426025390625
0, 5, 51, 278.4618835449219
0, 5, 52, 271.6937866210938
0, 5, 53, 284.8081665039062
0, 5, 54, 291.6014709472656
0, 5, 55, 345.0144958496094
0, 5, 56, 305.3306579589844
0, 5, 57, 307.6818237304688
0, 5, 58, 312.6662292480469
0, 5, 59, 301.27294921875
0, 5, 60, 308.0341796875
0, 5, 61, 282.1171875
0, 5, 62, 326.75048828125
0, 5, 63, 295.3887939453125
0, 5, 64, 324.26220703125
0, 5, 65, 308.8490905761719
0, 5, 66, 324.9326782226562
0, 5, 67, 312.24951171875
0, 5, 68, 308.7933654785156
0, 5, 69, 311.1712341308594
0, 5, 70, 302.1570434570312
0, 5, 71, 272.5996704101562
0, 5, 72, 312.498046875
0, 5, 73, 303.2558288574219
0, 5, 74, 295.7917785644531
0, 5, 75, 293.1142883300781
0, 5, 76, 285.2568359375
0, 5, 77, 297.845947265625
0, 5, 78, 316.8658447265625
0, 5, 79, 308.1145935058594
0, 5, 80, 294.4960632324219
0, 5, 81, 325.1833190917969
0, 5, 82, 324.6926574707031
0, 5, 83, 280.6282043457031
0, 5, 84, 300.8099060058594
0, 5, 85, 270.9030151367188
0, 5, 86, 325.7932434082031
0, 5, 87, 283.8397827148438
0, 5, 88, 313.4125366210938
0, 5, 89, 305.8516540527344
0, 5, 90, 315.6125793457031
0, 5, 91, 313.6891174316406
0, 5, 92, 296.5799865722656
0, 5, 93, 322.6575927734375
0, 5, 94, 308.74609375
0, 5, 95, 296.078369140625
0, 5, 96, 297.7347106933594
0, 5, 97, 296.1780090332031
0, 5, 98, 318.147216796875
0, 5, 99, 300.7896728515625
0, 5, 100, 291.1834411621094
0, 5, 101, 305.8977966308594
0, 5, 102, 291.3573608398438
0, 5, 103, 315.3003845214844
0, 5, 104, 302.2538757324219
0, 5, 105, 291.4306640625
0, 5, 106, 280.8301696777344
0, 5, 107, 292.0654296875
0, 5, 108, 265.326416015625
0, 5, 109, 159.2004547119141
0, 5, 110, 40.43371963500977
0, 5, 111, 21.18109703063965
0, 5, 112, 17.55814361572266
0, 5, 113, 13.61130237579346
0, 5, 114, 13.37210464477539
0, 5, 115, 7.965194702148438
0, 5, 116, 7.765020370483398
0, 5, 117, 6.541097640991211
0, 5, 118, 12.8826961517334
0, 5, 119, 4.051251411437988
0, 5, 120, 7.479610443115234
0, 5, 121, 7.823007106781006
0, 5, 122, 5.03556489944458
0, 5, 123, 4.969826221466064
0, 5, 124, 6.266461372375488
0, 5, 125, 4.904288768768311
0, 5, 126, 5.737492561340332
0, 5, 127, 3.34914231300354
0, 6, 0, 4.036959171295166
0, 6, 1, 4.107643604278564
0, 6, 2, 6.442424297332764
0, 6, 3, 5.027640819549561
0, 6, 4, 4.540136337280273
0, 6, 5, 6.886507511138916
0, 6, 6, 6.909281730651855
0, 6, 7, 5.748844146728516
0, 6, 8, 6.192520618438721
0, 6, 9, 6.641400814056396
0, 6, 10, 8.513336181640625
0, 6, 11, 7.071011543273926
0, 6, 12, 7.636611938476562
0, 6, 13, 12.91954040527344
0, 6, 14, 9.529388427734375
0, 6, 15, 15.93318462371826
0, 6, 16, 27.67178344726562
0, 6, 17, 53.86034393310547
0, 6, 18, 171.4961242675781
0, 6, 19, 277.8390808105469
0, 6, 20, 289.5095520019531
0, 6, 21, 314.265869140625
0, 6, 22, 319.5806884765625
0, 6, 23, 306.8466186523438
0, 6, 24, 317.3157653808594
0, 6, 25, 316.5300903320312
0, 6, 26, 319.6110534667969
0, 6, 27, 333.6215209960938
0, 6, 28, 294.3218994140625
0, 6, 29, 331.3094482421875
0, 6, 30, 282.6167907714844
0, 6, 31, 285.2928466796875
0, 6, 32, 340.6195373535156
0, 6, 33, 299.720458984375
0, 6, 34, 341.9318542480469
0, 6, 35, 321.0654296875
0, 6, 36, 274.74658203125
0, 6, 37, 290.3456115722656
0, 6, 38, 310.0001220703125
0, 6, 39, 297.611083984375
0, 6, 40, 283.6897888183594
0, 6, 41, 296.5435485839844
0, 6, 42, 304.7103881835938
0, 6, 43, 288.9461975097656
0, 6, 44, 280.0723266601562
0, 6, 45, 322.0087585449219
0, 6, 46, 303.9976501464844
0, 6, 47, 332.5417785644531
0, 6, 48, 291.1207580566406
0, 6, 49, 312.3795776367188
0, 6, 50, 327.5509643554688
0, 6, 51, 310.8764343261719
0, 6, 52, 322.93017578125
0, 6, 53, 330.4169616699219
0, 6, 54, 303.7918701171875
0, 6, 55, 304.4747924804688
0, 6, 56, 292.9726257324219
0, 6, 57, 313.4799194335938
0, 6, 58, 262.4318542480469
0, 6, 59, 301.0480346679688
0, 6, 60, 314.5542907714844
0, 6, 61, 272.4646606445312
0, 6, 62, 335.1986999511719
0, 6, 63, 323.0311889648438
0, 6, 64, 291.951904296875
0, 6, 65, 284.9937744140625
0, 6, 66, 303.0921936035156
0, 6, 67, 313.89013671875
0, 6, 68, 296.2024230957031
0, 6, 69, 277.4275207519531
0, 6, 70, 273.5812683105469
0, 6, 71, 288.900390625
0, 6, 72, 310.6751403808594
0, 6, 73, 291.7572631835938
0, 6, 74, 330.7009887695312
0, 6, 75, 343.427001953125
0, 6, 76, 297.3651733398438
0, 6, 77, 286.2848510742188
0, 6, 78, 277.175048828125
0, 6, 79, 293.4671936035156
0, 6, 80, 301.3566284179688
0, 6, 81, 316.5111083984375
0, 6, 82, 320.6566162109375
0, 6, 83, 318.915771484375
0, 6, 84, 296.3722229003906
0, 6, 85, 300.5142211914062
0, 6, 86, 331.2677612304688
0, 6, 87, 290.5274353027344
0, 6, 88, 307.0924987792969
0, 6, 89, 307.1571960449219
0, 6, 90, 300.9797973632812
0, 6, 91, 312.1588134765625
0, 6, 92, 285.6882934570312
0, 6, 93, 295.946533203125
0, 6, 94, 273.9549865722656
0, 6, 95, 302.2549133300781
0, 6, 96, 349.1422424316406
0, 6, 97, 308.3655700683594
0, 6, 98, 300.7778930664062
0, 6, 99, 271.8463134765625
0, 6, 100, 310.1197509765625
0, 6, 101, 294.9406127929688
0, 6, 102, 308.4367980957031
0, 6, 103, 309.0040588378906
0, 6, 104, 291.9903869628906
0, 6, 105, 300.9311218261719
0, 6, 106, 307.7126770019531
0, 6, 107, 306.760009765625
0, 6, 108, 266.2075805664062
0, 6, 109, 187.1646881103516
0, 6, 110, 56.94220733642578
0, 6, 111, 21.33669281005859
0, 6, 112, 13.54129886627197
0, 6, 113, 10.7657413482666
0, 6, 114, 11.7518424987793
0, 6, 115, 11.67419528961182
0, 6, 116, 8.339548110961914
0, 6, 117, 5.279735088348389
0, 6, 118, 7.89317798614502
0, 6, 119, 11.47922801971436
0, 6, 120, 5.561179637908936
0, 6, 121, 5.908843040466309
0, 6, 122, 6.69101619720459
0, 6, 123, 7.270037651062012
0, 6, 124, 6.95837926864624
0, 6, 125, 5.70793628692627
0, 6, 126, 5.62584400177002
0, 6, 127, 6.653073310852051
0, 7, 0, 5.968486785888672
0, 7, 1, 4.005133628845215
0, 7, 2, 5.814513206481934
0, 7, 3, 3.663992404937744
0, 7, 4, 3.00539493560791
0, 7, 5, 4.215676784515381
0, 7, 6, 5.642160415649414
0, 7, 7, 5.718878269195557
0, 7, 8, 6.135520935058594
0, 7, 9, 9.442109107971191
0, 7, 10, 8.918920516967773
0, 7, 11, 11.878493309021
0, 7, 12, 10.84940338134766
0, 7, 13, 11.36960697174072
0, 7, 14, 13.34703159332275
0, 7, 15, 16.41132354736328
0, 7, 16, 26.26395606994629
0, 7, 17, 97.03813171386719
0, 7, 18, 219.0920257568359
0, 7, 19, 290.0108337402344
0, 7, 20, 298.8307495117188
0, 7, 21, 277.5554809570312
0, 7, 22, 303.1904296875
0, 7, 23, 289.0992736816406
0, 7, 24, 315.0961303710938
0, 7, 25, 328.5770874023438
0, 7, 26, 279.5421752929688
0, 7, 27, 297.5342712402344
0, 7, 28, 327.367431640625
0, 7, 29, 317.9680480957031
0, 7, 30, 300.7970581054688
0, 7, 31, 276.3250732421875
0, 7, 32, 304.7992248535156
0, 7, 33, 262.2027282714844
0, 7, 34, 299.9790344238281
0, 7, 35, 318.5663452148438
0, 7, 36, 330.6011047363281
0, 7, 37, 326.5236206054688
0, 7, 38, 298.0342712402344
0, 7, 39, 306.4722290039062
0, 7, 40, 291.4608154296875
0, 7, 41, 270.6619567871094
0, 7, 42, 299.5704956054688
0, 7, 43, 274.0724792480469
0, 7, 44, 304.1318664550781
0, 7, 45, 294.5613708496094
0, 7, 46, 280.6507873535156
0, 7, 47, 329.2643432617188
0, 7, 48, 287.0849609375
0, 7, 49, 302.5296020507812
0, 7, 50, 321.51416015625
0, 7, 51, 298.4054260253906
0, 7, 52, 328.1943054199219
0, 7, 53, 308.5046081542969
0, 7, 54, 322.7084655761719
0, 7, 55, 307.3209533691406
0, 7, 56, 281.749755859375
0, 7, 57, 283.314453125
0, 7, 58, 295.4685668945312
0, 7, 59, 294.8741455078125
0, 7, 60, 322.6649780273438
0, 7, 61, 276.6102294921875
0, 7, 62, 296.6563720703125
0, 7, 63, 293.4288330078125
0, 7, 64, 308.6677856445312
0, 7, 65, 329.3005981445312
0, 7, 66, 321.4296264648438
0, 7, 67, 300.7911987304688
0, 7, 68, 280.4043273925781
0, 7, 69, 295.3153381347656
0, 7, 70, 303.0751037597656
0, 7, 71, 310.9485778808594
0, 7, 72, 286.1790771484375
0, 7, 73, 297.3497619628906
0, 7, 74, 344.7651977539062
0, 7, 75, 317.8701477050781
0, 7, 76, 323.5798950195312
0, 7, 77, 280.5397033691406
0, 7, 78, 299.6943359375
0, 7, 79, 297.7195129394531
0, 7, 80, 309.9150085449219
0, 7, 81, 318.8359680175781
0, 7, 82, 329.3168029785156
0, 7, 83, 316.2203979492188
0, 7, 84, 310.2298889160156
0, 7, 85, 271.2919311523438
0, 7, 86, 310.9239501953125
0, 7, 87, 310.4319458007812
0, 7, 88, 307.109619140625
0, 7, 89, 293.6115112304688
0, 7, 90, 308.2063903808594
0, 7, 91, 313.8432312011719
0, 7, 92, 290.9358520507812
0, 7, 93, 308.148681640625
0, 7, 94, 274.0892028808594
0, 7, 95, 294.9205017089844
0, 7, 96, 331.4730529785156
0, 7, 97, 295.3534545898438
0, 7, 98, 290.1807861328125
0, 7, 99, 310.52880859375
0, 7, 100, 279.2911682128906
0, 7, 101, 275.7223815917969
0, 7, 102, 290.4435119628906
0, 7, 103, 291.9541320800781
0, 7, 104, 275.6878967285156
0, 7, 105, 306.5645751953125
0, 7, 106, 319.145751953125
0, 7, 107, 298.7929992675781
0, 7, 108, 273.4311218261719
0, 7, 109, 236.8531646728516
0, 7, 110, 96.33235168457031
0, 7, 111, 24.11734199523926
0, 7, 112, 15.05784320831299
0, 7, 113, 14.55116271972656
0, 7, 114, 13.23543357849121
0, 7, 115, 10.69469451904297
0, 7, 116, 11.82575988769531
0, 7, 117, 6.024782180786133
0, 7, 118, 6.253103733062744
0, 7, 119, 4.299966812133789
0, 7, 120, 5.435609817504883
0, 7, 121, 7.762295722961426
0, 7, 122, 9.26451587677002
0, 7, 123, 4.624800682067871
0, 7, 124, 2.716012477874756
0, 7, 125, 7.604189872741699
0, 7, 126, 6.576276779174805
0, 7, 127, 2.776460647583008
0, 8, 0, 6.668489933013916
0, 8, 1, 3.314056158065796
0, 8, 2, 2.360858678817749
0, 8, 3, 3.302993059158325
0, 8, 4, 3.666038990020752
0, 8, 5, 3.852872848510742
0, 8, 6, 5.234257221221924
0, 8, 7, 5.202943325042725
0, 8, 8, 8.264947891235352
0, 8, 9, 4.96625280380249
0, 8, 10, 8.502500534057617
0, 8, 11, 10.53835105895996
0, 8, 12, 14.47943496704102
0, 8, 13, 16.45797920227051
0, 8, 14, 12.62207984924316
0, 8, 15, 17.50387001037598
0, 8, 16, 32.43698883056641
0, 8, 17, 130.5859069824219
0, 8, 18, 243.5384979248047
0, 8, 19, 297.6558532714844
0, 8, 20, 287.73779296875
0, 8, 21, 306.7760620117188
0, 8, 22, 296.6486511230469
0, 8, 23, 275.9669189453125
0, 8, 24, 267.6110229492188
0, 8, 25, 277.2041931152344
0, 8, 26, 305.5887756347656
0, 8, 27, 307.4226684570312
0, 8, 28, 305.1723022460938
0, 8, 29, 318.2325439453125
0, 8, 30, 313.8858337402344
0, 8, 31, 305.3171081542969
0, 8, 32, 280.5721435546875
0, 8, 33, 292.7794189453125
0, 8, 34, 287.8569030761719
0, 8, 35, 282.0808715820312
0, 8, 36, 315.3392944335938
0, 8, 37, 338.9341735839844
0, 8, 38, 331.6557312011719
0, 8, 39, 280.2128295898438
0, 8, 40, 307.4916381835938
0, 8, 41, 291.7682800292969
0, 8, 42, 324.507080078125
