# TOPAS Version: 3.1.p3
# Parameter File: batch_inserts_290.txt
# Results for scorer Readout_Adipose
# Scored in component: MyBox
# X in 1 bin  of 0.75 cm
# Y in 512 bins of 0.0783984 cm
# Z in 128 bins of 0.078125 cm
# EnergyDeposit ( MeV ) : Sum   
0, 0, 0, 4.702095031738281
0, 0, 1, 2.306066036224365
0, 0, 2, 2.585770606994629
0, 0, 3, 1.557276844978333
0, 0, 4, 4.468418598175049
0, 0, 5, 2.67779541015625
0, 0, 6, 5.512606620788574
0, 0, 7, 10.0001163482666
0, 0, 8, 4.300208568572998
0, 0, 9, 4.170039653778076
0, 0, 10, 7.190641403198242
0, 0, 11, 4.218885898590088
0, 0, 12, 6.593760967254639
0, 0, 13, 6.563425064086914
0, 0, 14, 6.99658727645874
0, 0, 15, 8.773942947387695
0, 0, 16, 8.25776195526123
0, 0, 17, 9.341784477233887
0, 0, 18, 12.98307132720947
0, 0, 19, 43.83882141113281
0, 0, 20, 140.1003570556641
0, 0, 21, 224.4426727294922
0, 0, 22, 249.5556793212891
0, 0, 23, 257.2943115234375
0, 0, 24, 250.9599151611328
0, 0, 25, 259.8325805664062
0, 0, 26, 234.3923034667969
0, 0, 27, 236.6238555908203
0, 0, 28, 271.8681030273438
0, 0, 29, 253.8866424560547
0, 0, 30, 231.9297637939453
0, 0, 31, 243.6774597167969
0, 0, 32, 263.0290832519531
0, 0, 33, 261.7869262695312
0, 0, 34, 287.8255920410156
0, 0, 35, 267.7998352050781
0, 0, 36, 246.1300811767578
0, 0, 37, 253.1465759277344
0, 0, 38, 270.2349853515625
0, 0, 39, 228.6958465576172
0, 0, 40, 241.9253540039062
0, 0, 41, 267.8668823242188
0, 0, 42, 229.7751007080078
0, 0, 43, 259.8695983886719
0, 0, 44, 250.2669372558594
0, 0, 45, 252.8151092529297
0, 0, 46, 243.3735656738281
0, 0, 47, 253.2767486572266
0, 0, 48, 268.7096862792969
0, 0, 49, 272.8352661132812
0, 0, 50, 249.9037780761719
0, 0, 51, 252.4064025878906
0, 0, 52, 273.7384033203125
0, 0, 53, 291.5492553710938
0, 0, 54, 241.4557189941406
0, 0, 55, 239.8320159912109
0, 0, 56, 278.7281188964844
0, 0, 57, 261.607666015625
0, 0, 58, 247.6856079101562
0, 0, 59, 274.0284423828125
0, 0, 60, 237.2286071777344
0, 0, 61, 246.4124755859375
0, 0, 62, 260.5276184082031
0, 0, 63, 266.4881286621094
0, 0, 64, 255.9582672119141
0, 0, 65, 261.7764282226562
0, 0, 66, 275.8802795410156
0, 0, 67, 246.7371673583984
0, 0, 68, 258.6681213378906
0, 0, 69, 261.2167663574219
0, 0, 70, 273.2619934082031
0, 0, 71, 238.3408508300781
0, 0, 72, 249.9510498046875
0, 0, 73, 257.1705627441406
0, 0, 74, 252.0773315429688
0, 0, 75, 240.9608001708984
0, 0, 76, 228.3433685302734
0, 0, 77, 261.3172302246094
0, 0, 78, 255.6064605712891
0, 0, 79, 279.2801208496094
0, 0, 80, 217.3528594970703
0, 0, 81, 266.9454956054688
0, 0, 82, 256.7399597167969
0, 0, 83, 246.4221801757812
0, 0, 84, 269.9568176269531
0, 0, 85, 232.3713226318359
0, 0, 86, 254.5170440673828
0, 0, 87, 251.2343902587891
0, 0, 88, 261.5732727050781
0, 0, 89, 282.5090637207031
0, 0, 90, 243.3474884033203
0, 0, 91, 280.7367553710938
0, 0, 92, 252.0935974121094
0, 0, 93, 249.6007232666016
0, 0, 94, 249.5988616943359
0, 0, 95, 250.0209503173828
0, 0, 96, 275.0174865722656
0, 0, 97, 272.4013061523438
0, 0, 98, 273.8623352050781
0, 0, 99, 258.6928405761719
0, 0, 100, 260.8013000488281
0, 0, 101, 228.2625274658203
0, 0, 102, 232.9236755371094
0, 0, 103, 269.62109375
0, 0, 104, 253.1649475097656
0, 0, 105, 250.7116394042969
0, 0, 106, 246.1926422119141
0, 0, 107, 154.3397827148438
0, 0, 108, 37.84514617919922
0, 0, 109, 12.12675189971924
0, 0, 110, 12.92672729492188
0, 0, 111, 8.742900848388672
0, 0, 112, 7.231740951538086
0, 0, 113, 4.874077796936035
0, 0, 114, 6.912212371826172
0, 0, 115, 4.662650585174561
0, 0, 116, 6.212591171264648
0, 0, 117, 6.786756992340088
0, 0, 118, 5.525132656097412
0, 0, 119, 3.724617004394531
0, 0, 120, 4.331313610076904
0, 0, 121, 3.63527512550354
0, 0, 122, 3.02431583404541
0, 0, 123, 3.245695829391479
0, 0, 124, 4.373944282531738
0, 0, 125, 2.437767744064331
0, 0, 126, 4.237524509429932
0, 0, 127, 5.249017715454102
0, 1, 0, 9.042837142944336
0, 1, 1, 3.592580080032349
0, 1, 2, 5.09134578704834
0, 1, 3, 1.596916198730469
0, 1, 4, 4.02618408203125
0, 1, 5, 4.031698703765869
0, 1, 6, 3.957013368606567
0, 1, 7, 4.046851634979248
0, 1, 8, 8.313214302062988
0, 1, 9, 4.327864170074463
0, 1, 10, 7.094141960144043
0, 1, 11, 12.06413650512695
0, 1, 12, 9.336921691894531
0, 1, 13, 9.035872459411621
0, 1, 14, 9.863907814025879
0, 1, 15, 7.397452831268311
0, 1, 16, 11.90732765197754
0, 1, 17, 10.01309204101562
0, 1, 18, 21.4107723236084
0, 1, 19, 67.21609497070312
0, 1, 20, 198.3792877197266
0, 1, 21, 253.5285339355469
0, 1, 22, 296.9413452148438
0, 1, 23, 284.6303100585938
0, 1, 24, 275.7979736328125
0, 1, 25, 289.4176940917969
0, 1, 26, 269.525390625
0, 1, 27, 305.5016784667969
0, 1, 28, 299.7244873046875
0, 1, 29, 296.8489685058594
0, 1, 30, 285.82275390625
0, 1, 31, 290.172119140625
0, 1, 32, 291.3790283203125
0, 1, 33, 297.2530212402344
0, 1, 34, 292.5235290527344
0, 1, 35, 277.9436645507812
0, 1, 36, 307.6058959960938
0, 1, 37, 293.4071655273438
0, 1, 38, 278.7892150878906
0, 1, 39, 296.260498046875
0, 1, 40, 267.0954895019531
0, 1, 41, 287.6582946777344
0, 1, 42, 290.0593872070312
0, 1, 43, 333.0019226074219
0, 1, 44, 278.8597412109375
0, 1, 45, 291.7561950683594
0, 1, 46, 260.1328430175781
0, 1, 47, 310.6578979492188
0, 1, 48, 283.7696228027344
0, 1, 49, 300.358154296875
0, 1, 50, 263.7389526367188
0, 1, 51, 272.4183349609375
0, 1, 52, 296.8154602050781
0, 1, 53, 304.9009094238281
0, 1, 54, 275.4219360351562
0, 1, 55, 292.5311279296875
0, 1, 56, 279.5536499023438
0, 1, 57, 297.8481140136719
0, 1, 58, 312.342041015625
0, 1, 59, 293.6778564453125
0, 1, 60, 297.1768798828125
0, 1, 61, 275.8163757324219
0, 1, 62, 306.3662109375
0, 1, 63, 285.7480773925781
0, 1, 64, 287.7579650878906
0, 1, 65, 293.5513916015625
0, 1, 66, 294.8110046386719
0, 1, 67, 292.212890625
0, 1, 68, 277.8329162597656
0, 1, 69, 280.1147766113281
0, 1, 70, 271.1289367675781
0, 1, 71, 274.5196228027344
0, 1, 72, 286.935546875
0, 1, 73, 303.9610900878906
0, 1, 74, 304.9002075195312
0, 1, 75, 291.4600524902344
0, 1, 76, 283.5422058105469
0, 1, 77, 290.2180480957031
0, 1, 78, 296.3028564453125
0, 1, 79, 302.2908935546875
0, 1, 80, 294.8190002441406
0, 1, 81, 302.4572448730469
0, 1, 82, 283.4605712890625
0, 1, 83, 331.8291320800781
0, 1, 84, 308.0639038085938
0, 1, 85, 254.2548675537109
0, 1, 86, 295.4153137207031
0, 1, 87, 289.4313659667969
0, 1, 88, 296.7867736816406
0, 1, 89, 289.2802429199219
0, 1, 90, 270.2757263183594
0, 1, 91, 319.2982788085938
0, 1, 92, 291.6338500976562
0, 1, 93, 286.9772338867188
0, 1, 94, 302.663818359375
0, 1, 95, 283.2892150878906
0, 1, 96, 283.0058288574219
0, 1, 97, 301.5054931640625
0, 1, 98, 276.2154235839844
0, 1, 99, 266.2241821289062
0, 1, 100, 277.6608581542969
0, 1, 101, 282.4415893554688
0, 1, 102, 279.1031799316406
0, 1, 103, 283.8267211914062
0, 1, 104, 307.1531372070312
0, 1, 105, 296.9519348144531
0, 1, 106, 261.2382507324219
0, 1, 107, 193.9797821044922
0, 1, 108, 82.06770324707031
0, 1, 109, 22.79586410522461
0, 1, 110, 11.48508548736572
0, 1, 111, 8.178164482116699
0, 1, 112, 13.50194263458252
0, 1, 113, 6.594729900360107
0, 1, 114, 5.804610252380371
0, 1, 115, 6.566487312316895
0, 1, 116, 10.13089752197266
0, 1, 117, 8.415194511413574
0, 1, 118, 4.39367151260376
0, 1, 119, 6.508017063140869
0, 1, 120, 4.645828247070312
0, 1, 121, 4.056561946868896
0, 1, 122, 5.07668399810791
0, 1, 123, 4.716023921966553
0, 1, 124, 8.86617374420166
0, 1, 125, 4.049185752868652
0, 1, 126, 2.65850043296814
0, 1, 127, 2.226040840148926
0, 2, 0, 4.39092493057251
0, 2, 1, 1.795213222503662
0, 2, 2, 5.007581233978271
0, 2, 3, 5.812019824981689
0, 2, 4, 2.409041166305542
0, 2, 5, 2.683864831924438
0, 2, 6, 2.040365934371948
0, 2, 7, 3.197879076004028
0, 2, 8, 3.857572555541992
0, 2, 9, 5.568686485290527
0, 2, 10, 8.552958488464355
0, 2, 11, 7.215705394744873
0, 2, 12, 7.391477584838867
0, 2, 13, 10.65845394134521
0, 2, 14, 10.16948795318604
0, 2, 15, 7.151685237884521
0, 2, 16, 8.475296020507812
0, 2, 17, 17.21867942810059
0, 2, 18, 31.32820892333984
0, 2, 19, 117.6555786132812
0, 2, 20, 245.4482879638672
0, 2, 21, 270.28759765625
0, 2, 22, 315.1785888671875
0, 2, 23, 302.1746826171875
0, 2, 24, 289.965087890625
0, 2, 25, 305.22265625
0, 2, 26, 294.0587158203125
0, 2, 27, 275.4486083984375
0, 2, 28, 273.9882202148438
0, 2, 29, 272.257568359375
0, 2, 30, 290.7574462890625
0, 2, 31, 277.3060302734375
0, 2, 32, 293.6731872558594
0, 2, 33, 282.6720275878906
0, 2, 34, 334.3912963867188
0, 2, 35, 287.6050109863281
0, 2, 36, 304.0535583496094
0, 2, 37, 315.3462219238281
0, 2, 38, 310.7284240722656
0, 2, 39, 267.6259460449219
0, 2, 40, 305.2545776367188
0, 2, 41, 296.091552734375
0, 2, 42, 303.9944763183594
0, 2, 43, 314.9252319335938
0, 2, 44, 313.9006042480469
0, 2, 45, 326.5465393066406
0, 2, 46, 287.6776733398438
0, 2, 47, 302.7481384277344
0, 2, 48, 282.6361999511719
0, 2, 49, 277.7494201660156
0, 2, 50, 294.5910339355469
0, 2, 51, 284.3973388671875
0, 2, 52, 273.8805847167969
0, 2, 53, 288.1440124511719
0, 2, 54, 280.9791870117188
0, 2, 55, 275.7507019042969
0, 2, 56, 302.1417236328125
0, 2, 57, 290.3976440429688
0, 2, 58, 302.4569702148438
0, 2, 59, 288.6407470703125
0, 2, 60, 318.1478576660156
0, 2, 61, 300.8886108398438
0, 2, 62, 315.1456909179688
0, 2, 63, 304.6484985351562
0, 2, 64, 296.1234130859375
0, 2, 65, 315.1054382324219
0, 2, 66, 279.3652648925781
0, 2, 67, 291.334716796875
0, 2, 68, 295.7542419433594
0, 2, 69, 312.134765625
0, 2, 70, 333.1664733886719
0, 2, 71, 284.4483947753906
0, 2, 72, 304.7354125976562
0, 2, 73, 310.7725524902344
0, 2, 74, 285.2792663574219
0, 2, 75, 304.9781494140625
0, 2, 76, 286.8549499511719
0, 2, 77, 300.3872985839844
0, 2, 78, 315.9032592773438
0, 2, 79, 309.0096130371094
0, 2, 80, 296.1580810546875
0, 2, 81, 281.01806640625
0, 2, 82, 320.155517578125
0, 2, 83, 312.0106201171875
0, 2, 84, 287.3304138183594
0, 2, 85, 279.21435546875
0, 2, 86, 323.3580932617188
0, 2, 87, 286.02197265625
0, 2, 88, 280.1585693359375
0, 2, 89, 295.6550903320312
0, 2, 90, 296.0791015625
0, 2, 91, 277.3182678222656
0, 2, 92, 305.2545166015625
0, 2, 93, 317.7757263183594
0, 2, 94, 291.9056701660156
0, 2, 95, 316.6973266601562
0, 2, 96, 316.5617065429688
0, 2, 97, 293.3509216308594
0, 2, 98, 294.8367614746094
0, 2, 99, 274.0477294921875
0, 2, 100, 305.0057983398438
0, 2, 101, 300.4104309082031
0, 2, 102, 296.3026733398438
0, 2, 103, 293.8010864257812
0, 2, 104, 293.0917663574219
0, 2, 105, 274.2724609375
0, 2, 106, 297.0110778808594
0, 2, 107, 270.5392761230469
0, 2, 108, 116.3545455932617
0, 2, 109, 30.43661499023438
0, 2, 110, 9.756862640380859
0, 2, 111, 12.8508768081665
0, 2, 112, 5.982688903808594
0, 2, 113, 9.618888854980469
0, 2, 114, 9.442133903503418
0, 2, 115, 9.832545280456543
0, 2, 116, 9.923672676086426
0, 2, 117, 7.58500337600708
0, 2, 118, 2.459273815155029
0, 2, 119, 6.194993019104004
0, 2, 120, 5.523376941680908
0, 2, 121, 3.2735276222229
0, 2, 122, 3.758183479309082
0, 2, 123, 4.141290187835693
0, 2, 124, 3.354233980178833
0, 2, 125, 6.503394603729248
0, 2, 126, 3.891956567764282
0, 2, 127, 5.144115447998047
0, 3, 0, 3.094953298568726
0, 3, 1, 3.212311029434204
0, 3, 2, 4.731047630310059
0, 3, 3, 2.618118762969971
0, 3, 4, 4.656554698944092
0, 3, 5, 5.564424991607666
0, 3, 6, 6.370380401611328
0, 3, 7, 4.664333343505859
0, 3, 8, 5.155384540557861
0, 3, 9, 4.699771404266357
0, 3, 10, 6.683178424835205
0, 3, 11, 3.086926937103271
0, 3, 12, 8.448759078979492
0, 3, 13, 14.1795825958252
0, 3, 14, 12.15448665618896
0, 3, 15, 16.06944847106934
0, 3, 16, 12.57033538818359
0, 3, 17, 18.70697021484375
0, 3, 18, 52.18639373779297
0, 3, 19, 180.2219848632812
0, 3, 20, 270.2786560058594
0, 3, 21, 274.1785583496094
0, 3, 22, 281.1607055664062
0, 3, 23, 289.6036071777344
0, 3, 24, 286.671630859375
0, 3, 25, 271.173583984375
0, 3, 26, 304.2056274414062
0, 3, 27, 291.6383666992188
0, 3, 28, 281.8399353027344
0, 3, 29, 337.481689453125
0, 3, 30, 317.6618041992188
0, 3, 31, 285.7894592285156
0, 3, 32, 305.3980712890625
0, 3, 33, 314.1642761230469
0, 3, 34, 321.7184753417969
0, 3, 35, 306.0342712402344
0, 3, 36, 270.440185546875
0, 3, 37, 318.0842590332031
0, 3, 38, 304.6123962402344
0, 3, 39, 286.3832702636719
0, 3, 40, 265.8403930664062
0, 3, 41, 299.2904968261719
0, 3, 42, 284.2995910644531
0, 3, 43, 304.7789001464844
0, 3, 44, 311.676025390625
0, 3, 45, 292.4784851074219
0, 3, 46, 327.7224731445312
0, 3, 47, 300.0109558105469
0, 3, 48, 306.0643005371094
0, 3, 49, 276.0022583007812
0, 3, 50, 290.5521850585938
0, 3, 51, 275.7653503417969
0, 3, 52, 316.3963317871094
0, 3, 53, 291.0004577636719
0, 3, 54, 284.4292907714844
0, 3, 55, 285.53369140625
0, 3, 56, 297.4700622558594
0, 3, 57, 288.8285217285156
0, 3, 58, 308.2247314453125
0, 3, 59, 295.133056640625
0, 3, 60, 297.5840454101562
0, 3, 61, 263.9273986816406
0, 3, 62, 284.3294372558594
0, 3, 63, 306.1107177734375
0, 3, 64, 315.7339172363281
0, 3, 65, 304.2160339355469
0, 3, 66, 316.0900268554688
0, 3, 67, 317.1398620605469
0, 3, 68, 278.9729614257812
0, 3, 69, 282.0990600585938
0, 3, 70, 288.3984680175781
0, 3, 71, 299.208984375
0, 3, 72, 271.2751159667969
0, 3, 73, 311.9764709472656
0, 3, 74, 293.1514282226562
0, 3, 75, 289.1695861816406
0, 3, 76, 305.0953979492188
0, 3, 77, 314.5269775390625
0, 3, 78, 302.219970703125
0, 3, 79, 284.4481811523438
0, 3, 80, 292.7147216796875
0, 3, 81, 309.9444274902344
0, 3, 82, 314.7446899414062
0, 3, 83, 300.7405395507812
0, 3, 84, 312.091796875
0, 3, 85, 294.8591003417969
0, 3, 86, 302.8804321289062
0, 3, 87, 298.1916809082031
0, 3, 88, 299.0950927734375
0, 3, 89, 298.5374450683594
0, 3, 90, 274.5863647460938
0, 3, 91, 283.6879272460938
0, 3, 92, 303.8797912597656
0, 3, 93, 311.8468933105469
0, 3, 94, 298.3778991699219
0, 3, 95, 334.0450744628906
0, 3, 96, 290.4141540527344
0, 3, 97, 283.0811462402344
0, 3, 98, 277.0180969238281
0, 3, 99, 264.0375061035156
0, 3, 100, 287.7620544433594
0, 3, 101, 298.5879821777344
0, 3, 102, 274.5162353515625
0, 3, 103, 319.9762878417969
0, 3, 104, 307.1344299316406
0, 3, 105, 288.6224975585938
0, 3, 106, 302.0352172851562
0, 3, 107, 282.0812072753906
0, 3, 108, 168.2832946777344
0, 3, 109, 59.13151931762695
0, 3, 110, 18.77622222900391
0, 3, 111, 12.40378475189209
0, 3, 112, 10.89601802825928
0, 3, 113, 7.790391445159912
0, 3, 114, 8.752320289611816
0, 3, 115, 10.17257785797119
0, 3, 116, 7.872147560119629
0, 3, 117, 7.804384231567383
0, 3, 118, 6.967596054077148
0, 3, 119, 5.280227184295654
0, 3, 120, 3.764204740524292
0, 3, 121, 5.495728015899658
0, 3, 122, 5.022836685180664
0, 3, 123, 5.528407573699951
0, 3, 124, 2.315303087234497
0, 3, 125, 5.740546703338623
0, 3, 126, 4.163421154022217
0, 3, 127, 2.905855894088745
0, 4, 0, 3.819736480712891
0, 4, 1, 5.498956203460693
0, 4, 2, 3.556106090545654
0, 4, 3, 1.906440496444702
0, 4, 4, 6.684087753295898
0, 4, 5, 8.616209030151367
0, 4, 6, 8.612668991088867
0, 4, 7, 5.209277153015137
0, 4, 8, 2.978817701339722
0, 4, 9, 5.707866191864014
0, 4, 10, 9.074210166931152
0, 4, 11, 6.024063587188721
0, 4, 12, 5.302896976470947
0, 4, 13, 10.21670055389404
0, 4, 14, 11.50846672058105
0, 4, 15, 10.70001888275146
0, 4, 16, 16.09441566467285
0, 4, 17, 17.38866424560547
0, 4, 18, 95.35921478271484
0, 4, 19, 222.5711822509766
0, 4, 20, 285.1496276855469
0, 4, 21, 273.7004699707031
0, 4, 22, 305.2363586425781
0, 4, 23, 266.0944213867188
0, 4, 24, 289.9812927246094
0, 4, 25, 271.4918823242188
0, 4, 26, 294.7879333496094
0, 4, 27, 282.3016967773438
0, 4, 28, 308.0043640136719
0, 4, 29, 322.1600341796875
0, 4, 30, 309.1032104492188
0, 4, 31, 305.7153625488281
0, 4, 32, 279.8974304199219
0, 4, 33, 294.3457641601562
0, 4, 34, 296.0055541992188
0, 4, 35, 313.2069396972656
0, 4, 36, 293.3101501464844
0, 4, 37, 290.7352294921875
0, 4, 38, 298.0489501953125
0, 4, 39, 295.7563171386719
0, 4, 40, 301.4797973632812
0, 4, 41, 314.5656433105469
0, 4, 42, 332.1645202636719
0, 4, 43, 295.5074157714844
0, 4, 44, 322.1200866699219
0, 4, 45, 323.9075012207031
0, 4, 46, 309.0582275390625
0, 4, 47, 291.8456115722656
0, 4, 48, 299.8108215332031
0, 4, 49, 278.0441284179688
0, 4, 50, 297.8209228515625
0, 4, 51, 316.4139404296875
0, 4, 52, 329.1478881835938
0, 4, 53, 305.0628967285156
0, 4, 54, 287.3698120117188
0, 4, 55, 316.2911071777344
0, 4, 56, 286.5285339355469
0, 4, 57, 313.4610595703125
0, 4, 58, 295.6564636230469
0, 4, 59, 312.7786865234375
0, 4, 60, 303.4861145019531
0, 4, 61, 317.2503662109375
0, 4, 62, 306.2052612304688
0, 4, 63, 301.4079284667969
0, 4, 64, 329.3408203125
0, 4, 65, 315.5292358398438
0, 4, 66, 295.3888549804688
0, 4, 67, 285.2230529785156
0, 4, 68, 313.1403198242188
0, 4, 69, 276.6007995605469
0, 4, 70, 298.7361145019531
0, 4, 71, 323.9695129394531
0, 4, 72, 333.2371826171875
0, 4, 73, 299.6983337402344
0, 4, 74, 291.208984375
0, 4, 75, 292.4114685058594
0, 4, 76, 274.5585327148438
0, 4, 77, 279.9827575683594
0, 4, 78, 308.560302734375
0, 4, 79, 317.8121032714844
0, 4, 80, 314.9516906738281
0, 4, 81, 312.6482543945312
0, 4, 82, 297.3280944824219
0, 4, 83, 300.4471740722656
0, 4, 84, 297.9766845703125
0, 4, 85, 296.1584777832031
0, 4, 86, 298.2183227539062
0, 4, 87, 285.0465698242188
0, 4, 88, 306.7922058105469
0, 4, 89, 294.0522766113281
0, 4, 90, 331.6742858886719
0, 4, 91, 301.267822265625
0, 4, 92, 288.9190063476562
0, 4, 93, 299.0016174316406
0, 4, 94, 291.6284790039062
0, 4, 95, 290.0290832519531
0, 4, 96, 320.9508361816406
0, 4, 97, 274.1217651367188
0, 4, 98, 326.5199890136719
0, 4, 99, 312.8995361328125
0, 4, 100, 300.8160400390625
0, 4, 101, 256.0974426269531
0, 4, 102, 299.6725158691406
0, 4, 103, 317.7481689453125
0, 4, 104, 283.1847534179688
0, 4, 105, 310.2040710449219
0, 4, 106, 285.9247741699219
0, 4, 107, 298.5411376953125
0, 4, 108, 227.1270294189453
0, 4, 109, 80.49976348876953
0, 4, 110, 16.64557456970215
0, 4, 111, 13.75648498535156
0, 4, 112, 11.55342197418213
0, 4, 113, 9.247003555297852
0, 4, 114, 9.211016654968262
0, 4, 115, 8.383081436157227
0, 4, 116, 9.068415641784668
0, 4, 117, 8.601061820983887
0, 4, 118, 11.21668815612793
0, 4, 119, 10.11792087554932
0, 4, 120, 4.379071712493896
0, 4, 121, 5.031430721282959
0, 4, 122, 3.0025634765625
0, 4, 123, 6.379873752593994
0, 4, 124, 3.875719785690308
0, 4, 125, 10.22511577606201
0, 4, 126, 4.809230804443359
0, 4, 127, 3.37806510925293
0, 5, 0, 2.854100465774536
0, 5, 1, 2.973366022109985
0, 5, 2, 3.515750408172607
0, 5, 3, 4.809342384338379
0, 5, 4, 4.657002925872803
0, 5, 5, 5.854531764984131
0, 5, 6, 5.853635311126709
0, 5, 7, 6.87764310836792
0, 5, 8, 5.868852138519287
0, 5, 9, 5.46565580368042
0, 5, 10, 5.668170928955078
0, 5, 11, 8.037088394165039
0, 5, 12, 8.780678749084473
0, 5, 13, 7.119491100311279
0, 5, 14, 13.22999477386475
0, 5, 15, 16.49367141723633
0, 5, 16, 14.85176753997803
0, 5, 17, 30.33912467956543
0, 5, 18, 136.9333801269531
0, 5, 19, 288.1255798339844
0, 5, 20, 307.802978515625
0, 5, 21, 317.2679138183594
0, 5, 22, 277.9845275878906
0, 5, 23, 310.6669921875
0, 5, 24, 302.5103149414062
0, 5, 25, 287.6994934082031
0, 5, 26, 293.3565368652344
0, 5, 27, 324.5686340332031
0, 5, 28, 302.9734497070312
0, 5, 29, 296.7913818359375
0, 5, 30, 324.894775390625
0, 5, 31, 286.9012756347656
0, 5, 32, 302.21044921875
0, 5, 33, 303.2848510742188
0, 5, 34, 298.6926574707031
0, 5, 35, 310.3428649902344
0, 5, 36, 269.5264587402344
0, 5, 37, 281.6933898925781
0, 5, 38, 292.4507751464844
0, 5, 39, 309.9051208496094
0, 5, 40, 309.7386474609375
0, 5, 41, 275.2550048828125
0, 5, 42, 305.6512145996094
0, 5, 43, 314.162353515625
0, 5, 44, 291.3613586425781
0, 5, 45, 300.1231079101562
0, 5, 46, 264.2736511230469
0, 5, 47, 278.5437622070312
0, 5, 48, 292.6635131835938
0, 5, 49, 287.2273864746094
0, 5, 50, 293.7000732421875
0, 5, 51, 279.9965515136719
0, 5, 52, 267.7942199707031
0, 5, 53, 282.1601257324219
0, 5, 54, 291.9311828613281
0, 5, 55, 346.3327026367188
0, 5, 56, 305.7669067382812
0, 5, 57, 306.9139404296875
0, 5, 58, 310.8789367675781
0, 5, 59, 302.7847595214844
0, 5, 60, 307.4943237304688
0, 5, 61, 281.2891845703125
0, 5, 62, 325.7901306152344
0, 5, 63, 290.8351135253906
0, 5, 64, 322.7631225585938
0, 5, 65, 306.9434814453125
0, 5, 66, 327.6861267089844
0, 5, 67, 311.4291381835938
0, 5, 68, 312.6279296875
0, 5, 69, 310.6430358886719
0, 5, 70, 301.0859069824219
0, 5, 71, 274.1761169433594
0, 5, 72, 312.8477172851562
0, 5, 73, 301.7976379394531
0, 5, 74, 297.3507690429688
0, 5, 75, 292.7342834472656
0, 5, 76, 286.1539916992188
0, 5, 77, 298.790771484375
0, 5, 78, 313.2518920898438
0, 5, 79, 306.5364990234375
0, 5, 80, 294.10595703125
0, 5, 81, 325.8125610351562
0, 5, 82, 324.2801818847656
0, 5, 83, 281.2866516113281
0, 5, 84, 303.3074645996094
0, 5, 85, 272.0273132324219
0, 5, 86, 326.6658020019531
0, 5, 87, 283.3062133789062
0, 5, 88, 316.740478515625
0, 5, 89, 304.4443969726562
0, 5, 90, 316.9495544433594
0, 5, 91, 312.6902770996094
0, 5, 92, 296.1575927734375
0, 5, 93, 322.5795288085938
0, 5, 94, 309.4083251953125
0, 5, 95, 299.1635131835938
0, 5, 96, 302.4558715820312
0, 5, 97, 296.3463745117188
0, 5, 98, 319.0740356445312
0, 5, 99, 302.2528686523438
0, 5, 100, 291.7349853515625
0, 5, 101, 304.1083374023438
0, 5, 102, 291.8780517578125
0, 5, 103, 313.2523498535156
0, 5, 104, 301.8603820800781
0, 5, 105, 291.4669799804688
0, 5, 106, 282.8404846191406
0, 5, 107, 294.3619384765625
0, 5, 108, 265.620849609375
0, 5, 109, 156.7328948974609
0, 5, 110, 40.51998519897461
0, 5, 111, 20.93391036987305
0, 5, 112, 18.21894645690918
0, 5, 113, 14.14395332336426
0, 5, 114, 11.59859085083008
0, 5, 115, 8.438522338867188
0, 5, 116, 7.858120441436768
0, 5, 117, 7.892612934112549
0, 5, 118, 16.41672897338867
0, 5, 119, 5.276523113250732
0, 5, 120, 5.850980758666992
0, 5, 121, 6.383363723754883
0, 5, 122, 6.97855281829834
0, 5, 123, 5.401683807373047
0, 5, 124, 6.591030597686768
0, 5, 125, 4.089024066925049
0, 5, 126, 5.441689491271973
0, 5, 127, 2.38975715637207
0, 6, 0, 6.355176448822021
0, 6, 1, 2.78298020362854
0, 6, 2, 7.537268161773682
0, 6, 3, 5.290885448455811
0, 6, 4, 2.731623649597168
0, 6, 5, 7.251826763153076
0, 6, 6, 7.136285305023193
0, 6, 7, 7.735536575317383
0, 6, 8, 8.170949935913086
0, 6, 9, 5.567697048187256
0, 6, 10, 8.344916343688965
0, 6, 11, 8.372496604919434
0, 6, 12, 9.418898582458496
0, 6, 13, 14.50086879730225
0, 6, 14, 8.861527442932129
0, 6, 15, 17.82710838317871
0, 6, 16, 29.45470428466797
0, 6, 17, 55.23417663574219
0, 6, 18, 174.5651397705078
0, 6, 19, 278.12890625
0, 6, 20, 292.3948974609375
0, 6, 21, 313.9558410644531
0, 6, 22, 320.4941101074219
0, 6, 23, 306.146484375
0, 6, 24, 317.5552062988281
0, 6, 25, 317.0597839355469
0, 6, 26, 319.758544921875
0, 6, 27, 330.689208984375
0, 6, 28, 295.7288208007812
0, 6, 29, 330.0520629882812
0, 6, 30, 283.6990966796875
0, 6, 31, 284.8401184082031
0, 6, 32, 339.4585266113281
0, 6, 33, 299.8312072753906
0, 6, 34, 339.2936401367188
0, 6, 35, 319.75634765625
0, 6, 36, 274.1555480957031
0, 6, 37, 288.6038208007812
0, 6, 38, 310.3250732421875
0, 6, 39, 298.8917541503906
0, 6, 40, 284.1954956054688
0, 6, 41, 298.2242431640625
0, 6, 42, 304.8372802734375
0, 6, 43, 291.4682922363281
0, 6, 44, 281.4505920410156
0, 6, 45, 320.7406616210938
0, 6, 46, 300.3925476074219
0, 6, 47, 333.8558654785156
0, 6, 48, 292.6506652832031
0, 6, 49, 311.0721435546875
0, 6, 50, 329.07470703125
0, 6, 51, 310.639404296875
0, 6, 52, 322.482421875
0, 6, 53, 330.3050231933594
0, 6, 54, 301.3118896484375
0, 6, 55, 304.7424011230469
0, 6, 56, 294.7115478515625
0, 6, 57, 313.2868957519531
0, 6, 58, 262.1145629882812
0, 6, 59, 304.11572265625
0, 6, 60, 315.1901550292969
0, 6, 61, 272.0989990234375
0, 6, 62, 337.8187561035156
0, 6, 63, 322.0756225585938
0, 6, 64, 291.6262512207031
0, 6, 65, 284.3877868652344
0, 6, 66, 303.6739196777344
0, 6, 67, 309.5984497070312
0, 6, 68, 294.3651123046875
0, 6, 69, 278.3523254394531
0, 6, 70, 273.9490356445312
0, 6, 71, 289.6021118164062
0, 6, 72, 309.0829467773438
0, 6, 73, 293.0090026855469
0, 6, 74, 330.0090942382812
0, 6, 75, 342.5477294921875
0, 6, 76, 298.2067565917969
0, 6, 77, 289.0045776367188
0, 6, 78, 280.7733154296875
0, 6, 79, 291.4190063476562
0, 6, 80, 302.1276550292969
0, 6, 81, 317.4020690917969
0, 6, 82, 319.0043640136719
0, 6, 83, 321.0146179199219
0, 6, 84, 295.7967529296875
0, 6, 85, 299.8791198730469
0, 6, 86, 328.8385009765625
0, 6, 87, 291.5192565917969
0, 6, 88, 307.5020446777344
0, 6, 89, 303.3570251464844
0, 6, 90, 300.9042358398438
0, 6, 91, 312.5341491699219
0, 6, 92, 284.33642578125
0, 6, 93, 297.0432434082031
0, 6, 94, 272.1436157226562
0, 6, 95, 300.3294982910156
0, 6, 96, 345.9384155273438
0, 6, 97, 308.2739868164062
0, 6, 98, 300.1551513671875
0, 6, 99, 271.5175476074219
0, 6, 100, 311.0870056152344
0, 6, 101, 292.4463500976562
0, 6, 102, 306.0652465820312
0, 6, 103, 307.7217102050781
0, 6, 104, 290.2978515625
0, 6, 105, 304.8540649414062
0, 6, 106, 306.474609375
0, 6, 107, 307.3026428222656
0, 6, 108, 265.9884948730469
0, 6, 109, 188.5137786865234
0, 6, 110, 54.10931015014648
0, 6, 111, 21.20233917236328
0, 6, 112, 14.85332775115967
0, 6, 113, 9.75212574005127
0, 6, 114, 12.27619552612305
0, 6, 115, 11.90213394165039
0, 6, 116, 10.21712779998779
0, 6, 117, 7.959299564361572
0, 6, 118, 10.44639873504639
0, 6, 119, 8.595797538757324
0, 6, 120, 5.632977962493896
0, 6, 121, 7.690779685974121
0, 6, 122, 6.573146820068359
0, 6, 123, 3.880367994308472
0, 6, 124, 6.042188167572021
0, 6, 125, 6.593571662902832
0, 6, 126, 4.303444385528564
0, 6, 127, 8.222789764404297
0, 7, 0, 5.173291206359863
0, 7, 1, 3.43341851234436
0, 7, 2, 5.729953765869141
0, 7, 3, 3.240926027297974
0, 7, 4, 3.306435108184814
0, 7, 5, 6.065585136413574
0, 7, 6, 5.17195987701416
0, 7, 7, 6.814817905426025
0, 7, 8, 4.745992183685303
0, 7, 9, 7.437566757202148
0, 7, 10, 10.44692325592041
0, 7, 11, 12.24471664428711
0, 7, 12, 10.10631275177002
0, 7, 13, 12.01420974731445
0, 7, 14, 11.03350925445557
0, 7, 15, 16.9644832611084
0, 7, 16, 26.4520092010498
0, 7, 17, 97.32363128662109
0, 7, 18, 218.9015350341797
0, 7, 19, 289.7592163085938
0, 7, 20, 298.3507080078125
0, 7, 21, 277.5240173339844
0, 7, 22, 300.5149841308594
0, 7, 23, 289.7093811035156
0, 7, 24, 313.9425659179688
0, 7, 25, 323.6484375
0, 7, 26, 278.9031066894531
0, 7, 27, 297.8093872070312
0, 7, 28, 325.7403869628906
0, 7, 29, 320.5764465332031
0, 7, 30, 299.2371215820312
0, 7, 31, 277.8016662597656
0, 7, 32, 305.8581237792969
0, 7, 33, 263.8958435058594
0, 7, 34, 298.7639770507812
0, 7, 35, 319.474609375
0, 7, 36, 329.4696044921875
0, 7, 37, 321.4537658691406
0, 7, 38, 295.0887756347656
0, 7, 39, 305.7560729980469
0, 7, 40, 289.4114074707031
0, 7, 41, 273.6448059082031
0, 7, 42, 299.9329833984375
0, 7, 43, 272.8388977050781
0, 7, 44, 302.8109741210938
0, 7, 45, 295.8886413574219
0, 7, 46, 285.5149230957031
0, 7, 47, 329.0555114746094
0, 7, 48, 288.1016540527344
0, 7, 49, 303.4965515136719
0, 7, 50, 320.5800476074219
0, 7, 51, 299.1430053710938
0, 7, 52, 325.2061767578125
0, 7, 53, 308.6684875488281
0, 7, 54, 322.2646484375
0, 7, 55, 307.4670104980469
0, 7, 56, 280.5434875488281
0, 7, 57, 283.0684509277344
0, 7, 58, 295.3135070800781
0, 7, 59, 296.2626037597656
0, 7, 60, 323.5335388183594
0, 7, 61, 279.4619445800781
0, 7, 62, 300.4958801269531
0, 7, 63, 293.8277282714844
0, 7, 64, 304.0770874023438
0, 7, 65, 332.4061584472656
0, 7, 66, 318.3828430175781
0, 7, 67, 300.8523254394531
0, 7, 68, 282.4050598144531
0, 7, 69, 294.0431213378906
0, 7, 70, 301.2430725097656
0, 7, 71, 309.6272583007812
0, 7, 72, 286.5801391601562
0, 7, 73, 297.8558044433594
0, 7, 74, 343.4468688964844
0, 7, 75, 317.2085876464844
0, 7, 76, 324.2125854492188
0, 7, 77, 281.1934814453125
0, 7, 78, 300.5790405273438
0, 7, 79, 297.5529479980469
0, 7, 80, 313.9264831542969
0, 7, 81, 319.2122497558594
0, 7, 82, 328.185791015625
0, 7, 83, 317.7388610839844
0, 7, 84, 309.5359191894531
0, 7, 85, 272.47216796875
0, 7, 86, 311.3016052246094
0, 7, 87, 312.5824279785156
0, 7, 88, 306.9966125488281
0, 7, 89, 292.777099609375
0, 7, 90, 308.5564270019531
0, 7, 91, 317.4478149414062
0, 7, 92, 289.5254211425781
0, 7, 93, 307.5524291992188
0, 7, 94, 273.076904296875
0, 7, 95, 295.3309020996094
0, 7, 96, 330.4227905273438
0, 7, 97, 296.7376403808594
0, 7, 98, 290.9046630859375
0, 7, 99, 311.9426574707031
0, 7, 100, 280.8684997558594
0, 7, 101, 275.3064270019531
0, 7, 102, 291.8931884765625
0, 7, 103, 294.3825378417969
0, 7, 104, 274.3163757324219
0, 7, 105, 305.1182861328125
0, 7, 106, 317.2342224121094
0, 7, 107, 296.6551818847656
0, 7, 108, 273.1555480957031
0, 7, 109, 235.1693725585938
0, 7, 110, 96.58785247802734
0, 7, 111, 23.3715705871582
0, 7, 112, 14.17949199676514
0, 7, 113, 14.2473783493042
0, 7, 114, 14.92009544372559
0, 7, 115, 10.4186487197876
0, 7, 116, 6.479602813720703
0, 7, 117, 7.23219633102417
0, 7, 118, 9.222690582275391
0, 7, 119, 6.954238891601562
0, 7, 120, 4.221672534942627
0, 7, 121, 7.763947010040283
0, 7, 122, 7.394103527069092
0, 7, 123, 3.931609153747559
0, 7, 124, 2.891739130020142
0, 7, 125, 5.405791282653809
0, 7, 126, 10.02126789093018
0, 7, 127, 4.624576568603516
0, 8, 0, 5.853857040405273
0, 8, 1, 4.492952346801758
0, 8, 2, 3.652443647384644
0, 8, 3, 3.248025178909302
0, 8, 4, 3.505638360977173
0, 8, 5, 4.13353967666626
0, 8, 6, 4.917343616485596
0, 8, 7, 4.536602973937988
0, 8, 8, 7.490951061248779
0, 8, 9, 6.298970222473145
0, 8, 10, 7.526468753814697
0, 8, 11, 12.38635063171387
0, 8, 12, 12.82103824615479
0, 8, 13, 13.45392799377441
0, 8, 14, 13.76637077331543
0, 8, 15, 22.51853942871094
0, 8, 16, 33.61857223510742
0, 8, 17, 129.6494903564453
0, 8, 18, 241.4256134033203
0, 8, 19, 294.6557312011719
0, 8, 20, 285.2908935546875
0, 8, 21, 307.7170715332031
0, 8, 22, 294.7258911132812
0, 8, 23, 275.1826477050781
0, 8, 24, 271.0961303710938
0, 8, 25, 277.0169677734375
0, 8, 26, 306.7199401855469
0, 8, 27, 308.2255859375
0, 8, 28, 302.0207214355469
0, 8, 29, 317.6470336914062
0, 8, 30, 312.5271911621094
0, 8, 31, 303.3110961914062
0, 8, 32, 281.089599609375
0, 8, 33, 292.1752014160156
0, 8, 34, 290.5414428710938
0, 8, 35, 281.567626953125
0, 8, 36, 319.2780456542969
0, 8, 37, 340.4718017578125
0, 8, 38, 333.4894409179688
0, 8, 39, 281.3129272460938
