# TOPAS Version: 3.1.p3
# Parameter File: batch_inserts_44.txt
# Results for scorer Readout_Adipose
# Scored in component: MyBox
# X in 1 bin  of 0.75 cm
# Y in 512 bins of 0.0783984 cm
# Z in 128 bins of 0.078125 cm
# EnergyDeposit ( MeV ) : Sum   
0, 0, 0, 3.288958787918091
0, 0, 1, 2.210747003555298
0, 0, 2, 3.639032125473022
0, 0, 3, 1.362615823745728
0, 0, 4, 3.902518272399902
0, 0, 5, 2.025253057479858
0, 0, 6, 8.846968650817871
0, 0, 7, 10.64816665649414
0, 0, 8, 4.31425952911377
0, 0, 9, 3.392279863357544
0, 0, 10, 9.365688323974609
0, 0, 11, 4.921280860900879
0, 0, 12, 4.147482395172119
0, 0, 13, 4.783287048339844
0, 0, 14, 6.672737598419189
0, 0, 15, 12.24931240081787
0, 0, 16, 10.01008319854736
0, 0, 17, 10.07511234283447
0, 0, 18, 12.70274543762207
0, 0, 19, 44.6054573059082
0, 0, 20, 141.4150085449219
0, 0, 21, 223.4803771972656
0, 0, 22, 250.0882873535156
0, 0, 23, 255.9759826660156
0, 0, 24, 251.7977600097656
0, 0, 25, 259.6285400390625
0, 0, 26, 235.3371734619141
0, 0, 27, 236.6474609375
0, 0, 28, 272.1316223144531
0, 0, 29, 253.1282348632812
0, 0, 30, 228.7903442382812
0, 0, 31, 243.5500030517578
0, 0, 32, 264.0465698242188
0, 0, 33, 262.6967163085938
0, 0, 34, 287.2673034667969
0, 0, 35, 265.9617004394531
0, 0, 36, 247.1645050048828
0, 0, 37, 251.6999206542969
0, 0, 38, 270.2438659667969
0, 0, 39, 228.1980895996094
0, 0, 40, 242.9851684570312
0, 0, 41, 265.556640625
0, 0, 42, 228.9655609130859
0, 0, 43, 259.4334411621094
0, 0, 44, 250.4775238037109
0, 0, 45, 251.9053649902344
0, 0, 46, 244.6141052246094
0, 0, 47, 254.2288970947266
0, 0, 48, 268.5151672363281
0, 0, 49, 274.0938415527344
0, 0, 50, 250.4150390625
0, 0, 51, 252.2377319335938
0, 0, 52, 273.0424499511719
0, 0, 53, 291.6671447753906
0, 0, 54, 241.3198547363281
0, 0, 55, 241.190185546875
0, 0, 56, 277.9620056152344
0, 0, 57, 264.7216186523438
0, 0, 58, 247.8246459960938
0, 0, 59, 272.9797058105469
0, 0, 60, 236.9792785644531
0, 0, 61, 244.8345947265625
0, 0, 62, 258.2843627929688
0, 0, 63, 268.0650634765625
0, 0, 64, 254.9268646240234
0, 0, 65, 261.6562194824219
0, 0, 66, 276.4689025878906
0, 0, 67, 246.3013916015625
0, 0, 68, 258.2481994628906
0, 0, 69, 261.5411071777344
0, 0, 70, 273.0963439941406
0, 0, 71, 238.3523254394531
0, 0, 72, 251.5285949707031
0, 0, 73, 257.1957397460938
0, 0, 74, 252.0751037597656
0, 0, 75, 239.3312683105469
0, 0, 76, 231.6853790283203
0, 0, 77, 259.6702575683594
0, 0, 78, 255.6664123535156
0, 0, 79, 276.6513061523438
0, 0, 80, 214.5997467041016
0, 0, 81, 266.6765747070312
0, 0, 82, 257.55126953125
0, 0, 83, 246.8301239013672
0, 0, 84, 272.3097229003906
0, 0, 85, 233.4596862792969
0, 0, 86, 253.6536254882812
0, 0, 87, 250.5313873291016
0, 0, 88, 259.6058044433594
0, 0, 89, 283.5845031738281
0, 0, 90, 245.0857696533203
0, 0, 91, 282.199462890625
0, 0, 92, 252.9430694580078
0, 0, 93, 250.6881561279297
0, 0, 94, 246.2935943603516
0, 0, 95, 247.4278259277344
0, 0, 96, 274.2947692871094
0, 0, 97, 272.0939636230469
0, 0, 98, 271.7944641113281
0, 0, 99, 258.4880676269531
0, 0, 100, 256.8814697265625
0, 0, 101, 225.1299438476562
0, 0, 102, 232.7972259521484
0, 0, 103, 270.6065063476562
0, 0, 104, 253.8417816162109
0, 0, 105, 251.7726287841797
0, 0, 106, 247.7445373535156
0, 0, 107, 153.7490844726562
0, 0, 108, 39.21855926513672
0, 0, 109, 12.5385913848877
0, 0, 110, 15.555495262146
0, 0, 111, 8.246027946472168
0, 0, 112, 6.864763259887695
0, 0, 113, 6.315947532653809
0, 0, 114, 7.790926933288574
0, 0, 115, 5.857847690582275
0, 0, 116, 5.626253604888916
0, 0, 117, 7.61826753616333
0, 0, 118, 5.416724681854248
0, 0, 119, 3.70297908782959
0, 0, 120, 2.176005840301514
0, 0, 121, 4.88275671005249
0, 0, 122, 4.239615917205811
0, 0, 123, 3.913391590118408
0, 0, 124, 6.743075847625732
0, 0, 125, 6.367366313934326
0, 0, 126, 5.704110145568848
0, 0, 127, 2.364311218261719
0, 1, 0, 10.60237216949463
0, 1, 1, 2.602076768875122
0, 1, 2, 3.220900058746338
0, 1, 3, 1.67682147026062
0, 1, 4, 2.500771045684814
0, 1, 5, 4.879151344299316
0, 1, 6, 5.263308048248291
0, 1, 7, 6.441152572631836
0, 1, 8, 7.576048374176025
0, 1, 9, 5.641445636749268
0, 1, 10, 7.06756067276001
0, 1, 11, 10.74562740325928
0, 1, 12, 9.203768730163574
0, 1, 13, 9.749601364135742
0, 1, 14, 7.043161869049072
0, 1, 15, 7.696117877960205
0, 1, 16, 10.75638675689697
0, 1, 17, 10.45496559143066
0, 1, 18, 19.64011573791504
0, 1, 19, 66.27806854248047
0, 1, 20, 200.1056823730469
0, 1, 21, 254.6930084228516
0, 1, 22, 295.2281188964844
0, 1, 23, 283.6915283203125
0, 1, 24, 274.8175048828125
0, 1, 25, 286.3438720703125
0, 1, 26, 268.406494140625
0, 1, 27, 307.0320129394531
0, 1, 28, 297.7538452148438
0, 1, 29, 296.0489501953125
0, 1, 30, 281.0095520019531
0, 1, 31, 292.1947937011719
0, 1, 32, 291.5477600097656
0, 1, 33, 295.6011047363281
0, 1, 34, 292.526123046875
0, 1, 35, 280.4257202148438
0, 1, 36, 305.7654418945312
0, 1, 37, 294.7915954589844
0, 1, 38, 279.4717407226562
0, 1, 39, 294.4624938964844
0, 1, 40, 266.5177001953125
0, 1, 41, 288.8254699707031
0, 1, 42, 289.5916748046875
0, 1, 43, 333.572021484375
0, 1, 44, 279.123779296875
0, 1, 45, 294.67822265625
0, 1, 46, 260.7281494140625
0, 1, 47, 311.4257507324219
0, 1, 48, 284.9809265136719
0, 1, 49, 303.9554138183594
0, 1, 50, 263.656005859375
0, 1, 51, 273.3601989746094
0, 1, 52, 299.605712890625
0, 1, 53, 304.8543395996094
0, 1, 54, 273.178466796875
0, 1, 55, 293.5769653320312
0, 1, 56, 277.5788269042969
0, 1, 57, 299.587890625
0, 1, 58, 312.9508666992188
0, 1, 59, 293.7140502929688
0, 1, 60, 297.723388671875
0, 1, 61, 275.5478515625
0, 1, 62, 308.1446228027344
0, 1, 63, 290.2406005859375
0, 1, 64, 289.8813171386719
0, 1, 65, 294.4788513183594
0, 1, 66, 292.1436157226562
0, 1, 67, 291.2814025878906
0, 1, 68, 278.2395935058594
0, 1, 69, 279.074462890625
0, 1, 70, 271.6577758789062
0, 1, 71, 274.7443542480469
0, 1, 72, 287.0517272949219
0, 1, 73, 303.4872741699219
0, 1, 74, 304.3184509277344
0, 1, 75, 297.1835021972656
0, 1, 76, 286.9177551269531
0, 1, 77, 291.5164794921875
0, 1, 78, 298.2982788085938
0, 1, 79, 301.1287231445312
0, 1, 80, 296.7601318359375
0, 1, 81, 299.414306640625
0, 1, 82, 286.5258178710938
0, 1, 83, 330.9634094238281
0, 1, 84, 307.7004089355469
0, 1, 85, 251.9578552246094
0, 1, 86, 293.1836853027344
0, 1, 87, 290.4717712402344
0, 1, 88, 297.6685180664062
0, 1, 89, 290.70263671875
0, 1, 90, 270.6278381347656
0, 1, 91, 317.7973327636719
0, 1, 92, 290.377685546875
0, 1, 93, 286.9173583984375
0, 1, 94, 304.2103881835938
0, 1, 95, 283.5543518066406
0, 1, 96, 282.7312622070312
0, 1, 97, 300.3494873046875
0, 1, 98, 277.8369750976562
0, 1, 99, 265.30859375
0, 1, 100, 275.7586364746094
0, 1, 101, 281.3710327148438
0, 1, 102, 277.2504577636719
0, 1, 103, 280.9474487304688
0, 1, 104, 306.3267822265625
0, 1, 105, 297.0535888671875
0, 1, 106, 261.5469970703125
0, 1, 107, 192.6324768066406
0, 1, 108, 80.92628479003906
0, 1, 109, 22.14630889892578
0, 1, 110, 10.83195972442627
0, 1, 111, 8.419828414916992
0, 1, 112, 13.18594932556152
0, 1, 113, 7.033894062042236
0, 1, 114, 5.590852737426758
0, 1, 115, 7.727627754211426
0, 1, 116, 11.35410690307617
0, 1, 117, 6.684114456176758
0, 1, 118, 4.322013378143311
0, 1, 119, 7.994545459747314
0, 1, 120, 3.28297758102417
0, 1, 121, 3.20518684387207
0, 1, 122, 3.364691257476807
0, 1, 123, 4.082372188568115
0, 1, 124, 6.594732761383057
0, 1, 125, 3.668344736099243
0, 1, 126, 4.523561000823975
0, 1, 127, 0.6421173214912415
0, 2, 0, 2.268191576004028
0, 2, 1, 2.186517953872681
0, 2, 2, 4.267334938049316
0, 2, 3, 4.289712429046631
0, 2, 4, 3.181521892547607
0, 2, 5, 1.87323522567749
0, 2, 6, 2.009119987487793
0, 2, 7, 2.987021923065186
0, 2, 8, 4.582750797271729
0, 2, 9, 5.658177852630615
0, 2, 10, 8.559886932373047
0, 2, 11, 7.518468379974365
0, 2, 12, 7.049977779388428
0, 2, 13, 10.01320743560791
0, 2, 14, 11.0065803527832
0, 2, 15, 7.24445915222168
0, 2, 16, 8.677151679992676
0, 2, 17, 16.19806098937988
0, 2, 18, 30.3425235748291
0, 2, 19, 116.7408752441406
0, 2, 20, 248.1765747070312
0, 2, 21, 270.9593505859375
0, 2, 22, 315.6647033691406
0, 2, 23, 300.5278015136719
0, 2, 24, 288.8708190917969
0, 2, 25, 302.8013916015625
0, 2, 26, 292.373779296875
0, 2, 27, 275.6377258300781
0, 2, 28, 272.1414184570312
0, 2, 29, 276.4112548828125
0, 2, 30, 292.7156066894531
0, 2, 31, 278.8988952636719
0, 2, 32, 295.3661193847656
0, 2, 33, 281.6011657714844
0, 2, 34, 333.7269287109375
0, 2, 35, 290.7991027832031
0, 2, 36, 302.98583984375
0, 2, 37, 314.4320678710938
0, 2, 38, 313.3730773925781
0, 2, 39, 266.4930114746094
0, 2, 40, 305.5853881835938
0, 2, 41, 292.480224609375
0, 2, 42, 303.8277893066406
0, 2, 43, 310.9889221191406
0, 2, 44, 314.0967712402344
0, 2, 45, 325.2478332519531
0, 2, 46, 287.1382446289062
0, 2, 47, 303.299072265625
0, 2, 48, 283.5943603515625
0, 2, 49, 277.9728698730469
0, 2, 50, 296.3976745605469
0, 2, 51, 284.1361694335938
0, 2, 52, 269.8267211914062
0, 2, 53, 288.691162109375
0, 2, 54, 283.3005065917969
0, 2, 55, 277.4397583007812
0, 2, 56, 301.7098999023438
0, 2, 57, 296.2179565429688
0, 2, 58, 303.1584167480469
0, 2, 59, 288.313720703125
0, 2, 60, 319.8421020507812
0, 2, 61, 301.1478881835938
0, 2, 62, 314.8364562988281
0, 2, 63, 303.8551940917969
0, 2, 64, 295.5464477539062
0, 2, 65, 313.00830078125
0, 2, 66, 280.2524719238281
0, 2, 67, 291.0475769042969
0, 2, 68, 295.6264343261719
0, 2, 69, 311.159423828125
0, 2, 70, 334.4599914550781
0, 2, 71, 284.3363647460938
0, 2, 72, 301.6060485839844
0, 2, 73, 309.9645385742188
0, 2, 74, 286.0428161621094
0, 2, 75, 305.289794921875
0, 2, 76, 287.89501953125
0, 2, 77, 300.4848327636719
0, 2, 78, 316.9557495117188
0, 2, 79, 310.4405517578125
0, 2, 80, 298.2857971191406
0, 2, 81, 281.1813049316406
0, 2, 82, 317.8801879882812
0, 2, 83, 312.20361328125
0, 2, 84, 287.5151062011719
0, 2, 85, 278.907958984375
0, 2, 86, 324.8648376464844
0, 2, 87, 287.2704772949219
0, 2, 88, 279.5981140136719
0, 2, 89, 295.3355102539062
0, 2, 90, 295.0710754394531
0, 2, 91, 274.5743103027344
0, 2, 92, 303.5899658203125
0, 2, 93, 316.0611572265625
0, 2, 94, 290.5903015136719
0, 2, 95, 314.9943237304688
0, 2, 96, 314.8923034667969
0, 2, 97, 291.326171875
0, 2, 98, 297.9056091308594
0, 2, 99, 274.2798156738281
0, 2, 100, 306.6023254394531
0, 2, 101, 300.4139709472656
0, 2, 102, 295.5841369628906
0, 2, 103, 293.3789978027344
0, 2, 104, 293.7953796386719
0, 2, 105, 273.2428894042969
0, 2, 106, 298.9087829589844
0, 2, 107, 271.0025939941406
0, 2, 108, 115.0737686157227
0, 2, 109, 31.08733177185059
0, 2, 110, 9.509171485900879
0, 2, 111, 10.74740028381348
0, 2, 112, 6.770429611206055
0, 2, 113, 9.635584831237793
0, 2, 114, 10.07144260406494
0, 2, 115, 9.649783134460449
0, 2, 116, 10.13560485839844
0, 2, 117, 6.905820369720459
0, 2, 118, 3.193832397460938
0, 2, 119, 5.552384853363037
0, 2, 120, 5.043797016143799
0, 2, 121, 1.310415863990784
0, 2, 122, 3.304200887680054
0, 2, 123, 4.560094356536865
0, 2, 124, 2.938253402709961
0, 2, 125, 4.521277904510498
0, 2, 126, 4.054264068603516
0, 2, 127, 5.484241485595703
0, 3, 0, 4.347999095916748
0, 3, 1, 3.791115045547485
0, 3, 2, 3.239404439926147
0, 3, 3, 3.534837484359741
0, 3, 4, 4.722296714782715
0, 3, 5, 7.039314746856689
0, 3, 6, 6.978207588195801
0, 3, 7, 5.591495037078857
0, 3, 8, 6.121171951293945
0, 3, 9, 4.987871646881104
0, 3, 10, 5.722066402435303
0, 3, 11, 4.312915802001953
0, 3, 12, 7.506012916564941
0, 3, 13, 15.45018768310547
0, 3, 14, 12.957932472229
0, 3, 15, 14.14425182342529
0, 3, 16, 9.88405704498291
0, 3, 17, 19.91124725341797
0, 3, 18, 52.28332138061523
0, 3, 19, 177.2437286376953
0, 3, 20, 271.7053833007812
0, 3, 21, 270.4349060058594
0, 3, 22, 283.9084777832031
0, 3, 23, 287.1575317382812
0, 3, 24, 285.5511474609375
0, 3, 25, 271.0462341308594
0, 3, 26, 304.3138732910156
0, 3, 27, 292.1009521484375
0, 3, 28, 279.515625
0, 3, 29, 337.5899047851562
0, 3, 30, 316.3690490722656
0, 3, 31, 286.8060302734375
0, 3, 32, 305.725341796875
0, 3, 33, 315.8844909667969
0, 3, 34, 321.6987915039062
0, 3, 35, 307.4252319335938
0, 3, 36, 268.3601684570312
0, 3, 37, 316.5892333984375
0, 3, 38, 302.9984741210938
0, 3, 39, 288.0909118652344
0, 3, 40, 266.1277465820312
0, 3, 41, 298.1303405761719
0, 3, 42, 284.8407287597656
0, 3, 43, 304.8803100585938
0, 3, 44, 310.0172729492188
0, 3, 45, 290.0530395507812
0, 3, 46, 329.289794921875
0, 3, 47, 300.5277099609375
0, 3, 48, 304.4412841796875
0, 3, 49, 275.44921875
0, 3, 50, 290.3810424804688
0, 3, 51, 275.1046142578125
0, 3, 52, 315.2948303222656
0, 3, 53, 287.7240600585938
0, 3, 54, 284.7701721191406
0, 3, 55, 284.7095336914062
0, 3, 56, 297.7857360839844
0, 3, 57, 288.0692138671875
0, 3, 58, 306.8056640625
0, 3, 59, 298.7787170410156
0, 3, 60, 297.0956420898438
0, 3, 61, 264.3492736816406
0, 3, 62, 283.1117248535156
0, 3, 63, 308.2514953613281
0, 3, 64, 316.5481872558594
0, 3, 65, 306.1576232910156
0, 3, 66, 313.267822265625
0, 3, 67, 317.6241455078125
0, 3, 68, 279.0917053222656
0, 3, 69, 281.7376098632812
0, 3, 70, 288.7745666503906
0, 3, 71, 298.9751892089844
0, 3, 72, 268.9210510253906
0, 3, 73, 309.0133666992188
0, 3, 74, 293.5576782226562
0, 3, 75, 289.2433471679688
0, 3, 76, 304.9241027832031
0, 3, 77, 314.6665954589844
0, 3, 78, 303.0506896972656
0, 3, 79, 282.0621948242188
0, 3, 80, 290.898193359375
0, 3, 81, 311.3938903808594
0, 3, 82, 314.5050964355469
0, 3, 83, 300.03857421875
0, 3, 84, 312.1741027832031
0, 3, 85, 294.6319885253906
0, 3, 86, 301.9595947265625
0, 3, 87, 300.5209045410156
0, 3, 88, 296.923828125
0, 3, 89, 296.15771484375
0, 3, 90, 277.0038146972656
0, 3, 91, 284.9376525878906
0, 3, 92, 305.1041564941406
0, 3, 93, 312.6886901855469
0, 3, 94, 297.0353698730469
0, 3, 95, 335.0618286132812
0, 3, 96, 290.1010437011719
0, 3, 97, 284.0390014648438
0, 3, 98, 279.4596557617188
0, 3, 99, 261.8149108886719
0, 3, 100, 284.8939208984375
0, 3, 101, 298.7939453125
0, 3, 102, 274.3047485351562
0, 3, 103, 322.53466796875
0, 3, 104, 309.1910095214844
0, 3, 105, 288.69140625
0, 3, 106, 301.0159912109375
0, 3, 107, 282.1501159667969
0, 3, 108, 166.1151580810547
0, 3, 109, 58.59280776977539
0, 3, 110, 18.43739700317383
0, 3, 111, 13.05818843841553
0, 3, 112, 11.0589075088501
0, 3, 113, 7.506721973419189
0, 3, 114, 9.10301685333252
0, 3, 115, 7.246708393096924
0, 3, 116, 6.696328639984131
0, 3, 117, 7.851775646209717
0, 3, 118, 7.011865615844727
0, 3, 119, 6.182424068450928
0, 3, 120, 5.415636539459229
0, 3, 121, 4.943399906158447
0, 3, 122, 3.772239923477173
0, 3, 123, 6.137247085571289
0, 3, 124, 6.954299926757812
0, 3, 125, 4.339047431945801
0, 3, 126, 4.683837890625
0, 3, 127, 4.666749477386475
0, 4, 0, 1.750757217407227
0, 4, 1, 4.196103096008301
0, 4, 2, 3.759515285491943
0, 4, 3, 4.730704784393311
0, 4, 4, 7.590247631072998
0, 4, 5, 7.917973518371582
0, 4, 6, 5.782110214233398
0, 4, 7, 4.692347526550293
0, 4, 8, 3.282961130142212
0, 4, 9, 5.934045314788818
0, 4, 10, 4.979640483856201
0, 4, 11, 5.762469291687012
0, 4, 12, 5.130720615386963
0, 4, 13, 7.540859699249268
0, 4, 14, 12.43938255310059
0, 4, 15, 9.623144149780273
0, 4, 16, 13.95360469818115
0, 4, 17, 17.36022186279297
0, 4, 18, 93.35406494140625
0, 4, 19, 223.7515258789062
0, 4, 20, 284.6979675292969
0, 4, 21, 271.7009887695312
0, 4, 22, 304.7372436523438
0, 4, 23, 266.0682678222656
0, 4, 24, 290.0154113769531
0, 4, 25, 272.7996215820312
0, 4, 26, 293.6423950195312
0, 4, 27, 283.1251525878906
0, 4, 28, 306.4071960449219
0, 4, 29, 321.8836364746094
0, 4, 30, 309.8587341308594
0, 4, 31, 304.5005798339844
0, 4, 32, 280.4524841308594
0, 4, 33, 297.2431945800781
0, 4, 34, 298.778564453125
0, 4, 35, 313.4993286132812
0, 4, 36, 294.5135498046875
0, 4, 37, 287.6374816894531
0, 4, 38, 299.1398315429688
0, 4, 39, 295.1295166015625
0, 4, 40, 302.4938354492188
0, 4, 41, 312.246337890625
0, 4, 42, 327.9232482910156
0, 4, 43, 297.5949096679688
0, 4, 44, 326.8018188476562
0, 4, 45, 324.7986450195312
0, 4, 46, 306.6281433105469
0, 4, 47, 293.7475891113281
0, 4, 48, 295.1309814453125
0, 4, 49, 277.5298156738281
0, 4, 50, 296.3403625488281
0, 4, 51, 315.5242004394531
0, 4, 52, 326.3538513183594
0, 4, 53, 305.8866271972656
0, 4, 54, 287.3002319335938
0, 4, 55, 315.7684326171875
0, 4, 56, 287.478515625
0, 4, 57, 308.71630859375
0, 4, 58, 296.2518310546875
0, 4, 59, 308.3983459472656
0, 4, 60, 303.0050048828125
0, 4, 61, 315.2582397460938
0, 4, 62, 306.8487854003906
0, 4, 63, 297.3311767578125
0, 4, 64, 327.8709106445312
0, 4, 65, 315.9312133789062
0, 4, 66, 294.1864013671875
0, 4, 67, 287.0811462402344
0, 4, 68, 314.2168884277344
0, 4, 69, 275.7931823730469
0, 4, 70, 298.8539733886719
0, 4, 71, 320.5926208496094
0, 4, 72, 333.6967163085938
0, 4, 73, 298.9570007324219
0, 4, 74, 292.4042358398438
0, 4, 75, 288.875244140625
0, 4, 76, 273.696533203125
0, 4, 77, 279.0354614257812
0, 4, 78, 308.7962036132812
0, 4, 79, 320.4400939941406
0, 4, 80, 315.3408508300781
0, 4, 81, 312.3061218261719
0, 4, 82, 296.8408508300781
0, 4, 83, 300.586669921875
0, 4, 84, 290.4002685546875
0, 4, 85, 296.3402404785156
0, 4, 86, 298.6644287109375
0, 4, 87, 285.7074584960938
0, 4, 88, 305.387939453125
0, 4, 89, 294.934326171875
0, 4, 90, 332.1700134277344
0, 4, 91, 302.0473327636719
0, 4, 92, 288.5781555175781
0, 4, 93, 296.3404541015625
0, 4, 94, 293.0699768066406
0, 4, 95, 289.4825439453125
0, 4, 96, 322.2259826660156
0, 4, 97, 275.0337219238281
0, 4, 98, 326.4360046386719
0, 4, 99, 312.7775573730469
0, 4, 100, 300.941162109375
0, 4, 101, 256.271484375
0, 4, 102, 296.422119140625
0, 4, 103, 318.0358276367188
0, 4, 104, 280.3233032226562
0, 4, 105, 310.65478515625
0, 4, 106, 286.3714294433594
0, 4, 107, 295.4711608886719
0, 4, 108, 228.4013824462891
0, 4, 109, 82.38988494873047
0, 4, 110, 16.8450927734375
0, 4, 111, 13.79695701599121
0, 4, 112, 9.784207344055176
0, 4, 113, 10.35269260406494
0, 4, 114, 7.079300403594971
0, 4, 115, 10.71899700164795
0, 4, 116, 8.669589042663574
0, 4, 117, 7.470327854156494
0, 4, 118, 7.716471195220947
0, 4, 119, 9.151057243347168
0, 4, 120, 6.461382389068604
0, 4, 121, 7.366299629211426
0, 4, 122, 3.167478561401367
0, 4, 123, 6.781033039093018
0, 4, 124, 4.223013401031494
0, 4, 125, 8.610806465148926
0, 4, 126, 3.809692859649658
0, 4, 127, 3.179630041122437
0, 5, 0, 4.370235919952393
0, 5, 1, 4.807849884033203
0, 5, 2, 4.286201953887939
0, 5, 3, 4.06914234161377
0, 5, 4, 3.687918424606323
0, 5, 5, 4.919183731079102
0, 5, 6, 8.084114074707031
0, 5, 7, 8.199831962585449
0, 5, 8, 6.199471950531006
0, 5, 9, 4.457227230072021
0, 5, 10, 5.093716144561768
0, 5, 11, 9.490219116210938
0, 5, 12, 7.656069278717041
0, 5, 13, 5.325042724609375
0, 5, 14, 12.28159713745117
0, 5, 15, 17.2366828918457
0, 5, 16, 15.13669490814209
0, 5, 17, 28.73623847961426
0, 5, 18, 137.2257690429688
0, 5, 19, 286.7464599609375
0, 5, 20, 308.4839172363281
0, 5, 21, 315.6131896972656
0, 5, 22, 276.3515014648438
0, 5, 23, 314.0563659667969
0, 5, 24, 301.7919311523438
0, 5, 25, 290.6231384277344
0, 5, 26, 293.0191650390625
0, 5, 27, 323.73486328125
0, 5, 28, 306.1160583496094
0, 5, 29, 296.7906799316406
0, 5, 30, 323.3038940429688
0, 5, 31, 286.6282958984375
0, 5, 32, 301.5040588378906
0, 5, 33, 303.9713745117188
0, 5, 34, 295.3537292480469
0, 5, 35, 310.4879150390625
0, 5, 36, 267.2941284179688
0, 5, 37, 281.2774963378906
0, 5, 38, 292.4121398925781
0, 5, 39, 312.2965698242188
0, 5, 40, 307.7182922363281
0, 5, 41, 273.6114196777344
0, 5, 42, 305.1782836914062
0, 5, 43, 317.1395568847656
0, 5, 44, 291.5517578125
0, 5, 45, 302.0589904785156
0, 5, 46, 266.5467834472656
0, 5, 47, 278.7322998046875
0, 5, 48, 293.3436279296875
0, 5, 49, 287.8863830566406
0, 5, 50, 296.8883056640625
0, 5, 51, 280.8097229003906
0, 5, 52, 268.3649597167969
0, 5, 53, 283.0661010742188
0, 5, 54, 291.4533996582031
0, 5, 55, 346.0205383300781
0, 5, 56, 307.2437438964844
0, 5, 57, 305.6484375
0, 5, 58, 311.7848205566406
0, 5, 59, 305.8344116210938
0, 5, 60, 307.1130065917969
0, 5, 61, 283.0007934570312
0, 5, 62, 323.1238708496094
0, 5, 63, 289.5514831542969
0, 5, 64, 321.3085021972656
0, 5, 65, 306.7892150878906
0, 5, 66, 327.3291931152344
0, 5, 67, 311.5010681152344
0, 5, 68, 307.0744323730469
0, 5, 69, 309.7117614746094
0, 5, 70, 302.0442504882812
0, 5, 71, 271.385498046875
0, 5, 72, 310.970703125
0, 5, 73, 301.2395935058594
0, 5, 74, 295.6035461425781
0, 5, 75, 295.1692504882812
0, 5, 76, 285.5774841308594
0, 5, 77, 296.5749816894531
0, 5, 78, 317.9195251464844
0, 5, 79, 305.0152893066406
0, 5, 80, 295.4002685546875
0, 5, 81, 326.5543518066406
0, 5, 82, 325.6251831054688
0, 5, 83, 283.0331115722656
0, 5, 84, 303.117431640625
0, 5, 85, 271.4479064941406
0, 5, 86, 325.3841552734375
0, 5, 87, 284.0800170898438
0, 5, 88, 314.0068969726562
0, 5, 89, 303.8531188964844
0, 5, 90, 318.1717224121094
0, 5, 91, 315.23583984375
0, 5, 92, 295.4800415039062
0, 5, 93, 321.2743530273438
0, 5, 94, 308.6667175292969
0, 5, 95, 295.8525085449219
0, 5, 96, 299.2354125976562
0, 5, 97, 297.7702026367188
0, 5, 98, 320.0892944335938
0, 5, 99, 300.6459045410156
0, 5, 100, 291.1603393554688
0, 5, 101, 305.8427124023438
0, 5, 102, 291.413330078125
0, 5, 103, 313.4625854492188
0, 5, 104, 301.2445678710938
0, 5, 105, 292.5907897949219
0, 5, 106, 284.0495910644531
0, 5, 107, 293.4212646484375
0, 5, 108, 266.1285095214844
0, 5, 109, 159.0942993164062
0, 5, 110, 39.65210342407227
0, 5, 111, 19.91015434265137
0, 5, 112, 14.86783695220947
0, 5, 113, 16.36543273925781
0, 5, 114, 12.47879981994629
0, 5, 115, 8.080416679382324
0, 5, 116, 8.453027725219727
0, 5, 117, 7.845381259918213
0, 5, 118, 12.69826984405518
0, 5, 119, 5.599496841430664
0, 5, 120, 6.959028720855713
0, 5, 121, 5.846360206604004
0, 5, 122, 6.783783912658691
0, 5, 123, 4.183723926544189
0, 5, 124, 4.26592493057251
0, 5, 125, 4.008073329925537
0, 5, 126, 7.649822235107422
0, 5, 127, 3.450976371765137
0, 6, 0, 4.976183414459229
0, 6, 1, 3.80407977104187
0, 6, 2, 6.399075031280518
0, 6, 3, 6.020103454589844
0, 6, 4, 3.723022222518921
0, 6, 5, 6.985840797424316
0, 6, 6, 7.251105785369873
0, 6, 7, 5.581536769866943
0, 6, 8, 7.547821521759033
0, 6, 9, 6.573601722717285
0, 6, 10, 7.950295925140381
0, 6, 11, 9.533151626586914
0, 6, 12, 9.994099617004395
0, 6, 13, 13.48400115966797
0, 6, 14, 11.10613059997559
0, 6, 15, 17.34136962890625
0, 6, 16, 28.07288932800293
0, 6, 17, 57.74880599975586
0, 6, 18, 173.5715637207031
0, 6, 19, 275.0146484375
0, 6, 20, 290.7410888671875
0, 6, 21, 312.8785400390625
0, 6, 22, 321.276123046875
0, 6, 23, 307.80224609375
0, 6, 24, 319.3088073730469
0, 6, 25, 317.3792419433594
0, 6, 26, 318.6077880859375
0, 6, 27, 330.1905822753906
0, 6, 28, 296.2642211914062
0, 6, 29, 329.5576477050781
0, 6, 30, 281.6926574707031
0, 6, 31, 287.598876953125
0, 6, 32, 340.069580078125
0, 6, 33, 301.7224731445312
0, 6, 34, 339.3748474121094
0, 6, 35, 319.9058227539062
0, 6, 36, 274.5044250488281
0, 6, 37, 288.8326721191406
0, 6, 38, 311.4723510742188
0, 6, 39, 300.6710510253906
0, 6, 40, 282.6793823242188
0, 6, 41, 294.4322814941406
0, 6, 42, 304.4234924316406
0, 6, 43, 291.2807312011719
0, 6, 44, 281.2223205566406
0, 6, 45, 319.7555236816406
0, 6, 46, 300.8301391601562
0, 6, 47, 333.1831665039062
0, 6, 48, 293.033203125
0, 6, 49, 311.5381774902344
0, 6, 50, 329.6065979003906
0, 6, 51, 309.3432312011719
0, 6, 52, 320.2478332519531
0, 6, 53, 325.8345031738281
0, 6, 54, 301.5108337402344
0, 6, 55, 304.7796020507812
0, 6, 56, 292.6212768554688
0, 6, 57, 312.2082824707031
0, 6, 58, 262.5252685546875
0, 6, 59, 302.6220703125
0, 6, 60, 313.2986145019531
0, 6, 61, 273.0330505371094
0, 6, 62, 338.6019287109375
0, 6, 63, 322.4983215332031
0, 6, 64, 290.3464660644531
0, 6, 65, 286.3779602050781
0, 6, 66, 302.3521118164062
0, 6, 67, 310.214599609375
0, 6, 68, 293.3328247070312
0, 6, 69, 277.822998046875
0, 6, 70, 274.5903015136719
0, 6, 71, 289.9867248535156
0, 6, 72, 314.062255859375
0, 6, 73, 291.946533203125
0, 6, 74, 330.5201416015625
0, 6, 75, 341.6019897460938
0, 6, 76, 297.6405334472656
0, 6, 77, 286.1138305664062
0, 6, 78, 276.6593322753906
0, 6, 79, 292.8476867675781
0, 6, 80, 301.143798828125
0, 6, 81, 318.4808654785156
0, 6, 82, 319.5766296386719
0, 6, 83, 320.9677734375
0, 6, 84, 296.4926452636719
0, 6, 85, 299.7599182128906
0, 6, 86, 330.6690063476562
0, 6, 87, 292.2471618652344
0, 6, 88, 306.2724609375
0, 6, 89, 303.4430236816406
0, 6, 90, 299.1311340332031
0, 6, 91, 316.6519470214844
0, 6, 92, 285.134033203125
0, 6, 93, 293.8753967285156
0, 6, 94, 273.4782104492188
0, 6, 95, 301.865234375
0, 6, 96, 346.5265808105469
0, 6, 97, 309.3146362304688
0, 6, 98, 301.1772155761719
0, 6, 99, 272.0423278808594
0, 6, 100, 309.254638671875
0, 6, 101, 292.2884826660156
0, 6, 102, 309.1156616210938
0, 6, 103, 308.4188537597656
0, 6, 104, 290.259033203125
0, 6, 105, 301.5941772460938
0, 6, 106, 305.9852905273438
0, 6, 107, 305.5819091796875
0, 6, 108, 265.3716125488281
0, 6, 109, 188.7276000976562
0, 6, 110, 57.65464782714844
0, 6, 111, 23.41697883605957
0, 6, 112, 15.13972759246826
0, 6, 113, 10.5549488067627
0, 6, 114, 11.14889717102051
0, 6, 115, 11.61911392211914
0, 6, 116, 9.510588645935059
0, 6, 117, 9.039263725280762
0, 6, 118, 9.508487701416016
0, 6, 119, 7.83864688873291
0, 6, 120, 6.58362865447998
0, 6, 121, 6.385105609893799
0, 6, 122, 6.670039176940918
0, 6, 123, 4.922146320343018
0, 6, 124, 7.66850757598877
0, 6, 125, 9.013690948486328
0, 6, 126, 4.272904872894287
0, 6, 127, 4.78857421875
0, 7, 0, 3.972397089004517
0, 7, 1, 3.041200160980225
0, 7, 2, 8.604850769042969
0, 7, 3, 4.626008987426758
0, 7, 4, 3.924607992172241
0, 7, 5, 4.703240394592285
0, 7, 6, 6.152182102203369
0, 7, 7, 4.757972717285156
0, 7, 8, 5.272880554199219
0, 7, 9, 7.657673835754395
0, 7, 10, 9.508241653442383
0, 7, 11, 13.92158889770508
0, 7, 12, 9.314281463623047
0, 7, 13, 11.88130760192871
0, 7, 14, 9.989419937133789
0, 7, 15, 14.94137191772461
0, 7, 16, 26.65151023864746
0, 7, 17, 97.65982055664062
0, 7, 18, 218.0950927734375
0, 7, 19, 290.956787109375
0, 7, 20, 298.4557800292969
0, 7, 21, 276.6383666992188
0, 7, 22, 300.7618103027344
0, 7, 23, 288.4195861816406
0, 7, 24, 312.3674926757812
0, 7, 25, 323.8607788085938
0, 7, 26, 279.0470275878906
0, 7, 27, 297.5700073242188
0, 7, 28, 325.8995056152344
0, 7, 29, 318.4926147460938
0, 7, 30, 304.0153503417969
0, 7, 31, 279.423828125
0, 7, 32, 305.2868041992188
0, 7, 33, 261.6034240722656
0, 7, 34, 297.2223510742188
0, 7, 35, 318.5089111328125
0, 7, 36, 331.3674926757812
0, 7, 37, 322.2321166992188
0, 7, 38, 295.2237854003906
0, 7, 39, 307.5614318847656
0, 7, 40, 290.7162475585938
0, 7, 41, 270.849609375
0, 7, 42, 300.1557922363281
0, 7, 43, 275.0781860351562
0, 7, 44, 303.6564331054688
0, 7, 45, 294.5908203125
0, 7, 46, 279.3067321777344
0, 7, 47, 328.4649353027344
0, 7, 48, 285.1235656738281
0, 7, 49, 303.9627990722656
0, 7, 50, 321.3735656738281
0, 7, 51, 299.0765075683594
0, 7, 52, 326.9276733398438
0, 7, 53, 311.8568725585938
0, 7, 54, 322.1125793457031
0, 7, 55, 308.4027404785156
0, 7, 56, 282.1952514648438
0, 7, 57, 281.6624450683594
0, 7, 58, 294.534423828125
0, 7, 59, 292.1529541015625
0, 7, 60, 321.7373657226562
0, 7, 61, 277.6772766113281
0, 7, 62, 298.0964050292969
0, 7, 63, 292.9253540039062
0, 7, 64, 306.4921875
0, 7, 65, 329.7466430664062
0, 7, 66, 320.0682678222656
0, 7, 67, 302.3988647460938
0, 7, 68, 280.3329772949219
0, 7, 69, 295.2271728515625
0, 7, 70, 301.5360107421875
0, 7, 71, 308.2589721679688
0, 7, 72, 285.1621398925781
0, 7, 73, 295.6347351074219
0, 7, 74, 344.4342651367188
0, 7, 75, 319.6470031738281
0, 7, 76, 322.4639587402344
0, 7, 77, 281.2027893066406
0, 7, 78, 299.5825805664062
0, 7, 79, 300.0621948242188
0, 7, 80, 311.2846374511719
0, 7, 81, 321.6072998046875
0, 7, 82, 329.8017272949219
0, 7, 83, 317.5924987792969
0, 7, 84, 309.3609313964844
0, 7, 85, 272.0887451171875
0, 7, 86, 309.564208984375
0, 7, 87, 309.7113952636719
0, 7, 88, 307.8734741210938
0, 7, 89, 292.0754089355469
0, 7, 90, 306.8569641113281
0, 7, 91, 317.5387878417969
0, 7, 92, 287.7483825683594
0, 7, 93, 307.3271484375
0, 7, 94, 273.7798767089844
0, 7, 95, 297.9858093261719
0, 7, 96, 331.6669006347656
0, 7, 97, 295.9396362304688
0, 7, 98, 290.0965881347656
0, 7, 99, 313.3464050292969
0, 7, 100, 281.2365417480469
0, 7, 101, 274.4936828613281
0, 7, 102, 289.318359375
0, 7, 103, 292.56298828125
0, 7, 104, 274.3857421875
0, 7, 105, 306.0618896484375
0, 7, 106, 318.7086486816406
0, 7, 107, 296.7353515625
0, 7, 108, 272.4623107910156
0, 7, 109, 236.1199035644531
0, 7, 110, 95.92686462402344
0, 7, 111, 24.37498664855957
0, 7, 112, 13.78122997283936
0, 7, 113, 14.86908626556396
0, 7, 114, 16.27689552307129
0, 7, 115, 12.52277088165283
0, 7, 116, 8.894184112548828
0, 7, 117, 4.84979248046875
0, 7, 118, 7.575485229492188
0, 7, 119, 6.185495376586914
0, 7, 120, 6.804343223571777
0, 7, 121, 6.17411470413208
0, 7, 122, 8.002334594726562
0, 7, 123, 3.316116333007812
0, 7, 124, 3.800789356231689
0, 7, 125, 4.993728160858154
0, 7, 126, 7.205392360687256
0, 7, 127, 3.156475305557251
0, 8, 0, 8.171217918395996
0, 8, 1, 4.179222106933594
0, 8, 2, 3.322855472564697
0, 8, 3, 0.9983047842979431
0, 8, 4, 3.725243806838989
0, 8, 5, 4.554727554321289
0, 8, 6, 5.617792129516602
0, 8, 7, 5.538375854492188
0, 8, 8, 9.41317081451416
0, 8, 9, 5.171483039855957
0, 8, 10, 7.398213863372803
0, 8, 11, 11.82910060882568
0, 8, 12, 14.9404296875
0, 8, 13, 17.55025482177734
0, 8, 14, 12.26017284393311
0, 8, 15, 17.12800979614258
0, 8, 16, 33.38634490966797
0, 8, 17, 129.9776153564453
0, 8, 18, 243.3615875244141
0, 8, 19, 296.111328125
0, 8, 20, 285.4104614257812
0, 8, 21, 307.1238403320312
0, 8, 22, 293.5590515136719
0, 8, 23, 273.8589172363281
0, 8, 24, 270.0121459960938
0, 8, 25, 276.5341796875
0, 8, 26, 307.0470275878906
0, 8, 27, 307.0887145996094
0, 8, 28, 305.2909545898438
0, 8, 29, 318.1607055664062
0, 8, 30, 313.71484375
0, 8, 31, 303.05908203125
0, 8, 32, 280.4025268554688
0, 8, 33, 296.5574951171875
0, 8, 34, 293.3441772460938
0, 8, 35, 282.0545349121094
0, 8, 36, 315.158203125
0, 8, 37, 339.5532836914062
0, 8, 38, 330.8371887207031
0, 8, 39, 281.1474304199219
0, 8, 40, 304.270751953125
0, 8, 41, 291.6809997558594
0, 8, 42, 326.098876953125
