# TOPAS Version: 3.1.p3
# Parameter File: batch_inserts_336.txt
# Results for scorer Readout_Adipose
# Scored in component: MyBox
# X in 1 bin  of 0.75 cm
# Y in 512 bins of 0.0783984 cm
# Z in 128 bins of 0.078125 cm
# EnergyDeposit ( MeV ) : Sum   
0, 0, 0, 16.91737174987793
0, 0, 1, 22.36825942993164
0, 0, 2, 30.29023933410645
0, 0, 3, 26.86708450317383
0, 0, 4, 18.72693634033203
0, 0, 5, 24.29157447814941
0, 0, 6, 26.96105766296387
0, 0, 7, 33.6353759765625
0, 0, 8, 21.65623474121094
0, 0, 9, 20.52986717224121
0, 0, 10, 25.22478103637695
0, 0, 11, 26.332275390625
0, 0, 12, 34.65546798706055
0, 0, 13, 29.30395317077637
0, 0, 14, 43.67819976806641
0, 0, 15, 47.94391250610352
0, 0, 16, 45.74190521240234
0, 0, 17, 45.67299270629883
0, 0, 18, 77.69418334960938
0, 0, 19, 191.8047180175781
0, 0, 20, 699.903076171875
0, 0, 21, 1193.191040039062
0, 0, 22, 1251.05419921875
0, 0, 23, 1277.275268554688
0, 0, 24, 1283.142578125
0, 0, 25, 1356.437255859375
0, 0, 26, 1271.24365234375
0, 0, 27, 1285.708618164062
0, 0, 28, 1325.15625
0, 0, 29, 1268.093017578125
0, 0, 30, 1269.97412109375
0, 0, 31, 1280.533325195312
0, 0, 32, 1262.692260742188
0, 0, 33, 1239.387084960938
0, 0, 34, 1326.691040039062
0, 0, 35, 1300.128784179688
0, 0, 36, 1248.243896484375
0, 0, 37, 1284.327392578125
0, 0, 38, 1250.514526367188
0, 0, 39, 1247.67236328125
0, 0, 40, 1224.143676757812
0, 0, 41, 1270.075927734375
0, 0, 42, 1255.002563476562
0, 0, 43, 1271.398559570312
0, 0, 44, 1221.4189453125
0, 0, 45, 1291.943725585938
0, 0, 46, 1265.950805664062
0, 0, 47, 1242.178466796875
0, 0, 48, 1277.575317382812
0, 0, 49, 1287.862548828125
0, 0, 50, 1310.26611328125
0, 0, 51, 1263.217163085938
0, 0, 52, 1359.65283203125
0, 0, 53, 1325.1923828125
0, 0, 54, 1297.7236328125
0, 0, 55, 1237.210693359375
0, 0, 56, 1322.653686523438
0, 0, 57, 1288.58203125
0, 0, 58, 1253.325805664062
0, 0, 59, 1334.33935546875
0, 0, 60, 1325.167114257812
0, 0, 61, 1258.312133789062
0, 0, 62, 1240.688720703125
0, 0, 63, 1277.98486328125
0, 0, 64, 1333.0546875
0, 0, 65, 1285.043212890625
0, 0, 66, 1320.054321289062
0, 0, 67, 1218.229858398438
0, 0, 68, 1311.83984375
0, 0, 69, 1328.389770507812
0, 0, 70, 1342.021362304688
0, 0, 71, 1285.96728515625
0, 0, 72, 1318.23095703125
0, 0, 73, 1236.834106445312
0, 0, 74, 1290.284057617188
0, 0, 75, 1294.265747070312
0, 0, 76, 1254.810424804688
0, 0, 77, 1290.381958007812
0, 0, 78, 1314.057373046875
0, 0, 79, 1324.359008789062
0, 0, 80, 1260.976806640625
0, 0, 81, 1321.120483398438
0, 0, 82, 1289.849731445312
0, 0, 83, 1294.417358398438
0, 0, 84, 1332.49267578125
0, 0, 85, 1235.57177734375
0, 0, 86, 1264.623046875
0, 0, 87, 1255.589599609375
0, 0, 88, 1256.623657226562
0, 0, 89, 1332.25927734375
0, 0, 90, 1278.422241210938
0, 0, 91, 1352.258178710938
0, 0, 92, 1302.480224609375
0, 0, 93, 1270.710693359375
0, 0, 94, 1245.544799804688
0, 0, 95, 1329.784912109375
0, 0, 96, 1280.47314453125
0, 0, 97, 1326.524291992188
0, 0, 98, 1260.623046875
0, 0, 99, 1255.783569335938
0, 0, 100, 1288.29931640625
0, 0, 101, 1313.328125
0, 0, 102, 1231.862670898438
0, 0, 103, 1324.05908203125
0, 0, 104, 1267.369750976562
0, 0, 105, 1269.748291015625
0, 0, 106, 1209.696655273438
0, 0, 107, 782.4672241210938
0, 0, 108, 193.5372467041016
0, 0, 109, 74.37589263916016
0, 0, 110, 64.78543090820312
0, 0, 111, 39.88515090942383
0, 0, 112, 35.53720092773438
0, 0, 113, 38.33780670166016
0, 0, 114, 36.49620819091797
0, 0, 115, 29.18855667114258
0, 0, 116, 27.98089981079102
0, 0, 117, 34.83634567260742
0, 0, 118, 24.8887767791748
0, 0, 119, 21.44905853271484
0, 0, 120, 28.25236892700195
0, 0, 121, 29.10518074035645
0, 0, 122, 25.13583183288574
0, 0, 123, 20.64811134338379
0, 0, 124, 19.4837703704834
0, 0, 125, 18.21352577209473
0, 0, 126, 21.33715629577637
0, 0, 127, 19.67328453063965
0, 1, 0, 24.6685619354248
0, 1, 1, 23.63020133972168
0, 1, 2, 29.1612434387207
0, 1, 3, 22.73079490661621
0, 1, 4, 21.16818618774414
0, 1, 5, 21.50931167602539
0, 1, 6, 23.57438468933105
0, 1, 7, 25.92708206176758
0, 1, 8, 29.96201133728027
0, 1, 9, 32.76887130737305
0, 1, 10, 33.91061019897461
0, 1, 11, 41.02161026000977
0, 1, 12, 38.47245788574219
0, 1, 13, 44.39987564086914
0, 1, 14, 39.96389007568359
0, 1, 15, 45.17848205566406
0, 1, 16, 56.68725967407227
0, 1, 17, 64.19813537597656
0, 1, 18, 99.91822052001953
0, 1, 19, 398.8284912109375
0, 1, 20, 1041.102905273438
0, 1, 21, 1375.376708984375
0, 1, 22, 1480.228759765625
0, 1, 23, 1459.703369140625
0, 1, 24, 1453.69482421875
0, 1, 25, 1420.767822265625
0, 1, 26, 1477.436401367188
0, 1, 27, 1460.855102539062
0, 1, 28, 1489.00830078125
0, 1, 29, 1481.385009765625
0, 1, 30, 1503.239868164062
0, 1, 31, 1484.626708984375
0, 1, 32, 1414.888061523438
0, 1, 33, 1500.294311523438
0, 1, 34, 1499.619018554688
0, 1, 35, 1462.029174804688
0, 1, 36, 1488.39404296875
0, 1, 37, 1410.435546875
0, 1, 38, 1398.104125976562
0, 1, 39, 1523.201171875
0, 1, 40, 1461.597534179688
0, 1, 41, 1493.705444335938
0, 1, 42, 1491.9111328125
0, 1, 43, 1503.453369140625
0, 1, 44, 1448.774291992188
0, 1, 45, 1484.513427734375
0, 1, 46, 1417.266723632812
0, 1, 47, 1432.153686523438
0, 1, 48, 1430.534057617188
0, 1, 49, 1487.902954101562
0, 1, 50, 1443.564086914062
0, 1, 51, 1471.12255859375
0, 1, 52, 1473.354248046875
0, 1, 53, 1479.34033203125
0, 1, 54, 1503.718627929688
0, 1, 55, 1493.357666015625
0, 1, 56, 1471.68798828125
0, 1, 57, 1453.230834960938
0, 1, 58, 1431.457397460938
0, 1, 59, 1482.559326171875
0, 1, 60, 1464.404418945312
0, 1, 61, 1450.677734375
0, 1, 62, 1459.084106445312
0, 1, 63, 1420.804931640625
0, 1, 64, 1477.904418945312
0, 1, 65, 1415.382934570312
0, 1, 66, 1441.012451171875
0, 1, 67, 1454.916625976562
0, 1, 68, 1387.429565429688
0, 1, 69, 1464.064575195312
0, 1, 70, 1433.522705078125
0, 1, 71, 1499.750122070312
0, 1, 72, 1433.569213867188
0, 1, 73, 1486.918212890625
0, 1, 74, 1467.081665039062
0, 1, 75, 1475.626220703125
0, 1, 76, 1459.913696289062
0, 1, 77, 1463.844604492188
0, 1, 78, 1450.008056640625
0, 1, 79, 1498.689819335938
0, 1, 80, 1447.622802734375
0, 1, 81, 1425.243041992188
0, 1, 82, 1473.570556640625
0, 1, 83, 1461.5078125
0, 1, 84, 1532.2431640625
0, 1, 85, 1449.549072265625
0, 1, 86, 1399.7919921875
0, 1, 87, 1420.932739257812
0, 1, 88, 1474.34619140625
0, 1, 89, 1471.898681640625
0, 1, 90, 1420.503540039062
0, 1, 91, 1460.691162109375
0, 1, 92, 1412.525268554688
0, 1, 93, 1462.835083007812
0, 1, 94, 1469.2998046875
0, 1, 95, 1419.68359375
0, 1, 96, 1497.717407226562
0, 1, 97, 1512.869140625
0, 1, 98, 1480.501098632812
0, 1, 99, 1421.487915039062
0, 1, 100, 1445.399780273438
0, 1, 101, 1416.996459960938
0, 1, 102, 1446.5595703125
0, 1, 103, 1412.752197265625
0, 1, 104, 1407.57568359375
0, 1, 105, 1463.43017578125
0, 1, 106, 1367.058349609375
0, 1, 107, 1020.268432617188
0, 1, 108, 406.1779174804688
0, 1, 109, 91.59906005859375
0, 1, 110, 59.52285766601562
0, 1, 111, 53.80098342895508
0, 1, 112, 47.21440887451172
0, 1, 113, 39.54447937011719
0, 1, 114, 37.35678100585938
0, 1, 115, 40.71711349487305
0, 1, 116, 39.08889007568359
0, 1, 117, 39.72266006469727
0, 1, 118, 38.77420425415039
0, 1, 119, 30.9545726776123
0, 1, 120, 29.14517211914062
0, 1, 121, 26.02051544189453
0, 1, 122, 21.85041999816895
0, 1, 123, 29.37215423583984
0, 1, 124, 34.59329986572266
0, 1, 125, 18.8316535949707
0, 1, 126, 18.47234153747559
0, 1, 127, 25.27297973632812
0, 2, 0, 22.51339149475098
0, 2, 1, 21.71122169494629
0, 2, 2, 24.12139701843262
0, 2, 3, 22.38888359069824
0, 2, 4, 20.66037940979004
0, 2, 5, 22.05686950683594
0, 2, 6, 23.27905082702637
0, 2, 7, 22.13028907775879
0, 2, 8, 29.77423667907715
0, 2, 9, 29.81444358825684
0, 2, 10, 30.74787521362305
0, 2, 11, 33.26832580566406
0, 2, 12, 37.41650772094727
0, 2, 13, 41.51153182983398
0, 2, 14, 45.79072570800781
0, 2, 15, 46.13206481933594
0, 2, 16, 57.67718505859375
0, 2, 17, 79.91790771484375
0, 2, 18, 143.6733093261719
0, 2, 19, 606.0245971679688
0, 2, 20, 1282.640869140625
0, 2, 21, 1435.245361328125
0, 2, 22, 1451.124755859375
0, 2, 23, 1400.368286132812
0, 2, 24, 1445.338012695312
0, 2, 25, 1520.361328125
0, 2, 26, 1551.380737304688
0, 2, 27, 1455.2705078125
0, 2, 28, 1463.485473632812
0, 2, 29, 1461.707153320312
0, 2, 30, 1468.346435546875
0, 2, 31, 1541.3359375
0, 2, 32, 1507.509399414062
0, 2, 33, 1443.415161132812
0, 2, 34, 1475.139038085938
0, 2, 35, 1468.517578125
0, 2, 36, 1526.70068359375
0, 2, 37, 1541.036010742188
0, 2, 38, 1504.437133789062
0, 2, 39, 1462.884521484375
0, 2, 40, 1502.708251953125
0, 2, 41, 1515.445678710938
0, 2, 42, 1506.714721679688
0, 2, 43, 1550.244140625
0, 2, 44, 1464.663940429688
0, 2, 45, 1482.6708984375
0, 2, 46, 1427.509155273438
0, 2, 47, 1444.10546875
0, 2, 48, 1393.512084960938
0, 2, 49, 1463.449096679688
0, 2, 50, 1443.396850585938
0, 2, 51, 1449.418090820312
0, 2, 52, 1493.88671875
0, 2, 53, 1526.14111328125
0, 2, 54, 1528.537963867188
0, 2, 55, 1492.9267578125
0, 2, 56, 1461.817504882812
0, 2, 57, 1419.070190429688
0, 2, 58, 1456.314086914062
0, 2, 59, 1449.599975585938
0, 2, 60, 1474.617065429688
0, 2, 61, 1445.7822265625
0, 2, 62, 1468.701049804688
0, 2, 63, 1499.809814453125
0, 2, 64, 1455.912231445312
0, 2, 65, 1427.447509765625
0, 2, 66, 1487.963623046875
0, 2, 67, 1503.572021484375
0, 2, 68, 1543.464233398438
0, 2, 69, 1537.994750976562
0, 2, 70, 1507.232543945312
0, 2, 71, 1462.980224609375
0, 2, 72, 1514.486938476562
0, 2, 73, 1515.4482421875
0, 2, 74, 1489.493896484375
0, 2, 75, 1507.892700195312
0, 2, 76, 1448.075317382812
0, 2, 77, 1497.088500976562
0, 2, 78, 1432.259643554688
0, 2, 79, 1542.521240234375
0, 2, 80, 1482.488891601562
0, 2, 81, 1464.882934570312
0, 2, 82, 1556.727294921875
0, 2, 83, 1513.282348632812
0, 2, 84, 1492.062622070312
0, 2, 85, 1515.490844726562
0, 2, 86, 1536.122802734375
0, 2, 87, 1492.223022460938
0, 2, 88, 1539.638061523438
0, 2, 89, 1460.724609375
0, 2, 90, 1430.811767578125
0, 2, 91, 1406.882934570312
0, 2, 92, 1478.369262695312
0, 2, 93, 1494.859619140625
0, 2, 94, 1451.950805664062
0, 2, 95, 1548.727905273438
0, 2, 96, 1518.3837890625
0, 2, 97, 1456.795043945312
0, 2, 98, 1466.659423828125
0, 2, 99, 1401.1044921875
0, 2, 100, 1469.096069335938
0, 2, 101, 1481.94091796875
0, 2, 102, 1460.96044921875
0, 2, 103, 1389.84033203125
0, 2, 104, 1410.891723632812
0, 2, 105, 1395.451538085938
0, 2, 106, 1458.825439453125
0, 2, 107, 1271.674560546875
0, 2, 108, 620.570068359375
0, 2, 109, 173.9480285644531
0, 2, 110, 64.72798919677734
0, 2, 111, 62.57835006713867
0, 2, 112, 43.45698928833008
0, 2, 113, 48.35947418212891
0, 2, 114, 39.3306999206543
0, 2, 115, 42.33929061889648
0, 2, 116, 40.69948196411133
0, 2, 117, 36.90265274047852
0, 2, 118, 26.56745147705078
0, 2, 119, 36.02163696289062
0, 2, 120, 27.89562606811523
0, 2, 121, 14.97475147247314
0, 2, 122, 26.82421684265137
0, 2, 123, 20.49936103820801
0, 2, 124, 24.85478591918945
0, 2, 125, 30.63602828979492
0, 2, 126, 18.05197906494141
0, 2, 127, 21.01703071594238
0, 3, 0, 16.41827201843262
0, 3, 1, 20.55318832397461
0, 3, 2, 14.38393974304199
0, 3, 3, 21.83335494995117
0, 3, 4, 19.27132415771484
0, 3, 5, 26.04290199279785
0, 3, 6, 33.45375061035156
0, 3, 7, 28.06645393371582
0, 3, 8, 27.17274856567383
0, 3, 9, 27.15712928771973
0, 3, 10, 34.21012878417969
0, 3, 11, 34.34481048583984
0, 3, 12, 43.91540145874023
0, 3, 13, 54.01174163818359
0, 3, 14, 62.18400955200195
0, 3, 15, 50.57654190063477
0, 3, 16, 69.70034027099609
0, 3, 17, 85.22856903076172
0, 3, 18, 239.339599609375
0, 3, 19, 876.726318359375
0, 3, 20, 1388.75341796875
0, 3, 21, 1507.940063476562
0, 3, 22, 1462.407958984375
0, 3, 23, 1449.545532226562
0, 3, 24, 1436.988647460938
0, 3, 25, 1460.522827148438
0, 3, 26, 1494.40478515625
0, 3, 27, 1466.010498046875
0, 3, 28, 1487.288940429688
0, 3, 29, 1539.57763671875
0, 3, 30, 1572.274536132812
0, 3, 31, 1511.060668945312
0, 3, 32, 1545.654052734375
0, 3, 33, 1535.404296875
0, 3, 34, 1488.268310546875
0, 3, 35, 1464.749145507812
0, 3, 36, 1451.672241210938
0, 3, 37, 1511.892456054688
0, 3, 38, 1520.686645507812
0, 3, 39, 1436.44970703125
0, 3, 40, 1439.32861328125
0, 3, 41, 1561.761840820312
0, 3, 42, 1467.162963867188
0, 3, 43, 1452.248291015625
0, 3, 44, 1455.39501953125
0, 3, 45, 1508.929443359375
0, 3, 46, 1506.38720703125
0, 3, 47, 1440.361694335938
0, 3, 48, 1505.439086914062
0, 3, 49, 1446.950317382812
0, 3, 50, 1489.074951171875
0, 3, 51, 1538.963500976562
0, 3, 52, 1537.482788085938
0, 3, 53, 1464.440551757812
0, 3, 54, 1532.020751953125
0, 3, 55, 1501.992431640625
0, 3, 56, 1433.779296875
0, 3, 57, 1503.18310546875
0, 3, 58, 1510.560913085938
0, 3, 59, 1512.665893554688
0, 3, 60, 1534.315307617188
0, 3, 61, 1480.4814453125
0, 3, 62, 1494.751586914062
0, 3, 63, 1494.255126953125
0, 3, 64, 1499.1982421875
0, 3, 65, 1515.05126953125
0, 3, 66, 1552.97705078125
0, 3, 67, 1544.923461914062
0, 3, 68, 1453.855346679688
0, 3, 69, 1463.656860351562
0, 3, 70, 1391.588500976562
0, 3, 71, 1461.408569335938
0, 3, 72, 1546.532958984375
0, 3, 73, 1499.064331054688
0, 3, 74, 1462.442138671875
0, 3, 75, 1464.700805664062
0, 3, 76, 1571.646362304688
0, 3, 77, 1538.973876953125
0, 3, 78, 1432.208129882812
0, 3, 79, 1495.328857421875
0, 3, 80, 1461.815673828125
0, 3, 81, 1470.918579101562
0, 3, 82, 1556.732788085938
0, 3, 83, 1512.762817382812
0, 3, 84, 1562.357055664062
0, 3, 85, 1478.758911132812
0, 3, 86, 1526.285766601562
0, 3, 87, 1542.150634765625
0, 3, 88, 1458.896606445312
0, 3, 89, 1449.606079101562
0, 3, 90, 1454.82373046875
0, 3, 91, 1421.059692382812
0, 3, 92, 1512.207885742188
0, 3, 93, 1500.622436523438
0, 3, 94, 1516.328369140625
0, 3, 95, 1541.938720703125
0, 3, 96, 1512.152465820312
0, 3, 97, 1461.399658203125
0, 3, 98, 1434.748901367188
0, 3, 99, 1464.888549804688
0, 3, 100, 1467.156494140625
0, 3, 101, 1474.130004882812
0, 3, 102, 1518.897094726562
0, 3, 103, 1553.874877929688
0, 3, 104, 1498.173950195312
0, 3, 105, 1515.76611328125
0, 3, 106, 1473.957153320312
0, 3, 107, 1338.781860351562
0, 3, 108, 873.4910888671875
0, 3, 109, 265.375
0, 3, 110, 104.5031661987305
0, 3, 111, 62.25559234619141
0, 3, 112, 55.37142562866211
0, 3, 113, 48.30966949462891
0, 3, 114, 48.70687484741211
0, 3, 115, 49.61722183227539
0, 3, 116, 34.79459381103516
0, 3, 117, 40.06645584106445
0, 3, 118, 34.18191146850586
0, 3, 119, 27.65844345092773
0, 3, 120, 26.67202186584473
0, 3, 121, 24.67356109619141
0, 3, 122, 22.81608200073242
0, 3, 123, 20.8123722076416
0, 3, 124, 21.15675735473633
0, 3, 125, 30.44587326049805
0, 3, 126, 24.20991134643555
0, 3, 127, 22.5070972442627
0, 4, 0, 19.66798210144043
0, 4, 1, 25.12470054626465
0, 4, 2, 17.20719718933105
0, 4, 3, 20.60989761352539
0, 4, 4, 26.60848236083984
0, 4, 5, 31.23469161987305
0, 4, 6, 33.68138885498047
0, 4, 7, 32.77714157104492
0, 4, 8, 24.38378524780273
0, 4, 9, 35.279052734375
0, 4, 10, 29.16118621826172
0, 4, 11, 42.16074752807617
0, 4, 12, 43.99624633789062
0, 4, 13, 56.2454719543457
0, 4, 14, 52.35091400146484
0, 4, 15, 62.63533020019531
0, 4, 16, 71.00514221191406
0, 4, 17, 117.1151428222656
0, 4, 18, 442.4861145019531
0, 4, 19, 1178.623779296875
0, 4, 20, 1442.98486328125
0, 4, 21, 1420.208984375
0, 4, 22, 1434.26513671875
0, 4, 23, 1451.751953125
0, 4, 24, 1471.6884765625
0, 4, 25, 1404.266845703125
0, 4, 26, 1538.48779296875
0, 4, 27, 1544.88525390625
0, 4, 28, 1508.743896484375
0, 4, 29, 1515.0615234375
0, 4, 30, 1525.073120117188
0, 4, 31, 1572.9150390625
0, 4, 32, 1517.793823242188
0, 4, 33, 1493.752197265625
0, 4, 34, 1468.568359375
0, 4, 35, 1561.166381835938
0, 4, 36, 1500.389892578125
0, 4, 37, 1508.440795898438
0, 4, 38, 1534.937133789062
0, 4, 39, 1469.899780273438
0, 4, 40, 1514.005737304688
0, 4, 41, 1587.624755859375
0, 4, 42, 1567.649658203125
0, 4, 43, 1474.933959960938
0, 4, 44, 1497.703002929688
0, 4, 45, 1514.355224609375
0, 4, 46, 1464.053100585938
0, 4, 47, 1505.1806640625
0, 4, 48, 1522.725830078125
0, 4, 49, 1477.191528320312
0, 4, 50, 1520.984619140625
0, 4, 51, 1487.397827148438
0, 4, 52, 1494.4453125
0, 4, 53, 1453.987060546875
0, 4, 54, 1446.130493164062
0, 4, 55, 1528.209594726562
0, 4, 56, 1452.953369140625
0, 4, 57, 1491.756103515625
0, 4, 58, 1459.983154296875
0, 4, 59, 1465.887939453125
0, 4, 60, 1526.251953125
0, 4, 61, 1506.28857421875
0, 4, 62, 1507.60498046875
0, 4, 63, 1545.989135742188
0, 4, 64, 1594.554809570312
0, 4, 65, 1424.735717773438
0, 4, 66, 1511.001708984375
0, 4, 67, 1519.513671875
0, 4, 68, 1492.9609375
0, 4, 69, 1470.137084960938
0, 4, 70, 1538.954711914062
0, 4, 71, 1520.768798828125
0, 4, 72, 1530.703247070312
0, 4, 73, 1494.839111328125
0, 4, 74, 1485.5498046875
0, 4, 75, 1537.872314453125
0, 4, 76, 1481.902587890625
0, 4, 77, 1497.955200195312
0, 4, 78, 1498.7275390625
0, 4, 79, 1481.709838867188
0, 4, 80, 1510.031127929688
0, 4, 81, 1523.123168945312
0, 4, 82, 1563.914428710938
0, 4, 83, 1502.977905273438
0, 4, 84, 1540.40625
0, 4, 85, 1552.1435546875
0, 4, 86, 1528.7119140625
0, 4, 87, 1493.644287109375
0, 4, 88, 1514.34765625
0, 4, 89, 1483.357177734375
0, 4, 90, 1547.510498046875
0, 4, 91, 1550.7978515625
0, 4, 92, 1493.29052734375
0, 4, 93, 1512.767333984375
0, 4, 94, 1482.297241210938
0, 4, 95, 1517.306884765625
0, 4, 96, 1436.164428710938
0, 4, 97, 1407.854370117188
0, 4, 98, 1554.838012695312
0, 4, 99, 1507.093505859375
0, 4, 100, 1489.819458007812
0, 4, 101, 1455.327880859375
0, 4, 102, 1448.36572265625
0, 4, 103, 1516.839599609375
0, 4, 104, 1510.471801757812
0, 4, 105, 1555.238403320312
0, 4, 106, 1476.400512695312
0, 4, 107, 1452.951293945312
0, 4, 108, 1125.908447265625
0, 4, 109, 434.3729858398438
0, 4, 110, 97.80593872070312
0, 4, 111, 68.79720306396484
0, 4, 112, 64.38115692138672
0, 4, 113, 46.88057708740234
0, 4, 114, 48.39511108398438
0, 4, 115, 45.57560348510742
0, 4, 116, 38.12252807617188
0, 4, 117, 39.2375602722168
0, 4, 118, 40.44048690795898
0, 4, 119, 40.52718353271484
0, 4, 120, 39.95526885986328
0, 4, 121, 30.93043518066406
0, 4, 122, 32.9561653137207
0, 4, 123, 30.35078239440918
0, 4, 124, 23.46743774414062
0, 4, 125, 27.65338516235352
0, 4, 126, 17.64198684692383
0, 4, 127, 18.60315322875977
0, 5, 0, 20.05930709838867
0, 5, 1, 25.91065406799316
0, 5, 2, 34.83380889892578
0, 5, 3, 26.8455753326416
0, 5, 4, 22.96078109741211
0, 5, 5, 32.05797958374023
0, 5, 6, 30.02637672424316
0, 5, 7, 31.19647026062012
0, 5, 8, 29.50603866577148
0, 5, 9, 30.14294052124023
0, 5, 10, 32.59172058105469
0, 5, 11, 37.13491821289062
0, 5, 12, 40.91344833374023
0, 5, 13, 50.92506408691406
0, 5, 14, 64.94941711425781
0, 5, 15, 75.36724853515625
0, 5, 16, 83.00955963134766
0, 5, 17, 157.6826934814453
0, 5, 18, 678.55322265625
0, 5, 19, 1350.859130859375
0, 5, 20, 1522.402954101562
0, 5, 21, 1490.632690429688
0, 5, 22, 1505.259155273438
0, 5, 23, 1529.618408203125
0, 5, 24, 1464.600952148438
0, 5, 25, 1428.963623046875
0, 5, 26, 1524.97412109375
0, 5, 27, 1541.954711914062
0, 5, 28, 1483.5146484375
0, 5, 29, 1523.309936523438
0, 5, 30, 1493.989624023438
0, 5, 31, 1506.345581054688
0, 5, 32, 1595.616455078125
0, 5, 33, 1508.579711914062
0, 5, 34, 1488.943969726562
0, 5, 35, 1509.923828125
0, 5, 36, 1441.7763671875
0, 5, 37, 1531.53173828125
0, 5, 38, 1549.205200195312
0, 5, 39, 1550.102905273438
0, 5, 40, 1498.623901367188
0, 5, 41, 1483.132202148438
0, 5, 42, 1538.126098632812
0, 5, 43, 1531.06298828125
0, 5, 44, 1538.376708984375
0, 5, 45, 1510.597045898438
0, 5, 46, 1490.13330078125
0, 5, 47, 1479.4931640625
0, 5, 48, 1497.91357421875
0, 5, 49, 1520.120849609375
0, 5, 50, 1498.195434570312
0, 5, 51, 1514.978759765625
0, 5, 52, 1429.677978515625
0, 5, 53, 1524.491577148438
0, 5, 54, 1519.70068359375
0, 5, 55, 1525.60791015625
0, 5, 56, 1490.974975585938
0, 5, 57, 1539.933471679688
0, 5, 58, 1504.271728515625
0, 5, 59, 1485.66357421875
0, 5, 60, 1535.216430664062
0, 5, 61, 1455.608154296875
0, 5, 62, 1589.213134765625
0, 5, 63, 1429.56201171875
0, 5, 64, 1492.254028320312
0, 5, 65, 1468.136596679688
0, 5, 66, 1528.05419921875
0, 5, 67, 1564.344604492188
0, 5, 68, 1462.880249023438
0, 5, 69, 1477.910522460938
0, 5, 70, 1491.906005859375
0, 5, 71, 1476.800170898438
0, 5, 72, 1537.428833007812
0, 5, 73, 1459.5498046875
0, 5, 74, 1497.590209960938
0, 5, 75, 1492.29345703125
0, 5, 76, 1481.259033203125
0, 5, 77, 1516.889892578125
0, 5, 78, 1528.62646484375
0, 5, 79, 1510.085205078125
0, 5, 80, 1517.045166015625
0, 5, 81, 1590.233154296875
0, 5, 82, 1525.357177734375
0, 5, 83, 1492.999633789062
0, 5, 84, 1530.421142578125
0, 5, 85, 1514.03369140625
0, 5, 86, 1555.55517578125
0, 5, 87, 1469.459350585938
0, 5, 88, 1500.247192382812
0, 5, 89, 1483.473388671875
0, 5, 90, 1483.59130859375
0, 5, 91, 1547.352905273438
0, 5, 92, 1483.10888671875
0, 5, 93, 1561.280395507812
0, 5, 94, 1509.660766601562
0, 5, 95, 1565.33544921875
0, 5, 96, 1500.64697265625
0, 5, 97, 1510.51025390625
0, 5, 98, 1512.467529296875
0, 5, 99, 1544.090209960938
0, 5, 100, 1433.488525390625
0, 5, 101, 1430.48828125
0, 5, 102, 1515.470092773438
0, 5, 103, 1472.276123046875
0, 5, 104, 1459.79248046875
0, 5, 105, 1493.095825195312
0, 5, 106, 1462.6455078125
0, 5, 107, 1400.351440429688
0, 5, 108, 1292.567626953125
0, 5, 109, 721.552001953125
0, 5, 110, 195.9044342041016
0, 5, 111, 91.36811065673828
0, 5, 112, 79.92717742919922
0, 5, 113, 62.53912734985352
0, 5, 114, 60.05802536010742
0, 5, 115, 52.33953094482422
0, 5, 116, 39.71313858032227
0, 5, 117, 37.41423797607422
0, 5, 118, 44.96249389648438
0, 5, 119, 28.65556144714355
0, 5, 120, 26.29152679443359
0, 5, 121, 25.79542541503906
0, 5, 122, 29.80498504638672
0, 5, 123, 24.02352142333984
0, 5, 124, 19.64407920837402
0, 5, 125, 25.99151039123535
0, 5, 126, 18.25395393371582
0, 5, 127, 24.04705047607422
0, 6, 0, 25.1882152557373
0, 6, 1, 26.09237480163574
0, 6, 2, 28.67489242553711
0, 6, 3, 29.90699577331543
0, 6, 4, 21.82917785644531
0, 6, 5, 34.13859558105469
0, 6, 6, 35.60319137573242
0, 6, 7, 29.01737213134766
0, 6, 8, 32.89088439941406
0, 6, 9, 37.64891052246094
0, 6, 10, 36.36140441894531
0, 6, 11, 38.42041397094727
0, 6, 12, 41.05544281005859
0, 6, 13, 54.96392440795898
0, 6, 14, 64.10979461669922
0, 6, 15, 84.00973510742188
0, 6, 16, 111.278076171875
0, 6, 17, 298.2867431640625
0, 6, 18, 902.6488647460938
0, 6, 19, 1372.627685546875
0, 6, 20, 1438.107788085938
0, 6, 21, 1527.59912109375
0, 6, 22, 1503.051635742188
0, 6, 23, 1526.838012695312
0, 6, 24, 1478.92333984375
0, 6, 25, 1527.260131835938
0, 6, 26, 1521.889404296875
0, 6, 27, 1518.225830078125
0, 6, 28, 1561.569213867188
0, 6, 29, 1578.927978515625
0, 6, 30, 1512.669799804688
0, 6, 31, 1488.663696289062
0, 6, 32, 1521.465576171875
0, 6, 33, 1491.028442382812
0, 6, 34, 1565.075317382812
0, 6, 35, 1500.457397460938
0, 6, 36, 1438.671630859375
0, 6, 37, 1547.82861328125
0, 6, 38, 1526.019897460938
0, 6, 39, 1527.122680664062
0, 6, 40, 1457.87158203125
0, 6, 41, 1441.412475585938
0, 6, 42, 1513.8330078125
0, 6, 43, 1490.668579101562
0, 6, 44, 1434.839111328125
0, 6, 45, 1549.89453125
0, 6, 46, 1557.268920898438
0, 6, 47, 1495.708862304688
0, 6, 48, 1531.201782226562
0, 6, 49, 1512.553833007812
0, 6, 50, 1578.369018554688
0, 6, 51, 1503.896728515625
0, 6, 52, 1566.831665039062
0, 6, 53, 1470.44921875
0, 6, 54, 1502.698608398438
0, 6, 55, 1572.684692382812
0, 6, 56, 1519.60888671875
0, 6, 57, 1507.586303710938
0, 6, 58, 1471.15283203125
0, 6, 59, 1523.62158203125
0, 6, 60, 1467.7724609375
0, 6, 61, 1570.855834960938
0, 6, 62, 1546.061279296875
0, 6, 63, 1494.621337890625
0, 6, 64, 1409.935546875
0, 6, 65, 1491.203002929688
0, 6, 66, 1509.50439453125
0, 6, 67, 1514.811645507812
0, 6, 68, 1545.879638671875
0, 6, 69, 1490.21142578125
0, 6, 70, 1520.5009765625
0, 6, 71, 1469.2958984375
0, 6, 72, 1593.088256835938
0, 6, 73, 1492.974365234375
0, 6, 74, 1558.121459960938
0, 6, 75, 1540.48583984375
0, 6, 76, 1567.734741210938
0, 6, 77, 1504.069213867188
0, 6, 78, 1442.647338867188
0, 6, 79, 1556.391845703125
0, 6, 80, 1486.758056640625
0, 6, 81, 1482.277099609375
0, 6, 82, 1502.390747070312
0, 6, 83, 1524.397338867188
0, 6, 84, 1521.041748046875
0, 6, 85, 1539.1953125
0, 6, 86, 1543.75439453125
0, 6, 87, 1574.966186523438
0, 6, 88, 1476.276000976562
0, 6, 89, 1564.803955078125
0, 6, 90, 1491.403564453125
0, 6, 91, 1540.589965820312
0, 6, 92, 1482.697875976562
0, 6, 93, 1496.536865234375
0, 6, 94, 1468.92138671875
0, 6, 95, 1506.393310546875
0, 6, 96, 1522.66943359375
0, 6, 97, 1499.38037109375
0, 6, 98, 1493.94873046875
0, 6, 99, 1480.5810546875
0, 6, 100, 1518.507202148438
0, 6, 101, 1513.721313476562
0, 6, 102, 1542.58154296875
0, 6, 103, 1500.445068359375
0, 6, 104, 1465.17041015625
0, 6, 105, 1491.018798828125
0, 6, 106, 1500.061645507812
0, 6, 107, 1500.107299804688
0, 6, 108, 1406.657958984375
0, 6, 109, 926.7341918945312
0, 6, 110, 279.9147033691406
0, 6, 111, 98.03438568115234
0, 6, 112, 73.30918121337891
0, 6, 113, 57.82700347900391
0, 6, 114, 57.10276794433594
0, 6, 115, 43.2740478515625
0, 6, 116, 40.91987228393555
0, 6, 117, 37.89208602905273
0, 6, 118, 37.15398788452148
0, 6, 119, 32.74201965332031
0, 6, 120, 30.45382308959961
0, 6, 121, 28.30801391601562
0, 6, 122, 31.02258682250977
0, 6, 123, 24.74788856506348
0, 6, 124, 32.69231796264648
0, 6, 125, 30.93602180480957
0, 6, 126, 21.16677093505859
0, 6, 127, 21.68201065063477
0, 7, 0, 19.29013442993164
0, 7, 1, 28.20253372192383
0, 7, 2, 21.98185920715332
0, 7, 3, 27.13990592956543
0, 7, 4, 26.41215133666992
0, 7, 5, 40.50075149536133
0, 7, 6, 30.77200889587402
0, 7, 7, 36.2401123046875
0, 7, 8, 29.22456932067871
0, 7, 9, 36.93936920166016
0, 7, 10, 48.83277130126953
0, 7, 11, 47.55869293212891
0, 7, 12, 46.35570526123047
0, 7, 13, 50.10376739501953
0, 7, 14, 60.63367080688477
0, 7, 15, 81.28267669677734
0, 7, 16, 132.6182250976562
0, 7, 17, 457.2866821289062
0, 7, 18, 1097.468872070312
0, 7, 19, 1501.18505859375
0, 7, 20, 1488.285888671875
0, 7, 21, 1370.684692382812
0, 7, 22, 1487.8134765625
0, 7, 23, 1458.315795898438
0, 7, 24, 1513.662719726562
0, 7, 25, 1596.78564453125
0, 7, 26, 1519.221435546875
0, 7, 27, 1512.004028320312
0, 7, 28, 1539.6474609375
0, 7, 29, 1570.947387695312
0, 7, 30, 1543.693237304688
0, 7, 31, 1441.431274414062
0, 7, 32, 1543.36181640625
0, 7, 33, 1490.28759765625
0, 7, 34, 1476.462158203125
0, 7, 35, 1524.030029296875
0, 7, 36, 1471.87353515625
0, 7, 37, 1597.642944335938
0, 7, 38, 1506.022094726562
0, 7, 39, 1491.882202148438
0, 7, 40, 1547.287109375
0, 7, 41, 1465.19775390625
0, 7, 42, 1486.722412109375
0, 7, 43, 1443.828247070312
0, 7, 44, 1491.439819335938
0, 7, 45, 1469.554321289062
0, 7, 46, 1512.854736328125
0, 7, 47, 1566.329467773438
0, 7, 48, 1522.321044921875
0, 7, 49, 1538.023681640625
0, 7, 50, 1518.130981445312
0, 7, 51, 1495.725952148438
0, 7, 52, 1513.170654296875
0, 7, 53, 1498.340087890625
0, 7, 54, 1587.253173828125
0, 7, 55, 1475.89453125
0, 7, 56, 1550.470703125
0, 7, 57, 1513.3583984375
0, 7, 58, 1550.376831054688
0, 7, 59, 1545.986938476562
0, 7, 60, 1549.241821289062
0, 7, 61, 1486.592651367188
0, 7, 62, 1437.878540039062
0, 7, 63, 1513.284912109375
0, 7, 64, 1548.283569335938
0, 7, 65, 1528.803588867188
0, 7, 66, 1537.237915039062
0, 7, 67, 1580.43212890625
0, 7, 68, 1533.35498046875
0, 7, 69, 1525.232055664062
0, 7, 70, 1496.059204101562
0, 7, 71, 1522.183349609375
0, 7, 72, 1521.332275390625
0, 7, 73, 1524.63427734375
0, 7, 74, 1580.0966796875
0, 7, 75, 1536.128173828125
0, 7, 76, 1554.760498046875
0, 7, 77, 1510.619262695312
0, 7, 78, 1512.310302734375
0, 7, 79, 1422.401489257812
0, 7, 80, 1492.115112304688
0, 7, 81, 1488.960815429688
0, 7, 82, 1535.485961914062
0, 7, 83, 1540.115234375
0, 7, 84, 1585.318725585938
0, 7, 85, 1480.463012695312
0, 7, 86, 1503.814331054688
0, 7, 87, 1502.23193359375
0, 7, 88, 1497.1044921875
0, 7, 89, 1549.375366210938
0, 7, 90, 1519.479736328125
0, 7, 91, 1562.949340820312
0, 7, 92, 1530.491088867188
0, 7, 93, 1550.720703125
0, 7, 94, 1534.760986328125
0, 7, 95, 1502.206909179688
0, 7, 96, 1506.062866210938
0, 7, 97, 1432.2041015625
0, 7, 98, 1485.65869140625
0, 7, 99, 1525.2060546875
0, 7, 100, 1425.746337890625
0, 7, 101, 1466.183471679688
0, 7, 102, 1455.258666992188
0, 7, 103, 1429.518432617188
0, 7, 104, 1495.268432617188
0, 7, 105, 1527.231201171875
0, 7, 106, 1560.4921875
0, 7, 107, 1476.095703125
0, 7, 108, 1411.531860351562
0, 7, 109, 1145.170532226562
0, 7, 110, 476.4840087890625
0, 7, 111, 129.5018768310547
0, 7, 112, 84.21563720703125
0, 7, 113, 66.47282409667969
0, 7, 114, 60.31148147583008
0, 7, 115, 49.98491287231445
0, 7, 116, 44.52138519287109
0, 7, 117, 39.61844253540039
0, 7, 118, 38.37192535400391
0, 7, 119, 35.23012924194336
0, 7, 120, 22.07360076904297
0, 7, 121, 26.53507423400879
0, 7, 122, 35.36069107055664
0, 7, 123, 34.87681579589844
0, 7, 124, 32.01810455322266
0, 7, 125, 25.09371185302734
0, 7, 126, 27.10748481750488
0, 7, 127, 22.22081756591797
0, 8, 0, 21.8367748260498
0, 8, 1, 20.58260536193848
0, 8, 2, 25.68070602416992
0, 8, 3, 28.80371856689453
0, 8, 4, 23.41038513183594
0, 8, 5, 31.51846122741699
0, 8, 6, 28.86532402038574
0, 8, 7, 28.95491981506348
0, 8, 8, 35.17461395263672
0, 8, 9, 50.56096267700195
0, 8, 10, 47.31057357788086
0, 8, 11, 42.92792892456055
0, 8, 12, 52.00897216796875
0, 8, 13, 70.16365051269531
0, 8, 14, 74.81987762451172
0, 8, 15, 84.90798950195312
0, 8, 16, 166.1016998291016
0, 8, 17, 675.4258422851562
0, 8, 18, 1276.14208984375
0, 8, 19, 1444.963745117188
0, 8, 20, 1422.3037109375
0, 8, 21, 1408.52685546875
0, 8, 22, 1485.30712890625
0, 8, 23, 1481.402954101562
0, 8, 24, 1438.912719726562
0, 8, 25, 1457.923583984375
0, 8, 26, 1510.3232421875
0, 8, 27, 1521.955078125
0, 8, 28, 1475.061279296875
0, 8, 29, 1509.551147460938
0, 8, 30, 1496.350463867188
0, 8, 31, 1539.703002929688
0, 8, 32, 1509.012573242188
0, 8, 33, 1480.104370117188
0, 8, 34, 1536.382934570312
0, 8, 35, 1439.329833984375
0, 8, 36, 1497.58349609375
0, 8, 37, 1558.773559570312
0, 8, 38, 1549.147705078125
0, 8, 39, 1486.70166015625
0, 8, 40, 1529.3193359375
0, 8, 41, 1483.41162109375
0, 8, 42, 1539.661865234375
0, 8, 43, 1431.584106445312
0, 8, 44, 1533.99609375
0, 8, 45, 1510.631469726562
0, 8, 46, 1594.155395507812
0, 8, 47, 1586.133422851562
