# TOPAS Version: 3.1.p3
# Parameter File: batch_inserts_182.txt
# Results for scorer Readout_Adipose
# Scored in component: MyBox
# X in 1 bin  of 0.75 cm
# Y in 512 bins of 0.0783984 cm
# Z in 128 bins of 0.078125 cm
# EnergyDeposit ( MeV ) : Sum   
0, 0, 0, 9.503357887268066
0, 0, 1, 2.1676926612854
0, 0, 2, 4.646975517272949
0, 0, 3, 1.799355745315552
0, 0, 4, 4.19467306137085
0, 0, 5, 4.758822917938232
0, 0, 6, 8.517182350158691
0, 0, 7, 9.552483558654785
0, 0, 8, 3.481958389282227
0, 0, 9, 6.482336044311523
0, 0, 10, 7.285295963287354
0, 0, 11, 4.663290023803711
0, 0, 12, 3.885233402252197
0, 0, 13, 5.150650978088379
0, 0, 14, 7.189914703369141
0, 0, 15, 9.887451171875
0, 0, 16, 9.105751991271973
0, 0, 17, 9.526663780212402
0, 0, 18, 13.20006465911865
0, 0, 19, 43.56100463867188
0, 0, 20, 139.3163757324219
0, 0, 21, 224.9168395996094
0, 0, 22, 248.0222320556641
0, 0, 23, 255.2960815429688
0, 0, 24, 250.3274688720703
0, 0, 25, 257.9612731933594
0, 0, 26, 234.0256958007812
0, 0, 27, 237.6826171875
0, 0, 28, 272.4573974609375
0, 0, 29, 251.3003692626953
0, 0, 30, 229.1031341552734
0, 0, 31, 243.5288696289062
0, 0, 32, 263.3893127441406
0, 0, 33, 259.2652282714844
0, 0, 34, 287.5550537109375
0, 0, 35, 266.9066467285156
0, 0, 36, 246.4628143310547
0, 0, 37, 252.9603729248047
0, 0, 38, 268.0734252929688
0, 0, 39, 230.2790679931641
0, 0, 40, 241.0017242431641
0, 0, 41, 266.3811645507812
0, 0, 42, 228.9561614990234
0, 0, 43, 260.90087890625
0, 0, 44, 252.863037109375
0, 0, 45, 253.6495056152344
0, 0, 46, 244.0643005371094
0, 0, 47, 253.9061279296875
0, 0, 48, 265.6918640136719
0, 0, 49, 273.1222839355469
0, 0, 50, 249.5762939453125
0, 0, 51, 257.1409912109375
0, 0, 52, 271.6027221679688
0, 0, 53, 292.2727661132812
0, 0, 54, 241.1125946044922
0, 0, 55, 239.3455200195312
0, 0, 56, 276.7337036132812
0, 0, 57, 262.3794250488281
0, 0, 58, 245.4970397949219
0, 0, 59, 270.1121520996094
0, 0, 60, 234.5171661376953
0, 0, 61, 245.5464172363281
0, 0, 62, 257.8540954589844
0, 0, 63, 269.6447143554688
0, 0, 64, 256.1022033691406
0, 0, 65, 261.6699829101562
0, 0, 66, 277.9912719726562
0, 0, 67, 248.0645904541016
0, 0, 68, 258.0286560058594
0, 0, 69, 260.1004638671875
0, 0, 70, 271.9562072753906
0, 0, 71, 237.8081970214844
0, 0, 72, 248.7968139648438
0, 0, 73, 260.5534057617188
0, 0, 74, 249.9671478271484
0, 0, 75, 241.7164154052734
0, 0, 76, 228.2543487548828
0, 0, 77, 259.1181335449219
0, 0, 78, 256.7841491699219
0, 0, 79, 279.0709533691406
0, 0, 80, 215.0338897705078
0, 0, 81, 267.0060729980469
0, 0, 82, 255.3831787109375
0, 0, 83, 244.7273254394531
0, 0, 84, 268.6334228515625
0, 0, 85, 230.5514373779297
0, 0, 86, 256.6484985351562
0, 0, 87, 251.2503967285156
0, 0, 88, 259.408935546875
0, 0, 89, 282.331298828125
0, 0, 90, 243.9472961425781
0, 0, 91, 281.7463989257812
0, 0, 92, 251.7892608642578
0, 0, 93, 248.9752655029297
0, 0, 94, 248.7549438476562
0, 0, 95, 247.4302520751953
0, 0, 96, 275.0367736816406
0, 0, 97, 274.0667724609375
0, 0, 98, 273.5061645507812
0, 0, 99, 258.7107543945312
0, 0, 100, 258.2047424316406
0, 0, 101, 226.5282745361328
0, 0, 102, 232.2670440673828
0, 0, 103, 268.9302062988281
0, 0, 104, 254.2026824951172
0, 0, 105, 252.3662109375
0, 0, 106, 245.6131439208984
0, 0, 107, 151.7339935302734
0, 0, 108, 37.48746871948242
0, 0, 109, 11.41436290740967
0, 0, 110, 12.56828880310059
0, 0, 111, 8.112611770629883
0, 0, 112, 6.388574123382568
0, 0, 113, 7.75823450088501
0, 0, 114, 8.114214897155762
0, 0, 115, 4.542289257049561
0, 0, 116, 4.757782459259033
0, 0, 117, 5.489475250244141
0, 0, 118, 6.150388240814209
0, 0, 119, 4.481945037841797
0, 0, 120, 4.798194408416748
0, 0, 121, 2.957374811172485
0, 0, 122, 4.277631282806396
0, 0, 123, 2.972012281417847
0, 0, 124, 5.379674434661865
0, 0, 125, 2.027395486831665
0, 0, 126, 7.145750045776367
0, 0, 127, 2.474856376647949
0, 1, 0, 7.626416683197021
0, 1, 1, 3.563877105712891
0, 1, 2, 4.988764762878418
0, 1, 3, 5.682326316833496
0, 1, 4, 5.271821022033691
0, 1, 5, 2.66589093208313
0, 1, 6, 5.900963306427002
0, 1, 7, 4.717015266418457
0, 1, 8, 6.741909980773926
0, 1, 9, 3.734055042266846
0, 1, 10, 6.555927276611328
0, 1, 11, 11.7735538482666
0, 1, 12, 7.373358249664307
0, 1, 13, 8.306694984436035
0, 1, 14, 7.4085373878479
0, 1, 15, 7.499925136566162
0, 1, 16, 10.6630859375
0, 1, 17, 10.96222400665283
0, 1, 18, 21.75288009643555
0, 1, 19, 64.86046600341797
0, 1, 20, 199.9477844238281
0, 1, 21, 256.4312438964844
0, 1, 22, 299.2752990722656
0, 1, 23, 282.9219970703125
0, 1, 24, 276.5034790039062
0, 1, 25, 287.5000305175781
0, 1, 26, 270.0289001464844
0, 1, 27, 305.9794616699219
0, 1, 28, 299.6850891113281
0, 1, 29, 295.1371459960938
0, 1, 30, 280.525146484375
0, 1, 31, 290.997802734375
0, 1, 32, 292.1331787109375
0, 1, 33, 297.179443359375
0, 1, 34, 293.8364562988281
0, 1, 35, 278.2652893066406
0, 1, 36, 307.6115417480469
0, 1, 37, 295.6817016601562
0, 1, 38, 280.787353515625
0, 1, 39, 295.218994140625
0, 1, 40, 265.4443054199219
0, 1, 41, 287.3388366699219
0, 1, 42, 289.0303344726562
0, 1, 43, 332.2841491699219
0, 1, 44, 280.460205078125
0, 1, 45, 294.0473937988281
0, 1, 46, 259.3707580566406
0, 1, 47, 309.6220397949219
0, 1, 48, 284.5491943359375
0, 1, 49, 303.6092529296875
0, 1, 50, 263.2997436523438
0, 1, 51, 272.6395263671875
0, 1, 52, 295.9171447753906
0, 1, 53, 303.9583435058594
0, 1, 54, 274.839599609375
0, 1, 55, 292.440673828125
0, 1, 56, 282.505615234375
0, 1, 57, 299.7415771484375
0, 1, 58, 309.7648010253906
0, 1, 59, 291.9195556640625
0, 1, 60, 299.8157348632812
0, 1, 61, 276.3116760253906
0, 1, 62, 309.023681640625
0, 1, 63, 285.5691833496094
0, 1, 64, 288.2235412597656
0, 1, 65, 301.1231079101562
0, 1, 66, 292.1523742675781
0, 1, 67, 292.9421691894531
0, 1, 68, 278.8454895019531
0, 1, 69, 279.7227478027344
0, 1, 70, 271.0305786132812
0, 1, 71, 272.8538513183594
0, 1, 72, 286.8435363769531
0, 1, 73, 304.5297241210938
0, 1, 74, 303.5534057617188
0, 1, 75, 293.0425720214844
0, 1, 76, 285.8814392089844
0, 1, 77, 290.2419128417969
0, 1, 78, 297.0700073242188
0, 1, 79, 301.9716491699219
0, 1, 80, 296.3708190917969
0, 1, 81, 304.6142883300781
0, 1, 82, 286.2686157226562
0, 1, 83, 332.4050903320312
0, 1, 84, 307.3597106933594
0, 1, 85, 254.4786834716797
0, 1, 86, 293.5668029785156
0, 1, 87, 290.0467834472656
0, 1, 88, 298.4846801757812
0, 1, 89, 292.7699890136719
0, 1, 90, 270.1297912597656
0, 1, 91, 317.9186096191406
0, 1, 92, 289.6960144042969
0, 1, 93, 286.8167114257812
0, 1, 94, 303.7112731933594
0, 1, 95, 284.6082458496094
0, 1, 96, 285.3238830566406
0, 1, 97, 303.7709045410156
0, 1, 98, 278.8780517578125
0, 1, 99, 269.6697692871094
0, 1, 100, 277.0255432128906
0, 1, 101, 282.0636596679688
0, 1, 102, 279.0787048339844
0, 1, 103, 281.0460205078125
0, 1, 104, 306.0578308105469
0, 1, 105, 297.504150390625
0, 1, 106, 261.1499328613281
0, 1, 107, 191.4080352783203
0, 1, 108, 81.68963623046875
0, 1, 109, 24.11100959777832
0, 1, 110, 10.8693790435791
0, 1, 111, 8.695696830749512
0, 1, 112, 13.43392848968506
0, 1, 113, 6.147207260131836
0, 1, 114, 7.293774127960205
0, 1, 115, 7.085824012756348
0, 1, 116, 12.64904403686523
0, 1, 117, 5.072136878967285
0, 1, 118, 6.286063671112061
0, 1, 119, 4.545607566833496
0, 1, 120, 3.98851752281189
0, 1, 121, 2.902860403060913
0, 1, 122, 4.31617259979248
0, 1, 123, 4.307649612426758
0, 1, 124, 7.552371501922607
0, 1, 125, 4.119003772735596
0, 1, 126, 2.255908727645874
0, 1, 127, 2.141420841217041
0, 2, 0, 3.720555782318115
0, 2, 1, 1.315582394599915
0, 2, 2, 5.142833709716797
0, 2, 3, 5.287213325500488
0, 2, 4, 2.058701276779175
0, 2, 5, 1.687348127365112
0, 2, 6, 1.985365867614746
0, 2, 7, 6.258842945098877
0, 2, 8, 6.421164035797119
0, 2, 9, 5.95050573348999
0, 2, 10, 9.375668525695801
0, 2, 11, 5.974931240081787
0, 2, 12, 6.529044151306152
0, 2, 13, 9.849306106567383
0, 2, 14, 11.04365730285645
0, 2, 15, 8.879467010498047
0, 2, 16, 9.679350852966309
0, 2, 17, 17.52698135375977
0, 2, 18, 28.2013111114502
0, 2, 19, 114.7936325073242
0, 2, 20, 247.1656188964844
0, 2, 21, 272.818359375
0, 2, 22, 317.274658203125
0, 2, 23, 299.4046936035156
0, 2, 24, 285.3515014648438
0, 2, 25, 302.1402893066406
0, 2, 26, 293.16064453125
0, 2, 27, 275.3687133789062
0, 2, 28, 273.0309143066406
0, 2, 29, 275.6637268066406
0, 2, 30, 288.1725158691406
0, 2, 31, 278.1694030761719
0, 2, 32, 294.9581604003906
0, 2, 33, 281.4107666015625
0, 2, 34, 330.8697509765625
0, 2, 35, 288.6481628417969
0, 2, 36, 304.5508117675781
0, 2, 37, 314.809326171875
0, 2, 38, 311.4822082519531
0, 2, 39, 267.0044250488281
0, 2, 40, 308.4594421386719
0, 2, 41, 291.6064147949219
0, 2, 42, 306.1108093261719
0, 2, 43, 313.0798034667969
0, 2, 44, 310.2891235351562
0, 2, 45, 324.6194458007812
0, 2, 46, 286.5540466308594
0, 2, 47, 303.6385803222656
0, 2, 48, 280.3894653320312
0, 2, 49, 279.310791015625
0, 2, 50, 294.0192260742188
0, 2, 51, 286.2892761230469
0, 2, 52, 273.1797180175781
0, 2, 53, 285.8630065917969
0, 2, 54, 279.6640014648438
0, 2, 55, 274.4835815429688
0, 2, 56, 301.5304260253906
0, 2, 57, 292.4177551269531
0, 2, 58, 303.6046752929688
0, 2, 59, 295.8625183105469
0, 2, 60, 319.1116943359375
0, 2, 61, 301.2484130859375
0, 2, 62, 311.4586181640625
0, 2, 63, 302.8411865234375
0, 2, 64, 295.6493835449219
0, 2, 65, 315.4087524414062
0, 2, 66, 278.5116271972656
0, 2, 67, 291.6209716796875
0, 2, 68, 295.2799987792969
0, 2, 69, 311.3773803710938
0, 2, 70, 333.6461181640625
0, 2, 71, 282.5021057128906
0, 2, 72, 301.98681640625
0, 2, 73, 311.5124816894531
0, 2, 74, 286.2055969238281
0, 2, 75, 306.3672485351562
0, 2, 76, 289.4143676757812
0, 2, 77, 299.5947570800781
0, 2, 78, 312.3993225097656
0, 2, 79, 308.1210632324219
0, 2, 80, 295.9088134765625
0, 2, 81, 281.965087890625
0, 2, 82, 318.8245239257812
0, 2, 83, 313.0362243652344
0, 2, 84, 287.4405822753906
0, 2, 85, 284.323486328125
0, 2, 86, 323.8078002929688
0, 2, 87, 285.5367431640625
0, 2, 88, 279.4962463378906
0, 2, 89, 294.66748046875
0, 2, 90, 295.8945922851562
0, 2, 91, 274.9262084960938
0, 2, 92, 305.0441589355469
0, 2, 93, 316.9936828613281
0, 2, 94, 292.0127563476562
0, 2, 95, 315.2682189941406
0, 2, 96, 315.0242309570312
0, 2, 97, 290.3066101074219
0, 2, 98, 294.4462585449219
0, 2, 99, 273.8086853027344
0, 2, 100, 305.560791015625
0, 2, 101, 301.9832763671875
0, 2, 102, 296.8132629394531
0, 2, 103, 291.4945983886719
0, 2, 104, 291.8368530273438
0, 2, 105, 273.9089965820312
0, 2, 106, 298.4221801757812
0, 2, 107, 268.74267578125
0, 2, 108, 115.7696838378906
0, 2, 109, 32.73287582397461
0, 2, 110, 9.483373641967773
0, 2, 111, 12.8254451751709
0, 2, 112, 7.594497203826904
0, 2, 113, 9.833097457885742
0, 2, 114, 9.034879684448242
0, 2, 115, 9.347148895263672
0, 2, 116, 8.824184417724609
0, 2, 117, 7.287291049957275
0, 2, 118, 2.04316258430481
0, 2, 119, 2.904630899429321
0, 2, 120, 4.935558795928955
0, 2, 121, 1.810554623603821
0, 2, 122, 4.513535022735596
0, 2, 123, 3.335455894470215
0, 2, 124, 5.353395462036133
0, 2, 125, 5.374383926391602
0, 2, 126, 3.052034616470337
0, 2, 127, 4.836061000823975
0, 3, 0, 2.213835954666138
0, 3, 1, 2.635146856307983
0, 3, 2, 3.327275514602661
0, 3, 3, 2.410235166549683
0, 3, 4, 4.250825881958008
0, 3, 5, 6.802665233612061
0, 3, 6, 6.078680515289307
0, 3, 7, 5.358893871307373
0, 3, 8, 5.902466297149658
0, 3, 9, 8.399462699890137
0, 3, 10, 6.669703006744385
0, 3, 11, 5.353573322296143
0, 3, 12, 10.35436820983887
0, 3, 13, 15.63926315307617
0, 3, 14, 11.29693603515625
0, 3, 15, 13.87633323669434
0, 3, 16, 12.3692045211792
0, 3, 17, 21.6144847869873
0, 3, 18, 55.16725158691406
0, 3, 19, 174.3317718505859
0, 3, 20, 269.8604125976562
0, 3, 21, 270.6291809082031
0, 3, 22, 282.1647644042969
0, 3, 23, 285.9481201171875
0, 3, 24, 287.1422119140625
0, 3, 25, 271.4367370605469
0, 3, 26, 303.4910888671875
0, 3, 27, 291.7043762207031
0, 3, 28, 282.5339965820312
0, 3, 29, 338.3394470214844
0, 3, 30, 316.0516662597656
0, 3, 31, 285.7419738769531
0, 3, 32, 306.9805603027344
0, 3, 33, 314.8173828125
0, 3, 34, 323.6848449707031
0, 3, 35, 305.8847961425781
0, 3, 36, 270.5661926269531
0, 3, 37, 313.2449951171875
0, 3, 38, 304.8203430175781
0, 3, 39, 289.1960144042969
0, 3, 40, 267.3934631347656
0, 3, 41, 301.7478942871094
0, 3, 42, 284.3739318847656
0, 3, 43, 305.8572082519531
0, 3, 44, 310.6481628417969
0, 3, 45, 291.1026916503906
0, 3, 46, 328.918212890625
0, 3, 47, 299.3176879882812
0, 3, 48, 303.7095336914062
0, 3, 49, 276.5669555664062
0, 3, 50, 292.6966857910156
0, 3, 51, 276.0961608886719
0, 3, 52, 316.0631408691406
0, 3, 53, 287.63525390625
0, 3, 54, 284.9497680664062
0, 3, 55, 286.4283447265625
0, 3, 56, 298.0981140136719
0, 3, 57, 287.8052062988281
0, 3, 58, 305.4508056640625
0, 3, 59, 294.65625
0, 3, 60, 297.3888854980469
0, 3, 61, 264.3387145996094
0, 3, 62, 283.1780700683594
0, 3, 63, 308.1162109375
0, 3, 64, 315.9764404296875
0, 3, 65, 304.3327026367188
0, 3, 66, 314.1585388183594
0, 3, 67, 320.0209350585938
0, 3, 68, 280.4163818359375
0, 3, 69, 282.6702575683594
0, 3, 70, 288.8418273925781
0, 3, 71, 301.2106018066406
0, 3, 72, 269.3316955566406
0, 3, 73, 309.0774841308594
0, 3, 74, 293.833740234375
0, 3, 75, 293.4667358398438
0, 3, 76, 305.5885009765625
0, 3, 77, 314.3668518066406
0, 3, 78, 304.5253295898438
0, 3, 79, 281.9976501464844
0, 3, 80, 290.6134033203125
0, 3, 81, 313.4625854492188
0, 3, 82, 315.371826171875
0, 3, 83, 301.2185668945312
0, 3, 84, 311.3841552734375
0, 3, 85, 292.52978515625
0, 3, 86, 302.8526306152344
0, 3, 87, 296.6748657226562
0, 3, 88, 298.2185974121094
0, 3, 89, 295.9176025390625
0, 3, 90, 275.7207641601562
0, 3, 91, 285.4334106445312
0, 3, 92, 303.9242248535156
0, 3, 93, 311.8604125976562
0, 3, 94, 297.5097351074219
0, 3, 95, 334.6998291015625
0, 3, 96, 290.7429809570312
0, 3, 97, 284.4559020996094
0, 3, 98, 277.257568359375
0, 3, 99, 261.3480529785156
0, 3, 100, 286.8686218261719
0, 3, 101, 297.1258544921875
0, 3, 102, 274.3537292480469
0, 3, 103, 321.4086608886719
0, 3, 104, 309.1170349121094
0, 3, 105, 287.1584167480469
0, 3, 106, 304.3379821777344
0, 3, 107, 282.0422058105469
0, 3, 108, 167.48046875
0, 3, 109, 55.5842170715332
0, 3, 110, 17.07133102416992
0, 3, 111, 12.70959758758545
0, 3, 112, 13.5348949432373
0, 3, 113, 7.048155784606934
0, 3, 114, 10.20581531524658
0, 3, 115, 7.204463481903076
0, 3, 116, 8.103693962097168
0, 3, 117, 9.250350952148438
0, 3, 118, 8.270334243774414
0, 3, 119, 7.261331558227539
0, 3, 120, 8.173379898071289
0, 3, 121, 3.376903295516968
0, 3, 122, 2.944299221038818
0, 3, 123, 5.752432823181152
0, 3, 124, 3.855904340744019
0, 3, 125, 4.977392673492432
0, 3, 126, 6.855495452880859
0, 3, 127, 2.735461950302124
0, 4, 0, 1.894639015197754
0, 4, 1, 4.940716743469238
0, 4, 2, 4.215323925018311
0, 4, 3, 1.439752340316772
0, 4, 4, 5.881714344024658
0, 4, 5, 8.098727226257324
0, 4, 6, 6.404112339019775
0, 4, 7, 4.335993766784668
0, 4, 8, 6.270040512084961
0, 4, 9, 6.033512115478516
0, 4, 10, 8.962264060974121
0, 4, 11, 4.767319679260254
0, 4, 12, 5.62294864654541
0, 4, 13, 8.972637176513672
0, 4, 14, 10.39565181732178
0, 4, 15, 9.237542152404785
0, 4, 16, 12.9273157119751
0, 4, 17, 18.23756408691406
0, 4, 18, 92.60140228271484
0, 4, 19, 222.6911010742188
0, 4, 20, 284.9233703613281
0, 4, 21, 271.791259765625
0, 4, 22, 303.5660400390625
0, 4, 23, 266.5576477050781
0, 4, 24, 288.9727172851562
0, 4, 25, 271.951416015625
0, 4, 26, 294.3926391601562
0, 4, 27, 285.9840087890625
0, 4, 28, 306.8597717285156
0, 4, 29, 322.0259399414062
0, 4, 30, 309.92333984375
0, 4, 31, 306.9258117675781
0, 4, 32, 281.2081909179688
0, 4, 33, 296.5105895996094
0, 4, 34, 297.703125
0, 4, 35, 312.7235717773438
0, 4, 36, 293.4021606445312
0, 4, 37, 290.0555419921875
0, 4, 38, 297.3805541992188
0, 4, 39, 293.1790771484375
0, 4, 40, 303.8794250488281
0, 4, 41, 313.1091613769531
0, 4, 42, 329.5695190429688
0, 4, 43, 296.1226196289062
0, 4, 44, 320.5908203125
0, 4, 45, 325.8119812011719
0, 4, 46, 305.8189697265625
0, 4, 47, 292.8984985351562
0, 4, 48, 295.5901184082031
0, 4, 49, 277.88525390625
0, 4, 50, 296.7834167480469
0, 4, 51, 315.8306579589844
0, 4, 52, 327.0995483398438
0, 4, 53, 302.8938293457031
0, 4, 54, 288.28759765625
0, 4, 55, 315.9441528320312
0, 4, 56, 285.9862976074219
0, 4, 57, 308.0243835449219
0, 4, 58, 295.4523315429688
0, 4, 59, 306.916015625
0, 4, 60, 303.0155639648438
0, 4, 61, 314.4757385253906
0, 4, 62, 308.6029052734375
0, 4, 63, 298.9949951171875
0, 4, 64, 330.9710083007812
0, 4, 65, 315.0618591308594
0, 4, 66, 294.554931640625
0, 4, 67, 283.7698364257812
0, 4, 68, 313.9727478027344
0, 4, 69, 277.2945861816406
0, 4, 70, 299.5617065429688
0, 4, 71, 321.1990966796875
0, 4, 72, 331.0486450195312
0, 4, 73, 300.0996704101562
0, 4, 74, 293.6224975585938
0, 4, 75, 291.5050964355469
0, 4, 76, 276.1564636230469
0, 4, 77, 277.0053405761719
0, 4, 78, 310.9640197753906
0, 4, 79, 318.4105834960938
0, 4, 80, 316.151123046875
0, 4, 81, 312.9189147949219
0, 4, 82, 297.7248229980469
0, 4, 83, 301.7750244140625
0, 4, 84, 290.5068359375
0, 4, 85, 294.6305541992188
0, 4, 86, 297.0572814941406
0, 4, 87, 286.9609680175781
0, 4, 88, 307.2742004394531
0, 4, 89, 297.5301513671875
0, 4, 90, 333.3923034667969
0, 4, 91, 304.0155029296875
0, 4, 92, 291.5813293457031
0, 4, 93, 296.3521118164062
0, 4, 94, 291.8277587890625
0, 4, 95, 287.7213439941406
0, 4, 96, 323.5489196777344
0, 4, 97, 273.5751342773438
0, 4, 98, 330.513427734375
0, 4, 99, 316.0089721679688
0, 4, 100, 300.8430480957031
0, 4, 101, 258.1586303710938
0, 4, 102, 299.1235046386719
0, 4, 103, 317.4827270507812
0, 4, 104, 282.5338745117188
0, 4, 105, 310.9329223632812
0, 4, 106, 286.6421508789062
0, 4, 107, 295.7778015136719
0, 4, 108, 225.6940765380859
0, 4, 109, 79.47126770019531
0, 4, 110, 16.65266036987305
0, 4, 111, 14.24210929870605
0, 4, 112, 7.352571964263916
0, 4, 113, 12.91779708862305
0, 4, 114, 8.772162437438965
0, 4, 115, 13.04741764068604
0, 4, 116, 7.298363208770752
0, 4, 117, 7.80724048614502
0, 4, 118, 9.970888137817383
0, 4, 119, 8.995000839233398
0, 4, 120, 7.709396839141846
0, 4, 121, 4.939773082733154
0, 4, 122, 5.390449523925781
0, 4, 123, 7.160262584686279
0, 4, 124, 5.298193454742432
0, 4, 125, 8.781933784484863
0, 4, 126, 4.521322727203369
0, 4, 127, 4.30869722366333
0, 5, 0, 3.683081150054932
0, 5, 1, 3.532020568847656
0, 5, 2, 4.55565881729126
0, 5, 3, 2.977211713790894
0, 5, 4, 5.40664005279541
0, 5, 5, 7.5251145362854
0, 5, 6, 6.725305557250977
0, 5, 7, 7.671365261077881
0, 5, 8, 5.668088912963867
0, 5, 9, 5.307844638824463
0, 5, 10, 6.721203327178955
0, 5, 11, 8.183202743530273
0, 5, 12, 8.818621635437012
0, 5, 13, 4.925023078918457
0, 5, 14, 12.03508377075195
0, 5, 15, 17.5981502532959
0, 5, 16, 15.06910514831543
0, 5, 17, 29.13901710510254
0, 5, 18, 136.0350036621094
0, 5, 19, 288.2878112792969
0, 5, 20, 308.6793212890625
0, 5, 21, 316.9638977050781
0, 5, 22, 276.5625305175781
0, 5, 23, 311.6349182128906
0, 5, 24, 301.6973266601562
0, 5, 25, 289.2447509765625
0, 5, 26, 293.9211730957031
0, 5, 27, 322.1374206542969
0, 5, 28, 304.693603515625
0, 5, 29, 297.5404968261719
0, 5, 30, 323.2659301757812
0, 5, 31, 285.0875854492188
0, 5, 32, 303.0752563476562
0, 5, 33, 303.8374938964844
0, 5, 34, 294.9917602539062
0, 5, 35, 309.6266479492188
0, 5, 36, 273.4211730957031
0, 5, 37, 282.9569396972656
0, 5, 38, 295.2330322265625
0, 5, 39, 313.83837890625
0, 5, 40, 309.0987854003906
0, 5, 41, 271.7693786621094
0, 5, 42, 305.1392517089844
0, 5, 43, 314.1470336914062
0, 5, 44, 293.1045227050781
0, 5, 45, 301.9786987304688
0, 5, 46, 266.0264892578125
0, 5, 47, 280.8117370605469
0, 5, 48, 294.2073364257812
0, 5, 49, 287.1370849609375
0, 5, 50, 294.8984069824219
0, 5, 51, 279.5238952636719
0, 5, 52, 268.3588562011719
0, 5, 53, 287.4493713378906
0, 5, 54, 290.4079284667969
0, 5, 55, 344.4837951660156
0, 5, 56, 305.3182067871094
0, 5, 57, 305.1442260742188
0, 5, 58, 315.3632507324219
0, 5, 59, 302.4649353027344
0, 5, 60, 305.8765563964844
0, 5, 61, 281.9903259277344
0, 5, 62, 325.4159240722656
0, 5, 63, 292.2270812988281
0, 5, 64, 321.8960876464844
0, 5, 65, 309.1224975585938
0, 5, 66, 327.1761474609375
0, 5, 67, 312.1835632324219
0, 5, 68, 312.4407348632812
0, 5, 69, 311.7310180664062
0, 5, 70, 302.0916137695312
0, 5, 71, 272.2710571289062
0, 5, 72, 310.4855041503906
0, 5, 73, 301.3509521484375
0, 5, 74, 294.8102722167969
0, 5, 75, 293.595947265625
0, 5, 76, 284.7538757324219
0, 5, 77, 298.4442749023438
0, 5, 78, 313.6963195800781
0, 5, 79, 307.6088562011719
0, 5, 80, 294.9635314941406
0, 5, 81, 325.6999816894531
0, 5, 82, 324.365966796875
0, 5, 83, 280.989990234375
0, 5, 84, 303.2853393554688
0, 5, 85, 271.0282897949219
0, 5, 86, 327.2755737304688
0, 5, 87, 284.1968688964844
0, 5, 88, 313.78125
0, 5, 89, 304.92626953125
0, 5, 90, 314.8927612304688
0, 5, 91, 314.5428161621094
0, 5, 92, 296.8975524902344
0, 5, 93, 323.16552734375
0, 5, 94, 307.0968017578125
0, 5, 95, 297.2706298828125
0, 5, 96, 298.7466735839844
0, 5, 97, 294.6529541015625
0, 5, 98, 317.5379638671875
0, 5, 99, 301.3747253417969
0, 5, 100, 291.0558471679688
0, 5, 101, 307.8423767089844
0, 5, 102, 292.0547485351562
0, 5, 103, 313.6365356445312
0, 5, 104, 302.0869750976562
0, 5, 105, 293.7764282226562
0, 5, 106, 282.3290405273438
0, 5, 107, 291.7354431152344
0, 5, 108, 268.2660522460938
0, 5, 109, 156.6008911132812
0, 5, 110, 40.797119140625
0, 5, 111, 22.82779312133789
0, 5, 112, 18.443359375
0, 5, 113, 15.50858592987061
0, 5, 114, 15.06889152526855
0, 5, 115, 7.624755382537842
0, 5, 116, 8.552820205688477
0, 5, 117, 8.236186981201172
0, 5, 118, 12.05624580383301
0, 5, 119, 2.924381017684937
0, 5, 120, 9.208518028259277
0, 5, 121, 3.890898466110229
0, 5, 122, 5.03889274597168
0, 5, 123, 3.677279710769653
0, 5, 124, 6.70140266418457
0, 5, 125, 4.338001251220703
0, 5, 126, 6.748639106750488
0, 5, 127, 3.974648714065552
0, 6, 0, 5.675519466400146
0, 6, 1, 3.958650588989258
0, 6, 2, 5.262844085693359
0, 6, 3, 5.13544225692749
0, 6, 4, 3.393048524856567
0, 6, 5, 4.976396083831787
0, 6, 6, 8.344731330871582
0, 6, 7, 6.077364921569824
0, 6, 8, 5.776258945465088
0, 6, 9, 7.406349658966064
0, 6, 10, 6.990357398986816
0, 6, 11, 9.592184066772461
0, 6, 12, 7.679029941558838
0, 6, 13, 14.42579555511475
0, 6, 14, 9.421388626098633
0, 6, 15, 16.03629493713379
0, 6, 16, 27.98421478271484
0, 6, 17, 55.20500946044922
0, 6, 18, 173.0064239501953
0, 6, 19, 276.0881958007812
0, 6, 20, 294.208740234375
0, 6, 21, 313.3177795410156
0, 6, 22, 318.8682250976562
0, 6, 23, 305.1145324707031
0, 6, 24, 315.3650207519531
0, 6, 25, 316.6491088867188
0, 6, 26, 321.9750671386719
0, 6, 27, 330.3016052246094
0, 6, 28, 296.1584777832031
0, 6, 29, 329.3612976074219
0, 6, 30, 281.7816467285156
0, 6, 31, 285.1260070800781
0, 6, 32, 340.4424743652344
0, 6, 33, 302.5558166503906
0, 6, 34, 341.7960205078125
0, 6, 35, 319.2526245117188
0, 6, 36, 273.29931640625
0, 6, 37, 290.3412170410156
0, 6, 38, 310.7747802734375
0, 6, 39, 299.30810546875
0, 6, 40, 284.8482666015625
0, 6, 41, 295.3408508300781
0, 6, 42, 304.3651733398438
0, 6, 43, 287.7668151855469
0, 6, 44, 279.5289001464844
0, 6, 45, 318.9770202636719
0, 6, 46, 300.3125915527344
0, 6, 47, 333.7875366210938
0, 6, 48, 291.539794921875
0, 6, 49, 311.715576171875
0, 6, 50, 327.98779296875
0, 6, 51, 311.2903747558594
0, 6, 52, 322.0195007324219
0, 6, 53, 328.9348449707031
0, 6, 54, 303.133544921875
0, 6, 55, 307.5466613769531
0, 6, 56, 294.9114685058594
0, 6, 57, 311.9049987792969
0, 6, 58, 261.5009460449219
0, 6, 59, 302.7087707519531
0, 6, 60, 312.326904296875
0, 6, 61, 270.3121948242188
0, 6, 62, 337.2614440917969
0, 6, 63, 324.0191040039062
0, 6, 64, 292.7854309082031
0, 6, 65, 284.9574584960938
0, 6, 66, 304.9673461914062
0, 6, 67, 311.5516052246094
0, 6, 68, 294.0908203125
0, 6, 69, 278.3857727050781
0, 6, 70, 275.2836303710938
0, 6, 71, 288.9723510742188
0, 6, 72, 309.3781127929688
0, 6, 73, 293.83837890625
0, 6, 74, 330.6058044433594
0, 6, 75, 343.8505554199219
0, 6, 76, 299.4325561523438
0, 6, 77, 286.3743591308594
0, 6, 78, 279.2517395019531
0, 6, 79, 292.8879699707031
0, 6, 80, 298.9100952148438
0, 6, 81, 313.6921997070312
0, 6, 82, 320.9601745605469
0, 6, 83, 319.8497619628906
0, 6, 84, 297.5419311523438
0, 6, 85, 300.9912414550781
0, 6, 86, 331.4437866210938
0, 6, 87, 294.047607421875
0, 6, 88, 305.35107421875
0, 6, 89, 304.2684326171875
0, 6, 90, 301.730224609375
0, 6, 91, 311.4834899902344
0, 6, 92, 285.2042236328125
0, 6, 93, 296.7147216796875
0, 6, 94, 273.4355163574219
0, 6, 95, 298.7518920898438
0, 6, 96, 347.9296569824219
0, 6, 97, 309.1441650390625
0, 6, 98, 300.0484924316406
0, 6, 99, 272.2448120117188
0, 6, 100, 312.954833984375
0, 6, 101, 295.1950988769531
0, 6, 102, 307.2652282714844
0, 6, 103, 308.0518493652344
0, 6, 104, 291.8869323730469
0, 6, 105, 301.28076171875
0, 6, 106, 307.1278686523438
0, 6, 107, 307.2144165039062
0, 6, 108, 267.0545043945312
0, 6, 109, 187.7096405029297
0, 6, 110, 56.52943420410156
0, 6, 111, 21.14290809631348
0, 6, 112, 12.01150512695312
0, 6, 113, 11.22318935394287
0, 6, 114, 14.16324043273926
0, 6, 115, 13.79492950439453
0, 6, 116, 8.808979988098145
0, 6, 117, 6.334124565124512
0, 6, 118, 12.66417503356934
0, 6, 119, 11.81008148193359
0, 6, 120, 6.843510150909424
0, 6, 121, 7.207249641418457
0, 6, 122, 6.83135461807251
0, 6, 123, 5.558091640472412
0, 6, 124, 6.683091163635254
0, 6, 125, 5.700217723846436
0, 6, 126, 4.536162376403809
0, 6, 127, 7.570538997650146
0, 7, 0, 3.995564222335815
0, 7, 1, 4.158127784729004
0, 7, 2, 5.813712120056152
0, 7, 3, 6.505262851715088
0, 7, 4, 2.894963264465332
0, 7, 5, 4.345736980438232
0, 7, 6, 5.758040904998779
0, 7, 7, 4.536738872528076
0, 7, 8, 7.127893924713135
0, 7, 9, 7.139393329620361
0, 7, 10, 10.99488067626953
0, 7, 11, 10.32950496673584
0, 7, 12, 11.43177509307861
0, 7, 13, 11.75696563720703
0, 7, 14, 10.48263168334961
0, 7, 15, 15.65000534057617
0, 7, 16, 27.97809410095215
0, 7, 17, 98.26580047607422
0, 7, 18, 217.7942504882812
0, 7, 19, 290.7860412597656
0, 7, 20, 295.8047180175781
0, 7, 21, 279.4031677246094
0, 7, 22, 299.9237060546875
0, 7, 23, 288.1419067382812
0, 7, 24, 313.8856506347656
0, 7, 25, 325.3674011230469
0, 7, 26, 278.0235900878906
0, 7, 27, 297.6098022460938
0, 7, 28, 326.7968444824219
0, 7, 29, 322.6718139648438
0, 7, 30, 301.0181884765625
0, 7, 31, 277.3921813964844
0, 7, 32, 304.5636901855469
0, 7, 33, 260.7952575683594
0, 7, 34, 297.8579406738281
0, 7, 35, 319.9257507324219
0, 7, 36, 331.6080017089844
0, 7, 37, 324.653564453125
0, 7, 38, 295.5966796875
0, 7, 39, 304.8358764648438
0, 7, 40, 290.6094970703125
0, 7, 41, 270.8141479492188
0, 7, 42, 303.93505859375
0, 7, 43, 278.396484375
0, 7, 44, 307.1756591796875
0, 7, 45, 294.7810974121094
0, 7, 46, 283.2557983398438
0, 7, 47, 329.22509765625
0, 7, 48, 287.3660583496094
0, 7, 49, 301.5126647949219
0, 7, 50, 321.0491027832031
0, 7, 51, 298.9082336425781
0, 7, 52, 327.5546569824219
0, 7, 53, 308.8961181640625
0, 7, 54, 324.5553894042969
0, 7, 55, 306.3037109375
0, 7, 56, 281.701171875
0, 7, 57, 282.9419250488281
0, 7, 58, 298.926513671875
0, 7, 59, 292.7011413574219
0, 7, 60, 321.9053955078125
0, 7, 61, 278.3857421875
0, 7, 62, 297.3684387207031
0, 7, 63, 294.0755004882812
0, 7, 64, 308.0065002441406
0, 7, 65, 333.2652893066406
0, 7, 66, 319.0481262207031
0, 7, 67, 300.614990234375
0, 7, 68, 279.4200134277344
0, 7, 69, 294.0092468261719
0, 7, 70, 300.6072692871094
0, 7, 71, 311.6305236816406
0, 7, 72, 284.1974487304688
0, 7, 73, 295.8130493164062
0, 7, 74, 343.7530822753906
0, 7, 75, 317.6760864257812
0, 7, 76, 323.1421508789062
0, 7, 77, 280.6766662597656
0, 7, 78, 298.3300476074219
0, 7, 79, 296.484130859375
0, 7, 80, 310.5800170898438
0, 7, 81, 322.8941040039062
0, 7, 82, 331.5724792480469
0, 7, 83, 320.4299621582031
0, 7, 84, 310.8059997558594
0, 7, 85, 271.5417785644531
0, 7, 86, 310.0867919921875
0, 7, 87, 311.3408813476562
0, 7, 88, 307.4755554199219
0, 7, 89, 295.2903137207031
0, 7, 90, 306.6889343261719
0, 7, 91, 312.8668823242188
0, 7, 92, 286.3231506347656
0, 7, 93, 309.1213989257812
0, 7, 94, 274.0577392578125
0, 7, 95, 297.3671875
0, 7, 96, 330.4263000488281
0, 7, 97, 295.2189636230469
0, 7, 98, 290.7428588867188
0, 7, 99, 312.3065490722656
0, 7, 100, 279.9196472167969
0, 7, 101, 275.2667846679688
0, 7, 102, 290.2127685546875
0, 7, 103, 290.9043884277344
0, 7, 104, 274.6777648925781
0, 7, 105, 305.1351318359375
0, 7, 106, 319.2839050292969
0, 7, 107, 298.5008544921875
0, 7, 108, 274.8133850097656
0, 7, 109, 237.8328247070312
0, 7, 110, 94.886474609375
0, 7, 111, 23.75677490234375
0, 7, 112, 13.81854438781738
0, 7, 113, 14.36894512176514
0, 7, 114, 12.60716819763184
0, 7, 115, 12.0921573638916
0, 7, 116, 11.5574426651001
0, 7, 117, 6.934298992156982
0, 7, 118, 6.183439254760742
0, 7, 119, 3.739461183547974
0, 7, 120, 5.212355613708496
0, 7, 121, 6.604671955108643
0, 7, 122, 6.947084903717041
0, 7, 123, 5.361044406890869
0, 7, 124, 3.518320083618164
0, 7, 125, 6.996534824371338
0, 7, 126, 9.746256828308105
0, 7, 127, 3.349881649017334
0, 8, 0, 5.817513942718506
0, 8, 1, 3.157743215560913
0, 8, 2, 2.549841403961182
0, 8, 3, 3.737069606781006
0, 8, 4, 4.604982376098633
0, 8, 5, 5.539718151092529
0, 8, 6, 6.970499515533447
0, 8, 7, 6.932254791259766
0, 8, 8, 7.754821300506592
0, 8, 9, 4.965962409973145
0, 8, 10, 6.348364353179932
0, 8, 11, 11.53108215332031
0, 8, 12, 13.56281852722168
0, 8, 13, 14.84640407562256
0, 8, 14, 11.71063137054443
0, 8, 15, 18.89146041870117
0, 8, 16, 31.85850715637207
0, 8, 17, 131.9767913818359
0, 8, 18, 241.6907806396484
0, 8, 19, 296.4513549804688
0, 8, 20, 285.5473022460938
0, 8, 21, 306.904052734375
0, 8, 22, 294.4876403808594
0, 8, 23, 275.8344421386719
0, 8, 24, 268.70947265625
0, 8, 25, 275.9129028320312
0, 8, 26, 306.1407165527344
0, 8, 27, 307.14453125
0, 8, 28, 303.571044921875
0, 8, 29, 320.8715515136719
0, 8, 30, 313.1642761230469
0, 8, 31, 304.3688659667969
0, 8, 32, 279.9573059082031
0, 8, 33, 295.0760192871094
0, 8, 34, 289.0821533203125
0, 8, 35, 280.9967651367188
0, 8, 36, 314.6198120117188
0, 8, 37, 339.302978515625
0, 8, 38, 330.9635009765625
0, 8, 39, 282.4341125488281
0, 8, 40, 304.741943359375
