# TOPAS Version: 3.1.p3
# Parameter File: batch_inserts_352.txt
# Results for scorer Readout_Adipose
# Scored in component: MyBox
# X in 1 bin  of 0.75 cm
# Y in 512 bins of 0.0783984 cm
# Z in 128 bins of 0.078125 cm
# EnergyDeposit ( MeV ) : Sum   
0, 0, 0, 4.79360818862915
0, 0, 1, 2.934263229370117
0, 0, 2, 5.86297082901001
0, 0, 3, 2.1034996509552
0, 0, 4, 3.334968090057373
0, 0, 5, 4.782315254211426
0, 0, 6, 5.320055961608887
0, 0, 7, 8.999733924865723
0, 0, 8, 3.18993616104126
0, 0, 9, 3.704060792922974
0, 0, 10, 6.977540493011475
0, 0, 11, 4.489245891571045
0, 0, 12, 5.793467044830322
0, 0, 13, 6.760178089141846
0, 0, 14, 8.028107643127441
0, 0, 15, 9.738572120666504
0, 0, 16, 8.49857234954834
0, 0, 17, 8.111407279968262
0, 0, 18, 14.25629901885986
0, 0, 19, 44.25844955444336
0, 0, 20, 139.4219055175781
0, 0, 21, 223.8970489501953
0, 0, 22, 248.4964294433594
0, 0, 23, 258.7092895507812
0, 0, 24, 253.9978485107422
0, 0, 25, 259.2088012695312
0, 0, 26, 236.8045043945312
0, 0, 27, 237.0914611816406
0, 0, 28, 274.0207214355469
0, 0, 29, 254.3336791992188
0, 0, 30, 231.9003448486328
0, 0, 31, 244.4800567626953
0, 0, 32, 263.7181701660156
0, 0, 33, 262.1611938476562
0, 0, 34, 287.3561096191406
0, 0, 35, 268.113037109375
0, 0, 36, 245.662841796875
0, 0, 37, 251.2438507080078
0, 0, 38, 268.4928283691406
0, 0, 39, 228.4562225341797
0, 0, 40, 243.8917999267578
0, 0, 41, 265.7627258300781
0, 0, 42, 229.7360382080078
0, 0, 43, 259.6076049804688
0, 0, 44, 250.1700592041016
0, 0, 45, 253.8493804931641
0, 0, 46, 245.602783203125
0, 0, 47, 252.4019927978516
0, 0, 48, 269.1397094726562
0, 0, 49, 275.646240234375
0, 0, 50, 250.7381591796875
0, 0, 51, 255.1931762695312
0, 0, 52, 274.3388977050781
0, 0, 53, 291.6763610839844
0, 0, 54, 245.2268524169922
0, 0, 55, 240.5611419677734
0, 0, 56, 276.719970703125
0, 0, 57, 261.5719909667969
0, 0, 58, 244.8246459960938
0, 0, 59, 271.5322570800781
0, 0, 60, 235.9034118652344
0, 0, 61, 244.4811859130859
0, 0, 62, 258.2552490234375
0, 0, 63, 266.8273010253906
0, 0, 64, 257.4773254394531
0, 0, 65, 261.1835021972656
0, 0, 66, 276.0264892578125
0, 0, 67, 245.5908508300781
0, 0, 68, 258.2589416503906
0, 0, 69, 261.0103759765625
0, 0, 70, 270.9249267578125
0, 0, 71, 236.5272979736328
0, 0, 72, 250.0893859863281
0, 0, 73, 256.7123413085938
0, 0, 74, 252.2523956298828
0, 0, 75, 239.7031555175781
0, 0, 76, 227.0749816894531
0, 0, 77, 261.0933837890625
0, 0, 78, 258.1529846191406
0, 0, 79, 279.9634094238281
0, 0, 80, 217.2770690917969
0, 0, 81, 267.3870239257812
0, 0, 82, 256.3554077148438
0, 0, 83, 246.5527801513672
0, 0, 84, 267.7904052734375
0, 0, 85, 230.6448669433594
0, 0, 86, 255.3149108886719
0, 0, 87, 250.5479888916016
0, 0, 88, 260.9285278320312
0, 0, 89, 282.7088012695312
0, 0, 90, 242.8181457519531
0, 0, 91, 280.8045349121094
0, 0, 92, 254.2948455810547
0, 0, 93, 248.4995574951172
0, 0, 94, 251.1639556884766
0, 0, 95, 248.9150848388672
0, 0, 96, 274.9199523925781
0, 0, 97, 271.8180541992188
0, 0, 98, 272.2272033691406
0, 0, 99, 258.5707092285156
0, 0, 100, 258.93896484375
0, 0, 101, 225.6989898681641
0, 0, 102, 233.6011657714844
0, 0, 103, 271.4312133789062
0, 0, 104, 254.2740020751953
0, 0, 105, 253.587646484375
0, 0, 106, 248.8934631347656
0, 0, 107, 154.0286254882812
0, 0, 108, 39.26697540283203
0, 0, 109, 15.12734127044678
0, 0, 110, 12.22373485565186
0, 0, 111, 11.46651649475098
0, 0, 112, 7.51042652130127
0, 0, 113, 5.046195507049561
0, 0, 114, 6.421051979064941
0, 0, 115, 5.079389095306396
0, 0, 116, 5.102955341339111
0, 0, 117, 5.569284439086914
0, 0, 118, 6.558139324188232
0, 0, 119, 8.12307071685791
0, 0, 120, 3.813073635101318
0, 0, 121, 3.804718732833862
0, 0, 122, 5.170233726501465
0, 0, 123, 4.329883098602295
0, 0, 124, 8.29371166229248
0, 0, 125, 3.148382902145386
0, 0, 126, 3.844381332397461
0, 0, 127, 3.19060206413269
0, 1, 0, 9.75554084777832
0, 1, 1, 3.100193738937378
0, 1, 2, 3.605275869369507
0, 1, 3, 1.4571533203125
0, 1, 4, 2.466671466827393
0, 1, 5, 2.206268310546875
0, 1, 6, 3.12103796005249
0, 1, 7, 4.467504024505615
0, 1, 8, 7.458946704864502
0, 1, 9, 3.829537153244019
0, 1, 10, 5.902577877044678
0, 1, 11, 11.61632251739502
0, 1, 12, 8.212189674377441
0, 1, 13, 10.58113765716553
0, 1, 14, 7.676515102386475
0, 1, 15, 7.297347068786621
0, 1, 16, 13.4132776260376
0, 1, 17, 10.77596664428711
0, 1, 18, 20.55953025817871
0, 1, 19, 66.13135528564453
0, 1, 20, 197.7518157958984
0, 1, 21, 254.9014892578125
0, 1, 22, 296.1654357910156
0, 1, 23, 282.1785278320312
0, 1, 24, 275.8721008300781
0, 1, 25, 286.9453735351562
0, 1, 26, 268.5242309570312
0, 1, 27, 307.1411743164062
0, 1, 28, 299.5288391113281
0, 1, 29, 295.7026977539062
0, 1, 30, 282.7953186035156
0, 1, 31, 291.7559814453125
0, 1, 32, 290.4056091308594
0, 1, 33, 296.0201416015625
0, 1, 34, 291.9267883300781
0, 1, 35, 277.9826354980469
0, 1, 36, 308.3773498535156
0, 1, 37, 295.10205078125
0, 1, 38, 283.0693969726562
0, 1, 39, 294.3146057128906
0, 1, 40, 265.4393920898438
0, 1, 41, 286.7691650390625
0, 1, 42, 289.0987548828125
0, 1, 43, 334.190673828125
0, 1, 44, 278.8084716796875
0, 1, 45, 292.2928771972656
0, 1, 46, 258.1510009765625
0, 1, 47, 309.5069885253906
0, 1, 48, 285.1490783691406
0, 1, 49, 301.7070617675781
0, 1, 50, 263.3677978515625
0, 1, 51, 272.6035766601562
0, 1, 52, 294.8179016113281
0, 1, 53, 305.9546813964844
0, 1, 54, 273.0304565429688
0, 1, 55, 293.7220458984375
0, 1, 56, 277.9054565429688
0, 1, 57, 298.0107727050781
0, 1, 58, 310.9124145507812
0, 1, 59, 294.0528564453125
0, 1, 60, 297.0530395507812
0, 1, 61, 274.1914367675781
0, 1, 62, 309.7845764160156
0, 1, 63, 284.8910522460938
0, 1, 64, 289.3278503417969
0, 1, 65, 293.8954772949219
0, 1, 66, 292.5553894042969
0, 1, 67, 291.2009582519531
0, 1, 68, 278.5891723632812
0, 1, 69, 280.9523620605469
0, 1, 70, 268.9725341796875
0, 1, 71, 273.6639099121094
0, 1, 72, 287.9022521972656
0, 1, 73, 305.6471862792969
0, 1, 74, 302.1519470214844
0, 1, 75, 292.6683959960938
0, 1, 76, 286.9547424316406
0, 1, 77, 288.1670227050781
0, 1, 78, 296.5509643554688
0, 1, 79, 299.5823669433594
0, 1, 80, 295.7558898925781
0, 1, 81, 300.9652099609375
0, 1, 82, 286.618408203125
0, 1, 83, 333.0645141601562
0, 1, 84, 311.536865234375
0, 1, 85, 252.7239532470703
0, 1, 86, 294.1910400390625
0, 1, 87, 290.5039978027344
0, 1, 88, 298.79443359375
0, 1, 89, 290.8563232421875
0, 1, 90, 269.7772827148438
0, 1, 91, 316.642333984375
0, 1, 92, 291.7894287109375
0, 1, 93, 286.4009094238281
0, 1, 94, 303.7952880859375
0, 1, 95, 284.7210083007812
0, 1, 96, 283.4718017578125
0, 1, 97, 302.7938232421875
0, 1, 98, 278.9307250976562
0, 1, 99, 266.9586181640625
0, 1, 100, 276.6411437988281
0, 1, 101, 284.2169189453125
0, 1, 102, 280.0851135253906
0, 1, 103, 280.7922973632812
0, 1, 104, 308.7458190917969
0, 1, 105, 297.33154296875
0, 1, 106, 262.0859069824219
0, 1, 107, 191.6395568847656
0, 1, 108, 84.78996276855469
0, 1, 109, 23.85973739624023
0, 1, 110, 11.0474157333374
0, 1, 111, 8.005099296569824
0, 1, 112, 12.99603939056396
0, 1, 113, 5.37190055847168
0, 1, 114, 5.519330501556396
0, 1, 115, 5.35736083984375
0, 1, 116, 14.80893421173096
0, 1, 117, 6.427873134613037
0, 1, 118, 4.855223655700684
0, 1, 119, 13.26056003570557
0, 1, 120, 6.773146629333496
0, 1, 121, 6.777529239654541
0, 1, 122, 4.803611755371094
0, 1, 123, 5.755637645721436
0, 1, 124, 7.484749794006348
0, 1, 125, 3.310519933700562
0, 1, 126, 1.444675803184509
0, 1, 127, 3.8270103931427
0, 2, 0, 4.265494346618652
0, 2, 1, 1.621976375579834
0, 2, 2, 4.598565578460693
0, 2, 3, 4.829501628875732
0, 2, 4, 3.450058937072754
0, 2, 5, 2.121071815490723
0, 2, 6, 1.867618203163147
0, 2, 7, 3.288353681564331
0, 2, 8, 5.559139728546143
0, 2, 9, 5.685485363006592
0, 2, 10, 7.486498355865479
0, 2, 11, 6.825597286224365
0, 2, 12, 8.167232513427734
0, 2, 13, 9.569217681884766
0, 2, 14, 10.08627796173096
0, 2, 15, 8.579988479614258
0, 2, 16, 9.846622467041016
0, 2, 17, 16.56347465515137
0, 2, 18, 32.78507232666016
0, 2, 19, 116.0410766601562
0, 2, 20, 244.7701416015625
0, 2, 21, 271.335205078125
0, 2, 22, 314.8533935546875
0, 2, 23, 303.5870361328125
0, 2, 24, 286.5616149902344
0, 2, 25, 303.3663635253906
0, 2, 26, 293.051025390625
0, 2, 27, 275.3956298828125
0, 2, 28, 271.5966796875
0, 2, 29, 277.102294921875
0, 2, 30, 291.3989868164062
0, 2, 31, 276.0241088867188
0, 2, 32, 293.9058837890625
0, 2, 33, 282.081787109375
0, 2, 34, 335.2264099121094
0, 2, 35, 289.2083129882812
0, 2, 36, 302.162109375
0, 2, 37, 317.2414855957031
0, 2, 38, 309.5115051269531
0, 2, 39, 265.9635314941406
0, 2, 40, 308.4450378417969
0, 2, 41, 292.3870239257812
0, 2, 42, 304.2314758300781
0, 2, 43, 314.7853698730469
0, 2, 44, 313.0462646484375
0, 2, 45, 325.8292846679688
0, 2, 46, 285.7759704589844
0, 2, 47, 302.4223022460938
0, 2, 48, 281.7397155761719
0, 2, 49, 280.5666809082031
0, 2, 50, 297.9586791992188
0, 2, 51, 285.3713989257812
0, 2, 52, 272.8467407226562
0, 2, 53, 287.4963684082031
0, 2, 54, 279.0918884277344
0, 2, 55, 275.8068542480469
0, 2, 56, 302.7429504394531
0, 2, 57, 292.6394348144531
0, 2, 58, 305.3548278808594
0, 2, 59, 290.2597961425781
0, 2, 60, 317.7441711425781
0, 2, 61, 303.6563415527344
0, 2, 62, 310.954345703125
0, 2, 63, 302.7615051269531
0, 2, 64, 296.6060791015625
0, 2, 65, 315.2374572753906
0, 2, 66, 282.6112670898438
0, 2, 67, 292.1756591796875
0, 2, 68, 296.1728820800781
0, 2, 69, 309.5215454101562
0, 2, 70, 334.9400329589844
0, 2, 71, 286.817626953125
0, 2, 72, 299.8859558105469
0, 2, 73, 312.6138000488281
0, 2, 74, 287.2269897460938
0, 2, 75, 309.09716796875
0, 2, 76, 287.2910461425781
0, 2, 77, 299.2219543457031
0, 2, 78, 315.360595703125
0, 2, 79, 311.048828125
0, 2, 80, 295.6435852050781
0, 2, 81, 282.9326477050781
0, 2, 82, 318.6260070800781
0, 2, 83, 312.6806945800781
0, 2, 84, 289.8637390136719
0, 2, 85, 282.5370788574219
0, 2, 86, 323.5815124511719
0, 2, 87, 286.012451171875
0, 2, 88, 280.3086853027344
0, 2, 89, 296.4057006835938
0, 2, 90, 295.0553283691406
0, 2, 91, 278.0285949707031
0, 2, 92, 304.7142333984375
0, 2, 93, 316.1746826171875
0, 2, 94, 291.1553039550781
0, 2, 95, 315.2674255371094
0, 2, 96, 316.081787109375
0, 2, 97, 290.7494201660156
0, 2, 98, 292.3926086425781
0, 2, 99, 273.3024291992188
0, 2, 100, 306.8249816894531
0, 2, 101, 302.3174438476562
0, 2, 102, 297.5204467773438
0, 2, 103, 290.7116088867188
0, 2, 104, 293.7041625976562
0, 2, 105, 274.7142944335938
0, 2, 106, 295.6103210449219
0, 2, 107, 270.7139892578125
0, 2, 108, 115.8591995239258
0, 2, 109, 34.87533187866211
0, 2, 110, 9.618436813354492
0, 2, 111, 10.46252346038818
0, 2, 112, 9.19156551361084
0, 2, 113, 12.78523540496826
0, 2, 114, 10.52734470367432
0, 2, 115, 10.10569477081299
0, 2, 116, 8.510014533996582
0, 2, 117, 6.282278060913086
0, 2, 118, 2.216275930404663
0, 2, 119, 3.475664615631104
0, 2, 120, 5.832790374755859
0, 2, 121, 3.052255630493164
0, 2, 122, 4.465346336364746
0, 2, 123, 4.525441646575928
0, 2, 124, 2.232528686523438
0, 2, 125, 4.498569011688232
0, 2, 126, 2.098378896713257
0, 2, 127, 4.164539337158203
0, 3, 0, 2.787165880203247
0, 3, 1, 2.923669576644897
0, 3, 2, 2.968496799468994
0, 3, 3, 1.883687734603882
0, 3, 4, 5.674826622009277
0, 3, 5, 6.959862232208252
0, 3, 6, 8.007429122924805
0, 3, 7, 5.094485282897949
0, 3, 8, 5.906844139099121
0, 3, 9, 4.929836273193359
0, 3, 10, 5.262335300445557
0, 3, 11, 4.270834445953369
0, 3, 12, 8.284317016601562
0, 3, 13, 18.88748359680176
0, 3, 14, 13.01127147674561
0, 3, 15, 14.7101354598999
0, 3, 16, 10.87987518310547
0, 3, 17, 19.66686058044434
0, 3, 18, 51.80929183959961
0, 3, 19, 177.3829040527344
0, 3, 20, 271.5585632324219
0, 3, 21, 270.1383056640625
0, 3, 22, 282.2312927246094
0, 3, 23, 286.6448059082031
0, 3, 24, 286.638671875
0, 3, 25, 269.7350158691406
0, 3, 26, 303.61328125
0, 3, 27, 292.0249633789062
0, 3, 28, 282.2807006835938
0, 3, 29, 337.1481628417969
0, 3, 30, 318.7853088378906
0, 3, 31, 284.8092346191406
0, 3, 32, 306.8797607421875
0, 3, 33, 314.0314636230469
0, 3, 34, 321.4749755859375
0, 3, 35, 308.6330261230469
0, 3, 36, 271.7102966308594
0, 3, 37, 313.9886474609375
0, 3, 38, 307.4362182617188
0, 3, 39, 291.4627990722656
0, 3, 40, 265.6102600097656
0, 3, 41, 298.1020202636719
0, 3, 42, 288.2798767089844
0, 3, 43, 306.1845397949219
0, 3, 44, 311.4353332519531
0, 3, 45, 289.7026672363281
0, 3, 46, 329.7701110839844
0, 3, 47, 298.8009643554688
0, 3, 48, 301.8619689941406
0, 3, 49, 276.5543518066406
0, 3, 50, 289.0095520019531
0, 3, 51, 275.6664428710938
0, 3, 52, 317.3178405761719
0, 3, 53, 288.9862670898438
0, 3, 54, 286.0599365234375
0, 3, 55, 283.0245971679688
0, 3, 56, 298.2022705078125
0, 3, 57, 289.1938171386719
0, 3, 58, 307.1626892089844
0, 3, 59, 296.6198120117188
0, 3, 60, 298.569091796875
0, 3, 61, 266.8651428222656
0, 3, 62, 285.6970825195312
0, 3, 63, 308.1690979003906
0, 3, 64, 317.3630981445312
0, 3, 65, 308.69384765625
0, 3, 66, 315.3537292480469
0, 3, 67, 319.0319519042969
0, 3, 68, 280.7648315429688
0, 3, 69, 281.2626037597656
0, 3, 70, 290.5126037597656
0, 3, 71, 296.2086791992188
0, 3, 72, 270.5234069824219
0, 3, 73, 307.8708801269531
0, 3, 74, 293.9896545410156
0, 3, 75, 289.7521362304688
0, 3, 76, 307.9248352050781
0, 3, 77, 313.8310546875
0, 3, 78, 304.7468872070312
0, 3, 79, 282.1842651367188
0, 3, 80, 290.4210510253906
0, 3, 81, 311.7611389160156
0, 3, 82, 318.232666015625
0, 3, 83, 299.7909851074219
0, 3, 84, 311.3372192382812
0, 3, 85, 291.310546875
0, 3, 86, 301.54150390625
0, 3, 87, 297.3072814941406
0, 3, 88, 298.5134887695312
0, 3, 89, 297.3966979980469
0, 3, 90, 276.6765441894531
0, 3, 91, 283.3560485839844
0, 3, 92, 304.2588806152344
0, 3, 93, 313.3581237792969
0, 3, 94, 298.2017211914062
0, 3, 95, 334.7095947265625
0, 3, 96, 294.5182800292969
0, 3, 97, 281.5686645507812
0, 3, 98, 281.2431945800781
0, 3, 99, 263.2399597167969
0, 3, 100, 284.69140625
0, 3, 101, 297.5243530273438
0, 3, 102, 277.4822082519531
0, 3, 103, 320.5712280273438
0, 3, 104, 307.7870788574219
0, 3, 105, 288.7060241699219
0, 3, 106, 303.9432373046875
0, 3, 107, 282.4797058105469
0, 3, 108, 168.6641998291016
0, 3, 109, 58.33482360839844
0, 3, 110, 17.77371597290039
0, 3, 111, 12.58371067047119
0, 3, 112, 13.04012966156006
0, 3, 113, 7.38155460357666
0, 3, 114, 12.90098094940186
0, 3, 115, 9.895825386047363
0, 3, 116, 7.739054203033447
0, 3, 117, 6.050556182861328
0, 3, 118, 9.87017822265625
0, 3, 119, 6.051342964172363
0, 3, 120, 3.851686477661133
0, 3, 121, 2.960882425308228
0, 3, 122, 3.209385633468628
0, 3, 123, 4.677598476409912
0, 3, 124, 3.53514838218689
0, 3, 125, 7.10149097442627
0, 3, 126, 4.091672420501709
0, 3, 127, 2.522341728210449
0, 4, 0, 4.918582916259766
0, 4, 1, 4.897838592529297
0, 4, 2, 3.208309412002563
0, 4, 3, 2.743318557739258
0, 4, 4, 6.811444282531738
0, 4, 5, 10.90681552886963
0, 4, 6, 6.784398078918457
0, 4, 7, 5.536044597625732
0, 4, 8, 4.839747905731201
0, 4, 9, 8.006961822509766
0, 4, 10, 7.252754211425781
0, 4, 11, 6.237390041351318
0, 4, 12, 8.544076919555664
0, 4, 13, 8.161606788635254
0, 4, 14, 10.63332366943359
0, 4, 15, 10.29714107513428
0, 4, 16, 14.73271751403809
0, 4, 17, 17.1212215423584
0, 4, 18, 92.5399169921875
0, 4, 19, 221.9638671875
0, 4, 20, 284.1671752929688
0, 4, 21, 272.2974853515625
0, 4, 22, 305.4568481445312
0, 4, 23, 265.3248291015625
0, 4, 24, 289.1474304199219
0, 4, 25, 272.9582214355469
0, 4, 26, 294.0158386230469
0, 4, 27, 281.3006896972656
0, 4, 28, 307.9328918457031
0, 4, 29, 322.7917175292969
0, 4, 30, 311.3318176269531
0, 4, 31, 305.1630859375
0, 4, 32, 282.4008483886719
0, 4, 33, 294.6568603515625
0, 4, 34, 297.6115417480469
0, 4, 35, 312.1015930175781
0, 4, 36, 293.4805297851562
0, 4, 37, 290.3873596191406
0, 4, 38, 299.5985717773438
0, 4, 39, 294.5510559082031
0, 4, 40, 303.1055603027344
0, 4, 41, 310.7214660644531
0, 4, 42, 327.9736328125
0, 4, 43, 296.3887329101562
0, 4, 44, 320.90673828125
0, 4, 45, 327.9728698730469
0, 4, 46, 307.2240600585938
0, 4, 47, 293.814453125
0, 4, 48, 296.2877502441406
0, 4, 49, 279.0866394042969
0, 4, 50, 298.0523376464844
0, 4, 51, 317.28271484375
0, 4, 52, 326.9762878417969
0, 4, 53, 302.7888793945312
0, 4, 54, 287.1957092285156
0, 4, 55, 316.4933166503906
0, 4, 56, 287.9853210449219
0, 4, 57, 310.2026977539062
0, 4, 58, 294.6800537109375
0, 4, 59, 306.7427673339844
0, 4, 60, 303.159912109375
0, 4, 61, 316.3342590332031
0, 4, 62, 306.6868286132812
0, 4, 63, 301.0944519042969
0, 4, 64, 329.6542358398438
0, 4, 65, 315.0208435058594
0, 4, 66, 294.0232849121094
0, 4, 67, 284.9022216796875
0, 4, 68, 312.8454895019531
0, 4, 69, 276.5613708496094
0, 4, 70, 299.3921508789062
0, 4, 71, 321.0119018554688
0, 4, 72, 332.6387634277344
0, 4, 73, 297.5107116699219
0, 4, 74, 292.2542419433594
0, 4, 75, 289.0105285644531
0, 4, 76, 275.3591918945312
0, 4, 77, 277.3554382324219
0, 4, 78, 309.6344604492188
0, 4, 79, 318.2196655273438
0, 4, 80, 314.5550231933594
0, 4, 81, 315.0874633789062
0, 4, 82, 297.9712524414062
0, 4, 83, 300.1895751953125
0, 4, 84, 296.1719055175781
0, 4, 85, 295.1297912597656
0, 4, 86, 299.3336486816406
0, 4, 87, 288.1903076171875
0, 4, 88, 305.9392395019531
0, 4, 89, 295.275390625
0, 4, 90, 333.0974731445312
0, 4, 91, 303.3820190429688
0, 4, 92, 289.3086853027344
0, 4, 93, 296.59228515625
0, 4, 94, 293.4390258789062
0, 4, 95, 289.8329772949219
0, 4, 96, 322.0785217285156
0, 4, 97, 272.721923828125
0, 4, 98, 326.5615844726562
0, 4, 99, 314.7482299804688
0, 4, 100, 301.6521301269531
0, 4, 101, 256.9674377441406
0, 4, 102, 296.1244506835938
0, 4, 103, 317.3863830566406
0, 4, 104, 280.6550903320312
0, 4, 105, 312.1475830078125
0, 4, 106, 287.6863708496094
0, 4, 107, 293.5877075195312
0, 4, 108, 225.8885192871094
0, 4, 109, 83.14267730712891
0, 4, 110, 17.06972122192383
0, 4, 111, 15.23645401000977
0, 4, 112, 9.673793792724609
0, 4, 113, 8.883362770080566
0, 4, 114, 10.67710113525391
0, 4, 115, 8.445193290710449
0, 4, 116, 8.140933036804199
0, 4, 117, 6.682734489440918
0, 4, 118, 12.08304214477539
0, 4, 119, 12.39120197296143
0, 4, 120, 7.904633045196533
0, 4, 121, 6.441923141479492
0, 4, 122, 6.776190280914307
0, 4, 123, 6.530086517333984
0, 4, 124, 6.990826606750488
0, 4, 125, 9.145078659057617
0, 4, 126, 5.875329494476318
0, 4, 127, 4.044928550720215
0, 5, 0, 3.348079681396484
0, 5, 1, 3.144845008850098
0, 5, 2, 5.468503475189209
0, 5, 3, 5.873050689697266
0, 5, 4, 5.619469165802002
0, 5, 5, 4.532052516937256
0, 5, 6, 6.649145603179932
0, 5, 7, 4.680575370788574
0, 5, 8, 4.214008808135986
0, 5, 9, 5.70752477645874
0, 5, 10, 9.256421089172363
0, 5, 11, 7.631747722625732
0, 5, 12, 9.447912216186523
0, 5, 13, 4.292632102966309
0, 5, 14, 12.41893482208252
0, 5, 15, 18.06966590881348
0, 5, 16, 13.51661491394043
0, 5, 17, 28.75384712219238
0, 5, 18, 137.3991088867188
0, 5, 19, 288.2433166503906
0, 5, 20, 306.5899658203125
0, 5, 21, 316.545166015625
0, 5, 22, 275.8643188476562
0, 5, 23, 311.39599609375
0, 5, 24, 302.2195739746094
0, 5, 25, 287.8333129882812
0, 5, 26, 294.8229064941406
0, 5, 27, 322.4074096679688
0, 5, 28, 301.939453125
0, 5, 29, 299.4506530761719
0, 5, 30, 326.1712341308594
0, 5, 31, 286.7801818847656
0, 5, 32, 306.4651794433594
0, 5, 33, 303.5098571777344
0, 5, 34, 297.718017578125
0, 5, 35, 308.3472595214844
0, 5, 36, 270.7522888183594
0, 5, 37, 281.9487915039062
0, 5, 38, 291.1767578125
0, 5, 39, 311.0528869628906
0, 5, 40, 308.78955078125
0, 5, 41, 274.6374206542969
0, 5, 42, 306.8597106933594
0, 5, 43, 315.9011535644531
0, 5, 44, 292.337158203125
0, 5, 45, 305.7537841796875
0, 5, 46, 263.9212646484375
0, 5, 47, 281.1029968261719
0, 5, 48, 294.0023803710938
0, 5, 49, 287.44580078125
0, 5, 50, 294.0196838378906
0, 5, 51, 278
0, 5, 52, 269.3235778808594
0, 5, 53, 283.7362365722656
0, 5, 54, 291.8657531738281
0, 5, 55, 343.9811401367188
0, 5, 56, 306.4564819335938
0, 5, 57, 309.0680541992188
0, 5, 58, 312.0248718261719
0, 5, 59, 302.4878845214844
0, 5, 60, 306.1566467285156
0, 5, 61, 281.3800354003906
0, 5, 62, 328.488037109375
0, 5, 63, 291.8467712402344
0, 5, 64, 324.3092041015625
0, 5, 65, 307.3257751464844
0, 5, 66, 327.2906494140625
0, 5, 67, 311.2156982421875
0, 5, 68, 308.4573669433594
0, 5, 69, 310.8306274414062
0, 5, 70, 300.5787353515625
0, 5, 71, 272.6783142089844
0, 5, 72, 309.0980529785156
0, 5, 73, 304.9403991699219
0, 5, 74, 296.0696716308594
0, 5, 75, 292.5353393554688
0, 5, 76, 284.2366638183594
0, 5, 77, 300.0849914550781
0, 5, 78, 315.9968872070312
0, 5, 79, 308.1843566894531
0, 5, 80, 295.1601257324219
0, 5, 81, 324.801025390625
0, 5, 82, 324.6419982910156
0, 5, 83, 280.4278259277344
0, 5, 84, 302.2474365234375
0, 5, 85, 270.3731994628906
0, 5, 86, 326.256591796875
0, 5, 87, 281.869873046875
0, 5, 88, 313.6318969726562
0, 5, 89, 304.3029479980469
0, 5, 90, 315.319091796875
0, 5, 91, 312.9693603515625
0, 5, 92, 297.60595703125
0, 5, 93, 322.3951110839844
0, 5, 94, 307.9578247070312
0, 5, 95, 295.7133483886719
0, 5, 96, 299.8009033203125
0, 5, 97, 295.7613830566406
0, 5, 98, 318.6902160644531
0, 5, 99, 303.5167236328125
0, 5, 100, 290.99951171875
0, 5, 101, 307.1949768066406
0, 5, 102, 293.7113647460938
0, 5, 103, 311.998779296875
0, 5, 104, 303.4288940429688
0, 5, 105, 291.6725463867188
0, 5, 106, 284.5443115234375
0, 5, 107, 292.032470703125
0, 5, 108, 265.2799072265625
0, 5, 109, 156.2034912109375
0, 5, 110, 39.82304763793945
0, 5, 111, 22.23070335388184
0, 5, 112, 16.80754852294922
0, 5, 113, 14.71240901947021
0, 5, 114, 15.96836566925049
0, 5, 115, 9.231682777404785
0, 5, 116, 9.638381958007812
0, 5, 117, 8.104196548461914
0, 5, 118, 13.38544464111328
0, 5, 119, 5.195920944213867
0, 5, 120, 5.747962474822998
0, 5, 121, 4.113775253295898
0, 5, 122, 4.659762859344482
0, 5, 123, 5.687338352203369
0, 5, 124, 6.3099684715271
0, 5, 125, 5.411636352539062
0, 5, 126, 6.231415748596191
0, 5, 127, 3.336705207824707
0, 6, 0, 5.178231716156006
0, 6, 1, 4.098870277404785
0, 6, 2, 6.170958042144775
0, 6, 3, 6.387075901031494
0, 6, 4, 4.854941368103027
0, 6, 5, 4.246863842010498
0, 6, 6, 9.014607429504395
0, 6, 7, 6.660880565643311
0, 6, 8, 8.420526504516602
0, 6, 9, 5.600206851959229
0, 6, 10, 7.82988166809082
0, 6, 11, 9.522819519042969
0, 6, 12, 7.507815361022949
0, 6, 13, 13.42012023925781
0, 6, 14, 8.174839973449707
0, 6, 15, 17.12935066223145
0, 6, 16, 26.9453296661377
0, 6, 17, 56.73328399658203
0, 6, 18, 174.3803253173828
0, 6, 19, 277.1351928710938
0, 6, 20, 291.451416015625
0, 6, 21, 313.341064453125
0, 6, 22, 319.5162353515625
0, 6, 23, 308.1820068359375
0, 6, 24, 316.6636352539062
0, 6, 25, 316.9749145507812
0, 6, 26, 320.0055541992188
0, 6, 27, 331.3180541992188
0, 6, 28, 295.09814453125
0, 6, 29, 328.3647155761719
0, 6, 30, 283.6044616699219
0, 6, 31, 285.7575988769531
0, 6, 32, 340.6446838378906
0, 6, 33, 301.9988708496094
0, 6, 34, 341.5224304199219
0, 6, 35, 320.6686096191406
0, 6, 36, 275.1577453613281
0, 6, 37, 289.6323547363281
0, 6, 38, 309.3659362792969
0, 6, 39, 298.0552368164062
0, 6, 40, 284.6513977050781
0, 6, 41, 293.9940795898438
0, 6, 42, 304.9487915039062
0, 6, 43, 289.1461181640625
0, 6, 44, 280.9050903320312
0, 6, 45, 320.2878723144531
0, 6, 46, 302.402587890625
0, 6, 47, 333.3418273925781
0, 6, 48, 292.9427185058594
0, 6, 49, 311.0330505371094
0, 6, 50, 329.1552124023438
0, 6, 51, 312.8245544433594
0, 6, 52, 321.3656311035156
0, 6, 53, 328.0990905761719
0, 6, 54, 302.40771484375
0, 6, 55, 304.1195373535156
0, 6, 56, 291.9718017578125
0, 6, 57, 315.8146667480469
0, 6, 58, 262.0528259277344
0, 6, 59, 303.1117248535156
0, 6, 60, 312.6920166015625
0, 6, 61, 273.5610961914062
0, 6, 62, 336.0241394042969
0, 6, 63, 324.1994018554688
0, 6, 64, 296.220947265625
0, 6, 65, 286.0621337890625
0, 6, 66, 303.8200378417969
0, 6, 67, 310.4185180664062
0, 6, 68, 293.8172912597656
0, 6, 69, 280.3241577148438
0, 6, 70, 273.8904724121094
0, 6, 71, 288.7342529296875
0, 6, 72, 310.2532653808594
0, 6, 73, 294.0339660644531
0, 6, 74, 329.80029296875
0, 6, 75, 344.2640686035156
0, 6, 76, 297.246337890625
0, 6, 77, 286.2264099121094
0, 6, 78, 284.301025390625
0, 6, 79, 295.8382263183594
0, 6, 80, 299.5978088378906
0, 6, 81, 314.9447326660156
0, 6, 82, 316.5894775390625
0, 6, 83, 319.685546875
0, 6, 84, 297.197509765625
0, 6, 85, 300.6648254394531
0, 6, 86, 329.2592468261719
0, 6, 87, 292.623046875
0, 6, 88, 306.1000366210938
0, 6, 89, 305.7415161132812
0, 6, 90, 300.2172546386719
0, 6, 91, 312.4717102050781
0, 6, 92, 283.7431030273438
0, 6, 93, 298.1713562011719
0, 6, 94, 273.5393676757812
0, 6, 95, 300.7734069824219
0, 6, 96, 347.7671203613281
0, 6, 97, 309.0963439941406
0, 6, 98, 300.1363830566406
0, 6, 99, 272.2278747558594
0, 6, 100, 308.2294921875
0, 6, 101, 292.8962707519531
0, 6, 102, 311.1611022949219
0, 6, 103, 306.8992614746094
0, 6, 104, 292.8348083496094
0, 6, 105, 302.9472351074219
0, 6, 106, 308.8832092285156
0, 6, 107, 306.0283813476562
0, 6, 108, 266.62548828125
0, 6, 109, 184.9845275878906
0, 6, 110, 56.95641708374023
0, 6, 111, 22.98711013793945
0, 6, 112, 13.31278419494629
0, 6, 113, 12.86183738708496
0, 6, 114, 13.38712501525879
0, 6, 115, 13.35745811462402
0, 6, 116, 9.24354362487793
0, 6, 117, 5.962440490722656
0, 6, 118, 8.381377220153809
0, 6, 119, 6.012945175170898
0, 6, 120, 5.210427284240723
0, 6, 121, 6.56452751159668
0, 6, 122, 6.284723281860352
0, 6, 123, 4.381878852844238
0, 6, 124, 7.235649585723877
0, 6, 125, 6.547526836395264
0, 6, 126, 4.779867172241211
0, 6, 127, 8.33786678314209
0, 7, 0, 4.576708793640137
0, 7, 1, 3.819464683532715
0, 7, 2, 5.579745769500732
0, 7, 3, 4.099020957946777
0, 7, 4, 3.953442573547363
0, 7, 5, 5.743868350982666
0, 7, 6, 6.59684419631958
0, 7, 7, 4.66542387008667
0, 7, 8, 4.5789794921875
0, 7, 9, 5.470271587371826
0, 7, 10, 8.463836669921875
0, 7, 11, 9.922783851623535
0, 7, 12, 9.933314323425293
0, 7, 13, 14.73765277862549
0, 7, 14, 10.79010391235352
0, 7, 15, 16.44562911987305
0, 7, 16, 25.62388801574707
0, 7, 17, 96.83307647705078
0, 7, 18, 218.8727722167969
0, 7, 19, 289.4276733398438
0, 7, 20, 296.528564453125
0, 7, 21, 275.3318786621094
0, 7, 22, 300.0215454101562
0, 7, 23, 288.9429931640625
0, 7, 24, 313.1763916015625
0, 7, 25, 324.2043151855469
0, 7, 26, 276.6105651855469
0, 7, 27, 297.0644836425781
0, 7, 28, 325.3365173339844
0, 7, 29, 318.0631408691406
0, 7, 30, 301.412841796875
0, 7, 31, 276.8492126464844
0, 7, 32, 305.7663879394531
0, 7, 33, 262.4093627929688
0, 7, 34, 298.8521118164062
0, 7, 35, 317.2895202636719
0, 7, 36, 331.1177673339844
0, 7, 37, 324.4490661621094
0, 7, 38, 296.8977661132812
0, 7, 39, 304.6657104492188
0, 7, 40, 287.3158264160156
0, 7, 41, 274.1622314453125
0, 7, 42, 302.0728454589844
0, 7, 43, 275.1048583984375
0, 7, 44, 303.8581237792969
0, 7, 45, 293.9810791015625
0, 7, 46, 280.3359680175781
0, 7, 47, 329.0284118652344
0, 7, 48, 286.197509765625
0, 7, 49, 305.2570495605469
0, 7, 50, 320.5663452148438
0, 7, 51, 298.6272888183594
0, 7, 52, 325.4110412597656
0, 7, 53, 312.5795593261719
0, 7, 54, 325.5836181640625
0, 7, 55, 308.4790954589844
0, 7, 56, 278.568115234375
0, 7, 57, 280.8583374023438
0, 7, 58, 294.7533264160156
0, 7, 59, 296.8602905273438
0, 7, 60, 321.754638671875
0, 7, 61, 277.1633605957031
0, 7, 62, 295.7948303222656
0, 7, 63, 291.2765197753906
0, 7, 64, 306.0520324707031
0, 7, 65, 329.9128723144531
0, 7, 66, 317.1454467773438
0, 7, 67, 303.5322875976562
0, 7, 68, 281.27978515625
0, 7, 69, 294.4080505371094
0, 7, 70, 303.49755859375
0, 7, 71, 308.1800231933594
0, 7, 72, 283.7598571777344
0, 7, 73, 297.1698913574219
0, 7, 74, 345.5956726074219
0, 7, 75, 319.1654663085938
0, 7, 76, 324.91943359375
0, 7, 77, 279.1601867675781
0, 7, 78, 299.7889099121094
0, 7, 79, 296.6072082519531
0, 7, 80, 312.6513671875
0, 7, 81, 318.0154418945312
0, 7, 82, 329.6719360351562
0, 7, 83, 319.6476135253906
0, 7, 84, 309.0987854003906
0, 7, 85, 271.7457580566406
0, 7, 86, 311.4468688964844
0, 7, 87, 309.5111999511719
0, 7, 88, 307.2174987792969
0, 7, 89, 296.6135559082031
0, 7, 90, 305.5722961425781
0, 7, 91, 314.7643432617188
0, 7, 92, 288.6902465820312
0, 7, 93, 307.3325500488281
0, 7, 94, 272.6461791992188
0, 7, 95, 298.468505859375
0, 7, 96, 332.8949279785156
0, 7, 97, 294.5579223632812
0, 7, 98, 290.6356201171875
0, 7, 99, 312.4317626953125
0, 7, 100, 281.3100280761719
0, 7, 101, 275.7616271972656
0, 7, 102, 291.9328918457031
0, 7, 103, 292.8324279785156
0, 7, 104, 273.7549743652344
0, 7, 105, 307.7011413574219
0, 7, 106, 318.1253356933594
0, 7, 107, 296.8887634277344
0, 7, 108, 274.7024841308594
0, 7, 109, 234.7073059082031
0, 7, 110, 96.05104064941406
0, 7, 111, 23.5639591217041
0, 7, 112, 12.60134601593018
0, 7, 113, 14.81199073791504
0, 7, 114, 12.31585025787354
0, 7, 115, 12.02556419372559
0, 7, 116, 8.895752906799316
0, 7, 117, 6.082048416137695
0, 7, 118, 7.276772499084473
0, 7, 119, 4.00801420211792
0, 7, 120, 3.566125869750977
0, 7, 121, 5.27172327041626
0, 7, 122, 9.120884895324707
0, 7, 123, 4.411052703857422
0, 7, 124, 6.363710403442383
0, 7, 125, 6.335792541503906
0, 7, 126, 6.704582214355469
0, 7, 127, 1.348965644836426
0, 8, 0, 4.493785381317139
0, 8, 1, 5.501093864440918
0, 8, 2, 5.1072998046875
0, 8, 3, 3.149821758270264
0, 8, 4, 3.661019086837769
0, 8, 5, 5.60211706161499
0, 8, 6, 7.40486478805542
0, 8, 7, 5.271799087524414
0, 8, 8, 9.945475578308105
0, 8, 9, 5.060574531555176
0, 8, 10, 6.613765239715576
0, 8, 11, 11.74162769317627
0, 8, 12, 12.54439926147461
0, 8, 13, 16.57534217834473
0, 8, 14, 14.76458644866943
0, 8, 15, 18.25481224060059
0, 8, 16, 32.85732269287109
0, 8, 17, 130.4476013183594
0, 8, 18, 241.9196624755859
0, 8, 19, 295.8032531738281
0, 8, 20, 287.8182983398438
0, 8, 21, 306.730224609375
0, 8, 22, 296.3642883300781
0, 8, 23, 274.7297668457031
0, 8, 24, 269.144775390625
0, 8, 25, 275.7030334472656
0, 8, 26, 305.0513305664062
0, 8, 27, 307.2550964355469
0, 8, 28, 302.64892578125
0, 8, 29, 320.9847412109375
0, 8, 30, 317.1199951171875
0, 8, 31, 305.3998413085938
0, 8, 32, 280.0397644042969
0, 8, 33, 293.9451904296875
0, 8, 34, 289.3257141113281
0, 8, 35, 278.312255859375
0, 8, 36, 315.5995788574219
0, 8, 37, 338.1726989746094
0, 8, 38, 332.4945373535156
0, 8, 39, 282.5403747558594
0, 8, 40, 305.6234436035156
