# TOPAS Version: 3.1.p3
# Parameter File: batch_inserts_0.txt
# Results for scorer Readout_Adipose
# Scored in component: MyBox
# X in 1 bin  of 0.75 cm
# Y in 512 bins of 0.0783984 cm
# Z in 128 bins of 0.078125 cm
# EnergyDeposit ( MeV ) : Sum   
0, 0, 0, 2.953253746032715
0, 0, 1, 1.937263369560242
0, 0, 2, 4.156774997711182
0, 0, 3, 4.610074520111084
0, 0, 4, 3.075243234634399
0, 0, 5, 4.765866756439209
0, 0, 6, 5.365813255310059
0, 0, 7, 9.959304809570312
0, 0, 8, 4.702226161956787
0, 0, 9, 3.935932159423828
0, 0, 10, 6.261072635650635
0, 0, 11, 5.720342636108398
0, 0, 12, 4.731094837188721
0, 0, 13, 6.20702600479126
0, 0, 14, 8.325908660888672
0, 0, 15, 9.845071792602539
0, 0, 16, 9.013382911682129
0, 0, 17, 9.245198249816895
0, 0, 18, 13.33443450927734
0, 0, 19, 45.10305404663086
0, 0, 20, 139.6416168212891
0, 0, 21, 223.9637908935547
0, 0, 22, 248.734375
0, 0, 23, 257.1143188476562
0, 0, 24, 250.2796173095703
0, 0, 25, 260.0291748046875
0, 0, 26, 235.6755218505859
0, 0, 27, 236.4057006835938
0, 0, 28, 271.7080993652344
0, 0, 29, 251.5563659667969
0, 0, 30, 229.1771087646484
0, 0, 31, 243.2748870849609
0, 0, 32, 263.9285278320312
0, 0, 33, 261.8974304199219
0, 0, 34, 286.8639831542969
0, 0, 35, 266.5899353027344
0, 0, 36, 246.5675964355469
0, 0, 37, 254.7958984375
0, 0, 38, 268.0155334472656
0, 0, 39, 231.1505584716797
0, 0, 40, 241.6389312744141
0, 0, 41, 264.5241394042969
0, 0, 42, 228.4852142333984
0, 0, 43, 259.0357971191406
0, 0, 44, 250.2859344482422
0, 0, 45, 252.7599487304688
0, 0, 46, 246.3152618408203
0, 0, 47, 253.257080078125
0, 0, 48, 267.2635803222656
0, 0, 49, 273.3450622558594
0, 0, 50, 250.9649658203125
0, 0, 51, 253.2337341308594
0, 0, 52, 272.6543884277344
0, 0, 53, 292.3665161132812
0, 0, 54, 245.2784271240234
0, 0, 55, 240.4624633789062
0, 0, 56, 277.7425231933594
0, 0, 57, 264.7283630371094
0, 0, 58, 245.8306732177734
0, 0, 59, 271.5780029296875
0, 0, 60, 234.0475616455078
0, 0, 61, 244.0435485839844
0, 0, 62, 255.87841796875
0, 0, 63, 268.4751586914062
0, 0, 64, 256.1426391601562
0, 0, 65, 260.7635803222656
0, 0, 66, 276.046142578125
0, 0, 67, 245.3807525634766
0, 0, 68, 258.5474243164062
0, 0, 69, 260.8486938476562
0, 0, 70, 275.0431823730469
0, 0, 71, 239.4044494628906
0, 0, 72, 250.6679229736328
0, 0, 73, 258.8410339355469
0, 0, 74, 254.3327178955078
0, 0, 75, 241.0267181396484
0, 0, 76, 229.8182830810547
0, 0, 77, 260.6929321289062
0, 0, 78, 258.17919921875
0, 0, 79, 276.8919372558594
0, 0, 80, 216.1544494628906
0, 0, 81, 267.3686218261719
0, 0, 82, 257.135986328125
0, 0, 83, 244.7521514892578
0, 0, 84, 270.1724548339844
0, 0, 85, 231.6381378173828
0, 0, 86, 252.7682037353516
0, 0, 87, 251.2898712158203
0, 0, 88, 258.721923828125
0, 0, 89, 284.7843322753906
0, 0, 90, 243.2825927734375
0, 0, 91, 279.6414794921875
0, 0, 92, 254.6149749755859
0, 0, 93, 249.1051635742188
0, 0, 94, 247.9594573974609
0, 0, 95, 248.3752899169922
0, 0, 96, 275.0729370117188
0, 0, 97, 273.0011901855469
0, 0, 98, 274.3063659667969
0, 0, 99, 257.8950500488281
0, 0, 100, 258.31591796875
0, 0, 101, 225.8461303710938
0, 0, 102, 232.71337890625
0, 0, 103, 270.28076171875
0, 0, 104, 255.5406341552734
0, 0, 105, 251.3712463378906
0, 0, 106, 247.1293029785156
0, 0, 107, 153.2507934570312
0, 0, 108, 40.25615692138672
0, 0, 109, 11.97459030151367
0, 0, 110, 13.64847469329834
0, 0, 111, 9.047788619995117
0, 0, 112, 6.011528968811035
0, 0, 113, 4.064103603363037
0, 0, 114, 6.019663333892822
0, 0, 115, 3.855388164520264
0, 0, 116, 6.111614227294922
0, 0, 117, 6.377129554748535
0, 0, 118, 6.3715500831604
0, 0, 119, 4.992526531219482
0, 0, 120, 3.815976858139038
0, 0, 121, 3.231000185012817
0, 0, 122, 5.343698024749756
0, 0, 123, 3.518699645996094
0, 0, 124, 4.534608364105225
0, 0, 125, 3.592538118362427
0, 0, 126, 4.61369514465332
0, 0, 127, 3.908836364746094
0, 1, 0, 6.403966903686523
0, 1, 1, 2.915025472640991
0, 1, 2, 5.455758571624756
0, 1, 3, 3.6040198802948
0, 1, 4, 5.106022357940674
0, 1, 5, 1.887304663658142
0, 1, 6, 3.809389352798462
0, 1, 7, 3.65398645401001
0, 1, 8, 6.921522617340088
0, 1, 9, 4.718894958496094
0, 1, 10, 8.185105323791504
0, 1, 11, 11.55930233001709
0, 1, 12, 8.0799560546875
0, 1, 13, 9.646387100219727
0, 1, 14, 8.390402793884277
0, 1, 15, 6.364824771881104
0, 1, 16, 12.65199565887451
0, 1, 17, 12.51819324493408
0, 1, 18, 19.45847320556641
0, 1, 19, 65.90223693847656
0, 1, 20, 199.1730194091797
0, 1, 21, 256.0021057128906
0, 1, 22, 298.2959594726562
0, 1, 23, 282.8479919433594
0, 1, 24, 274.4486999511719
0, 1, 25, 287.67529296875
0, 1, 26, 268.1871643066406
0, 1, 27, 306.0995483398438
0, 1, 28, 301.2658081054688
0, 1, 29, 294.964599609375
0, 1, 30, 280.0426025390625
0, 1, 31, 291.6764221191406
0, 1, 32, 292.2265014648438
0, 1, 33, 296.6619873046875
0, 1, 34, 291.1729125976562
0, 1, 35, 278.3094787597656
0, 1, 36, 307.2748413085938
0, 1, 37, 295.1931762695312
0, 1, 38, 281.1934509277344
0, 1, 39, 294.6938171386719
0, 1, 40, 267.0975952148438
0, 1, 41, 287.0093078613281
0, 1, 42, 290.5504455566406
0, 1, 43, 331.9835205078125
0, 1, 44, 280.3702392578125
0, 1, 45, 291.3396606445312
0, 1, 46, 257.8892211914062
0, 1, 47, 309.9966430664062
0, 1, 48, 286.55029296875
0, 1, 49, 303.1313781738281
0, 1, 50, 263.4000244140625
0, 1, 51, 273.3727722167969
0, 1, 52, 295.6893005371094
0, 1, 53, 304.5133972167969
0, 1, 54, 273.3306274414062
0, 1, 55, 291.8006591796875
0, 1, 56, 276.919921875
0, 1, 57, 298.0789184570312
0, 1, 58, 308.8891906738281
0, 1, 59, 292.1736755371094
0, 1, 60, 298.1055603027344
0, 1, 61, 275.2568054199219
0, 1, 62, 307.1438293457031
0, 1, 63, 287.2447814941406
0, 1, 64, 289.5097045898438
0, 1, 65, 296.9318542480469
0, 1, 66, 292.4774475097656
0, 1, 67, 293.9545288085938
0, 1, 68, 279.2367858886719
0, 1, 69, 279.1725463867188
0, 1, 70, 273.5805053710938
0, 1, 71, 272.4775390625
0, 1, 72, 285.6175537109375
0, 1, 73, 304.3307495117188
0, 1, 74, 303.7065734863281
0, 1, 75, 293.5900573730469
0, 1, 76, 283.3274841308594
0, 1, 77, 289.830078125
0, 1, 78, 295.7918090820312
0, 1, 79, 303.3165283203125
0, 1, 80, 299.1079711914062
0, 1, 81, 299.4771728515625
0, 1, 82, 284.4745178222656
0, 1, 83, 330.9796142578125
0, 1, 84, 307.7578430175781
0, 1, 85, 252.189697265625
0, 1, 86, 294.0791625976562
0, 1, 87, 290.3273620605469
0, 1, 88, 297.227294921875
0, 1, 89, 289.5162658691406
0, 1, 90, 269.6870422363281
0, 1, 91, 316.0199584960938
0, 1, 92, 290.6014404296875
0, 1, 93, 286.7240600585938
0, 1, 94, 302.8384399414062
0, 1, 95, 284.97216796875
0, 1, 96, 284.5635070800781
0, 1, 97, 302.54736328125
0, 1, 98, 276.8302307128906
0, 1, 99, 267.5774536132812
0, 1, 100, 276.1884460449219
0, 1, 101, 282.2604370117188
0, 1, 102, 277.6004638671875
0, 1, 103, 281.0046691894531
0, 1, 104, 306.5635070800781
0, 1, 105, 297.1491394042969
0, 1, 106, 264.0748596191406
0, 1, 107, 191.5176391601562
0, 1, 108, 83.19842529296875
0, 1, 109, 23.74562644958496
0, 1, 110, 11.47654724121094
0, 1, 111, 8.627499580383301
0, 1, 112, 13.00687313079834
0, 1, 113, 4.760664463043213
0, 1, 114, 6.624818801879883
0, 1, 115, 6.795303821563721
0, 1, 116, 12.47580242156982
0, 1, 117, 9.200084686279297
0, 1, 118, 4.320058822631836
0, 1, 119, 4.573506832122803
0, 1, 120, 5.799952983856201
0, 1, 121, 7.08448600769043
0, 1, 122, 3.587610244750977
0, 1, 123, 4.554018497467041
0, 1, 124, 9.129464149475098
0, 1, 125, 3.306293249130249
0, 1, 126, 3.013092756271362
0, 1, 127, 1.783795237541199
0, 2, 0, 4.049476146697998
0, 2, 1, 1.531675457954407
0, 2, 2, 3.548913955688477
0, 2, 3, 4.074842929840088
0, 2, 4, 3.062488317489624
0, 2, 5, 1.32269299030304
0, 2, 6, 1.992482304573059
0, 2, 7, 3.594057559967041
0, 2, 8, 5.294783592224121
0, 2, 9, 7.500558376312256
0, 2, 10, 8.551529884338379
0, 2, 11, 6.374812126159668
0, 2, 12, 8.298274993896484
0, 2, 13, 11.46008396148682
0, 2, 14, 9.450864791870117
0, 2, 15, 8.038652420043945
0, 2, 16, 8.593441963195801
0, 2, 17, 17.29168701171875
0, 2, 18, 32.72624588012695
0, 2, 19, 117.5734481811523
0, 2, 20, 244.7859191894531
0, 2, 21, 271.1363830566406
0, 2, 22, 315.5270690917969
0, 2, 23, 300.1742858886719
0, 2, 24, 288.1361694335938
0, 2, 25, 302.3397216796875
0, 2, 26, 291.8500366210938
0, 2, 27, 278.3896179199219
0, 2, 28, 276.094970703125
0, 2, 29, 274.0157775878906
0, 2, 30, 290.6439208984375
0, 2, 31, 278.260498046875
0, 2, 32, 294.7152404785156
0, 2, 33, 281.5576171875
0, 2, 34, 330.1726989746094
0, 2, 35, 288.9883422851562
0, 2, 36, 305.7853698730469
0, 2, 37, 314.3925170898438
0, 2, 38, 311.5824584960938
0, 2, 39, 267.4147644042969
0, 2, 40, 308.8456726074219
0, 2, 41, 292.4040222167969
0, 2, 42, 305.7196350097656
0, 2, 43, 315.5136108398438
0, 2, 44, 309.9075927734375
0, 2, 45, 324.4789123535156
0, 2, 46, 286.4830322265625
0, 2, 47, 303.1895446777344
0, 2, 48, 284.1730346679688
0, 2, 49, 278.0049438476562
0, 2, 50, 293.7539672851562
0, 2, 51, 283.3215026855469
0, 2, 52, 272.0492248535156
0, 2, 53, 286.5277709960938
0, 2, 54, 279.7421875
0, 2, 55, 277.4009704589844
0, 2, 56, 301.1903991699219
0, 2, 57, 293.3016052246094
0, 2, 58, 303.5488891601562
0, 2, 59, 287.5295715332031
0, 2, 60, 318.5866088867188
0, 2, 61, 301.2491149902344
0, 2, 62, 314.2475280761719
0, 2, 63, 303.7680358886719
0, 2, 64, 296.0710754394531
0, 2, 65, 312.6075744628906
0, 2, 66, 279.5696716308594
0, 2, 67, 291.9249877929688
0, 2, 68, 296.345703125
0, 2, 69, 310.0722961425781
0, 2, 70, 332.8525085449219
0, 2, 71, 284.9311828613281
0, 2, 72, 301.1216125488281
0, 2, 73, 313.8424987792969
0, 2, 74, 285.9308776855469
0, 2, 75, 306.2700805664062
0, 2, 76, 286.5421142578125
0, 2, 77, 300.8644409179688
0, 2, 78, 316.121826171875
0, 2, 79, 309.3905334472656
0, 2, 80, 296.3482971191406
0, 2, 81, 281.5895385742188
0, 2, 82, 317.8746948242188
0, 2, 83, 312.5401611328125
0, 2, 84, 288.9531860351562
0, 2, 85, 279.9679870605469
0, 2, 86, 325.521240234375
0, 2, 87, 286.8807678222656
0, 2, 88, 279.6101379394531
0, 2, 89, 300.0294799804688
0, 2, 90, 295.2370300292969
0, 2, 91, 277.2331848144531
0, 2, 92, 303.9367065429688
0, 2, 93, 315.5053405761719
0, 2, 94, 290.7931518554688
0, 2, 95, 314.8077087402344
0, 2, 96, 316.7752075195312
0, 2, 97, 292.5576477050781
0, 2, 98, 291.5904235839844
0, 2, 99, 276.4140930175781
0, 2, 100, 305.4513854980469
0, 2, 101, 300.0747680664062
0, 2, 102, 296.1225280761719
0, 2, 103, 292.7745666503906
0, 2, 104, 292.9598693847656
0, 2, 105, 275.2667846679688
0, 2, 106, 296.2622680664062
0, 2, 107, 272.1477966308594
0, 2, 108, 119.0150909423828
0, 2, 109, 33.55875778198242
0, 2, 110, 10.22492980957031
0, 2, 111, 12.8853006362915
0, 2, 112, 7.635580539703369
0, 2, 113, 9.704078674316406
0, 2, 114, 11.24662399291992
0, 2, 115, 9.125537872314453
0, 2, 116, 9.125584602355957
0, 2, 117, 5.67481517791748
0, 2, 118, 4.285416126251221
0, 2, 119, 5.751580715179443
0, 2, 120, 6.046017169952393
0, 2, 121, 4.263620376586914
0, 2, 122, 2.725040197372437
0, 2, 123, 5.64427375793457
0, 2, 124, 3.656431674957275
0, 2, 125, 5.298210620880127
0, 2, 126, 4.51012659072876
0, 2, 127, 4.960670471191406
0, 3, 0, 3.153170824050903
0, 3, 1, 3.374056100845337
0, 3, 2, 3.261877059936523
0, 3, 3, 3.108083724975586
0, 3, 4, 3.059332847595215
0, 3, 5, 7.116929054260254
0, 3, 6, 6.7955002784729
0, 3, 7, 4.186574459075928
0, 3, 8, 5.344063282012939
0, 3, 9, 5.966633319854736
0, 3, 10, 7.096127510070801
0, 3, 11, 3.903893709182739
0, 3, 12, 7.54852294921875
0, 3, 13, 14.63390350341797
0, 3, 14, 11.41667652130127
0, 3, 15, 15.02678203582764
0, 3, 16, 11.00256824493408
0, 3, 17, 19.35815811157227
0, 3, 18, 52.43962097167969
0, 3, 19, 175.1151885986328
0, 3, 20, 270.0306396484375
0, 3, 21, 270.5216064453125
0, 3, 22, 281.1401672363281
0, 3, 23, 285.2534790039062
0, 3, 24, 286.9388427734375
0, 3, 25, 271.2021789550781
0, 3, 26, 303.692138671875
0, 3, 27, 294.4352416992188
0, 3, 28, 284.5946655273438
0, 3, 29, 341.2424926757812
0, 3, 30, 317.4912414550781
0, 3, 31, 288.7039489746094
0, 3, 32, 309.8207092285156
0, 3, 33, 313.6182861328125
0, 3, 34, 321.2298583984375
0, 3, 35, 308.5049438476562
0, 3, 36, 267.9980773925781
0, 3, 37, 311.6820983886719
0, 3, 38, 302.3969421386719
0, 3, 39, 292.4847106933594
0, 3, 40, 265.7914428710938
0, 3, 41, 298.5828552246094
0, 3, 42, 285.2582702636719
0, 3, 43, 305.8700866699219
0, 3, 44, 312.1331787109375
0, 3, 45, 291.3064575195312
0, 3, 46, 331.7546997070312
0, 3, 47, 300.788330078125
0, 3, 48, 302.6519165039062
0, 3, 49, 276.5928649902344
0, 3, 50, 290.2427978515625
0, 3, 51, 275.740966796875
0, 3, 52, 314.9349975585938
0, 3, 53, 288.4207458496094
0, 3, 54, 285.5713195800781
0, 3, 55, 284.4150085449219
0, 3, 56, 298.6373596191406
0, 3, 57, 289.116943359375
0, 3, 58, 306.4779663085938
0, 3, 59, 296.1737365722656
0, 3, 60, 297.8068542480469
0, 3, 61, 265.8118591308594
0, 3, 62, 286.9276733398438
0, 3, 63, 306.8982543945312
0, 3, 64, 317.6869506835938
0, 3, 65, 304.7378234863281
0, 3, 66, 318.1139831542969
0, 3, 67, 319.103759765625
0, 3, 68, 278.7080078125
0, 3, 69, 280.8479614257812
0, 3, 70, 288.6719970703125
0, 3, 71, 297.7606811523438
0, 3, 72, 270.5132446289062
0, 3, 73, 306.76611328125
0, 3, 74, 290.8335876464844
0, 3, 75, 289.6435852050781
0, 3, 76, 305.8028869628906
0, 3, 77, 312.4690246582031
0, 3, 78, 304.9136352539062
0, 3, 79, 283.058349609375
0, 3, 80, 290.8058776855469
0, 3, 81, 310.85693359375
0, 3, 82, 318.1275329589844
0, 3, 83, 301.1422119140625
0, 3, 84, 313.3710327148438
0, 3, 85, 293.2425537109375
0, 3, 86, 304.7148742675781
0, 3, 87, 300.5579223632812
0, 3, 88, 298.4160766601562
0, 3, 89, 295.8920593261719
0, 3, 90, 276.8935241699219
0, 3, 91, 284.8036499023438
0, 3, 92, 302.8168029785156
0, 3, 93, 313.7056884765625
0, 3, 94, 298.708740234375
0, 3, 95, 335.9240112304688
0, 3, 96, 291.8799133300781
0, 3, 97, 282.6639404296875
0, 3, 98, 279.0952453613281
0, 3, 99, 262.3760986328125
0, 3, 100, 288.0050048828125
0, 3, 101, 298.0286560058594
0, 3, 102, 273.5324096679688
0, 3, 103, 319.3820190429688
0, 3, 104, 309.7494201660156
0, 3, 105, 288.9655456542969
0, 3, 106, 301.2120971679688
0, 3, 107, 282.1300354003906
0, 3, 108, 169.8258209228516
0, 3, 109, 57.1501579284668
0, 3, 110, 17.85737609863281
0, 3, 111, 12.3011589050293
0, 3, 112, 11.82709980010986
0, 3, 113, 6.521281242370605
0, 3, 114, 8.401605606079102
0, 3, 115, 9.63719367980957
0, 3, 116, 8.751895904541016
0, 3, 117, 8.333791732788086
0, 3, 118, 5.602869033813477
0, 3, 119, 7.532771110534668
0, 3, 120, 3.978673934936523
0, 3, 121, 1.827050805091858
0, 3, 122, 4.877553462982178
0, 3, 123, 5.337483882904053
0, 3, 124, 1.564433574676514
0, 3, 125, 6.329096794128418
0, 3, 126, 5.986889362335205
0, 3, 127, 3.353168725967407
0, 4, 0, 4.450047492980957
0, 4, 1, 5.709039688110352
0, 4, 2, 2.640094995498657
0, 4, 3, 2.680394172668457
0, 4, 4, 5.479132175445557
0, 4, 5, 9.243605613708496
0, 4, 6, 8.202663421630859
0, 4, 7, 3.782729148864746
0, 4, 8, 4.519285678863525
0, 4, 9, 7.371096134185791
0, 4, 10, 6.133008003234863
0, 4, 11, 7.605920314788818
0, 4, 12, 4.641914844512939
0, 4, 13, 10.05022716522217
0, 4, 14, 11.44868850708008
0, 4, 15, 10.48266983032227
0, 4, 16, 14.36122798919678
0, 4, 17, 17.9779224395752
0, 4, 18, 91.44490814208984
0, 4, 19, 222.2996215820312
0, 4, 20, 285.9736022949219
0, 4, 21, 273.9818420410156
0, 4, 22, 305.9038391113281
0, 4, 23, 267.5716857910156
0, 4, 24, 288.8805541992188
0, 4, 25, 273.4026489257812
0, 4, 26, 294.8437805175781
0, 4, 27, 283.3411560058594
0, 4, 28, 305.3216552734375
0, 4, 29, 323.28515625
0, 4, 30, 310.3477172851562
0, 4, 31, 303.3427429199219
0, 4, 32, 281.0753173828125
0, 4, 33, 295.6268005371094
0, 4, 34, 297.1744384765625
0, 4, 35, 311.1983947753906
0, 4, 36, 293.6397705078125
0, 4, 37, 288.6585693359375
0, 4, 38, 299.1352844238281
0, 4, 39, 294.4630126953125
0, 4, 40, 302.528076171875
0, 4, 41, 311.6907958984375
0, 4, 42, 331.5814819335938
0, 4, 43, 297.2347106933594
0, 4, 44, 320.81591796875
0, 4, 45, 327.2578125
0, 4, 46, 306.8674011230469
0, 4, 47, 292.1556396484375
0, 4, 48, 294.9692993164062
0, 4, 49, 278.11572265625
0, 4, 50, 296.3290405273438
0, 4, 51, 315.806396484375
0, 4, 52, 327.706787109375
0, 4, 53, 304.8238830566406
0, 4, 54, 287.645751953125
0, 4, 55, 316.3981628417969
0, 4, 56, 288.5963134765625
0, 4, 57, 310.7673645019531
0, 4, 58, 295.8483276367188
0, 4, 59, 308.9153137207031
0, 4, 60, 301.4659118652344
0, 4, 61, 316.0545043945312
0, 4, 62, 306.4490966796875
0, 4, 63, 300.0657043457031
0, 4, 64, 329.5572509765625
0, 4, 65, 314.9483337402344
0, 4, 66, 294.4657592773438
0, 4, 67, 284.6122436523438
0, 4, 68, 314.5617065429688
0, 4, 69, 275.3059692382812
0, 4, 70, 301.9769897460938
0, 4, 71, 320.225341796875
0, 4, 72, 331.1427001953125
0, 4, 73, 298.9220275878906
0, 4, 74, 292.3358764648438
0, 4, 75, 287.9908142089844
0, 4, 76, 275.044921875
0, 4, 77, 281.27587890625
0, 4, 78, 311.5541076660156
0, 4, 79, 318.7620544433594
0, 4, 80, 315.2380065917969
0, 4, 81, 312.60107421875
0, 4, 82, 297.2231140136719
0, 4, 83, 299.0223999023438
0, 4, 84, 290.6102600097656
0, 4, 85, 295.0292053222656
0, 4, 86, 297.7549743652344
0, 4, 87, 285.1280517578125
0, 4, 88, 305.9705505371094
0, 4, 89, 294.7138977050781
0, 4, 90, 332.5647888183594
0, 4, 91, 302.2281494140625
0, 4, 92, 289.551513671875
0, 4, 93, 297.01513671875
0, 4, 94, 291.3182678222656
0, 4, 95, 288.3142700195312
0, 4, 96, 322.0098876953125
0, 4, 97, 275.1258544921875
0, 4, 98, 327.846435546875
0, 4, 99, 314.0633544921875
0, 4, 100, 301.6480407714844
0, 4, 101, 257.3833312988281
0, 4, 102, 298.5324401855469
0, 4, 103, 315.9667663574219
0, 4, 104, 281.6484069824219
0, 4, 105, 311.8163146972656
0, 4, 106, 287.7562866210938
0, 4, 107, 295.4205017089844
0, 4, 108, 225.7189636230469
0, 4, 109, 80.48088836669922
0, 4, 110, 16.74922943115234
0, 4, 111, 13.18762397766113
0, 4, 112, 9.116641044616699
0, 4, 113, 10.12275409698486
0, 4, 114, 9.822717666625977
0, 4, 115, 11.65218353271484
0, 4, 116, 8.253316879272461
0, 4, 117, 5.969142913818359
0, 4, 118, 13.14132690429688
0, 4, 119, 8.657280921936035
0, 4, 120, 5.216116905212402
0, 4, 121, 4.441601753234863
0, 4, 122, 3.626662492752075
0, 4, 123, 5.86443042755127
0, 4, 124, 5.705633640289307
0, 4, 125, 10.18980884552002
0, 4, 126, 5.958799839019775
0, 4, 127, 2.718461275100708
0, 5, 0, 4.555855274200439
0, 5, 1, 6.02760124206543
0, 5, 2, 5.52225923538208
0, 5, 3, 3.27847957611084
0, 5, 4, 4.396253108978271
0, 5, 5, 5.394167423248291
0, 5, 6, 8.105259895324707
0, 5, 7, 5.498973369598389
0, 5, 8, 6.367829322814941
0, 5, 9, 5.334488868713379
0, 5, 10, 5.86618185043335
0, 5, 11, 9.932387351989746
0, 5, 12, 7.176652908325195
0, 5, 13, 5.909697532653809
0, 5, 14, 12.81435108184814
0, 5, 15, 18.71563148498535
0, 5, 16, 13.72115612030029
0, 5, 17, 30.14315605163574
0, 5, 18, 139.6289825439453
0, 5, 19, 289.3753051757812
0, 5, 20, 306.768310546875
0, 5, 21, 316.8416748046875
0, 5, 22, 274.8865051269531
0, 5, 23, 310.9952392578125
0, 5, 24, 302.245849609375
0, 5, 25, 290.2434387207031
0, 5, 26, 294.3244018554688
0, 5, 27, 322.0479736328125
0, 5, 28, 302.9022521972656
0, 5, 29, 296.3393249511719
0, 5, 30, 322.7221374511719
0, 5, 31, 286.6045837402344
0, 5, 32, 302.147705078125
0, 5, 33, 302.6714172363281
0, 5, 34, 296.8093872070312
0, 5, 35, 308.7038879394531
0, 5, 36, 270.9324035644531
0, 5, 37, 281.7760009765625
0, 5, 38, 295.350341796875
0, 5, 39, 311.79931640625
0, 5, 40, 308.1600036621094
0, 5, 41, 273.4216613769531
0, 5, 42, 306.4173889160156
0, 5, 43, 314.4900207519531
0, 5, 44, 290.5920104980469
0, 5, 45, 302.1629333496094
0, 5, 46, 264.3876647949219
0, 5, 47, 280.7963562011719
0, 5, 48, 296.6283264160156
0, 5, 49, 285.9152221679688
0, 5, 50, 294.219482421875
0, 5, 51, 279.2138977050781
0, 5, 52, 268.1703186035156
0, 5, 53, 284.4994506835938
0, 5, 54, 292.0836486816406
0, 5, 55, 344.5152282714844
0, 5, 56, 306.6969299316406
0, 5, 57, 309.6670532226562
0, 5, 58, 313.9567260742188
0, 5, 59, 304.2646484375
0, 5, 60, 305.7870483398438
0, 5, 61, 285.0583801269531
0, 5, 62, 323.6214599609375
0, 5, 63, 289.6067199707031
0, 5, 64, 322.9618835449219
0, 5, 65, 305.7579650878906
0, 5, 66, 327.8602294921875
0, 5, 67, 313.2531127929688
0, 5, 68, 308.1337280273438
0, 5, 69, 312.301513671875
0, 5, 70, 300.1523742675781
0, 5, 71, 273.8392333984375
0, 5, 72, 310.1446838378906
0, 5, 73, 303.6184692382812
0, 5, 74, 295.4250793457031
0, 5, 75, 294.8348693847656
0, 5, 76, 286.2262573242188
0, 5, 77, 300.5865478515625
0, 5, 78, 314.7887573242188
0, 5, 79, 305.7862548828125
0, 5, 80, 294.9630432128906
0, 5, 81, 326.8556213378906
0, 5, 82, 324.4205627441406
0, 5, 83, 282.6749572753906
0, 5, 84, 300.2620849609375
0, 5, 85, 269.9565734863281
0, 5, 86, 324.9137878417969
0, 5, 87, 283.9916076660156
0, 5, 88, 311.9185791015625
0, 5, 89, 303.0823364257812
0, 5, 90, 314.3454895019531
0, 5, 91, 313.4680786132812
0, 5, 92, 296.2219543457031
0, 5, 93, 321.8233337402344
0, 5, 94, 307.6382446289062
0, 5, 95, 295.9938049316406
0, 5, 96, 297.0542297363281
0, 5, 97, 295.6988220214844
0, 5, 98, 319.6430358886719
0, 5, 99, 300.5730895996094
0, 5, 100, 290.9750061035156
0, 5, 101, 306.004150390625
0, 5, 102, 295.0640563964844
0, 5, 103, 312.742919921875
0, 5, 104, 300.7233276367188
0, 5, 105, 291.7891540527344
0, 5, 106, 280.4978942871094
0, 5, 107, 293.2590637207031
0, 5, 108, 266.1145629882812
0, 5, 109, 157.4607849121094
0, 5, 110, 40.24296188354492
0, 5, 111, 22.84589576721191
0, 5, 112, 18.67604064941406
0, 5, 113, 15.23712539672852
0, 5, 114, 12.85996246337891
0, 5, 115, 7.308890819549561
0, 5, 116, 9.830767631530762
0, 5, 117, 8.06447696685791
0, 5, 118, 14.7426815032959
0, 5, 119, 5.767970085144043
0, 5, 120, 5.788768291473389
0, 5, 121, 5.020710945129395
0, 5, 122, 5.419708728790283
0, 5, 123, 6.60867166519165
0, 5, 124, 4.098158836364746
0, 5, 125, 5.439099311828613
0, 5, 126, 6.62684440612793
0, 5, 127, 3.945293664932251
0, 6, 0, 3.699565172195435
0, 6, 1, 2.247529983520508
0, 6, 2, 5.371031284332275
0, 6, 3, 4.393102169036865
0, 6, 4, 2.614144086837769
0, 6, 5, 5.629627704620361
0, 6, 6, 9.002544403076172
0, 6, 7, 6.837410926818848
0, 6, 8, 8.032795906066895
0, 6, 9, 6.555253982543945
0, 6, 10, 9.614485740661621
0, 6, 11, 9.270561218261719
0, 6, 12, 9.50631046295166
0, 6, 13, 16.94505500793457
0, 6, 14, 10.74198246002197
0, 6, 15, 18.64850234985352
0, 6, 16, 27.46954345703125
0, 6, 17, 54.61521148681641
0, 6, 18, 173.4988708496094
0, 6, 19, 276.8097839355469
0, 6, 20, 289.8200988769531
0, 6, 21, 316.1495971679688
0, 6, 22, 319.2890319824219
0, 6, 23, 305.2425537109375
0, 6, 24, 315.1401977539062
0, 6, 25, 317.5769348144531
0, 6, 26, 322.5299987792969
0, 6, 27, 330.8980712890625
0, 6, 28, 295.0642395019531
0, 6, 29, 329.5033569335938
0, 6, 30, 283.1445922851562
0, 6, 31, 285.9736938476562
0, 6, 32, 341.8893737792969
0, 6, 33, 301.0867004394531
0, 6, 34, 340.8193359375
0, 6, 35, 322.4936828613281
0, 6, 36, 274.0353393554688
0, 6, 37, 289.0943603515625
0, 6, 38, 311.3448791503906
0, 6, 39, 297.7896728515625
0, 6, 40, 282.3343811035156
0, 6, 41, 298.2980346679688
0, 6, 42, 304.8582153320312
0, 6, 43, 288.8470764160156
0, 6, 44, 281.3832092285156
0, 6, 45, 320.0362548828125
0, 6, 46, 300.6884460449219
0, 6, 47, 333.7102966308594
0, 6, 48, 294.3570861816406
0, 6, 49, 310.6271057128906
0, 6, 50, 327.5252075195312
0, 6, 51, 310.3891906738281
0, 6, 52, 320.3802185058594
0, 6, 53, 328.487548828125
0, 6, 54, 303.8861999511719
0, 6, 55, 305.5363159179688
0, 6, 56, 292.7996215820312
0, 6, 57, 312.0570678710938
0, 6, 58, 262.6441345214844
0, 6, 59, 301.5552673339844
0, 6, 60, 317.4202270507812
0, 6, 61, 272.3518371582031
0, 6, 62, 338.2171325683594
0, 6, 63, 323.8397521972656
0, 6, 64, 292.3858032226562
0, 6, 65, 284.7659606933594
0, 6, 66, 302.4495849609375
0, 6, 67, 310.6859130859375
0, 6, 68, 296.3132934570312
0, 6, 69, 277.8233947753906
0, 6, 70, 274.246337890625
0, 6, 71, 291.3694152832031
0, 6, 72, 310.5252075195312
0, 6, 73, 294.1009216308594
0, 6, 74, 330.56689453125
0, 6, 75, 342.5314636230469
0, 6, 76, 297.87255859375
0, 6, 77, 286.4473266601562
0, 6, 78, 278.8632202148438
0, 6, 79, 291.3551025390625
0, 6, 80, 298.8317260742188
0, 6, 81, 316.3144836425781
0, 6, 82, 318.7221374511719
0, 6, 83, 318.0515441894531
0, 6, 84, 295.3076782226562
0, 6, 85, 300.6485290527344
0, 6, 86, 329.7717895507812
0, 6, 87, 292.9517517089844
0, 6, 88, 306.7615966796875
0, 6, 89, 303.7507934570312
0, 6, 90, 300.1152648925781
0, 6, 91, 314.5393981933594
0, 6, 92, 283.7328796386719
0, 6, 93, 298.525634765625
0, 6, 94, 274.1595153808594
0, 6, 95, 297.7705078125
0, 6, 96, 347.8287963867188
0, 6, 97, 309.2562255859375
0, 6, 98, 300.23876953125
0, 6, 99, 271.3046875
0, 6, 100, 310.570068359375
0, 6, 101, 294.1893310546875
0, 6, 102, 306.7200622558594
0, 6, 103, 308.3247985839844
0, 6, 104, 292.4573364257812
0, 6, 105, 298.7320556640625
0, 6, 106, 305.7374267578125
0, 6, 107, 305.8364868164062
0, 6, 108, 266.4524841308594
0, 6, 109, 184.7469024658203
0, 6, 110, 55.52810287475586
0, 6, 111, 21.64424705505371
0, 6, 112, 12.97781372070312
0, 6, 113, 10.66650485992432
0, 6, 114, 13.06155872344971
0, 6, 115, 11.21867561340332
0, 6, 116, 8.323537826538086
0, 6, 117, 7.210623741149902
0, 6, 118, 8.878957748413086
0, 6, 119, 9.840621948242188
0, 6, 120, 5.507857799530029
0, 6, 121, 7.834627628326416
0, 6, 122, 7.542271614074707
0, 6, 123, 5.071185111999512
0, 6, 124, 7.805741310119629
0, 6, 125, 6.287753105163574
0, 6, 126, 2.834086179733276
0, 6, 127, 7.815086364746094
0, 7, 0, 6.594842910766602
0, 7, 1, 3.990525722503662
0, 7, 2, 4.566949367523193
0, 7, 3, 4.45485782623291
0, 7, 4, 4.394271373748779
0, 7, 5, 5.007243633270264
0, 7, 6, 6.408018589019775
0, 7, 7, 4.547967910766602
0, 7, 8, 5.074771404266357
0, 7, 9, 6.127416610717773
0, 7, 10, 8.893771171569824
0, 7, 11, 12.41792297363281
0, 7, 12, 8.928628921508789
0, 7, 13, 10.70847606658936
0, 7, 14, 11.75836277008057
0, 7, 15, 17.19624710083008
0, 7, 16, 27.17801856994629
0, 7, 17, 97.10097503662109
0, 7, 18, 217.595947265625
0, 7, 19, 288.6800842285156
0, 7, 20, 300.0120239257812
0, 7, 21, 278.0238952636719
0, 7, 22, 298.5310668945312
0, 7, 23, 291.262451171875
0, 7, 24, 315.1860046386719
0, 7, 25, 326.1822814941406
0, 7, 26, 277.1824645996094
0, 7, 27, 297.6206359863281
0, 7, 28, 325.7606201171875
0, 7, 29, 319.3663635253906
0, 7, 30, 301.4572448730469
0, 7, 31, 275.7831420898438
0, 7, 32, 305.2965393066406
0, 7, 33, 263.4342651367188
0, 7, 34, 297.3915710449219
0, 7, 35, 319.4151916503906
0, 7, 36, 330.0419921875
0, 7, 37, 323.3550109863281
0, 7, 38, 296.5699462890625
0, 7, 39, 306.0516052246094
0, 7, 40, 289.6292724609375
0, 7, 41, 270.53564453125
0, 7, 42, 299.7062683105469
0, 7, 43, 274.0675659179688
0, 7, 44, 304.3100280761719
0, 7, 45, 295.7056274414062
0, 7, 46, 282.9147033691406
0, 7, 47, 329.2644653320312
0, 7, 48, 283.9058532714844
0, 7, 49, 301.250244140625
0, 7, 50, 321.1636352539062
0, 7, 51, 300.2949523925781
0, 7, 52, 327.6204528808594
0, 7, 53, 311.9053344726562
0, 7, 54, 322.3657836914062
0, 7, 55, 308.4578857421875
0, 7, 56, 279.6659851074219
0, 7, 57, 280.7181701660156
0, 7, 58, 295.4713439941406
0, 7, 59, 293.3982543945312
0, 7, 60, 322.7395629882812
0, 7, 61, 279.2676086425781
0, 7, 62, 296.9375
0, 7, 63, 292.7955322265625
0, 7, 64, 305.2847595214844
0, 7, 65, 331.0985717773438
0, 7, 66, 317.8131408691406
0, 7, 67, 300.9479675292969
0, 7, 68, 279.1819458007812
0, 7, 69, 294.4613647460938
0, 7, 70, 302.0934753417969
0, 7, 71, 307.2781982421875
0, 7, 72, 287.1961669921875
0, 7, 73, 297.792724609375
0, 7, 74, 344.8529663085938
0, 7, 75, 318.1148986816406
0, 7, 76, 321.1143798828125
0, 7, 77, 281.1257934570312
0, 7, 78, 300.2131042480469
0, 7, 79, 296.8747253417969
0, 7, 80, 313.4093322753906
0, 7, 81, 320.1276550292969
0, 7, 82, 330.6699829101562
0, 7, 83, 318.6826477050781
0, 7, 84, 310.1025695800781
0, 7, 85, 271.477294921875
0, 7, 86, 311.185546875
0, 7, 87, 310.6545715332031
0, 7, 88, 305.9737548828125
0, 7, 89, 292.7450561523438
0, 7, 90, 306.7690734863281
0, 7, 91, 314.5771179199219
0, 7, 92, 290.3529968261719
0, 7, 93, 309.486572265625
0, 7, 94, 274.5474853515625
0, 7, 95, 296.9108581542969
0, 7, 96, 331.2310485839844
0, 7, 97, 295.3216247558594
0, 7, 98, 290.8897399902344
0, 7, 99, 311.5458679199219
0, 7, 100, 281.8848571777344
0, 7, 101, 276.114501953125
0, 7, 102, 290.9308471679688
0, 7, 103, 290.9064025878906
0, 7, 104, 274.6688232421875
0, 7, 105, 307.0320739746094
0, 7, 106, 318.6876831054688
0, 7, 107, 297.3759765625
0, 7, 108, 273.3605346679688
0, 7, 109, 235.5787353515625
0, 7, 110, 95.74521636962891
0, 7, 111, 23.1867733001709
0, 7, 112, 14.69392967224121
0, 7, 113, 15.70880031585693
0, 7, 114, 11.3602933883667
0, 7, 115, 11.48804664611816
0, 7, 116, 7.253238201141357
0, 7, 117, 6.527425289154053
0, 7, 118, 7.619332790374756
0, 7, 119, 8.41843318939209
0, 7, 120, 4.131181240081787
0, 7, 121, 7.011529445648193
0, 7, 122, 6.546047210693359
0, 7, 123, 6.43172025680542
0, 7, 124, 6.900711059570312
0, 7, 125, 6.263527870178223
0, 7, 126, 7.796596050262451
0, 7, 127, 3.872166633605957
0, 8, 0, 3.853060007095337
0, 8, 1, 5.060458183288574
0, 8, 2, 5.953187465667725
0, 8, 3, 6.468205451965332
0, 8, 4, 6.136060237884521
0, 8, 5, 4.179844856262207
0, 8, 6, 4.790390968322754
0, 8, 7, 6.211301803588867
0, 8, 8, 7.578508377075195
0, 8, 9, 5.381712436676025
0, 8, 10, 9.051700592041016
0, 8, 11, 12.46093559265137
0, 8, 12, 14.27665710449219
0, 8, 13, 13.37985229492188
0, 8, 14, 15.9437427520752
0, 8, 15, 18.64406776428223
0, 8, 16, 32.26488494873047
0, 8, 17, 131.8481903076172
0, 8, 18, 244.1569366455078
0, 8, 19, 298.5215454101562
0, 8, 20, 286.0307312011719
0, 8, 21, 308.2045593261719
0, 8, 22, 296.8226623535156
0, 8, 23, 274.2366333007812
0, 8, 24, 269.4856872558594
0, 8, 25, 277.1348571777344
0, 8, 26, 306.0016784667969
0, 8, 27, 307.3215637207031
0, 8, 28, 303.5066833496094
0, 8, 29, 318.120361328125
0, 8, 30, 315.4304504394531
0, 8, 31, 302.8408508300781
0, 8, 32, 281.8056640625
0, 8, 33, 296.6793518066406
0, 8, 34, 292.0629577636719
0, 8, 35, 282.9302673339844
0, 8, 36, 314.8894348144531
0, 8, 37, 339.76220703125
0, 8, 38, 332.3490905761719
0, 8, 39, 280.5614318847656
0, 8, 40, 303.3721313476562
