# TOPAS Version: 3.1.p3
# Parameter File: batch_inserts_280.txt
# Results for scorer Readout_Adipose
# Scored in component: MyBox
# X in 1 bin  of 0.75 cm
# Y in 512 bins of 0.0783984 cm
# Z in 128 bins of 0.078125 cm
# EnergyDeposit ( MeV ) : Sum   
0, 0, 0, 19.04221725463867
0, 0, 1, 20.87646102905273
0, 0, 2, 23.96261596679688
0, 0, 3, 22.43879890441895
0, 0, 4, 20.69687843322754
0, 0, 5, 20.94991493225098
0, 0, 6, 27.28266143798828
0, 0, 7, 35.12348175048828
0, 0, 8, 24.83305358886719
0, 0, 9, 20.02046394348145
0, 0, 10, 23.20232391357422
0, 0, 11, 26.5446720123291
0, 0, 12, 32.74600219726562
0, 0, 13, 33.67027282714844
0, 0, 14, 36.78591156005859
0, 0, 15, 52.69631958007812
0, 0, 16, 48.04165267944336
0, 0, 17, 46.92242813110352
0, 0, 18, 72.47879028320312
0, 0, 19, 192.7854766845703
0, 0, 20, 702.9707641601562
0, 0, 21, 1188.86962890625
0, 0, 22, 1246.241455078125
0, 0, 23, 1273.891357421875
0, 0, 24, 1278.380126953125
0, 0, 25, 1355.781860351562
0, 0, 26, 1272.2138671875
0, 0, 27, 1280.233764648438
0, 0, 28, 1323.93798828125
0, 0, 29, 1268.323852539062
0, 0, 30, 1264.399658203125
0, 0, 31, 1278.369140625
0, 0, 32, 1264.133178710938
0, 0, 33, 1244.95361328125
0, 0, 34, 1323.638793945312
0, 0, 35, 1302.321899414062
0, 0, 36, 1244.678466796875
0, 0, 37, 1281.063842773438
0, 0, 38, 1247.630493164062
0, 0, 39, 1242.141967773438
0, 0, 40, 1219.540283203125
0, 0, 41, 1269.264526367188
0, 0, 42, 1250.602905273438
0, 0, 43, 1265.7578125
0, 0, 44, 1220.268188476562
0, 0, 45, 1288.336669921875
0, 0, 46, 1263.455200195312
0, 0, 47, 1242.452392578125
0, 0, 48, 1278.788818359375
0, 0, 49, 1289.52001953125
0, 0, 50, 1311.315063476562
0, 0, 51, 1262.220092773438
0, 0, 52, 1357.9912109375
0, 0, 53, 1327.386596679688
0, 0, 54, 1300.818481445312
0, 0, 55, 1228.035522460938
0, 0, 56, 1317.69091796875
0, 0, 57, 1293.952514648438
0, 0, 58, 1257.983642578125
0, 0, 59, 1334.029052734375
0, 0, 60, 1323.49951171875
0, 0, 61, 1264.85498046875
0, 0, 62, 1238.934448242188
0, 0, 63, 1273.914184570312
0, 0, 64, 1331.468872070312
0, 0, 65, 1283.607299804688
0, 0, 66, 1314.5107421875
0, 0, 67, 1220.206298828125
0, 0, 68, 1312.78515625
0, 0, 69, 1324.240356445312
0, 0, 70, 1345.848022460938
0, 0, 71, 1285.091796875
0, 0, 72, 1316.428466796875
0, 0, 73, 1243.890625
0, 0, 74, 1290.057250976562
0, 0, 75, 1295.0732421875
0, 0, 76, 1257.743041992188
0, 0, 77, 1284.634643554688
0, 0, 78, 1315.598022460938
0, 0, 79, 1328.90673828125
0, 0, 80, 1259.60791015625
0, 0, 81, 1321.890502929688
0, 0, 82, 1285.236572265625
0, 0, 83, 1289.732421875
0, 0, 84, 1328.267578125
0, 0, 85, 1232.145874023438
0, 0, 86, 1265.300537109375
0, 0, 87, 1248.8984375
0, 0, 88, 1255.362426757812
0, 0, 89, 1335.788208007812
0, 0, 90, 1279.790649414062
0, 0, 91, 1356.96044921875
0, 0, 92, 1299.069580078125
0, 0, 93, 1271.509765625
0, 0, 94, 1242.041625976562
0, 0, 95, 1327.965942382812
0, 0, 96, 1283.669921875
0, 0, 97, 1326.78466796875
0, 0, 98, 1253.857788085938
0, 0, 99, 1248.78466796875
0, 0, 100, 1287.754028320312
0, 0, 101, 1313.460327148438
0, 0, 102, 1234.20849609375
0, 0, 103, 1320.065795898438
0, 0, 104, 1262.939575195312
0, 0, 105, 1268.83349609375
0, 0, 106, 1208.719360351562
0, 0, 107, 781.1405029296875
0, 0, 108, 193.8562316894531
0, 0, 109, 67.71320343017578
0, 0, 110, 62.84548568725586
0, 0, 111, 39.42855072021484
0, 0, 112, 36.22724533081055
0, 0, 113, 34.50912094116211
0, 0, 114, 33.72282028198242
0, 0, 115, 29.4544506072998
0, 0, 116, 29.96784019470215
0, 0, 117, 31.46936798095703
0, 0, 118, 25.1785888671875
0, 0, 119, 22.10842132568359
0, 0, 120, 24.81258010864258
0, 0, 121, 28.49765205383301
0, 0, 122, 22.47459030151367
0, 0, 123, 18.69116401672363
0, 0, 124, 20.64922714233398
0, 0, 125, 17.32476425170898
0, 0, 126, 24.30475425720215
0, 0, 127, 19.7495288848877
0, 1, 0, 26.29069900512695
0, 1, 1, 18.58556365966797
0, 1, 2, 22.42271995544434
0, 1, 3, 20.93972396850586
0, 1, 4, 25.64052200317383
0, 1, 5, 22.5428524017334
0, 1, 6, 24.65076065063477
0, 1, 7, 25.25574111938477
0, 1, 8, 35.32663726806641
0, 1, 9, 31.05374908447266
0, 1, 10, 31.1068229675293
0, 1, 11, 38.70988845825195
0, 1, 12, 40.11704635620117
0, 1, 13, 43.35416030883789
0, 1, 14, 40.41789245605469
0, 1, 15, 46.23863983154297
0, 1, 16, 59.26537704467773
0, 1, 17, 63.01753997802734
0, 1, 18, 95.97461700439453
0, 1, 19, 395.70947265625
0, 1, 20, 1042.189453125
0, 1, 21, 1372.056274414062
0, 1, 22, 1478.18603515625
0, 1, 23, 1458.070922851562
0, 1, 24, 1453.95849609375
0, 1, 25, 1421.953002929688
0, 1, 26, 1476.042358398438
0, 1, 27, 1459.23046875
0, 1, 28, 1486.320922851562
0, 1, 29, 1474.09423828125
0, 1, 30, 1507.457397460938
0, 1, 31, 1486.25537109375
0, 1, 32, 1411.215698242188
0, 1, 33, 1499.094604492188
0, 1, 34, 1503.969116210938
0, 1, 35, 1461.557250976562
0, 1, 36, 1494.0771484375
0, 1, 37, 1409.774780273438
0, 1, 38, 1390.769409179688
0, 1, 39, 1524.773315429688
0, 1, 40, 1461.46533203125
0, 1, 41, 1487.843994140625
0, 1, 42, 1491.465698242188
0, 1, 43, 1501.977416992188
0, 1, 44, 1449.322387695312
0, 1, 45, 1487.28125
0, 1, 46, 1421.190063476562
0, 1, 47, 1437.954467773438
0, 1, 48, 1427.135009765625
0, 1, 49, 1484.222900390625
0, 1, 50, 1442.189697265625
0, 1, 51, 1474.22607421875
0, 1, 52, 1474.887329101562
0, 1, 53, 1474.7548828125
0, 1, 54, 1509.677368164062
0, 1, 55, 1494.090209960938
0, 1, 56, 1472.15234375
0, 1, 57, 1454.05322265625
0, 1, 58, 1428.8359375
0, 1, 59, 1482.739379882812
0, 1, 60, 1464.576171875
0, 1, 61, 1449.531616210938
0, 1, 62, 1455.652465820312
0, 1, 63, 1418.535522460938
0, 1, 64, 1477.072387695312
0, 1, 65, 1420.444458007812
0, 1, 66, 1438.511108398438
0, 1, 67, 1453.785888671875
0, 1, 68, 1386.65771484375
0, 1, 69, 1466.499267578125
0, 1, 70, 1432.302124023438
0, 1, 71, 1495.181030273438
0, 1, 72, 1438.91650390625
0, 1, 73, 1486.770385742188
0, 1, 74, 1468.542602539062
0, 1, 75, 1476.93017578125
0, 1, 76, 1456.951416015625
0, 1, 77, 1468.249267578125
0, 1, 78, 1450.003295898438
0, 1, 79, 1502.166015625
0, 1, 80, 1450.01318359375
0, 1, 81, 1420.919311523438
0, 1, 82, 1472.3486328125
0, 1, 83, 1458.630981445312
0, 1, 84, 1536.719604492188
0, 1, 85, 1448.419067382812
0, 1, 86, 1405.943237304688
0, 1, 87, 1422.780395507812
0, 1, 88, 1471.275024414062
0, 1, 89, 1478.381958007812
0, 1, 90, 1423.440551757812
0, 1, 91, 1460.4111328125
0, 1, 92, 1416.13330078125
0, 1, 93, 1461.425537109375
0, 1, 94, 1471.857055664062
0, 1, 95, 1417.709350585938
0, 1, 96, 1496.396728515625
0, 1, 97, 1513.502685546875
0, 1, 98, 1477.604858398438
0, 1, 99, 1415.942504882812
0, 1, 100, 1446.6435546875
0, 1, 101, 1411.969482421875
0, 1, 102, 1442.371459960938
0, 1, 103, 1416.500244140625
0, 1, 104, 1406.825073242188
0, 1, 105, 1462.349609375
0, 1, 106, 1364.554809570312
0, 1, 107, 1020.927734375
0, 1, 108, 404.5510559082031
0, 1, 109, 95.54801177978516
0, 1, 110, 65.25533294677734
0, 1, 111, 58.00564575195312
0, 1, 112, 46.78018569946289
0, 1, 113, 40.13821411132812
0, 1, 114, 36.11092376708984
0, 1, 115, 40.30227661132812
0, 1, 116, 37.0827751159668
0, 1, 117, 32.9590950012207
0, 1, 118, 41.33430099487305
0, 1, 119, 35.94389343261719
0, 1, 120, 30.52593803405762
0, 1, 121, 31.21968650817871
0, 1, 122, 20.97390365600586
0, 1, 123, 23.27373504638672
0, 1, 124, 27.51069641113281
0, 1, 125, 18.4078483581543
0, 1, 126, 21.96108627319336
0, 1, 127, 19.046142578125
0, 2, 0, 29.28305816650391
0, 2, 1, 21.43367576599121
0, 2, 2, 29.3494815826416
0, 2, 3, 24.97445678710938
0, 2, 4, 25.27959060668945
0, 2, 5, 25.79174423217773
0, 2, 6, 25.28926277160645
0, 2, 7, 20.77359390258789
0, 2, 8, 29.76362228393555
0, 2, 9, 27.72032356262207
0, 2, 10, 28.84308242797852
0, 2, 11, 35.16827774047852
0, 2, 12, 39.73330307006836
0, 2, 13, 48.04967880249023
0, 2, 14, 51.58016204833984
0, 2, 15, 48.92250061035156
0, 2, 16, 60.66075134277344
0, 2, 17, 78.27559661865234
0, 2, 18, 150.0315399169922
0, 2, 19, 608.4356079101562
0, 2, 20, 1283.983764648438
0, 2, 21, 1438.082641601562
0, 2, 22, 1451.107788085938
0, 2, 23, 1406.63818359375
0, 2, 24, 1441.746215820312
0, 2, 25, 1523.997436523438
0, 2, 26, 1553.294555664062
0, 2, 27, 1455.713745117188
0, 2, 28, 1459.223266601562
0, 2, 29, 1461.1416015625
0, 2, 30, 1468.2412109375
0, 2, 31, 1537.90234375
0, 2, 32, 1510.484619140625
0, 2, 33, 1444.51318359375
0, 2, 34, 1472.305419921875
0, 2, 35, 1473.534545898438
0, 2, 36, 1525.338134765625
0, 2, 37, 1540.703369140625
0, 2, 38, 1511.615844726562
0, 2, 39, 1465.903076171875
0, 2, 40, 1502.907470703125
0, 2, 41, 1517.531494140625
0, 2, 42, 1503.643920898438
0, 2, 43, 1550.233764648438
0, 2, 44, 1457.72021484375
0, 2, 45, 1479.6435546875
0, 2, 46, 1424.584106445312
0, 2, 47, 1445.6982421875
0, 2, 48, 1396.938842773438
0, 2, 49, 1459.950317382812
0, 2, 50, 1443.568603515625
0, 2, 51, 1446.91650390625
0, 2, 52, 1495.280883789062
0, 2, 53, 1525.16357421875
0, 2, 54, 1525.528564453125
0, 2, 55, 1491.2998046875
0, 2, 56, 1460.19287109375
0, 2, 57, 1413.387817382812
0, 2, 58, 1452.178466796875
0, 2, 59, 1442.626831054688
0, 2, 60, 1473.394775390625
0, 2, 61, 1450.244750976562
0, 2, 62, 1472.575805664062
0, 2, 63, 1514.03955078125
0, 2, 64, 1458.552124023438
0, 2, 65, 1425.043334960938
0, 2, 66, 1489.076904296875
0, 2, 67, 1499.292724609375
0, 2, 68, 1542.8916015625
0, 2, 69, 1535.908081054688
0, 2, 70, 1507.822265625
0, 2, 71, 1465.101806640625
0, 2, 72, 1516.069580078125
0, 2, 73, 1518.992309570312
0, 2, 74, 1487.0927734375
0, 2, 75, 1500.31689453125
0, 2, 76, 1448.224243164062
0, 2, 77, 1511.174682617188
0, 2, 78, 1424.046020507812
0, 2, 79, 1538.388427734375
0, 2, 80, 1475.7138671875
0, 2, 81, 1464.726806640625
0, 2, 82, 1555.913208007812
0, 2, 83, 1515.931884765625
0, 2, 84, 1491.281616210938
0, 2, 85, 1518.805786132812
0, 2, 86, 1535.709594726562
0, 2, 87, 1485.976440429688
0, 2, 88, 1536.31884765625
0, 2, 89, 1466.028930664062
0, 2, 90, 1435.738037109375
0, 2, 91, 1407.206298828125
0, 2, 92, 1476.924926757812
0, 2, 93, 1495.067626953125
0, 2, 94, 1450.009765625
0, 2, 95, 1544.40966796875
0, 2, 96, 1514.456665039062
0, 2, 97, 1451.98974609375
0, 2, 98, 1468.985229492188
0, 2, 99, 1407.181640625
0, 2, 100, 1476.36767578125
0, 2, 101, 1477.051391601562
0, 2, 102, 1466.980224609375
0, 2, 103, 1386.854858398438
0, 2, 104, 1408.75439453125
0, 2, 105, 1396.105834960938
0, 2, 106, 1454.023803710938
0, 2, 107, 1275.048461914062
0, 2, 108, 620.5922241210938
0, 2, 109, 170.61083984375
0, 2, 110, 70.73589324951172
0, 2, 111, 61.2722053527832
0, 2, 112, 47.39446640014648
0, 2, 113, 45.72019577026367
0, 2, 114, 42.97682571411133
0, 2, 115, 39.28318023681641
0, 2, 116, 32.29219818115234
0, 2, 117, 35.27742004394531
0, 2, 118, 29.48550415039062
0, 2, 119, 32.16215133666992
0, 2, 120, 36.81543350219727
0, 2, 121, 19.41554641723633
0, 2, 122, 25.97609710693359
0, 2, 123, 21.40973091125488
0, 2, 124, 24.57690238952637
0, 2, 125, 31.9616870880127
0, 2, 126, 18.92385292053223
0, 2, 127, 18.31105041503906
0, 3, 0, 16.91686820983887
0, 3, 1, 24.14636611938477
0, 3, 2, 24.90728569030762
0, 3, 3, 23.97955322265625
0, 3, 4, 15.89782428741455
0, 3, 5, 21.21479606628418
0, 3, 6, 33.8327751159668
0, 3, 7, 27.8255558013916
0, 3, 8, 28.98610496520996
0, 3, 9, 25.12936782836914
0, 3, 10, 35.56032180786133
0, 3, 11, 36.01221084594727
0, 3, 12, 42.08245849609375
0, 3, 13, 54.93602752685547
0, 3, 14, 58.49104309082031
0, 3, 15, 56.47626495361328
0, 3, 16, 65.10166931152344
0, 3, 17, 90.04044342041016
0, 3, 18, 240.1396179199219
0, 3, 19, 882.5977783203125
0, 3, 20, 1388.1435546875
0, 3, 21, 1510.97314453125
0, 3, 22, 1461.21240234375
0, 3, 23, 1456.573974609375
0, 3, 24, 1440.406127929688
0, 3, 25, 1466.961303710938
0, 3, 26, 1491.930786132812
0, 3, 27, 1468.689331054688
0, 3, 28, 1491.867797851562
0, 3, 29, 1546.706665039062
0, 3, 30, 1567.520141601562
0, 3, 31, 1511.57275390625
0, 3, 32, 1545.619384765625
0, 3, 33, 1542.447998046875
0, 3, 34, 1485.050048828125
0, 3, 35, 1467.682373046875
0, 3, 36, 1448.553100585938
0, 3, 37, 1516.552001953125
0, 3, 38, 1514.340576171875
0, 3, 39, 1435.015258789062
0, 3, 40, 1443.41455078125
0, 3, 41, 1561.522338867188
0, 3, 42, 1459.122314453125
0, 3, 43, 1453.462768554688
0, 3, 44, 1453.726318359375
0, 3, 45, 1505.5390625
0, 3, 46, 1503.983032226562
0, 3, 47, 1442.251586914062
0, 3, 48, 1508.954467773438
0, 3, 49, 1453.248413085938
0, 3, 50, 1490.26611328125
0, 3, 51, 1538.69287109375
0, 3, 52, 1537.827026367188
0, 3, 53, 1465.67431640625
0, 3, 54, 1536.5498046875
0, 3, 55, 1504.628784179688
0, 3, 56, 1435.730224609375
0, 3, 57, 1501.013671875
0, 3, 58, 1516.143676757812
0, 3, 59, 1514.82958984375
0, 3, 60, 1533.688598632812
0, 3, 61, 1479.453979492188
0, 3, 62, 1491.738037109375
0, 3, 63, 1496.560913085938
0, 3, 64, 1497.54833984375
0, 3, 65, 1518.275512695312
0, 3, 66, 1557.040649414062
0, 3, 67, 1544.728637695312
0, 3, 68, 1451.430053710938
0, 3, 69, 1462.54296875
0, 3, 70, 1385.332885742188
0, 3, 71, 1465.553955078125
0, 3, 72, 1548.043212890625
0, 3, 73, 1501.303833007812
0, 3, 74, 1466.523681640625
0, 3, 75, 1464.27734375
0, 3, 76, 1576.058959960938
0, 3, 77, 1544.102172851562
0, 3, 78, 1426.644897460938
0, 3, 79, 1497.3369140625
0, 3, 80, 1464.17529296875
0, 3, 81, 1470.955688476562
0, 3, 82, 1554.531616210938
0, 3, 83, 1512.258666992188
0, 3, 84, 1562.655395507812
0, 3, 85, 1479.033447265625
0, 3, 86, 1528.161254882812
0, 3, 87, 1538.132446289062
0, 3, 88, 1460.0517578125
0, 3, 89, 1451.371459960938
0, 3, 90, 1449.35888671875
0, 3, 91, 1416.9267578125
0, 3, 92, 1513.131103515625
0, 3, 93, 1501.027587890625
0, 3, 94, 1513.698852539062
0, 3, 95, 1545.792846679688
0, 3, 96, 1514.68310546875
0, 3, 97, 1468.3466796875
0, 3, 98, 1438.52783203125
0, 3, 99, 1468.697875976562
0, 3, 100, 1472.566040039062
0, 3, 101, 1472.534301757812
0, 3, 102, 1523.179809570312
0, 3, 103, 1557.866333007812
0, 3, 104, 1497.880981445312
0, 3, 105, 1521.166259765625
0, 3, 106, 1478.258911132812
0, 3, 107, 1343.16357421875
0, 3, 108, 874.7154541015625
0, 3, 109, 262.5353393554688
0, 3, 110, 102.4863586425781
0, 3, 111, 60.07359313964844
0, 3, 112, 52.70627593994141
0, 3, 113, 54.43849182128906
0, 3, 114, 46.8067741394043
0, 3, 115, 52.09487533569336
0, 3, 116, 36.21805572509766
0, 3, 117, 43.52915573120117
0, 3, 118, 35.27959823608398
0, 3, 119, 29.35867881774902
0, 3, 120, 29.11356925964355
0, 3, 121, 21.20133018493652
0, 3, 122, 26.05435943603516
0, 3, 123, 22.09415817260742
0, 3, 124, 22.72189521789551
0, 3, 125, 24.59382057189941
0, 3, 126, 29.05488586425781
0, 3, 127, 18.54323768615723
0, 4, 0, 24.00758934020996
0, 4, 1, 23.97582626342773
0, 4, 2, 17.75036239624023
0, 4, 3, 21.88205528259277
0, 4, 4, 25.50781059265137
0, 4, 5, 28.33563423156738
0, 4, 6, 28.15085220336914
0, 4, 7, 36.93436050415039
0, 4, 8, 26.06595039367676
0, 4, 9, 34.62932205200195
0, 4, 10, 31.04415130615234
0, 4, 11, 38.81772994995117
0, 4, 12, 43.41706466674805
0, 4, 13, 57.82649612426758
0, 4, 14, 51.98929977416992
0, 4, 15, 60.98558044433594
0, 4, 16, 78.01712036132812
0, 4, 17, 116.9043807983398
0, 4, 18, 443.1853332519531
0, 4, 19, 1180.380615234375
0, 4, 20, 1445.300170898438
0, 4, 21, 1419.624633789062
0, 4, 22, 1434.5830078125
0, 4, 23, 1451.301147460938
0, 4, 24, 1476.184204101562
0, 4, 25, 1404.55615234375
0, 4, 26, 1534.017456054688
0, 4, 27, 1542.067016601562
0, 4, 28, 1507.004760742188
0, 4, 29, 1512.739868164062
0, 4, 30, 1527.216430664062
0, 4, 31, 1567.430541992188
0, 4, 32, 1517.5205078125
0, 4, 33, 1496.144653320312
0, 4, 34, 1472.794555664062
0, 4, 35, 1562.77978515625
0, 4, 36, 1504.5087890625
0, 4, 37, 1508.158325195312
0, 4, 38, 1534.559814453125
0, 4, 39, 1466.525512695312
0, 4, 40, 1511.821533203125
0, 4, 41, 1582.39892578125
0, 4, 42, 1560.62451171875
0, 4, 43, 1475.081420898438
0, 4, 44, 1498.240478515625
0, 4, 45, 1517.268432617188
0, 4, 46, 1473.242919921875
0, 4, 47, 1500.15283203125
0, 4, 48, 1526.034301757812
0, 4, 49, 1475.689208984375
0, 4, 50, 1517.443725585938
0, 4, 51, 1491.906860351562
0, 4, 52, 1493.454956054688
0, 4, 53, 1453.06103515625
0, 4, 54, 1442.319580078125
0, 4, 55, 1522.344116210938
0, 4, 56, 1453.787353515625
0, 4, 57, 1498.884521484375
0, 4, 58, 1469.50048828125
0, 4, 59, 1466.837280273438
0, 4, 60, 1528.48193359375
0, 4, 61, 1499.06591796875
0, 4, 62, 1502.971801757812
0, 4, 63, 1544.155883789062
0, 4, 64, 1588.443237304688
0, 4, 65, 1420.824584960938
0, 4, 66, 1513.546264648438
0, 4, 67, 1521.456298828125
0, 4, 68, 1496.806518554688
0, 4, 69, 1467.308959960938
0, 4, 70, 1543.338500976562
0, 4, 71, 1519.338256835938
0, 4, 72, 1536.095581054688
0, 4, 73, 1492.252319335938
0, 4, 74, 1484.488647460938
0, 4, 75, 1534.405639648438
0, 4, 76, 1476.69775390625
0, 4, 77, 1501.434326171875
0, 4, 78, 1502.813720703125
0, 4, 79, 1479.556030273438
0, 4, 80, 1515.157348632812
0, 4, 81, 1524.395141601562
0, 4, 82, 1569.935791015625
0, 4, 83, 1506.332763671875
0, 4, 84, 1542.941040039062
0, 4, 85, 1552.183349609375
0, 4, 86, 1523.798706054688
0, 4, 87, 1500.789794921875
0, 4, 88, 1514.612915039062
0, 4, 89, 1486.141723632812
0, 4, 90, 1543.822509765625
0, 4, 91, 1557.01806640625
0, 4, 92, 1492.574462890625
0, 4, 93, 1517.115234375
0, 4, 94, 1487.548583984375
0, 4, 95, 1509.47705078125
0, 4, 96, 1444.783447265625
0, 4, 97, 1410.1396484375
0, 4, 98, 1554.669189453125
0, 4, 99, 1512.542114257812
0, 4, 100, 1486.128173828125
0, 4, 101, 1449.795776367188
0, 4, 102, 1448.072387695312
0, 4, 103, 1515.093017578125
0, 4, 104, 1514.137817382812
0, 4, 105, 1558.165893554688
0, 4, 106, 1475.760375976562
0, 4, 107, 1451.774169921875
0, 4, 108, 1117.544555664062
0, 4, 109, 434.4412231445312
0, 4, 110, 95.26718139648438
0, 4, 111, 68.04265594482422
0, 4, 112, 59.40451812744141
0, 4, 113, 48.81085205078125
0, 4, 114, 53.97765731811523
0, 4, 115, 40.58884811401367
0, 4, 116, 40.06713485717773
0, 4, 117, 43.72235488891602
0, 4, 118, 34.46403884887695
0, 4, 119, 38.51021957397461
0, 4, 120, 38.19540786743164
0, 4, 121, 27.23043441772461
0, 4, 122, 28.99534225463867
0, 4, 123, 31.18595123291016
0, 4, 124, 22.41892623901367
0, 4, 125, 29.61004257202148
0, 4, 126, 23.14820289611816
0, 4, 127, 18.66859245300293
0, 5, 0, 20.78298187255859
0, 5, 1, 24.61371803283691
0, 5, 2, 32.1504020690918
0, 5, 3, 25.10354995727539
0, 5, 4, 22.27208137512207
0, 5, 5, 34.55233383178711
0, 5, 6, 30.30644798278809
0, 5, 7, 27.58189964294434
0, 5, 8, 31.85767364501953
0, 5, 9, 33.80909729003906
0, 5, 10, 33.86429595947266
0, 5, 11, 45.21674728393555
0, 5, 12, 39.30537796020508
0, 5, 13, 43.10727310180664
0, 5, 14, 58.45587539672852
0, 5, 15, 76.39929962158203
0, 5, 16, 77.52246856689453
0, 5, 17, 154.6383209228516
0, 5, 18, 673.5166625976562
0, 5, 19, 1349.401977539062
0, 5, 20, 1528.279663085938
0, 5, 21, 1495.587524414062
0, 5, 22, 1498.528686523438
0, 5, 23, 1530.798583984375
0, 5, 24, 1468.9736328125
0, 5, 25, 1431.39697265625
0, 5, 26, 1529.01025390625
0, 5, 27, 1539.71484375
0, 5, 28, 1489.830322265625
0, 5, 29, 1521.926635742188
0, 5, 30, 1494.180419921875
0, 5, 31, 1500.376220703125
0, 5, 32, 1593.19140625
0, 5, 33, 1503.569702148438
0, 5, 34, 1489.658203125
0, 5, 35, 1508.436767578125
0, 5, 36, 1440.672241210938
0, 5, 37, 1532.47509765625
0, 5, 38, 1547.296020507812
0, 5, 39, 1552.24169921875
0, 5, 40, 1499.2666015625
0, 5, 41, 1479.399536132812
0, 5, 42, 1542.621215820312
0, 5, 43, 1532.61279296875
0, 5, 44, 1540.291137695312
0, 5, 45, 1505.37548828125
0, 5, 46, 1497.000732421875
0, 5, 47, 1484.654174804688
0, 5, 48, 1501.0791015625
0, 5, 49, 1524.08740234375
0, 5, 50, 1499.6328125
0, 5, 51, 1517.727905273438
0, 5, 52, 1427.451049804688
0, 5, 53, 1517.19775390625
0, 5, 54, 1520.81201171875
0, 5, 55, 1524.79296875
0, 5, 56, 1486.7255859375
0, 5, 57, 1536.938232421875
0, 5, 58, 1502.348022460938
0, 5, 59, 1494.665649414062
0, 5, 60, 1538.455078125
0, 5, 61, 1450.498168945312
0, 5, 62, 1586.330444335938
0, 5, 63, 1438.694091796875
0, 5, 64, 1488.442016601562
0, 5, 65, 1469.403076171875
0, 5, 66, 1530.600341796875
0, 5, 67, 1559.8564453125
0, 5, 68, 1464.858642578125
0, 5, 69, 1482.984741210938
0, 5, 70, 1489.616333007812
0, 5, 71, 1470.91162109375
0, 5, 72, 1537.109130859375
0, 5, 73, 1460.629150390625
0, 5, 74, 1494.599487304688
0, 5, 75, 1486.839721679688
0, 5, 76, 1479.134155273438
0, 5, 77, 1522.699462890625
0, 5, 78, 1528.89208984375
0, 5, 79, 1509.097778320312
0, 5, 80, 1520.868896484375
0, 5, 81, 1595.27001953125
0, 5, 82, 1524.525756835938
0, 5, 83, 1491.195068359375
0, 5, 84, 1535.263671875
0, 5, 85, 1511.550415039062
0, 5, 86, 1554.130859375
0, 5, 87, 1478.142822265625
0, 5, 88, 1505.89501953125
0, 5, 89, 1484.781494140625
0, 5, 90, 1483.739868164062
0, 5, 91, 1553.5517578125
0, 5, 92, 1478.364501953125
0, 5, 93, 1560.615478515625
0, 5, 94, 1515.116333007812
0, 5, 95, 1564.501342773438
0, 5, 96, 1500.816650390625
0, 5, 97, 1511.181274414062
0, 5, 98, 1513.500244140625
0, 5, 99, 1540.336791992188
0, 5, 100, 1432.932983398438
0, 5, 101, 1429.988525390625
0, 5, 102, 1511.266479492188
0, 5, 103, 1475.256591796875
0, 5, 104, 1460.493041992188
0, 5, 105, 1491.818969726562
0, 5, 106, 1457.033569335938
0, 5, 107, 1407.96044921875
0, 5, 108, 1290.744140625
0, 5, 109, 720.5681762695312
0, 5, 110, 190.5225067138672
0, 5, 111, 91.40589904785156
0, 5, 112, 87.54117584228516
0, 5, 113, 67.09325408935547
0, 5, 114, 58.46651840209961
0, 5, 115, 54.73365020751953
0, 5, 116, 44.07322311401367
0, 5, 117, 39.9108772277832
0, 5, 118, 44.79256820678711
0, 5, 119, 26.26556015014648
0, 5, 120, 32.79941177368164
0, 5, 121, 25.7888298034668
0, 5, 122, 33.01320648193359
0, 5, 123, 25.49587631225586
0, 5, 124, 28.88261032104492
0, 5, 125, 18.11828231811523
0, 5, 126, 20.28591728210449
0, 5, 127, 23.15116119384766
0, 6, 0, 23.44039344787598
0, 6, 1, 27.02495574951172
0, 6, 2, 30.5431957244873
0, 6, 3, 24.04473876953125
0, 6, 4, 22.13513565063477
0, 6, 5, 31.74285697937012
0, 6, 6, 33.14383316040039
0, 6, 7, 32.28805541992188
0, 6, 8, 32.57648086547852
0, 6, 9, 34.39892578125
0, 6, 10, 38.94209289550781
0, 6, 11, 41.81000518798828
0, 6, 12, 39.08887100219727
0, 6, 13, 60.02150344848633
0, 6, 14, 67.40737915039062
0, 6, 15, 82.94762420654297
0, 6, 16, 114.8173675537109
0, 6, 17, 300.57763671875
0, 6, 18, 904.7327880859375
0, 6, 19, 1373.97021484375
0, 6, 20, 1438.47314453125
0, 6, 21, 1533.088989257812
0, 6, 22, 1508.51025390625
0, 6, 23, 1529.51953125
0, 6, 24, 1476.439697265625
0, 6, 25, 1527.821899414062
0, 6, 26, 1518.223754882812
0, 6, 27, 1521.165405273438
0, 6, 28, 1553.772216796875
0, 6, 29, 1575.282104492188
0, 6, 30, 1513.39794921875
0, 6, 31, 1495.65966796875
0, 6, 32, 1520.603149414062
0, 6, 33, 1492.0166015625
0, 6, 34, 1561.610473632812
0, 6, 35, 1501.5693359375
0, 6, 36, 1437.947387695312
0, 6, 37, 1545.084716796875
0, 6, 38, 1520.273559570312
0, 6, 39, 1524.798706054688
0, 6, 40, 1457.260620117188
0, 6, 41, 1446.434204101562
0, 6, 42, 1516.714965820312
0, 6, 43, 1489.422973632812
0, 6, 44, 1430.677856445312
0, 6, 45, 1545.014282226562
0, 6, 46, 1552.231201171875
0, 6, 47, 1493.3583984375
0, 6, 48, 1528.822509765625
0, 6, 49, 1507.834106445312
0, 6, 50, 1575.229614257812
0, 6, 51, 1500.3818359375
0, 6, 52, 1561.856811523438
0, 6, 53, 1471.845092773438
0, 6, 54, 1500.784912109375
0, 6, 55, 1569.853881835938
0, 6, 56, 1526.053100585938
0, 6, 57, 1504.778930664062
0, 6, 58, 1472.134643554688
0, 6, 59, 1522.716796875
0, 6, 60, 1473.546875
0, 6, 61, 1575.348022460938
0, 6, 62, 1541.598754882812
0, 6, 63, 1497.1650390625
0, 6, 64, 1414.942993164062
0, 6, 65, 1489.160034179688
0, 6, 66, 1505.660400390625
0, 6, 67, 1516.130737304688
0, 6, 68, 1547.710327148438
0, 6, 69, 1486.002563476562
0, 6, 70, 1526.224243164062
0, 6, 71, 1465.576171875
0, 6, 72, 1590.87255859375
0, 6, 73, 1492.462280273438
0, 6, 74, 1561.8671875
0, 6, 75, 1536.91357421875
0, 6, 76, 1565.316040039062
0, 6, 77, 1508.239501953125
0, 6, 78, 1449.2255859375
0, 6, 79, 1554.72900390625
0, 6, 80, 1480.650024414062
0, 6, 81, 1487.7470703125
0, 6, 82, 1507.48193359375
0, 6, 83, 1529.726684570312
0, 6, 84, 1527.623901367188
0, 6, 85, 1537.5166015625
0, 6, 86, 1540.921020507812
0, 6, 87, 1576.765502929688
0, 6, 88, 1472.84375
0, 6, 89, 1562.526733398438
0, 6, 90, 1487.246704101562
0, 6, 91, 1540.953735351562
0, 6, 92, 1487.896240234375
0, 6, 93, 1497.1083984375
0, 6, 94, 1464.788818359375
0, 6, 95, 1512.615844726562
0, 6, 96, 1521.399291992188
0, 6, 97, 1498.946166992188
0, 6, 98, 1495.961791992188
0, 6, 99, 1483.253173828125
0, 6, 100, 1521.406005859375
0, 6, 101, 1515.721801757812
0, 6, 102, 1539.25390625
0, 6, 103, 1497.311645507812
0, 6, 104, 1466.284790039062
0, 6, 105, 1485.871826171875
0, 6, 106, 1501.865112304688
0, 6, 107, 1501.104370117188
0, 6, 108, 1410.2666015625
0, 6, 109, 927.1517944335938
0, 6, 110, 287.3670043945312
0, 6, 111, 96.97366333007812
0, 6, 112, 78.70072174072266
0, 6, 113, 53.95709991455078
0, 6, 114, 55.15129852294922
0, 6, 115, 44.25283432006836
0, 6, 116, 43.06023788452148
0, 6, 117, 36.62839889526367
0, 6, 118, 40.62220001220703
0, 6, 119, 33.836181640625
0, 6, 120, 33.09068298339844
0, 6, 121, 28.11738586425781
0, 6, 122, 29.08664703369141
0, 6, 123, 23.5886344909668
0, 6, 124, 31.92278289794922
0, 6, 125, 31.54094123840332
0, 6, 126, 20.58051681518555
0, 6, 127, 19.30408096313477
0, 7, 0, 26.34121131896973
0, 7, 1, 27.89865303039551
0, 7, 2, 20.90778350830078
0, 7, 3, 22.31785774230957
0, 7, 4, 23.47372055053711
0, 7, 5, 37.69132995605469
0, 7, 6, 34.61030960083008
0, 7, 7, 37.04549026489258
0, 7, 8, 29.41342163085938
0, 7, 9, 34.38834762573242
0, 7, 10, 46.07587432861328
0, 7, 11, 46.39584350585938
0, 7, 12, 46.42470169067383
0, 7, 13, 56.86307144165039
0, 7, 14, 63.32847595214844
0, 7, 15, 80.27279663085938
0, 7, 16, 130.7026062011719
0, 7, 17, 458.3787231445312
0, 7, 18, 1096.141479492188
0, 7, 19, 1501.903686523438
0, 7, 20, 1489.976318359375
0, 7, 21, 1362.422973632812
0, 7, 22, 1485.97998046875
0, 7, 23, 1453.537841796875
0, 7, 24, 1504.192749023438
0, 7, 25, 1590.759643554688
0, 7, 26, 1519.480346679688
0, 7, 27, 1509.730346679688
0, 7, 28, 1544.890747070312
0, 7, 29, 1576.513549804688
0, 7, 30, 1546.331176757812
0, 7, 31, 1440.39404296875
0, 7, 32, 1545.12939453125
0, 7, 33, 1488.439331054688
0, 7, 34, 1479.616577148438
0, 7, 35, 1520.333984375
0, 7, 36, 1469.50048828125
0, 7, 37, 1595.585571289062
0, 7, 38, 1505.905639648438
0, 7, 39, 1493.268188476562
0, 7, 40, 1544.501831054688
0, 7, 41, 1466.6044921875
0, 7, 42, 1490.92724609375
0, 7, 43, 1444.58349609375
0, 7, 44, 1485.776123046875
0, 7, 45, 1474.849731445312
0, 7, 46, 1514.171142578125
0, 7, 47, 1567.503662109375
0, 7, 48, 1523.095825195312
0, 7, 49, 1540.182983398438
0, 7, 50, 1512.208251953125
0, 7, 51, 1497.452270507812
0, 7, 52, 1514.649780273438
0, 7, 53, 1495.48046875
0, 7, 54, 1587.553344726562
0, 7, 55, 1471.321899414062
0, 7, 56, 1549.83251953125
0, 7, 57, 1510.76220703125
0, 7, 58, 1544.578979492188
0, 7, 59, 1539.949340820312
0, 7, 60, 1546.092529296875
0, 7, 61, 1487.767456054688
0, 7, 62, 1436.023071289062
0, 7, 63, 1513.834594726562
0, 7, 64, 1546.62353515625
0, 7, 65, 1529.027099609375
0, 7, 66, 1539.023681640625
0, 7, 67, 1585.276489257812
0, 7, 68, 1532.17236328125
0, 7, 69, 1511.200805664062
0, 7, 70, 1490.995483398438
0, 7, 71, 1521.373779296875
0, 7, 72, 1524.905029296875
0, 7, 73, 1513.373168945312
0, 7, 74, 1573.814697265625
0, 7, 75, 1535.0791015625
0, 7, 76, 1555.2724609375
0, 7, 77, 1513.594604492188
0, 7, 78, 1505.69140625
0, 7, 79, 1422.860717773438
0, 7, 80, 1485.243041992188
0, 7, 81, 1487.51416015625
0, 7, 82, 1526.889526367188
0, 7, 83, 1542.885009765625
0, 7, 84, 1584.47216796875
0, 7, 85, 1482.22119140625
0, 7, 86, 1495.295166015625
0, 7, 87, 1503.780151367188
0, 7, 88, 1502.088256835938
0, 7, 89, 1553.637939453125
0, 7, 90, 1519.95068359375
0, 7, 91, 1566.137084960938
0, 7, 92, 1532.3955078125
0, 7, 93, 1553.146362304688
0, 7, 94, 1536.461059570312
0, 7, 95, 1504.335205078125
0, 7, 96, 1507.879150390625
0, 7, 97, 1440.373168945312
0, 7, 98, 1482.529418945312
0, 7, 99, 1528.604614257812
0, 7, 100, 1419.700073242188
0, 7, 101, 1463.677368164062
0, 7, 102, 1450.820068359375
0, 7, 103, 1432.1689453125
0, 7, 104, 1492.380615234375
0, 7, 105, 1522.797485351562
0, 7, 106, 1564.53759765625
0, 7, 107, 1480.364135742188
0, 7, 108, 1410.72412109375
0, 7, 109, 1143.125244140625
0, 7, 110, 476.8367309570312
0, 7, 111, 130.5735168457031
0, 7, 112, 84.64070892333984
0, 7, 113, 67.35117340087891
0, 7, 114, 57.1964225769043
0, 7, 115, 52.52915573120117
0, 7, 116, 50.86199569702148
0, 7, 117, 42.19460296630859
0, 7, 118, 33.49502944946289
0, 7, 119, 31.42027282714844
0, 7, 120, 19.07460784912109
0, 7, 121, 27.00873184204102
0, 7, 122, 37.0028190612793
0, 7, 123, 30.53201293945312
0, 7, 124, 29.50163078308105
0, 7, 125, 24.24722099304199
0, 7, 126, 29.43279647827148
0, 7, 127, 19.33269119262695
0, 8, 0, 16.75240325927734
0, 8, 1, 25.81960678100586
0, 8, 2, 23.2604866027832
0, 8, 3, 26.51985359191895
0, 8, 4, 26.94247817993164
0, 8, 5, 27.59167671203613
0, 8, 6, 27.04578018188477
0, 8, 7, 31.50714683532715
0, 8, 8, 34.16072845458984
0, 8, 9, 43.78234100341797
0, 8, 10, 40.5132942199707
0, 8, 11, 46.16286849975586
0, 8, 12, 57.44415664672852
0, 8, 13, 68.40081024169922
0, 8, 14, 68.91057586669922
0, 8, 15, 86.74544525146484
0, 8, 16, 168.7209320068359
0, 8, 17, 670.6991577148438
0, 8, 18, 1278.707763671875
0, 8, 19, 1449.443725585938
0, 8, 20, 1422.615356445312
0, 8, 21, 1406.401977539062
0, 8, 22, 1487.77685546875
0, 8, 23, 1480.536010742188
0, 8, 24, 1433.12548828125
0, 8, 25, 1460.4384765625
0, 8, 26, 1517.23486328125
0, 8, 27, 1517.31982421875
0, 8, 28, 1474.0361328125
0, 8, 29, 1512.243774414062
0, 8, 30, 1482.943481445312
0, 8, 31, 1532.323974609375
0, 8, 32, 1514.980346679688
0, 8, 33, 1481.998413085938
0, 8, 34, 1538.312255859375
0, 8, 35, 1440.44287109375
0, 8, 36, 1497.055419921875
0, 8, 37, 1554.98388671875
0, 8, 38, 1555.390869140625
0, 8, 39, 1492.17138671875
0, 8, 40, 1528.803833007812
0, 8, 41, 1486.601318359375
0, 8, 42, 1543.113159179688
0, 8, 43, 1435.180419921875
0, 8, 44, 1535.0703125
0, 8, 45, 1514.594848632812
0, 8, 46, 1598.099853515625
0, 8, 47, 1584.861938476562
0, 8, 48, 1541.9453125
