# TOPAS Version: 3.1.p3
# Parameter File: batch_inserts_274.txt
# Results for scorer Readout_Adipose
# Scored in component: MyBox
# X in 1 bin  of 0.75 cm
# Y in 512 bins of 0.0783984 cm
# Z in 128 bins of 0.078125 cm
# EnergyDeposit ( MeV ) : Sum   
0, 0, 0, 18.94348335266113
0, 0, 1, 19.65242195129395
0, 0, 2, 21.76297760009766
0, 0, 3, 22.82309341430664
0, 0, 4, 18.2912654876709
0, 0, 5, 24.20352363586426
0, 0, 6, 28.18869209289551
0, 0, 7, 28.80444717407227
0, 0, 8, 25.90205383300781
0, 0, 9, 18.57389450073242
0, 0, 10, 26.37619209289551
0, 0, 11, 27.64841079711914
0, 0, 12, 40.11525344848633
0, 0, 13, 34.38844299316406
0, 0, 14, 37.89036560058594
0, 0, 15, 51.37253570556641
0, 0, 16, 43.15013885498047
0, 0, 17, 46.36142730712891
0, 0, 18, 76.96503448486328
0, 0, 19, 195.1515502929688
0, 0, 20, 701.1627197265625
0, 0, 21, 1192.598266601562
0, 0, 22, 1251.2705078125
0, 0, 23, 1276.582397460938
0, 0, 24, 1283.305541992188
0, 0, 25, 1358.055786132812
0, 0, 26, 1269.54931640625
0, 0, 27, 1278.328491210938
0, 0, 28, 1321.302856445312
0, 0, 29, 1272.379760742188
0, 0, 30, 1268.924072265625
0, 0, 31, 1278.836547851562
0, 0, 32, 1264.242065429688
0, 0, 33, 1243.496459960938
0, 0, 34, 1326.065673828125
0, 0, 35, 1300.192016601562
0, 0, 36, 1248.235595703125
0, 0, 37, 1279.84619140625
0, 0, 38, 1247.529907226562
0, 0, 39, 1242.212036132812
0, 0, 40, 1224.134155273438
0, 0, 41, 1270.095092773438
0, 0, 42, 1253.0341796875
0, 0, 43, 1268.730712890625
0, 0, 44, 1226.5029296875
0, 0, 45, 1287.01904296875
0, 0, 46, 1263.6630859375
0, 0, 47, 1237.345825195312
0, 0, 48, 1278.499267578125
0, 0, 49, 1284.481689453125
0, 0, 50, 1310.190551757812
0, 0, 51, 1261.639404296875
0, 0, 52, 1359.905639648438
0, 0, 53, 1326.215087890625
0, 0, 54, 1300.650634765625
0, 0, 55, 1238.559204101562
0, 0, 56, 1316.861572265625
0, 0, 57, 1293.500732421875
0, 0, 58, 1255.353515625
0, 0, 59, 1330.625366210938
0, 0, 60, 1330.776611328125
0, 0, 61, 1265.762573242188
0, 0, 62, 1243.820190429688
0, 0, 63, 1276.016723632812
0, 0, 64, 1330.556030273438
0, 0, 65, 1284.655883789062
0, 0, 66, 1317.43310546875
0, 0, 67, 1217.253540039062
0, 0, 68, 1313.838989257812
0, 0, 69, 1326.7724609375
0, 0, 70, 1344.541748046875
0, 0, 71, 1287.5380859375
0, 0, 72, 1309.632202148438
0, 0, 73, 1236.54345703125
0, 0, 74, 1290.40087890625
0, 0, 75, 1292.919067382812
0, 0, 76, 1258.993408203125
0, 0, 77, 1287.0498046875
0, 0, 78, 1318.491088867188
0, 0, 79, 1327.403198242188
0, 0, 80, 1259.768676757812
0, 0, 81, 1320.028076171875
0, 0, 82, 1286.18017578125
0, 0, 83, 1290.514892578125
0, 0, 84, 1326.529418945312
0, 0, 85, 1231.280883789062
0, 0, 86, 1264.418212890625
0, 0, 87, 1252.227172851562
0, 0, 88, 1256.918334960938
0, 0, 89, 1332.522827148438
0, 0, 90, 1274.10595703125
0, 0, 91, 1357.733032226562
0, 0, 92, 1303.166259765625
0, 0, 93, 1270.662109375
0, 0, 94, 1241.256469726562
0, 0, 95, 1324.451049804688
0, 0, 96, 1287.371215820312
0, 0, 97, 1330.2978515625
0, 0, 98, 1254.713623046875
0, 0, 99, 1248.734375
0, 0, 100, 1287.812744140625
0, 0, 101, 1315.761474609375
0, 0, 102, 1235.6220703125
0, 0, 103, 1319.883178710938
0, 0, 104, 1262.443115234375
0, 0, 105, 1267.016845703125
0, 0, 106, 1207.587524414062
0, 0, 107, 780.5098876953125
0, 0, 108, 197.4776153564453
0, 0, 109, 71.41184234619141
0, 0, 110, 64.14289855957031
0, 0, 111, 40.04090118408203
0, 0, 112, 35.02596282958984
0, 0, 113, 31.52126121520996
0, 0, 114, 36.27344512939453
0, 0, 115, 29.81127738952637
0, 0, 116, 28.61186790466309
0, 0, 117, 29.2952709197998
0, 0, 118, 23.3637866973877
0, 0, 119, 26.07856750488281
0, 0, 120, 25.29825401306152
0, 0, 121, 26.68622779846191
0, 0, 122, 24.18717193603516
0, 0, 123, 17.18363380432129
0, 0, 124, 21.62586784362793
0, 0, 125, 24.36760711669922
0, 0, 126, 23.62874031066895
0, 0, 127, 16.77250862121582
0, 1, 0, 21.87199211120605
0, 1, 1, 26.82433891296387
0, 1, 2, 22.32417678833008
0, 1, 3, 21.33398818969727
0, 1, 4, 22.48556900024414
0, 1, 5, 20.94038009643555
0, 1, 6, 23.48076820373535
0, 1, 7, 31.95787048339844
0, 1, 8, 32.00965881347656
0, 1, 9, 29.89643478393555
0, 1, 10, 33.72030258178711
0, 1, 11, 42.34426498413086
0, 1, 12, 38.96775436401367
0, 1, 13, 42.84557342529297
0, 1, 14, 39.17378616333008
0, 1, 15, 45.60009384155273
0, 1, 16, 62.55298614501953
0, 1, 17, 68.55692291259766
0, 1, 18, 100.2327728271484
0, 1, 19, 401.6664428710938
0, 1, 20, 1038.853881835938
0, 1, 21, 1373.46044921875
0, 1, 22, 1480.65869140625
0, 1, 23, 1464.903564453125
0, 1, 24, 1444.826293945312
0, 1, 25, 1421.590576171875
0, 1, 26, 1474.072509765625
0, 1, 27, 1465.439331054688
0, 1, 28, 1490.108764648438
0, 1, 29, 1478.387329101562
0, 1, 30, 1507.29833984375
0, 1, 31, 1484.9638671875
0, 1, 32, 1411.379760742188
0, 1, 33, 1497.739624023438
0, 1, 34, 1498.513427734375
0, 1, 35, 1463.821655273438
0, 1, 36, 1489.230102539062
0, 1, 37, 1411.81787109375
0, 1, 38, 1399.246459960938
0, 1, 39, 1526.123901367188
0, 1, 40, 1459.272705078125
0, 1, 41, 1490.048706054688
0, 1, 42, 1499.747924804688
0, 1, 43, 1503.264282226562
0, 1, 44, 1448.532592773438
0, 1, 45, 1489.962036132812
0, 1, 46, 1421.057983398438
0, 1, 47, 1435.042358398438
0, 1, 48, 1428.820922851562
0, 1, 49, 1485.694091796875
0, 1, 50, 1445.620239257812
0, 1, 51, 1473.698486328125
0, 1, 52, 1479.520263671875
0, 1, 53, 1481.09716796875
0, 1, 54, 1509.950439453125
0, 1, 55, 1496.33251953125
0, 1, 56, 1474.669799804688
0, 1, 57, 1454.094604492188
0, 1, 58, 1427.7177734375
0, 1, 59, 1483.063720703125
0, 1, 60, 1466.879760742188
0, 1, 61, 1449.05029296875
0, 1, 62, 1454.042358398438
0, 1, 63, 1417.416870117188
0, 1, 64, 1477.447998046875
0, 1, 65, 1416.265380859375
0, 1, 66, 1438.304931640625
0, 1, 67, 1455.7060546875
0, 1, 68, 1386.896118164062
0, 1, 69, 1466.619506835938
0, 1, 70, 1429.355834960938
0, 1, 71, 1499.17724609375
0, 1, 72, 1439.287353515625
0, 1, 73, 1494.31787109375
0, 1, 74, 1469.661254882812
0, 1, 75, 1476.191528320312
0, 1, 76, 1458.724853515625
0, 1, 77, 1466.6923828125
0, 1, 78, 1452.722900390625
0, 1, 79, 1504.479125976562
0, 1, 80, 1445.625244140625
0, 1, 81, 1422.505981445312
0, 1, 82, 1479.641967773438
0, 1, 83, 1460.405639648438
0, 1, 84, 1535.677734375
0, 1, 85, 1447.924194335938
0, 1, 86, 1401.852294921875
0, 1, 87, 1417.77978515625
0, 1, 88, 1472.3916015625
0, 1, 89, 1476.388427734375
0, 1, 90, 1425.330322265625
0, 1, 91, 1466.052612304688
0, 1, 92, 1411.098022460938
0, 1, 93, 1463.349853515625
0, 1, 94, 1469.914794921875
0, 1, 95, 1422.33740234375
0, 1, 96, 1492.868774414062
0, 1, 97, 1518.569458007812
0, 1, 98, 1477.051513671875
0, 1, 99, 1420.190185546875
0, 1, 100, 1449.058471679688
0, 1, 101, 1411.651733398438
0, 1, 102, 1444.66162109375
0, 1, 103, 1418.03076171875
0, 1, 104, 1409.080688476562
0, 1, 105, 1463.006225585938
0, 1, 106, 1364.701049804688
0, 1, 107, 1020.26123046875
0, 1, 108, 405.7184753417969
0, 1, 109, 94.35481262207031
0, 1, 110, 60.44865798950195
0, 1, 111, 57.21303176879883
0, 1, 112, 48.49536895751953
0, 1, 113, 41.64714431762695
0, 1, 114, 38.69728469848633
0, 1, 115, 39.58950042724609
0, 1, 116, 35.27162170410156
0, 1, 117, 35.32291793823242
0, 1, 118, 36.41642761230469
0, 1, 119, 30.17386627197266
0, 1, 120, 29.52803993225098
0, 1, 121, 27.10515022277832
0, 1, 122, 22.31058692932129
0, 1, 123, 21.82295417785645
0, 1, 124, 29.79294776916504
0, 1, 125, 19.36331939697266
0, 1, 126, 19.50658226013184
0, 1, 127, 28.45098114013672
0, 2, 0, 22.16489791870117
0, 2, 1, 23.18114280700684
0, 2, 2, 30.19279098510742
0, 2, 3, 23.78652191162109
0, 2, 4, 21.64146041870117
0, 2, 5, 27.13068962097168
0, 2, 6, 25.86167526245117
0, 2, 7, 24.00925636291504
0, 2, 8, 30.53634262084961
0, 2, 9, 28.689697265625
0, 2, 10, 27.40915679931641
0, 2, 11, 32.8709831237793
0, 2, 12, 39.3362922668457
0, 2, 13, 44.16138458251953
0, 2, 14, 47.23522567749023
0, 2, 15, 51.34525680541992
0, 2, 16, 62.78403472900391
0, 2, 17, 80.56290435791016
0, 2, 18, 142.6843566894531
0, 2, 19, 602.7557983398438
0, 2, 20, 1281.224243164062
0, 2, 21, 1432.252685546875
0, 2, 22, 1454.469360351562
0, 2, 23, 1400.1337890625
0, 2, 24, 1446.4833984375
0, 2, 25, 1524.195556640625
0, 2, 26, 1551.921264648438
0, 2, 27, 1452.62158203125
0, 2, 28, 1463.350219726562
0, 2, 29, 1465.290649414062
0, 2, 30, 1464.929077148438
0, 2, 31, 1543.125244140625
0, 2, 32, 1506.078979492188
0, 2, 33, 1445.1728515625
0, 2, 34, 1478.918701171875
0, 2, 35, 1473.101318359375
0, 2, 36, 1527.231201171875
0, 2, 37, 1537.367553710938
0, 2, 38, 1503.909790039062
0, 2, 39, 1465.311889648438
0, 2, 40, 1505.28466796875
0, 2, 41, 1512.5732421875
0, 2, 42, 1500.804565429688
0, 2, 43, 1548.139770507812
0, 2, 44, 1457.622680664062
0, 2, 45, 1482.076782226562
0, 2, 46, 1428.04931640625
0, 2, 47, 1444.190307617188
0, 2, 48, 1399.1298828125
0, 2, 49, 1462.181640625
0, 2, 50, 1444.303344726562
0, 2, 51, 1446.482299804688
0, 2, 52, 1493.58154296875
0, 2, 53, 1524.644165039062
0, 2, 54, 1526.857177734375
0, 2, 55, 1496.951416015625
0, 2, 56, 1461.346435546875
0, 2, 57, 1413.487426757812
0, 2, 58, 1451.941528320312
0, 2, 59, 1446.255126953125
0, 2, 60, 1473.898803710938
0, 2, 61, 1449.513671875
0, 2, 62, 1473.3916015625
0, 2, 63, 1506.445190429688
0, 2, 64, 1456.564331054688
0, 2, 65, 1427.615966796875
0, 2, 66, 1489.680786132812
0, 2, 67, 1502.785400390625
0, 2, 68, 1539.59619140625
0, 2, 69, 1538.25390625
0, 2, 70, 1506.0224609375
0, 2, 71, 1463.3251953125
0, 2, 72, 1519.54345703125
0, 2, 73, 1520.896728515625
0, 2, 74, 1490.200317382812
0, 2, 75, 1505.900390625
0, 2, 76, 1447.920288085938
0, 2, 77, 1506.613647460938
0, 2, 78, 1425.773193359375
0, 2, 79, 1540.350341796875
0, 2, 80, 1482.259033203125
0, 2, 81, 1460.703979492188
0, 2, 82, 1557.601196289062
0, 2, 83, 1516.23974609375
0, 2, 84, 1494.426879882812
0, 2, 85, 1516.697631835938
0, 2, 86, 1540.8974609375
0, 2, 87, 1487.677856445312
0, 2, 88, 1539.321655273438
0, 2, 89, 1463.813110351562
0, 2, 90, 1432.226440429688
0, 2, 91, 1409.0576171875
0, 2, 92, 1477.557739257812
0, 2, 93, 1499.665771484375
0, 2, 94, 1455.04052734375
0, 2, 95, 1542.845947265625
0, 2, 96, 1515.797973632812
0, 2, 97, 1454.695678710938
0, 2, 98, 1463.677612304688
0, 2, 99, 1401.258422851562
0, 2, 100, 1471.496826171875
0, 2, 101, 1479.848876953125
0, 2, 102, 1466.10791015625
0, 2, 103, 1387.879150390625
0, 2, 104, 1407.875
0, 2, 105, 1397.53857421875
0, 2, 106, 1458.090942382812
0, 2, 107, 1277.230346679688
0, 2, 108, 624.0942993164062
0, 2, 109, 175.3325500488281
0, 2, 110, 68.60384368896484
0, 2, 111, 58.56044769287109
0, 2, 112, 45.84137725830078
0, 2, 113, 45.3856315612793
0, 2, 114, 43.43386077880859
0, 2, 115, 44.94127655029297
0, 2, 116, 37.75771713256836
0, 2, 117, 36.43296051025391
0, 2, 118, 31.28850555419922
0, 2, 119, 30.26986312866211
0, 2, 120, 33.90829849243164
0, 2, 121, 22.92523956298828
0, 2, 122, 27.55832672119141
0, 2, 123, 21.4473819732666
0, 2, 124, 27.14743995666504
0, 2, 125, 32.66551208496094
0, 2, 126, 18.50938415527344
0, 2, 127, 22.32052040100098
0, 3, 0, 21.85696220397949
0, 3, 1, 22.87200546264648
0, 3, 2, 20.94806289672852
0, 3, 3, 20.69390106201172
0, 3, 4, 17.20577049255371
0, 3, 5, 25.12870407104492
0, 3, 6, 35.25229263305664
0, 3, 7, 28.83797264099121
0, 3, 8, 34.40556716918945
0, 3, 9, 38.89438247680664
0, 3, 10, 36.64352035522461
0, 3, 11, 33.61093521118164
0, 3, 12, 41.81426239013672
0, 3, 13, 53.73820114135742
0, 3, 14, 60.44683074951172
0, 3, 15, 54.01362609863281
0, 3, 16, 67.91796875
0, 3, 17, 91.34689331054688
0, 3, 18, 238.9639587402344
0, 3, 19, 881.4541625976562
0, 3, 20, 1383.614501953125
0, 3, 21, 1514.104736328125
0, 3, 22, 1459.127807617188
0, 3, 23, 1452.51318359375
0, 3, 24, 1443.639770507812
0, 3, 25, 1465.771728515625
0, 3, 26, 1494.851684570312
0, 3, 27, 1470.422973632812
0, 3, 28, 1491.642700195312
0, 3, 29, 1542.182373046875
0, 3, 30, 1572.071655273438
0, 3, 31, 1513.6953125
0, 3, 32, 1544.276245117188
0, 3, 33, 1538.985107421875
0, 3, 34, 1487.982788085938
0, 3, 35, 1466.3369140625
0, 3, 36, 1450.464233398438
0, 3, 37, 1512.858154296875
0, 3, 38, 1514.010498046875
0, 3, 39, 1438.922973632812
0, 3, 40, 1441.928100585938
0, 3, 41, 1566.74609375
0, 3, 42, 1460.955932617188
0, 3, 43, 1452.729125976562
0, 3, 44, 1453.658081054688
0, 3, 45, 1508.473754882812
0, 3, 46, 1508.06103515625
0, 3, 47, 1440.637451171875
0, 3, 48, 1509.421875
0, 3, 49, 1452.319580078125
0, 3, 50, 1490.887084960938
0, 3, 51, 1542.714965820312
0, 3, 52, 1537.037231445312
0, 3, 53, 1466.866821289062
0, 3, 54, 1533.930786132812
0, 3, 55, 1505.054931640625
0, 3, 56, 1435.654907226562
0, 3, 57, 1503.329956054688
0, 3, 58, 1508.507690429688
0, 3, 59, 1511.381713867188
0, 3, 60, 1536.413940429688
0, 3, 61, 1479.4755859375
0, 3, 62, 1491.057373046875
0, 3, 63, 1497.036865234375
0, 3, 64, 1510.731689453125
0, 3, 65, 1513.141723632812
0, 3, 66, 1559.56689453125
0, 3, 67, 1543.731567382812
0, 3, 68, 1455.593017578125
0, 3, 69, 1463.043090820312
0, 3, 70, 1388.720703125
0, 3, 71, 1463.553466796875
0, 3, 72, 1551.033081054688
0, 3, 73, 1497.299682617188
0, 3, 74, 1464.809448242188
0, 3, 75, 1464.236450195312
0, 3, 76, 1573.681396484375
0, 3, 77, 1543.396240234375
0, 3, 78, 1428.217407226562
0, 3, 79, 1498.543701171875
0, 3, 80, 1458.831420898438
0, 3, 81, 1473.122314453125
0, 3, 82, 1556.829467773438
0, 3, 83, 1512.154663085938
0, 3, 84, 1561.6953125
0, 3, 85, 1481.142700195312
0, 3, 86, 1523.777099609375
0, 3, 87, 1541.8134765625
0, 3, 88, 1462.151977539062
0, 3, 89, 1446.433349609375
0, 3, 90, 1449.415283203125
0, 3, 91, 1416.648315429688
0, 3, 92, 1510.938842773438
0, 3, 93, 1499.941040039062
0, 3, 94, 1511.48193359375
0, 3, 95, 1548.791748046875
0, 3, 96, 1511.593994140625
0, 3, 97, 1462.4033203125
0, 3, 98, 1436.265747070312
0, 3, 99, 1465.742919921875
0, 3, 100, 1470.984985351562
0, 3, 101, 1476.135864257812
0, 3, 102, 1518.730224609375
0, 3, 103, 1553.54296875
0, 3, 104, 1503.32861328125
0, 3, 105, 1515.914306640625
0, 3, 106, 1476.416748046875
0, 3, 107, 1340.958984375
0, 3, 108, 878.5829467773438
0, 3, 109, 261.8803405761719
0, 3, 110, 104.0407562255859
0, 3, 111, 62.44845199584961
0, 3, 112, 57.97534942626953
0, 3, 113, 50.39552307128906
0, 3, 114, 50.15329742431641
0, 3, 115, 48.68674468994141
0, 3, 116, 34.50656127929688
0, 3, 117, 38.72686767578125
0, 3, 118, 36.2047119140625
0, 3, 119, 27.24356079101562
0, 3, 120, 28.13453102111816
0, 3, 121, 19.61339950561523
0, 3, 122, 19.43561172485352
0, 3, 123, 27.00452423095703
0, 3, 124, 17.8041820526123
0, 3, 125, 29.55780601501465
0, 3, 126, 24.61905860900879
0, 3, 127, 15.1970853805542
0, 4, 0, 22.80997467041016
0, 4, 1, 27.79577827453613
0, 4, 2, 18.50003623962402
0, 4, 3, 26.03061866760254
0, 4, 4, 21.07362747192383
0, 4, 5, 25.36515235900879
0, 4, 6, 30.65629577636719
0, 4, 7, 33.4364013671875
0, 4, 8, 23.60392570495605
0, 4, 9, 36.89225769042969
0, 4, 10, 32.07163238525391
0, 4, 11, 38.11980056762695
0, 4, 12, 42.70535659790039
0, 4, 13, 50.96764373779297
0, 4, 14, 56.77496719360352
0, 4, 15, 62.88522720336914
0, 4, 16, 75.95664215087891
0, 4, 17, 114.425178527832
0, 4, 18, 444.9432678222656
0, 4, 19, 1178.786010742188
0, 4, 20, 1448.953857421875
0, 4, 21, 1419.908447265625
0, 4, 22, 1431.490234375
0, 4, 23, 1456.619873046875
0, 4, 24, 1476.41455078125
0, 4, 25, 1402.593994140625
0, 4, 26, 1541.801635742188
0, 4, 27, 1546.78662109375
0, 4, 28, 1509.656372070312
0, 4, 29, 1517.872680664062
0, 4, 30, 1524.03125
0, 4, 31, 1570.472778320312
0, 4, 32, 1518.409057617188
0, 4, 33, 1501.312377929688
0, 4, 34, 1471.184448242188
0, 4, 35, 1557.36181640625
0, 4, 36, 1507.148071289062
0, 4, 37, 1512.31787109375
0, 4, 38, 1528.4375
0, 4, 39, 1467.779663085938
0, 4, 40, 1514.002685546875
0, 4, 41, 1589.489868164062
0, 4, 42, 1563.701293945312
0, 4, 43, 1474.528930664062
0, 4, 44, 1496.262329101562
0, 4, 45, 1519.563354492188
0, 4, 46, 1469.984985351562
0, 4, 47, 1502.541137695312
0, 4, 48, 1527.216552734375
0, 4, 49, 1467.5390625
0, 4, 50, 1515.06787109375
0, 4, 51, 1496.50341796875
0, 4, 52, 1498.791259765625
0, 4, 53, 1452.384033203125
0, 4, 54, 1440.966064453125
0, 4, 55, 1524.082641601562
0, 4, 56, 1454.390014648438
0, 4, 57, 1500.358154296875
0, 4, 58, 1466.928100585938
0, 4, 59, 1464.287475585938
0, 4, 60, 1520.916381835938
0, 4, 61, 1499.547241210938
0, 4, 62, 1502.769165039062
0, 4, 63, 1552.446533203125
0, 4, 64, 1590.6953125
0, 4, 65, 1430.974365234375
0, 4, 66, 1516.779174804688
0, 4, 67, 1520.674072265625
0, 4, 68, 1497.322265625
0, 4, 69, 1469.533325195312
0, 4, 70, 1544.29736328125
0, 4, 71, 1520.062133789062
0, 4, 72, 1529.348266601562
0, 4, 73, 1495.972778320312
0, 4, 74, 1489.116943359375
0, 4, 75, 1532.84716796875
0, 4, 76, 1478.8154296875
0, 4, 77, 1500.682250976562
0, 4, 78, 1498.869140625
0, 4, 79, 1478.149291992188
0, 4, 80, 1520.247680664062
0, 4, 81, 1520.204956054688
0, 4, 82, 1568.642578125
0, 4, 83, 1502.104370117188
0, 4, 84, 1538.766357421875
0, 4, 85, 1558.791870117188
0, 4, 86, 1529.507568359375
0, 4, 87, 1495.676025390625
0, 4, 88, 1506.836181640625
0, 4, 89, 1482.816650390625
0, 4, 90, 1544.058837890625
0, 4, 91, 1558.514770507812
0, 4, 92, 1491.620727539062
0, 4, 93, 1521.608520507812
0, 4, 94, 1483.891235351562
0, 4, 95, 1512.625854492188
0, 4, 96, 1441.224731445312
0, 4, 97, 1405.451904296875
0, 4, 98, 1552.359741210938
0, 4, 99, 1512.862426757812
0, 4, 100, 1486.766967773438
0, 4, 101, 1453.682861328125
0, 4, 102, 1444.90380859375
0, 4, 103, 1514.618530273438
0, 4, 104, 1507.629272460938
0, 4, 105, 1552.646362304688
0, 4, 106, 1475.9892578125
0, 4, 107, 1459.77587890625
0, 4, 108, 1119.651000976562
0, 4, 109, 439.5481262207031
0, 4, 110, 97.01702117919922
0, 4, 111, 68.52726745605469
0, 4, 112, 60.12045288085938
0, 4, 113, 53.31005096435547
0, 4, 114, 48.39867401123047
0, 4, 115, 42.21120071411133
0, 4, 116, 39.17746353149414
0, 4, 117, 46.08481216430664
0, 4, 118, 37.81401062011719
0, 4, 119, 40.41999816894531
0, 4, 120, 35.44359588623047
0, 4, 121, 28.34963417053223
0, 4, 122, 30.88815689086914
0, 4, 123, 28.03053665161133
0, 4, 124, 21.91116523742676
0, 4, 125, 31.80228233337402
0, 4, 126, 25.32302665710449
0, 4, 127, 21.4533748626709
0, 5, 0, 22.16752624511719
0, 5, 1, 21.58996391296387
0, 5, 2, 26.67189598083496
0, 5, 3, 25.77915000915527
0, 5, 4, 21.80492401123047
0, 5, 5, 36.19182205200195
0, 5, 6, 34.38522338867188
0, 5, 7, 29.73299026489258
0, 5, 8, 29.97848701477051
0, 5, 9, 27.60540771484375
0, 5, 10, 34.32617950439453
0, 5, 11, 38.47808837890625
0, 5, 12, 41.46194839477539
0, 5, 13, 46.96419906616211
0, 5, 14, 60.43496704101562
0, 5, 15, 78.91502380371094
0, 5, 16, 82.39162445068359
0, 5, 17, 162.0067291259766
0, 5, 18, 673.3065795898438
0, 5, 19, 1347.410522460938
0, 5, 20, 1527.771728515625
0, 5, 21, 1492.984619140625
0, 5, 22, 1497.845703125
0, 5, 23, 1529.403076171875
0, 5, 24, 1465.05517578125
0, 5, 25, 1430.013793945312
0, 5, 26, 1525.131958007812
0, 5, 27, 1535.099609375
0, 5, 28, 1486.361694335938
0, 5, 29, 1519.700805664062
0, 5, 30, 1492.692504882812
0, 5, 31, 1499.028686523438
0, 5, 32, 1594.2373046875
0, 5, 33, 1500.207397460938
0, 5, 34, 1485.467529296875
0, 5, 35, 1509.133178710938
0, 5, 36, 1440.472778320312
0, 5, 37, 1528.044921875
0, 5, 38, 1547.921997070312
0, 5, 39, 1552.09228515625
0, 5, 40, 1497.732055664062
0, 5, 41, 1482.45068359375
0, 5, 42, 1544.273193359375
0, 5, 43, 1534.044677734375
0, 5, 44, 1544.416015625
0, 5, 45, 1511.738403320312
0, 5, 46, 1489.869018554688
0, 5, 47, 1481.363159179688
0, 5, 48, 1498.5966796875
0, 5, 49, 1519.470092773438
0, 5, 50, 1500.834838867188
0, 5, 51, 1517.008178710938
0, 5, 52, 1428.911499023438
0, 5, 53, 1521.963134765625
0, 5, 54, 1517.560546875
0, 5, 55, 1522.280517578125
0, 5, 56, 1481.531860351562
0, 5, 57, 1537.30078125
0, 5, 58, 1508
0, 5, 59, 1485.22607421875
0, 5, 60, 1538.595581054688
0, 5, 61, 1450.581176757812
0, 5, 62, 1583.895141601562
0, 5, 63, 1433.805908203125
0, 5, 64, 1486.577758789062
0, 5, 65, 1465.755126953125
0, 5, 66, 1527.894409179688
0, 5, 67, 1560.673217773438
0, 5, 68, 1462.593627929688
0, 5, 69, 1481.584350585938
0, 5, 70, 1492.785522460938
0, 5, 71, 1474.092163085938
0, 5, 72, 1538.698486328125
0, 5, 73, 1461.50390625
0, 5, 74, 1493.962646484375
0, 5, 75, 1490.24853515625
0, 5, 76, 1481.8271484375
0, 5, 77, 1521.958618164062
0, 5, 78, 1531.6630859375
0, 5, 79, 1506.617065429688
0, 5, 80, 1521.904907226562
0, 5, 81, 1596.6572265625
0, 5, 82, 1528.752563476562
0, 5, 83, 1489.95556640625
0, 5, 84, 1538.453002929688
0, 5, 85, 1515.06005859375
0, 5, 86, 1551.79345703125
0, 5, 87, 1471.833740234375
0, 5, 88, 1501.794799804688
0, 5, 89, 1483.281494140625
0, 5, 90, 1480.928833007812
0, 5, 91, 1551.250244140625
0, 5, 92, 1483.153564453125
0, 5, 93, 1558.647094726562
0, 5, 94, 1516.475708007812
0, 5, 95, 1561.85205078125
0, 5, 96, 1500.550415039062
0, 5, 97, 1517.63134765625
0, 5, 98, 1512.647827148438
0, 5, 99, 1539.098754882812
0, 5, 100, 1431.794189453125
0, 5, 101, 1428.731079101562
0, 5, 102, 1514.322143554688
0, 5, 103, 1472.908813476562
0, 5, 104, 1457.381103515625
0, 5, 105, 1491.09521484375
0, 5, 106, 1459.649047851562
0, 5, 107, 1405.98486328125
0, 5, 108, 1288.629272460938
0, 5, 109, 724.5833129882812
0, 5, 110, 190.0941467285156
0, 5, 111, 93.00638580322266
0, 5, 112, 81.44857025146484
0, 5, 113, 69.08431243896484
0, 5, 114, 62.98480224609375
0, 5, 115, 53.48009872436523
0, 5, 116, 47.9630012512207
0, 5, 117, 41.32483673095703
0, 5, 118, 37.84379577636719
0, 5, 119, 26.93685913085938
0, 5, 120, 28.82261657714844
0, 5, 121, 23.83782386779785
0, 5, 122, 27.11534309387207
0, 5, 123, 25.31137847900391
0, 5, 124, 24.12765312194824
0, 5, 125, 26.32685852050781
0, 5, 126, 19.37439727783203
0, 5, 127, 22.4075984954834
0, 6, 0, 19.71694755554199
0, 6, 1, 33.40440368652344
0, 6, 2, 27.79214859008789
0, 6, 3, 27.17106437683105
0, 6, 4, 23.48868942260742
0, 6, 5, 31.14459228515625
0, 6, 6, 38.37950897216797
0, 6, 7, 30.03513717651367
0, 6, 8, 33.44917297363281
0, 6, 9, 34.85791015625
0, 6, 10, 33.3035774230957
0, 6, 11, 39.49965667724609
0, 6, 12, 42.46614074707031
0, 6, 13, 53.64472579956055
0, 6, 14, 62.8052978515625
0, 6, 15, 85.32558441162109
0, 6, 16, 109.0436477661133
0, 6, 17, 301.9784240722656
0, 6, 18, 900.2058715820312
0, 6, 19, 1371.816650390625
0, 6, 20, 1435.8408203125
0, 6, 21, 1531.896850585938
0, 6, 22, 1505.86572265625
0, 6, 23, 1528.727905273438
0, 6, 24, 1480.211059570312
0, 6, 25, 1526.18896484375
0, 6, 26, 1518.30810546875
0, 6, 27, 1518.139038085938
0, 6, 28, 1550.807250976562
0, 6, 29, 1576.3359375
0, 6, 30, 1513.662231445312
0, 6, 31, 1490.752807617188
0, 6, 32, 1523.84228515625
0, 6, 33, 1492.296630859375
0, 6, 34, 1564.924926757812
0, 6, 35, 1500.106567382812
0, 6, 36, 1434.4443359375
0, 6, 37, 1553.353149414062
0, 6, 38, 1523.7900390625
0, 6, 39, 1523.63525390625
0, 6, 40, 1457.16552734375
0, 6, 41, 1437.431884765625
0, 6, 42, 1515.776245117188
0, 6, 43, 1490.1279296875
0, 6, 44, 1435.729614257812
0, 6, 45, 1542.747314453125
0, 6, 46, 1550.345336914062
0, 6, 47, 1493.551879882812
0, 6, 48, 1526.856323242188
0, 6, 49, 1508.069458007812
0, 6, 50, 1575.126708984375
0, 6, 51, 1502.753173828125
0, 6, 52, 1566.458618164062
0, 6, 53, 1472.268310546875
0, 6, 54, 1504.471313476562
0, 6, 55, 1572.069213867188
0, 6, 56, 1521.020385742188
0, 6, 57, 1505.958251953125
0, 6, 58, 1467.294311523438
0, 6, 59, 1518.051879882812
0, 6, 60, 1470.86328125
0, 6, 61, 1572.468505859375
0, 6, 62, 1549.946044921875
0, 6, 63, 1494.868041992188
0, 6, 64, 1412.20458984375
0, 6, 65, 1491.970458984375
0, 6, 66, 1513.330200195312
0, 6, 67, 1515.167236328125
0, 6, 68, 1546.126831054688
0, 6, 69, 1484.273803710938
0, 6, 70, 1525.521484375
0, 6, 71, 1464.567749023438
0, 6, 72, 1596.578979492188
0, 6, 73, 1493.653930664062
0, 6, 74, 1562.897705078125
0, 6, 75, 1535.055786132812
0, 6, 76, 1565.687622070312
0, 6, 77, 1505.920776367188
0, 6, 78, 1443.09521484375
0, 6, 79, 1557.22216796875
0, 6, 80, 1483.505004882812
0, 6, 81, 1484.915649414062
0, 6, 82, 1502.114868164062
0, 6, 83, 1532.096313476562
0, 6, 84, 1524.754272460938
0, 6, 85, 1535.946899414062
0, 6, 86, 1540.987182617188
0, 6, 87, 1576.396484375
0, 6, 88, 1479.0615234375
0, 6, 89, 1562.569458007812
0, 6, 90, 1486.909301757812
0, 6, 91, 1541.087158203125
0, 6, 92, 1484.963745117188
0, 6, 93, 1501.50732421875
0, 6, 94, 1466.637573242188
0, 6, 95, 1508.677368164062
0, 6, 96, 1523.809326171875
0, 6, 97, 1504.561767578125
0, 6, 98, 1498.37841796875
0, 6, 99, 1477.117309570312
0, 6, 100, 1524.275024414062
0, 6, 101, 1516.0283203125
0, 6, 102, 1542.971069335938
0, 6, 103, 1500.077270507812
0, 6, 104, 1464.865844726562
0, 6, 105, 1490.318115234375
0, 6, 106, 1499.801391601562
0, 6, 107, 1507.524047851562
0, 6, 108, 1406.225708007812
0, 6, 109, 921.6841430664062
0, 6, 110, 285.1020202636719
0, 6, 111, 97.20586395263672
0, 6, 112, 77.95088195800781
0, 6, 113, 54.51691055297852
0, 6, 114, 55.09096527099609
0, 6, 115, 45.2957763671875
0, 6, 116, 48.35626602172852
0, 6, 117, 38.90056991577148
0, 6, 118, 40.30199432373047
0, 6, 119, 33.08809280395508
0, 6, 120, 33.52060699462891
0, 6, 121, 29.36313629150391
0, 6, 122, 29.03703880310059
0, 6, 123, 26.25921058654785
0, 6, 124, 29.11552238464355
0, 6, 125, 26.77569770812988
0, 6, 126, 25.2875862121582
0, 6, 127, 25.38481521606445
0, 7, 0, 21.07749938964844
0, 7, 1, 25.61846351623535
0, 7, 2, 25.02126502990723
0, 7, 3, 23.93721008300781
0, 7, 4, 19.29725074768066
0, 7, 5, 36.67340469360352
0, 7, 6, 30.26226806640625
0, 7, 7, 36.42332458496094
0, 7, 8, 31.78738784790039
0, 7, 9, 32.7353630065918
0, 7, 10, 49.02850341796875
0, 7, 11, 50.50802993774414
0, 7, 12, 48.20944213867188
0, 7, 13, 55.21480560302734
0, 7, 14, 62.30620193481445
0, 7, 15, 79.93901062011719
0, 7, 16, 135.4475708007812
0, 7, 17, 459.5690002441406
0, 7, 18, 1100.3837890625
0, 7, 19, 1498.5283203125
0, 7, 20, 1486.78515625
0, 7, 21, 1366.759765625
0, 7, 22, 1485.999145507812
0, 7, 23, 1453.446411132812
0, 7, 24, 1515.0302734375
0, 7, 25, 1595.267822265625
0, 7, 26, 1521.04638671875
0, 7, 27, 1513.178344726562
0, 7, 28, 1546.499267578125
0, 7, 29, 1575.680297851562
0, 7, 30, 1547.196044921875
0, 7, 31, 1437.077392578125
0, 7, 32, 1544.614868164062
0, 7, 33, 1497.888427734375
0, 7, 34, 1481.818603515625
0, 7, 35, 1521.595581054688
0, 7, 36, 1474.21923828125
0, 7, 37, 1603.1591796875
0, 7, 38, 1504.234497070312
0, 7, 39, 1492.568603515625
0, 7, 40, 1545.246459960938
0, 7, 41, 1468.720825195312
0, 7, 42, 1486.55810546875
0, 7, 43, 1442.055419921875
0, 7, 44, 1491.564819335938
0, 7, 45, 1470.789428710938
0, 7, 46, 1518.541259765625
0, 7, 47, 1563.379516601562
0, 7, 48, 1520.038818359375
0, 7, 49, 1539.300170898438
0, 7, 50, 1513.208740234375
0, 7, 51, 1494.617065429688
0, 7, 52, 1518.348388671875
0, 7, 53, 1495.555786132812
0, 7, 54, 1584.174194335938
0, 7, 55, 1471.415893554688
0, 7, 56, 1551.244262695312
0, 7, 57, 1515.591796875
0, 7, 58, 1546.652465820312
0, 7, 59, 1539.46826171875
0, 7, 60, 1546.729858398438
0, 7, 61, 1488.35009765625
0, 7, 62, 1437.885620117188
0, 7, 63, 1514.76318359375
0, 7, 64, 1547.685668945312
0, 7, 65, 1525.506713867188
0, 7, 66, 1535.171752929688
0, 7, 67, 1574.1337890625
0, 7, 68, 1531.850708007812
0, 7, 69, 1514.787475585938
0, 7, 70, 1494.253662109375
0, 7, 71, 1518.705810546875
0, 7, 72, 1522.835815429688
0, 7, 73, 1527.3564453125
0, 7, 74, 1577.580932617188
0, 7, 75, 1536.443481445312
0, 7, 76, 1561.891357421875
0, 7, 77, 1509.482788085938
0, 7, 78, 1507.178344726562
0, 7, 79, 1424.91845703125
0, 7, 80, 1490.184936523438
0, 7, 81, 1491.855224609375
0, 7, 82, 1527.476928710938
0, 7, 83, 1543.40478515625
0, 7, 84, 1588.50927734375
0, 7, 85, 1478.178588867188
0, 7, 86, 1506.866943359375
0, 7, 87, 1508.580444335938
0, 7, 88, 1501.941284179688
0, 7, 89, 1553.718017578125
0, 7, 90, 1520.042358398438
0, 7, 91, 1563.190551757812
0, 7, 92, 1532.187377929688
0, 7, 93, 1548.8916015625
0, 7, 94, 1535.26318359375
0, 7, 95, 1505.392456054688
0, 7, 96, 1508.114868164062
0, 7, 97, 1435.298828125
0, 7, 98, 1483.347412109375
0, 7, 99, 1524.62158203125
0, 7, 100, 1423.496215820312
0, 7, 101, 1464.299926757812
0, 7, 102, 1447.125854492188
0, 7, 103, 1429.958862304688
0, 7, 104, 1497.000366210938
0, 7, 105, 1526.216430664062
0, 7, 106, 1568.3017578125
0, 7, 107, 1480.1220703125
0, 7, 108, 1412.826904296875
0, 7, 109, 1143.911865234375
0, 7, 110, 471.087890625
0, 7, 111, 124.9506225585938
0, 7, 112, 79.21170043945312
0, 7, 113, 68.48543548583984
0, 7, 114, 56.03386306762695
0, 7, 115, 50.41698837280273
0, 7, 116, 43.51614379882812
0, 7, 117, 47.31987380981445
0, 7, 118, 35.08601379394531
0, 7, 119, 39.63442230224609
0, 7, 120, 20.04451560974121
0, 7, 121, 31.16006851196289
0, 7, 122, 33.93823623657227
0, 7, 123, 39.84165954589844
0, 7, 124, 30.12614440917969
0, 7, 125, 26.93691444396973
0, 7, 126, 26.97915458679199
0, 7, 127, 22.43589782714844
0, 8, 0, 20.68399429321289
0, 8, 1, 25.1755428314209
0, 8, 2, 23.39197731018066
0, 8, 3, 22.94258689880371
0, 8, 4, 27.52780342102051
0, 8, 5, 34.58816528320312
0, 8, 6, 35.82099914550781
0, 8, 7, 25.37796211242676
0, 8, 8, 37.71090316772461
0, 8, 9, 49.71364593505859
0, 8, 10, 41.17771530151367
0, 8, 11, 43.8832893371582
0, 8, 12, 51.22878646850586
0, 8, 13, 68.44293975830078
0, 8, 14, 76.29007720947266
0, 8, 15, 90.33896636962891
0, 8, 16, 172.1128234863281
0, 8, 17, 671.2343139648438
0, 8, 18, 1279.23779296875
0, 8, 19, 1449.163208007812
0, 8, 20, 1423.290283203125
0, 8, 21, 1406.398193359375
0, 8, 22, 1489.818115234375
0, 8, 23, 1485.625122070312
0, 8, 24, 1432.886474609375
0, 8, 25, 1459.163696289062
0, 8, 26, 1518.529174804688
0, 8, 27, 1519.483154296875
0, 8, 28, 1473.757568359375
0, 8, 29, 1505.982543945312
0, 8, 30, 1481.309814453125
0, 8, 31, 1538.180908203125
0, 8, 32, 1506.868774414062
0, 8, 33, 1479.36865234375
0, 8, 34, 1533.901245117188
0, 8, 35, 1442.41162109375
0, 8, 36, 1499.849975585938
0, 8, 37, 1557.497802734375
0, 8, 38, 1556.745971679688
0, 8, 39, 1492.466674804688
0, 8, 40, 1531.164428710938
0, 8, 41, 1484.555419921875
0, 8, 42, 1537.217529296875
0, 8, 43, 1439.397583007812
0, 8, 44, 1537.565673828125
0, 8, 45, 1513.09423828125
0, 8, 46, 1593.271606445312
