# TOPAS Version: 3.1.p3
# Parameter File: batch_inserts_256.txt
# Results for scorer Readout_Adipose
# Scored in component: MyBox
# X in 1 bin  of 0.75 cm
# Y in 512 bins of 0.0783984 cm
# Z in 128 bins of 0.078125 cm
# EnergyDeposit ( MeV ) : Sum   
0, 0, 0, 19.16634941101074
0, 0, 1, 20.14302635192871
0, 0, 2, 21.80429649353027
0, 0, 3, 22.49298858642578
0, 0, 4, 21.96606826782227
0, 0, 5, 23.47531890869141
0, 0, 6, 26.5267505645752
0, 0, 7, 39.94275283813477
0, 0, 8, 22.79466247558594
0, 0, 9, 25.03476715087891
0, 0, 10, 29.84106636047363
0, 0, 11, 28.7292366027832
0, 0, 12, 36.32808303833008
0, 0, 13, 34.23904800415039
0, 0, 14, 37.15585708618164
0, 0, 15, 49.41888427734375
0, 0, 16, 44.81120300292969
0, 0, 17, 50.78929901123047
0, 0, 18, 77.92710876464844
0, 0, 19, 196.2839813232422
0, 0, 20, 700.4177856445312
0, 0, 21, 1188.327514648438
0, 0, 22, 1245.787353515625
0, 0, 23, 1273.757690429688
0, 0, 24, 1284.29931640625
0, 0, 25, 1353.421264648438
0, 0, 26, 1272.460205078125
0, 0, 27, 1280.750366210938
0, 0, 28, 1325.064331054688
0, 0, 29, 1272.95458984375
0, 0, 30, 1263.587890625
0, 0, 31, 1281.30029296875
0, 0, 32, 1262.904418945312
0, 0, 33, 1239.626098632812
0, 0, 34, 1325.34716796875
0, 0, 35, 1300.3779296875
0, 0, 36, 1246.179321289062
0, 0, 37, 1280.35888671875
0, 0, 38, 1247.002685546875
0, 0, 39, 1245.766479492188
0, 0, 40, 1222.469360351562
0, 0, 41, 1269.640747070312
0, 0, 42, 1253.2109375
0, 0, 43, 1267.953491210938
0, 0, 44, 1224.540405273438
0, 0, 45, 1292.13623046875
0, 0, 46, 1263.126708984375
0, 0, 47, 1240.589111328125
0, 0, 48, 1280.40234375
0, 0, 49, 1286.688110351562
0, 0, 50, 1309.572631835938
0, 0, 51, 1264.394409179688
0, 0, 52, 1359.6875
0, 0, 53, 1324.729370117188
0, 0, 54, 1296.871948242188
0, 0, 55, 1236.591186523438
0, 0, 56, 1314.948120117188
0, 0, 57, 1290.376098632812
0, 0, 58, 1257.386962890625
0, 0, 59, 1331.259033203125
0, 0, 60, 1328.306518554688
0, 0, 61, 1265.548706054688
0, 0, 62, 1241.956420898438
0, 0, 63, 1280.9951171875
0, 0, 64, 1331.308471679688
0, 0, 65, 1285.525756835938
0, 0, 66, 1320.885009765625
0, 0, 67, 1218.595092773438
0, 0, 68, 1310.530151367188
0, 0, 69, 1326.091796875
0, 0, 70, 1345.180908203125
0, 0, 71, 1286.2197265625
0, 0, 72, 1311.700439453125
0, 0, 73, 1235.942138671875
0, 0, 74, 1290.240600585938
0, 0, 75, 1297.533325195312
0, 0, 76, 1256.141723632812
0, 0, 77, 1283.544921875
0, 0, 78, 1313.757934570312
0, 0, 79, 1322.567260742188
0, 0, 80, 1265.516967773438
0, 0, 81, 1321.716186523438
0, 0, 82, 1283.995727539062
0, 0, 83, 1288.285888671875
0, 0, 84, 1330.620361328125
0, 0, 85, 1230.162353515625
0, 0, 86, 1262.546752929688
0, 0, 87, 1250.461669921875
0, 0, 88, 1252.813110351562
0, 0, 89, 1334.255737304688
0, 0, 90, 1274.4912109375
0, 0, 91, 1355.237182617188
0, 0, 92, 1301.1904296875
0, 0, 93, 1273.566040039062
0, 0, 94, 1238.726318359375
0, 0, 95, 1325.403198242188
0, 0, 96, 1285.183227539062
0, 0, 97, 1324.654663085938
0, 0, 98, 1261.706909179688
0, 0, 99, 1246.620239257812
0, 0, 100, 1285.642822265625
0, 0, 101, 1315.92431640625
0, 0, 102, 1235.791015625
0, 0, 103, 1320.669677734375
0, 0, 104, 1264.430908203125
0, 0, 105, 1267.647705078125
0, 0, 106, 1208.591064453125
0, 0, 107, 781.7993774414062
0, 0, 108, 195.2945404052734
0, 0, 109, 66.95303344726562
0, 0, 110, 62.40323638916016
0, 0, 111, 40.02487564086914
0, 0, 112, 35.82973098754883
0, 0, 113, 30.69005966186523
0, 0, 114, 32.96745300292969
0, 0, 115, 33.2698860168457
0, 0, 116, 30.73706817626953
0, 0, 117, 31.79911041259766
0, 0, 118, 27.61736297607422
0, 0, 119, 26.49112701416016
0, 0, 120, 30.51377296447754
0, 0, 121, 26.96694946289062
0, 0, 122, 24.6474552154541
0, 0, 123, 18.00662040710449
0, 0, 124, 16.16610527038574
0, 0, 125, 17.97223472595215
0, 0, 126, 22.31426620483398
0, 0, 127, 21.08488845825195
0, 1, 0, 24.16547012329102
0, 1, 1, 27.78825378417969
0, 1, 2, 23.98743629455566
0, 1, 3, 22.95229530334473
0, 1, 4, 21.68515968322754
0, 1, 5, 23.68393898010254
0, 1, 6, 20.99585342407227
0, 1, 7, 23.41348648071289
0, 1, 8, 34.63397598266602
0, 1, 9, 31.02555274963379
0, 1, 10, 29.3138599395752
0, 1, 11, 42.16650009155273
0, 1, 12, 36.93494033813477
0, 1, 13, 41.47639846801758
0, 1, 14, 39.45947647094727
0, 1, 15, 46.3561897277832
0, 1, 16, 60.39536666870117
0, 1, 17, 60.58087539672852
0, 1, 18, 95.65618896484375
0, 1, 19, 399.4459838867188
0, 1, 20, 1041.032348632812
0, 1, 21, 1375.102416992188
0, 1, 22, 1479.252563476562
0, 1, 23, 1460.290405273438
0, 1, 24, 1445.751831054688
0, 1, 25, 1424.137084960938
0, 1, 26, 1473.476196289062
0, 1, 27, 1467.352661132812
0, 1, 28, 1486.516235351562
0, 1, 29, 1474.946655273438
0, 1, 30, 1512.176635742188
0, 1, 31, 1487.974975585938
0, 1, 32, 1411.615478515625
0, 1, 33, 1503.095703125
0, 1, 34, 1500.457885742188
0, 1, 35, 1458.98388671875
0, 1, 36, 1488.865234375
0, 1, 37, 1412.524658203125
0, 1, 38, 1392.922485351562
0, 1, 39, 1527.107299804688
0, 1, 40, 1461.913818359375
0, 1, 41, 1490.703002929688
0, 1, 42, 1492.52685546875
0, 1, 43, 1499.629638671875
0, 1, 44, 1446.491333007812
0, 1, 45, 1488.042724609375
0, 1, 46, 1421.61474609375
0, 1, 47, 1429.293579101562
0, 1, 48, 1433.569458007812
0, 1, 49, 1486.353515625
0, 1, 50, 1443.8857421875
0, 1, 51, 1477.8154296875
0, 1, 52, 1482.341674804688
0, 1, 53, 1473.507202148438
0, 1, 54, 1512.35205078125
0, 1, 55, 1495.323364257812
0, 1, 56, 1472.302978515625
0, 1, 57, 1459.173706054688
0, 1, 58, 1429.042602539062
0, 1, 59, 1482.395874023438
0, 1, 60, 1462.802001953125
0, 1, 61, 1453.16650390625
0, 1, 62, 1459.236572265625
0, 1, 63, 1411.460815429688
0, 1, 64, 1477.00390625
0, 1, 65, 1417.762329101562
0, 1, 66, 1440.045776367188
0, 1, 67, 1453.345581054688
0, 1, 68, 1386.382568359375
0, 1, 69, 1467.653686523438
0, 1, 70, 1430.275268554688
0, 1, 71, 1497.806030273438
0, 1, 72, 1436.08642578125
0, 1, 73, 1491.951416015625
0, 1, 74, 1470.858520507812
0, 1, 75, 1474.947631835938
0, 1, 76, 1452.705200195312
0, 1, 77, 1462.008056640625
0, 1, 78, 1452.186279296875
0, 1, 79, 1502.663330078125
0, 1, 80, 1444.741943359375
0, 1, 81, 1424.523681640625
0, 1, 82, 1482.595825195312
0, 1, 83, 1466.8642578125
0, 1, 84, 1538.315307617188
0, 1, 85, 1445.417846679688
0, 1, 86, 1406.808959960938
0, 1, 87, 1420.774780273438
0, 1, 88, 1470.5166015625
0, 1, 89, 1473.167602539062
0, 1, 90, 1423.062255859375
0, 1, 91, 1471.68505859375
0, 1, 92, 1410.782958984375
0, 1, 93, 1458.423828125
0, 1, 94, 1467.987915039062
0, 1, 95, 1421.621948242188
0, 1, 96, 1495.8408203125
0, 1, 97, 1515.717895507812
0, 1, 98, 1477.49365234375
0, 1, 99, 1421.918334960938
0, 1, 100, 1446.702880859375
0, 1, 101, 1413.272094726562
0, 1, 102, 1445.918212890625
0, 1, 103, 1414.5703125
0, 1, 104, 1410.106567382812
0, 1, 105, 1465.410888671875
0, 1, 106, 1364.629760742188
0, 1, 107, 1018.090393066406
0, 1, 108, 404.3966064453125
0, 1, 109, 96.66010284423828
0, 1, 110, 61.79049682617188
0, 1, 111, 54.29933929443359
0, 1, 112, 46.24178695678711
0, 1, 113, 37.4322509765625
0, 1, 114, 39.34252166748047
0, 1, 115, 40.8540153503418
0, 1, 116, 33.86299514770508
0, 1, 117, 36.28531646728516
0, 1, 118, 36.59847640991211
0, 1, 119, 31.57146453857422
0, 1, 120, 28.23595237731934
0, 1, 121, 24.88537406921387
0, 1, 122, 20.01327514648438
0, 1, 123, 20.91777801513672
0, 1, 124, 32.9849739074707
0, 1, 125, 17.50276756286621
0, 1, 126, 15.86313915252686
0, 1, 127, 19.69135665893555
0, 2, 0, 26.10786437988281
0, 2, 1, 22.40476036071777
0, 2, 2, 22.81431007385254
0, 2, 3, 23.8079776763916
0, 2, 4, 22.18101119995117
0, 2, 5, 23.83889389038086
0, 2, 6, 21.31093406677246
0, 2, 7, 21.90097808837891
0, 2, 8, 30.68820381164551
0, 2, 9, 24.41751861572266
0, 2, 10, 29.6513557434082
0, 2, 11, 31.80779838562012
0, 2, 12, 41.35356521606445
0, 2, 13, 47.5406379699707
0, 2, 14, 43.87154769897461
0, 2, 15, 46.02219009399414
0, 2, 16, 59.98622512817383
0, 2, 17, 75.627685546875
0, 2, 18, 150.28515625
0, 2, 19, 606.4738159179688
0, 2, 20, 1285.065795898438
0, 2, 21, 1441.468017578125
0, 2, 22, 1458.015747070312
0, 2, 23, 1404.015502929688
0, 2, 24, 1444.706298828125
0, 2, 25, 1528.896240234375
0, 2, 26, 1552.336791992188
0, 2, 27, 1452.853515625
0, 2, 28, 1461.709350585938
0, 2, 29, 1462.919921875
0, 2, 30, 1461.20947265625
0, 2, 31, 1539.234252929688
0, 2, 32, 1503.790161132812
0, 2, 33, 1444.039184570312
0, 2, 34, 1472.503173828125
0, 2, 35, 1472.993774414062
0, 2, 36, 1527.91748046875
0, 2, 37, 1541.501342773438
0, 2, 38, 1503.764282226562
0, 2, 39, 1462.714599609375
0, 2, 40, 1506.095458984375
0, 2, 41, 1513.632934570312
0, 2, 42, 1500.232543945312
0, 2, 43, 1547.162109375
0, 2, 44, 1463.434814453125
0, 2, 45, 1481.295288085938
0, 2, 46, 1426.942504882812
0, 2, 47, 1447.607177734375
0, 2, 48, 1398.36474609375
0, 2, 49, 1458.813598632812
0, 2, 50, 1443.229614257812
0, 2, 51, 1442.356567382812
0, 2, 52, 1489.863403320312
0, 2, 53, 1521.52685546875
0, 2, 54, 1524.577270507812
0, 2, 55, 1494.087280273438
0, 2, 56, 1463.60546875
0, 2, 57, 1411.169677734375
0, 2, 58, 1452.275146484375
0, 2, 59, 1446.053955078125
0, 2, 60, 1475.258422851562
0, 2, 61, 1445.874755859375
0, 2, 62, 1468.735107421875
0, 2, 63, 1506.8115234375
0, 2, 64, 1460.435791015625
0, 2, 65, 1425.670043945312
0, 2, 66, 1488.438598632812
0, 2, 67, 1505.425170898438
0, 2, 68, 1544.539672851562
0, 2, 69, 1542.692626953125
0, 2, 70, 1508.734130859375
0, 2, 71, 1462.106201171875
0, 2, 72, 1524.5458984375
0, 2, 73, 1518.290649414062
0, 2, 74, 1491.341796875
0, 2, 75, 1504.088134765625
0, 2, 76, 1446.4638671875
0, 2, 77, 1506.70361328125
0, 2, 78, 1431.331665039062
0, 2, 79, 1538.888916015625
0, 2, 80, 1481.612915039062
0, 2, 81, 1462.576782226562
0, 2, 82, 1560.950317382812
0, 2, 83, 1512.863159179688
0, 2, 84, 1492.695678710938
0, 2, 85, 1522.34521484375
0, 2, 86, 1543.352172851562
0, 2, 87, 1490.003662109375
0, 2, 88, 1538.451782226562
0, 2, 89, 1466.7470703125
0, 2, 90, 1430.073364257812
0, 2, 91, 1404.630249023438
0, 2, 92, 1474.410888671875
0, 2, 93, 1495.931518554688
0, 2, 94, 1449.983154296875
0, 2, 95, 1545.6513671875
0, 2, 96, 1517.54052734375
0, 2, 97, 1449.388793945312
0, 2, 98, 1466.1689453125
0, 2, 99, 1404.522094726562
0, 2, 100, 1469.4560546875
0, 2, 101, 1475.630859375
0, 2, 102, 1460.68212890625
0, 2, 103, 1385.6357421875
0, 2, 104, 1405.422485351562
0, 2, 105, 1394.066650390625
0, 2, 106, 1459.574829101562
0, 2, 107, 1273.02685546875
0, 2, 108, 624.9239501953125
0, 2, 109, 176.2280426025391
0, 2, 110, 72.61426544189453
0, 2, 111, 62.63724136352539
0, 2, 112, 49.17191314697266
0, 2, 113, 43.50355911254883
0, 2, 114, 37.34712219238281
0, 2, 115, 44.16145706176758
0, 2, 116, 32.47611618041992
0, 2, 117, 31.33532905578613
0, 2, 118, 27.30821228027344
0, 2, 119, 34.0555419921875
0, 2, 120, 27.25714874267578
0, 2, 121, 20.13448333740234
0, 2, 122, 25.20704460144043
0, 2, 123, 21.66917419433594
0, 2, 124, 29.44626617431641
0, 2, 125, 35.22377777099609
0, 2, 126, 21.27969551086426
0, 2, 127, 20.64842987060547
0, 3, 0, 19.0649299621582
0, 3, 1, 18.06534576416016
0, 3, 2, 27.04025268554688
0, 3, 3, 22.56419372558594
0, 3, 4, 21.27168083190918
0, 3, 5, 26.55393218994141
0, 3, 6, 28.89091300964355
0, 3, 7, 31.85169219970703
0, 3, 8, 30.18929862976074
0, 3, 9, 32.75653839111328
0, 3, 10, 35.53189468383789
0, 3, 11, 33.12545394897461
0, 3, 12, 48.23237228393555
0, 3, 13, 58.0571174621582
0, 3, 14, 56.20556259155273
0, 3, 15, 57.37783050537109
0, 3, 16, 68.05648803710938
0, 3, 17, 91.34235382080078
0, 3, 18, 237.7902069091797
0, 3, 19, 875.6803588867188
0, 3, 20, 1390.76513671875
0, 3, 21, 1505.120483398438
0, 3, 22, 1459.536743164062
0, 3, 23, 1455.351440429688
0, 3, 24, 1440.206787109375
0, 3, 25, 1467.541137695312
0, 3, 26, 1498.765502929688
0, 3, 27, 1470.138427734375
0, 3, 28, 1497.444213867188
0, 3, 29, 1543.264892578125
0, 3, 30, 1572.322265625
0, 3, 31, 1511.1982421875
0, 3, 32, 1544.667846679688
0, 3, 33, 1541.662963867188
0, 3, 34, 1485.659912109375
0, 3, 35, 1463.087524414062
0, 3, 36, 1448.709594726562
0, 3, 37, 1517.648559570312
0, 3, 38, 1520.970703125
0, 3, 39, 1436.747802734375
0, 3, 40, 1439.386840820312
0, 3, 41, 1561.036743164062
0, 3, 42, 1463.414428710938
0, 3, 43, 1453.266357421875
0, 3, 44, 1448.944702148438
0, 3, 45, 1506.463134765625
0, 3, 46, 1508.234741210938
0, 3, 47, 1443.206787109375
0, 3, 48, 1507.47705078125
0, 3, 49, 1452.593383789062
0, 3, 50, 1490.005981445312
0, 3, 51, 1535.853515625
0, 3, 52, 1536.399658203125
0, 3, 53, 1469.348022460938
0, 3, 54, 1541.64990234375
0, 3, 55, 1509.347412109375
0, 3, 56, 1435.18603515625
0, 3, 57, 1503.738159179688
0, 3, 58, 1512.332641601562
0, 3, 59, 1511.035278320312
0, 3, 60, 1535.324462890625
0, 3, 61, 1483.9765625
0, 3, 62, 1492.791259765625
0, 3, 63, 1491.431274414062
0, 3, 64, 1499.33349609375
0, 3, 65, 1513.068359375
0, 3, 66, 1553.761840820312
0, 3, 67, 1544.919677734375
0, 3, 68, 1445.8916015625
0, 3, 69, 1461.359741210938
0, 3, 70, 1385.552856445312
0, 3, 71, 1461.427856445312
0, 3, 72, 1550.22802734375
0, 3, 73, 1503.368408203125
0, 3, 74, 1468.984130859375
0, 3, 75, 1459.468383789062
0, 3, 76, 1575.276123046875
0, 3, 77, 1540.121459960938
0, 3, 78, 1428.379516601562
0, 3, 79, 1499.650024414062
0, 3, 80, 1465.501708984375
0, 3, 81, 1475.592529296875
0, 3, 82, 1550.550170898438
0, 3, 83, 1511.05810546875
0, 3, 84, 1560.505249023438
0, 3, 85, 1475.640747070312
0, 3, 86, 1523.617553710938
0, 3, 87, 1539.404663085938
0, 3, 88, 1459.368896484375
0, 3, 89, 1451.864013671875
0, 3, 90, 1452.130004882812
0, 3, 91, 1414.718505859375
0, 3, 92, 1515.539916992188
0, 3, 93, 1505.996337890625
0, 3, 94, 1513.523193359375
0, 3, 95, 1544.5869140625
0, 3, 96, 1513.043823242188
0, 3, 97, 1464.798828125
0, 3, 98, 1438.796997070312
0, 3, 99, 1464.00390625
0, 3, 100, 1471.526977539062
0, 3, 101, 1474.0859375
0, 3, 102, 1521.723999023438
0, 3, 103, 1550.748168945312
0, 3, 104, 1502.322998046875
0, 3, 105, 1517.504150390625
0, 3, 106, 1476.286376953125
0, 3, 107, 1338.846557617188
0, 3, 108, 873.1212768554688
0, 3, 109, 263.3187255859375
0, 3, 110, 102.8706588745117
0, 3, 111, 60.01778793334961
0, 3, 112, 55.77705001831055
0, 3, 113, 48.53218841552734
0, 3, 114, 50.57720947265625
0, 3, 115, 50.80805587768555
0, 3, 116, 39.6099967956543
0, 3, 117, 39.9521484375
0, 3, 118, 35.94333648681641
0, 3, 119, 31.55599403381348
0, 3, 120, 31.98221397399902
0, 3, 121, 23.44710350036621
0, 3, 122, 24.31194686889648
0, 3, 123, 22.95649719238281
0, 3, 124, 21.32747840881348
0, 3, 125, 26.12240028381348
0, 3, 126, 22.77915000915527
0, 3, 127, 17.28442764282227
0, 4, 0, 21.01561164855957
0, 4, 1, 25.04600143432617
0, 4, 2, 20.12155914306641
0, 4, 3, 26.01816940307617
0, 4, 4, 24.34491157531738
0, 4, 5, 26.23824119567871
0, 4, 6, 29.80411720275879
0, 4, 7, 33.04727935791016
0, 4, 8, 25.58295631408691
0, 4, 9, 38.66412353515625
0, 4, 10, 30.48012733459473
0, 4, 11, 38.37189865112305
0, 4, 12, 44.03156280517578
0, 4, 13, 52.20677947998047
0, 4, 14, 54.96070861816406
0, 4, 15, 60.51106262207031
0, 4, 16, 76.81295776367188
0, 4, 17, 115.7986602783203
0, 4, 18, 445.7611083984375
0, 4, 19, 1180.985107421875
0, 4, 20, 1445.420654296875
0, 4, 21, 1421.45849609375
0, 4, 22, 1435.542602539062
0, 4, 23, 1451.9765625
0, 4, 24, 1472.292602539062
0, 4, 25, 1407.238159179688
0, 4, 26, 1543.154052734375
0, 4, 27, 1545.2109375
0, 4, 28, 1506.611450195312
0, 4, 29, 1517.258178710938
0, 4, 30, 1523.225463867188
0, 4, 31, 1581.204467773438
0, 4, 32, 1514.6533203125
0, 4, 33, 1494.179077148438
0, 4, 34, 1471.664916992188
0, 4, 35, 1555.262451171875
0, 4, 36, 1504.3046875
0, 4, 37, 1511.87841796875
0, 4, 38, 1533.867797851562
0, 4, 39, 1466.539672851562
0, 4, 40, 1513.885864257812
0, 4, 41, 1587.764038085938
0, 4, 42, 1563.872802734375
0, 4, 43, 1472.411376953125
0, 4, 44, 1498.311401367188
0, 4, 45, 1517.226318359375
0, 4, 46, 1468.74560546875
0, 4, 47, 1500.865844726562
0, 4, 48, 1529.236328125
0, 4, 49, 1474.578247070312
0, 4, 50, 1519.968872070312
0, 4, 51, 1495.78271484375
0, 4, 52, 1497.168823242188
0, 4, 53, 1455.385864257812
0, 4, 54, 1439.917846679688
0, 4, 55, 1526.197021484375
0, 4, 56, 1459.931274414062
0, 4, 57, 1491.766357421875
0, 4, 58, 1465.050659179688
0, 4, 59, 1465.061279296875
0, 4, 60, 1526.696899414062
0, 4, 61, 1500.936767578125
0, 4, 62, 1508.970336914062
0, 4, 63, 1547.203735351562
0, 4, 64, 1595.667846679688
0, 4, 65, 1421.546630859375
0, 4, 66, 1514.33447265625
0, 4, 67, 1520.2236328125
0, 4, 68, 1500.81982421875
0, 4, 69, 1469.468505859375
0, 4, 70, 1542.72607421875
0, 4, 71, 1516.3798828125
0, 4, 72, 1528.704711914062
0, 4, 73, 1496.557983398438
0, 4, 74, 1482.577758789062
0, 4, 75, 1534.216918945312
0, 4, 76, 1485.621948242188
0, 4, 77, 1499.490478515625
0, 4, 78, 1501.130249023438
0, 4, 79, 1480.35595703125
0, 4, 80, 1514.001831054688
0, 4, 81, 1524.0693359375
0, 4, 82, 1565.1767578125
0, 4, 83, 1503.201416015625
0, 4, 84, 1541.497680664062
0, 4, 85, 1551.664306640625
0, 4, 86, 1524.1708984375
0, 4, 87, 1491.1669921875
0, 4, 88, 1507.835815429688
0, 4, 89, 1486.273681640625
0, 4, 90, 1549.73486328125
0, 4, 91, 1554.67822265625
0, 4, 92, 1494.462158203125
0, 4, 93, 1517.103393554688
0, 4, 94, 1482.8681640625
0, 4, 95, 1509.914428710938
0, 4, 96, 1444.264892578125
0, 4, 97, 1413.34716796875
0, 4, 98, 1552.277587890625
0, 4, 99, 1510.184448242188
0, 4, 100, 1488.09814453125
0, 4, 101, 1450.726928710938
0, 4, 102, 1450.889526367188
0, 4, 103, 1512.040649414062
0, 4, 104, 1512.670654296875
0, 4, 105, 1556.887817382812
0, 4, 106, 1475.135864257812
0, 4, 107, 1457.8349609375
0, 4, 108, 1119.730590820312
0, 4, 109, 436.3828735351562
0, 4, 110, 101.6418380737305
0, 4, 111, 69.84841156005859
0, 4, 112, 57.32929992675781
0, 4, 113, 52.66986846923828
0, 4, 114, 56.16054153442383
0, 4, 115, 45.03721237182617
0, 4, 116, 37.11673736572266
0, 4, 117, 37.13849258422852
0, 4, 118, 42.45588684082031
0, 4, 119, 40.26724243164062
0, 4, 120, 31.80446243286133
0, 4, 121, 26.11133575439453
0, 4, 122, 30.94357299804688
0, 4, 123, 28.07122802734375
0, 4, 124, 21.85725402832031
0, 4, 125, 28.53469276428223
0, 4, 126, 21.81820106506348
0, 4, 127, 16.29566192626953
0, 5, 0, 20.63325119018555
0, 5, 1, 22.73920059204102
0, 5, 2, 26.60775756835938
0, 5, 3, 24.33917236328125
0, 5, 4, 22.54575729370117
0, 5, 5, 39.4119873046875
0, 5, 6, 32.55095291137695
0, 5, 7, 32.87427139282227
0, 5, 8, 29.01809883117676
0, 5, 9, 35.99563598632812
0, 5, 10, 35.75737762451172
0, 5, 11, 39.21847915649414
0, 5, 12, 38.40011215209961
0, 5, 13, 38.71280288696289
0, 5, 14, 63.88582229614258
0, 5, 15, 81.36124420166016
0, 5, 16, 79.71260070800781
0, 5, 17, 156.8897552490234
0, 5, 18, 675.8992919921875
0, 5, 19, 1348.305053710938
0, 5, 20, 1523.471313476562
0, 5, 21, 1494.484130859375
0, 5, 22, 1496.49951171875
0, 5, 23, 1531.436767578125
0, 5, 24, 1464.54248046875
0, 5, 25, 1426.327026367188
0, 5, 26, 1528.660888671875
0, 5, 27, 1541.024047851562
0, 5, 28, 1486.68212890625
0, 5, 29, 1520.441284179688
0, 5, 30, 1494.412963867188
0, 5, 31, 1497.65576171875
0, 5, 32, 1590.051879882812
0, 5, 33, 1505.50830078125
0, 5, 34, 1486.603759765625
0, 5, 35, 1511.15771484375
0, 5, 36, 1437.178833007812
0, 5, 37, 1532.008422851562
0, 5, 38, 1550.6123046875
0, 5, 39, 1551.341674804688
0, 5, 40, 1498.900146484375
0, 5, 41, 1476.556762695312
0, 5, 42, 1541.085327148438
0, 5, 43, 1536.3779296875
0, 5, 44, 1542.781005859375
0, 5, 45, 1510.993530273438
0, 5, 46, 1488.198486328125
0, 5, 47, 1481.702026367188
0, 5, 48, 1502.096801757812
0, 5, 49, 1525.952026367188
0, 5, 50, 1502.877685546875
0, 5, 51, 1516.929443359375
0, 5, 52, 1425.079956054688
0, 5, 53, 1520.156616210938
0, 5, 54, 1518.26416015625
0, 5, 55, 1522.431030273438
0, 5, 56, 1481.583129882812
0, 5, 57, 1544.333740234375
0, 5, 58, 1511.139892578125
0, 5, 59, 1484.499877929688
0, 5, 60, 1540.972534179688
0, 5, 61, 1453.21044921875
0, 5, 62, 1590.721313476562
0, 5, 63, 1433.236206054688
0, 5, 64, 1490.505493164062
0, 5, 65, 1465.341186523438
0, 5, 66, 1530.920288085938
0, 5, 67, 1564.712890625
0, 5, 68, 1461.89501953125
0, 5, 69, 1477.504272460938
0, 5, 70, 1491.14306640625
0, 5, 71, 1468.579711914062
0, 5, 72, 1541.257080078125
0, 5, 73, 1457.901977539062
0, 5, 74, 1494.69482421875
0, 5, 75, 1484.92041015625
0, 5, 76, 1477.240112304688
0, 5, 77, 1516.471069335938
0, 5, 78, 1529.645385742188
0, 5, 79, 1505.603393554688
0, 5, 80, 1516.47705078125
0, 5, 81, 1594.655639648438
0, 5, 82, 1526.83544921875
0, 5, 83, 1488.3212890625
0, 5, 84, 1532.7744140625
0, 5, 85, 1515.22216796875
0, 5, 86, 1555.360107421875
0, 5, 87, 1467.732299804688
0, 5, 88, 1494.304077148438
0, 5, 89, 1481.041748046875
0, 5, 90, 1480.44970703125
0, 5, 91, 1555.708251953125
0, 5, 92, 1477.962280273438
0, 5, 93, 1558.05029296875
0, 5, 94, 1514.295654296875
0, 5, 95, 1562.890869140625
0, 5, 96, 1494.395385742188
0, 5, 97, 1509.931396484375
0, 5, 98, 1510.144165039062
0, 5, 99, 1544.347900390625
0, 5, 100, 1430.061767578125
0, 5, 101, 1427.133422851562
0, 5, 102, 1517.407348632812
0, 5, 103, 1474.02490234375
0, 5, 104, 1460.229248046875
0, 5, 105, 1491.002685546875
0, 5, 106, 1460.119506835938
0, 5, 107, 1400.682373046875
0, 5, 108, 1287.018310546875
0, 5, 109, 723.4078369140625
0, 5, 110, 198.2627410888672
0, 5, 111, 91.93769836425781
0, 5, 112, 80.43523406982422
0, 5, 113, 61.47677612304688
0, 5, 114, 60.01860809326172
0, 5, 115, 53.86426544189453
0, 5, 116, 43.17905044555664
0, 5, 117, 40.29455947875977
0, 5, 118, 37.84257125854492
0, 5, 119, 22.20033264160156
0, 5, 120, 27.36712265014648
0, 5, 121, 22.99979400634766
0, 5, 122, 29.25847816467285
0, 5, 123, 28.29014587402344
0, 5, 124, 25.31057357788086
0, 5, 125, 25.06638336181641
0, 5, 126, 20.6808032989502
0, 5, 127, 23.41353225708008
0, 6, 0, 21.96951866149902
0, 6, 1, 32.35468292236328
0, 6, 2, 25.0286693572998
0, 6, 3, 28.03688430786133
0, 6, 4, 25.46083450317383
0, 6, 5, 30.71467781066895
0, 6, 6, 36.19976806640625
0, 6, 7, 32.17337799072266
0, 6, 8, 37.76902770996094
0, 6, 9, 32.89492034912109
0, 6, 10, 33.63863754272461
0, 6, 11, 34.02938461303711
0, 6, 12, 39.54397583007812
0, 6, 13, 57.19863510131836
0, 6, 14, 64.07312774658203
0, 6, 15, 79.64161682128906
0, 6, 16, 116.9546279907227
0, 6, 17, 294.4200744628906
0, 6, 18, 898.50634765625
0, 6, 19, 1373.843139648438
0, 6, 20, 1439.628173828125
0, 6, 21, 1527.989135742188
0, 6, 22, 1501.702880859375
0, 6, 23, 1530.336669921875
0, 6, 24, 1478.915649414062
0, 6, 25, 1526.593994140625
0, 6, 26, 1514.026123046875
0, 6, 27, 1519.670288085938
0, 6, 28, 1553.774169921875
0, 6, 29, 1577.872802734375
0, 6, 30, 1512.531127929688
0, 6, 31, 1495.023315429688
0, 6, 32, 1527.295288085938
0, 6, 33, 1487.847290039062
0, 6, 34, 1556.440551757812
0, 6, 35, 1502.7685546875
0, 6, 36, 1444.49853515625
0, 6, 37, 1545.231689453125
0, 6, 38, 1521.676391601562
0, 6, 39, 1527.86279296875
0, 6, 40, 1453.217651367188
0, 6, 41, 1437.110229492188
0, 6, 42, 1513.604614257812
0, 6, 43, 1490.737060546875
0, 6, 44, 1432.553466796875
0, 6, 45, 1545.6064453125
0, 6, 46, 1558.413818359375
0, 6, 47, 1496.848510742188
0, 6, 48, 1523.4287109375
0, 6, 49, 1505.790161132812
0, 6, 50, 1574.836547851562
0, 6, 51, 1503.6962890625
0, 6, 52, 1565.8271484375
0, 6, 53, 1471.006469726562
0, 6, 54, 1499.114624023438
0, 6, 55, 1572.025512695312
0, 6, 56, 1524.487915039062
0, 6, 57, 1502.454223632812
0, 6, 58, 1467.339233398438
0, 6, 59, 1518.911254882812
0, 6, 60, 1469.451782226562
0, 6, 61, 1567.803100585938
0, 6, 62, 1544.056030273438
0, 6, 63, 1491.784301757812
0, 6, 64, 1411.510864257812
0, 6, 65, 1493.274169921875
0, 6, 66, 1511.462036132812
0, 6, 67, 1510.3232421875
0, 6, 68, 1542.699829101562
0, 6, 69, 1483.834106445312
0, 6, 70, 1528.633544921875
0, 6, 71, 1468.020141601562
0, 6, 72, 1591.67724609375
0, 6, 73, 1489.313598632812
0, 6, 74, 1555.99072265625
0, 6, 75, 1540.710205078125
0, 6, 76, 1563.627319335938
0, 6, 77, 1507.831298828125
0, 6, 78, 1445.331176757812
0, 6, 79, 1556.549682617188
0, 6, 80, 1484.93701171875
0, 6, 81, 1479.27099609375
0, 6, 82, 1500.67919921875
0, 6, 83, 1526.344604492188
0, 6, 84, 1523.652709960938
0, 6, 85, 1534.78515625
0, 6, 86, 1544.610473632812
0, 6, 87, 1574.135620117188
0, 6, 88, 1482.554565429688
0, 6, 89, 1561.51708984375
0, 6, 90, 1493.487670898438
0, 6, 91, 1543.080200195312
0, 6, 92, 1483.58447265625
0, 6, 93, 1495.351684570312
0, 6, 94, 1469.6357421875
0, 6, 95, 1514.532836914062
0, 6, 96, 1523.263427734375
0, 6, 97, 1505.005249023438
0, 6, 98, 1490.406982421875
0, 6, 99, 1481.416137695312
0, 6, 100, 1520.44775390625
0, 6, 101, 1513.697998046875
0, 6, 102, 1538.457763671875
0, 6, 103, 1496.67626953125
0, 6, 104, 1461.92041015625
0, 6, 105, 1483.546508789062
0, 6, 106, 1501.044921875
0, 6, 107, 1502.875732421875
0, 6, 108, 1406.176635742188
0, 6, 109, 922.8015747070312
0, 6, 110, 281.7235107421875
0, 6, 111, 99.42137145996094
0, 6, 112, 80.14590454101562
0, 6, 113, 59.978759765625
0, 6, 114, 55.01467132568359
0, 6, 115, 46.31092071533203
0, 6, 116, 46.20647430419922
0, 6, 117, 39.07935333251953
0, 6, 118, 36.69061660766602
0, 6, 119, 33.56886672973633
0, 6, 120, 31.5168571472168
0, 6, 121, 28.75104331970215
0, 6, 122, 30.3880558013916
0, 6, 123, 24.34662055969238
0, 6, 124, 29.25312995910645
0, 6, 125, 31.65413665771484
0, 6, 126, 18.98262405395508
0, 6, 127, 22.45988082885742
0, 7, 0, 20.7549934387207
0, 7, 1, 24.18434143066406
0, 7, 2, 21.30834007263184
0, 7, 3, 23.76749229431152
0, 7, 4, 20.63172340393066
0, 7, 5, 32.57651519775391
0, 7, 6, 33.15056228637695
0, 7, 7, 33.91525268554688
0, 7, 8, 29.40474319458008
0, 7, 9, 35.45534515380859
0, 7, 10, 44.4183349609375
0, 7, 11, 50.91568756103516
0, 7, 12, 45.64159393310547
0, 7, 13, 50.42358016967773
0, 7, 14, 63.54212951660156
0, 7, 15, 84.26652526855469
0, 7, 16, 132.7018890380859
0, 7, 17, 458.2245178222656
0, 7, 18, 1099.704833984375
0, 7, 19, 1497.066284179688
0, 7, 20, 1484.612548828125
0, 7, 21, 1365.392456054688
0, 7, 22, 1489.7822265625
0, 7, 23, 1456.45068359375
0, 7, 24, 1506.058959960938
0, 7, 25, 1591.195678710938
0, 7, 26, 1518.996459960938
0, 7, 27, 1514.9736328125
0, 7, 28, 1547.805297851562
0, 7, 29, 1581.244018554688
0, 7, 30, 1552.186401367188
0, 7, 31, 1436.516235351562
0, 7, 32, 1547.879516601562
0, 7, 33, 1495.52783203125
0, 7, 34, 1479.906616210938
0, 7, 35, 1524.40478515625
0, 7, 36, 1474.149291992188
0, 7, 37, 1594.973999023438
0, 7, 38, 1506.916870117188
0, 7, 39, 1488.952758789062
0, 7, 40, 1543.48486328125
0, 7, 41, 1471.541259765625
0, 7, 42, 1489.796142578125
0, 7, 43, 1448.703369140625
0, 7, 44, 1486.73486328125
0, 7, 45, 1469.2158203125
0, 7, 46, 1511.953369140625
0, 7, 47, 1566.083129882812
0, 7, 48, 1521.361083984375
0, 7, 49, 1536.728271484375
0, 7, 50, 1515.921630859375
0, 7, 51, 1498.197387695312
0, 7, 52, 1518.208984375
0, 7, 53, 1494.952880859375
0, 7, 54, 1583.082153320312
0, 7, 55, 1472.042846679688
0, 7, 56, 1553.305419921875
0, 7, 57, 1513.3212890625
0, 7, 58, 1546.370483398438
0, 7, 59, 1540.969604492188
0, 7, 60, 1549.494018554688
0, 7, 61, 1493.061645507812
0, 7, 62, 1435.890380859375
0, 7, 63, 1510.941040039062
0, 7, 64, 1550.153442382812
0, 7, 65, 1529.635009765625
0, 7, 66, 1534.5263671875
0, 7, 67, 1578.012451171875
0, 7, 68, 1532.254150390625
0, 7, 69, 1519.241088867188
0, 7, 70, 1493.779418945312
0, 7, 71, 1522.356201171875
0, 7, 72, 1523.855224609375
0, 7, 73, 1518.984497070312
0, 7, 74, 1584.693359375
0, 7, 75, 1535.443237304688
0, 7, 76, 1561.336669921875
0, 7, 77, 1510.865234375
0, 7, 78, 1505.208374023438
0, 7, 79, 1422.850341796875
0, 7, 80, 1490.546508789062
0, 7, 81, 1494.5498046875
0, 7, 82, 1531.435913085938
0, 7, 83, 1545.3134765625
0, 7, 84, 1584.878784179688
0, 7, 85, 1483.870361328125
0, 7, 86, 1500.99658203125
0, 7, 87, 1506.86669921875
0, 7, 88, 1504.422485351562
0, 7, 89, 1554.244873046875
0, 7, 90, 1520.14501953125
0, 7, 91, 1560.134765625
0, 7, 92, 1531.293334960938
0, 7, 93, 1551.730102539062
0, 7, 94, 1539.240478515625
0, 7, 95, 1505.714233398438
0, 7, 96, 1510.547729492188
0, 7, 97, 1434.870361328125
0, 7, 98, 1481.72314453125
0, 7, 99, 1528.19384765625
0, 7, 100, 1426.671875
0, 7, 101, 1466.279663085938
0, 7, 102, 1447.835327148438
0, 7, 103, 1428.587768554688
0, 7, 104, 1497.216796875
0, 7, 105, 1522.975341796875
0, 7, 106, 1564.944091796875
0, 7, 107, 1478.202270507812
0, 7, 108, 1409.757568359375
0, 7, 109, 1144.972412109375
0, 7, 110, 476.7086181640625
0, 7, 111, 122.7618103027344
0, 7, 112, 81.10466003417969
0, 7, 113, 68.91299438476562
0, 7, 114, 55.02392959594727
0, 7, 115, 51.79097747802734
0, 7, 116, 49.72676849365234
0, 7, 117, 49.63272857666016
0, 7, 118, 38.65606689453125
0, 7, 119, 29.41967582702637
0, 7, 120, 24.63619804382324
0, 7, 121, 28.63191223144531
0, 7, 122, 32.76272964477539
0, 7, 123, 38.01975631713867
0, 7, 124, 30.18380165100098
0, 7, 125, 21.74824714660645
0, 7, 126, 22.81303215026855
0, 7, 127, 18.95144271850586
0, 8, 0, 21.29386138916016
0, 8, 1, 23.03127288818359
0, 8, 2, 25.38010597229004
0, 8, 3, 21.38080787658691
0, 8, 4, 22.89066123962402
0, 8, 5, 32.38080978393555
0, 8, 6, 32.3422966003418
0, 8, 7, 30.94088554382324
0, 8, 8, 37.55843734741211
0, 8, 9, 44.68925476074219
0, 8, 10, 38.48351287841797
0, 8, 11, 45.25443649291992
0, 8, 12, 56.14379501342773
0, 8, 13, 73.30439758300781
0, 8, 14, 67.66213989257812
0, 8, 15, 86.47579956054688
0, 8, 16, 171.8380279541016
0, 8, 17, 675.6959838867188
0, 8, 18, 1283.780883789062
0, 8, 19, 1451.240600585938
0, 8, 20, 1424.018920898438
0, 8, 21, 1409.029296875
0, 8, 22, 1492.778930664062
0, 8, 23, 1481.562133789062
0, 8, 24, 1432.130004882812
0, 8, 25, 1459.448364257812
0, 8, 26, 1514.148681640625
0, 8, 27, 1518.29052734375
0, 8, 28, 1474.429809570312
0, 8, 29, 1504.081909179688
0, 8, 30, 1480.168579101562
0, 8, 31, 1533.984008789062
0, 8, 32, 1507.275024414062
0, 8, 33, 1481.20458984375
0, 8, 34, 1532.8984375
0, 8, 35, 1442.344848632812
0, 8, 36, 1502.827514648438
0, 8, 37, 1557.00244140625
0, 8, 38, 1549.923095703125
0, 8, 39, 1490.81201171875
0, 8, 40, 1529.396728515625
0, 8, 41, 1485.61572265625
0, 8, 42, 1542.533447265625
0, 8, 43, 1437.241577148438
0, 8, 44, 1535.312744140625
0, 8, 45, 1510.638427734375
0, 8, 46, 1597.774169921875
