# TOPAS Version: 3.1.p3
# Parameter File: batch_inserts_224.txt
# Results for scorer Readout_Adipose
# Scored in component: MyBox
# X in 1 bin  of 0.75 cm
# Y in 512 bins of 0.0783984 cm
# Z in 128 bins of 0.078125 cm
# EnergyDeposit ( MeV ) : Sum   
0, 0, 0, 21.45233345031738
0, 0, 1, 18.51267051696777
0, 0, 2, 28.37839698791504
0, 0, 3, 26.26998901367188
0, 0, 4, 20.94630432128906
0, 0, 5, 22.9182243347168
0, 0, 6, 24.68129920959473
0, 0, 7, 32.52912139892578
0, 0, 8, 19.34743309020996
0, 0, 9, 20.21582794189453
0, 0, 10, 25.67298698425293
0, 0, 11, 26.9360408782959
0, 0, 12, 40.12204742431641
0, 0, 13, 35.06776809692383
0, 0, 14, 38.33947372436523
0, 0, 15, 48.61035919189453
0, 0, 16, 44.68551635742188
0, 0, 17, 47.87881469726562
0, 0, 18, 74.39158630371094
0, 0, 19, 189.6858673095703
0, 0, 20, 701.808349609375
0, 0, 21, 1190.888916015625
0, 0, 22, 1249.651611328125
0, 0, 23, 1279.963745117188
0, 0, 24, 1280.453735351562
0, 0, 25, 1360.755126953125
0, 0, 26, 1272.764282226562
0, 0, 27, 1279.006591796875
0, 0, 28, 1319.4091796875
0, 0, 29, 1268.849243164062
0, 0, 30, 1260.767456054688
0, 0, 31, 1282.124755859375
0, 0, 32, 1262.2421875
0, 0, 33, 1240.212646484375
0, 0, 34, 1322.34619140625
0, 0, 35, 1302.02685546875
0, 0, 36, 1250.95361328125
0, 0, 37, 1281.124267578125
0, 0, 38, 1246.471801757812
0, 0, 39, 1246.832275390625
0, 0, 40, 1224.39111328125
0, 0, 41, 1270.59765625
0, 0, 42, 1255.778686523438
0, 0, 43, 1268.138061523438
0, 0, 44, 1227.881469726562
0, 0, 45, 1287.089477539062
0, 0, 46, 1261.347900390625
0, 0, 47, 1236.347900390625
0, 0, 48, 1273.56298828125
0, 0, 49, 1284.760009765625
0, 0, 50, 1305.94873046875
0, 0, 51, 1265.982543945312
0, 0, 52, 1356.845092773438
0, 0, 53, 1328.567626953125
0, 0, 54, 1294.754638671875
0, 0, 55, 1231.454345703125
0, 0, 56, 1314.457275390625
0, 0, 57, 1289.234619140625
0, 0, 58, 1252.81982421875
0, 0, 59, 1332.238159179688
0, 0, 60, 1329.567504882812
0, 0, 61, 1262.453125
0, 0, 62, 1240.2080078125
0, 0, 63, 1279.811401367188
0, 0, 64, 1326.844848632812
0, 0, 65, 1287.90185546875
0, 0, 66, 1320.600830078125
0, 0, 67, 1213.898071289062
0, 0, 68, 1309.194213867188
0, 0, 69, 1329.63623046875
0, 0, 70, 1342.035522460938
0, 0, 71, 1285.580688476562
0, 0, 72, 1313.912719726562
0, 0, 73, 1236.951416015625
0, 0, 74, 1297.255126953125
0, 0, 75, 1297.959838867188
0, 0, 76, 1256.155029296875
0, 0, 77, 1283.166137695312
0, 0, 78, 1313.995971679688
0, 0, 79, 1327.550537109375
0, 0, 80, 1262.845703125
0, 0, 81, 1321.371215820312
0, 0, 82, 1283.957153320312
0, 0, 83, 1289.198974609375
0, 0, 84, 1328.18603515625
0, 0, 85, 1229.497680664062
0, 0, 86, 1264.9619140625
0, 0, 87, 1254.188720703125
0, 0, 88, 1255.276489257812
0, 0, 89, 1336.264038085938
0, 0, 90, 1274.5673828125
0, 0, 91, 1361.030639648438
0, 0, 92, 1304.779296875
0, 0, 93, 1269.9677734375
0, 0, 94, 1243.391845703125
0, 0, 95, 1328.391845703125
0, 0, 96, 1284.299926757812
0, 0, 97, 1325.998657226562
0, 0, 98, 1256.294311523438
0, 0, 99, 1249.0771484375
0, 0, 100, 1288.833374023438
0, 0, 101, 1315.157592773438
0, 0, 102, 1231.8154296875
0, 0, 103, 1322.342529296875
0, 0, 104, 1261.051025390625
0, 0, 105, 1269.255004882812
0, 0, 106, 1208.338989257812
0, 0, 107, 780.796142578125
0, 0, 108, 195.730712890625
0, 0, 109, 67.35807800292969
0, 0, 110, 62.21212387084961
0, 0, 111, 43.86579513549805
0, 0, 112, 36.68034362792969
0, 0, 113, 29.14813613891602
0, 0, 114, 36.04128265380859
0, 0, 115, 32.25484848022461
0, 0, 116, 25.67609214782715
0, 0, 117, 35.79190826416016
0, 0, 118, 30.29087066650391
0, 0, 119, 22.12293243408203
0, 0, 120, 25.28625106811523
0, 0, 121, 28.08897018432617
0, 0, 122, 25.70284843444824
0, 0, 123, 19.02482032775879
0, 0, 124, 18.7154369354248
0, 0, 125, 17.63187026977539
0, 0, 126, 23.98081207275391
0, 0, 127, 14.48725700378418
0, 1, 0, 21.57897758483887
0, 1, 1, 21.28956604003906
0, 1, 2, 24.35177612304688
0, 1, 3, 22.17925453186035
0, 1, 4, 25.21590995788574
0, 1, 5, 33.83498382568359
0, 1, 6, 24.75148963928223
0, 1, 7, 26.00321769714355
0, 1, 8, 36.02058029174805
0, 1, 9, 28.72536659240723
0, 1, 10, 34.45078277587891
0, 1, 11, 39.06462478637695
0, 1, 12, 39.71891403198242
0, 1, 13, 42.48497772216797
0, 1, 14, 40.14480590820312
0, 1, 15, 46.69483947753906
0, 1, 16, 57.17324829101562
0, 1, 17, 58.62359237670898
0, 1, 18, 97.51476287841797
0, 1, 19, 400.5158386230469
0, 1, 20, 1047.721069335938
0, 1, 21, 1374.86083984375
0, 1, 22, 1482.599853515625
0, 1, 23, 1458.449462890625
0, 1, 24, 1451.05908203125
0, 1, 25, 1423.074829101562
0, 1, 26, 1477.477783203125
0, 1, 27, 1466.63134765625
0, 1, 28, 1487.610717773438
0, 1, 29, 1476.607055664062
0, 1, 30, 1507.700927734375
0, 1, 31, 1489.893310546875
0, 1, 32, 1410.56298828125
0, 1, 33, 1502.394897460938
0, 1, 34, 1502.530151367188
0, 1, 35, 1460.444213867188
0, 1, 36, 1485.4150390625
0, 1, 37, 1408.4677734375
0, 1, 38, 1400.228515625
0, 1, 39, 1526.201782226562
0, 1, 40, 1461.726806640625
0, 1, 41, 1484.592041015625
0, 1, 42, 1495.492065429688
0, 1, 43, 1500.883544921875
0, 1, 44, 1450.506103515625
0, 1, 45, 1483.052368164062
0, 1, 46, 1418.992919921875
0, 1, 47, 1436.380126953125
0, 1, 48, 1426.807373046875
0, 1, 49, 1486.335815429688
0, 1, 50, 1440.589721679688
0, 1, 51, 1478.819458007812
0, 1, 52, 1479.127685546875
0, 1, 53, 1473.420288085938
0, 1, 54, 1508.220947265625
0, 1, 55, 1494.4931640625
0, 1, 56, 1472.674560546875
0, 1, 57, 1453.661743164062
0, 1, 58, 1431.311279296875
0, 1, 59, 1479.29345703125
0, 1, 60, 1465.158935546875
0, 1, 61, 1451.999389648438
0, 1, 62, 1455.114013671875
0, 1, 63, 1417.311645507812
0, 1, 64, 1471.583984375
0, 1, 65, 1416.54833984375
0, 1, 66, 1442.559814453125
0, 1, 67, 1456.109375
0, 1, 68, 1388.342407226562
0, 1, 69, 1457.591674804688
0, 1, 70, 1433.933471679688
0, 1, 71, 1493.870849609375
0, 1, 72, 1433.371215820312
0, 1, 73, 1490.044555664062
0, 1, 74, 1469.513061523438
0, 1, 75, 1475.982177734375
0, 1, 76, 1455.481811523438
0, 1, 77, 1457.104248046875
0, 1, 78, 1445.563598632812
0, 1, 79, 1500.758178710938
0, 1, 80, 1451.109985351562
0, 1, 81, 1425.4638671875
0, 1, 82, 1470.6083984375
0, 1, 83, 1462.902221679688
0, 1, 84, 1534.528686523438
0, 1, 85, 1447.233276367188
0, 1, 86, 1408.703125
0, 1, 87, 1419.479125976562
0, 1, 88, 1471.289916992188
0, 1, 89, 1472.26318359375
0, 1, 90, 1424.470947265625
0, 1, 91, 1464.816528320312
0, 1, 92, 1414.34228515625
0, 1, 93, 1459.850219726562
0, 1, 94, 1465.519775390625
0, 1, 95, 1421.73046875
0, 1, 96, 1497.699951171875
0, 1, 97, 1513.312377929688
0, 1, 98, 1476.080444335938
0, 1, 99, 1419.4072265625
0, 1, 100, 1449.285278320312
0, 1, 101, 1414.647094726562
0, 1, 102, 1443.051147460938
0, 1, 103, 1413.198608398438
0, 1, 104, 1406.716430664062
0, 1, 105, 1461.06201171875
0, 1, 106, 1366.470092773438
0, 1, 107, 1019.918701171875
0, 1, 108, 404.0543212890625
0, 1, 109, 93.45874786376953
0, 1, 110, 60.31850433349609
0, 1, 111, 59.46502685546875
0, 1, 112, 46.06452560424805
0, 1, 113, 40.84482192993164
0, 1, 114, 34.75148010253906
0, 1, 115, 38.67768096923828
0, 1, 116, 34.90605163574219
0, 1, 117, 37.58874130249023
0, 1, 118, 36.06318283081055
0, 1, 119, 30.67145156860352
0, 1, 120, 29.3475456237793
0, 1, 121, 27.37358474731445
0, 1, 122, 19.79431533813477
0, 1, 123, 24.9119873046875
0, 1, 124, 32.48170852661133
0, 1, 125, 21.02248191833496
0, 1, 126, 16.87154769897461
0, 1, 127, 22.70953750610352
0, 2, 0, 19.4607048034668
0, 2, 1, 24.23197364807129
0, 2, 2, 19.91214370727539
0, 2, 3, 21.82675361633301
0, 2, 4, 21.37046432495117
0, 2, 5, 28.47608947753906
0, 2, 6, 26.95588493347168
0, 2, 7, 19.68279647827148
0, 2, 8, 28.96904754638672
0, 2, 9, 26.38781356811523
0, 2, 10, 30.18107604980469
0, 2, 11, 31.8920726776123
0, 2, 12, 41.20793914794922
0, 2, 13, 43.91141128540039
0, 2, 14, 48.44161987304688
0, 2, 15, 51.24363327026367
0, 2, 16, 65.83822631835938
0, 2, 17, 75.67130279541016
0, 2, 18, 146.7996520996094
0, 2, 19, 603.6132202148438
0, 2, 20, 1286.497314453125
0, 2, 21, 1433.089233398438
0, 2, 22, 1458.619018554688
0, 2, 23, 1406.673583984375
0, 2, 24, 1439.640625
0, 2, 25, 1522.964965820312
0, 2, 26, 1555.278686523438
0, 2, 27, 1459.773071289062
0, 2, 28, 1460.153442382812
0, 2, 29, 1459.411010742188
0, 2, 30, 1465.447387695312
0, 2, 31, 1533.486450195312
0, 2, 32, 1506.849609375
0, 2, 33, 1439.94580078125
0, 2, 34, 1473.297607421875
0, 2, 35, 1467.68212890625
0, 2, 36, 1524.981201171875
0, 2, 37, 1541.215576171875
0, 2, 38, 1514.494018554688
0, 2, 39, 1461.628051757812
0, 2, 40, 1501.918334960938
0, 2, 41, 1516.525146484375
0, 2, 42, 1504.3125
0, 2, 43, 1546.934204101562
0, 2, 44, 1460.761962890625
0, 2, 45, 1484.076293945312
0, 2, 46, 1422.901611328125
0, 2, 47, 1448.260864257812
0, 2, 48, 1399.452270507812
0, 2, 49, 1460.813354492188
0, 2, 50, 1441.298461914062
0, 2, 51, 1441.5068359375
0, 2, 52, 1495.918090820312
0, 2, 53, 1520.236328125
0, 2, 54, 1524.131591796875
0, 2, 55, 1493.796997070312
0, 2, 56, 1460.776733398438
0, 2, 57, 1415.489990234375
0, 2, 58, 1451.811279296875
0, 2, 59, 1449.744140625
0, 2, 60, 1468.769653320312
0, 2, 61, 1447.250732421875
0, 2, 62, 1473.09130859375
0, 2, 63, 1508.857543945312
0, 2, 64, 1459.503540039062
0, 2, 65, 1427.016357421875
0, 2, 66, 1487.2275390625
0, 2, 67, 1504.855712890625
0, 2, 68, 1543.770385742188
0, 2, 69, 1538.823608398438
0, 2, 70, 1508.828491210938
0, 2, 71, 1463.998046875
0, 2, 72, 1515.087036132812
0, 2, 73, 1521.774169921875
0, 2, 74, 1489.027221679688
0, 2, 75, 1503.77490234375
0, 2, 76, 1452.0107421875
0, 2, 77, 1507.212768554688
0, 2, 78, 1431.78955078125
0, 2, 79, 1538.430908203125
0, 2, 80, 1477.071533203125
0, 2, 81, 1462.024658203125
0, 2, 82, 1563.005126953125
0, 2, 83, 1516.758178710938
0, 2, 84, 1492.02783203125
0, 2, 85, 1515.678100585938
0, 2, 86, 1542.359741210938
0, 2, 87, 1488.663940429688
0, 2, 88, 1539.551025390625
0, 2, 89, 1471.52783203125
0, 2, 90, 1431.145385742188
0, 2, 91, 1404.780151367188
0, 2, 92, 1477.196899414062
0, 2, 93, 1496.957153320312
0, 2, 94, 1451.49609375
0, 2, 95, 1545.048461914062
0, 2, 96, 1512.706909179688
0, 2, 97, 1451.320556640625
0, 2, 98, 1464.333862304688
0, 2, 99, 1402.916381835938
0, 2, 100, 1472.665649414062
0, 2, 101, 1479.168090820312
0, 2, 102, 1460.864624023438
0, 2, 103, 1389.441772460938
0, 2, 104, 1411.213745117188
0, 2, 105, 1400.192993164062
0, 2, 106, 1455.801513671875
0, 2, 107, 1274.844482421875
0, 2, 108, 621.2529907226562
0, 2, 109, 168.4317932128906
0, 2, 110, 70.80966949462891
0, 2, 111, 65.18392944335938
0, 2, 112, 47.27092742919922
0, 2, 113, 45.31936264038086
0, 2, 114, 35.97139358520508
0, 2, 115, 43.55254745483398
0, 2, 116, 34.45682907104492
0, 2, 117, 36.82146072387695
0, 2, 118, 35.46203231811523
0, 2, 119, 32.36767959594727
0, 2, 120, 32.64715957641602
0, 2, 121, 19.86040878295898
0, 2, 122, 28.1353931427002
0, 2, 123, 21.80145645141602
0, 2, 124, 23.92114639282227
0, 2, 125, 33.55044174194336
0, 2, 126, 17.32708358764648
0, 2, 127, 23.78732299804688
0, 3, 0, 14.77927398681641
0, 3, 1, 22.92591857910156
0, 3, 2, 27.9476146697998
0, 3, 3, 21.67049789428711
0, 3, 4, 16.03234672546387
0, 3, 5, 26.81134414672852
0, 3, 6, 31.87159729003906
0, 3, 7, 29.85585594177246
0, 3, 8, 31.2832088470459
0, 3, 9, 28.95842933654785
0, 3, 10, 34.07083129882812
0, 3, 11, 35.17443466186523
0, 3, 12, 44.67567825317383
0, 3, 13, 53.01489639282227
0, 3, 14, 55.22477722167969
0, 3, 15, 54.74345397949219
0, 3, 16, 68.42853546142578
0, 3, 17, 86.24847412109375
0, 3, 18, 239.4459991455078
0, 3, 19, 875.4856567382812
0, 3, 20, 1384.560546875
0, 3, 21, 1505.007568359375
0, 3, 22, 1459.59326171875
0, 3, 23, 1455.928588867188
0, 3, 24, 1443.997314453125
0, 3, 25, 1463.51416015625
0, 3, 26, 1494.822875976562
0, 3, 27, 1468.353637695312
0, 3, 28, 1488.887451171875
0, 3, 29, 1543.893432617188
0, 3, 30, 1573.360961914062
0, 3, 31, 1508.7587890625
0, 3, 32, 1547.476928710938
0, 3, 33, 1543.7705078125
0, 3, 34, 1486.338745117188
0, 3, 35, 1460.581176757812
0, 3, 36, 1454.069458007812
0, 3, 37, 1511.045532226562
0, 3, 38, 1520.334716796875
0, 3, 39, 1444.585083007812
0, 3, 40, 1441.013061523438
0, 3, 41, 1567.281127929688
0, 3, 42, 1463.299194335938
0, 3, 43, 1454.379150390625
0, 3, 44, 1449.536254882812
0, 3, 45, 1511.2158203125
0, 3, 46, 1508.682373046875
0, 3, 47, 1445.372436523438
0, 3, 48, 1509.108764648438
0, 3, 49, 1450.673950195312
0, 3, 50, 1486.627563476562
0, 3, 51, 1536.528442382812
0, 3, 52, 1537.17724609375
0, 3, 53, 1469.97119140625
0, 3, 54, 1536.937377929688
0, 3, 55, 1506.833251953125
0, 3, 56, 1437.873291015625
0, 3, 57, 1500.721069335938
0, 3, 58, 1512.684692382812
0, 3, 59, 1512.438720703125
0, 3, 60, 1528.15771484375
0, 3, 61, 1482.858154296875
0, 3, 62, 1492.457885742188
0, 3, 63, 1489.853271484375
0, 3, 64, 1505.05517578125
0, 3, 65, 1514.292724609375
0, 3, 66, 1557.263671875
0, 3, 67, 1544.493896484375
0, 3, 68, 1453.006958007812
0, 3, 69, 1464.421875
0, 3, 70, 1387.520751953125
0, 3, 71, 1463.4013671875
0, 3, 72, 1547.551147460938
0, 3, 73, 1498.223266601562
0, 3, 74, 1462.416137695312
0, 3, 75, 1461.836547851562
0, 3, 76, 1579.20263671875
0, 3, 77, 1545.888916015625
0, 3, 78, 1430.877319335938
0, 3, 79, 1495.018310546875
0, 3, 80, 1460.091674804688
0, 3, 81, 1474.558227539062
0, 3, 82, 1556.7294921875
0, 3, 83, 1513.952514648438
0, 3, 84, 1557.247314453125
0, 3, 85, 1478.67919921875
0, 3, 86, 1520.32421875
0, 3, 87, 1535.862548828125
0, 3, 88, 1460.555297851562
0, 3, 89, 1451.80517578125
0, 3, 90, 1450.411254882812
0, 3, 91, 1416.1591796875
0, 3, 92, 1514.330444335938
0, 3, 93, 1503.940673828125
0, 3, 94, 1517.163452148438
0, 3, 95, 1543.878784179688
0, 3, 96, 1520.462524414062
0, 3, 97, 1468.185546875
0, 3, 98, 1439.282836914062
0, 3, 99, 1469.590942382812
0, 3, 100, 1464.895141601562
0, 3, 101, 1476.650512695312
0, 3, 102, 1523.058471679688
0, 3, 103, 1556.615356445312
0, 3, 104, 1501.47607421875
0, 3, 105, 1512.701049804688
0, 3, 106, 1478.239501953125
0, 3, 107, 1344.439819335938
0, 3, 108, 874.9801635742188
0, 3, 109, 265.8150634765625
0, 3, 110, 105.8428497314453
0, 3, 111, 63.96391296386719
0, 3, 112, 58.22885894775391
0, 3, 113, 51.41928100585938
0, 3, 114, 46.90571594238281
0, 3, 115, 49.48313903808594
0, 3, 116, 39.60213088989258
0, 3, 117, 36.85602188110352
0, 3, 118, 33.08282852172852
0, 3, 119, 31.42900466918945
0, 3, 120, 28.96561050415039
0, 3, 121, 18.40328788757324
0, 3, 122, 25.76700782775879
0, 3, 123, 25.86956787109375
0, 3, 124, 22.96171188354492
0, 3, 125, 27.65498733520508
0, 3, 126, 19.70562553405762
0, 3, 127, 18.07177543640137
0, 4, 0, 20.12117958068848
0, 4, 1, 23.36769676208496
0, 4, 2, 22.89465141296387
0, 4, 3, 24.91106033325195
0, 4, 4, 26.44696235656738
0, 4, 5, 31.61249923706055
0, 4, 6, 25.37141036987305
0, 4, 7, 31.17179107666016
0, 4, 8, 23.90598297119141
0, 4, 9, 37.10153961181641
0, 4, 10, 29.59945487976074
0, 4, 11, 38.92112350463867
0, 4, 12, 45.50848770141602
0, 4, 13, 53.45634841918945
0, 4, 14, 51.08952331542969
0, 4, 15, 64.30862426757812
0, 4, 16, 76.03932189941406
0, 4, 17, 112.8726577758789
0, 4, 18, 448.6770629882812
0, 4, 19, 1185.660400390625
0, 4, 20, 1444.71533203125
0, 4, 21, 1419.091796875
0, 4, 22, 1431.94970703125
0, 4, 23, 1452.491577148438
0, 4, 24, 1475.98876953125
0, 4, 25, 1405.999389648438
0, 4, 26, 1532.3857421875
0, 4, 27, 1551.82861328125
0, 4, 28, 1512.419799804688
0, 4, 29, 1518.821533203125
0, 4, 30, 1528.151733398438
0, 4, 31, 1582.556640625
0, 4, 32, 1513.870727539062
0, 4, 33, 1499.89013671875
0, 4, 34, 1469.279296875
0, 4, 35, 1560.605224609375
0, 4, 36, 1500.04052734375
0, 4, 37, 1511.035400390625
0, 4, 38, 1533.62744140625
0, 4, 39, 1467.807861328125
0, 4, 40, 1517.674682617188
0, 4, 41, 1585.695556640625
0, 4, 42, 1562.211303710938
0, 4, 43, 1479.314086914062
0, 4, 44, 1497.404052734375
0, 4, 45, 1514.521850585938
0, 4, 46, 1470.706298828125
0, 4, 47, 1501.024536132812
0, 4, 48, 1525.788208007812
0, 4, 49, 1475.490234375
0, 4, 50, 1520.642700195312
0, 4, 51, 1494.1689453125
0, 4, 52, 1493.717651367188
0, 4, 53, 1455.65087890625
0, 4, 54, 1443.45947265625
0, 4, 55, 1526.550170898438
0, 4, 56, 1453.287475585938
0, 4, 57, 1496.128784179688
0, 4, 58, 1458.0966796875
0, 4, 59, 1464.338012695312
0, 4, 60, 1524.474731445312
0, 4, 61, 1494.327270507812
0, 4, 62, 1505.4208984375
0, 4, 63, 1542.791259765625
0, 4, 64, 1593.888305664062
0, 4, 65, 1422.766723632812
0, 4, 66, 1511.280883789062
0, 4, 67, 1521.499877929688
0, 4, 68, 1496.568237304688
0, 4, 69, 1464.2041015625
0, 4, 70, 1542.111328125
0, 4, 71, 1516.204956054688
0, 4, 72, 1524.196044921875
0, 4, 73, 1496.165405273438
0, 4, 74, 1487.407470703125
0, 4, 75, 1536.311157226562
0, 4, 76, 1478.873779296875
0, 4, 77, 1496.395263671875
0, 4, 78, 1502.22216796875
0, 4, 79, 1490.901123046875
0, 4, 80, 1515.887084960938
0, 4, 81, 1526.910522460938
0, 4, 82, 1565.710205078125
0, 4, 83, 1501.27001953125
0, 4, 84, 1538.514770507812
0, 4, 85, 1551.848022460938
0, 4, 86, 1527.57275390625
0, 4, 87, 1497.1279296875
0, 4, 88, 1507.989868164062
0, 4, 89, 1475.9560546875
0, 4, 90, 1543.8544921875
0, 4, 91, 1552.741333007812
0, 4, 92, 1487.827758789062
0, 4, 93, 1512.668579101562
0, 4, 94, 1481.617553710938
0, 4, 95, 1506.483764648438
0, 4, 96, 1442.361450195312
0, 4, 97, 1406.952514648438
0, 4, 98, 1556.572875976562
0, 4, 99, 1509.243530273438
0, 4, 100, 1491.757568359375
0, 4, 101, 1445.5986328125
0, 4, 102, 1448.229370117188
0, 4, 103, 1511.634399414062
0, 4, 104, 1512.683837890625
0, 4, 105, 1558.127807617188
0, 4, 106, 1476.502685546875
0, 4, 107, 1455.582397460938
0, 4, 108, 1119.363403320312
0, 4, 109, 435.8534545898438
0, 4, 110, 100.7447357177734
0, 4, 111, 74.48037719726562
0, 4, 112, 62.51353454589844
0, 4, 113, 51.51827239990234
0, 4, 114, 56.11722183227539
0, 4, 115, 45.16901779174805
0, 4, 116, 35.55728912353516
0, 4, 117, 42.87115097045898
0, 4, 118, 48.07891845703125
0, 4, 119, 43.80315017700195
0, 4, 120, 35.54741287231445
0, 4, 121, 26.6080150604248
0, 4, 122, 30.52368927001953
0, 4, 123, 27.31793975830078
0, 4, 124, 23.33125495910645
0, 4, 125, 32.2488899230957
0, 4, 126, 26.27762603759766
0, 4, 127, 20.69600486755371
0, 5, 0, 22.982421875
0, 5, 1, 29.99530792236328
0, 5, 2, 26.09768867492676
0, 5, 3, 25.19169044494629
0, 5, 4, 19.26206016540527
0, 5, 5, 33.43281555175781
0, 5, 6, 30.44292640686035
0, 5, 7, 31.27359962463379
0, 5, 8, 35.3105583190918
0, 5, 9, 32.71742248535156
0, 5, 10, 32.41847991943359
0, 5, 11, 37.01356887817383
0, 5, 12, 40.04815673828125
0, 5, 13, 47.63512802124023
0, 5, 14, 64.841796875
0, 5, 15, 78.05603790283203
0, 5, 16, 77.73795318603516
0, 5, 17, 153.7626342773438
0, 5, 18, 674.908935546875
0, 5, 19, 1344.394287109375
0, 5, 20, 1526.468017578125
0, 5, 21, 1493.717163085938
0, 5, 22, 1497.20751953125
0, 5, 23, 1528.445922851562
0, 5, 24, 1462.793090820312
0, 5, 25, 1428.589111328125
0, 5, 26, 1529.200805664062
0, 5, 27, 1538.842529296875
0, 5, 28, 1488.267333984375
0, 5, 29, 1525.80126953125
0, 5, 30, 1498.693237304688
0, 5, 31, 1500.055541992188
0, 5, 32, 1594.411010742188
0, 5, 33, 1504.644287109375
0, 5, 34, 1485.835327148438
0, 5, 35, 1510.304321289062
0, 5, 36, 1447.628295898438
0, 5, 37, 1530.994262695312
0, 5, 38, 1544.630737304688
0, 5, 39, 1547.382934570312
0, 5, 40, 1495.308959960938
0, 5, 41, 1476.86669921875
0, 5, 42, 1543.673217773438
0, 5, 43, 1531.7939453125
0, 5, 44, 1541.071899414062
0, 5, 45, 1507.069091796875
0, 5, 46, 1493.6748046875
0, 5, 47, 1484.569213867188
0, 5, 48, 1502.244873046875
0, 5, 49, 1532.554443359375
0, 5, 50, 1504.550659179688
0, 5, 51, 1523.214965820312
0, 5, 52, 1428.58740234375
0, 5, 53, 1520.477294921875
0, 5, 54, 1516.750366210938
0, 5, 55, 1521.527099609375
0, 5, 56, 1486.41552734375
0, 5, 57, 1543.674682617188
0, 5, 58, 1505.798828125
0, 5, 59, 1491.4365234375
0, 5, 60, 1532.913818359375
0, 5, 61, 1457.723022460938
0, 5, 62, 1587.368408203125
0, 5, 63, 1435.61767578125
0, 5, 64, 1493.233520507812
0, 5, 65, 1469.654296875
0, 5, 66, 1526.678955078125
0, 5, 67, 1558.982421875
0, 5, 68, 1464.158203125
0, 5, 69, 1486.443359375
0, 5, 70, 1488.749389648438
0, 5, 71, 1466.690795898438
0, 5, 72, 1537.321166992188
0, 5, 73, 1457.970581054688
0, 5, 74, 1491.83203125
0, 5, 75, 1490.508056640625
0, 5, 76, 1475.1181640625
0, 5, 77, 1515.492431640625
0, 5, 78, 1527.500366210938
0, 5, 79, 1510.789916992188
0, 5, 80, 1523.04833984375
0, 5, 81, 1598.911865234375
0, 5, 82, 1525.2890625
0, 5, 83, 1489.188354492188
0, 5, 84, 1529.791625976562
0, 5, 85, 1514.172241210938
0, 5, 86, 1559.029907226562
0, 5, 87, 1470.856567382812
0, 5, 88, 1499.277221679688
0, 5, 89, 1478.825073242188
0, 5, 90, 1484.612548828125
0, 5, 91, 1553.49658203125
0, 5, 92, 1482.244873046875
0, 5, 93, 1557.03125
0, 5, 94, 1515.763549804688
0, 5, 95, 1561.993530273438
0, 5, 96, 1494.205932617188
0, 5, 97, 1508.202392578125
0, 5, 98, 1504.993774414062
0, 5, 99, 1540.299926757812
0, 5, 100, 1433.316772460938
0, 5, 101, 1428.8046875
0, 5, 102, 1512.236450195312
0, 5, 103, 1475.966064453125
0, 5, 104, 1460.215454101562
0, 5, 105, 1489.8359375
0, 5, 106, 1462.708862304688
0, 5, 107, 1397.186157226562
0, 5, 108, 1287.445678710938
0, 5, 109, 720.5584106445312
0, 5, 110, 197.22119140625
0, 5, 111, 91.15792846679688
0, 5, 112, 82.72470855712891
0, 5, 113, 65.96134185791016
0, 5, 114, 62.96981811523438
0, 5, 115, 53.34140777587891
0, 5, 116, 41.17043304443359
0, 5, 117, 39.44052886962891
0, 5, 118, 42.79906845092773
0, 5, 119, 32.7444953918457
0, 5, 120, 27.64325332641602
0, 5, 121, 28.1521167755127
0, 5, 122, 33.29644012451172
0, 5, 123, 32.30295181274414
0, 5, 124, 28.78308296203613
0, 5, 125, 23.82681274414062
0, 5, 126, 19.67942047119141
0, 5, 127, 22.3698558807373
0, 6, 0, 20.98603820800781
0, 6, 1, 27.66419219970703
0, 6, 2, 31.69728660583496
0, 6, 3, 31.65523147583008
0, 6, 4, 20.97480010986328
0, 6, 5, 35.20883178710938
0, 6, 6, 35.81362915039062
0, 6, 7, 30.67335891723633
0, 6, 8, 31.77825736999512
0, 6, 9, 31.99296569824219
0, 6, 10, 35.08383560180664
0, 6, 11, 41.11800765991211
0, 6, 12, 40.18647003173828
0, 6, 13, 56.41412734985352
0, 6, 14, 63.20186614990234
0, 6, 15, 82.82807159423828
0, 6, 16, 111.9178009033203
0, 6, 17, 299.2968444824219
0, 6, 18, 900.7820434570312
0, 6, 19, 1373.9501953125
0, 6, 20, 1437.170776367188
0, 6, 21, 1527.114501953125
0, 6, 22, 1498.502197265625
0, 6, 23, 1531.112182617188
0, 6, 24, 1478.466918945312
0, 6, 25, 1530.289184570312
0, 6, 26, 1522.696533203125
0, 6, 27, 1520.28369140625
0, 6, 28, 1560.66162109375
0, 6, 29, 1574.846313476562
0, 6, 30, 1516.692138671875
0, 6, 31, 1490.080444335938
0, 6, 32, 1527.6162109375
0, 6, 33, 1490.607543945312
0, 6, 34, 1561.342651367188
0, 6, 35, 1506.414184570312
0, 6, 36, 1437.635986328125
0, 6, 37, 1542.31005859375
0, 6, 38, 1527.328857421875
0, 6, 39, 1522.238647460938
0, 6, 40, 1456.366577148438
0, 6, 41, 1439.421508789062
0, 6, 42, 1511.84033203125
0, 6, 43, 1482.67578125
0, 6, 44, 1430.966918945312
0, 6, 45, 1545.171020507812
0, 6, 46, 1554.694702148438
0, 6, 47, 1489.567993164062
0, 6, 48, 1521.897338867188
0, 6, 49, 1510.867431640625
0, 6, 50, 1574.348022460938
0, 6, 51, 1498.41357421875
0, 6, 52, 1562.9462890625
0, 6, 53, 1470.165893554688
0, 6, 54, 1503.409545898438
0, 6, 55, 1577.199340820312
0, 6, 56, 1520.464233398438
0, 6, 57, 1504.441772460938
0, 6, 58, 1466.94482421875
0, 6, 59, 1520.079223632812
0, 6, 60, 1476.419677734375
0, 6, 61, 1567.779296875
0, 6, 62, 1544.99560546875
0, 6, 63, 1499.5439453125
0, 6, 64, 1412.124633789062
0, 6, 65, 1489.123168945312
0, 6, 66, 1512.505493164062
0, 6, 67, 1508.238403320312
0, 6, 68, 1543.56787109375
0, 6, 69, 1487.105224609375
0, 6, 70, 1528.487548828125
0, 6, 71, 1470.364624023438
0, 6, 72, 1596.671875
0, 6, 73, 1493.599365234375
0, 6, 74, 1552.55712890625
0, 6, 75, 1534.635864257812
0, 6, 76, 1567.498779296875
0, 6, 77, 1507.644409179688
0, 6, 78, 1443.03076171875
0, 6, 79, 1554.399291992188
0, 6, 80, 1480.874877929688
0, 6, 81, 1487.500244140625
0, 6, 82, 1501.679809570312
0, 6, 83, 1526.945556640625
0, 6, 84, 1524.692504882812
0, 6, 85, 1534.887451171875
0, 6, 86, 1542.723022460938
0, 6, 87, 1571.842163085938
0, 6, 88, 1478.289916992188
0, 6, 89, 1561.650024414062
0, 6, 90, 1487.122680664062
0, 6, 91, 1539.65380859375
0, 6, 92, 1492.370483398438
0, 6, 93, 1499.059204101562
0, 6, 94, 1471.005004882812
0, 6, 95, 1509.55615234375
0, 6, 96, 1525.393676757812
0, 6, 97, 1503.929443359375
0, 6, 98, 1491.923583984375
0, 6, 99, 1479.987915039062
0, 6, 100, 1523.468139648438
0, 6, 101, 1517.674438476562
0, 6, 102, 1539.597290039062
0, 6, 103, 1500.497680664062
0, 6, 104, 1464.488891601562
0, 6, 105, 1485.241455078125
0, 6, 106, 1496.449462890625
0, 6, 107, 1500.934692382812
0, 6, 108, 1408.460693359375
0, 6, 109, 924.0662231445312
0, 6, 110, 288.4230041503906
0, 6, 111, 94.77394104003906
0, 6, 112, 80.30736541748047
0, 6, 113, 63.43719482421875
0, 6, 114, 56.73942565917969
0, 6, 115, 44.21414947509766
0, 6, 116, 41.88264846801758
0, 6, 117, 35.28632736206055
0, 6, 118, 44.79536437988281
0, 6, 119, 34.00360870361328
0, 6, 120, 36.63904190063477
0, 6, 121, 30.18793296813965
0, 6, 122, 32.28686904907227
0, 6, 123, 29.41122055053711
0, 6, 124, 24.54981422424316
0, 6, 125, 28.50239181518555
0, 6, 126, 22.37966537475586
0, 6, 127, 23.72840309143066
0, 7, 0, 20.17106246948242
0, 7, 1, 27.69954872131348
0, 7, 2, 23.91409683227539
0, 7, 3, 22.18201065063477
0, 7, 4, 24.46404266357422
0, 7, 5, 38.15436935424805
0, 7, 6, 32.288330078125
0, 7, 7, 34.18049621582031
0, 7, 8, 31.38064193725586
0, 7, 9, 37.32323837280273
0, 7, 10, 45.43190383911133
0, 7, 11, 46.18043899536133
0, 7, 12, 48.74633407592773
0, 7, 13, 50.17283248901367
0, 7, 14, 60.29708862304688
0, 7, 15, 82.77704620361328
0, 7, 16, 131.3717346191406
0, 7, 17, 458.9934387207031
0, 7, 18, 1099.372680664062
0, 7, 19, 1499.9658203125
0, 7, 20, 1488.23681640625
0, 7, 21, 1363.404541015625
0, 7, 22, 1489.601806640625
0, 7, 23, 1454.310302734375
0, 7, 24, 1505.877075195312
0, 7, 25, 1594.640380859375
0, 7, 26, 1514.78662109375
0, 7, 27, 1507.627563476562
0, 7, 28, 1544.892944335938
0, 7, 29, 1579.128540039062
0, 7, 30, 1554.421630859375
0, 7, 31, 1440.966918945312
0, 7, 32, 1546.281982421875
0, 7, 33, 1496.849243164062
0, 7, 34, 1478.24072265625
0, 7, 35, 1520.90869140625
0, 7, 36, 1475.116333007812
0, 7, 37, 1599.257202148438
0, 7, 38, 1506.756469726562
0, 7, 39, 1494.822387695312
0, 7, 40, 1540.648803710938
0, 7, 41, 1465.796264648438
0, 7, 42, 1498.714965820312
0, 7, 43, 1441.4189453125
0, 7, 44, 1485.951293945312
0, 7, 45, 1470.995239257812
0, 7, 46, 1510.961303710938
0, 7, 47, 1571.896728515625
0, 7, 48, 1523.89306640625
0, 7, 49, 1536.834228515625
0, 7, 50, 1515.450439453125
0, 7, 51, 1495.21875
0, 7, 52, 1520.00341796875
0, 7, 53, 1492.960571289062
0, 7, 54, 1589.166625976562
0, 7, 55, 1471.47998046875
0, 7, 56, 1549.647583007812
0, 7, 57, 1512.255859375
0, 7, 58, 1549.144653320312
0, 7, 59, 1543.045654296875
0, 7, 60, 1552.651489257812
0, 7, 61, 1490.385620117188
0, 7, 62, 1435.328979492188
0, 7, 63, 1512.565307617188
0, 7, 64, 1544.956665039062
0, 7, 65, 1532.928466796875
0, 7, 66, 1537.673828125
0, 7, 67, 1580.920532226562
0, 7, 68, 1530.28271484375
0, 7, 69, 1519.778686523438
0, 7, 70, 1502.042114257812
0, 7, 71, 1521.25537109375
0, 7, 72, 1525.556030273438
0, 7, 73, 1520.937744140625
0, 7, 74, 1581.71923828125
0, 7, 75, 1540.067626953125
0, 7, 76, 1559.299072265625
0, 7, 77, 1510.397216796875
0, 7, 78, 1507.173217773438
0, 7, 79, 1429.359375
0, 7, 80, 1488.044921875
0, 7, 81, 1494.010375976562
0, 7, 82, 1527.773559570312
0, 7, 83, 1545.69091796875
0, 7, 84, 1584.555541992188
0, 7, 85, 1476.343505859375
0, 7, 86, 1501.699096679688
0, 7, 87, 1511.692993164062
0, 7, 88, 1501.5029296875
0, 7, 89, 1554.3994140625
0, 7, 90, 1523.089965820312
0, 7, 91, 1562.96142578125
0, 7, 92, 1525.33154296875
0, 7, 93, 1553.443725585938
0, 7, 94, 1534.565673828125
0, 7, 95, 1501.591064453125
0, 7, 96, 1504.880249023438
0, 7, 97, 1432.926391601562
0, 7, 98, 1480.826416015625
0, 7, 99, 1528.747680664062
0, 7, 100, 1421.678466796875
0, 7, 101, 1463.595825195312
0, 7, 102, 1445.831909179688
0, 7, 103, 1428.811401367188
0, 7, 104, 1491.026977539062
0, 7, 105, 1523.704833984375
0, 7, 106, 1565.967895507812
0, 7, 107, 1486.766845703125
0, 7, 108, 1411.734741210938
0, 7, 109, 1143.19287109375
0, 7, 110, 471.6723022460938
0, 7, 111, 125.9155197143555
0, 7, 112, 83.18009185791016
0, 7, 113, 67.82957458496094
0, 7, 114, 54.61030960083008
0, 7, 115, 51.45544815063477
0, 7, 116, 49.61916351318359
0, 7, 117, 43.72262954711914
0, 7, 118, 37.42658996582031
0, 7, 119, 34.9296989440918
0, 7, 120, 21.86117362976074
0, 7, 121, 26.46735572814941
0, 7, 122, 32.0883674621582
0, 7, 123, 35.48369598388672
0, 7, 124, 33.35849761962891
0, 7, 125, 22.65727424621582
0, 7, 126, 27.75840187072754
0, 7, 127, 21.28475952148438
0, 8, 0, 22.8338623046875
0, 8, 1, 24.87539863586426
0, 8, 2, 24.94592094421387
0, 8, 3, 24.17889976501465
0, 8, 4, 29.03910446166992
0, 8, 5, 34.91947555541992
0, 8, 6, 32.44954681396484
0, 8, 7, 24.05002212524414
0, 8, 8, 32.9730224609375
0, 8, 9, 42.34066009521484
0, 8, 10, 39.11575317382812
0, 8, 11, 48.91977691650391
0, 8, 12, 49.47113418579102
0, 8, 13, 68.0526123046875
0, 8, 14, 71.98523712158203
0, 8, 15, 86.51621246337891
0, 8, 16, 166.3638763427734
0, 8, 17, 674.0017700195312
0, 8, 18, 1274.8544921875
0, 8, 19, 1448.81689453125
0, 8, 20, 1423.574584960938
0, 8, 21, 1405.699584960938
0, 8, 22, 1486.236083984375
0, 8, 23, 1476.634521484375
0, 8, 24, 1433.027099609375
0, 8, 25, 1456.233764648438
0, 8, 26, 1518.62890625
0, 8, 27, 1522.338989257812
0, 8, 28, 1475.090209960938
0, 8, 29, 1503.38720703125
0, 8, 30, 1489.580322265625
0, 8, 31, 1540.5068359375
0, 8, 32, 1507.989990234375
0, 8, 33, 1483.317749023438
0, 8, 34, 1532.713134765625
0, 8, 35, 1439.7939453125
0, 8, 36, 1496.0341796875
0, 8, 37, 1558.23095703125
0, 8, 38, 1556.008178710938
0, 8, 39, 1497.450805664062
0, 8, 40, 1532.110717773438
0, 8, 41, 1487.976806640625
0, 8, 42, 1536.941284179688
0, 8, 43, 1432.202026367188
0, 8, 44, 1537.066040039062
0, 8, 45, 1512.80859375
0, 8, 46, 1601.89794921875
0, 8, 47, 1585.41650390625
