# TOPAS Version: 3.1.p3
# Parameter File: batch_inserts_196.txt
# Results for scorer Readout_Adipose
# Scored in component: MyBox
# X in 1 bin  of 0.75 cm
# Y in 512 bins of 0.0783984 cm
# Z in 128 bins of 0.078125 cm
# EnergyDeposit ( MeV ) : Sum   
0, 0, 0, 21.10062408447266
0, 0, 1, 18.33503913879395
0, 0, 2, 27.7679271697998
0, 0, 3, 24.79580688476562
0, 0, 4, 20.74866104125977
0, 0, 5, 25.17654800415039
0, 0, 6, 23.7635669708252
0, 0, 7, 35.64120483398438
0, 0, 8, 22.67287826538086
0, 0, 9, 18.80911636352539
0, 0, 10, 24.57470893859863
0, 0, 11, 23.79279708862305
0, 0, 12, 36.94672393798828
0, 0, 13, 28.35452651977539
0, 0, 14, 38.42187881469727
0, 0, 15, 49.55123138427734
0, 0, 16, 43.30320358276367
0, 0, 17, 44.73426055908203
0, 0, 18, 76.509521484375
0, 0, 19, 193.5301361083984
0, 0, 20, 704.5577392578125
0, 0, 21, 1190.220947265625
0, 0, 22, 1244.959716796875
0, 0, 23, 1283.590454101562
0, 0, 24, 1279.75048828125
0, 0, 25, 1357.901245117188
0, 0, 26, 1268.853759765625
0, 0, 27, 1281.7177734375
0, 0, 28, 1317.822875976562
0, 0, 29, 1272.65478515625
0, 0, 30, 1258.032470703125
0, 0, 31, 1280.971069335938
0, 0, 32, 1263.183959960938
0, 0, 33, 1243.509033203125
0, 0, 34, 1321.814208984375
0, 0, 35, 1304.769653320312
0, 0, 36, 1248.574584960938
0, 0, 37, 1282.195190429688
0, 0, 38, 1248.590209960938
0, 0, 39, 1246.437744140625
0, 0, 40, 1223.893310546875
0, 0, 41, 1270.646118164062
0, 0, 42, 1250.333618164062
0, 0, 43, 1271.7880859375
0, 0, 44, 1227.990478515625
0, 0, 45, 1290.936401367188
0, 0, 46, 1258.048095703125
0, 0, 47, 1241.782836914062
0, 0, 48, 1277.427368164062
0, 0, 49, 1289.327270507812
0, 0, 50, 1308.40283203125
0, 0, 51, 1260.46630859375
0, 0, 52, 1360.95751953125
0, 0, 53, 1325.890747070312
0, 0, 54, 1294.474365234375
0, 0, 55, 1229.785766601562
0, 0, 56, 1318.625122070312
0, 0, 57, 1292.186157226562
0, 0, 58, 1254.462158203125
0, 0, 59, 1333.165893554688
0, 0, 60, 1333.101684570312
0, 0, 61, 1258.673950195312
0, 0, 62, 1242.52392578125
0, 0, 63, 1276.943481445312
0, 0, 64, 1328.975952148438
0, 0, 65, 1286.027954101562
0, 0, 66, 1317.743774414062
0, 0, 67, 1219.287719726562
0, 0, 68, 1307.817749023438
0, 0, 69, 1325.330444335938
0, 0, 70, 1344.64794921875
0, 0, 71, 1288.648315429688
0, 0, 72, 1315.586547851562
0, 0, 73, 1241.756958007812
0, 0, 74, 1288.435424804688
0, 0, 75, 1301.2724609375
0, 0, 76, 1257.129272460938
0, 0, 77, 1284.750366210938
0, 0, 78, 1316.396362304688
0, 0, 79, 1323.783935546875
0, 0, 80, 1263.982543945312
0, 0, 81, 1325.634765625
0, 0, 82, 1285.698120117188
0, 0, 83, 1294.382080078125
0, 0, 84, 1326.86572265625
0, 0, 85, 1235.081420898438
0, 0, 86, 1266.755493164062
0, 0, 87, 1249.256591796875
0, 0, 88, 1253.967651367188
0, 0, 89, 1335.57373046875
0, 0, 90, 1275.018920898438
0, 0, 91, 1357.929809570312
0, 0, 92, 1299.63330078125
0, 0, 93, 1269.744506835938
0, 0, 94, 1245.396362304688
0, 0, 95, 1324.29052734375
0, 0, 96, 1283.553955078125
0, 0, 97, 1328.585693359375
0, 0, 98, 1263.024169921875
0, 0, 99, 1249.699584960938
0, 0, 100, 1285.73193359375
0, 0, 101, 1314.953491210938
0, 0, 102, 1232.782348632812
0, 0, 103, 1324.006713867188
0, 0, 104, 1263.595092773438
0, 0, 105, 1270.737548828125
0, 0, 106, 1205.80126953125
0, 0, 107, 783.0823364257812
0, 0, 108, 195.5072021484375
0, 0, 109, 72.90186309814453
0, 0, 110, 62.67529678344727
0, 0, 111, 38.9968147277832
0, 0, 112, 34.43072509765625
0, 0, 113, 32.51819229125977
0, 0, 114, 34.22438812255859
0, 0, 115, 34.16344451904297
0, 0, 116, 29.35853576660156
0, 0, 117, 28.31894111633301
0, 0, 118, 27.8297061920166
0, 0, 119, 17.64073371887207
0, 0, 120, 26.88813209533691
0, 0, 121, 28.44650650024414
0, 0, 122, 20.01037216186523
0, 0, 123, 19.1029109954834
0, 0, 124, 17.29113006591797
0, 0, 125, 19.52205276489258
0, 0, 126, 22.42391204833984
0, 0, 127, 14.70843696594238
0, 1, 0, 25.69835662841797
0, 1, 1, 20.5693416595459
0, 1, 2, 27.63871383666992
0, 1, 3, 22.56966781616211
0, 1, 4, 22.62621116638184
0, 1, 5, 34.81349563598633
0, 1, 6, 26.05282020568848
0, 1, 7, 27.18402671813965
0, 1, 8, 38.82242965698242
0, 1, 9, 33.10290908813477
0, 1, 10, 30.60486793518066
0, 1, 11, 44.20714569091797
0, 1, 12, 41.4939079284668
0, 1, 13, 42.54561614990234
0, 1, 14, 37.81500625610352
0, 1, 15, 46.96485137939453
0, 1, 16, 57.63330078125
0, 1, 17, 63.98610305786133
0, 1, 18, 95.82801818847656
0, 1, 19, 396.1747131347656
0, 1, 20, 1045.634521484375
0, 1, 21, 1370.1923828125
0, 1, 22, 1483.890014648438
0, 1, 23, 1461.453369140625
0, 1, 24, 1451.263305664062
0, 1, 25, 1421.404174804688
0, 1, 26, 1478.721801757812
0, 1, 27, 1460.91845703125
0, 1, 28, 1488.696044921875
0, 1, 29, 1479.531860351562
0, 1, 30, 1507.114135742188
0, 1, 31, 1486.25439453125
0, 1, 32, 1413.046264648438
0, 1, 33, 1498.976684570312
0, 1, 34, 1498.447998046875
0, 1, 35, 1464.025634765625
0, 1, 36, 1490.089721679688
0, 1, 37, 1410.0791015625
0, 1, 38, 1392.296020507812
0, 1, 39, 1521.158203125
0, 1, 40, 1464.406372070312
0, 1, 41, 1483.553588867188
0, 1, 42, 1494.429809570312
0, 1, 43, 1504.511474609375
0, 1, 44, 1449.264282226562
0, 1, 45, 1487.3466796875
0, 1, 46, 1430.241455078125
0, 1, 47, 1429.261108398438
0, 1, 48, 1427.079223632812
0, 1, 49, 1484.846313476562
0, 1, 50, 1442.398071289062
0, 1, 51, 1476.702270507812
0, 1, 52, 1476.742065429688
0, 1, 53, 1471.90966796875
0, 1, 54, 1506.74560546875
0, 1, 55, 1496.28759765625
0, 1, 56, 1472.241088867188
0, 1, 57, 1456.995483398438
0, 1, 58, 1428.153076171875
0, 1, 59, 1481.57373046875
0, 1, 60, 1464.197631835938
0, 1, 61, 1452.961059570312
0, 1, 62, 1451.411254882812
0, 1, 63, 1418.675903320312
0, 1, 64, 1473.974365234375
0, 1, 65, 1422.699951171875
0, 1, 66, 1436.601196289062
0, 1, 67, 1456.025146484375
0, 1, 68, 1391.051635742188
0, 1, 69, 1461.742065429688
0, 1, 70, 1432.7060546875
0, 1, 71, 1496.873657226562
0, 1, 72, 1434.256225585938
0, 1, 73, 1487.021728515625
0, 1, 74, 1474.394409179688
0, 1, 75, 1476.701782226562
0, 1, 76, 1454.472900390625
0, 1, 77, 1466.909057617188
0, 1, 78, 1453.482788085938
0, 1, 79, 1502.731689453125
0, 1, 80, 1452.953491210938
0, 1, 81, 1425.68505859375
0, 1, 82, 1471.577880859375
0, 1, 83, 1460.232788085938
0, 1, 84, 1532.686279296875
0, 1, 85, 1443.189331054688
0, 1, 86, 1402.20849609375
0, 1, 87, 1418.651123046875
0, 1, 88, 1474.504150390625
0, 1, 89, 1474.776123046875
0, 1, 90, 1426.617919921875
0, 1, 91, 1463.689086914062
0, 1, 92, 1413.9033203125
0, 1, 93, 1462.551879882812
0, 1, 94, 1467.14892578125
0, 1, 95, 1419.730224609375
0, 1, 96, 1497.507202148438
0, 1, 97, 1519.715087890625
0, 1, 98, 1473.366455078125
0, 1, 99, 1419.287841796875
0, 1, 100, 1444.550170898438
0, 1, 101, 1413.773803710938
0, 1, 102, 1440.149536132812
0, 1, 103, 1412.44921875
0, 1, 104, 1405.654663085938
0, 1, 105, 1462.995361328125
0, 1, 106, 1365.580932617188
0, 1, 107, 1023.071594238281
0, 1, 108, 403.7099914550781
0, 1, 109, 86.57382202148438
0, 1, 110, 61.94387435913086
0, 1, 111, 54.9685173034668
0, 1, 112, 51.62939071655273
0, 1, 113, 39.23162078857422
0, 1, 114, 38.17694854736328
0, 1, 115, 37.92039489746094
0, 1, 116, 30.37684440612793
0, 1, 117, 33.89777374267578
0, 1, 118, 37.15826416015625
0, 1, 119, 29.39552307128906
0, 1, 120, 32.23219299316406
0, 1, 121, 22.5366153717041
0, 1, 122, 17.46512031555176
0, 1, 123, 27.23581504821777
0, 1, 124, 30.53445434570312
0, 1, 125, 18.31023597717285
0, 1, 126, 23.66610336303711
0, 1, 127, 23.06643676757812
0, 2, 0, 24.30055618286133
0, 2, 1, 19.51619338989258
0, 2, 2, 20.89876556396484
0, 2, 3, 20.66192626953125
0, 2, 4, 29.84670448303223
0, 2, 5, 25.46029663085938
0, 2, 6, 17.29044723510742
0, 2, 7, 23.62549018859863
0, 2, 8, 25.52976417541504
0, 2, 9, 29.30099868774414
0, 2, 10, 30.093017578125
0, 2, 11, 34.78069305419922
0, 2, 12, 43.77957153320312
0, 2, 13, 48.99654388427734
0, 2, 14, 50.34164047241211
0, 2, 15, 49.54143905639648
0, 2, 16, 63.06740188598633
0, 2, 17, 79.91225433349609
0, 2, 18, 142.6617584228516
0, 2, 19, 603.428955078125
0, 2, 20, 1288.08203125
0, 2, 21, 1437.208374023438
0, 2, 22, 1467.709838867188
0, 2, 23, 1406.37841796875
0, 2, 24, 1443.427368164062
0, 2, 25, 1523.154418945312
0, 2, 26, 1554.8583984375
0, 2, 27, 1452.03369140625
0, 2, 28, 1459.78125
0, 2, 29, 1463.007080078125
0, 2, 30, 1462.06787109375
0, 2, 31, 1534.645874023438
0, 2, 32, 1506.343017578125
0, 2, 33, 1444.289916992188
0, 2, 34, 1472.183349609375
0, 2, 35, 1473.606201171875
0, 2, 36, 1523.985595703125
0, 2, 37, 1540.675415039062
0, 2, 38, 1507.411499023438
0, 2, 39, 1465.434814453125
0, 2, 40, 1504.445922851562
0, 2, 41, 1517.600219726562
0, 2, 42, 1505.233764648438
0, 2, 43, 1546.321166992188
0, 2, 44, 1457.74658203125
0, 2, 45, 1479.575805664062
0, 2, 46, 1427.364379882812
0, 2, 47, 1444.867919921875
0, 2, 48, 1397.025390625
0, 2, 49, 1459.995483398438
0, 2, 50, 1442.424438476562
0, 2, 51, 1442.840209960938
0, 2, 52, 1491.172729492188
0, 2, 53, 1521.546142578125
0, 2, 54, 1526.947387695312
0, 2, 55, 1487.810302734375
0, 2, 56, 1461.151245117188
0, 2, 57, 1410.79150390625
0, 2, 58, 1458.382934570312
0, 2, 59, 1452.888793945312
0, 2, 60, 1472.055419921875
0, 2, 61, 1443.871704101562
0, 2, 62, 1470.043090820312
0, 2, 63, 1506.503540039062
0, 2, 64, 1456.753173828125
0, 2, 65, 1424.865356445312
0, 2, 66, 1488.325561523438
0, 2, 67, 1505.3349609375
0, 2, 68, 1550.39111328125
0, 2, 69, 1536.5908203125
0, 2, 70, 1505.518676757812
0, 2, 71, 1469.204956054688
0, 2, 72, 1518.1904296875
0, 2, 73, 1517.573486328125
0, 2, 74, 1486.356567382812
0, 2, 75, 1505.695068359375
0, 2, 76, 1454.008666992188
0, 2, 77, 1504.734375
0, 2, 78, 1434.467407226562
0, 2, 79, 1542.456298828125
0, 2, 80, 1477.111938476562
0, 2, 81, 1461.21728515625
0, 2, 82, 1558.305297851562
0, 2, 83, 1517.178100585938
0, 2, 84, 1496.766723632812
0, 2, 85, 1520.261474609375
0, 2, 86, 1541.766967773438
0, 2, 87, 1487.469360351562
0, 2, 88, 1537.84912109375
0, 2, 89, 1466.606811523438
0, 2, 90, 1431.748901367188
0, 2, 91, 1402.957763671875
0, 2, 92, 1482.401977539062
0, 2, 93, 1496.7705078125
0, 2, 94, 1452.090698242188
0, 2, 95, 1540.85693359375
0, 2, 96, 1517.051391601562
0, 2, 97, 1455.80908203125
0, 2, 98, 1462.349487304688
0, 2, 99, 1409.333374023438
0, 2, 100, 1471.325439453125
0, 2, 101, 1482.77490234375
0, 2, 102, 1461.254760742188
0, 2, 103, 1394.627807617188
0, 2, 104, 1408.529418945312
0, 2, 105, 1395.694580078125
0, 2, 106, 1456.22314453125
0, 2, 107, 1272.823852539062
0, 2, 108, 624.1862182617188
0, 2, 109, 171.1753997802734
0, 2, 110, 66.88991546630859
0, 2, 111, 59.87521743774414
0, 2, 112, 43.75411224365234
0, 2, 113, 45.84450149536133
0, 2, 114, 41.02432250976562
0, 2, 115, 39.24951553344727
0, 2, 116, 34.85335540771484
0, 2, 117, 36.78039169311523
0, 2, 118, 29.11653137207031
0, 2, 119, 32.08283233642578
0, 2, 120, 29.85235404968262
0, 2, 121, 18.87274169921875
0, 2, 122, 25.33539390563965
0, 2, 123, 20.35897827148438
0, 2, 124, 28.77545166015625
0, 2, 125, 27.41615104675293
0, 2, 126, 14.62464904785156
0, 2, 127, 26.38984107971191
0, 3, 0, 18.39162063598633
0, 3, 1, 20.20962142944336
0, 3, 2, 24.77626419067383
0, 3, 3, 22.94384956359863
0, 3, 4, 16.41061592102051
0, 3, 5, 22.74627685546875
0, 3, 6, 32.0937385559082
0, 3, 7, 30.59267044067383
0, 3, 8, 28.06258964538574
0, 3, 9, 31.59735870361328
0, 3, 10, 39.71913146972656
0, 3, 11, 39.58537292480469
0, 3, 12, 42.03644180297852
0, 3, 13, 50.38435745239258
0, 3, 14, 59.80805587768555
0, 3, 15, 53.14959716796875
0, 3, 16, 68.94474792480469
0, 3, 17, 86.96981811523438
0, 3, 18, 238.5348205566406
0, 3, 19, 878.8003540039062
0, 3, 20, 1387.081176757812
0, 3, 21, 1511.123901367188
0, 3, 22, 1467.146118164062
0, 3, 23, 1450.836669921875
0, 3, 24, 1440.53369140625
0, 3, 25, 1462.555297851562
0, 3, 26, 1498.74755859375
0, 3, 27, 1469.263305664062
0, 3, 28, 1487.847900390625
0, 3, 29, 1540.718627929688
0, 3, 30, 1568.790771484375
0, 3, 31, 1509.302490234375
0, 3, 32, 1547.248657226562
0, 3, 33, 1542.711181640625
0, 3, 34, 1490.805541992188
0, 3, 35, 1458.9677734375
0, 3, 36, 1448.982666015625
0, 3, 37, 1513.9697265625
0, 3, 38, 1515.26513671875
0, 3, 39, 1440.06298828125
0, 3, 40, 1437.861572265625
0, 3, 41, 1566.197998046875
0, 3, 42, 1461.279418945312
0, 3, 43, 1454.47021484375
0, 3, 44, 1449.054443359375
0, 3, 45, 1507.140991210938
0, 3, 46, 1505.174438476562
0, 3, 47, 1444.506958007812
0, 3, 48, 1508.264282226562
0, 3, 49, 1452.070922851562
0, 3, 50, 1489.601318359375
0, 3, 51, 1534.391357421875
0, 3, 52, 1535.078002929688
0, 3, 53, 1463.121948242188
0, 3, 54, 1533.7978515625
0, 3, 55, 1505.076904296875
0, 3, 56, 1435.711303710938
0, 3, 57, 1502.982177734375
0, 3, 58, 1514.618530273438
0, 3, 59, 1510.599487304688
0, 3, 60, 1533.28564453125
0, 3, 61, 1488.597900390625
0, 3, 62, 1495.286254882812
0, 3, 63, 1492.438110351562
0, 3, 64, 1499.236938476562
0, 3, 65, 1514.533447265625
0, 3, 66, 1553.355712890625
0, 3, 67, 1548.357421875
0, 3, 68, 1448.932739257812
0, 3, 69, 1467.716674804688
0, 3, 70, 1386.13525390625
0, 3, 71, 1462.079711914062
0, 3, 72, 1542.750732421875
0, 3, 73, 1502.20703125
0, 3, 74, 1467.392456054688
0, 3, 75, 1462.539306640625
0, 3, 76, 1573.737670898438
0, 3, 77, 1542.211547851562
0, 3, 78, 1429.272827148438
0, 3, 79, 1492.3828125
0, 3, 80, 1460.89306640625
0, 3, 81, 1474.723999023438
0, 3, 82, 1554.475219726562
0, 3, 83, 1513.79150390625
0, 3, 84, 1561.602783203125
0, 3, 85, 1474.802490234375
0, 3, 86, 1522.626098632812
0, 3, 87, 1539.44580078125
0, 3, 88, 1463.533813476562
0, 3, 89, 1446.933959960938
0, 3, 90, 1452.399536132812
0, 3, 91, 1419.671875
0, 3, 92, 1513.541381835938
0, 3, 93, 1501.431762695312
0, 3, 94, 1513.599365234375
0, 3, 95, 1541.257934570312
0, 3, 96, 1515.4765625
0, 3, 97, 1467.647338867188
0, 3, 98, 1430.673461914062
0, 3, 99, 1469.890747070312
0, 3, 100, 1469.385864257812
0, 3, 101, 1472.567749023438
0, 3, 102, 1519.969482421875
0, 3, 103, 1554.622436523438
0, 3, 104, 1495.269287109375
0, 3, 105, 1517.296630859375
0, 3, 106, 1477.382446289062
0, 3, 107, 1340.785766601562
0, 3, 108, 872.0239868164062
0, 3, 109, 260.1331176757812
0, 3, 110, 102.9160079956055
0, 3, 111, 64.22850036621094
0, 3, 112, 56.29955673217773
0, 3, 113, 49.77550506591797
0, 3, 114, 46.48907470703125
0, 3, 115, 50.86862564086914
0, 3, 116, 39.7204704284668
0, 3, 117, 40.32304382324219
0, 3, 118, 32.62162399291992
0, 3, 119, 29.00683403015137
0, 3, 120, 29.74637794494629
0, 3, 121, 20.71756362915039
0, 3, 122, 23.4583625793457
0, 3, 123, 21.49942779541016
0, 3, 124, 20.2796802520752
0, 3, 125, 29.94998741149902
0, 3, 126, 25.99321556091309
0, 3, 127, 15.85977077484131
0, 4, 0, 21.55730247497559
0, 4, 1, 19.27444648742676
0, 4, 2, 22.03362655639648
0, 4, 3, 18.43166732788086
0, 4, 4, 26.31846618652344
0, 4, 5, 27.30037117004395
0, 4, 6, 31.21907424926758
0, 4, 7, 32.79164886474609
0, 4, 8, 30.03631210327148
0, 4, 9, 34.9224853515625
0, 4, 10, 35.96526718139648
0, 4, 11, 38.83401870727539
0, 4, 12, 51.59043121337891
0, 4, 13, 53.26375961303711
0, 4, 14, 50.7789421081543
0, 4, 15, 58.93349456787109
0, 4, 16, 73.44805908203125
0, 4, 17, 114.7487716674805
0, 4, 18, 444.6009216308594
0, 4, 19, 1182.87890625
0, 4, 20, 1444.406616210938
0, 4, 21, 1421.369262695312
0, 4, 22, 1432.23828125
0, 4, 23, 1450.64501953125
0, 4, 24, 1474.094360351562
0, 4, 25, 1402.313598632812
0, 4, 26, 1537.391967773438
0, 4, 27, 1543.270629882812
0, 4, 28, 1506.167846679688
0, 4, 29, 1514.768920898438
0, 4, 30, 1530.48974609375
0, 4, 31, 1577.362182617188
0, 4, 32, 1517.724243164062
0, 4, 33, 1497.472290039062
0, 4, 34, 1467.171508789062
0, 4, 35, 1557.252319335938
0, 4, 36, 1508.800903320312
0, 4, 37, 1518.532592773438
0, 4, 38, 1531.549560546875
0, 4, 39, 1471.22021484375
0, 4, 40, 1514.651245117188
0, 4, 41, 1586.495849609375
0, 4, 42, 1565.708740234375
0, 4, 43, 1475.78271484375
0, 4, 44, 1497.848876953125
0, 4, 45, 1521.053466796875
0, 4, 46, 1465.530639648438
0, 4, 47, 1504.371215820312
0, 4, 48, 1529.49658203125
0, 4, 49, 1475.004028320312
0, 4, 50, 1520.111206054688
0, 4, 51, 1497.922607421875
0, 4, 52, 1495.101196289062
0, 4, 53, 1458.518188476562
0, 4, 54, 1443.040405273438
0, 4, 55, 1527.393310546875
0, 4, 56, 1453.010498046875
0, 4, 57, 1498.94775390625
0, 4, 58, 1460.685668945312
0, 4, 59, 1465.286376953125
0, 4, 60, 1525.046630859375
0, 4, 61, 1497.975219726562
0, 4, 62, 1500.958251953125
0, 4, 63, 1543.635986328125
0, 4, 64, 1593.0087890625
0, 4, 65, 1425.976440429688
0, 4, 66, 1510.919921875
0, 4, 67, 1520.737548828125
0, 4, 68, 1493.494018554688
0, 4, 69, 1467.1552734375
0, 4, 70, 1545.555297851562
0, 4, 71, 1514.8994140625
0, 4, 72, 1524.626342773438
0, 4, 73, 1493.713745117188
0, 4, 74, 1482.929321289062
0, 4, 75, 1537.340576171875
0, 4, 76, 1477.410400390625
0, 4, 77, 1498.644409179688
0, 4, 78, 1500.625732421875
0, 4, 79, 1485.15380859375
0, 4, 80, 1518.282104492188
0, 4, 81, 1527.748291015625
0, 4, 82, 1571.159301757812
0, 4, 83, 1502.889038085938
0, 4, 84, 1536.895385742188
0, 4, 85, 1559.670043945312
0, 4, 86, 1525.658203125
0, 4, 87, 1496.940063476562
0, 4, 88, 1511.799072265625
0, 4, 89, 1477.38330078125
0, 4, 90, 1545.71337890625
0, 4, 91, 1551.69140625
0, 4, 92, 1493.949340820312
0, 4, 93, 1517.782348632812
0, 4, 94, 1486.678588867188
0, 4, 95, 1509.253784179688
0, 4, 96, 1442.921142578125
0, 4, 97, 1408.812255859375
0, 4, 98, 1555.72705078125
0, 4, 99, 1509.857666015625
0, 4, 100, 1490.424926757812
0, 4, 101, 1450.680419921875
0, 4, 102, 1448.079467773438
0, 4, 103, 1513.5263671875
0, 4, 104, 1512.633178710938
0, 4, 105, 1554.550415039062
0, 4, 106, 1478.002197265625
0, 4, 107, 1453.457763671875
0, 4, 108, 1119.905517578125
0, 4, 109, 434.8243103027344
0, 4, 110, 99.18917083740234
0, 4, 111, 68.23940277099609
0, 4, 112, 59.09439468383789
0, 4, 113, 53.56999969482422
0, 4, 114, 52.83551406860352
0, 4, 115, 50.32892608642578
0, 4, 116, 33.87163925170898
0, 4, 117, 43.68886566162109
0, 4, 118, 40.89750671386719
0, 4, 119, 37.2841796875
0, 4, 120, 31.04366302490234
0, 4, 121, 30.67753028869629
0, 4, 122, 35.68740081787109
0, 4, 123, 34.5736083984375
0, 4, 124, 22.21233177185059
0, 4, 125, 32.44924545288086
0, 4, 126, 20.44291305541992
0, 4, 127, 20.55302429199219
0, 5, 0, 23.16133117675781
0, 5, 1, 27.04865074157715
0, 5, 2, 28.78341484069824
0, 5, 3, 21.85233306884766
0, 5, 4, 20.38021659851074
0, 5, 5, 35.06120300292969
0, 5, 6, 29.28542709350586
0, 5, 7, 32.5276985168457
0, 5, 8, 34.69304275512695
0, 5, 9, 33.02696990966797
0, 5, 10, 37.86046600341797
0, 5, 11, 33.51390075683594
0, 5, 12, 36.55839538574219
0, 5, 13, 44.63964462280273
0, 5, 14, 63.089599609375
0, 5, 15, 74.52418518066406
0, 5, 16, 79.80101013183594
0, 5, 17, 156.1658782958984
0, 5, 18, 674.9087524414062
0, 5, 19, 1344.568359375
0, 5, 20, 1528.10546875
0, 5, 21, 1491.320068359375
0, 5, 22, 1494.28564453125
0, 5, 23, 1527.607177734375
0, 5, 24, 1463.175048828125
0, 5, 25, 1429.023193359375
0, 5, 26, 1524.648071289062
0, 5, 27, 1537.43017578125
0, 5, 28, 1487.372314453125
0, 5, 29, 1519.934326171875
0, 5, 30, 1488.933349609375
0, 5, 31, 1504.1064453125
0, 5, 32, 1592.687133789062
0, 5, 33, 1501.51904296875
0, 5, 34, 1485.244750976562
0, 5, 35, 1513.823852539062
0, 5, 36, 1441.185913085938
0, 5, 37, 1534.791748046875
0, 5, 38, 1545.754272460938
0, 5, 39, 1550.535766601562
0, 5, 40, 1499.500732421875
0, 5, 41, 1479.271606445312
0, 5, 42, 1540.08349609375
0, 5, 43, 1525.423950195312
0, 5, 44, 1542.126342773438
0, 5, 45, 1509.109375
0, 5, 46, 1492.16552734375
0, 5, 47, 1482.119506835938
0, 5, 48, 1503.273803710938
0, 5, 49, 1522.911254882812
0, 5, 50, 1508.145385742188
0, 5, 51, 1514.2236328125
0, 5, 52, 1431.578247070312
0, 5, 53, 1523.131958007812
0, 5, 54, 1519.688842773438
0, 5, 55, 1525.306762695312
0, 5, 56, 1486.350219726562
0, 5, 57, 1537.240600585938
0, 5, 58, 1507.736572265625
0, 5, 59, 1488.275146484375
0, 5, 60, 1534.708862304688
0, 5, 61, 1446.013427734375
0, 5, 62, 1584.453247070312
0, 5, 63, 1430.411010742188
0, 5, 64, 1490.070434570312
0, 5, 65, 1465.669921875
0, 5, 66, 1528.578979492188
0, 5, 67, 1561.6201171875
0, 5, 68, 1466.645874023438
0, 5, 69, 1482.792846679688
0, 5, 70, 1489.390869140625
0, 5, 71, 1472.774536132812
0, 5, 72, 1536.3876953125
0, 5, 73, 1459.53662109375
0, 5, 74, 1492.839599609375
0, 5, 75, 1488.62841796875
0, 5, 76, 1476.291015625
0, 5, 77, 1517.939575195312
0, 5, 78, 1520.836059570312
0, 5, 79, 1510.444213867188
0, 5, 80, 1520.914916992188
0, 5, 81, 1595.926025390625
0, 5, 82, 1526.47412109375
0, 5, 83, 1486.650268554688
0, 5, 84, 1530.733642578125
0, 5, 85, 1518.292602539062
0, 5, 86, 1558.871704101562
0, 5, 87, 1475.439208984375
0, 5, 88, 1500.804565429688
0, 5, 89, 1478.01611328125
0, 5, 90, 1476.524780273438
0, 5, 91, 1550.4814453125
0, 5, 92, 1486.485717773438
0, 5, 93, 1560.196044921875
0, 5, 94, 1508.780029296875
0, 5, 95, 1560.235107421875
0, 5, 96, 1497.978515625
0, 5, 97, 1511.865966796875
0, 5, 98, 1512.467529296875
0, 5, 99, 1537.933715820312
0, 5, 100, 1434.369384765625
0, 5, 101, 1428.486206054688
0, 5, 102, 1514.943481445312
0, 5, 103, 1473.598754882812
0, 5, 104, 1460.542114257812
0, 5, 105, 1493.469970703125
0, 5, 106, 1461.34814453125
0, 5, 107, 1396.169921875
0, 5, 108, 1290.1328125
0, 5, 109, 722.0521850585938
0, 5, 110, 191.6425323486328
0, 5, 111, 88.68154907226562
0, 5, 112, 77.47806549072266
0, 5, 113, 66.90171051025391
0, 5, 114, 60.57162857055664
0, 5, 115, 53.50498580932617
0, 5, 116, 40.27738571166992
0, 5, 117, 34.23864364624023
0, 5, 118, 44.88484573364258
0, 5, 119, 27.50627326965332
0, 5, 120, 26.65211868286133
0, 5, 121, 25.80448532104492
0, 5, 122, 29.60143661499023
0, 5, 123, 28.59835815429688
0, 5, 124, 26.72707366943359
0, 5, 125, 26.95162391662598
0, 5, 126, 19.4855899810791
0, 5, 127, 22.97390937805176
0, 6, 0, 20.09798431396484
0, 6, 1, 31.82365798950195
0, 6, 2, 29.96148490905762
0, 6, 3, 26.38333702087402
0, 6, 4, 22.88349723815918
0, 6, 5, 34.05917739868164
0, 6, 6, 40.72358322143555
0, 6, 7, 32.48600387573242
0, 6, 8, 34.46198654174805
0, 6, 9, 35.26296234130859
0, 6, 10, 38.0613899230957
0, 6, 11, 34.28791046142578
0, 6, 12, 41.04547500610352
0, 6, 13, 58.5758056640625
0, 6, 14, 60.78162002563477
0, 6, 15, 81.12522888183594
0, 6, 16, 109.9494934082031
0, 6, 17, 296.4804992675781
0, 6, 18, 902.19482421875
0, 6, 19, 1378.205932617188
0, 6, 20, 1438.046264648438
0, 6, 21, 1531.771850585938
0, 6, 22, 1503.690307617188
0, 6, 23, 1529.818237304688
0, 6, 24, 1478.5810546875
0, 6, 25, 1527.134765625
0, 6, 26, 1519.265258789062
0, 6, 27, 1520.569213867188
0, 6, 28, 1546.145141601562
0, 6, 29, 1568.641967773438
0, 6, 30, 1521.460571289062
0, 6, 31, 1490.158203125
0, 6, 32, 1526.297485351562
0, 6, 33, 1495.228637695312
0, 6, 34, 1560.073608398438
0, 6, 35, 1499.351806640625
0, 6, 36, 1438.604858398438
0, 6, 37, 1545.610717773438
0, 6, 38, 1525.346069335938
0, 6, 39, 1526.0869140625
0, 6, 40, 1455.136474609375
0, 6, 41, 1434.96142578125
0, 6, 42, 1517.3330078125
0, 6, 43, 1484.14697265625
0, 6, 44, 1430.842041015625
0, 6, 45, 1540.986572265625
0, 6, 46, 1552.987670898438
0, 6, 47, 1493.859375
0, 6, 48, 1525.879028320312
0, 6, 49, 1510.653076171875
0, 6, 50, 1574.395751953125
0, 6, 51, 1503.576049804688
0, 6, 52, 1562.810668945312
0, 6, 53, 1474.6513671875
0, 6, 54, 1498.614379882812
0, 6, 55, 1577.051513671875
0, 6, 56, 1523.011840820312
0, 6, 57, 1506.094360351562
0, 6, 58, 1468.239013671875
0, 6, 59, 1521.662475585938
0, 6, 60, 1472.390258789062
0, 6, 61, 1569.771118164062
0, 6, 62, 1544.249877929688
0, 6, 63, 1495.754272460938
0, 6, 64, 1410.707153320312
0, 6, 65, 1489.466796875
0, 6, 66, 1507.897583007812
0, 6, 67, 1507.030639648438
0, 6, 68, 1550.390014648438
0, 6, 69, 1489.84521484375
0, 6, 70, 1524.973999023438
0, 6, 71, 1465.369750976562
0, 6, 72, 1599.85107421875
0, 6, 73, 1493.734252929688
0, 6, 74, 1555.987915039062
0, 6, 75, 1537.800659179688
0, 6, 76, 1562.965087890625
0, 6, 77, 1508.862548828125
0, 6, 78, 1448.431640625
0, 6, 79, 1560.853149414062
0, 6, 80, 1482.773803710938
0, 6, 81, 1486.769775390625
0, 6, 82, 1505.64404296875
0, 6, 83, 1524.736328125
0, 6, 84, 1524.416625976562
0, 6, 85, 1539.236328125
0, 6, 86, 1540.453491210938
0, 6, 87, 1569.973388671875
0, 6, 88, 1478.1044921875
0, 6, 89, 1560.534790039062
0, 6, 90, 1489.905517578125
0, 6, 91, 1539.424072265625
0, 6, 92, 1491.167358398438
0, 6, 93, 1504.386108398438
0, 6, 94, 1469.488403320312
0, 6, 95, 1514.799438476562
0, 6, 96, 1519.296875
0, 6, 97, 1506.341186523438
0, 6, 98, 1491.111450195312
0, 6, 99, 1483.285400390625
0, 6, 100, 1520.743286132812
0, 6, 101, 1515.232666015625
0, 6, 102, 1536.194946289062
0, 6, 103, 1502.020385742188
0, 6, 104, 1467.2626953125
0, 6, 105, 1486.31982421875
0, 6, 106, 1500.637817382812
0, 6, 107, 1504.507934570312
0, 6, 108, 1411.650390625
0, 6, 109, 927.2714233398438
0, 6, 110, 279.4297485351562
0, 6, 111, 95.98936462402344
0, 6, 112, 80.75063323974609
0, 6, 113, 57.87670135498047
0, 6, 114, 55.11800765991211
0, 6, 115, 43.54186248779297
0, 6, 116, 45.26539611816406
0, 6, 117, 39.27661895751953
0, 6, 118, 41.64176177978516
0, 6, 119, 37.87302780151367
0, 6, 120, 34.45169830322266
0, 6, 121, 28.54474639892578
0, 6, 122, 33.07967376708984
0, 6, 123, 25.02750587463379
0, 6, 124, 26.85088729858398
0, 6, 125, 27.72669219970703
0, 6, 126, 18.81021499633789
0, 6, 127, 23.37206268310547
0, 7, 0, 18.09128570556641
0, 7, 1, 26.41672897338867
0, 7, 2, 25.48074722290039
0, 7, 3, 20.61601066589355
0, 7, 4, 25.51631164550781
0, 7, 5, 40.47263336181641
0, 7, 6, 30.3051815032959
0, 7, 7, 33.15428161621094
0, 7, 8, 33.52188873291016
0, 7, 9, 36.58121871948242
0, 7, 10, 49.50506591796875
0, 7, 11, 51.26030731201172
0, 7, 12, 47.17849349975586
0, 7, 13, 53.72277450561523
0, 7, 14, 62.32524108886719
0, 7, 15, 72.86628723144531
0, 7, 16, 129.3754272460938
0, 7, 17, 458.5505065917969
0, 7, 18, 1101.030517578125
0, 7, 19, 1503.832885742188
0, 7, 20, 1489.094848632812
0, 7, 21, 1364.968994140625
0, 7, 22, 1485.178344726562
0, 7, 23, 1457.456787109375
0, 7, 24, 1511.584350585938
0, 7, 25, 1598.642211914062
0, 7, 26, 1518.869018554688
0, 7, 27, 1515.258544921875
0, 7, 28, 1546.600830078125
0, 7, 29, 1578.858276367188
0, 7, 30, 1551.352783203125
0, 7, 31, 1441.155029296875
0, 7, 32, 1546.528442382812
0, 7, 33, 1496.052734375
0, 7, 34, 1477.738647460938
0, 7, 35, 1525.153442382812
0, 7, 36, 1473.09814453125
0, 7, 37, 1596.304321289062
0, 7, 38, 1507.2685546875
0, 7, 39, 1490.210327148438
0, 7, 40, 1543.753173828125
0, 7, 41, 1472.601806640625
0, 7, 42, 1492.562866210938
0, 7, 43, 1446.923461914062
0, 7, 44, 1489.907348632812
0, 7, 45, 1469.180786132812
0, 7, 46, 1514.444213867188
0, 7, 47, 1571.692016601562
0, 7, 48, 1523.511474609375
0, 7, 49, 1542.347900390625
0, 7, 50, 1515.537841796875
0, 7, 51, 1497.626098632812
0, 7, 52, 1517.880126953125
0, 7, 53, 1490.333984375
0, 7, 54, 1586.012084960938
0, 7, 55, 1469.298583984375
0, 7, 56, 1553.010986328125
0, 7, 57, 1517.236083984375
0, 7, 58, 1547.141235351562
0, 7, 59, 1542.68994140625
0, 7, 60, 1552.231811523438
0, 7, 61, 1489.897094726562
0, 7, 62, 1436.34375
0, 7, 63, 1513.648193359375
0, 7, 64, 1549.111572265625
0, 7, 65, 1528.660888671875
0, 7, 66, 1538.622802734375
0, 7, 67, 1577.260009765625
0, 7, 68, 1533.325927734375
0, 7, 69, 1519.183349609375
0, 7, 70, 1493.025512695312
0, 7, 71, 1524.24462890625
0, 7, 72, 1523.833374023438
0, 7, 73, 1516.706420898438
0, 7, 74, 1578.792358398438
0, 7, 75, 1545.306518554688
0, 7, 76, 1559.723754882812
0, 7, 77, 1513.064086914062
0, 7, 78, 1505.137329101562
0, 7, 79, 1422.916137695312
0, 7, 80, 1486.519897460938
0, 7, 81, 1491.120727539062
0, 7, 82, 1530.716552734375
0, 7, 83, 1543.216918945312
0, 7, 84, 1590.155639648438
0, 7, 85, 1482.101196289062
0, 7, 86, 1499.771728515625
0, 7, 87, 1510.341796875
0, 7, 88, 1508.137329101562
0, 7, 89, 1553.935668945312
0, 7, 90, 1523.53857421875
0, 7, 91, 1564.894287109375
0, 7, 92, 1527.775634765625
0, 7, 93, 1547.574829101562
0, 7, 94, 1537.919799804688
0, 7, 95, 1507.396362304688
0, 7, 96, 1505.938598632812
0, 7, 97, 1430.898193359375
0, 7, 98, 1484.017822265625
0, 7, 99, 1523.921875
0, 7, 100, 1426.072998046875
0, 7, 101, 1464.179931640625
0, 7, 102, 1451.173583984375
0, 7, 103, 1429.766723632812
0, 7, 104, 1490.744750976562
0, 7, 105, 1523.05712890625
0, 7, 106, 1567.380126953125
0, 7, 107, 1481.822265625
0, 7, 108, 1411.880126953125
0, 7, 109, 1157.01513671875
0, 7, 110, 472.7789611816406
0, 7, 111, 128.520751953125
0, 7, 112, 79.30183410644531
0, 7, 113, 66.21559143066406
0, 7, 114, 56.11997222900391
0, 7, 115, 47.92953491210938
0, 7, 116, 44.91513824462891
0, 7, 117, 44.3486328125
0, 7, 118, 33.22148513793945
0, 7, 119, 32.87375640869141
0, 7, 120, 22.22373199462891
0, 7, 121, 28.67448616027832
0, 7, 122, 33.77611541748047
0, 7, 123, 30.02005004882812
0, 7, 124, 34.20426940917969
0, 7, 125, 25.0159912109375
0, 7, 126, 29.69399070739746
0, 7, 127, 22.96482467651367
0, 8, 0, 22.4187126159668
0, 8, 1, 21.10961723327637
0, 8, 2, 26.42201805114746
0, 8, 3, 28.44997596740723
0, 8, 4, 25.67752075195312
0, 8, 5, 35.98931503295898
0, 8, 6, 32.20342636108398
0, 8, 7, 30.67727851867676
0, 8, 8, 30.5855770111084
0, 8, 9, 48.36635589599609
0, 8, 10, 42.60749435424805
0, 8, 11, 40.3388557434082
0, 8, 12, 51.29953765869141
0, 8, 13, 69.39175415039062
0, 8, 14, 67.24314880371094
0, 8, 15, 89.51850891113281
0, 8, 16, 164.5671539306641
0, 8, 17, 672.3041381835938
0, 8, 18, 1277.3115234375
0, 8, 19, 1449.4716796875
0, 8, 20, 1420.86181640625
0, 8, 21, 1407.001953125
0, 8, 22, 1489.065673828125
0, 8, 23, 1477.92333984375
0, 8, 24, 1435.919799804688
0, 8, 25, 1452.796630859375
0, 8, 26, 1513.048217773438
0, 8, 27, 1521.240112304688
0, 8, 28, 1472.715454101562
0, 8, 29, 1506.88427734375
0, 8, 30, 1487.688842773438
0, 8, 31, 1539.6767578125
0, 8, 32, 1509.195068359375
0, 8, 33, 1481.09130859375
0, 8, 34, 1532.124145507812
0, 8, 35, 1437.939575195312
0, 8, 36, 1494.924682617188
0, 8, 37, 1555.30029296875
0, 8, 38, 1552.961669921875
0, 8, 39, 1493.5625
0, 8, 40, 1530.717529296875
0, 8, 41, 1485.1845703125
0, 8, 42, 1538.099243164062
0, 8, 43, 1433.381469726562
0, 8, 44, 1533.229858398438
0, 8, 45, 1510.0625
0, 8, 46, 1596.149536132812
