# TOPAS Version: 3.1.p3
# Parameter File: batch_inserts_50.txt
# Results for scorer Readout_Adipose
# Scored in component: MyBox
# X in 1 bin  of 0.75 cm
# Y in 512 bins of 0.0783984 cm
# Z in 128 bins of 0.078125 cm
# EnergyDeposit ( MeV ) : Sum   
0, 0, 0, 2.963079214096069
0, 0, 1, 1.234297394752502
0, 0, 2, 5.022053718566895
0, 0, 3, 2.095482587814331
0, 0, 4, 2.808210372924805
0, 0, 5, 3.308765888214111
0, 0, 6, 7.586060523986816
0, 0, 7, 9.096192359924316
0, 0, 8, 4.293671131134033
0, 0, 9, 3.113536834716797
0, 0, 10, 6.719179153442383
0, 0, 11, 4.931530952453613
0, 0, 12, 5.644296169281006
0, 0, 13, 5.30604076385498
0, 0, 14, 7.474396705627441
0, 0, 15, 8.69229793548584
0, 0, 16, 8.322075843811035
0, 0, 17, 9.164068222045898
0, 0, 18, 13.09018039703369
0, 0, 19, 44.83450698852539
0, 0, 20, 139.3512115478516
0, 0, 21, 224.8972930908203
0, 0, 22, 248.5602111816406
0, 0, 23, 255.4115753173828
0, 0, 24, 249.6359405517578
0, 0, 25, 259.1298828125
0, 0, 26, 236.7329711914062
0, 0, 27, 236.8879241943359
0, 0, 28, 274.217041015625
0, 0, 29, 252.6438446044922
0, 0, 30, 229.1361083984375
0, 0, 31, 244.9561004638672
0, 0, 32, 264.1233520507812
0, 0, 33, 260.8203125
0, 0, 34, 287.4135131835938
0, 0, 35, 268.8756103515625
0, 0, 36, 246.2865600585938
0, 0, 37, 252.3336486816406
0, 0, 38, 268.4962463378906
0, 0, 39, 229.5897521972656
0, 0, 40, 242.6857147216797
0, 0, 41, 267.3448181152344
0, 0, 42, 228.2123260498047
0, 0, 43, 259.0081481933594
0, 0, 44, 251.3523712158203
0, 0, 45, 253.5354156494141
0, 0, 46, 244.8499298095703
0, 0, 47, 252.9759368896484
0, 0, 48, 267.27294921875
0, 0, 49, 273.5856628417969
0, 0, 50, 249.9124145507812
0, 0, 51, 252.9686126708984
0, 0, 52, 273.7994079589844
0, 0, 53, 292.0718994140625
0, 0, 54, 242.5672454833984
0, 0, 55, 239.5073852539062
0, 0, 56, 277.1513061523438
0, 0, 57, 266.1449890136719
0, 0, 58, 249.1768035888672
0, 0, 59, 271.9873657226562
0, 0, 60, 235.4453887939453
0, 0, 61, 243.6428375244141
0, 0, 62, 258.7529296875
0, 0, 63, 268.8703308105469
0, 0, 64, 255.025390625
0, 0, 65, 261.6549072265625
0, 0, 66, 276.1991577148438
0, 0, 67, 247.9937133789062
0, 0, 68, 259.2549743652344
0, 0, 69, 262.5167846679688
0, 0, 70, 271.7073669433594
0, 0, 71, 238.3383483886719
0, 0, 72, 252.9462738037109
0, 0, 73, 257.4397583007812
0, 0, 74, 249.7427368164062
0, 0, 75, 239.8891448974609
0, 0, 76, 228.48779296875
0, 0, 77, 261.7429809570312
0, 0, 78, 255.9535369873047
0, 0, 79, 279.7845764160156
0, 0, 80, 216.1355285644531
0, 0, 81, 268.1072082519531
0, 0, 82, 259.4060363769531
0, 0, 83, 246.5520935058594
0, 0, 84, 270.7145385742188
0, 0, 85, 231.4680633544922
0, 0, 86, 253.7628479003906
0, 0, 87, 250.7229766845703
0, 0, 88, 259.9164123535156
0, 0, 89, 284.352294921875
0, 0, 90, 243.1927032470703
0, 0, 91, 280.6774291992188
0, 0, 92, 252.4991607666016
0, 0, 93, 250.2437591552734
0, 0, 94, 247.7709045410156
0, 0, 95, 248.4501190185547
0, 0, 96, 276.5392456054688
0, 0, 97, 271.8424377441406
0, 0, 98, 272.6495971679688
0, 0, 99, 259.251220703125
0, 0, 100, 256.9468994140625
0, 0, 101, 226.3218078613281
0, 0, 102, 232.4243316650391
0, 0, 103, 269.3109436035156
0, 0, 104, 253.7876281738281
0, 0, 105, 252.1073913574219
0, 0, 106, 246.1740570068359
0, 0, 107, 153.2024383544922
0, 0, 108, 39.46986389160156
0, 0, 109, 12.24906635284424
0, 0, 110, 12.24512958526611
0, 0, 111, 10.0451192855835
0, 0, 112, 6.773313999176025
0, 0, 113, 5.159501075744629
0, 0, 114, 6.897579669952393
0, 0, 115, 5.60570764541626
0, 0, 116, 5.877133369445801
0, 0, 117, 5.706364631652832
0, 0, 118, 5.641097545623779
0, 0, 119, 4.257940292358398
0, 0, 120, 4.63826847076416
0, 0, 121, 2.505513191223145
0, 0, 122, 3.152141332626343
0, 0, 123, 3.133187055587769
0, 0, 124, 4.859189510345459
0, 0, 125, 3.42099666595459
0, 0, 126, 3.945665597915649
0, 0, 127, 2.510173320770264
0, 1, 0, 11.31853485107422
0, 1, 1, 4.30871057510376
0, 1, 2, 4.026021480560303
0, 1, 3, 3.106508016586304
0, 1, 4, 3.189198017120361
0, 1, 5, 3.413689613342285
0, 1, 6, 3.103124856948853
0, 1, 7, 3.511234283447266
0, 1, 8, 9.467913627624512
0, 1, 9, 5.760883808135986
0, 1, 10, 8.70018482208252
0, 1, 11, 11.9180908203125
0, 1, 12, 8.438300132751465
0, 1, 13, 10.11222648620605
0, 1, 14, 8.561193466186523
0, 1, 15, 8.790727615356445
0, 1, 16, 11.20181274414062
0, 1, 17, 10.52009868621826
0, 1, 18, 20.97657012939453
0, 1, 19, 65.76029968261719
0, 1, 20, 197.7385406494141
0, 1, 21, 255.6862182617188
0, 1, 22, 293.8561706542969
0, 1, 23, 283.9303588867188
0, 1, 24, 275.4142150878906
0, 1, 25, 289.0281372070312
0, 1, 26, 268.8179016113281
0, 1, 27, 305.5153503417969
0, 1, 28, 299.7560729980469
0, 1, 29, 296.0411987304688
0, 1, 30, 282.8145446777344
0, 1, 31, 292.4237976074219
0, 1, 32, 290.0599060058594
0, 1, 33, 295.8096008300781
0, 1, 34, 293.3018798828125
0, 1, 35, 278.1325988769531
0, 1, 36, 307.1904296875
0, 1, 37, 295.1011047363281
0, 1, 38, 280.7065124511719
0, 1, 39, 294.4728393554688
0, 1, 40, 268.026123046875
0, 1, 41, 285.7298583984375
0, 1, 42, 289.3626403808594
0, 1, 43, 335.5183410644531
0, 1, 44, 278.4185485839844
0, 1, 45, 294.0298461914062
0, 1, 46, 260.2945556640625
0, 1, 47, 309.6002807617188
0, 1, 48, 284.0163269042969
0, 1, 49, 299.9659118652344
0, 1, 50, 261.945556640625
0, 1, 51, 274.84423828125
0, 1, 52, 298.2906799316406
0, 1, 53, 305.0623779296875
0, 1, 54, 276.26708984375
0, 1, 55, 294.0621337890625
0, 1, 56, 278.5132141113281
0, 1, 57, 298.632080078125
0, 1, 58, 309.0494689941406
0, 1, 59, 291.9676818847656
0, 1, 60, 298.0586547851562
0, 1, 61, 274.5368347167969
0, 1, 62, 306.4389953613281
0, 1, 63, 285.42529296875
0, 1, 64, 288.9092407226562
0, 1, 65, 294.9783325195312
0, 1, 66, 291.1868591308594
0, 1, 67, 291.2631225585938
0, 1, 68, 277.2513732910156
0, 1, 69, 280.8923950195312
0, 1, 70, 273.4595336914062
0, 1, 71, 273.9352722167969
0, 1, 72, 286.4096984863281
0, 1, 73, 304.1084899902344
0, 1, 74, 301.9250793457031
0, 1, 75, 293.3896789550781
0, 1, 76, 283.9687194824219
0, 1, 77, 287.8306274414062
0, 1, 78, 295.7337951660156
0, 1, 79, 300.3281555175781
0, 1, 80, 294.1784362792969
0, 1, 81, 302.1570434570312
0, 1, 82, 282.44091796875
0, 1, 83, 332.669189453125
0, 1, 84, 308.2675170898438
0, 1, 85, 254.2729034423828
0, 1, 86, 295.8011779785156
0, 1, 87, 289.9451599121094
0, 1, 88, 298.8560180664062
0, 1, 89, 291.3721618652344
0, 1, 90, 269.86376953125
0, 1, 91, 317.7148742675781
0, 1, 92, 289.4158935546875
0, 1, 93, 286.7899475097656
0, 1, 94, 304.1157836914062
0, 1, 95, 283.8410339355469
0, 1, 96, 283.6121826171875
0, 1, 97, 300.9612426757812
0, 1, 98, 276.6923828125
0, 1, 99, 265.3317565917969
0, 1, 100, 277.1259155273438
0, 1, 101, 283.0123596191406
0, 1, 102, 278.8924865722656
0, 1, 103, 279.9615783691406
0, 1, 104, 307.2775268554688
0, 1, 105, 297.3937683105469
0, 1, 106, 261.91064453125
0, 1, 107, 191.3320922851562
0, 1, 108, 81.30827331542969
0, 1, 109, 23.11690711975098
0, 1, 110, 12.34463977813721
0, 1, 111, 8.504620552062988
0, 1, 112, 12.84297466278076
0, 1, 113, 5.078952789306641
0, 1, 114, 5.407455921173096
0, 1, 115, 8.62773323059082
0, 1, 116, 13.05753993988037
0, 1, 117, 6.300578594207764
0, 1, 118, 5.646359443664551
0, 1, 119, 5.018292903900146
0, 1, 120, 4.193809032440186
0, 1, 121, 4.287249565124512
0, 1, 122, 3.264772415161133
0, 1, 123, 5.8060302734375
0, 1, 124, 7.681138038635254
0, 1, 125, 3.70304536819458
0, 1, 126, 2.878296375274658
0, 1, 127, 2.130424499511719
0, 2, 0, 5.013915061950684
0, 2, 1, 4.23192834854126
0, 2, 2, 3.160251617431641
0, 2, 3, 3.955712556838989
0, 2, 4, 2.75314998626709
0, 2, 5, 1.417661666870117
0, 2, 6, 4.151423931121826
0, 2, 7, 3.100921869277954
0, 2, 8, 6.250847339630127
0, 2, 9, 6.405570983886719
0, 2, 10, 8.072197914123535
0, 2, 11, 8.955750465393066
0, 2, 12, 7.567642211914062
0, 2, 13, 10.23055362701416
0, 2, 14, 9.673382759094238
0, 2, 15, 8.703127861022949
0, 2, 16, 9.525173187255859
0, 2, 17, 16.47704887390137
0, 2, 18, 30.78293228149414
0, 2, 19, 115.0001983642578
0, 2, 20, 246.4068450927734
0, 2, 21, 271.5877075195312
0, 2, 22, 315.1552429199219
0, 2, 23, 303.2116394042969
0, 2, 24, 288.6982421875
0, 2, 25, 301.8131713867188
0, 2, 26, 293.0370788574219
0, 2, 27, 274.9368896484375
0, 2, 28, 273.84228515625
0, 2, 29, 273.9715270996094
0, 2, 30, 291.5575561523438
0, 2, 31, 277.7861022949219
0, 2, 32, 295.6914672851562
0, 2, 33, 281.7943420410156
0, 2, 34, 332.9205627441406
0, 2, 35, 290.7084655761719
0, 2, 36, 305.1274719238281
0, 2, 37, 314.9536743164062
0, 2, 38, 310.9052734375
0, 2, 39, 267.2344665527344
0, 2, 40, 305.4248962402344
0, 2, 41, 290.7825012207031
0, 2, 42, 303.5859069824219
0, 2, 43, 312.7989196777344
0, 2, 44, 313.1839904785156
0, 2, 45, 324.8370971679688
0, 2, 46, 289.8977966308594
0, 2, 47, 302.0144653320312
0, 2, 48, 280.8916015625
0, 2, 49, 279.7897644042969
0, 2, 50, 296.1193237304688
0, 2, 51, 282.8675842285156
0, 2, 52, 271.857421875
0, 2, 53, 286.8371887207031
0, 2, 54, 279.82470703125
0, 2, 55, 276.1698303222656
0, 2, 56, 302.7953796386719
0, 2, 57, 292.4183654785156
0, 2, 58, 304.3626403808594
0, 2, 59, 288.7135925292969
0, 2, 60, 317.5415344238281
0, 2, 61, 303.3148498535156
0, 2, 62, 314.4590148925781
0, 2, 63, 305.9039611816406
0, 2, 64, 295.4976806640625
0, 2, 65, 312.625244140625
0, 2, 66, 279.4129028320312
0, 2, 67, 292.5827331542969
0, 2, 68, 295.5109252929688
0, 2, 69, 312.0341796875
0, 2, 70, 333.5038757324219
0, 2, 71, 284.1104736328125
0, 2, 72, 302.0014038085938
0, 2, 73, 311.2300109863281
0, 2, 74, 286.2433776855469
0, 2, 75, 306.1668395996094
0, 2, 76, 285.5409545898438
0, 2, 77, 299.7250061035156
0, 2, 78, 314.9789428710938
0, 2, 79, 311.8283996582031
0, 2, 80, 296.6045837402344
0, 2, 81, 282.8241882324219
0, 2, 82, 318.6045837402344
0, 2, 83, 311.4951782226562
0, 2, 84, 287.9223022460938
0, 2, 85, 280.0963439941406
0, 2, 86, 323.0540771484375
0, 2, 87, 285.9352416992188
0, 2, 88, 279.7576599121094
0, 2, 89, 295.018310546875
0, 2, 90, 294.7179565429688
0, 2, 91, 278.7138671875
0, 2, 92, 305.4506225585938
0, 2, 93, 315.3273315429688
0, 2, 94, 291.8899536132812
0, 2, 95, 315.0476989746094
0, 2, 96, 314.353759765625
0, 2, 97, 294.8539123535156
0, 2, 98, 296.4892883300781
0, 2, 99, 274.8788757324219
0, 2, 100, 305.9032287597656
0, 2, 101, 301.1637573242188
0, 2, 102, 296.39697265625
0, 2, 103, 294.2342529296875
0, 2, 104, 293.8531494140625
0, 2, 105, 272.8767395019531
0, 2, 106, 299.1896667480469
0, 2, 107, 271.3822631835938
0, 2, 108, 115.6429748535156
0, 2, 109, 32.17372512817383
0, 2, 110, 11.27821063995361
0, 2, 111, 11.45546054840088
0, 2, 112, 8.327803611755371
0, 2, 113, 10.89686012268066
0, 2, 114, 9.762599945068359
0, 2, 115, 9.456934928894043
0, 2, 116, 9.049236297607422
0, 2, 117, 7.308106899261475
0, 2, 118, 2.27146315574646
0, 2, 119, 5.689045429229736
0, 2, 120, 5.472750663757324
0, 2, 121, 3.513410329818726
0, 2, 122, 5.070752143859863
0, 2, 123, 6.123232364654541
0, 2, 124, 5.47907018661499
0, 2, 125, 5.858968257904053
0, 2, 126, 5.703007221221924
0, 2, 127, 4.60710620880127
0, 3, 0, 3.998734712600708
0, 3, 1, 3.344691038131714
0, 3, 2, 4.742840766906738
0, 3, 3, 1.826081991195679
0, 3, 4, 3.983003616333008
0, 3, 5, 7.279125690460205
0, 3, 6, 6.998355865478516
0, 3, 7, 6.9472336769104
0, 3, 8, 5.468628883361816
0, 3, 9, 5.144661903381348
0, 3, 10, 6.494253635406494
0, 3, 11, 4.188104629516602
0, 3, 12, 8.816577911376953
0, 3, 13, 14.76406288146973
0, 3, 14, 12.96874904632568
0, 3, 15, 16.85284996032715
0, 3, 16, 16.51880264282227
0, 3, 17, 23.57396507263184
0, 3, 18, 52.40314865112305
0, 3, 19, 177.6997375488281
0, 3, 20, 268.8684692382812
0, 3, 21, 271.8647155761719
0, 3, 22, 282.0930480957031
0, 3, 23, 286.0101928710938
0, 3, 24, 285.1283569335938
0, 3, 25, 271.4737548828125
0, 3, 26, 304.9312744140625
0, 3, 27, 293.2062683105469
0, 3, 28, 283.1968078613281
0, 3, 29, 337.933349609375
0, 3, 30, 316.9547424316406
0, 3, 31, 284.4421691894531
0, 3, 32, 306.0888061523438
0, 3, 33, 314.3916625976562
0, 3, 34, 320.9662780761719
0, 3, 35, 305.8594970703125
0, 3, 36, 270.6026611328125
0, 3, 37, 314.3363647460938
0, 3, 38, 305.0523071289062
0, 3, 39, 286.3964538574219
0, 3, 40, 265.5121765136719
0, 3, 41, 298.1226196289062
0, 3, 42, 284.4477844238281
0, 3, 43, 306.3590087890625
0, 3, 44, 311.9578247070312
0, 3, 45, 291.1025390625
0, 3, 46, 327.8193664550781
0, 3, 47, 299.0440063476562
0, 3, 48, 305.7142944335938
0, 3, 49, 275.3711853027344
0, 3, 50, 291.4678649902344
0, 3, 51, 277.2077026367188
0, 3, 52, 315.712890625
0, 3, 53, 289.8507385253906
0, 3, 54, 285.6862487792969
0, 3, 55, 283.6924743652344
0, 3, 56, 297.962158203125
0, 3, 57, 287.8584594726562
0, 3, 58, 308.1142578125
0, 3, 59, 295.285888671875
0, 3, 60, 297.8597106933594
0, 3, 61, 266.6888427734375
0, 3, 62, 284.8656311035156
0, 3, 63, 307.380126953125
0, 3, 64, 316.5927429199219
0, 3, 65, 303.7615966796875
0, 3, 66, 313.151123046875
0, 3, 67, 317.9613342285156
0, 3, 68, 280.0051574707031
0, 3, 69, 281.8363037109375
0, 3, 70, 289.1927795410156
0, 3, 71, 298.0793151855469
0, 3, 72, 270.4800109863281
0, 3, 73, 308.9597473144531
0, 3, 74, 291.3149719238281
0, 3, 75, 289.4140014648438
0, 3, 76, 306.8357543945312
0, 3, 77, 313.1607360839844
0, 3, 78, 304.7546997070312
0, 3, 79, 281.7583618164062
0, 3, 80, 290.5010070800781
0, 3, 81, 309.8716125488281
0, 3, 82, 315.3312072753906
0, 3, 83, 300.5846252441406
0, 3, 84, 309.7568054199219
0, 3, 85, 294.5718078613281
0, 3, 86, 302.5823669433594
0, 3, 87, 298.8922119140625
0, 3, 88, 298.3677368164062
0, 3, 89, 295.1757507324219
0, 3, 90, 281.4197998046875
0, 3, 91, 284.946533203125
0, 3, 92, 303.1040954589844
0, 3, 93, 312.9607849121094
0, 3, 94, 297.6338806152344
0, 3, 95, 335.2775573730469
0, 3, 96, 290.9229736328125
0, 3, 97, 283.9347839355469
0, 3, 98, 277.546142578125
0, 3, 99, 263.4682312011719
0, 3, 100, 282.6773376464844
0, 3, 101, 299.06982421875
0, 3, 102, 275.5671081542969
0, 3, 103, 321.01806640625
0, 3, 104, 307.3489379882812
0, 3, 105, 291.1133117675781
0, 3, 106, 301.3811645507812
0, 3, 107, 284.7115173339844
0, 3, 108, 166.0903778076172
0, 3, 109, 58.94488906860352
0, 3, 110, 19.55185699462891
0, 3, 111, 14.11750221252441
0, 3, 112, 11.49661254882812
0, 3, 113, 8.038673400878906
0, 3, 114, 10.51504611968994
0, 3, 115, 7.578054904937744
0, 3, 116, 6.940722942352295
0, 3, 117, 9.442350387573242
0, 3, 118, 6.281715869903564
0, 3, 119, 3.893523216247559
0, 3, 120, 2.875669717788696
0, 3, 121, 2.3555748462677
0, 3, 122, 4.12062931060791
0, 3, 123, 6.034955501556396
0, 3, 124, 5.072088718414307
0, 3, 125, 6.424206256866455
0, 3, 126, 4.674321174621582
0, 3, 127, 1.776595711708069
0, 4, 0, 3.030284404754639
0, 4, 1, 6.203784465789795
0, 4, 2, 3.65359091758728
0, 4, 3, 2.294079303741455
0, 4, 4, 8.212852478027344
0, 4, 5, 8.625492095947266
0, 4, 6, 8.88847827911377
0, 4, 7, 3.805907726287842
0, 4, 8, 4.500705242156982
0, 4, 9, 6.980358600616455
0, 4, 10, 9.737739562988281
0, 4, 11, 5.427143573760986
0, 4, 12, 5.433777332305908
0, 4, 13, 9.244210243225098
0, 4, 14, 11.42789745330811
0, 4, 15, 10.73103618621826
0, 4, 16, 14.19271183013916
0, 4, 17, 17.64131164550781
0, 4, 18, 91.90524291992188
0, 4, 19, 222.0280609130859
0, 4, 20, 284.1054992675781
0, 4, 21, 273.7037658691406
0, 4, 22, 304.900146484375
0, 4, 23, 267.3212280273438
0, 4, 24, 288.9638671875
0, 4, 25, 272.3214111328125
0, 4, 26, 293.6701965332031
0, 4, 27, 282.0223693847656
0, 4, 28, 306.0881042480469
0, 4, 29, 323.0488586425781
0, 4, 30, 309.0488586425781
0, 4, 31, 303.3395690917969
0, 4, 32, 280.9173889160156
0, 4, 33, 295.2126770019531
0, 4, 34, 296.9162292480469
0, 4, 35, 312.1095886230469
0, 4, 36, 293.2522277832031
0, 4, 37, 289.0835266113281
0, 4, 38, 298.4743347167969
0, 4, 39, 293.6326904296875
0, 4, 40, 301.5724182128906
0, 4, 41, 312.8622741699219
0, 4, 42, 329.7276916503906
0, 4, 43, 295.450927734375
0, 4, 44, 320.1430358886719
0, 4, 45, 323.3834838867188
0, 4, 46, 310.1708068847656
0, 4, 47, 293.2232666015625
0, 4, 48, 296.8453369140625
0, 4, 49, 276.8616027832031
0, 4, 50, 297.142333984375
0, 4, 51, 315.6726379394531
0, 4, 52, 326.8604125976562
0, 4, 53, 305.6591796875
0, 4, 54, 288.42236328125
0, 4, 55, 315.6254272460938
0, 4, 56, 286.0767211914062
0, 4, 57, 309.4231567382812
0, 4, 58, 299.1249389648438
0, 4, 59, 309.1959228515625
0, 4, 60, 303.0471801757812
0, 4, 61, 314.8762512207031
0, 4, 62, 306.7222290039062
0, 4, 63, 298.5560913085938
0, 4, 64, 330.06787109375
0, 4, 65, 320.0852661132812
0, 4, 66, 293.991455078125
0, 4, 67, 285.587890625
0, 4, 68, 314.9820556640625
0, 4, 69, 276.1881713867188
0, 4, 70, 298.9008483886719
0, 4, 71, 321.7663269042969
0, 4, 72, 332.4182434082031
0, 4, 73, 297.9866638183594
0, 4, 74, 293.1677856445312
0, 4, 75, 289.0230102539062
0, 4, 76, 273.5596008300781
0, 4, 77, 280.4276428222656
0, 4, 78, 308.4266967773438
0, 4, 79, 318.2123718261719
0, 4, 80, 314.810791015625
0, 4, 81, 314.2757873535156
0, 4, 82, 299.43017578125
0, 4, 83, 299.2959289550781
0, 4, 84, 294.9301452636719
0, 4, 85, 293.3138732910156
0, 4, 86, 297.0004272460938
0, 4, 87, 285.1911315917969
0, 4, 88, 305.1740417480469
0, 4, 89, 294.2525634765625
0, 4, 90, 332.6160888671875
0, 4, 91, 300.3424377441406
0, 4, 92, 290.0355529785156
0, 4, 93, 296.5938720703125
0, 4, 94, 290.8915100097656
0, 4, 95, 290.130126953125
0, 4, 96, 323.3467102050781
0, 4, 97, 273.4402770996094
0, 4, 98, 326.9256896972656
0, 4, 99, 314.3658142089844
0, 4, 100, 300.9914245605469
0, 4, 101, 256.1855163574219
0, 4, 102, 295.9467468261719
0, 4, 103, 317.3052673339844
0, 4, 104, 281.950439453125
0, 4, 105, 311.3999633789062
0, 4, 106, 286.760498046875
0, 4, 107, 295.3908996582031
0, 4, 108, 226.7318878173828
0, 4, 109, 80.24105834960938
0, 4, 110, 18.2611026763916
0, 4, 111, 13.31958198547363
0, 4, 112, 9.385807037353516
0, 4, 113, 8.874943733215332
0, 4, 114, 8.475247383117676
0, 4, 115, 10.05269432067871
0, 4, 116, 9.672458648681641
0, 4, 117, 6.611929893493652
0, 4, 118, 9.465003967285156
0, 4, 119, 10.09114837646484
0, 4, 120, 9.284293174743652
0, 4, 121, 7.065305709838867
0, 4, 122, 5.63514232635498
0, 4, 123, 5.679457664489746
0, 4, 124, 4.768399238586426
0, 4, 125, 7.611248016357422
0, 4, 126, 3.664270401000977
0, 4, 127, 3.068138837814331
0, 5, 0, 3.635690450668335
0, 5, 1, 3.483200073242188
0, 5, 2, 4.26014232635498
0, 5, 3, 7.912307739257812
0, 5, 4, 6.772508144378662
0, 5, 5, 6.588231086730957
0, 5, 6, 5.78399133682251
0, 5, 7, 5.592467784881592
0, 5, 8, 4.001473903656006
0, 5, 9, 5.935028553009033
0, 5, 10, 7.441651821136475
0, 5, 11, 9.14525032043457
0, 5, 12, 7.753986835479736
0, 5, 13, 7.445565223693848
0, 5, 14, 12.53325653076172
0, 5, 15, 15.48714637756348
0, 5, 16, 14.6422061920166
0, 5, 17, 28.66720390319824
0, 5, 18, 136.8659515380859
0, 5, 19, 288.6375122070312
0, 5, 20, 307.0795593261719
0, 5, 21, 318.2057189941406
0, 5, 22, 275.09521484375
0, 5, 23, 312.7537841796875
0, 5, 24, 301.4523010253906
0, 5, 25, 288.3298645019531
0, 5, 26, 294.48681640625
0, 5, 27, 323.9458923339844
0, 5, 28, 304.9656677246094
0, 5, 29, 296.9493408203125
0, 5, 30, 325.9850769042969
0, 5, 31, 287.2518005371094
0, 5, 32, 302.2479858398438
0, 5, 33, 307.1275024414062
0, 5, 34, 300.9305725097656
0, 5, 35, 312.7042541503906
0, 5, 36, 269.311767578125
0, 5, 37, 285.2572937011719
0, 5, 38, 293.2903747558594
0, 5, 39, 310.8267822265625
0, 5, 40, 308.3199462890625
0, 5, 41, 277.2155456542969
0, 5, 42, 306.4812316894531
0, 5, 43, 313.3403930664062
0, 5, 44, 292.1475219726562
0, 5, 45, 302.0922241210938
0, 5, 46, 264.7375793457031
0, 5, 47, 279.2388610839844
0, 5, 48, 293.2673034667969
0, 5, 49, 286.2269897460938
0, 5, 50, 295.3119201660156
0, 5, 51, 277.9691467285156
0, 5, 52, 268.9271850585938
0, 5, 53, 283.1308288574219
0, 5, 54, 290.9054870605469
0, 5, 55, 344.7987976074219
0, 5, 56, 307.9862365722656
0, 5, 57, 304.8191223144531
0, 5, 58, 310.735107421875
0, 5, 59, 303.4248046875
0, 5, 60, 304.6820068359375
0, 5, 61, 280.5090637207031
0, 5, 62, 327.2267150878906
0, 5, 63, 292.4612121582031
0, 5, 64, 321.39208984375
0, 5, 65, 304.1216125488281
0, 5, 66, 329.6487121582031
0, 5, 67, 311.8460693359375
0, 5, 68, 310.2955932617188
0, 5, 69, 310.7364807128906
0, 5, 70, 300.5469665527344
0, 5, 71, 272.135009765625
0, 5, 72, 310.8446044921875
0, 5, 73, 303.1767578125
0, 5, 74, 296.4663696289062
0, 5, 75, 295.4732055664062
0, 5, 76, 284.7611389160156
0, 5, 77, 299.693115234375
0, 5, 78, 312.537353515625
0, 5, 79, 307.2923889160156
0, 5, 80, 294.5998840332031
0, 5, 81, 325.4403076171875
0, 5, 82, 327.3320007324219
0, 5, 83, 283.3210144042969
0, 5, 84, 301.0697937011719
0, 5, 85, 271.6127319335938
0, 5, 86, 326.3126220703125
0, 5, 87, 283.8780517578125
0, 5, 88, 314.7486877441406
0, 5, 89, 304.5016479492188
0, 5, 90, 315.8057556152344
0, 5, 91, 317.34619140625
0, 5, 92, 296.4692993164062
0, 5, 93, 323.5273132324219
0, 5, 94, 309.0861206054688
0, 5, 95, 297.0342102050781
0, 5, 96, 300.2910766601562
0, 5, 97, 296.4104309082031
0, 5, 98, 317.6527099609375
0, 5, 99, 301.5157165527344
0, 5, 100, 290.4450378417969
0, 5, 101, 305.5585021972656
0, 5, 102, 291.1407165527344
0, 5, 103, 313.10595703125
0, 5, 104, 300.6064453125
0, 5, 105, 291.8572082519531
0, 5, 106, 283.4792175292969
0, 5, 107, 294.3526916503906
0, 5, 108, 264.7677001953125
0, 5, 109, 156.2352142333984
0, 5, 110, 39.90294647216797
0, 5, 111, 20.53096389770508
0, 5, 112, 19.13426208496094
0, 5, 113, 15.33320903778076
0, 5, 114, 13.34230613708496
0, 5, 115, 7.209307670593262
0, 5, 116, 7.576934337615967
0, 5, 117, 8.077755928039551
0, 5, 118, 12.13860893249512
0, 5, 119, 2.624385356903076
0, 5, 120, 7.254617691040039
0, 5, 121, 5.932624816894531
0, 5, 122, 5.56866455078125
0, 5, 123, 4.758084297180176
0, 5, 124, 5.806127071380615
0, 5, 125, 3.630314588546753
0, 5, 126, 5.452427864074707
0, 5, 127, 3.662846326828003
0, 6, 0, 4.499390125274658
0, 6, 1, 2.802957534790039
0, 6, 2, 7.67886209487915
0, 6, 3, 5.799592971801758
0, 6, 4, 3.562190532684326
0, 6, 5, 5.488373279571533
0, 6, 6, 7.126195430755615
0, 6, 7, 5.62857723236084
0, 6, 8, 8.35587215423584
0, 6, 9, 7.649216651916504
0, 6, 10, 6.927853107452393
0, 6, 11, 9.933498382568359
0, 6, 12, 9.273100852966309
0, 6, 13, 16.2919807434082
0, 6, 14, 7.795055866241455
0, 6, 15, 16.17405700683594
0, 6, 16, 28.33469200134277
0, 6, 17, 58.09494400024414
0, 6, 18, 171.6695098876953
0, 6, 19, 275.3201599121094
0, 6, 20, 292.7052612304688
0, 6, 21, 313.21533203125
0, 6, 22, 321.5675964355469
0, 6, 23, 305.9319763183594
0, 6, 24, 317.7232666015625
0, 6, 25, 316.9790344238281
0, 6, 26, 319.4615783691406
0, 6, 27, 331.8801879882812
0, 6, 28, 296.5511169433594
0, 6, 29, 328.8204650878906
0, 6, 30, 282.7935485839844
0, 6, 31, 284.8448791503906
0, 6, 32, 339.0504760742188
0, 6, 33, 301.8180847167969
0, 6, 34, 340.8731994628906
0, 6, 35, 322.0285949707031
0, 6, 36, 274.6671142578125
0, 6, 37, 287.0637817382812
0, 6, 38, 310.0541687011719
0, 6, 39, 300.4328002929688
0, 6, 40, 285.2929077148438
0, 6, 41, 296.5547790527344
0, 6, 42, 306.9726257324219
0, 6, 43, 289.7181396484375
0, 6, 44, 280.288330078125
0, 6, 45, 318.194091796875
0, 6, 46, 300.7994689941406
0, 6, 47, 334.7978210449219
0, 6, 48, 293.7032470703125
0, 6, 49, 311.6726989746094
0, 6, 50, 330.9467468261719
0, 6, 51, 309.2622985839844
0, 6, 52, 319.8211364746094
0, 6, 53, 329.8782348632812
0, 6, 54, 303.3482360839844
0, 6, 55, 305.10595703125
0, 6, 56, 293.9226379394531
0, 6, 57, 313.3065185546875
0, 6, 58, 261.4598693847656
0, 6, 59, 303.5068054199219
0, 6, 60, 314.1903381347656
0, 6, 61, 270.8357543945312
0, 6, 62, 336.5643005371094
0, 6, 63, 322.9023742675781
0, 6, 64, 291.0539245605469
0, 6, 65, 287.1159973144531
0, 6, 66, 306.5553894042969
0, 6, 67, 310.3799438476562
0, 6, 68, 295.1649475097656
0, 6, 69, 279.2378845214844
0, 6, 70, 275.2447509765625
0, 6, 71, 288.5692443847656
0, 6, 72, 309.479736328125
0, 6, 73, 294.2035827636719
0, 6, 74, 330.0081481933594
0, 6, 75, 342.7344360351562
0, 6, 76, 296.6851501464844
0, 6, 77, 287.300537109375
0, 6, 78, 278.7619323730469
0, 6, 79, 291.1581726074219
0, 6, 80, 302.3668518066406
0, 6, 81, 317.7355041503906
0, 6, 82, 317.61962890625
0, 6, 83, 317.8110961914062
0, 6, 84, 297.0549926757812
0, 6, 85, 300.0238952636719
0, 6, 86, 330.4793395996094
0, 6, 87, 291.8251037597656
0, 6, 88, 307.3235473632812
0, 6, 89, 304.1423645019531
0, 6, 90, 298.99658203125
0, 6, 91, 313.6600341796875
0, 6, 92, 283.672119140625
0, 6, 93, 295.1427917480469
0, 6, 94, 271.9021606445312
0, 6, 95, 300.3422546386719
0, 6, 96, 344.6862182617188
0, 6, 97, 309.1686401367188
0, 6, 98, 301.0552062988281
0, 6, 99, 274.4703674316406
0, 6, 100, 312.4396057128906
0, 6, 101, 292.49609375
0, 6, 102, 306.0879821777344
0, 6, 103, 307.9966430664062
0, 6, 104, 289.3887634277344
0, 6, 105, 301.7310485839844
0, 6, 106, 308.06201171875
0, 6, 107, 308.0202331542969
0, 6, 108, 265.7388916015625
0, 6, 109, 189.2108154296875
0, 6, 110, 53.33759689331055
0, 6, 111, 21.22746276855469
0, 6, 112, 13.8373908996582
0, 6, 113, 9.609994888305664
0, 6, 114, 12.24808692932129
0, 6, 115, 11.88160514831543
0, 6, 116, 10.56666660308838
0, 6, 117, 12.79964828491211
0, 6, 118, 12.36349201202393
0, 6, 119, 7.552856922149658
0, 6, 120, 8.789976119995117
0, 6, 121, 6.780870914459229
0, 6, 122, 7.190640449523926
0, 6, 123, 4.830824851989746
0, 6, 124, 6.598828315734863
0, 6, 125, 6.231781482696533
0, 6, 126, 4.014994621276855
0, 6, 127, 4.971585273742676
0, 7, 0, 4.993702411651611
0, 7, 1, 4.202682971954346
0, 7, 2, 5.682302474975586
0, 7, 3, 3.763081073760986
0, 7, 4, 2.731379747390747
0, 7, 5, 5.122137069702148
0, 7, 6, 5.424319744110107
0, 7, 7, 4.234511375427246
0, 7, 8, 4.444498538970947
0, 7, 9, 4.702511787414551
0, 7, 10, 8.791794776916504
0, 7, 11, 10.14117622375488
0, 7, 12, 9.933257102966309
0, 7, 13, 11.81632804870605
0, 7, 14, 10.76602458953857
0, 7, 15, 15.67435550689697
0, 7, 16, 26.35286521911621
0, 7, 17, 97.48174285888672
0, 7, 18, 220.4521636962891
0, 7, 19, 293.0166015625
0, 7, 20, 297.7428283691406
0, 7, 21, 275.1513977050781
0, 7, 22, 299.762939453125
0, 7, 23, 288.6247863769531
0, 7, 24, 315.2476501464844
0, 7, 25, 324.8681335449219
0, 7, 26, 277.1099853515625
0, 7, 27, 296.770751953125
0, 7, 28, 326.7325439453125
0, 7, 29, 319.1997680664062
0, 7, 30, 298.7913818359375
0, 7, 31, 278.0816345214844
0, 7, 32, 304.2168273925781
0, 7, 33, 259.8721008300781
0, 7, 34, 297.4517211914062
0, 7, 35, 318.2806396484375
0, 7, 36, 329.815673828125
0, 7, 37, 323.4564514160156
0, 7, 38, 295.8619079589844
0, 7, 39, 306.0620727539062
0, 7, 40, 289.7765808105469
0, 7, 41, 271.1437683105469
0, 7, 42, 303.2034606933594
0, 7, 43, 274.3594970703125
0, 7, 44, 302.8386535644531
0, 7, 45, 293.9984741210938
0, 7, 46, 280.4741821289062
0, 7, 47, 326.9070434570312
0, 7, 48, 287.3583068847656
0, 7, 49, 303.2025451660156
0, 7, 50, 324.4523315429688
0, 7, 51, 299.1461181640625
0, 7, 52, 328.3981018066406
0, 7, 53, 308.6619262695312
0, 7, 54, 324.3609924316406
0, 7, 55, 307.8010864257812
0, 7, 56, 280.994873046875
0, 7, 57, 282.9825744628906
0, 7, 58, 295.5352172851562
0, 7, 59, 295.0022277832031
0, 7, 60, 321.9589233398438
0, 7, 61, 278.631591796875
0, 7, 62, 300.2905883789062
0, 7, 63, 292.0592956542969
0, 7, 64, 305.2781066894531
0, 7, 65, 332.9718322753906
0, 7, 66, 321.1969604492188
0, 7, 67, 303.3049926757812
0, 7, 68, 281.1723937988281
0, 7, 69, 295.758544921875
0, 7, 70, 303.1066589355469
0, 7, 71, 310.8421936035156
0, 7, 72, 286.5177917480469
0, 7, 73, 297.5939331054688
0, 7, 74, 343.7025146484375
0, 7, 75, 319.5276794433594
0, 7, 76, 322.9448852539062
0, 7, 77, 281.2191772460938
0, 7, 78, 301.9445190429688
0, 7, 79, 297.2214965820312
0, 7, 80, 310.4669799804688
0, 7, 81, 321.0669860839844
0, 7, 82, 330.8236389160156
0, 7, 83, 315.6647644042969
0, 7, 84, 309.9878845214844
0, 7, 85, 274.8963012695312
0, 7, 86, 310.4167175292969
0, 7, 87, 311.8260803222656
0, 7, 88, 306.8634338378906
0, 7, 89, 293.7522888183594
0, 7, 90, 305.8555603027344
0, 7, 91, 315.7341613769531
0, 7, 92, 287.2802124023438
0, 7, 93, 307.557373046875
0, 7, 94, 273.654052734375
0, 7, 95, 297.8791198730469
0, 7, 96, 330.9314575195312
0, 7, 97, 295.6570739746094
0, 7, 98, 290.0929870605469
0, 7, 99, 312.2118225097656
0, 7, 100, 279.7414245605469
0, 7, 101, 277.7374572753906
0, 7, 102, 290.5376892089844
0, 7, 103, 293.1451416015625
0, 7, 104, 275.9046630859375
0, 7, 105, 306.6201477050781
0, 7, 106, 317.2793273925781
0, 7, 107, 297.5904846191406
0, 7, 108, 274.0316772460938
0, 7, 109, 236.7909698486328
0, 7, 110, 96.35404968261719
0, 7, 111, 22.9929256439209
0, 7, 112, 12.93172264099121
0, 7, 113, 14.34608840942383
0, 7, 114, 15.34925556182861
0, 7, 115, 10.17849445343018
0, 7, 116, 8.605684280395508
0, 7, 117, 7.892077445983887
0, 7, 118, 7.058781147003174
0, 7, 119, 5.192342758178711
0, 7, 120, 4.540157318115234
0, 7, 121, 5.372067451477051
0, 7, 122, 8.018470764160156
0, 7, 123, 6.370031833648682
0, 7, 124, 2.673779249191284
0, 7, 125, 5.142376899719238
0, 7, 126, 10.56424713134766
0, 7, 127, 3.434144496917725
0, 8, 0, 4.852430820465088
0, 8, 1, 2.917742729187012
0, 8, 2, 2.78431248664856
0, 8, 3, 4.072115898132324
0, 8, 4, 3.789324522018433
0, 8, 5, 3.387770891189575
0, 8, 6, 4.653060436248779
0, 8, 7, 4.956141471862793
0, 8, 8, 8.304012298583984
0, 8, 9, 4.795899868011475
0, 8, 10, 7.805361747741699
0, 8, 11, 13.11195087432861
0, 8, 12, 12.87196922302246
0, 8, 13, 13.64749145507812
0, 8, 14, 14.42039775848389
0, 8, 15, 17.45710372924805
0, 8, 16, 31.8764762878418
0, 8, 17, 130.1410827636719
0, 8, 18, 242.7294311523438
0, 8, 19, 295.0913696289062
0, 8, 20, 286.6648559570312
0, 8, 21, 308.9179382324219
0, 8, 22, 294.8353576660156
0, 8, 23, 276.4332885742188
0, 8, 24, 269.6875
0, 8, 25, 276.1223754882812
0, 8, 26, 306.0501098632812
0, 8, 27, 306.7724609375
0, 8, 28, 304.9337768554688
0, 8, 29, 320.34375
0, 8, 30, 313.9640197753906
0, 8, 31, 305.9505310058594
0, 8, 32, 280.728759765625
0, 8, 33, 296.181640625
0, 8, 34, 292.3219299316406
0, 8, 35, 281.5911865234375
0, 8, 36, 314.294921875
0, 8, 37, 340.0526733398438
0, 8, 38, 330.8388977050781
0, 8, 39, 281.8200073242188
0, 8, 40, 304.831787109375
0, 8, 41, 292.8259582519531
