# TOPAS Version: 3.1.p3
# Parameter File: batch_inserts_214.txt
# Results for scorer Readout_Adipose
# Scored in component: MyBox
# X in 1 bin  of 0.75 cm
# Y in 512 bins of 0.0783984 cm
# Z in 128 bins of 0.078125 cm
# EnergyDeposit ( MeV ) : Sum   
0, 0, 0, 16.13445854187012
0, 0, 1, 20.56430435180664
0, 0, 2, 25.3371524810791
0, 0, 3, 20.88844680786133
0, 0, 4, 19.52757453918457
0, 0, 5, 24.72777366638184
0, 0, 6, 24.62128067016602
0, 0, 7, 33.97324752807617
0, 0, 8, 19.78437805175781
0, 0, 9, 20.67148017883301
0, 0, 10, 23.32553482055664
0, 0, 11, 30.2247142791748
0, 0, 12, 35.87232971191406
0, 0, 13, 30.8806037902832
0, 0, 14, 33.8791618347168
0, 0, 15, 47.11555862426758
0, 0, 16, 44.41952133178711
0, 0, 17, 45.12920761108398
0, 0, 18, 72.00173950195312
0, 0, 19, 192.1366577148438
0, 0, 20, 698.2230834960938
0, 0, 21, 1189.6494140625
0, 0, 22, 1250.283935546875
0, 0, 23, 1278.883422851562
0, 0, 24, 1276.843627929688
0, 0, 25, 1354.210571289062
0, 0, 26, 1270.854125976562
0, 0, 27, 1284.48486328125
0, 0, 28, 1321.843627929688
0, 0, 29, 1270.5654296875
0, 0, 30, 1262.30712890625
0, 0, 31, 1278.686767578125
0, 0, 32, 1262.430419921875
0, 0, 33, 1240.125610351562
0, 0, 34, 1322.1455078125
0, 0, 35, 1306.93896484375
0, 0, 36, 1248.01220703125
0, 0, 37, 1279.742065429688
0, 0, 38, 1247.611694335938
0, 0, 39, 1245.047973632812
0, 0, 40, 1222.514892578125
0, 0, 41, 1269.152709960938
0, 0, 42, 1256.2373046875
0, 0, 43, 1271.96484375
0, 0, 44, 1225.902587890625
0, 0, 45, 1289.455444335938
0, 0, 46, 1264.629760742188
0, 0, 47, 1237.570190429688
0, 0, 48, 1278.837524414062
0, 0, 49, 1286.84130859375
0, 0, 50, 1311.798461914062
0, 0, 51, 1266.144165039062
0, 0, 52, 1355.384521484375
0, 0, 53, 1324.971069335938
0, 0, 54, 1295.049438476562
0, 0, 55, 1233.317138671875
0, 0, 56, 1317.873046875
0, 0, 57, 1290.157348632812
0, 0, 58, 1255.21923828125
0, 0, 59, 1332.4990234375
0, 0, 60, 1329.786865234375
0, 0, 61, 1262.206787109375
0, 0, 62, 1245.142578125
0, 0, 63, 1277.607421875
0, 0, 64, 1328.037719726562
0, 0, 65, 1282.484252929688
0, 0, 66, 1319.957397460938
0, 0, 67, 1217.740478515625
0, 0, 68, 1309.995849609375
0, 0, 69, 1327.310180664062
0, 0, 70, 1344.66796875
0, 0, 71, 1287.81982421875
0, 0, 72, 1313.7451171875
0, 0, 73, 1238.383056640625
0, 0, 74, 1289.622802734375
0, 0, 75, 1293.835083007812
0, 0, 76, 1256.0625
0, 0, 77, 1284.450561523438
0, 0, 78, 1310.241577148438
0, 0, 79, 1323.133911132812
0, 0, 80, 1260.8203125
0, 0, 81, 1323.8154296875
0, 0, 82, 1287.720581054688
0, 0, 83, 1291.131103515625
0, 0, 84, 1326.10302734375
0, 0, 85, 1232.272094726562
0, 0, 86, 1266.30224609375
0, 0, 87, 1250.152587890625
0, 0, 88, 1252.558349609375
0, 0, 89, 1337.780517578125
0, 0, 90, 1275.476318359375
0, 0, 91, 1354.047241210938
0, 0, 92, 1305.224731445312
0, 0, 93, 1273.566040039062
0, 0, 94, 1243.620239257812
0, 0, 95, 1325.576538085938
0, 0, 96, 1288.3017578125
0, 0, 97, 1325.334838867188
0, 0, 98, 1257.02294921875
0, 0, 99, 1247.487548828125
0, 0, 100, 1285.290405273438
0, 0, 101, 1315.154541015625
0, 0, 102, 1233.853759765625
0, 0, 103, 1317.857666015625
0, 0, 104, 1262.619384765625
0, 0, 105, 1265.718139648438
0, 0, 106, 1205.86376953125
0, 0, 107, 780.185546875
0, 0, 108, 197.1233825683594
0, 0, 109, 67.47164916992188
0, 0, 110, 70.11674499511719
0, 0, 111, 39.01822662353516
0, 0, 112, 37.6726188659668
0, 0, 113, 34.25204467773438
0, 0, 114, 34.03520965576172
0, 0, 115, 35.61947631835938
0, 0, 116, 26.45725440979004
0, 0, 117, 33.20291137695312
0, 0, 118, 25.10759544372559
0, 0, 119, 21.76826286315918
0, 0, 120, 25.6317253112793
0, 0, 121, 31.91731834411621
0, 0, 122, 24.86779403686523
0, 0, 123, 20.39625930786133
0, 0, 124, 21.53969383239746
0, 0, 125, 19.28117752075195
0, 0, 126, 23.46901702880859
0, 0, 127, 17.95663642883301
0, 1, 0, 23.1797981262207
0, 1, 1, 22.12183952331543
0, 1, 2, 24.05816459655762
0, 1, 3, 24.78257751464844
0, 1, 4, 24.14082527160645
0, 1, 5, 28.03639030456543
0, 1, 6, 26.41184234619141
0, 1, 7, 31.54691505432129
0, 1, 8, 35.6627082824707
0, 1, 9, 30.26848793029785
0, 1, 10, 36.26591110229492
0, 1, 11, 39.45735168457031
0, 1, 12, 39.27435684204102
0, 1, 13, 40.38119506835938
0, 1, 14, 42.01244735717773
0, 1, 15, 48.72476959228516
0, 1, 16, 57.72384262084961
0, 1, 17, 58.21826553344727
0, 1, 18, 98.34127807617188
0, 1, 19, 403.7080078125
0, 1, 20, 1043.133911132812
0, 1, 21, 1371.925659179688
0, 1, 22, 1480.605102539062
0, 1, 23, 1464.236572265625
0, 1, 24, 1448.3310546875
0, 1, 25, 1418.963745117188
0, 1, 26, 1472.23876953125
0, 1, 27, 1464.183227539062
0, 1, 28, 1488.119262695312
0, 1, 29, 1477.744873046875
0, 1, 30, 1505.151977539062
0, 1, 31, 1485.55029296875
0, 1, 32, 1410.578247070312
0, 1, 33, 1498.43603515625
0, 1, 34, 1501.569213867188
0, 1, 35, 1463.139404296875
0, 1, 36, 1492.51318359375
0, 1, 37, 1412.228881835938
0, 1, 38, 1393.793701171875
0, 1, 39, 1527.593627929688
0, 1, 40, 1463.479370117188
0, 1, 41, 1487.1103515625
0, 1, 42, 1491.562744140625
0, 1, 43, 1504.446411132812
0, 1, 44, 1448.796875
0, 1, 45, 1485.344116210938
0, 1, 46, 1422.911865234375
0, 1, 47, 1432.268310546875
0, 1, 48, 1430.345703125
0, 1, 49, 1487.963012695312
0, 1, 50, 1440.1923828125
0, 1, 51, 1474.839477539062
0, 1, 52, 1474.935913085938
0, 1, 53, 1480.66650390625
0, 1, 54, 1505.492919921875
0, 1, 55, 1496.456909179688
0, 1, 56, 1471.572631835938
0, 1, 57, 1453.996459960938
0, 1, 58, 1431.677978515625
0, 1, 59, 1480.725463867188
0, 1, 60, 1463.926635742188
0, 1, 61, 1452.957641601562
0, 1, 62, 1458.215576171875
0, 1, 63, 1414.4462890625
0, 1, 64, 1474.606323242188
0, 1, 65, 1419.418579101562
0, 1, 66, 1441.239135742188
0, 1, 67, 1454.34814453125
0, 1, 68, 1390.458740234375
0, 1, 69, 1463.088989257812
0, 1, 70, 1431.209350585938
0, 1, 71, 1496.088134765625
0, 1, 72, 1430.237060546875
0, 1, 73, 1488.8779296875
0, 1, 74, 1468.12744140625
0, 1, 75, 1479.885375976562
0, 1, 76, 1456.331420898438
0, 1, 77, 1461.431030273438
0, 1, 78, 1450.80126953125
0, 1, 79, 1500.913330078125
0, 1, 80, 1446.468139648438
0, 1, 81, 1421.279052734375
0, 1, 82, 1472.328491210938
0, 1, 83, 1464.0478515625
0, 1, 84, 1535.309326171875
0, 1, 85, 1445.565673828125
0, 1, 86, 1405.070678710938
0, 1, 87, 1419.791870117188
0, 1, 88, 1476.046142578125
0, 1, 89, 1471.118408203125
0, 1, 90, 1421.225952148438
0, 1, 91, 1466.023193359375
0, 1, 92, 1412.561767578125
0, 1, 93, 1461.024291992188
0, 1, 94, 1469.777465820312
0, 1, 95, 1422.792236328125
0, 1, 96, 1493.6474609375
0, 1, 97, 1516.365478515625
0, 1, 98, 1474.742065429688
0, 1, 99, 1425.006958007812
0, 1, 100, 1448.70703125
0, 1, 101, 1415.973999023438
0, 1, 102, 1443.651611328125
0, 1, 103, 1411.450439453125
0, 1, 104, 1410.53857421875
0, 1, 105, 1459.331909179688
0, 1, 106, 1365.162231445312
0, 1, 107, 1016.447570800781
0, 1, 108, 403.8152160644531
0, 1, 109, 90.94924163818359
0, 1, 110, 64.66176605224609
0, 1, 111, 59.06261825561523
0, 1, 112, 52.09590911865234
0, 1, 113, 40.8572883605957
0, 1, 114, 39.52967834472656
0, 1, 115, 36.87739562988281
0, 1, 116, 32.99956512451172
0, 1, 117, 35.49536895751953
0, 1, 118, 36.24565124511719
0, 1, 119, 31.26826858520508
0, 1, 120, 31.74431991577148
0, 1, 121, 31.05631446838379
0, 1, 122, 21.08350944519043
0, 1, 123, 24.43389892578125
0, 1, 124, 29.38803672790527
0, 1, 125, 16.43131446838379
0, 1, 126, 20.12876319885254
0, 1, 127, 24.26925849914551
0, 2, 0, 20.39842224121094
0, 2, 1, 18.90190315246582
0, 2, 2, 24.98172187805176
0, 2, 3, 25.50981712341309
0, 2, 4, 25.21090888977051
0, 2, 5, 27.00877571105957
0, 2, 6, 25.5838451385498
0, 2, 7, 20.0825080871582
0, 2, 8, 25.74396324157715
0, 2, 9, 31.48779487609863
0, 2, 10, 38.77338027954102
0, 2, 11, 37.52485656738281
0, 2, 12, 39.63220977783203
0, 2, 13, 46.55851745605469
0, 2, 14, 45.10014724731445
0, 2, 15, 46.55149841308594
0, 2, 16, 66.88624572753906
0, 2, 17, 79.94194793701172
0, 2, 18, 142.3698272705078
0, 2, 19, 604.3671264648438
0, 2, 20, 1286.222045898438
0, 2, 21, 1434.088500976562
0, 2, 22, 1461.338745117188
0, 2, 23, 1403.840576171875
0, 2, 24, 1445.725341796875
0, 2, 25, 1524.432739257812
0, 2, 26, 1557.408325195312
0, 2, 27, 1455.295776367188
0, 2, 28, 1459.134521484375
0, 2, 29, 1463.237060546875
0, 2, 30, 1466.257568359375
0, 2, 31, 1538.302490234375
0, 2, 32, 1503.25830078125
0, 2, 33, 1439.6103515625
0, 2, 34, 1471.308959960938
0, 2, 35, 1471.260131835938
0, 2, 36, 1524.033081054688
0, 2, 37, 1540.788208007812
0, 2, 38, 1508.541870117188
0, 2, 39, 1465.121704101562
0, 2, 40, 1502.67236328125
0, 2, 41, 1519.101806640625
0, 2, 42, 1507.5595703125
0, 2, 43, 1550.506958007812
0, 2, 44, 1457.252319335938
0, 2, 45, 1481.697875976562
0, 2, 46, 1424.162353515625
0, 2, 47, 1443.140380859375
0, 2, 48, 1393.828125
0, 2, 49, 1460.969482421875
0, 2, 50, 1440.60693359375
0, 2, 51, 1444.309204101562
0, 2, 52, 1491.291015625
0, 2, 53, 1519.263305664062
0, 2, 54, 1529.2197265625
0, 2, 55, 1493.751098632812
0, 2, 56, 1463.488403320312
0, 2, 57, 1411.427368164062
0, 2, 58, 1450.208984375
0, 2, 59, 1455.072021484375
0, 2, 60, 1474.35595703125
0, 2, 61, 1450.467041015625
0, 2, 62, 1473.142822265625
0, 2, 63, 1509.275390625
0, 2, 64, 1456.642944335938
0, 2, 65, 1426.275756835938
0, 2, 66, 1489.946044921875
0, 2, 67, 1506.458984375
0, 2, 68, 1539.45068359375
0, 2, 69, 1535.38037109375
0, 2, 70, 1506.558349609375
0, 2, 71, 1459.22900390625
0, 2, 72, 1516.77587890625
0, 2, 73, 1521.935546875
0, 2, 74, 1489.369384765625
0, 2, 75, 1505.701538085938
0, 2, 76, 1447.928344726562
0, 2, 77, 1502.375610351562
0, 2, 78, 1437.751953125
0, 2, 79, 1541.854858398438
0, 2, 80, 1481.02294921875
0, 2, 81, 1462.817749023438
0, 2, 82, 1557.137451171875
0, 2, 83, 1515.353637695312
0, 2, 84, 1497.502319335938
0, 2, 85, 1517.675170898438
0, 2, 86, 1538.584838867188
0, 2, 87, 1489.130126953125
0, 2, 88, 1543.21875
0, 2, 89, 1464.2119140625
0, 2, 90, 1431.330444335938
0, 2, 91, 1405.469360351562
0, 2, 92, 1480.394775390625
0, 2, 93, 1495.067993164062
0, 2, 94, 1453.752075195312
0, 2, 95, 1540.647216796875
0, 2, 96, 1514.919311523438
0, 2, 97, 1456.744262695312
0, 2, 98, 1463.076416015625
0, 2, 99, 1397.56787109375
0, 2, 100, 1467.309204101562
0, 2, 101, 1478.65087890625
0, 2, 102, 1464.056884765625
0, 2, 103, 1389.912963867188
0, 2, 104, 1406.146118164062
0, 2, 105, 1394.307006835938
0, 2, 106, 1459.596923828125
0, 2, 107, 1273.625854492188
0, 2, 108, 618.6177978515625
0, 2, 109, 172.2418823242188
0, 2, 110, 62.63978576660156
0, 2, 111, 64.56199645996094
0, 2, 112, 44.05975723266602
0, 2, 113, 44.60717391967773
0, 2, 114, 39.56554794311523
0, 2, 115, 40.19429397583008
0, 2, 116, 31.79149436950684
0, 2, 117, 37.68432998657227
0, 2, 118, 35.36569213867188
0, 2, 119, 36.95979690551758
0, 2, 120, 32.38980484008789
0, 2, 121, 18.30039024353027
0, 2, 122, 27.34573173522949
0, 2, 123, 19.8917293548584
0, 2, 124, 26.21962547302246
0, 2, 125, 29.51714134216309
0, 2, 126, 22.8712158203125
0, 2, 127, 20.14532661437988
0, 3, 0, 14.99450397491455
0, 3, 1, 22.57930183410645
0, 3, 2, 26.37295150756836
0, 3, 3, 18.88869857788086
0, 3, 4, 20.29786491394043
0, 3, 5, 25.69901466369629
0, 3, 6, 26.97559547424316
0, 3, 7, 28.03928184509277
0, 3, 8, 30.76342010498047
0, 3, 9, 27.76424980163574
0, 3, 10, 34.95531463623047
0, 3, 11, 34.37395095825195
0, 3, 12, 42.82136917114258
0, 3, 13, 55.10221862792969
0, 3, 14, 61.0099983215332
0, 3, 15, 55.45085906982422
0, 3, 16, 65.31781005859375
0, 3, 17, 86.73513793945312
0, 3, 18, 241.4717559814453
0, 3, 19, 881.7587280273438
0, 3, 20, 1385.92919921875
0, 3, 21, 1509.132446289062
0, 3, 22, 1463.099975585938
0, 3, 23, 1453.142456054688
0, 3, 24, 1438.537231445312
0, 3, 25, 1463.8779296875
0, 3, 26, 1493.857666015625
0, 3, 27, 1469.26904296875
0, 3, 28, 1490.803955078125
0, 3, 29, 1541.08447265625
0, 3, 30, 1571.949096679688
0, 3, 31, 1512.681396484375
0, 3, 32, 1542.255981445312
0, 3, 33, 1539.576049804688
0, 3, 34, 1494.99951171875
0, 3, 35, 1461.387084960938
0, 3, 36, 1448.22705078125
0, 3, 37, 1516.155517578125
0, 3, 38, 1514.368286132812
0, 3, 39, 1439.527465820312
0, 3, 40, 1440.231323242188
0, 3, 41, 1562.95654296875
0, 3, 42, 1455.974243164062
0, 3, 43, 1455.174926757812
0, 3, 44, 1447.577880859375
0, 3, 45, 1505.328491210938
0, 3, 46, 1504.394287109375
0, 3, 47, 1440.240234375
0, 3, 48, 1509.2275390625
0, 3, 49, 1450.867065429688
0, 3, 50, 1494.639404296875
0, 3, 51, 1541.70849609375
0, 3, 52, 1536.28662109375
0, 3, 53, 1466.902954101562
0, 3, 54, 1538.130981445312
0, 3, 55, 1505.610107421875
0, 3, 56, 1435.30908203125
0, 3, 57, 1502.745483398438
0, 3, 58, 1513.143188476562
0, 3, 59, 1510.151489257812
0, 3, 60, 1533.303466796875
0, 3, 61, 1480.171752929688
0, 3, 62, 1491.370727539062
0, 3, 63, 1491.564819335938
0, 3, 64, 1506.349731445312
0, 3, 65, 1518.154296875
0, 3, 66, 1555.37060546875
0, 3, 67, 1544.806640625
0, 3, 68, 1453.70556640625
0, 3, 69, 1464.93505859375
0, 3, 70, 1391.169677734375
0, 3, 71, 1463.3056640625
0, 3, 72, 1543.6181640625
0, 3, 73, 1503.057250976562
0, 3, 74, 1463.692504882812
0, 3, 75, 1464.89208984375
0, 3, 76, 1577.665649414062
0, 3, 77, 1539.050903320312
0, 3, 78, 1436.97216796875
0, 3, 79, 1493.9091796875
0, 3, 80, 1463.837768554688
0, 3, 81, 1474.880859375
0, 3, 82, 1556.61279296875
0, 3, 83, 1512.321533203125
0, 3, 84, 1558.482788085938
0, 3, 85, 1477.357788085938
0, 3, 86, 1522.297973632812
0, 3, 87, 1534.6904296875
0, 3, 88, 1457.758178710938
0, 3, 89, 1448.039184570312
0, 3, 90, 1450.990356445312
0, 3, 91, 1420.161743164062
0, 3, 92, 1513.751953125
0, 3, 93, 1502.44775390625
0, 3, 94, 1517.396240234375
0, 3, 95, 1542.154907226562
0, 3, 96, 1515.60888671875
0, 3, 97, 1465.022094726562
0, 3, 98, 1432.714599609375
0, 3, 99, 1468.169921875
0, 3, 100, 1471.076049804688
0, 3, 101, 1476.40966796875
0, 3, 102, 1522.239135742188
0, 3, 103, 1555.85205078125
0, 3, 104, 1501.946655273438
0, 3, 105, 1514.23193359375
0, 3, 106, 1475.763427734375
0, 3, 107, 1345.5146484375
0, 3, 108, 869.4464111328125
0, 3, 109, 262.173095703125
0, 3, 110, 102.256950378418
0, 3, 111, 64.19658660888672
0, 3, 112, 58.00489044189453
0, 3, 113, 51.21642684936523
0, 3, 114, 50.29129791259766
0, 3, 115, 49.39513397216797
0, 3, 116, 40.9869499206543
0, 3, 117, 38.41448211669922
0, 3, 118, 31.94820213317871
0, 3, 119, 30.86975479125977
0, 3, 120, 29.31908988952637
0, 3, 121, 20.43112373352051
0, 3, 122, 21.77908706665039
0, 3, 123, 29.44526863098145
0, 3, 124, 22.47137069702148
0, 3, 125, 29.18513679504395
0, 3, 126, 24.54041862487793
0, 3, 127, 16.7168025970459
0, 4, 0, 18.7726001739502
0, 4, 1, 26.70631217956543
0, 4, 2, 19.66029739379883
0, 4, 3, 19.84342384338379
0, 4, 4, 22.20151710510254
0, 4, 5, 27.15469169616699
0, 4, 6, 26.57943916320801
0, 4, 7, 32.3072624206543
0, 4, 8, 26.96176147460938
0, 4, 9, 36.81148529052734
0, 4, 10, 31.78842735290527
0, 4, 11, 39.62968826293945
0, 4, 12, 47.77882385253906
0, 4, 13, 53.04996109008789
0, 4, 14, 50.31420516967773
0, 4, 15, 61.06686019897461
0, 4, 16, 74.93616485595703
0, 4, 17, 113.4402008056641
0, 4, 18, 447.3923950195312
0, 4, 19, 1184.46240234375
0, 4, 20, 1446.800415039062
0, 4, 21, 1422.70263671875
0, 4, 22, 1430.235229492188
0, 4, 23, 1452.22900390625
0, 4, 24, 1475.60205078125
0, 4, 25, 1404.351928710938
0, 4, 26, 1537.74951171875
0, 4, 27, 1546.404052734375
0, 4, 28, 1508.641845703125
0, 4, 29, 1513.916137695312
0, 4, 30, 1529.412231445312
0, 4, 31, 1578.52490234375
0, 4, 32, 1515.492919921875
0, 4, 33, 1498.777587890625
0, 4, 34, 1471.57470703125
0, 4, 35, 1556.39404296875
0, 4, 36, 1501.981811523438
0, 4, 37, 1509.9267578125
0, 4, 38, 1529.325927734375
0, 4, 39, 1467.329345703125
0, 4, 40, 1511.794311523438
0, 4, 41, 1582.598510742188
0, 4, 42, 1564.292358398438
0, 4, 43, 1475.432006835938
0, 4, 44, 1499.572387695312
0, 4, 45, 1517.859741210938
0, 4, 46, 1466.699340820312
0, 4, 47, 1504.908447265625
0, 4, 48, 1528.057983398438
0, 4, 49, 1478.21435546875
0, 4, 50, 1515.723754882812
0, 4, 51, 1494.479614257812
0, 4, 52, 1492.413940429688
0, 4, 53, 1452.930297851562
0, 4, 54, 1437.68212890625
0, 4, 55, 1526.724365234375
0, 4, 56, 1454.296264648438
0, 4, 57, 1500.453125
0, 4, 58, 1460.66845703125
0, 4, 59, 1467.119995117188
0, 4, 60, 1530.280517578125
0, 4, 61, 1497.454956054688
0, 4, 62, 1498.884765625
0, 4, 63, 1544.19384765625
0, 4, 64, 1597.237548828125
0, 4, 65, 1424.984741210938
0, 4, 66, 1510.884765625
0, 4, 67, 1519.087280273438
0, 4, 68, 1495.218383789062
0, 4, 69, 1466.604614257812
0, 4, 70, 1544.500122070312
0, 4, 71, 1521.45947265625
0, 4, 72, 1530.147705078125
0, 4, 73, 1494.267211914062
0, 4, 74, 1487.26708984375
0, 4, 75, 1539.747802734375
0, 4, 76, 1479.510009765625
0, 4, 77, 1502.651000976562
0, 4, 78, 1499.987426757812
0, 4, 79, 1484.36962890625
0, 4, 80, 1515.377563476562
0, 4, 81, 1525.156982421875
0, 4, 82, 1564.278686523438
0, 4, 83, 1504.31494140625
0, 4, 84, 1535.282470703125
0, 4, 85, 1557.299560546875
0, 4, 86, 1527.49951171875
0, 4, 87, 1500.95849609375
0, 4, 88, 1512.796630859375
0, 4, 89, 1479.4912109375
0, 4, 90, 1542.856201171875
0, 4, 91, 1552.14404296875
0, 4, 92, 1492.6005859375
0, 4, 93, 1520.302978515625
0, 4, 94, 1484.31298828125
0, 4, 95, 1514.454223632812
0, 4, 96, 1442.032592773438
0, 4, 97, 1409.695678710938
0, 4, 98, 1556.823608398438
0, 4, 99, 1510.0654296875
0, 4, 100, 1494.033203125
0, 4, 101, 1447.28076171875
0, 4, 102, 1450.290771484375
0, 4, 103, 1512.591796875
0, 4, 104, 1511.955688476562
0, 4, 105, 1556.896850585938
0, 4, 106, 1481.30712890625
0, 4, 107, 1460.082153320312
0, 4, 108, 1121.598022460938
0, 4, 109, 437.94970703125
0, 4, 110, 97.73172760009766
0, 4, 111, 71.81090545654297
0, 4, 112, 58.08408737182617
0, 4, 113, 52.50532531738281
0, 4, 114, 60.42279052734375
0, 4, 115, 47.39480972290039
0, 4, 116, 35.84883880615234
0, 4, 117, 40.78494262695312
0, 4, 118, 44.75940322875977
0, 4, 119, 32.48373031616211
0, 4, 120, 30.17625617980957
0, 4, 121, 26.95357894897461
0, 4, 122, 33.28384780883789
0, 4, 123, 29.29207801818848
0, 4, 124, 21.08135223388672
0, 4, 125, 31.65971565246582
0, 4, 126, 24.20871925354004
0, 4, 127, 24.38020706176758
0, 5, 0, 23.3281421661377
0, 5, 1, 25.74418640136719
0, 5, 2, 36.07537460327148
0, 5, 3, 22.24365043640137
0, 5, 4, 19.10187530517578
0, 5, 5, 35.58490371704102
0, 5, 6, 28.46995544433594
0, 5, 7, 28.38833618164062
0, 5, 8, 32.27441024780273
0, 5, 9, 30.79888343811035
0, 5, 10, 33.58393096923828
0, 5, 11, 35.71135711669922
0, 5, 12, 40.40230560302734
0, 5, 13, 46.53095626831055
0, 5, 14, 64.40999603271484
0, 5, 15, 78.38478088378906
0, 5, 16, 80.06985473632812
0, 5, 17, 160.5669250488281
0, 5, 18, 675.300048828125
0, 5, 19, 1343.162231445312
0, 5, 20, 1525.532958984375
0, 5, 21, 1491.149658203125
0, 5, 22, 1494.160766601562
0, 5, 23, 1524.90478515625
0, 5, 24, 1465.103271484375
0, 5, 25, 1423.26513671875
0, 5, 26, 1527.20361328125
0, 5, 27, 1540.133544921875
0, 5, 28, 1486.80712890625
0, 5, 29, 1521.0732421875
0, 5, 30, 1492.852783203125
0, 5, 31, 1500.81494140625
0, 5, 32, 1590.960205078125
0, 5, 33, 1502.405029296875
0, 5, 34, 1485.75244140625
0, 5, 35, 1516.435546875
0, 5, 36, 1442.90576171875
0, 5, 37, 1530.884765625
0, 5, 38, 1546.763671875
0, 5, 39, 1552.150634765625
0, 5, 40, 1500.334350585938
0, 5, 41, 1476.163696289062
0, 5, 42, 1543.864868164062
0, 5, 43, 1533.900146484375
0, 5, 44, 1543.351684570312
0, 5, 45, 1506.720825195312
0, 5, 46, 1488.940185546875
0, 5, 47, 1480.244750976562
0, 5, 48, 1503.627319335938
0, 5, 49, 1523.567626953125
0, 5, 50, 1502.190795898438
0, 5, 51, 1515.769897460938
0, 5, 52, 1431.990234375
0, 5, 53, 1524.067749023438
0, 5, 54, 1519.253295898438
0, 5, 55, 1524.949951171875
0, 5, 56, 1486.732177734375
0, 5, 57, 1542.06298828125
0, 5, 58, 1504.732421875
0, 5, 59, 1486.995727539062
0, 5, 60, 1532.126342773438
0, 5, 61, 1451.970336914062
0, 5, 62, 1588.431030273438
0, 5, 63, 1433.00244140625
0, 5, 64, 1488.97314453125
0, 5, 65, 1467.54052734375
0, 5, 66, 1533.243041992188
0, 5, 67, 1558.101196289062
0, 5, 68, 1465.205200195312
0, 5, 69, 1484.393676757812
0, 5, 70, 1486.859375
0, 5, 71, 1477.050903320312
0, 5, 72, 1537.470092773438
0, 5, 73, 1462.649047851562
0, 5, 74, 1492.752807617188
0, 5, 75, 1487.585571289062
0, 5, 76, 1480.638305664062
0, 5, 77, 1515.340087890625
0, 5, 78, 1521.408447265625
0, 5, 79, 1510.384033203125
0, 5, 80, 1518.328979492188
0, 5, 81, 1594.728393554688
0, 5, 82, 1521.800170898438
0, 5, 83, 1485.422119140625
0, 5, 84, 1534.46826171875
0, 5, 85, 1515.784301757812
0, 5, 86, 1564.290771484375
0, 5, 87, 1472.818237304688
0, 5, 88, 1492.959106445312
0, 5, 89, 1480.464111328125
0, 5, 90, 1482.63671875
0, 5, 91, 1551.020263671875
0, 5, 92, 1479.176635742188
0, 5, 93, 1556.368286132812
0, 5, 94, 1507.76123046875
0, 5, 95, 1563.86962890625
0, 5, 96, 1494.427368164062
0, 5, 97, 1507.568481445312
0, 5, 98, 1506.158813476562
0, 5, 99, 1539.739624023438
0, 5, 100, 1434.55615234375
0, 5, 101, 1431.423706054688
0, 5, 102, 1515.443115234375
0, 5, 103, 1474.787841796875
0, 5, 104, 1459.64306640625
0, 5, 105, 1490.716064453125
0, 5, 106, 1458.882202148438
0, 5, 107, 1397.212646484375
0, 5, 108, 1290.934326171875
0, 5, 109, 720.2341918945312
0, 5, 110, 192.0120086669922
0, 5, 111, 91.55726623535156
0, 5, 112, 76.97199249267578
0, 5, 113, 65.76420593261719
0, 5, 114, 59.35874176025391
0, 5, 115, 53.86809921264648
0, 5, 116, 40.59455108642578
0, 5, 117, 33.85998153686523
0, 5, 118, 43.20808410644531
0, 5, 119, 31.86595916748047
0, 5, 120, 29.46616744995117
0, 5, 121, 31.10359573364258
0, 5, 122, 26.86438369750977
0, 5, 123, 27.15868949890137
0, 5, 124, 24.55305099487305
0, 5, 125, 24.85055351257324
0, 5, 126, 21.59833717346191
0, 5, 127, 24.145751953125
0, 6, 0, 18.13266181945801
0, 6, 1, 30.18353843688965
0, 6, 2, 30.24501991271973
0, 6, 3, 29.68936920166016
0, 6, 4, 24.6840648651123
0, 6, 5, 32.3393440246582
0, 6, 6, 37.18068695068359
0, 6, 7, 33.50813674926758
0, 6, 8, 41.04276275634766
0, 6, 9, 34.57073974609375
0, 6, 10, 37.44990921020508
0, 6, 11, 37.48390960693359
0, 6, 12, 36.48448944091797
0, 6, 13, 57.99889755249023
0, 6, 14, 63.95886611938477
0, 6, 15, 82.65981292724609
0, 6, 16, 112.2931594848633
0, 6, 17, 301.7300109863281
0, 6, 18, 902.7066040039062
0, 6, 19, 1374.912841796875
0, 6, 20, 1436.64892578125
0, 6, 21, 1531.977172851562
0, 6, 22, 1502.879760742188
0, 6, 23, 1530.7626953125
0, 6, 24, 1477.926147460938
0, 6, 25, 1529.84130859375
0, 6, 26, 1520.286865234375
0, 6, 27, 1520.652587890625
0, 6, 28, 1554.978759765625
0, 6, 29, 1568.833251953125
0, 6, 30, 1519.947265625
0, 6, 31, 1492.89599609375
0, 6, 32, 1525.376831054688
0, 6, 33, 1491.019775390625
0, 6, 34, 1564.202514648438
0, 6, 35, 1500.251586914062
0, 6, 36, 1441.248779296875
0, 6, 37, 1546.684936523438
0, 6, 38, 1522.833862304688
0, 6, 39, 1520.972534179688
0, 6, 40, 1457.61474609375
0, 6, 41, 1441.143798828125
0, 6, 42, 1519.62451171875
0, 6, 43, 1486.413452148438
0, 6, 44, 1430.010009765625
0, 6, 45, 1543.538330078125
0, 6, 46, 1557.866088867188
0, 6, 47, 1493.45166015625
0, 6, 48, 1525.017822265625
0, 6, 49, 1508.419067382812
0, 6, 50, 1572.82275390625
0, 6, 51, 1503.705444335938
0, 6, 52, 1562.013793945312
0, 6, 53, 1472.213745117188
0, 6, 54, 1498.723022460938
0, 6, 55, 1573.428588867188
0, 6, 56, 1516.923095703125
0, 6, 57, 1501.6650390625
0, 6, 58, 1469.094360351562
0, 6, 59, 1521.511962890625
0, 6, 60, 1471.739990234375
0, 6, 61, 1576.623657226562
0, 6, 62, 1544.482055664062
0, 6, 63, 1498.1142578125
0, 6, 64, 1409.8623046875
0, 6, 65, 1491.111328125
0, 6, 66, 1511.244140625
0, 6, 67, 1509.46142578125
0, 6, 68, 1546.070190429688
0, 6, 69, 1493.018676757812
0, 6, 70, 1526.292358398438
0, 6, 71, 1467.378173828125
0, 6, 72, 1594.07177734375
0, 6, 73, 1487.609619140625
0, 6, 74, 1557.395263671875
0, 6, 75, 1535.144287109375
0, 6, 76, 1564.600219726562
0, 6, 77, 1510.068603515625
0, 6, 78, 1445.298828125
0, 6, 79, 1556.514770507812
0, 6, 80, 1482.56689453125
0, 6, 81, 1483.302368164062
0, 6, 82, 1502.971069335938
0, 6, 83, 1524.17138671875
0, 6, 84, 1515.4658203125
0, 6, 85, 1540.778442382812
0, 6, 86, 1538.444702148438
0, 6, 87, 1570.609497070312
0, 6, 88, 1481.447021484375
0, 6, 89, 1563.16015625
0, 6, 90, 1492.19970703125
0, 6, 91, 1542.458740234375
0, 6, 92, 1491.61279296875
0, 6, 93, 1501.471435546875
0, 6, 94, 1477.949584960938
0, 6, 95, 1507.671630859375
0, 6, 96, 1522.912963867188
0, 6, 97, 1504.628173828125
0, 6, 98, 1491.757690429688
0, 6, 99, 1483.501220703125
0, 6, 100, 1517.429931640625
0, 6, 101, 1516.419799804688
0, 6, 102, 1539.4609375
0, 6, 103, 1498.856201171875
0, 6, 104, 1461.8173828125
0, 6, 105, 1485.085327148438
0, 6, 106, 1499.097900390625
0, 6, 107, 1503.715698242188
0, 6, 108, 1405.897094726562
0, 6, 109, 923.4801025390625
0, 6, 110, 283.3307189941406
0, 6, 111, 95.80220794677734
0, 6, 112, 77.63286590576172
0, 6, 113, 57.16085815429688
0, 6, 114, 52.7145881652832
0, 6, 115, 45.42204284667969
0, 6, 116, 43.25827407836914
0, 6, 117, 45.71517944335938
0, 6, 118, 41.00608444213867
0, 6, 119, 39.69984817504883
0, 6, 120, 31.06337928771973
0, 6, 121, 28.89730453491211
0, 6, 122, 30.53789710998535
0, 6, 123, 24.28128433227539
0, 6, 124, 24.91603660583496
0, 6, 125, 31.28812789916992
0, 6, 126, 18.61738014221191
0, 6, 127, 24.08846855163574
0, 7, 0, 24.76491165161133
0, 7, 1, 29.17590713500977
0, 7, 2, 22.32028770446777
0, 7, 3, 24.20903205871582
0, 7, 4, 24.4221076965332
0, 7, 5, 38.06106948852539
0, 7, 6, 33.92987823486328
0, 7, 7, 34.17744445800781
0, 7, 8, 35.72323608398438
0, 7, 9, 32.98966979980469
0, 7, 10, 43.43494033813477
0, 7, 11, 47.33919525146484
0, 7, 12, 47.93785095214844
0, 7, 13, 46.55435562133789
0, 7, 14, 65.10482788085938
0, 7, 15, 71.92182922363281
0, 7, 16, 130.7995452880859
0, 7, 17, 461.9844360351562
0, 7, 18, 1098.22412109375
0, 7, 19, 1498.567138671875
0, 7, 20, 1490.809692382812
0, 7, 21, 1363.75537109375
0, 7, 22, 1490.324340820312
0, 7, 23, 1452.117919921875
0, 7, 24, 1508.461669921875
0, 7, 25, 1593.28564453125
0, 7, 26, 1517.899047851562
0, 7, 27, 1510.07275390625
0, 7, 28, 1545.5869140625
0, 7, 29, 1578.7841796875
0, 7, 30, 1551.2236328125
0, 7, 31, 1436.631469726562
0, 7, 32, 1546.106567382812
0, 7, 33, 1495.888061523438
0, 7, 34, 1478.384521484375
0, 7, 35, 1522.918579101562
0, 7, 36, 1471.638916015625
0, 7, 37, 1600.542114257812
0, 7, 38, 1501.7607421875
0, 7, 39, 1487.810668945312
0, 7, 40, 1541.841552734375
0, 7, 41, 1467.026611328125
0, 7, 42, 1489.133666992188
0, 7, 43, 1446.165283203125
0, 7, 44, 1492.768432617188
0, 7, 45, 1469.616333007812
0, 7, 46, 1512.764526367188
0, 7, 47, 1566.670532226562
0, 7, 48, 1524.499145507812
0, 7, 49, 1537.368041992188
0, 7, 50, 1517.993530273438
0, 7, 51, 1494.10400390625
0, 7, 52, 1518.796997070312
0, 7, 53, 1493.498413085938
0, 7, 54, 1585.687744140625
0, 7, 55, 1471.180297851562
0, 7, 56, 1548.889282226562
0, 7, 57, 1516.9228515625
0, 7, 58, 1551.041870117188
0, 7, 59, 1541.736328125
0, 7, 60, 1552.84912109375
0, 7, 61, 1489.342407226562
0, 7, 62, 1435.425903320312
0, 7, 63, 1512.478515625
0, 7, 64, 1545.466064453125
0, 7, 65, 1531.506713867188
0, 7, 66, 1537.253662109375
0, 7, 67, 1581.131591796875
0, 7, 68, 1530.463134765625
0, 7, 69, 1516.344360351562
0, 7, 70, 1495.627563476562
0, 7, 71, 1524.360473632812
0, 7, 72, 1522.446411132812
0, 7, 73, 1519.747436523438
0, 7, 74, 1582.606079101562
0, 7, 75, 1538.265502929688
0, 7, 76, 1563.029418945312
0, 7, 77, 1511.900024414062
0, 7, 78, 1508.793823242188
0, 7, 79, 1424.149536132812
0, 7, 80, 1485.739501953125
0, 7, 81, 1492.915283203125
0, 7, 82, 1533.77197265625
0, 7, 83, 1542.83349609375
0, 7, 84, 1586.150146484375
0, 7, 85, 1478.64794921875
0, 7, 86, 1505.766967773438
0, 7, 87, 1506.842529296875
0, 7, 88, 1502.7275390625
0, 7, 89, 1553.236328125
0, 7, 90, 1520.58984375
0, 7, 91, 1563.46826171875
0, 7, 92, 1531.122314453125
0, 7, 93, 1550.818115234375
0, 7, 94, 1536.365966796875
0, 7, 95, 1504.943969726562
0, 7, 96, 1507.9814453125
0, 7, 97, 1430.758666992188
0, 7, 98, 1484.632446289062
0, 7, 99, 1523.382080078125
0, 7, 100, 1416.960205078125
0, 7, 101, 1465.957397460938
0, 7, 102, 1446.74072265625
0, 7, 103, 1429.138427734375
0, 7, 104, 1491.339233398438
0, 7, 105, 1526.380981445312
0, 7, 106, 1569.253173828125
0, 7, 107, 1479.076293945312
0, 7, 108, 1414.897094726562
0, 7, 109, 1149.2470703125
0, 7, 110, 471.4457702636719
0, 7, 111, 128.8900909423828
0, 7, 112, 80.266357421875
0, 7, 113, 66.52045440673828
0, 7, 114, 60.22263336181641
0, 7, 115, 53.79713439941406
0, 7, 116, 47.03931045532227
0, 7, 117, 42.90990829467773
0, 7, 118, 31.62372207641602
0, 7, 119, 35.22117233276367
0, 7, 120, 24.25984191894531
0, 7, 121, 34.15363693237305
0, 7, 122, 32.01474380493164
0, 7, 123, 38.77994537353516
0, 7, 124, 27.19110298156738
0, 7, 125, 26.73552513122559
0, 7, 126, 25.57372093200684
0, 7, 127, 22.77249717712402
0, 8, 0, 22.64303016662598
0, 8, 1, 19.4400520324707
0, 8, 2, 24.44091796875
0, 8, 3, 27.3009033203125
0, 8, 4, 26.74416923522949
0, 8, 5, 34.86444854736328
0, 8, 6, 39.66763687133789
0, 8, 7, 25.70051193237305
0, 8, 8, 38.00622940063477
0, 8, 9, 41.93792724609375
0, 8, 10, 44.70504760742188
0, 8, 11, 44.56388092041016
0, 8, 12, 52.16608810424805
0, 8, 13, 71.5074462890625
0, 8, 14, 66.38228607177734
0, 8, 15, 88.77165985107422
0, 8, 16, 174.3988189697266
0, 8, 17, 675.112548828125
0, 8, 18, 1277.453369140625
0, 8, 19, 1445.558227539062
0, 8, 20, 1419.192016601562
0, 8, 21, 1408.032592773438
0, 8, 22, 1489.993896484375
0, 8, 23, 1482.5322265625
0, 8, 24, 1439.999389648438
0, 8, 25, 1456.424072265625
0, 8, 26, 1512.358520507812
0, 8, 27, 1522.996704101562
0, 8, 28, 1475.702758789062
0, 8, 29, 1509.00390625
0, 8, 30, 1484.646484375
0, 8, 31, 1539.571044921875
0, 8, 32, 1513.375854492188
0, 8, 33, 1483.672241210938
0, 8, 34, 1533.871948242188
0, 8, 35, 1445.043579101562
0, 8, 36, 1501.745971679688
0, 8, 37, 1554.32861328125
0, 8, 38, 1557.714111328125
0, 8, 39, 1495.009399414062
0, 8, 40, 1535.668579101562
0, 8, 41, 1484.490112304688
0, 8, 42, 1540.959594726562
0, 8, 43, 1431.788696289062
0, 8, 44, 1539.3466796875
0, 8, 45, 1509.4658203125
0, 8, 46, 1600.927612304688
0, 8, 47, 1584.602416992188
0, 8, 48, 1544.15283203125
