# TOPAS Version: 3.1.p3
# Parameter File: batch_inserts_356.txt
# Results for scorer Readout_Adipose
# Scored in component: MyBox
# X in 1 bin  of 0.75 cm
# Y in 512 bins of 0.0783984 cm
# Z in 128 bins of 0.078125 cm
# EnergyDeposit ( MeV ) : Sum   
0, 0, 0, 3.458308458328247
0, 0, 1, 4.469411373138428
0, 0, 2, 6.744184970855713
0, 0, 3, 2.192503929138184
0, 0, 4, 3.810985565185547
0, 0, 5, 3.540013790130615
0, 0, 6, 4.613618850708008
0, 0, 7, 8.191498756408691
0, 0, 8, 4.083049774169922
0, 0, 9, 4.793105602264404
0, 0, 10, 6.533860206604004
0, 0, 11, 3.869695425033569
0, 0, 12, 4.422062873840332
0, 0, 13, 9.238927841186523
0, 0, 14, 8.197515487670898
0, 0, 15, 8.690769195556641
0, 0, 16, 8.92143440246582
0, 0, 17, 8.406777381896973
0, 0, 18, 13.95985317230225
0, 0, 19, 42.93051147460938
0, 0, 20, 138.8482818603516
0, 0, 21, 222.5732269287109
0, 0, 22, 248.7437286376953
0, 0, 23, 254.5455932617188
0, 0, 24, 249.6178283691406
0, 0, 25, 259.0972595214844
0, 0, 26, 236.1929473876953
0, 0, 27, 236.1081237792969
0, 0, 28, 271.0489501953125
0, 0, 29, 252.8968200683594
0, 0, 30, 228.9302062988281
0, 0, 31, 244.3329925537109
0, 0, 32, 264.5399475097656
0, 0, 33, 261.1830444335938
0, 0, 34, 288.7835693359375
0, 0, 35, 267.8088684082031
0, 0, 36, 245.864501953125
0, 0, 37, 253.5081481933594
0, 0, 38, 269.0545654296875
0, 0, 39, 228.7027130126953
0, 0, 40, 241.3459320068359
0, 0, 41, 264.506103515625
0, 0, 42, 230.1831665039062
0, 0, 43, 260.5954895019531
0, 0, 44, 251.2433013916016
0, 0, 45, 253.8455963134766
0, 0, 46, 244.356689453125
0, 0, 47, 253.0552368164062
0, 0, 48, 270.5054016113281
0, 0, 49, 273.5789794921875
0, 0, 50, 250.7346343994141
0, 0, 51, 253.7694091796875
0, 0, 52, 275.7170715332031
0, 0, 53, 292.5949096679688
0, 0, 54, 245.0296936035156
0, 0, 55, 239.6420745849609
0, 0, 56, 277.5610656738281
0, 0, 57, 263.5650024414062
0, 0, 58, 245.5695037841797
0, 0, 59, 270.2217712402344
0, 0, 60, 235.0256652832031
0, 0, 61, 245.66650390625
0, 0, 62, 256.0079040527344
0, 0, 63, 267.1981811523438
0, 0, 64, 256.3835754394531
0, 0, 65, 262.2459106445312
0, 0, 66, 276.1567993164062
0, 0, 67, 246.8542022705078
0, 0, 68, 258.2495422363281
0, 0, 69, 262.6766662597656
0, 0, 70, 271.7704467773438
0, 0, 71, 239.9385070800781
0, 0, 72, 251.3303070068359
0, 0, 73, 257.2912902832031
0, 0, 74, 253.5344390869141
0, 0, 75, 239.2092132568359
0, 0, 76, 230.0886688232422
0, 0, 77, 262.9331359863281
0, 0, 78, 256.6368713378906
0, 0, 79, 278.6552124023438
0, 0, 80, 216.1767272949219
0, 0, 81, 266.5216674804688
0, 0, 82, 255.4886169433594
0, 0, 83, 243.7728576660156
0, 0, 84, 267.2209167480469
0, 0, 85, 231.2909240722656
0, 0, 86, 254.1304016113281
0, 0, 87, 250.9745330810547
0, 0, 88, 258.9093017578125
0, 0, 89, 282.5491943359375
0, 0, 90, 242.9362335205078
0, 0, 91, 280.9418640136719
0, 0, 92, 255.6358947753906
0, 0, 93, 249.0086364746094
0, 0, 94, 247.4743957519531
0, 0, 95, 248.2236785888672
0, 0, 96, 274.1678161621094
0, 0, 97, 271.9526977539062
0, 0, 98, 274.0346069335938
0, 0, 99, 258.6072082519531
0, 0, 100, 258.2470397949219
0, 0, 101, 226.5303955078125
0, 0, 102, 233.0204010009766
0, 0, 103, 270.8157653808594
0, 0, 104, 253.5445404052734
0, 0, 105, 252.4825897216797
0, 0, 106, 246.9946594238281
0, 0, 107, 152.7601318359375
0, 0, 108, 40.27607727050781
0, 0, 109, 12.20356750488281
0, 0, 110, 12.58909034729004
0, 0, 111, 9.597268104553223
0, 0, 112, 7.082698822021484
0, 0, 113, 4.65697193145752
0, 0, 114, 6.651829242706299
0, 0, 115, 3.721574306488037
0, 0, 116, 7.064281940460205
0, 0, 117, 5.842720508575439
0, 0, 118, 5.25090217590332
0, 0, 119, 8.287728309631348
0, 0, 120, 3.735424995422363
0, 0, 121, 4.717202663421631
0, 0, 122, 3.906962633132935
0, 0, 123, 3.792893886566162
0, 0, 124, 4.072665214538574
0, 0, 125, 2.194602012634277
0, 0, 126, 4.912026405334473
0, 0, 127, 2.982545852661133
0, 1, 0, 7.667891025543213
0, 1, 1, 2.830363273620605
0, 1, 2, 3.953182220458984
0, 1, 3, 3.350294351577759
0, 1, 4, 2.507459402084351
0, 1, 5, 1.972045063972473
0, 1, 6, 3.649385929107666
0, 1, 7, 6.532235622406006
0, 1, 8, 6.93736457824707
0, 1, 9, 3.585665225982666
0, 1, 10, 7.899609565734863
0, 1, 11, 10.68779373168945
0, 1, 12, 8.623503684997559
0, 1, 13, 11.16041946411133
0, 1, 14, 7.228092670440674
0, 1, 15, 6.48682689666748
0, 1, 16, 11.90406608581543
0, 1, 17, 9.724278450012207
0, 1, 18, 21.81208610534668
0, 1, 19, 66.27706909179688
0, 1, 20, 198.2203674316406
0, 1, 21, 254.6085357666016
0, 1, 22, 297.1630249023438
0, 1, 23, 283.0357666015625
0, 1, 24, 278.1262817382812
0, 1, 25, 286.4981994628906
0, 1, 26, 267.9338989257812
0, 1, 27, 305.6194152832031
0, 1, 28, 297.7579345703125
0, 1, 29, 296.412353515625
0, 1, 30, 281.7106628417969
0, 1, 31, 293.1558837890625
0, 1, 32, 293.4161682128906
0, 1, 33, 295.029052734375
0, 1, 34, 292.1404113769531
0, 1, 35, 279.0092468261719
0, 1, 36, 307.9859008789062
0, 1, 37, 294.7938232421875
0, 1, 38, 283.4781799316406
0, 1, 39, 295.1865234375
0, 1, 40, 267.2805480957031
0, 1, 41, 288.4158935546875
0, 1, 42, 288.8731079101562
0, 1, 43, 334.1044311523438
0, 1, 44, 278.1776733398438
0, 1, 45, 292.4059448242188
0, 1, 46, 259.3560791015625
0, 1, 47, 310.1424865722656
0, 1, 48, 284.3378295898438
0, 1, 49, 301.9719543457031
0, 1, 50, 262.157958984375
0, 1, 51, 273.0868835449219
0, 1, 52, 296.6101379394531
0, 1, 53, 305.8989868164062
0, 1, 54, 273.2374267578125
0, 1, 55, 292.265380859375
0, 1, 56, 276.8499450683594
0, 1, 57, 300.1255493164062
0, 1, 58, 309.2637329101562
0, 1, 59, 294.7017822265625
0, 1, 60, 296.5706787109375
0, 1, 61, 274.4369812011719
0, 1, 62, 308.6568298339844
0, 1, 63, 286.91015625
0, 1, 64, 288.93505859375
0, 1, 65, 295.3258056640625
0, 1, 66, 293.1576232910156
0, 1, 67, 291.5867614746094
0, 1, 68, 278.6547546386719
0, 1, 69, 280.0663757324219
0, 1, 70, 271.6329956054688
0, 1, 71, 272.9028625488281
0, 1, 72, 284.6802062988281
0, 1, 73, 306.3776550292969
0, 1, 74, 305.3173828125
0, 1, 75, 294.0406799316406
0, 1, 76, 287.1219177246094
0, 1, 77, 291.3190307617188
0, 1, 78, 297.0743408203125
0, 1, 79, 303.75
0, 1, 80, 294.2131652832031
0, 1, 81, 300.7254333496094
0, 1, 82, 282.8658142089844
0, 1, 83, 331.5587158203125
0, 1, 84, 307.6341552734375
0, 1, 85, 252.3912200927734
0, 1, 86, 293.95947265625
0, 1, 87, 292.3527526855469
0, 1, 88, 298.4642639160156
0, 1, 89, 289.4879760742188
0, 1, 90, 269.2686157226562
0, 1, 91, 318.2845458984375
0, 1, 92, 290.047119140625
0, 1, 93, 286.1960754394531
0, 1, 94, 303.189208984375
0, 1, 95, 285.6561584472656
0, 1, 96, 283.2717895507812
0, 1, 97, 301.152587890625
0, 1, 98, 276.551513671875
0, 1, 99, 268.4905395507812
0, 1, 100, 276.3415222167969
0, 1, 101, 283.0116577148438
0, 1, 102, 278.3325500488281
0, 1, 103, 280.5865478515625
0, 1, 104, 308.0348510742188
0, 1, 105, 296.1863403320312
0, 1, 106, 262.3572082519531
0, 1, 107, 191.7050628662109
0, 1, 108, 81.6724853515625
0, 1, 109, 23.27580261230469
0, 1, 110, 11.90461158752441
0, 1, 111, 7.515567302703857
0, 1, 112, 11.65928173065186
0, 1, 113, 5.717931270599365
0, 1, 114, 5.557792186737061
0, 1, 115, 8.079629898071289
0, 1, 116, 12.18928241729736
0, 1, 117, 6.928409099578857
0, 1, 118, 3.700227737426758
0, 1, 119, 6.536970138549805
0, 1, 120, 5.38024377822876
0, 1, 121, 3.8279709815979
0, 1, 122, 3.39985990524292
0, 1, 123, 3.613665819168091
0, 1, 124, 9.237138748168945
0, 1, 125, 5.767454624176025
0, 1, 126, 2.341058492660522
0, 1, 127, 2.023162126541138
0, 2, 0, 6.383639812469482
0, 2, 1, 1.485746383666992
0, 2, 2, 3.136467456817627
0, 2, 3, 3.78208327293396
0, 2, 4, 2.944202184677124
0, 2, 5, 1.348897933959961
0, 2, 6, 2.036949396133423
0, 2, 7, 3.142542839050293
0, 2, 8, 4.564407348632812
0, 2, 9, 5.806624412536621
0, 2, 10, 8.982517242431641
0, 2, 11, 8.161023139953613
0, 2, 12, 8.540923118591309
0, 2, 13, 9.486235618591309
0, 2, 14, 9.25083065032959
0, 2, 15, 9.426097869873047
0, 2, 16, 8.56401538848877
0, 2, 17, 16.42356872558594
0, 2, 18, 31.44137573242188
0, 2, 19, 117.5827102661133
0, 2, 20, 245.0087738037109
0, 2, 21, 270.8731079101562
0, 2, 22, 314.2034912109375
0, 2, 23, 301.1229248046875
0, 2, 24, 285.5331420898438
0, 2, 25, 303.7511901855469
0, 2, 26, 291.9295654296875
0, 2, 27, 275.3901977539062
0, 2, 28, 274.2075805664062
0, 2, 29, 273.1939086914062
0, 2, 30, 292.6237487792969
0, 2, 31, 277.1255798339844
0, 2, 32, 293.6024780273438
0, 2, 33, 282.7576293945312
0, 2, 34, 330.5697021484375
0, 2, 35, 289.5022583007812
0, 2, 36, 305.8847351074219
0, 2, 37, 316.1128845214844
0, 2, 38, 311.1572875976562
0, 2, 39, 268.1558532714844
0, 2, 40, 308.3831481933594
0, 2, 41, 293.4745178222656
0, 2, 42, 305.0740051269531
0, 2, 43, 315.3767395019531
0, 2, 44, 311.1502685546875
0, 2, 45, 324.9878234863281
0, 2, 46, 286.45263671875
0, 2, 47, 302.3297424316406
0, 2, 48, 283.9595642089844
0, 2, 49, 278.8550720214844
0, 2, 50, 296.2963562011719
0, 2, 51, 283.8702697753906
0, 2, 52, 273.0703430175781
0, 2, 53, 288.0072326660156
0, 2, 54, 281.5810852050781
0, 2, 55, 276.6108093261719
0, 2, 56, 300.7350158691406
0, 2, 57, 291.3066711425781
0, 2, 58, 304.8416748046875
0, 2, 59, 285.8902893066406
0, 2, 60, 319.1908264160156
0, 2, 61, 302.2931518554688
0, 2, 62, 311.7012329101562
0, 2, 63, 302.7190856933594
0, 2, 64, 297.8453063964844
0, 2, 65, 312.8738098144531
0, 2, 66, 279.3909606933594
0, 2, 67, 290.8023071289062
0, 2, 68, 296.4967651367188
0, 2, 69, 309.7034606933594
0, 2, 70, 335.01171875
0, 2, 71, 284.5311889648438
0, 2, 72, 301.6249084472656
0, 2, 73, 314.3270874023438
0, 2, 74, 288.4731750488281
0, 2, 75, 304.5010986328125
0, 2, 76, 288.3036499023438
0, 2, 77, 298.1434936523438
0, 2, 78, 316.954345703125
0, 2, 79, 308.3536682128906
0, 2, 80, 297.1570434570312
0, 2, 81, 282.1811218261719
0, 2, 82, 318.6539611816406
0, 2, 83, 312.6466064453125
0, 2, 84, 287.7948608398438
0, 2, 85, 282.2559509277344
0, 2, 86, 323.8952331542969
0, 2, 87, 285.9706420898438
0, 2, 88, 280.9241027832031
0, 2, 89, 295.0210266113281
0, 2, 90, 294.8410949707031
0, 2, 91, 277.3482360839844
0, 2, 92, 308.6491088867188
0, 2, 93, 314.9735412597656
0, 2, 94, 290.6351928710938
0, 2, 95, 314.5723876953125
0, 2, 96, 317.3996276855469
0, 2, 97, 291.7653198242188
0, 2, 98, 291.6598205566406
0, 2, 99, 273.5478820800781
0, 2, 100, 305.4867553710938
0, 2, 101, 301.5175170898438
0, 2, 102, 297.3876342773438
0, 2, 103, 292.5738220214844
0, 2, 104, 292.4778137207031
0, 2, 105, 274.3661193847656
0, 2, 106, 296.2747802734375
0, 2, 107, 269.711181640625
0, 2, 108, 115.6554641723633
0, 2, 109, 34.58403778076172
0, 2, 110, 9.429082870483398
0, 2, 111, 9.835755348205566
0, 2, 112, 6.879120349884033
0, 2, 113, 13.91376781463623
0, 2, 114, 12.98810482025146
0, 2, 115, 8.858636856079102
0, 2, 116, 8.670158386230469
0, 2, 117, 6.133780479431152
0, 2, 118, 3.939148902893066
0, 2, 119, 2.131136417388916
0, 2, 120, 5.187041759490967
0, 2, 121, 2.411440134048462
0, 2, 122, 5.129487037658691
0, 2, 123, 4.45804500579834
0, 2, 124, 3.611727237701416
0, 2, 125, 4.758318901062012
0, 2, 126, 2.321112632751465
0, 2, 127, 4.147044658660889
0, 3, 0, 4.681538105010986
0, 3, 1, 2.862967014312744
0, 3, 2, 2.88728928565979
0, 3, 3, 2.133556127548218
0, 3, 4, 3.714138031005859
0, 3, 5, 7.67145299911499
0, 3, 6, 6.686156749725342
0, 3, 7, 4.333252906799316
0, 3, 8, 6.718137741088867
0, 3, 9, 5.572630882263184
0, 3, 10, 5.707583904266357
0, 3, 11, 4.243083477020264
0, 3, 12, 6.085086822509766
0, 3, 13, 15.12612628936768
0, 3, 14, 11.41912364959717
0, 3, 15, 14.04484558105469
0, 3, 16, 12.9601936340332
0, 3, 17, 18.45732688903809
0, 3, 18, 52.4089469909668
0, 3, 19, 177.6703796386719
0, 3, 20, 269.2646484375
0, 3, 21, 271.6215209960938
0, 3, 22, 281.46240234375
0, 3, 23, 287.947509765625
0, 3, 24, 288.3029174804688
0, 3, 25, 269.750244140625
0, 3, 26, 303.8481140136719
0, 3, 27, 295.8487243652344
0, 3, 28, 282.3582458496094
0, 3, 29, 340.5592651367188
0, 3, 30, 315.8356018066406
0, 3, 31, 285.9428405761719
0, 3, 32, 306.2054443359375
0, 3, 33, 313.2038879394531
0, 3, 34, 319.9381103515625
0, 3, 35, 307.1630249023438
0, 3, 36, 272.3238830566406
0, 3, 37, 311.2001953125
0, 3, 38, 303.1890869140625
0, 3, 39, 292.398193359375
0, 3, 40, 267.743896484375
0, 3, 41, 298.7111511230469
0, 3, 42, 285.0394592285156
0, 3, 43, 303.69384765625
0, 3, 44, 311.0277709960938
0, 3, 45, 291.3932800292969
0, 3, 46, 328.3456115722656
0, 3, 47, 299.3499755859375
0, 3, 48, 304.1877746582031
0, 3, 49, 275.7799987792969
0, 3, 50, 290.7445373535156
0, 3, 51, 274.7869262695312
0, 3, 52, 317.2912902832031
0, 3, 53, 287.2940979003906
0, 3, 54, 284.1628723144531
0, 3, 55, 283.1009521484375
0, 3, 56, 299.1081848144531
0, 3, 57, 288.24755859375
0, 3, 58, 307.1489868164062
0, 3, 59, 297.1900634765625
0, 3, 60, 299.5692443847656
0, 3, 61, 265.9163513183594
0, 3, 62, 283.6812133789062
0, 3, 63, 306.0281066894531
0, 3, 64, 315.9779663085938
0, 3, 65, 306.1551818847656
0, 3, 66, 313.5987548828125
0, 3, 67, 318.8325805664062
0, 3, 68, 279.7371215820312
0, 3, 69, 281.6942443847656
0, 3, 70, 289.5810546875
0, 3, 71, 298.2656860351562
0, 3, 72, 270.5336303710938
0, 3, 73, 306.3385925292969
0, 3, 74, 290.5838012695312
0, 3, 75, 290.1626892089844
0, 3, 76, 306.8401184082031
0, 3, 77, 316.2462768554688
0, 3, 78, 304.1541137695312
0, 3, 79, 282.5541687011719
0, 3, 80, 289.6149291992188
0, 3, 81, 310.9673767089844
0, 3, 82, 316.1134033203125
0, 3, 83, 301.4880981445312
0, 3, 84, 310.8248291015625
0, 3, 85, 292.4173889160156
0, 3, 86, 302.4073486328125
0, 3, 87, 298.7693481445312
0, 3, 88, 302.2562255859375
0, 3, 89, 296.2958374023438
0, 3, 90, 276.3006286621094
0, 3, 91, 283.8153991699219
0, 3, 92, 304.1877136230469
0, 3, 93, 313.0546264648438
0, 3, 94, 296.6614685058594
0, 3, 95, 335.0119934082031
0, 3, 96, 292.04150390625
0, 3, 97, 282.2688598632812
0, 3, 98, 277.7184143066406
0, 3, 99, 263.7097778320312
0, 3, 100, 285.8829040527344
0, 3, 101, 297.2467041015625
0, 3, 102, 274.8666381835938
0, 3, 103, 319.3916931152344
0, 3, 104, 308.5762634277344
0, 3, 105, 287.9749755859375
0, 3, 106, 303.3851928710938
0, 3, 107, 282.5885620117188
0, 3, 108, 168.5390930175781
0, 3, 109, 56.96768569946289
0, 3, 110, 17.42350006103516
0, 3, 111, 12.23538494110107
0, 3, 112, 14.86064052581787
0, 3, 113, 7.724640369415283
0, 3, 114, 10.40379428863525
0, 3, 115, 9.004254341125488
0, 3, 116, 7.641090869903564
0, 3, 117, 8.280439376831055
0, 3, 118, 9.233982086181641
0, 3, 119, 8.055844306945801
0, 3, 120, 4.650672912597656
0, 3, 121, 3.032587289810181
0, 3, 122, 2.878670215606689
0, 3, 123, 4.958803653717041
0, 3, 124, 2.966718435287476
0, 3, 125, 6.367815017700195
0, 3, 126, 5.388375759124756
0, 3, 127, 3.4364013671875
0, 4, 0, 5.170608520507812
0, 4, 1, 5.79572868347168
0, 4, 2, 3.463886499404907
0, 4, 3, 2.064768314361572
0, 4, 4, 8.338154792785645
0, 4, 5, 10.03583145141602
0, 4, 6, 8.344307899475098
0, 4, 7, 3.812324523925781
0, 4, 8, 3.605941295623779
0, 4, 9, 7.338247776031494
0, 4, 10, 6.561433792114258
0, 4, 11, 6.941215991973877
0, 4, 12, 5.666882038116455
0, 4, 13, 9.849621772766113
0, 4, 14, 9.980292320251465
0, 4, 15, 10.55550384521484
0, 4, 16, 13.85126495361328
0, 4, 17, 17.66805076599121
0, 4, 18, 93.36705017089844
0, 4, 19, 221.7511138916016
0, 4, 20, 286.9740905761719
0, 4, 21, 271.5993041992188
0, 4, 22, 305.7039489746094
0, 4, 23, 265.8321228027344
0, 4, 24, 291.3575744628906
0, 4, 25, 271.4869079589844
0, 4, 26, 295.1819458007812
0, 4, 27, 283.7101440429688
0, 4, 28, 309.3490295410156
0, 4, 29, 322.78125
0, 4, 30, 309.7270202636719
0, 4, 31, 303.16162109375
0, 4, 32, 280.914794921875
0, 4, 33, 294.7312316894531
0, 4, 34, 297.4111633300781
0, 4, 35, 312.8386840820312
0, 4, 36, 292.7955322265625
0, 4, 37, 291.0452270507812
0, 4, 38, 301.003173828125
0, 4, 39, 296.8408203125
0, 4, 40, 301.6163940429688
0, 4, 41, 313.1232299804688
0, 4, 42, 330.1452941894531
0, 4, 43, 298.4549255371094
0, 4, 44, 322.030517578125
0, 4, 45, 324.2893371582031
0, 4, 46, 307.1959838867188
0, 4, 47, 293.8067626953125
0, 4, 48, 296.8025817871094
0, 4, 49, 280.6885375976562
0, 4, 50, 298.206787109375
0, 4, 51, 315.4267272949219
0, 4, 52, 326.3565368652344
0, 4, 53, 305.0601501464844
0, 4, 54, 288.5734252929688
0, 4, 55, 314.3125915527344
0, 4, 56, 288.1384582519531
0, 4, 57, 308.1414489746094
0, 4, 58, 293.2104797363281
0, 4, 59, 310.1005249023438
0, 4, 60, 302.0606079101562
0, 4, 61, 314.8216552734375
0, 4, 62, 308.9714050292969
0, 4, 63, 302.8554992675781
0, 4, 64, 331.5880432128906
0, 4, 65, 313.760009765625
0, 4, 66, 293.6115417480469
0, 4, 67, 285.9583435058594
0, 4, 68, 312.4351806640625
0, 4, 69, 275.4708251953125
0, 4, 70, 298.5190734863281
0, 4, 71, 322.2919311523438
0, 4, 72, 332.4203796386719
0, 4, 73, 297.5685119628906
0, 4, 74, 292.638671875
0, 4, 75, 291.7785034179688
0, 4, 76, 275.1715087890625
0, 4, 77, 277.4444580078125
0, 4, 78, 309.0887145996094
0, 4, 79, 319.0259094238281
0, 4, 80, 316.5325317382812
0, 4, 81, 314.20458984375
0, 4, 82, 298.6032409667969
0, 4, 83, 302.4511108398438
0, 4, 84, 292.2002258300781
0, 4, 85, 297.8604736328125
0, 4, 86, 297.50439453125
0, 4, 87, 284.7486877441406
0, 4, 88, 306.2604675292969
0, 4, 89, 294.1106262207031
0, 4, 90, 333.073974609375
0, 4, 91, 301.8975524902344
0, 4, 92, 290.0168762207031
0, 4, 93, 296.3320922851562
0, 4, 94, 293.2177124023438
0, 4, 95, 288.3411865234375
0, 4, 96, 323.615966796875
0, 4, 97, 273.7846374511719
0, 4, 98, 327.4709777832031
0, 4, 99, 314.7412414550781
0, 4, 100, 302.5696411132812
0, 4, 101, 258.768798828125
0, 4, 102, 295.3746337890625
0, 4, 103, 318.1234741210938
0, 4, 104, 281.5027770996094
0, 4, 105, 310.9887390136719
0, 4, 106, 288.5349426269531
0, 4, 107, 294.7265930175781
0, 4, 108, 226.3226013183594
0, 4, 109, 80.31388854980469
0, 4, 110, 16.97329902648926
0, 4, 111, 15.24401760101318
0, 4, 112, 9.052755355834961
0, 4, 113, 8.542462348937988
0, 4, 114, 9.192203521728516
0, 4, 115, 10.64737606048584
0, 4, 116, 7.026973724365234
0, 4, 117, 5.530972003936768
0, 4, 118, 13.4184513092041
0, 4, 119, 9.57456111907959
0, 4, 120, 5.437318801879883
0, 4, 121, 5.64401388168335
0, 4, 122, 5.175626754760742
0, 4, 123, 5.278091907501221
0, 4, 124, 4.852046012878418
0, 4, 125, 9.351322174072266
0, 4, 126, 6.81896448135376
0, 4, 127, 3.368273973464966
0, 5, 0, 4.869787693023682
0, 5, 1, 4.282517910003662
0, 5, 2, 4.951043605804443
0, 5, 3, 4.489944934844971
0, 5, 4, 6.064364910125732
0, 5, 5, 5.09466552734375
0, 5, 6, 5.952826499938965
0, 5, 7, 5.576843738555908
0, 5, 8, 4.488076686859131
0, 5, 9, 6.125958919525146
0, 5, 10, 6.291521072387695
0, 5, 11, 8.882074356079102
0, 5, 12, 8.009119033813477
0, 5, 13, 5.019824981689453
0, 5, 14, 13.10144424438477
0, 5, 15, 19.09653091430664
0, 5, 16, 14.39905738830566
0, 5, 17, 29.37429428100586
0, 5, 18, 137.1145629882812
0, 5, 19, 287.6437072753906
0, 5, 20, 307.9111633300781
0, 5, 21, 316.4923706054688
0, 5, 22, 274.7031555175781
0, 5, 23, 309.8955078125
0, 5, 24, 301.4096069335938
0, 5, 25, 289.5273742675781
0, 5, 26, 294.5894470214844
0, 5, 27, 321.5758972167969
0, 5, 28, 303.8551330566406
0, 5, 29, 297.9251403808594
0, 5, 30, 324.1901550292969
0, 5, 31, 285.6624755859375
0, 5, 32, 305.4771118164062
0, 5, 33, 303.9878540039062
0, 5, 34, 301.2474060058594
0, 5, 35, 309.2413940429688
0, 5, 36, 271.4663391113281
0, 5, 37, 285.6164245605469
0, 5, 38, 293.5264587402344
0, 5, 39, 312.0252075195312
0, 5, 40, 306.7633361816406
0, 5, 41, 272.78466796875
0, 5, 42, 306.2239074707031
0, 5, 43, 313.9451904296875
0, 5, 44, 293.1978454589844
0, 5, 45, 307.021484375
0, 5, 46, 264.6242980957031
0, 5, 47, 282.1059875488281
0, 5, 48, 293.49755859375
0, 5, 49, 286.5522766113281
0, 5, 50, 293.724365234375
0, 5, 51, 280.5624694824219
0, 5, 52, 271.059814453125
0, 5, 53, 284.5862426757812
0, 5, 54, 293.58154296875
0, 5, 55, 344.7914123535156
0, 5, 56, 307.7079467773438
0, 5, 57, 309.0295104980469
0, 5, 58, 314.7691345214844
0, 5, 59, 302.6906433105469
0, 5, 60, 308.556396484375
0, 5, 61, 281.2861938476562
0, 5, 62, 324.2137451171875
0, 5, 63, 290.2588195800781
0, 5, 64, 323.2146911621094
0, 5, 65, 305.1630859375
0, 5, 66, 327.1748352050781
0, 5, 67, 311.0542907714844
0, 5, 68, 312.3704223632812
0, 5, 69, 310.5976257324219
0, 5, 70, 301.4839782714844
0, 5, 71, 273.3952026367188
0, 5, 72, 311.4971618652344
0, 5, 73, 306.5857543945312
0, 5, 74, 295.8704833984375
0, 5, 75, 292.708251953125
0, 5, 76, 284.2879028320312
0, 5, 77, 297.7294311523438
0, 5, 78, 315.37109375
0, 5, 79, 306.4833068847656
0, 5, 80, 294.37158203125
0, 5, 81, 324.6407775878906
0, 5, 82, 326.1171875
0, 5, 83, 285.0101623535156
0, 5, 84, 301.1203002929688
0, 5, 85, 271.2604675292969
0, 5, 86, 325.7752685546875
0, 5, 87, 283.60107421875
0, 5, 88, 313.8582458496094
0, 5, 89, 305.1971130371094
0, 5, 90, 316.2258911132812
0, 5, 91, 315.5540771484375
0, 5, 92, 295.9612121582031
0, 5, 93, 323.09033203125
0, 5, 94, 308.3509521484375
0, 5, 95, 295.1775512695312
0, 5, 96, 297.9334106445312
0, 5, 97, 296.4028625488281
0, 5, 98, 318.3871765136719
0, 5, 99, 302.3393859863281
0, 5, 100, 291.9388122558594
0, 5, 101, 308.2626647949219
0, 5, 102, 294.2283020019531
0, 5, 103, 313.4796447753906
0, 5, 104, 300.3032531738281
0, 5, 105, 291.3157958984375
0, 5, 106, 281.2830810546875
0, 5, 107, 292.9728698730469
0, 5, 108, 266.3591003417969
0, 5, 109, 158.9405364990234
0, 5, 110, 40.09586334228516
0, 5, 111, 23.05970764160156
0, 5, 112, 17.4227294921875
0, 5, 113, 15.42136192321777
0, 5, 114, 12.19836902618408
0, 5, 115, 8.673361778259277
0, 5, 116, 9.028996467590332
0, 5, 117, 6.99416971206665
0, 5, 118, 12.60243034362793
0, 5, 119, 3.103435277938843
0, 5, 120, 6.008800983428955
0, 5, 121, 5.878029823303223
0, 5, 122, 7.339377403259277
0, 5, 123, 5.252708911895752
0, 5, 124, 6.134945392608643
0, 5, 125, 5.618952751159668
0, 5, 126, 5.721053123474121
0, 5, 127, 4.171468734741211
0, 6, 0, 5.483513832092285
0, 6, 1, 2.209954500198364
0, 6, 2, 4.068717002868652
0, 6, 3, 5.079873561859131
0, 6, 4, 5.160157680511475
0, 6, 5, 6.95158863067627
0, 6, 6, 9.297048568725586
0, 6, 7, 6.612271785736084
0, 6, 8, 8.451198577880859
0, 6, 9, 7.113704681396484
0, 6, 10, 8.395995140075684
0, 6, 11, 8.404888153076172
0, 6, 12, 8.008571624755859
0, 6, 13, 14.14630126953125
0, 6, 14, 8.785721778869629
0, 6, 15, 17.81757354736328
0, 6, 16, 27.77758979797363
0, 6, 17, 56.29019927978516
0, 6, 18, 176.2071990966797
0, 6, 19, 276.4267578125
0, 6, 20, 291.1900024414062
0, 6, 21, 313.7593078613281
0, 6, 22, 319.1293640136719
0, 6, 23, 307.138427734375
0, 6, 24, 316.456787109375
0, 6, 25, 317.5513305664062
0, 6, 26, 322.5950622558594
0, 6, 27, 329.7829284667969
0, 6, 28, 294.799072265625
0, 6, 29, 328.8865966796875
0, 6, 30, 282.3072814941406
0, 6, 31, 287.0028991699219
0, 6, 32, 340.0484008789062
0, 6, 33, 301.185546875
0, 6, 34, 340.3918762207031
0, 6, 35, 322.0748291015625
0, 6, 36, 273.3306884765625
0, 6, 37, 289.1390075683594
0, 6, 38, 310.1541442871094
0, 6, 39, 298.4551696777344
0, 6, 40, 285.259521484375
0, 6, 41, 292.9900817871094
0, 6, 42, 305.6127624511719
0, 6, 43, 287.9345703125
0, 6, 44, 280.5408020019531
0, 6, 45, 318.598388671875
0, 6, 46, 302.2850952148438
0, 6, 47, 332.8805236816406
0, 6, 48, 293.6176147460938
0, 6, 49, 314.1601257324219
0, 6, 50, 327.2581787109375
0, 6, 51, 313.13134765625
0, 6, 52, 321.0802917480469
0, 6, 53, 328.8180236816406
0, 6, 54, 302.6370239257812
0, 6, 55, 304.7598571777344
0, 6, 56, 293.6940612792969
0, 6, 57, 314.21142578125
0, 6, 58, 261.63232421875
0, 6, 59, 302.03759765625
0, 6, 60, 314.6590270996094
0, 6, 61, 272.450439453125
0, 6, 62, 338.8965454101562
0, 6, 63, 322.7966003417969
0, 6, 64, 291.1262817382812
0, 6, 65, 285.9161682128906
0, 6, 66, 302.8031005859375
0, 6, 67, 310.0094909667969
0, 6, 68, 294.3336486816406
0, 6, 69, 277.6395874023438
0, 6, 70, 273.7416381835938
0, 6, 71, 289.8565979003906
0, 6, 72, 310.4134216308594
0, 6, 73, 291.1155395507812
0, 6, 74, 331.5191955566406
0, 6, 75, 344.440185546875
0, 6, 76, 300.2642822265625
0, 6, 77, 285.9779663085938
0, 6, 78, 278.6281433105469
0, 6, 79, 292.9322814941406
0, 6, 80, 302.4481506347656
0, 6, 81, 316.6904907226562
0, 6, 82, 317.2234497070312
0, 6, 83, 319.7123718261719
0, 6, 84, 297.2045593261719
0, 6, 85, 300.8974914550781
0, 6, 86, 329.9932861328125
0, 6, 87, 291.4423522949219
0, 6, 88, 306.7809143066406
0, 6, 89, 306.0680541992188
0, 6, 90, 298.5086975097656
0, 6, 91, 311.7425842285156
0, 6, 92, 284.3095397949219
0, 6, 93, 299.0929260253906
0, 6, 94, 273.2207946777344
0, 6, 95, 300.6121520996094
0, 6, 96, 345.1486511230469
0, 6, 97, 308.3982849121094
0, 6, 98, 300.703369140625
0, 6, 99, 270.9426879882812
0, 6, 100, 308.2448120117188
0, 6, 101, 292.4627990722656
0, 6, 102, 308.6890258789062
0, 6, 103, 307.0022583007812
0, 6, 104, 292.9805603027344
0, 6, 105, 301.8755798339844
0, 6, 106, 308.3975524902344
0, 6, 107, 305.97998046875
0, 6, 108, 265.4308471679688
0, 6, 109, 187.2250823974609
0, 6, 110, 54.80531692504883
0, 6, 111, 20.83188247680664
0, 6, 112, 13.21603107452393
0, 6, 113, 11.75887584686279
0, 6, 114, 14.16909599304199
0, 6, 115, 12.77093601226807
0, 6, 116, 8.974514007568359
0, 6, 117, 4.707083702087402
0, 6, 118, 7.970499038696289
0, 6, 119, 8.910871505737305
0, 6, 120, 5.489665508270264
0, 6, 121, 6.012973785400391
0, 6, 122, 8.162672996520996
0, 6, 123, 6.171121120452881
0, 6, 124, 9.872293472290039
0, 6, 125, 7.599204063415527
0, 6, 126, 2.754420757293701
0, 6, 127, 6.511361598968506
0, 7, 0, 4.686503887176514
0, 7, 1, 3.410398483276367
0, 7, 2, 5.577623844146729
0, 7, 3, 4.172195911407471
0, 7, 4, 4.044075965881348
0, 7, 5, 5.878880023956299
0, 7, 6, 4.504343032836914
0, 7, 7, 6.540702342987061
0, 7, 8, 4.06763219833374
0, 7, 9, 6.569948673248291
0, 7, 10, 9.088899612426758
0, 7, 11, 10.82076930999756
0, 7, 12, 9.805610656738281
0, 7, 13, 12.51070690155029
0, 7, 14, 11.34120845794678
0, 7, 15, 18.25831031799316
0, 7, 16, 27.0781078338623
0, 7, 17, 97.13634490966797
0, 7, 18, 217.2681579589844
0, 7, 19, 289.3938903808594
0, 7, 20, 298.695068359375
0, 7, 21, 278.9514465332031
0, 7, 22, 299.7667846679688
0, 7, 23, 288.7279357910156
0, 7, 24, 314.4076538085938
0, 7, 25, 324.8759765625
0, 7, 26, 278.0178833007812
0, 7, 27, 298.8495483398438
0, 7, 28, 325.4287719726562
0, 7, 29, 320.4463500976562
0, 7, 30, 302.3934631347656
0, 7, 31, 276.1824951171875
0, 7, 32, 304.3108520507812
0, 7, 33, 262.447265625
0, 7, 34, 298.7953796386719
0, 7, 35, 318.9838562011719
0, 7, 36, 330.2618103027344
0, 7, 37, 322.0193786621094
0, 7, 38, 295.2435913085938
0, 7, 39, 306.54638671875
0, 7, 40, 287.9320983886719
0, 7, 41, 273.6367492675781
0, 7, 42, 300.9528198242188
0, 7, 43, 274.3856201171875
0, 7, 44, 304.3143920898438
0, 7, 45, 293.3742065429688
0, 7, 46, 280.720947265625
0, 7, 47, 330.0238952636719
0, 7, 48, 284.8886108398438
0, 7, 49, 305.4347839355469
0, 7, 50, 320.762939453125
0, 7, 51, 299.0924682617188
0, 7, 52, 324.778076171875
0, 7, 53, 310.0655517578125
0, 7, 54, 324.6297607421875
0, 7, 55, 307.8133239746094
0, 7, 56, 277.9749450683594
0, 7, 57, 282.0539245605469
0, 7, 58, 295.6744079589844
0, 7, 59, 294.1182861328125
0, 7, 60, 322.1578979492188
0, 7, 61, 279.1176452636719
0, 7, 62, 296.7241821289062
0, 7, 63, 291.5388793945312
0, 7, 64, 306.1948852539062
0, 7, 65, 333.8807983398438
0, 7, 66, 318.5591430664062
0, 7, 67, 301.7674560546875
0, 7, 68, 279.1757507324219
0, 7, 69, 293.322265625
0, 7, 70, 304.1827392578125
0, 7, 71, 308.5361022949219
0, 7, 72, 284.7882995605469
0, 7, 73, 297.863525390625
0, 7, 74, 345.2394714355469
0, 7, 75, 319.6534423828125
0, 7, 76, 322.906005859375
0, 7, 77, 279.8111877441406
0, 7, 78, 300.3174133300781
0, 7, 79, 301.1241455078125
0, 7, 80, 310.8950805664062
0, 7, 81, 318.6255798339844
0, 7, 82, 329.6015625
0, 7, 83, 316.7857360839844
0, 7, 84, 308.6750793457031
0, 7, 85, 274.1426696777344
0, 7, 86, 311.9678344726562
0, 7, 87, 309.8376159667969
0, 7, 88, 306.8302917480469
0, 7, 89, 293.3275451660156
0, 7, 90, 306.8899841308594
0, 7, 91, 316.227783203125
0, 7, 92, 292.8047180175781
0, 7, 93, 306.7864990234375
0, 7, 94, 274.2640075683594
0, 7, 95, 296.7718505859375
0, 7, 96, 330.0798950195312
0, 7, 97, 294.1178588867188
0, 7, 98, 290.9452209472656
0, 7, 99, 310.7229309082031
0, 7, 100, 282.2678833007812
0, 7, 101, 274.990966796875
0, 7, 102, 290.8695068359375
0, 7, 103, 291.9172058105469
0, 7, 104, 276.7825622558594
0, 7, 105, 307.3990478515625
0, 7, 106, 317.0780639648438
0, 7, 107, 299.9308166503906
0, 7, 108, 274.7953796386719
0, 7, 109, 234.4292907714844
0, 7, 110, 96.12385559082031
0, 7, 111, 24.89420700073242
0, 7, 112, 12.93737602233887
0, 7, 113, 14.87251377105713
0, 7, 114, 12.20840549468994
0, 7, 115, 12.48423099517822
0, 7, 116, 8.618419647216797
0, 7, 117, 7.653331279754639
0, 7, 118, 6.24425745010376
0, 7, 119, 6.473012447357178
0, 7, 120, 4.695961952209473
0, 7, 121, 7.930312633514404
0, 7, 122, 7.604229927062988
0, 7, 123, 6.211545467376709
0, 7, 124, 5.255488395690918
0, 7, 125, 5.684557914733887
0, 7, 126, 7.346402645111084
0, 7, 127, 1.607343554496765
0, 8, 0, 3.602808237075806
0, 8, 1, 5.979395866394043
0, 8, 2, 4.554831027984619
0, 8, 3, 4.694202423095703
0, 8, 4, 3.421285390853882
0, 8, 5, 3.606814861297607
0, 8, 6, 4.86118221282959
0, 8, 7, 5.32918119430542
0, 8, 8, 11.55729103088379
0, 8, 9, 4.47813081741333
0, 8, 10, 9.100771903991699
0, 8, 11, 11.79295063018799
0, 8, 12, 13.47313594818115
0, 8, 13, 17.10187911987305
0, 8, 14, 14.82046413421631
0, 8, 15, 17.46356010437012
0, 8, 16, 32.05563354492188
0, 8, 17, 130.6421661376953
0, 8, 18, 244.7321929931641
0, 8, 19, 296.4612731933594
0, 8, 20, 284.9774475097656
0, 8, 21, 306.3248596191406
0, 8, 22, 295.9115600585938
0, 8, 23, 277.2333984375
0, 8, 24, 269.4810485839844
0, 8, 25, 275.0328979492188
0, 8, 26, 305.1728515625
0, 8, 27, 307.9881286621094
0, 8, 28, 303.6202697753906
0, 8, 29, 317.4053649902344
0, 8, 30, 315.0426940917969
0, 8, 31, 302.7133178710938
0, 8, 32, 281.9608764648438
0, 8, 33, 292.5920104980469
0, 8, 34, 287.9192199707031
0, 8, 35, 281.1578369140625
0, 8, 36, 317.1659240722656
0, 8, 37, 338.8396606445312
0, 8, 38, 331.8888854980469
0, 8, 39, 280.8456726074219
0, 8, 40, 304.253662109375
