# TOPAS Version: 3.1.p3
# Parameter File: batch_inserts_220.txt
# Results for scorer Readout_Adipose
# Scored in component: MyBox
# X in 1 bin  of 0.75 cm
# Y in 512 bins of 0.0783984 cm
# Z in 128 bins of 0.078125 cm
# EnergyDeposit ( MeV ) : Sum   
0, 0, 0, 3.272584676742554
0, 0, 1, 1.715659141540527
0, 0, 2, 3.771552562713623
0, 0, 3, 2.137498617172241
0, 0, 4, 4.045059680938721
0, 0, 5, 5.346107959747314
0, 0, 6, 6.074567794799805
0, 0, 7, 8.433160781860352
0, 0, 8, 2.125801801681519
0, 0, 9, 4.200209617614746
0, 0, 10, 7.998763084411621
0, 0, 11, 4.186380386352539
0, 0, 12, 5.231415748596191
0, 0, 13, 6.6872878074646
0, 0, 14, 6.90499210357666
0, 0, 15, 7.961493015289307
0, 0, 16, 8.844371795654297
0, 0, 17, 8.42430591583252
0, 0, 18, 14.64520168304443
0, 0, 19, 42.80784606933594
0, 0, 20, 141.4149322509766
0, 0, 21, 223.8162384033203
0, 0, 22, 249.7850341796875
0, 0, 23, 257.3055419921875
0, 0, 24, 250.1796417236328
0, 0, 25, 257.5205993652344
0, 0, 26, 234.5330047607422
0, 0, 27, 236.1640319824219
0, 0, 28, 271.7472534179688
0, 0, 29, 251.9933013916016
0, 0, 30, 228.9353790283203
0, 0, 31, 244.2207794189453
0, 0, 32, 263.1634826660156
0, 0, 33, 260.3561096191406
0, 0, 34, 289.6143493652344
0, 0, 35, 267.2964477539062
0, 0, 36, 245.6626739501953
0, 0, 37, 251.8958435058594
0, 0, 38, 267.6656494140625
0, 0, 39, 229.5789794921875
0, 0, 40, 242.6254425048828
0, 0, 41, 265.1672668457031
0, 0, 42, 229.0066528320312
0, 0, 43, 259.8800048828125
0, 0, 44, 252.5707244873047
0, 0, 45, 252.652099609375
0, 0, 46, 245.1898193359375
0, 0, 47, 254.1536254882812
0, 0, 48, 267.4105529785156
0, 0, 49, 274.0325622558594
0, 0, 50, 251.0550994873047
0, 0, 51, 254.7404632568359
0, 0, 52, 273.0035400390625
0, 0, 53, 293.0923767089844
0, 0, 54, 243.1734008789062
0, 0, 55, 240.9625396728516
0, 0, 56, 276.7578735351562
0, 0, 57, 261.9580688476562
0, 0, 58, 245.554931640625
0, 0, 59, 271.9486389160156
0, 0, 60, 234.4515991210938
0, 0, 61, 249.2320556640625
0, 0, 62, 258.7742309570312
0, 0, 63, 266.8825073242188
0, 0, 64, 255.0802764892578
0, 0, 65, 260.6575622558594
0, 0, 66, 277.6286926269531
0, 0, 67, 248.0302429199219
0, 0, 68, 258.4979553222656
0, 0, 69, 261.203369140625
0, 0, 70, 273.5762023925781
0, 0, 71, 237.7792816162109
0, 0, 72, 250.8154754638672
0, 0, 73, 259.0213012695312
0, 0, 74, 251.2218475341797
0, 0, 75, 241.7154388427734
0, 0, 76, 230.9536437988281
0, 0, 77, 260.0616149902344
0, 0, 78, 258.61376953125
0, 0, 79, 277.5129699707031
0, 0, 80, 218.1089630126953
0, 0, 81, 267.2013244628906
0, 0, 82, 255.9782257080078
0, 0, 83, 244.8701324462891
0, 0, 84, 270.5391540527344
0, 0, 85, 230.9983825683594
0, 0, 86, 254.2686004638672
0, 0, 87, 250.2760162353516
0, 0, 88, 259.855712890625
0, 0, 89, 283.5219116210938
0, 0, 90, 245.7860260009766
0, 0, 91, 283.3423461914062
0, 0, 92, 252.1096649169922
0, 0, 93, 250.1440277099609
0, 0, 94, 250.3293304443359
0, 0, 95, 249.0964050292969
0, 0, 96, 276.0717163085938
0, 0, 97, 273.1574401855469
0, 0, 98, 274.435302734375
0, 0, 99, 258.0290222167969
0, 0, 100, 257.4532470703125
0, 0, 101, 225.6381378173828
0, 0, 102, 232.8460388183594
0, 0, 103, 268.9672546386719
0, 0, 104, 253.7257690429688
0, 0, 105, 251.5616149902344
0, 0, 106, 245.92919921875
0, 0, 107, 152.0067901611328
0, 0, 108, 37.64220428466797
0, 0, 109, 14.2166051864624
0, 0, 110, 12.12931632995605
0, 0, 111, 9.436765670776367
0, 0, 112, 7.298043727874756
0, 0, 113, 5.329020500183105
0, 0, 114, 6.41018009185791
0, 0, 115, 4.280745983123779
0, 0, 116, 4.549380302429199
0, 0, 117, 6.010583877563477
0, 0, 118, 8.149685859680176
0, 0, 119, 3.416804790496826
0, 0, 120, 3.15200400352478
0, 0, 121, 3.214521408081055
0, 0, 122, 2.974337100982666
0, 0, 123, 2.865703344345093
0, 0, 124, 4.621201992034912
0, 0, 125, 4.029870510101318
0, 0, 126, 5.218931674957275
0, 0, 127, 4.693985462188721
0, 1, 0, 7.117773056030273
0, 1, 1, 2.670376539230347
0, 1, 2, 4.986221313476562
0, 1, 3, 3.764145612716675
0, 1, 4, 4.327993392944336
0, 1, 5, 4.39047908782959
0, 1, 6, 4.964529514312744
0, 1, 7, 6.587533950805664
0, 1, 8, 9.933241844177246
0, 1, 9, 3.769773721694946
0, 1, 10, 6.333750247955322
0, 1, 11, 11.56744384765625
0, 1, 12, 8.42354679107666
0, 1, 13, 11.26823997497559
0, 1, 14, 7.871100902557373
0, 1, 15, 7.62116813659668
0, 1, 16, 11.08050346374512
0, 1, 17, 13.63377952575684
0, 1, 18, 19.74246406555176
0, 1, 19, 65.23632049560547
0, 1, 20, 200.6215667724609
0, 1, 21, 255.4477996826172
0, 1, 22, 297.46826171875
0, 1, 23, 282.33349609375
0, 1, 24, 275.6014404296875
0, 1, 25, 291.3124389648438
0, 1, 26, 269.4863586425781
0, 1, 27, 305.5220031738281
0, 1, 28, 298.7443237304688
0, 1, 29, 295.685791015625
0, 1, 30, 283.6541748046875
0, 1, 31, 291.3159484863281
0, 1, 32, 290.3239135742188
0, 1, 33, 294.856201171875
0, 1, 34, 292.1771850585938
0, 1, 35, 280.3390502929688
0, 1, 36, 305.900146484375
0, 1, 37, 295.997314453125
0, 1, 38, 281.2882385253906
0, 1, 39, 296.1868286132812
0, 1, 40, 267.6592102050781
0, 1, 41, 284.9998168945312
0, 1, 42, 289.8131103515625
0, 1, 43, 332.1283569335938
0, 1, 44, 280.1228332519531
0, 1, 45, 291.6225280761719
0, 1, 46, 259.0843505859375
0, 1, 47, 309.5553588867188
0, 1, 48, 282.8903198242188
0, 1, 49, 301.7528076171875
0, 1, 50, 261.9199829101562
0, 1, 51, 273.0252075195312
0, 1, 52, 296.3196716308594
0, 1, 53, 303.2613525390625
0, 1, 54, 273.7709350585938
0, 1, 55, 292.480712890625
0, 1, 56, 281.450439453125
0, 1, 57, 298.4927368164062
0, 1, 58, 309.5462951660156
0, 1, 59, 292.7398681640625
0, 1, 60, 298.1824645996094
0, 1, 61, 277.0809936523438
0, 1, 62, 307.2517700195312
0, 1, 63, 284.9583435058594
0, 1, 64, 291.2723388671875
0, 1, 65, 294.3131103515625
0, 1, 66, 292.5820922851562
0, 1, 67, 293.2330322265625
0, 1, 68, 277.3218383789062
0, 1, 69, 282.4716491699219
0, 1, 70, 274.5567932128906
0, 1, 71, 272.7764587402344
0, 1, 72, 285.9235229492188
0, 1, 73, 304.3075561523438
0, 1, 74, 303.3673706054688
0, 1, 75, 292.211181640625
0, 1, 76, 285.2148742675781
0, 1, 77, 293.8956604003906
0, 1, 78, 297.7882995605469
0, 1, 79, 300.7985534667969
0, 1, 80, 299.2525329589844
0, 1, 81, 300.4016723632812
0, 1, 82, 284.2569580078125
0, 1, 83, 331.4394836425781
0, 1, 84, 309.453369140625
0, 1, 85, 252.7288970947266
0, 1, 86, 294.0762023925781
0, 1, 87, 290.4143981933594
0, 1, 88, 297.4090576171875
0, 1, 89, 291.5579528808594
0, 1, 90, 271.4613952636719
0, 1, 91, 317.9871826171875
0, 1, 92, 291.5654296875
0, 1, 93, 286.9670104980469
0, 1, 94, 303.1571960449219
0, 1, 95, 283.1827087402344
0, 1, 96, 282.4996948242188
0, 1, 97, 299.3040466308594
0, 1, 98, 279.1076049804688
0, 1, 99, 267.8384399414062
0, 1, 100, 277.8589782714844
0, 1, 101, 283.0631713867188
0, 1, 102, 278.6506958007812
0, 1, 103, 284.0430297851562
0, 1, 104, 308.8020324707031
0, 1, 105, 297.00390625
0, 1, 106, 260.0318603515625
0, 1, 107, 191.6136474609375
0, 1, 108, 80.16115570068359
0, 1, 109, 25.78041648864746
0, 1, 110, 11.78573513031006
0, 1, 111, 9.129929542541504
0, 1, 112, 11.84094715118408
0, 1, 113, 4.516593933105469
0, 1, 114, 7.408753395080566
0, 1, 115, 6.165163516998291
0, 1, 116, 12.49385929107666
0, 1, 117, 6.213119506835938
0, 1, 118, 4.770829677581787
0, 1, 119, 4.512917041778564
0, 1, 120, 5.582132816314697
0, 1, 121, 6.587075710296631
0, 1, 122, 2.224253177642822
0, 1, 123, 5.337026596069336
0, 1, 124, 8.685562133789062
0, 1, 125, 4.717926502227783
0, 1, 126, 2.122388124465942
0, 1, 127, 2.348332643508911
0, 2, 0, 5.067075729370117
0, 2, 1, 2.87568211555481
0, 2, 2, 3.841753482818604
0, 2, 3, 7.28148078918457
0, 2, 4, 4.428567409515381
0, 2, 5, 1.328667163848877
0, 2, 6, 2.088953971862793
0, 2, 7, 2.940507411956787
0, 2, 8, 4.525576591491699
0, 2, 9, 5.787845611572266
0, 2, 10, 9.135444641113281
0, 2, 11, 6.466361045837402
0, 2, 12, 7.062814235687256
0, 2, 13, 9.062047004699707
0, 2, 14, 9.782720565795898
0, 2, 15, 7.451107501983643
0, 2, 16, 9.204503059387207
0, 2, 17, 17.49894905090332
0, 2, 18, 30.32195663452148
0, 2, 19, 115.5461044311523
0, 2, 20, 244.7608947753906
0, 2, 21, 270.4622497558594
0, 2, 22, 318.2869567871094
0, 2, 23, 302.0513000488281
0, 2, 24, 287.2701110839844
0, 2, 25, 301.7814025878906
0, 2, 26, 293.826416015625
0, 2, 27, 274.9914245605469
0, 2, 28, 271.2947387695312
0, 2, 29, 274.0215148925781
0, 2, 30, 288.5981140136719
0, 2, 31, 279.6553955078125
0, 2, 32, 294.2092590332031
0, 2, 33, 282.34814453125
0, 2, 34, 330.8826904296875
0, 2, 35, 289.2128295898438
0, 2, 36, 303.8623657226562
0, 2, 37, 314.3326110839844
0, 2, 38, 313.6607360839844
0, 2, 39, 267.4678039550781
0, 2, 40, 309.4241638183594
0, 2, 41, 296.5088500976562
0, 2, 42, 303.2235412597656
0, 2, 43, 313.9201354980469
0, 2, 44, 310.7904663085938
0, 2, 45, 324.6632995605469
0, 2, 46, 286.5329895019531
0, 2, 47, 303.2496337890625
0, 2, 48, 280.6094970703125
0, 2, 49, 281.4092102050781
0, 2, 50, 293.6025390625
0, 2, 51, 282.8959655761719
0, 2, 52, 275.5976257324219
0, 2, 53, 286.4396362304688
0, 2, 54, 278.4998474121094
0, 2, 55, 274.4031982421875
0, 2, 56, 301.7267456054688
0, 2, 57, 291.8899230957031
0, 2, 58, 301.9542846679688
0, 2, 59, 290.8483276367188
0, 2, 60, 319.4420471191406
0, 2, 61, 300.6748962402344
0, 2, 62, 313.5262451171875
0, 2, 63, 302.8495178222656
0, 2, 64, 295.8502502441406
0, 2, 65, 314.4132690429688
0, 2, 66, 278.0959777832031
0, 2, 67, 291.3490905761719
0, 2, 68, 297.0654296875
0, 2, 69, 312.8492736816406
0, 2, 70, 335.1047668457031
0, 2, 71, 283.8850708007812
0, 2, 72, 301.2626953125
0, 2, 73, 310.9318542480469
0, 2, 74, 285.3526306152344
0, 2, 75, 307.4181518554688
0, 2, 76, 287.6529541015625
0, 2, 77, 300.7523193359375
0, 2, 78, 313.257080078125
0, 2, 79, 307.78466796875
0, 2, 80, 296.1506042480469
0, 2, 81, 282.4253234863281
0, 2, 82, 317.8998718261719
0, 2, 83, 313.5986938476562
0, 2, 84, 288.0729675292969
0, 2, 85, 282.0266723632812
0, 2, 86, 325.126708984375
0, 2, 87, 286.7936706542969
0, 2, 88, 280.6830749511719
0, 2, 89, 299.8973083496094
0, 2, 90, 295.4241333007812
0, 2, 91, 281.5849304199219
0, 2, 92, 304.7667541503906
0, 2, 93, 317.9021606445312
0, 2, 94, 291.6873474121094
0, 2, 95, 314.491943359375
0, 2, 96, 316.8976745605469
0, 2, 97, 291.000244140625
0, 2, 98, 293.8489379882812
0, 2, 99, 272.8505859375
0, 2, 100, 306.7730407714844
0, 2, 101, 301.1579284667969
0, 2, 102, 298.0401916503906
0, 2, 103, 292.7433776855469
0, 2, 104, 293.9076538085938
0, 2, 105, 273.1293334960938
0, 2, 106, 297.3626098632812
0, 2, 107, 268.8690185546875
0, 2, 108, 115.3227767944336
0, 2, 109, 33.54491424560547
0, 2, 110, 10.32968139648438
0, 2, 111, 12.47186088562012
0, 2, 112, 6.676198482513428
0, 2, 113, 9.344292640686035
0, 2, 114, 8.485898971557617
0, 2, 115, 9.360613822937012
0, 2, 116, 8.203856468200684
0, 2, 117, 9.753606796264648
0, 2, 118, 2.788900852203369
0, 2, 119, 3.818913221359253
0, 2, 120, 8.608664512634277
0, 2, 121, 2.160521984100342
0, 2, 122, 3.650617599487305
0, 2, 123, 3.959289073944092
0, 2, 124, 2.847537517547607
0, 2, 125, 6.89826774597168
0, 2, 126, 3.058315277099609
0, 2, 127, 5.798400402069092
0, 3, 0, 3.897609710693359
0, 3, 1, 2.516180753707886
0, 3, 2, 7.347692966461182
0, 3, 3, 4.866225242614746
0, 3, 4, 3.265458583831787
0, 3, 5, 5.799672603607178
0, 3, 6, 5.736367225646973
0, 3, 7, 4.673640251159668
0, 3, 8, 5.199965953826904
0, 3, 9, 7.456534385681152
0, 3, 10, 4.868053436279297
0, 3, 11, 5.235248565673828
0, 3, 12, 7.616647243499756
0, 3, 13, 15.28885459899902
0, 3, 14, 10.74871349334717
0, 3, 15, 15.96533203125
0, 3, 16, 10.98731136322021
0, 3, 17, 19.6385555267334
0, 3, 18, 52.77527618408203
0, 3, 19, 175.6754150390625
0, 3, 20, 269.5565185546875
0, 3, 21, 270.5691223144531
0, 3, 22, 281.1062927246094
0, 3, 23, 285.6555480957031
0, 3, 24, 288.4022827148438
0, 3, 25, 269.0960388183594
0, 3, 26, 303.6955261230469
0, 3, 27, 291.6343078613281
0, 3, 28, 283.9356079101562
0, 3, 29, 338.02392578125
0, 3, 30, 316.0956420898438
0, 3, 31, 287.8128662109375
0, 3, 32, 306.4227905273438
0, 3, 33, 313.8434143066406
0, 3, 34, 320.3818054199219
0, 3, 35, 307.7684631347656
0, 3, 36, 272.7421569824219
0, 3, 37, 313.6342163085938
0, 3, 38, 303.2814331054688
0, 3, 39, 289.3574523925781
0, 3, 40, 266.8663940429688
0, 3, 41, 299.852783203125
0, 3, 42, 287.3450622558594
0, 3, 43, 305.4119262695312
0, 3, 44, 309.3185119628906
0, 3, 45, 289.45947265625
0, 3, 46, 329.4396057128906
0, 3, 47, 299.9934997558594
0, 3, 48, 302.1431274414062
0, 3, 49, 277.0650939941406
0, 3, 50, 289.0929260253906
0, 3, 51, 275.5915222167969
0, 3, 52, 316.6488037109375
0, 3, 53, 287.2649841308594
0, 3, 54, 286.1994323730469
0, 3, 55, 282.8353271484375
0, 3, 56, 298.5665588378906
0, 3, 57, 288.4050903320312
0, 3, 58, 306.7615051269531
0, 3, 59, 294.6033325195312
0, 3, 60, 297.1034851074219
0, 3, 61, 263.6575622558594
0, 3, 62, 283.6600341796875
0, 3, 63, 305.7913208007812
0, 3, 64, 316.0591735839844
0, 3, 65, 304.773193359375
0, 3, 66, 317.0097045898438
0, 3, 67, 318.53369140625
0, 3, 68, 278.5975646972656
0, 3, 69, 282.4153137207031
0, 3, 70, 288.1403503417969
0, 3, 71, 298.8028869628906
0, 3, 72, 270.8001708984375
0, 3, 73, 309.0409545898438
0, 3, 74, 295.5841064453125
0, 3, 75, 290.3670959472656
0, 3, 76, 305.0135498046875
0, 3, 77, 315.31689453125
0, 3, 78, 304.9804992675781
0, 3, 79, 281.4750061035156
0, 3, 80, 291.2379760742188
0, 3, 81, 314.2919921875
0, 3, 82, 317.1643676757812
0, 3, 83, 300.8647155761719
0, 3, 84, 312.8599548339844
0, 3, 85, 296.1053466796875
0, 3, 86, 304.0365600585938
0, 3, 87, 300.3293151855469
0, 3, 88, 298.8944702148438
0, 3, 89, 296.9442138671875
0, 3, 90, 275.4717407226562
0, 3, 91, 285.5966796875
0, 3, 92, 306.9354248046875
0, 3, 93, 312.6612548828125
0, 3, 94, 299.8424987792969
0, 3, 95, 332.5901794433594
0, 3, 96, 291.8011779785156
0, 3, 97, 285.1768493652344
0, 3, 98, 277.5019226074219
0, 3, 99, 263.5169067382812
0, 3, 100, 285.2983093261719
0, 3, 101, 295.9485473632812
0, 3, 102, 275.69384765625
0, 3, 103, 320.3058166503906
0, 3, 104, 306.8041687011719
0, 3, 105, 288.2133178710938
0, 3, 106, 303.4459228515625
0, 3, 107, 283.6470947265625
0, 3, 108, 169.5046844482422
0, 3, 109, 57.8153076171875
0, 3, 110, 17.58761024475098
0, 3, 111, 12.4010705947876
0, 3, 112, 14.0343770980835
0, 3, 113, 6.538387775421143
0, 3, 114, 9.333488464355469
0, 3, 115, 7.484170436859131
0, 3, 116, 8.979998588562012
0, 3, 117, 8.806106567382812
0, 3, 118, 6.928505897521973
0, 3, 119, 4.577196598052979
0, 3, 120, 6.96294116973877
0, 3, 121, 3.241625308990479
0, 3, 122, 2.8029944896698
0, 3, 123, 5.753616809844971
0, 3, 124, 2.264114379882812
0, 3, 125, 6.016460418701172
0, 3, 126, 4.76196813583374
0, 3, 127, 5.107524394989014
0, 4, 0, 4.455853939056396
0, 4, 1, 5.456351280212402
0, 4, 2, 3.280768871307373
0, 4, 3, 2.219465255737305
0, 4, 4, 5.650749206542969
0, 4, 5, 7.614394187927246
0, 4, 6, 6.496488571166992
0, 4, 7, 4.419182777404785
0, 4, 8, 3.601525545120239
0, 4, 9, 9.27620792388916
0, 4, 10, 6.142148494720459
0, 4, 11, 5.412472724914551
0, 4, 12, 6.135793209075928
0, 4, 13, 7.549137115478516
0, 4, 14, 11.5338830947876
0, 4, 15, 9.478424072265625
0, 4, 16, 15.37014675140381
0, 4, 17, 18.32851600646973
0, 4, 18, 94.28324127197266
0, 4, 19, 221.7576141357422
0, 4, 20, 285.0513916015625
0, 4, 21, 274.5693054199219
0, 4, 22, 304.0455627441406
0, 4, 23, 265.9323120117188
0, 4, 24, 288.8895874023438
0, 4, 25, 272.6355895996094
0, 4, 26, 293.9055480957031
0, 4, 27, 283.0528259277344
0, 4, 28, 307.8580627441406
0, 4, 29, 323.9508972167969
0, 4, 30, 309.9851989746094
0, 4, 31, 304.3601989746094
0, 4, 32, 283.6429443359375
0, 4, 33, 297.1326599121094
0, 4, 34, 296.0406799316406
0, 4, 35, 311.21875
0, 4, 36, 290.78369140625
0, 4, 37, 288.0688171386719
0, 4, 38, 298.14501953125
0, 4, 39, 294.4936828613281
0, 4, 40, 303.9468078613281
0, 4, 41, 312.325927734375
0, 4, 42, 335.5263366699219
0, 4, 43, 296.8761596679688
0, 4, 44, 320.1156311035156
0, 4, 45, 323.4513549804688
0, 4, 46, 305.7800903320312
0, 4, 47, 292.4901428222656
0, 4, 48, 296.8905639648438
0, 4, 49, 278.7149353027344
0, 4, 50, 296.6098327636719
0, 4, 51, 317.0280456542969
0, 4, 52, 325.61328125
0, 4, 53, 303.785888671875
0, 4, 54, 286.2509460449219
0, 4, 55, 317.1693420410156
0, 4, 56, 288.4622192382812
0, 4, 57, 309.4074401855469
0, 4, 58, 295.017822265625
0, 4, 59, 307.8285217285156
0, 4, 60, 302.3470458984375
0, 4, 61, 314.6063537597656
0, 4, 62, 308.9729919433594
0, 4, 63, 298.7700805664062
0, 4, 64, 332.5183715820312
0, 4, 65, 314.4674682617188
0, 4, 66, 294.731689453125
0, 4, 67, 285.5938110351562
0, 4, 68, 311.4206848144531
0, 4, 69, 274.5268249511719
0, 4, 70, 299.1304016113281
0, 4, 71, 321.5963745117188
0, 4, 72, 333.7620239257812
0, 4, 73, 300.9782104492188
0, 4, 74, 292.6325378417969
0, 4, 75, 290.6952209472656
0, 4, 76, 274.9727172851562
0, 4, 77, 277.6340637207031
0, 4, 78, 309.1569213867188
0, 4, 79, 320.2089538574219
0, 4, 80, 315.5234680175781
0, 4, 81, 313.639892578125
0, 4, 82, 297.2373962402344
0, 4, 83, 300.5893249511719
0, 4, 84, 289.8601989746094
0, 4, 85, 293.5580444335938
0, 4, 86, 297.7833251953125
0, 4, 87, 283.6576232910156
0, 4, 88, 305.7102355957031
0, 4, 89, 294.8057556152344
0, 4, 90, 332.7967529296875
0, 4, 91, 302.5063171386719
0, 4, 92, 290.2456359863281
0, 4, 93, 296.3901977539062
0, 4, 94, 293.1152038574219
0, 4, 95, 289.4773864746094
0, 4, 96, 323.0404357910156
0, 4, 97, 274.316650390625
0, 4, 98, 327.481201171875
0, 4, 99, 312.9213256835938
0, 4, 100, 301.3013916015625
0, 4, 101, 257.8086242675781
0, 4, 102, 296.3531799316406
0, 4, 103, 317.8235778808594
0, 4, 104, 281.4602355957031
0, 4, 105, 310.6067504882812
0, 4, 106, 288.5274353027344
0, 4, 107, 296.2048034667969
0, 4, 108, 225.9338226318359
0, 4, 109, 79.40437316894531
0, 4, 110, 15.38675117492676
0, 4, 111, 14.33354568481445
0, 4, 112, 8.145143508911133
0, 4, 113, 9.587372779846191
0, 4, 114, 9.316324234008789
0, 4, 115, 10.71642875671387
0, 4, 116, 9.619150161743164
0, 4, 117, 6.787594795227051
0, 4, 118, 10.36094951629639
0, 4, 119, 10.0495548248291
0, 4, 120, 5.346227169036865
0, 4, 121, 7.340727806091309
0, 4, 122, 5.368229389190674
0, 4, 123, 9.901164054870605
0, 4, 124, 6.111526489257812
0, 4, 125, 8.576810836791992
0, 4, 126, 8.454066276550293
0, 4, 127, 5.618558406829834
0, 5, 0, 3.202468156814575
0, 5, 1, 4.508858680725098
0, 5, 2, 3.355497121810913
0, 5, 3, 3.04521918296814
0, 5, 4, 6.300343990325928
0, 5, 5, 7.435123920440674
0, 5, 6, 3.979969263076782
0, 5, 7, 5.674391269683838
0, 5, 8, 5.259469032287598
0, 5, 9, 4.690508365631104
0, 5, 10, 9.196484565734863
0, 5, 11, 7.220283985137939
0, 5, 12, 7.141445159912109
0, 5, 13, 6.42950439453125
0, 5, 14, 12.57722949981689
0, 5, 15, 17.09896850585938
0, 5, 16, 16.40582656860352
0, 5, 17, 28.38897514343262
0, 5, 18, 137.4877014160156
0, 5, 19, 288.3218994140625
0, 5, 20, 306.1580505371094
0, 5, 21, 316.0067443847656
0, 5, 22, 275.7238159179688
0, 5, 23, 310.6875610351562
0, 5, 24, 301.4783630371094
0, 5, 25, 289.2096862792969
0, 5, 26, 294.7679748535156
0, 5, 27, 321.8066711425781
0, 5, 28, 303.05859375
0, 5, 29, 297.7649230957031
0, 5, 30, 322.4149475097656
0, 5, 31, 286.0996704101562
0, 5, 32, 303.2489624023438
0, 5, 33, 303.3895263671875
0, 5, 34, 297.631103515625
0, 5, 35, 310.8003845214844
0, 5, 36, 271.0731506347656
0, 5, 37, 282.8519287109375
0, 5, 38, 292.5921936035156
0, 5, 39, 310.3585510253906
0, 5, 40, 310.9754943847656
0, 5, 41, 272.3048706054688
0, 5, 42, 306.7510375976562
0, 5, 43, 314.7643127441406
0, 5, 44, 293.6227722167969
0, 5, 45, 300.1005859375
0, 5, 46, 264.4591674804688
0, 5, 47, 279.461181640625
0, 5, 48, 294.5498046875
0, 5, 49, 287.3428039550781
0, 5, 50, 296.3691101074219
0, 5, 51, 281.2633056640625
0, 5, 52, 267.7843322753906
0, 5, 53, 283.7491149902344
0, 5, 54, 293.2305908203125
0, 5, 55, 344.7078857421875
0, 5, 56, 306.7814331054688
0, 5, 57, 308.0109558105469
0, 5, 58, 313.6117858886719
0, 5, 59, 302.8888549804688
0, 5, 60, 306.2961730957031
0, 5, 61, 281.2992858886719
0, 5, 62, 326.3521118164062
0, 5, 63, 293.4917907714844
0, 5, 64, 321.4737854003906
0, 5, 65, 307.36669921875
0, 5, 66, 329.0137023925781
0, 5, 67, 314.2168884277344
0, 5, 68, 309.8714904785156
0, 5, 69, 312.0409240722656
0, 5, 70, 301.5122985839844
0, 5, 71, 271.8966064453125
0, 5, 72, 308.6886901855469
0, 5, 73, 303.0620422363281
0, 5, 74, 295.3106384277344
0, 5, 75, 295.0980529785156
0, 5, 76, 287.7500915527344
0, 5, 77, 298.9130554199219
0, 5, 78, 316.8594665527344
0, 5, 79, 307.9782104492188
0, 5, 80, 296.5707092285156
0, 5, 81, 325.0456848144531
0, 5, 82, 323.0442199707031
0, 5, 83, 279.8459167480469
0, 5, 84, 300.8394470214844
0, 5, 85, 271.2197875976562
0, 5, 86, 327.7889099121094
0, 5, 87, 288.2449340820312
0, 5, 88, 315.3088989257812
0, 5, 89, 306.1624755859375
0, 5, 90, 315.2878723144531
0, 5, 91, 314.5308227539062
0, 5, 92, 295.3888549804688
0, 5, 93, 321.7464904785156
0, 5, 94, 311.1331481933594
0, 5, 95, 296.2764282226562
0, 5, 96, 298.9390258789062
0, 5, 97, 296.2817077636719
0, 5, 98, 315.8693542480469
0, 5, 99, 300.7072143554688
0, 5, 100, 291.1997985839844
0, 5, 101, 304.7424621582031
0, 5, 102, 291.6526489257812
0, 5, 103, 313.4788208007812
0, 5, 104, 303.7064819335938
0, 5, 105, 289.7070007324219
0, 5, 106, 280.7378540039062
0, 5, 107, 292.6795654296875
0, 5, 108, 265.7847900390625
0, 5, 109, 155.8039855957031
0, 5, 110, 41.51221084594727
0, 5, 111, 22.63751983642578
0, 5, 112, 16.36018562316895
0, 5, 113, 15.4213228225708
0, 5, 114, 15.88479804992676
0, 5, 115, 6.189199924468994
0, 5, 116, 8.332283973693848
0, 5, 117, 6.785711765289307
0, 5, 118, 12.62480449676514
0, 5, 119, 4.983225345611572
0, 5, 120, 5.6556396484375
0, 5, 121, 6.008798599243164
0, 5, 122, 6.647373199462891
0, 5, 123, 7.024513244628906
0, 5, 124, 6.444121837615967
0, 5, 125, 4.826549053192139
0, 5, 126, 5.797714233398438
0, 5, 127, 5.258002281188965
0, 6, 0, 5.587940692901611
0, 6, 1, 3.359665870666504
0, 6, 2, 5.559624195098877
0, 6, 3, 7.248261451721191
0, 6, 4, 3.21860671043396
0, 6, 5, 6.3966383934021
0, 6, 6, 7.93412971496582
0, 6, 7, 7.908905506134033
0, 6, 8, 10.18789386749268
0, 6, 9, 6.155199527740479
0, 6, 10, 8.06694507598877
0, 6, 11, 8.281103134155273
0, 6, 12, 10.54775905609131
0, 6, 13, 15.32695293426514
0, 6, 14, 11.55089378356934
0, 6, 15, 15.54837894439697
0, 6, 16, 28.09330177307129
0, 6, 17, 56.17953491210938
0, 6, 18, 174.0388031005859
0, 6, 19, 275.6580810546875
0, 6, 20, 290.4033508300781
0, 6, 21, 314.0813903808594
0, 6, 22, 319.3402709960938
0, 6, 23, 305.1499938964844
0, 6, 24, 315.4420776367188
0, 6, 25, 315.4994201660156
0, 6, 26, 323.0952453613281
0, 6, 27, 330.8890686035156
0, 6, 28, 298.0865783691406
0, 6, 29, 328.37353515625
0, 6, 30, 284.5127258300781
0, 6, 31, 285.7803344726562
0, 6, 32, 339.5111083984375
0, 6, 33, 302.4663696289062
0, 6, 34, 342.3354797363281
0, 6, 35, 320.5615844726562
0, 6, 36, 273.9303894042969
0, 6, 37, 288.4930114746094
0, 6, 38, 313.0003356933594
0, 6, 39, 299.0920715332031
0, 6, 40, 284.4005126953125
0, 6, 41, 293.4239807128906
0, 6, 42, 303.9979248046875
0, 6, 43, 289.4411926269531
0, 6, 44, 281.1355895996094
0, 6, 45, 319.10888671875
0, 6, 46, 302.8761291503906
0, 6, 47, 333.498291015625
0, 6, 48, 292.1548461914062
0, 6, 49, 310.6229858398438
0, 6, 50, 327.7227172851562
0, 6, 51, 309.7940979003906
0, 6, 52, 320.6763610839844
0, 6, 53, 329.1767578125
0, 6, 54, 302.9932861328125
0, 6, 55, 306.6356811523438
0, 6, 56, 294.7795104980469
0, 6, 57, 313.4478149414062
0, 6, 58, 265.0792846679688
0, 6, 59, 304.2597961425781
0, 6, 60, 314.1145324707031
0, 6, 61, 272.1588745117188
0, 6, 62, 337.2597045898438
0, 6, 63, 322.248046875
0, 6, 64, 292.2685852050781
0, 6, 65, 284.9933166503906
0, 6, 66, 303.8729553222656
0, 6, 67, 309.542236328125
0, 6, 68, 293.0387573242188
0, 6, 69, 277.2853393554688
0, 6, 70, 275.2195129394531
0, 6, 71, 289.3161010742188
0, 6, 72, 308.6419982910156
0, 6, 73, 293.4312744140625
0, 6, 74, 330.4673461914062
0, 6, 75, 343.0464477539062
0, 6, 76, 296.9346313476562
0, 6, 77, 286.0236511230469
0, 6, 78, 278.3528442382812
0, 6, 79, 292.2261352539062
0, 6, 80, 300.0531921386719
0, 6, 81, 314.3323669433594
0, 6, 82, 319.6979370117188
0, 6, 83, 319.4066162109375
0, 6, 84, 297.2081604003906
0, 6, 85, 301.1506958007812
0, 6, 86, 330.5999755859375
0, 6, 87, 291.7943115234375
0, 6, 88, 305.6822204589844
0, 6, 89, 303.0792541503906
0, 6, 90, 299.7829284667969
0, 6, 91, 310.3865356445312
0, 6, 92, 285.2192687988281
0, 6, 93, 298.9590759277344
0, 6, 94, 274.5135498046875
0, 6, 95, 300.1056213378906
0, 6, 96, 349.5533447265625
0, 6, 97, 308.2545471191406
0, 6, 98, 300.7823791503906
0, 6, 99, 271.9403381347656
0, 6, 100, 310.1553649902344
0, 6, 101, 294.7303771972656
0, 6, 102, 308.6855163574219
0, 6, 103, 309.7050170898438
0, 6, 104, 293.3172912597656
0, 6, 105, 302.4217529296875
0, 6, 106, 306.9316101074219
0, 6, 107, 305.1065368652344
0, 6, 108, 268.6242980957031
0, 6, 109, 187.9770965576172
0, 6, 110, 55.78840637207031
0, 6, 111, 21.3240852355957
0, 6, 112, 15.44354152679443
0, 6, 113, 10.83601474761963
0, 6, 114, 12.37062835693359
0, 6, 115, 12.28811359405518
0, 6, 116, 8.975368499755859
0, 6, 117, 7.625612258911133
0, 6, 118, 9.203471183776855
0, 6, 119, 12.93443489074707
0, 6, 120, 8.071723937988281
0, 6, 121, 7.258057594299316
0, 6, 122, 6.563499450683594
0, 6, 123, 5.256391525268555
0, 6, 124, 5.730257034301758
0, 6, 125, 6.07399320602417
0, 6, 126, 3.02149772644043
0, 6, 127, 5.953181743621826
0, 7, 0, 5.204366683959961
0, 7, 1, 3.395494222640991
0, 7, 2, 5.07870626449585
0, 7, 3, 3.149620294570923
0, 7, 4, 3.745080709457397
0, 7, 5, 7.153154850006104
0, 7, 6, 4.641636848449707
0, 7, 7, 5.219780445098877
0, 7, 8, 4.714382648468018
0, 7, 9, 5.636533260345459
0, 7, 10, 6.865730285644531
0, 7, 11, 9.278495788574219
0, 7, 12, 11.77402496337891
0, 7, 13, 10.65802955627441
0, 7, 14, 10.33599281311035
0, 7, 15, 16.79560661315918
0, 7, 16, 27.39909553527832
0, 7, 17, 97.24552917480469
0, 7, 18, 217.9231567382812
0, 7, 19, 292.1100463867188
0, 7, 20, 298.480712890625
0, 7, 21, 279.0849914550781
0, 7, 22, 299.1539001464844
0, 7, 23, 289.8085632324219
0, 7, 24, 312.9095458984375
0, 7, 25, 324.9476928710938
0, 7, 26, 276.607666015625
0, 7, 27, 298.561279296875
0, 7, 28, 326.6572570800781
0, 7, 29, 317.2339172363281
0, 7, 30, 300.5639343261719
0, 7, 31, 276.7723693847656
0, 7, 32, 305.0025939941406
0, 7, 33, 265.0855407714844
0, 7, 34, 301.4362487792969
0, 7, 35, 319.4361877441406
0, 7, 36, 330.5557861328125
0, 7, 37, 325.3121643066406
0, 7, 38, 298.3001098632812
0, 7, 39, 306.4796447753906
0, 7, 40, 288.661865234375
0, 7, 41, 273.86669921875
0, 7, 42, 300.3457946777344
0, 7, 43, 278.0339050292969
0, 7, 44, 303.28173828125
0, 7, 45, 295.8955078125
0, 7, 46, 281.71044921875
0, 7, 47, 329.3563842773438
0, 7, 48, 284.0346374511719
0, 7, 49, 302.5022583007812
0, 7, 50, 321.8556518554688
0, 7, 51, 298.7654113769531
0, 7, 52, 325.7552795410156
0, 7, 53, 310.0316772460938
0, 7, 54, 326.404541015625
0, 7, 55, 306.7730712890625
0, 7, 56, 280.2839965820312
0, 7, 57, 282.2402648925781
0, 7, 58, 295.3889465332031
0, 7, 59, 296.5664367675781
0, 7, 60, 323.8699340820312
0, 7, 61, 277.6474914550781
0, 7, 62, 297.4866638183594
0, 7, 63, 293.298095703125
0, 7, 64, 305.9701232910156
0, 7, 65, 332.7075500488281
0, 7, 66, 319.3664245605469
0, 7, 67, 300.4903259277344
0, 7, 68, 279.3062438964844
0, 7, 69, 293.7544860839844
0, 7, 70, 301.28759765625
0, 7, 71, 310.4547424316406
0, 7, 72, 286.8794250488281
0, 7, 73, 298.1570434570312
0, 7, 74, 345.5125122070312
0, 7, 75, 318.9064331054688
0, 7, 76, 323.4774169921875
0, 7, 77, 281.4278564453125
0, 7, 78, 301.9217224121094
0, 7, 79, 298.8619689941406
0, 7, 80, 313.63330078125
0, 7, 81, 320.7301025390625
0, 7, 82, 329.593017578125
0, 7, 83, 318.4295959472656
0, 7, 84, 309.2163391113281
0, 7, 85, 271.56494140625
0, 7, 86, 312.5918579101562
0, 7, 87, 309.5249633789062
0, 7, 88, 307.2384033203125
0, 7, 89, 293.1162109375
0, 7, 90, 308.1033630371094
0, 7, 91, 314.4940795898438
0, 7, 92, 286.7308959960938
0, 7, 93, 309.113525390625
0, 7, 94, 273.9274291992188
0, 7, 95, 295.86669921875
0, 7, 96, 331.8721313476562
0, 7, 97, 293.0770263671875
0, 7, 98, 290.5497436523438
0, 7, 99, 312.8939819335938
0, 7, 100, 280.23876953125
0, 7, 101, 275.3079223632812
0, 7, 102, 289.1127624511719
0, 7, 103, 291.0227966308594
0, 7, 104, 275.4121398925781
0, 7, 105, 305.4296264648438
0, 7, 106, 318.7259521484375
0, 7, 107, 296.6248474121094
0, 7, 108, 275.8187255859375
0, 7, 109, 237.6909790039062
0, 7, 110, 96.20252227783203
0, 7, 111, 24.21014785766602
0, 7, 112, 14.28216934204102
0, 7, 113, 12.99901676177979
0, 7, 114, 14.05437278747559
0, 7, 115, 13.51234912872314
0, 7, 116, 9.406304359436035
0, 7, 117, 6.044746398925781
0, 7, 118, 7.528073787689209
0, 7, 119, 6.797340393066406
0, 7, 120, 5.186727523803711
0, 7, 121, 7.042635440826416
0, 7, 122, 7.822941303253174
0, 7, 123, 8.940117835998535
0, 7, 124, 3.852779865264893
0, 7, 125, 6.40379524230957
0, 7, 126, 11.18629741668701
0, 7, 127, 2.312320470809937
0, 8, 0, 6.611786842346191
0, 8, 1, 2.859055995941162
0, 8, 2, 3.243683338165283
0, 8, 3, 4.616450309753418
0, 8, 4, 3.425913095474243
0, 8, 5, 7.324806690216064
0, 8, 6, 7.564149379730225
0, 8, 7, 6.769805908203125
0, 8, 8, 9.473725318908691
0, 8, 9, 5.480488777160645
0, 8, 10, 7.412458896636963
0, 8, 11, 14.06813144683838
0, 8, 12, 13.26408958435059
0, 8, 13, 14.19852066040039
0, 8, 14, 13.51547527313232
0, 8, 15, 19.64361190795898
0, 8, 16, 32.39652633666992
0, 8, 17, 131.8192749023438
0, 8, 18, 243.0031585693359
0, 8, 19, 296.8282165527344
0, 8, 20, 285.5249633789062
0, 8, 21, 306.1192016601562
0, 8, 22, 295.0989685058594
0, 8, 23, 274.0986633300781
0, 8, 24, 269.7821350097656
0, 8, 25, 274.8341064453125
0, 8, 26, 305.8273315429688
0, 8, 27, 307.7422180175781
0, 8, 28, 304.4286804199219
0, 8, 29, 318.5132751464844
0, 8, 30, 315.3023376464844
0, 8, 31, 304.1423034667969
0, 8, 32, 279.7540283203125
0, 8, 33, 293.496826171875
0, 8, 34, 290.0407409667969
0, 8, 35, 281.9132385253906
0, 8, 36, 315.7611389160156
0, 8, 37, 340.0283508300781
0, 8, 38, 332.8026428222656
0, 8, 39, 280.7992858886719
