# TOPAS Version: 3.1.p3
# Parameter File: batch_inserts_358.txt
# Results for scorer Readout_Adipose
# Scored in component: MyBox
# X in 1 bin  of 0.75 cm
# Y in 512 bins of 0.0783984 cm
# Z in 128 bins of 0.078125 cm
# EnergyDeposit ( MeV ) : Sum   
0, 0, 0, 3.803039073944092
0, 0, 1, 3.671941757202148
0, 0, 2, 4.268434047698975
0, 0, 3, 2.307235240936279
0, 0, 4, 3.595483541488647
0, 0, 5, 2.881951332092285
0, 0, 6, 4.533333778381348
0, 0, 7, 10.02410888671875
0, 0, 8, 6.928858280181885
0, 0, 9, 5.968887329101562
0, 0, 10, 6.45638370513916
0, 0, 11, 3.795980930328369
0, 0, 12, 5.35258150100708
0, 0, 13, 7.226823806762695
0, 0, 14, 9.795780181884766
0, 0, 15, 8.299215316772461
0, 0, 16, 7.795887470245361
0, 0, 17, 9.358613014221191
0, 0, 18, 14.49634075164795
0, 0, 19, 44.0709114074707
0, 0, 20, 138.8280029296875
0, 0, 21, 223.6640319824219
0, 0, 22, 248.6024475097656
0, 0, 23, 256.1893920898438
0, 0, 24, 249.5785675048828
0, 0, 25, 259.8965148925781
0, 0, 26, 236.0772094726562
0, 0, 27, 236.2868194580078
0, 0, 28, 273.3543090820312
0, 0, 29, 251.9564666748047
0, 0, 30, 229.7711334228516
0, 0, 31, 243.6087188720703
0, 0, 32, 264.976806640625
0, 0, 33, 261.4686889648438
0, 0, 34, 288.7471923828125
0, 0, 35, 268.2412109375
0, 0, 36, 247.48095703125
0, 0, 37, 254.0312957763672
0, 0, 38, 269.352783203125
0, 0, 39, 228.3550262451172
0, 0, 40, 240.4790802001953
0, 0, 41, 264.8197326660156
0, 0, 42, 230.0676879882812
0, 0, 43, 261.0800476074219
0, 0, 44, 251.1721038818359
0, 0, 45, 253.4389801025391
0, 0, 46, 243.0935516357422
0, 0, 47, 253.3061218261719
0, 0, 48, 267.6572265625
0, 0, 49, 273.35595703125
0, 0, 50, 250.5247344970703
0, 0, 51, 254.0912017822266
0, 0, 52, 273.2627258300781
0, 0, 53, 292.5762329101562
0, 0, 54, 244.5005340576172
0, 0, 55, 241.0591583251953
0, 0, 56, 278.9927673339844
0, 0, 57, 266.8907470703125
0, 0, 58, 246.3343505859375
0, 0, 59, 270.7279357910156
0, 0, 60, 234.4012603759766
0, 0, 61, 244.5744323730469
0, 0, 62, 255.4689331054688
0, 0, 63, 267.3936157226562
0, 0, 64, 256.8878784179688
0, 0, 65, 260.700439453125
0, 0, 66, 276.7376098632812
0, 0, 67, 246.7302398681641
0, 0, 68, 257.7955017089844
0, 0, 69, 262.0307312011719
0, 0, 70, 273.843505859375
0, 0, 71, 239.6626739501953
0, 0, 72, 251.1332702636719
0, 0, 73, 257.8827209472656
0, 0, 74, 254.7053680419922
0, 0, 75, 240.4282379150391
0, 0, 76, 229.1725769042969
0, 0, 77, 261.0289916992188
0, 0, 78, 256.0556335449219
0, 0, 79, 279.1624450683594
0, 0, 80, 217.3410034179688
0, 0, 81, 268.4880676269531
0, 0, 82, 256.3613891601562
0, 0, 83, 243.3476104736328
0, 0, 84, 269.3047180175781
0, 0, 85, 232.8018798828125
0, 0, 86, 252.6959838867188
0, 0, 87, 248.6373443603516
0, 0, 88, 258.9458923339844
0, 0, 89, 284.3772583007812
0, 0, 90, 243.5863189697266
0, 0, 91, 281.6661987304688
0, 0, 92, 255.8987121582031
0, 0, 93, 249.6550750732422
0, 0, 94, 251.5099487304688
0, 0, 95, 247.9215850830078
0, 0, 96, 273.6276550292969
0, 0, 97, 272.0587463378906
0, 0, 98, 273.9154968261719
0, 0, 99, 259.3864135742188
0, 0, 100, 259.0255126953125
0, 0, 101, 226.9442138671875
0, 0, 102, 234.4415130615234
0, 0, 103, 271.094970703125
0, 0, 104, 253.628173828125
0, 0, 105, 251.2137298583984
0, 0, 106, 245.7495574951172
0, 0, 107, 155.8051300048828
0, 0, 108, 40.49138259887695
0, 0, 109, 11.89957332611084
0, 0, 110, 12.24542808532715
0, 0, 111, 9.785367965698242
0, 0, 112, 6.139458179473877
0, 0, 113, 5.127270698547363
0, 0, 114, 6.016367435455322
0, 0, 115, 3.745220899581909
0, 0, 116, 4.145321846008301
0, 0, 117, 5.529415607452393
0, 0, 118, 5.605583190917969
0, 0, 119, 7.138768196105957
0, 0, 120, 5.027037620544434
0, 0, 121, 2.381392478942871
0, 0, 122, 3.782489061355591
0, 0, 123, 4.163887023925781
0, 0, 124, 5.874110698699951
0, 0, 125, 1.933901309967041
0, 0, 126, 4.353970050811768
0, 0, 127, 2.485164880752563
0, 1, 0, 6.454048156738281
0, 1, 1, 2.95205545425415
0, 1, 2, 4.581723690032959
0, 1, 3, 3.281660556793213
0, 1, 4, 2.36177134513855
0, 1, 5, 2.525355339050293
0, 1, 6, 3.972664356231689
0, 1, 7, 6.403974533081055
0, 1, 8, 6.275747299194336
0, 1, 9, 3.199545860290527
0, 1, 10, 7.614944934844971
0, 1, 11, 10.94376373291016
0, 1, 12, 8.256172180175781
0, 1, 13, 9.329310417175293
0, 1, 14, 8.749462127685547
0, 1, 15, 5.838034152984619
0, 1, 16, 11.2066068649292
0, 1, 17, 10.83841323852539
0, 1, 18, 22.2587776184082
0, 1, 19, 64.99950408935547
0, 1, 20, 201.43505859375
0, 1, 21, 255.0320892333984
0, 1, 22, 297.0417785644531
0, 1, 23, 282.6754760742188
0, 1, 24, 274.9711608886719
0, 1, 25, 285.9398498535156
0, 1, 26, 267.8038635253906
0, 1, 27, 306.6643981933594
0, 1, 28, 298.8472290039062
0, 1, 29, 295.5043640136719
0, 1, 30, 279.2997131347656
0, 1, 31, 291.6222839355469
0, 1, 32, 290.7610473632812
0, 1, 33, 294.7606811523438
0, 1, 34, 291.8282165527344
0, 1, 35, 277.9703979492188
0, 1, 36, 306.9151306152344
0, 1, 37, 294.0256042480469
0, 1, 38, 281.3248596191406
0, 1, 39, 295.8912048339844
0, 1, 40, 268.1564025878906
0, 1, 41, 285.7220458984375
0, 1, 42, 289.6644592285156
0, 1, 43, 332.9451293945312
0, 1, 44, 279.5703735351562
0, 1, 45, 291.3761291503906
0, 1, 46, 258.662109375
0, 1, 47, 309.9287414550781
0, 1, 48, 285.7762145996094
0, 1, 49, 302.1742858886719
0, 1, 50, 262.4127807617188
0, 1, 51, 273.5984802246094
0, 1, 52, 293.78076171875
0, 1, 53, 306.0631713867188
0, 1, 54, 274.2632141113281
0, 1, 55, 294.2640380859375
0, 1, 56, 278.0112609863281
0, 1, 57, 299.6712951660156
0, 1, 58, 309.8152160644531
0, 1, 59, 293.4275512695312
0, 1, 60, 296.5264892578125
0, 1, 61, 273.1994018554688
0, 1, 62, 307.1403503417969
0, 1, 63, 285.88427734375
0, 1, 64, 290.0888061523438
0, 1, 65, 295.4820251464844
0, 1, 66, 292.9989013671875
0, 1, 67, 292.3465270996094
0, 1, 68, 277.9914855957031
0, 1, 69, 280.7533264160156
0, 1, 70, 274.7745056152344
0, 1, 71, 272.8253784179688
0, 1, 72, 286.1886901855469
0, 1, 73, 304.9162902832031
0, 1, 74, 302.7210388183594
0, 1, 75, 294.3452758789062
0, 1, 76, 284.6489868164062
0, 1, 77, 291.37646484375
0, 1, 78, 298.8621215820312
0, 1, 79, 303.7631530761719
0, 1, 80, 294.9621276855469
0, 1, 81, 301.8460693359375
0, 1, 82, 283.9716186523438
0, 1, 83, 330.2739562988281
0, 1, 84, 308.419677734375
0, 1, 85, 252.9127349853516
0, 1, 86, 294.7424011230469
0, 1, 87, 294.2882995605469
0, 1, 88, 298.630859375
0, 1, 89, 289.796630859375
0, 1, 90, 271.4676818847656
0, 1, 91, 317.2807006835938
0, 1, 92, 290.6477355957031
0, 1, 93, 285.9223022460938
0, 1, 94, 301.2474670410156
0, 1, 95, 283.8440246582031
0, 1, 96, 283.05419921875
0, 1, 97, 299.4705505371094
0, 1, 98, 277.6087646484375
0, 1, 99, 267.5850524902344
0, 1, 100, 276.513427734375
0, 1, 101, 282.8453674316406
0, 1, 102, 275.6723022460938
0, 1, 103, 280.4532775878906
0, 1, 104, 310.1143798828125
0, 1, 105, 295.9164123535156
0, 1, 106, 262.1815795898438
0, 1, 107, 192.7312622070312
0, 1, 108, 82.02542114257812
0, 1, 109, 23.10114479064941
0, 1, 110, 11.75271606445312
0, 1, 111, 7.772211074829102
0, 1, 112, 11.76976490020752
0, 1, 113, 5.33659839630127
0, 1, 114, 7.058327674865723
0, 1, 115, 7.907403945922852
0, 1, 116, 13.21135807037354
0, 1, 117, 7.708791732788086
0, 1, 118, 3.980596780776978
0, 1, 119, 3.669973611831665
0, 1, 120, 5.776670455932617
0, 1, 121, 4.394944190979004
0, 1, 122, 2.774889707565308
0, 1, 123, 3.978775262832642
0, 1, 124, 8.393198013305664
0, 1, 125, 4.087355136871338
0, 1, 126, 2.772214651107788
0, 1, 127, 2.543278455734253
0, 2, 0, 4.812438011169434
0, 2, 1, 1.729097604751587
0, 2, 2, 4.244258880615234
0, 2, 3, 5.97047233581543
0, 2, 4, 3.970734834671021
0, 2, 5, 1.736159324645996
0, 2, 6, 1.929280519485474
0, 2, 7, 2.933236122131348
0, 2, 8, 4.650022029876709
0, 2, 9, 5.83743143081665
0, 2, 10, 9.520886421203613
0, 2, 11, 6.758649826049805
0, 2, 12, 9.652912139892578
0, 2, 13, 9.469932556152344
0, 2, 14, 9.578186988830566
0, 2, 15, 8.677952766418457
0, 2, 16, 10.83288478851318
0, 2, 17, 16.28104972839355
0, 2, 18, 32.2725715637207
0, 2, 19, 116.4294052124023
0, 2, 20, 247.6995697021484
0, 2, 21, 270.7662353515625
0, 2, 22, 315.8227233886719
0, 2, 23, 301.1228332519531
0, 2, 24, 288.1333618164062
0, 2, 25, 302.6578063964844
0, 2, 26, 291.0442504882812
0, 2, 27, 275.0685729980469
0, 2, 28, 275.3240966796875
0, 2, 29, 275.0595092773438
0, 2, 30, 290.4610595703125
0, 2, 31, 277.4385681152344
0, 2, 32, 293.6238098144531
0, 2, 33, 284.0010681152344
0, 2, 34, 332.4223327636719
0, 2, 35, 289.002197265625
0, 2, 36, 304.2825622558594
0, 2, 37, 316.8412170410156
0, 2, 38, 313.1502380371094
0, 2, 39, 268.0514526367188
0, 2, 40, 308.0554504394531
0, 2, 41, 294.0900268554688
0, 2, 42, 304.63037109375
0, 2, 43, 315.5537109375
0, 2, 44, 311.8811950683594
0, 2, 45, 324.7529602050781
0, 2, 46, 286.1026306152344
0, 2, 47, 302.3707580566406
0, 2, 48, 284.4985656738281
0, 2, 49, 278.7533264160156
0, 2, 50, 293.91259765625
0, 2, 51, 283.6557312011719
0, 2, 52, 275.9084777832031
0, 2, 53, 287.0840759277344
0, 2, 54, 279.9869079589844
0, 2, 55, 276.4304809570312
0, 2, 56, 300.5485534667969
0, 2, 57, 291.142333984375
0, 2, 58, 302.3462524414062
0, 2, 59, 286.4820861816406
0, 2, 60, 320.4533386230469
0, 2, 61, 302.8645935058594
0, 2, 62, 312.9467468261719
0, 2, 63, 302.4822692871094
0, 2, 64, 297.2521667480469
0, 2, 65, 311.1344299316406
0, 2, 66, 278.7969360351562
0, 2, 67, 292.3617248535156
0, 2, 68, 295.7666625976562
0, 2, 69, 310.5610656738281
0, 2, 70, 332.9189147949219
0, 2, 71, 284.1611938476562
0, 2, 72, 301.9236450195312
0, 2, 73, 313.8288269042969
0, 2, 74, 286.1224670410156
0, 2, 75, 306.2654418945312
0, 2, 76, 285.6130676269531
0, 2, 77, 299.16015625
0, 2, 78, 315.4419860839844
0, 2, 79, 308.5616455078125
0, 2, 80, 297.4972229003906
0, 2, 81, 282.8477172851562
0, 2, 82, 317.4384460449219
0, 2, 83, 314.1294555664062
0, 2, 84, 287.2966918945312
0, 2, 85, 281.9324645996094
0, 2, 86, 328.5680541992188
0, 2, 87, 287.6172485351562
0, 2, 88, 279.4856567382812
0, 2, 89, 296.7965393066406
0, 2, 90, 295.7088317871094
0, 2, 91, 277.6225891113281
0, 2, 92, 304.489990234375
0, 2, 93, 315.3772583007812
0, 2, 94, 291.3211975097656
0, 2, 95, 313.9696655273438
0, 2, 96, 316.1791687011719
0, 2, 97, 292.7781066894531
0, 2, 98, 291.7107849121094
0, 2, 99, 273.5240783691406
0, 2, 100, 305.2112426757812
0, 2, 101, 301.3926391601562
0, 2, 102, 296.6047668457031
0, 2, 103, 293.7509765625
0, 2, 104, 293.8364868164062
0, 2, 105, 275.2689208984375
0, 2, 106, 296.5477600097656
0, 2, 107, 267.7234497070312
0, 2, 108, 116.7743148803711
0, 2, 109, 33.48656463623047
0, 2, 110, 9.417649269104004
0, 2, 111, 10.31879615783691
0, 2, 112, 6.861300468444824
0, 2, 113, 9.461032867431641
0, 2, 114, 12.01523208618164
0, 2, 115, 11.38914203643799
0, 2, 116, 8.283129692077637
0, 2, 117, 6.845813751220703
0, 2, 118, 3.720941305160522
0, 2, 119, 6.26912784576416
0, 2, 120, 6.660178661346436
0, 2, 121, 2.319223642349243
0, 2, 122, 3.173033475875854
0, 2, 123, 6.55531644821167
0, 2, 124, 3.920053243637085
0, 2, 125, 5.301333904266357
0, 2, 126, 6.290909290313721
0, 2, 127, 3.869875192642212
0, 3, 0, 3.921363115310669
0, 3, 1, 4.420538902282715
0, 3, 2, 3.56691312789917
0, 3, 3, 1.734041452407837
0, 3, 4, 4.557872772216797
0, 3, 5, 6.130607604980469
0, 3, 6, 6.7480149269104
0, 3, 7, 5.235709667205811
0, 3, 8, 7.010674953460693
0, 3, 9, 7.236456871032715
0, 3, 10, 5.555875778198242
0, 3, 11, 4.787293910980225
0, 3, 12, 7.212024211883545
0, 3, 13, 16.41213035583496
0, 3, 14, 10.70655155181885
0, 3, 15, 15.3257942199707
0, 3, 16, 11.10093784332275
0, 3, 17, 18.57230377197266
0, 3, 18, 50.81838226318359
0, 3, 19, 177.4725036621094
0, 3, 20, 269.5905456542969
0, 3, 21, 271.3337097167969
0, 3, 22, 281.6199035644531
0, 3, 23, 286.3378295898438
0, 3, 24, 286.4934387207031
0, 3, 25, 269.8754272460938
0, 3, 26, 303.900146484375
0, 3, 27, 292.7892456054688
0, 3, 28, 284.7208557128906
0, 3, 29, 339.224609375
0, 3, 30, 318.2151184082031
0, 3, 31, 289.5821533203125
0, 3, 32, 307.6571044921875
0, 3, 33, 313.7351989746094
0, 3, 34, 321.1888122558594
0, 3, 35, 310.0333862304688
0, 3, 36, 268.5339965820312
0, 3, 37, 311.90966796875
0, 3, 38, 304.9718017578125
0, 3, 39, 294.9978637695312
0, 3, 40, 267.4058532714844
0, 3, 41, 298.1432189941406
0, 3, 42, 286.9064331054688
0, 3, 43, 304.1591186523438
0, 3, 44, 310.9898071289062
0, 3, 45, 290.8558044433594
0, 3, 46, 329.96337890625
0, 3, 47, 300.0444641113281
0, 3, 48, 301.6211242675781
0, 3, 49, 276.2743530273438
0, 3, 50, 290.1683654785156
0, 3, 51, 275.6976928710938
0, 3, 52, 315.9358215332031
0, 3, 53, 288.0257263183594
0, 3, 54, 285.7408752441406
0, 3, 55, 284.6080017089844
0, 3, 56, 297.8559265136719
0, 3, 57, 288.3907165527344
0, 3, 58, 305.1474304199219
0, 3, 59, 297.6070251464844
0, 3, 60, 297.7271118164062
0, 3, 61, 264.8401794433594
0, 3, 62, 284.7032470703125
0, 3, 63, 307.2627868652344
0, 3, 64, 317.2154541015625
0, 3, 65, 305.2535095214844
0, 3, 66, 314.1591186523438
0, 3, 67, 318.3813171386719
0, 3, 68, 279.3564147949219
0, 3, 69, 282.3021545410156
0, 3, 70, 288.9700927734375
0, 3, 71, 298.0394592285156
0, 3, 72, 269.5490417480469
0, 3, 73, 306.03369140625
0, 3, 74, 291.1062622070312
0, 3, 75, 289.946044921875
0, 3, 76, 307.5597229003906
0, 3, 77, 315.0317687988281
0, 3, 78, 304.3747253417969
0, 3, 79, 282.9259643554688
0, 3, 80, 289.5512084960938
0, 3, 81, 310.9840087890625
0, 3, 82, 316.9733581542969
0, 3, 83, 302.5402526855469
0, 3, 84, 311.6619262695312
0, 3, 85, 294.3460083007812
0, 3, 86, 304.430419921875
0, 3, 87, 299.2793273925781
0, 3, 88, 299.8573303222656
0, 3, 89, 297.410400390625
0, 3, 90, 277.824951171875
0, 3, 91, 283.8204040527344
0, 3, 92, 302.995849609375
0, 3, 93, 311.6988525390625
0, 3, 94, 299.8204956054688
0, 3, 95, 335.0493469238281
0, 3, 96, 291.4428405761719
0, 3, 97, 282.3236694335938
0, 3, 98, 278.3497314453125
0, 3, 99, 260.919921875
0, 3, 100, 286.5992736816406
0, 3, 101, 298.2301635742188
0, 3, 102, 274.2845458984375
0, 3, 103, 319.3634948730469
0, 3, 104, 309.6309509277344
0, 3, 105, 287.7237243652344
0, 3, 106, 302.5586242675781
0, 3, 107, 283.0030517578125
0, 3, 108, 170.1116638183594
0, 3, 109, 57.32377243041992
0, 3, 110, 17.5833683013916
0, 3, 111, 12.63088130950928
0, 3, 112, 14.62094306945801
0, 3, 113, 7.056655406951904
0, 3, 114, 10.46124267578125
0, 3, 115, 7.197349548339844
0, 3, 116, 9.437898635864258
0, 3, 117, 9.230111122131348
0, 3, 118, 6.860533714294434
0, 3, 119, 8.449393272399902
0, 3, 120, 7.813392162322998
0, 3, 121, 2.995607376098633
0, 3, 122, 3.397746324539185
0, 3, 123, 4.333229064941406
0, 3, 124, 2.771728992462158
0, 3, 125, 6.513522148132324
0, 3, 126, 5.765017032623291
0, 3, 127, 2.929358005523682
0, 4, 0, 3.29613208770752
0, 4, 1, 4.556273460388184
0, 4, 2, 2.919597387313843
0, 4, 3, 2.92048192024231
0, 4, 4, 7.024178981781006
0, 4, 5, 9.104129791259766
0, 4, 6, 10.36888217926025
0, 4, 7, 6.271930694580078
0, 4, 8, 3.607894420623779
0, 4, 9, 7.357035160064697
0, 4, 10, 7.495711803436279
0, 4, 11, 6.898694038391113
0, 4, 12, 6.649011611938477
0, 4, 13, 7.877933979034424
0, 4, 14, 11.65346527099609
0, 4, 15, 8.571754455566406
0, 4, 16, 13.86495208740234
0, 4, 17, 18.13879776000977
0, 4, 18, 94.85825347900391
0, 4, 19, 221.2976989746094
0, 4, 20, 286.6162719726562
0, 4, 21, 272.4826965332031
0, 4, 22, 305.2660522460938
0, 4, 23, 265.2923889160156
0, 4, 24, 289.1032104492188
0, 4, 25, 272.0321655273438
0, 4, 26, 294.5134887695312
0, 4, 27, 285.1207885742188
0, 4, 28, 309.5073547363281
0, 4, 29, 324.2406005859375
0, 4, 30, 309.2187194824219
0, 4, 31, 303.1220092773438
0, 4, 32, 280.8648681640625
0, 4, 33, 295.653076171875
0, 4, 34, 298.8836059570312
0, 4, 35, 312.2101440429688
0, 4, 36, 291.4556274414062
0, 4, 37, 290.718505859375
0, 4, 38, 299.2498474121094
0, 4, 39, 294.0939331054688
0, 4, 40, 300.6496276855469
0, 4, 41, 311.8426513671875
0, 4, 42, 332.8875732421875
0, 4, 43, 296.0894775390625
0, 4, 44, 320.5117492675781
0, 4, 45, 323.9676818847656
0, 4, 46, 307.956298828125
0, 4, 47, 292.5265502929688
0, 4, 48, 296.5591430664062
0, 4, 49, 279.3941040039062
0, 4, 50, 299.8446655273438
0, 4, 51, 315.4140625
0, 4, 52, 326.1768188476562
0, 4, 53, 304.6148681640625
0, 4, 54, 287.0716857910156
0, 4, 55, 316.2815856933594
0, 4, 56, 286.8984069824219
0, 4, 57, 310.1716003417969
0, 4, 58, 297.2680969238281
0, 4, 59, 310.1826782226562
0, 4, 60, 301.4511413574219
0, 4, 61, 316.0469665527344
0, 4, 62, 312.4409790039062
0, 4, 63, 300.8968505859375
0, 4, 64, 331.7158508300781
0, 4, 65, 315.4466857910156
0, 4, 66, 294.1040344238281
0, 4, 67, 286.9957580566406
0, 4, 68, 314.4121704101562
0, 4, 69, 275.9960327148438
0, 4, 70, 303.176513671875
0, 4, 71, 323.8404846191406
0, 4, 72, 334.0487060546875
0, 4, 73, 300.7929077148438
0, 4, 74, 291.8725280761719
0, 4, 75, 288.7149047851562
0, 4, 76, 276.2146301269531
0, 4, 77, 280.5189208984375
0, 4, 78, 309.7922668457031
0, 4, 79, 319.8441467285156
0, 4, 80, 317.85546875
0, 4, 81, 312.2243957519531
0, 4, 82, 297.9851379394531
0, 4, 83, 299.8639526367188
0, 4, 84, 291.0087890625
0, 4, 85, 295.3654174804688
0, 4, 86, 298.1880798339844
0, 4, 87, 284.6494140625
0, 4, 88, 306.8338317871094
0, 4, 89, 294.5050048828125
0, 4, 90, 331.1011352539062
0, 4, 91, 302.4593811035156
0, 4, 92, 289.6174926757812
0, 4, 93, 297.9503173828125
0, 4, 94, 292.5713500976562
0, 4, 95, 288.8402099609375
0, 4, 96, 322.4767456054688
0, 4, 97, 274.2159118652344
0, 4, 98, 327.0579223632812
0, 4, 99, 316.0788879394531
0, 4, 100, 302.7405395507812
0, 4, 101, 257.7231750488281
0, 4, 102, 295.7666015625
0, 4, 103, 316.5009460449219
0, 4, 104, 281.3782348632812
0, 4, 105, 313.8115844726562
0, 4, 106, 287.7632751464844
0, 4, 107, 294.8352661132812
0, 4, 108, 226.125244140625
0, 4, 109, 79.61971282958984
0, 4, 110, 16.78981018066406
0, 4, 111, 14.57261371612549
0, 4, 112, 8.896174430847168
0, 4, 113, 9.169079780578613
0, 4, 114, 8.389959335327148
0, 4, 115, 9.630376815795898
0, 4, 116, 8.291065216064453
0, 4, 117, 6.210855484008789
0, 4, 118, 8.564028739929199
0, 4, 119, 11.74844169616699
0, 4, 120, 5.445037364959717
0, 4, 121, 6.043907642364502
0, 4, 122, 6.405618190765381
0, 4, 123, 7.314521312713623
0, 4, 124, 6.732203483581543
0, 4, 125, 10.00559520721436
0, 4, 126, 6.397196292877197
0, 4, 127, 3.563492298126221
0, 5, 0, 4.148628234863281
0, 5, 1, 4.195809841156006
0, 5, 2, 3.579719543457031
0, 5, 3, 3.433941841125488
0, 5, 4, 4.441937446594238
0, 5, 5, 4.4422926902771
0, 5, 6, 6.523433685302734
0, 5, 7, 5.612959384918213
0, 5, 8, 5.167112350463867
0, 5, 9, 5.150418758392334
0, 5, 10, 5.686416625976562
0, 5, 11, 8.890336990356445
0, 5, 12, 9.546747207641602
0, 5, 13, 4.779670238494873
0, 5, 14, 14.02372741699219
0, 5, 15, 17.82872009277344
0, 5, 16, 15.05588245391846
0, 5, 17, 29.11580467224121
0, 5, 18, 139.3597259521484
0, 5, 19, 288.5777282714844
0, 5, 20, 307.7643432617188
0, 5, 21, 317.4284362792969
0, 5, 22, 275.89599609375
0, 5, 23, 311.8181457519531
0, 5, 24, 302.0538024902344
0, 5, 25, 290.9683532714844
0, 5, 26, 293.889892578125
0, 5, 27, 321.0934753417969
0, 5, 28, 303.8233337402344
0, 5, 29, 296.5096130371094
0, 5, 30, 322.5035705566406
0, 5, 31, 285.5240478515625
0, 5, 32, 302.5024108886719
0, 5, 33, 303.2363586425781
0, 5, 34, 296.3949279785156
0, 5, 35, 308.3616333007812
0, 5, 36, 272.6558227539062
0, 5, 37, 284.4271850585938
0, 5, 38, 293.5052795410156
0, 5, 39, 311.384033203125
0, 5, 40, 310.2025146484375
0, 5, 41, 274.3010559082031
0, 5, 42, 304.9853820800781
0, 5, 43, 314.22607421875
0, 5, 44, 291.3788757324219
0, 5, 45, 301.842041015625
0, 5, 46, 264.2689208984375
0, 5, 47, 280.8952026367188
0, 5, 48, 292.9544067382812
0, 5, 49, 285.6760864257812
0, 5, 50, 293.6451110839844
0, 5, 51, 278.5125732421875
0, 5, 52, 268.1983032226562
0, 5, 53, 284.038818359375
0, 5, 54, 291.22900390625
0, 5, 55, 345.4499816894531
0, 5, 56, 305.7916259765625
0, 5, 57, 307.2034606933594
0, 5, 58, 314.1685180664062
0, 5, 59, 304.5574035644531
0, 5, 60, 307.3171997070312
0, 5, 61, 281.1913757324219
0, 5, 62, 324.1874694824219
0, 5, 63, 292.0590515136719
0, 5, 64, 323.1171875
0, 5, 65, 306.7253112792969
0, 5, 66, 327.2643432617188
0, 5, 67, 313.2630920410156
0, 5, 68, 310.3621520996094
0, 5, 69, 310.8559875488281
0, 5, 70, 299.6012573242188
0, 5, 71, 273.3670959472656
0, 5, 72, 311.4219055175781
0, 5, 73, 304.0743103027344
0, 5, 74, 295.2955017089844
0, 5, 75, 293.9752502441406
0, 5, 76, 286.5032958984375
0, 5, 77, 298.3822631835938
0, 5, 78, 313.4975280761719
0, 5, 79, 305.671142578125
0, 5, 80, 295.3162536621094
0, 5, 81, 324.8873291015625
0, 5, 82, 323.6342468261719
0, 5, 83, 283.3190307617188
0, 5, 84, 305.0169677734375
0, 5, 85, 271.3055725097656
0, 5, 86, 324.4828796386719
0, 5, 87, 284.6248474121094
0, 5, 88, 313.2225341796875
0, 5, 89, 304.43017578125
0, 5, 90, 316.7726745605469
0, 5, 91, 313.4888610839844
0, 5, 92, 296.4577941894531
0, 5, 93, 321.9082641601562
0, 5, 94, 308.0231628417969
0, 5, 95, 297.4201354980469
0, 5, 96, 295.260009765625
0, 5, 97, 296.3573913574219
0, 5, 98, 318.3152160644531
0, 5, 99, 301.7127685546875
0, 5, 100, 290.3309020996094
0, 5, 101, 307.5265197753906
0, 5, 102, 292.9942626953125
0, 5, 103, 313.5894470214844
0, 5, 104, 301.8953552246094
0, 5, 105, 294.0171508789062
0, 5, 106, 281.0160522460938
0, 5, 107, 292.8666381835938
0, 5, 108, 264.61181640625
0, 5, 109, 157.4471130371094
0, 5, 110, 38.5007209777832
0, 5, 111, 21.12393188476562
0, 5, 112, 17.33282852172852
0, 5, 113, 15.67164421081543
0, 5, 114, 13.0546817779541
0, 5, 115, 8.407280921936035
0, 5, 116, 10.78543853759766
0, 5, 117, 5.946600437164307
0, 5, 118, 12.9762601852417
0, 5, 119, 3.831745624542236
0, 5, 120, 4.187216281890869
0, 5, 121, 4.72887134552002
0, 5, 122, 6.308469295501709
0, 5, 123, 4.926888465881348
0, 5, 124, 4.276469230651855
0, 5, 125, 6.170596122741699
0, 5, 126, 5.828907012939453
0, 5, 127, 3.63093638420105
0, 6, 0, 6.687921524047852
0, 6, 1, 2.79677152633667
0, 6, 2, 5.466842174530029
0, 6, 3, 4.741013050079346
0, 6, 4, 3.362876653671265
0, 6, 5, 5.498164653778076
0, 6, 6, 12.85009860992432
0, 6, 7, 7.312171936035156
0, 6, 8, 7.615646362304688
0, 6, 9, 5.425374031066895
0, 6, 10, 7.1426682472229
0, 6, 11, 10.1386022567749
0, 6, 12, 7.655584812164307
0, 6, 13, 13.13219451904297
0, 6, 14, 9.418923377990723
0, 6, 15, 17.07356071472168
0, 6, 16, 28.76819229125977
0, 6, 17, 55.06603622436523
0, 6, 18, 173.1768798828125
0, 6, 19, 275.7297668457031
0, 6, 20, 290.1162414550781
0, 6, 21, 316.9989624023438
0, 6, 22, 319.0120239257812
0, 6, 23, 304.9837341308594
0, 6, 24, 317.2830505371094
0, 6, 25, 316.4713745117188
0, 6, 26, 321.8548889160156
0, 6, 27, 330.8756103515625
0, 6, 28, 295.51708984375
0, 6, 29, 330.3609313964844
0, 6, 30, 285.5555725097656
0, 6, 31, 287.1007080078125
0, 6, 32, 342.0982055664062
0, 6, 33, 300.2210083007812
0, 6, 34, 341.1980590820312
0, 6, 35, 319.7356262207031
0, 6, 36, 274.0520324707031
0, 6, 37, 289.50830078125
0, 6, 38, 312.8807067871094
0, 6, 39, 297.8828430175781
0, 6, 40, 283.4309692382812
0, 6, 41, 293.9331359863281
0, 6, 42, 302.9065856933594
0, 6, 43, 289.2779235839844
0, 6, 44, 280.5044250488281
0, 6, 45, 319.9799499511719
0, 6, 46, 303.3539123535156
0, 6, 47, 335.860107421875
0, 6, 48, 292.6338500976562
0, 6, 49, 313.8518676757812
0, 6, 50, 327.1432800292969
0, 6, 51, 309.534423828125
0, 6, 52, 321.8702087402344
0, 6, 53, 328.1080322265625
0, 6, 54, 303.5158081054688
0, 6, 55, 305.4198913574219
0, 6, 56, 295.367431640625
0, 6, 57, 312.6026916503906
0, 6, 58, 262.3995361328125
0, 6, 59, 299.8694458007812
0, 6, 60, 316.4596557617188
0, 6, 61, 273.0889282226562
0, 6, 62, 338.5990600585938
0, 6, 63, 322.883056640625
0, 6, 64, 290.4100341796875
0, 6, 65, 284.4867553710938
0, 6, 66, 303.267333984375
0, 6, 67, 310.4603576660156
0, 6, 68, 294.4017028808594
0, 6, 69, 277.8176574707031
0, 6, 70, 275.7395935058594
0, 6, 71, 291.4963989257812
0, 6, 72, 309.707763671875
0, 6, 73, 291.9580078125
0, 6, 74, 332.7675476074219
0, 6, 75, 342.5307312011719
0, 6, 76, 297.700439453125
0, 6, 77, 286.343505859375
0, 6, 78, 279.5047912597656
0, 6, 79, 292.0516357421875
0, 6, 80, 299.7779541015625
0, 6, 81, 316.6937255859375
0, 6, 82, 319.8274536132812
0, 6, 83, 318.5385437011719
0, 6, 84, 295.150390625
0, 6, 85, 300.2663269042969
0, 6, 86, 330.4591369628906
0, 6, 87, 290.8980102539062
0, 6, 88, 308.0601196289062
0, 6, 89, 305.2463073730469
0, 6, 90, 300.3267211914062
0, 6, 91, 312.2882385253906
0, 6, 92, 283.3311767578125
0, 6, 93, 296.9476928710938
0, 6, 94, 275.0588073730469
0, 6, 95, 300.2554626464844
0, 6, 96, 347.8173522949219
0, 6, 97, 310.4260864257812
0, 6, 98, 300.4732055664062
0, 6, 99, 269.8672180175781
0, 6, 100, 309.6030883789062
0, 6, 101, 293.484130859375
0, 6, 102, 308.0029907226562
0, 6, 103, 308.18798828125
0, 6, 104, 296.969970703125
0, 6, 105, 299.5668640136719
0, 6, 106, 308.0861206054688
0, 6, 107, 305.2406005859375
0, 6, 108, 266.0432434082031
0, 6, 109, 186.3648223876953
0, 6, 110, 55.35836029052734
0, 6, 111, 22.84316444396973
0, 6, 112, 13.300217628479
0, 6, 113, 10.82171726226807
0, 6, 114, 12.07416820526123
0, 6, 115, 12.30753517150879
0, 6, 116, 9.656136512756348
0, 6, 117, 5.306392192840576
0, 6, 118, 8.315564155578613
0, 6, 119, 6.604016304016113
0, 6, 120, 7.298537254333496
0, 6, 121, 8.655463218688965
0, 6, 122, 6.896872520446777
0, 6, 123, 5.264631748199463
0, 6, 124, 9.511428833007812
0, 6, 125, 5.448010444641113
0, 6, 126, 4.881131172180176
0, 6, 127, 9.201272010803223
0, 7, 0, 3.72995924949646
0, 7, 1, 3.174533605575562
0, 7, 2, 4.541061878204346
0, 7, 3, 6.609625339508057
0, 7, 4, 4.071849822998047
0, 7, 5, 6.557080745697021
0, 7, 6, 7.306839942932129
0, 7, 7, 4.825706005096436
0, 7, 8, 4.886669158935547
0, 7, 9, 8.677597045898438
0, 7, 10, 9.045293807983398
0, 7, 11, 9.923724174499512
0, 7, 12, 10.08797931671143
0, 7, 13, 13.16585636138916
0, 7, 14, 12.91835498809814
0, 7, 15, 16.71039390563965
0, 7, 16, 26.75352478027344
0, 7, 17, 97.45256805419922
0, 7, 18, 217.8758087158203
0, 7, 19, 289.0308837890625
0, 7, 20, 297.6210327148438
0, 7, 21, 279.8013305664062
0, 7, 22, 299.1708068847656
0, 7, 23, 290.1642456054688
0, 7, 24, 314.3450012207031
0, 7, 25, 324.8329772949219
0, 7, 26, 276.6065673828125
0, 7, 27, 298.470703125
0, 7, 28, 325.5007019042969
0, 7, 29, 319.2172241210938
0, 7, 30, 300.9227905273438
0, 7, 31, 275.5689392089844
0, 7, 32, 306.5255126953125
0, 7, 33, 262.0843811035156
0, 7, 34, 297.8027038574219
0, 7, 35, 322.1178894042969
0, 7, 36, 330.4496765136719
0, 7, 37, 322.5928039550781
0, 7, 38, 295.4207763671875
0, 7, 39, 305.6603088378906
0, 7, 40, 288.5994567871094
0, 7, 41, 273.1051940917969
0, 7, 42, 299.1105651855469
0, 7, 43, 272.0581359863281
0, 7, 44, 305.4259033203125
0, 7, 45, 293.9833984375
0, 7, 46, 282.6246032714844
0, 7, 47, 328.5995788574219
0, 7, 48, 284.8819885253906
0, 7, 49, 302.9098205566406
0, 7, 50, 320.1279907226562
0, 7, 51, 299.8358459472656
0, 7, 52, 326.0914306640625
0, 7, 53, 312.6129760742188
0, 7, 54, 322.6429748535156
0, 7, 55, 308.1900024414062
0, 7, 56, 276.5159912109375
0, 7, 57, 280.6361694335938
0, 7, 58, 295.0601806640625
0, 7, 59, 294.3635559082031
0, 7, 60, 321.4275207519531
0, 7, 61, 279.5284118652344
0, 7, 62, 296.99072265625
0, 7, 63, 292.2642517089844
0, 7, 64, 305.8750610351562
0, 7, 65, 330.0941467285156
0, 7, 66, 319.6202087402344
0, 7, 67, 300.5900573730469
0, 7, 68, 278.9455261230469
0, 7, 69, 294.8999328613281
0, 7, 70, 302.5199890136719
0, 7, 71, 307.9433898925781
0, 7, 72, 286.3994445800781
0, 7, 73, 295.1574401855469
0, 7, 74, 343.5045166015625
0, 7, 75, 318.8209533691406
0, 7, 76, 324.2442016601562
0, 7, 77, 282.3457641601562
0, 7, 78, 302.5265197753906
0, 7, 79, 297.5597534179688
0, 7, 80, 312.8161010742188
0, 7, 81, 319.2102661132812
0, 7, 82, 328.6112060546875
0, 7, 83, 318.488037109375
0, 7, 84, 308.7746887207031
0, 7, 85, 271.3285522460938
0, 7, 86, 311.0309448242188
0, 7, 87, 309.4130249023438
0, 7, 88, 307.4588012695312
0, 7, 89, 292.7850036621094
0, 7, 90, 307.4637756347656
0, 7, 91, 315.6253662109375
0, 7, 92, 291.5503540039062
0, 7, 93, 307.2991333007812
0, 7, 94, 273.9219055175781
0, 7, 95, 297.3564758300781
0, 7, 96, 331.5889892578125
0, 7, 97, 293.86572265625
0, 7, 98, 290.9552307128906
0, 7, 99, 310.3762512207031
0, 7, 100, 282.3660583496094
0, 7, 101, 276.2107238769531
0, 7, 102, 291.1978454589844
0, 7, 103, 293.2238159179688
0, 7, 104, 275.6534729003906
0, 7, 105, 308.1962280273438
0, 7, 106, 318.3216552734375
0, 7, 107, 296.3262023925781
0, 7, 108, 273.8681335449219
0, 7, 109, 235.6967010498047
0, 7, 110, 96.01879119873047
0, 7, 111, 23.78679466247559
0, 7, 112, 14.24076461791992
0, 7, 113, 13.93489074707031
0, 7, 114, 11.19608020782471
0, 7, 115, 13.75771522521973
0, 7, 116, 7.404307842254639
0, 7, 117, 6.963751792907715
0, 7, 118, 7.426343441009521
0, 7, 119, 6.795682430267334
0, 7, 120, 4.470939159393311
0, 7, 121, 6.187633991241455
0, 7, 122, 6.308812141418457
0, 7, 123, 6.956377029418945
0, 7, 124, 4.851400375366211
0, 7, 125, 7.21438455581665
0, 7, 126, 8.038476943969727
0, 7, 127, 2.508994340896606
0, 8, 0, 4.135848045349121
0, 8, 1, 4.610671520233154
0, 8, 2, 3.601109027862549
0, 8, 3, 4.072056293487549
0, 8, 4, 3.719767093658447
0, 8, 5, 3.466655015945435
0, 8, 6, 5.174288272857666
0, 8, 7, 4.916458606719971
0, 8, 8, 9.122490882873535
0, 8, 9, 4.613574504852295
0, 8, 10, 9.378755569458008
0, 8, 11, 12.84151077270508
0, 8, 12, 13.42572021484375
0, 8, 13, 15.74915790557861
0, 8, 14, 14.96356105804443
0, 8, 15, 18.1192569732666
0, 8, 16, 33.19601440429688
0, 8, 17, 130.9512481689453
0, 8, 18, 244.2835235595703
0, 8, 19, 296.2003173828125
0, 8, 20, 285.8417358398438
0, 8, 21, 307.2566528320312
0, 8, 22, 294.9410095214844
0, 8, 23, 274.9903259277344
0, 8, 24, 267.3155212402344
0, 8, 25, 275.0425720214844
0, 8, 26, 307.2149658203125
0, 8, 27, 306.3494262695312
0, 8, 28, 302.8063354492188
0, 8, 29, 317.3678588867188
0, 8, 30, 315.4866027832031
0, 8, 31, 303.2539367675781
0, 8, 32, 280.1877746582031
0, 8, 33, 293.1000671386719
0, 8, 34, 289.2129516601562
0, 8, 35, 281.6602783203125
0, 8, 36, 315.8236389160156
0, 8, 37, 339.9839477539062
0, 8, 38, 331.9605407714844
0, 8, 39, 279.7344970703125
