# TOPAS Version: 3.1.p3
# Parameter File: batch_inserts_304.txt
# Results for scorer Readout_Adipose
# Scored in component: MyBox
# X in 1 bin  of 0.75 cm
# Y in 512 bins of 0.0783984 cm
# Z in 128 bins of 0.078125 cm
# EnergyDeposit ( MeV ) : Sum   
0, 0, 0, 5.422811031341553
0, 0, 1, 3.637119054794312
0, 0, 2, 4.086244583129883
0, 0, 3, 0.9997058510780334
0, 0, 4, 4.083498954772949
0, 0, 5, 5.419530391693115
0, 0, 6, 6.377926826477051
0, 0, 7, 9.954663276672363
0, 0, 8, 5.301653385162354
0, 0, 9, 3.962535619735718
0, 0, 10, 7.337525367736816
0, 0, 11, 4.42598819732666
0, 0, 12, 5.017250061035156
0, 0, 13, 7.535342693328857
0, 0, 14, 8.055914878845215
0, 0, 15, 10.23451805114746
0, 0, 16, 10.28591156005859
0, 0, 17, 8.818632125854492
0, 0, 18, 13.9835262298584
0, 0, 19, 45.67081451416016
0, 0, 20, 139.5039825439453
0, 0, 21, 223.5303497314453
0, 0, 22, 248.2647247314453
0, 0, 23, 258.0180358886719
0, 0, 24, 252.6681976318359
0, 0, 25, 260.1430969238281
0, 0, 26, 235.0719604492188
0, 0, 27, 237.1658172607422
0, 0, 28, 272.8912353515625
0, 0, 29, 254.0803527832031
0, 0, 30, 229.8510131835938
0, 0, 31, 245.5132293701172
0, 0, 32, 266.9114074707031
0, 0, 33, 260.1014099121094
0, 0, 34, 288.75927734375
0, 0, 35, 271.2833557128906
0, 0, 36, 247.5719299316406
0, 0, 37, 256.1862487792969
0, 0, 38, 268.2871704101562
0, 0, 39, 230.2484130859375
0, 0, 40, 241.3788909912109
0, 0, 41, 267.2229309082031
0, 0, 42, 229.1863861083984
0, 0, 43, 258.6121826171875
0, 0, 44, 250.6562194824219
0, 0, 45, 253.4270629882812
0, 0, 46, 244.1676330566406
0, 0, 47, 252.4416961669922
0, 0, 48, 267.6097106933594
0, 0, 49, 272.9085693359375
0, 0, 50, 250.5330963134766
0, 0, 51, 253.3035278320312
0, 0, 52, 272.681640625
0, 0, 53, 290.088623046875
0, 0, 54, 241.6127166748047
0, 0, 55, 239.3424835205078
0, 0, 56, 277.1012268066406
0, 0, 57, 264.0496520996094
0, 0, 58, 247.1071319580078
0, 0, 59, 271.990966796875
0, 0, 60, 234.665771484375
0, 0, 61, 244.6809234619141
0, 0, 62, 260.6899108886719
0, 0, 63, 265.9774780273438
0, 0, 64, 256.9133911132812
0, 0, 65, 261.4153137207031
0, 0, 66, 276.9958190917969
0, 0, 67, 247.5451507568359
0, 0, 68, 258.9680480957031
0, 0, 69, 262.9057006835938
0, 0, 70, 271.8197937011719
0, 0, 71, 237.1001892089844
0, 0, 72, 250.7480926513672
0, 0, 73, 258.1421813964844
0, 0, 74, 253.4602813720703
0, 0, 75, 240.1510620117188
0, 0, 76, 229.2506713867188
0, 0, 77, 260.8810729980469
0, 0, 78, 255.472900390625
0, 0, 79, 279.6896667480469
0, 0, 80, 217.7734527587891
0, 0, 81, 266.1632385253906
0, 0, 82, 255.7546844482422
0, 0, 83, 244.8157958984375
0, 0, 84, 269.9085083007812
0, 0, 85, 232.1047668457031
0, 0, 86, 254.3120422363281
0, 0, 87, 250.2172546386719
0, 0, 88, 260.3519592285156
0, 0, 89, 283.3758544921875
0, 0, 90, 244.7839660644531
0, 0, 91, 279.9532775878906
0, 0, 92, 251.753173828125
0, 0, 93, 248.3001251220703
0, 0, 94, 249.9355621337891
0, 0, 95, 247.4681243896484
0, 0, 96, 275.11083984375
0, 0, 97, 272.8681945800781
0, 0, 98, 275.3923950195312
0, 0, 99, 259.4102783203125
0, 0, 100, 260.7658386230469
0, 0, 101, 229.2644195556641
0, 0, 102, 231.4759521484375
0, 0, 103, 270.8155822753906
0, 0, 104, 254.4644927978516
0, 0, 105, 251.4097290039062
0, 0, 106, 246.0510864257812
0, 0, 107, 152.3079071044922
0, 0, 108, 38.98215484619141
0, 0, 109, 11.92975425720215
0, 0, 110, 12.55713844299316
0, 0, 111, 10.0587215423584
0, 0, 112, 9.155093193054199
0, 0, 113, 7.318265914916992
0, 0, 114, 5.965093612670898
0, 0, 115, 4.722758293151855
0, 0, 116, 5.036221504211426
0, 0, 117, 5.627902030944824
0, 0, 118, 6.707756042480469
0, 0, 119, 4.131561279296875
0, 0, 120, 5.702877044677734
0, 0, 121, 5.3525710105896
0, 0, 122, 5.713901519775391
0, 0, 123, 4.090970039367676
0, 0, 124, 5.580748081207275
0, 0, 125, 2.824028253555298
0, 0, 126, 3.049162864685059
0, 0, 127, 4.465380191802979
0, 1, 0, 6.91215991973877
0, 1, 1, 3.764824867248535
0, 1, 2, 4.451170921325684
0, 1, 3, 1.317513704299927
0, 1, 4, 2.40737247467041
0, 1, 5, 3.14467716217041
0, 1, 6, 2.951577425003052
0, 1, 7, 3.678137302398682
0, 1, 8, 6.429470539093018
0, 1, 9, 6.885560512542725
0, 1, 10, 9.196418762207031
0, 1, 11, 12.01830101013184
0, 1, 12, 8.408031463623047
0, 1, 13, 10.21102523803711
0, 1, 14, 7.491066932678223
0, 1, 15, 8.798467636108398
0, 1, 16, 12.27760982513428
0, 1, 17, 12.65076160430908
0, 1, 18, 20.33724021911621
0, 1, 19, 66.38428497314453
0, 1, 20, 197.0195617675781
0, 1, 21, 254.5419921875
0, 1, 22, 296.0897827148438
0, 1, 23, 284.1790466308594
0, 1, 24, 275.8655090332031
0, 1, 25, 288.7417602539062
0, 1, 26, 270.7238159179688
0, 1, 27, 305.98583984375
0, 1, 28, 299.0359802246094
0, 1, 29, 296.6326293945312
0, 1, 30, 280.5994567871094
0, 1, 31, 293.5226135253906
0, 1, 32, 290.7532958984375
0, 1, 33, 296.344970703125
0, 1, 34, 291.6535034179688
0, 1, 35, 279.1882629394531
0, 1, 36, 306.9311218261719
0, 1, 37, 295.1303100585938
0, 1, 38, 277.8840637207031
0, 1, 39, 295.5279541015625
0, 1, 40, 268.2386169433594
0, 1, 41, 287.4240112304688
0, 1, 42, 292.5758666992188
0, 1, 43, 331.7165832519531
0, 1, 44, 278.35986328125
0, 1, 45, 291.7025146484375
0, 1, 46, 261.520263671875
0, 1, 47, 311.90673828125
0, 1, 48, 283.6934509277344
0, 1, 49, 302.0320129394531
0, 1, 50, 261.859130859375
0, 1, 51, 271.6661071777344
0, 1, 52, 296.9144287109375
0, 1, 53, 304.1878356933594
0, 1, 54, 275.5768737792969
0, 1, 55, 293.7109680175781
0, 1, 56, 279.9964294433594
0, 1, 57, 297.7218627929688
0, 1, 58, 310.6050415039062
0, 1, 59, 293.8184509277344
0, 1, 60, 297.7466430664062
0, 1, 61, 274.2914428710938
0, 1, 62, 307.8890991210938
0, 1, 63, 286.6355285644531
0, 1, 64, 288.8729248046875
0, 1, 65, 294.7364501953125
0, 1, 66, 293.3733215332031
0, 1, 67, 291.08642578125
0, 1, 68, 276.5823364257812
0, 1, 69, 281.371826171875
0, 1, 70, 270.7919006347656
0, 1, 71, 273.0945434570312
0, 1, 72, 285.8366088867188
0, 1, 73, 302.3933715820312
0, 1, 74, 302.3812255859375
0, 1, 75, 291.7327270507812
0, 1, 76, 286.1773071289062
0, 1, 77, 288.5030822753906
0, 1, 78, 297.4972229003906
0, 1, 79, 302.5001220703125
0, 1, 80, 295.3388977050781
0, 1, 81, 299.9713439941406
0, 1, 82, 282.6387329101562
0, 1, 83, 331.865478515625
0, 1, 84, 307.3954772949219
0, 1, 85, 252.5284881591797
0, 1, 86, 296.4168701171875
0, 1, 87, 290.2051696777344
0, 1, 88, 298.0377502441406
0, 1, 89, 290.8298950195312
0, 1, 90, 274.3632507324219
0, 1, 91, 319.3247375488281
0, 1, 92, 290.4231872558594
0, 1, 93, 285.8401184082031
0, 1, 94, 303.5863342285156
0, 1, 95, 283.8739013671875
0, 1, 96, 282.0013427734375
0, 1, 97, 299.4530944824219
0, 1, 98, 276.7148742675781
0, 1, 99, 268.4029541015625
0, 1, 100, 277.6424560546875
0, 1, 101, 283.5602111816406
0, 1, 102, 278.7221374511719
0, 1, 103, 279.2777404785156
0, 1, 104, 307.7760314941406
0, 1, 105, 296.7341613769531
0, 1, 106, 264.6335754394531
0, 1, 107, 192.8648071289062
0, 1, 108, 81.15736389160156
0, 1, 109, 23.29889869689941
0, 1, 110, 11.02795791625977
0, 1, 111, 9.448837280273438
0, 1, 112, 13.72001457214355
0, 1, 113, 5.482800960540771
0, 1, 114, 8.229582786560059
0, 1, 115, 7.861852169036865
0, 1, 116, 11.24574279785156
0, 1, 117, 8.34157657623291
0, 1, 118, 4.724347114562988
0, 1, 119, 7.231995582580566
0, 1, 120, 8.359930992126465
0, 1, 121, 2.582050085067749
0, 1, 122, 2.372562408447266
0, 1, 123, 3.486494779586792
0, 1, 124, 7.546385288238525
0, 1, 125, 4.462795257568359
0, 1, 126, 2.713622808456421
0, 1, 127, 1.117039680480957
0, 2, 0, 2.841811418533325
0, 2, 1, 1.695985078811646
0, 2, 2, 4.379066944122314
0, 2, 3, 7.081106662750244
0, 2, 4, 2.678735733032227
0, 2, 5, 3.875193357467651
0, 2, 6, 1.65260910987854
0, 2, 7, 3.34171199798584
0, 2, 8, 4.793735504150391
0, 2, 9, 6.004444599151611
0, 2, 10, 8.820242881774902
0, 2, 11, 5.585262775421143
0, 2, 12, 5.32181978225708
0, 2, 13, 9.855104446411133
0, 2, 14, 12.19274616241455
0, 2, 15, 7.392977237701416
0, 2, 16, 9.325626373291016
0, 2, 17, 18.19485092163086
0, 2, 18, 29.50709915161133
0, 2, 19, 119.6468887329102
0, 2, 20, 246.7246246337891
0, 2, 21, 272.480712890625
0, 2, 22, 317.2069702148438
0, 2, 23, 300.8416748046875
0, 2, 24, 288.0359497070312
0, 2, 25, 301.9153442382812
0, 2, 26, 292.6481628417969
0, 2, 27, 276.7189025878906
0, 2, 28, 275.4018249511719
0, 2, 29, 273.3375854492188
0, 2, 30, 291.1376342773438
0, 2, 31, 277.001220703125
0, 2, 32, 292.7289733886719
0, 2, 33, 282.8957214355469
0, 2, 34, 335.5779113769531
0, 2, 35, 289.4381713867188
0, 2, 36, 302.6441345214844
0, 2, 37, 315.3999633789062
0, 2, 38, 310.761962890625
0, 2, 39, 266.6060485839844
0, 2, 40, 309.6700134277344
0, 2, 41, 292.8505249023438
0, 2, 42, 301.55322265625
0, 2, 43, 313.86279296875
0, 2, 44, 312.6833190917969
0, 2, 45, 326.1167297363281
0, 2, 46, 287.0763549804688
0, 2, 47, 303.039794921875
0, 2, 48, 282.2353210449219
0, 2, 49, 277.4029235839844
0, 2, 50, 294.5203857421875
0, 2, 51, 286.2707214355469
0, 2, 52, 271.9143981933594
0, 2, 53, 287.66455078125
0, 2, 54, 280.4671325683594
0, 2, 55, 273.8884582519531
0, 2, 56, 301.1116333007812
0, 2, 57, 292.9100952148438
0, 2, 58, 304.9985656738281
0, 2, 59, 289.1965026855469
0, 2, 60, 318.6024169921875
0, 2, 61, 300.3907470703125
0, 2, 62, 315.5702819824219
0, 2, 63, 304.2235717773438
0, 2, 64, 297.968505859375
0, 2, 65, 314.0620727539062
0, 2, 66, 277.9727478027344
0, 2, 67, 290.6609802246094
0, 2, 68, 297.8055725097656
0, 2, 69, 312.1775817871094
0, 2, 70, 336.8525085449219
0, 2, 71, 283.0148010253906
0, 2, 72, 304.8269958496094
0, 2, 73, 310.183837890625
0, 2, 74, 284.239013671875
0, 2, 75, 304.1596984863281
0, 2, 76, 287.2633972167969
0, 2, 77, 302.9589233398438
0, 2, 78, 316.5929870605469
0, 2, 79, 310.5896911621094
0, 2, 80, 297.9279479980469
0, 2, 81, 284.9937744140625
0, 2, 82, 317.6021423339844
0, 2, 83, 311.6910705566406
0, 2, 84, 288.447509765625
0, 2, 85, 281.3005065917969
0, 2, 86, 323.5590209960938
0, 2, 87, 286.2790222167969
0, 2, 88, 279.9084777832031
0, 2, 89, 295.037841796875
0, 2, 90, 297.2393798828125
0, 2, 91, 278.1790771484375
0, 2, 92, 306.9895324707031
0, 2, 93, 317.0068969726562
0, 2, 94, 290.9648132324219
0, 2, 95, 315.2027282714844
0, 2, 96, 315.6355895996094
0, 2, 97, 294.4709167480469
0, 2, 98, 293.4771423339844
0, 2, 99, 273.7891845703125
0, 2, 100, 304.0518798828125
0, 2, 101, 301.8719177246094
0, 2, 102, 297.0652160644531
0, 2, 103, 292.6693115234375
0, 2, 104, 292.9423522949219
0, 2, 105, 275.0407409667969
0, 2, 106, 297.3200378417969
0, 2, 107, 271.0914001464844
0, 2, 108, 117.2839584350586
0, 2, 109, 32.36530303955078
0, 2, 110, 9.554753303527832
0, 2, 111, 11.09134101867676
0, 2, 112, 5.816540718078613
0, 2, 113, 11.58050727844238
0, 2, 114, 12.26525592803955
0, 2, 115, 8.914579391479492
0, 2, 116, 8.796754837036133
0, 2, 117, 6.975274562835693
0, 2, 118, 5.269584655761719
0, 2, 119, 6.604340553283691
0, 2, 120, 6.541220664978027
0, 2, 121, 2.904726982116699
0, 2, 122, 6.953614711761475
0, 2, 123, 5.001302719116211
0, 2, 124, 1.865139961242676
0, 2, 125, 4.353999614715576
0, 2, 126, 2.9151451587677
0, 2, 127, 5.63185453414917
0, 3, 0, 3.905603885650635
0, 3, 1, 2.727121591567993
0, 3, 2, 3.421103954315186
0, 3, 3, 1.674381256103516
0, 3, 4, 3.334164381027222
0, 3, 5, 6.950936317443848
0, 3, 6, 5.994755268096924
0, 3, 7, 4.158314228057861
0, 3, 8, 7.508513927459717
0, 3, 9, 7.194968700408936
0, 3, 10, 6.843709945678711
0, 3, 11, 3.946185827255249
0, 3, 12, 8.764955520629883
0, 3, 13, 14.80033779144287
0, 3, 14, 11.49338150024414
0, 3, 15, 16.57465744018555
0, 3, 16, 12.15462207794189
0, 3, 17, 19.33583641052246
0, 3, 18, 52.58795166015625
0, 3, 19, 174.266845703125
0, 3, 20, 269.4041137695312
0, 3, 21, 271.0413513183594
0, 3, 22, 281.9497680664062
0, 3, 23, 288.2627563476562
0, 3, 24, 287.8842163085938
0, 3, 25, 273.8063659667969
0, 3, 26, 304.5691223144531
0, 3, 27, 292.1302185058594
0, 3, 28, 279.910888671875
0, 3, 29, 336.5201110839844
0, 3, 30, 317.1416625976562
0, 3, 31, 289.5287475585938
0, 3, 32, 306.6777038574219
0, 3, 33, 314.1304626464844
0, 3, 34, 319.5009155273438
0, 3, 35, 305.5553894042969
0, 3, 36, 271.2429504394531
0, 3, 37, 314.82373046875
0, 3, 38, 303.6983947753906
0, 3, 39, 291.3002624511719
0, 3, 40, 270.8299560546875
0, 3, 41, 303.5984802246094
0, 3, 42, 285.2103576660156
0, 3, 43, 306.6570434570312
0, 3, 44, 310.1854858398438
0, 3, 45, 290.1005859375
0, 3, 46, 328.1111755371094
0, 3, 47, 299.3039855957031
0, 3, 48, 303.4491882324219
0, 3, 49, 276.1986083984375
0, 3, 50, 292.8003540039062
0, 3, 51, 276.5254516601562
0, 3, 52, 314.5836181640625
0, 3, 53, 289.9324340820312
0, 3, 54, 285.0361633300781
0, 3, 55, 285.567626953125
0, 3, 56, 297.6303100585938
0, 3, 57, 288.8016357421875
0, 3, 58, 308.603271484375
0, 3, 59, 293.5119934082031
0, 3, 60, 297.9453125
0, 3, 61, 265.6084594726562
0, 3, 62, 285.9657897949219
0, 3, 63, 306.1504821777344
0, 3, 64, 315.8546447753906
0, 3, 65, 307.7342834472656
0, 3, 66, 314.0204162597656
0, 3, 67, 317.7530517578125
0, 3, 68, 279.9232788085938
0, 3, 69, 281.8133850097656
0, 3, 70, 287.3462829589844
0, 3, 71, 300.5252990722656
0, 3, 72, 274.5247497558594
0, 3, 73, 312.1785583496094
0, 3, 74, 293.1837768554688
0, 3, 75, 289.5135498046875
0, 3, 76, 305.0427856445312
0, 3, 77, 312.7941284179688
0, 3, 78, 301.48388671875
0, 3, 79, 280.8842468261719
0, 3, 80, 291.0794982910156
0, 3, 81, 309.2989807128906
0, 3, 82, 316.1460266113281
0, 3, 83, 300.1421203613281
0, 3, 84, 311.0749206542969
0, 3, 85, 295.2481384277344
0, 3, 86, 304.5841674804688
0, 3, 87, 300.6219177246094
0, 3, 88, 297.1478881835938
0, 3, 89, 299.0864868164062
0, 3, 90, 274.6289367675781
0, 3, 91, 283.9968872070312
0, 3, 92, 304.5623779296875
0, 3, 93, 312.7401123046875
0, 3, 94, 299.2281799316406
0, 3, 95, 334.3272705078125
0, 3, 96, 289.4503784179688
0, 3, 97, 283.1475219726562
0, 3, 98, 278.1589660644531
0, 3, 99, 264.5785217285156
0, 3, 100, 286.1807861328125
0, 3, 101, 297.8134765625
0, 3, 102, 274.3460693359375
0, 3, 103, 320.8233337402344
0, 3, 104, 307.1344299316406
0, 3, 105, 289.6092224121094
0, 3, 106, 302.5603637695312
0, 3, 107, 280.6668090820312
0, 3, 108, 168.8433837890625
0, 3, 109, 57.78978729248047
0, 3, 110, 21.20442962646484
0, 3, 111, 12.89193916320801
0, 3, 112, 11.12386035919189
0, 3, 113, 8.056436538696289
0, 3, 114, 9.205136299133301
0, 3, 115, 7.56534481048584
0, 3, 116, 7.117458820343018
0, 3, 117, 7.488458633422852
0, 3, 118, 5.549821376800537
0, 3, 119, 5.707069396972656
0, 3, 120, 6.310826301574707
0, 3, 121, 3.726526021957397
0, 3, 122, 6.146431922912598
0, 3, 123, 7.11313533782959
0, 3, 124, 4.87532901763916
0, 3, 125, 6.877946376800537
0, 3, 126, 4.916991233825684
0, 3, 127, 3.860742092132568
0, 4, 0, 4.776548385620117
0, 4, 1, 4.749310493469238
0, 4, 2, 4.221415042877197
0, 4, 3, 1.411070227622986
0, 4, 4, 7.427575588226318
0, 4, 5, 8.670581817626953
0, 4, 6, 6.6644606590271
0, 4, 7, 7.516290187835693
0, 4, 8, 3.181930303573608
0, 4, 9, 5.417023658752441
0, 4, 10, 6.860382080078125
0, 4, 11, 5.555111885070801
0, 4, 12, 5.359044551849365
0, 4, 13, 9.023435592651367
0, 4, 14, 13.51435565948486
0, 4, 15, 7.947937488555908
0, 4, 16, 14.67776966094971
0, 4, 17, 18.24964141845703
0, 4, 18, 92.6744384765625
0, 4, 19, 224.5143737792969
0, 4, 20, 283.7837219238281
0, 4, 21, 273.9485778808594
0, 4, 22, 303.7280578613281
0, 4, 23, 266.6896057128906
0, 4, 24, 290.2020874023438
0, 4, 25, 271.3007507324219
0, 4, 26, 297.8986511230469
0, 4, 27, 283.6802978515625
0, 4, 28, 308.6670532226562
0, 4, 29, 322.364501953125
0, 4, 30, 309.1657104492188
0, 4, 31, 304.2449035644531
0, 4, 32, 279.9367065429688
0, 4, 33, 296.2167663574219
0, 4, 34, 295.6915588378906
0, 4, 35, 311.35302734375
0, 4, 36, 293.005859375
0, 4, 37, 289.5247192382812
0, 4, 38, 298.0855712890625
0, 4, 39, 294.4573669433594
0, 4, 40, 303.3408203125
0, 4, 41, 312.5631103515625
0, 4, 42, 330.9523315429688
0, 4, 43, 294.9831848144531
0, 4, 44, 321.7261047363281
0, 4, 45, 325.0291442871094
0, 4, 46, 308.8999633789062
0, 4, 47, 292.34521484375
0, 4, 48, 295.9321899414062
0, 4, 49, 276.572021484375
0, 4, 50, 296.0317687988281
0, 4, 51, 315.7699890136719
0, 4, 52, 328.4536437988281
0, 4, 53, 302.2695617675781
0, 4, 54, 287.4243469238281
0, 4, 55, 316.8387145996094
0, 4, 56, 285.4057312011719
0, 4, 57, 312.2250366210938
0, 4, 58, 296.0235290527344
0, 4, 59, 312.8995666503906
0, 4, 60, 302.660400390625
0, 4, 61, 314.9398498535156
0, 4, 62, 306.860107421875
0, 4, 63, 297.903564453125
0, 4, 64, 329.4954223632812
0, 4, 65, 316.9605407714844
0, 4, 66, 295.73046875
0, 4, 67, 285.8172302246094
0, 4, 68, 311.9025268554688
0, 4, 69, 280.9472351074219
0, 4, 70, 302.4361267089844
0, 4, 71, 321.3639221191406
0, 4, 72, 333.5636901855469
0, 4, 73, 297.5084533691406
0, 4, 74, 293.15185546875
0, 4, 75, 292.5081787109375
0, 4, 76, 275.0816345214844
0, 4, 77, 278.2717895507812
0, 4, 78, 308.1029357910156
0, 4, 79, 319.0175476074219
0, 4, 80, 314.9361572265625
0, 4, 81, 312.8724975585938
0, 4, 82, 297.4773559570312
0, 4, 83, 303.2951354980469
0, 4, 84, 291.3702087402344
0, 4, 85, 294.40625
0, 4, 86, 300.2763061523438
0, 4, 87, 285.0582580566406
0, 4, 88, 305.8900146484375
0, 4, 89, 295.6490783691406
0, 4, 90, 332.3224182128906
0, 4, 91, 302.0833740234375
0, 4, 92, 290.1116638183594
0, 4, 93, 297.1290893554688
0, 4, 94, 292.015869140625
0, 4, 95, 289.14208984375
0, 4, 96, 321.9338684082031
0, 4, 97, 274.2125244140625
0, 4, 98, 327.2872924804688
0, 4, 99, 313.205322265625
0, 4, 100, 299.4927978515625
0, 4, 101, 257.208740234375
0, 4, 102, 298.0490417480469
0, 4, 103, 318.4191284179688
0, 4, 104, 283.7959899902344
0, 4, 105, 310.26904296875
0, 4, 106, 285.8196411132812
0, 4, 107, 294.8118896484375
0, 4, 108, 225.6790161132812
0, 4, 109, 80.52467346191406
0, 4, 110, 19.95855331420898
0, 4, 111, 13.13863182067871
0, 4, 112, 10.54122257232666
0, 4, 113, 10.06906604766846
0, 4, 114, 9.218911170959473
0, 4, 115, 9.406411170959473
0, 4, 116, 9.55915641784668
0, 4, 117, 6.749813556671143
0, 4, 118, 10.88431358337402
0, 4, 119, 9.961887359619141
0, 4, 120, 4.084444046020508
0, 4, 121, 4.701258182525635
0, 4, 122, 5.062582969665527
0, 4, 123, 6.969749450683594
0, 4, 124, 7.18803071975708
0, 4, 125, 10.27093982696533
0, 4, 126, 5.112659454345703
0, 4, 127, 5.239902496337891
0, 5, 0, 5.100636959075928
0, 5, 1, 3.589080333709717
0, 5, 2, 2.597597360610962
0, 5, 3, 5.15998649597168
0, 5, 4, 4.956794261932373
0, 5, 5, 6.587325096130371
0, 5, 6, 6.551431179046631
0, 5, 7, 5.43375825881958
0, 5, 8, 7.230649471282959
0, 5, 9, 5.730430126190186
0, 5, 10, 7.547985553741455
0, 5, 11, 9.024654388427734
0, 5, 12, 10.22838115692139
0, 5, 13, 5.597318649291992
0, 5, 14, 12.66214275360107
0, 5, 15, 15.96503067016602
0, 5, 16, 15.35464096069336
0, 5, 17, 30.36857223510742
0, 5, 18, 136.0221862792969
0, 5, 19, 286.3710632324219
0, 5, 20, 307.6891174316406
0, 5, 21, 316.8660278320312
0, 5, 22, 274.3893127441406
0, 5, 23, 310.5318603515625
0, 5, 24, 301.2757263183594
0, 5, 25, 289.8139953613281
0, 5, 26, 295.7078247070312
0, 5, 27, 323.4639282226562
0, 5, 28, 302.2585144042969
0, 5, 29, 296.8629760742188
0, 5, 30, 327.9085083007812
0, 5, 31, 285.916015625
0, 5, 32, 301.9254455566406
0, 5, 33, 304.6148681640625
0, 5, 34, 296.2854309082031
0, 5, 35, 309.1279907226562
0, 5, 36, 270.5392456054688
0, 5, 37, 282.2557983398438
0, 5, 38, 293.7538757324219
0, 5, 39, 310.5753479003906
0, 5, 40, 309.3949890136719
0, 5, 41, 272.909912109375
0, 5, 42, 304.9540405273438
0, 5, 43, 314.53369140625
0, 5, 44, 293.4896850585938
0, 5, 45, 302.4427490234375
0, 5, 46, 264.6642456054688
0, 5, 47, 279.15576171875
0, 5, 48, 292.4515686035156
0, 5, 49, 286.1401672363281
0, 5, 50, 291.9937133789062
0, 5, 51, 279.9935302734375
0, 5, 52, 270.0784301757812
0, 5, 53, 285.1037292480469
0, 5, 54, 291.7973022460938
0, 5, 55, 344.7211303710938
0, 5, 56, 305.7654113769531
0, 5, 57, 310.60595703125
0, 5, 58, 310.7506408691406
0, 5, 59, 303.4644165039062
0, 5, 60, 307.7493286132812
0, 5, 61, 281.2243347167969
0, 5, 62, 325.4939880371094
0, 5, 63, 293.4217224121094
0, 5, 64, 322.5045776367188
0, 5, 65, 308.0590209960938
0, 5, 66, 330.8007507324219
0, 5, 67, 311.7350158691406
0, 5, 68, 307.5625915527344
0, 5, 69, 313.0150146484375
0, 5, 70, 301.8490600585938
0, 5, 71, 272.479248046875
0, 5, 72, 311.6226501464844
0, 5, 73, 300.8307189941406
0, 5, 74, 294.9149169921875
0, 5, 75, 293.3592224121094
0, 5, 76, 286.5275573730469
0, 5, 77, 300.3900756835938
0, 5, 78, 314.5048217773438
0, 5, 79, 308.7033386230469
0, 5, 80, 295.6426696777344
0, 5, 81, 326.557373046875
0, 5, 82, 324.7397766113281
0, 5, 83, 283.1336669921875
0, 5, 84, 302.2440490722656
0, 5, 85, 269.7479553222656
0, 5, 86, 323.5093688964844
0, 5, 87, 284.6894836425781
0, 5, 88, 315.0716552734375
0, 5, 89, 304.6077270507812
0, 5, 90, 315.9526977539062
0, 5, 91, 316.5736389160156
0, 5, 92, 296.9381713867188
0, 5, 93, 325.1529541015625
0, 5, 94, 308.9914245605469
0, 5, 95, 296.9624328613281
0, 5, 96, 298.9277648925781
0, 5, 97, 295.5341491699219
0, 5, 98, 318.991455078125
0, 5, 99, 301.2187194824219
0, 5, 100, 290.5831909179688
0, 5, 101, 305.2637023925781
0, 5, 102, 290.7425842285156
0, 5, 103, 312.6648864746094
0, 5, 104, 302.773193359375
0, 5, 105, 291.0411987304688
0, 5, 106, 281.0716247558594
0, 5, 107, 294.8416137695312
0, 5, 108, 264.5560913085938
0, 5, 109, 159.4321899414062
0, 5, 110, 39.15663528442383
0, 5, 111, 20.79883766174316
0, 5, 112, 17.30709075927734
0, 5, 113, 14.26429653167725
0, 5, 114, 13.88148498535156
0, 5, 115, 8.286378860473633
0, 5, 116, 8.306291580200195
0, 5, 117, 7.345180511474609
0, 5, 118, 14.2574291229248
0, 5, 119, 6.706493854522705
0, 5, 120, 5.604300022125244
0, 5, 121, 4.054545402526855
0, 5, 122, 6.998531341552734
0, 5, 123, 6.105870723724365
0, 5, 124, 6.547658443450928
0, 5, 125, 3.782029628753662
0, 5, 126, 7.563488960266113
0, 5, 127, 4.762097358703613
0, 6, 0, 4.096619129180908
0, 6, 1, 2.998865604400635
0, 6, 2, 4.57853889465332
0, 6, 3, 6.494616985321045
0, 6, 4, 4.865871906280518
0, 6, 5, 6.934935092926025
0, 6, 6, 8.960687637329102
0, 6, 7, 5.108374118804932
0, 6, 8, 7.057571411132812
0, 6, 9, 5.059418201446533
0, 6, 10, 8.620240211486816
0, 6, 11, 8.695180892944336
0, 6, 12, 9.619868278503418
0, 6, 13, 14.88180065155029
0, 6, 14, 7.656189441680908
0, 6, 15, 17.55021286010742
0, 6, 16, 26.95129013061523
0, 6, 17, 56.22887420654297
0, 6, 18, 174.2739562988281
0, 6, 19, 275.5968322753906
0, 6, 20, 293.1536560058594
0, 6, 21, 315.2127380371094
0, 6, 22, 320.8200073242188
0, 6, 23, 304.2854309082031
0, 6, 24, 316.7624206542969
0, 6, 25, 317.5516052246094
0, 6, 26, 319.2254638671875
0, 6, 27, 330.2991638183594
0, 6, 28, 294.7996215820312
0, 6, 29, 330.7785949707031
0, 6, 30, 280.2941284179688
0, 6, 31, 285.5594787597656
0, 6, 32, 341.68115234375
0, 6, 33, 299.1147155761719
0, 6, 34, 340.7003784179688
0, 6, 35, 321.9869689941406
0, 6, 36, 273.8848571777344
0, 6, 37, 287.5426025390625
0, 6, 38, 310.2689514160156
0, 6, 39, 299.4851989746094
0, 6, 40, 282.7630004882812
0, 6, 41, 295.2340698242188
0, 6, 42, 306.3400573730469
0, 6, 43, 290.7562255859375
0, 6, 44, 279.5083923339844
0, 6, 45, 320.2225646972656
0, 6, 46, 301.9555969238281
0, 6, 47, 333.4338989257812
0, 6, 48, 293.3543701171875
0, 6, 49, 310.5557861328125
0, 6, 50, 328.8436584472656
0, 6, 51, 310.1155090332031
0, 6, 52, 321.0721740722656
0, 6, 53, 326.1986389160156
0, 6, 54, 302.5918579101562
0, 6, 55, 303.7646789550781
0, 6, 56, 297.1943664550781
0, 6, 57, 314.429443359375
0, 6, 58, 260.4856872558594
0, 6, 59, 302.855224609375
0, 6, 60, 313.0385131835938
0, 6, 61, 271.5487365722656
0, 6, 62, 338.2362365722656
0, 6, 63, 323.8433532714844
0, 6, 64, 290.1268310546875
0, 6, 65, 283.7030639648438
0, 6, 66, 304.6334533691406
0, 6, 67, 308.8687133789062
0, 6, 68, 295.5472717285156
0, 6, 69, 277.4832458496094
0, 6, 70, 274.3069458007812
0, 6, 71, 289.4526672363281
0, 6, 72, 308.3738403320312
0, 6, 73, 294.6738891601562
0, 6, 74, 330.0458679199219
0, 6, 75, 342.4020385742188
0, 6, 76, 296.9772338867188
0, 6, 77, 286.3110046386719
0, 6, 78, 280.8345031738281
0, 6, 79, 292.4299621582031
0, 6, 80, 301.8883056640625
0, 6, 81, 315.2808532714844
0, 6, 82, 318.0827026367188
0, 6, 83, 318.4893493652344
0, 6, 84, 296.1337890625
0, 6, 85, 301.0835876464844
0, 6, 86, 331.4340209960938
0, 6, 87, 291.6922607421875
0, 6, 88, 305.8688049316406
0, 6, 89, 304.4324340820312
0, 6, 90, 298.77783203125
0, 6, 91, 310.9859924316406
0, 6, 92, 283.8169250488281
0, 6, 93, 296.9342041015625
0, 6, 94, 274.2679748535156
0, 6, 95, 299.3817749023438
0, 6, 96, 349.5159912109375
0, 6, 97, 308.1692810058594
0, 6, 98, 301.74853515625
0, 6, 99, 274.1145935058594
0, 6, 100, 311.5845947265625
0, 6, 101, 294.2505187988281
0, 6, 102, 307.8074340820312
0, 6, 103, 307.5851440429688
0, 6, 104, 289.7009582519531
0, 6, 105, 302.3395690917969
0, 6, 106, 306.157958984375
0, 6, 107, 306.4813232421875
0, 6, 108, 265.3846435546875
0, 6, 109, 185.370361328125
0, 6, 110, 54.40772247314453
0, 6, 111, 21.2000789642334
0, 6, 112, 13.43895244598389
0, 6, 113, 10.31073474884033
0, 6, 114, 14.01134014129639
0, 6, 115, 13.43492794036865
0, 6, 116, 12.00652408599854
0, 6, 117, 5.48722505569458
0, 6, 118, 10.29501152038574
0, 6, 119, 7.954382419586182
0, 6, 120, 7.188767433166504
0, 6, 121, 7.770455360412598
0, 6, 122, 5.649718761444092
0, 6, 123, 7.140844345092773
0, 6, 124, 5.496613502502441
0, 6, 125, 6.451167106628418
0, 6, 126, 4.745473384857178
0, 6, 127, 5.930985927581787
0, 7, 0, 5.17962646484375
0, 7, 1, 3.443563222885132
0, 7, 2, 6.567797183990479
0, 7, 3, 5.329522132873535
0, 7, 4, 5.218987941741943
0, 7, 5, 6.058121681213379
0, 7, 6, 6.398306369781494
0, 7, 7, 5.24431037902832
0, 7, 8, 5.204753398895264
0, 7, 9, 4.931598663330078
0, 7, 10, 10.42277431488037
0, 7, 11, 13.55406761169434
0, 7, 12, 10.11981582641602
0, 7, 13, 11.26810264587402
0, 7, 14, 9.983819961547852
0, 7, 15, 18.01957702636719
0, 7, 16, 27.86917686462402
0, 7, 17, 96.76171112060547
0, 7, 18, 217.3743133544922
0, 7, 19, 290.3693542480469
0, 7, 20, 295.1127014160156
0, 7, 21, 276.6040649414062
0, 7, 22, 301.5105285644531
0, 7, 23, 289.9489440917969
0, 7, 24, 314.95068359375
0, 7, 25, 326.2266235351562
0, 7, 26, 277.9195251464844
0, 7, 27, 296.4550170898438
0, 7, 28, 326.0042419433594
0, 7, 29, 318.5980224609375
0, 7, 30, 298.48095703125
0, 7, 31, 277.4913024902344
0, 7, 32, 303.7418518066406
0, 7, 33, 261.6488037109375
0, 7, 34, 299.4932250976562
0, 7, 35, 316.9835815429688
0, 7, 36, 329.269775390625
0, 7, 37, 322.657470703125
0, 7, 38, 297.84814453125
0, 7, 39, 306.5238037109375
0, 7, 40, 289.0079345703125
0, 7, 41, 271.9642333984375
0, 7, 42, 305.8681945800781
0, 7, 43, 272.0985107421875
0, 7, 44, 303.4718933105469
0, 7, 45, 295.2286071777344
0, 7, 46, 282.1685791015625
0, 7, 47, 330.758056640625
0, 7, 48, 285.6310729980469
0, 7, 49, 302.3585510253906
0, 7, 50, 322.4457092285156
0, 7, 51, 299.6571960449219
0, 7, 52, 325.931884765625
0, 7, 53, 309.7048645019531
0, 7, 54, 323.6212768554688
0, 7, 55, 306.7380981445312
0, 7, 56, 278.7731323242188
0, 7, 57, 281.1222839355469
0, 7, 58, 295.8816833496094
0, 7, 59, 293.4883117675781
0, 7, 60, 323.3997192382812
0, 7, 61, 278.8742370605469
0, 7, 62, 297.8153076171875
0, 7, 63, 294.03857421875
0, 7, 64, 305.9458312988281
0, 7, 65, 330.0467834472656
0, 7, 66, 318.51416015625
0, 7, 67, 300.2812194824219
0, 7, 68, 281.819091796875
0, 7, 69, 298.8099365234375
0, 7, 70, 305.305419921875
0, 7, 71, 310.4024047851562
0, 7, 72, 284.0666198730469
0, 7, 73, 297.2993774414062
0, 7, 74, 344.9693298339844
0, 7, 75, 319.0565490722656
0, 7, 76, 322.6629943847656
0, 7, 77, 280.0951843261719
0, 7, 78, 300.5570983886719
0, 7, 79, 297.4185791015625
0, 7, 80, 313.4629211425781
0, 7, 81, 319.7986450195312
0, 7, 82, 329.0011596679688
0, 7, 83, 321.1283264160156
0, 7, 84, 310.7951354980469
0, 7, 85, 271.8257446289062
0, 7, 86, 312.3447875976562
0, 7, 87, 311.469482421875
0, 7, 88, 307.6636047363281
0, 7, 89, 294.1832885742188
0, 7, 90, 308.3031311035156
0, 7, 91, 317.3867492675781
0, 7, 92, 287.2051391601562
0, 7, 93, 308.2192993164062
0, 7, 94, 273.7347412109375
0, 7, 95, 296.6248168945312
0, 7, 96, 331.8554077148438
0, 7, 97, 295.0173950195312
0, 7, 98, 289.89453125
0, 7, 99, 310.8751525878906
0, 7, 100, 282.6425170898438
0, 7, 101, 275.089599609375
0, 7, 102, 289.6086730957031
0, 7, 103, 292.4007263183594
0, 7, 104, 273.4166564941406
0, 7, 105, 306.5668640136719
0, 7, 106, 317.3934631347656
0, 7, 107, 298.6187133789062
0, 7, 108, 273.1971130371094
0, 7, 109, 235.0448608398438
0, 7, 110, 95.24108123779297
0, 7, 111, 25.52580261230469
0, 7, 112, 13.52182674407959
0, 7, 113, 15.31283664703369
0, 7, 114, 13.38161182403564
0, 7, 115, 10.20858383178711
0, 7, 116, 7.607580661773682
0, 7, 117, 4.600537300109863
0, 7, 118, 11.06871795654297
0, 7, 119, 6.275901317596436
0, 7, 120, 6.017635345458984
0, 7, 121, 10.5845422744751
0, 7, 122, 8.344988822937012
0, 7, 123, 4.296892642974854
0, 7, 124, 5.899406909942627
0, 7, 125, 7.010557174682617
0, 7, 126, 11.49174690246582
0, 7, 127, 6.235605716705322
0, 8, 0, 4.76285457611084
0, 8, 1, 5.05556583404541
0, 8, 2, 6.483997344970703
0, 8, 3, 2.443564653396606
0, 8, 4, 5.246050834655762
0, 8, 5, 3.628055810928345
0, 8, 6, 4.18362283706665
0, 8, 7, 5.987305164337158
0, 8, 8, 8.78907299041748
0, 8, 9, 4.871574401855469
0, 8, 10, 7.250603199005127
0, 8, 11, 11.59073638916016
0, 8, 12, 14.12166023254395
0, 8, 13, 19.70877456665039
0, 8, 14, 12.8928108215332
0, 8, 15, 18.71139717102051
0, 8, 16, 32.38679122924805
0, 8, 17, 130.296630859375
0, 8, 18, 242.8553924560547
0, 8, 19, 292.1333312988281
0, 8, 20, 285.8922119140625
0, 8, 21, 305.9110717773438
0, 8, 22, 294.5083312988281
0, 8, 23, 274.6475830078125
0, 8, 24, 268.3160095214844
0, 8, 25, 275.2725830078125
0, 8, 26, 305.0790100097656
0, 8, 27, 307.6456909179688
0, 8, 28, 302.1659240722656
0, 8, 29, 322.3727722167969
0, 8, 30, 312.2489318847656
0, 8, 31, 302.8060607910156
0, 8, 32, 281.6775817871094
0, 8, 33, 294.394775390625
0, 8, 34, 290.2789916992188
0, 8, 35, 281.7474060058594
0, 8, 36, 317.5685119628906
0, 8, 37, 341.3215026855469
0, 8, 38, 333.3857116699219
0, 8, 39, 279.4259033203125
