# TOPAS Version: 3.1.p3
# Parameter File: batch_inserts_306.txt
# Results for scorer Readout_Adipose
# Scored in component: MyBox
# X in 1 bin  of 0.75 cm
# Y in 512 bins of 0.0783984 cm
# Z in 128 bins of 0.078125 cm
# EnergyDeposit ( MeV ) : Sum   
0, 0, 0, 6.958970546722412
0, 0, 1, 1.812042474746704
0, 0, 2, 3.83341121673584
0, 0, 3, 2.439550161361694
0, 0, 4, 3.876611709594727
0, 0, 5, 3.584222793579102
0, 0, 6, 5.103634357452393
0, 0, 7, 10.22291851043701
0, 0, 8, 4.531407833099365
0, 0, 9, 5.570839881896973
0, 0, 10, 7.082019805908203
0, 0, 11, 4.291635990142822
0, 0, 12, 6.27554988861084
0, 0, 13, 8.386911392211914
0, 0, 14, 8.44654369354248
0, 0, 15, 9.388274192810059
0, 0, 16, 8.351512908935547
0, 0, 17, 9.593576431274414
0, 0, 18, 15.44656658172607
0, 0, 19, 43.18243408203125
0, 0, 20, 141.6480560302734
0, 0, 21, 223.6327209472656
0, 0, 22, 248.2866821289062
0, 0, 23, 256.567138671875
0, 0, 24, 251.8066558837891
0, 0, 25, 260.4758911132812
0, 0, 26, 235.7146453857422
0, 0, 27, 237.1141815185547
0, 0, 28, 273.6974792480469
0, 0, 29, 253.0934448242188
0, 0, 30, 231.7923278808594
0, 0, 31, 243.5017852783203
0, 0, 32, 263.4550476074219
0, 0, 33, 259.7511901855469
0, 0, 34, 287.7464294433594
0, 0, 35, 267.45751953125
0, 0, 36, 246.1702270507812
0, 0, 37, 253.0836944580078
0, 0, 38, 270.0668334960938
0, 0, 39, 230.3753967285156
0, 0, 40, 241.3657684326172
0, 0, 41, 266.0847473144531
0, 0, 42, 228.1502380371094
0, 0, 43, 259.3892211914062
0, 0, 44, 251.1804046630859
0, 0, 45, 253.0220184326172
0, 0, 46, 244.555419921875
0, 0, 47, 252.4046173095703
0, 0, 48, 266.2178344726562
0, 0, 49, 273.0635070800781
0, 0, 50, 251.3530731201172
0, 0, 51, 252.9710235595703
0, 0, 52, 275.1448974609375
0, 0, 53, 290.6332397460938
0, 0, 54, 242.1476135253906
0, 0, 55, 239.6793518066406
0, 0, 56, 278.27783203125
0, 0, 57, 266.58837890625
0, 0, 58, 247.5108795166016
0, 0, 59, 270.4115600585938
0, 0, 60, 234.6141967773438
0, 0, 61, 247.1526336669922
0, 0, 62, 258.1986389160156
0, 0, 63, 264.582275390625
0, 0, 64, 255.35791015625
0, 0, 65, 264.0681762695312
0, 0, 66, 277.5471801757812
0, 0, 67, 247.2730865478516
0, 0, 68, 258.1716613769531
0, 0, 69, 261.29150390625
0, 0, 70, 273.1916809082031
0, 0, 71, 239.7678070068359
0, 0, 72, 251.0516510009766
0, 0, 73, 257.1456909179688
0, 0, 74, 251.6518402099609
0, 0, 75, 239.2711791992188
0, 0, 76, 228.9198913574219
0, 0, 77, 259.3463745117188
0, 0, 78, 256.783447265625
0, 0, 79, 281.7514343261719
0, 0, 80, 217.9595489501953
0, 0, 81, 267.3260192871094
0, 0, 82, 255.4252624511719
0, 0, 83, 245.3500061035156
0, 0, 84, 269.80712890625
0, 0, 85, 232.8990020751953
0, 0, 86, 253.4224700927734
0, 0, 87, 251.2196960449219
0, 0, 88, 262.000244140625
0, 0, 89, 286.2373352050781
0, 0, 90, 243.6982879638672
0, 0, 91, 280.8913879394531
0, 0, 92, 253.0637664794922
0, 0, 93, 249.3390045166016
0, 0, 94, 249.8468933105469
0, 0, 95, 247.0347442626953
0, 0, 96, 274.6792602539062
0, 0, 97, 272.958251953125
0, 0, 98, 274.3876037597656
0, 0, 99, 259.1172485351562
0, 0, 100, 259.583984375
0, 0, 101, 226.3057556152344
0, 0, 102, 231.1214599609375
0, 0, 103, 269.8629455566406
0, 0, 104, 254.4046325683594
0, 0, 105, 252.952880859375
0, 0, 106, 247.2249298095703
0, 0, 107, 152.3219299316406
0, 0, 108, 40.93368530273438
0, 0, 109, 11.30049514770508
0, 0, 110, 12.91692924499512
0, 0, 111, 9.246006011962891
0, 0, 112, 6.63543701171875
0, 0, 113, 5.513883590698242
0, 0, 114, 6.162806510925293
0, 0, 115, 5.258761882781982
0, 0, 116, 8.157356262207031
0, 0, 117, 6.455912113189697
0, 0, 118, 7.317670345306396
0, 0, 119, 4.214909076690674
0, 0, 120, 5.702678203582764
0, 0, 121, 3.761925458908081
0, 0, 122, 6.337507247924805
0, 0, 123, 3.677189350128174
0, 0, 124, 6.397302627563477
0, 0, 125, 1.6517493724823
0, 0, 126, 3.33685040473938
0, 0, 127, 4.509609222412109
0, 1, 0, 6.678032875061035
0, 1, 1, 2.990068912506104
0, 1, 2, 3.299328088760376
0, 1, 3, 1.411962270736694
0, 1, 4, 2.407451152801514
0, 1, 5, 2.314882516860962
0, 1, 6, 3.51336932182312
0, 1, 7, 5.368802547454834
0, 1, 8, 5.376530170440674
0, 1, 9, 4.841989517211914
0, 1, 10, 8.781841278076172
0, 1, 11, 10.9084529876709
0, 1, 12, 9.110650062561035
0, 1, 13, 9.231770515441895
0, 1, 14, 7.883896350860596
0, 1, 15, 8.982685089111328
0, 1, 16, 12.85810565948486
0, 1, 17, 13.19515800476074
0, 1, 18, 20.09273910522461
0, 1, 19, 66.48049926757812
0, 1, 20, 196.3161773681641
0, 1, 21, 254.5907135009766
0, 1, 22, 295.5736694335938
0, 1, 23, 284.4616088867188
0, 1, 24, 275.4129638671875
0, 1, 25, 286.29296875
0, 1, 26, 268.2730712890625
0, 1, 27, 305.0636901855469
0, 1, 28, 300.323486328125
0, 1, 29, 297.7716064453125
0, 1, 30, 282.4235229492188
0, 1, 31, 292.5442199707031
0, 1, 32, 290.7379455566406
0, 1, 33, 295.5173645019531
0, 1, 34, 292.8159484863281
0, 1, 35, 280.3803100585938
0, 1, 36, 306.9779052734375
0, 1, 37, 295.6724243164062
0, 1, 38, 277.2257995605469
0, 1, 39, 295.8151550292969
0, 1, 40, 266.546875
0, 1, 41, 286.1475524902344
0, 1, 42, 291.9778442382812
0, 1, 43, 330.9979553222656
0, 1, 44, 278.3764343261719
0, 1, 45, 292.1314392089844
0, 1, 46, 258.9383850097656
0, 1, 47, 312.32177734375
0, 1, 48, 286.6897277832031
0, 1, 49, 303.653076171875
0, 1, 50, 262.5187377929688
0, 1, 51, 271.4552612304688
0, 1, 52, 295.6597900390625
0, 1, 53, 308.6664123535156
0, 1, 54, 274.2672729492188
0, 1, 55, 292.967529296875
0, 1, 56, 278.5371704101562
0, 1, 57, 297.3350830078125
0, 1, 58, 310.3197326660156
0, 1, 59, 296.3662719726562
0, 1, 60, 298.5813293457031
0, 1, 61, 274.2125549316406
0, 1, 62, 307.3478698730469
0, 1, 63, 288.7267761230469
0, 1, 64, 287.9869079589844
0, 1, 65, 295.8645629882812
0, 1, 66, 292.7723388671875
0, 1, 67, 291.1347045898438
0, 1, 68, 277.1666259765625
0, 1, 69, 279.3316040039062
0, 1, 70, 270.7734680175781
0, 1, 71, 272.9909973144531
0, 1, 72, 286.8768310546875
0, 1, 73, 304.02197265625
0, 1, 74, 303.7402954101562
0, 1, 75, 291.4840393066406
0, 1, 76, 284.6332702636719
0, 1, 77, 290.8985290527344
0, 1, 78, 300.897705078125
0, 1, 79, 301.3582153320312
0, 1, 80, 294.5709228515625
0, 1, 81, 300.1216735839844
0, 1, 82, 283.360595703125
0, 1, 83, 331.2319946289062
0, 1, 84, 307.3976745605469
0, 1, 85, 252.5571594238281
0, 1, 86, 293.9338989257812
0, 1, 87, 289.6323852539062
0, 1, 88, 297.2616271972656
0, 1, 89, 290.0115051269531
0, 1, 90, 270.1719055175781
0, 1, 91, 318.4116821289062
0, 1, 92, 290.5737915039062
0, 1, 93, 286.8859252929688
0, 1, 94, 303.7023620605469
0, 1, 95, 286.1080627441406
0, 1, 96, 282.8763427734375
0, 1, 97, 300.7781372070312
0, 1, 98, 277.0628662109375
0, 1, 99, 266.4753723144531
0, 1, 100, 276.56396484375
0, 1, 101, 282.6820373535156
0, 1, 102, 277.8012390136719
0, 1, 103, 280.1870727539062
0, 1, 104, 305.4147644042969
0, 1, 105, 297.095703125
0, 1, 106, 260.7333068847656
0, 1, 107, 190.8014984130859
0, 1, 108, 81.13999938964844
0, 1, 109, 23.16530418395996
0, 1, 110, 10.7967643737793
0, 1, 111, 8.811563491821289
0, 1, 112, 12.98781394958496
0, 1, 113, 4.683473110198975
0, 1, 114, 6.959293842315674
0, 1, 115, 9.017434120178223
0, 1, 116, 10.63414764404297
0, 1, 117, 5.400394916534424
0, 1, 118, 6.01561164855957
0, 1, 119, 6.439469337463379
0, 1, 120, 7.018522262573242
0, 1, 121, 3.355425596237183
0, 1, 122, 3.840126276016235
0, 1, 123, 8.675538063049316
0, 1, 124, 7.586950302124023
0, 1, 125, 4.54725456237793
0, 1, 126, 4.897387504577637
0, 1, 127, 1.645333170890808
0, 2, 0, 2.93660306930542
0, 2, 1, 2.795306444168091
0, 2, 2, 3.769979000091553
0, 2, 3, 3.904328346252441
0, 2, 4, 2.663997650146484
0, 2, 5, 3.308331251144409
0, 2, 6, 1.65260910987854
0, 2, 7, 2.94031286239624
0, 2, 8, 5.043403148651123
0, 2, 9, 4.795110702514648
0, 2, 10, 9.019177436828613
0, 2, 11, 9.058496475219727
0, 2, 12, 7.092374801635742
0, 2, 13, 10.16424465179443
0, 2, 14, 10.38558864593506
0, 2, 15, 8.550775527954102
0, 2, 16, 9.166709899902344
0, 2, 17, 15.89712619781494
0, 2, 18, 29.14168548583984
0, 2, 19, 118.6430511474609
0, 2, 20, 246.4627227783203
0, 2, 21, 271.03515625
0, 2, 22, 316.142822265625
0, 2, 23, 300.1705627441406
0, 2, 24, 288.2398376464844
0, 2, 25, 303.3592224121094
0, 2, 26, 292.5569458007812
0, 2, 27, 274.7875061035156
0, 2, 28, 271.987548828125
0, 2, 29, 272.7561645507812
0, 2, 30, 290.6301574707031
0, 2, 31, 277.3257751464844
0, 2, 32, 293.4454040527344
0, 2, 33, 282.2134704589844
0, 2, 34, 333.498046875
0, 2, 35, 290.6705322265625
0, 2, 36, 303.2921752929688
0, 2, 37, 316.6075744628906
0, 2, 38, 312.6405944824219
0, 2, 39, 266.5749206542969
0, 2, 40, 309.6983642578125
0, 2, 41, 293.425048828125
0, 2, 42, 302.4673767089844
0, 2, 43, 313.439697265625
0, 2, 44, 312.6879272460938
0, 2, 45, 326.4103393554688
0, 2, 46, 287.0783081054688
0, 2, 47, 304.0412902832031
0, 2, 48, 281.7185668945312
0, 2, 49, 277.046875
0, 2, 50, 295.2134094238281
0, 2, 51, 284.46533203125
0, 2, 52, 272.406982421875
0, 2, 53, 288.2882995605469
0, 2, 54, 279.1256713867188
0, 2, 55, 273.9763793945312
0, 2, 56, 304.2062377929688
0, 2, 57, 291.7550048828125
0, 2, 58, 303.0968322753906
0, 2, 59, 289.1181030273438
0, 2, 60, 319.1391296386719
0, 2, 61, 302.2778015136719
0, 2, 62, 314.4674377441406
0, 2, 63, 304.2209777832031
0, 2, 64, 297.189697265625
0, 2, 65, 317.5638427734375
0, 2, 66, 278.6516723632812
0, 2, 67, 290.5531921386719
0, 2, 68, 295.6294860839844
0, 2, 69, 312.2628479003906
0, 2, 70, 336.2472839355469
0, 2, 71, 283.4317016601562
0, 2, 72, 305.4130554199219
0, 2, 73, 312.2080993652344
0, 2, 74, 285.83447265625
0, 2, 75, 306.7782287597656
0, 2, 76, 285.6017150878906
0, 2, 77, 300.164794921875
0, 2, 78, 314.1683654785156
0, 2, 79, 310.3909301757812
0, 2, 80, 297.2565307617188
0, 2, 81, 284.6177978515625
0, 2, 82, 318.8356323242188
0, 2, 83, 311.2831115722656
0, 2, 84, 288.1938171386719
0, 2, 85, 282.0852966308594
0, 2, 86, 327.0368957519531
0, 2, 87, 286.92333984375
0, 2, 88, 279.1927795410156
0, 2, 89, 295.1040954589844
0, 2, 90, 295.1836242675781
0, 2, 91, 275.1429138183594
0, 2, 92, 305.5614318847656
0, 2, 93, 318.3073120117188
0, 2, 94, 290.4330444335938
0, 2, 95, 314.7173461914062
0, 2, 96, 315.660888671875
0, 2, 97, 295.3392333984375
0, 2, 98, 292.6853637695312
0, 2, 99, 274.1719665527344
0, 2, 100, 304.6609802246094
0, 2, 101, 300.6318969726562
0, 2, 102, 297.006103515625
0, 2, 103, 290.8367919921875
0, 2, 104, 294.7795715332031
0, 2, 105, 273.8395690917969
0, 2, 106, 295.7243957519531
0, 2, 107, 269.0836486816406
0, 2, 108, 116.4458923339844
0, 2, 109, 32.60136413574219
0, 2, 110, 10.16251087188721
0, 2, 111, 10.10082149505615
0, 2, 112, 7.555359840393066
0, 2, 113, 10.33643913269043
0, 2, 114, 8.99433708190918
0, 2, 115, 9.009501457214355
0, 2, 116, 9.6407470703125
0, 2, 117, 6.450953006744385
0, 2, 118, 3.66963529586792
0, 2, 119, 6.419562816619873
0, 2, 120, 7.550917148590088
0, 2, 121, 1.984948754310608
0, 2, 122, 2.524156093597412
0, 2, 123, 3.584233522415161
0, 2, 124, 5.155645847320557
0, 2, 125, 4.863442420959473
0, 2, 126, 4.057663440704346
0, 2, 127, 4.698173046112061
0, 3, 0, 3.55884861946106
0, 3, 1, 3.030861854553223
0, 3, 2, 3.694753170013428
0, 3, 3, 2.307511568069458
0, 3, 4, 4.172505378723145
0, 3, 5, 6.602349281311035
0, 3, 6, 5.949398040771484
0, 3, 7, 4.823403358459473
0, 3, 8, 7.016349792480469
0, 3, 9, 7.018938541412354
0, 3, 10, 6.899623394012451
0, 3, 11, 3.451916694641113
0, 3, 12, 6.070249557495117
0, 3, 13, 14.34504699707031
0, 3, 14, 10.65795993804932
0, 3, 15, 13.98754024505615
0, 3, 16, 12.68074417114258
0, 3, 17, 19.33752059936523
0, 3, 18, 52.109619140625
0, 3, 19, 175.6309509277344
0, 3, 20, 269.0756225585938
0, 3, 21, 272.1819458007812
0, 3, 22, 282.1921081542969
0, 3, 23, 286.7659912109375
0, 3, 24, 284.903076171875
0, 3, 25, 271.1800842285156
0, 3, 26, 304.8729858398438
0, 3, 27, 291.6972045898438
0, 3, 28, 281.4291687011719
0, 3, 29, 336.4941101074219
0, 3, 30, 319.1744995117188
0, 3, 31, 288.2309265136719
0, 3, 32, 307.6546325683594
0, 3, 33, 317.0401916503906
0, 3, 34, 322.5694885253906
0, 3, 35, 305.6871948242188
0, 3, 36, 274.9285888671875
0, 3, 37, 315.999755859375
0, 3, 38, 304.1642761230469
0, 3, 39, 288.9229125976562
0, 3, 40, 266.6317138671875
0, 3, 41, 301.2927551269531
0, 3, 42, 285.9143676757812
0, 3, 43, 306.7664184570312
0, 3, 44, 309.2342529296875
0, 3, 45, 291.6803283691406
0, 3, 46, 330.6894836425781
0, 3, 47, 300.5531616210938
0, 3, 48, 304.8745422363281
0, 3, 49, 275.5769348144531
0, 3, 50, 289.9137573242188
0, 3, 51, 275.74462890625
0, 3, 52, 315.9864196777344
0, 3, 53, 290.2206420898438
0, 3, 54, 284.93359375
0, 3, 55, 282.1973876953125
0, 3, 56, 298.271484375
0, 3, 57, 291.1969604492188
0, 3, 58, 307.9808044433594
0, 3, 59, 298.0391845703125
0, 3, 60, 299.9461669921875
0, 3, 61, 265.5596618652344
0, 3, 62, 287.6910400390625
0, 3, 63, 305.4025573730469
0, 3, 64, 317.6611633300781
0, 3, 65, 307.7926025390625
0, 3, 66, 314.4951171875
0, 3, 67, 317.6624755859375
0, 3, 68, 278.7701110839844
0, 3, 69, 282.287353515625
0, 3, 70, 286.169189453125
0, 3, 71, 300.1828308105469
0, 3, 72, 271.2853088378906
0, 3, 73, 309.3656311035156
0, 3, 74, 293.4930725097656
0, 3, 75, 288.8354187011719
0, 3, 76, 306.2022705078125
0, 3, 77, 314.8223266601562
0, 3, 78, 305.4270629882812
0, 3, 79, 280.9983215332031
0, 3, 80, 289.5804138183594
0, 3, 81, 311.4219055175781
0, 3, 82, 315.7079162597656
0, 3, 83, 302.0437316894531
0, 3, 84, 311.6708679199219
0, 3, 85, 293.2870788574219
0, 3, 86, 302.6875915527344
0, 3, 87, 299.4456481933594
0, 3, 88, 298.0788269042969
0, 3, 89, 296.6531982421875
0, 3, 90, 275.0390625
0, 3, 91, 286.0811157226562
0, 3, 92, 304.78173828125
0, 3, 93, 312.237548828125
0, 3, 94, 300.5638122558594
0, 3, 95, 335.8280029296875
0, 3, 96, 289.1114807128906
0, 3, 97, 281.6048583984375
0, 3, 98, 277.6348266601562
0, 3, 99, 263.9714050292969
0, 3, 100, 284.8141479492188
0, 3, 101, 297.1620178222656
0, 3, 102, 274.5285034179688
0, 3, 103, 321.15478515625
0, 3, 104, 307.8861999511719
0, 3, 105, 289.4075622558594
0, 3, 106, 302.32958984375
0, 3, 107, 284.9793395996094
0, 3, 108, 169.1848602294922
0, 3, 109, 57.8157844543457
0, 3, 110, 19.04413986206055
0, 3, 111, 13.27048969268799
0, 3, 112, 11.59264945983887
0, 3, 113, 8.8182373046875
0, 3, 114, 9.554282188415527
0, 3, 115, 6.975581645965576
0, 3, 116, 7.52761697769165
0, 3, 117, 6.434174537658691
0, 3, 118, 6.106646060943604
0, 3, 119, 5.274014949798584
0, 3, 120, 6.596782207489014
0, 3, 121, 3.07129430770874
0, 3, 122, 5.878955841064453
0, 3, 123, 7.210631847381592
0, 3, 124, 3.415394306182861
0, 3, 125, 7.524628162384033
0, 3, 126, 4.462571144104004
0, 3, 127, 3.396129846572876
0, 4, 0, 2.978907346725464
0, 4, 1, 4.425796985626221
0, 4, 2, 3.542730808258057
0, 4, 3, 6.542303562164307
0, 4, 4, 6.803789615631104
0, 4, 5, 7.590973377227783
0, 4, 6, 7.148060321807861
0, 4, 7, 5.798093795776367
0, 4, 8, 5.391485214233398
0, 4, 9, 5.162076473236084
0, 4, 10, 5.746259689331055
0, 4, 11, 6.396395206451416
0, 4, 12, 6.183393955230713
0, 4, 13, 8.274879455566406
0, 4, 14, 13.63578224182129
0, 4, 15, 8.257570266723633
0, 4, 16, 14.31637096405029
0, 4, 17, 17.88593292236328
0, 4, 18, 93.83470916748047
0, 4, 19, 221.9303894042969
0, 4, 20, 283.6587524414062
0, 4, 21, 274.1306457519531
0, 4, 22, 304.3412780761719
0, 4, 23, 265.6897888183594
0, 4, 24, 289.7531433105469
0, 4, 25, 273.97705078125
0, 4, 26, 298.4654541015625
0, 4, 27, 283.1075439453125
0, 4, 28, 309.8132019042969
0, 4, 29, 323.2181701660156
0, 4, 30, 308.7368774414062
0, 4, 31, 304.3927001953125
0, 4, 32, 280.0509948730469
0, 4, 33, 296.4242248535156
0, 4, 34, 298.8301696777344
0, 4, 35, 312.7281494140625
0, 4, 36, 291.9070434570312
0, 4, 37, 287.1767578125
0, 4, 38, 297.3667297363281
0, 4, 39, 294.2225646972656
0, 4, 40, 304.7969665527344
0, 4, 41, 312.6390380859375
0, 4, 42, 331.3396911621094
0, 4, 43, 295.4239807128906
0, 4, 44, 322.8499145507812
0, 4, 45, 325.2448120117188
0, 4, 46, 308.5460815429688
0, 4, 47, 292.0235900878906
0, 4, 48, 295.599853515625
0, 4, 49, 276.9957580566406
0, 4, 50, 298.6326599121094
0, 4, 51, 318.3271179199219
0, 4, 52, 329.4298095703125
0, 4, 53, 303.5856018066406
0, 4, 54, 286.649169921875
0, 4, 55, 314.9997253417969
0, 4, 56, 284.9177551269531
0, 4, 57, 313.4109802246094
0, 4, 58, 295.4059143066406
0, 4, 59, 310.9768371582031
0, 4, 60, 301.2809448242188
0, 4, 61, 316.1741943359375
0, 4, 62, 309.4868469238281
0, 4, 63, 298.4819030761719
0, 4, 64, 330.6362915039062
0, 4, 65, 317.7664794921875
0, 4, 66, 293.1631469726562
0, 4, 67, 284.356689453125
0, 4, 68, 314.5059814453125
0, 4, 69, 277.2951354980469
0, 4, 70, 299.4859924316406
0, 4, 71, 322.4850158691406
0, 4, 72, 332.4783020019531
0, 4, 73, 297.4796752929688
0, 4, 74, 292.1706237792969
0, 4, 75, 291.1432189941406
0, 4, 76, 276.2629089355469
0, 4, 77, 278.4576110839844
0, 4, 78, 310.6322326660156
0, 4, 79, 320.2163696289062
0, 4, 80, 315.5398254394531
0, 4, 81, 313.0498657226562
0, 4, 82, 298.2355346679688
0, 4, 83, 300.5743103027344
0, 4, 84, 292.0609741210938
0, 4, 85, 294.9963684082031
0, 4, 86, 298.4281005859375
0, 4, 87, 285.8248596191406
0, 4, 88, 308.0809326171875
0, 4, 89, 293.5823974609375
0, 4, 90, 334.7653198242188
0, 4, 91, 300.53662109375
0, 4, 92, 288.9137268066406
0, 4, 93, 296.3500671386719
0, 4, 94, 293.1879272460938
0, 4, 95, 287.55810546875
0, 4, 96, 324.7161865234375
0, 4, 97, 275.6604919433594
0, 4, 98, 327.4652404785156
0, 4, 99, 314.3775634765625
0, 4, 100, 300.2540893554688
0, 4, 101, 259.147705078125
0, 4, 102, 297.2962951660156
0, 4, 103, 317.9948120117188
0, 4, 104, 282.342041015625
0, 4, 105, 310.0649719238281
0, 4, 106, 286.1227722167969
0, 4, 107, 293.0774230957031
0, 4, 108, 226.8697967529297
0, 4, 109, 80.68939208984375
0, 4, 110, 17.2905101776123
0, 4, 111, 12.70003414154053
0, 4, 112, 10.04133892059326
0, 4, 113, 10.55161571502686
0, 4, 114, 8.781744003295898
0, 4, 115, 9.873311996459961
0, 4, 116, 7.841364860534668
0, 4, 117, 9.399002075195312
0, 4, 118, 10.54339122772217
0, 4, 119, 10.62511253356934
0, 4, 120, 4.635408401489258
0, 4, 121, 6.111031055450439
0, 4, 122, 3.956660509109497
0, 4, 123, 6.213480949401855
0, 4, 124, 5.208662986755371
0, 4, 125, 9.002673149108887
0, 4, 126, 4.136950016021729
0, 4, 127, 4.98000955581665
0, 5, 0, 4.590459823608398
0, 5, 1, 2.675382375717163
0, 5, 2, 3.508409023284912
0, 5, 3, 4.943739891052246
0, 5, 4, 5.525123596191406
0, 5, 5, 8.154670715332031
0, 5, 6, 6.238161087036133
0, 5, 7, 6.316397666931152
0, 5, 8, 5.939445018768311
0, 5, 9, 4.771190166473389
0, 5, 10, 9.169431686401367
0, 5, 11, 8.795890808105469
0, 5, 12, 8.151360511779785
0, 5, 13, 5.042181015014648
0, 5, 14, 12.98609638214111
0, 5, 15, 15.68384075164795
0, 5, 16, 15.22619152069092
0, 5, 17, 29.99520874023438
0, 5, 18, 138.303466796875
0, 5, 19, 288.3484802246094
0, 5, 20, 308.990478515625
0, 5, 21, 316.2305908203125
0, 5, 22, 274.7898864746094
0, 5, 23, 312.9798583984375
0, 5, 24, 301.4739685058594
0, 5, 25, 290.194091796875
0, 5, 26, 295.930419921875
0, 5, 27, 322.586181640625
0, 5, 28, 302.18310546875
0, 5, 29, 298.3561706542969
0, 5, 30, 324.2660217285156
0, 5, 31, 285.9678649902344
0, 5, 32, 303.0527038574219
0, 5, 33, 303.9428100585938
0, 5, 34, 296.5289306640625
0, 5, 35, 308.3438720703125
0, 5, 36, 270.963623046875
0, 5, 37, 283.4407958984375
0, 5, 38, 295.1141662597656
0, 5, 39, 311.3473205566406
0, 5, 40, 308.0738525390625
0, 5, 41, 274.3202819824219
0, 5, 42, 304.0873718261719
0, 5, 43, 314.8943786621094
0, 5, 44, 291.9171447753906
0, 5, 45, 301.5988159179688
0, 5, 46, 265.0891723632812
0, 5, 47, 280.6345825195312
0, 5, 48, 292.8012390136719
0, 5, 49, 285.480712890625
0, 5, 50, 293.0562744140625
0, 5, 51, 280.1478271484375
0, 5, 52, 271.8931274414062
0, 5, 53, 285.4420471191406
0, 5, 54, 292.579833984375
0, 5, 55, 348.6295776367188
0, 5, 56, 305.6889953613281
0, 5, 57, 310.0853881835938
0, 5, 58, 312.3399047851562
0, 5, 59, 302.9351196289062
0, 5, 60, 310.3463439941406
0, 5, 61, 281.2330627441406
0, 5, 62, 324.0543823242188
0, 5, 63, 291.46337890625
0, 5, 64, 322.6274719238281
0, 5, 65, 305.4949645996094
0, 5, 66, 328.1958312988281
0, 5, 67, 311.7522888183594
0, 5, 68, 308.2964477539062
0, 5, 69, 313.2378234863281
0, 5, 70, 300.8452758789062
0, 5, 71, 272.8556823730469
0, 5, 72, 309.4982604980469
0, 5, 73, 302.2150268554688
0, 5, 74, 294.9156799316406
0, 5, 75, 294.4107055664062
0, 5, 76, 285.875244140625
0, 5, 77, 301.1515197753906
0, 5, 78, 314.9815673828125
0, 5, 79, 307.4760131835938
0, 5, 80, 295.6354370117188
0, 5, 81, 325.0251770019531
0, 5, 82, 323.396484375
0, 5, 83, 280.9581604003906
0, 5, 84, 300.5802307128906
0, 5, 85, 270.8082885742188
0, 5, 86, 324.8855285644531
0, 5, 87, 283.5094909667969
0, 5, 88, 314.3280334472656
0, 5, 89, 304.1879272460938
0, 5, 90, 317.0366821289062
0, 5, 91, 313.6747436523438
0, 5, 92, 296.4442443847656
0, 5, 93, 320.5833129882812
0, 5, 94, 307.6993103027344
0, 5, 95, 296.3905334472656
0, 5, 96, 295.9541625976562
0, 5, 97, 296.1218872070312
0, 5, 98, 318.3055725097656
0, 5, 99, 301.9371032714844
0, 5, 100, 289.3455200195312
0, 5, 101, 304.3741455078125
0, 5, 102, 292.4515075683594
0, 5, 103, 316.3567504882812
0, 5, 104, 306.09326171875
0, 5, 105, 291.42724609375
0, 5, 106, 281.3175048828125
0, 5, 107, 294.3714599609375
0, 5, 108, 264.958984375
0, 5, 109, 158.1793823242188
0, 5, 110, 39.11375427246094
0, 5, 111, 20.21244812011719
0, 5, 112, 16.49338340759277
0, 5, 113, 12.60720443725586
0, 5, 114, 11.29294490814209
0, 5, 115, 8.72081470489502
0, 5, 116, 8.941631317138672
0, 5, 117, 6.390017032623291
0, 5, 118, 14.81408500671387
0, 5, 119, 4.614824295043945
0, 5, 120, 4.244762897491455
0, 5, 121, 5.388372421264648
0, 5, 122, 7.845484256744385
0, 5, 123, 5.510321617126465
0, 5, 124, 5.891465663909912
0, 5, 125, 2.925561428070068
0, 5, 126, 6.406203746795654
0, 5, 127, 3.898338317871094
0, 6, 0, 4.834131240844727
0, 6, 1, 3.301230669021606
0, 6, 2, 4.97453498840332
0, 6, 3, 7.247493267059326
0, 6, 4, 4.854820251464844
0, 6, 5, 6.792373180389404
0, 6, 6, 7.677276611328125
0, 6, 7, 5.606555461883545
0, 6, 8, 6.97391414642334
0, 6, 9, 4.806770801544189
0, 6, 10, 8.28938102722168
0, 6, 11, 7.656325340270996
0, 6, 12, 11.59924411773682
0, 6, 13, 16.89610862731934
0, 6, 14, 7.776991367340088
0, 6, 15, 15.81646919250488
0, 6, 16, 26.80868911743164
0, 6, 17, 58.44662475585938
0, 6, 18, 174.3387603759766
0, 6, 19, 278.1856079101562
0, 6, 20, 292.7289428710938
0, 6, 21, 315.8823852539062
0, 6, 22, 320.7139587402344
0, 6, 23, 303.7312927246094
0, 6, 24, 315.9975280761719
0, 6, 25, 316.3556213378906
0, 6, 26, 318.5555419921875
0, 6, 27, 329.3459167480469
0, 6, 28, 296.7617492675781
0, 6, 29, 328.2829284667969
0, 6, 30, 283.62255859375
0, 6, 31, 286.668701171875
0, 6, 32, 341.9258728027344
0, 6, 33, 300.3883056640625
0, 6, 34, 339.6509094238281
0, 6, 35, 320.9006958007812
0, 6, 36, 272.2843322753906
0, 6, 37, 286.8684387207031
0, 6, 38, 308.9100341796875
0, 6, 39, 297.7549438476562
0, 6, 40, 286.3340759277344
0, 6, 41, 296.0472717285156
0, 6, 42, 305.2286071777344
0, 6, 43, 288.0596008300781
0, 6, 44, 281.185791015625
0, 6, 45, 321.2265014648438
0, 6, 46, 302.386474609375
0, 6, 47, 334.3731079101562
0, 6, 48, 292.6097717285156
0, 6, 49, 310.0878601074219
0, 6, 50, 327.8695678710938
0, 6, 51, 309.6187133789062
0, 6, 52, 321.2159118652344
0, 6, 53, 327.674560546875
0, 6, 54, 302.5243225097656
0, 6, 55, 303.2702941894531
0, 6, 56, 294.6491088867188
0, 6, 57, 312.285400390625
0, 6, 58, 261.4183044433594
0, 6, 59, 303.4775390625
0, 6, 60, 312.3418579101562
0, 6, 61, 271.3174743652344
0, 6, 62, 335.8930053710938
0, 6, 63, 322.8992919921875
0, 6, 64, 291.2138671875
0, 6, 65, 288.2358703613281
0, 6, 66, 303.7112121582031
0, 6, 67, 310.51171875
0, 6, 68, 294.5816650390625
0, 6, 69, 277.5530700683594
0, 6, 70, 273.212890625
0, 6, 71, 289.4454956054688
0, 6, 72, 310.2230224609375
0, 6, 73, 293.8094787597656
0, 6, 74, 330.3248596191406
0, 6, 75, 342.8895874023438
0, 6, 76, 298.1587829589844
0, 6, 77, 285.2401733398438
0, 6, 78, 276.2029724121094
0, 6, 79, 292.0425415039062
0, 6, 80, 301.2708435058594
0, 6, 81, 316.0161437988281
0, 6, 82, 320.0972900390625
0, 6, 83, 320.7828674316406
0, 6, 84, 300.2542419433594
0, 6, 85, 300.3787536621094
0, 6, 86, 330.9251403808594
0, 6, 87, 293.169189453125
0, 6, 88, 305.1582641601562
0, 6, 89, 304.2077026367188
0, 6, 90, 298.7163696289062
0, 6, 91, 314.0665588378906
0, 6, 92, 284.9508666992188
0, 6, 93, 297.3601989746094
0, 6, 94, 272.7449951171875
0, 6, 95, 299.808349609375
0, 6, 96, 346.0052185058594
0, 6, 97, 306.3355712890625
0, 6, 98, 301.290283203125
0, 6, 99, 274.4764709472656
0, 6, 100, 313.3014526367188
0, 6, 101, 293.0093078613281
0, 6, 102, 307.6954650878906
0, 6, 103, 308.9365234375
0, 6, 104, 290.1241149902344
0, 6, 105, 301.6595764160156
0, 6, 106, 306.316650390625
0, 6, 107, 307.11767578125
0, 6, 108, 264.3995361328125
0, 6, 109, 187.7941284179688
0, 6, 110, 57.06128311157227
0, 6, 111, 20.62067222595215
0, 6, 112, 11.99069023132324
0, 6, 113, 9.939146041870117
0, 6, 114, 12.79073238372803
0, 6, 115, 12.64468669891357
0, 6, 116, 8.593213081359863
0, 6, 117, 7.753597259521484
0, 6, 118, 8.679718971252441
0, 6, 119, 10.73637962341309
0, 6, 120, 6.269869327545166
0, 6, 121, 5.957324028015137
0, 6, 122, 5.575377941131592
0, 6, 123, 4.320908069610596
0, 6, 124, 4.908143520355225
0, 6, 125, 6.909765243530273
0, 6, 126, 5.88715124130249
0, 6, 127, 7.440117835998535
0, 7, 0, 4.828986644744873
0, 7, 1, 2.948145627975464
0, 7, 2, 4.808826923370361
0, 7, 3, 4.202754497528076
0, 7, 4, 5.849499225616455
0, 7, 5, 6.798213005065918
0, 7, 6, 4.453712940216064
0, 7, 7, 5.645382881164551
0, 7, 8, 4.683773517608643
0, 7, 9, 5.539793014526367
0, 7, 10, 8.87640380859375
0, 7, 11, 11.24245548248291
0, 7, 12, 9.404227256774902
0, 7, 13, 10.35764026641846
0, 7, 14, 10.47628211975098
0, 7, 15, 19.85713768005371
0, 7, 16, 25.40190124511719
0, 7, 17, 96.46643829345703
0, 7, 18, 217.1829833984375
0, 7, 19, 290.0093688964844
0, 7, 20, 295.4493408203125
0, 7, 21, 277.1772155761719
0, 7, 22, 298.3969421386719
0, 7, 23, 292.014892578125
0, 7, 24, 313.2070617675781
0, 7, 25, 324.8837890625
0, 7, 26, 277.41259765625
0, 7, 27, 296.3739624023438
0, 7, 28, 325.0804443359375
0, 7, 29, 322.2740783691406
0, 7, 30, 299.0460205078125
0, 7, 31, 277.9227905273438
0, 7, 32, 304.9371643066406
0, 7, 33, 263.645751953125
0, 7, 34, 299.0967712402344
0, 7, 35, 318.0205688476562
0, 7, 36, 331.0771484375
0, 7, 37, 324.1377868652344
0, 7, 38, 295.7746276855469
0, 7, 39, 306.7110290527344
0, 7, 40, 290.54931640625
0, 7, 41, 270.630615234375
0, 7, 42, 302.5108642578125
0, 7, 43, 275.2556457519531
0, 7, 44, 302.2761535644531
0, 7, 45, 293.8216857910156
0, 7, 46, 283.0968933105469
0, 7, 47, 331.1790466308594
0, 7, 48, 285.8639526367188
0, 7, 49, 301.3124389648438
0, 7, 50, 321.3399353027344
0, 7, 51, 299.4518127441406
0, 7, 52, 327.3910827636719
0, 7, 53, 308.7062072753906
0, 7, 54, 324.2392883300781
0, 7, 55, 307.3052368164062
0, 7, 56, 278.6434631347656
0, 7, 57, 281.5092163085938
0, 7, 58, 296.8339233398438
0, 7, 59, 293.7700500488281
0, 7, 60, 323.8905334472656
0, 7, 61, 278.2271118164062
0, 7, 62, 297.81640625
0, 7, 63, 292.922119140625
0, 7, 64, 304.3628234863281
0, 7, 65, 330.1261291503906
0, 7, 66, 321.1462707519531
0, 7, 67, 302.3327941894531
0, 7, 68, 279.8030090332031
0, 7, 69, 294.1501770019531
0, 7, 70, 303.6516723632812
0, 7, 71, 310.8955688476562
0, 7, 72, 285.8258056640625
0, 7, 73, 295.5176086425781
0, 7, 74, 344.0263061523438
0, 7, 75, 318.4978637695312
0, 7, 76, 325.0044250488281
0, 7, 77, 280.0894470214844
0, 7, 78, 299.3485107421875
0, 7, 79, 298.1976318359375
0, 7, 80, 313.6905212402344
0, 7, 81, 320.5020141601562
0, 7, 82, 330.8282775878906
0, 7, 83, 315.7187805175781
0, 7, 84, 310.3574829101562
0, 7, 85, 273.5914306640625
0, 7, 86, 311.8673095703125
0, 7, 87, 310.1148376464844
0, 7, 88, 306.6159362792969
0, 7, 89, 294.0176086425781
0, 7, 90, 306.3372192382812
0, 7, 91, 315.7718200683594
0, 7, 92, 290.5618896484375
0, 7, 93, 309.1289978027344
0, 7, 94, 273.6830749511719
0, 7, 95, 297.6094665527344
0, 7, 96, 332.8690185546875
0, 7, 97, 295.9180297851562
0, 7, 98, 290.2629699707031
0, 7, 99, 312.0289306640625
0, 7, 100, 283.3099975585938
0, 7, 101, 275.8169555664062
0, 7, 102, 290.6241149902344
0, 7, 103, 293.6942138671875
0, 7, 104, 274.4700622558594
0, 7, 105, 306.4729309082031
0, 7, 106, 317.5559387207031
0, 7, 107, 296.8864135742188
0, 7, 108, 274.4421081542969
0, 7, 109, 236.6499176025391
0, 7, 110, 94.66654968261719
0, 7, 111, 25.15810775756836
0, 7, 112, 12.77032947540283
0, 7, 113, 14.71529293060303
0, 7, 114, 14.71356582641602
0, 7, 115, 10.90074253082275
0, 7, 116, 7.367512226104736
0, 7, 117, 5.766534805297852
0, 7, 118, 9.29670524597168
0, 7, 119, 5.671196460723877
0, 7, 120, 4.0389723777771
0, 7, 121, 6.740316390991211
0, 7, 122, 8.912211418151855
0, 7, 123, 5.588057041168213
0, 7, 124, 5.415846824645996
0, 7, 125, 9.197154998779297
0, 7, 126, 9.941174507141113
0, 7, 127, 6.155518531799316
0, 8, 0, 2.806077003479004
0, 8, 1, 5.347881317138672
0, 8, 2, 6.169150352478027
0, 8, 3, 2.844738006591797
0, 8, 4, 3.201034069061279
0, 8, 5, 4.057366847991943
0, 8, 6, 5.006641387939453
0, 8, 7, 5.542603015899658
0, 8, 8, 8.51164722442627
0, 8, 9, 5.94099235534668
0, 8, 10, 9.957945823669434
0, 8, 11, 10.02368068695068
0, 8, 12, 13.99753952026367
0, 8, 13, 15.58935260772705
0, 8, 14, 13.03142356872559
0, 8, 15, 18.09122085571289
0, 8, 16, 32.25349044799805
0, 8, 17, 130.1410827636719
0, 8, 18, 242.0633087158203
0, 8, 19, 292.9542541503906
0, 8, 20, 284.0135192871094
0, 8, 21, 305.8535766601562
0, 8, 22, 295.8188171386719
0, 8, 23, 275.8816528320312
0, 8, 24, 271.2703552246094
0, 8, 25, 276.0329284667969
0, 8, 26, 305.1206665039062
0, 8, 27, 307.1820373535156
0, 8, 28, 302.4164123535156
0, 8, 29, 318.6048889160156
0, 8, 30, 312.3470764160156
0, 8, 31, 304.0279235839844
0, 8, 32, 281.6750793457031
0, 8, 33, 294.3998718261719
0, 8, 34, 289.2909240722656
0, 8, 35, 283.481689453125
0, 8, 36, 316.5253295898438
0, 8, 37, 341.761962890625
0, 8, 38, 334.7649230957031
0, 8, 39, 282.7852783203125
0, 8, 40, 303.4686584472656
0, 8, 41, 291.8088073730469
