# TOPAS Version: 3.1.p3
# Parameter File: batch_inserts_70.txt
# Results for scorer Readout_Adipose
# Scored in component: MyBox
# X in 1 bin  of 0.75 cm
# Y in 512 bins of 0.0783984 cm
# Z in 128 bins of 0.078125 cm
# EnergyDeposit ( MeV ) : Sum   
0, 0, 0, 3.651870012283325
0, 0, 1, 1.768416047096252
0, 0, 2, 4.565549850463867
0, 0, 3, 1.622550487518311
0, 0, 4, 5.292470932006836
0, 0, 5, 4.725847721099854
0, 0, 6, 7.180462837219238
0, 0, 7, 8.952773094177246
0, 0, 8, 3.573100566864014
0, 0, 9, 5.908027648925781
0, 0, 10, 7.02890682220459
0, 0, 11, 4.908773422241211
0, 0, 12, 6.07837438583374
0, 0, 13, 5.685919761657715
0, 0, 14, 6.564623832702637
0, 0, 15, 9.166272163391113
0, 0, 16, 8.177615165710449
0, 0, 17, 8.33587646484375
0, 0, 18, 13.17339515686035
0, 0, 19, 43.32929229736328
0, 0, 20, 140.9430999755859
0, 0, 21, 223.5300903320312
0, 0, 22, 250.2727508544922
0, 0, 23, 254.8079071044922
0, 0, 24, 251.3562774658203
0, 0, 25, 258.8500671386719
0, 0, 26, 233.7416839599609
0, 0, 27, 237.578125
0, 0, 28, 272.9440002441406
0, 0, 29, 254.5903472900391
0, 0, 30, 229.6822662353516
0, 0, 31, 243.5563812255859
0, 0, 32, 264.1793518066406
0, 0, 33, 261.216064453125
0, 0, 34, 286.6226501464844
0, 0, 35, 266.6846923828125
0, 0, 36, 246.8932189941406
0, 0, 37, 252.0927429199219
0, 0, 38, 268.9280090332031
0, 0, 39, 230.4213562011719
0, 0, 40, 241.7135009765625
0, 0, 41, 265.6300964355469
0, 0, 42, 229.2405548095703
0, 0, 43, 260.3204040527344
0, 0, 44, 251.3968048095703
0, 0, 45, 253.6088409423828
0, 0, 46, 244.1030120849609
0, 0, 47, 252.5679321289062
0, 0, 48, 266.6966247558594
0, 0, 49, 272.0062561035156
0, 0, 50, 250.0316925048828
0, 0, 51, 254.0280303955078
0, 0, 52, 276.2159118652344
0, 0, 53, 289.9551696777344
0, 0, 54, 243.9401092529297
0, 0, 55, 240.8268432617188
0, 0, 56, 276.7230834960938
0, 0, 57, 263.2587890625
0, 0, 58, 248.9326477050781
0, 0, 59, 272.6371765136719
0, 0, 60, 234.3646240234375
0, 0, 61, 244.0132598876953
0, 0, 62, 260.2432556152344
0, 0, 63, 268.6272277832031
0, 0, 64, 258.2251586914062
0, 0, 65, 259.5187683105469
0, 0, 66, 275.9808044433594
0, 0, 67, 246.4040832519531
0, 0, 68, 257.9189758300781
0, 0, 69, 261.4969177246094
0, 0, 70, 272.3229064941406
0, 0, 71, 237.3726043701172
0, 0, 72, 250.8504638671875
0, 0, 73, 258.325439453125
0, 0, 74, 251.5824584960938
0, 0, 75, 240.5884857177734
0, 0, 76, 228.8577117919922
0, 0, 77, 261.8545837402344
0, 0, 78, 257.6724853515625
0, 0, 79, 278.9432373046875
0, 0, 80, 217.2656707763672
0, 0, 81, 267.1434936523438
0, 0, 82, 256.1176147460938
0, 0, 83, 246.5556335449219
0, 0, 84, 270.3347778320312
0, 0, 85, 232.2072296142578
0, 0, 86, 253.7924652099609
0, 0, 87, 251.5550994873047
0, 0, 88, 260.962158203125
0, 0, 89, 282.0144958496094
0, 0, 90, 243.4125518798828
0, 0, 91, 283.1701965332031
0, 0, 92, 251.6370849609375
0, 0, 93, 248.8578948974609
0, 0, 94, 247.5303649902344
0, 0, 95, 247.3575439453125
0, 0, 96, 274.3479309082031
0, 0, 97, 271.060546875
0, 0, 98, 272.2895202636719
0, 0, 99, 258.125244140625
0, 0, 100, 259.4414367675781
0, 0, 101, 226.9499664306641
0, 0, 102, 231.0386352539062
0, 0, 103, 269.236328125
0, 0, 104, 253.3665771484375
0, 0, 105, 251.4531555175781
0, 0, 106, 246.7077941894531
0, 0, 107, 154.0395812988281
0, 0, 108, 39.65897750854492
0, 0, 109, 11.56314945220947
0, 0, 110, 12.55624389648438
0, 0, 111, 8.967440605163574
0, 0, 112, 7.58072566986084
0, 0, 113, 5.584829807281494
0, 0, 114, 7.604707717895508
0, 0, 115, 4.394037246704102
0, 0, 116, 4.843481063842773
0, 0, 117, 9.156940460205078
0, 0, 118, 6.321227073669434
0, 0, 119, 4.311684608459473
0, 0, 120, 4.836851596832275
0, 0, 121, 3.076714038848877
0, 0, 122, 5.791773796081543
0, 0, 123, 2.305307149887085
0, 0, 124, 5.500707626342773
0, 0, 125, 2.740270376205444
0, 0, 126, 5.513680934906006
0, 0, 127, 3.307384252548218
0, 1, 0, 7.44257926940918
0, 1, 1, 3.166510343551636
0, 1, 2, 4.154512882232666
0, 1, 3, 3.709195852279663
0, 1, 4, 3.138401985168457
0, 1, 5, 3.814572095870972
0, 1, 6, 4.226299285888672
0, 1, 7, 3.835920095443726
0, 1, 8, 7.175888538360596
0, 1, 9, 4.443135738372803
0, 1, 10, 7.140586853027344
0, 1, 11, 12.66429233551025
0, 1, 12, 7.783829689025879
0, 1, 13, 9.459572792053223
0, 1, 14, 7.552522659301758
0, 1, 15, 7.007980823516846
0, 1, 16, 10.98761081695557
0, 1, 17, 12.25110054016113
0, 1, 18, 20.83610725402832
0, 1, 19, 66.26365661621094
0, 1, 20, 199.1278381347656
0, 1, 21, 253.8280029296875
0, 1, 22, 294.4300537109375
0, 1, 23, 283.6454772949219
0, 1, 24, 276.1244506835938
0, 1, 25, 287.6917724609375
0, 1, 26, 267.7302551269531
0, 1, 27, 306.2981262207031
0, 1, 28, 299.40673828125
0, 1, 29, 296.7745361328125
0, 1, 30, 283.2559204101562
0, 1, 31, 294.7159729003906
0, 1, 32, 289.719482421875
0, 1, 33, 296.92236328125
0, 1, 34, 293.4046020507812
0, 1, 35, 282.3181457519531
0, 1, 36, 307.8795166015625
0, 1, 37, 294.8920288085938
0, 1, 38, 279.307373046875
0, 1, 39, 297.2839050292969
0, 1, 40, 268.0914916992188
0, 1, 41, 287.1780395507812
0, 1, 42, 291.4599609375
0, 1, 43, 334.8388061523438
0, 1, 44, 279.5292358398438
0, 1, 45, 292.2859191894531
0, 1, 46, 260.7728576660156
0, 1, 47, 311.7811279296875
0, 1, 48, 283.067138671875
0, 1, 49, 300.5807189941406
0, 1, 50, 264.4513549804688
0, 1, 51, 273.2209167480469
0, 1, 52, 295.6092224121094
0, 1, 53, 304.2562561035156
0, 1, 54, 274.2539978027344
0, 1, 55, 293.0123901367188
0, 1, 56, 277.8841247558594
0, 1, 57, 299.1222229003906
0, 1, 58, 310.0946960449219
0, 1, 59, 289.9572143554688
0, 1, 60, 298.2281494140625
0, 1, 61, 276.2919311523438
0, 1, 62, 308.6781005859375
0, 1, 63, 284.5041809082031
0, 1, 64, 288.8427429199219
0, 1, 65, 295.6438293457031
0, 1, 66, 292.8262939453125
0, 1, 67, 290.9415588378906
0, 1, 68, 278.5788269042969
0, 1, 69, 282.2777404785156
0, 1, 70, 271.7441711425781
0, 1, 71, 274.4953918457031
0, 1, 72, 284.7597045898438
0, 1, 73, 304.394775390625
0, 1, 74, 305.0695190429688
0, 1, 75, 293.4185180664062
0, 1, 76, 284.1571655273438
0, 1, 77, 291.4215698242188
0, 1, 78, 296.1083068847656
0, 1, 79, 302.630859375
0, 1, 80, 295.2896728515625
0, 1, 81, 300.68359375
0, 1, 82, 282.0953369140625
0, 1, 83, 331.7837524414062
0, 1, 84, 306.9331359863281
0, 1, 85, 252.7130889892578
0, 1, 86, 293.7256164550781
0, 1, 87, 289.7178649902344
0, 1, 88, 297.5077514648438
0, 1, 89, 290.7541198730469
0, 1, 90, 271.9078674316406
0, 1, 91, 316.9154357910156
0, 1, 92, 289.1035766601562
0, 1, 93, 286.3137512207031
0, 1, 94, 303.122314453125
0, 1, 95, 284.6422729492188
0, 1, 96, 282.4480285644531
0, 1, 97, 302.7721557617188
0, 1, 98, 278.3644409179688
0, 1, 99, 266.0749816894531
0, 1, 100, 277.1691284179688
0, 1, 101, 285.1787719726562
0, 1, 102, 278.7955017089844
0, 1, 103, 281.1356506347656
0, 1, 104, 307.0503234863281
0, 1, 105, 296.5809631347656
0, 1, 106, 262.5077819824219
0, 1, 107, 191.8067626953125
0, 1, 108, 80.95606994628906
0, 1, 109, 23.29658699035645
0, 1, 110, 10.53144073486328
0, 1, 111, 8.946364402770996
0, 1, 112, 12.13732624053955
0, 1, 113, 6.051474094390869
0, 1, 114, 6.074556827545166
0, 1, 115, 6.996830940246582
0, 1, 116, 12.07419967651367
0, 1, 117, 4.808588027954102
0, 1, 118, 6.185052871704102
0, 1, 119, 5.005857944488525
0, 1, 120, 5.406024932861328
0, 1, 121, 5.474678039550781
0, 1, 122, 3.572700262069702
0, 1, 123, 6.021763324737549
0, 1, 124, 7.838853359222412
0, 1, 125, 3.494351625442505
0, 1, 126, 2.870720624923706
0, 1, 127, 1.488109588623047
0, 2, 0, 4.256028175354004
0, 2, 1, 2.935442209243774
0, 2, 2, 3.20637035369873
0, 2, 3, 6.097018718719482
0, 2, 4, 2.942572593688965
0, 2, 5, 2.9495530128479
0, 2, 6, 1.872305035591125
0, 2, 7, 5.12666654586792
0, 2, 8, 4.935131072998047
0, 2, 9, 5.574066162109375
0, 2, 10, 6.306426525115967
0, 2, 11, 6.565538883209229
0, 2, 12, 7.374080181121826
0, 2, 13, 11.9531364440918
0, 2, 14, 10.81263542175293
0, 2, 15, 7.229292392730713
0, 2, 16, 10.79101085662842
0, 2, 17, 16.93886566162109
0, 2, 18, 29.17148017883301
0, 2, 19, 116.6909255981445
0, 2, 20, 245.2951354980469
0, 2, 21, 272.2122192382812
0, 2, 22, 316.4996337890625
0, 2, 23, 300.5852661132812
0, 2, 24, 287.1434020996094
0, 2, 25, 306.2270812988281
0, 2, 26, 293.7901000976562
0, 2, 27, 275.4249877929688
0, 2, 28, 274.1340637207031
0, 2, 29, 273.4358825683594
0, 2, 30, 289.1124572753906
0, 2, 31, 278.3337097167969
0, 2, 32, 293.6199340820312
0, 2, 33, 281.7830200195312
0, 2, 34, 331.5009460449219
0, 2, 35, 289.4859924316406
0, 2, 36, 302.4414978027344
0, 2, 37, 316.0126342773438
0, 2, 38, 311.4115905761719
0, 2, 39, 265.8809814453125
0, 2, 40, 309.8260192871094
0, 2, 41, 292.1565246582031
0, 2, 42, 301.7782592773438
0, 2, 43, 314.2075500488281
0, 2, 44, 311.6506958007812
0, 2, 45, 324.7737426757812
0, 2, 46, 288.0143127441406
0, 2, 47, 303.455322265625
0, 2, 48, 285.0357666015625
0, 2, 49, 279.8209228515625
0, 2, 50, 293.2235107421875
0, 2, 51, 282.757080078125
0, 2, 52, 274.45849609375
0, 2, 53, 286.3184204101562
0, 2, 54, 279.5852661132812
0, 2, 55, 274.2958984375
0, 2, 56, 301.4042358398438
0, 2, 57, 291.9419555664062
0, 2, 58, 301.6500854492188
0, 2, 59, 287.7144165039062
0, 2, 60, 318.8153991699219
0, 2, 61, 301.4078063964844
0, 2, 62, 312.5238037109375
0, 2, 63, 302.7855834960938
0, 2, 64, 296.2641906738281
0, 2, 65, 314.7415161132812
0, 2, 66, 279.0856018066406
0, 2, 67, 290.93701171875
0, 2, 68, 296.9116516113281
0, 2, 69, 310.3981323242188
0, 2, 70, 332.6714477539062
0, 2, 71, 285.6270751953125
0, 2, 72, 303.7045593261719
0, 2, 73, 311.0213623046875
0, 2, 74, 286.3216857910156
0, 2, 75, 304.3283996582031
0, 2, 76, 286.4703674316406
0, 2, 77, 301.0875854492188
0, 2, 78, 314.3423156738281
0, 2, 79, 308.3351745605469
0, 2, 80, 295.7485656738281
0, 2, 81, 284.1462707519531
0, 2, 82, 317.1002197265625
0, 2, 83, 312.0962524414062
0, 2, 84, 286.4011535644531
0, 2, 85, 283.0149230957031
0, 2, 86, 324.8627319335938
0, 2, 87, 286.795166015625
0, 2, 88, 280.5948181152344
0, 2, 89, 294.4643249511719
0, 2, 90, 296.5534362792969
0, 2, 91, 277.9225158691406
0, 2, 92, 305.5816955566406
0, 2, 93, 316.0841674804688
0, 2, 94, 292.5376586914062
0, 2, 95, 315.3266296386719
0, 2, 96, 314.0198669433594
0, 2, 97, 291.4565124511719
0, 2, 98, 294.2503356933594
0, 2, 99, 274.8717346191406
0, 2, 100, 305.6467895507812
0, 2, 101, 302.9136352539062
0, 2, 102, 296.21044921875
0, 2, 103, 292.3637390136719
0, 2, 104, 294.3904418945312
0, 2, 105, 273.6151123046875
0, 2, 106, 296.6896362304688
0, 2, 107, 272.5570068359375
0, 2, 108, 115.9042663574219
0, 2, 109, 34.21822738647461
0, 2, 110, 10.68155479431152
0, 2, 111, 11.09018707275391
0, 2, 112, 8.456741333007812
0, 2, 113, 9.973357200622559
0, 2, 114, 10.02988147735596
0, 2, 115, 9.300561904907227
0, 2, 116, 7.792908191680908
0, 2, 117, 7.248856067657471
0, 2, 118, 5.11130428314209
0, 2, 119, 3.589351654052734
0, 2, 120, 5.223804950714111
0, 2, 121, 2.152079820632935
0, 2, 122, 3.149677515029907
0, 2, 123, 3.862207889556885
0, 2, 124, 3.984643936157227
0, 2, 125, 4.590384006500244
0, 2, 126, 3.528492212295532
0, 2, 127, 5.276065826416016
0, 3, 0, 2.190118551254272
0, 3, 1, 2.839683055877686
0, 3, 2, 4.169590473175049
0, 3, 3, 1.378817439079285
0, 3, 4, 3.129935264587402
0, 3, 5, 6.039326667785645
0, 3, 6, 6.277308464050293
0, 3, 7, 5.071505069732666
0, 3, 8, 4.438525676727295
0, 3, 9, 4.954253673553467
0, 3, 10, 5.355620384216309
0, 3, 11, 3.417517900466919
0, 3, 12, 7.30035400390625
0, 3, 13, 14.53562545776367
0, 3, 14, 10.58935451507568
0, 3, 15, 13.45809650421143
0, 3, 16, 10.5661449432373
0, 3, 17, 18.02477073669434
0, 3, 18, 50.44531631469727
0, 3, 19, 175.0709533691406
0, 3, 20, 270.1677856445312
0, 3, 21, 270.0574951171875
0, 3, 22, 282.0663757324219
0, 3, 23, 286.6765441894531
0, 3, 24, 286.3040466308594
0, 3, 25, 269.7099304199219
0, 3, 26, 303.3462524414062
0, 3, 27, 291.4627380371094
0, 3, 28, 281.5879516601562
0, 3, 29, 336.5151672363281
0, 3, 30, 316.001953125
0, 3, 31, 289.1293029785156
0, 3, 32, 305.8478393554688
0, 3, 33, 314.3232727050781
0, 3, 34, 320.0021667480469
0, 3, 35, 305.4465637207031
0, 3, 36, 270.0152282714844
0, 3, 37, 318.4265441894531
0, 3, 38, 304.5174865722656
0, 3, 39, 289.9952087402344
0, 3, 40, 265.848876953125
0, 3, 41, 300.5638732910156
0, 3, 42, 284.9979858398438
0, 3, 43, 306.5453796386719
0, 3, 44, 310.8794250488281
0, 3, 45, 289.0923156738281
0, 3, 46, 329.5611877441406
0, 3, 47, 300.5961303710938
0, 3, 48, 303.3531494140625
0, 3, 49, 278.8802795410156
0, 3, 50, 289.3634643554688
0, 3, 51, 274.2720642089844
0, 3, 52, 314.9997863769531
0, 3, 53, 289.8484191894531
0, 3, 54, 284.3954772949219
0, 3, 55, 281.1828308105469
0, 3, 56, 298.7153930664062
0, 3, 57, 287.567626953125
0, 3, 58, 306.8153381347656
0, 3, 59, 294.4436950683594
0, 3, 60, 297.7821044921875
0, 3, 61, 265.9697265625
0, 3, 62, 282.791015625
0, 3, 63, 306.4817810058594
0, 3, 64, 316.1777954101562
0, 3, 65, 303.6916809082031
0, 3, 66, 315.0029907226562
0, 3, 67, 318.58447265625
0, 3, 68, 279.9526672363281
0, 3, 69, 281.4227294921875
0, 3, 70, 287.9148559570312
0, 3, 71, 298.009033203125
0, 3, 72, 268.67578125
0, 3, 73, 308.2548522949219
0, 3, 74, 295.7058715820312
0, 3, 75, 289.43212890625
0, 3, 76, 305.1082153320312
0, 3, 77, 312.9533386230469
0, 3, 78, 302.5574951171875
0, 3, 79, 282.3927917480469
0, 3, 80, 290.0155639648438
0, 3, 81, 310.3478698730469
0, 3, 82, 315.36669921875
0, 3, 83, 299.2437133789062
0, 3, 84, 310.9741516113281
0, 3, 85, 294.0365600585938
0, 3, 86, 301.5541381835938
0, 3, 87, 298.8860168457031
0, 3, 88, 299.4199523925781
0, 3, 89, 295.4932556152344
0, 3, 90, 276.9100952148438
0, 3, 91, 286.7251281738281
0, 3, 92, 305.4873962402344
0, 3, 93, 311.9824523925781
0, 3, 94, 296.4564208984375
0, 3, 95, 337.4865112304688
0, 3, 96, 289.0537414550781
0, 3, 97, 283.1809387207031
0, 3, 98, 278.7377014160156
0, 3, 99, 261.30029296875
0, 3, 100, 283.6112976074219
0, 3, 101, 295.3900756835938
0, 3, 102, 275.0221862792969
0, 3, 103, 321.1124877929688
0, 3, 104, 311.3511352539062
0, 3, 105, 288.0028381347656
0, 3, 106, 302.7711181640625
0, 3, 107, 284.2137145996094
0, 3, 108, 169.6849975585938
0, 3, 109, 56.02347946166992
0, 3, 110, 19.26778030395508
0, 3, 111, 12.91434669494629
0, 3, 112, 15.59943199157715
0, 3, 113, 7.171933650970459
0, 3, 114, 10.06637859344482
0, 3, 115, 7.385299205780029
0, 3, 116, 5.36774206161499
0, 3, 117, 6.812820434570312
0, 3, 118, 6.71356201171875
0, 3, 119, 6.79908275604248
0, 3, 120, 5.717418670654297
0, 3, 121, 1.708077669143677
0, 3, 122, 4.738490104675293
0, 3, 123, 7.20516300201416
0, 3, 124, 3.819975137710571
0, 3, 125, 4.524909973144531
0, 3, 126, 4.640538215637207
0, 3, 127, 1.973704099655151
0, 4, 0, 2.272791147232056
0, 4, 1, 4.414575099945068
0, 4, 2, 2.663819789886475
0, 4, 3, 1.920890212059021
0, 4, 4, 5.962315559387207
0, 4, 5, 7.09381103515625
0, 4, 6, 6.578330516815186
0, 4, 7, 5.973206043243408
0, 4, 8, 4.256251811981201
0, 4, 9, 5.606124401092529
0, 4, 10, 6.793622016906738
0, 4, 11, 5.626143455505371
0, 4, 12, 5.348783016204834
0, 4, 13, 8.589191436767578
0, 4, 14, 12.00579452514648
0, 4, 15, 9.884462356567383
0, 4, 16, 13.88120079040527
0, 4, 17, 19.00438499450684
0, 4, 18, 94.57229614257812
0, 4, 19, 224.0182952880859
0, 4, 20, 285.8277282714844
0, 4, 21, 273.2968139648438
0, 4, 22, 305.4384460449219
0, 4, 23, 270.2539672851562
0, 4, 24, 288.5789794921875
0, 4, 25, 275.0064086914062
0, 4, 26, 295.272216796875
0, 4, 27, 282.2342834472656
0, 4, 28, 307.4242248535156
0, 4, 29, 322.6009521484375
0, 4, 30, 308.6766357421875
0, 4, 31, 305.7622375488281
0, 4, 32, 280.4248046875
0, 4, 33, 298.1433410644531
0, 4, 34, 297.4449462890625
0, 4, 35, 311.8609313964844
0, 4, 36, 291.9438171386719
0, 4, 37, 289.0365295410156
0, 4, 38, 298.9913330078125
0, 4, 39, 293.3905944824219
0, 4, 40, 301.8112487792969
0, 4, 41, 311.8995361328125
0, 4, 42, 328.935302734375
0, 4, 43, 297.3284301757812
0, 4, 44, 321.3182373046875
0, 4, 45, 324.2089233398438
0, 4, 46, 306.3739013671875
0, 4, 47, 292.0202331542969
0, 4, 48, 295.9712829589844
0, 4, 49, 278.2186584472656
0, 4, 50, 297.3228759765625
0, 4, 51, 316.56396484375
0, 4, 52, 325.9271545410156
0, 4, 53, 304.7496643066406
0, 4, 54, 285.5742492675781
0, 4, 55, 314.724609375
0, 4, 56, 284.9799499511719
0, 4, 57, 311.4944152832031
0, 4, 58, 295.0415344238281
0, 4, 59, 309.1519775390625
0, 4, 60, 303.448974609375
0, 4, 61, 318.1591491699219
0, 4, 62, 309.8285217285156
0, 4, 63, 298.3735656738281
0, 4, 64, 331.5691833496094
0, 4, 65, 315.9737854003906
0, 4, 66, 294.2306213378906
0, 4, 67, 284.6273803710938
0, 4, 68, 311.5785827636719
0, 4, 69, 277.598388671875
0, 4, 70, 299.6834106445312
0, 4, 71, 320.5950622558594
0, 4, 72, 334.5768127441406
0, 4, 73, 297.8764953613281
0, 4, 74, 294.4043579101562
0, 4, 75, 291.3182067871094
0, 4, 76, 275.0361633300781
0, 4, 77, 278.470703125
0, 4, 78, 308.4215393066406
0, 4, 79, 319.325927734375
0, 4, 80, 316.6133728027344
0, 4, 81, 311.8773193359375
0, 4, 82, 298.0744323730469
0, 4, 83, 302.9697875976562
0, 4, 84, 291.1098937988281
0, 4, 85, 295.7625732421875
0, 4, 86, 298.7921752929688
0, 4, 87, 285.5527648925781
0, 4, 88, 304.6753234863281
0, 4, 89, 294.3074645996094
0, 4, 90, 333.3461608886719
0, 4, 91, 301.0925598144531
0, 4, 92, 288.9945983886719
0, 4, 93, 297.6586608886719
0, 4, 94, 295.6238708496094
0, 4, 95, 288.7513427734375
0, 4, 96, 326.4301147460938
0, 4, 97, 274.422119140625
0, 4, 98, 326.2798461914062
0, 4, 99, 315.3510437011719
0, 4, 100, 300.0901794433594
0, 4, 101, 256.4437561035156
0, 4, 102, 295.5755310058594
0, 4, 103, 317.4434204101562
0, 4, 104, 282.0318603515625
0, 4, 105, 310.1441650390625
0, 4, 106, 286.3176879882812
0, 4, 107, 294.1648864746094
0, 4, 108, 224.6577453613281
0, 4, 109, 79.52436828613281
0, 4, 110, 17.51952171325684
0, 4, 111, 14.0952844619751
0, 4, 112, 10.36948680877686
0, 4, 113, 12.02165794372559
0, 4, 114, 7.777341365814209
0, 4, 115, 9.724163055419922
0, 4, 116, 11.58446598052979
0, 4, 117, 5.662920951843262
0, 4, 118, 7.868036270141602
0, 4, 119, 9.613043785095215
0, 4, 120, 5.285713195800781
0, 4, 121, 5.971565246582031
0, 4, 122, 4.336700439453125
0, 4, 123, 6.652350902557373
0, 4, 124, 4.605390548706055
0, 4, 125, 8.842702865600586
0, 4, 126, 3.466613054275513
0, 4, 127, 4.580184459686279
0, 5, 0, 3.358243465423584
0, 5, 1, 5.080400943756104
0, 5, 2, 2.630021095275879
0, 5, 3, 4.69559383392334
0, 5, 4, 5.962974548339844
0, 5, 5, 6.829428195953369
0, 5, 6, 7.674878597259521
0, 5, 7, 6.514660358428955
0, 5, 8, 3.818658113479614
0, 5, 9, 5.1993088722229
0, 5, 10, 8.701528549194336
0, 5, 11, 9.020989418029785
0, 5, 12, 7.170538425445557
0, 5, 13, 5.48497200012207
0, 5, 14, 13.93837928771973
0, 5, 15, 15.66083526611328
0, 5, 16, 14.55050182342529
0, 5, 17, 33.12500762939453
0, 5, 18, 136.091064453125
0, 5, 19, 288.4081115722656
0, 5, 20, 305.5777893066406
0, 5, 21, 317.2085266113281
0, 5, 22, 275.0624694824219
0, 5, 23, 309.8414306640625
0, 5, 24, 301.1961975097656
0, 5, 25, 288.6041564941406
0, 5, 26, 293.6561584472656
0, 5, 27, 323.7986145019531
0, 5, 28, 302.7081298828125
0, 5, 29, 296.5407104492188
0, 5, 30, 322.884521484375
0, 5, 31, 286.5435485839844
0, 5, 32, 302.197509765625
0, 5, 33, 306.9678344726562
0, 5, 34, 296.6459350585938
0, 5, 35, 310.5796203613281
0, 5, 36, 270.1368103027344
0, 5, 37, 282.7397766113281
0, 5, 38, 291.6204223632812
0, 5, 39, 313.5811462402344
0, 5, 40, 308.4325256347656
0, 5, 41, 272.1085815429688
0, 5, 42, 307.1244506835938
0, 5, 43, 313.1261596679688
0, 5, 44, 290.4739685058594
0, 5, 45, 303.6153869628906
0, 5, 46, 265.8567810058594
0, 5, 47, 281.0624694824219
0, 5, 48, 296.2770080566406
0, 5, 49, 290.0052795410156
0, 5, 50, 296.3817138671875
0, 5, 51, 278.6367492675781
0, 5, 52, 269.2113342285156
0, 5, 53, 286.1614990234375
0, 5, 54, 291.6131286621094
0, 5, 55, 344.0057678222656
0, 5, 56, 305.5015563964844
0, 5, 57, 307.6865234375
0, 5, 58, 312.9411926269531
0, 5, 59, 302.9716491699219
0, 5, 60, 305.8888244628906
0, 5, 61, 283.9212036132812
0, 5, 62, 327.6548461914062
0, 5, 63, 288.3309020996094
0, 5, 64, 323.4566040039062
0, 5, 65, 306.9070434570312
0, 5, 66, 327.8121643066406
0, 5, 67, 313.0565490722656
0, 5, 68, 309.2599182128906
0, 5, 69, 310.6170043945312
0, 5, 70, 301.2721252441406
0, 5, 71, 273.058837890625
0, 5, 72, 312.5181579589844
0, 5, 73, 300.6732788085938
0, 5, 74, 295.1416931152344
0, 5, 75, 292.5020446777344
0, 5, 76, 286.9865112304688
0, 5, 77, 298.2636413574219
0, 5, 78, 315.7516784667969
0, 5, 79, 307.3587951660156
0, 5, 80, 294.5763549804688
0, 5, 81, 327.5453186035156
0, 5, 82, 325.3284912109375
0, 5, 83, 281.8125610351562
0, 5, 84, 303.4272766113281
0, 5, 85, 270.9999389648438
0, 5, 86, 325.9972534179688
0, 5, 87, 282.2780456542969
0, 5, 88, 313.9764404296875
0, 5, 89, 305.2452087402344
0, 5, 90, 315.3786010742188
0, 5, 91, 314.4906005859375
0, 5, 92, 296.3886108398438
0, 5, 93, 320.8931884765625
0, 5, 94, 309.0319519042969
0, 5, 95, 296.5645751953125
0, 5, 96, 299.3372497558594
0, 5, 97, 295.2957458496094
0, 5, 98, 318.0080261230469
0, 5, 99, 301.3120422363281
0, 5, 100, 290.0990295410156
0, 5, 101, 307.5484313964844
0, 5, 102, 291.1976623535156
0, 5, 103, 312.7049255371094
0, 5, 104, 303.2026062011719
0, 5, 105, 291.4503784179688
0, 5, 106, 281.3836975097656
0, 5, 107, 295.53515625
0, 5, 108, 264.1352233886719
0, 5, 109, 157.8187408447266
0, 5, 110, 41.41604232788086
0, 5, 111, 20.01713943481445
0, 5, 112, 17.08856201171875
0, 5, 113, 14.65041732788086
0, 5, 114, 13.47327899932861
0, 5, 115, 8.179689407348633
0, 5, 116, 8.076549530029297
0, 5, 117, 7.302437782287598
0, 5, 118, 12.58211517333984
0, 5, 119, 4.007653713226318
0, 5, 120, 7.010402679443359
0, 5, 121, 5.94174337387085
0, 5, 122, 6.091250419616699
0, 5, 123, 5.272359371185303
0, 5, 124, 6.945032596588135
0, 5, 125, 3.919832468032837
0, 5, 126, 6.458204746246338
0, 5, 127, 4.639217853546143
0, 6, 0, 3.087534189224243
0, 6, 1, 3.411561012268066
0, 6, 2, 4.555705070495605
0, 6, 3, 5.086263656616211
0, 6, 4, 3.683743715286255
0, 6, 5, 6.439919948577881
0, 6, 6, 7.992603302001953
0, 6, 7, 5.406724452972412
0, 6, 8, 6.786035537719727
0, 6, 9, 6.059602737426758
0, 6, 10, 7.706723213195801
0, 6, 11, 10.57587146759033
0, 6, 12, 8.954121589660645
0, 6, 13, 17.27824020385742
0, 6, 14, 8.22002124786377
0, 6, 15, 15.46798133850098
0, 6, 16, 30.19578552246094
0, 6, 17, 54.93789291381836
0, 6, 18, 172.4679412841797
0, 6, 19, 277.35595703125
0, 6, 20, 292.1558227539062
0, 6, 21, 315.5971069335938
0, 6, 22, 320.7332153320312
0, 6, 23, 306.0180053710938
0, 6, 24, 316.9561767578125
0, 6, 25, 315.932861328125
0, 6, 26, 318.4698791503906
0, 6, 27, 330.1371765136719
0, 6, 28, 294.3199462890625
0, 6, 29, 331.6246337890625
0, 6, 30, 283.2010803222656
0, 6, 31, 288.0277709960938
0, 6, 32, 340.7842712402344
0, 6, 33, 301.0653076171875
0, 6, 34, 340.283203125
0, 6, 35, 324.2240600585938
0, 6, 36, 275.7164916992188
0, 6, 37, 287.1881103515625
0, 6, 38, 309.469970703125
0, 6, 39, 300.7164001464844
0, 6, 40, 285.5469360351562
0, 6, 41, 296.7262878417969
0, 6, 42, 303.490234375
0, 6, 43, 287.4605407714844
0, 6, 44, 280.1687316894531
0, 6, 45, 318.4105834960938
0, 6, 46, 300.4430541992188
0, 6, 47, 334.0678405761719
0, 6, 48, 294.6829528808594
0, 6, 49, 310.4341125488281
0, 6, 50, 328.4769897460938
0, 6, 51, 310.123291015625
0, 6, 52, 321.4023742675781
0, 6, 53, 327.4747009277344
0, 6, 54, 302.4708862304688
0, 6, 55, 309.4481811523438
0, 6, 56, 294.5465087890625
0, 6, 57, 313.0563354492188
0, 6, 58, 261.2919311523438
0, 6, 59, 302.7107238769531
0, 6, 60, 312.2505798339844
0, 6, 61, 269.0787048339844
0, 6, 62, 336.9164733886719
0, 6, 63, 322.6385192871094
0, 6, 64, 289.1790466308594
0, 6, 65, 284.1979675292969
0, 6, 66, 303.6758422851562
0, 6, 67, 310.1074523925781
0, 6, 68, 294.9692993164062
0, 6, 69, 279.5867004394531
0, 6, 70, 276.3818359375
0, 6, 71, 289.0032653808594
0, 6, 72, 312.6419067382812
0, 6, 73, 294.58837890625
0, 6, 74, 329.5547485351562
0, 6, 75, 343.8165283203125
0, 6, 76, 297.0455627441406
0, 6, 77, 286.0042419433594
0, 6, 78, 279.5335388183594
0, 6, 79, 292.5361633300781
0, 6, 80, 300.1297302246094
0, 6, 81, 314.2393188476562
0, 6, 82, 319.9214477539062
0, 6, 83, 321.3158264160156
0, 6, 84, 296.2884521484375
0, 6, 85, 302.2208557128906
0, 6, 86, 330.4027709960938
0, 6, 87, 293.6563110351562
0, 6, 88, 307.1806945800781
0, 6, 89, 305.2086181640625
0, 6, 90, 298.7179565429688
0, 6, 91, 313.363525390625
0, 6, 92, 284.2830505371094
0, 6, 93, 294.4507141113281
0, 6, 94, 272.5262451171875
0, 6, 95, 299.3768920898438
0, 6, 96, 346.7763366699219
0, 6, 97, 308.35009765625
0, 6, 98, 301.5836181640625
0, 6, 99, 271.8270874023438
0, 6, 100, 311.3670349121094
0, 6, 101, 294.6249389648438
0, 6, 102, 306.6708068847656
0, 6, 103, 306.5965881347656
0, 6, 104, 291.183349609375
0, 6, 105, 301.1130981445312
0, 6, 106, 307.1193237304688
0, 6, 107, 304.7408447265625
0, 6, 108, 265.8325805664062
0, 6, 109, 186.4785614013672
0, 6, 110, 55.88420867919922
0, 6, 111, 20.691162109375
0, 6, 112, 18.71554565429688
0, 6, 113, 9.438614845275879
0, 6, 114, 14.32733345031738
0, 6, 115, 13.48379135131836
0, 6, 116, 9.314296722412109
0, 6, 117, 8.365102767944336
0, 6, 118, 9.700872421264648
0, 6, 119, 12.46512413024902
0, 6, 120, 6.357697010040283
0, 6, 121, 5.256901264190674
0, 6, 122, 6.505207538604736
0, 6, 123, 5.349114418029785
0, 6, 124, 7.952214241027832
0, 6, 125, 8.278482437133789
0, 6, 126, 4.063041687011719
0, 6, 127, 7.758474826812744
0, 7, 0, 7.453456878662109
0, 7, 1, 3.173508644104004
0, 7, 2, 4.8355393409729
0, 7, 3, 5.050536155700684
0, 7, 4, 6.241766929626465
0, 7, 5, 3.3852219581604
0, 7, 6, 5.557400703430176
0, 7, 7, 7.122261524200439
0, 7, 8, 5.190725803375244
0, 7, 9, 6.328015804290771
0, 7, 10, 7.451057434082031
0, 7, 11, 11.52159786224365
0, 7, 12, 10.60947704315186
0, 7, 13, 13.74141597747803
0, 7, 14, 9.98953914642334
0, 7, 15, 16.25760078430176
0, 7, 16, 26.31161117553711
0, 7, 17, 95.87801361083984
0, 7, 18, 219.5876007080078
0, 7, 19, 289.6151733398438
0, 7, 20, 295.7420043945312
0, 7, 21, 276.6276245117188
0, 7, 22, 298.6167297363281
0, 7, 23, 290.4374694824219
0, 7, 24, 314.2448120117188
0, 7, 25, 326.9789428710938
0, 7, 26, 277.3502502441406
0, 7, 27, 298.8156127929688
0, 7, 28, 326.2501220703125
0, 7, 29, 319.8917236328125
0, 7, 30, 299.3819580078125
0, 7, 31, 277.1130676269531
0, 7, 32, 304.6952209472656
0, 7, 33, 261.4139099121094
0, 7, 34, 297.3678894042969
0, 7, 35, 318.5076293945312
0, 7, 36, 329.9677429199219
0, 7, 37, 323.4407043457031
0, 7, 38, 296.2103881835938
0, 7, 39, 311.7329406738281
0, 7, 40, 290.4841003417969
0, 7, 41, 272.1005249023438
0, 7, 42, 305.6649780273438
0, 7, 43, 278.7159423828125
0, 7, 44, 303.64111328125
0, 7, 45, 293.6531372070312
0, 7, 46, 283.2883605957031
0, 7, 47, 326.7388916015625
0, 7, 48, 284.6989135742188
0, 7, 49, 302.6400756835938
0, 7, 50, 320.7124633789062
0, 7, 51, 299.1812133789062
0, 7, 52, 328.0918273925781
0, 7, 53, 311.2542114257812
0, 7, 54, 322.5474548339844
0, 7, 55, 306.8653564453125
0, 7, 56, 278.1508483886719
0, 7, 57, 281.1015014648438
0, 7, 58, 296.6805114746094
0, 7, 59, 295.2997741699219
0, 7, 60, 322.9613342285156
0, 7, 61, 277.6673583984375
0, 7, 62, 299.5979309082031
0, 7, 63, 296.2373352050781
0, 7, 64, 309.6039733886719
0, 7, 65, 328.9369201660156
0, 7, 66, 318.96923828125
0, 7, 67, 301.1477966308594
0, 7, 68, 281.2931823730469
0, 7, 69, 293.2041625976562
0, 7, 70, 302.743896484375
0, 7, 71, 311.4562377929688
0, 7, 72, 285.1019287109375
0, 7, 73, 295.1050720214844
0, 7, 74, 343.4178771972656
0, 7, 75, 321.1657104492188
0, 7, 76, 323.4984130859375
0, 7, 77, 282.8758850097656
0, 7, 78, 299.4606628417969
0, 7, 79, 298.5426635742188
0, 7, 80, 310.1656188964844
0, 7, 81, 320.0423278808594
0, 7, 82, 328.0282592773438
0, 7, 83, 317.6199951171875
0, 7, 84, 309.0957336425781
0, 7, 85, 271.8899841308594
0, 7, 86, 309.7081909179688
0, 7, 87, 312.8021545410156
0, 7, 88, 305.7703552246094
0, 7, 89, 294.4237976074219
0, 7, 90, 305.0818786621094
0, 7, 91, 314.8491821289062
0, 7, 92, 289.8657836914062
0, 7, 93, 307.6949157714844
0, 7, 94, 275.6616516113281
0, 7, 95, 297.6166687011719
0, 7, 96, 331.5547790527344
0, 7, 97, 296.6346435546875
0, 7, 98, 292.0262451171875
0, 7, 99, 316.236572265625
0, 7, 100, 281.5866394042969
0, 7, 101, 275.0505676269531
0, 7, 102, 289.8823547363281
0, 7, 103, 293.0368347167969
0, 7, 104, 274.8709411621094
0, 7, 105, 306.0312194824219
0, 7, 106, 317.5349426269531
0, 7, 107, 295.6709594726562
0, 7, 108, 272.7886657714844
0, 7, 109, 236.2960357666016
0, 7, 110, 95.93785095214844
0, 7, 111, 22.94778442382812
0, 7, 112, 12.5842752456665
0, 7, 113, 14.94082069396973
0, 7, 114, 14.35097980499268
0, 7, 115, 14.39568519592285
0, 7, 116, 8.627022743225098
0, 7, 117, 4.336216449737549
0, 7, 118, 7.936092376708984
0, 7, 119, 7.200355052947998
0, 7, 120, 4.949378490447998
0, 7, 121, 6.815861225128174
0, 7, 122, 9.519536972045898
0, 7, 123, 5.933329582214355
0, 7, 124, 2.663754940032959
0, 7, 125, 6.675613880157471
0, 7, 126, 6.94402551651001
0, 7, 127, 5.209908485412598
0, 8, 0, 8.034831047058105
0, 8, 1, 7.584976196289062
0, 8, 2, 3.271451234817505
0, 8, 3, 2.351250886917114
0, 8, 4, 3.295536041259766
0, 8, 5, 4.883330821990967
0, 8, 6, 5.56107234954834
0, 8, 7, 5.38929557800293
0, 8, 8, 8.638662338256836
0, 8, 9, 5.327601909637451
0, 8, 10, 6.828026294708252
0, 8, 11, 11.47362422943115
0, 8, 12, 13.51536560058594
0, 8, 13, 14.54967880249023
0, 8, 14, 11.4325704574585
0, 8, 15, 20.29814910888672
0, 8, 16, 32.96944046020508
0, 8, 17, 132.8638153076172
0, 8, 18, 242.2591400146484
0, 8, 19, 293.2077941894531
0, 8, 20, 284.7626037597656
0, 8, 21, 306.6434631347656
0, 8, 22, 297.4697570800781
0, 8, 23, 275.7373046875
0, 8, 24, 267.9656066894531
0, 8, 25, 276.5549011230469
0, 8, 26, 305.9556579589844
0, 8, 27, 308.5714111328125
0, 8, 28, 305.6839599609375
0, 8, 29, 320.9850158691406
0, 8, 30, 313.851806640625
0, 8, 31, 303.6290893554688
0, 8, 32, 282.3457641601562
0, 8, 33, 297.0519714355469
0, 8, 34, 287.9144897460938
0, 8, 35, 281.9959411621094
0, 8, 36, 313.7968139648438
0, 8, 37, 338.1158752441406
0, 8, 38, 330.7553405761719
0, 8, 39, 280.1017761230469
