# TOPAS Version: 3.1.p3
# Parameter File: batch_inserts_332.txt
# Results for scorer Readout_Adipose
# Scored in component: MyBox
# X in 1 bin  of 0.75 cm
# Y in 512 bins of 0.0783984 cm
# Z in 128 bins of 0.078125 cm
# EnergyDeposit ( MeV ) : Sum   
0, 0, 0, 2.968881368637085
0, 0, 1, 1.177821516990662
0, 0, 2, 4.197970390319824
0, 0, 3, 2.135897636413574
0, 0, 4, 3.874073266983032
0, 0, 5, 3.255007743835449
0, 0, 6, 6.396299839019775
0, 0, 7, 9.658411979675293
0, 0, 8, 3.911034107208252
0, 0, 9, 5.687215805053711
0, 0, 10, 6.796751022338867
0, 0, 11, 3.66240119934082
0, 0, 12, 4.006669998168945
0, 0, 13, 6.630370616912842
0, 0, 14, 7.634447574615479
0, 0, 15, 9.700262069702148
0, 0, 16, 10.59374809265137
0, 0, 17, 7.572709083557129
0, 0, 18, 13.28573513031006
0, 0, 19, 44.35285949707031
0, 0, 20, 141.1831665039062
0, 0, 21, 224.2581329345703
0, 0, 22, 249.2337341308594
0, 0, 23, 257.0031433105469
0, 0, 24, 250.6638488769531
0, 0, 25, 258.0075378417969
0, 0, 26, 234.2261047363281
0, 0, 27, 237.1012573242188
0, 0, 28, 274.0584716796875
0, 0, 29, 254.0184936523438
0, 0, 30, 229.5767364501953
0, 0, 31, 244.7777252197266
0, 0, 32, 264.1002807617188
0, 0, 33, 260.6137390136719
0, 0, 34, 287.9083251953125
0, 0, 35, 268.0594177246094
0, 0, 36, 245.7531127929688
0, 0, 37, 252.1470947265625
0, 0, 38, 266.8909912109375
0, 0, 39, 229.1925506591797
0, 0, 40, 241.9111022949219
0, 0, 41, 264.3034973144531
0, 0, 42, 227.5662078857422
0, 0, 43, 264.104736328125
0, 0, 44, 251.3618316650391
0, 0, 45, 253.4392242431641
0, 0, 46, 245.0207672119141
0, 0, 47, 252.3297119140625
0, 0, 48, 266.8402709960938
0, 0, 49, 275.1297912597656
0, 0, 50, 252.2468109130859
0, 0, 51, 255.1316986083984
0, 0, 52, 272.6775207519531
0, 0, 53, 291.4041748046875
0, 0, 54, 242.8873291015625
0, 0, 55, 241.1043395996094
0, 0, 56, 277.0835876464844
0, 0, 57, 263.4738464355469
0, 0, 58, 246.2091369628906
0, 0, 59, 270.9468383789062
0, 0, 60, 234.9717407226562
0, 0, 61, 243.6706695556641
0, 0, 62, 256.8943176269531
0, 0, 63, 268.089599609375
0, 0, 64, 255.5793304443359
0, 0, 65, 260.7178955078125
0, 0, 66, 276.65966796875
0, 0, 67, 246.1659851074219
0, 0, 68, 258.1404113769531
0, 0, 69, 264.0517578125
0, 0, 70, 271.4585571289062
0, 0, 71, 237.0614318847656
0, 0, 72, 251.9782867431641
0, 0, 73, 256.5146484375
0, 0, 74, 250.0765228271484
0, 0, 75, 239.0459289550781
0, 0, 76, 229.1794281005859
0, 0, 77, 264.1119689941406
0, 0, 78, 260.2369995117188
0, 0, 79, 279.1419372558594
0, 0, 80, 220.0536956787109
0, 0, 81, 266.6665649414062
0, 0, 82, 257.4478149414062
0, 0, 83, 245.2467193603516
0, 0, 84, 267.9327087402344
0, 0, 85, 232.2559814453125
0, 0, 86, 252.8296661376953
0, 0, 87, 250.5533142089844
0, 0, 88, 261.282958984375
0, 0, 89, 285.4972534179688
0, 0, 90, 243.7820281982422
0, 0, 91, 281.3604431152344
0, 0, 92, 254.2274475097656
0, 0, 93, 251.4807434082031
0, 0, 94, 249.0727691650391
0, 0, 95, 248.3521423339844
0, 0, 96, 276.0637512207031
0, 0, 97, 271.8772277832031
0, 0, 98, 273.3148498535156
0, 0, 99, 258.6368713378906
0, 0, 100, 258.0014953613281
0, 0, 101, 226.6986846923828
0, 0, 102, 231.31689453125
0, 0, 103, 269.8726196289062
0, 0, 104, 256.1352233886719
0, 0, 105, 251.3039703369141
0, 0, 106, 247.2437896728516
0, 0, 107, 153.0650329589844
0, 0, 108, 37.41335296630859
0, 0, 109, 13.02644348144531
0, 0, 110, 13.721116065979
0, 0, 111, 8.414578437805176
0, 0, 112, 5.695888996124268
0, 0, 113, 6.260456085205078
0, 0, 114, 6.329400539398193
0, 0, 115, 7.997053146362305
0, 0, 116, 5.243460178375244
0, 0, 117, 7.549198150634766
0, 0, 118, 6.78380823135376
0, 0, 119, 5.451269149780273
0, 0, 120, 5.864119529724121
0, 0, 121, 4.153223037719727
0, 0, 122, 4.878365516662598
0, 0, 123, 3.239564657211304
0, 0, 124, 5.660969734191895
0, 0, 125, 2.485430479049683
0, 0, 126, 3.201342105865479
0, 0, 127, 3.623903274536133
0, 1, 0, 7.107416152954102
0, 1, 1, 4.64924430847168
0, 1, 2, 4.157706737518311
0, 1, 3, 1.788994312286377
0, 1, 4, 2.328415155410767
0, 1, 5, 1.774219870567322
0, 1, 6, 3.368974447250366
0, 1, 7, 1.95400059223175
0, 1, 8, 6.188033103942871
0, 1, 9, 3.355095624923706
0, 1, 10, 6.731256008148193
0, 1, 11, 13.35161590576172
0, 1, 12, 8.64818000793457
0, 1, 13, 9.200057029724121
0, 1, 14, 7.778146743774414
0, 1, 15, 7.667731761932373
0, 1, 16, 11.30726146697998
0, 1, 17, 11.08254241943359
0, 1, 18, 21.64207077026367
0, 1, 19, 66.16619873046875
0, 1, 20, 197.9497680664062
0, 1, 21, 254.9585266113281
0, 1, 22, 295.7032165527344
0, 1, 23, 283.0628356933594
0, 1, 24, 276.0042114257812
0, 1, 25, 290.8076782226562
0, 1, 26, 268.33935546875
0, 1, 27, 307.6931457519531
0, 1, 28, 300.9061889648438
0, 1, 29, 297.3903503417969
0, 1, 30, 280.9368286132812
0, 1, 31, 293.1400146484375
0, 1, 32, 290.9871520996094
0, 1, 33, 295.7944030761719
0, 1, 34, 292.1243286132812
0, 1, 35, 279.5292663574219
0, 1, 36, 306.9110717773438
0, 1, 37, 298.3637390136719
0, 1, 38, 283.2127685546875
0, 1, 39, 294.9914855957031
0, 1, 40, 266.6116333007812
0, 1, 41, 285.3638000488281
0, 1, 42, 291.2356872558594
0, 1, 43, 330.7786254882812
0, 1, 44, 278.4710998535156
0, 1, 45, 291.7421875
0, 1, 46, 260.6992492675781
0, 1, 47, 312.4043273925781
0, 1, 48, 284.6333923339844
0, 1, 49, 301.7835998535156
0, 1, 50, 263.890869140625
0, 1, 51, 270.8910827636719
0, 1, 52, 295.1393127441406
0, 1, 53, 306.1207275390625
0, 1, 54, 274.9940490722656
0, 1, 55, 295.1945190429688
0, 1, 56, 277.4277038574219
0, 1, 57, 296.7446899414062
0, 1, 58, 311.857421875
0, 1, 59, 294.7605895996094
0, 1, 60, 296.6830139160156
0, 1, 61, 273.3226013183594
0, 1, 62, 306.5209350585938
0, 1, 63, 289.3104553222656
0, 1, 64, 290.5797424316406
0, 1, 65, 295.4587097167969
0, 1, 66, 292.0984802246094
0, 1, 67, 290.6809692382812
0, 1, 68, 277.1419372558594
0, 1, 69, 280.1493530273438
0, 1, 70, 270.3377685546875
0, 1, 71, 274.3998413085938
0, 1, 72, 286.8925476074219
0, 1, 73, 305.1929321289062
0, 1, 74, 302.3995056152344
0, 1, 75, 293.7522888183594
0, 1, 76, 285.0205078125
0, 1, 77, 288.0791931152344
0, 1, 78, 296.96337890625
0, 1, 79, 301.6464233398438
0, 1, 80, 295.3619689941406
0, 1, 81, 300.6810607910156
0, 1, 82, 283.8075561523438
0, 1, 83, 333.1523742675781
0, 1, 84, 308.9701538085938
0, 1, 85, 252.4793090820312
0, 1, 86, 294.857177734375
0, 1, 87, 290.1374816894531
0, 1, 88, 298.2162780761719
0, 1, 89, 291.1255187988281
0, 1, 90, 270.0971984863281
0, 1, 91, 318.5985107421875
0, 1, 92, 292.4779968261719
0, 1, 93, 288.130859375
0, 1, 94, 305.6686401367188
0, 1, 95, 283.2713928222656
0, 1, 96, 283.7234802246094
0, 1, 97, 303.0497131347656
0, 1, 98, 278.4931640625
0, 1, 99, 265.5588684082031
0, 1, 100, 276.4053344726562
0, 1, 101, 281.9801330566406
0, 1, 102, 276.2062683105469
0, 1, 103, 280.6627807617188
0, 1, 104, 307.5565185546875
0, 1, 105, 296.4682312011719
0, 1, 106, 263.1082153320312
0, 1, 107, 191.2200012207031
0, 1, 108, 80.94194030761719
0, 1, 109, 22.90978050231934
0, 1, 110, 12.78964328765869
0, 1, 111, 7.66128396987915
0, 1, 112, 13.85083961486816
0, 1, 113, 5.720870971679688
0, 1, 114, 8.049935340881348
0, 1, 115, 5.928559303283691
0, 1, 116, 10.92779159545898
0, 1, 117, 8.41356372833252
0, 1, 118, 4.943325042724609
0, 1, 119, 6.917960643768311
0, 1, 120, 6.550808429718018
0, 1, 121, 5.552133083343506
0, 1, 122, 4.542335510253906
0, 1, 123, 8.187470436096191
0, 1, 124, 6.383757591247559
0, 1, 125, 4.324151992797852
0, 1, 126, 1.684538960456848
0, 1, 127, 2.648578882217407
0, 2, 0, 4.197920322418213
0, 2, 1, 1.876910448074341
0, 2, 2, 5.711543560028076
0, 2, 3, 4.793769836425781
0, 2, 4, 3.054981470108032
0, 2, 5, 3.144123077392578
0, 2, 6, 1.865781784057617
0, 2, 7, 4.972126960754395
0, 2, 8, 5.245274066925049
0, 2, 9, 5.246756553649902
0, 2, 10, 7.809753894805908
0, 2, 11, 6.871466159820557
0, 2, 12, 7.799666404724121
0, 2, 13, 8.877941131591797
0, 2, 14, 9.988983154296875
0, 2, 15, 7.520008087158203
0, 2, 16, 9.301496505737305
0, 2, 17, 17.86334228515625
0, 2, 18, 34.35781097412109
0, 2, 19, 119.7184753417969
0, 2, 20, 245.8158721923828
0, 2, 21, 270.9619140625
0, 2, 22, 315.1131591796875
0, 2, 23, 300.79443359375
0, 2, 24, 286.7893981933594
0, 2, 25, 304.3494262695312
0, 2, 26, 294.7207946777344
0, 2, 27, 275.8062133789062
0, 2, 28, 271.5462036132812
0, 2, 29, 274.470947265625
0, 2, 30, 291.8313598632812
0, 2, 31, 276.6225891113281
0, 2, 32, 293.8087463378906
0, 2, 33, 282.6402587890625
0, 2, 34, 332.1004943847656
0, 2, 35, 289.5045776367188
0, 2, 36, 304.7173156738281
0, 2, 37, 315.705322265625
0, 2, 38, 311.4856262207031
0, 2, 39, 266.8755187988281
0, 2, 40, 308.3943176269531
0, 2, 41, 292.6448974609375
0, 2, 42, 302.4288940429688
0, 2, 43, 311.7352905273438
0, 2, 44, 310.491943359375
0, 2, 45, 323.8898315429688
0, 2, 46, 286.6341552734375
0, 2, 47, 303.2344970703125
0, 2, 48, 280.2894897460938
0, 2, 49, 277.7635498046875
0, 2, 50, 294.2305908203125
0, 2, 51, 285.0817565917969
0, 2, 52, 270.5914611816406
0, 2, 53, 287.8172912597656
0, 2, 54, 279.4605102539062
0, 2, 55, 275.9287719726562
0, 2, 56, 301.4876098632812
0, 2, 57, 293.8637084960938
0, 2, 58, 301.2596130371094
0, 2, 59, 288.9476623535156
0, 2, 60, 319.6418151855469
0, 2, 61, 301.3201904296875
0, 2, 62, 314.1190490722656
0, 2, 63, 301.2543334960938
0, 2, 64, 296.1790161132812
0, 2, 65, 314.9102478027344
0, 2, 66, 280.6644287109375
0, 2, 67, 291.4070434570312
0, 2, 68, 297.1239624023438
0, 2, 69, 313.7948608398438
0, 2, 70, 335.3324279785156
0, 2, 71, 286.0220031738281
0, 2, 72, 300.8436279296875
0, 2, 73, 309.7509460449219
0, 2, 74, 285.8166809082031
0, 2, 75, 308.000732421875
0, 2, 76, 286.8924560546875
0, 2, 77, 298.59814453125
0, 2, 78, 314.0296936035156
0, 2, 79, 307.9155578613281
0, 2, 80, 295.0505981445312
0, 2, 81, 283.4548034667969
0, 2, 82, 319.2156066894531
0, 2, 83, 314.16064453125
0, 2, 84, 287.7192993164062
0, 2, 85, 283.8201599121094
0, 2, 86, 324.3581237792969
0, 2, 87, 288.0903625488281
0, 2, 88, 282.5165710449219
0, 2, 89, 295.4603576660156
0, 2, 90, 294.8781127929688
0, 2, 91, 275.2079162597656
0, 2, 92, 305.9617309570312
0, 2, 93, 317.1734313964844
0, 2, 94, 290.3653564453125
0, 2, 95, 315.5159606933594
0, 2, 96, 314.3044128417969
0, 2, 97, 290.6339721679688
0, 2, 98, 293.3292236328125
0, 2, 99, 274.0029602050781
0, 2, 100, 305.2774353027344
0, 2, 101, 301.353271484375
0, 2, 102, 297.0732116699219
0, 2, 103, 291.4921875
0, 2, 104, 292.9559326171875
0, 2, 105, 275.9693908691406
0, 2, 106, 296.11572265625
0, 2, 107, 271.5799865722656
0, 2, 108, 117.9412994384766
0, 2, 109, 30.1525993347168
0, 2, 110, 9.244790077209473
0, 2, 111, 13.61059379577637
0, 2, 112, 8.350189208984375
0, 2, 113, 10.35326194763184
0, 2, 114, 10.80413246154785
0, 2, 115, 11.893630027771
0, 2, 116, 9.783943176269531
0, 2, 117, 7.513812065124512
0, 2, 118, 3.445031642913818
0, 2, 119, 3.523751258850098
0, 2, 120, 4.865866661071777
0, 2, 121, 1.254403114318848
0, 2, 122, 4.541768550872803
0, 2, 123, 5.966536045074463
0, 2, 124, 4.85655403137207
0, 2, 125, 4.401444911956787
0, 2, 126, 4.359353542327881
0, 2, 127, 3.610809087753296
0, 3, 0, 4.982022285461426
0, 3, 1, 4.530285835266113
0, 3, 2, 3.844766616821289
0, 3, 3, 1.521978259086609
0, 3, 4, 2.913999795913696
0, 3, 5, 8.147187232971191
0, 3, 6, 7.038498401641846
0, 3, 7, 4.244305610656738
0, 3, 8, 5.935533046722412
0, 3, 9, 6.019561767578125
0, 3, 10, 6.408058166503906
0, 3, 11, 3.313292026519775
0, 3, 12, 5.400762557983398
0, 3, 13, 17.44980812072754
0, 3, 14, 12.37201118469238
0, 3, 15, 12.84972381591797
0, 3, 16, 10.2350435256958
0, 3, 17, 18.75750923156738
0, 3, 18, 52.04620361328125
0, 3, 19, 177.4144592285156
0, 3, 20, 271.0629577636719
0, 3, 21, 271.9951171875
0, 3, 22, 281.2925109863281
0, 3, 23, 285.639892578125
0, 3, 24, 287.7153625488281
0, 3, 25, 274.3890380859375
0, 3, 26, 303.9467468261719
0, 3, 27, 292.364013671875
0, 3, 28, 280.9559020996094
0, 3, 29, 337.0079345703125
0, 3, 30, 318.7991027832031
0, 3, 31, 284.0143432617188
0, 3, 32, 308.4044799804688
0, 3, 33, 314.9844970703125
0, 3, 34, 323.0443420410156
0, 3, 35, 307.5880737304688
0, 3, 36, 266.9859008789062
0, 3, 37, 314.1700439453125
0, 3, 38, 303.0129699707031
0, 3, 39, 291.0484313964844
0, 3, 40, 265.1630859375
0, 3, 41, 303.3555603027344
0, 3, 42, 285.7318725585938
0, 3, 43, 306.0647277832031
0, 3, 44, 311.5405883789062
0, 3, 45, 290.3952331542969
0, 3, 46, 329.3175964355469
0, 3, 47, 299.4198303222656
0, 3, 48, 303.5399169921875
0, 3, 49, 275.8167724609375
0, 3, 50, 291.5610961914062
0, 3, 51, 275.550048828125
0, 3, 52, 316.1550903320312
0, 3, 53, 285.8943481445312
0, 3, 54, 283.8265686035156
0, 3, 55, 286.1801452636719
0, 3, 56, 297.844970703125
0, 3, 57, 289.024658203125
0, 3, 58, 307.6136474609375
0, 3, 59, 295.5857849121094
0, 3, 60, 297.0495910644531
0, 3, 61, 265.3697204589844
0, 3, 62, 285.9638061523438
0, 3, 63, 306.6493530273438
0, 3, 64, 316.3755798339844
0, 3, 65, 305.5688781738281
0, 3, 66, 314.1921081542969
0, 3, 67, 318.8287048339844
0, 3, 68, 279.1448059082031
0, 3, 69, 281.1012268066406
0, 3, 70, 286.7655944824219
0, 3, 71, 298.0193176269531
0, 3, 72, 269.9002990722656
0, 3, 73, 310.7862548828125
0, 3, 74, 293.5063171386719
0, 3, 75, 289.9328002929688
0, 3, 76, 305.6346435546875
0, 3, 77, 315.8670043945312
0, 3, 78, 305.6812744140625
0, 3, 79, 280.5519714355469
0, 3, 80, 291.5816955566406
0, 3, 81, 310.0969543457031
0, 3, 82, 314.8572998046875
0, 3, 83, 299.5762329101562
0, 3, 84, 313.1810302734375
0, 3, 85, 293.3740844726562
0, 3, 86, 301.8943481445312
0, 3, 87, 297.7983703613281
0, 3, 88, 299.1426696777344
0, 3, 89, 295.7677001953125
0, 3, 90, 276.7898254394531
0, 3, 91, 284.4103393554688
0, 3, 92, 305.0396118164062
0, 3, 93, 311.8825988769531
0, 3, 94, 298.8959350585938
0, 3, 95, 335.2304992675781
0, 3, 96, 292.3063049316406
0, 3, 97, 283.6826477050781
0, 3, 98, 277.7396240234375
0, 3, 99, 263.6819763183594
0, 3, 100, 285.3209533691406
0, 3, 101, 295.4613952636719
0, 3, 102, 273.0928039550781
0, 3, 103, 319.3279113769531
0, 3, 104, 308.3616027832031
0, 3, 105, 288.6209106445312
0, 3, 106, 302.5247802734375
0, 3, 107, 282.1404724121094
0, 3, 108, 169.0841369628906
0, 3, 109, 57.73488998413086
0, 3, 110, 17.34110450744629
0, 3, 111, 12.90371799468994
0, 3, 112, 12.23712348937988
0, 3, 113, 6.966468811035156
0, 3, 114, 8.961496353149414
0, 3, 115, 8.76524829864502
0, 3, 116, 8.753583908081055
0, 3, 117, 6.735847949981689
0, 3, 118, 6.443419456481934
0, 3, 119, 4.855923175811768
0, 3, 120, 3.566740751266479
0, 3, 121, 5.726816177368164
0, 3, 122, 4.246089458465576
0, 3, 123, 6.635360717773438
0, 3, 124, 2.67651104927063
0, 3, 125, 5.561913967132568
0, 3, 126, 3.370706796646118
0, 3, 127, 3.124378442764282
0, 4, 0, 2.897969007492065
0, 4, 1, 4.019593238830566
0, 4, 2, 3.747498989105225
0, 4, 3, 1.934348225593567
0, 4, 4, 6.906852245330811
0, 4, 5, 7.609922885894775
0, 4, 6, 6.048292636871338
0, 4, 7, 4.136883735656738
0, 4, 8, 4.417834281921387
0, 4, 9, 7.41179084777832
0, 4, 10, 6.494177341461182
0, 4, 11, 6.61937427520752
0, 4, 12, 8.153393745422363
0, 4, 13, 8.237425804138184
0, 4, 14, 11.03647041320801
0, 4, 15, 9.502233505249023
0, 4, 16, 14.9758243560791
0, 4, 17, 17.80521965026855
0, 4, 18, 91.84817504882812
0, 4, 19, 222.2761688232422
0, 4, 20, 282.6271667480469
0, 4, 21, 272.2798156738281
0, 4, 22, 305.0113525390625
0, 4, 23, 266.9635925292969
0, 4, 24, 289.2471313476562
0, 4, 25, 271.4695739746094
0, 4, 26, 295.4811706542969
0, 4, 27, 282.7008361816406
0, 4, 28, 308.3397521972656
0, 4, 29, 322.8536071777344
0, 4, 30, 309.0882873535156
0, 4, 31, 303.0553588867188
0, 4, 32, 280.3991394042969
0, 4, 33, 297.0976867675781
0, 4, 34, 298.0535888671875
0, 4, 35, 311.6408996582031
0, 4, 36, 291.4658508300781
0, 4, 37, 285.0195922851562
0, 4, 38, 298.6458129882812
0, 4, 39, 295.9311218261719
0, 4, 40, 304.5100402832031
0, 4, 41, 311.7325134277344
0, 4, 42, 329.3592224121094
0, 4, 43, 297.384765625
0, 4, 44, 322.4494323730469
0, 4, 45, 326.392822265625
0, 4, 46, 305.7665100097656
0, 4, 47, 291.9853515625
0, 4, 48, 294.4063415527344
0, 4, 49, 276.3380432128906
0, 4, 50, 296.0485534667969
0, 4, 51, 316.5467224121094
0, 4, 52, 329.3038024902344
0, 4, 53, 302.8283081054688
0, 4, 54, 287.9671020507812
0, 4, 55, 316.1389770507812
0, 4, 56, 288.15966796875
0, 4, 57, 310.4985046386719
0, 4, 58, 297.424072265625
0, 4, 59, 307.8746337890625
0, 4, 60, 305.759765625
0, 4, 61, 315.6550598144531
0, 4, 62, 307.26416015625
0, 4, 63, 299.0072937011719
0, 4, 64, 328.1996459960938
0, 4, 65, 317.7682495117188
0, 4, 66, 293.7304992675781
0, 4, 67, 284.3768005371094
0, 4, 68, 312.0333251953125
0, 4, 69, 276.3067016601562
0, 4, 70, 298.5989685058594
0, 4, 71, 321.0681457519531
0, 4, 72, 334.0719299316406
0, 4, 73, 299.542236328125
0, 4, 74, 293.8957824707031
0, 4, 75, 288.9812316894531
0, 4, 76, 274.651123046875
0, 4, 77, 281.0425109863281
0, 4, 78, 309.8815612792969
0, 4, 79, 320.2412719726562
0, 4, 80, 316.6884460449219
0, 4, 81, 311.7255554199219
0, 4, 82, 300.006103515625
0, 4, 83, 300.9621887207031
0, 4, 84, 295.7456665039062
0, 4, 85, 295.3312072753906
0, 4, 86, 298.8798217773438
0, 4, 87, 286.1626892089844
0, 4, 88, 307.550048828125
0, 4, 89, 296.9315795898438
0, 4, 90, 333.8978881835938
0, 4, 91, 301.5240173339844
0, 4, 92, 290.4596557617188
0, 4, 93, 297.9376220703125
0, 4, 94, 295.1873779296875
0, 4, 95, 290.6173095703125
0, 4, 96, 322.8577880859375
0, 4, 97, 272.3125
0, 4, 98, 326.6510009765625
0, 4, 99, 314.049560546875
0, 4, 100, 301.3390197753906
0, 4, 101, 258.6519470214844
0, 4, 102, 297.9426574707031
0, 4, 103, 317.3416748046875
0, 4, 104, 280.2949523925781
0, 4, 105, 312.5465393066406
0, 4, 106, 286.5104064941406
0, 4, 107, 295.2331848144531
0, 4, 108, 229.2512359619141
0, 4, 109, 80.52632904052734
0, 4, 110, 16.23768615722656
0, 4, 111, 13.657958984375
0, 4, 112, 8.32391357421875
0, 4, 113, 9.390950202941895
0, 4, 114, 8.172218322753906
0, 4, 115, 9.331269264221191
0, 4, 116, 9.770722389221191
0, 4, 117, 5.715024471282959
0, 4, 118, 9.344967842102051
0, 4, 119, 12.07907676696777
0, 4, 120, 6.35868501663208
0, 4, 121, 4.47603702545166
0, 4, 122, 4.42774486541748
0, 4, 123, 6.199671745300293
0, 4, 124, 6.270896434783936
0, 4, 125, 10.99928092956543
0, 4, 126, 4.478901386260986
0, 4, 127, 2.316381931304932
0, 5, 0, 3.277217864990234
0, 5, 1, 3.586383581161499
0, 5, 2, 2.771263837814331
0, 5, 3, 4.553195953369141
0, 5, 4, 6.756979942321777
0, 5, 5, 6.615265369415283
0, 5, 6, 5.048727512359619
0, 5, 7, 4.145966053009033
0, 5, 8, 4.793654918670654
0, 5, 9, 5.148494243621826
0, 5, 10, 9.916739463806152
0, 5, 11, 8.646249771118164
0, 5, 12, 7.744148254394531
0, 5, 13, 5.542159557342529
0, 5, 14, 11.4540548324585
0, 5, 15, 15.68345832824707
0, 5, 16, 14.23581790924072
0, 5, 17, 30.97063446044922
0, 5, 18, 137.2850036621094
0, 5, 19, 289.2314453125
0, 5, 20, 308.1827087402344
0, 5, 21, 317.5849304199219
0, 5, 22, 275.3619689941406
0, 5, 23, 311.9683532714844
0, 5, 24, 301.22021484375
0, 5, 25, 288.7540893554688
0, 5, 26, 293.671875
0, 5, 27, 321.4096984863281
0, 5, 28, 304.9421691894531
0, 5, 29, 301.0033264160156
0, 5, 30, 324.5624694824219
0, 5, 31, 289.1551513671875
0, 5, 32, 304.2947387695312
0, 5, 33, 302.476806640625
0, 5, 34, 295.8607177734375
0, 5, 35, 310.6111755371094
0, 5, 36, 270.0575256347656
0, 5, 37, 281.5061950683594
0, 5, 38, 292.2057800292969
0, 5, 39, 311.5491943359375
0, 5, 40, 307.9836730957031
0, 5, 41, 274.389404296875
0, 5, 42, 306.2095947265625
0, 5, 43, 314.7158508300781
0, 5, 44, 293.2328796386719
0, 5, 45, 304.4246215820312
0, 5, 46, 265.3338317871094
0, 5, 47, 280.6144714355469
0, 5, 48, 292.7015075683594
0, 5, 49, 286.4649963378906
0, 5, 50, 294.5545959472656
0, 5, 51, 279.3609619140625
0, 5, 52, 268.513671875
0, 5, 53, 284.3080749511719
0, 5, 54, 292.2015686035156
0, 5, 55, 344.8385925292969
0, 5, 56, 308.2293701171875
0, 5, 57, 310.5097351074219
0, 5, 58, 311.0008239746094
0, 5, 59, 302.4517517089844
0, 5, 60, 313.4455261230469
0, 5, 61, 280.9442443847656
0, 5, 62, 325.0172424316406
0, 5, 63, 289.1927185058594
0, 5, 64, 322.1977233886719
0, 5, 65, 306.489990234375
0, 5, 66, 327.9547424316406
0, 5, 67, 311.0816040039062
0, 5, 68, 307.0818176269531
0, 5, 69, 311.0597229003906
0, 5, 70, 303.0879821777344
0, 5, 71, 274.1376647949219
0, 5, 72, 311.4007263183594
0, 5, 73, 302.5522155761719
0, 5, 74, 294.293212890625
0, 5, 75, 295.6552429199219
0, 5, 76, 286.2051391601562
0, 5, 77, 301.1129455566406
0, 5, 78, 314.8975524902344
0, 5, 79, 306.2193908691406
0, 5, 80, 296.7046203613281
0, 5, 81, 325.8023376464844
0, 5, 82, 324.4497680664062
0, 5, 83, 280.8748779296875
0, 5, 84, 299.9006958007812
0, 5, 85, 272.5545654296875
0, 5, 86, 325.2555541992188
0, 5, 87, 282.9129638671875
0, 5, 88, 312.1687927246094
0, 5, 89, 305.8633117675781
0, 5, 90, 317.3280334472656
0, 5, 91, 312.9316101074219
0, 5, 92, 297.0521240234375
0, 5, 93, 323.6598815917969
0, 5, 94, 305.8083801269531
0, 5, 95, 295.5951538085938
0, 5, 96, 297.618408203125
0, 5, 97, 296.0204772949219
0, 5, 98, 317.6085815429688
0, 5, 99, 303.2032470703125
0, 5, 100, 291.0113220214844
0, 5, 101, 305.4805297851562
0, 5, 102, 290.7806396484375
0, 5, 103, 313.5870666503906
0, 5, 104, 302.8577270507812
0, 5, 105, 292.1182861328125
0, 5, 106, 281.4429931640625
0, 5, 107, 292.8813171386719
0, 5, 108, 264.2874755859375
0, 5, 109, 156.3319854736328
0, 5, 110, 40.64773559570312
0, 5, 111, 21.74108505249023
0, 5, 112, 16.21327972412109
0, 5, 113, 14.54731178283691
0, 5, 114, 13.02603054046631
0, 5, 115, 7.932360172271729
0, 5, 116, 8.861836433410645
0, 5, 117, 5.918766975402832
0, 5, 118, 11.10966205596924
0, 5, 119, 6.32477855682373
0, 5, 120, 6.03615140914917
0, 5, 121, 5.741232395172119
0, 5, 122, 3.982142925262451
0, 5, 123, 4.862956523895264
0, 5, 124, 4.381504535675049
0, 5, 125, 3.576807737350464
0, 5, 126, 8.438817977905273
0, 5, 127, 3.361831188201904
0, 6, 0, 4.084837436676025
0, 6, 1, 3.460574150085449
0, 6, 2, 4.048207759857178
0, 6, 3, 7.690742969512939
0, 6, 4, 4.861534118652344
0, 6, 5, 6.472056865692139
0, 6, 6, 7.86581563949585
0, 6, 7, 5.995467662811279
0, 6, 8, 8.872038841247559
0, 6, 9, 6.065629482269287
0, 6, 10, 6.401330471038818
0, 6, 11, 9.212987899780273
0, 6, 12, 9.647614479064941
0, 6, 13, 12.90408134460449
0, 6, 14, 7.709254741668701
0, 6, 15, 17.25167846679688
0, 6, 16, 28.9880199432373
0, 6, 17, 55.5504035949707
0, 6, 18, 175.3785095214844
0, 6, 19, 274.6734008789062
0, 6, 20, 290.8038635253906
0, 6, 21, 313.3469543457031
0, 6, 22, 321.806640625
0, 6, 23, 305.3387451171875
0, 6, 24, 316.1216430664062
0, 6, 25, 316.29052734375
0, 6, 26, 319.1929626464844
0, 6, 27, 330.4919128417969
0, 6, 28, 297.351806640625
0, 6, 29, 332.0410766601562
0, 6, 30, 286.9204406738281
0, 6, 31, 285.7785034179688
0, 6, 32, 341.8566284179688
0, 6, 33, 299.5263977050781
0, 6, 34, 340.3692932128906
0, 6, 35, 321.1414794921875
0, 6, 36, 275.1568908691406
0, 6, 37, 289.2870178222656
0, 6, 38, 311.5662536621094
0, 6, 39, 300.1127624511719
0, 6, 40, 283.7872924804688
0, 6, 41, 294.6454467773438
0, 6, 42, 304.6140441894531
0, 6, 43, 288.71337890625
0, 6, 44, 282.3567199707031
0, 6, 45, 320.8924255371094
0, 6, 46, 300.59130859375
0, 6, 47, 333.0733032226562
0, 6, 48, 292.5538024902344
0, 6, 49, 310.3478698730469
0, 6, 50, 331.4441223144531
0, 6, 51, 311.978271484375
0, 6, 52, 320.1124877929688
0, 6, 53, 328.335693359375
0, 6, 54, 305.3850708007812
0, 6, 55, 306.7466430664062
0, 6, 56, 292.6701354980469
0, 6, 57, 312.3866882324219
0, 6, 58, 260.4789123535156
0, 6, 59, 301.5071411132812
0, 6, 60, 312.6919555664062
0, 6, 61, 270.8027648925781
0, 6, 62, 339.5678100585938
0, 6, 63, 323.8736877441406
0, 6, 64, 294.9777221679688
0, 6, 65, 284.8477783203125
0, 6, 66, 305.3081665039062
0, 6, 67, 308.8786926269531
0, 6, 68, 294.010009765625
0, 6, 69, 279.8681335449219
0, 6, 70, 274.8341674804688
0, 6, 71, 289.5540161132812
0, 6, 72, 310.4052734375
0, 6, 73, 293.8952331542969
0, 6, 74, 330.4210205078125
0, 6, 75, 344.2200927734375
0, 6, 76, 299.4566040039062
0, 6, 77, 284.1788330078125
0, 6, 78, 278.1808776855469
0, 6, 79, 293.1751098632812
0, 6, 80, 301.34912109375
0, 6, 81, 315.2564697265625
0, 6, 82, 318.1971740722656
0, 6, 83, 319.6675109863281
0, 6, 84, 296.3992004394531
0, 6, 85, 300.1416015625
0, 6, 86, 329.1668395996094
0, 6, 87, 292.3282165527344
0, 6, 88, 306.1566772460938
0, 6, 89, 303.2244873046875
0, 6, 90, 298.6581115722656
0, 6, 91, 313.4971008300781
0, 6, 92, 284.3160705566406
0, 6, 93, 296.7537841796875
0, 6, 94, 273.4613037109375
0, 6, 95, 299.177490234375
0, 6, 96, 347.3562316894531
0, 6, 97, 310.0971984863281
0, 6, 98, 300.4853515625
0, 6, 99, 270.8560180664062
0, 6, 100, 308.04736328125
0, 6, 101, 291.8585205078125
0, 6, 102, 309.756591796875
0, 6, 103, 307.1776428222656
0, 6, 104, 292.4252014160156
0, 6, 105, 302.5008544921875
0, 6, 106, 306.6145629882812
0, 6, 107, 307.7042846679688
0, 6, 108, 266.0566711425781
0, 6, 109, 186.5900115966797
0, 6, 110, 53.47304153442383
0, 6, 111, 22.40773391723633
0, 6, 112, 13.21445751190186
0, 6, 113, 11.388840675354
0, 6, 114, 11.46759414672852
0, 6, 115, 12.99167728424072
0, 6, 116, 9.882200241088867
0, 6, 117, 9.583911895751953
0, 6, 118, 10.54513168334961
0, 6, 119, 6.403173923492432
0, 6, 120, 5.321838855743408
0, 6, 121, 6.03685474395752
0, 6, 122, 6.068743705749512
0, 6, 123, 2.932025194168091
0, 6, 124, 6.071699142456055
0, 6, 125, 6.354129791259766
0, 6, 126, 6.15847635269165
0, 6, 127, 5.398491859436035
0, 7, 0, 5.350109100341797
0, 7, 1, 6.269333362579346
0, 7, 2, 5.734743595123291
0, 7, 3, 4.494534015655518
0, 7, 4, 3.668063163757324
0, 7, 5, 5.948892116546631
0, 7, 6, 7.836620330810547
0, 7, 7, 6.164917945861816
0, 7, 8, 6.622663021087646
0, 7, 9, 6.016260147094727
0, 7, 10, 9.432546615600586
0, 7, 11, 11.54221439361572
0, 7, 12, 12.57961750030518
0, 7, 13, 13.1492977142334
0, 7, 14, 10.84696292877197
0, 7, 15, 17.35414123535156
0, 7, 16, 25.7886848449707
0, 7, 17, 96.31896209716797
0, 7, 18, 221.4638061523438
0, 7, 19, 289.9031372070312
0, 7, 20, 298.286376953125
0, 7, 21, 275.8361206054688
0, 7, 22, 299.5723876953125
0, 7, 23, 289.0111999511719
0, 7, 24, 313.6067504882812
0, 7, 25, 324.2599182128906
0, 7, 26, 277.9224853515625
0, 7, 27, 297.7601623535156
0, 7, 28, 325.838134765625
0, 7, 29, 318.1561584472656
0, 7, 30, 299.3238830566406
0, 7, 31, 276.7402954101562
0, 7, 32, 307.3552551269531
0, 7, 33, 264.0489501953125
0, 7, 34, 300.1066284179688
0, 7, 35, 321.0038146972656
0, 7, 36, 330.5457458496094
0, 7, 37, 325.8747863769531
0, 7, 38, 294.4381408691406
0, 7, 39, 306.8634338378906
0, 7, 40, 288.733642578125
0, 7, 41, 272.2582092285156
0, 7, 42, 300.8606567382812
0, 7, 43, 273.2365112304688
0, 7, 44, 302.5179138183594
0, 7, 45, 294.4623413085938
0, 7, 46, 281.3713073730469
0, 7, 47, 328.5126037597656
0, 7, 48, 289.93603515625
0, 7, 49, 302.0541381835938
0, 7, 50, 320.9010009765625
0, 7, 51, 298.7299499511719
0, 7, 52, 325.74755859375
0, 7, 53, 310.2678833007812
0, 7, 54, 321.9789428710938
0, 7, 55, 308.9407348632812
0, 7, 56, 280.9400329589844
0, 7, 57, 281.3591003417969
0, 7, 58, 294.8580322265625
0, 7, 59, 292.1654052734375
0, 7, 60, 322.1817321777344
0, 7, 61, 279.1622009277344
0, 7, 62, 297.8406372070312
0, 7, 63, 293.9429626464844
0, 7, 64, 305.4541625976562
0, 7, 65, 329.2467041015625
0, 7, 66, 318.5266723632812
0, 7, 67, 305.6240539550781
0, 7, 68, 280.0279235839844
0, 7, 69, 293.7768249511719
0, 7, 70, 302.7009582519531
0, 7, 71, 308.1627197265625
0, 7, 72, 283.9671936035156
0, 7, 73, 297.9638061523438
0, 7, 74, 346.1235046386719
0, 7, 75, 320.4843139648438
0, 7, 76, 322.3994750976562
0, 7, 77, 279.3922119140625
0, 7, 78, 302.2647705078125
0, 7, 79, 296.7770690917969
0, 7, 80, 313.5894775390625
0, 7, 81, 318.572998046875
0, 7, 82, 329.8849182128906
0, 7, 83, 314.7911376953125
0, 7, 84, 310.1787109375
0, 7, 85, 274.5224609375
0, 7, 86, 308.1729125976562
0, 7, 87, 309.9888305664062
0, 7, 88, 308.6995544433594
0, 7, 89, 296.1824340820312
0, 7, 90, 305.8728332519531
0, 7, 91, 316.2215576171875
0, 7, 92, 286.9774780273438
0, 7, 93, 307.4467468261719
0, 7, 94, 274.1257629394531
0, 7, 95, 295.9473266601562
0, 7, 96, 332.2208251953125
0, 7, 97, 299.7645263671875
0, 7, 98, 291.1238098144531
0, 7, 99, 312.7023315429688
0, 7, 100, 282.6014099121094
0, 7, 101, 275.8510437011719
0, 7, 102, 292.2981262207031
0, 7, 103, 297.2536926269531
0, 7, 104, 273.7176208496094
0, 7, 105, 307.0239562988281
0, 7, 106, 317.8858032226562
0, 7, 107, 296.5509948730469
0, 7, 108, 273.0696411132812
0, 7, 109, 236.4844207763672
0, 7, 110, 96.17507934570312
0, 7, 111, 23.54957389831543
0, 7, 112, 13.2843017578125
0, 7, 113, 13.16041374206543
0, 7, 114, 14.93478965759277
0, 7, 115, 14.57446956634521
0, 7, 116, 9.903432846069336
0, 7, 117, 5.439236164093018
0, 7, 118, 7.712265968322754
0, 7, 119, 8.067619323730469
0, 7, 120, 4.755777359008789
0, 7, 121, 8.21709156036377
0, 7, 122, 9.465666770935059
0, 7, 123, 8.448838233947754
0, 7, 124, 3.503496408462524
0, 7, 125, 6.582334041595459
0, 7, 126, 7.277636528015137
0, 7, 127, 2.99718976020813
0, 8, 0, 4.316322326660156
0, 8, 1, 5.410890579223633
0, 8, 2, 5.004725456237793
0, 8, 3, 1.570448756217957
0, 8, 4, 5.130172252655029
0, 8, 5, 2.971906900405884
0, 8, 6, 4.957470893859863
0, 8, 7, 5.873190879821777
0, 8, 8, 9.511395454406738
0, 8, 9, 5.300955295562744
0, 8, 10, 7.406590461730957
0, 8, 11, 10.69111251831055
0, 8, 12, 12.55423831939697
0, 8, 13, 17.41991233825684
0, 8, 14, 14.32300662994385
0, 8, 15, 17.26520729064941
0, 8, 16, 32.34082412719727
0, 8, 17, 132.1294250488281
0, 8, 18, 243.2301483154297
0, 8, 19, 295.0652465820312
0, 8, 20, 285.2059020996094
0, 8, 21, 308.8545837402344
0, 8, 22, 298.9944458007812
0, 8, 23, 273.6791687011719
0, 8, 24, 268.3768005371094
0, 8, 25, 276.2269592285156
0, 8, 26, 306.2749328613281
0, 8, 27, 309.130126953125
0, 8, 28, 304.95947265625
0, 8, 29, 321.9100952148438
0, 8, 30, 314.438232421875
0, 8, 31, 305.0059204101562
0, 8, 32, 280.4622802734375
0, 8, 33, 293.6832885742188
0, 8, 34, 289.7658081054688
0, 8, 35, 278.8191223144531
0, 8, 36, 315.6104736328125
0, 8, 37, 337.7884826660156
0, 8, 38, 332.0795288085938
0, 8, 39, 280.2530822753906
0, 8, 40, 304.5257873535156
