# TOPAS Version: 3.1.p3
# Parameter File: batch_inserts_268.txt
# Results for scorer Readout_Adipose
# Scored in component: MyBox
# X in 1 bin  of 0.75 cm
# Y in 512 bins of 0.0783984 cm
# Z in 128 bins of 0.078125 cm
# EnergyDeposit ( MeV ) : Sum   
0, 0, 0, 3.309203147888184
0, 0, 1, 2.627705574035645
0, 0, 2, 2.568722248077393
0, 0, 3, 2.640262603759766
0, 0, 4, 4.276930332183838
0, 0, 5, 1.683846354484558
0, 0, 6, 5.754887104034424
0, 0, 7, 12.13903522491455
0, 0, 8, 5.243705749511719
0, 0, 9, 3.753377437591553
0, 0, 10, 6.149997234344482
0, 0, 11, 3.68979549407959
0, 0, 12, 7.117490291595459
0, 0, 13, 6.881819248199463
0, 0, 14, 7.533370494842529
0, 0, 15, 8.453704833984375
0, 0, 16, 7.721190452575684
0, 0, 17, 10.58903789520264
0, 0, 18, 12.72292709350586
0, 0, 19, 44.87464904785156
0, 0, 20, 141.3814239501953
0, 0, 21, 225.4613952636719
0, 0, 22, 250.7928314208984
0, 0, 23, 256.6769714355469
0, 0, 24, 249.9099426269531
0, 0, 25, 258.489990234375
0, 0, 26, 233.048095703125
0, 0, 27, 237.0364685058594
0, 0, 28, 272.7351989746094
0, 0, 29, 253.1218719482422
0, 0, 30, 231.7838745117188
0, 0, 31, 243.6860504150391
0, 0, 32, 263.6202392578125
0, 0, 33, 260.722412109375
0, 0, 34, 287.2804565429688
0, 0, 35, 267.9537048339844
0, 0, 36, 245.6632537841797
0, 0, 37, 252.9052581787109
0, 0, 38, 268.9215698242188
0, 0, 39, 228.739013671875
0, 0, 40, 240.9160003662109
0, 0, 41, 266.2379150390625
0, 0, 42, 229.0769653320312
0, 0, 43, 261.1124572753906
0, 0, 44, 252.9394226074219
0, 0, 45, 252.4283752441406
0, 0, 46, 244.0152740478516
0, 0, 47, 252.4739074707031
0, 0, 48, 272.2182312011719
0, 0, 49, 277.3479614257812
0, 0, 50, 252.4844665527344
0, 0, 51, 253.9951019287109
0, 0, 52, 274.11669921875
0, 0, 53, 291.364501953125
0, 0, 54, 243.3178558349609
0, 0, 55, 240.508544921875
0, 0, 56, 276.897216796875
0, 0, 57, 266.1977233886719
0, 0, 58, 249.1434326171875
0, 0, 59, 269.791748046875
0, 0, 60, 235.4533386230469
0, 0, 61, 247.6445770263672
0, 0, 62, 256.7455749511719
0, 0, 63, 266.6936340332031
0, 0, 64, 255.1711120605469
0, 0, 65, 262.2582397460938
0, 0, 66, 276.8140869140625
0, 0, 67, 248.6986083984375
0, 0, 68, 258.2037963867188
0, 0, 69, 261.7347717285156
0, 0, 70, 270.9151306152344
0, 0, 71, 237.5062866210938
0, 0, 72, 250.9044342041016
0, 0, 73, 257.3917236328125
0, 0, 74, 251.9272613525391
0, 0, 75, 240.7009582519531
0, 0, 76, 230.3173980712891
0, 0, 77, 259.9861145019531
0, 0, 78, 259.6114807128906
0, 0, 79, 278.349853515625
0, 0, 80, 216.9914703369141
0, 0, 81, 266.9902954101562
0, 0, 82, 257.71923828125
0, 0, 83, 244.0183715820312
0, 0, 84, 270.0956726074219
0, 0, 85, 231.8897552490234
0, 0, 86, 253.3866729736328
0, 0, 87, 250.9806976318359
0, 0, 88, 259.9704895019531
0, 0, 89, 281.3455200195312
0, 0, 90, 242.9828643798828
0, 0, 91, 281.695068359375
0, 0, 92, 252.5545043945312
0, 0, 93, 249.1282806396484
0, 0, 94, 248.1309661865234
0, 0, 95, 247.7544708251953
0, 0, 96, 276.1911010742188
0, 0, 97, 272.0108032226562
0, 0, 98, 273.8973999023438
0, 0, 99, 258.6081848144531
0, 0, 100, 259.8573913574219
0, 0, 101, 225.5458831787109
0, 0, 102, 232.186279296875
0, 0, 103, 269.1952514648438
0, 0, 104, 253.8258514404297
0, 0, 105, 252.7674255371094
0, 0, 106, 245.7960662841797
0, 0, 107, 151.2569580078125
0, 0, 108, 37.65739440917969
0, 0, 109, 11.25923919677734
0, 0, 110, 12.35215473175049
0, 0, 111, 10.21031188964844
0, 0, 112, 7.530990600585938
0, 0, 113, 4.969466209411621
0, 0, 114, 5.487021446228027
0, 0, 115, 4.517130374908447
0, 0, 116, 5.823115825653076
0, 0, 117, 5.974938869476318
0, 0, 118, 6.115015029907227
0, 0, 119, 6.031868457794189
0, 0, 120, 5.90613317489624
0, 0, 121, 4.329161643981934
0, 0, 122, 6.263241767883301
0, 0, 123, 2.645162582397461
0, 0, 124, 5.761077404022217
0, 0, 125, 3.560194969177246
0, 0, 126, 5.019792079925537
0, 0, 127, 4.027463436126709
0, 1, 0, 8.104784965515137
0, 1, 1, 3.803620576858521
0, 1, 2, 4.150247573852539
0, 1, 3, 1.934762358665466
0, 1, 4, 4.998530864715576
0, 1, 5, 3.7181556224823
0, 1, 6, 3.703290462493896
0, 1, 7, 2.048449993133545
0, 1, 8, 7.54873514175415
0, 1, 9, 4.213357448577881
0, 1, 10, 8.357070922851562
0, 1, 11, 12.18624114990234
0, 1, 12, 7.791650772094727
0, 1, 13, 10.37849426269531
0, 1, 14, 7.845434188842773
0, 1, 15, 6.733595371246338
0, 1, 16, 11.37763118743896
0, 1, 17, 12.15085220336914
0, 1, 18, 19.66065216064453
0, 1, 19, 67.58323669433594
0, 1, 20, 198.4085235595703
0, 1, 21, 254.4070434570312
0, 1, 22, 295.3567199707031
0, 1, 23, 283.840087890625
0, 1, 24, 277.5168151855469
0, 1, 25, 288.3690795898438
0, 1, 26, 269.5521240234375
0, 1, 27, 306.5489196777344
0, 1, 28, 301.6980590820312
0, 1, 29, 295.9005432128906
0, 1, 30, 284.5145263671875
0, 1, 31, 290.6790771484375
0, 1, 32, 289.69775390625
0, 1, 33, 297.1478271484375
0, 1, 34, 292.8071594238281
0, 1, 35, 279.5453186035156
0, 1, 36, 307.4314575195312
0, 1, 37, 296.0368957519531
0, 1, 38, 278.7584533691406
0, 1, 39, 295.3180236816406
0, 1, 40, 265.0612487792969
0, 1, 41, 286.26171875
0, 1, 42, 289.2827453613281
0, 1, 43, 331.6162719726562
0, 1, 44, 278.880859375
0, 1, 45, 293.2008056640625
0, 1, 46, 258.2453002929688
0, 1, 47, 310.8851318359375
0, 1, 48, 284.6459655761719
0, 1, 49, 303.619384765625
0, 1, 50, 263.1292724609375
0, 1, 51, 271.3829650878906
0, 1, 52, 296.009033203125
0, 1, 53, 303.9502563476562
0, 1, 54, 274.8958129882812
0, 1, 55, 292.1986083984375
0, 1, 56, 279.1577758789062
0, 1, 57, 298.1039123535156
0, 1, 58, 309.8595581054688
0, 1, 59, 292.3135070800781
0, 1, 60, 297.6717224121094
0, 1, 61, 275.568115234375
0, 1, 62, 307.331787109375
0, 1, 63, 289.759033203125
0, 1, 64, 287.6099243164062
0, 1, 65, 294.5451965332031
0, 1, 66, 292.8683776855469
0, 1, 67, 291.2291259765625
0, 1, 68, 276.9178771972656
0, 1, 69, 281.8479309082031
0, 1, 70, 269.7840576171875
0, 1, 71, 274.0903015136719
0, 1, 72, 286.5753479003906
0, 1, 73, 308.7540893554688
0, 1, 74, 304.0708923339844
0, 1, 75, 291.1481628417969
0, 1, 76, 287.1644287109375
0, 1, 77, 289.1029357910156
0, 1, 78, 296.5926818847656
0, 1, 79, 302.2921447753906
0, 1, 80, 296.6633911132812
0, 1, 81, 300.3916015625
0, 1, 82, 285.6599731445312
0, 1, 83, 331.9223022460938
0, 1, 84, 308.0355834960938
0, 1, 85, 253.4444427490234
0, 1, 86, 294.8446655273438
0, 1, 87, 290.8606262207031
0, 1, 88, 297.8700561523438
0, 1, 89, 292.8009033203125
0, 1, 90, 271.1402282714844
0, 1, 91, 317.4803771972656
0, 1, 92, 291.4889526367188
0, 1, 93, 286.0019836425781
0, 1, 94, 304.3522644042969
0, 1, 95, 283.3283386230469
0, 1, 96, 283.172607421875
0, 1, 97, 300.8332214355469
0, 1, 98, 277.0544738769531
0, 1, 99, 266.8223266601562
0, 1, 100, 277.40087890625
0, 1, 101, 281.4176635742188
0, 1, 102, 278.9704895019531
0, 1, 103, 280.5481872558594
0, 1, 104, 307.0095520019531
0, 1, 105, 297.62841796875
0, 1, 106, 261.8606567382812
0, 1, 107, 191.7723083496094
0, 1, 108, 79.91597747802734
0, 1, 109, 24.54105567932129
0, 1, 110, 10.95060634613037
0, 1, 111, 8.834048271179199
0, 1, 112, 13.78330612182617
0, 1, 113, 6.093144416809082
0, 1, 114, 5.996286869049072
0, 1, 115, 7.218703746795654
0, 1, 116, 11.70515537261963
0, 1, 117, 4.855209350585938
0, 1, 118, 6.649764060974121
0, 1, 119, 4.727593898773193
0, 1, 120, 7.284015655517578
0, 1, 121, 3.975643157958984
0, 1, 122, 3.200915575027466
0, 1, 123, 2.93706488609314
0, 1, 124, 7.70759916305542
0, 1, 125, 6.197033882141113
0, 1, 126, 3.075308084487915
0, 1, 127, 2.863756895065308
0, 2, 0, 4.867281913757324
0, 2, 1, 1.633212447166443
0, 2, 2, 4.917724132537842
0, 2, 3, 3.736719608306885
0, 2, 4, 2.641639947891235
0, 2, 5, 1.406647801399231
0, 2, 6, 2.217073678970337
0, 2, 7, 3.753578662872314
0, 2, 8, 5.678922176361084
0, 2, 9, 7.625945091247559
0, 2, 10, 8.329056739807129
0, 2, 11, 5.298900127410889
0, 2, 12, 5.848766803741455
0, 2, 13, 10.20579147338867
0, 2, 14, 10.5146484375
0, 2, 15, 7.984439373016357
0, 2, 16, 9.68243408203125
0, 2, 17, 18.75968170166016
0, 2, 18, 32.38586807250977
0, 2, 19, 116.0071716308594
0, 2, 20, 245.8255310058594
0, 2, 21, 271.0323791503906
0, 2, 22, 314.8968505859375
0, 2, 23, 300.9144287109375
0, 2, 24, 287.514404296875
0, 2, 25, 304.1546630859375
0, 2, 26, 292.4909057617188
0, 2, 27, 274.7788696289062
0, 2, 28, 275.4635009765625
0, 2, 29, 274.2888793945312
0, 2, 30, 289.3498840332031
0, 2, 31, 280.8753051757812
0, 2, 32, 293.8896484375
0, 2, 33, 282.1883544921875
0, 2, 34, 331.25
0, 2, 35, 290.6548156738281
0, 2, 36, 302.99365234375
0, 2, 37, 315.8461608886719
0, 2, 38, 311.5048217773438
0, 2, 39, 266.918701171875
0, 2, 40, 306.3897399902344
0, 2, 41, 292.1968078613281
0, 2, 42, 303.7674865722656
0, 2, 43, 310.263671875
0, 2, 44, 312.3916931152344
0, 2, 45, 324.2450561523438
0, 2, 46, 289.6986694335938
0, 2, 47, 302.4696655273438
0, 2, 48, 283.2654724121094
0, 2, 49, 277.8798828125
0, 2, 50, 294.3017578125
0, 2, 51, 283.0023498535156
0, 2, 52, 272.7405700683594
0, 2, 53, 290.1683044433594
0, 2, 54, 281.3436584472656
0, 2, 55, 274.6433715820312
0, 2, 56, 302.1095886230469
0, 2, 57, 291.2079162597656
0, 2, 58, 301.5716857910156
0, 2, 59, 288.6721496582031
0, 2, 60, 318.4638366699219
0, 2, 61, 301.8909606933594
0, 2, 62, 315.2579040527344
0, 2, 63, 304.4961242675781
0, 2, 64, 295.7913818359375
0, 2, 65, 314.7007141113281
0, 2, 66, 280.8099975585938
0, 2, 67, 291.2155151367188
0, 2, 68, 295.4717712402344
0, 2, 69, 313.2908020019531
0, 2, 70, 335.7290344238281
0, 2, 71, 283.6967468261719
0, 2, 72, 303.0203857421875
0, 2, 73, 314.0552368164062
0, 2, 74, 287.000732421875
0, 2, 75, 302.8085021972656
0, 2, 76, 286.4975891113281
0, 2, 77, 300.6943054199219
0, 2, 78, 315.7720336914062
0, 2, 79, 308.0120239257812
0, 2, 80, 297.1646118164062
0, 2, 81, 281.9800415039062
0, 2, 82, 316.8793029785156
0, 2, 83, 313.9228820800781
0, 2, 84, 290.1651000976562
0, 2, 85, 283.5680847167969
0, 2, 86, 324.3029174804688
0, 2, 87, 288.5063781738281
0, 2, 88, 281.012451171875
0, 2, 89, 295.9689025878906
0, 2, 90, 296.0653381347656
0, 2, 91, 276.02001953125
0, 2, 92, 305.1856384277344
0, 2, 93, 316.5269775390625
0, 2, 94, 290.7528076171875
0, 2, 95, 316.1435546875
0, 2, 96, 314.7024841308594
0, 2, 97, 293.5589904785156
0, 2, 98, 295.5510559082031
0, 2, 99, 273.4737548828125
0, 2, 100, 305.328125
0, 2, 101, 300.9014892578125
0, 2, 102, 296.8720397949219
0, 2, 103, 291.156982421875
0, 2, 104, 292.9502868652344
0, 2, 105, 274.7164611816406
0, 2, 106, 299.1177978515625
0, 2, 107, 271.1764831542969
0, 2, 108, 117.5683059692383
0, 2, 109, 30.89367485046387
0, 2, 110, 9.817233085632324
0, 2, 111, 10.22044467926025
0, 2, 112, 7.524084091186523
0, 2, 113, 11.32884502410889
0, 2, 114, 9.482312202453613
0, 2, 115, 8.430930137634277
0, 2, 116, 9.138238906860352
0, 2, 117, 5.975962162017822
0, 2, 118, 2.647377252578735
0, 2, 119, 3.391069412231445
0, 2, 120, 6.437963008880615
0, 2, 121, 1.062419652938843
0, 2, 122, 7.382205009460449
0, 2, 123, 5.6006760597229
0, 2, 124, 1.990092515945435
0, 2, 125, 5.74813175201416
0, 2, 126, 4.289024353027344
0, 2, 127, 5.058167457580566
0, 3, 0, 3.951301336288452
0, 3, 1, 3.732748031616211
0, 3, 2, 4.097412109375
0, 3, 3, 2.328382730484009
0, 3, 4, 4.104276657104492
0, 3, 5, 7.437941074371338
0, 3, 6, 5.745668888092041
0, 3, 7, 4.706987380981445
0, 3, 8, 4.784424781799316
0, 3, 9, 5.570095062255859
0, 3, 10, 6.041956424713135
0, 3, 11, 4.907003879547119
0, 3, 12, 6.639771938323975
0, 3, 13, 15.01858901977539
0, 3, 14, 9.984569549560547
0, 3, 15, 16.755126953125
0, 3, 16, 11.0844202041626
0, 3, 17, 19.24777984619141
0, 3, 18, 52.02612686157227
0, 3, 19, 175.9143524169922
0, 3, 20, 270.9350891113281
0, 3, 21, 271.2672424316406
0, 3, 22, 280.4572448730469
0, 3, 23, 286.2042541503906
0, 3, 24, 287.7070007324219
0, 3, 25, 270.9604797363281
0, 3, 26, 303.4470520019531
0, 3, 27, 292.5891723632812
0, 3, 28, 280.4536743164062
0, 3, 29, 339.2689514160156
0, 3, 30, 319.1924438476562
0, 3, 31, 286.68505859375
0, 3, 32, 306.4205627441406
0, 3, 33, 314.3425903320312
0, 3, 34, 324.4917907714844
0, 3, 35, 309.9642639160156
0, 3, 36, 269.1982421875
0, 3, 37, 317.3905029296875
0, 3, 38, 303.1930236816406
0, 3, 39, 287.8331909179688
0, 3, 40, 267.4241027832031
0, 3, 41, 300.5169372558594
0, 3, 42, 284.1121826171875
0, 3, 43, 310.7920227050781
0, 3, 44, 308.8220825195312
0, 3, 45, 289.2597961425781
0, 3, 46, 329.3558959960938
0, 3, 47, 299.7957153320312
0, 3, 48, 300.9879760742188
0, 3, 49, 275.8104248046875
0, 3, 50, 291.0634460449219
0, 3, 51, 276.8101196289062
0, 3, 52, 315.102783203125
0, 3, 53, 287.2912902832031
0, 3, 54, 283.8396606445312
0, 3, 55, 282.4952087402344
0, 3, 56, 298.6706848144531
0, 3, 57, 289.606201171875
0, 3, 58, 308.6275329589844
0, 3, 59, 297.5891418457031
0, 3, 60, 297.4666442871094
0, 3, 61, 264.1734313964844
0, 3, 62, 285.41796875
0, 3, 63, 305.0902404785156
0, 3, 64, 317.9413146972656
0, 3, 65, 304.3506774902344
0, 3, 66, 315.7284851074219
0, 3, 67, 317.4789428710938
0, 3, 68, 280.4698181152344
0, 3, 69, 282.2864685058594
0, 3, 70, 290.1019287109375
0, 3, 71, 298.4393615722656
0, 3, 72, 271.0099792480469
0, 3, 73, 310.092529296875
0, 3, 74, 292.8172607421875
0, 3, 75, 289.0255737304688
0, 3, 76, 305.6315612792969
0, 3, 77, 314.0380554199219
0, 3, 78, 305.8127746582031
0, 3, 79, 283.4245910644531
0, 3, 80, 291.1502380371094
0, 3, 81, 310.8649291992188
0, 3, 82, 315.2501831054688
0, 3, 83, 300.7423706054688
0, 3, 84, 311.4797973632812
0, 3, 85, 294.5813598632812
0, 3, 86, 301.9862976074219
0, 3, 87, 297.8392333984375
0, 3, 88, 298.289794921875
0, 3, 89, 296.0635681152344
0, 3, 90, 275.1941528320312
0, 3, 91, 283.31201171875
0, 3, 92, 306.0182189941406
0, 3, 93, 312.0441284179688
0, 3, 94, 297.792236328125
0, 3, 95, 334.7251586914062
0, 3, 96, 292.0531311035156
0, 3, 97, 283.0490112304688
0, 3, 98, 277.5284729003906
0, 3, 99, 266.8638610839844
0, 3, 100, 284.2273864746094
0, 3, 101, 296.39453125
0, 3, 102, 275.2882690429688
0, 3, 103, 320.2461242675781
0, 3, 104, 308.897705078125
0, 3, 105, 288.0504150390625
0, 3, 106, 301.5476684570312
0, 3, 107, 282.0312805175781
0, 3, 108, 171.5492706298828
0, 3, 109, 56.56391525268555
0, 3, 110, 17.52343559265137
0, 3, 111, 12.59790992736816
0, 3, 112, 11.44496917724609
0, 3, 113, 6.443385124206543
0, 3, 114, 10.58752727508545
0, 3, 115, 7.488691806793213
0, 3, 116, 7.838665962219238
0, 3, 117, 9.481695175170898
0, 3, 118, 5.377237796783447
0, 3, 119, 6.851975917816162
0, 3, 120, 6.507700443267822
0, 3, 121, 2.310120105743408
0, 3, 122, 3.692798376083374
0, 3, 123, 5.920965194702148
0, 3, 124, 4.510729789733887
0, 3, 125, 5.577815055847168
0, 3, 126, 5.607995986938477
0, 3, 127, 2.408924579620361
0, 4, 0, 2.770598173141479
0, 4, 1, 5.022152423858643
0, 4, 2, 2.417901039123535
0, 4, 3, 2.467690467834473
0, 4, 4, 5.724593162536621
0, 4, 5, 8.00650691986084
0, 4, 6, 6.310676097869873
0, 4, 7, 4.189901351928711
0, 4, 8, 3.498638391494751
0, 4, 9, 5.649383068084717
0, 4, 10, 7.223598480224609
0, 4, 11, 8.114168167114258
0, 4, 12, 8.040035247802734
0, 4, 13, 8.268020629882812
0, 4, 14, 11.25442981719971
0, 4, 15, 11.21798324584961
0, 4, 16, 13.52151775360107
0, 4, 17, 17.80674362182617
0, 4, 18, 94.80419921875
0, 4, 19, 223.5393676757812
0, 4, 20, 284.3219909667969
0, 4, 21, 272.0964965820312
0, 4, 22, 307.9311828613281
0, 4, 23, 266.0511474609375
0, 4, 24, 289.2818298339844
0, 4, 25, 274.0851135253906
0, 4, 26, 295.5827941894531
0, 4, 27, 281.9844360351562
0, 4, 28, 305.7876586914062
0, 4, 29, 324.1909790039062
0, 4, 30, 308.9580078125
0, 4, 31, 304.1312866210938
0, 4, 32, 280.6015930175781
0, 4, 33, 295.1023864746094
0, 4, 34, 301.4439086914062
0, 4, 35, 311.8862609863281
0, 4, 36, 295.2331848144531
0, 4, 37, 286.2588195800781
0, 4, 38, 298.2253112792969
0, 4, 39, 295.1736450195312
0, 4, 40, 301.4799499511719
0, 4, 41, 313.562255859375
0, 4, 42, 329.4602966308594
0, 4, 43, 296.7984313964844
0, 4, 44, 320.3436279296875
0, 4, 45, 325.8396301269531
0, 4, 46, 305.4188232421875
0, 4, 47, 291.895263671875
0, 4, 48, 296.5757751464844
0, 4, 49, 278.8146057128906
0, 4, 50, 296.9483947753906
0, 4, 51, 317.33984375
0, 4, 52, 328.6220703125
0, 4, 53, 303.5705871582031
0, 4, 54, 287.0128784179688
0, 4, 55, 317.2334899902344
0, 4, 56, 286.0411376953125
0, 4, 57, 310.9752502441406
0, 4, 58, 295.9561462402344
0, 4, 59, 308.5617980957031
0, 4, 60, 302.2863464355469
0, 4, 61, 315.5474548339844
0, 4, 62, 305.9754333496094
0, 4, 63, 299.3231201171875
0, 4, 64, 328.745361328125
0, 4, 65, 315.5497741699219
0, 4, 66, 293.8424682617188
0, 4, 67, 283.9180297851562
0, 4, 68, 312.5216674804688
0, 4, 69, 274.5563049316406
0, 4, 70, 299.7664794921875
0, 4, 71, 321.1835327148438
0, 4, 72, 332.7925720214844
0, 4, 73, 298.5388793945312
0, 4, 74, 294.2502136230469
0, 4, 75, 289.7881164550781
0, 4, 76, 275.7081298828125
0, 4, 77, 279.8120727539062
0, 4, 78, 310.1011352539062
0, 4, 79, 319.3434448242188
0, 4, 80, 314.9925537109375
0, 4, 81, 312.7989807128906
0, 4, 82, 297.4215393066406
0, 4, 83, 300.7918090820312
0, 4, 84, 292.7733154296875
0, 4, 85, 295.6624145507812
0, 4, 86, 297.6245727539062
0, 4, 87, 283.7774047851562
0, 4, 88, 306.715576171875
0, 4, 89, 294.030517578125
0, 4, 90, 332.2840270996094
0, 4, 91, 303.2149047851562
0, 4, 92, 288.1212463378906
0, 4, 93, 296.1273803710938
0, 4, 94, 291.2291259765625
0, 4, 95, 289.3433532714844
0, 4, 96, 323.1022644042969
0, 4, 97, 274.4366760253906
0, 4, 98, 326.4652709960938
0, 4, 99, 312.444580078125
0, 4, 100, 299.7030029296875
0, 4, 101, 258.2247619628906
0, 4, 102, 298.1264953613281
0, 4, 103, 318.4767761230469
0, 4, 104, 280.3644714355469
0, 4, 105, 310.1247253417969
0, 4, 106, 286.2565612792969
0, 4, 107, 294.4146118164062
0, 4, 108, 226.6707153320312
0, 4, 109, 79.63232421875
0, 4, 110, 16.44882583618164
0, 4, 111, 14.60157871246338
0, 4, 112, 8.411403656005859
0, 4, 113, 10.55952644348145
0, 4, 114, 9.450419425964355
0, 4, 115, 9.653583526611328
0, 4, 116, 10.05637645721436
0, 4, 117, 9.956961631774902
0, 4, 118, 8.498076438903809
0, 4, 119, 9.214759826660156
0, 4, 120, 6.349393844604492
0, 4, 121, 4.157158374786377
0, 4, 122, 5.201829433441162
0, 4, 123, 5.810566425323486
0, 4, 124, 5.901472091674805
0, 4, 125, 8.456516265869141
0, 4, 126, 5.919776439666748
0, 4, 127, 2.240534782409668
0, 5, 0, 4.273189067840576
0, 5, 1, 3.933513641357422
0, 5, 2, 3.268077373504639
0, 5, 3, 7.156075954437256
0, 5, 4, 5.852955341339111
0, 5, 5, 5.055129051208496
0, 5, 6, 8.697945594787598
0, 5, 7, 8.865085601806641
0, 5, 8, 4.464339733123779
0, 5, 9, 5.578619003295898
0, 5, 10, 5.834749221801758
0, 5, 11, 8.902761459350586
0, 5, 12, 8.561397552490234
0, 5, 13, 5.57335376739502
0, 5, 14, 10.64952850341797
0, 5, 15, 16.21328735351562
0, 5, 16, 13.52173805236816
0, 5, 17, 30.10092163085938
0, 5, 18, 136.4193878173828
0, 5, 19, 286.0898742675781
0, 5, 20, 306.3692321777344
0, 5, 21, 318.1497497558594
0, 5, 22, 277.534423828125
0, 5, 23, 311.772216796875
0, 5, 24, 301.5325317382812
0, 5, 25, 290.0514221191406
0, 5, 26, 295.4048767089844
0, 5, 27, 320.9620666503906
0, 5, 28, 304.5808715820312
0, 5, 29, 298.0059814453125
0, 5, 30, 322.7692260742188
0, 5, 31, 285.155029296875
0, 5, 32, 301.2219848632812
0, 5, 33, 304.200927734375
0, 5, 34, 301.66455078125
0, 5, 35, 311.4226379394531
0, 5, 36, 268.8058471679688
0, 5, 37, 283.8702087402344
0, 5, 38, 293.2615356445312
0, 5, 39, 309.4523315429688
0, 5, 40, 307.6005249023438
0, 5, 41, 272.8105163574219
0, 5, 42, 304.7166442871094
0, 5, 43, 313.5983581542969
0, 5, 44, 293.154541015625
0, 5, 45, 302.2413635253906
0, 5, 46, 264.4703979492188
0, 5, 47, 280.1643981933594
0, 5, 48, 293.8865966796875
0, 5, 49, 285.8218994140625
0, 5, 50, 293.9523620605469
0, 5, 51, 281.1005859375
0, 5, 52, 268.8610229492188
0, 5, 53, 282.2942504882812
0, 5, 54, 292.137939453125
0, 5, 55, 345.054931640625
0, 5, 56, 304.8596496582031
0, 5, 57, 306.5939331054688
0, 5, 58, 313.56103515625
0, 5, 59, 303.8570556640625
0, 5, 60, 307.2686767578125
0, 5, 61, 280.4114379882812
0, 5, 62, 328.2790832519531
0, 5, 63, 289.9500732421875
0, 5, 64, 324.6549987792969
0, 5, 65, 305.9423522949219
0, 5, 66, 327.4789123535156
0, 5, 67, 312.3951416015625
0, 5, 68, 306.8175048828125
0, 5, 69, 311.46728515625
0, 5, 70, 302.7367248535156
0, 5, 71, 272.1879272460938
0, 5, 72, 312.5932922363281
0, 5, 73, 302.5667114257812
0, 5, 74, 295.5445251464844
0, 5, 75, 294.4526672363281
0, 5, 76, 286.7793884277344
0, 5, 77, 299.624755859375
0, 5, 78, 314.19873046875
0, 5, 79, 306.9469604492188
0, 5, 80, 294.28857421875
0, 5, 81, 325.5154113769531
0, 5, 82, 326.1767578125
0, 5, 83, 282.0955200195312
0, 5, 84, 303.0735473632812
0, 5, 85, 272.9931640625
0, 5, 86, 325.9263305664062
0, 5, 87, 282.7444763183594
0, 5, 88, 313.1816101074219
0, 5, 89, 303.9665222167969
0, 5, 90, 315.1793212890625
0, 5, 91, 312.18359375
0, 5, 92, 295.4220581054688
0, 5, 93, 324.6166076660156
0, 5, 94, 312.976806640625
0, 5, 95, 296.438232421875
0, 5, 96, 299.3676452636719
0, 5, 97, 295.2577514648438
0, 5, 98, 319.1893310546875
0, 5, 99, 302.3534851074219
0, 5, 100, 290.089599609375
0, 5, 101, 304.0740356445312
0, 5, 102, 293.6637573242188
0, 5, 103, 315.1927490234375
0, 5, 104, 305.0510559082031
0, 5, 105, 291.1715393066406
0, 5, 106, 282.1549987792969
0, 5, 107, 295.0176391601562
0, 5, 108, 263.1255493164062
0, 5, 109, 158.1641387939453
0, 5, 110, 38.56101608276367
0, 5, 111, 23.4447078704834
0, 5, 112, 18.0088005065918
0, 5, 113, 15.61722755432129
0, 5, 114, 11.90142154693604
0, 5, 115, 8.543304443359375
0, 5, 116, 9.904889106750488
0, 5, 117, 7.200742721557617
0, 5, 118, 13.33020687103271
0, 5, 119, 3.719962358474731
0, 5, 120, 5.477008819580078
0, 5, 121, 7.082727909088135
0, 5, 122, 6.881941795349121
0, 5, 123, 6.825155258178711
0, 5, 124, 5.133780956268311
0, 5, 125, 2.767877578735352
0, 5, 126, 6.252559661865234
0, 5, 127, 5.445866107940674
0, 6, 0, 6.257095813751221
0, 6, 1, 2.848485708236694
0, 6, 2, 5.289818286895752
0, 6, 3, 7.035649299621582
0, 6, 4, 3.714965581893921
0, 6, 5, 4.432165622711182
0, 6, 6, 8.486724853515625
0, 6, 7, 7.479617118835449
0, 6, 8, 8.738862991333008
0, 6, 9, 6.17571496963501
0, 6, 10, 7.500937461853027
0, 6, 11, 7.633142471313477
0, 6, 12, 7.839931964874268
0, 6, 13, 12.33716297149658
0, 6, 14, 11.44113826751709
0, 6, 15, 15.83571338653564
0, 6, 16, 27.8266716003418
0, 6, 17, 55.18880081176758
0, 6, 18, 173.1635437011719
0, 6, 19, 275.2322998046875
0, 6, 20, 291.3725891113281
0, 6, 21, 316.6171875
0, 6, 22, 320.3191223144531
0, 6, 23, 305.3560180664062
0, 6, 24, 315.3457336425781
0, 6, 25, 315.6209106445312
0, 6, 26, 320.0332946777344
0, 6, 27, 330.3255920410156
0, 6, 28, 297.9099731445312
0, 6, 29, 331.2428588867188
0, 6, 30, 282.7751770019531
0, 6, 31, 286.3338012695312
0, 6, 32, 342.4345092773438
0, 6, 33, 300.1278991699219
0, 6, 34, 339.0384521484375
0, 6, 35, 320.0978088378906
0, 6, 36, 274.4488525390625
0, 6, 37, 289.3760681152344
0, 6, 38, 311.8420104980469
0, 6, 39, 300.2307434082031
0, 6, 40, 287.0232238769531
0, 6, 41, 297.3970947265625
0, 6, 42, 303.2596740722656
0, 6, 43, 288.8102111816406
0, 6, 44, 280.283935546875
0, 6, 45, 319.5552368164062
0, 6, 46, 301.4289245605469
0, 6, 47, 333.9868774414062
0, 6, 48, 291.8916931152344
0, 6, 49, 310.7058715820312
0, 6, 50, 330.7267761230469
0, 6, 51, 311.3597412109375
0, 6, 52, 322.2655944824219
0, 6, 53, 328.3724365234375
0, 6, 54, 306.4200134277344
0, 6, 55, 305.1424560546875
0, 6, 56, 295.6256408691406
0, 6, 57, 312.1353454589844
0, 6, 58, 262.8267517089844
0, 6, 59, 303.2073059082031
0, 6, 60, 312.4994506835938
0, 6, 61, 272.5166931152344
0, 6, 62, 338.1612548828125
0, 6, 63, 324.0528259277344
0, 6, 64, 290.4292907714844
0, 6, 65, 284.0957336425781
0, 6, 66, 304.0230712890625
0, 6, 67, 308.7724914550781
0, 6, 68, 293.2184753417969
0, 6, 69, 279.0784912109375
0, 6, 70, 274.3183898925781
0, 6, 71, 289.426025390625
0, 6, 72, 308.6856384277344
0, 6, 73, 291.4265441894531
0, 6, 74, 331.6162414550781
0, 6, 75, 344.4129333496094
0, 6, 76, 297.5614318847656
0, 6, 77, 287.7023010253906
0, 6, 78, 279.154296875
0, 6, 79, 292.3374328613281
0, 6, 80, 299.1361389160156
0, 6, 81, 315.0093078613281
0, 6, 82, 320.1164245605469
0, 6, 83, 323.1805114746094
0, 6, 84, 298.5201721191406
0, 6, 85, 301.3543395996094
0, 6, 86, 330.8140869140625
0, 6, 87, 293.9279479980469
0, 6, 88, 307.0429992675781
0, 6, 89, 303.2852172851562
0, 6, 90, 299.6787414550781
0, 6, 91, 312.8336486816406
0, 6, 92, 286.148681640625
0, 6, 93, 297.3450012207031
0, 6, 94, 274.0364379882812
0, 6, 95, 300.2099304199219
0, 6, 96, 347.1359252929688
0, 6, 97, 309.80712890625
0, 6, 98, 301.61376953125
0, 6, 99, 271.415283203125
0, 6, 100, 309.522705078125
0, 6, 101, 292.3959655761719
0, 6, 102, 306.5959777832031
0, 6, 103, 307.55322265625
0, 6, 104, 292.9146423339844
0, 6, 105, 303.3602600097656
0, 6, 106, 308.9895935058594
0, 6, 107, 307.8292846679688
0, 6, 108, 268.1355590820312
0, 6, 109, 187.9426574707031
0, 6, 110, 56.43148422241211
0, 6, 111, 22.45666313171387
0, 6, 112, 14.46423625946045
0, 6, 113, 10.60654640197754
0, 6, 114, 12.47784042358398
0, 6, 115, 12.58147048950195
0, 6, 116, 11.22575950622559
0, 6, 117, 10.40603637695312
0, 6, 118, 10.71043968200684
0, 6, 119, 10.48904609680176
0, 6, 120, 4.81905460357666
0, 6, 121, 6.78264331817627
0, 6, 122, 6.38568639755249
0, 6, 123, 4.848548889160156
0, 6, 124, 8.281830787658691
0, 6, 125, 5.884398460388184
0, 6, 126, 4.603851318359375
0, 6, 127, 7.550875186920166
0, 7, 0, 4.827432632446289
0, 7, 1, 3.326150417327881
0, 7, 2, 5.010960102081299
0, 7, 3, 3.526394605636597
0, 7, 4, 3.326061964035034
0, 7, 5, 5.097460269927979
0, 7, 6, 6.002331256866455
0, 7, 7, 4.585637092590332
0, 7, 8, 4.556150436401367
0, 7, 9, 5.187535762786865
0, 7, 10, 7.63646411895752
0, 7, 11, 12.41278076171875
0, 7, 12, 10.77888011932373
0, 7, 13, 11.40379619598389
0, 7, 14, 9.376960754394531
0, 7, 15, 17.00267601013184
0, 7, 16, 27.8601245880127
0, 7, 17, 98.17457580566406
0, 7, 18, 218.5521392822266
0, 7, 19, 292.09033203125
0, 7, 20, 299.1570434570312
0, 7, 21, 277.1911315917969
0, 7, 22, 299.5291748046875
0, 7, 23, 289.5099487304688
0, 7, 24, 313.7649536132812
0, 7, 25, 323.9735412597656
0, 7, 26, 277.4607543945312
0, 7, 27, 297.4114379882812
0, 7, 28, 326.8164978027344
0, 7, 29, 318.3596801757812
0, 7, 30, 299.0455627441406
0, 7, 31, 277.6893615722656
0, 7, 32, 307.8213806152344
0, 7, 33, 263.1017456054688
0, 7, 34, 297.7405090332031
0, 7, 35, 321.6557006835938
0, 7, 36, 331.7401123046875
0, 7, 37, 325.1195068359375
0, 7, 38, 294.96875
0, 7, 39, 305.1764526367188
0, 7, 40, 290.9269409179688
0, 7, 41, 273.1122131347656
0, 7, 42, 304.2884826660156
0, 7, 43, 275.3903198242188
0, 7, 44, 303.0054626464844
0, 7, 45, 296.8206481933594
0, 7, 46, 283.5496826171875
0, 7, 47, 329.4010925292969
0, 7, 48, 286.1165771484375
0, 7, 49, 301.7998046875
0, 7, 50, 321.8904724121094
0, 7, 51, 299.184326171875
0, 7, 52, 326.8134155273438
0, 7, 53, 309.8429260253906
0, 7, 54, 323.1632385253906
0, 7, 55, 307.2188720703125
0, 7, 56, 281.81689453125
0, 7, 57, 282.9788513183594
0, 7, 58, 294.6560363769531
0, 7, 59, 293.3062744140625
0, 7, 60, 323.9038696289062
0, 7, 61, 278.6707763671875
0, 7, 62, 295.9801940917969
0, 7, 63, 291.9051208496094
0, 7, 64, 306.3927001953125
0, 7, 65, 334.9367065429688
0, 7, 66, 319.3824768066406
0, 7, 67, 300.5733947753906
0, 7, 68, 281.5598449707031
0, 7, 69, 293.9200439453125
0, 7, 70, 302.1812133789062
0, 7, 71, 309.6054077148438
0, 7, 72, 285.7715454101562
0, 7, 73, 295.3949890136719
0, 7, 74, 344.6587219238281
0, 7, 75, 319.3194885253906
0, 7, 76, 322.5073852539062
0, 7, 77, 278.8052368164062
0, 7, 78, 305.0593566894531
0, 7, 79, 297.9353942871094
0, 7, 80, 309.9293518066406
0, 7, 81, 319.9065246582031
0, 7, 82, 329.0320739746094
0, 7, 83, 315.8210144042969
0, 7, 84, 309.1574096679688
0, 7, 85, 271.286376953125
0, 7, 86, 313.0475769042969
0, 7, 87, 310.3235473632812
0, 7, 88, 308.4449768066406
0, 7, 89, 293.09912109375
0, 7, 90, 307.5888977050781
0, 7, 91, 318.1280822753906
0, 7, 92, 290.4581909179688
0, 7, 93, 307.0426635742188
0, 7, 94, 273.0620727539062
0, 7, 95, 296.8121643066406
0, 7, 96, 331.3771667480469
0, 7, 97, 295.4159851074219
0, 7, 98, 289.9959411621094
0, 7, 99, 311.8504638671875
0, 7, 100, 282.2756958007812
0, 7, 101, 276.7025756835938
0, 7, 102, 291.6747131347656
0, 7, 103, 294.1651916503906
0, 7, 104, 275.9879760742188
0, 7, 105, 308.3451843261719
0, 7, 106, 317.8724670410156
0, 7, 107, 294.7646484375
0, 7, 108, 272.0850219726562
0, 7, 109, 237.3944244384766
0, 7, 110, 96.49053192138672
0, 7, 111, 24.10929298400879
0, 7, 112, 13.28432750701904
0, 7, 113, 13.04355430603027
0, 7, 114, 13.44156265258789
0, 7, 115, 10.92869186401367
0, 7, 116, 6.802386283874512
0, 7, 117, 7.091355323791504
0, 7, 118, 11.34309768676758
0, 7, 119, 7.117178440093994
0, 7, 120, 4.331664562225342
0, 7, 121, 6.484391689300537
0, 7, 122, 10.85321998596191
0, 7, 123, 3.83970832824707
0, 7, 124, 3.983779907226562
0, 7, 125, 6.84350061416626
0, 7, 126, 8.936080932617188
0, 7, 127, 2.935094833374023
0, 8, 0, 3.865711688995361
0, 8, 1, 5.495274066925049
0, 8, 2, 4.966179847717285
0, 8, 3, 2.246191740036011
0, 8, 4, 4.150831699371338
0, 8, 5, 4.431796073913574
0, 8, 6, 5.318347454071045
0, 8, 7, 5.659027576446533
0, 8, 8, 7.691815853118896
0, 8, 9, 4.708659172058105
0, 8, 10, 7.989555358886719
0, 8, 11, 13.10219478607178
0, 8, 12, 13.45532703399658
0, 8, 13, 15.45779037475586
0, 8, 14, 13.39212417602539
0, 8, 15, 19.13730621337891
0, 8, 16, 33.9832649230957
0, 8, 17, 129.4053649902344
0, 8, 18, 245.0069732666016
0, 8, 19, 295.2520446777344
0, 8, 20, 285.9920959472656
0, 8, 21, 306.9730834960938
0, 8, 22, 296.3808898925781
0, 8, 23, 277.2787780761719
0, 8, 24, 268.479248046875
0, 8, 25, 277.3912048339844
0, 8, 26, 306.6581726074219
0, 8, 27, 309.0409545898438
0, 8, 28, 304.1552734375
0, 8, 29, 318.6838073730469
0, 8, 30, 313.4720764160156
0, 8, 31, 303.8115844726562
0, 8, 32, 279.86572265625
0, 8, 33, 293.5985717773438
0, 8, 34, 289.5651245117188
0, 8, 35, 279.85595703125
0, 8, 36, 315.6759338378906
0, 8, 37, 338.8813171386719
0, 8, 38, 330.8887634277344
0, 8, 39, 281.8735046386719
0, 8, 40, 303.511962890625
0, 8, 41, 291.2270812988281
