# TOPAS Version: 3.1.p3
# Parameter File: batch_inserts_66.txt
# Results for scorer Readout_Adipose
# Scored in component: MyBox
# X in 1 bin  of 0.75 cm
# Y in 512 bins of 0.0783984 cm
# Z in 128 bins of 0.078125 cm
# EnergyDeposit ( MeV ) : Sum   
0, 0, 0, 4.494371891021729
0, 0, 1, 2.083341598510742
0, 0, 2, 4.030941486358643
0, 0, 3, 1.436384320259094
0, 0, 4, 3.024088621139526
0, 0, 5, 5.0770263671875
0, 0, 6, 8.271486282348633
0, 0, 7, 11.22794532775879
0, 0, 8, 3.32234787940979
0, 0, 9, 4.401267528533936
0, 0, 10, 6.2397780418396
0, 0, 11, 4.853020191192627
0, 0, 12, 5.791146278381348
0, 0, 13, 4.898261070251465
0, 0, 14, 7.308635711669922
0, 0, 15, 10.28792953491211
0, 0, 16, 8.822999000549316
0, 0, 17, 9.334109306335449
0, 0, 18, 14.82221698760986
0, 0, 19, 44.36449813842773
0, 0, 20, 140.7114105224609
0, 0, 21, 223.6486663818359
0, 0, 22, 249.1276092529297
0, 0, 23, 255.4311676025391
0, 0, 24, 251.422607421875
0, 0, 25, 258.6317749023438
0, 0, 26, 234.9497528076172
0, 0, 27, 237.8048248291016
0, 0, 28, 271.2189331054688
0, 0, 29, 252.9875030517578
0, 0, 30, 231.1649169921875
0, 0, 31, 243.2699737548828
0, 0, 32, 263.890869140625
0, 0, 33, 260.822509765625
0, 0, 34, 286.8220825195312
0, 0, 35, 267.8019409179688
0, 0, 36, 246.9473266601562
0, 0, 37, 252.2226715087891
0, 0, 38, 267.9481811523438
0, 0, 39, 228.1318817138672
0, 0, 40, 241.0809631347656
0, 0, 41, 267.0338439941406
0, 0, 42, 229.2142333984375
0, 0, 43, 260.868896484375
0, 0, 44, 250.7543334960938
0, 0, 45, 251.6425323486328
0, 0, 46, 244.7361907958984
0, 0, 47, 252.9502716064453
0, 0, 48, 266.866455078125
0, 0, 49, 273.0768127441406
0, 0, 50, 249.6473083496094
0, 0, 51, 255.874267578125
0, 0, 52, 274.9849243164062
0, 0, 53, 289.6701049804688
0, 0, 54, 242.1979064941406
0, 0, 55, 239.3379516601562
0, 0, 56, 277.3857116699219
0, 0, 57, 262.2378234863281
0, 0, 58, 245.1206817626953
0, 0, 59, 269.6513671875
0, 0, 60, 237.3045196533203
0, 0, 61, 245.5604705810547
0, 0, 62, 257.7606811523438
0, 0, 63, 266.5986938476562
0, 0, 64, 257.7159729003906
0, 0, 65, 262.4552307128906
0, 0, 66, 276.0545654296875
0, 0, 67, 246.4743194580078
0, 0, 68, 258.7628173828125
0, 0, 69, 261.9227600097656
0, 0, 70, 271.8024597167969
0, 0, 71, 238.6802215576172
0, 0, 72, 250.7547454833984
0, 0, 73, 260.2779846191406
0, 0, 74, 252.5898590087891
0, 0, 75, 239.8917694091797
0, 0, 76, 228.3122406005859
0, 0, 77, 259.245361328125
0, 0, 78, 255.2626037597656
0, 0, 79, 280.0962219238281
0, 0, 80, 217.3377380371094
0, 0, 81, 267.2064208984375
0, 0, 82, 255.6183166503906
0, 0, 83, 244.4854583740234
0, 0, 84, 267.6992797851562
0, 0, 85, 232.2315826416016
0, 0, 86, 252.3590240478516
0, 0, 87, 252.7138366699219
0, 0, 88, 261.4440307617188
0, 0, 89, 283.5144653320312
0, 0, 90, 244.4754943847656
0, 0, 91, 280.2732543945312
0, 0, 92, 254.5281372070312
0, 0, 93, 248.7008514404297
0, 0, 94, 248.6968231201172
0, 0, 95, 247.5032806396484
0, 0, 96, 276.5433654785156
0, 0, 97, 272.0830078125
0, 0, 98, 271.8704833984375
0, 0, 99, 259.1707153320312
0, 0, 100, 258.7590942382812
0, 0, 101, 227.4340362548828
0, 0, 102, 231.8033447265625
0, 0, 103, 268.5206298828125
0, 0, 104, 253.5893096923828
0, 0, 105, 253.5576477050781
0, 0, 106, 245.5285186767578
0, 0, 107, 153.6612854003906
0, 0, 108, 39.41633987426758
0, 0, 109, 12.58938503265381
0, 0, 110, 13.32760047912598
0, 0, 111, 9.104013442993164
0, 0, 112, 7.776401996612549
0, 0, 113, 5.485513687133789
0, 0, 114, 8.309651374816895
0, 0, 115, 3.976884365081787
0, 0, 116, 5.612151622772217
0, 0, 117, 5.44573450088501
0, 0, 118, 6.279201984405518
0, 0, 119, 3.407970428466797
0, 0, 120, 4.642287254333496
0, 0, 121, 4.810308933258057
0, 0, 122, 3.705002546310425
0, 0, 123, 3.197412014007568
0, 0, 124, 5.290374279022217
0, 0, 125, 2.42162013053894
0, 0, 126, 3.55124044418335
0, 0, 127, 2.577929735183716
0, 1, 0, 7.588793754577637
0, 1, 1, 2.590433597564697
0, 1, 2, 6.506229400634766
0, 1, 3, 3.10291862487793
0, 1, 4, 4.701672077178955
0, 1, 5, 4.067412376403809
0, 1, 6, 3.683197021484375
0, 1, 7, 6.786485195159912
0, 1, 8, 8.732430458068848
0, 1, 9, 5.365899562835693
0, 1, 10, 6.795448303222656
0, 1, 11, 12.47621440887451
0, 1, 12, 8.867544174194336
0, 1, 13, 9.684078216552734
0, 1, 14, 7.965490341186523
0, 1, 15, 7.395533561706543
0, 1, 16, 11.68057441711426
0, 1, 17, 12.06639862060547
0, 1, 18, 20.2076358795166
0, 1, 19, 67.07680511474609
0, 1, 20, 197.8343200683594
0, 1, 21, 253.7786712646484
0, 1, 22, 294.4146423339844
0, 1, 23, 287.0816345214844
0, 1, 24, 277.2723083496094
0, 1, 25, 286.201904296875
0, 1, 26, 267.1076965332031
0, 1, 27, 307.4563598632812
0, 1, 28, 297.8449401855469
0, 1, 29, 297.5586853027344
0, 1, 30, 280.8364562988281
0, 1, 31, 292.0320434570312
0, 1, 32, 291.9275512695312
0, 1, 33, 295.6270446777344
0, 1, 34, 294.2310180664062
0, 1, 35, 280.3105773925781
0, 1, 36, 308.13671875
0, 1, 37, 294.9540710449219
0, 1, 38, 280.3626403808594
0, 1, 39, 297.0547180175781
0, 1, 40, 267.8914489746094
0, 1, 41, 286.523681640625
0, 1, 42, 289.4539489746094
0, 1, 43, 332.1649169921875
0, 1, 44, 278.9832763671875
0, 1, 45, 292.4193420410156
0, 1, 46, 261.1087341308594
0, 1, 47, 311.001708984375
0, 1, 48, 285.0702819824219
0, 1, 49, 301.9765014648438
0, 1, 50, 263.5499877929688
0, 1, 51, 272.0345458984375
0, 1, 52, 296.6955261230469
0, 1, 53, 304.6698608398438
0, 1, 54, 274.6796875
0, 1, 55, 292.6928405761719
0, 1, 56, 280.1573486328125
0, 1, 57, 299.5709228515625
0, 1, 58, 314.1609497070312
0, 1, 59, 294.2806091308594
0, 1, 60, 298.9781494140625
0, 1, 61, 276.1004333496094
0, 1, 62, 306.9172058105469
0, 1, 63, 288.6256103515625
0, 1, 64, 288.6488647460938
0, 1, 65, 295.5668640136719
0, 1, 66, 292.6159057617188
0, 1, 67, 291.1192932128906
0, 1, 68, 278.2272033691406
0, 1, 69, 282.4416198730469
0, 1, 70, 270.6071166992188
0, 1, 71, 272.5782775878906
0, 1, 72, 284.5603637695312
0, 1, 73, 304.8902893066406
0, 1, 74, 302.916748046875
0, 1, 75, 290.8552551269531
0, 1, 76, 285.780029296875
0, 1, 77, 291.2935485839844
0, 1, 78, 296.3357543945312
0, 1, 79, 301.2345581054688
0, 1, 80, 295.2238464355469
0, 1, 81, 299.6744384765625
0, 1, 82, 283.8709106445312
0, 1, 83, 331.2526550292969
0, 1, 84, 307.6770629882812
0, 1, 85, 256.0689392089844
0, 1, 86, 293.4873352050781
0, 1, 87, 288.8252868652344
0, 1, 88, 297.0361328125
0, 1, 89, 290.62890625
0, 1, 90, 271.4790344238281
0, 1, 91, 318.464599609375
0, 1, 92, 289.1410522460938
0, 1, 93, 288.4823303222656
0, 1, 94, 304.7702941894531
0, 1, 95, 283.8100280761719
0, 1, 96, 282.0326232910156
0, 1, 97, 301.6584167480469
0, 1, 98, 280.5151672363281
0, 1, 99, 266.2189636230469
0, 1, 100, 276.5843505859375
0, 1, 101, 281.8099060058594
0, 1, 102, 277.8218688964844
0, 1, 103, 281.8077087402344
0, 1, 104, 305.3737487792969
0, 1, 105, 296.7581787109375
0, 1, 106, 263.4300231933594
0, 1, 107, 190.2090911865234
0, 1, 108, 80.50535583496094
0, 1, 109, 24.32460021972656
0, 1, 110, 10.75125503540039
0, 1, 111, 7.378303050994873
0, 1, 112, 12.44670486450195
0, 1, 113, 5.574244499206543
0, 1, 114, 6.102458000183105
0, 1, 115, 6.676414489746094
0, 1, 116, 11.02202796936035
0, 1, 117, 7.438870429992676
0, 1, 118, 4.690938949584961
0, 1, 119, 4.750264167785645
0, 1, 120, 7.470112800598145
0, 1, 121, 4.058608055114746
0, 1, 122, 3.905787706375122
0, 1, 123, 4.748129367828369
0, 1, 124, 9.476473808288574
0, 1, 125, 3.983025074005127
0, 1, 126, 2.840524196624756
0, 1, 127, 1.580535292625427
0, 2, 0, 3.27902364730835
0, 2, 1, 2.972305297851562
0, 2, 2, 2.61780047416687
0, 2, 3, 3.279316186904907
0, 2, 4, 3.393636465072632
0, 2, 5, 3.342798948287964
0, 2, 6, 2.199168682098389
0, 2, 7, 2.736268281936646
0, 2, 8, 4.993653774261475
0, 2, 9, 5.010807991027832
0, 2, 10, 8.008176803588867
0, 2, 11, 6.779423713684082
0, 2, 12, 6.550052642822266
0, 2, 13, 9.901012420654297
0, 2, 14, 9.700343132019043
0, 2, 15, 8.068906784057617
0, 2, 16, 9.551286697387695
0, 2, 17, 15.79170894622803
0, 2, 18, 29.41141510009766
0, 2, 19, 118.7653961181641
0, 2, 20, 246.8256225585938
0, 2, 21, 270.8728332519531
0, 2, 22, 317.4259338378906
0, 2, 23, 300.4118041992188
0, 2, 24, 286.175048828125
0, 2, 25, 302.9581604003906
0, 2, 26, 291.8928833007812
0, 2, 27, 275.6207885742188
0, 2, 28, 275.2930908203125
0, 2, 29, 273.2174987792969
0, 2, 30, 289.4331359863281
0, 2, 31, 276.1591796875
0, 2, 32, 293.961181640625
0, 2, 33, 282.3824462890625
0, 2, 34, 331.8190612792969
0, 2, 35, 289.3967590332031
0, 2, 36, 304.1213073730469
0, 2, 37, 319.6376342773438
0, 2, 38, 313.0822448730469
0, 2, 39, 266.1214904785156
0, 2, 40, 309.6428833007812
0, 2, 41, 291.7522277832031
0, 2, 42, 303.3145751953125
0, 2, 43, 313.2577514648438
0, 2, 44, 313.0262451171875
0, 2, 45, 324.6494750976562
0, 2, 46, 288.9815063476562
0, 2, 47, 303.7499389648438
0, 2, 48, 279.9571533203125
0, 2, 49, 277.8563842773438
0, 2, 50, 293.8576354980469
0, 2, 51, 284.5176696777344
0, 2, 52, 271.479736328125
0, 2, 53, 287.2635803222656
0, 2, 54, 281.4753723144531
0, 2, 55, 273.3688354492188
0, 2, 56, 301.0920104980469
0, 2, 57, 291.5020141601562
0, 2, 58, 304.215576171875
0, 2, 59, 289.6471252441406
0, 2, 60, 321.177490234375
0, 2, 61, 302.2254638671875
0, 2, 62, 313.1705932617188
0, 2, 63, 305.3305358886719
0, 2, 64, 295.9017028808594
0, 2, 65, 311.2955932617188
0, 2, 66, 278.5519409179688
0, 2, 67, 290.5989074707031
0, 2, 68, 297.9564514160156
0, 2, 69, 310.5218505859375
0, 2, 70, 334.8003540039062
0, 2, 71, 285.7832336425781
0, 2, 72, 302.6137390136719
0, 2, 73, 310.6085205078125
0, 2, 74, 285.8810424804688
0, 2, 75, 304.0530395507812
0, 2, 76, 288.0522155761719
0, 2, 77, 300.9702453613281
0, 2, 78, 316.0914611816406
0, 2, 79, 309.9037170410156
0, 2, 80, 298.7157287597656
0, 2, 81, 282.5046081542969
0, 2, 82, 317.7692260742188
0, 2, 83, 311.9188232421875
0, 2, 84, 288.6563110351562
0, 2, 85, 280.9750366210938
0, 2, 86, 325.323974609375
0, 2, 87, 289.5115661621094
0, 2, 88, 279.8722839355469
0, 2, 89, 294.0392761230469
0, 2, 90, 297.3856811523438
0, 2, 91, 277.2944946289062
0, 2, 92, 305.5711975097656
0, 2, 93, 316.8956909179688
0, 2, 94, 291.6159362792969
0, 2, 95, 315.4746398925781
0, 2, 96, 315.6101989746094
0, 2, 97, 292.2111511230469
0, 2, 98, 295.482421875
0, 2, 99, 275.8825073242188
0, 2, 100, 304.9307250976562
0, 2, 101, 300.5111083984375
0, 2, 102, 297.28271484375
0, 2, 103, 291.3502502441406
0, 2, 104, 293.5841064453125
0, 2, 105, 275.3800964355469
0, 2, 106, 296.2839965820312
0, 2, 107, 270.9274291992188
0, 2, 108, 116.2878799438477
0, 2, 109, 32.46201705932617
0, 2, 110, 9.487826347351074
0, 2, 111, 11.18710899353027
0, 2, 112, 7.555103302001953
0, 2, 113, 11.86093139648438
0, 2, 114, 8.477903366088867
0, 2, 115, 10.14663219451904
0, 2, 116, 9.063564300537109
0, 2, 117, 6.742241382598877
0, 2, 118, 4.869636535644531
0, 2, 119, 3.90945029258728
0, 2, 120, 6.761428833007812
0, 2, 121, 1.935182452201843
0, 2, 122, 3.860735416412354
0, 2, 123, 4.51765251159668
0, 2, 124, 4.960004329681396
0, 2, 125, 5.24177360534668
0, 2, 126, 2.807049512863159
0, 2, 127, 4.374651908874512
0, 3, 0, 2.110809326171875
0, 3, 1, 3.958349227905273
0, 3, 2, 4.791811466217041
0, 3, 3, 1.175779581069946
0, 3, 4, 3.873391389846802
0, 3, 5, 7.299111843109131
0, 3, 6, 7.414061069488525
0, 3, 7, 6.541145801544189
0, 3, 8, 5.729115009307861
0, 3, 9, 6.840606212615967
0, 3, 10, 5.886184692382812
0, 3, 11, 4.229548454284668
0, 3, 12, 7.089079856872559
0, 3, 13, 15.03560161590576
0, 3, 14, 11.67717266082764
0, 3, 15, 12.13432121276855
0, 3, 16, 10.38998889923096
0, 3, 17, 19.43928527832031
0, 3, 18, 51.97148132324219
0, 3, 19, 175.3630828857422
0, 3, 20, 269.0430603027344
0, 3, 21, 271.0817260742188
0, 3, 22, 281.4271240234375
0, 3, 23, 286.7300720214844
0, 3, 24, 286.2847900390625
0, 3, 25, 272.0972290039062
0, 3, 26, 304.6676635742188
0, 3, 27, 291.9371643066406
0, 3, 28, 284.1150207519531
0, 3, 29, 336.3015441894531
0, 3, 30, 316.0133972167969
0, 3, 31, 290.2896728515625
0, 3, 32, 306.4370422363281
0, 3, 33, 313.9517211914062
0, 3, 34, 321.2575073242188
0, 3, 35, 307.02783203125
0, 3, 36, 270.6460876464844
0, 3, 37, 314.4847106933594
0, 3, 38, 305.6405639648438
0, 3, 39, 292.1430358886719
0, 3, 40, 265.9147338867188
0, 3, 41, 299.5537414550781
0, 3, 42, 286.6416320800781
0, 3, 43, 304.9290466308594
0, 3, 44, 309.2569885253906
0, 3, 45, 290.3543090820312
0, 3, 46, 329.9576416015625
0, 3, 47, 300.0705261230469
0, 3, 48, 308.6558837890625
0, 3, 49, 275.7794799804688
0, 3, 50, 291.5563354492188
0, 3, 51, 276.5953369140625
0, 3, 52, 314.7022399902344
0, 3, 53, 293.7969055175781
0, 3, 54, 284.0978393554688
0, 3, 55, 282.7053833007812
0, 3, 56, 298.15087890625
0, 3, 57, 289.6646118164062
0, 3, 58, 306.1312255859375
0, 3, 59, 295.8910827636719
0, 3, 60, 298.9427185058594
0, 3, 61, 264.1641235351562
0, 3, 62, 286.02685546875
0, 3, 63, 307.9505310058594
0, 3, 64, 315.7513732910156
0, 3, 65, 304.7525329589844
0, 3, 66, 315.0995788574219
0, 3, 67, 318.5936889648438
0, 3, 68, 279.2986755371094
0, 3, 69, 281.0251159667969
0, 3, 70, 287.6286010742188
0, 3, 71, 298.4401245117188
0, 3, 72, 269.4506225585938
0, 3, 73, 308.0277709960938
0, 3, 74, 294.8916320800781
0, 3, 75, 291.4699401855469
0, 3, 76, 304.7044982910156
0, 3, 77, 314.6719665527344
0, 3, 78, 306.5213928222656
0, 3, 79, 281.5368957519531
0, 3, 80, 288.8726806640625
0, 3, 81, 311.3162841796875
0, 3, 82, 316.3040466308594
0, 3, 83, 299.65478515625
0, 3, 84, 310.9226989746094
0, 3, 85, 292.8259887695312
0, 3, 86, 303.1036987304688
0, 3, 87, 299.4617919921875
0, 3, 88, 299.2169189453125
0, 3, 89, 295.1865844726562
0, 3, 90, 274.6384887695312
0, 3, 91, 287.1385803222656
0, 3, 92, 304.6843566894531
0, 3, 93, 312.250244140625
0, 3, 94, 299.7527465820312
0, 3, 95, 336.4215698242188
0, 3, 96, 288.9608154296875
0, 3, 97, 281.0840759277344
0, 3, 98, 276.9956970214844
0, 3, 99, 263.5060729980469
0, 3, 100, 284.2064514160156
0, 3, 101, 295.2698364257812
0, 3, 102, 274.7877197265625
0, 3, 103, 320.7399291992188
0, 3, 104, 308.3639221191406
0, 3, 105, 289.8550720214844
0, 3, 106, 300.7626953125
0, 3, 107, 284.6017456054688
0, 3, 108, 168.2192535400391
0, 3, 109, 56.05479049682617
0, 3, 110, 20.80933570861816
0, 3, 111, 14.28234195709229
0, 3, 112, 12.33191585540771
0, 3, 113, 7.693676948547363
0, 3, 114, 10.80282497406006
0, 3, 115, 9.227768898010254
0, 3, 116, 8.203361511230469
0, 3, 117, 7.687236785888672
0, 3, 118, 8.728299140930176
0, 3, 119, 5.351181030273438
0, 3, 120, 4.850228786468506
0, 3, 121, 2.88021183013916
0, 3, 122, 4.050285339355469
0, 3, 123, 7.487838745117188
0, 3, 124, 4.305488586425781
0, 3, 125, 4.946767807006836
0, 3, 126, 6.511608123779297
0, 3, 127, 2.710506200790405
0, 4, 0, 2.004404067993164
0, 4, 1, 4.781178951263428
0, 4, 2, 3.091922760009766
0, 4, 3, 2.670523881912231
0, 4, 4, 4.737829208374023
0, 4, 5, 7.902141094207764
0, 4, 6, 8.253012657165527
0, 4, 7, 4.995796680450439
0, 4, 8, 4.264723777770996
0, 4, 9, 6.867313385009766
0, 4, 10, 7.278355121612549
0, 4, 11, 7.830183029174805
0, 4, 12, 7.497315883636475
0, 4, 13, 8.04013729095459
0, 4, 14, 10.87683868408203
0, 4, 15, 10.9304370880127
0, 4, 16, 13.49022006988525
0, 4, 17, 19.00383567810059
0, 4, 18, 91.18238830566406
0, 4, 19, 223.6338958740234
0, 4, 20, 283.8330993652344
0, 4, 21, 272.8850708007812
0, 4, 22, 305.0660095214844
0, 4, 23, 266.5282592773438
0, 4, 24, 289.1521606445312
0, 4, 25, 274.5160522460938
0, 4, 26, 296.9371948242188
0, 4, 27, 285.4227905273438
0, 4, 28, 307.354248046875
0, 4, 29, 321.6788330078125
0, 4, 30, 308.9829711914062
0, 4, 31, 303.8291931152344
0, 4, 32, 280.0750427246094
0, 4, 33, 296.3771667480469
0, 4, 34, 298.4716186523438
0, 4, 35, 312.1786193847656
0, 4, 36, 292.123291015625
0, 4, 37, 287.9977722167969
0, 4, 38, 297.30419921875
0, 4, 39, 295.6238403320312
0, 4, 40, 302.94287109375
0, 4, 41, 312.1733093261719
0, 4, 42, 329.3408203125
0, 4, 43, 294.5409240722656
0, 4, 44, 320.9880676269531
0, 4, 45, 324.4406127929688
0, 4, 46, 306.1543579101562
0, 4, 47, 292.5574035644531
0, 4, 48, 294.921142578125
0, 4, 49, 278.7882690429688
0, 4, 50, 297.3148498535156
0, 4, 51, 315.0843811035156
0, 4, 52, 328.5164794921875
0, 4, 53, 305.7579956054688
0, 4, 54, 287.6475524902344
0, 4, 55, 314.5104675292969
0, 4, 56, 285.5849304199219
0, 4, 57, 307.8780212402344
0, 4, 58, 294.5238952636719
0, 4, 59, 307.6732788085938
0, 4, 60, 300.8628540039062
0, 4, 61, 315.4755554199219
0, 4, 62, 311.0808410644531
0, 4, 63, 299.4252014160156
0, 4, 64, 329.7265625
0, 4, 65, 317.0776672363281
0, 4, 66, 293.6407775878906
0, 4, 67, 287.1458740234375
0, 4, 68, 312.1427307128906
0, 4, 69, 276.5277709960938
0, 4, 70, 300.1920166015625
0, 4, 71, 322.1571350097656
0, 4, 72, 333.5504150390625
0, 4, 73, 302.6835021972656
0, 4, 74, 294.0015563964844
0, 4, 75, 292.2969970703125
0, 4, 76, 275.6149597167969
0, 4, 77, 277.8952331542969
0, 4, 78, 307.8231506347656
0, 4, 79, 321.4622497558594
0, 4, 80, 314.8636779785156
0, 4, 81, 312.3746032714844
0, 4, 82, 297.7647094726562
0, 4, 83, 302.0025939941406
0, 4, 84, 290.0437622070312
0, 4, 85, 296.9469909667969
0, 4, 86, 300.251220703125
0, 4, 87, 285.3175048828125
0, 4, 88, 306.6037902832031
0, 4, 89, 294.097412109375
0, 4, 90, 332.4238891601562
0, 4, 91, 302.3760375976562
0, 4, 92, 290.2567749023438
0, 4, 93, 297.0028076171875
0, 4, 94, 292.3265686035156
0, 4, 95, 288.3194885253906
0, 4, 96, 323.3701477050781
0, 4, 97, 275.6501159667969
0, 4, 98, 327.3895874023438
0, 4, 99, 313.5173034667969
0, 4, 100, 300.1259765625
0, 4, 101, 256.1023254394531
0, 4, 102, 295.6727294921875
0, 4, 103, 317.7107543945312
0, 4, 104, 282.1101989746094
0, 4, 105, 310.0870971679688
0, 4, 106, 286.6438293457031
0, 4, 107, 293.4691162109375
0, 4, 108, 226.6138610839844
0, 4, 109, 80.44967651367188
0, 4, 110, 19.13813972473145
0, 4, 111, 13.50271320343018
0, 4, 112, 10.29595184326172
0, 4, 113, 12.31620025634766
0, 4, 114, 7.462652683258057
0, 4, 115, 9.004830360412598
0, 4, 116, 9.491535186767578
0, 4, 117, 7.844786167144775
0, 4, 118, 8.983732223510742
0, 4, 119, 10.57515430450439
0, 4, 120, 7.831312656402588
0, 4, 121, 6.461971282958984
0, 4, 122, 4.545165538787842
0, 4, 123, 6.400353908538818
0, 4, 124, 4.819370746612549
0, 4, 125, 11.31919288635254
0, 4, 126, 4.129301071166992
0, 4, 127, 6.289435386657715
0, 5, 0, 6.077216148376465
0, 5, 1, 2.404528141021729
0, 5, 2, 4.826945304870605
0, 5, 3, 5.695801734924316
0, 5, 4, 6.004151821136475
0, 5, 5, 8.162408828735352
0, 5, 6, 9.557905197143555
0, 5, 7, 5.869351387023926
0, 5, 8, 5.118117809295654
0, 5, 9, 5.433963298797607
0, 5, 10, 8.71230411529541
0, 5, 11, 8.760044097900391
0, 5, 12, 7.935065746307373
0, 5, 13, 6.723896026611328
0, 5, 14, 12.53993797302246
0, 5, 15, 15.19571113586426
0, 5, 16, 14.77172088623047
0, 5, 17, 30.90958786010742
0, 5, 18, 138.0076141357422
0, 5, 19, 288.4517211914062
0, 5, 20, 308.0862121582031
0, 5, 21, 316.4072570800781
0, 5, 22, 275.3965454101562
0, 5, 23, 311.8341674804688
0, 5, 24, 303.9656982421875
0, 5, 25, 291.5997619628906
0, 5, 26, 293.6906127929688
0, 5, 27, 323.35546875
0, 5, 28, 303.1618957519531
0, 5, 29, 299.3963317871094
0, 5, 30, 325.119384765625
0, 5, 31, 285.7591552734375
0, 5, 32, 300.9186401367188
0, 5, 33, 305.5939025878906
0, 5, 34, 295.6408081054688
0, 5, 35, 310.4438781738281
0, 5, 36, 272.7449340820312
0, 5, 37, 280.4122314453125
0, 5, 38, 292.44287109375
0, 5, 39, 311.9912719726562
0, 5, 40, 309.0674743652344
0, 5, 41, 275.9350280761719
0, 5, 42, 304.5374145507812
0, 5, 43, 314.4161071777344
0, 5, 44, 291.5447998046875
0, 5, 45, 300.7452087402344
0, 5, 46, 266.1746215820312
0, 5, 47, 279.0236206054688
0, 5, 48, 294.3702392578125
0, 5, 49, 285.2967224121094
0, 5, 50, 293.8628234863281
0, 5, 51, 278.76611328125
0, 5, 52, 269.2012023925781
0, 5, 53, 284.1636657714844
0, 5, 54, 291.4479064941406
0, 5, 55, 343.6541137695312
0, 5, 56, 305.8180847167969
0, 5, 57, 306.1435241699219
0, 5, 58, 312.7832641601562
0, 5, 59, 305.7658386230469
0, 5, 60, 307.5713500976562
0, 5, 61, 280.8851928710938
0, 5, 62, 325.9932250976562
0, 5, 63, 290.7113952636719
0, 5, 64, 323.0962524414062
0, 5, 65, 305.1764526367188
0, 5, 66, 328.15869140625
0, 5, 67, 310.5326538085938
0, 5, 68, 310.4916381835938
0, 5, 69, 313.7791748046875
0, 5, 70, 301.5356140136719
0, 5, 71, 272.5975036621094
0, 5, 72, 313.2145385742188
0, 5, 73, 303.1711730957031
0, 5, 74, 295.7018737792969
0, 5, 75, 291.6756286621094
0, 5, 76, 285.7288818359375
0, 5, 77, 300.0479431152344
0, 5, 78, 313.8945922851562
0, 5, 79, 308.326171875
0, 5, 80, 294.3682250976562
0, 5, 81, 325.4014282226562
0, 5, 82, 328.8971252441406
0, 5, 83, 283.2236938476562
0, 5, 84, 303.6633911132812
0, 5, 85, 270.3260498046875
0, 5, 86, 325.83642578125
0, 5, 87, 285.1429443359375
0, 5, 88, 313.5750122070312
0, 5, 89, 306.0270690917969
0, 5, 90, 316.5968627929688
0, 5, 91, 314.4303283691406
0, 5, 92, 295.2926635742188
0, 5, 93, 321.8549499511719
0, 5, 94, 308.8354187011719
0, 5, 95, 297.07275390625
0, 5, 96, 296.1590270996094
0, 5, 97, 295.9728698730469
0, 5, 98, 319.9394226074219
0, 5, 99, 301.0848693847656
0, 5, 100, 290.9809265136719
0, 5, 101, 304.6824951171875
0, 5, 102, 292.1258544921875
0, 5, 103, 315.8851928710938
0, 5, 104, 304.9384765625
0, 5, 105, 291.5147399902344
0, 5, 106, 282.0509338378906
0, 5, 107, 293.8366088867188
0, 5, 108, 264.8928527832031
0, 5, 109, 157.6223602294922
0, 5, 110, 39.63644409179688
0, 5, 111, 19.72401428222656
0, 5, 112, 16.56890678405762
0, 5, 113, 18.01370429992676
0, 5, 114, 11.08088779449463
0, 5, 115, 8.089049339294434
0, 5, 116, 8.890490531921387
0, 5, 117, 11.4066333770752
0, 5, 118, 12.19132995605469
0, 5, 119, 2.624772310256958
0, 5, 120, 5.2499098777771
0, 5, 121, 5.371068477630615
0, 5, 122, 5.948875427246094
0, 5, 123, 8.178296089172363
0, 5, 124, 6.249146461486816
0, 5, 125, 3.332651376724243
0, 5, 126, 5.663391590118408
0, 5, 127, 3.894177436828613
0, 6, 0, 9.178292274475098
0, 6, 1, 4.205016136169434
0, 6, 2, 3.280460357666016
0, 6, 3, 5.357689380645752
0, 6, 4, 2.697925567626953
0, 6, 5, 4.64724063873291
0, 6, 6, 6.163704395294189
0, 6, 7, 6.04240894317627
0, 6, 8, 6.60346794128418
0, 6, 9, 4.468895435333252
0, 6, 10, 8.063026428222656
0, 6, 11, 9.579389572143555
0, 6, 12, 9.492424964904785
0, 6, 13, 16.3557071685791
0, 6, 14, 8.933369636535645
0, 6, 15, 15.77734661102295
0, 6, 16, 30.84690856933594
0, 6, 17, 56.78058624267578
0, 6, 18, 173.0462493896484
0, 6, 19, 277.4907836914062
0, 6, 20, 292.4721374511719
0, 6, 21, 313.8924865722656
0, 6, 22, 321.9550170898438
0, 6, 23, 306.7290649414062
0, 6, 24, 316.4151000976562
0, 6, 25, 316.3798828125
0, 6, 26, 319.0755920410156
0, 6, 27, 330.2219848632812
0, 6, 28, 297.0279541015625
0, 6, 29, 328.4753723144531
0, 6, 30, 283.1676025390625
0, 6, 31, 287.3680419921875
0, 6, 32, 341.8312377929688
0, 6, 33, 303.10791015625
0, 6, 34, 339.7835998535156
0, 6, 35, 320.8529968261719
0, 6, 36, 273.7241821289062
0, 6, 37, 287.4368591308594
0, 6, 38, 311.4302062988281
0, 6, 39, 299.5938720703125
0, 6, 40, 283.7710266113281
0, 6, 41, 297.7600708007812
0, 6, 42, 304.6901550292969
0, 6, 43, 287.85986328125
0, 6, 44, 281.0689086914062
0, 6, 45, 318.4014892578125
0, 6, 46, 302.4924621582031
0, 6, 47, 333.3990478515625
0, 6, 48, 291.9580383300781
0, 6, 49, 310.6978759765625
0, 6, 50, 328.8773803710938
0, 6, 51, 309.9675903320312
0, 6, 52, 321.5202331542969
0, 6, 53, 326.8048706054688
0, 6, 54, 300.5794982910156
0, 6, 55, 306.0308837890625
0, 6, 56, 295.2201538085938
0, 6, 57, 314.5628356933594
0, 6, 58, 261.7303771972656
0, 6, 59, 305.480712890625
0, 6, 60, 311.9613647460938
0, 6, 61, 271.4600524902344
0, 6, 62, 333.818359375
0, 6, 63, 322.8027954101562
0, 6, 64, 291.5793151855469
0, 6, 65, 289.3792419433594
0, 6, 66, 303.6213989257812
0, 6, 67, 309.3218383789062
0, 6, 68, 295.0192260742188
0, 6, 69, 277.3865356445312
0, 6, 70, 274.0546264648438
0, 6, 71, 288.4116821289062
0, 6, 72, 311.7396545410156
0, 6, 73, 293.9712524414062
0, 6, 74, 330.5879516601562
0, 6, 75, 344.3272705078125
0, 6, 76, 298.0223388671875
0, 6, 77, 285.4680786132812
0, 6, 78, 278.6134643554688
0, 6, 79, 291.4296264648438
0, 6, 80, 299.5593872070312
0, 6, 81, 316.8448486328125
0, 6, 82, 318.4138488769531
0, 6, 83, 320.3737487792969
0, 6, 84, 296.7944030761719
0, 6, 85, 301.2282104492188
0, 6, 86, 330.8081359863281
0, 6, 87, 295.9586181640625
0, 6, 88, 305.7166137695312
0, 6, 89, 305.5816345214844
0, 6, 90, 300.5194396972656
0, 6, 91, 312.9481811523438
0, 6, 92, 284.1294860839844
0, 6, 93, 294.3475036621094
0, 6, 94, 274.5938720703125
0, 6, 95, 298.792724609375
0, 6, 96, 346.4512634277344
0, 6, 97, 306.9978637695312
0, 6, 98, 301.3942565917969
0, 6, 99, 274.5128784179688
0, 6, 100, 311.4967041015625
0, 6, 101, 293.1778869628906
0, 6, 102, 306.9609069824219
0, 6, 103, 307.8120727539062
0, 6, 104, 290.9844970703125
0, 6, 105, 301.0698852539062
0, 6, 106, 306.7069396972656
0, 6, 107, 305.3904724121094
0, 6, 108, 266.0268249511719
0, 6, 109, 186.4772186279297
0, 6, 110, 54.36159515380859
0, 6, 111, 20.66213417053223
0, 6, 112, 15.25396823883057
0, 6, 113, 10.10596561431885
0, 6, 114, 11.96479320526123
0, 6, 115, 12.33165645599365
0, 6, 116, 8.974813461303711
0, 6, 117, 10.07998847961426
0, 6, 118, 10.51448059082031
0, 6, 119, 9.50804615020752
0, 6, 120, 6.361746788024902
0, 6, 121, 4.93289852142334
0, 6, 122, 5.88105583190918
0, 6, 123, 4.760924816131592
0, 6, 124, 5.93513822555542
0, 6, 125, 7.4104323387146
0, 6, 126, 4.759601593017578
0, 6, 127, 7.282194137573242
0, 7, 0, 4.157076835632324
0, 7, 1, 4.547607421875
0, 7, 2, 4.573220729827881
0, 7, 3, 6.011166095733643
0, 7, 4, 6.336557388305664
0, 7, 5, 5.874850273132324
0, 7, 6, 6.640459060668945
0, 7, 7, 6.039368152618408
0, 7, 8, 4.916999340057373
0, 7, 9, 5.483688831329346
0, 7, 10, 10.10487651824951
0, 7, 11, 11.54848766326904
0, 7, 12, 10.73530197143555
0, 7, 13, 10.96188640594482
0, 7, 14, 10.23462867736816
0, 7, 15, 16.84336280822754
0, 7, 16, 27.74320602416992
0, 7, 17, 97.44886779785156
0, 7, 18, 217.9601593017578
0, 7, 19, 290.7847595214844
0, 7, 20, 295.296630859375
0, 7, 21, 277.2546081542969
0, 7, 22, 298.2244262695312
0, 7, 23, 289.0326232910156
0, 7, 24, 314.1490783691406
0, 7, 25, 325.8803100585938
0, 7, 26, 278.3829956054688
0, 7, 27, 296.4460754394531
0, 7, 28, 324.487548828125
0, 7, 29, 317.5675659179688
0, 7, 30, 300.8121643066406
0, 7, 31, 278.7550659179688
0, 7, 32, 304.7242126464844
0, 7, 33, 264.2453918457031
0, 7, 34, 297.6844177246094
0, 7, 35, 319.7056579589844
0, 7, 36, 329.6148681640625
0, 7, 37, 322.7768249511719
0, 7, 38, 294.6588745117188
0, 7, 39, 306.4642333984375
0, 7, 40, 290.4108276367188
0, 7, 41, 270.4570617675781
0, 7, 42, 305.1009826660156
0, 7, 43, 275.2329406738281
0, 7, 44, 302.7569580078125
0, 7, 45, 294.8630981445312
0, 7, 46, 281.7341613769531
0, 7, 47, 327.7838134765625
0, 7, 48, 284.7168579101562
0, 7, 49, 303.6123046875
0, 7, 50, 321.7422790527344
0, 7, 51, 299.3026733398438
0, 7, 52, 328.1015625
0, 7, 53, 310.8544311523438
0, 7, 54, 322.5386047363281
0, 7, 55, 307.0663757324219
0, 7, 56, 279.6542663574219
0, 7, 57, 281.8643798828125
0, 7, 58, 296.1593627929688
0, 7, 59, 295.4727478027344
0, 7, 60, 323.5115966796875
0, 7, 61, 277.8397216796875
0, 7, 62, 297.615478515625
0, 7, 63, 295.3011169433594
0, 7, 64, 306.6760864257812
0, 7, 65, 330.1831665039062
0, 7, 66, 319.6148376464844
0, 7, 67, 304.4706726074219
0, 7, 68, 280.7842102050781
0, 7, 69, 295.4322204589844
0, 7, 70, 305.3044738769531
0, 7, 71, 310.8931274414062
0, 7, 72, 285.8570861816406
0, 7, 73, 298.0276184082031
0, 7, 74, 343.6325988769531
0, 7, 75, 319.471923828125
0, 7, 76, 322.1996459960938
0, 7, 77, 280.7544860839844
0, 7, 78, 298.9232788085938
0, 7, 79, 299.1584777832031
0, 7, 80, 314.0785217285156
0, 7, 81, 320.4588928222656
0, 7, 82, 327.4562072753906
0, 7, 83, 315.6123352050781
0, 7, 84, 309.7296142578125
0, 7, 85, 272.2510986328125
0, 7, 86, 311.4160766601562
0, 7, 87, 312.6814880371094
0, 7, 88, 306.8185424804688
0, 7, 89, 293.7135009765625
0, 7, 90, 306.0709533691406
0, 7, 91, 314.2112731933594
0, 7, 92, 287.7439575195312
0, 7, 93, 308.1447448730469
0, 7, 94, 272.7871398925781
0, 7, 95, 299.1692504882812
0, 7, 96, 329.7061767578125
0, 7, 97, 294.4057006835938
0, 7, 98, 289.7547607421875
0, 7, 99, 311.4765014648438
0, 7, 100, 281.7935485839844
0, 7, 101, 275.3427124023438
0, 7, 102, 290.5661010742188
0, 7, 103, 294.5809936523438
0, 7, 104, 275.2815856933594
0, 7, 105, 306.2904357910156
0, 7, 106, 319.7940063476562
0, 7, 107, 295.7999877929688
0, 7, 108, 273.5398864746094
0, 7, 109, 234.4736022949219
0, 7, 110, 96.87549591064453
0, 7, 111, 23.93600082397461
0, 7, 112, 12.298020362854
0, 7, 113, 15.47423076629639
0, 7, 114, 13.74020767211914
0, 7, 115, 11.20587635040283
0, 7, 116, 8.351163864135742
0, 7, 117, 5.463133335113525
0, 7, 118, 11.63954257965088
0, 7, 119, 7.643104076385498
0, 7, 120, 4.81702709197998
0, 7, 121, 5.843877792358398
0, 7, 122, 7.011390209197998
0, 7, 123, 6.396688938140869
0, 7, 124, 3.842444896697998
0, 7, 125, 6.547362804412842
0, 7, 126, 8.758556365966797
0, 7, 127, 4.319926738739014
0, 8, 0, 5.133677959442139
0, 8, 1, 5.38381290435791
0, 8, 2, 3.747570037841797
0, 8, 3, 1.96713650226593
0, 8, 4, 5.471982955932617
0, 8, 5, 3.285782814025879
0, 8, 6, 6.448392868041992
0, 8, 7, 4.796409606933594
0, 8, 8, 9.519014358520508
0, 8, 9, 4.599522113800049
0, 8, 10, 7.97535514831543
0, 8, 11, 10.57890129089355
0, 8, 12, 14.28975296020508
0, 8, 13, 14.97512054443359
0, 8, 14, 11.8138599395752
0, 8, 15, 19.13260269165039
0, 8, 16, 35.27783966064453
0, 8, 17, 130.2129821777344
0, 8, 18, 243.3011932373047
0, 8, 19, 295.1956176757812
0, 8, 20, 283.9717712402344
0, 8, 21, 306.3385314941406
0, 8, 22, 297.1906127929688
0, 8, 23, 274.6287841796875
0, 8, 24, 269.2817687988281
0, 8, 25, 278.6094665527344
0, 8, 26, 305.762451171875
0, 8, 27, 308.9354858398438
0, 8, 28, 304.9450378417969
0, 8, 29, 321.9462585449219
0, 8, 30, 313.4941101074219
0, 8, 31, 302.4102783203125
0, 8, 32, 280.153564453125
0, 8, 33, 293.0947875976562
0, 8, 34, 287.74462890625
0, 8, 35, 280.0833740234375
0, 8, 36, 318.1106872558594
0, 8, 37, 339.3905334472656
0, 8, 38, 333.8804931640625
0, 8, 39, 280.0152893066406
