# TOPAS Version: 3.1.p3
# Parameter File: batch_inserts_10.txt
# Results for scorer Readout_Adipose
# Scored in component: MyBox
# X in 1 bin  of 0.75 cm
# Y in 512 bins of 0.0783984 cm
# Z in 128 bins of 0.078125 cm
# EnergyDeposit ( MeV ) : Sum   
0, 0, 0, 4.430933952331543
0, 0, 1, 1.856980681419373
0, 0, 2, 4.87997579574585
0, 0, 3, 1.097354054450989
0, 0, 4, 4.781108379364014
0, 0, 5, 2.683367967605591
0, 0, 6, 7.110950946807861
0, 0, 7, 7.600452899932861
0, 0, 8, 4.328224658966064
0, 0, 9, 5.411916255950928
0, 0, 10, 7.326175212860107
0, 0, 11, 4.153624534606934
0, 0, 12, 4.230717182159424
0, 0, 13, 6.890868186950684
0, 0, 14, 7.98514461517334
0, 0, 15, 10.56240081787109
0, 0, 16, 8.08528995513916
0, 0, 17, 11.08133029937744
0, 0, 18, 13.2105131149292
0, 0, 19, 43.35104370117188
0, 0, 20, 138.6192321777344
0, 0, 21, 224.3775939941406
0, 0, 22, 249.6992950439453
0, 0, 23, 257.1747436523438
0, 0, 24, 252.0122833251953
0, 0, 25, 258.2417602539062
0, 0, 26, 235.545166015625
0, 0, 27, 238.5216979980469
0, 0, 28, 271.755126953125
0, 0, 29, 251.3772583007812
0, 0, 30, 230.0022430419922
0, 0, 31, 243.8750457763672
0, 0, 32, 263.2125244140625
0, 0, 33, 260.6097412109375
0, 0, 34, 286.9191284179688
0, 0, 35, 267.4869384765625
0, 0, 36, 246.1472015380859
0, 0, 37, 253.2353820800781
0, 0, 38, 268.0980224609375
0, 0, 39, 229.8809967041016
0, 0, 40, 241.3714294433594
0, 0, 41, 264.4293823242188
0, 0, 42, 227.8079833984375
0, 0, 43, 260.8471984863281
0, 0, 44, 251.2557678222656
0, 0, 45, 252.5980529785156
0, 0, 46, 244.4484405517578
0, 0, 47, 253.2586517333984
0, 0, 48, 266.7044372558594
0, 0, 49, 273.840087890625
0, 0, 50, 250.1980743408203
0, 0, 51, 253.0742797851562
0, 0, 52, 272.1319580078125
0, 0, 53, 291.4231567382812
0, 0, 54, 241.6684265136719
0, 0, 55, 239.5632629394531
0, 0, 56, 276.574462890625
0, 0, 57, 262.8782653808594
0, 0, 58, 245.5967712402344
0, 0, 59, 273.2530822753906
0, 0, 60, 234.6341400146484
0, 0, 61, 245.8202514648438
0, 0, 62, 256.85498046875
0, 0, 63, 265.8616943359375
0, 0, 64, 254.4737396240234
0, 0, 65, 260.3787231445312
0, 0, 66, 276.6860961914062
0, 0, 67, 246.7010345458984
0, 0, 68, 258.947265625
0, 0, 69, 262.2129821777344
0, 0, 70, 271.7560119628906
0, 0, 71, 237.2819213867188
0, 0, 72, 252.0748443603516
0, 0, 73, 256.8265075683594
0, 0, 74, 252.6728820800781
0, 0, 75, 240.3334655761719
0, 0, 76, 231.1807708740234
0, 0, 77, 259.5245666503906
0, 0, 78, 255.1885986328125
0, 0, 79, 277.8284912109375
0, 0, 80, 216.4906768798828
0, 0, 81, 267.8094787597656
0, 0, 82, 257.4323120117188
0, 0, 83, 246.8197326660156
0, 0, 84, 270.3759460449219
0, 0, 85, 232.9286041259766
0, 0, 86, 252.2171020507812
0, 0, 87, 250.6790924072266
0, 0, 88, 260.5317687988281
0, 0, 89, 285.3003540039062
0, 0, 90, 244.7608032226562
0, 0, 91, 281.2059020996094
0, 0, 92, 255.9654235839844
0, 0, 93, 249.353759765625
0, 0, 94, 248.5048217773438
0, 0, 95, 247.3306274414062
0, 0, 96, 274.3653869628906
0, 0, 97, 271.6305847167969
0, 0, 98, 272.9485473632812
0, 0, 99, 260.1209716796875
0, 0, 100, 258.7627258300781
0, 0, 101, 225.7015838623047
0, 0, 102, 234.7830047607422
0, 0, 103, 271.1402282714844
0, 0, 104, 255.2693481445312
0, 0, 105, 251.7942810058594
0, 0, 106, 246.6036529541016
0, 0, 107, 152.8119354248047
0, 0, 108, 38.09453201293945
0, 0, 109, 11.75045776367188
0, 0, 110, 13.71798992156982
0, 0, 111, 8.616104125976562
0, 0, 112, 6.491613864898682
0, 0, 113, 5.254820823669434
0, 0, 114, 6.307994842529297
0, 0, 115, 5.537726879119873
0, 0, 116, 7.12708044052124
0, 0, 117, 5.149560928344727
0, 0, 118, 5.580962181091309
0, 0, 119, 5.553033828735352
0, 0, 120, 2.510799884796143
0, 0, 121, 3.493101119995117
0, 0, 122, 3.050257205963135
0, 0, 123, 3.768998622894287
0, 0, 124, 6.957522392272949
0, 0, 125, 1.771394968032837
0, 0, 126, 3.365804672241211
0, 0, 127, 5.604276180267334
0, 1, 0, 5.676779270172119
0, 1, 1, 2.934743165969849
0, 1, 2, 3.681546688079834
0, 1, 3, 2.987004041671753
0, 1, 4, 3.052415609359741
0, 1, 5, 2.416998863220215
0, 1, 6, 3.87952446937561
0, 1, 7, 5.060662746429443
0, 1, 8, 6.694272041320801
0, 1, 9, 3.558494091033936
0, 1, 10, 7.825185775756836
0, 1, 11, 11.1262731552124
0, 1, 12, 8.109643936157227
0, 1, 13, 8.92275333404541
0, 1, 14, 7.824511528015137
0, 1, 15, 7.992955684661865
0, 1, 16, 13.15672969818115
0, 1, 17, 11.35802745819092
0, 1, 18, 20.61499214172363
0, 1, 19, 67.51712799072266
0, 1, 20, 200.1533050537109
0, 1, 21, 254.7684326171875
0, 1, 22, 298.6613159179688
0, 1, 23, 283.0507202148438
0, 1, 24, 274.1672058105469
0, 1, 25, 291.9119567871094
0, 1, 26, 268.417724609375
0, 1, 27, 306.2206420898438
0, 1, 28, 299.6882934570312
0, 1, 29, 295.7287292480469
0, 1, 30, 282.3616943359375
0, 1, 31, 292.7220153808594
0, 1, 32, 290.4405822753906
0, 1, 33, 295.6702575683594
0, 1, 34, 292.5474548339844
0, 1, 35, 278.9461669921875
0, 1, 36, 309.0524597167969
0, 1, 37, 294.7972412109375
0, 1, 38, 282.0680236816406
0, 1, 39, 296.3919982910156
0, 1, 40, 266.3639221191406
0, 1, 41, 287.5877380371094
0, 1, 42, 290.0953369140625
0, 1, 43, 333.8896789550781
0, 1, 44, 277.2574462890625
0, 1, 45, 292.1007080078125
0, 1, 46, 259.9891967773438
0, 1, 47, 309.79052734375
0, 1, 48, 283.6405639648438
0, 1, 49, 301.4894104003906
0, 1, 50, 263.3290710449219
0, 1, 51, 271.7837524414062
0, 1, 52, 298.1829528808594
0, 1, 53, 305.796875
0, 1, 54, 274.4611511230469
0, 1, 55, 293.3268432617188
0, 1, 56, 277.6586608886719
0, 1, 57, 299.1603393554688
0, 1, 58, 311.2566528320312
0, 1, 59, 290.9241638183594
0, 1, 60, 296.7969055175781
0, 1, 61, 275.9482116699219
0, 1, 62, 310.5697937011719
0, 1, 63, 285.1649475097656
0, 1, 64, 287.84912109375
0, 1, 65, 295.5047607421875
0, 1, 66, 292.9877319335938
0, 1, 67, 294.8299560546875
0, 1, 68, 277.3931884765625
0, 1, 69, 281.0916748046875
0, 1, 70, 269.8631591796875
0, 1, 71, 272.9699401855469
0, 1, 72, 288.4341125488281
0, 1, 73, 305.575439453125
0, 1, 74, 304.2268981933594
0, 1, 75, 293.5474853515625
0, 1, 76, 284.821533203125
0, 1, 77, 287.7269287109375
0, 1, 78, 296.8408203125
0, 1, 79, 303.0479125976562
0, 1, 80, 297.8133239746094
0, 1, 81, 301.941650390625
0, 1, 82, 282.5874633789062
0, 1, 83, 331.9244995117188
0, 1, 84, 308.8787841796875
0, 1, 85, 256.6307678222656
0, 1, 86, 293.5943908691406
0, 1, 87, 290.0476989746094
0, 1, 88, 297.7988586425781
0, 1, 89, 291.8100891113281
0, 1, 90, 272.2471618652344
0, 1, 91, 318.3733520507812
0, 1, 92, 292.4254760742188
0, 1, 93, 286.0276489257812
0, 1, 94, 302.7894897460938
0, 1, 95, 283.7528686523438
0, 1, 96, 284.4814453125
0, 1, 97, 300.6171875
0, 1, 98, 279.7280883789062
0, 1, 99, 266.797119140625
0, 1, 100, 279.0798034667969
0, 1, 101, 280.6268310546875
0, 1, 102, 277.0383605957031
0, 1, 103, 281.3096313476562
0, 1, 104, 305.7330932617188
0, 1, 105, 296.3103332519531
0, 1, 106, 260.8356018066406
0, 1, 107, 192.99951171875
0, 1, 108, 82.57288360595703
0, 1, 109, 24.23397445678711
0, 1, 110, 11.01823711395264
0, 1, 111, 8.78632926940918
0, 1, 112, 10.56196784973145
0, 1, 113, 5.357288837432861
0, 1, 114, 8.413290023803711
0, 1, 115, 6.593340873718262
0, 1, 116, 11.34331512451172
0, 1, 117, 4.652421474456787
0, 1, 118, 3.585559844970703
0, 1, 119, 6.116852760314941
0, 1, 120, 4.572352409362793
0, 1, 121, 5.584672927856445
0, 1, 122, 4.913058757781982
0, 1, 123, 4.125216960906982
0, 1, 124, 8.985495567321777
0, 1, 125, 4.557643413543701
0, 1, 126, 2.192343473434448
0, 1, 127, 2.278977632522583
0, 2, 0, 3.523857355117798
0, 2, 1, 5.839914321899414
0, 2, 2, 5.083067417144775
0, 2, 3, 3.788430690765381
0, 2, 4, 3.321264505386353
0, 2, 5, 2.391495227813721
0, 2, 6, 4.60277271270752
0, 2, 7, 3.441564798355103
0, 2, 8, 5.347588062286377
0, 2, 9, 6.222961902618408
0, 2, 10, 9.238306045532227
0, 2, 11, 6.928990840911865
0, 2, 12, 6.099040508270264
0, 2, 13, 10.98501491546631
0, 2, 14, 10.42151832580566
0, 2, 15, 7.926281452178955
0, 2, 16, 8.344085693359375
0, 2, 17, 16.08251190185547
0, 2, 18, 33.91019821166992
0, 2, 19, 118.16748046875
0, 2, 20, 245.3059692382812
0, 2, 21, 270.6332092285156
0, 2, 22, 315.518310546875
0, 2, 23, 300.2550964355469
0, 2, 24, 287.0097045898438
0, 2, 25, 301.4403686523438
0, 2, 26, 292.3663940429688
0, 2, 27, 275.8138122558594
0, 2, 28, 272.4277954101562
0, 2, 29, 274.1440734863281
0, 2, 30, 290.9200439453125
0, 2, 31, 279.2263793945312
0, 2, 32, 292.6583251953125
0, 2, 33, 284.0796508789062
0, 2, 34, 332.1944580078125
0, 2, 35, 291.069091796875
0, 2, 36, 303.5452270507812
0, 2, 37, 314.2268981933594
0, 2, 38, 309.4385681152344
0, 2, 39, 266.5787963867188
0, 2, 40, 307.0640258789062
0, 2, 41, 291.788818359375
0, 2, 42, 303.4930419921875
0, 2, 43, 312.5708618164062
0, 2, 44, 313.8370361328125
0, 2, 45, 327.5340881347656
0, 2, 46, 287.7785339355469
0, 2, 47, 303.1839599609375
0, 2, 48, 282.8035583496094
0, 2, 49, 281.3153076171875
0, 2, 50, 294.4359436035156
0, 2, 51, 285.5125122070312
0, 2, 52, 269.7143249511719
0, 2, 53, 287.6821899414062
0, 2, 54, 278.5611267089844
0, 2, 55, 276.8402404785156
0, 2, 56, 300.8436889648438
0, 2, 57, 292.7751770019531
0, 2, 58, 300.4291076660156
0, 2, 59, 287.3209838867188
0, 2, 60, 318.1443786621094
0, 2, 61, 301.23974609375
0, 2, 62, 312.4113464355469
0, 2, 63, 303.7312316894531
0, 2, 64, 299.4346008300781
0, 2, 65, 312.998046875
0, 2, 66, 278.8204040527344
0, 2, 67, 291.5146179199219
0, 2, 68, 295.9662780761719
0, 2, 69, 309.9589538574219
0, 2, 70, 333.6300964355469
0, 2, 71, 286.1183776855469
0, 2, 72, 303.1222229003906
0, 2, 73, 311.1822814941406
0, 2, 74, 286.9666748046875
0, 2, 75, 305.0329895019531
0, 2, 76, 287.1466979980469
0, 2, 77, 297.6894226074219
0, 2, 78, 315.4248046875
0, 2, 79, 308.8454895019531
0, 2, 80, 295.7313232421875
0, 2, 81, 283.5011291503906
0, 2, 82, 317.9610595703125
0, 2, 83, 311.3850708007812
0, 2, 84, 289.311767578125
0, 2, 85, 283.6606750488281
0, 2, 86, 324.2446899414062
0, 2, 87, 285.6100463867188
0, 2, 88, 280.6511840820312
0, 2, 89, 299.2618103027344
0, 2, 90, 296.5916442871094
0, 2, 91, 277.1998291015625
0, 2, 92, 304.6882019042969
0, 2, 93, 315.1268920898438
0, 2, 94, 292.78173828125
0, 2, 95, 315.7650146484375
0, 2, 96, 315.1221618652344
0, 2, 97, 290.0615844726562
0, 2, 98, 293.044189453125
0, 2, 99, 273.6312866210938
0, 2, 100, 307.87451171875
0, 2, 101, 300.530029296875
0, 2, 102, 296.58642578125
0, 2, 103, 291.5791625976562
0, 2, 104, 291.4454956054688
0, 2, 105, 272.4006042480469
0, 2, 106, 295.3750610351562
0, 2, 107, 269.7045593261719
0, 2, 108, 115.3121871948242
0, 2, 109, 32.42014694213867
0, 2, 110, 9.590059280395508
0, 2, 111, 10.1496000289917
0, 2, 112, 7.004948616027832
0, 2, 113, 10.25633335113525
0, 2, 114, 9.508533477783203
0, 2, 115, 9.202325820922852
0, 2, 116, 13.59182357788086
0, 2, 117, 7.80974292755127
0, 2, 118, 5.17041540145874
0, 2, 119, 6.441468238830566
0, 2, 120, 6.917613983154297
0, 2, 121, 0.9371076226234436
0, 2, 122, 3.926539421081543
0, 2, 123, 4.713049411773682
0, 2, 124, 5.974777698516846
0, 2, 125, 7.192302227020264
0, 2, 126, 2.903501272201538
0, 2, 127, 5.370323181152344
0, 3, 0, 3.401749849319458
0, 3, 1, 3.472459316253662
0, 3, 2, 4.009281635284424
0, 3, 3, 1.400874733924866
0, 3, 4, 2.356457948684692
0, 3, 5, 6.378417491912842
0, 3, 6, 7.209821701049805
0, 3, 7, 5.499516010284424
0, 3, 8, 6.429996013641357
0, 3, 9, 8.070076942443848
0, 3, 10, 4.608804702758789
0, 3, 11, 3.04414176940918
0, 3, 12, 7.4952392578125
0, 3, 13, 14.76703643798828
0, 3, 14, 10.33643245697021
0, 3, 15, 15.08511734008789
0, 3, 16, 12.34659194946289
0, 3, 17, 20.21450805664062
0, 3, 18, 54.17316436767578
0, 3, 19, 177.1774139404297
0, 3, 20, 269.3981018066406
0, 3, 21, 271.3519897460938
0, 3, 22, 281.3731079101562
0, 3, 23, 286.1926574707031
0, 3, 24, 286.2510375976562
0, 3, 25, 268.6372680664062
0, 3, 26, 303.2562561035156
0, 3, 27, 293.7660217285156
0, 3, 28, 279.5359191894531
0, 3, 29, 338.8587036132812
0, 3, 30, 315.6405944824219
0, 3, 31, 285.2733459472656
0, 3, 32, 307.8013916015625
0, 3, 33, 313.3561706542969
0, 3, 34, 320.0774841308594
0, 3, 35, 305.8539733886719
0, 3, 36, 267.4784240722656
0, 3, 37, 314.8117370605469
0, 3, 38, 305.3987731933594
0, 3, 39, 290.4942932128906
0, 3, 40, 266.7617492675781
0, 3, 41, 298.9126281738281
0, 3, 42, 285.2103271484375
0, 3, 43, 305.1739501953125
0, 3, 44, 310.5592956542969
0, 3, 45, 291.5345764160156
0, 3, 46, 329.9697265625
0, 3, 47, 299.8158569335938
0, 3, 48, 302.637451171875
0, 3, 49, 276.3763732910156
0, 3, 50, 289.2683410644531
0, 3, 51, 276.1886596679688
0, 3, 52, 315.4627380371094
0, 3, 53, 288.6524047851562
0, 3, 54, 285.7877807617188
0, 3, 55, 282.4892883300781
0, 3, 56, 298.197509765625
0, 3, 57, 287.5270385742188
0, 3, 58, 305.5186767578125
0, 3, 59, 296.3541564941406
0, 3, 60, 297.3853759765625
0, 3, 61, 265.8279418945312
0, 3, 62, 284.5198364257812
0, 3, 63, 308.8554077148438
0, 3, 64, 320.5216369628906
0, 3, 65, 305.2452392578125
0, 3, 66, 314.1306762695312
0, 3, 67, 318.2619934082031
0, 3, 68, 283.1397094726562
0, 3, 69, 281.9814758300781
0, 3, 70, 288.6040344238281
0, 3, 71, 298.2661743164062
0, 3, 72, 269.35595703125
0, 3, 73, 309.3395080566406
0, 3, 74, 292.7374267578125
0, 3, 75, 292.983154296875
0, 3, 76, 306.9059448242188
0, 3, 77, 314.5033569335938
0, 3, 78, 304.2922058105469
0, 3, 79, 281.8354187011719
0, 3, 80, 293.2549438476562
0, 3, 81, 310.2294311523438
0, 3, 82, 316.5738525390625
0, 3, 83, 301.1625366210938
0, 3, 84, 313.3016357421875
0, 3, 85, 291.2187194824219
0, 3, 86, 302.5599060058594
0, 3, 87, 297.5877380371094
0, 3, 88, 299.1976318359375
0, 3, 89, 296.2122802734375
0, 3, 90, 275.271728515625
0, 3, 91, 284.2195434570312
0, 3, 92, 305.598388671875
0, 3, 93, 314.0108947753906
0, 3, 94, 296.7704162597656
0, 3, 95, 334.8005065917969
0, 3, 96, 292.1927185058594
0, 3, 97, 281.6888427734375
0, 3, 98, 281.1167602539062
0, 3, 99, 261.4042663574219
0, 3, 100, 284.9612121582031
0, 3, 101, 297.4160461425781
0, 3, 102, 274.70458984375
0, 3, 103, 320.9701538085938
0, 3, 104, 308.0892028808594
0, 3, 105, 287.6578979492188
0, 3, 106, 303.2833557128906
0, 3, 107, 284.1902465820312
0, 3, 108, 170.8850860595703
0, 3, 109, 57.17684555053711
0, 3, 110, 20.22224044799805
0, 3, 111, 12.82704734802246
0, 3, 112, 11.57660293579102
0, 3, 113, 8.171860694885254
0, 3, 114, 10.71293926239014
0, 3, 115, 8.970651626586914
0, 3, 116, 7.327271938323975
0, 3, 117, 10.22020149230957
0, 3, 118, 6.066600322723389
0, 3, 119, 5.149976253509521
0, 3, 120, 6.034184455871582
0, 3, 121, 2.181394338607788
0, 3, 122, 3.893121242523193
0, 3, 123, 6.622811317443848
0, 3, 124, 2.034280776977539
0, 3, 125, 5.548090934753418
0, 3, 126, 5.463959693908691
0, 3, 127, 3.67681360244751
0, 4, 0, 3.818477153778076
0, 4, 1, 4.324149131774902
0, 4, 2, 5.951260089874268
0, 4, 3, 3.286520719528198
0, 4, 4, 7.098097324371338
0, 4, 5, 10.25015258789062
0, 4, 6, 7.102113246917725
0, 4, 7, 4.107580184936523
0, 4, 8, 4.237680435180664
0, 4, 9, 6.115397930145264
0, 4, 10, 8.095226287841797
0, 4, 11, 9.383622169494629
0, 4, 12, 6.555083274841309
0, 4, 13, 7.29767370223999
0, 4, 14, 12.04730224609375
0, 4, 15, 10.83219909667969
0, 4, 16, 13.35307312011719
0, 4, 17, 18.19690704345703
0, 4, 18, 93.90202331542969
0, 4, 19, 225.4445648193359
0, 4, 20, 284.3683166503906
0, 4, 21, 272.8494873046875
0, 4, 22, 306.1425170898438
0, 4, 23, 266.4387817382812
0, 4, 24, 288.9267578125
0, 4, 25, 272.1501159667969
0, 4, 26, 293.9231567382812
0, 4, 27, 284.7354431152344
0, 4, 28, 307.6274108886719
0, 4, 29, 322.9572448730469
0, 4, 30, 309.1913452148438
0, 4, 31, 303.9721374511719
0, 4, 32, 282.1671142578125
0, 4, 33, 295.5475769042969
0, 4, 34, 296.6993408203125
0, 4, 35, 312.0352172851562
0, 4, 36, 293.0666198730469
0, 4, 37, 288.7730102539062
0, 4, 38, 296.8260192871094
0, 4, 39, 294.5880432128906
0, 4, 40, 304.7361145019531
0, 4, 41, 310.1354370117188
0, 4, 42, 332.38134765625
0, 4, 43, 298.0675048828125
0, 4, 44, 320.232177734375
0, 4, 45, 324.0668029785156
0, 4, 46, 305.3059387207031
0, 4, 47, 293.7725830078125
0, 4, 48, 295.744384765625
0, 4, 49, 276.7645568847656
0, 4, 50, 298.9388732910156
0, 4, 51, 319.1919250488281
0, 4, 52, 327.4115905761719
0, 4, 53, 303.961181640625
0, 4, 54, 288.7516784667969
0, 4, 55, 315.5750427246094
0, 4, 56, 290.1433715820312
0, 4, 57, 310.9174499511719
0, 4, 58, 298.4239807128906
0, 4, 59, 306.6667175292969
0, 4, 60, 302.0608825683594
0, 4, 61, 316.0927429199219
0, 4, 62, 306.1039428710938
0, 4, 63, 298.8396301269531
0, 4, 64, 330.9647827148438
0, 4, 65, 314.0833129882812
0, 4, 66, 293.8931884765625
0, 4, 67, 285.0145874023438
0, 4, 68, 313.6028137207031
0, 4, 69, 277.6148681640625
0, 4, 70, 300.6954345703125
0, 4, 71, 322.0050048828125
0, 4, 72, 331.1396484375
0, 4, 73, 299.9158325195312
0, 4, 74, 292.8514404296875
0, 4, 75, 290.716796875
0, 4, 76, 274.4045104980469
0, 4, 77, 278.2145690917969
0, 4, 78, 308.2775268554688
0, 4, 79, 318.7935485839844
0, 4, 80, 315.7398071289062
0, 4, 81, 312.3367309570312
0, 4, 82, 298.764892578125
0, 4, 83, 302.3938598632812
0, 4, 84, 291.7359008789062
0, 4, 85, 295.0209045410156
0, 4, 86, 298.2941284179688
0, 4, 87, 284.5716552734375
0, 4, 88, 305.7521667480469
0, 4, 89, 295.9063110351562
0, 4, 90, 332.1741943359375
0, 4, 91, 304.4747619628906
0, 4, 92, 290.1373901367188
0, 4, 93, 298.1618957519531
0, 4, 94, 294.3985900878906
0, 4, 95, 288.3303833007812
0, 4, 96, 325.9302673339844
0, 4, 97, 273.1419067382812
0, 4, 98, 327.9829406738281
0, 4, 99, 314.4471740722656
0, 4, 100, 301.651123046875
0, 4, 101, 256.9430236816406
0, 4, 102, 295.1557922363281
0, 4, 103, 316.426513671875
0, 4, 104, 281.8304138183594
0, 4, 105, 311.6629333496094
0, 4, 106, 286.5963745117188
0, 4, 107, 294.3506774902344
0, 4, 108, 227.2145538330078
0, 4, 109, 79.68791198730469
0, 4, 110, 17.94398498535156
0, 4, 111, 12.84647560119629
0, 4, 112, 10.21291732788086
0, 4, 113, 11.4427604675293
0, 4, 114, 9.17950439453125
0, 4, 115, 10.80255222320557
0, 4, 116, 8.420219421386719
0, 4, 117, 7.160568714141846
0, 4, 118, 9.73631477355957
0, 4, 119, 11.20252418518066
0, 4, 120, 4.564558982849121
0, 4, 121, 4.313965320587158
0, 4, 122, 4.317507266998291
0, 4, 123, 8.297197341918945
0, 4, 124, 4.626777648925781
0, 4, 125, 9.256691932678223
0, 4, 126, 4.895840167999268
0, 4, 127, 3.432027578353882
0, 5, 0, 3.630812883377075
0, 5, 1, 3.717102527618408
0, 5, 2, 4.035654544830322
0, 5, 3, 3.537050485610962
0, 5, 4, 3.641184329986572
0, 5, 5, 5.696245670318604
0, 5, 6, 6.264041900634766
0, 5, 7, 4.973955631256104
0, 5, 8, 5.86282205581665
0, 5, 9, 5.877273082733154
0, 5, 10, 5.656320571899414
0, 5, 11, 8.621901512145996
0, 5, 12, 10.91945838928223
0, 5, 13, 6.543674945831299
0, 5, 14, 15.39119434356689
0, 5, 15, 16.21944999694824
0, 5, 16, 14.63959312438965
0, 5, 17, 30.57192611694336
0, 5, 18, 138.6425018310547
0, 5, 19, 286.7260437011719
0, 5, 20, 306.4571228027344
0, 5, 21, 316.4501037597656
0, 5, 22, 275.2720947265625
0, 5, 23, 310.422119140625
0, 5, 24, 301.814208984375
0, 5, 25, 288.6251831054688
0, 5, 26, 296.6166076660156
0, 5, 27, 323.3548583984375
0, 5, 28, 303.8232421875
0, 5, 29, 298.1799621582031
0, 5, 30, 323.7203369140625
0, 5, 31, 285.9957885742188
0, 5, 32, 301.6575927734375
0, 5, 33, 305.201171875
0, 5, 34, 298.75439453125
0, 5, 35, 312.4269714355469
0, 5, 36, 271.1212768554688
0, 5, 37, 284.2342224121094
0, 5, 38, 293.4815979003906
0, 5, 39, 309.8588562011719
0, 5, 40, 309.2028503417969
0, 5, 41, 274.1802978515625
0, 5, 42, 308.3214416503906
0, 5, 43, 313.8394470214844
0, 5, 44, 292.4908752441406
0, 5, 45, 303.4696044921875
0, 5, 46, 264.8976135253906
0, 5, 47, 279.1618347167969
0, 5, 48, 292.9368896484375
0, 5, 49, 285.8692321777344
0, 5, 50, 293.7310180664062
0, 5, 51, 278.431396484375
0, 5, 52, 270.3345642089844
0, 5, 53, 285.1795349121094
0, 5, 54, 290.2673645019531
0, 5, 55, 344.7904968261719
0, 5, 56, 307.252685546875
0, 5, 57, 307.6521606445312
0, 5, 58, 313.6125793457031
0, 5, 59, 302.6562194824219
0, 5, 60, 308.5800476074219
0, 5, 61, 281.6943054199219
0, 5, 62, 329.1274719238281
0, 5, 63, 290.8285827636719
0, 5, 64, 322.5950622558594
0, 5, 65, 309.00048828125
0, 5, 66, 326.9232177734375
0, 5, 67, 310.9632263183594
0, 5, 68, 308.6392517089844
0, 5, 69, 311.4655151367188
0, 5, 70, 299.2346801757812
0, 5, 71, 273.2647094726562
0, 5, 72, 310.4497680664062
0, 5, 73, 305.2810668945312
0, 5, 74, 295.6034545898438
0, 5, 75, 296.0458679199219
0, 5, 76, 285.8209228515625
0, 5, 77, 300.7472839355469
0, 5, 78, 316.7906799316406
0, 5, 79, 307.7861938476562
0, 5, 80, 295.3705444335938
0, 5, 81, 325.4947509765625
0, 5, 82, 323.3402404785156
0, 5, 83, 282.1289978027344
0, 5, 84, 304.4036254882812
0, 5, 85, 272.8132019042969
0, 5, 86, 325.5278930664062
0, 5, 87, 284.3364868164062
0, 5, 88, 315.1718139648438
0, 5, 89, 304.0945739746094
0, 5, 90, 316.0679016113281
0, 5, 91, 312.7073669433594
0, 5, 92, 295.0655822753906
0, 5, 93, 322.5930786132812
0, 5, 94, 309.0840759277344
0, 5, 95, 296.0595397949219
0, 5, 96, 299.708740234375
0, 5, 97, 295.5724182128906
0, 5, 98, 318.362548828125
0, 5, 99, 303.4374084472656
0, 5, 100, 288.8921813964844
0, 5, 101, 306.8639526367188
0, 5, 102, 292.4959106445312
0, 5, 103, 314.1745300292969
0, 5, 104, 303.3087158203125
0, 5, 105, 291.5721740722656
0, 5, 106, 281.0284118652344
0, 5, 107, 292.5824584960938
0, 5, 108, 266.1053466796875
0, 5, 109, 160.5611419677734
0, 5, 110, 41.9726676940918
0, 5, 111, 22.98639678955078
0, 5, 112, 17.24850463867188
0, 5, 113, 16.74868202209473
0, 5, 114, 12.0761775970459
0, 5, 115, 7.850712776184082
0, 5, 116, 9.441715240478516
0, 5, 117, 6.693963050842285
0, 5, 118, 12.8834867477417
0, 5, 119, 3.919010639190674
0, 5, 120, 7.235095024108887
0, 5, 121, 4.519617080688477
0, 5, 122, 4.785703182220459
0, 5, 123, 5.438587188720703
0, 5, 124, 5.550116062164307
0, 5, 125, 4.086086750030518
0, 5, 126, 4.086116313934326
0, 5, 127, 4.846131324768066
0, 6, 0, 3.192087650299072
0, 6, 1, 3.729755640029907
0, 6, 2, 6.521435260772705
0, 6, 3, 5.86398983001709
0, 6, 4, 3.806114673614502
0, 6, 5, 5.383017063140869
0, 6, 6, 10.29744815826416
0, 6, 7, 6.301448822021484
0, 6, 8, 8.113584518432617
0, 6, 9, 6.05792236328125
0, 6, 10, 7.907733917236328
0, 6, 11, 6.67726469039917
0, 6, 12, 8.673532485961914
0, 6, 13, 15.47728824615479
0, 6, 14, 9.117775917053223
0, 6, 15, 15.82972717285156
0, 6, 16, 30.3518009185791
0, 6, 17, 56.21828079223633
0, 6, 18, 173.9705963134766
0, 6, 19, 275.4920654296875
0, 6, 20, 292.0212707519531
0, 6, 21, 312.4281311035156
0, 6, 22, 322.2931823730469
0, 6, 23, 305.9438781738281
0, 6, 24, 315.6352844238281
0, 6, 25, 315.7278137207031
0, 6, 26, 318.9443664550781
0, 6, 27, 330.7437438964844
0, 6, 28, 297.7157592773438
0, 6, 29, 329.5950622558594
0, 6, 30, 280.3807678222656
0, 6, 31, 285.4252624511719
0, 6, 32, 339.1175537109375
0, 6, 33, 301.310791015625
0, 6, 34, 342.0764465332031
0, 6, 35, 319.6845397949219
0, 6, 36, 273.1333312988281
0, 6, 37, 287.1776123046875
0, 6, 38, 310.8544006347656
0, 6, 39, 298.3493041992188
0, 6, 40, 285.7003479003906
0, 6, 41, 297.4588317871094
0, 6, 42, 305.7736511230469
0, 6, 43, 289.9757080078125
0, 6, 44, 281.1539306640625
0, 6, 45, 319.6009826660156
0, 6, 46, 302.1421813964844
0, 6, 47, 332.6410217285156
0, 6, 48, 293.0986938476562
0, 6, 49, 310.5867309570312
0, 6, 50, 327.2673950195312
0, 6, 51, 310.3167724609375
0, 6, 52, 321.0789489746094
0, 6, 53, 327.6629638671875
0, 6, 54, 302.8713073730469
0, 6, 55, 305.0122985839844
0, 6, 56, 292.6168212890625
0, 6, 57, 314.7597351074219
0, 6, 58, 262.9703979492188
0, 6, 59, 303.6255187988281
0, 6, 60, 313.9701843261719
0, 6, 61, 270.6203002929688
0, 6, 62, 338.5950927734375
0, 6, 63, 322.1109313964844
0, 6, 64, 291.0896606445312
0, 6, 65, 285.5928344726562
0, 6, 66, 303.3101501464844
0, 6, 67, 308.0953063964844
0, 6, 68, 292.3208618164062
0, 6, 69, 279.7637329101562
0, 6, 70, 273.6302490234375
0, 6, 71, 290.5355224609375
0, 6, 72, 309.5610961914062
0, 6, 73, 293.4320983886719
0, 6, 74, 330.8779602050781
0, 6, 75, 344.714599609375
0, 6, 76, 298.4171142578125
0, 6, 77, 285.673583984375
0, 6, 78, 278.0670776367188
0, 6, 79, 291.7539367675781
0, 6, 80, 299.5953979492188
0, 6, 81, 313.4031066894531
0, 6, 82, 319.7027282714844
0, 6, 83, 317.5621032714844
0, 6, 84, 296.0576171875
0, 6, 85, 301.6637573242188
0, 6, 86, 328.6380920410156
0, 6, 87, 294.4143676757812
0, 6, 88, 306.7345581054688
0, 6, 89, 309.5504760742188
0, 6, 90, 298.278076171875
0, 6, 91, 310.8457946777344
0, 6, 92, 283.8433227539062
0, 6, 93, 295.8501281738281
0, 6, 94, 273.95654296875
0, 6, 95, 299.2174072265625
0, 6, 96, 348.0684509277344
0, 6, 97, 310.4824523925781
0, 6, 98, 300.8726501464844
0, 6, 99, 272.2124328613281
0, 6, 100, 308.2621154785156
0, 6, 101, 292.7108154296875
0, 6, 102, 307.1849365234375
0, 6, 103, 307.5666198730469
0, 6, 104, 292.8899536132812
0, 6, 105, 304.3706970214844
0, 6, 106, 308.9848022460938
0, 6, 107, 306.2090148925781
0, 6, 108, 266.4801635742188
0, 6, 109, 185.6771240234375
0, 6, 110, 54.03556823730469
0, 6, 111, 20.70697402954102
0, 6, 112, 12.53021430969238
0, 6, 113, 10.92757987976074
0, 6, 114, 12.38448905944824
0, 6, 115, 12.25712966918945
0, 6, 116, 8.737729072570801
0, 6, 117, 6.019202709197998
0, 6, 118, 9.684416770935059
0, 6, 119, 9.001398086547852
0, 6, 120, 5.57750415802002
0, 6, 121, 7.59172248840332
0, 6, 122, 9.514615058898926
0, 6, 123, 5.214806079864502
0, 6, 124, 6.892909049987793
0, 6, 125, 7.417402744293213
0, 6, 126, 4.859353542327881
0, 6, 127, 6.145312786102295
0, 7, 0, 6.959193229675293
0, 7, 1, 3.712148666381836
0, 7, 2, 7.568242073059082
0, 7, 3, 5.288368701934814
0, 7, 4, 5.822339057922363
0, 7, 5, 6.35393238067627
0, 7, 6, 4.874832153320312
0, 7, 7, 5.820125579833984
0, 7, 8, 5.311472415924072
0, 7, 9, 5.442015171051025
0, 7, 10, 7.548426628112793
0, 7, 11, 11.67254829406738
0, 7, 12, 10.20959568023682
0, 7, 13, 11.93518543243408
0, 7, 14, 13.53023529052734
0, 7, 15, 15.94913959503174
0, 7, 16, 27.37650680541992
0, 7, 17, 98.34654235839844
0, 7, 18, 218.1393737792969
0, 7, 19, 289.736083984375
0, 7, 20, 296.4083251953125
0, 7, 21, 275.7659301757812
0, 7, 22, 300.9695739746094
0, 7, 23, 288.5786437988281
0, 7, 24, 315.5140991210938
0, 7, 25, 326.6217346191406
0, 7, 26, 276.8435974121094
0, 7, 27, 298.6650695800781
0, 7, 28, 326.7010803222656
0, 7, 29, 318.3857421875
0, 7, 30, 302.6052551269531
0, 7, 31, 278.9278564453125
0, 7, 32, 305.3910827636719
0, 7, 33, 262.7962341308594
0, 7, 34, 300.2825317382812
0, 7, 35, 318.795654296875
0, 7, 36, 332.0174255371094
0, 7, 37, 322.459716796875
0, 7, 38, 295.0360717773438
0, 7, 39, 304.3360290527344
0, 7, 40, 288.6416625976562
0, 7, 41, 269.8812255859375
0, 7, 42, 300.7355346679688
0, 7, 43, 276.3642578125
0, 7, 44, 304.5845336914062
0, 7, 45, 294.1445922851562
0, 7, 46, 281.1274719238281
0, 7, 47, 332.3794250488281
0, 7, 48, 285.4894104003906
0, 7, 49, 301.9292907714844
0, 7, 50, 320.7411804199219
0, 7, 51, 298.0046997070312
0, 7, 52, 328.1567077636719
0, 7, 53, 309.88232421875
0, 7, 54, 325.3926086425781
0, 7, 55, 308.0321960449219
0, 7, 56, 279.2530212402344
0, 7, 57, 282.7412719726562
0, 7, 58, 295.5379028320312
0, 7, 59, 297.000732421875
0, 7, 60, 326.1912841796875
0, 7, 61, 279.7816162109375
0, 7, 62, 296.7198791503906
0, 7, 63, 293.4917297363281
0, 7, 64, 305.3320922851562
0, 7, 65, 329.8278503417969
0, 7, 66, 317.5625610351562
0, 7, 67, 301.069091796875
0, 7, 68, 281.7763061523438
0, 7, 69, 294.3243713378906
0, 7, 70, 300.2922668457031
0, 7, 71, 312.2020263671875
0, 7, 72, 288.2825012207031
0, 7, 73, 296.7270202636719
0, 7, 74, 344.1293334960938
0, 7, 75, 318.3000183105469
0, 7, 76, 322.1322937011719
0, 7, 77, 279.3508911132812
0, 7, 78, 299.5875244140625
0, 7, 79, 296.9931030273438
0, 7, 80, 312.7936096191406
0, 7, 81, 319.4021606445312
0, 7, 82, 330.2911376953125
0, 7, 83, 316.1752624511719
0, 7, 84, 309.3406372070312
0, 7, 85, 271.6937561035156
0, 7, 86, 312.1141052246094
0, 7, 87, 310.6604614257812
0, 7, 88, 307.6468200683594
0, 7, 89, 295.1586608886719
0, 7, 90, 305.8686218261719
0, 7, 91, 316.1996154785156
0, 7, 92, 286.2804565429688
0, 7, 93, 306.758056640625
0, 7, 94, 275.5875549316406
0, 7, 95, 297.6289672851562
0, 7, 96, 331.4877624511719
0, 7, 97, 293.4889831542969
0, 7, 98, 291.0660095214844
0, 7, 99, 311.5993041992188
0, 7, 100, 284.1003723144531
0, 7, 101, 275.7120971679688
0, 7, 102, 291.923095703125
0, 7, 103, 293.3013610839844
0, 7, 104, 275.7848510742188
0, 7, 105, 307.0278930664062
0, 7, 106, 317.6513366699219
0, 7, 107, 297.0542297363281
0, 7, 108, 272.4124755859375
0, 7, 109, 236.2272796630859
0, 7, 110, 96.23523712158203
0, 7, 111, 23.15235137939453
0, 7, 112, 12.57405090332031
0, 7, 113, 14.04349422454834
0, 7, 114, 13.33606910705566
0, 7, 115, 12.08406734466553
0, 7, 116, 6.880814075469971
0, 7, 117, 5.269938468933105
0, 7, 118, 9.135828018188477
0, 7, 119, 6.781229972839355
0, 7, 120, 3.690355539321899
0, 7, 121, 5.499252319335938
0, 7, 122, 5.675381660461426
0, 7, 123, 6.734011650085449
0, 7, 124, 4.821478366851807
0, 7, 125, 7.9474778175354
0, 7, 126, 6.695192813873291
0, 7, 127, 1.024985074996948
0, 8, 0, 3.232794523239136
0, 8, 1, 6.22715950012207
0, 8, 2, 6.119799613952637
0, 8, 3, 6.245926380157471
0, 8, 4, 4.317700862884521
0, 8, 5, 3.573751211166382
0, 8, 6, 5.471865653991699
0, 8, 7, 5.60026216506958
0, 8, 8, 8.593216896057129
0, 8, 9, 4.927621364593506
0, 8, 10, 7.701424121856689
0, 8, 11, 11.65296077728271
0, 8, 12, 12.72471237182617
0, 8, 13, 16.8882999420166
0, 8, 14, 13.27067565917969
0, 8, 15, 17.34002494812012
0, 8, 16, 31.76082229614258
0, 8, 17, 130.6410675048828
0, 8, 18, 245.5718078613281
0, 8, 19, 297.6225280761719
0, 8, 20, 285.4791564941406
0, 8, 21, 307.9418640136719
0, 8, 22, 298.9686279296875
0, 8, 23, 275.1722717285156
0, 8, 24, 267.999267578125
0, 8, 25, 279.2425231933594
0, 8, 26, 306.3282775878906
0, 8, 27, 307.0670471191406
0, 8, 28, 302.7423095703125
0, 8, 29, 320.5819091796875
0, 8, 30, 317.7735595703125
0, 8, 31, 303.5555114746094
0, 8, 32, 280.6140747070312
0, 8, 33, 292.8603210449219
0, 8, 34, 289.04638671875
0, 8, 35, 282.8787231445312
0, 8, 36, 314.9011840820312
0, 8, 37, 341.6141052246094
0, 8, 38, 331.3681945800781
