# TOPAS Version: 3.1.p3
# Parameter File: batch_inserts_252.txt
# Results for scorer Readout_Adipose
# Scored in component: MyBox
# X in 1 bin  of 0.75 cm
# Y in 512 bins of 0.0783984 cm
# Z in 128 bins of 0.078125 cm
# EnergyDeposit ( MeV ) : Sum   
0, 0, 0, 4.301556587219238
0, 0, 1, 2.743032217025757
0, 0, 2, 4.358713626861572
0, 0, 3, 1.103054761886597
0, 0, 4, 3.795537233352661
0, 0, 5, 1.987865209579468
0, 0, 6, 6.410162925720215
0, 0, 7, 8.279561042785645
0, 0, 8, 2.153511524200439
0, 0, 9, 3.579714775085449
0, 0, 10, 6.515646457672119
0, 0, 11, 4.338350296020508
0, 0, 12, 3.873868227005005
0, 0, 13, 6.71112585067749
0, 0, 14, 8.106344223022461
0, 0, 15, 8.414797782897949
0, 0, 16, 7.975455284118652
0, 0, 17, 8.722359657287598
0, 0, 18, 13.94298267364502
0, 0, 19, 43.97919845581055
0, 0, 20, 140.7571868896484
0, 0, 21, 224.2020263671875
0, 0, 22, 249.3540191650391
0, 0, 23, 257.9444885253906
0, 0, 24, 250.3785095214844
0, 0, 25, 258.9797668457031
0, 0, 26, 233.9654388427734
0, 0, 27, 238.3418731689453
0, 0, 28, 271.4421081542969
0, 0, 29, 253.053466796875
0, 0, 30, 233.1125030517578
0, 0, 31, 243.2987976074219
0, 0, 32, 264.0701599121094
0, 0, 33, 261.5443420410156
0, 0, 34, 288.8079528808594
0, 0, 35, 266.1729431152344
0, 0, 36, 246.399169921875
0, 0, 37, 252.2850952148438
0, 0, 38, 270.9300537109375
0, 0, 39, 230.9653472900391
0, 0, 40, 241.1845703125
0, 0, 41, 265.3977966308594
0, 0, 42, 229.5699005126953
0, 0, 43, 259.4454345703125
0, 0, 44, 253.5175476074219
0, 0, 45, 253.4992828369141
0, 0, 46, 243.9236755371094
0, 0, 47, 254.3754577636719
0, 0, 48, 266.1841125488281
0, 0, 49, 273.4074401855469
0, 0, 50, 251.8720245361328
0, 0, 51, 253.8978881835938
0, 0, 52, 272.0585632324219
0, 0, 53, 291.1680908203125
0, 0, 54, 243.4906311035156
0, 0, 55, 239.1310577392578
0, 0, 56, 276.5431823730469
0, 0, 57, 263.7833557128906
0, 0, 58, 247.5191802978516
0, 0, 59, 270.93701171875
0, 0, 60, 235.3749694824219
0, 0, 61, 245.1898651123047
0, 0, 62, 258.0874633789062
0, 0, 63, 269.119873046875
0, 0, 64, 256.0901489257812
0, 0, 65, 261.4666442871094
0, 0, 66, 278.0622863769531
0, 0, 67, 249.0438842773438
0, 0, 68, 258.1399230957031
0, 0, 69, 260.8826293945312
0, 0, 70, 271.8098754882812
0, 0, 71, 237.423095703125
0, 0, 72, 249.1153411865234
0, 0, 73, 257.7601623535156
0, 0, 74, 251.041259765625
0, 0, 75, 240.3324127197266
0, 0, 76, 228.7107696533203
0, 0, 77, 259.3302307128906
0, 0, 78, 254.9319458007812
0, 0, 79, 276.94873046875
0, 0, 80, 217.9239807128906
0, 0, 81, 269.5653381347656
0, 0, 82, 256.4801330566406
0, 0, 83, 243.9096069335938
0, 0, 84, 269.9502868652344
0, 0, 85, 231.4808654785156
0, 0, 86, 255.7884979248047
0, 0, 87, 250.3931732177734
0, 0, 88, 259.4369201660156
0, 0, 89, 280.896728515625
0, 0, 90, 244.2415161132812
0, 0, 91, 281.1473693847656
0, 0, 92, 254.0678100585938
0, 0, 93, 249.2203979492188
0, 0, 94, 246.5359497070312
0, 0, 95, 247.8029327392578
0, 0, 96, 275.7724914550781
0, 0, 97, 272.2767639160156
0, 0, 98, 274.6054077148438
0, 0, 99, 257.4339599609375
0, 0, 100, 258.0603332519531
0, 0, 101, 225.71630859375
0, 0, 102, 233.3038482666016
0, 0, 103, 270.4540100097656
0, 0, 104, 254.461669921875
0, 0, 105, 251.83056640625
0, 0, 106, 246.0217895507812
0, 0, 107, 151.0037994384766
0, 0, 108, 37.8615608215332
0, 0, 109, 11.15679550170898
0, 0, 110, 12.48163223266602
0, 0, 111, 9.771409034729004
0, 0, 112, 6.373603343963623
0, 0, 113, 6.133450984954834
0, 0, 114, 5.842281818389893
0, 0, 115, 6.760473728179932
0, 0, 116, 5.072958946228027
0, 0, 117, 4.534811973571777
0, 0, 118, 6.667014122009277
0, 0, 119, 3.877326726913452
0, 0, 120, 2.772677421569824
0, 0, 121, 4.668503284454346
0, 0, 122, 5.922291278839111
0, 0, 123, 2.645129919052124
0, 0, 124, 5.935320854187012
0, 0, 125, 3.112725257873535
0, 0, 126, 5.694512844085693
0, 0, 127, 4.249817848205566
0, 1, 0, 7.136934757232666
0, 1, 1, 3.260928630828857
0, 1, 2, 4.582635402679443
0, 1, 3, 1.640134334564209
0, 1, 4, 4.302622318267822
0, 1, 5, 4.292065620422363
0, 1, 6, 3.916689395904541
0, 1, 7, 6.888319492340088
0, 1, 8, 7.257538318634033
0, 1, 9, 4.561103343963623
0, 1, 10, 6.571084022521973
0, 1, 11, 11.0687141418457
0, 1, 12, 8.116130828857422
0, 1, 13, 8.985782623291016
0, 1, 14, 6.958741664886475
0, 1, 15, 7.061928272247314
0, 1, 16, 11.62113380432129
0, 1, 17, 11.63269805908203
0, 1, 18, 19.80980682373047
0, 1, 19, 66.63758087158203
0, 1, 20, 198.0643920898438
0, 1, 21, 254.4051513671875
0, 1, 22, 297.4309997558594
0, 1, 23, 282.3833312988281
0, 1, 24, 276.0399780273438
0, 1, 25, 291.7833557128906
0, 1, 26, 267.639404296875
0, 1, 27, 307.0055236816406
0, 1, 28, 300.7886047363281
0, 1, 29, 296.2307739257812
0, 1, 30, 286.2409057617188
0, 1, 31, 290.5521240234375
0, 1, 32, 289.9767761230469
0, 1, 33, 294.9816589355469
0, 1, 34, 292.5018005371094
0, 1, 35, 278.1222229003906
0, 1, 36, 306.2212829589844
0, 1, 37, 295.3887939453125
0, 1, 38, 279.7085876464844
0, 1, 39, 296.3224487304688
0, 1, 40, 267.0111389160156
0, 1, 41, 285.9128112792969
0, 1, 42, 288.8924255371094
0, 1, 43, 331.2281494140625
0, 1, 44, 278.7288513183594
0, 1, 45, 293.8231506347656
0, 1, 46, 258.9120483398438
0, 1, 47, 310.4712219238281
0, 1, 48, 284.2753601074219
0, 1, 49, 302.5067443847656
0, 1, 50, 262.1852416992188
0, 1, 51, 271.8455505371094
0, 1, 52, 296.4447021484375
0, 1, 53, 305.6885986328125
0, 1, 54, 273.3667907714844
0, 1, 55, 293.5429382324219
0, 1, 56, 279.3612365722656
0, 1, 57, 296.9725952148438
0, 1, 58, 312.2099609375
0, 1, 59, 291.3141174316406
0, 1, 60, 298.1965942382812
0, 1, 61, 275.4702453613281
0, 1, 62, 308.0252990722656
0, 1, 63, 286.6223449707031
0, 1, 64, 289.0985412597656
0, 1, 65, 295.4939575195312
0, 1, 66, 295.1957092285156
0, 1, 67, 293.5469360351562
0, 1, 68, 277.7865600585938
0, 1, 69, 280.5081176757812
0, 1, 70, 271.3654479980469
0, 1, 71, 273.40380859375
0, 1, 72, 285.9769287109375
0, 1, 73, 305.4897155761719
0, 1, 74, 304.4380187988281
0, 1, 75, 292.6480407714844
0, 1, 76, 284.246826171875
0, 1, 77, 290.8692321777344
0, 1, 78, 298.7946472167969
0, 1, 79, 302.5749816894531
0, 1, 80, 294.966552734375
0, 1, 81, 299.3899536132812
0, 1, 82, 286.11328125
0, 1, 83, 333.3540649414062
0, 1, 84, 309.4958801269531
0, 1, 85, 252.0137176513672
0, 1, 86, 295.0926818847656
0, 1, 87, 291.3726501464844
0, 1, 88, 297.138671875
0, 1, 89, 292.2963562011719
0, 1, 90, 269.3546447753906
0, 1, 91, 318.0069580078125
0, 1, 92, 292.9712219238281
0, 1, 93, 286.7037048339844
0, 1, 94, 304.4450988769531
0, 1, 95, 284.1138305664062
0, 1, 96, 282.8460083007812
0, 1, 97, 300.0770263671875
0, 1, 98, 276.6975708007812
0, 1, 99, 267.3013000488281
0, 1, 100, 276.6773376464844
0, 1, 101, 281.4595031738281
0, 1, 102, 277.792724609375
0, 1, 103, 281.0695190429688
0, 1, 104, 306.6170043945312
0, 1, 105, 297.1626892089844
0, 1, 106, 262.5299072265625
0, 1, 107, 190.2309265136719
0, 1, 108, 80.13873291015625
0, 1, 109, 23.62173652648926
0, 1, 110, 10.98692989349365
0, 1, 111, 8.004643440246582
0, 1, 112, 10.54522514343262
0, 1, 113, 5.243549346923828
0, 1, 114, 7.514190673828125
0, 1, 115, 4.989785194396973
0, 1, 116, 10.30918216705322
0, 1, 117, 5.540032386779785
0, 1, 118, 3.914949178695679
0, 1, 119, 4.970601081848145
0, 1, 120, 4.365399360656738
0, 1, 121, 5.624680042266846
0, 1, 122, 2.549153327941895
0, 1, 123, 3.468688011169434
0, 1, 124, 8.58192253112793
0, 1, 125, 5.162855625152588
0, 1, 126, 1.098909258842468
0, 1, 127, 2.747959136962891
0, 2, 0, 4.202911853790283
0, 2, 1, 3.234082937240601
0, 2, 2, 4.216446876525879
0, 2, 3, 5.435482501983643
0, 2, 4, 3.847620487213135
0, 2, 5, 1.697387218475342
0, 2, 6, 2.445495843887329
0, 2, 7, 3.565634965896606
0, 2, 8, 4.819608688354492
0, 2, 9, 7.409589290618896
0, 2, 10, 7.731541633605957
0, 2, 11, 6.518491268157959
0, 2, 12, 7.721357822418213
0, 2, 13, 11.40263271331787
0, 2, 14, 10.165846824646
0, 2, 15, 7.456881046295166
0, 2, 16, 8.948540687561035
0, 2, 17, 17.45458984375
0, 2, 18, 31.08127593994141
0, 2, 19, 114.5760955810547
0, 2, 20, 247.7499389648438
0, 2, 21, 270.826904296875
0, 2, 22, 315.4584655761719
0, 2, 23, 303.19189453125
0, 2, 24, 287.4601745605469
0, 2, 25, 302.5171813964844
0, 2, 26, 292.7037963867188
0, 2, 27, 274.9080200195312
0, 2, 28, 273.0973205566406
0, 2, 29, 274.6736755371094
0, 2, 30, 289.0276184082031
0, 2, 31, 279.4341430664062
0, 2, 32, 293.9051818847656
0, 2, 33, 283.2330932617188
0, 2, 34, 332.964111328125
0, 2, 35, 291.0745544433594
0, 2, 36, 304.787841796875
0, 2, 37, 315.8877258300781
0, 2, 38, 309.4221496582031
0, 2, 39, 265.9991149902344
0, 2, 40, 308.4572143554688
0, 2, 41, 292.9552917480469
0, 2, 42, 303.3222961425781
0, 2, 43, 311.2576904296875
0, 2, 44, 312.7095336914062
0, 2, 45, 326.1232604980469
0, 2, 46, 286.070068359375
0, 2, 47, 302.8557434082031
0, 2, 48, 281.1805114746094
0, 2, 49, 277.594970703125
0, 2, 50, 294.5599060058594
0, 2, 51, 285.2527160644531
0, 2, 52, 270.7585144042969
0, 2, 53, 288.5348510742188
0, 2, 54, 280.7965698242188
0, 2, 55, 275.9614868164062
0, 2, 56, 301.6459045410156
0, 2, 57, 290.656005859375
0, 2, 58, 302.0499267578125
0, 2, 59, 289.2574157714844
0, 2, 60, 319.6016235351562
0, 2, 61, 301.4904174804688
0, 2, 62, 312.6156005859375
0, 2, 63, 302.5398864746094
0, 2, 64, 296.7810668945312
0, 2, 65, 313.332275390625
0, 2, 66, 279.3336181640625
0, 2, 67, 290.8032836914062
0, 2, 68, 296.2655639648438
0, 2, 69, 310.9461669921875
0, 2, 70, 335.2887573242188
0, 2, 71, 284.8933410644531
0, 2, 72, 302.7492980957031
0, 2, 73, 309.9853820800781
0, 2, 74, 287.6867370605469
0, 2, 75, 302.9231872558594
0, 2, 76, 287.8252868652344
0, 2, 77, 297.9786682128906
0, 2, 78, 314.7694702148438
0, 2, 79, 307.5440368652344
0, 2, 80, 299.7482604980469
0, 2, 81, 281.8260192871094
0, 2, 82, 318.7272644042969
0, 2, 83, 312.9927673339844
0, 2, 84, 287.8547973632812
0, 2, 85, 280.9929809570312
0, 2, 86, 326.1403503417969
0, 2, 87, 286.9810485839844
0, 2, 88, 281.6491394042969
0, 2, 89, 297.5342102050781
0, 2, 90, 295.3858337402344
0, 2, 91, 274.9395446777344
0, 2, 92, 304.4971313476562
0, 2, 93, 315.8549194335938
0, 2, 94, 291.9559631347656
0, 2, 95, 314.4138488769531
0, 2, 96, 315.2621765136719
0, 2, 97, 291.1301574707031
0, 2, 98, 295.0490417480469
0, 2, 99, 273.8428649902344
0, 2, 100, 305.5152587890625
0, 2, 101, 300.16796875
0, 2, 102, 296.6833190917969
0, 2, 103, 291.8576354980469
0, 2, 104, 292.8802795410156
0, 2, 105, 274.3603210449219
0, 2, 106, 298.8944091796875
0, 2, 107, 270.55712890625
0, 2, 108, 115.5032501220703
0, 2, 109, 31.98419952392578
0, 2, 110, 11.01175689697266
0, 2, 111, 11.98792457580566
0, 2, 112, 8.177750587463379
0, 2, 113, 10.82041645050049
0, 2, 114, 9.244946479797363
0, 2, 115, 9.807671546936035
0, 2, 116, 9.590912818908691
0, 2, 117, 6.873080253601074
0, 2, 118, 3.981574058532715
0, 2, 119, 6.748444080352783
0, 2, 120, 7.011641502380371
0, 2, 121, 1.191459059715271
0, 2, 122, 4.650642395019531
0, 2, 123, 5.659069061279297
0, 2, 124, 3.661504030227661
0, 2, 125, 7.220946788787842
0, 2, 126, 5.839121341705322
0, 2, 127, 4.865547657012939
0, 3, 0, 4.9772629737854
0, 3, 1, 3.53206205368042
0, 3, 2, 5.083080768585205
0, 3, 3, 1.833151817321777
0, 3, 4, 5.066590785980225
0, 3, 5, 7.738536357879639
0, 3, 6, 6.504551887512207
0, 3, 7, 6.656932830810547
0, 3, 8, 8.12260627746582
0, 3, 9, 8.56920051574707
0, 3, 10, 5.546611785888672
0, 3, 11, 4.720037460327148
0, 3, 12, 6.178452014923096
0, 3, 13, 14.38389110565186
0, 3, 14, 10.50735950469971
0, 3, 15, 14.25187969207764
0, 3, 16, 12.88321876525879
0, 3, 17, 20.39532661437988
0, 3, 18, 50.00371170043945
0, 3, 19, 176.3534240722656
0, 3, 20, 272.1690673828125
0, 3, 21, 271.0090026855469
0, 3, 22, 281.5585021972656
0, 3, 23, 290.2021179199219
0, 3, 24, 287.5267944335938
0, 3, 25, 270.3477478027344
0, 3, 26, 304.0723266601562
0, 3, 27, 292.6798400878906
0, 3, 28, 281.9985046386719
0, 3, 29, 337.0755615234375
0, 3, 30, 317.1362915039062
0, 3, 31, 286.8439636230469
0, 3, 32, 305.11376953125
0, 3, 33, 314.3472595214844
0, 3, 34, 323.1513061523438
0, 3, 35, 308.6114196777344
0, 3, 36, 267.187744140625
0, 3, 37, 315.5379333496094
0, 3, 38, 305.0508117675781
0, 3, 39, 291.4857482910156
0, 3, 40, 266.7348022460938
0, 3, 41, 297.5139770507812
0, 3, 42, 284.8514709472656
0, 3, 43, 305.4877014160156
0, 3, 44, 310.0780029296875
0, 3, 45, 289.0777282714844
0, 3, 46, 329.9587097167969
0, 3, 47, 299.1056213378906
0, 3, 48, 302.782958984375
0, 3, 49, 275.786865234375
0, 3, 50, 289.2557983398438
0, 3, 51, 276.8775939941406
0, 3, 52, 315.1649780273438
0, 3, 53, 290.52294921875
0, 3, 54, 285.6228637695312
0, 3, 55, 282.7165222167969
0, 3, 56, 300.1029052734375
0, 3, 57, 288.6451110839844
0, 3, 58, 307.5851745605469
0, 3, 59, 295.0687561035156
0, 3, 60, 297.8473510742188
0, 3, 61, 264.3812561035156
0, 3, 62, 284.5619201660156
0, 3, 63, 307.638916015625
0, 3, 64, 317.8596496582031
0, 3, 65, 304.0283203125
0, 3, 66, 313.8790588378906
0, 3, 67, 317.5296630859375
0, 3, 68, 280.8063354492188
0, 3, 69, 283.6019897460938
0, 3, 70, 288.9279174804688
0, 3, 71, 299.4476623535156
0, 3, 72, 270.7667236328125
0, 3, 73, 307.5030517578125
0, 3, 74, 293.4819946289062
0, 3, 75, 290.0915222167969
0, 3, 76, 306.2894287109375
0, 3, 77, 313.9732055664062
0, 3, 78, 302.9321899414062
0, 3, 79, 283.2164611816406
0, 3, 80, 291.1274108886719
0, 3, 81, 311.2692260742188
0, 3, 82, 315.3785095214844
0, 3, 83, 302.9253845214844
0, 3, 84, 312.0203857421875
0, 3, 85, 294.1409606933594
0, 3, 86, 301.7056884765625
0, 3, 87, 297.4356689453125
0, 3, 88, 300.3475646972656
0, 3, 89, 295.2674560546875
0, 3, 90, 275.2632446289062
0, 3, 91, 283.8232116699219
0, 3, 92, 304.4725036621094
0, 3, 93, 311.6735534667969
0, 3, 94, 296.8279724121094
0, 3, 95, 334.4026794433594
0, 3, 96, 291.0369262695312
0, 3, 97, 285.0087890625
0, 3, 98, 278.4705810546875
0, 3, 99, 262.23291015625
0, 3, 100, 284.4612121582031
0, 3, 101, 297.0360412597656
0, 3, 102, 274.5863342285156
0, 3, 103, 320.2474365234375
0, 3, 104, 310.4468383789062
0, 3, 105, 289.763671875
0, 3, 106, 303.9324340820312
0, 3, 107, 284.3442687988281
0, 3, 108, 169.9867553710938
0, 3, 109, 56.76515960693359
0, 3, 110, 17.69552612304688
0, 3, 111, 13.12071323394775
0, 3, 112, 12.99064826965332
0, 3, 113, 5.91130256652832
0, 3, 114, 8.887415885925293
0, 3, 115, 6.91154146194458
0, 3, 116, 7.130646228790283
0, 3, 117, 7.469241619110107
0, 3, 118, 8.996395111083984
0, 3, 119, 6.62117338180542
0, 3, 120, 6.573777198791504
0, 3, 121, 2.232099294662476
0, 3, 122, 3.146826267242432
0, 3, 123, 8.032294273376465
0, 3, 124, 3.888238191604614
0, 3, 125, 5.623390674591064
0, 3, 126, 5.815895557403564
0, 3, 127, 4.574917316436768
0, 4, 0, 3.382778644561768
0, 4, 1, 5.210423946380615
0, 4, 2, 2.760252475738525
0, 4, 3, 2.268124580383301
0, 4, 4, 5.962887287139893
0, 4, 5, 8.265192985534668
0, 4, 6, 6.052330017089844
0, 4, 7, 6.040696620941162
0, 4, 8, 4.140037536621094
0, 4, 9, 5.919469833374023
0, 4, 10, 6.252147674560547
0, 4, 11, 7.710351943969727
0, 4, 12, 6.339883804321289
0, 4, 13, 9.114439964294434
0, 4, 14, 12.65951156616211
0, 4, 15, 8.32652759552002
0, 4, 16, 14.45585536956787
0, 4, 17, 18.3162899017334
0, 4, 18, 96.26346588134766
0, 4, 19, 223.3603057861328
0, 4, 20, 282.7256164550781
0, 4, 21, 272.3062744140625
0, 4, 22, 304.5720825195312
0, 4, 23, 267.0432739257812
0, 4, 24, 289.2030029296875
0, 4, 25, 273.6067810058594
0, 4, 26, 294.2239379882812
0, 4, 27, 286.0054321289062
0, 4, 28, 308.0097351074219
0, 4, 29, 322.4430541992188
0, 4, 30, 309.4829406738281
0, 4, 31, 303.2318420410156
0, 4, 32, 279.6744995117188
0, 4, 33, 298.1543579101562
0, 4, 34, 298.1900024414062
0, 4, 35, 310.9675598144531
0, 4, 36, 296.6534423828125
0, 4, 37, 287.8493957519531
0, 4, 38, 296.5306091308594
0, 4, 39, 293.3539733886719
0, 4, 40, 301.2799682617188
0, 4, 41, 313.1321411132812
0, 4, 42, 333.6002197265625
0, 4, 43, 297.8703002929688
0, 4, 44, 320.5487670898438
0, 4, 45, 322.8493957519531
0, 4, 46, 309.4777526855469
0, 4, 47, 292.8576354980469
0, 4, 48, 297.55419921875
0, 4, 49, 278.0433349609375
0, 4, 50, 299.6851196289062
0, 4, 51, 316.0362854003906
0, 4, 52, 328.3962097167969
0, 4, 53, 302.4741821289062
0, 4, 54, 285.8665771484375
0, 4, 55, 316.7208251953125
0, 4, 56, 286.5264892578125
0, 4, 57, 310.8617553710938
0, 4, 58, 294.8409423828125
0, 4, 59, 308.0764465332031
0, 4, 60, 301.0485534667969
0, 4, 61, 315.4282531738281
0, 4, 62, 308.0168762207031
0, 4, 63, 297.0606079101562
0, 4, 64, 329.8193054199219
0, 4, 65, 314.4866638183594
0, 4, 66, 295.8788757324219
0, 4, 67, 284.3382263183594
0, 4, 68, 316.1090393066406
0, 4, 69, 275.2596130371094
0, 4, 70, 300.9000549316406
0, 4, 71, 319.9401245117188
0, 4, 72, 330.7603149414062
0, 4, 73, 300.2279357910156
0, 4, 74, 292.2035522460938
0, 4, 75, 289.5068969726562
0, 4, 76, 274.7968139648438
0, 4, 77, 278.6929626464844
0, 4, 78, 312.0609130859375
0, 4, 79, 318.4755249023438
0, 4, 80, 315.0576782226562
0, 4, 81, 312.2390747070312
0, 4, 82, 296.6668395996094
0, 4, 83, 300.4654846191406
0, 4, 84, 294.0653381347656
0, 4, 85, 295.0886535644531
0, 4, 86, 298.8776550292969
0, 4, 87, 284.4739379882812
0, 4, 88, 306.2330322265625
0, 4, 89, 293.8695678710938
0, 4, 90, 334.5597534179688
0, 4, 91, 301.8904113769531
0, 4, 92, 289.6007080078125
0, 4, 93, 297.1511535644531
0, 4, 94, 291.7308654785156
0, 4, 95, 288.8424987792969
0, 4, 96, 324.2975158691406
0, 4, 97, 273.7738342285156
0, 4, 98, 327.27734375
0, 4, 99, 314.7760314941406
0, 4, 100, 299.7405700683594
0, 4, 101, 255.9671783447266
0, 4, 102, 297.14404296875
0, 4, 103, 316.2845764160156
0, 4, 104, 282.5335693359375
0, 4, 105, 309.0842895507812
0, 4, 106, 286.3758544921875
0, 4, 107, 294.445068359375
0, 4, 108, 227.0810394287109
0, 4, 109, 79.78196716308594
0, 4, 110, 15.42715644836426
0, 4, 111, 14.04496765136719
0, 4, 112, 7.532650947570801
0, 4, 113, 10.33868503570557
0, 4, 114, 10.23648357391357
0, 4, 115, 11.29016304016113
0, 4, 116, 9.699620246887207
0, 4, 117, 8.642029762268066
0, 4, 118, 11.1335334777832
0, 4, 119, 8.944406509399414
0, 4, 120, 4.033914089202881
0, 4, 121, 4.507094383239746
0, 4, 122, 3.692489624023438
0, 4, 123, 6.810014247894287
0, 4, 124, 3.34650182723999
0, 4, 125, 9.455034255981445
0, 4, 126, 5.349814891815186
0, 4, 127, 4.317630767822266
0, 5, 0, 3.522127628326416
0, 5, 1, 3.423166036605835
0, 5, 2, 3.18074107170105
0, 5, 3, 4.35101318359375
0, 5, 4, 6.098726272583008
0, 5, 5, 4.863816738128662
0, 5, 6, 5.073369026184082
0, 5, 7, 5.615137100219727
0, 5, 8, 5.491014003753662
0, 5, 9, 5.712882518768311
0, 5, 10, 7.607306480407715
0, 5, 11, 7.364405155181885
0, 5, 12, 9.562594413757324
0, 5, 13, 7.8573899269104
0, 5, 14, 13.32925319671631
0, 5, 15, 16.07107162475586
0, 5, 16, 14.46937465667725
0, 5, 17, 27.54528617858887
0, 5, 18, 135.1496124267578
0, 5, 19, 286.9613037109375
0, 5, 20, 308.5875854492188
0, 5, 21, 317.9901428222656
0, 5, 22, 276.4154357910156
0, 5, 23, 309.8536071777344
0, 5, 24, 301.5384826660156
0, 5, 25, 292.4780883789062
0, 5, 26, 295.6206359863281
0, 5, 27, 321.5664978027344
0, 5, 28, 303.6820983886719
0, 5, 29, 297.3932495117188
0, 5, 30, 325.281982421875
0, 5, 31, 285.6110229492188
0, 5, 32, 302.1432495117188
0, 5, 33, 304.115234375
0, 5, 34, 297.97802734375
0, 5, 35, 309.9976196289062
0, 5, 36, 268.8744201660156
0, 5, 37, 283.1771850585938
0, 5, 38, 292.7807006835938
0, 5, 39, 311.2100524902344
0, 5, 40, 309.4109191894531
0, 5, 41, 272.9144592285156
0, 5, 42, 307.0357055664062
0, 5, 43, 314.8372497558594
0, 5, 44, 291.7250061035156
0, 5, 45, 303.6163940429688
0, 5, 46, 264.8890686035156
0, 5, 47, 280.1808776855469
0, 5, 48, 294.7431945800781
0, 5, 49, 285.3724365234375
0, 5, 50, 295.8545532226562
0, 5, 51, 279.7440795898438
0, 5, 52, 270.6103515625
0, 5, 53, 284.2543029785156
0, 5, 54, 292.1930847167969
0, 5, 55, 346.3456115722656
0, 5, 56, 304.7868041992188
0, 5, 57, 307.3811340332031
0, 5, 58, 314.5021057128906
0, 5, 59, 303.4489440917969
0, 5, 60, 309.3388977050781
0, 5, 61, 282.8729858398438
0, 5, 62, 327.1902465820312
0, 5, 63, 293.3558959960938
0, 5, 64, 323.8327331542969
0, 5, 65, 307.3927001953125
0, 5, 66, 327.7698669433594
0, 5, 67, 310.861328125
0, 5, 68, 307.8813171386719
0, 5, 69, 310.5182800292969
0, 5, 70, 298.8272094726562
0, 5, 71, 272.3157043457031
0, 5, 72, 309.9639587402344
0, 5, 73, 301.9076232910156
0, 5, 74, 295.991455078125
0, 5, 75, 293.7915649414062
0, 5, 76, 285.3948364257812
0, 5, 77, 299.286865234375
0, 5, 78, 315.3287048339844
0, 5, 79, 306.2704772949219
0, 5, 80, 295.563720703125
0, 5, 81, 325.2208251953125
0, 5, 82, 322.6990966796875
0, 5, 83, 282.5918884277344
0, 5, 84, 305.2997131347656
0, 5, 85, 271.6993713378906
0, 5, 86, 325.70166015625
0, 5, 87, 285.7698974609375
0, 5, 88, 313.7026977539062
0, 5, 89, 303.1781616210938
0, 5, 90, 314.6528625488281
0, 5, 91, 313.9199523925781
0, 5, 92, 295.4126586914062
0, 5, 93, 320.5626525878906
0, 5, 94, 311.9580078125
0, 5, 95, 298.3618469238281
0, 5, 96, 297.3309326171875
0, 5, 97, 295.0827331542969
0, 5, 98, 319.9722900390625
0, 5, 99, 302.2388916015625
0, 5, 100, 289.8364868164062
0, 5, 101, 305.0321960449219
0, 5, 102, 294.859375
0, 5, 103, 313.7017822265625
0, 5, 104, 303.6537475585938
0, 5, 105, 292.2864379882812
0, 5, 106, 280.8246459960938
0, 5, 107, 292.9760131835938
0, 5, 108, 265.2881164550781
0, 5, 109, 156.9179229736328
0, 5, 110, 41.33856582641602
0, 5, 111, 20.7026309967041
0, 5, 112, 18.09344863891602
0, 5, 113, 14.89123153686523
0, 5, 114, 13.0187931060791
0, 5, 115, 7.336930751800537
0, 5, 116, 10.448410987854
0, 5, 117, 6.227218151092529
0, 5, 118, 14.278000831604
0, 5, 119, 4.349584579467773
0, 5, 120, 8.830002784729004
0, 5, 121, 4.226504802703857
0, 5, 122, 8.480704307556152
0, 5, 123, 7.76445198059082
0, 5, 124, 8.375677108764648
0, 5, 125, 3.344504356384277
0, 5, 126, 4.994100570678711
0, 5, 127, 3.41481614112854
0, 6, 0, 3.369326829910278
0, 6, 1, 2.328631639480591
0, 6, 2, 4.661560535430908
0, 6, 3, 4.622198581695557
0, 6, 4, 3.936584234237671
0, 6, 5, 4.807394504547119
0, 6, 6, 10.77419281005859
0, 6, 7, 7.169929981231689
0, 6, 8, 7.177648544311523
0, 6, 9, 5.609646797180176
0, 6, 10, 7.345484256744385
0, 6, 11, 8.434337615966797
0, 6, 12, 8.28911304473877
0, 6, 13, 11.48173809051514
0, 6, 14, 11.03553867340088
0, 6, 15, 15.79871559143066
0, 6, 16, 29.4199390411377
0, 6, 17, 56.62172317504883
0, 6, 18, 173.1522521972656
0, 6, 19, 275.7745361328125
0, 6, 20, 290.8623352050781
0, 6, 21, 314.4083557128906
0, 6, 22, 319.5182800292969
0, 6, 23, 306.4167175292969
0, 6, 24, 314.9857482910156
0, 6, 25, 315.1486511230469
0, 6, 26, 319.8516235351562
0, 6, 27, 330.8262023925781
0, 6, 28, 295.5481567382812
0, 6, 29, 332.9104309082031
0, 6, 30, 282.0439758300781
0, 6, 31, 286.3980712890625
0, 6, 32, 338.2004089355469
0, 6, 33, 300.9246520996094
0, 6, 34, 340.8572692871094
0, 6, 35, 320.5279541015625
0, 6, 36, 273.2934265136719
0, 6, 37, 289.8526000976562
0, 6, 38, 312.8810119628906
0, 6, 39, 301.3804016113281
0, 6, 40, 283.4203186035156
0, 6, 41, 296.3618469238281
0, 6, 42, 304.2426452636719
0, 6, 43, 288.6093444824219
0, 6, 44, 280.6221313476562
0, 6, 45, 319.400634765625
0, 6, 46, 301.1346130371094
0, 6, 47, 333.5429077148438
0, 6, 48, 291.6575012207031
0, 6, 49, 310.8927917480469
0, 6, 50, 327.8388977050781
0, 6, 51, 312.1435852050781
0, 6, 52, 321.3627624511719
0, 6, 53, 329.211669921875
0, 6, 54, 303.912353515625
0, 6, 55, 305.4252624511719
0, 6, 56, 292.5776062011719
0, 6, 57, 311.6216735839844
0, 6, 58, 262.0478210449219
0, 6, 59, 301.9256591796875
0, 6, 60, 312.4730224609375
0, 6, 61, 271.6272583007812
0, 6, 62, 335.9881286621094
0, 6, 63, 324.3794555664062
0, 6, 64, 290.5414428710938
0, 6, 65, 285.303466796875
0, 6, 66, 302.7013854980469
0, 6, 67, 309.6683044433594
0, 6, 68, 292.5185852050781
0, 6, 69, 278.6947326660156
0, 6, 70, 276.0995178222656
0, 6, 71, 290.05908203125
0, 6, 72, 310.1402893066406
0, 6, 73, 295.76953125
0, 6, 74, 331.259765625
0, 6, 75, 343.2359313964844
0, 6, 76, 297.993896484375
0, 6, 77, 287.7815856933594
0, 6, 78, 279.1050109863281
0, 6, 79, 292.2891540527344
0, 6, 80, 299.477783203125
0, 6, 81, 315.0581665039062
0, 6, 82, 321.3273620605469
0, 6, 83, 318.4540710449219
0, 6, 84, 296.4287719726562
0, 6, 85, 301.4956359863281
0, 6, 86, 329.2394104003906
0, 6, 87, 292.9048767089844
0, 6, 88, 306.33447265625
0, 6, 89, 304.6218566894531
0, 6, 90, 298.83349609375
0, 6, 91, 313.4505615234375
0, 6, 92, 284.0524597167969
0, 6, 93, 294.9519653320312
0, 6, 94, 273.6741027832031
0, 6, 95, 302.5625
0, 6, 96, 347.7554016113281
0, 6, 97, 309.7618103027344
0, 6, 98, 300.7987670898438
0, 6, 99, 274.9396667480469
0, 6, 100, 312.7746276855469
0, 6, 101, 291.7653503417969
0, 6, 102, 306.2697448730469
0, 6, 103, 308.8773498535156
0, 6, 104, 291.8945617675781
0, 6, 105, 300.8117370605469
0, 6, 106, 309.2524719238281
0, 6, 107, 307.0089416503906
0, 6, 108, 265.1394348144531
0, 6, 109, 186.117919921875
0, 6, 110, 54.27997207641602
0, 6, 111, 24.99189567565918
0, 6, 112, 15.46500110626221
0, 6, 113, 12.10530757904053
0, 6, 114, 11.60998725891113
0, 6, 115, 11.60940742492676
0, 6, 116, 10.4755916595459
0, 6, 117, 7.373283863067627
0, 6, 118, 10.04342651367188
0, 6, 119, 7.46282958984375
0, 6, 120, 6.956257820129395
0, 6, 121, 8.874902725219727
0, 6, 122, 8.190959930419922
0, 6, 123, 5.022708892822266
0, 6, 124, 8.102771759033203
0, 6, 125, 6.288496017456055
0, 6, 126, 3.708775758743286
0, 6, 127, 6.757463455200195
0, 7, 0, 5.085368633270264
0, 7, 1, 4.643033504486084
0, 7, 2, 6.82950496673584
0, 7, 3, 3.235715627670288
0, 7, 4, 4.805991649627686
0, 7, 5, 4.416362285614014
0, 7, 6, 5.232410430908203
0, 7, 7, 5.265223979949951
0, 7, 8, 5.2216477394104
0, 7, 9, 5.54551362991333
0, 7, 10, 7.106809616088867
0, 7, 11, 13.20456600189209
0, 7, 12, 10.28114891052246
0, 7, 13, 14.66780853271484
0, 7, 14, 9.952092170715332
0, 7, 15, 17.05122947692871
0, 7, 16, 25.16731262207031
0, 7, 17, 98.82021331787109
0, 7, 18, 216.7538909912109
0, 7, 19, 293.9376220703125
0, 7, 20, 296.9178161621094
0, 7, 21, 276.5899047851562
0, 7, 22, 299.1289978027344
0, 7, 23, 289.0638427734375
0, 7, 24, 312.9161682128906
0, 7, 25, 323.357177734375
0, 7, 26, 279.6048583984375
0, 7, 27, 298.2528076171875
0, 7, 28, 325.7813415527344
0, 7, 29, 318.3500671386719
0, 7, 30, 299.47607421875
0, 7, 31, 278.3451538085938
0, 7, 32, 306.1963806152344
0, 7, 33, 263.4707336425781
0, 7, 34, 299.8043823242188
0, 7, 35, 322.1230163574219
0, 7, 36, 331.0561828613281
0, 7, 37, 324.0604553222656
0, 7, 38, 296.9913635253906
0, 7, 39, 305.7994995117188
0, 7, 40, 291.4148254394531
0, 7, 41, 271.8984069824219
0, 7, 42, 300.2408447265625
0, 7, 43, 277.5509948730469
0, 7, 44, 303.1155090332031
0, 7, 45, 297.9788513183594
0, 7, 46, 283.2666931152344
0, 7, 47, 328.9878234863281
0, 7, 48, 283.935791015625
0, 7, 49, 301.5039672851562
0, 7, 50, 320.3623657226562
0, 7, 51, 298.5254516601562
0, 7, 52, 325.9657592773438
0, 7, 53, 312.8486022949219
0, 7, 54, 323.6000671386719
0, 7, 55, 308.5101318359375
0, 7, 56, 279.0335388183594
0, 7, 57, 283.6943054199219
0, 7, 58, 295.0802001953125
0, 7, 59, 296.1016540527344
0, 7, 60, 322.8268737792969
0, 7, 61, 280.45654296875
0, 7, 62, 296.4077758789062
0, 7, 63, 293.37109375
0, 7, 64, 304.8799133300781
0, 7, 65, 332.1991271972656
0, 7, 66, 317.659912109375
0, 7, 67, 300.8285827636719
0, 7, 68, 280.4149169921875
0, 7, 69, 294.4824829101562
0, 7, 70, 302.0485229492188
0, 7, 71, 309.7413330078125
0, 7, 72, 284.8663024902344
0, 7, 73, 295.1632995605469
0, 7, 74, 344.7154541015625
0, 7, 75, 318.5392761230469
0, 7, 76, 326.5997924804688
0, 7, 77, 278.9095458984375
0, 7, 78, 303.2478637695312
0, 7, 79, 296.8944091796875
0, 7, 80, 310.7483520507812
0, 7, 81, 319.3004455566406
0, 7, 82, 328.7737121582031
0, 7, 83, 319.8129272460938
0, 7, 84, 310.1529846191406
0, 7, 85, 271.5184936523438
0, 7, 86, 310.8934020996094
0, 7, 87, 308.8748779296875
0, 7, 88, 308.7552185058594
0, 7, 89, 294.1070251464844
0, 7, 90, 307.7053833007812
0, 7, 91, 315.708984375
0, 7, 92, 286.4410705566406
0, 7, 93, 308.8402404785156
0, 7, 94, 273.2441711425781
0, 7, 95, 295.6600952148438
0, 7, 96, 331.5242919921875
0, 7, 97, 296.0332946777344
0, 7, 98, 289.9549865722656
0, 7, 99, 310.0938415527344
0, 7, 100, 281.0275573730469
0, 7, 101, 275.2715759277344
0, 7, 102, 290.6658020019531
0, 7, 103, 293.23486328125
0, 7, 104, 274.2784423828125
0, 7, 105, 307.3683471679688
0, 7, 106, 318.2481384277344
0, 7, 107, 297.1874084472656
0, 7, 108, 272.4617614746094
0, 7, 109, 237.2622528076172
0, 7, 110, 98.55756378173828
0, 7, 111, 24.52623748779297
0, 7, 112, 14.42213535308838
0, 7, 113, 13.217360496521
0, 7, 114, 12.8449182510376
0, 7, 115, 13.14409923553467
0, 7, 116, 7.745858669281006
0, 7, 117, 7.921478748321533
0, 7, 118, 8.455876350402832
0, 7, 119, 6.786926746368408
0, 7, 120, 7.246996402740479
0, 7, 121, 5.968364238739014
0, 7, 122, 5.078107357025146
0, 7, 123, 4.896631240844727
0, 7, 124, 3.998360395431519
0, 7, 125, 7.129382610321045
0, 7, 126, 6.510653495788574
0, 7, 127, 0.9067232012748718
0, 8, 0, 5.534832000732422
0, 8, 1, 4.567040920257568
0, 8, 2, 3.837738037109375
0, 8, 3, 5.288004398345947
0, 8, 4, 2.957206010818481
0, 8, 5, 4.489153861999512
0, 8, 6, 7.242001533508301
0, 8, 7, 5.431158542633057
0, 8, 8, 7.25975513458252
0, 8, 9, 4.113912582397461
0, 8, 10, 8.286262512207031
0, 8, 11, 10.89397525787354
0, 8, 12, 13.22002029418945
0, 8, 13, 18.80158615112305
0, 8, 14, 15.00408267974854
0, 8, 15, 18.74694442749023
0, 8, 16, 33.39564514160156
0, 8, 17, 129.522705078125
0, 8, 18, 243.9432678222656
0, 8, 19, 294.9786682128906
0, 8, 20, 286.3027954101562
0, 8, 21, 308.5841674804688
0, 8, 22, 295.0788879394531
0, 8, 23, 273.6857299804688
0, 8, 24, 268.9259948730469
0, 8, 25, 276.9537048339844
0, 8, 26, 307.4691162109375
0, 8, 27, 307.0242614746094
0, 8, 28, 305.1814270019531
0, 8, 29, 319.0170288085938
0, 8, 30, 318.8440246582031
0, 8, 31, 303.5543823242188
0, 8, 32, 280.0811462402344
0, 8, 33, 294.228759765625
0, 8, 34, 290.3161010742188
0, 8, 35, 283.2878723144531
0, 8, 36, 314.4384155273438
0, 8, 37, 339.3397827148438
0, 8, 38, 331.5829162597656
0, 8, 39, 280.526123046875
0, 8, 40, 305.4096069335938
