# TOPAS Version: 3.1.p3
# Parameter File: batch_inserts_188.txt
# Results for scorer Readout_Adipose
# Scored in component: MyBox
# X in 1 bin  of 0.75 cm
# Y in 512 bins of 0.0783984 cm
# Z in 128 bins of 0.078125 cm
# EnergyDeposit ( MeV ) : Sum   
0, 0, 0, 6.973509311676025
0, 0, 1, 2.206554651260376
0, 0, 2, 3.825653314590454
0, 0, 3, 2.315911769866943
0, 0, 4, 2.143206596374512
0, 0, 5, 5.486486434936523
0, 0, 6, 6.373231410980225
0, 0, 7, 8.587630271911621
0, 0, 8, 2.674865961074829
0, 0, 9, 3.53360390663147
0, 0, 10, 7.200114250183105
0, 0, 11, 4.369020938873291
0, 0, 12, 4.555137634277344
0, 0, 13, 7.006356239318848
0, 0, 14, 6.94122838973999
0, 0, 15, 9.560282707214355
0, 0, 16, 8.313531875610352
0, 0, 17, 9.079022407531738
0, 0, 18, 12.99193668365479
0, 0, 19, 42.7262077331543
0, 0, 20, 139.5055084228516
0, 0, 21, 223.7428436279297
0, 0, 22, 247.8572998046875
0, 0, 23, 256.3914489746094
0, 0, 24, 250.4506225585938
0, 0, 25, 258.0325317382812
0, 0, 26, 233.5438232421875
0, 0, 27, 237.3933258056641
0, 0, 28, 273.2532348632812
0, 0, 29, 252.189697265625
0, 0, 30, 229.2536163330078
0, 0, 31, 242.8118743896484
0, 0, 32, 263.1468505859375
0, 0, 33, 260.446044921875
0, 0, 34, 288.8700866699219
0, 0, 35, 267.0560607910156
0, 0, 36, 246.9384460449219
0, 0, 37, 252.8961639404297
0, 0, 38, 268.8679809570312
0, 0, 39, 228.9174346923828
0, 0, 40, 240.9293060302734
0, 0, 41, 265.4796447753906
0, 0, 42, 228.8212432861328
0, 0, 43, 260.175048828125
0, 0, 44, 252.9384765625
0, 0, 45, 253.3071746826172
0, 0, 46, 243.2652130126953
0, 0, 47, 254.3175659179688
0, 0, 48, 266.8770751953125
0, 0, 49, 273.7750244140625
0, 0, 50, 250.4684753417969
0, 0, 51, 255.3230590820312
0, 0, 52, 273.5683898925781
0, 0, 53, 293.31787109375
0, 0, 54, 240.9849548339844
0, 0, 55, 240.4337921142578
0, 0, 56, 277.3029174804688
0, 0, 57, 261.9109802246094
0, 0, 58, 248.0016326904297
0, 0, 59, 269.531005859375
0, 0, 60, 234.0226593017578
0, 0, 61, 245.6997985839844
0, 0, 62, 259.7735290527344
0, 0, 63, 267.6630859375
0, 0, 64, 256.8107604980469
0, 0, 65, 260.8679504394531
0, 0, 66, 276.1366271972656
0, 0, 67, 246.2655487060547
0, 0, 68, 258.2747192382812
0, 0, 69, 261.5733947753906
0, 0, 70, 271.470947265625
0, 0, 71, 237.5379943847656
0, 0, 72, 248.8447570800781
0, 0, 73, 257.6746826171875
0, 0, 74, 252.1425628662109
0, 0, 75, 241.2572479248047
0, 0, 76, 227.3966217041016
0, 0, 77, 258.6696472167969
0, 0, 78, 261.0044860839844
0, 0, 79, 278.1565551757812
0, 0, 80, 214.8694763183594
0, 0, 81, 267.0866088867188
0, 0, 82, 256.7542724609375
0, 0, 83, 248.0237121582031
0, 0, 84, 270.7260437011719
0, 0, 85, 231.4545135498047
0, 0, 86, 252.8744201660156
0, 0, 87, 252.8206481933594
0, 0, 88, 260.6705017089844
0, 0, 89, 282.8770446777344
0, 0, 90, 245.5155334472656
0, 0, 91, 282.0580444335938
0, 0, 92, 252.2947998046875
0, 0, 93, 249.6795654296875
0, 0, 94, 250.8676300048828
0, 0, 95, 249.9123687744141
0, 0, 96, 275.32275390625
0, 0, 97, 273.6387634277344
0, 0, 98, 275.2195739746094
0, 0, 99, 258.8211059570312
0, 0, 100, 258.4761047363281
0, 0, 101, 227.1815032958984
0, 0, 102, 232.3962554931641
0, 0, 103, 268.7639770507812
0, 0, 104, 254.2954864501953
0, 0, 105, 252.8701934814453
0, 0, 106, 245.1851043701172
0, 0, 107, 151.0305633544922
0, 0, 108, 38.18266677856445
0, 0, 109, 11.24930858612061
0, 0, 110, 12.52337074279785
0, 0, 111, 7.873600006103516
0, 0, 112, 6.952848434448242
0, 0, 113, 5.247308731079102
0, 0, 114, 7.850450038909912
0, 0, 115, 6.138471126556396
0, 0, 116, 4.939326763153076
0, 0, 117, 5.883139610290527
0, 0, 118, 7.419567108154297
0, 0, 119, 5.336715698242188
0, 0, 120, 2.677501678466797
0, 0, 121, 3.801146745681763
0, 0, 122, 4.668889999389648
0, 0, 123, 2.446201086044312
0, 0, 124, 5.703004837036133
0, 0, 125, 5.173367023468018
0, 0, 126, 5.166716575622559
0, 0, 127, 2.774428844451904
0, 1, 0, 8.220682144165039
0, 1, 1, 3.306580781936646
0, 1, 2, 3.553536891937256
0, 1, 3, 2.62645435333252
0, 1, 4, 3.080983638763428
0, 1, 5, 3.902620553970337
0, 1, 6, 6.353170871734619
0, 1, 7, 4.4539475440979
0, 1, 8, 7.088188648223877
0, 1, 9, 3.767088174819946
0, 1, 10, 7.153689861297607
0, 1, 11, 13.17579936981201
0, 1, 12, 8.352360725402832
0, 1, 13, 9.314648628234863
0, 1, 14, 9.189416885375977
0, 1, 15, 10.59736156463623
0, 1, 16, 11.67000102996826
0, 1, 17, 10.18477344512939
0, 1, 18, 21.26151657104492
0, 1, 19, 65.99754333496094
0, 1, 20, 199.2008666992188
0, 1, 21, 255.1025543212891
0, 1, 22, 298.2413635253906
0, 1, 23, 283.1676635742188
0, 1, 24, 275.2171325683594
0, 1, 25, 286.4299621582031
0, 1, 26, 269.52001953125
0, 1, 27, 306.4017944335938
0, 1, 28, 299.2303771972656
0, 1, 29, 295.6239013671875
0, 1, 30, 279.5301818847656
0, 1, 31, 291.4518127441406
0, 1, 32, 290.3807678222656
0, 1, 33, 295.9635009765625
0, 1, 34, 292.1307373046875
0, 1, 35, 278.1039733886719
0, 1, 36, 307.3204345703125
0, 1, 37, 293.9082336425781
0, 1, 38, 277.9769897460938
0, 1, 39, 295.6009216308594
0, 1, 40, 264.7992858886719
0, 1, 41, 285.8399658203125
0, 1, 42, 289.6055603027344
0, 1, 43, 334.6700134277344
0, 1, 44, 278.6166687011719
0, 1, 45, 293.8838195800781
0, 1, 46, 259.76513671875
0, 1, 47, 309.7708740234375
0, 1, 48, 285.302001953125
0, 1, 49, 303.2065734863281
0, 1, 50, 262.3604736328125
0, 1, 51, 273.0667724609375
0, 1, 52, 293.7249145507812
0, 1, 53, 304.7127685546875
0, 1, 54, 273.5840759277344
0, 1, 55, 293.8027648925781
0, 1, 56, 278.0834655761719
0, 1, 57, 298.8479919433594
0, 1, 58, 311.7423400878906
0, 1, 59, 290.9793701171875
0, 1, 60, 296.9571228027344
0, 1, 61, 276.1102600097656
0, 1, 62, 306.9981079101562
0, 1, 63, 287.6143493652344
0, 1, 64, 290.1861572265625
0, 1, 65, 295.9342041015625
0, 1, 66, 291.7685852050781
0, 1, 67, 290.5352783203125
0, 1, 68, 278.2111511230469
0, 1, 69, 280.3222351074219
0, 1, 70, 273.9058227539062
0, 1, 71, 272.7140197753906
0, 1, 72, 285.4263000488281
0, 1, 73, 303.9530639648438
0, 1, 74, 306.3056640625
0, 1, 75, 293.8783874511719
0, 1, 76, 286.7350158691406
0, 1, 77, 289.555419921875
0, 1, 78, 297.8683166503906
0, 1, 79, 302.7149353027344
0, 1, 80, 299.1749877929688
0, 1, 81, 303.189208984375
0, 1, 82, 283.2980651855469
0, 1, 83, 332.7104187011719
0, 1, 84, 308.2095947265625
0, 1, 85, 253.2857666015625
0, 1, 86, 293.7570190429688
0, 1, 87, 290.4770812988281
0, 1, 88, 297.46923828125
0, 1, 89, 292.228515625
0, 1, 90, 270.8286743164062
0, 1, 91, 317.6465759277344
0, 1, 92, 289.1795349121094
0, 1, 93, 286.4192810058594
0, 1, 94, 304.3681945800781
0, 1, 95, 284.687255859375
0, 1, 96, 283.0032348632812
0, 1, 97, 301.3033142089844
0, 1, 98, 278.4080200195312
0, 1, 99, 266.8223266601562
0, 1, 100, 275.9183044433594
0, 1, 101, 281.4662170410156
0, 1, 102, 278.0075073242188
0, 1, 103, 281.7098999023438
0, 1, 104, 307.2014465332031
0, 1, 105, 296.33349609375
0, 1, 106, 261.402099609375
0, 1, 107, 192.4415893554688
0, 1, 108, 80.46786499023438
0, 1, 109, 23.22661590576172
0, 1, 110, 10.87326526641846
0, 1, 111, 8.848387718200684
0, 1, 112, 10.60734558105469
0, 1, 113, 4.928377151489258
0, 1, 114, 5.481170177459717
0, 1, 115, 4.989785194396973
0, 1, 116, 9.851256370544434
0, 1, 117, 4.855542659759521
0, 1, 118, 6.173210144042969
0, 1, 119, 4.45923900604248
0, 1, 120, 3.361804246902466
0, 1, 121, 3.584382295608521
0, 1, 122, 2.972613573074341
0, 1, 123, 2.798576354980469
0, 1, 124, 6.395497798919678
0, 1, 125, 6.456272602081299
0, 1, 126, 3.965975046157837
0, 1, 127, 1.482734084129333
0, 2, 0, 4.689955711364746
0, 2, 1, 2.916682720184326
0, 2, 2, 3.199224472045898
0, 2, 3, 5.717950820922852
0, 2, 4, 3.062622308731079
0, 2, 5, 2.871014833450317
0, 2, 6, 3.130832672119141
0, 2, 7, 4.369885921478271
0, 2, 8, 4.94945240020752
0, 2, 9, 5.94045877456665
0, 2, 10, 7.122583389282227
0, 2, 11, 6.316878318786621
0, 2, 12, 5.628153800964355
0, 2, 13, 9.769043922424316
0, 2, 14, 10.07515621185303
0, 2, 15, 7.789023399353027
0, 2, 16, 11.46105575561523
0, 2, 17, 15.70307540893555
0, 2, 18, 28.06137657165527
0, 2, 19, 117.0101318359375
0, 2, 20, 246.2801513671875
0, 2, 21, 271.2071228027344
0, 2, 22, 316.5576171875
0, 2, 23, 301.6364440917969
0, 2, 24, 285.825439453125
0, 2, 25, 302.8711547851562
0, 2, 26, 294.3272094726562
0, 2, 27, 274.9238891601562
0, 2, 28, 272.0548095703125
0, 2, 29, 274.3907165527344
0, 2, 30, 288.2432250976562
0, 2, 31, 276.6331481933594
0, 2, 32, 294.8475952148438
0, 2, 33, 283.1248168945312
0, 2, 34, 333.886474609375
0, 2, 35, 288.6839294433594
0, 2, 36, 303.3899536132812
0, 2, 37, 316.1729125976562
0, 2, 38, 310.2331237792969
0, 2, 39, 265.9474182128906
0, 2, 40, 308.7504272460938
0, 2, 41, 293.4344787597656
0, 2, 42, 305.0986022949219
0, 2, 43, 312.3388671875
0, 2, 44, 310.9138793945312
0, 2, 45, 324.6766357421875
0, 2, 46, 288.584228515625
0, 2, 47, 303.8280029296875
0, 2, 48, 281.9022521972656
0, 2, 49, 277.673828125
0, 2, 50, 295.9198608398438
0, 2, 51, 283.4834594726562
0, 2, 52, 275.1309814453125
0, 2, 53, 286.0470886230469
0, 2, 54, 278.9130249023438
0, 2, 55, 276.0450439453125
0, 2, 56, 302.3231201171875
0, 2, 57, 290.71044921875
0, 2, 58, 302.2019958496094
0, 2, 59, 292.4609680175781
0, 2, 60, 318.955322265625
0, 2, 61, 301.2628173828125
0, 2, 62, 314.3442077636719
0, 2, 63, 302.7329406738281
0, 2, 64, 296.6633911132812
0, 2, 65, 315.1866149902344
0, 2, 66, 278.9352111816406
0, 2, 67, 291.3356323242188
0, 2, 68, 297.2943420410156
0, 2, 69, 310.5706787109375
0, 2, 70, 333.4539794921875
0, 2, 71, 282.4758605957031
0, 2, 72, 301.2946166992188
0, 2, 73, 310.7997131347656
0, 2, 74, 285.875
0, 2, 75, 305.9527282714844
0, 2, 76, 285.6455078125
0, 2, 77, 302.3473205566406
0, 2, 78, 313.8496398925781
0, 2, 79, 308.4071655273438
0, 2, 80, 297.7001342773438
0, 2, 81, 281.8303527832031
0, 2, 82, 318.600830078125
0, 2, 83, 312.8824768066406
0, 2, 84, 287.5360107421875
0, 2, 85, 281.7183227539062
0, 2, 86, 324.5960998535156
0, 2, 87, 285.9065246582031
0, 2, 88, 279.4547424316406
0, 2, 89, 295.9252014160156
0, 2, 90, 294.7126770019531
0, 2, 91, 275.8563537597656
0, 2, 92, 306.8574829101562
0, 2, 93, 317.0858764648438
0, 2, 94, 291.8551635742188
0, 2, 95, 314.7713012695312
0, 2, 96, 314.7244262695312
0, 2, 97, 290.2817687988281
0, 2, 98, 293.7220458984375
0, 2, 99, 274.36279296875
0, 2, 100, 305.3592224121094
0, 2, 101, 302.2153625488281
0, 2, 102, 296.899169921875
0, 2, 103, 292.3721313476562
0, 2, 104, 292.1675415039062
0, 2, 105, 274.4881286621094
0, 2, 106, 297.8476867675781
0, 2, 107, 269.8345031738281
0, 2, 108, 116.347785949707
0, 2, 109, 32.30989074707031
0, 2, 110, 9.235772132873535
0, 2, 111, 11.20107650756836
0, 2, 112, 9.38263988494873
0, 2, 113, 9.557131767272949
0, 2, 114, 9.537826538085938
0, 2, 115, 10.78267002105713
0, 2, 116, 7.713233947753906
0, 2, 117, 7.187131881713867
0, 2, 118, 2.001073598861694
0, 2, 119, 3.30413293838501
0, 2, 120, 9.72465705871582
0, 2, 121, 1.626839637756348
0, 2, 122, 5.524570465087891
0, 2, 123, 3.355489730834961
0, 2, 124, 2.648042917251587
0, 2, 125, 4.367003440856934
0, 2, 126, 3.890350818634033
0, 2, 127, 4.895774364471436
0, 3, 0, 2.303075790405273
0, 3, 1, 3.116129159927368
0, 3, 2, 5.694663047790527
0, 3, 3, 1.050533175468445
0, 3, 4, 5.441030502319336
0, 3, 5, 6.810564994812012
0, 3, 6, 7.887593746185303
0, 3, 7, 4.612949371337891
0, 3, 8, 6.483269691467285
0, 3, 9, 7.889174938201904
0, 3, 10, 5.629302501678467
0, 3, 11, 6.743251323699951
0, 3, 12, 9.904122352600098
0, 3, 13, 14.3960132598877
0, 3, 14, 10.34447479248047
0, 3, 15, 14.15119934082031
0, 3, 16, 11.63761425018311
0, 3, 17, 19.44334602355957
0, 3, 18, 54.70540237426758
0, 3, 19, 175.1351776123047
0, 3, 20, 268.3891906738281
0, 3, 21, 271.8146667480469
0, 3, 22, 281.98974609375
0, 3, 23, 285.6634521484375
0, 3, 24, 285.7856750488281
0, 3, 25, 270.4711303710938
0, 3, 26, 303.7225341796875
0, 3, 27, 291.4126892089844
0, 3, 28, 280.8010864257812
0, 3, 29, 337.8833618164062
0, 3, 30, 315.2113952636719
0, 3, 31, 287.9880676269531
0, 3, 32, 307.6032409667969
0, 3, 33, 313.30126953125
0, 3, 34, 320.4206237792969
0, 3, 35, 306.3641052246094
0, 3, 36, 267.9885864257812
0, 3, 37, 316.4320373535156
0, 3, 38, 306.1580810546875
0, 3, 39, 290.4425354003906
0, 3, 40, 265.8240966796875
0, 3, 41, 301.2310791015625
0, 3, 42, 284.0624084472656
0, 3, 43, 305.9598388671875
0, 3, 44, 310.5496826171875
0, 3, 45, 290.7815246582031
0, 3, 46, 328.3995361328125
0, 3, 47, 298.7001342773438
0, 3, 48, 301.8297729492188
0, 3, 49, 277.8480834960938
0, 3, 50, 290.2507629394531
0, 3, 51, 276.4330444335938
0, 3, 52, 316.8351745605469
0, 3, 53, 286.9368896484375
0, 3, 54, 286.5314025878906
0, 3, 55, 283.9464416503906
0, 3, 56, 299.1789245605469
0, 3, 57, 289.0967712402344
0, 3, 58, 309.865478515625
0, 3, 59, 295.5365600585938
0, 3, 60, 297.6120910644531
0, 3, 61, 266.4017028808594
0, 3, 62, 283.8790588378906
0, 3, 63, 308.4229736328125
0, 3, 64, 316.0028381347656
0, 3, 65, 304.9485473632812
0, 3, 66, 315.9198913574219
0, 3, 67, 317.5255737304688
0, 3, 68, 278.9363098144531
0, 3, 69, 283.2293090820312
0, 3, 70, 288.6405944824219
0, 3, 71, 300.6626281738281
0, 3, 72, 271.5244140625
0, 3, 73, 307.7715148925781
0, 3, 74, 295.4600524902344
0, 3, 75, 290.9238586425781
0, 3, 76, 305.1629028320312
0, 3, 77, 314.3246154785156
0, 3, 78, 303.2869567871094
0, 3, 79, 282.0401916503906
0, 3, 80, 291.2564697265625
0, 3, 81, 311.8703002929688
0, 3, 82, 315.9167785644531
0, 3, 83, 301.503662109375
0, 3, 84, 309.9073181152344
0, 3, 85, 292.8733825683594
0, 3, 86, 302.6280212402344
0, 3, 87, 296.928466796875
0, 3, 88, 297.97216796875
0, 3, 89, 296.8412780761719
0, 3, 90, 275.7158813476562
0, 3, 91, 286.2850341796875
0, 3, 92, 302.8001403808594
0, 3, 93, 311.8305969238281
0, 3, 94, 297.6555480957031
0, 3, 95, 334.2503662109375
0, 3, 96, 290.5235290527344
0, 3, 97, 284.4077453613281
0, 3, 98, 278.32763671875
0, 3, 99, 260.6241455078125
0, 3, 100, 282.5221862792969
0, 3, 101, 295.7035522460938
0, 3, 102, 274.7493591308594
0, 3, 103, 320.5963439941406
0, 3, 104, 308.9353637695312
0, 3, 105, 287.0658569335938
0, 3, 106, 301.5787048339844
0, 3, 107, 283.8266296386719
0, 3, 108, 167.7696990966797
0, 3, 109, 55.82297515869141
0, 3, 110, 18.4930305480957
0, 3, 111, 13.8598804473877
0, 3, 112, 11.89371585845947
0, 3, 113, 6.562796592712402
0, 3, 114, 10.28848361968994
0, 3, 115, 6.638981819152832
0, 3, 116, 8.456761360168457
0, 3, 117, 8.445503234863281
0, 3, 118, 8.600836753845215
0, 3, 119, 7.325198650360107
0, 3, 120, 6.105577945709229
0, 3, 121, 2.163790464401245
0, 3, 122, 4.613939762115479
0, 3, 123, 7.102005004882812
0, 3, 124, 5.861056804656982
0, 3, 125, 5.694483757019043
0, 3, 126, 6.307936191558838
0, 3, 127, 1.98526668548584
0, 4, 0, 2.662914037704468
0, 4, 1, 5.023485660552979
0, 4, 2, 3.821043014526367
0, 4, 3, 2.389822721481323
0, 4, 4, 6.657585144042969
0, 4, 5, 7.980320453643799
0, 4, 6, 6.687641143798828
0, 4, 7, 5.580990314483643
0, 4, 8, 4.880846500396729
0, 4, 9, 5.486437320709229
0, 4, 10, 6.494124412536621
0, 4, 11, 6.016625881195068
0, 4, 12, 5.271708011627197
0, 4, 13, 9.075971603393555
0, 4, 14, 11.07202911376953
0, 4, 15, 8.977053642272949
0, 4, 16, 13.07551097869873
0, 4, 17, 18.54490089416504
0, 4, 18, 92.5628662109375
0, 4, 19, 224.1706848144531
0, 4, 20, 285.1050415039062
0, 4, 21, 273.1939086914062
0, 4, 22, 305.8129272460938
0, 4, 23, 267.2852783203125
0, 4, 24, 290.587890625
0, 4, 25, 271.2987976074219
0, 4, 26, 295.6153564453125
0, 4, 27, 283.0237121582031
0, 4, 28, 306.6585083007812
0, 4, 29, 322.3380737304688
0, 4, 30, 309.2685852050781
0, 4, 31, 308.4035034179688
0, 4, 32, 280.7807006835938
0, 4, 33, 297.7102661132812
0, 4, 34, 297.6495666503906
0, 4, 35, 311.6088256835938
0, 4, 36, 294.3680725097656
0, 4, 37, 289.9316711425781
0, 4, 38, 298.3570556640625
0, 4, 39, 294.0372009277344
0, 4, 40, 302.3911437988281
0, 4, 41, 312.9024963378906
0, 4, 42, 329.4311218261719
0, 4, 43, 297.1661682128906
0, 4, 44, 321.3821411132812
0, 4, 45, 324.4859924316406
0, 4, 46, 304.1953430175781
0, 4, 47, 292.4009094238281
0, 4, 48, 297.0900268554688
0, 4, 49, 276.8852233886719
0, 4, 50, 296.0377807617188
0, 4, 51, 317.6361389160156
0, 4, 52, 327.4278869628906
0, 4, 53, 303.9302978515625
0, 4, 54, 287.8042602539062
0, 4, 55, 314.7047729492188
0, 4, 56, 284.8382873535156
0, 4, 57, 310.6477661132812
0, 4, 58, 294.3659973144531
0, 4, 59, 307.9585876464844
0, 4, 60, 301.2844848632812
0, 4, 61, 314.3949890136719
0, 4, 62, 308.8536682128906
0, 4, 63, 297.9115905761719
0, 4, 64, 331.0976257324219
0, 4, 65, 313.9635620117188
0, 4, 66, 293.4203491210938
0, 4, 67, 285.0018615722656
0, 4, 68, 312.3416137695312
0, 4, 69, 275.1455688476562
0, 4, 70, 300.6987609863281
0, 4, 71, 322.1192321777344
0, 4, 72, 333.119140625
0, 4, 73, 303.5452575683594
0, 4, 74, 292.8551330566406
0, 4, 75, 290.6932373046875
0, 4, 76, 275.1035766601562
0, 4, 77, 277.335205078125
0, 4, 78, 310.3134765625
0, 4, 79, 317.6262512207031
0, 4, 80, 315.6328125
0, 4, 81, 312.0931396484375
0, 4, 82, 297.3935852050781
0, 4, 83, 301.1614379882812
0, 4, 84, 290.0626220703125
0, 4, 85, 296.3658752441406
0, 4, 86, 298.3128051757812
0, 4, 87, 284.8052368164062
0, 4, 88, 305.7521362304688
0, 4, 89, 295.8953552246094
0, 4, 90, 332.6006774902344
0, 4, 91, 302.0136108398438
0, 4, 92, 288.960693359375
0, 4, 93, 295.4969482421875
0, 4, 94, 293.391845703125
0, 4, 95, 288.5535888671875
0, 4, 96, 326.6110534667969
0, 4, 97, 274.8518371582031
0, 4, 98, 327.6931762695312
0, 4, 99, 314.2492980957031
0, 4, 100, 300.1558532714844
0, 4, 101, 256.3829650878906
0, 4, 102, 296.4170227050781
0, 4, 103, 316.7481689453125
0, 4, 104, 282.5204467773438
0, 4, 105, 309.8184509277344
0, 4, 106, 287.2212829589844
0, 4, 107, 294.7111206054688
0, 4, 108, 226.6851196289062
0, 4, 109, 78.85413360595703
0, 4, 110, 16.14266586303711
0, 4, 111, 15.02718734741211
0, 4, 112, 8.372976303100586
0, 4, 113, 10.42298793792725
0, 4, 114, 9.093095779418945
0, 4, 115, 10.4286584854126
0, 4, 116, 8.641756057739258
0, 4, 117, 7.73905086517334
0, 4, 118, 11.02332973480225
0, 4, 119, 11.28573322296143
0, 4, 120, 5.178088188171387
0, 4, 121, 5.346922874450684
0, 4, 122, 4.655976295471191
0, 4, 123, 6.196977615356445
0, 4, 124, 5.571527481079102
0, 4, 125, 8.08591365814209
0, 4, 126, 4.015478134155273
0, 4, 127, 5.302329540252686
0, 5, 0, 3.288236856460571
0, 5, 1, 3.747954607009888
0, 5, 2, 5.173152446746826
0, 5, 3, 3.268108606338501
0, 5, 4, 5.499636173248291
0, 5, 5, 7.342203617095947
0, 5, 6, 5.718986511230469
0, 5, 7, 5.96790599822998
0, 5, 8, 4.279131889343262
0, 5, 9, 5.057958602905273
0, 5, 10, 7.009956836700439
0, 5, 11, 6.719072818756104
0, 5, 12, 7.010401248931885
0, 5, 13, 4.716990947723389
0, 5, 14, 12.56721210479736
0, 5, 15, 17.4939136505127
0, 5, 16, 14.70560550689697
0, 5, 17, 30.19165802001953
0, 5, 18, 136.6908874511719
0, 5, 19, 286.2472229003906
0, 5, 20, 307.8470153808594
0, 5, 21, 316.0120544433594
0, 5, 22, 275.5596923828125
0, 5, 23, 310.0003356933594
0, 5, 24, 301.5316467285156
0, 5, 25, 290.1266479492188
0, 5, 26, 294.0610961914062
0, 5, 27, 322.8509826660156
0, 5, 28, 304.4458618164062
0, 5, 29, 299.6200256347656
0, 5, 30, 321.5973510742188
0, 5, 31, 286.5663452148438
0, 5, 32, 302.1357421875
0, 5, 33, 304.1763000488281
0, 5, 34, 296.3254089355469
0, 5, 35, 310.1175842285156
0, 5, 36, 268.3117370605469
0, 5, 37, 282.8078308105469
0, 5, 38, 294.7828063964844
0, 5, 39, 312.0933837890625
0, 5, 40, 307.9556274414062
0, 5, 41, 272.6831665039062
0, 5, 42, 306.882080078125
0, 5, 43, 312.0325317382812
0, 5, 44, 292.3316040039062
0, 5, 45, 300.9173278808594
0, 5, 46, 266.4419250488281
0, 5, 47, 279.0496215820312
0, 5, 48, 295.8680114746094
0, 5, 49, 288.1022644042969
0, 5, 50, 296.8749389648438
0, 5, 51, 278.5521545410156
0, 5, 52, 268.6212463378906
0, 5, 53, 287.6934204101562
0, 5, 54, 290.4569091796875
0, 5, 55, 344.3818359375
0, 5, 56, 305.6340942382812
0, 5, 57, 306.9204406738281
0, 5, 58, 313.7623596191406
0, 5, 59, 302.7926025390625
0, 5, 60, 308.9407958984375
0, 5, 61, 280.9100646972656
0, 5, 62, 326.8229064941406
0, 5, 63, 292.0215148925781
0, 5, 64, 323.7977905273438
0, 5, 65, 308.0097045898438
0, 5, 66, 328.5937805175781
0, 5, 67, 311.1599731445312
0, 5, 68, 310.4649963378906
0, 5, 69, 310.48974609375
0, 5, 70, 303.4629211425781
0, 5, 71, 271.2583923339844
0, 5, 72, 311.5558166503906
0, 5, 73, 302.9091796875
0, 5, 74, 297.4298095703125
0, 5, 75, 295.1582641601562
0, 5, 76, 286.0916137695312
0, 5, 77, 298.5895690917969
0, 5, 78, 319.6554565429688
0, 5, 79, 308.3780517578125
0, 5, 80, 294.1911315917969
0, 5, 81, 324.890869140625
0, 5, 82, 323.6973571777344
0, 5, 83, 281.2996520996094
0, 5, 84, 304.3071899414062
0, 5, 85, 271.4413146972656
0, 5, 86, 326.4857482910156
0, 5, 87, 285.6428833007812
0, 5, 88, 315.8243103027344
0, 5, 89, 305.8186340332031
0, 5, 90, 315.5563659667969
0, 5, 91, 313.8605651855469
0, 5, 92, 297.1006164550781
0, 5, 93, 321.1979370117188
0, 5, 94, 307.2916564941406
0, 5, 95, 297.2275695800781
0, 5, 96, 297.5688781738281
0, 5, 97, 296.4090881347656
0, 5, 98, 320.2016296386719
0, 5, 99, 303.5910949707031
0, 5, 100, 292.5150451660156
0, 5, 101, 305.6850280761719
0, 5, 102, 292.7831420898438
0, 5, 103, 313.5865173339844
0, 5, 104, 303.8335266113281
0, 5, 105, 291.2495727539062
0, 5, 106, 281.5120849609375
0, 5, 107, 292.4140319824219
0, 5, 108, 267.8405151367188
0, 5, 109, 159.0285186767578
0, 5, 110, 40.04761123657227
0, 5, 111, 20.11631965637207
0, 5, 112, 19.96323585510254
0, 5, 113, 14.40163326263428
0, 5, 114, 12.76037502288818
0, 5, 115, 5.58162260055542
0, 5, 116, 7.286035537719727
0, 5, 117, 8.798399925231934
0, 5, 118, 11.96042919158936
0, 5, 119, 4.53241491317749
0, 5, 120, 9.693521499633789
0, 5, 121, 7.853388786315918
0, 5, 122, 6.056111812591553
0, 5, 123, 3.480785369873047
0, 5, 124, 6.755807399749756
0, 5, 125, 5.001078605651855
0, 5, 126, 6.660557270050049
0, 5, 127, 3.313776969909668
0, 6, 0, 4.055392265319824
0, 6, 1, 2.384655714035034
0, 6, 2, 5.642742156982422
0, 6, 3, 6.319913864135742
0, 6, 4, 4.284927845001221
0, 6, 5, 6.167994499206543
0, 6, 6, 9.059695243835449
0, 6, 7, 5.359200477600098
0, 6, 8, 6.15384578704834
0, 6, 9, 5.598268508911133
0, 6, 10, 7.464834690093994
0, 6, 11, 9.402022361755371
0, 6, 12, 8.638020515441895
0, 6, 13, 13.97565841674805
0, 6, 14, 8.474869728088379
0, 6, 15, 15.2693920135498
0, 6, 16, 28.90327072143555
0, 6, 17, 54.62776565551758
0, 6, 18, 173.4626617431641
0, 6, 19, 277.0083923339844
0, 6, 20, 290.9268493652344
0, 6, 21, 313.6588134765625
0, 6, 22, 318.9794921875
0, 6, 23, 305.8571166992188
0, 6, 24, 317.5416564941406
0, 6, 25, 315.5693359375
0, 6, 26, 320.1709289550781
0, 6, 27, 332.1529846191406
0, 6, 28, 294.7358093261719
0, 6, 29, 330.3019714355469
0, 6, 30, 282.4109191894531
0, 6, 31, 285.3512573242188
0, 6, 32, 340.6977233886719
0, 6, 33, 302.6763916015625
0, 6, 34, 341.2041625976562
0, 6, 35, 319.7018432617188
0, 6, 36, 275.11181640625
0, 6, 37, 289.6280822753906
0, 6, 38, 312.6156921386719
0, 6, 39, 298.1875915527344
0, 6, 40, 284.0546875
0, 6, 41, 294.129150390625
0, 6, 42, 304.2497253417969
0, 6, 43, 288.5363464355469
0, 6, 44, 279.9969482421875
0, 6, 45, 318.9994506835938
0, 6, 46, 300.4328918457031
0, 6, 47, 332.3283996582031
0, 6, 48, 291.9580078125
0, 6, 49, 312.5691528320312
0, 6, 50, 328.9284057617188
0, 6, 51, 310.7676696777344
0, 6, 52, 321.3056945800781
0, 6, 53, 328.1849060058594
0, 6, 54, 304.6659851074219
0, 6, 55, 307.6428833007812
0, 6, 56, 292.9582824707031
0, 6, 57, 312.0008850097656
0, 6, 58, 261.8703308105469
0, 6, 59, 301.2267761230469
0, 6, 60, 311.8429870605469
0, 6, 61, 272.1100463867188
0, 6, 62, 336.1843872070312
0, 6, 63, 322.5278015136719
0, 6, 64, 290.2605285644531
0, 6, 65, 283.5073852539062
0, 6, 66, 302.7549743652344
0, 6, 67, 310.080810546875
0, 6, 68, 294.2459106445312
0, 6, 69, 278.8062133789062
0, 6, 70, 278.230712890625
0, 6, 71, 289.4329528808594
0, 6, 72, 312.0233154296875
0, 6, 73, 293.1227416992188
0, 6, 74, 329.7335815429688
0, 6, 75, 346.50439453125
0, 6, 76, 298.9545288085938
0, 6, 77, 285.7886962890625
0, 6, 78, 278.5497741699219
0, 6, 79, 293.2984008789062
0, 6, 80, 298.2484130859375
0, 6, 81, 314.4114074707031
0, 6, 82, 318.927001953125
0, 6, 83, 320.9944458007812
0, 6, 84, 296.0042114257812
0, 6, 85, 301.4380187988281
0, 6, 86, 331.2886962890625
0, 6, 87, 291.5343017578125
0, 6, 88, 306.441162109375
0, 6, 89, 304.7856140136719
0, 6, 90, 304.9243469238281
0, 6, 91, 311.3948669433594
0, 6, 92, 284.7025451660156
0, 6, 93, 296.3138732910156
0, 6, 94, 272.6592712402344
0, 6, 95, 298.5260009765625
0, 6, 96, 350.3676452636719
0, 6, 97, 308.6751708984375
0, 6, 98, 300.1960754394531
0, 6, 99, 272.5956420898438
0, 6, 100, 310.0127258300781
0, 6, 101, 293.2863159179688
0, 6, 102, 308.7390441894531
0, 6, 103, 307.8863525390625
0, 6, 104, 292.102294921875
0, 6, 105, 301.1605834960938
0, 6, 106, 306.8062133789062
0, 6, 107, 304.7632751464844
0, 6, 108, 265.994384765625
0, 6, 109, 188.4689025878906
0, 6, 110, 57.24916458129883
0, 6, 111, 22.04621696472168
0, 6, 112, 14.05010795593262
0, 6, 113, 9.834585189819336
0, 6, 114, 13.13949584960938
0, 6, 115, 11.80249214172363
0, 6, 116, 9.422293663024902
0, 6, 117, 6.13116455078125
0, 6, 118, 10.83975982666016
0, 6, 119, 12.43776321411133
0, 6, 120, 6.750678539276123
0, 6, 121, 6.048588275909424
0, 6, 122, 6.940115451812744
0, 6, 123, 4.524471759796143
0, 6, 124, 5.747024059295654
0, 6, 125, 7.642263412475586
0, 6, 126, 4.272146701812744
0, 6, 127, 8.599082946777344
0, 7, 0, 5.833200931549072
0, 7, 1, 4.901524543762207
0, 7, 2, 5.933247089385986
0, 7, 3, 7.286733150482178
0, 7, 4, 6.237210750579834
0, 7, 5, 3.666190624237061
0, 7, 6, 5.50589656829834
0, 7, 7, 6.333767414093018
0, 7, 8, 5.583703517913818
0, 7, 9, 8.594513893127441
0, 7, 10, 8.780232429504395
0, 7, 11, 12.34948062896729
0, 7, 12, 11.3575553894043
0, 7, 13, 11.99063301086426
0, 7, 14, 11.74503993988037
0, 7, 15, 15.74901008605957
0, 7, 16, 25.67131996154785
0, 7, 17, 98.30705261230469
0, 7, 18, 218.9078979492188
0, 7, 19, 289.8919372558594
0, 7, 20, 295.71923828125
0, 7, 21, 278.2094421386719
0, 7, 22, 298.9549560546875
0, 7, 23, 289.3475646972656
0, 7, 24, 315.5788879394531
0, 7, 25, 324.9182434082031
0, 7, 26, 277.0660400390625
0, 7, 27, 297.379638671875
0, 7, 28, 327.043701171875
0, 7, 29, 320.5934143066406
0, 7, 30, 300.9849548339844
0, 7, 31, 279.5852355957031
0, 7, 32, 306.4822692871094
0, 7, 33, 261.1381225585938
0, 7, 34, 296.9054260253906
0, 7, 35, 320.3123474121094
0, 7, 36, 331.9657287597656
0, 7, 37, 322.7604064941406
0, 7, 38, 297.8753662109375
0, 7, 39, 306.6478271484375
0, 7, 40, 289.6458129882812
0, 7, 41, 272.6177062988281
0, 7, 42, 300.4075317382812
0, 7, 43, 277.9775390625
0, 7, 44, 304.4807434082031
0, 7, 45, 295.5575256347656
0, 7, 46, 283.9112243652344
0, 7, 47, 328.5064697265625
0, 7, 48, 288.5473937988281
0, 7, 49, 301.4485778808594
0, 7, 50, 320.4009704589844
0, 7, 51, 298.7867126464844
0, 7, 52, 328.5855102539062
0, 7, 53, 309.0696716308594
0, 7, 54, 325.8342895507812
0, 7, 55, 307.482421875
0, 7, 56, 284.2572937011719
0, 7, 57, 281.83740234375
0, 7, 58, 298.3298034667969
0, 7, 59, 293.2303161621094
0, 7, 60, 323.0443725585938
0, 7, 61, 278.0067138671875
0, 7, 62, 296.244873046875
0, 7, 63, 293.4002990722656
0, 7, 64, 305.9776916503906
0, 7, 65, 330.2940979003906
0, 7, 66, 319.1832580566406
0, 7, 67, 301.3353881835938
0, 7, 68, 279.5724792480469
0, 7, 69, 294.8948364257812
0, 7, 70, 301.6315612792969
0, 7, 71, 310.0765075683594
0, 7, 72, 283.4527282714844
0, 7, 73, 296.3247375488281
0, 7, 74, 344.0863952636719
0, 7, 75, 318.2828674316406
0, 7, 76, 322.6868286132812
0, 7, 77, 279.3511047363281
0, 7, 78, 299.8707275390625
0, 7, 79, 297.3198547363281
0, 7, 80, 310.1318969726562
0, 7, 81, 320.6763000488281
0, 7, 82, 329.9637756347656
0, 7, 83, 318.0727233886719
0, 7, 84, 308.6247863769531
0, 7, 85, 272.589599609375
0, 7, 86, 312.5379333496094
0, 7, 87, 312.0390930175781
0, 7, 88, 306.4248657226562
0, 7, 89, 294.377197265625
0, 7, 90, 309.1853637695312
0, 7, 91, 313.5422973632812
0, 7, 92, 290.6746826171875
0, 7, 93, 306.7887573242188
0, 7, 94, 275.1609802246094
0, 7, 95, 294.8870239257812
0, 7, 96, 329.7573547363281
0, 7, 97, 296.0359802246094
0, 7, 98, 290.0121765136719
0, 7, 99, 312.3462524414062
0, 7, 100, 282.2997436523438
0, 7, 101, 275.2512512207031
0, 7, 102, 290.0265808105469
0, 7, 103, 292.1659851074219
0, 7, 104, 274.97998046875
0, 7, 105, 306.0455932617188
0, 7, 106, 318.2640686035156
0, 7, 107, 298.2986450195312
0, 7, 108, 275.8995056152344
0, 7, 109, 238.9368286132812
0, 7, 110, 96.24606323242188
0, 7, 111, 24.21455192565918
0, 7, 112, 12.57818508148193
0, 7, 113, 13.4338493347168
0, 7, 114, 16.44267463684082
0, 7, 115, 13.95122814178467
0, 7, 116, 8.064366340637207
0, 7, 117, 6.960498809814453
0, 7, 118, 7.138209819793701
0, 7, 119, 6.128955841064453
0, 7, 120, 5.425913333892822
0, 7, 121, 5.438442707061768
0, 7, 122, 5.785263538360596
0, 7, 123, 6.833734035491943
0, 7, 124, 2.353426218032837
0, 7, 125, 6.4624342918396
0, 7, 126, 9.747587203979492
0, 7, 127, 7.140572071075439
0, 8, 0, 6.61854887008667
0, 8, 1, 3.690471172332764
0, 8, 2, 4.231231212615967
0, 8, 3, 3.314887762069702
0, 8, 4, 3.728141307830811
0, 8, 5, 7.617493152618408
0, 8, 6, 4.928851127624512
0, 8, 7, 4.882270336151123
0, 8, 8, 9.729798316955566
0, 8, 9, 5.171883106231689
0, 8, 10, 9.15516185760498
0, 8, 11, 12.66528224945068
0, 8, 12, 13.66251850128174
0, 8, 13, 19.46730613708496
0, 8, 14, 13.47025966644287
0, 8, 15, 18.79118156433105
0, 8, 16, 33.13601303100586
0, 8, 17, 131.2487335205078
0, 8, 18, 242.3065490722656
0, 8, 19, 294.1946716308594
0, 8, 20, 284.6471557617188
0, 8, 21, 306.3651733398438
0, 8, 22, 293.9100036621094
0, 8, 23, 276.3848266601562
0, 8, 24, 267.6546020507812
0, 8, 25, 278.1412048339844
0, 8, 26, 304.8867492675781
0, 8, 27, 308.2809143066406
0, 8, 28, 303.4925231933594
0, 8, 29, 319.0747680664062
0, 8, 30, 313.19482421875
0, 8, 31, 303.2456665039062
0, 8, 32, 281.3545532226562
0, 8, 33, 294.3504333496094
0, 8, 34, 287.8009948730469
0, 8, 35, 281.6852111816406
0, 8, 36, 314.7739868164062
0, 8, 37, 340.8711853027344
0, 8, 38, 332.4705505371094
0, 8, 39, 281.3775329589844
