# TOPAS Version: 3.1.p3
# Parameter File: batch_inserts_222.txt
# Results for scorer Readout_Adipose
# Scored in component: MyBox
# X in 1 bin  of 0.75 cm
# Y in 512 bins of 0.0783984 cm
# Z in 128 bins of 0.078125 cm
# EnergyDeposit ( MeV ) : Sum   
0, 0, 0, 2.437314748764038
0, 0, 1, 1.873183131217957
0, 0, 2, 3.970740556716919
0, 0, 3, 1.740365386009216
0, 0, 4, 3.3705153465271
0, 0, 5, 3.395917177200317
0, 0, 6, 5.82111930847168
0, 0, 7, 9.346234321594238
0, 0, 8, 2.601722955703735
0, 0, 9, 3.204892873764038
0, 0, 10, 7.764024257659912
0, 0, 11, 5.503218650817871
0, 0, 12, 4.922311305999756
0, 0, 13, 6.113690853118896
0, 0, 14, 9.397407531738281
0, 0, 15, 8.239235877990723
0, 0, 16, 8.793828964233398
0, 0, 17, 8.292393684387207
0, 0, 18, 15.39357852935791
0, 0, 19, 42.64656066894531
0, 0, 20, 141.4884033203125
0, 0, 21, 223.5648498535156
0, 0, 22, 250.7221069335938
0, 0, 23, 258.3673706054688
0, 0, 24, 249.9176940917969
0, 0, 25, 258.5708312988281
0, 0, 26, 233.9815063476562
0, 0, 27, 237.3566131591797
0, 0, 28, 271.0079040527344
0, 0, 29, 252.2847900390625
0, 0, 30, 231.0116271972656
0, 0, 31, 244.7313995361328
0, 0, 32, 263.1151428222656
0, 0, 33, 260.8213195800781
0, 0, 34, 288.9692993164062
0, 0, 35, 267.3704528808594
0, 0, 36, 245.8975067138672
0, 0, 37, 252.2386627197266
0, 0, 38, 268.7813110351562
0, 0, 39, 229.2375335693359
0, 0, 40, 241.1142578125
0, 0, 41, 265.7587280273438
0, 0, 42, 229.2161407470703
0, 0, 43, 259.2447509765625
0, 0, 44, 254.1730651855469
0, 0, 45, 252.7528076171875
0, 0, 46, 244.1556701660156
0, 0, 47, 254.0869445800781
0, 0, 48, 265.8878173828125
0, 0, 49, 274.3939819335938
0, 0, 50, 250.2673034667969
0, 0, 51, 254.5737152099609
0, 0, 52, 272.1990051269531
0, 0, 53, 293.313720703125
0, 0, 54, 242.6603393554688
0, 0, 55, 239.8466644287109
0, 0, 56, 278.3241577148438
0, 0, 57, 262.9909973144531
0, 0, 58, 245.8238372802734
0, 0, 59, 270.0316467285156
0, 0, 60, 233.7939910888672
0, 0, 61, 245.4189300537109
0, 0, 62, 259.8577880859375
0, 0, 63, 266.8144836425781
0, 0, 64, 254.8881072998047
0, 0, 65, 261.5936279296875
0, 0, 66, 277.2304382324219
0, 0, 67, 248.8181762695312
0, 0, 68, 260.5993041992188
0, 0, 69, 262.2042236328125
0, 0, 70, 272.0589294433594
0, 0, 71, 237.8098297119141
0, 0, 72, 250.7902679443359
0, 0, 73, 259.0929870605469
0, 0, 74, 252.3504638671875
0, 0, 75, 240.6562805175781
0, 0, 76, 228.5060729980469
0, 0, 77, 259.3887329101562
0, 0, 78, 257.2395935058594
0, 0, 79, 278.0204467773438
0, 0, 80, 215.6883239746094
0, 0, 81, 268.127685546875
0, 0, 82, 256.529541015625
0, 0, 83, 245.041748046875
0, 0, 84, 270.8788146972656
0, 0, 85, 231.7562408447266
0, 0, 86, 253.974853515625
0, 0, 87, 250.4716949462891
0, 0, 88, 260.2733459472656
0, 0, 89, 282.3574829101562
0, 0, 90, 245.4899291992188
0, 0, 91, 281.8034362792969
0, 0, 92, 252.1886291503906
0, 0, 93, 250.2912750244141
0, 0, 94, 250.2855834960938
0, 0, 95, 248.1646881103516
0, 0, 96, 275.1685485839844
0, 0, 97, 273.3255310058594
0, 0, 98, 274.8117065429688
0, 0, 99, 257.3785095214844
0, 0, 100, 257.3805847167969
0, 0, 101, 228.0730743408203
0, 0, 102, 233.9032897949219
0, 0, 103, 269.8079833984375
0, 0, 104, 253.9424591064453
0, 0, 105, 250.3586883544922
0, 0, 106, 245.3516387939453
0, 0, 107, 151.7669677734375
0, 0, 108, 37.87860107421875
0, 0, 109, 10.95858669281006
0, 0, 110, 11.96119689941406
0, 0, 111, 8.989492416381836
0, 0, 112, 6.836284637451172
0, 0, 113, 5.769145965576172
0, 0, 114, 6.482274532318115
0, 0, 115, 3.822108507156372
0, 0, 116, 5.112354278564453
0, 0, 117, 5.614601135253906
0, 0, 118, 8.161967277526855
0, 0, 119, 3.289083242416382
0, 0, 120, 2.964673042297363
0, 0, 121, 3.728555679321289
0, 0, 122, 5.721830368041992
0, 0, 123, 3.025012969970703
0, 0, 124, 4.196825981140137
0, 0, 125, 2.301796436309814
0, 0, 126, 5.788599014282227
0, 0, 127, 5.354621887207031
0, 1, 0, 7.111310005187988
0, 1, 1, 2.766539812088013
0, 1, 2, 4.373845100402832
0, 1, 3, 3.462005138397217
0, 1, 4, 4.588480472564697
0, 1, 5, 4.403427600860596
0, 1, 6, 4.743314743041992
0, 1, 7, 5.948346614837646
0, 1, 8, 8.448567390441895
0, 1, 9, 4.001036167144775
0, 1, 10, 7.122452735900879
0, 1, 11, 11.91049671173096
0, 1, 12, 7.937251091003418
0, 1, 13, 9.933867454528809
0, 1, 14, 7.813113212585449
0, 1, 15, 7.230935573577881
0, 1, 16, 11.43360328674316
0, 1, 17, 10.18740272521973
0, 1, 18, 20.26487159729004
0, 1, 19, 65.34983062744141
0, 1, 20, 200.5126190185547
0, 1, 21, 254.5510864257812
0, 1, 22, 296.3291625976562
0, 1, 23, 283.0301513671875
0, 1, 24, 274.8411254882812
0, 1, 25, 289.4100952148438
0, 1, 26, 268.5812377929688
0, 1, 27, 305.7464599609375
0, 1, 28, 298.7984008789062
0, 1, 29, 295.276123046875
0, 1, 30, 280.6628112792969
0, 1, 31, 290.5716247558594
0, 1, 32, 290.3155517578125
0, 1, 33, 294.8271789550781
0, 1, 34, 292.0363464355469
0, 1, 35, 278.6642150878906
0, 1, 36, 305.3722229003906
0, 1, 37, 295.2678833007812
0, 1, 38, 278.4469299316406
0, 1, 39, 295.4138793945312
0, 1, 40, 267.2932739257812
0, 1, 41, 286.7613220214844
0, 1, 42, 289.4689025878906
0, 1, 43, 330.49951171875
0, 1, 44, 278.4067993164062
0, 1, 45, 291.3975219726562
0, 1, 46, 260.0955505371094
0, 1, 47, 310.1173095703125
0, 1, 48, 281.8099975585938
0, 1, 49, 302.2419738769531
0, 1, 50, 262.7984619140625
0, 1, 51, 273.1988525390625
0, 1, 52, 296.6817321777344
0, 1, 53, 304.8585815429688
0, 1, 54, 274.7597961425781
0, 1, 55, 292.0318908691406
0, 1, 56, 280.9425659179688
0, 1, 57, 297.9283447265625
0, 1, 58, 311.1558532714844
0, 1, 59, 292.857177734375
0, 1, 60, 297.5346374511719
0, 1, 61, 276.8332824707031
0, 1, 62, 307.78857421875
0, 1, 63, 285.4620056152344
0, 1, 64, 289.8107299804688
0, 1, 65, 295.9618225097656
0, 1, 66, 292.8486633300781
0, 1, 67, 293.559326171875
0, 1, 68, 277.8116760253906
0, 1, 69, 278.9988403320312
0, 1, 70, 272.2034301757812
0, 1, 71, 271.6943664550781
0, 1, 72, 284.7882995605469
0, 1, 73, 303.8288879394531
0, 1, 74, 303.8470764160156
0, 1, 75, 292.1652221679688
0, 1, 76, 286.6738891601562
0, 1, 77, 291.3264465332031
0, 1, 78, 296.5063171386719
0, 1, 79, 303.5835266113281
0, 1, 80, 295.9783020019531
0, 1, 81, 301.1387634277344
0, 1, 82, 282.8529968261719
0, 1, 83, 330.2371826171875
0, 1, 84, 309.3951721191406
0, 1, 85, 252.7847290039062
0, 1, 86, 294.7519836425781
0, 1, 87, 290.076416015625
0, 1, 88, 298.4460144042969
0, 1, 89, 288.8621520996094
0, 1, 90, 271.895751953125
0, 1, 91, 317.9046630859375
0, 1, 92, 291.7740783691406
0, 1, 93, 286.6755065917969
0, 1, 94, 303.5136108398438
0, 1, 95, 284.8424987792969
0, 1, 96, 282.6814880371094
0, 1, 97, 299.5351257324219
0, 1, 98, 277.3715515136719
0, 1, 99, 268.4593505859375
0, 1, 100, 277.3475952148438
0, 1, 101, 281.0294189453125
0, 1, 102, 277.2749328613281
0, 1, 103, 279.6735534667969
0, 1, 104, 306.7332458496094
0, 1, 105, 296.2246704101562
0, 1, 106, 260.8561096191406
0, 1, 107, 191.1275329589844
0, 1, 108, 80.33392333984375
0, 1, 109, 23.38324737548828
0, 1, 110, 11.08202743530273
0, 1, 111, 9.071029663085938
0, 1, 112, 12.02547073364258
0, 1, 113, 5.045134544372559
0, 1, 114, 6.557867527008057
0, 1, 115, 5.69205904006958
0, 1, 116, 11.6256103515625
0, 1, 117, 8.366235733032227
0, 1, 118, 5.017915725708008
0, 1, 119, 4.368918418884277
0, 1, 120, 5.078145027160645
0, 1, 121, 5.703888893127441
0, 1, 122, 2.38465142250061
0, 1, 123, 5.523416042327881
0, 1, 124, 8.105401039123535
0, 1, 125, 5.629439353942871
0, 1, 126, 2.361084222793579
0, 1, 127, 2.464602708816528
0, 2, 0, 5.88197660446167
0, 2, 1, 1.820509076118469
0, 2, 2, 3.935021162033081
0, 2, 3, 6.405303478240967
0, 2, 4, 3.003647089004517
0, 2, 5, 1.735859394073486
0, 2, 6, 2.088928937911987
0, 2, 7, 3.191887855529785
0, 2, 8, 3.655654430389404
0, 2, 9, 6.332364559173584
0, 2, 10, 9.32648754119873
0, 2, 11, 6.476229190826416
0, 2, 12, 6.544094562530518
0, 2, 13, 10.73969841003418
0, 2, 14, 9.287569046020508
0, 2, 15, 7.774761199951172
0, 2, 16, 9.3370361328125
0, 2, 17, 17.00485610961914
0, 2, 18, 29.71295547485352
0, 2, 19, 114.5233383178711
0, 2, 20, 244.9714813232422
0, 2, 21, 271.5791931152344
0, 2, 22, 316.0327453613281
0, 2, 23, 299.6332092285156
0, 2, 24, 285.2536010742188
0, 2, 25, 301.6165466308594
0, 2, 26, 292.5780029296875
0, 2, 27, 277.8317260742188
0, 2, 28, 272.7336730957031
0, 2, 29, 273.9747009277344
0, 2, 30, 288.7305908203125
0, 2, 31, 279.5428466796875
0, 2, 32, 293.9721374511719
0, 2, 33, 281.696533203125
0, 2, 34, 330.8684387207031
0, 2, 35, 289.6749572753906
0, 2, 36, 303.7970886230469
0, 2, 37, 314.5455932617188
0, 2, 38, 314.7896423339844
0, 2, 39, 267.9054565429688
0, 2, 40, 307.5528869628906
0, 2, 41, 292.2171630859375
0, 2, 42, 303.4387512207031
0, 2, 43, 313.2272338867188
0, 2, 44, 310.4163513183594
0, 2, 45, 324.47705078125
0, 2, 46, 285.933349609375
0, 2, 47, 302.4385986328125
0, 2, 48, 281.1804504394531
0, 2, 49, 279.3518676757812
0, 2, 50, 294.647216796875
0, 2, 51, 283.9001159667969
0, 2, 52, 275.3108215332031
0, 2, 53, 286.1334228515625
0, 2, 54, 281.1968383789062
0, 2, 55, 276.4068908691406
0, 2, 56, 301.2511291503906
0, 2, 57, 290.4921875
0, 2, 58, 305.2294006347656
0, 2, 59, 288.9381408691406
0, 2, 60, 318.3131103515625
0, 2, 61, 301.1639099121094
0, 2, 62, 315.0390319824219
0, 2, 63, 302.8457946777344
0, 2, 64, 295.6215515136719
0, 2, 65, 313.5445556640625
0, 2, 66, 278.8164978027344
0, 2, 67, 289.0885925292969
0, 2, 68, 296.1945495605469
0, 2, 69, 310.8876647949219
0, 2, 70, 335.46484375
0, 2, 71, 283.470703125
0, 2, 72, 301.6492309570312
0, 2, 73, 312.5820007324219
0, 2, 74, 288.4333801269531
0, 2, 75, 304.3526000976562
0, 2, 76, 287.1799011230469
0, 2, 77, 302.05908203125
0, 2, 78, 314.5317993164062
0, 2, 79, 307.5901184082031
0, 2, 80, 296.0581665039062
0, 2, 81, 284.173583984375
0, 2, 82, 317.921142578125
0, 2, 83, 314.2256469726562
0, 2, 84, 288.303955078125
0, 2, 85, 282.2390747070312
0, 2, 86, 324.2888793945312
0, 2, 87, 286.3580627441406
0, 2, 88, 280.2662963867188
0, 2, 89, 299.2920837402344
0, 2, 90, 295.074462890625
0, 2, 91, 275.5170593261719
0, 2, 92, 307.2292175292969
0, 2, 93, 318.1421508789062
0, 2, 94, 291.1210632324219
0, 2, 95, 314.8182067871094
0, 2, 96, 314.4073486328125
0, 2, 97, 290.7646484375
0, 2, 98, 293.1836853027344
0, 2, 99, 273.2686767578125
0, 2, 100, 306.1978759765625
0, 2, 101, 301.0433044433594
0, 2, 102, 297.3359985351562
0, 2, 103, 293.3590087890625
0, 2, 104, 295.7443237304688
0, 2, 105, 274.28271484375
0, 2, 106, 297.5471496582031
0, 2, 107, 271.1591491699219
0, 2, 108, 117.1424713134766
0, 2, 109, 33.43780517578125
0, 2, 110, 9.375932693481445
0, 2, 111, 12.06136322021484
0, 2, 112, 7.010425567626953
0, 2, 113, 8.986628532409668
0, 2, 114, 8.803146362304688
0, 2, 115, 10.27890300750732
0, 2, 116, 7.7931809425354
0, 2, 117, 7.87797737121582
0, 2, 118, 2.874526977539062
0, 2, 119, 3.552500486373901
0, 2, 120, 8.284208297729492
0, 2, 121, 1.842476010322571
0, 2, 122, 3.842659473419189
0, 2, 123, 4.760252475738525
0, 2, 124, 4.391788959503174
0, 2, 125, 7.158510684967041
0, 2, 126, 3.292132139205933
0, 2, 127, 5.20139217376709
0, 3, 0, 3.932676315307617
0, 3, 1, 3.444106578826904
0, 3, 2, 6.228484630584717
0, 3, 3, 3.300036668777466
0, 3, 4, 2.77922511100769
0, 3, 5, 7.377431392669678
0, 3, 6, 5.945450782775879
0, 3, 7, 5.058083534240723
0, 3, 8, 5.493438243865967
0, 3, 9, 5.434830188751221
0, 3, 10, 5.217827320098877
0, 3, 11, 6.567595958709717
0, 3, 12, 7.706409454345703
0, 3, 13, 15.15513896942139
0, 3, 14, 10.93692493438721
0, 3, 15, 16.37459182739258
0, 3, 16, 12.05768775939941
0, 3, 17, 19.54671096801758
0, 3, 18, 52.7630500793457
0, 3, 19, 176.7886657714844
0, 3, 20, 270.018310546875
0, 3, 21, 270.5393676757812
0, 3, 22, 281.3358459472656
0, 3, 23, 285.1073913574219
0, 3, 24, 289.3399963378906
0, 3, 25, 270.2300109863281
0, 3, 26, 303.7420349121094
0, 3, 27, 290.3243103027344
0, 3, 28, 280.7112426757812
0, 3, 29, 338.4103393554688
0, 3, 30, 316.0015258789062
0, 3, 31, 286.6952514648438
0, 3, 32, 307.4473876953125
0, 3, 33, 314.9931640625
0, 3, 34, 320.1002197265625
0, 3, 35, 306.9083557128906
0, 3, 36, 271.6621398925781
0, 3, 37, 313.2378845214844
0, 3, 38, 303.8319702148438
0, 3, 39, 289.8933715820312
0, 3, 40, 267.3980712890625
0, 3, 41, 299.1068115234375
0, 3, 42, 285.0434875488281
0, 3, 43, 304.4686279296875
0, 3, 44, 310.7147827148438
0, 3, 45, 290.5025024414062
0, 3, 46, 329.5906372070312
0, 3, 47, 302.5225219726562
0, 3, 48, 302.7641906738281
0, 3, 49, 276.6338500976562
0, 3, 50, 288.7620239257812
0, 3, 51, 275.5678405761719
0, 3, 52, 315.0162658691406
0, 3, 53, 288.4462890625
0, 3, 54, 286.1659545898438
0, 3, 55, 282.3173828125
0, 3, 56, 298.2738037109375
0, 3, 57, 288.185546875
0, 3, 58, 306.7829895019531
0, 3, 59, 295.2625732421875
0, 3, 60, 297.9497375488281
0, 3, 61, 263.576416015625
0, 3, 62, 284.1533508300781
0, 3, 63, 305.6452941894531
0, 3, 64, 316.3919677734375
0, 3, 65, 304.1795654296875
0, 3, 66, 316.9971618652344
0, 3, 67, 317.3855590820312
0, 3, 68, 279.2278442382812
0, 3, 69, 283.0374145507812
0, 3, 70, 287.8651123046875
0, 3, 71, 299.2063903808594
0, 3, 72, 270.0854797363281
0, 3, 73, 308.8790588378906
0, 3, 74, 292.7243347167969
0, 3, 75, 290.9898986816406
0, 3, 76, 305.0456237792969
0, 3, 77, 313.7993774414062
0, 3, 78, 305.2398986816406
0, 3, 79, 282.6918640136719
0, 3, 80, 289.8482360839844
0, 3, 81, 310.0087890625
0, 3, 82, 318.5277709960938
0, 3, 83, 300.9549255371094
0, 3, 84, 310.9753723144531
0, 3, 85, 296.0393676757812
0, 3, 86, 302.8387145996094
0, 3, 87, 299.0233459472656
0, 3, 88, 297.9826049804688
0, 3, 89, 296.8905639648438
0, 3, 90, 275.659423828125
0, 3, 91, 285.8343200683594
0, 3, 92, 304.9794311523438
0, 3, 93, 312.3781127929688
0, 3, 94, 298.218505859375
0, 3, 95, 333.6070861816406
0, 3, 96, 289.9909973144531
0, 3, 97, 286.1665649414062
0, 3, 98, 280.093017578125
0, 3, 99, 262.3057861328125
0, 3, 100, 285.7475280761719
0, 3, 101, 295.8364868164062
0, 3, 102, 274.6616516113281
0, 3, 103, 319.5477600097656
0, 3, 104, 306.488525390625
0, 3, 105, 287.6212158203125
0, 3, 106, 303.0567016601562
0, 3, 107, 285.0851745605469
0, 3, 108, 169.6012115478516
0, 3, 109, 56.4903564453125
0, 3, 110, 17.53831481933594
0, 3, 111, 11.85896587371826
0, 3, 112, 14.81084060668945
0, 3, 113, 6.655508041381836
0, 3, 114, 9.338105201721191
0, 3, 115, 6.912322521209717
0, 3, 116, 9.353055953979492
0, 3, 117, 8.480594635009766
0, 3, 118, 6.816298007965088
0, 3, 119, 5.843976020812988
0, 3, 120, 5.927297115325928
0, 3, 121, 2.038783073425293
0, 3, 122, 3.136785984039307
0, 3, 123, 6.043186664581299
0, 3, 124, 1.843134760856628
0, 3, 125, 5.986930370330811
0, 3, 126, 4.147631168365479
0, 3, 127, 3.51894211769104
0, 4, 0, 2.894701957702637
0, 4, 1, 5.293687343597412
0, 4, 2, 2.783867359161377
0, 4, 3, 1.531280994415283
0, 4, 4, 6.082457065582275
0, 4, 5, 8.597467422485352
0, 4, 6, 6.904168128967285
0, 4, 7, 3.579203605651855
0, 4, 8, 3.626481533050537
0, 4, 9, 7.564852237701416
0, 4, 10, 6.8053297996521
0, 4, 11, 6.10423469543457
0, 4, 12, 6.368288516998291
0, 4, 13, 9.949409484863281
0, 4, 14, 11.02889060974121
0, 4, 15, 13.13323020935059
0, 4, 16, 13.73353385925293
0, 4, 17, 19.10980415344238
0, 4, 18, 95.3306884765625
0, 4, 19, 225.1591491699219
0, 4, 20, 286.5234375
0, 4, 21, 274.1267395019531
0, 4, 22, 304.673095703125
0, 4, 23, 266.0220947265625
0, 4, 24, 288.6802673339844
0, 4, 25, 273.3795166015625
0, 4, 26, 294.0838317871094
0, 4, 27, 281.7801818847656
0, 4, 28, 310.7778015136719
0, 4, 29, 322.7897033691406
0, 4, 30, 309.3400573730469
0, 4, 31, 305.7058715820312
0, 4, 32, 281.4035034179688
0, 4, 33, 298.0235900878906
0, 4, 34, 294.4121704101562
0, 4, 35, 312.3897705078125
0, 4, 36, 290.2351684570312
0, 4, 37, 288.0057983398438
0, 4, 38, 299.2348022460938
0, 4, 39, 294.0875549316406
0, 4, 40, 304.2586975097656
0, 4, 41, 312.3739624023438
0, 4, 42, 329.8930969238281
0, 4, 43, 298.1606140136719
0, 4, 44, 320.3472290039062
0, 4, 45, 324.302978515625
0, 4, 46, 304.6814880371094
0, 4, 47, 293.0054321289062
0, 4, 48, 297.0689086914062
0, 4, 49, 279.9353332519531
0, 4, 50, 296.4020080566406
0, 4, 51, 316.2479858398438
0, 4, 52, 326.9698791503906
0, 4, 53, 304.5110168457031
0, 4, 54, 286.6493530273438
0, 4, 55, 317.355712890625
0, 4, 56, 289.1090087890625
0, 4, 57, 310.4878845214844
0, 4, 58, 295.2066040039062
0, 4, 59, 307.2355651855469
0, 4, 60, 302.450927734375
0, 4, 61, 314.3743896484375
0, 4, 62, 307.6691589355469
0, 4, 63, 299.1626892089844
0, 4, 64, 332.157958984375
0, 4, 65, 314.6199951171875
0, 4, 66, 292.6039428710938
0, 4, 67, 284.1556396484375
0, 4, 68, 312.623291015625
0, 4, 69, 276.9632873535156
0, 4, 70, 298.4822387695312
0, 4, 71, 320.4390869140625
0, 4, 72, 334.4735717773438
0, 4, 73, 299.120361328125
0, 4, 74, 293.7991027832031
0, 4, 75, 290.0140380859375
0, 4, 76, 274.0352783203125
0, 4, 77, 278.354736328125
0, 4, 78, 310.2317199707031
0, 4, 79, 321.5274047851562
0, 4, 80, 315.7373352050781
0, 4, 81, 312.7374267578125
0, 4, 82, 297.2824096679688
0, 4, 83, 301.9671630859375
0, 4, 84, 291.2975463867188
0, 4, 85, 295.1860046386719
0, 4, 86, 296.2483825683594
0, 4, 87, 283.5793151855469
0, 4, 88, 305.5590515136719
0, 4, 89, 294.8666687011719
0, 4, 90, 331.3341369628906
0, 4, 91, 302.3650817871094
0, 4, 92, 288.6591186523438
0, 4, 93, 295.7496643066406
0, 4, 94, 295.4030151367188
0, 4, 95, 288.9835205078125
0, 4, 96, 322.4626770019531
0, 4, 97, 273.6922302246094
0, 4, 98, 326.376220703125
0, 4, 99, 316.2445068359375
0, 4, 100, 301.0185241699219
0, 4, 101, 257.7324829101562
0, 4, 102, 297.7709350585938
0, 4, 103, 317.1651306152344
0, 4, 104, 280.9539184570312
0, 4, 105, 311.4432678222656
0, 4, 106, 287.2460632324219
0, 4, 107, 296.8577270507812
0, 4, 108, 225.5481872558594
0, 4, 109, 78.61227416992188
0, 4, 110, 16.09577369689941
0, 4, 111, 13.39935874938965
0, 4, 112, 11.05506706237793
0, 4, 113, 8.736339569091797
0, 4, 114, 9.828712463378906
0, 4, 115, 9.715761184692383
0, 4, 116, 8.917477607727051
0, 4, 117, 6.044985294342041
0, 4, 118, 8.476253509521484
0, 4, 119, 10.65293407440186
0, 4, 120, 6.883750438690186
0, 4, 121, 5.508434295654297
0, 4, 122, 3.906211614608765
0, 4, 123, 7.454337120056152
0, 4, 124, 5.271843910217285
0, 4, 125, 9.032699584960938
0, 4, 126, 7.126223087310791
0, 4, 127, 4.949331283569336
0, 5, 0, 5.695730209350586
0, 5, 1, 3.323580503463745
0, 5, 2, 3.290009737014771
0, 5, 3, 4.121789455413818
0, 5, 4, 6.180226802825928
0, 5, 5, 7.201813697814941
0, 5, 6, 3.813966989517212
0, 5, 7, 5.627310276031494
0, 5, 8, 5.02877140045166
0, 5, 9, 6.400054454803467
0, 5, 10, 7.273596286773682
0, 5, 11, 7.418012142181396
0, 5, 12, 6.995067596435547
0, 5, 13, 4.242844104766846
0, 5, 14, 11.99637317657471
0, 5, 15, 18.17112731933594
0, 5, 16, 16.49352073669434
0, 5, 17, 27.49459457397461
0, 5, 18, 136.6653747558594
0, 5, 19, 287.0788269042969
0, 5, 20, 307.764404296875
0, 5, 21, 316.0675048828125
0, 5, 22, 277.6527709960938
0, 5, 23, 311.9796752929688
0, 5, 24, 301.845947265625
0, 5, 25, 290.0483703613281
0, 5, 26, 294.0838623046875
0, 5, 27, 322.4364318847656
0, 5, 28, 302.48779296875
0, 5, 29, 297.5809326171875
0, 5, 30, 322.6700134277344
0, 5, 31, 287.0365295410156
0, 5, 32, 302.1112976074219
0, 5, 33, 303.5393676757812
0, 5, 34, 297.8689270019531
0, 5, 35, 309.6504821777344
0, 5, 36, 268.3571472167969
0, 5, 37, 283.5938110351562
0, 5, 38, 292.62255859375
0, 5, 39, 311.8568725585938
0, 5, 40, 308.2278747558594
0, 5, 41, 271.9490966796875
0, 5, 42, 308.1919250488281
0, 5, 43, 315.4410705566406
0, 5, 44, 294.8453674316406
0, 5, 45, 300.0807189941406
0, 5, 46, 265.5967102050781
0, 5, 47, 280.2896118164062
0, 5, 48, 294.5328979492188
0, 5, 49, 286.320068359375
0, 5, 50, 296.4933776855469
0, 5, 51, 279.4952697753906
0, 5, 52, 267.206298828125
0, 5, 53, 283.77490234375
0, 5, 54, 291.4194946289062
0, 5, 55, 345.1092529296875
0, 5, 56, 306.2252197265625
0, 5, 57, 308.2734069824219
0, 5, 58, 313.2372131347656
0, 5, 59, 304.6333923339844
0, 5, 60, 305.4902038574219
0, 5, 61, 282.0483093261719
0, 5, 62, 324.3380432128906
0, 5, 63, 292.35009765625
0, 5, 64, 323.68994140625
0, 5, 65, 308.2237243652344
0, 5, 66, 328.391845703125
0, 5, 67, 313.1401062011719
0, 5, 68, 307.3250122070312
0, 5, 69, 313.2969665527344
0, 5, 70, 302.7861938476562
0, 5, 71, 272.5599060058594
0, 5, 72, 308.7481689453125
0, 5, 73, 302.6094055175781
0, 5, 74, 294.850830078125
0, 5, 75, 296.4117126464844
0, 5, 76, 285.8559875488281
0, 5, 77, 299.5014038085938
0, 5, 78, 315.8375549316406
0, 5, 79, 307.7565307617188
0, 5, 80, 296.2164306640625
0, 5, 81, 326.9031982421875
0, 5, 82, 323.9862365722656
0, 5, 83, 280.8530578613281
0, 5, 84, 303.2963256835938
0, 5, 85, 270.9467163085938
0, 5, 86, 327.3024291992188
0, 5, 87, 285.5926513671875
0, 5, 88, 313.1766662597656
0, 5, 89, 304.4241333007812
0, 5, 90, 316.5401000976562
0, 5, 91, 314.4613647460938
0, 5, 92, 296.0912780761719
0, 5, 93, 322.0409851074219
0, 5, 94, 310.2431030273438
0, 5, 95, 296.9231872558594
0, 5, 96, 300.0723266601562
0, 5, 97, 295.3144836425781
0, 5, 98, 316.2215270996094
0, 5, 99, 300.0867614746094
0, 5, 100, 289.6279602050781
0, 5, 101, 306.1832885742188
0, 5, 102, 292.527099609375
0, 5, 103, 314.45458984375
0, 5, 104, 304.2106628417969
0, 5, 105, 290.5036926269531
0, 5, 106, 282.5390319824219
0, 5, 107, 293.5358581542969
0, 5, 108, 267.5118713378906
0, 5, 109, 157.3825378417969
0, 5, 110, 40.19595718383789
0, 5, 111, 23.70810317993164
0, 5, 112, 18.5776309967041
0, 5, 113, 16.66399955749512
0, 5, 114, 12.89310741424561
0, 5, 115, 7.81895923614502
0, 5, 116, 6.771960735321045
0, 5, 117, 5.961241245269775
0, 5, 118, 13.95114326477051
0, 5, 119, 6.672374725341797
0, 5, 120, 6.062098979949951
0, 5, 121, 4.806966781616211
0, 5, 122, 8.369439125061035
0, 5, 123, 5.538486480712891
0, 5, 124, 7.192455768585205
0, 5, 125, 4.819521427154541
0, 5, 126, 7.140988826751709
0, 5, 127, 4.290835857391357
0, 6, 0, 3.347413778305054
0, 6, 1, 3.81383204460144
0, 6, 2, 5.756035327911377
0, 6, 3, 7.551181793212891
0, 6, 4, 3.761589765548706
0, 6, 5, 6.382104396820068
0, 6, 6, 6.786924362182617
0, 6, 7, 5.674334049224854
0, 6, 8, 9.760123252868652
0, 6, 9, 5.670712471008301
0, 6, 10, 9.516685485839844
0, 6, 11, 8.010987281799316
0, 6, 12, 11.06143474578857
0, 6, 13, 18.27269554138184
0, 6, 14, 9.871757507324219
0, 6, 15, 16.09326934814453
0, 6, 16, 29.22447967529297
0, 6, 17, 55.17409896850586
0, 6, 18, 174.0295867919922
0, 6, 19, 276.2528076171875
0, 6, 20, 290.2804565429688
0, 6, 21, 313.8699340820312
0, 6, 22, 318.771240234375
0, 6, 23, 305.7532958984375
0, 6, 24, 315.1307373046875
0, 6, 25, 315.0818176269531
0, 6, 26, 322.7601928710938
0, 6, 27, 331.2284851074219
0, 6, 28, 296.2268371582031
0, 6, 29, 330.5024108886719
0, 6, 30, 281.451416015625
0, 6, 31, 288.6035461425781
0, 6, 32, 340.3748474121094
0, 6, 33, 302.3876342773438
0, 6, 34, 340.7286682128906
0, 6, 35, 320.7888488769531
0, 6, 36, 274.2784729003906
0, 6, 37, 287.4114685058594
0, 6, 38, 313.8936157226562
0, 6, 39, 299.7752075195312
0, 6, 40, 282.8168334960938
0, 6, 41, 295.738525390625
0, 6, 42, 302.8109741210938
0, 6, 43, 287.4695434570312
0, 6, 44, 280.7891540527344
0, 6, 45, 318.424072265625
0, 6, 46, 301.8748168945312
0, 6, 47, 334.3797607421875
0, 6, 48, 291.4064636230469
0, 6, 49, 311.3245239257812
0, 6, 50, 328.6683959960938
0, 6, 51, 309.7117004394531
0, 6, 52, 320.6074829101562
0, 6, 53, 328.5477600097656
0, 6, 54, 303.8024597167969
0, 6, 55, 306.3146057128906
0, 6, 56, 293.4967041015625
0, 6, 57, 311.5509338378906
0, 6, 58, 262.0823669433594
0, 6, 59, 304.2426147460938
0, 6, 60, 313.2488098144531
0, 6, 61, 272.7940979003906
0, 6, 62, 339.0496520996094
0, 6, 63, 322.7368469238281
0, 6, 64, 290.1148986816406
0, 6, 65, 282.8322448730469
0, 6, 66, 301.4779968261719
0, 6, 67, 309.3414611816406
0, 6, 68, 295.3977661132812
0, 6, 69, 277.507080078125
0, 6, 70, 275.544921875
0, 6, 71, 290.672119140625
0, 6, 72, 308.3716430664062
0, 6, 73, 293.0957641601562
0, 6, 74, 330.5017700195312
0, 6, 75, 342.1181030273438
0, 6, 76, 297.4206237792969
0, 6, 77, 285.9981079101562
0, 6, 78, 278.4855346679688
0, 6, 79, 293.5439147949219
0, 6, 80, 298.9939270019531
0, 6, 81, 313.784423828125
0, 6, 82, 320.1862182617188
0, 6, 83, 320.3500061035156
0, 6, 84, 296.1255798339844
0, 6, 85, 302.9912414550781
0, 6, 86, 332.4777526855469
0, 6, 87, 290.9263610839844
0, 6, 88, 305.3467712402344
0, 6, 89, 303.287109375
0, 6, 90, 300.9043884277344
0, 6, 91, 313.0640258789062
0, 6, 92, 285.9097900390625
0, 6, 93, 298.0870361328125
0, 6, 94, 272.3999328613281
0, 6, 95, 299.9230651855469
0, 6, 96, 349.396240234375
0, 6, 97, 307.8307189941406
0, 6, 98, 301.3894958496094
0, 6, 99, 273.2030944824219
0, 6, 100, 309.1935424804688
0, 6, 101, 293.3843994140625
0, 6, 102, 307.2309875488281
0, 6, 103, 310.9194030761719
0, 6, 104, 293.6130676269531
0, 6, 105, 302.2796020507812
0, 6, 106, 308.1495056152344
0, 6, 107, 305.8097839355469
0, 6, 108, 266.4461364746094
0, 6, 109, 186.4688415527344
0, 6, 110, 54.89926147460938
0, 6, 111, 21.24284553527832
0, 6, 112, 11.98768711090088
0, 6, 113, 11.01978969573975
0, 6, 114, 11.44072723388672
0, 6, 115, 12.52953243255615
0, 6, 116, 10.29117298126221
0, 6, 117, 6.053534507751465
0, 6, 118, 10.23683547973633
0, 6, 119, 7.377338886260986
0, 6, 120, 8.253451347351074
0, 6, 121, 5.837210655212402
0, 6, 122, 6.347613334655762
0, 6, 123, 6.479080677032471
0, 6, 124, 5.827145576477051
0, 6, 125, 6.614397048950195
0, 6, 126, 4.39515495300293
0, 6, 127, 6.903153896331787
0, 7, 0, 4.213026523590088
0, 7, 1, 2.910692691802979
0, 7, 2, 5.935188293457031
0, 7, 3, 4.862225532531738
0, 7, 4, 3.557190895080566
0, 7, 5, 5.129439830780029
0, 7, 6, 6.512313365936279
0, 7, 7, 6.343672752380371
0, 7, 8, 4.861362457275391
0, 7, 9, 5.907773017883301
0, 7, 10, 9.955456733703613
0, 7, 11, 11.98406791687012
0, 7, 12, 10.48000526428223
0, 7, 13, 10.6560001373291
0, 7, 14, 10.06842613220215
0, 7, 15, 19.0429801940918
0, 7, 16, 27.03284072875977
0, 7, 17, 98.86864471435547
0, 7, 18, 218.6785430908203
0, 7, 19, 290.57421875
0, 7, 20, 298.5169372558594
0, 7, 21, 276.5685424804688
0, 7, 22, 298.4137878417969
0, 7, 23, 290.5715942382812
0, 7, 24, 312.6824645996094
0, 7, 25, 324.8906860351562
0, 7, 26, 277.3932189941406
0, 7, 27, 298.1565551757812
0, 7, 28, 326.3008422851562
0, 7, 29, 319.3844299316406
0, 7, 30, 304.6156005859375
0, 7, 31, 275.7626342773438
0, 7, 32, 305.3642578125
0, 7, 33, 263.7323608398438
0, 7, 34, 297.0611267089844
0, 7, 35, 320.8682556152344
0, 7, 36, 332.8134460449219
0, 7, 37, 325.3733520507812
0, 7, 38, 296.5276489257812
0, 7, 39, 305.3081970214844
0, 7, 40, 290.363037109375
0, 7, 41, 272.5215759277344
0, 7, 42, 300.3234558105469
0, 7, 43, 277.3272399902344
0, 7, 44, 304.7332458496094
0, 7, 45, 297.2248840332031
0, 7, 46, 283.8967590332031
0, 7, 47, 329.0124206542969
0, 7, 48, 285.5497741699219
0, 7, 49, 302.105712890625
0, 7, 50, 322.7294921875
0, 7, 51, 298.7359924316406
0, 7, 52, 326.4407043457031
0, 7, 53, 310.3542175292969
0, 7, 54, 325.6232299804688
0, 7, 55, 308.0220031738281
0, 7, 56, 278.9629516601562
0, 7, 57, 282.7273559570312
0, 7, 58, 296.544921875
0, 7, 59, 296.3590087890625
0, 7, 60, 323.9207763671875
0, 7, 61, 277.3734741210938
0, 7, 62, 297.5641784667969
0, 7, 63, 292.9542236328125
0, 7, 64, 305.3453674316406
0, 7, 65, 332.1932983398438
0, 7, 66, 319.1799621582031
0, 7, 67, 301.3370056152344
0, 7, 68, 279.8014221191406
0, 7, 69, 294.0102233886719
0, 7, 70, 302.39306640625
0, 7, 71, 309.5565185546875
0, 7, 72, 284.3076782226562
0, 7, 73, 295.0184020996094
0, 7, 74, 345.4540710449219
0, 7, 75, 318.9239196777344
0, 7, 76, 324.1724548339844
0, 7, 77, 281.0498046875
0, 7, 78, 304.5654296875
0, 7, 79, 299.2272033691406
0, 7, 80, 310.8927612304688
0, 7, 81, 321.7226867675781
0, 7, 82, 328.7720642089844
0, 7, 83, 318.8743896484375
0, 7, 84, 310.4778442382812
0, 7, 85, 272.0679626464844
0, 7, 86, 311.7294006347656
0, 7, 87, 310.291259765625
0, 7, 88, 306.0826721191406
0, 7, 89, 291.9732055664062
0, 7, 90, 307.7461547851562
0, 7, 91, 316.2200927734375
0, 7, 92, 288.4740905761719
0, 7, 93, 310.7017517089844
0, 7, 94, 273.9908142089844
0, 7, 95, 296.4866943359375
0, 7, 96, 331.3911743164062
0, 7, 97, 293.9388427734375
0, 7, 98, 290.3448791503906
0, 7, 99, 314.0513305664062
0, 7, 100, 282.7743225097656
0, 7, 101, 274.7044067382812
0, 7, 102, 289.1068725585938
0, 7, 103, 290.9031677246094
0, 7, 104, 275.6351623535156
0, 7, 105, 304.6688537597656
0, 7, 106, 318.4539489746094
0, 7, 107, 298.1354064941406
0, 7, 108, 274.0444030761719
0, 7, 109, 236.468994140625
0, 7, 110, 97.601318359375
0, 7, 111, 25.33033180236816
0, 7, 112, 14.75298023223877
0, 7, 113, 12.97378063201904
0, 7, 114, 15.52787399291992
0, 7, 115, 14.73322105407715
0, 7, 116, 7.362942218780518
0, 7, 117, 8.962529182434082
0, 7, 118, 8.566296577453613
0, 7, 119, 6.039259910583496
0, 7, 120, 4.367941856384277
0, 7, 121, 5.032802581787109
0, 7, 122, 7.546034812927246
0, 7, 123, 5.72563362121582
0, 7, 124, 4.688772201538086
0, 7, 125, 5.306293964385986
0, 7, 126, 9.752669334411621
0, 7, 127, 1.589768528938293
0, 8, 0, 5.745631217956543
0, 8, 1, 3.982675075531006
0, 8, 2, 3.645416259765625
0, 8, 3, 2.995832443237305
0, 8, 4, 3.560526847839355
0, 8, 5, 7.120055675506592
0, 8, 6, 7.409982681274414
0, 8, 7, 6.615229606628418
0, 8, 8, 8.846267700195312
0, 8, 9, 4.427181720733643
0, 8, 10, 6.832274913787842
0, 8, 11, 12.21527290344238
0, 8, 12, 11.75778961181641
0, 8, 13, 14.26940536499023
0, 8, 14, 13.7390022277832
0, 8, 15, 18.1539421081543
0, 8, 16, 31.78008651733398
0, 8, 17, 130.6432037353516
0, 8, 18, 242.8392333984375
0, 8, 19, 297.8466186523438
0, 8, 20, 285.451416015625
0, 8, 21, 306.8535766601562
0, 8, 22, 295.0875854492188
0, 8, 23, 274.640380859375
0, 8, 24, 268.8211975097656
0, 8, 25, 275.3671875
0, 8, 26, 306.6277770996094
0, 8, 27, 307.8086853027344
0, 8, 28, 303.9303588867188
0, 8, 29, 319.8555908203125
0, 8, 30, 314.8010559082031
0, 8, 31, 303.2691040039062
0, 8, 32, 279.682373046875
0, 8, 33, 295.6318359375
0, 8, 34, 288.7293395996094
0, 8, 35, 279.5372619628906
0, 8, 36, 314.4166564941406
0, 8, 37, 340.0812072753906
0, 8, 38, 332.7640075683594
0, 8, 39, 281.1163635253906
