# TOPAS Version: 3.1.p3
# Parameter File: batch_inserts_214.txt
# Results for scorer Readout_Adipose
# Scored in component: MyBox
# X in 1 bin  of 0.75 cm
# Y in 512 bins of 0.0783984 cm
# Z in 128 bins of 0.078125 cm
# EnergyDeposit ( MeV ) : Sum   
0, 0, 0, 3.46523904800415
0, 0, 1, 2.949118375778198
0, 0, 2, 4.048214912414551
0, 0, 3, 1.491881608963013
0, 0, 4, 3.778959035873413
0, 0, 5, 2.677720785140991
0, 0, 6, 9.334982872009277
0, 0, 7, 8.037228584289551
0, 0, 8, 1.860480666160583
0, 0, 9, 4.881367206573486
0, 0, 10, 6.527763843536377
0, 0, 11, 4.181090354919434
0, 0, 12, 4.76278018951416
0, 0, 13, 7.452559471130371
0, 0, 14, 6.722840785980225
0, 0, 15, 8.944822311401367
0, 0, 16, 9.47535514831543
0, 0, 17, 10.31165409088135
0, 0, 18, 14.93642711639404
0, 0, 19, 45.92128372192383
0, 0, 20, 139.4711151123047
0, 0, 21, 223.6466827392578
0, 0, 22, 250.0139007568359
0, 0, 23, 257.0424499511719
0, 0, 24, 249.9441070556641
0, 0, 25, 257.7211608886719
0, 0, 26, 233.6087188720703
0, 0, 27, 240.0182647705078
0, 0, 28, 274.0339965820312
0, 0, 29, 252.5375213623047
0, 0, 30, 229.6400756835938
0, 0, 31, 243.6505584716797
0, 0, 32, 263.7789611816406
0, 0, 33, 260.7328186035156
0, 0, 34, 286.3569946289062
0, 0, 35, 267.4974365234375
0, 0, 36, 246.3402099609375
0, 0, 37, 252.3321990966797
0, 0, 38, 267.2998657226562
0, 0, 39, 229.3880462646484
0, 0, 40, 241.4596557617188
0, 0, 41, 265.0390014648438
0, 0, 42, 229.9009399414062
0, 0, 43, 260.6246032714844
0, 0, 44, 253.5040283203125
0, 0, 45, 254.2788391113281
0, 0, 46, 244.8170928955078
0, 0, 47, 253.8372802734375
0, 0, 48, 267.6336364746094
0, 0, 49, 274.3735046386719
0, 0, 50, 252.5172882080078
0, 0, 51, 256.5845031738281
0, 0, 52, 272.6001586914062
0, 0, 53, 292.564208984375
0, 0, 54, 242.3536987304688
0, 0, 55, 240.0760955810547
0, 0, 56, 278.4775085449219
0, 0, 57, 262.0174560546875
0, 0, 58, 245.4241180419922
0, 0, 59, 270.7115478515625
0, 0, 60, 234.2746429443359
0, 0, 61, 245.9123992919922
0, 0, 62, 258.9284057617188
0, 0, 63, 267.5318603515625
0, 0, 64, 256.1461486816406
0, 0, 65, 260.83056640625
0, 0, 66, 277.0427551269531
0, 0, 67, 248.4996948242188
0, 0, 68, 258.9512023925781
0, 0, 69, 260.9088134765625
0, 0, 70, 271.2417297363281
0, 0, 71, 238.1062469482422
0, 0, 72, 249.8764801025391
0, 0, 73, 259.7919616699219
0, 0, 74, 251.5388946533203
0, 0, 75, 241.1655120849609
0, 0, 76, 228.1316986083984
0, 0, 77, 261.1545715332031
0, 0, 78, 255.2675170898438
0, 0, 79, 275.9493103027344
0, 0, 80, 216.1011352539062
0, 0, 81, 268.1561584472656
0, 0, 82, 256.1087036132812
0, 0, 83, 244.6898498535156
0, 0, 84, 269.5279235839844
0, 0, 85, 232.3068084716797
0, 0, 86, 254.2720336914062
0, 0, 87, 250.8776702880859
0, 0, 88, 259.0616149902344
0, 0, 89, 282.8033142089844
0, 0, 90, 244.182373046875
0, 0, 91, 281.3414916992188
0, 0, 92, 252.2630615234375
0, 0, 93, 249.5372314453125
0, 0, 94, 248.8070983886719
0, 0, 95, 248.6271362304688
0, 0, 96, 277.0586853027344
0, 0, 97, 273.216552734375
0, 0, 98, 273.5611572265625
0, 0, 99, 258.1507873535156
0, 0, 100, 258.6943969726562
0, 0, 101, 227.0283508300781
0, 0, 102, 231.9545745849609
0, 0, 103, 268.7480163574219
0, 0, 104, 255.7704315185547
0, 0, 105, 250.4805145263672
0, 0, 106, 245.2686767578125
0, 0, 107, 151.6021118164062
0, 0, 108, 37.70709991455078
0, 0, 109, 11.76365375518799
0, 0, 110, 13.79349517822266
0, 0, 111, 7.894855499267578
0, 0, 112, 6.308828830718994
0, 0, 113, 6.629789352416992
0, 0, 114, 7.545708179473877
0, 0, 115, 7.480979442596436
0, 0, 116, 4.953355312347412
0, 0, 117, 7.538784503936768
0, 0, 118, 6.649610996246338
0, 0, 119, 4.104869365692139
0, 0, 120, 4.069461822509766
0, 0, 121, 4.582685470581055
0, 0, 122, 5.315450191497803
0, 0, 123, 3.761133432388306
0, 0, 124, 6.092118263244629
0, 0, 125, 2.562405347824097
0, 0, 126, 5.532111644744873
0, 0, 127, 6.08132266998291
0, 1, 0, 7.899242401123047
0, 1, 1, 2.455604314804077
0, 1, 2, 4.539684295654297
0, 1, 3, 2.468966245651245
0, 1, 4, 3.46967339515686
0, 1, 5, 4.66987943649292
0, 1, 6, 5.466403484344482
0, 1, 7, 3.961300611495972
0, 1, 8, 8.642631530761719
0, 1, 9, 3.941588401794434
0, 1, 10, 8.338382720947266
0, 1, 11, 10.68716526031494
0, 1, 12, 7.458513736724854
0, 1, 13, 9.360812187194824
0, 1, 14, 7.286840915679932
0, 1, 15, 8.837231636047363
0, 1, 16, 11.863356590271
0, 1, 17, 10.99008083343506
0, 1, 18, 21.10609245300293
0, 1, 19, 65.88169097900391
0, 1, 20, 200.3573608398438
0, 1, 21, 254.6889953613281
0, 1, 22, 295.8557434082031
0, 1, 23, 283.8071899414062
0, 1, 24, 274.4239501953125
0, 1, 25, 288.7861022949219
0, 1, 26, 270.1867370605469
0, 1, 27, 306.3031311035156
0, 1, 28, 298.44873046875
0, 1, 29, 296.3229675292969
0, 1, 30, 280.0097961425781
0, 1, 31, 292.8567199707031
0, 1, 32, 290.1148376464844
0, 1, 33, 295.7748107910156
0, 1, 34, 292.9756164550781
0, 1, 35, 280.46728515625
0, 1, 36, 309.3099060058594
0, 1, 37, 296.4926147460938
0, 1, 38, 278.8818969726562
0, 1, 39, 296.3749694824219
0, 1, 40, 269.3782653808594
0, 1, 41, 285.0804138183594
0, 1, 42, 288.4843444824219
0, 1, 43, 331.33349609375
0, 1, 44, 278.6793212890625
0, 1, 45, 291.8426818847656
0, 1, 46, 260.0635681152344
0, 1, 47, 311.0133056640625
0, 1, 48, 284.9625549316406
0, 1, 49, 302.6193542480469
0, 1, 50, 262.4281005859375
0, 1, 51, 272.71875
0, 1, 52, 295.2645568847656
0, 1, 53, 305.6828002929688
0, 1, 54, 275.5343933105469
0, 1, 55, 294.55615234375
0, 1, 56, 280.4337463378906
0, 1, 57, 296.8353271484375
0, 1, 58, 311.1999816894531
0, 1, 59, 292.1300048828125
0, 1, 60, 297.5445251464844
0, 1, 61, 275.6015625
0, 1, 62, 309.3598327636719
0, 1, 63, 286.3970947265625
0, 1, 64, 288.5702209472656
0, 1, 65, 293.8492126464844
0, 1, 66, 293.2229309082031
0, 1, 67, 292.5529174804688
0, 1, 68, 278.0041198730469
0, 1, 69, 280.6457214355469
0, 1, 70, 271.6411743164062
0, 1, 71, 272.9022216796875
0, 1, 72, 284.4972229003906
0, 1, 73, 303.5844421386719
0, 1, 74, 304.9548645019531
0, 1, 75, 295.1700744628906
0, 1, 76, 283.9486083984375
0, 1, 77, 290.2135620117188
0, 1, 78, 300.2129211425781
0, 1, 79, 301.4370422363281
0, 1, 80, 294.4718933105469
0, 1, 81, 300.3908081054688
0, 1, 82, 285.9901733398438
0, 1, 83, 332.072509765625
0, 1, 84, 307.9080505371094
0, 1, 85, 252.5194091796875
0, 1, 86, 294.6733703613281
0, 1, 87, 289.3816833496094
0, 1, 88, 299.40869140625
0, 1, 89, 290.5920715332031
0, 1, 90, 269.4403686523438
0, 1, 91, 317.9236450195312
0, 1, 92, 290.0495910644531
0, 1, 93, 287.1348266601562
0, 1, 94, 303.9949951171875
0, 1, 95, 283.2369079589844
0, 1, 96, 282.8194580078125
0, 1, 97, 302.5631713867188
0, 1, 98, 278.3376770019531
0, 1, 99, 269.0338745117188
0, 1, 100, 278.337890625
0, 1, 101, 282.5755615234375
0, 1, 102, 278.6280822753906
0, 1, 103, 280.6798095703125
0, 1, 104, 307.7007446289062
0, 1, 105, 295.9913024902344
0, 1, 106, 261.0420532226562
0, 1, 107, 192.7583770751953
0, 1, 108, 79.97476959228516
0, 1, 109, 23.52059364318848
0, 1, 110, 11.12837886810303
0, 1, 111, 10.30545711517334
0, 1, 112, 12.05294132232666
0, 1, 113, 7.98143482208252
0, 1, 114, 8.224406242370605
0, 1, 115, 7.069256782531738
0, 1, 116, 10.94976234436035
0, 1, 117, 5.200730323791504
0, 1, 118, 3.795128345489502
0, 1, 119, 5.79660701751709
0, 1, 120, 6.884390830993652
0, 1, 121, 6.416628360748291
0, 1, 122, 2.025037527084351
0, 1, 123, 3.028243064880371
0, 1, 124, 5.709325790405273
0, 1, 125, 4.487300872802734
0, 1, 126, 2.525863409042358
0, 1, 127, 2.043338298797607
0, 2, 0, 4.480570793151855
0, 2, 1, 2.040788412094116
0, 2, 2, 3.376448392868042
0, 2, 3, 4.90479564666748
0, 2, 4, 2.851655960083008
0, 2, 5, 2.151399612426758
0, 2, 6, 2.49846076965332
0, 2, 7, 3.229284524917603
0, 2, 8, 4.711097240447998
0, 2, 9, 6.126424312591553
0, 2, 10, 10.38897132873535
0, 2, 11, 6.359041213989258
0, 2, 12, 6.057420253753662
0, 2, 13, 10.33785438537598
0, 2, 14, 9.173944473266602
0, 2, 15, 8.227178573608398
0, 2, 16, 10.62988090515137
0, 2, 17, 18.01912117004395
0, 2, 18, 29.15106391906738
0, 2, 19, 115.2746505737305
0, 2, 20, 246.8396606445312
0, 2, 21, 270.4385070800781
0, 2, 22, 317.1861877441406
0, 2, 23, 299.9959106445312
0, 2, 24, 286.9462280273438
0, 2, 25, 303.3105773925781
0, 2, 26, 293.0243225097656
0, 2, 27, 277.8114318847656
0, 2, 28, 271.4826049804688
0, 2, 29, 273.2543640136719
0, 2, 30, 288.7898254394531
0, 2, 31, 277.1326904296875
0, 2, 32, 293.5168762207031
0, 2, 33, 282.2975463867188
0, 2, 34, 330.2047119140625
0, 2, 35, 288.3612976074219
0, 2, 36, 302.7781066894531
0, 2, 37, 314.8393859863281
0, 2, 38, 310.2784118652344
0, 2, 39, 268.1281433105469
0, 2, 40, 308.8069458007812
0, 2, 41, 291.5531921386719
0, 2, 42, 303.9432983398438
0, 2, 43, 314.0828857421875
0, 2, 44, 312.3673706054688
0, 2, 45, 324.3614501953125
0, 2, 46, 286.5837707519531
0, 2, 47, 302.9257507324219
0, 2, 48, 280.9873352050781
0, 2, 49, 278.2161560058594
0, 2, 50, 293.4189147949219
0, 2, 51, 283.7685241699219
0, 2, 52, 271.7366333007812
0, 2, 53, 285.9623718261719
0, 2, 54, 279.935546875
0, 2, 55, 273.728515625
0, 2, 56, 301.2979125976562
0, 2, 57, 291.6277160644531
0, 2, 58, 300.7264099121094
0, 2, 59, 292.6537170410156
0, 2, 60, 319.9458618164062
0, 2, 61, 300.84033203125
0, 2, 62, 313.5883483886719
0, 2, 63, 303.7814025878906
0, 2, 64, 294.7498779296875
0, 2, 65, 312.4739990234375
0, 2, 66, 280.187744140625
0, 2, 67, 291.3677978515625
0, 2, 68, 296.5133666992188
0, 2, 69, 309.696044921875
0, 2, 70, 333.9263000488281
0, 2, 71, 283.9905700683594
0, 2, 72, 301.8231811523438
0, 2, 73, 311.3655090332031
0, 2, 74, 285.3656616210938
0, 2, 75, 306.66552734375
0, 2, 76, 286.2915954589844
0, 2, 77, 298.7388305664062
0, 2, 78, 314.0458068847656
0, 2, 79, 308.4656677246094
0, 2, 80, 297.5663757324219
0, 2, 81, 281.6598510742188
0, 2, 82, 317.6841735839844
0, 2, 83, 313.5950927734375
0, 2, 84, 289.4610595703125
0, 2, 85, 281.95361328125
0, 2, 86, 324.9724731445312
0, 2, 87, 285.3890075683594
0, 2, 88, 281.5674438476562
0, 2, 89, 296.7082214355469
0, 2, 90, 295.0559997558594
0, 2, 91, 276.50146484375
0, 2, 92, 306.5050048828125
0, 2, 93, 318.0486755371094
0, 2, 94, 292.3156127929688
0, 2, 95, 313.5812683105469
0, 2, 96, 313.9451293945312
0, 2, 97, 289.6091613769531
0, 2, 98, 293.9512634277344
0, 2, 99, 272.9665832519531
0, 2, 100, 305.58447265625
0, 2, 101, 300.5492858886719
0, 2, 102, 295.7871704101562
0, 2, 103, 291.6671142578125
0, 2, 104, 291.7142028808594
0, 2, 105, 273.5631713867188
0, 2, 106, 297.3781127929688
0, 2, 107, 270.2506408691406
0, 2, 108, 115.9726181030273
0, 2, 109, 35.47599792480469
0, 2, 110, 9.995323181152344
0, 2, 111, 11.96576023101807
0, 2, 112, 7.351794242858887
0, 2, 113, 9.657770156860352
0, 2, 114, 9.565939903259277
0, 2, 115, 8.415531158447266
0, 2, 116, 8.483779907226562
0, 2, 117, 7.795347690582275
0, 2, 118, 5.848934173583984
0, 2, 119, 4.047067642211914
0, 2, 120, 8.350817680358887
0, 2, 121, 2.636752843856812
0, 2, 122, 4.755484580993652
0, 2, 123, 3.975869178771973
0, 2, 124, 3.907819747924805
0, 2, 125, 4.9822678565979
0, 2, 126, 5.238747596740723
0, 2, 127, 5.195384502410889
0, 3, 0, 4.652540683746338
0, 3, 1, 3.674373388290405
0, 3, 2, 5.668984413146973
0, 3, 3, 2.101151466369629
0, 3, 4, 5.054119110107422
0, 3, 5, 7.887008666992188
0, 3, 6, 5.772725582122803
0, 3, 7, 6.107748508453369
0, 3, 8, 6.432172298431396
0, 3, 9, 6.610462188720703
0, 3, 10, 6.442867279052734
0, 3, 11, 5.720294952392578
0, 3, 12, 7.643374443054199
0, 3, 13, 15.99851512908936
0, 3, 14, 11.67951965332031
0, 3, 15, 14.10398578643799
0, 3, 16, 11.39497470855713
0, 3, 17, 19.73463249206543
0, 3, 18, 55.30930709838867
0, 3, 19, 179.5876922607422
0, 3, 20, 270.3451843261719
0, 3, 21, 271.4263305664062
0, 3, 22, 281.8967895507812
0, 3, 23, 286.0491027832031
0, 3, 24, 286.5491333007812
0, 3, 25, 270.7663269042969
0, 3, 26, 304.6084289550781
0, 3, 27, 291.9339294433594
0, 3, 28, 283.0565185546875
0, 3, 29, 339.126708984375
0, 3, 30, 315.7523193359375
0, 3, 31, 287.9842224121094
0, 3, 32, 306.2989501953125
0, 3, 33, 313.4607238769531
0, 3, 34, 322.2504577636719
0, 3, 35, 307.641357421875
0, 3, 36, 268.059326171875
0, 3, 37, 313.9618225097656
0, 3, 38, 304.10302734375
0, 3, 39, 291.6461486816406
0, 3, 40, 266.4486083984375
0, 3, 41, 301.0250854492188
0, 3, 42, 284.7096252441406
0, 3, 43, 307.0242614746094
0, 3, 44, 310.5775756835938
0, 3, 45, 289.8434448242188
0, 3, 46, 329.3463134765625
0, 3, 47, 300.0397644042969
0, 3, 48, 303.6094970703125
0, 3, 49, 276.3346862792969
0, 3, 50, 290.6924438476562
0, 3, 51, 276.9612426757812
0, 3, 52, 315.6299438476562
0, 3, 53, 291.3125305175781
0, 3, 54, 285.0695190429688
0, 3, 55, 284.2005004882812
0, 3, 56, 298.2887268066406
0, 3, 57, 288.4070434570312
0, 3, 58, 306.8092346191406
0, 3, 59, 296.0499877929688
0, 3, 60, 297.160400390625
0, 3, 61, 263.7062683105469
0, 3, 62, 283.3531799316406
0, 3, 63, 307.2194213867188
0, 3, 64, 317.3185729980469
0, 3, 65, 306.1126403808594
0, 3, 66, 315.1556396484375
0, 3, 67, 317.5668029785156
0, 3, 68, 280.0343017578125
0, 3, 69, 283.7161560058594
0, 3, 70, 287.6610717773438
0, 3, 71, 301.186767578125
0, 3, 72, 270.3388671875
0, 3, 73, 310.9708251953125
0, 3, 74, 293.3833923339844
0, 3, 75, 292.6116943359375
0, 3, 76, 305.3770751953125
0, 3, 77, 313.1279296875
0, 3, 78, 306.1220703125
0, 3, 79, 281.7872619628906
0, 3, 80, 291.7354431152344
0, 3, 81, 310.7017211914062
0, 3, 82, 316.5661315917969
0, 3, 83, 299.7576904296875
0, 3, 84, 310.3188171386719
0, 3, 85, 292.1587829589844
0, 3, 86, 301.5470275878906
0, 3, 87, 296.5146179199219
0, 3, 88, 297.6384887695312
0, 3, 89, 298.706787109375
0, 3, 90, 276.2643127441406
0, 3, 91, 287.0595092773438
0, 3, 92, 305.2600708007812
0, 3, 93, 312.139892578125
0, 3, 94, 300.3001403808594
0, 3, 95, 334.6786193847656
0, 3, 96, 292.6914367675781
0, 3, 97, 285.8644409179688
0, 3, 98, 278.9225463867188
0, 3, 99, 261.7432250976562
0, 3, 100, 283.3996887207031
0, 3, 101, 295.7067260742188
0, 3, 102, 273.3825378417969
0, 3, 103, 320.6574401855469
0, 3, 104, 309.1962280273438
0, 3, 105, 287.0733337402344
0, 3, 106, 301.1065368652344
0, 3, 107, 285.2451477050781
0, 3, 108, 167.1323394775391
0, 3, 109, 56.83094024658203
0, 3, 110, 17.98550605773926
0, 3, 111, 13.73997974395752
0, 3, 112, 11.66204166412354
0, 3, 113, 7.983465194702148
0, 3, 114, 10.25778102874756
0, 3, 115, 7.402543067932129
0, 3, 116, 9.248048782348633
0, 3, 117, 8.000396728515625
0, 3, 118, 8.529807090759277
0, 3, 119, 6.398974895477295
0, 3, 120, 6.512587070465088
0, 3, 121, 2.795389652252197
0, 3, 122, 2.249922037124634
0, 3, 123, 7.011298656463623
0, 3, 124, 2.985564470291138
0, 3, 125, 6.378662586212158
0, 3, 126, 6.116523265838623
0, 3, 127, 2.6659255027771
0, 4, 0, 2.836363554000854
0, 4, 1, 4.292566299438477
0, 4, 2, 2.561298131942749
0, 4, 3, 1.71984076499939
0, 4, 4, 5.212846755981445
0, 4, 5, 8.378479957580566
0, 4, 6, 6.211404800415039
0, 4, 7, 5.058347225189209
0, 4, 8, 4.298911571502686
0, 4, 9, 7.600784778594971
0, 4, 10, 7.812472820281982
0, 4, 11, 5.605620861053467
0, 4, 12, 6.154068946838379
0, 4, 13, 7.675620555877686
0, 4, 14, 10.81636905670166
0, 4, 15, 8.124863624572754
0, 4, 16, 15.52221488952637
0, 4, 17, 17.50784683227539
0, 4, 18, 93.2691650390625
0, 4, 19, 223.2005310058594
0, 4, 20, 286.4888305664062
0, 4, 21, 273.4544677734375
0, 4, 22, 303.3550109863281
0, 4, 23, 266.0744934082031
0, 4, 24, 288.9629821777344
0, 4, 25, 271.4194946289062
0, 4, 26, 293.8468933105469
0, 4, 27, 283.2562866210938
0, 4, 28, 305.8006591796875
0, 4, 29, 322.2035522460938
0, 4, 30, 310.2761535644531
0, 4, 31, 307.8913879394531
0, 4, 32, 281.8433227539062
0, 4, 33, 297.841064453125
0, 4, 34, 297.3393859863281
0, 4, 35, 311.3887634277344
0, 4, 36, 294.6688537597656
0, 4, 37, 287.5716247558594
0, 4, 38, 297.1064758300781
0, 4, 39, 294.2264709472656
0, 4, 40, 301.1770935058594
0, 4, 41, 310.5675048828125
0, 4, 42, 332.0955505371094
0, 4, 43, 298.4681396484375
0, 4, 44, 322.9305114746094
0, 4, 45, 322.5773315429688
0, 4, 46, 306.6477355957031
0, 4, 47, 293.5468139648438
0, 4, 48, 295.8944091796875
0, 4, 49, 276.3125
0, 4, 50, 295.8434448242188
0, 4, 51, 316.8423767089844
0, 4, 52, 325.8914489746094
0, 4, 53, 304.2862243652344
0, 4, 54, 287.0633544921875
0, 4, 55, 315.0841369628906
0, 4, 56, 288.0817260742188
0, 4, 57, 312.0487976074219
0, 4, 58, 296.2556762695312
0, 4, 59, 308.4743957519531
0, 4, 60, 302.3771362304688
0, 4, 61, 314.6514892578125
0, 4, 62, 307.733642578125
0, 4, 63, 298.3051452636719
0, 4, 64, 332.7450866699219
0, 4, 65, 316.1693420410156
0, 4, 66, 291.0256958007812
0, 4, 67, 283.7525634765625
0, 4, 68, 311.5894775390625
0, 4, 69, 275.4439697265625
0, 4, 70, 299.2959594726562
0, 4, 71, 320.1522827148438
0, 4, 72, 334.4826049804688
0, 4, 73, 298.6785583496094
0, 4, 74, 292.3525390625
0, 4, 75, 289.5341491699219
0, 4, 76, 275.2985534667969
0, 4, 77, 282.0800170898438
0, 4, 78, 308.4476623535156
0, 4, 79, 320.0772094726562
0, 4, 80, 316.6206970214844
0, 4, 81, 312.1054992675781
0, 4, 82, 297.4458923339844
0, 4, 83, 300.8863525390625
0, 4, 84, 291.5168762207031
0, 4, 85, 295.130859375
0, 4, 86, 298.3545227050781
0, 4, 87, 285.892578125
0, 4, 88, 305.8684997558594
0, 4, 89, 294.1480712890625
0, 4, 90, 331.6840515136719
0, 4, 91, 300.7468566894531
0, 4, 92, 290.9623107910156
0, 4, 93, 296.22265625
0, 4, 94, 292.4961242675781
0, 4, 95, 290.5004577636719
0, 4, 96, 324.7839965820312
0, 4, 97, 274.2206420898438
0, 4, 98, 327.3577575683594
0, 4, 99, 314.8056945800781
0, 4, 100, 302.1988830566406
0, 4, 101, 258.3389892578125
0, 4, 102, 296.5418090820312
0, 4, 103, 316.1808471679688
0, 4, 104, 282.2082214355469
0, 4, 105, 310.342041015625
0, 4, 106, 288.8788146972656
0, 4, 107, 297.9363403320312
0, 4, 108, 226.9361114501953
0, 4, 109, 81.17057037353516
0, 4, 110, 15.6239538192749
0, 4, 111, 13.53517532348633
0, 4, 112, 8.650473594665527
0, 4, 113, 10.63932037353516
0, 4, 114, 9.476088523864746
0, 4, 115, 11.88104057312012
0, 4, 116, 9.336262702941895
0, 4, 117, 7.354593753814697
0, 4, 118, 10.22686672210693
0, 4, 119, 7.712517738342285
0, 4, 120, 5.747269630432129
0, 4, 121, 5.25412654876709
0, 4, 122, 4.599024772644043
0, 4, 123, 7.131745338439941
0, 4, 124, 7.368393898010254
0, 4, 125, 9.431233406066895
0, 4, 126, 5.15818452835083
0, 4, 127, 6.28331470489502
0, 5, 0, 3.961843729019165
0, 5, 1, 3.23675274848938
0, 5, 2, 6.754848003387451
0, 5, 3, 4.21992826461792
0, 5, 4, 6.479957580566406
0, 5, 5, 6.876894474029541
0, 5, 6, 5.269581317901611
0, 5, 7, 5.065284729003906
0, 5, 8, 4.077896595001221
0, 5, 9, 4.686084270477295
0, 5, 10, 5.277868747711182
0, 5, 11, 6.941025733947754
0, 5, 12, 9.716109275817871
0, 5, 13, 6.485836982727051
0, 5, 14, 13.21001052856445
0, 5, 15, 17.51850891113281
0, 5, 16, 14.84378814697266
0, 5, 17, 29.19278335571289
0, 5, 18, 137.8680419921875
0, 5, 19, 289.8371276855469
0, 5, 20, 307.7455139160156
0, 5, 21, 316.5705261230469
0, 5, 22, 276.2189636230469
0, 5, 23, 309.2690734863281
0, 5, 24, 301.8071594238281
0, 5, 25, 289.6888427734375
0, 5, 26, 295.094482421875
0, 5, 27, 321.9025573730469
0, 5, 28, 302.6688232421875
0, 5, 29, 296.9870910644531
0, 5, 30, 322.8683166503906
0, 5, 31, 286.6656799316406
0, 5, 32, 301.1710510253906
0, 5, 33, 305.1713256835938
0, 5, 34, 297.5148010253906
0, 5, 35, 310.8140869140625
0, 5, 36, 270.1278991699219
0, 5, 37, 283.2367858886719
0, 5, 38, 293.0294189453125
0, 5, 39, 310.7318420410156
0, 5, 40, 309.7655639648438
0, 5, 41, 272.7305908203125
0, 5, 42, 306.5848388671875
0, 5, 43, 313.8924865722656
0, 5, 44, 294.1603088378906
0, 5, 45, 301.7875671386719
0, 5, 46, 263.6225891113281
0, 5, 47, 279.8060913085938
0, 5, 48, 296.3228149414062
0, 5, 49, 285.8586730957031
0, 5, 50, 294.8226013183594
0, 5, 51, 279.5221252441406
0, 5, 52, 269.9277954101562
0, 5, 53, 285.5871276855469
0, 5, 54, 291.3415222167969
0, 5, 55, 345.5417785644531
0, 5, 56, 306.038330078125
0, 5, 57, 309.2421264648438
0, 5, 58, 313.3011779785156
0, 5, 59, 303.3658752441406
0, 5, 60, 306.8416748046875
0, 5, 61, 281.6077575683594
0, 5, 62, 326.3354187011719
0, 5, 63, 290.0690307617188
0, 5, 64, 324.4977722167969
0, 5, 65, 305.3987121582031
0, 5, 66, 332.4656982421875
0, 5, 67, 312.5091247558594
0, 5, 68, 310.3239135742188
0, 5, 69, 309.9493713378906
0, 5, 70, 301.68603515625
0, 5, 71, 273.0785522460938
0, 5, 72, 310.0709838867188
0, 5, 73, 301.4088134765625
0, 5, 74, 296.0035400390625
0, 5, 75, 295.2475280761719
0, 5, 76, 288.1737976074219
0, 5, 77, 299.1006469726562
0, 5, 78, 313.2705993652344
0, 5, 79, 307.9579772949219
0, 5, 80, 294.9647521972656
0, 5, 81, 325.6428527832031
0, 5, 82, 322.7874450683594
0, 5, 83, 281.0283203125
0, 5, 84, 302.9033508300781
0, 5, 85, 271.57275390625
0, 5, 86, 327.249267578125
0, 5, 87, 284.54052734375
0, 5, 88, 312.28564453125
0, 5, 89, 305.5435485839844
0, 5, 90, 317.2294921875
0, 5, 91, 315.2752990722656
0, 5, 92, 296.55322265625
0, 5, 93, 320.9150390625
0, 5, 94, 306.7949829101562
0, 5, 95, 297.1018371582031
0, 5, 96, 296.7281494140625
0, 5, 97, 294.2036437988281
0, 5, 98, 317.777587890625
0, 5, 99, 301.5184326171875
0, 5, 100, 291.8559875488281
0, 5, 101, 304.9880065917969
0, 5, 102, 292.6336669921875
0, 5, 103, 314.1780395507812
0, 5, 104, 303.9286499023438
0, 5, 105, 292.5102233886719
0, 5, 106, 280.7244873046875
0, 5, 107, 292.2067260742188
0, 5, 108, 265.4396667480469
0, 5, 109, 156.4178924560547
0, 5, 110, 39.74279022216797
0, 5, 111, 21.17799758911133
0, 5, 112, 15.79081535339355
0, 5, 113, 14.32669448852539
0, 5, 114, 13.36387825012207
0, 5, 115, 6.763048648834229
0, 5, 116, 6.867157459259033
0, 5, 117, 6.291512966156006
0, 5, 118, 12.95736503601074
0, 5, 119, 5.20049524307251
0, 5, 120, 6.853670597076416
0, 5, 121, 4.935204029083252
0, 5, 122, 6.53894567489624
0, 5, 123, 5.658533096313477
0, 5, 124, 4.78448486328125
0, 5, 125, 4.182804107666016
0, 5, 126, 6.803719043731689
0, 5, 127, 4.736101627349854
0, 6, 0, 3.719702959060669
0, 6, 1, 3.963981866836548
0, 6, 2, 4.80155086517334
0, 6, 3, 6.193047523498535
0, 6, 4, 3.448237180709839
0, 6, 5, 7.580508232116699
0, 6, 6, 8.565065383911133
0, 6, 7, 6.085536003112793
0, 6, 8, 9.788998603820801
0, 6, 9, 6.719463348388672
0, 6, 10, 9.57726001739502
0, 6, 11, 7.880073547363281
0, 6, 12, 8.455426216125488
0, 6, 13, 16.16601943969727
0, 6, 14, 10.34240341186523
0, 6, 15, 15.68093585968018
0, 6, 16, 29.15072631835938
0, 6, 17, 54.55432891845703
0, 6, 18, 174.928955078125
0, 6, 19, 276.7468566894531
0, 6, 20, 290.2968139648438
0, 6, 21, 313.9664611816406
0, 6, 22, 319.2147216796875
0, 6, 23, 306.5591735839844
0, 6, 24, 315.9586181640625
0, 6, 25, 315.1181335449219
0, 6, 26, 320.698486328125
0, 6, 27, 333.3611755371094
0, 6, 28, 300.218505859375
0, 6, 29, 329.0308227539062
0, 6, 30, 283.2568054199219
0, 6, 31, 287.0132446289062
0, 6, 32, 341.0081787109375
0, 6, 33, 301.5443725585938
0, 6, 34, 342.447509765625
0, 6, 35, 321.9349060058594
0, 6, 36, 273.3712158203125
0, 6, 37, 287.8347473144531
0, 6, 38, 311.8366088867188
0, 6, 39, 298.8393249511719
0, 6, 40, 282.943359375
0, 6, 41, 296.2039794921875
0, 6, 42, 304.8644104003906
0, 6, 43, 289.3287658691406
0, 6, 44, 280.6920776367188
0, 6, 45, 318.3228454589844
0, 6, 46, 302.9213562011719
0, 6, 47, 331.510986328125
0, 6, 48, 293.1465148925781
0, 6, 49, 311.5544738769531
0, 6, 50, 327.6424560546875
0, 6, 51, 312.1241149902344
0, 6, 52, 322.3048400878906
0, 6, 53, 326.7507019042969
0, 6, 54, 303.551513671875
0, 6, 55, 305.7688293457031
0, 6, 56, 292.6662292480469
0, 6, 57, 312.3825073242188
0, 6, 58, 265.7537841796875
0, 6, 59, 300.6918334960938
0, 6, 60, 312.1168518066406
0, 6, 61, 272.1252136230469
0, 6, 62, 338.3382568359375
0, 6, 63, 324.4446105957031
0, 6, 64, 292.0240783691406
0, 6, 65, 283.1553649902344
0, 6, 66, 303.3593444824219
0, 6, 67, 309.9193725585938
0, 6, 68, 293.0458068847656
0, 6, 69, 279.7999572753906
0, 6, 70, 273.3901062011719
0, 6, 71, 290.397216796875
0, 6, 72, 308.4526672363281
0, 6, 73, 292.3282165527344
0, 6, 74, 330.7613220214844
0, 6, 75, 342.3778991699219
0, 6, 76, 298.4082641601562
0, 6, 77, 286.9859008789062
0, 6, 78, 278.326171875
0, 6, 79, 292.9640502929688
0, 6, 80, 298.5558471679688
0, 6, 81, 313.8157958984375
0, 6, 82, 319.1321411132812
0, 6, 83, 320.0980834960938
0, 6, 84, 294.2915649414062
0, 6, 85, 303.0565185546875
0, 6, 86, 329.6069030761719
0, 6, 87, 293.5814514160156
0, 6, 88, 305.549072265625
0, 6, 89, 304.153564453125
0, 6, 90, 300.5293579101562
0, 6, 91, 311.6260681152344
0, 6, 92, 288.1867370605469
0, 6, 93, 298.1633911132812
0, 6, 94, 274.6386108398438
0, 6, 95, 299.0348815917969
0, 6, 96, 348.7869873046875
0, 6, 97, 310.724609375
0, 6, 98, 300.0700073242188
0, 6, 99, 273.0597229003906
0, 6, 100, 307.5845642089844
0, 6, 101, 294.2770385742188
0, 6, 102, 308.3355102539062
0, 6, 103, 307.4436950683594
0, 6, 104, 290.5291748046875
0, 6, 105, 299.6966247558594
0, 6, 106, 306.9901123046875
0, 6, 107, 305.269287109375
0, 6, 108, 267.359130859375
0, 6, 109, 186.2815399169922
0, 6, 110, 55.34379959106445
0, 6, 111, 22.07053565979004
0, 6, 112, 13.36636734008789
0, 6, 113, 10.9716682434082
0, 6, 114, 13.80010986328125
0, 6, 115, 14.45300483703613
0, 6, 116, 10.48096942901611
0, 6, 117, 9.933656692504883
0, 6, 118, 10.04029941558838
0, 6, 119, 10.60886669158936
0, 6, 120, 5.812166690826416
0, 6, 121, 6.627910614013672
0, 6, 122, 7.655295848846436
0, 6, 123, 4.563497066497803
0, 6, 124, 6.346418857574463
0, 6, 125, 6.119246006011963
0, 6, 126, 3.631335020065308
0, 6, 127, 6.941904067993164
0, 7, 0, 6.599095821380615
0, 7, 1, 3.409648180007935
0, 7, 2, 5.185934066772461
0, 7, 3, 4.783705234527588
0, 7, 4, 3.958370923995972
0, 7, 5, 4.176849365234375
0, 7, 6, 7.429011344909668
0, 7, 7, 5.676918506622314
0, 7, 8, 5.989405632019043
0, 7, 9, 6.362890720367432
0, 7, 10, 7.728413105010986
0, 7, 11, 9.813504219055176
0, 7, 12, 10.6561107635498
0, 7, 13, 10.18856620788574
0, 7, 14, 9.859598159790039
0, 7, 15, 15.82286071777344
0, 7, 16, 26.50250244140625
0, 7, 17, 98.78386688232422
0, 7, 18, 217.447265625
0, 7, 19, 289.6265563964844
0, 7, 20, 297.7641906738281
0, 7, 21, 277.6648254394531
0, 7, 22, 298.9049377441406
0, 7, 23, 288.9444885253906
0, 7, 24, 313.3255004882812
0, 7, 25, 325.123291015625
0, 7, 26, 277.8847045898438
0, 7, 27, 298.1524353027344
0, 7, 28, 328.9552001953125
0, 7, 29, 317.6666259765625
0, 7, 30, 303.9362487792969
0, 7, 31, 278.417724609375
0, 7, 32, 306.4892883300781
0, 7, 33, 263.2096252441406
0, 7, 34, 296.8556518554688
0, 7, 35, 321.836181640625
0, 7, 36, 330.6302185058594
0, 7, 37, 324.2872619628906
0, 7, 38, 296.0521545410156
0, 7, 39, 305.8922119140625
0, 7, 40, 289.5747375488281
0, 7, 41, 270.7813415527344
0, 7, 42, 300.3635864257812
0, 7, 43, 277.2926635742188
0, 7, 44, 303.5667114257812
0, 7, 45, 295.88037109375
0, 7, 46, 284.4813537597656
0, 7, 47, 328.6719360351562
0, 7, 48, 285.8060607910156
0, 7, 49, 301.30322265625
0, 7, 50, 322.1297912597656
0, 7, 51, 299.0181579589844
0, 7, 52, 326.7977294921875
0, 7, 53, 310.0531616210938
0, 7, 54, 324.1998901367188
0, 7, 55, 307.3348388671875
0, 7, 56, 278.5146789550781
0, 7, 57, 284.2598876953125
0, 7, 58, 296.4805908203125
0, 7, 59, 296.3575439453125
0, 7, 60, 323.4279174804688
0, 7, 61, 278.6382141113281
0, 7, 62, 298.0653381347656
0, 7, 63, 293.3589477539062
0, 7, 64, 306.6441955566406
0, 7, 65, 330.0755920410156
0, 7, 66, 319.8543395996094
0, 7, 67, 301.9956970214844
0, 7, 68, 280.1379089355469
0, 7, 69, 295.6955871582031
0, 7, 70, 301.7066040039062
0, 7, 71, 310.4502563476562
0, 7, 72, 285.087646484375
0, 7, 73, 295.1478576660156
0, 7, 74, 344.1185302734375
0, 7, 75, 318.4418029785156
0, 7, 76, 325.2201538085938
0, 7, 77, 278.656982421875
0, 7, 78, 304.2399291992188
0, 7, 79, 296.2392578125
0, 7, 80, 310.4405212402344
0, 7, 81, 321.2071838378906
0, 7, 82, 330.0047302246094
0, 7, 83, 317.8843688964844
0, 7, 84, 309.5488586425781
0, 7, 85, 271.4633483886719
0, 7, 86, 311.6576232910156
0, 7, 87, 309.5778198242188
0, 7, 88, 306.5552673339844
0, 7, 89, 292.3571166992188
0, 7, 90, 308.2403869628906
0, 7, 91, 315.721435546875
0, 7, 92, 289.0808715820312
0, 7, 93, 307.5655822753906
0, 7, 94, 274.0639343261719
0, 7, 95, 295.7354125976562
0, 7, 96, 331.4657592773438
0, 7, 97, 294.9914245605469
0, 7, 98, 290.3207702636719
0, 7, 99, 310.669921875
0, 7, 100, 281.0661315917969
0, 7, 101, 274.9105529785156
0, 7, 102, 288.8540954589844
0, 7, 103, 291.7202758789062
0, 7, 104, 274.9371643066406
0, 7, 105, 305.8013916015625
0, 7, 106, 318.3080749511719
0, 7, 107, 295.4347229003906
0, 7, 108, 274.323486328125
0, 7, 109, 237.1118469238281
0, 7, 110, 96.06716156005859
0, 7, 111, 23.41923713684082
0, 7, 112, 14.91050434112549
0, 7, 113, 13.45137596130371
0, 7, 114, 15.327317237854
0, 7, 115, 14.28039932250977
0, 7, 116, 10.67371463775635
0, 7, 117, 7.855640888214111
0, 7, 118, 6.000471591949463
0, 7, 119, 8.199360847473145
0, 7, 120, 7.556605339050293
0, 7, 121, 7.304844379425049
0, 7, 122, 5.941992282867432
0, 7, 123, 7.393274307250977
0, 7, 124, 3.497689723968506
0, 7, 125, 4.899243354797363
0, 7, 126, 10.45908546447754
0, 7, 127, 5.917461395263672
0, 8, 0, 5.775465488433838
0, 8, 1, 2.618725299835205
0, 8, 2, 4.555943489074707
0, 8, 3, 3.726373672485352
0, 8, 4, 4.371360301971436
0, 8, 5, 4.806516170501709
0, 8, 6, 8.926922798156738
0, 8, 7, 4.946062088012695
0, 8, 8, 10.97545909881592
0, 8, 9, 4.600126266479492
0, 8, 10, 8.335760116577148
0, 8, 11, 13.13345527648926
0, 8, 12, 13.4355411529541
0, 8, 13, 17.6092586517334
0, 8, 14, 13.44420337677002
0, 8, 15, 18.57174110412598
0, 8, 16, 31.80165672302246
0, 8, 17, 131.0034027099609
0, 8, 18, 242.5931091308594
0, 8, 19, 295.3292541503906
0, 8, 20, 285.3102111816406
0, 8, 21, 306.7382507324219
0, 8, 22, 295.5630798339844
0, 8, 23, 275.3320617675781
0, 8, 24, 268.9437561035156
0, 8, 25, 274.108154296875
0, 8, 26, 305.8404235839844
0, 8, 27, 307.9120483398438
0, 8, 28, 302.4617004394531
0, 8, 29, 319.4201965332031
0, 8, 30, 314.734130859375
0, 8, 31, 307.0716552734375
0, 8, 32, 281.5074768066406
0, 8, 33, 298.1669616699219
0, 8, 34, 291.4295959472656
0, 8, 35, 282.1595153808594
0, 8, 36, 316.4466552734375
0, 8, 37, 340.6167297363281
0, 8, 38, 330.9177856445312
0, 8, 39, 280.8986511230469
0, 8, 40, 307.6029357910156
