# TOPAS Version: 3.1.p3
# Parameter File: batch_inserts_316.txt
# Results for scorer Readout_Adipose
# Scored in component: MyBox
# X in 1 bin  of 0.75 cm
# Y in 512 bins of 0.0783984 cm
# Z in 128 bins of 0.078125 cm
# EnergyDeposit ( MeV ) : Sum   
0, 0, 0, 3.296077013015747
0, 0, 1, 3.812888622283936
0, 0, 2, 5.261002063751221
0, 0, 3, 1.34968888759613
0, 0, 4, 3.393398284912109
0, 0, 5, 2.859907150268555
0, 0, 6, 5.418554782867432
0, 0, 7, 10.24264049530029
0, 0, 8, 5.643366813659668
0, 0, 9, 4.515357971191406
0, 0, 10, 6.495676040649414
0, 0, 11, 4.357471942901611
0, 0, 12, 6.163848400115967
0, 0, 13, 5.97235107421875
0, 0, 14, 6.947901725769043
0, 0, 15, 11.30874347686768
0, 0, 16, 10.40170764923096
0, 0, 17, 8.194016456604004
0, 0, 18, 12.44162368774414
0, 0, 19, 43.57781600952148
0, 0, 20, 141.7574005126953
0, 0, 21, 223.2229919433594
0, 0, 22, 249.0113372802734
0, 0, 23, 258.2009887695312
0, 0, 24, 252.3341369628906
0, 0, 25, 258.7560119628906
0, 0, 26, 234.2304382324219
0, 0, 27, 237.0771179199219
0, 0, 28, 272.30712890625
0, 0, 29, 253.2609558105469
0, 0, 30, 231.8320922851562
0, 0, 31, 243.1771087646484
0, 0, 32, 263.6259460449219
0, 0, 33, 259.6084594726562
0, 0, 34, 286.9103698730469
0, 0, 35, 267.8489379882812
0, 0, 36, 245.8417205810547
0, 0, 37, 254.4814758300781
0, 0, 38, 269.7126770019531
0, 0, 39, 229.7144317626953
0, 0, 40, 243.4714508056641
0, 0, 41, 267.1015319824219
0, 0, 42, 228.2489013671875
0, 0, 43, 261.4593811035156
0, 0, 44, 253.0657043457031
0, 0, 45, 253.8797302246094
0, 0, 46, 243.9410552978516
0, 0, 47, 251.6805572509766
0, 0, 48, 269.2877502441406
0, 0, 49, 274.4604797363281
0, 0, 50, 251.4750366210938
0, 0, 51, 254.3127136230469
0, 0, 52, 272.7795104980469
0, 0, 53, 291.1844787597656
0, 0, 54, 242.2020568847656
0, 0, 55, 240.1784210205078
0, 0, 56, 278.1933288574219
0, 0, 57, 263.3787231445312
0, 0, 58, 245.8812103271484
0, 0, 59, 271.2777404785156
0, 0, 60, 235.6833801269531
0, 0, 61, 245.6914367675781
0, 0, 62, 256.6722106933594
0, 0, 63, 265.6225280761719
0, 0, 64, 256.8667602539062
0, 0, 65, 261.8265075683594
0, 0, 66, 276.5946655273438
0, 0, 67, 246.2779693603516
0, 0, 68, 257.2370300292969
0, 0, 69, 263.1003723144531
0, 0, 70, 271.6616821289062
0, 0, 71, 236.5693817138672
0, 0, 72, 249.6640472412109
0, 0, 73, 258.3196716308594
0, 0, 74, 251.696533203125
0, 0, 75, 240.7549591064453
0, 0, 76, 227.8188934326172
0, 0, 77, 262.4046936035156
0, 0, 78, 256.8885803222656
0, 0, 79, 278.3099060058594
0, 0, 80, 219.1355590820312
0, 0, 81, 267.4107666015625
0, 0, 82, 256.2338562011719
0, 0, 83, 246.3057098388672
0, 0, 84, 269.5889282226562
0, 0, 85, 231.8405609130859
0, 0, 86, 252.9843292236328
0, 0, 87, 250.3617248535156
0, 0, 88, 259.3795471191406
0, 0, 89, 285.3552551269531
0, 0, 90, 244.1316223144531
0, 0, 91, 279.6884460449219
0, 0, 92, 251.8561248779297
0, 0, 93, 249.1256713867188
0, 0, 94, 247.4714508056641
0, 0, 95, 247.9889831542969
0, 0, 96, 274.6795349121094
0, 0, 97, 272.6509094238281
0, 0, 98, 272.1895751953125
0, 0, 99, 258.1249694824219
0, 0, 100, 262.7453308105469
0, 0, 101, 226.255615234375
0, 0, 102, 231.9311676025391
0, 0, 103, 269.9520263671875
0, 0, 104, 254.3739624023438
0, 0, 105, 251.3246765136719
0, 0, 106, 245.8197479248047
0, 0, 107, 152.2647705078125
0, 0, 108, 37.13724136352539
0, 0, 109, 11.86027717590332
0, 0, 110, 12.1158275604248
0, 0, 111, 10.53579711914062
0, 0, 112, 6.031766891479492
0, 0, 113, 4.725820064544678
0, 0, 114, 5.30005407333374
0, 0, 115, 4.623819828033447
0, 0, 116, 5.804574489593506
0, 0, 117, 7.388811588287354
0, 0, 118, 6.8505859375
0, 0, 119, 3.205562353134155
0, 0, 120, 5.133618354797363
0, 0, 121, 3.208683967590332
0, 0, 122, 4.993913173675537
0, 0, 123, 2.995096683502197
0, 0, 124, 5.26891040802002
0, 0, 125, 2.62354302406311
0, 0, 126, 4.659999370574951
0, 0, 127, 3.152474164962769
0, 1, 0, 8.506234169006348
0, 1, 1, 3.760459899902344
0, 1, 2, 4.331079959869385
0, 1, 3, 1.536518454551697
0, 1, 4, 2.218451738357544
0, 1, 5, 3.774741649627686
0, 1, 6, 3.496187210083008
0, 1, 7, 3.240006685256958
0, 1, 8, 8.996047973632812
0, 1, 9, 6.346238136291504
0, 1, 10, 6.956260681152344
0, 1, 11, 11.35694313049316
0, 1, 12, 7.428911209106445
0, 1, 13, 8.902037620544434
0, 1, 14, 8.021846771240234
0, 1, 15, 8.472285270690918
0, 1, 16, 12.12651252746582
0, 1, 17, 14.03542900085449
0, 1, 18, 21.28939056396484
0, 1, 19, 66.01699829101562
0, 1, 20, 198.0934295654297
0, 1, 21, 253.7435760498047
0, 1, 22, 294.4885559082031
0, 1, 23, 285.3620300292969
0, 1, 24, 275.9800109863281
0, 1, 25, 289.0100708007812
0, 1, 26, 267.079833984375
0, 1, 27, 308.5835876464844
0, 1, 28, 302.180419921875
0, 1, 29, 297.6015014648438
0, 1, 30, 279.2043762207031
0, 1, 31, 293.2284851074219
0, 1, 32, 289.5525817871094
0, 1, 33, 296.7572326660156
0, 1, 34, 292.8733520507812
0, 1, 35, 279.8445434570312
0, 1, 36, 309.1305847167969
0, 1, 37, 295.5512390136719
0, 1, 38, 279.596923828125
0, 1, 39, 296.4324035644531
0, 1, 40, 266.852783203125
0, 1, 41, 286.481201171875
0, 1, 42, 291.1885681152344
0, 1, 43, 331.1851806640625
0, 1, 44, 279.6360473632812
0, 1, 45, 292.1806640625
0, 1, 46, 262.2145385742188
0, 1, 47, 312.8215942382812
0, 1, 48, 286.5337524414062
0, 1, 49, 304.2027282714844
0, 1, 50, 261.937255859375
0, 1, 51, 271.9606018066406
0, 1, 52, 296.1923522949219
0, 1, 53, 305.56982421875
0, 1, 54, 275.7270812988281
0, 1, 55, 293.6858215332031
0, 1, 56, 279.98779296875
0, 1, 57, 295.9950866699219
0, 1, 58, 310.6561889648438
0, 1, 59, 292.1094970703125
0, 1, 60, 296.9461975097656
0, 1, 61, 275.1873474121094
0, 1, 62, 306.6545104980469
0, 1, 63, 285.5102844238281
0, 1, 64, 290.0132141113281
0, 1, 65, 295.4274291992188
0, 1, 66, 291.8960571289062
0, 1, 67, 292.1662292480469
0, 1, 68, 276.7449951171875
0, 1, 69, 281.6856079101562
0, 1, 70, 268.8750915527344
0, 1, 71, 273.9990539550781
0, 1, 72, 289.1596984863281
0, 1, 73, 304.6863403320312
0, 1, 74, 303.7120971679688
0, 1, 75, 292.72412109375
0, 1, 76, 286.3817749023438
0, 1, 77, 291.4248046875
0, 1, 78, 297.3967590332031
0, 1, 79, 301.2522583007812
0, 1, 80, 297.9486999511719
0, 1, 81, 300.927734375
0, 1, 82, 284.884033203125
0, 1, 83, 331.36376953125
0, 1, 84, 308.9077453613281
0, 1, 85, 252.4277038574219
0, 1, 86, 295.7785339355469
0, 1, 87, 289.8020629882812
0, 1, 88, 298.9968566894531
0, 1, 89, 289.0767211914062
0, 1, 90, 271.0339965820312
0, 1, 91, 317.3720703125
0, 1, 92, 291.5719604492188
0, 1, 93, 289.8351135253906
0, 1, 94, 303.8272705078125
0, 1, 95, 283.8955383300781
0, 1, 96, 282.2218322753906
0, 1, 97, 300.6781616210938
0, 1, 98, 276.717041015625
0, 1, 99, 264.49462890625
0, 1, 100, 277.6386413574219
0, 1, 101, 282.4884948730469
0, 1, 102, 278.7958374023438
0, 1, 103, 279.735595703125
0, 1, 104, 307.1784057617188
0, 1, 105, 297.1128845214844
0, 1, 106, 261.7239379882812
0, 1, 107, 192.4166412353516
0, 1, 108, 82.94784545898438
0, 1, 109, 22.60188865661621
0, 1, 110, 10.78655529022217
0, 1, 111, 7.405449867248535
0, 1, 112, 14.03110122680664
0, 1, 113, 7.365584373474121
0, 1, 114, 6.510550498962402
0, 1, 115, 5.852244853973389
0, 1, 116, 11.47108364105225
0, 1, 117, 4.901734352111816
0, 1, 118, 5.227444171905518
0, 1, 119, 8.427785873413086
0, 1, 120, 6.627767086029053
0, 1, 121, 4.777731895446777
0, 1, 122, 4.098082065582275
0, 1, 123, 5.30751371383667
0, 1, 124, 8.304903984069824
0, 1, 125, 2.420539617538452
0, 1, 126, 3.501360654830933
0, 1, 127, 2.317348718643188
0, 2, 0, 3.332536458969116
0, 2, 1, 1.594833016395569
0, 2, 2, 3.433705568313599
0, 2, 3, 3.296228885650635
0, 2, 4, 3.10030460357666
0, 2, 5, 2.984515905380249
0, 2, 6, 2.160013914108276
0, 2, 7, 3.891767501831055
0, 2, 8, 4.868327617645264
0, 2, 9, 4.994795322418213
0, 2, 10, 8.127192497253418
0, 2, 11, 7.015536308288574
0, 2, 12, 7.761910915374756
0, 2, 13, 11.45478820800781
0, 2, 14, 13.88533687591553
0, 2, 15, 8.288222312927246
0, 2, 16, 8.334918022155762
0, 2, 17, 16.09934043884277
0, 2, 18, 30.02437591552734
0, 2, 19, 120.6392974853516
0, 2, 20, 247.0538330078125
0, 2, 21, 272.9501342773438
0, 2, 22, 316.4323120117188
0, 2, 23, 301.8445434570312
0, 2, 24, 287.7682189941406
0, 2, 25, 302.7513122558594
0, 2, 26, 292.7209167480469
0, 2, 27, 276.0863952636719
0, 2, 28, 273.0331420898438
0, 2, 29, 275.7063598632812
0, 2, 30, 290.0131530761719
0, 2, 31, 280.2958068847656
0, 2, 32, 293.325927734375
0, 2, 33, 283.9833679199219
0, 2, 34, 335.333740234375
0, 2, 35, 289.1471252441406
0, 2, 36, 304.3515930175781
0, 2, 37, 317.4359130859375
0, 2, 38, 312.2001953125
0, 2, 39, 266.3321228027344
0, 2, 40, 307.4372253417969
0, 2, 41, 291.2245178222656
0, 2, 42, 304.5704345703125
0, 2, 43, 312.85107421875
0, 2, 44, 312.6243896484375
0, 2, 45, 324.283935546875
0, 2, 46, 287.350830078125
0, 2, 47, 302.46142578125
0, 2, 48, 278.7091064453125
0, 2, 49, 278.2868957519531
0, 2, 50, 293.3428649902344
0, 2, 51, 285.1885681152344
0, 2, 52, 270.818115234375
0, 2, 53, 286.8193664550781
0, 2, 54, 278.9533996582031
0, 2, 55, 275.1982421875
0, 2, 56, 302.3846435546875
0, 2, 57, 291.9571228027344
0, 2, 58, 301.0735473632812
0, 2, 59, 290.4891967773438
0, 2, 60, 321.3134460449219
0, 2, 61, 301.8568115234375
0, 2, 62, 312.7738647460938
0, 2, 63, 303.1830444335938
0, 2, 64, 297.40478515625
0, 2, 65, 314.7680053710938
0, 2, 66, 281.7132568359375
0, 2, 67, 289.6034545898438
0, 2, 68, 295.8722839355469
0, 2, 69, 310.0778198242188
0, 2, 70, 335.7089538574219
0, 2, 71, 283.2472229003906
0, 2, 72, 301.4007568359375
0, 2, 73, 310.1593627929688
0, 2, 74, 285.4119262695312
0, 2, 75, 304.7101745605469
0, 2, 76, 285.9406127929688
0, 2, 77, 300.3620300292969
0, 2, 78, 316.7904052734375
0, 2, 79, 309.39306640625
0, 2, 80, 298.4606323242188
0, 2, 81, 282.3607788085938
0, 2, 82, 317.7383117675781
0, 2, 83, 314.2352905273438
0, 2, 84, 288.1173706054688
0, 2, 85, 281.1820373535156
0, 2, 86, 323.2130432128906
0, 2, 87, 286.06005859375
0, 2, 88, 280.5674438476562
0, 2, 89, 296.8866882324219
0, 2, 90, 296.1461791992188
0, 2, 91, 276.5880737304688
0, 2, 92, 304.1410217285156
0, 2, 93, 317.8336486816406
0, 2, 94, 291.8460083007812
0, 2, 95, 316.2236328125
0, 2, 96, 314.3118896484375
0, 2, 97, 292.8799133300781
0, 2, 98, 293.3272094726562
0, 2, 99, 275.751953125
0, 2, 100, 305.0447082519531
0, 2, 101, 302.2443542480469
0, 2, 102, 295.7269592285156
0, 2, 103, 291.6380920410156
0, 2, 104, 294.0317687988281
0, 2, 105, 273.7635498046875
0, 2, 106, 297.5183410644531
0, 2, 107, 271.0040283203125
0, 2, 108, 117.4585494995117
0, 2, 109, 31.16231155395508
0, 2, 110, 9.627010345458984
0, 2, 111, 11.19714260101318
0, 2, 112, 9.038188934326172
0, 2, 113, 11.6117696762085
0, 2, 114, 9.567990303039551
0, 2, 115, 12.12745571136475
0, 2, 116, 10.27757263183594
0, 2, 117, 8.751481056213379
0, 2, 118, 4.725294589996338
0, 2, 119, 4.019531726837158
0, 2, 120, 5.497657775878906
0, 2, 121, 4.640692234039307
0, 2, 122, 3.738879442214966
0, 2, 123, 4.65953540802002
0, 2, 124, 5.256572246551514
0, 2, 125, 4.800761699676514
0, 2, 126, 3.767978668212891
0, 2, 127, 4.841129302978516
0, 3, 0, 2.657712936401367
0, 3, 1, 2.835738182067871
0, 3, 2, 2.737336158752441
0, 3, 3, 2.533452272415161
0, 3, 4, 4.288127899169922
0, 3, 5, 8.274070739746094
0, 3, 6, 6.332451820373535
0, 3, 7, 6.900368213653564
0, 3, 8, 5.627437591552734
0, 3, 9, 4.007003307342529
0, 3, 10, 6.790779113769531
0, 3, 11, 4.455680370330811
0, 3, 12, 5.974250316619873
0, 3, 13, 15.26836204528809
0, 3, 14, 9.403785705566406
0, 3, 15, 14.43191051483154
0, 3, 16, 10.82052326202393
0, 3, 17, 18.94870185852051
0, 3, 18, 52.28387832641602
0, 3, 19, 177.9099731445312
0, 3, 20, 269.8939819335938
0, 3, 21, 270.446044921875
0, 3, 22, 280.4290771484375
0, 3, 23, 286.0495300292969
0, 3, 24, 284.6996765136719
0, 3, 25, 270.9515991210938
0, 3, 26, 305.6198120117188
0, 3, 27, 293.184326171875
0, 3, 28, 282.1039733886719
0, 3, 29, 339.0023498535156
0, 3, 30, 317.6643981933594
0, 3, 31, 286.851318359375
0, 3, 32, 307.1995849609375
0, 3, 33, 314.55419921875
0, 3, 34, 320.5054626464844
0, 3, 35, 308.3469848632812
0, 3, 36, 269.2470397949219
0, 3, 37, 314.1827392578125
0, 3, 38, 305.8338317871094
0, 3, 39, 291.5036010742188
0, 3, 40, 267.2036743164062
0, 3, 41, 304.4300537109375
0, 3, 42, 288.8177795410156
0, 3, 43, 305.1466064453125
0, 3, 44, 309.96142578125
0, 3, 45, 291.0111389160156
0, 3, 46, 328.9872741699219
0, 3, 47, 300.6485290527344
0, 3, 48, 301.8523559570312
0, 3, 49, 275.8548889160156
0, 3, 50, 289.5897521972656
0, 3, 51, 275.4627685546875
0, 3, 52, 316.9978332519531
0, 3, 53, 291.4913635253906
0, 3, 54, 284.7319030761719
0, 3, 55, 284.5381774902344
0, 3, 56, 297.6935729980469
0, 3, 57, 286.8740234375
0, 3, 58, 306.8736877441406
0, 3, 59, 298.3966674804688
0, 3, 60, 299.2571716308594
0, 3, 61, 265.9880065917969
0, 3, 62, 283.8019104003906
0, 3, 63, 307.5950317382812
0, 3, 64, 316.6469421386719
0, 3, 65, 307.4256896972656
0, 3, 66, 314.047119140625
0, 3, 67, 318.7998046875
0, 3, 68, 281.4730529785156
0, 3, 69, 284.4636840820312
0, 3, 70, 288.0989074707031
0, 3, 71, 300.8312683105469
0, 3, 72, 268.4170837402344
0, 3, 73, 309.3606262207031
0, 3, 74, 293.7387390136719
0, 3, 75, 288.4954223632812
0, 3, 76, 304.6940612792969
0, 3, 77, 312.0651550292969
0, 3, 78, 304.64306640625
0, 3, 79, 281.5709838867188
0, 3, 80, 290.9972229003906
0, 3, 81, 311.1568908691406
0, 3, 82, 314.6507263183594
0, 3, 83, 301.6362915039062
0, 3, 84, 312.1328430175781
0, 3, 85, 292.9280395507812
0, 3, 86, 304.5298767089844
0, 3, 87, 297.34130859375
0, 3, 88, 299.6112976074219
0, 3, 89, 299.3517761230469
0, 3, 90, 275.2658386230469
0, 3, 91, 284.4305725097656
0, 3, 92, 304.7402648925781
0, 3, 93, 313.5703735351562
0, 3, 94, 298.3948669433594
0, 3, 95, 333.3314514160156
0, 3, 96, 293.4953918457031
0, 3, 97, 285.9167785644531
0, 3, 98, 279.8600463867188
0, 3, 99, 261.8952331542969
0, 3, 100, 288.155517578125
0, 3, 101, 296.3902282714844
0, 3, 102, 278.2608337402344
0, 3, 103, 321.2245788574219
0, 3, 104, 308.3251037597656
0, 3, 105, 289.9394836425781
0, 3, 106, 301.8471984863281
0, 3, 107, 281.5308532714844
0, 3, 108, 167.8667449951172
0, 3, 109, 57.86916732788086
0, 3, 110, 17.79639434814453
0, 3, 111, 12.90603923797607
0, 3, 112, 12.54429626464844
0, 3, 113, 6.88343334197998
0, 3, 114, 9.587906837463379
0, 3, 115, 7.53339958190918
0, 3, 116, 7.65662956237793
0, 3, 117, 7.23777961730957
0, 3, 118, 4.827827453613281
0, 3, 119, 4.926986694335938
0, 3, 120, 7.031142234802246
0, 3, 121, 2.789921998977661
0, 3, 122, 5.460265159606934
0, 3, 123, 6.498149871826172
0, 3, 124, 3.116224050521851
0, 3, 125, 7.851279258728027
0, 3, 126, 4.297587394714355
0, 3, 127, 3.082929611206055
0, 4, 0, 5.371357917785645
0, 4, 1, 5.760805130004883
0, 4, 2, 2.698693513870239
0, 4, 3, 2.182823657989502
0, 4, 4, 5.706413745880127
0, 4, 5, 9.335793495178223
0, 4, 6, 6.23445987701416
0, 4, 7, 7.205528259277344
0, 4, 8, 2.846324682235718
0, 4, 9, 5.602273464202881
0, 4, 10, 5.315366744995117
0, 4, 11, 6.327739715576172
0, 4, 12, 7.4610276222229
0, 4, 13, 7.497294902801514
0, 4, 14, 10.5091609954834
0, 4, 15, 9.076661109924316
0, 4, 16, 16.05798149108887
0, 4, 17, 18.05429458618164
0, 4, 18, 92.07545471191406
0, 4, 19, 221.3609008789062
0, 4, 20, 285.4547424316406
0, 4, 21, 273.0393981933594
0, 4, 22, 305.913330078125
0, 4, 23, 265.9968872070312
0, 4, 24, 288.4254150390625
0, 4, 25, 271.9314575195312
0, 4, 26, 296.7171020507812
0, 4, 27, 283.4630737304688
0, 4, 28, 307.6862487792969
0, 4, 29, 320.4181823730469
0, 4, 30, 308.9216918945312
0, 4, 31, 302.9737548828125
0, 4, 32, 281.0567932128906
0, 4, 33, 295.2840270996094
0, 4, 34, 295.7293090820312
0, 4, 35, 313.8172607421875
0, 4, 36, 292.9847717285156
0, 4, 37, 286.9994201660156
0, 4, 38, 297.6740417480469
0, 4, 39, 295.7579956054688
0, 4, 40, 303.8086242675781
0, 4, 41, 311.2998657226562
0, 4, 42, 330.8187255859375
0, 4, 43, 295.2701721191406
0, 4, 44, 323.2394409179688
0, 4, 45, 324.8974609375
0, 4, 46, 307.7754211425781
0, 4, 47, 292.6981506347656
0, 4, 48, 294.9467468261719
0, 4, 49, 277.7885131835938
0, 4, 50, 297.8589782714844
0, 4, 51, 316.4779968261719
0, 4, 52, 328.8416442871094
0, 4, 53, 304.3753051757812
0, 4, 54, 286.2416687011719
0, 4, 55, 314.9045104980469
0, 4, 56, 285.5865478515625
0, 4, 57, 310.0137329101562
0, 4, 58, 297.5719604492188
0, 4, 59, 308.5927734375
0, 4, 60, 303.6262512207031
0, 4, 61, 315.8194274902344
0, 4, 62, 307.2867126464844
0, 4, 63, 301.7305603027344
0, 4, 64, 330.3617553710938
0, 4, 65, 317.174072265625
0, 4, 66, 293.2623596191406
0, 4, 67, 286.0233459472656
0, 4, 68, 310.7691955566406
0, 4, 69, 275.8588562011719
0, 4, 70, 301.186279296875
0, 4, 71, 321.3931274414062
0, 4, 72, 334.6585693359375
0, 4, 73, 299.6767272949219
0, 4, 74, 293.9057006835938
0, 4, 75, 291.0767822265625
0, 4, 76, 273.7638244628906
0, 4, 77, 278.7163696289062
0, 4, 78, 308.8032531738281
0, 4, 79, 319.0801086425781
0, 4, 80, 314.7439575195312
0, 4, 81, 312.339599609375
0, 4, 82, 299.6181335449219
0, 4, 83, 301.0136108398438
0, 4, 84, 295.8334045410156
0, 4, 85, 295.0104675292969
0, 4, 86, 296.8029479980469
0, 4, 87, 285.2179565429688
0, 4, 88, 308.6117248535156
0, 4, 89, 295.5157470703125
0, 4, 90, 331.6780090332031
0, 4, 91, 301.7192993164062
0, 4, 92, 289.0625305175781
0, 4, 93, 296.5409545898438
0, 4, 94, 292.848388671875
0, 4, 95, 288.9359741210938
0, 4, 96, 322.9244689941406
0, 4, 97, 275.6105651855469
0, 4, 98, 325.6958618164062
0, 4, 99, 313.0614624023438
0, 4, 100, 300.9845275878906
0, 4, 101, 258.1688232421875
0, 4, 102, 295.5343322753906
0, 4, 103, 317.7884521484375
0, 4, 104, 284.5811157226562
0, 4, 105, 311.8383483886719
0, 4, 106, 285.9384460449219
0, 4, 107, 296.1894836425781
0, 4, 108, 226.3813018798828
0, 4, 109, 81.29208374023438
0, 4, 110, 17.27934074401855
0, 4, 111, 12.84483337402344
0, 4, 112, 8.655991554260254
0, 4, 113, 9.05389404296875
0, 4, 114, 8.945492744445801
0, 4, 115, 9.109026908874512
0, 4, 116, 8.493283271789551
0, 4, 117, 4.682655334472656
0, 4, 118, 9.280817985534668
0, 4, 119, 9.920651435852051
0, 4, 120, 6.557384490966797
0, 4, 121, 4.095229625701904
0, 4, 122, 6.265127182006836
0, 4, 123, 5.568190574645996
0, 4, 124, 5.323444366455078
0, 4, 125, 9.610583305358887
0, 4, 126, 4.290370464324951
0, 4, 127, 3.385415077209473
0, 5, 0, 3.709201574325562
0, 5, 1, 2.580446004867554
0, 5, 2, 3.493406772613525
0, 5, 3, 6.140089988708496
0, 5, 4, 4.597836017608643
0, 5, 5, 4.767618179321289
0, 5, 6, 9.232991218566895
0, 5, 7, 5.816940307617188
0, 5, 8, 5.353631496429443
0, 5, 9, 5.771341323852539
0, 5, 10, 7.522601127624512
0, 5, 11, 7.637769222259521
0, 5, 12, 7.641259670257568
0, 5, 13, 8.204846382141113
0, 5, 14, 13.67158889770508
0, 5, 15, 16.31097030639648
0, 5, 16, 14.73204040527344
0, 5, 17, 28.14032745361328
0, 5, 18, 137.6125183105469
0, 5, 19, 288.7327270507812
0, 5, 20, 306.8083801269531
0, 5, 21, 316.3138732910156
0, 5, 22, 273.7355346679688
0, 5, 23, 309.8305969238281
0, 5, 24, 301.1741027832031
0, 5, 25, 287.5840148925781
0, 5, 26, 295.371826171875
0, 5, 27, 322.2231140136719
0, 5, 28, 303.20849609375
0, 5, 29, 299.0698852539062
0, 5, 30, 326.8345031738281
0, 5, 31, 286.1080932617188
0, 5, 32, 303.4839172363281
0, 5, 33, 304.6009216308594
0, 5, 34, 296.7793884277344
0, 5, 35, 309.3884887695312
0, 5, 36, 268.15478515625
0, 5, 37, 283.1897583007812
0, 5, 38, 293.2326965332031
0, 5, 39, 312.9623107910156
0, 5, 40, 308.2438049316406
0, 5, 41, 275.5261840820312
0, 5, 42, 304.1065368652344
0, 5, 43, 315.3160705566406
0, 5, 44, 293.6249084472656
0, 5, 45, 303.9003601074219
0, 5, 46, 264.7547302246094
0, 5, 47, 279.7746276855469
0, 5, 48, 293.4075012207031
0, 5, 49, 285.4247741699219
0, 5, 50, 295.8499145507812
0, 5, 51, 280.3959655761719
0, 5, 52, 271.8309936523438
0, 5, 53, 283.2855224609375
0, 5, 54, 292.4469299316406
0, 5, 55, 345.482421875
0, 5, 56, 306.091796875
0, 5, 57, 307.3384704589844
0, 5, 58, 310.9373474121094
0, 5, 59, 302.0226440429688
0, 5, 60, 307.8168334960938
0, 5, 61, 284.0977172851562
0, 5, 62, 324.9531860351562
0, 5, 63, 290.2428588867188
0, 5, 64, 322.8819885253906
0, 5, 65, 306.9065551757812
0, 5, 66, 327.0657958984375
0, 5, 67, 311.5458374023438
0, 5, 68, 308.8587036132812
0, 5, 69, 310.8709716796875
0, 5, 70, 301.1347351074219
0, 5, 71, 272.7389221191406
0, 5, 72, 310.0408935546875
0, 5, 73, 302.8627014160156
0, 5, 74, 294.9878234863281
0, 5, 75, 293.5278625488281
0, 5, 76, 287.2364196777344
0, 5, 77, 297.5063171386719
0, 5, 78, 316.0735473632812
0, 5, 79, 306.6628723144531
0, 5, 80, 294.6542663574219
0, 5, 81, 327.0396728515625
0, 5, 82, 324.6220092773438
0, 5, 83, 282.8184814453125
0, 5, 84, 302.9949035644531
0, 5, 85, 269.8553771972656
0, 5, 86, 323.911376953125
0, 5, 87, 284.7346801757812
0, 5, 88, 312.9372863769531
0, 5, 89, 305.5651245117188
0, 5, 90, 314.9015808105469
0, 5, 91, 313.2955932617188
0, 5, 92, 295.9336853027344
0, 5, 93, 324.2399597167969
0, 5, 94, 308.2576293945312
0, 5, 95, 296.2441711425781
0, 5, 96, 295.4799194335938
0, 5, 97, 294.8782958984375
0, 5, 98, 318.8374938964844
0, 5, 99, 301.9522399902344
0, 5, 100, 289.7499084472656
0, 5, 101, 304.9534301757812
0, 5, 102, 292.7069396972656
0, 5, 103, 313.210205078125
0, 5, 104, 300.8148498535156
0, 5, 105, 294.7265014648438
0, 5, 106, 280.7206726074219
0, 5, 107, 293.5584411621094
0, 5, 108, 265.0381469726562
0, 5, 109, 156.1431732177734
0, 5, 110, 40.35449981689453
0, 5, 111, 18.60450172424316
0, 5, 112, 16.34856224060059
0, 5, 113, 12.27765083312988
0, 5, 114, 12.16458511352539
0, 5, 115, 6.905681133270264
0, 5, 116, 7.472225189208984
0, 5, 117, 7.653261661529541
0, 5, 118, 13.81959247589111
0, 5, 119, 4.571973323822021
0, 5, 120, 6.746931552886963
0, 5, 121, 5.192859172821045
0, 5, 122, 5.023917198181152
0, 5, 123, 4.673892974853516
0, 5, 124, 5.77647066116333
0, 5, 125, 4.461531162261963
0, 5, 126, 6.869555473327637
0, 5, 127, 2.698856115341187
0, 6, 0, 4.306291103363037
0, 6, 1, 5.239014625549316
0, 6, 2, 5.101791381835938
0, 6, 3, 7.240909576416016
0, 6, 4, 2.769943714141846
0, 6, 5, 6.681657314300537
0, 6, 6, 8.887955665588379
0, 6, 7, 5.623334884643555
0, 6, 8, 9.122311592102051
0, 6, 9, 6.238118648529053
0, 6, 10, 6.99082088470459
0, 6, 11, 7.93520450592041
0, 6, 12, 8.573548316955566
0, 6, 13, 14.59365177154541
0, 6, 14, 9.136263847351074
0, 6, 15, 16.22442817687988
0, 6, 16, 28.62400245666504
0, 6, 17, 55.23905563354492
0, 6, 18, 176.2984619140625
0, 6, 19, 277.4099731445312
0, 6, 20, 290.8376159667969
0, 6, 21, 312.9637451171875
0, 6, 22, 319.7546081542969
0, 6, 23, 304.1410217285156
0, 6, 24, 316.3390197753906
0, 6, 25, 315.8169860839844
0, 6, 26, 322.0655517578125
0, 6, 27, 330.4623718261719
0, 6, 28, 295.9373474121094
0, 6, 29, 331.8965148925781
0, 6, 30, 283.7510070800781
0, 6, 31, 285.5874328613281
0, 6, 32, 340.7695922851562
0, 6, 33, 300.2568054199219
0, 6, 34, 340.1698303222656
0, 6, 35, 321.6411437988281
0, 6, 36, 274.491943359375
0, 6, 37, 288.7850341796875
0, 6, 38, 314.632568359375
0, 6, 39, 297.9000244140625
0, 6, 40, 285.5803527832031
0, 6, 41, 292.693603515625
0, 6, 42, 304.4645385742188
0, 6, 43, 289.0932006835938
0, 6, 44, 282.1102905273438
0, 6, 45, 319.9686279296875
0, 6, 46, 303.34033203125
0, 6, 47, 335.0350341796875
0, 6, 48, 292.330810546875
0, 6, 49, 312.7483215332031
0, 6, 50, 327.9599609375
0, 6, 51, 310.7043151855469
0, 6, 52, 320.3773193359375
0, 6, 53, 327.9878234863281
0, 6, 54, 303.8529663085938
0, 6, 55, 305.4561157226562
0, 6, 56, 292.9108581542969
0, 6, 57, 315.5451354980469
0, 6, 58, 260.7241821289062
0, 6, 59, 302.616455078125
0, 6, 60, 312.3080749511719
0, 6, 61, 274.6950988769531
0, 6, 62, 337.1248779296875
0, 6, 63, 322.8383178710938
0, 6, 64, 290.1495361328125
0, 6, 65, 283.5526428222656
0, 6, 66, 302.5592041015625
0, 6, 67, 309.8335266113281
0, 6, 68, 294.2588806152344
0, 6, 69, 279.18994140625
0, 6, 70, 274.1241760253906
0, 6, 71, 288.557861328125
0, 6, 72, 315.0865173339844
0, 6, 73, 293.6148071289062
0, 6, 74, 329.6669006347656
0, 6, 75, 343.5425109863281
0, 6, 76, 297.6901550292969
0, 6, 77, 288.5101013183594
0, 6, 78, 277.1441040039062
0, 6, 79, 293.1819763183594
0, 6, 80, 301.9231872558594
0, 6, 81, 316.3521118164062
0, 6, 82, 320.9128112792969
0, 6, 83, 318.4721374511719
0, 6, 84, 295.9556579589844
0, 6, 85, 300.6930541992188
0, 6, 86, 329.2144775390625
0, 6, 87, 292.0303344726562
0, 6, 88, 305.8180847167969
0, 6, 89, 304.19140625
0, 6, 90, 299.3208923339844
0, 6, 91, 312.5955810546875
0, 6, 92, 285.0000915527344
0, 6, 93, 297.3951416015625
0, 6, 94, 273.3710021972656
0, 6, 95, 299.577392578125
0, 6, 96, 351.2984924316406
0, 6, 97, 309.4977722167969
0, 6, 98, 302.0409240722656
0, 6, 99, 272.439208984375
0, 6, 100, 308.2726745605469
0, 6, 101, 292.5995483398438
0, 6, 102, 307.324462890625
0, 6, 103, 308.0166015625
0, 6, 104, 289.7352294921875
0, 6, 105, 303.5445861816406
0, 6, 106, 308.4329833984375
0, 6, 107, 307.0025329589844
0, 6, 108, 264.9390258789062
0, 6, 109, 185.2865600585938
0, 6, 110, 57.67802429199219
0, 6, 111, 25.25416374206543
0, 6, 112, 12.27262401580811
0, 6, 113, 10.70454597473145
0, 6, 114, 13.1676139831543
0, 6, 115, 13.02557849884033
0, 6, 116, 9.738304138183594
0, 6, 117, 7.506984710693359
0, 6, 118, 9.960409164428711
0, 6, 119, 8.963838577270508
0, 6, 120, 5.199337959289551
0, 6, 121, 8.025944709777832
0, 6, 122, 5.83334493637085
0, 6, 123, 5.873086929321289
0, 6, 124, 10.13782119750977
0, 6, 125, 6.715783596038818
0, 6, 126, 3.559841871261597
0, 6, 127, 8.882938385009766
0, 7, 0, 7.588909149169922
0, 7, 1, 4.973580360412598
0, 7, 2, 6.869873523712158
0, 7, 3, 4.379056453704834
0, 7, 4, 3.293108224868774
0, 7, 5, 5.706560134887695
0, 7, 6, 8.537562370300293
0, 7, 7, 5.945591926574707
0, 7, 8, 5.746129512786865
0, 7, 9, 4.890257358551025
0, 7, 10, 14.04404449462891
0, 7, 11, 9.98793888092041
0, 7, 12, 10.14522361755371
0, 7, 13, 13.77907466888428
0, 7, 14, 12.22170543670654
0, 7, 15, 16.5539379119873
0, 7, 16, 25.71950721740723
0, 7, 17, 97.64711761474609
0, 7, 18, 217.1730651855469
0, 7, 19, 288.4648132324219
0, 7, 20, 295.2388610839844
0, 7, 21, 275.7901611328125
0, 7, 22, 300.820068359375
0, 7, 23, 292.1378784179688
0, 7, 24, 312.9547729492188
0, 7, 25, 324.14892578125
0, 7, 26, 277.0776062011719
0, 7, 27, 297.4088745117188
0, 7, 28, 325.7992553710938
0, 7, 29, 318.2718811035156
0, 7, 30, 299.8403015136719
0, 7, 31, 278.6654663085938
0, 7, 32, 307.98388671875
0, 7, 33, 265.4638366699219
0, 7, 34, 299.6842041015625
0, 7, 35, 323.7792663574219
0, 7, 36, 330.3474731445312
0, 7, 37, 323.3621520996094
0, 7, 38, 295.3704833984375
0, 7, 39, 306.7467956542969
0, 7, 40, 287.9625854492188
0, 7, 41, 272.2931213378906
0, 7, 42, 302.6531372070312
0, 7, 43, 275.1500549316406
0, 7, 44, 303.8598022460938
0, 7, 45, 293.636962890625
0, 7, 46, 282.7299499511719
0, 7, 47, 329.2061767578125
0, 7, 48, 287.9503479003906
0, 7, 49, 302.0955200195312
0, 7, 50, 321.5238037109375
0, 7, 51, 298.7827453613281
0, 7, 52, 326.7607421875
0, 7, 53, 307.4015197753906
0, 7, 54, 322.7397766113281
0, 7, 55, 309.2492980957031
0, 7, 56, 278.5151672363281
0, 7, 57, 285.1597900390625
0, 7, 58, 295.0386047363281
0, 7, 59, 293.3629760742188
0, 7, 60, 323.9401550292969
0, 7, 61, 279.3771362304688
0, 7, 62, 297.7409057617188
0, 7, 63, 292.8618469238281
0, 7, 64, 306.6475524902344
0, 7, 65, 331.1957397460938
0, 7, 66, 319.0555114746094
0, 7, 67, 303.5526123046875
0, 7, 68, 280.5546875
0, 7, 69, 292.8035583496094
0, 7, 70, 300.4373168945312
0, 7, 71, 309.22705078125
0, 7, 72, 284.019775390625
0, 7, 73, 297.005615234375
0, 7, 74, 344.3062744140625
0, 7, 75, 318.930908203125
0, 7, 76, 323.4416198730469
0, 7, 77, 280.9929504394531
0, 7, 78, 298.4212951660156
0, 7, 79, 297.2075805664062
0, 7, 80, 313.80810546875
0, 7, 81, 318.6759643554688
0, 7, 82, 329.27880859375
0, 7, 83, 316.8390502929688
0, 7, 84, 309.8683776855469
0, 7, 85, 272.2791137695312
0, 7, 86, 312.4735717773438
0, 7, 87, 308.9324340820312
0, 7, 88, 307.2488708496094
0, 7, 89, 292.4928283691406
0, 7, 90, 306.7635192871094
0, 7, 91, 318.6611938476562
0, 7, 92, 285.6836242675781
0, 7, 93, 309.1053771972656
0, 7, 94, 275.8270263671875
0, 7, 95, 297.4420166015625
0, 7, 96, 332.2631225585938
0, 7, 97, 294.7639465332031
0, 7, 98, 290.8640441894531
0, 7, 99, 310.8130187988281
0, 7, 100, 284.17822265625
0, 7, 101, 275.0679931640625
0, 7, 102, 291.5283203125
0, 7, 103, 292.3064575195312
0, 7, 104, 274.3082580566406
0, 7, 105, 307.2832336425781
0, 7, 106, 317.1398315429688
0, 7, 107, 296.0946655273438
0, 7, 108, 272.2688293457031
0, 7, 109, 236.2975311279297
0, 7, 110, 96.25422668457031
0, 7, 111, 26.66485977172852
0, 7, 112, 14.43894290924072
0, 7, 113, 15.06188201904297
0, 7, 114, 12.272536277771
0, 7, 115, 11.13998985290527
0, 7, 116, 9.04271411895752
0, 7, 117, 4.906622409820557
0, 7, 118, 7.834260940551758
0, 7, 119, 5.161979675292969
0, 7, 120, 5.307168483734131
0, 7, 121, 8.101985931396484
0, 7, 122, 7.188071250915527
0, 7, 123, 4.74984884262085
0, 7, 124, 3.873092889785767
0, 7, 125, 8.354188919067383
0, 7, 126, 8.772777557373047
0, 7, 127, 2.604646682739258
0, 8, 0, 3.091659545898438
0, 8, 1, 4.14598560333252
0, 8, 2, 6.001011848449707
0, 8, 3, 3.862573385238647
0, 8, 4, 3.852838754653931
0, 8, 5, 6.899827480316162
0, 8, 6, 7.250312805175781
0, 8, 7, 5.224418640136719
0, 8, 8, 9.461756706237793
0, 8, 9, 5.225991249084473
0, 8, 10, 9.97060489654541
0, 8, 11, 13.62881565093994
0, 8, 12, 15.47187232971191
0, 8, 13, 14.29310703277588
0, 8, 14, 12.44894886016846
0, 8, 15, 20.81804084777832
0, 8, 16, 31.87137222290039
0, 8, 17, 130.5106964111328
0, 8, 18, 242.8405151367188
0, 8, 19, 296.1361694335938
0, 8, 20, 285.492919921875
0, 8, 21, 307.2735290527344
0, 8, 22, 294.5901184082031
0, 8, 23, 273.2312622070312
0, 8, 24, 267.1260986328125
0, 8, 25, 275.3171691894531
0, 8, 26, 306.2231140136719
0, 8, 27, 307.9161682128906
0, 8, 28, 304.2732238769531
0, 8, 29, 321.2141723632812
0, 8, 30, 316.1400756835938
0, 8, 31, 305.8052673339844
0, 8, 32, 282.2113037109375
0, 8, 33, 294.1998291015625
0, 8, 34, 291.9001159667969
0, 8, 35, 280.1867370605469
0, 8, 36, 314.4095764160156
0, 8, 37, 337.874267578125
0, 8, 38, 333.8967590332031
0, 8, 39, 280.1464233398438
