# TOPAS Version: 3.1.p3
# Parameter File: batch_inserts_280.txt
# Results for scorer Readout_Adipose
# Scored in component: MyBox
# X in 1 bin  of 0.75 cm
# Y in 512 bins of 0.0783984 cm
# Z in 128 bins of 0.078125 cm
# EnergyDeposit ( MeV ) : Sum   
0, 0, 0, 3.963152885437012
0, 0, 1, 2.311117172241211
0, 0, 2, 3.064179182052612
0, 0, 3, 1.728302836418152
0, 0, 4, 3.890009641647339
0, 0, 5, 1.902897715568542
0, 0, 6, 5.217648983001709
0, 0, 7, 9.346743583679199
0, 0, 8, 1.982029676437378
0, 0, 9, 4.887246608734131
0, 0, 10, 7.290040493011475
0, 0, 11, 4.301738739013672
0, 0, 12, 3.847452163696289
0, 0, 13, 7.915412425994873
0, 0, 14, 7.395296573638916
0, 0, 15, 8.53984546661377
0, 0, 16, 12.33569812774658
0, 0, 17, 10.46600723266602
0, 0, 18, 12.9631986618042
0, 0, 19, 44.19062805175781
0, 0, 20, 142.1867370605469
0, 0, 21, 223.6895751953125
0, 0, 22, 249.3893127441406
0, 0, 23, 256.3893737792969
0, 0, 24, 252.3559875488281
0, 0, 25, 258.0773315429688
0, 0, 26, 234.2596893310547
0, 0, 27, 236.9385681152344
0, 0, 28, 274.4600219726562
0, 0, 29, 253.0131378173828
0, 0, 30, 229.8693389892578
0, 0, 31, 243.9298400878906
0, 0, 32, 263.6921081542969
0, 0, 33, 260.5089721679688
0, 0, 34, 287.5668029785156
0, 0, 35, 266.1719665527344
0, 0, 36, 246.1190490722656
0, 0, 37, 253.7309722900391
0, 0, 38, 269.2017822265625
0, 0, 39, 229.2510070800781
0, 0, 40, 241.2030029296875
0, 0, 41, 266.8631896972656
0, 0, 42, 228.929443359375
0, 0, 43, 258.699951171875
0, 0, 44, 251.3240356445312
0, 0, 45, 253.5526428222656
0, 0, 46, 244.1706390380859
0, 0, 47, 255.16064453125
0, 0, 48, 268.8106384277344
0, 0, 49, 274.9739074707031
0, 0, 50, 250.4327850341797
0, 0, 51, 253.2670745849609
0, 0, 52, 272.2779846191406
0, 0, 53, 291.02734375
0, 0, 54, 243.6733093261719
0, 0, 55, 239.3138427734375
0, 0, 56, 277.4852905273438
0, 0, 57, 264.2535705566406
0, 0, 58, 247.933349609375
0, 0, 59, 272.6316223144531
0, 0, 60, 236.1732635498047
0, 0, 61, 247.009765625
0, 0, 62, 259.1719055175781
0, 0, 63, 265.3565368652344
0, 0, 64, 255.9730987548828
0, 0, 65, 261.9794311523438
0, 0, 66, 275.9732055664062
0, 0, 67, 246.3916320800781
0, 0, 68, 258.7279052734375
0, 0, 69, 261.9405517578125
0, 0, 70, 273.4997863769531
0, 0, 71, 238.3648529052734
0, 0, 72, 251.8327789306641
0, 0, 73, 259.6188354492188
0, 0, 74, 251.9797973632812
0, 0, 75, 239.5978240966797
0, 0, 76, 228.4608001708984
0, 0, 77, 259.7172241210938
0, 0, 78, 255.466064453125
0, 0, 79, 278.6124267578125
0, 0, 80, 215.0128021240234
0, 0, 81, 267.3904418945312
0, 0, 82, 256.1597900390625
0, 0, 83, 246.1130828857422
0, 0, 84, 271.3286437988281
0, 0, 85, 231.5903625488281
0, 0, 86, 252.9948272705078
0, 0, 87, 251.4787139892578
0, 0, 88, 260.0329895019531
0, 0, 89, 281.7431030273438
0, 0, 90, 246.4827880859375
0, 0, 91, 281.9737243652344
0, 0, 92, 253.5923919677734
0, 0, 93, 249.4529571533203
0, 0, 94, 246.3247222900391
0, 0, 95, 246.8900756835938
0, 0, 96, 275.7517395019531
0, 0, 97, 272.1685180664062
0, 0, 98, 271.8619079589844
0, 0, 99, 257.8517761230469
0, 0, 100, 259.2247619628906
0, 0, 101, 226.2160949707031
0, 0, 102, 231.5877838134766
0, 0, 103, 269.0713500976562
0, 0, 104, 253.9644012451172
0, 0, 105, 251.092041015625
0, 0, 106, 245.0883483886719
0, 0, 107, 151.9177551269531
0, 0, 108, 38.75942993164062
0, 0, 109, 12.55223369598389
0, 0, 110, 12.07587814331055
0, 0, 111, 10.88297271728516
0, 0, 112, 8.150032997131348
0, 0, 113, 6.027252674102783
0, 0, 114, 6.333842754364014
0, 0, 115, 4.185281753540039
0, 0, 116, 5.553150177001953
0, 0, 117, 7.244325637817383
0, 0, 118, 6.130630970001221
0, 0, 119, 5.586134910583496
0, 0, 120, 2.632747411727905
0, 0, 121, 3.856963872909546
0, 0, 122, 4.178869247436523
0, 0, 123, 2.509084463119507
0, 0, 124, 4.126188278198242
0, 0, 125, 3.74453067779541
0, 0, 126, 4.27246618270874
0, 0, 127, 3.428064107894897
0, 1, 0, 6.837575912475586
0, 1, 1, 2.685440063476562
0, 1, 2, 4.613921642303467
0, 1, 3, 1.671949625015259
0, 1, 4, 4.258790493011475
0, 1, 5, 4.591293811798096
0, 1, 6, 5.417439460754395
0, 1, 7, 3.067446947097778
0, 1, 8, 8.022228240966797
0, 1, 9, 4.246586322784424
0, 1, 10, 7.255958080291748
0, 1, 11, 11.22957038879395
0, 1, 12, 8.901780128479004
0, 1, 13, 12.61167621612549
0, 1, 14, 7.113790035247803
0, 1, 15, 6.711297035217285
0, 1, 16, 12.46256923675537
0, 1, 17, 11.12928485870361
0, 1, 18, 19.66534042358398
0, 1, 19, 65.48178863525391
0, 1, 20, 198.4712829589844
0, 1, 21, 253.9763946533203
0, 1, 22, 294.9775390625
0, 1, 23, 284.7283325195312
0, 1, 24, 277.7286376953125
0, 1, 25, 289.6153869628906
0, 1, 26, 270.634765625
0, 1, 27, 306.130615234375
0, 1, 28, 298.4390869140625
0, 1, 29, 296.015625
0, 1, 30, 280.691650390625
0, 1, 31, 293.2635192871094
0, 1, 32, 289.5294494628906
0, 1, 33, 296.0069885253906
0, 1, 34, 293.104736328125
0, 1, 35, 279.1279602050781
0, 1, 36, 308.1005859375
0, 1, 37, 295.5629272460938
0, 1, 38, 277.7299499511719
0, 1, 39, 294.8177185058594
0, 1, 40, 266.0321960449219
0, 1, 41, 286.7847290039062
0, 1, 42, 288.7862243652344
0, 1, 43, 332.2796936035156
0, 1, 44, 279.5628662109375
0, 1, 45, 291.8917541503906
0, 1, 46, 258.8791809082031
0, 1, 47, 310.5547180175781
0, 1, 48, 283.0809326171875
0, 1, 49, 303.1450805664062
0, 1, 50, 262.6490478515625
0, 1, 51, 272.7568054199219
0, 1, 52, 296.8955078125
0, 1, 53, 305.8021850585938
0, 1, 54, 275.0856018066406
0, 1, 55, 293.2983703613281
0, 1, 56, 280.02880859375
0, 1, 57, 298.5227661132812
0, 1, 58, 309.2522583007812
0, 1, 59, 293.3504638671875
0, 1, 60, 297.2833251953125
0, 1, 61, 274.795166015625
0, 1, 62, 308.1512145996094
0, 1, 63, 289.0257263183594
0, 1, 64, 290.4448547363281
0, 1, 65, 297.2187194824219
0, 1, 66, 292.5864562988281
0, 1, 67, 291.8682861328125
0, 1, 68, 279.798583984375
0, 1, 69, 284.6144409179688
0, 1, 70, 271.5685119628906
0, 1, 71, 272.98291015625
0, 1, 72, 286.8282470703125
0, 1, 73, 303.0147399902344
0, 1, 74, 303.1302490234375
0, 1, 75, 290.9541625976562
0, 1, 76, 284.5118713378906
0, 1, 77, 291.6601257324219
0, 1, 78, 296.272216796875
0, 1, 79, 303.8178405761719
0, 1, 80, 295.5433654785156
0, 1, 81, 299.5718994140625
0, 1, 82, 283.8768920898438
0, 1, 83, 331.3364562988281
0, 1, 84, 309.4144592285156
0, 1, 85, 251.4525756835938
0, 1, 86, 294.2469787597656
0, 1, 87, 291.103271484375
0, 1, 88, 296.4476318359375
0, 1, 89, 293.907470703125
0, 1, 90, 271.7463989257812
0, 1, 91, 317.7512512207031
0, 1, 92, 292.8800964355469
0, 1, 93, 287.9785766601562
0, 1, 94, 305.18017578125
0, 1, 95, 283.3143920898438
0, 1, 96, 281.9421081542969
0, 1, 97, 299.8716430664062
0, 1, 98, 276.5799255371094
0, 1, 99, 265.3772277832031
0, 1, 100, 276.9794311523438
0, 1, 101, 281.6605834960938
0, 1, 102, 280.9410705566406
0, 1, 103, 282.2408752441406
0, 1, 104, 307.4654541015625
0, 1, 105, 295.9819641113281
0, 1, 106, 262.9473266601562
0, 1, 107, 193.0241088867188
0, 1, 108, 80.89894104003906
0, 1, 109, 23.2227725982666
0, 1, 110, 11.94295215606689
0, 1, 111, 9.023680686950684
0, 1, 112, 12.01595783233643
0, 1, 113, 4.429968357086182
0, 1, 114, 5.853323936462402
0, 1, 115, 6.201647281646729
0, 1, 116, 12.01168537139893
0, 1, 117, 5.97092342376709
0, 1, 118, 4.246941089630127
0, 1, 119, 7.882451057434082
0, 1, 120, 4.886645793914795
0, 1, 121, 4.066347599029541
0, 1, 122, 3.732108116149902
0, 1, 123, 4.680073261260986
0, 1, 124, 7.871809005737305
0, 1, 125, 2.700031518936157
0, 1, 126, 4.624260425567627
0, 1, 127, 2.446798086166382
0, 2, 0, 8.110864639282227
0, 2, 1, 2.663756847381592
0, 2, 2, 8.002097129821777
0, 2, 3, 3.096762180328369
0, 2, 4, 4.309398174285889
0, 2, 5, 1.398446440696716
0, 2, 6, 1.657926321029663
0, 2, 7, 3.632390975952148
0, 2, 8, 7.7494215965271
0, 2, 9, 6.156887531280518
0, 2, 10, 9.409499168395996
0, 2, 11, 6.572506904602051
0, 2, 12, 6.205860137939453
0, 2, 13, 10.22638893127441
0, 2, 14, 11.73683929443359
0, 2, 15, 8.931460380554199
0, 2, 16, 8.710391044616699
0, 2, 17, 17.01440238952637
0, 2, 18, 30.7996654510498
0, 2, 19, 117.6648788452148
0, 2, 20, 246.2474670410156
0, 2, 21, 271.2230224609375
0, 2, 22, 314.325927734375
0, 2, 23, 300.6629028320312
0, 2, 24, 287.9738464355469
0, 2, 25, 304.5770263671875
0, 2, 26, 294.7026977539062
0, 2, 27, 275.3856201171875
0, 2, 28, 273.4567260742188
0, 2, 29, 273.8927001953125
0, 2, 30, 291.7912292480469
0, 2, 31, 278.4668579101562
0, 2, 32, 296.3526000976562
0, 2, 33, 284.1656799316406
0, 2, 34, 332.1236267089844
0, 2, 35, 290.1231994628906
0, 2, 36, 303.4673461914062
0, 2, 37, 315.5788879394531
0, 2, 38, 313.51220703125
0, 2, 39, 268.7723388671875
0, 2, 40, 305.5372009277344
0, 2, 41, 292.7396240234375
0, 2, 42, 303.0801696777344
0, 2, 43, 312.4290466308594
0, 2, 44, 314.7616882324219
0, 2, 45, 325.038330078125
0, 2, 46, 287.0380249023438
0, 2, 47, 302.5060729980469
0, 2, 48, 281.0763244628906
0, 2, 49, 278.7643737792969
0, 2, 50, 296.0653686523438
0, 2, 51, 284.692626953125
0, 2, 52, 272.2875061035156
0, 2, 53, 287.5559692382812
0, 2, 54, 280.7869873046875
0, 2, 55, 275.8434448242188
0, 2, 56, 302.8846130371094
0, 2, 57, 292.2185974121094
0, 2, 58, 300.9698791503906
0, 2, 59, 287.0158081054688
0, 2, 60, 318.09912109375
0, 2, 61, 301.6472473144531
0, 2, 62, 313.6153564453125
0, 2, 63, 301.2606506347656
0, 2, 64, 296.35107421875
0, 2, 65, 315.03955078125
0, 2, 66, 278.9936828613281
0, 2, 67, 289.5465393066406
0, 2, 68, 295.3681030273438
0, 2, 69, 311.1321411132812
0, 2, 70, 335.4210510253906
0, 2, 71, 285.1557312011719
0, 2, 72, 302.7364501953125
0, 2, 73, 310.0559387207031
0, 2, 74, 285.2935180664062
0, 2, 75, 303.3521423339844
0, 2, 76, 286.5353088378906
0, 2, 77, 299.9996643066406
0, 2, 78, 313.5905456542969
0, 2, 79, 309.2594909667969
0, 2, 80, 294.9102783203125
0, 2, 81, 283.4939880371094
0, 2, 82, 317.5827331542969
0, 2, 83, 312.3303527832031
0, 2, 84, 288.3125610351562
0, 2, 85, 282.8110046386719
0, 2, 86, 324.2744445800781
0, 2, 87, 286.4864501953125
0, 2, 88, 280.2376708984375
0, 2, 89, 298.242431640625
0, 2, 90, 297.0426330566406
0, 2, 91, 276.8555908203125
0, 2, 92, 304.2648620605469
0, 2, 93, 316.8315734863281
0, 2, 94, 290.6079406738281
0, 2, 95, 315.2372436523438
0, 2, 96, 315.5389709472656
0, 2, 97, 290.2810974121094
0, 2, 98, 295.3360900878906
0, 2, 99, 276.5016479492188
0, 2, 100, 305.1510620117188
0, 2, 101, 299.9985961914062
0, 2, 102, 298.9627990722656
0, 2, 103, 290.8714294433594
0, 2, 104, 291.9898681640625
0, 2, 105, 276.0135192871094
0, 2, 106, 296.5859375
0, 2, 107, 269.2616577148438
0, 2, 108, 117.5044555664062
0, 2, 109, 32.1588020324707
0, 2, 110, 10.38470840454102
0, 2, 111, 11.14151382446289
0, 2, 112, 7.385583400726318
0, 2, 113, 9.541262626647949
0, 2, 114, 11.04693698883057
0, 2, 115, 8.182338714599609
0, 2, 116, 8.058419227600098
0, 2, 117, 5.591853618621826
0, 2, 118, 2.830925226211548
0, 2, 119, 5.401432037353516
0, 2, 120, 8.373666763305664
0, 2, 121, 2.469238042831421
0, 2, 122, 3.643959760665894
0, 2, 123, 4.89796257019043
0, 2, 124, 5.498534679412842
0, 2, 125, 4.424661159515381
0, 2, 126, 3.195268154144287
0, 2, 127, 3.969635725021362
0, 3, 0, 2.622243404388428
0, 3, 1, 3.815086603164673
0, 3, 2, 4.884373664855957
0, 3, 3, 2.955362319946289
0, 3, 4, 3.479179620742798
0, 3, 5, 6.387174129486084
0, 3, 6, 6.037693500518799
0, 3, 7, 5.09539794921875
0, 3, 8, 4.390258312225342
0, 3, 9, 6.335291862487793
0, 3, 10, 6.111309051513672
0, 3, 11, 5.261705875396729
0, 3, 12, 7.15738582611084
0, 3, 13, 14.6966028213501
0, 3, 14, 10.94191455841064
0, 3, 15, 15.46590328216553
0, 3, 16, 11.00312900543213
0, 3, 17, 18.85263252258301
0, 3, 18, 53.43268585205078
0, 3, 19, 176.9044799804688
0, 3, 20, 270.3094787597656
0, 3, 21, 270.6413879394531
0, 3, 22, 281.7644348144531
0, 3, 23, 289.3124084472656
0, 3, 24, 286.9744567871094
0, 3, 25, 273.1034851074219
0, 3, 26, 303.7979125976562
0, 3, 27, 291.7372741699219
0, 3, 28, 282.9806823730469
0, 3, 29, 337.4522705078125
0, 3, 30, 315.8517761230469
0, 3, 31, 287.4891052246094
0, 3, 32, 305.5639343261719
0, 3, 33, 315.014404296875
0, 3, 34, 323.2733459472656
0, 3, 35, 305.6483764648438
0, 3, 36, 270.4033203125
0, 3, 37, 317.0428466796875
0, 3, 38, 302.5554504394531
0, 3, 39, 288.0340576171875
0, 3, 40, 266.9855346679688
0, 3, 41, 299.9004211425781
0, 3, 42, 285.6974792480469
0, 3, 43, 305.6378784179688
0, 3, 44, 313.28369140625
0, 3, 45, 289.5439758300781
0, 3, 46, 326.2586669921875
0, 3, 47, 299.2340698242188
0, 3, 48, 301.7149047851562
0, 3, 49, 275.1537170410156
0, 3, 50, 289.6693725585938
0, 3, 51, 276.7100524902344
0, 3, 52, 314.4665222167969
0, 3, 53, 289.5633239746094
0, 3, 54, 284.3323974609375
0, 3, 55, 283.5799865722656
0, 3, 56, 298.8748779296875
0, 3, 57, 287.9927062988281
0, 3, 58, 308.3885498046875
0, 3, 59, 297.0668029785156
0, 3, 60, 297.5517883300781
0, 3, 61, 264.3092956542969
0, 3, 62, 284.1903686523438
0, 3, 63, 308.3064880371094
0, 3, 64, 315.7464599609375
0, 3, 65, 303.7036437988281
0, 3, 66, 314.4588928222656
0, 3, 67, 316.8697204589844
0, 3, 68, 279.0489807128906
0, 3, 69, 282.0558471679688
0, 3, 70, 286.3540954589844
0, 3, 71, 301.7252502441406
0, 3, 72, 268.1930847167969
0, 3, 73, 307.5773010253906
0, 3, 74, 292.6209411621094
0, 3, 75, 292.6492004394531
0, 3, 76, 306.5724487304688
0, 3, 77, 315.391357421875
0, 3, 78, 301.9030151367188
0, 3, 79, 281.7478637695312
0, 3, 80, 291.1947937011719
0, 3, 81, 310.2692565917969
0, 3, 82, 314.5591735839844
0, 3, 83, 300.2907104492188
0, 3, 84, 312.4039611816406
0, 3, 85, 294.0374145507812
0, 3, 86, 302.4538879394531
0, 3, 87, 300.19189453125
0, 3, 88, 297.7642822265625
0, 3, 89, 296.2904357910156
0, 3, 90, 275.6183166503906
0, 3, 91, 284.365478515625
0, 3, 92, 305.8426513671875
0, 3, 93, 311.5903015136719
0, 3, 94, 296.8748168945312
0, 3, 95, 335.5935363769531
0, 3, 96, 290.7953491210938
0, 3, 97, 283.8281860351562
0, 3, 98, 279.4697570800781
0, 3, 99, 263.6140747070312
0, 3, 100, 284.9098815917969
0, 3, 101, 297.1521301269531
0, 3, 102, 275.7736206054688
0, 3, 103, 322.2666931152344
0, 3, 104, 306.2920837402344
0, 3, 105, 291.4160461425781
0, 3, 106, 302.4897766113281
0, 3, 107, 284.4674987792969
0, 3, 108, 171.4715728759766
0, 3, 109, 57.09018325805664
0, 3, 110, 17.849609375
0, 3, 111, 12.49247455596924
0, 3, 112, 11.5125036239624
0, 3, 113, 5.532432556152344
0, 3, 114, 10.64712333679199
0, 3, 115, 7.225205898284912
0, 3, 116, 6.281075954437256
0, 3, 117, 8.069097518920898
0, 3, 118, 6.250467777252197
0, 3, 119, 6.205606937408447
0, 3, 120, 4.599375247955322
0, 3, 121, 2.971118927001953
0, 3, 122, 3.90120792388916
0, 3, 123, 6.121551990509033
0, 3, 124, 3.149847507476807
0, 3, 125, 5.6785888671875
0, 3, 126, 4.856379985809326
0, 3, 127, 1.925446510314941
0, 4, 0, 4.421177864074707
0, 4, 1, 4.235934734344482
0, 4, 2, 3.519915819168091
0, 4, 3, 3.511209964752197
0, 4, 4, 5.747889518737793
0, 4, 5, 7.704555988311768
0, 4, 6, 5.556878089904785
0, 4, 7, 5.084269046783447
0, 4, 8, 5.556266784667969
0, 4, 9, 5.023284912109375
0, 4, 10, 6.14575719833374
0, 4, 11, 7.050798416137695
0, 4, 12, 5.942362308502197
0, 4, 13, 9.450716018676758
0, 4, 14, 14.52829551696777
0, 4, 15, 9.251153945922852
0, 4, 16, 15.19819450378418
0, 4, 17, 17.90325355529785
0, 4, 18, 94.27813720703125
0, 4, 19, 222.4647827148438
0, 4, 20, 286.4361267089844
0, 4, 21, 272.2486877441406
0, 4, 22, 304.3959350585938
0, 4, 23, 266.7457275390625
0, 4, 24, 288.9212341308594
0, 4, 25, 272.7102966308594
0, 4, 26, 294.0196533203125
0, 4, 27, 281.283935546875
0, 4, 28, 306.6970520019531
0, 4, 29, 322.5215148925781
0, 4, 30, 309.9292297363281
0, 4, 31, 302.961181640625
0, 4, 32, 280.7765502929688
0, 4, 33, 295.8173217773438
0, 4, 34, 297.6449890136719
0, 4, 35, 313.4010314941406
0, 4, 36, 296.8558654785156
0, 4, 37, 287.9517517089844
0, 4, 38, 298.4222412109375
0, 4, 39, 291.9348449707031
0, 4, 40, 302.4488830566406
0, 4, 41, 310.7378234863281
0, 4, 42, 329.0215148925781
0, 4, 43, 299.6966857910156
0, 4, 44, 321.2224426269531
0, 4, 45, 324.5006408691406
0, 4, 46, 307.2807922363281
0, 4, 47, 291.9593811035156
0, 4, 48, 296.4340209960938
0, 4, 49, 279.9026489257812
0, 4, 50, 297.1522827148438
0, 4, 51, 316.6158142089844
0, 4, 52, 327.4898681640625
0, 4, 53, 304.3715209960938
0, 4, 54, 288.2630310058594
0, 4, 55, 315.7159729003906
0, 4, 56, 285.8912963867188
0, 4, 57, 310.2536926269531
0, 4, 58, 297.4100952148438
0, 4, 59, 309.2814636230469
0, 4, 60, 304.879150390625
0, 4, 61, 316.7303161621094
0, 4, 62, 308.4292602539062
0, 4, 63, 298.7888793945312
0, 4, 64, 329.2349548339844
0, 4, 65, 314.8947143554688
0, 4, 66, 294.4765319824219
0, 4, 67, 284.5835266113281
0, 4, 68, 312.166015625
0, 4, 69, 275.4804077148438
0, 4, 70, 298.9454956054688
0, 4, 71, 321.2189025878906
0, 4, 72, 332.9307861328125
0, 4, 73, 299.2501220703125
0, 4, 74, 294.7202758789062
0, 4, 75, 289.6956787109375
0, 4, 76, 276.3187561035156
0, 4, 77, 280.8503723144531
0, 4, 78, 307.4755859375
0, 4, 79, 318.5813598632812
0, 4, 80, 316.2812805175781
0, 4, 81, 311.9866638183594
0, 4, 82, 298.0982360839844
0, 4, 83, 299.9709167480469
0, 4, 84, 295.1572570800781
0, 4, 85, 295.9002380371094
0, 4, 86, 298.1220703125
0, 4, 87, 284.95703125
0, 4, 88, 306.5608215332031
0, 4, 89, 293.4009399414062
0, 4, 90, 332.2770080566406
0, 4, 91, 302.7770385742188
0, 4, 92, 289.148193359375
0, 4, 93, 296.5277099609375
0, 4, 94, 293.9761352539062
0, 4, 95, 289.0402526855469
0, 4, 96, 325.3134460449219
0, 4, 97, 273.3099975585938
0, 4, 98, 327.4541625976562
0, 4, 99, 312.6209106445312
0, 4, 100, 299.5118713378906
0, 4, 101, 257.533203125
0, 4, 102, 297.2464599609375
0, 4, 103, 318.6589965820312
0, 4, 104, 282.6229248046875
0, 4, 105, 313.3939208984375
0, 4, 106, 287.0164489746094
0, 4, 107, 293.6569213867188
0, 4, 108, 226.0003051757812
0, 4, 109, 79.59963226318359
0, 4, 110, 15.73367309570312
0, 4, 111, 13.17521190643311
0, 4, 112, 10.38400650024414
0, 4, 113, 10.12974548339844
0, 4, 114, 10.63995742797852
0, 4, 115, 9.493912696838379
0, 4, 116, 10.25261306762695
0, 4, 117, 6.77694845199585
0, 4, 118, 9.661574363708496
0, 4, 119, 10.9858865737915
0, 4, 120, 7.444831371307373
0, 4, 121, 4.252675533294678
0, 4, 122, 3.747097253799438
0, 4, 123, 5.932993412017822
0, 4, 124, 5.080785274505615
0, 4, 125, 8.211548805236816
0, 4, 126, 4.151392936706543
0, 4, 127, 2.497159719467163
0, 5, 0, 2.961854696273804
0, 5, 1, 3.820180177688599
0, 5, 2, 4.309006214141846
0, 5, 3, 4.510275363922119
0, 5, 4, 6.00932502746582
0, 5, 5, 4.453506946563721
0, 5, 6, 7.224395751953125
0, 5, 7, 5.504879474639893
0, 5, 8, 4.72039794921875
0, 5, 9, 4.855601787567139
0, 5, 10, 5.839375019073486
0, 5, 11, 8.512172698974609
0, 5, 12, 7.776676177978516
0, 5, 13, 4.505943298339844
0, 5, 14, 11.99100494384766
0, 5, 15, 16.3095760345459
0, 5, 16, 13.28819465637207
0, 5, 17, 27.9826545715332
0, 5, 18, 136.9138793945312
0, 5, 19, 287.4329223632812
0, 5, 20, 306.3760681152344
0, 5, 21, 316.9538269042969
0, 5, 22, 275.388916015625
0, 5, 23, 310.5263061523438
0, 5, 24, 302.1840515136719
0, 5, 25, 289.6589965820312
0, 5, 26, 293.9637145996094
0, 5, 27, 321.9422302246094
0, 5, 28, 304.0951538085938
0, 5, 29, 297.80712890625
0, 5, 30, 325.256103515625
0, 5, 31, 285.9001770019531
0, 5, 32, 301.8015747070312
0, 5, 33, 302.8637390136719
0, 5, 34, 296.2321472167969
0, 5, 35, 309.9054870605469
0, 5, 36, 268.400146484375
0, 5, 37, 284.6523132324219
0, 5, 38, 292.7009887695312
0, 5, 39, 311.9900512695312
0, 5, 40, 308.4303894042969
0, 5, 41, 272.6657104492188
0, 5, 42, 304.6994934082031
0, 5, 43, 314.1214599609375
0, 5, 44, 293.2639465332031
0, 5, 45, 300.2208862304688
0, 5, 46, 265.949951171875
0, 5, 47, 280.0281066894531
0, 5, 48, 294.338134765625
0, 5, 49, 286.3500366210938
0, 5, 50, 294.7306518554688
0, 5, 51, 281.1976928710938
0, 5, 52, 269.2094116210938
0, 5, 53, 283.8544921875
0, 5, 54, 295.3329772949219
0, 5, 55, 345.7444152832031
0, 5, 56, 306.0367736816406
0, 5, 57, 306.6900329589844
0, 5, 58, 310.8039245605469
0, 5, 59, 305.0738830566406
0, 5, 60, 306.7037963867188
0, 5, 61, 282.349365234375
0, 5, 62, 324.9509582519531
0, 5, 63, 292.9287719726562
0, 5, 64, 323.2276916503906
0, 5, 65, 308.0806274414062
0, 5, 66, 328.0409851074219
0, 5, 67, 313.5632629394531
0, 5, 68, 307.123779296875
0, 5, 69, 312.4155578613281
0, 5, 70, 299.6449279785156
0, 5, 71, 272.8123474121094
0, 5, 72, 312.5584106445312
0, 5, 73, 301.9407653808594
0, 5, 74, 295.54443359375
0, 5, 75, 293.5897521972656
0, 5, 76, 285.9833984375
0, 5, 77, 302.9930725097656
0, 5, 78, 316.0155029296875
0, 5, 79, 307.9357299804688
0, 5, 80, 294.9404907226562
0, 5, 81, 325.4715881347656
0, 5, 82, 324.3149719238281
0, 5, 83, 280.4462280273438
0, 5, 84, 301.7713623046875
0, 5, 85, 271.3713684082031
0, 5, 86, 325.2369689941406
0, 5, 87, 284.9394226074219
0, 5, 88, 315.3972778320312
0, 5, 89, 304.856201171875
0, 5, 90, 315.8611145019531
0, 5, 91, 312.8691711425781
0, 5, 92, 296.17822265625
0, 5, 93, 323.4852294921875
0, 5, 94, 312.4271240234375
0, 5, 95, 298.7694702148438
0, 5, 96, 299.7632751464844
0, 5, 97, 296.9688720703125
0, 5, 98, 318.0037231445312
0, 5, 99, 303.4268493652344
0, 5, 100, 291.1876525878906
0, 5, 101, 306.5563049316406
0, 5, 102, 292.0275573730469
0, 5, 103, 314.6240539550781
0, 5, 104, 302.4528198242188
0, 5, 105, 292.1015319824219
0, 5, 106, 280.819580078125
0, 5, 107, 294.5111389160156
0, 5, 108, 264.9424133300781
0, 5, 109, 158.9536590576172
0, 5, 110, 39.58882904052734
0, 5, 111, 22.12331008911133
0, 5, 112, 18.82692337036133
0, 5, 113, 15.32263374328613
0, 5, 114, 11.66379356384277
0, 5, 115, 6.793862342834473
0, 5, 116, 6.7163987159729
0, 5, 117, 7.035502433776855
0, 5, 118, 17.59972953796387
0, 5, 119, 3.726761102676392
0, 5, 120, 6.371033668518066
0, 5, 121, 6.162175178527832
0, 5, 122, 7.07379150390625
0, 5, 123, 6.173216342926025
0, 5, 124, 5.682810306549072
0, 5, 125, 3.204225063323975
0, 5, 126, 5.178890228271484
0, 5, 127, 4.26851749420166
0, 6, 0, 7.157931804656982
0, 6, 1, 2.048321962356567
0, 6, 2, 7.079331398010254
0, 6, 3, 4.581724166870117
0, 6, 4, 2.385080814361572
0, 6, 5, 6.126410961151123
0, 6, 6, 6.256320476531982
0, 6, 7, 6.600788116455078
0, 6, 8, 8.6739501953125
0, 6, 9, 5.936869144439697
0, 6, 10, 9.197292327880859
0, 6, 11, 10.53699016571045
0, 6, 12, 9.261867523193359
0, 6, 13, 17.11163902282715
0, 6, 14, 10.12406539916992
0, 6, 15, 16.18452453613281
0, 6, 16, 28.12897682189941
0, 6, 17, 55.76325607299805
0, 6, 18, 174.9198150634766
0, 6, 19, 276.4305725097656
0, 6, 20, 291.0440979003906
0, 6, 21, 314.9485473632812
0, 6, 22, 322.5318298339844
0, 6, 23, 305.4537963867188
0, 6, 24, 315.81787109375
0, 6, 25, 316.6719360351562
0, 6, 26, 319.4466552734375
0, 6, 27, 330.6491088867188
0, 6, 28, 294.8882141113281
0, 6, 29, 330.4280090332031
0, 6, 30, 282.6780395507812
0, 6, 31, 285.8494567871094
0, 6, 32, 339.7490234375
0, 6, 33, 300.6864624023438
0, 6, 34, 339.5572509765625
0, 6, 35, 320.1358032226562
0, 6, 36, 273.844970703125
0, 6, 37, 289.3782653808594
0, 6, 38, 311.2069702148438
0, 6, 39, 299.0868530273438
0, 6, 40, 285.7897033691406
0, 6, 41, 295.6688232421875
0, 6, 42, 302.8767700195312
0, 6, 43, 289.2000732421875
0, 6, 44, 281.064208984375
0, 6, 45, 320.1799011230469
0, 6, 46, 301.98388671875
0, 6, 47, 333.1303405761719
0, 6, 48, 291.5614929199219
0, 6, 49, 310.8324279785156
0, 6, 50, 328.4875183105469
0, 6, 51, 310.0633239746094
0, 6, 52, 321.328857421875
0, 6, 53, 327.7684631347656
0, 6, 54, 302.6350402832031
0, 6, 55, 305.3284301757812
0, 6, 56, 296.609375
0, 6, 57, 312.9518432617188
0, 6, 58, 263.4892272949219
0, 6, 59, 303.3984680175781
0, 6, 60, 315.4640197753906
0, 6, 61, 271.2409973144531
0, 6, 62, 336.2640991210938
0, 6, 63, 322.5059814453125
0, 6, 64, 289.8189392089844
0, 6, 65, 282.9466857910156
0, 6, 66, 302.0789794921875
0, 6, 67, 309.3049926757812
0, 6, 68, 293.9341430664062
0, 6, 69, 277.9405822753906
0, 6, 70, 275.2634582519531
0, 6, 71, 289.5970153808594
0, 6, 72, 308.7760925292969
0, 6, 73, 292.9126586914062
0, 6, 74, 329.951416015625
0, 6, 75, 342.6323852539062
0, 6, 76, 296.8067321777344
0, 6, 77, 285.9985961914062
0, 6, 78, 280.203857421875
0, 6, 79, 293.396240234375
0, 6, 80, 298.68359375
0, 6, 81, 316.874267578125
0, 6, 82, 320.5328674316406
0, 6, 83, 322.3597106933594
0, 6, 84, 298.1118774414062
0, 6, 85, 300.9804992675781
0, 6, 86, 329.5667724609375
0, 6, 87, 292.7954406738281
0, 6, 88, 305.6822509765625
0, 6, 89, 303.6950378417969
0, 6, 90, 298.380859375
0, 6, 91, 312.5219421386719
0, 6, 92, 287.3105163574219
0, 6, 93, 294.6985473632812
0, 6, 94, 272.2655944824219
0, 6, 95, 304.6343994140625
0, 6, 96, 347.9482727050781
0, 6, 97, 308.0155334472656
0, 6, 98, 302.4695434570312
0, 6, 99, 272.5324401855469
0, 6, 100, 309.751220703125
0, 6, 101, 292.0418090820312
0, 6, 102, 306.7950439453125
0, 6, 103, 308.3049926757812
0, 6, 104, 293.9484252929688
0, 6, 105, 301.9692993164062
0, 6, 106, 308.1691589355469
0, 6, 107, 306.679443359375
0, 6, 108, 265.1778564453125
0, 6, 109, 187.0265502929688
0, 6, 110, 57.19282531738281
0, 6, 111, 23.04254531860352
0, 6, 112, 13.40290927886963
0, 6, 113, 11.08601093292236
0, 6, 114, 12.86519336700439
0, 6, 115, 12.40484046936035
0, 6, 116, 10.53085899353027
0, 6, 117, 7.31670093536377
0, 6, 118, 9.639717102050781
0, 6, 119, 7.180134296417236
0, 6, 120, 6.230472087860107
0, 6, 121, 7.530478477478027
0, 6, 122, 6.402279853820801
0, 6, 123, 4.677656650543213
0, 6, 124, 6.454986095428467
0, 6, 125, 5.029277324676514
0, 6, 126, 5.380084991455078
0, 6, 127, 5.398738384246826
0, 7, 0, 6.446172714233398
0, 7, 1, 3.940851926803589
0, 7, 2, 6.236858367919922
0, 7, 3, 3.371190071105957
0, 7, 4, 5.16013240814209
0, 7, 5, 6.082679748535156
0, 7, 6, 5.873286247253418
0, 7, 7, 6.300482273101807
0, 7, 8, 4.585966110229492
0, 7, 9, 5.777678489685059
0, 7, 10, 9.639103889465332
0, 7, 11, 11.77629852294922
0, 7, 12, 10.22305202484131
0, 7, 13, 12.77822971343994
0, 7, 14, 9.954534530639648
0, 7, 15, 17.1996021270752
0, 7, 16, 26.25198554992676
0, 7, 17, 98.97423553466797
0, 7, 18, 218.703369140625
0, 7, 19, 290.243408203125
0, 7, 20, 299.0727233886719
0, 7, 21, 276.3547668457031
0, 7, 22, 299.5697937011719
0, 7, 23, 289.3272705078125
0, 7, 24, 311.8515014648438
0, 7, 25, 323.6955871582031
0, 7, 26, 279.5854797363281
0, 7, 27, 297.9437866210938
0, 7, 28, 328.118408203125
0, 7, 29, 319.9348754882812
0, 7, 30, 301.1666259765625
0, 7, 31, 277.4692687988281
0, 7, 32, 304.0692138671875
0, 7, 33, 263.1646728515625
0, 7, 34, 297.6727294921875
0, 7, 35, 319.4820556640625
0, 7, 36, 332.1963500976562
0, 7, 37, 323.1902770996094
0, 7, 38, 294.5914001464844
0, 7, 39, 305.9284057617188
0, 7, 40, 290.4508972167969
0, 7, 41, 270.3283386230469
0, 7, 42, 304.5908813476562
0, 7, 43, 274.1017456054688
0, 7, 44, 302.4662170410156
0, 7, 45, 297.7267150878906
0, 7, 46, 282.8731994628906
0, 7, 47, 332.5953674316406
0, 7, 48, 287.7815551757812
0, 7, 49, 300.5660705566406
0, 7, 50, 321.7735290527344
0, 7, 51, 298.6252746582031
0, 7, 52, 326.306640625
0, 7, 53, 311.5508422851562
0, 7, 54, 325.5409240722656
0, 7, 55, 307.8417053222656
0, 7, 56, 278.4837646484375
0, 7, 57, 282.2873229980469
0, 7, 58, 295.4286193847656
0, 7, 59, 294.4586486816406
0, 7, 60, 322.5384216308594
0, 7, 61, 276.7642517089844
0, 7, 62, 296.4560546875
0, 7, 63, 293.2084655761719
0, 7, 64, 306.6594543457031
0, 7, 65, 331.3941955566406
0, 7, 66, 319.9680480957031
0, 7, 67, 302.6026000976562
0, 7, 68, 279.8926696777344
0, 7, 69, 293.962890625
0, 7, 70, 301.6758117675781
0, 7, 71, 309.4308776855469
0, 7, 72, 284.5396728515625
0, 7, 73, 295.6469116210938
0, 7, 74, 344.3098449707031
0, 7, 75, 317.3870544433594
0, 7, 76, 324.0967712402344
0, 7, 77, 283.0588073730469
0, 7, 78, 299.4644470214844
0, 7, 79, 296.1044921875
0, 7, 80, 311.5161743164062
0, 7, 81, 318.4525146484375
0, 7, 82, 327.9181213378906
0, 7, 83, 317.2634582519531
0, 7, 84, 308.5267639160156
0, 7, 85, 271.7387084960938
0, 7, 86, 310.7608337402344
0, 7, 87, 309.9638977050781
0, 7, 88, 306.2678833007812
0, 7, 89, 292.5252685546875
0, 7, 90, 307.0569458007812
0, 7, 91, 317.4739379882812
0, 7, 92, 291.9693603515625
0, 7, 93, 309.0751037597656
0, 7, 94, 274.6721496582031
0, 7, 95, 295.6478271484375
0, 7, 96, 331.221435546875
0, 7, 97, 295.8631591796875
0, 7, 98, 290.4924926757812
0, 7, 99, 313.4827575683594
0, 7, 100, 282.7200012207031
0, 7, 101, 274.25
0, 7, 102, 290.9661254882812
0, 7, 103, 293.6237487792969
0, 7, 104, 275.6460876464844
0, 7, 105, 307.5152587890625
0, 7, 106, 317.8229064941406
0, 7, 107, 295.5295104980469
0, 7, 108, 274.0567016601562
0, 7, 109, 236.5127410888672
0, 7, 110, 98.85597229003906
0, 7, 111, 25.21811294555664
0, 7, 112, 13.42267322540283
0, 7, 113, 14.75721740722656
0, 7, 114, 14.96920394897461
0, 7, 115, 10.25685787200928
0, 7, 116, 8.51509952545166
0, 7, 117, 5.282951831817627
0, 7, 118, 6.451390743255615
0, 7, 119, 5.117716312408447
0, 7, 120, 4.343688011169434
0, 7, 121, 6.272074222564697
0, 7, 122, 8.333414077758789
0, 7, 123, 3.319262266159058
0, 7, 124, 4.856279373168945
0, 7, 125, 7.724798679351807
0, 7, 126, 9.801863670349121
0, 7, 127, 3.447726011276245
0, 8, 0, 3.470293998718262
0, 8, 1, 4.735046863555908
0, 8, 2, 4.506031036376953
0, 8, 3, 2.699831247329712
0, 8, 4, 3.863995790481567
0, 8, 5, 3.890548706054688
0, 8, 6, 4.559915065765381
0, 8, 7, 10.88182163238525
0, 8, 8, 8.002396583557129
0, 8, 9, 5.455729484558105
0, 8, 10, 6.601296424865723
0, 8, 11, 11.13734531402588
0, 8, 12, 12.61950492858887
0, 8, 13, 15.56385326385498
0, 8, 14, 12.78979682922363
0, 8, 15, 18.14398765563965
0, 8, 16, 32.2475700378418
0, 8, 17, 129.8858032226562
0, 8, 18, 245.5046081542969
0, 8, 19, 296.4012451171875
0, 8, 20, 284.8184509277344
0, 8, 21, 308.6765747070312
0, 8, 22, 297.2566833496094
0, 8, 23, 277.3189086914062
0, 8, 24, 268.4573669433594
0, 8, 25, 278.1186218261719
0, 8, 26, 306.5904235839844
0, 8, 27, 307.6315002441406
0, 8, 28, 303.3967895507812
0, 8, 29, 326.1705932617188
0, 8, 30, 312.6347351074219
0, 8, 31, 302.9508056640625
0, 8, 32, 283.6888732910156
0, 8, 33, 293.6924743652344
0, 8, 34, 292.1583251953125
0, 8, 35, 282.7629089355469
0, 8, 36, 314.2447814941406
0, 8, 37, 339.4761962890625
0, 8, 38, 333.916259765625
0, 8, 39, 280.5625915527344
0, 8, 40, 306.33935546875
