# TOPAS Version: 3.1.p3
# Parameter File: batch_inserts_346.txt
# Results for scorer Readout_Adipose
# Scored in component: MyBox
# X in 1 bin  of 0.75 cm
# Y in 512 bins of 0.0783984 cm
# Z in 128 bins of 0.078125 cm
# EnergyDeposit ( MeV ) : Sum   
0, 0, 0, 17.70751190185547
0, 0, 1, 21.7859935760498
0, 0, 2, 25.82719421386719
0, 0, 3, 27.12146186828613
0, 0, 4, 18.56941795349121
0, 0, 5, 22.96697998046875
0, 0, 6, 24.70659065246582
0, 0, 7, 32.3626594543457
0, 0, 8, 19.92940711975098
0, 0, 9, 21.7323112487793
0, 0, 10, 23.16836166381836
0, 0, 11, 26.8566780090332
0, 0, 12, 34.802978515625
0, 0, 13, 28.89396667480469
0, 0, 14, 36.54515075683594
0, 0, 15, 44.5351448059082
0, 0, 16, 48.1549186706543
0, 0, 17, 48.01349258422852
0, 0, 18, 78.05864715576172
0, 0, 19, 191.283935546875
0, 0, 20, 700.4010009765625
0, 0, 21, 1191.82861328125
0, 0, 22, 1244.862426757812
0, 0, 23, 1273.14990234375
0, 0, 24, 1279.992309570312
0, 0, 25, 1351.229125976562
0, 0, 26, 1270.607177734375
0, 0, 27, 1280.495727539062
0, 0, 28, 1323.606567382812
0, 0, 29, 1273.809692382812
0, 0, 30, 1263.870483398438
0, 0, 31, 1275.302734375
0, 0, 32, 1263.027099609375
0, 0, 33, 1239.28759765625
0, 0, 34, 1326.697509765625
0, 0, 35, 1301.339721679688
0, 0, 36, 1247.677368164062
0, 0, 37, 1284.071411132812
0, 0, 38, 1248.532348632812
0, 0, 39, 1245.998046875
0, 0, 40, 1222.662353515625
0, 0, 41, 1266.177978515625
0, 0, 42, 1255.673217773438
0, 0, 43, 1273.002319335938
0, 0, 44, 1223.189453125
0, 0, 45, 1285.982421875
0, 0, 46, 1261.656005859375
0, 0, 47, 1240.614624023438
0, 0, 48, 1275.73876953125
0, 0, 49, 1287.878173828125
0, 0, 50, 1308.87158203125
0, 0, 51, 1262.769653320312
0, 0, 52, 1361.282592773438
0, 0, 53, 1323.82373046875
0, 0, 54, 1296.607666015625
0, 0, 55, 1235.963012695312
0, 0, 56, 1320.923706054688
0, 0, 57, 1295.986328125
0, 0, 58, 1254.4560546875
0, 0, 59, 1330.706909179688
0, 0, 60, 1326.988891601562
0, 0, 61, 1260.567138671875
0, 0, 62, 1238.164184570312
0, 0, 63, 1280.382080078125
0, 0, 64, 1331.451782226562
0, 0, 65, 1284.531982421875
0, 0, 66, 1317.248657226562
0, 0, 67, 1214.23291015625
0, 0, 68, 1310.419677734375
0, 0, 69, 1331.190795898438
0, 0, 70, 1340.188232421875
0, 0, 71, 1285.536499023438
0, 0, 72, 1311.767944335938
0, 0, 73, 1239.55126953125
0, 0, 74, 1293.2666015625
0, 0, 75, 1293.977905273438
0, 0, 76, 1254.445922851562
0, 0, 77, 1295.169677734375
0, 0, 78, 1314.60205078125
0, 0, 79, 1323.548950195312
0, 0, 80, 1264.42919921875
0, 0, 81, 1318.935302734375
0, 0, 82, 1286.80712890625
0, 0, 83, 1290.947387695312
0, 0, 84, 1331.727294921875
0, 0, 85, 1232.425659179688
0, 0, 86, 1263.238647460938
0, 0, 87, 1253.060546875
0, 0, 88, 1253.011962890625
0, 0, 89, 1338.308837890625
0, 0, 90, 1275.340209960938
0, 0, 91, 1353.127685546875
0, 0, 92, 1308.165283203125
0, 0, 93, 1272.778686523438
0, 0, 94, 1241.902709960938
0, 0, 95, 1328.407104492188
0, 0, 96, 1282.1240234375
0, 0, 97, 1324.35791015625
0, 0, 98, 1260.547119140625
0, 0, 99, 1251.485961914062
0, 0, 100, 1286.177124023438
0, 0, 101, 1320.524658203125
0, 0, 102, 1231.343994140625
0, 0, 103, 1322.151245117188
0, 0, 104, 1263.590698242188
0, 0, 105, 1267.76513671875
0, 0, 106, 1209.389770507812
0, 0, 107, 781.99658203125
0, 0, 108, 195.7798004150391
0, 0, 109, 66.68939971923828
0, 0, 110, 60.26123809814453
0, 0, 111, 41.21097564697266
0, 0, 112, 32.11986541748047
0, 0, 113, 32.4620246887207
0, 0, 114, 34.78983688354492
0, 0, 115, 25.28569030761719
0, 0, 116, 26.00467681884766
0, 0, 117, 31.70136260986328
0, 0, 118, 23.62213897705078
0, 0, 119, 22.42958450317383
0, 0, 120, 26.90061378479004
0, 0, 121, 28.13568878173828
0, 0, 122, 24.90227317810059
0, 0, 123, 20.30202484130859
0, 0, 124, 17.47387504577637
0, 0, 125, 19.3973217010498
0, 0, 126, 21.19659233093262
0, 0, 127, 19.06488800048828
0, 1, 0, 27.31210327148438
0, 1, 1, 18.81867980957031
0, 1, 2, 19.72925186157227
0, 1, 3, 18.61718940734863
0, 1, 4, 21.71529769897461
0, 1, 5, 22.80888366699219
0, 1, 6, 26.0312328338623
0, 1, 7, 24.05572319030762
0, 1, 8, 31.66485404968262
0, 1, 9, 31.9437370300293
0, 1, 10, 33.31636810302734
0, 1, 11, 41.37803268432617
0, 1, 12, 43.15488433837891
0, 1, 13, 46.16960906982422
0, 1, 14, 43.24633026123047
0, 1, 15, 48.29359436035156
0, 1, 16, 57.88039016723633
0, 1, 17, 62.26588821411133
0, 1, 18, 100.2796783447266
0, 1, 19, 401.6289367675781
0, 1, 20, 1034.880126953125
0, 1, 21, 1370.212280273438
0, 1, 22, 1471.048828125
0, 1, 23, 1464.287841796875
0, 1, 24, 1452.9033203125
0, 1, 25, 1418.204833984375
0, 1, 26, 1469.79150390625
0, 1, 27, 1468.523803710938
0, 1, 28, 1490.8935546875
0, 1, 29, 1482.05908203125
0, 1, 30, 1515.675659179688
0, 1, 31, 1481.769653320312
0, 1, 32, 1409.793334960938
0, 1, 33, 1506.981567382812
0, 1, 34, 1498.377319335938
0, 1, 35, 1458.072143554688
0, 1, 36, 1489.182495117188
0, 1, 37, 1409.029418945312
0, 1, 38, 1400.469604492188
0, 1, 39, 1527.581298828125
0, 1, 40, 1458.756469726562
0, 1, 41, 1489.519287109375
0, 1, 42, 1495.433715820312
0, 1, 43, 1497.36767578125
0, 1, 44, 1448.304077148438
0, 1, 45, 1484.830932617188
0, 1, 46, 1418.488403320312
0, 1, 47, 1429.867431640625
0, 1, 48, 1429.902954101562
0, 1, 49, 1485.202514648438
0, 1, 50, 1443.114868164062
0, 1, 51, 1473.381103515625
0, 1, 52, 1479.808227539062
0, 1, 53, 1473.0146484375
0, 1, 54, 1503.028564453125
0, 1, 55, 1492.4462890625
0, 1, 56, 1468.6962890625
0, 1, 57, 1458.285522460938
0, 1, 58, 1431.597045898438
0, 1, 59, 1483.5771484375
0, 1, 60, 1465.864501953125
0, 1, 61, 1448.70703125
0, 1, 62, 1453.794677734375
0, 1, 63, 1410.2841796875
0, 1, 64, 1474.151611328125
0, 1, 65, 1425.513671875
0, 1, 66, 1443.701293945312
0, 1, 67, 1457.024291992188
0, 1, 68, 1387.537353515625
0, 1, 69, 1460.807739257812
0, 1, 70, 1430.207397460938
0, 1, 71, 1497.115966796875
0, 1, 72, 1439.109497070312
0, 1, 73, 1487.781372070312
0, 1, 74, 1469.577758789062
0, 1, 75, 1477.324462890625
0, 1, 76, 1456.568725585938
0, 1, 77, 1467.325073242188
0, 1, 78, 1447.488891601562
0, 1, 79, 1506.31103515625
0, 1, 80, 1457.944580078125
0, 1, 81, 1425.572875976562
0, 1, 82, 1478.313110351562
0, 1, 83, 1460.689575195312
0, 1, 84, 1534.325561523438
0, 1, 85, 1454.181030273438
0, 1, 86, 1402.821166992188
0, 1, 87, 1419.635009765625
0, 1, 88, 1471.92724609375
0, 1, 89, 1476.08203125
0, 1, 90, 1424.83642578125
0, 1, 91, 1458.0654296875
0, 1, 92, 1413.389526367188
0, 1, 93, 1460.84814453125
0, 1, 94, 1465.725463867188
0, 1, 95, 1422.734375
0, 1, 96, 1499.508178710938
0, 1, 97, 1517.576904296875
0, 1, 98, 1474.949462890625
0, 1, 99, 1417.245361328125
0, 1, 100, 1450.503784179688
0, 1, 101, 1413.771850585938
0, 1, 102, 1437.104614257812
0, 1, 103, 1415.98193359375
0, 1, 104, 1404.68798828125
0, 1, 105, 1461.001098632812
0, 1, 106, 1368.939331054688
0, 1, 107, 1020.112060546875
0, 1, 108, 409.7273254394531
0, 1, 109, 92.96498870849609
0, 1, 110, 61.36799240112305
0, 1, 111, 56.23214340209961
0, 1, 112, 43.36811828613281
0, 1, 113, 36.48589324951172
0, 1, 114, 36.04189682006836
0, 1, 115, 40.72583389282227
0, 1, 116, 34.48979187011719
0, 1, 117, 36.02915191650391
0, 1, 118, 42.08816909790039
0, 1, 119, 36.01988983154297
0, 1, 120, 33.18111801147461
0, 1, 121, 23.80767822265625
0, 1, 122, 25.47630310058594
0, 1, 123, 22.82622909545898
0, 1, 124, 28.7434253692627
0, 1, 125, 20.74735450744629
0, 1, 126, 17.98551368713379
0, 1, 127, 21.58980941772461
0, 2, 0, 18.00857925415039
0, 2, 1, 21.65377616882324
0, 2, 2, 22.38699913024902
0, 2, 3, 27.26465797424316
0, 2, 4, 21.78508758544922
0, 2, 5, 29.3565788269043
0, 2, 6, 22.91356086730957
0, 2, 7, 22.12605667114258
0, 2, 8, 25.01662254333496
0, 2, 9, 30.07260513305664
0, 2, 10, 29.38323020935059
0, 2, 11, 28.56162071228027
0, 2, 12, 42.9822998046875
0, 2, 13, 50.53677749633789
0, 2, 14, 47.69432830810547
0, 2, 15, 41.12177658081055
0, 2, 16, 65.44335174560547
0, 2, 17, 79.66627502441406
0, 2, 18, 145.3196716308594
0, 2, 19, 605.1932983398438
0, 2, 20, 1287.322875976562
0, 2, 21, 1439.17041015625
0, 2, 22, 1454.695556640625
0, 2, 23, 1405.68994140625
0, 2, 24, 1440.534545898438
0, 2, 25, 1522.119750976562
0, 2, 26, 1550.879150390625
0, 2, 27, 1455.712280273438
0, 2, 28, 1462.842895507812
0, 2, 29, 1463.67578125
0, 2, 30, 1461.75048828125
0, 2, 31, 1537.0556640625
0, 2, 32, 1508.375610351562
0, 2, 33, 1445.430053710938
0, 2, 34, 1471.369140625
0, 2, 35, 1473.478637695312
0, 2, 36, 1528.871948242188
0, 2, 37, 1537.81201171875
0, 2, 38, 1500.264526367188
0, 2, 39, 1464.105834960938
0, 2, 40, 1507.229125976562
0, 2, 41, 1521.46875
0, 2, 42, 1507.7177734375
0, 2, 43, 1549.991577148438
0, 2, 44, 1460.932983398438
0, 2, 45, 1481.559814453125
0, 2, 46, 1428.062744140625
0, 2, 47, 1444.753540039062
0, 2, 48, 1401.186401367188
0, 2, 49, 1463.106323242188
0, 2, 50, 1440.317504882812
0, 2, 51, 1450.367919921875
0, 2, 52, 1495.613891601562
0, 2, 53, 1520.509521484375
0, 2, 54, 1525.28125
0, 2, 55, 1490.491088867188
0, 2, 56, 1460.494873046875
0, 2, 57, 1416.90234375
0, 2, 58, 1452.767578125
0, 2, 59, 1447.409057617188
0, 2, 60, 1472.965942382812
0, 2, 61, 1449.859741210938
0, 2, 62, 1472.481811523438
0, 2, 63, 1501.853271484375
0, 2, 64, 1456.5849609375
0, 2, 65, 1423.642944335938
0, 2, 66, 1489.717895507812
0, 2, 67, 1507.350341796875
0, 2, 68, 1543.15283203125
0, 2, 69, 1537.40625
0, 2, 70, 1507.970336914062
0, 2, 71, 1465.033081054688
0, 2, 72, 1519.37548828125
0, 2, 73, 1518.922485351562
0, 2, 74, 1490.445556640625
0, 2, 75, 1505.067993164062
0, 2, 76, 1447.839599609375
0, 2, 77, 1497.70068359375
0, 2, 78, 1434.980834960938
0, 2, 79, 1538.406372070312
0, 2, 80, 1475.297119140625
0, 2, 81, 1463.499877929688
0, 2, 82, 1557.5546875
0, 2, 83, 1513.976440429688
0, 2, 84, 1497.457641601562
0, 2, 85, 1515.088989257812
0, 2, 86, 1541.302490234375
0, 2, 87, 1487.768676757812
0, 2, 88, 1538.139770507812
0, 2, 89, 1461.848510742188
0, 2, 90, 1433.666870117188
0, 2, 91, 1402.402709960938
0, 2, 92, 1474.818481445312
0, 2, 93, 1492.841918945312
0, 2, 94, 1451.376708984375
0, 2, 95, 1546.282104492188
0, 2, 96, 1517.664428710938
0, 2, 97, 1459.15625
0, 2, 98, 1467.74853515625
0, 2, 99, 1403.487060546875
0, 2, 100, 1466.130004882812
0, 2, 101, 1482.124267578125
0, 2, 102, 1465.412353515625
0, 2, 103, 1386.779174804688
0, 2, 104, 1413.194458007812
0, 2, 105, 1397.3544921875
0, 2, 106, 1463.442016601562
0, 2, 107, 1276.9716796875
0, 2, 108, 617.1648559570312
0, 2, 109, 173.0916290283203
0, 2, 110, 67.33990478515625
0, 2, 111, 56.68132781982422
0, 2, 112, 44.50063323974609
0, 2, 113, 44.46844863891602
0, 2, 114, 40.36904907226562
0, 2, 115, 44.28335952758789
0, 2, 116, 37.48607635498047
0, 2, 117, 32.70186233520508
0, 2, 118, 27.56021690368652
0, 2, 119, 31.17815589904785
0, 2, 120, 26.53039360046387
0, 2, 121, 20.59773635864258
0, 2, 122, 30.52144813537598
0, 2, 123, 23.58248901367188
0, 2, 124, 25.43975067138672
0, 2, 125, 26.95480728149414
0, 2, 126, 20.18823051452637
0, 2, 127, 20.25043869018555
0, 3, 0, 19.1936092376709
0, 3, 1, 31.45712471008301
0, 3, 2, 26.34700965881348
0, 3, 3, 25.9086742401123
0, 3, 4, 16.35787010192871
0, 3, 5, 22.33838081359863
0, 3, 6, 31.42166900634766
0, 3, 7, 26.54565048217773
0, 3, 8, 26.63376998901367
0, 3, 9, 28.77815246582031
0, 3, 10, 35.0732421875
0, 3, 11, 32.28458404541016
0, 3, 12, 42.64404678344727
0, 3, 13, 50.03583145141602
0, 3, 14, 60.09511947631836
0, 3, 15, 57.67610549926758
0, 3, 16, 66.57154846191406
0, 3, 17, 87.38484954833984
0, 3, 18, 237.4671325683594
0, 3, 19, 879.36474609375
0, 3, 20, 1387.369262695312
0, 3, 21, 1505.452026367188
0, 3, 22, 1464.251586914062
0, 3, 23, 1451.673095703125
0, 3, 24, 1439.607055664062
0, 3, 25, 1465.493774414062
0, 3, 26, 1492.996215820312
0, 3, 27, 1463.275512695312
0, 3, 28, 1490.037475585938
0, 3, 29, 1545.004028320312
0, 3, 30, 1571.364013671875
0, 3, 31, 1508.0673828125
0, 3, 32, 1542.471557617188
0, 3, 33, 1542.271728515625
0, 3, 34, 1486.308837890625
0, 3, 35, 1462.362426757812
0, 3, 36, 1449.422729492188
0, 3, 37, 1507.792602539062
0, 3, 38, 1514.75927734375
0, 3, 39, 1440.313842773438
0, 3, 40, 1442.413818359375
0, 3, 41, 1560.400634765625
0, 3, 42, 1458.607788085938
0, 3, 43, 1459.248291015625
0, 3, 44, 1451.513061523438
0, 3, 45, 1511.143310546875
0, 3, 46, 1506.132446289062
0, 3, 47, 1441.201171875
0, 3, 48, 1508.757568359375
0, 3, 49, 1454.237060546875
0, 3, 50, 1489.068725585938
0, 3, 51, 1538.549560546875
0, 3, 52, 1537.427612304688
0, 3, 53, 1467.280517578125
0, 3, 54, 1537.056396484375
0, 3, 55, 1504.358154296875
0, 3, 56, 1438.006958007812
0, 3, 57, 1499.57275390625
0, 3, 58, 1511.857543945312
0, 3, 59, 1510.568969726562
0, 3, 60, 1535.798828125
0, 3, 61, 1485.045654296875
0, 3, 62, 1493.111694335938
0, 3, 63, 1496.028198242188
0, 3, 64, 1498.360595703125
0, 3, 65, 1516.8046875
0, 3, 66, 1557.157470703125
0, 3, 67, 1547.525756835938
0, 3, 68, 1448.69775390625
0, 3, 69, 1460.25439453125
0, 3, 70, 1391.797973632812
0, 3, 71, 1464.024047851562
0, 3, 72, 1551.594482421875
0, 3, 73, 1496.988403320312
0, 3, 74, 1467.681518554688
0, 3, 75, 1460.220703125
0, 3, 76, 1574.3115234375
0, 3, 77, 1540.18603515625
0, 3, 78, 1427.71923828125
0, 3, 79, 1493.091552734375
0, 3, 80, 1461.431274414062
0, 3, 81, 1472.312622070312
0, 3, 82, 1555.439819335938
0, 3, 83, 1511.868408203125
0, 3, 84, 1558.8994140625
0, 3, 85, 1480.309936523438
0, 3, 86, 1524.478149414062
0, 3, 87, 1532.156494140625
0, 3, 88, 1461.395874023438
0, 3, 89, 1455.391357421875
0, 3, 90, 1449.546630859375
0, 3, 91, 1421.716674804688
0, 3, 92, 1512.042602539062
0, 3, 93, 1500.40087890625
0, 3, 94, 1512.680908203125
0, 3, 95, 1546.133056640625
0, 3, 96, 1517.363159179688
0, 3, 97, 1459.346923828125
0, 3, 98, 1435.277465820312
0, 3, 99, 1463.645629882812
0, 3, 100, 1470.410888671875
0, 3, 101, 1473.730590820312
0, 3, 102, 1519.34130859375
0, 3, 103, 1552.686889648438
0, 3, 104, 1496.698974609375
0, 3, 105, 1518.302978515625
0, 3, 106, 1475.645874023438
0, 3, 107, 1340.119873046875
0, 3, 108, 876.6875610351562
0, 3, 109, 265.562255859375
0, 3, 110, 104.5727005004883
0, 3, 111, 65.17594146728516
0, 3, 112, 57.74514007568359
0, 3, 113, 56.25934219360352
0, 3, 114, 52.34708404541016
0, 3, 115, 49.67046356201172
0, 3, 116, 39.86406326293945
0, 3, 117, 39.30661010742188
0, 3, 118, 39.28502655029297
0, 3, 119, 29.08633422851562
0, 3, 120, 31.91743850708008
0, 3, 121, 21.22249794006348
0, 3, 122, 23.74540710449219
0, 3, 123, 22.48470687866211
0, 3, 124, 26.48434638977051
0, 3, 125, 28.26431083679199
0, 3, 126, 24.18280029296875
0, 3, 127, 16.3239574432373
0, 4, 0, 22.98175621032715
0, 4, 1, 19.8591480255127
0, 4, 2, 20.30537986755371
0, 4, 3, 25.7773494720459
0, 4, 4, 28.43082809448242
0, 4, 5, 32.13042449951172
0, 4, 6, 29.56456756591797
0, 4, 7, 30.92239570617676
0, 4, 8, 30.78683280944824
0, 4, 9, 43.84378814697266
0, 4, 10, 32.98648071289062
0, 4, 11, 44.5665283203125
0, 4, 12, 41.16991424560547
0, 4, 13, 50.56974792480469
0, 4, 14, 50.58090972900391
0, 4, 15, 63.92631149291992
0, 4, 16, 76.02301025390625
0, 4, 17, 114.8530960083008
0, 4, 18, 442.8738098144531
0, 4, 19, 1180.205688476562
0, 4, 20, 1445.64208984375
0, 4, 21, 1417.706665039062
0, 4, 22, 1431.094360351562
0, 4, 23, 1452.821899414062
0, 4, 24, 1472.318603515625
0, 4, 25, 1409.322021484375
0, 4, 26, 1540.659301757812
0, 4, 27, 1545.998291015625
0, 4, 28, 1508.79052734375
0, 4, 29, 1513.971069335938
0, 4, 30, 1529.958984375
0, 4, 31, 1573.56005859375
0, 4, 32, 1513.269165039062
0, 4, 33, 1489.406616210938
0, 4, 34, 1469.353271484375
0, 4, 35, 1555.93505859375
0, 4, 36, 1501.786376953125
0, 4, 37, 1514.507080078125
0, 4, 38, 1533.751342773438
0, 4, 39, 1471.337524414062
0, 4, 40, 1511.989868164062
0, 4, 41, 1585.419311523438
0, 4, 42, 1561.070190429688
0, 4, 43, 1474.10400390625
0, 4, 44, 1498.889892578125
0, 4, 45, 1521.331909179688
0, 4, 46, 1468.733276367188
0, 4, 47, 1503.894775390625
0, 4, 48, 1523.452026367188
0, 4, 49, 1469.361938476562
0, 4, 50, 1517.765380859375
0, 4, 51, 1488.160278320312
0, 4, 52, 1495.800659179688
0, 4, 53, 1459.45556640625
0, 4, 54, 1444.532836914062
0, 4, 55, 1524.221923828125
0, 4, 56, 1455.443481445312
0, 4, 57, 1492.91162109375
0, 4, 58, 1459.349609375
0, 4, 59, 1463.309692382812
0, 4, 60, 1527.207763671875
0, 4, 61, 1500.708251953125
0, 4, 62, 1501.416137695312
0, 4, 63, 1544.864990234375
0, 4, 64, 1593.891967773438
0, 4, 65, 1423.773681640625
0, 4, 66, 1509.300903320312
0, 4, 67, 1520.65283203125
0, 4, 68, 1502.4794921875
0, 4, 69, 1472.989013671875
0, 4, 70, 1547.524780273438
0, 4, 71, 1521.976440429688
0, 4, 72, 1521.833374023438
0, 4, 73, 1495.871826171875
0, 4, 74, 1486.135498046875
0, 4, 75, 1533.074096679688
0, 4, 76, 1489.263671875
0, 4, 77, 1505.838623046875
0, 4, 78, 1502.328979492188
0, 4, 79, 1484.056396484375
0, 4, 80, 1512.318115234375
0, 4, 81, 1526.193237304688
0, 4, 82, 1567.048461914062
0, 4, 83, 1502.987670898438
0, 4, 84, 1542.375854492188
0, 4, 85, 1549.529663085938
0, 4, 86, 1532.466918945312
0, 4, 87, 1497.192138671875
0, 4, 88, 1512.7294921875
0, 4, 89, 1483.638549804688
0, 4, 90, 1542.67333984375
0, 4, 91, 1552.8701171875
0, 4, 92, 1486.383544921875
0, 4, 93, 1520.117431640625
0, 4, 94, 1493.33056640625
0, 4, 95, 1509.379516601562
0, 4, 96, 1441.04638671875
0, 4, 97, 1413.033203125
0, 4, 98, 1556.3125
0, 4, 99, 1508.40869140625
0, 4, 100, 1489.52490234375
0, 4, 101, 1450.86669921875
0, 4, 102, 1444.570434570312
0, 4, 103, 1515.542114257812
0, 4, 104, 1510.249267578125
0, 4, 105, 1555.814086914062
0, 4, 106, 1480.916015625
0, 4, 107, 1453.724609375
0, 4, 108, 1122.526245117188
0, 4, 109, 441.4705505371094
0, 4, 110, 99.98820495605469
0, 4, 111, 75.56435394287109
0, 4, 112, 64.95262908935547
0, 4, 113, 45.94037246704102
0, 4, 114, 52.64525985717773
0, 4, 115, 44.11672973632812
0, 4, 116, 41.93184661865234
0, 4, 117, 37.8168830871582
0, 4, 118, 35.88349533081055
0, 4, 119, 35.48442459106445
0, 4, 120, 31.48650169372559
0, 4, 121, 24.75491905212402
0, 4, 122, 28.51311874389648
0, 4, 123, 28.50727653503418
0, 4, 124, 22.4942626953125
0, 4, 125, 34.72969436645508
0, 4, 126, 25.29834365844727
0, 4, 127, 20.52460479736328
0, 5, 0, 19.27831649780273
0, 5, 1, 22.32880592346191
0, 5, 2, 26.28918266296387
0, 5, 3, 24.76994895935059
0, 5, 4, 19.9456672668457
0, 5, 5, 35.50848770141602
0, 5, 6, 29.73942947387695
0, 5, 7, 30.46063995361328
0, 5, 8, 32.71220779418945
0, 5, 9, 34.12667846679688
0, 5, 10, 30.52058601379395
0, 5, 11, 36.90995407104492
0, 5, 12, 39.18149948120117
0, 5, 13, 51.37893676757812
0, 5, 14, 68.33668518066406
0, 5, 15, 78.09845733642578
0, 5, 16, 79.96680450439453
0, 5, 17, 158.2470245361328
0, 5, 18, 680.661865234375
0, 5, 19, 1349.580932617188
0, 5, 20, 1525.339721679688
0, 5, 21, 1494.024780273438
0, 5, 22, 1496.775390625
0, 5, 23, 1536.363525390625
0, 5, 24, 1464.701416015625
0, 5, 25, 1424.693969726562
0, 5, 26, 1527.37158203125
0, 5, 27, 1538.622680664062
0, 5, 28, 1489.881591796875
0, 5, 29, 1522.812622070312
0, 5, 30, 1492.090087890625
0, 5, 31, 1505.303466796875
0, 5, 32, 1594.904052734375
0, 5, 33, 1502.462280273438
0, 5, 34, 1483.813598632812
0, 5, 35, 1508.695678710938
0, 5, 36, 1444.450317382812
0, 5, 37, 1533.208862304688
0, 5, 38, 1546.443969726562
0, 5, 39, 1548.205200195312
0, 5, 40, 1499.727172851562
0, 5, 41, 1480.376708984375
0, 5, 42, 1546.584106445312
0, 5, 43, 1535.07177734375
0, 5, 44, 1540.608520507812
0, 5, 45, 1509.730712890625
0, 5, 46, 1494.794067382812
0, 5, 47, 1484.873779296875
0, 5, 48, 1498.658325195312
0, 5, 49, 1518.483642578125
0, 5, 50, 1502.64404296875
0, 5, 51, 1520.14599609375
0, 5, 52, 1427.964477539062
0, 5, 53, 1522.2939453125
0, 5, 54, 1523.662353515625
0, 5, 55, 1522.1572265625
0, 5, 56, 1488.076538085938
0, 5, 57, 1541.211791992188
0, 5, 58, 1504.162109375
0, 5, 59, 1484.7578125
0, 5, 60, 1538.5625
0, 5, 61, 1454.004272460938
0, 5, 62, 1587.354125976562
0, 5, 63, 1431.478881835938
0, 5, 64, 1490.33056640625
0, 5, 65, 1468.1171875
0, 5, 66, 1524.77978515625
0, 5, 67, 1567.110961914062
0, 5, 68, 1462.427734375
0, 5, 69, 1483.220703125
0, 5, 70, 1489.75537109375
0, 5, 71, 1467.582153320312
0, 5, 72, 1537.977416992188
0, 5, 73, 1460.300170898438
0, 5, 74, 1491.8056640625
0, 5, 75, 1492.444091796875
0, 5, 76, 1481.085693359375
0, 5, 77, 1516.897216796875
0, 5, 78, 1524.844848632812
0, 5, 79, 1507.786254882812
0, 5, 80, 1520.25732421875
0, 5, 81, 1602.779907226562
0, 5, 82, 1526.2490234375
0, 5, 83, 1490.535522460938
0, 5, 84, 1529.369262695312
0, 5, 85, 1516.4609375
0, 5, 86, 1554.556030273438
0, 5, 87, 1474.634643554688
0, 5, 88, 1501.5908203125
0, 5, 89, 1481.585571289062
0, 5, 90, 1483.216552734375
0, 5, 91, 1547.355712890625
0, 5, 92, 1479.375
0, 5, 93, 1556.75
0, 5, 94, 1506.258911132812
0, 5, 95, 1560.411743164062
0, 5, 96, 1496.343505859375
0, 5, 97, 1505.228393554688
0, 5, 98, 1508.013427734375
0, 5, 99, 1542.446044921875
0, 5, 100, 1431.49609375
0, 5, 101, 1428.935546875
0, 5, 102, 1512.179321289062
0, 5, 103, 1472.69775390625
0, 5, 104, 1464.171264648438
0, 5, 105, 1487.30322265625
0, 5, 106, 1454.64306640625
0, 5, 107, 1398.120483398438
0, 5, 108, 1287.711547851562
0, 5, 109, 728.2640991210938
0, 5, 110, 194.6038055419922
0, 5, 111, 92.28688812255859
0, 5, 112, 77.8499755859375
0, 5, 113, 64.31084442138672
0, 5, 114, 60.41259765625
0, 5, 115, 51.74330902099609
0, 5, 116, 42.56572341918945
0, 5, 117, 31.01701736450195
0, 5, 118, 43.28126907348633
0, 5, 119, 26.17177963256836
0, 5, 120, 30.40358543395996
0, 5, 121, 19.65799903869629
0, 5, 122, 30.78926277160645
0, 5, 123, 28.2519359588623
0, 5, 124, 27.83623313903809
0, 5, 125, 22.76276588439941
0, 5, 126, 20.90176582336426
0, 5, 127, 18.65350532531738
0, 6, 0, 22.11104202270508
0, 6, 1, 27.97271156311035
0, 6, 2, 28.72474479675293
0, 6, 3, 27.73075866699219
0, 6, 4, 22.3387336730957
0, 6, 5, 34.61822128295898
0, 6, 6, 40.2241325378418
0, 6, 7, 35.1283073425293
0, 6, 8, 37.14932250976562
0, 6, 9, 43.0194206237793
0, 6, 10, 40.24472427368164
0, 6, 11, 36.59103775024414
0, 6, 12, 46.02011871337891
0, 6, 13, 55.93581390380859
0, 6, 14, 64.65523529052734
0, 6, 15, 83.42990875244141
0, 6, 16, 112.5186309814453
0, 6, 17, 297.791259765625
0, 6, 18, 900.5973510742188
0, 6, 19, 1377.25244140625
0, 6, 20, 1433.050048828125
0, 6, 21, 1530.221557617188
0, 6, 22, 1508.240600585938
0, 6, 23, 1527.983276367188
0, 6, 24, 1477.798461914062
0, 6, 25, 1531.362182617188
0, 6, 26, 1514.2890625
0, 6, 27, 1520.280151367188
0, 6, 28, 1556.359741210938
0, 6, 29, 1568.02685546875
0, 6, 30, 1516.10302734375
0, 6, 31, 1493.9013671875
0, 6, 32, 1524.5263671875
0, 6, 33, 1489.545654296875
0, 6, 34, 1556.142456054688
0, 6, 35, 1503.99609375
0, 6, 36, 1438.913818359375
0, 6, 37, 1546.5810546875
0, 6, 38, 1523.140869140625
0, 6, 39, 1524.419067382812
0, 6, 40, 1459.549560546875
0, 6, 41, 1441.4111328125
0, 6, 42, 1512.30517578125
0, 6, 43, 1483.773315429688
0, 6, 44, 1429.8037109375
0, 6, 45, 1547.89892578125
0, 6, 46, 1553.635131835938
0, 6, 47, 1490.00830078125
0, 6, 48, 1528.098876953125
0, 6, 49, 1513.7919921875
0, 6, 50, 1574.942138671875
0, 6, 51, 1501.771606445312
0, 6, 52, 1563.947265625
0, 6, 53, 1470.921508789062
0, 6, 54, 1505.098388671875
0, 6, 55, 1576.507568359375
0, 6, 56, 1521.83984375
0, 6, 57, 1508.635131835938
0, 6, 58, 1469.449951171875
0, 6, 59, 1520.722290039062
0, 6, 60, 1472.881591796875
0, 6, 61, 1573.24365234375
0, 6, 62, 1548.672729492188
0, 6, 63, 1500.10498046875
0, 6, 64, 1413.139404296875
0, 6, 65, 1490.697021484375
0, 6, 66, 1515.2626953125
0, 6, 67, 1509.785888671875
0, 6, 68, 1548.1103515625
0, 6, 69, 1484.241088867188
0, 6, 70, 1523.655517578125
0, 6, 71, 1472.628295898438
0, 6, 72, 1600.5517578125
0, 6, 73, 1487.678466796875
0, 6, 74, 1556.702514648438
0, 6, 75, 1540.32080078125
0, 6, 76, 1570.788452148438
0, 6, 77, 1502.708374023438
0, 6, 78, 1445.462036132812
0, 6, 79, 1556.931274414062
0, 6, 80, 1483.605224609375
0, 6, 81, 1484.096923828125
0, 6, 82, 1502.819091796875
0, 6, 83, 1525.525756835938
0, 6, 84, 1521.78271484375
0, 6, 85, 1534.214599609375
0, 6, 86, 1535.506103515625
0, 6, 87, 1575.781494140625
0, 6, 88, 1475.100708007812
0, 6, 89, 1565.731567382812
0, 6, 90, 1491.979614257812
0, 6, 91, 1541.109008789062
0, 6, 92, 1484.620727539062
0, 6, 93, 1496.013916015625
0, 6, 94, 1469.444946289062
0, 6, 95, 1506.89599609375
0, 6, 96, 1524.711669921875
0, 6, 97, 1503.118774414062
0, 6, 98, 1495.50927734375
0, 6, 99, 1483.092651367188
0, 6, 100, 1525.482177734375
0, 6, 101, 1512.917236328125
0, 6, 102, 1544.672485351562
0, 6, 103, 1499.826416015625
0, 6, 104, 1463.608642578125
0, 6, 105, 1486.091552734375
0, 6, 106, 1496.589599609375
0, 6, 107, 1507.0048828125
0, 6, 108, 1410.061767578125
0, 6, 109, 925.3477783203125
0, 6, 110, 284.6677551269531
0, 6, 111, 95.29649353027344
0, 6, 112, 75.4593505859375
0, 6, 113, 56.25037002563477
0, 6, 114, 53.8344612121582
0, 6, 115, 43.14771270751953
0, 6, 116, 41.25502395629883
0, 6, 117, 39.75292205810547
0, 6, 118, 38.511962890625
0, 6, 119, 35.98867797851562
0, 6, 120, 36.45570755004883
0, 6, 121, 36.64918899536133
0, 6, 122, 29.19030952453613
0, 6, 123, 22.44546508789062
0, 6, 124, 33.44531631469727
0, 6, 125, 32.02257919311523
0, 6, 126, 21.51841163635254
0, 6, 127, 24.79865074157715
0, 7, 0, 25.17314529418945
0, 7, 1, 25.36319160461426
0, 7, 2, 19.76514625549316
0, 7, 3, 21.18864250183105
0, 7, 4, 24.31099128723145
0, 7, 5, 37.06764221191406
0, 7, 6, 33.18194580078125
0, 7, 7, 34.26344299316406
0, 7, 8, 26.61845207214355
0, 7, 9, 34.82712173461914
0, 7, 10, 42.07045745849609
0, 7, 11, 47.11151885986328
0, 7, 12, 46.9796142578125
0, 7, 13, 51.9589729309082
0, 7, 14, 63.12177276611328
0, 7, 15, 77.48928833007812
0, 7, 16, 135.4964599609375
0, 7, 17, 456.8831481933594
0, 7, 18, 1100.256103515625
0, 7, 19, 1495.3271484375
0, 7, 20, 1486.311279296875
0, 7, 21, 1366.086791992188
0, 7, 22, 1486.540649414062
0, 7, 23, 1454.641357421875
0, 7, 24, 1508.633178710938
0, 7, 25, 1592.588012695312
0, 7, 26, 1516.000366210938
0, 7, 27, 1510.315185546875
0, 7, 28, 1543.350830078125
0, 7, 29, 1574.647216796875
0, 7, 30, 1551.487670898438
0, 7, 31, 1435.509643554688
0, 7, 32, 1544.772094726562
0, 7, 33, 1489.61083984375
0, 7, 34, 1476.642456054688
0, 7, 35, 1523.839721679688
0, 7, 36, 1472.700927734375
0, 7, 37, 1596.0947265625
0, 7, 38, 1501.921875
0, 7, 39, 1495.21044921875
0, 7, 40, 1541.809936523438
0, 7, 41, 1461.239379882812
0, 7, 42, 1488.663452148438
0, 7, 43, 1444.536376953125
0, 7, 44, 1491.533325195312
0, 7, 45, 1473.929809570312
0, 7, 46, 1510.421875
0, 7, 47, 1566.234130859375
0, 7, 48, 1525.809692382812
0, 7, 49, 1540.359252929688
0, 7, 50, 1518.16259765625
0, 7, 51, 1493.89794921875
0, 7, 52, 1521.781127929688
0, 7, 53, 1495.104614257812
0, 7, 54, 1589.64501953125
0, 7, 55, 1476.477661132812
0, 7, 56, 1546.50927734375
0, 7, 57, 1513.475708007812
0, 7, 58, 1549.369140625
0, 7, 59, 1541.9814453125
0, 7, 60, 1549.909912109375
0, 7, 61, 1497.484741210938
0, 7, 62, 1430.644409179688
0, 7, 63, 1512.331909179688
0, 7, 64, 1546.8505859375
0, 7, 65, 1524.837646484375
0, 7, 66, 1537.23046875
0, 7, 67, 1584.039672851562
0, 7, 68, 1536.363647460938
0, 7, 69, 1513.02978515625
0, 7, 70, 1494.227905273438
0, 7, 71, 1521.962890625
0, 7, 72, 1519.921508789062
0, 7, 73, 1517.40283203125
0, 7, 74, 1577.978637695312
0, 7, 75, 1532.9619140625
0, 7, 76, 1557.880615234375
0, 7, 77, 1511.654418945312
0, 7, 78, 1508.072021484375
0, 7, 79, 1425.02685546875
0, 7, 80, 1491.335693359375
0, 7, 81, 1494.631469726562
0, 7, 82, 1530.25732421875
0, 7, 83, 1543.463745117188
0, 7, 84, 1588.7421875
0, 7, 85, 1481.158447265625
0, 7, 86, 1501.36572265625
0, 7, 87, 1501.18115234375
0, 7, 88, 1498.400024414062
0, 7, 89, 1557.152465820312
0, 7, 90, 1520.184204101562
0, 7, 91, 1566.821533203125
0, 7, 92, 1531.885131835938
0, 7, 93, 1555.131713867188
0, 7, 94, 1537.912719726562
0, 7, 95, 1506.138793945312
0, 7, 96, 1509.823974609375
0, 7, 97, 1433.94921875
0, 7, 98, 1485.84375
0, 7, 99, 1522.209594726562
0, 7, 100, 1423.049194335938
0, 7, 101, 1464.55615234375
0, 7, 102, 1449.211669921875
0, 7, 103, 1428.701782226562
0, 7, 104, 1495.408813476562
0, 7, 105, 1525.953125
0, 7, 106, 1567.890380859375
0, 7, 107, 1478.49072265625
0, 7, 108, 1410.001953125
0, 7, 109, 1144.57177734375
0, 7, 110, 469.8780517578125
0, 7, 111, 127.1989288330078
0, 7, 112, 81.08107757568359
0, 7, 113, 67.08306884765625
0, 7, 114, 51.35448837280273
0, 7, 115, 48.78486251831055
0, 7, 116, 50.19249725341797
0, 7, 117, 44.51886367797852
0, 7, 118, 35.53562164306641
0, 7, 119, 36.50268173217773
0, 7, 120, 20.51855659484863
0, 7, 121, 31.65924835205078
0, 7, 122, 35.00801467895508
0, 7, 123, 39.64206314086914
0, 7, 124, 27.99010467529297
0, 7, 125, 25.53971290588379
0, 7, 126, 27.51620674133301
0, 7, 127, 19.45755195617676
0, 8, 0, 17.75815010070801
0, 8, 1, 27.22404289245605
0, 8, 2, 27.46428871154785
0, 8, 3, 25.81332778930664
0, 8, 4, 28.93130683898926
0, 8, 5, 28.18985748291016
0, 8, 6, 40.07802581787109
0, 8, 7, 29.12502479553223
0, 8, 8, 31.56218719482422
0, 8, 9, 45.83635711669922
0, 8, 10, 35.15559005737305
0, 8, 11, 44.92930221557617
0, 8, 12, 52.22960662841797
0, 8, 13, 70.75796508789062
0, 8, 14, 68.50602722167969
0, 8, 15, 90.85356903076172
0, 8, 16, 171.2317504882812
0, 8, 17, 679.5360107421875
0, 8, 18, 1277.640747070312
0, 8, 19, 1449.120971679688
0, 8, 20, 1420.447021484375
0, 8, 21, 1406.190551757812
0, 8, 22, 1485.408935546875
0, 8, 23, 1480.14013671875
0, 8, 24, 1438.623779296875
0, 8, 25, 1458.964721679688
0, 8, 26, 1510.68017578125
0, 8, 27, 1524.028076171875
0, 8, 28, 1474.79541015625
0, 8, 29, 1500.818969726562
0, 8, 30, 1494.860961914062
0, 8, 31, 1532.867431640625
0, 8, 32, 1507.645874023438
0, 8, 33, 1486.40673828125
0, 8, 34, 1530.546997070312
0, 8, 35, 1443.50732421875
0, 8, 36, 1497.306274414062
0, 8, 37, 1551.4208984375
0, 8, 38, 1555.864624023438
0, 8, 39, 1493.797973632812
0, 8, 40, 1530.041748046875
0, 8, 41, 1481.22021484375
0, 8, 42, 1541.709350585938
0, 8, 43, 1438.300048828125
0, 8, 44, 1544.39208984375
0, 8, 45, 1513.9541015625
0, 8, 46, 1593.193603515625
0, 8, 47, 1585.643798828125
0, 8, 48, 1541.423461914062
0, 8, 49, 1561.512939453125
0, 8, 50, 1509.60546875
