# TOPAS Version: 3.1.p3
# Parameter File: batch_inserts_236.txt
# Results for scorer Readout_Adipose
# Scored in component: MyBox
# X in 1 bin  of 0.75 cm
# Y in 512 bins of 0.0783984 cm
# Z in 128 bins of 0.078125 cm
# EnergyDeposit ( MeV ) : Sum   
0, 0, 0, 2.632664680480957
0, 0, 1, 2.24089789390564
0, 0, 2, 4.282644271850586
0, 0, 3, 1.810242652893066
0, 0, 4, 4.680420875549316
0, 0, 5, 2.506009340286255
0, 0, 6, 5.902203559875488
0, 0, 7, 7.807745933532715
0, 0, 8, 2.809814214706421
0, 0, 9, 4.789627552032471
0, 0, 10, 7.376631259918213
0, 0, 11, 4.12558126449585
0, 0, 12, 3.499302864074707
0, 0, 13, 6.477173805236816
0, 0, 14, 9.457291603088379
0, 0, 15, 9.022294044494629
0, 0, 16, 9.197919845581055
0, 0, 17, 10.25263595581055
0, 0, 18, 13.46398544311523
0, 0, 19, 43.66371917724609
0, 0, 20, 139.7260894775391
0, 0, 21, 224.9394836425781
0, 0, 22, 247.9998626708984
0, 0, 23, 256.4108581542969
0, 0, 24, 249.9261779785156
0, 0, 25, 258.5791015625
0, 0, 26, 234.4795227050781
0, 0, 27, 236.9435119628906
0, 0, 28, 272.8905029296875
0, 0, 29, 252.7241668701172
0, 0, 30, 231.8679504394531
0, 0, 31, 243.4147644042969
0, 0, 32, 263.8944702148438
0, 0, 33, 260.85400390625
0, 0, 34, 288.7159423828125
0, 0, 35, 267.3362731933594
0, 0, 36, 246.9883422851562
0, 0, 37, 252.1590270996094
0, 0, 38, 267.7999267578125
0, 0, 39, 230.7287902832031
0, 0, 40, 240.9253997802734
0, 0, 41, 264.4571838378906
0, 0, 42, 230.046142578125
0, 0, 43, 265.7574157714844
0, 0, 44, 252.4933776855469
0, 0, 45, 252.720947265625
0, 0, 46, 243.2752838134766
0, 0, 47, 253.8582458496094
0, 0, 48, 266.2919616699219
0, 0, 49, 273.8053588867188
0, 0, 50, 251.1274566650391
0, 0, 51, 252.7143859863281
0, 0, 52, 273.1531066894531
0, 0, 53, 293.1752319335938
0, 0, 54, 243.8208618164062
0, 0, 55, 241.0053863525391
0, 0, 56, 278.11328125
0, 0, 57, 262.5556640625
0, 0, 58, 247.0225830078125
0, 0, 59, 270.0689392089844
0, 0, 60, 234.6644897460938
0, 0, 61, 246.2850036621094
0, 0, 62, 258.2393493652344
0, 0, 63, 267.1599731445312
0, 0, 64, 254.5730895996094
0, 0, 65, 262.2101745605469
0, 0, 66, 277.274169921875
0, 0, 67, 249.1429748535156
0, 0, 68, 262.3957214355469
0, 0, 69, 261.1845092773438
0, 0, 70, 273.6016235351562
0, 0, 71, 239.2821350097656
0, 0, 72, 250.1575012207031
0, 0, 73, 258.1416320800781
0, 0, 74, 252.3977355957031
0, 0, 75, 242.0235900878906
0, 0, 76, 227.5022125244141
0, 0, 77, 263.6059265136719
0, 0, 78, 256.8747253417969
0, 0, 79, 277.5036010742188
0, 0, 80, 216.8820190429688
0, 0, 81, 268.4815063476562
0, 0, 82, 255.7099304199219
0, 0, 83, 245.4494476318359
0, 0, 84, 268.9090270996094
0, 0, 85, 232.2328186035156
0, 0, 86, 254.7047576904297
0, 0, 87, 252.4420013427734
0, 0, 88, 259.1485290527344
0, 0, 89, 282.8859558105469
0, 0, 90, 243.6429138183594
0, 0, 91, 281.8096923828125
0, 0, 92, 255.2607116699219
0, 0, 93, 250.3091888427734
0, 0, 94, 248.7004852294922
0, 0, 95, 248.68310546875
0, 0, 96, 274.0104064941406
0, 0, 97, 272.8136901855469
0, 0, 98, 274.2015075683594
0, 0, 99, 258.3209228515625
0, 0, 100, 258.6788330078125
0, 0, 101, 225.7132415771484
0, 0, 102, 233.0420379638672
0, 0, 103, 269.2182922363281
0, 0, 104, 255.4579620361328
0, 0, 105, 250.6024017333984
0, 0, 106, 244.9036102294922
0, 0, 107, 152.6324462890625
0, 0, 108, 37.87173461914062
0, 0, 109, 11.66870403289795
0, 0, 110, 12.9995698928833
0, 0, 111, 9.653285980224609
0, 0, 112, 6.469582080841064
0, 0, 113, 5.661744117736816
0, 0, 114, 8.46467399597168
0, 0, 115, 4.56086254119873
0, 0, 116, 4.888028621673584
0, 0, 117, 5.8297438621521
0, 0, 118, 7.305930614471436
0, 0, 119, 4.485512256622314
0, 0, 120, 2.460370302200317
0, 0, 121, 3.197280645370483
0, 0, 122, 3.560991525650024
0, 0, 123, 4.286090850830078
0, 0, 124, 4.668357372283936
0, 0, 125, 3.461813449859619
0, 0, 126, 3.96160101890564
0, 0, 127, 6.71720027923584
0, 1, 0, 7.916331768035889
0, 1, 1, 3.014113664627075
0, 1, 2, 5.269597053527832
0, 1, 3, 1.963312983512878
0, 1, 4, 4.96135425567627
0, 1, 5, 4.073659420013428
0, 1, 6, 3.602341175079346
0, 1, 7, 6.110124111175537
0, 1, 8, 8.130331993103027
0, 1, 9, 4.228292465209961
0, 1, 10, 7.406777858734131
0, 1, 11, 11.53250026702881
0, 1, 12, 8.889054298400879
0, 1, 13, 10.17915439605713
0, 1, 14, 7.883487701416016
0, 1, 15, 9.65091609954834
0, 1, 16, 11.07398891448975
0, 1, 17, 10.44782543182373
0, 1, 18, 19.7141056060791
0, 1, 19, 65.17270660400391
0, 1, 20, 198.0101013183594
0, 1, 21, 254.2797088623047
0, 1, 22, 296.6748352050781
0, 1, 23, 282.8258056640625
0, 1, 24, 275.1475219726562
0, 1, 25, 290.5917053222656
0, 1, 26, 270.996826171875
0, 1, 27, 305.8702087402344
0, 1, 28, 298.5130004882812
0, 1, 29, 295.9567260742188
0, 1, 30, 281.1197509765625
0, 1, 31, 293.1447143554688
0, 1, 32, 290.5894165039062
0, 1, 33, 295.5140686035156
0, 1, 34, 293.8442077636719
0, 1, 35, 280.0856018066406
0, 1, 36, 306.04443359375
0, 1, 37, 295.6705017089844
0, 1, 38, 282.0947570800781
0, 1, 39, 295.6434936523438
0, 1, 40, 266.3841857910156
0, 1, 41, 285.8382568359375
0, 1, 42, 288.147216796875
0, 1, 43, 331.3471069335938
0, 1, 44, 280.3228759765625
0, 1, 45, 291.4623718261719
0, 1, 46, 259.931884765625
0, 1, 47, 308.546630859375
0, 1, 48, 284.0169372558594
0, 1, 49, 300.9895935058594
0, 1, 50, 261.9198913574219
0, 1, 51, 272.666259765625
0, 1, 52, 293.5636291503906
0, 1, 53, 305.2674560546875
0, 1, 54, 273.0390014648438
0, 1, 55, 291.9906005859375
0, 1, 56, 279.6328735351562
0, 1, 57, 298.1583862304688
0, 1, 58, 310.5941467285156
0, 1, 59, 291.0023803710938
0, 1, 60, 297.6838989257812
0, 1, 61, 276.1176452636719
0, 1, 62, 306.9117736816406
0, 1, 63, 286.4907531738281
0, 1, 64, 287.8059692382812
0, 1, 65, 294.6818542480469
0, 1, 66, 292.4396057128906
0, 1, 67, 290.6440124511719
0, 1, 68, 277.824462890625
0, 1, 69, 279.9173889160156
0, 1, 70, 273.7278137207031
0, 1, 71, 272.8266296386719
0, 1, 72, 284.4283752441406
0, 1, 73, 303.4688110351562
0, 1, 74, 302.9241638183594
0, 1, 75, 294.5474853515625
0, 1, 76, 285.0614929199219
0, 1, 77, 290.4035034179688
0, 1, 78, 297.2966918945312
0, 1, 79, 302.0127868652344
0, 1, 80, 295.5032958984375
0, 1, 81, 303.6640014648438
0, 1, 82, 282.2211608886719
0, 1, 83, 333.2052307128906
0, 1, 84, 307.7781677246094
0, 1, 85, 253.1392974853516
0, 1, 86, 294.4407653808594
0, 1, 87, 290.6874084472656
0, 1, 88, 298.9966430664062
0, 1, 89, 288.7260437011719
0, 1, 90, 269.0215148925781
0, 1, 91, 318.2841491699219
0, 1, 92, 290.1920166015625
0, 1, 93, 285.9086303710938
0, 1, 94, 304.4346923828125
0, 1, 95, 284.980224609375
0, 1, 96, 284.1421813964844
0, 1, 97, 298.7249755859375
0, 1, 98, 277.8667602539062
0, 1, 99, 267.4600219726562
0, 1, 100, 276.0802307128906
0, 1, 101, 282.4409790039062
0, 1, 102, 280.8270263671875
0, 1, 103, 280.7375793457031
0, 1, 104, 306.9690246582031
0, 1, 105, 297.1277160644531
0, 1, 106, 260.4807434082031
0, 1, 107, 192.7779998779297
0, 1, 108, 81.41763305664062
0, 1, 109, 22.98100090026855
0, 1, 110, 11.90447425842285
0, 1, 111, 7.654415607452393
0, 1, 112, 14.05741500854492
0, 1, 113, 4.646247863769531
0, 1, 114, 5.498624324798584
0, 1, 115, 6.212070941925049
0, 1, 116, 12.84733009338379
0, 1, 117, 8.275753021240234
0, 1, 118, 6.014589309692383
0, 1, 119, 5.472830772399902
0, 1, 120, 5.132233619689941
0, 1, 121, 3.983354806900024
0, 1, 122, 4.466748237609863
0, 1, 123, 3.624553680419922
0, 1, 124, 9.240942001342773
0, 1, 125, 4.256721019744873
0, 1, 126, 2.212646722793579
0, 1, 127, 2.400532960891724
0, 2, 0, 5.167418003082275
0, 2, 1, 4.73673152923584
0, 2, 2, 5.753840446472168
0, 2, 3, 6.605040073394775
0, 2, 4, 3.252604246139526
0, 2, 5, 1.406193852424622
0, 2, 6, 2.094490528106689
0, 2, 7, 4.237507820129395
0, 2, 8, 4.838389873504639
0, 2, 9, 5.631772994995117
0, 2, 10, 8.845176696777344
0, 2, 11, 6.200539112091064
0, 2, 12, 6.241751194000244
0, 2, 13, 10.9124059677124
0, 2, 14, 9.241772651672363
0, 2, 15, 8.248540878295898
0, 2, 16, 9.073737144470215
0, 2, 17, 18.68718528747559
0, 2, 18, 32.12900924682617
0, 2, 19, 117.3581771850586
0, 2, 20, 247.5166625976562
0, 2, 21, 271.9332275390625
0, 2, 22, 315.3169250488281
0, 2, 23, 300.3013610839844
0, 2, 24, 287.9359436035156
0, 2, 25, 302.1702880859375
0, 2, 26, 293.2531127929688
0, 2, 27, 277.0158081054688
0, 2, 28, 271.5244445800781
0, 2, 29, 275.0867919921875
0, 2, 30, 288.3611755371094
0, 2, 31, 276.9009399414062
0, 2, 32, 294.0841369628906
0, 2, 33, 282.731689453125
0, 2, 34, 331.651611328125
0, 2, 35, 289.2089233398438
0, 2, 36, 302.9181213378906
0, 2, 37, 313.9804077148438
0, 2, 38, 311.5918884277344
0, 2, 39, 267.2588195800781
0, 2, 40, 309.6697692871094
0, 2, 41, 289.9942016601562
0, 2, 42, 304.0555114746094
0, 2, 43, 311.3015441894531
0, 2, 44, 310.4000549316406
0, 2, 45, 326.5841979980469
0, 2, 46, 286.5886840820312
0, 2, 47, 303.1734924316406
0, 2, 48, 281.5190734863281
0, 2, 49, 279.5958251953125
0, 2, 50, 294.2230224609375
0, 2, 51, 282.158447265625
0, 2, 52, 273.9747314453125
0, 2, 53, 286.59619140625
0, 2, 54, 280.076171875
0, 2, 55, 275.0415954589844
0, 2, 56, 300.6175537109375
0, 2, 57, 290.6236267089844
0, 2, 58, 304.1690673828125
0, 2, 59, 288.9186401367188
0, 2, 60, 318.9327697753906
0, 2, 61, 300.9621887207031
0, 2, 62, 314.6751403808594
0, 2, 63, 302.5784606933594
0, 2, 64, 297.2652893066406
0, 2, 65, 313.7452697753906
0, 2, 66, 279.8926086425781
0, 2, 67, 291.8208312988281
0, 2, 68, 296.00830078125
0, 2, 69, 311.400146484375
0, 2, 70, 335.8670654296875
0, 2, 71, 282.8417358398438
0, 2, 72, 301.0681762695312
0, 2, 73, 310.7065124511719
0, 2, 74, 289.0977172851562
0, 2, 75, 304.7854614257812
0, 2, 76, 290.5621032714844
0, 2, 77, 299.4198608398438
0, 2, 78, 315.0401306152344
0, 2, 79, 309.0273132324219
0, 2, 80, 296.2558898925781
0, 2, 81, 282.0837707519531
0, 2, 82, 319.0701904296875
0, 2, 83, 314.3067932128906
0, 2, 84, 287.4347839355469
0, 2, 85, 282.6730346679688
0, 2, 86, 324.2616882324219
0, 2, 87, 285.7921447753906
0, 2, 88, 281.1185913085938
0, 2, 89, 297.5717163085938
0, 2, 90, 296.0154724121094
0, 2, 91, 278.353271484375
0, 2, 92, 305.043212890625
0, 2, 93, 316.3792419433594
0, 2, 94, 293.72412109375
0, 2, 95, 315.3448486328125
0, 2, 96, 315.4156799316406
0, 2, 97, 291.0131530761719
0, 2, 98, 294.4416809082031
0, 2, 99, 273.6295471191406
0, 2, 100, 305.6777038574219
0, 2, 101, 300.0936279296875
0, 2, 102, 297.5604553222656
0, 2, 103, 293.0361328125
0, 2, 104, 292.2190856933594
0, 2, 105, 274.2017211914062
0, 2, 106, 298.4461059570312
0, 2, 107, 268.9955444335938
0, 2, 108, 116.4057159423828
0, 2, 109, 33.05218887329102
0, 2, 110, 12.68386459350586
0, 2, 111, 13.3881950378418
0, 2, 112, 6.519728183746338
0, 2, 113, 9.947014808654785
0, 2, 114, 9.889683723449707
0, 2, 115, 11.58032608032227
0, 2, 116, 8.836079597473145
0, 2, 117, 8.687777519226074
0, 2, 118, 1.832727074623108
0, 2, 119, 3.409594535827637
0, 2, 120, 6.906302928924561
0, 2, 121, 0.8882585167884827
0, 2, 122, 6.334222316741943
0, 2, 123, 5.301302433013916
0, 2, 124, 3.40186595916748
0, 2, 125, 4.262928485870361
0, 2, 126, 3.556605100631714
0, 2, 127, 6.160397529602051
0, 3, 0, 4.193661212921143
0, 3, 1, 2.64465069770813
0, 3, 2, 5.709347724914551
0, 3, 3, 1.559449076652527
0, 3, 4, 2.49325156211853
0, 3, 5, 6.454660892486572
0, 3, 6, 6.846192836761475
0, 3, 7, 6.117069244384766
0, 3, 8, 4.76475715637207
0, 3, 9, 5.967201232910156
0, 3, 10, 5.504419803619385
0, 3, 11, 4.254506587982178
0, 3, 12, 8.921283721923828
0, 3, 13, 16.15664100646973
0, 3, 14, 10.53061294555664
0, 3, 15, 14.70518112182617
0, 3, 16, 11.15592575073242
0, 3, 17, 19.67245864868164
0, 3, 18, 51.4951171875
0, 3, 19, 175.5525970458984
0, 3, 20, 268.3614196777344
0, 3, 21, 272.114501953125
0, 3, 22, 281.5615234375
0, 3, 23, 285.8096923828125
0, 3, 24, 287.5989074707031
0, 3, 25, 271.9593200683594
0, 3, 26, 304.2865905761719
0, 3, 27, 292.1590881347656
0, 3, 28, 282.6741638183594
0, 3, 29, 338.0336608886719
0, 3, 30, 317.0018005371094
0, 3, 31, 288.4711608886719
0, 3, 32, 307.2897033691406
0, 3, 33, 315.6708374023438
0, 3, 34, 321.4437561035156
0, 3, 35, 306.6683959960938
0, 3, 36, 271.9255981445312
0, 3, 37, 315.5734558105469
0, 3, 38, 303.8141174316406
0, 3, 39, 288.753662109375
0, 3, 40, 265.4002685546875
0, 3, 41, 301.278564453125
0, 3, 42, 283.9677124023438
0, 3, 43, 304.6058654785156
0, 3, 44, 311.0437622070312
0, 3, 45, 289.19189453125
0, 3, 46, 329.0920715332031
0, 3, 47, 298.9363403320312
0, 3, 48, 303.7398681640625
0, 3, 49, 275.9466552734375
0, 3, 50, 291.1846313476562
0, 3, 51, 276.0947570800781
0, 3, 52, 316.3111267089844
0, 3, 53, 287.3081970214844
0, 3, 54, 285.1499328613281
0, 3, 55, 282.8067016601562
0, 3, 56, 298.2144165039062
0, 3, 57, 290.5765380859375
0, 3, 58, 305.6865234375
0, 3, 59, 295.204345703125
0, 3, 60, 297.6749877929688
0, 3, 61, 263.5843811035156
0, 3, 62, 282.5267639160156
0, 3, 63, 306.3708801269531
0, 3, 64, 316.11181640625
0, 3, 65, 304.574462890625
0, 3, 66, 315.0887756347656
0, 3, 67, 318.2106323242188
0, 3, 68, 279.5603637695312
0, 3, 69, 282.1423950195312
0, 3, 70, 288.3866271972656
0, 3, 71, 301.0118408203125
0, 3, 72, 271.1378784179688
0, 3, 73, 307.467041015625
0, 3, 74, 293.2605895996094
0, 3, 75, 288.6175231933594
0, 3, 76, 306.2778625488281
0, 3, 77, 313.133544921875
0, 3, 78, 302.2493896484375
0, 3, 79, 282.2316589355469
0, 3, 80, 290.4192199707031
0, 3, 81, 311.9512634277344
0, 3, 82, 315.4581298828125
0, 3, 83, 301.062255859375
0, 3, 84, 310.7252502441406
0, 3, 85, 294.16796875
0, 3, 86, 303.1673889160156
0, 3, 87, 300.4165344238281
0, 3, 88, 299.981689453125
0, 3, 89, 296.6406555175781
0, 3, 90, 277.0350341796875
0, 3, 91, 284.7526245117188
0, 3, 92, 305.8877868652344
0, 3, 93, 312.0081787109375
0, 3, 94, 299.7002868652344
0, 3, 95, 333.2618103027344
0, 3, 96, 290.2977905273438
0, 3, 97, 282.6566162109375
0, 3, 98, 279.9659729003906
0, 3, 99, 263.2646789550781
0, 3, 100, 284.9739990234375
0, 3, 101, 296.8849792480469
0, 3, 102, 274.5664978027344
0, 3, 103, 321.1684875488281
0, 3, 104, 308.0127868652344
0, 3, 105, 288.2632751464844
0, 3, 106, 302.2081604003906
0, 3, 107, 284.3683776855469
0, 3, 108, 169.7852020263672
0, 3, 109, 55.97588729858398
0, 3, 110, 18.57331466674805
0, 3, 111, 12.7003345489502
0, 3, 112, 11.77730369567871
0, 3, 113, 6.911630630493164
0, 3, 114, 9.571581840515137
0, 3, 115, 6.806797027587891
0, 3, 116, 9.446271896362305
0, 3, 117, 9.131775856018066
0, 3, 118, 7.031710624694824
0, 3, 119, 9.308382034301758
0, 3, 120, 6.814356803894043
0, 3, 121, 2.822317361831665
0, 3, 122, 1.964936971664429
0, 3, 123, 6.950594902038574
0, 3, 124, 3.190301418304443
0, 3, 125, 5.693166732788086
0, 3, 126, 5.447562694549561
0, 3, 127, 2.430063962936401
0, 4, 0, 4.181274890899658
0, 4, 1, 4.316679954528809
0, 4, 2, 4.597158908843994
0, 4, 3, 3.145451068878174
0, 4, 4, 6.938073635101318
0, 4, 5, 9.706325531005859
0, 4, 6, 7.130683422088623
0, 4, 7, 5.492476463317871
0, 4, 8, 3.314414262771606
0, 4, 9, 7.686800956726074
0, 4, 10, 7.09950590133667
0, 4, 11, 6.678026676177979
0, 4, 12, 6.611494541168213
0, 4, 13, 8.297099113464355
0, 4, 14, 9.88565731048584
0, 4, 15, 10.1394510269165
0, 4, 16, 13.26087856292725
0, 4, 17, 18.59693717956543
0, 4, 18, 94.48891448974609
0, 4, 19, 223.1313018798828
0, 4, 20, 285.315673828125
0, 4, 21, 271.7654113769531
0, 4, 22, 304.6712036132812
0, 4, 23, 268.6268005371094
0, 4, 24, 288.5935363769531
0, 4, 25, 271.835205078125
0, 4, 26, 293.6129760742188
0, 4, 27, 284.5919189453125
0, 4, 28, 306.4380493164062
0, 4, 29, 322.44921875
0, 4, 30, 308.7494506835938
0, 4, 31, 303.1775817871094
0, 4, 32, 280.3262939453125
0, 4, 33, 296.4651184082031
0, 4, 34, 295.7889404296875
0, 4, 35, 311.7078857421875
0, 4, 36, 292.0316772460938
0, 4, 37, 290.1765441894531
0, 4, 38, 299.0203857421875
0, 4, 39, 294.0281066894531
0, 4, 40, 305.8504028320312
0, 4, 41, 310.5339660644531
0, 4, 42, 331.6700744628906
0, 4, 43, 298.294189453125
0, 4, 44, 321.8175048828125
0, 4, 45, 323.3774108886719
0, 4, 46, 305.2788696289062
0, 4, 47, 292.7283325195312
0, 4, 48, 296.720947265625
0, 4, 49, 278.2526245117188
0, 4, 50, 295.6142578125
0, 4, 51, 316.6349487304688
0, 4, 52, 328.0613403320312
0, 4, 53, 303.6062927246094
0, 4, 54, 287.7053527832031
0, 4, 55, 316.5551452636719
0, 4, 56, 288.0567321777344
0, 4, 57, 309.5125122070312
0, 4, 58, 297.2471313476562
0, 4, 59, 309.2112426757812
0, 4, 60, 303.4469299316406
0, 4, 61, 314.4740905761719
0, 4, 62, 307.9730224609375
0, 4, 63, 298.6665344238281
0, 4, 64, 331.9844360351562
0, 4, 65, 315.6871032714844
0, 4, 66, 292.1048278808594
0, 4, 67, 285.7666320800781
0, 4, 68, 312.4455871582031
0, 4, 69, 274.6039733886719
0, 4, 70, 299.0884094238281
0, 4, 71, 322.0879516601562
0, 4, 72, 333.0801086425781
0, 4, 73, 300.783203125
0, 4, 74, 293.0635070800781
0, 4, 75, 289.9091186523438
0, 4, 76, 276.657958984375
0, 4, 77, 281.0462036132812
0, 4, 78, 311.4265441894531
0, 4, 79, 317.9263000488281
0, 4, 80, 316.4423828125
0, 4, 81, 311.7955932617188
0, 4, 82, 297.0411987304688
0, 4, 83, 302.8623657226562
0, 4, 84, 291.67724609375
0, 4, 85, 295.1037292480469
0, 4, 86, 297.6723327636719
0, 4, 87, 283.0987854003906
0, 4, 88, 307.0487365722656
0, 4, 89, 294.900634765625
0, 4, 90, 335.872802734375
0, 4, 91, 303.4126892089844
0, 4, 92, 288.6427307128906
0, 4, 93, 296.1706848144531
0, 4, 94, 293.4317016601562
0, 4, 95, 291.0845947265625
0, 4, 96, 324.2897033691406
0, 4, 97, 274.2759399414062
0, 4, 98, 326.8464965820312
0, 4, 99, 316.229736328125
0, 4, 100, 300.0177001953125
0, 4, 101, 256.5240478515625
0, 4, 102, 297.9515686035156
0, 4, 103, 316.0440979003906
0, 4, 104, 282.7688293457031
0, 4, 105, 310.5331115722656
0, 4, 106, 289.3291625976562
0, 4, 107, 295.1039733886719
0, 4, 108, 225.6600494384766
0, 4, 109, 79.30795288085938
0, 4, 110, 16.32122230529785
0, 4, 111, 13.88425922393799
0, 4, 112, 8.5428466796875
0, 4, 113, 9.249008178710938
0, 4, 114, 8.516695976257324
0, 4, 115, 11.39685821533203
0, 4, 116, 8.347511291503906
0, 4, 117, 6.994820117950439
0, 4, 118, 11.49380207061768
0, 4, 119, 10.0946044921875
0, 4, 120, 7.225057125091553
0, 4, 121, 3.537508726119995
0, 4, 122, 5.590979099273682
0, 4, 123, 5.925582885742188
0, 4, 124, 5.204253196716309
0, 4, 125, 9.86814022064209
0, 4, 126, 6.009415149688721
0, 4, 127, 5.753279209136963
0, 5, 0, 3.454358816146851
0, 5, 1, 4.723667144775391
0, 5, 2, 4.98409366607666
0, 5, 3, 3.741490602493286
0, 5, 4, 5.079548358917236
0, 5, 5, 5.499417781829834
0, 5, 6, 4.692051887512207
0, 5, 7, 8.214046478271484
0, 5, 8, 5.235669612884521
0, 5, 9, 4.636802673339844
0, 5, 10, 8.159697532653809
0, 5, 11, 6.973686695098877
0, 5, 12, 6.68668794631958
0, 5, 13, 4.998798847198486
0, 5, 14, 13.39864826202393
0, 5, 15, 17.95404243469238
0, 5, 16, 13.73127937316895
0, 5, 17, 29.00095176696777
0, 5, 18, 137.6801147460938
0, 5, 19, 290.6768493652344
0, 5, 20, 307.3594360351562
0, 5, 21, 317.2895812988281
0, 5, 22, 277.1590881347656
0, 5, 23, 310.1426696777344
0, 5, 24, 302.0870971679688
0, 5, 25, 289.5081176757812
0, 5, 26, 296.4642333984375
0, 5, 27, 322.0712585449219
0, 5, 28, 303.1103210449219
0, 5, 29, 300.5123901367188
0, 5, 30, 324.2298889160156
0, 5, 31, 285.0834655761719
0, 5, 32, 302.2061462402344
0, 5, 33, 304.3200988769531
0, 5, 34, 296.5796508789062
0, 5, 35, 312.0917358398438
0, 5, 36, 271.2508239746094
0, 5, 37, 281.373046875
0, 5, 38, 291.6890869140625
0, 5, 39, 311.8262939453125
0, 5, 40, 307.8514099121094
0, 5, 41, 272.2557067871094
0, 5, 42, 306.457275390625
0, 5, 43, 315.56396484375
0, 5, 44, 291.7807922363281
0, 5, 45, 303.0845947265625
0, 5, 46, 265.1174926757812
0, 5, 47, 279.7689819335938
0, 5, 48, 294.991455078125
0, 5, 49, 288.0169982910156
0, 5, 50, 295.3716125488281
0, 5, 51, 279.5095825195312
0, 5, 52, 268.9185180664062
0, 5, 53, 282.6083374023438
0, 5, 54, 291.6378173828125
0, 5, 55, 345.4192810058594
0, 5, 56, 304.6612854003906
0, 5, 57, 306.9444274902344
0, 5, 58, 315.9342651367188
0, 5, 59, 302.9819641113281
0, 5, 60, 308.3154602050781
0, 5, 61, 282.0919799804688
0, 5, 62, 324.4779663085938
0, 5, 63, 292.1559143066406
0, 5, 64, 322.9193420410156
0, 5, 65, 306.3069458007812
0, 5, 66, 332.3505554199219
0, 5, 67, 311.6463928222656
0, 5, 68, 310.8165588378906
0, 5, 69, 310.6222839355469
0, 5, 70, 299.2232360839844
0, 5, 71, 273.0075378417969
0, 5, 72, 309.8500671386719
0, 5, 73, 301.9956359863281
0, 5, 74, 295.60595703125
0, 5, 75, 295.0712280273438
0, 5, 76, 285.9374694824219
0, 5, 77, 299.0987548828125
0, 5, 78, 318.2034912109375
0, 5, 79, 305.7997436523438
0, 5, 80, 294.6054382324219
0, 5, 81, 325.1871032714844
0, 5, 82, 324.5810546875
0, 5, 83, 280.7798156738281
0, 5, 84, 301.7297668457031
0, 5, 85, 272.181396484375
0, 5, 86, 327.4277954101562
0, 5, 87, 284.7598876953125
0, 5, 88, 314.3596496582031
0, 5, 89, 306.8954772949219
0, 5, 90, 317.21435546875
0, 5, 91, 312.3681030273438
0, 5, 92, 296.2442626953125
0, 5, 93, 321.2770690917969
0, 5, 94, 309.2001953125
0, 5, 95, 298.2403259277344
0, 5, 96, 297.6595153808594
0, 5, 97, 294.9966125488281
0, 5, 98, 317.9921569824219
0, 5, 99, 303.5454711914062
0, 5, 100, 290.7873840332031
0, 5, 101, 307.3262023925781
0, 5, 102, 294.7830505371094
0, 5, 103, 313.1044616699219
0, 5, 104, 302.6966552734375
0, 5, 105, 293.5083312988281
0, 5, 106, 281.9712524414062
0, 5, 107, 293.0542602539062
0, 5, 108, 265.4342651367188
0, 5, 109, 157.3478240966797
0, 5, 110, 42.11616134643555
0, 5, 111, 21.85714149475098
0, 5, 112, 19.57378196716309
0, 5, 113, 16.17568397521973
0, 5, 114, 12.54917621612549
0, 5, 115, 8.050375938415527
0, 5, 116, 7.548263549804688
0, 5, 117, 6.290438175201416
0, 5, 118, 13.24748706817627
0, 5, 119, 3.181511878967285
0, 5, 120, 6.261324405670166
0, 5, 121, 6.069589138031006
0, 5, 122, 7.651500225067139
0, 5, 123, 5.235347270965576
0, 5, 124, 5.303539752960205
0, 5, 125, 4.088886737823486
0, 5, 126, 5.581169128417969
0, 5, 127, 3.035642147064209
0, 6, 0, 5.207694053649902
0, 6, 1, 1.968791246414185
0, 6, 2, 6.269330024719238
0, 6, 3, 5.045717716217041
0, 6, 4, 4.749573707580566
0, 6, 5, 6.366734981536865
0, 6, 6, 7.691651821136475
0, 6, 7, 6.168012619018555
0, 6, 8, 9.091338157653809
0, 6, 9, 6.011306285858154
0, 6, 10, 6.949116230010986
0, 6, 11, 11.00978088378906
0, 6, 12, 9.025450706481934
0, 6, 13, 15.56205463409424
0, 6, 14, 9.858908653259277
0, 6, 15, 15.67873382568359
0, 6, 16, 28.81640815734863
0, 6, 17, 56.94961547851562
0, 6, 18, 172.7976226806641
0, 6, 19, 278.0779113769531
0, 6, 20, 290.4787292480469
0, 6, 21, 315.5267028808594
0, 6, 22, 320.0321960449219
0, 6, 23, 306.2135925292969
0, 6, 24, 316.0202331542969
0, 6, 25, 315.3225708007812
0, 6, 26, 320.4998474121094
0, 6, 27, 331.7334289550781
0, 6, 28, 294.4309997558594
0, 6, 29, 329.7138977050781
0, 6, 30, 283.5076599121094
0, 6, 31, 285.5602722167969
0, 6, 32, 341.0692749023438
0, 6, 33, 301.2584228515625
0, 6, 34, 341.2077331542969
0, 6, 35, 321.2477111816406
0, 6, 36, 273.4984741210938
0, 6, 37, 289.6176147460938
0, 6, 38, 311.9376831054688
0, 6, 39, 299.1207580566406
0, 6, 40, 283.1422424316406
0, 6, 41, 292.8185729980469
0, 6, 42, 302.2164306640625
0, 6, 43, 288.5248107910156
0, 6, 44, 279.946533203125
0, 6, 45, 320.5236511230469
0, 6, 46, 300.4839782714844
0, 6, 47, 333.7852478027344
0, 6, 48, 292.0782165527344
0, 6, 49, 314.9144897460938
0, 6, 50, 329.0662231445312
0, 6, 51, 311.895751953125
0, 6, 52, 319.9179382324219
0, 6, 53, 329.9339294433594
0, 6, 54, 303.3044128417969
0, 6, 55, 305.9510803222656
0, 6, 56, 292.8303527832031
0, 6, 57, 311.7527770996094
0, 6, 58, 263.0846862792969
0, 6, 59, 301.6547241210938
0, 6, 60, 312.2855529785156
0, 6, 61, 274.1907653808594
0, 6, 62, 337.8857421875
0, 6, 63, 322.41552734375
0, 6, 64, 291.0280151367188
0, 6, 65, 283.0951538085938
0, 6, 66, 303.0963745117188
0, 6, 67, 309.0986633300781
0, 6, 68, 292.4716186523438
0, 6, 69, 279.9155883789062
0, 6, 70, 275.7388916015625
0, 6, 71, 289.3744201660156
0, 6, 72, 311.573974609375
0, 6, 73, 291.2668151855469
0, 6, 74, 329.4570617675781
0, 6, 75, 345.3925476074219
0, 6, 76, 297.6448364257812
0, 6, 77, 288.1544494628906
0, 6, 78, 279.9981079101562
0, 6, 79, 291.7627258300781
0, 6, 80, 299.0834045410156
0, 6, 81, 314.2350769042969
0, 6, 82, 318.48193359375
0, 6, 83, 319.86328125
0, 6, 84, 297.0201416015625
0, 6, 85, 301.5244750976562
0, 6, 86, 330.4954528808594
0, 6, 87, 292.2498779296875
0, 6, 88, 307.9025268554688
0, 6, 89, 304.9549865722656
0, 6, 90, 299.8315124511719
0, 6, 91, 311.9596252441406
0, 6, 92, 283.91748046875
0, 6, 93, 296.375732421875
0, 6, 94, 272.9653625488281
0, 6, 95, 303.2227783203125
0, 6, 96, 350.6932373046875
0, 6, 97, 308.2992553710938
0, 6, 98, 300.7310791015625
0, 6, 99, 270.8155822753906
0, 6, 100, 309.9442749023438
0, 6, 101, 293.1060485839844
0, 6, 102, 305.5896301269531
0, 6, 103, 308.450927734375
0, 6, 104, 291.4066467285156
0, 6, 105, 300.7086486816406
0, 6, 106, 307.9694519042969
0, 6, 107, 304.9518737792969
0, 6, 108, 266.0982055664062
0, 6, 109, 186.4865264892578
0, 6, 110, 56.07037353515625
0, 6, 111, 21.45936393737793
0, 6, 112, 13.79032039642334
0, 6, 113, 11.03705215454102
0, 6, 114, 12.28144454956055
0, 6, 115, 10.70697689056396
0, 6, 116, 9.091392517089844
0, 6, 117, 8.093846321105957
0, 6, 118, 8.739660263061523
0, 6, 119, 8.591555595397949
0, 6, 120, 5.668263912200928
0, 6, 121, 6.815448760986328
0, 6, 122, 8.223054885864258
0, 6, 123, 5.040921211242676
0, 6, 124, 6.848336696624756
0, 6, 125, 6.660445690155029
0, 6, 126, 2.959693670272827
0, 6, 127, 7.992053985595703
0, 7, 0, 5.672531127929688
0, 7, 1, 3.265100479125977
0, 7, 2, 5.763776779174805
0, 7, 3, 5.52712869644165
0, 7, 4, 5.600466728210449
0, 7, 5, 3.596035242080688
0, 7, 6, 8.325057983398438
0, 7, 7, 6.228019714355469
0, 7, 8, 4.401086807250977
0, 7, 9, 5.321853160858154
0, 7, 10, 8.143075942993164
0, 7, 11, 10.33517932891846
0, 7, 12, 10.24948406219482
0, 7, 13, 9.950441360473633
0, 7, 14, 10.47135829925537
0, 7, 15, 15.47155857086182
0, 7, 16, 27.35212898254395
0, 7, 17, 98.94437408447266
0, 7, 18, 217.6758270263672
0, 7, 19, 290.37451171875
0, 7, 20, 298.5518188476562
0, 7, 21, 276.8209228515625
0, 7, 22, 298.1397094726562
0, 7, 23, 289.4348449707031
0, 7, 24, 313.6156005859375
0, 7, 25, 324.8961486816406
0, 7, 26, 277.440673828125
0, 7, 27, 301.5339050292969
0, 7, 28, 326.8318176269531
0, 7, 29, 318.6629028320312
0, 7, 30, 301.0006103515625
0, 7, 31, 276.8210754394531
0, 7, 32, 305.9963989257812
0, 7, 33, 262.4882507324219
0, 7, 34, 299.115966796875
0, 7, 35, 318.9571228027344
0, 7, 36, 331.0092163085938
0, 7, 37, 323.904296875
0, 7, 38, 297.3926391601562
0, 7, 39, 307.78271484375
0, 7, 40, 289.9600219726562
0, 7, 41, 274.1952819824219
0, 7, 42, 300.3181762695312
0, 7, 43, 276.5243835449219
0, 7, 44, 305.5863342285156
0, 7, 45, 295.0921630859375
0, 7, 46, 283.6047973632812
0, 7, 47, 330.1927185058594
0, 7, 48, 284.9248352050781
0, 7, 49, 301.8120422363281
0, 7, 50, 320.8988342285156
0, 7, 51, 298.732666015625
0, 7, 52, 327.1329040527344
0, 7, 53, 309.4635925292969
0, 7, 54, 325.4692687988281
0, 7, 55, 308.6907653808594
0, 7, 56, 278.33056640625
0, 7, 57, 285.0131530761719
0, 7, 58, 295.9338684082031
0, 7, 59, 292.9220886230469
0, 7, 60, 321.9059448242188
0, 7, 61, 276.767822265625
0, 7, 62, 296.8372192382812
0, 7, 63, 294.8177795410156
0, 7, 64, 304.6352233886719
0, 7, 65, 329.6122436523438
0, 7, 66, 317.659912109375
0, 7, 67, 300.7238464355469
0, 7, 68, 279.0401000976562
0, 7, 69, 293.9084167480469
0, 7, 70, 302.5090026855469
0, 7, 71, 310.0035400390625
0, 7, 72, 287.200927734375
0, 7, 73, 295.9129943847656
0, 7, 74, 343.8522033691406
0, 7, 75, 321.5041198730469
0, 7, 76, 321.096923828125
0, 7, 77, 281.1264343261719
0, 7, 78, 301.8757629394531
0, 7, 79, 298.5181579589844
0, 7, 80, 309.7615966796875
0, 7, 81, 320.6981811523438
0, 7, 82, 329.8156127929688
0, 7, 83, 317.8428039550781
0, 7, 84, 309.2446594238281
0, 7, 85, 271.28173828125
0, 7, 86, 312.4109497070312
0, 7, 87, 310.3085327148438
0, 7, 88, 309.0008239746094
0, 7, 89, 295.4414367675781
0, 7, 90, 310.3087463378906
0, 7, 91, 315.6241760253906
0, 7, 92, 290.1068115234375
0, 7, 93, 308.4872741699219
0, 7, 94, 275.4453430175781
0, 7, 95, 296.7110900878906
0, 7, 96, 333.2814025878906
0, 7, 97, 294.9000244140625
0, 7, 98, 289.9252319335938
0, 7, 99, 312.9664916992188
0, 7, 100, 281.4251403808594
0, 7, 101, 275.4371032714844
0, 7, 102, 290.0115966796875
0, 7, 103, 292.1819152832031
0, 7, 104, 276.2107238769531
0, 7, 105, 307.89404296875
0, 7, 106, 317.075927734375
0, 7, 107, 296.2092590332031
0, 7, 108, 272.9880065917969
0, 7, 109, 236.5537567138672
0, 7, 110, 97.01639556884766
0, 7, 111, 24.07712936401367
0, 7, 112, 13.54920291900635
0, 7, 113, 13.50684547424316
0, 7, 114, 13.66893482208252
0, 7, 115, 14.66505813598633
0, 7, 116, 8.897255897521973
0, 7, 117, 8.054661750793457
0, 7, 118, 9.538101196289062
0, 7, 119, 6.547103404998779
0, 7, 120, 4.595894336700439
0, 7, 121, 5.747779846191406
0, 7, 122, 6.744091510772705
0, 7, 123, 5.747158050537109
0, 7, 124, 5.070935726165771
0, 7, 125, 5.79807710647583
0, 7, 126, 8.642516136169434
0, 7, 127, 1.231169819831848
0, 8, 0, 4.948558330535889
0, 8, 1, 4.6350998878479
0, 8, 2, 4.30351734161377
0, 8, 3, 5.125685691833496
0, 8, 4, 4.331401824951172
0, 8, 5, 5.464252948760986
0, 8, 6, 3.62795877456665
0, 8, 7, 4.970672607421875
0, 8, 8, 7.143485069274902
0, 8, 9, 4.73337984085083
0, 8, 10, 7.994694232940674
0, 8, 11, 12.98597526550293
0, 8, 12, 14.15388679504395
0, 8, 13, 16.94430351257324
0, 8, 14, 13.78479099273682
0, 8, 15, 20.42397689819336
0, 8, 16, 33.39599227905273
0, 8, 17, 131.0809478759766
0, 8, 18, 243.7125396728516
0, 8, 19, 295.7384643554688
0, 8, 20, 284.6724243164062
0, 8, 21, 306.4433288574219
0, 8, 22, 294.560546875
0, 8, 23, 274.9341735839844
0, 8, 24, 271.3472290039062
0, 8, 25, 275.3288879394531
0, 8, 26, 305.6720581054688
0, 8, 27, 307.49462890625
0, 8, 28, 304.1307373046875
0, 8, 29, 318.0168762207031
0, 8, 30, 314.9930114746094
0, 8, 31, 305.2436218261719
0, 8, 32, 279.8969116210938
0, 8, 33, 294.1563415527344
0, 8, 34, 289.3230590820312
0, 8, 35, 280.6272888183594
0, 8, 36, 314.7501220703125
0, 8, 37, 339.302490234375
0, 8, 38, 331.2003479003906
0, 8, 39, 281.8651123046875
