# TOPAS Version: 3.1.p3
# Parameter File: batch_inserts_296.txt
# Results for scorer Readout_Adipose
# Scored in component: MyBox
# X in 1 bin  of 0.75 cm
# Y in 512 bins of 0.0783984 cm
# Z in 128 bins of 0.078125 cm
# EnergyDeposit ( MeV ) : Sum   
0, 0, 0, 3.780973434448242
0, 0, 1, 1.543519020080566
0, 0, 2, 4.514857769012451
0, 0, 3, 3.006726741790771
0, 0, 4, 4.583155632019043
0, 0, 5, 2.54848051071167
0, 0, 6, 6.693152904510498
0, 0, 7, 8.276001930236816
0, 0, 8, 4.225860118865967
0, 0, 9, 4.452763557434082
0, 0, 10, 7.407821655273438
0, 0, 11, 4.132064819335938
0, 0, 12, 5.097879886627197
0, 0, 13, 7.847973823547363
0, 0, 14, 6.510976791381836
0, 0, 15, 8.789027214050293
0, 0, 16, 9.019457817077637
0, 0, 17, 9.136081695556641
0, 0, 18, 13.30422687530518
0, 0, 19, 43.34231948852539
0, 0, 20, 138.8654174804688
0, 0, 21, 223.3238220214844
0, 0, 22, 250.0009460449219
0, 0, 23, 257.6900329589844
0, 0, 24, 252.6100463867188
0, 0, 25, 257.9788513183594
0, 0, 26, 234.4197387695312
0, 0, 27, 238.4631042480469
0, 0, 28, 271.7859802246094
0, 0, 29, 252.3668975830078
0, 0, 30, 230.9839172363281
0, 0, 31, 244.0402221679688
0, 0, 32, 263.2747192382812
0, 0, 33, 259.4171752929688
0, 0, 34, 287.4095153808594
0, 0, 35, 266.625732421875
0, 0, 36, 248.0476989746094
0, 0, 37, 253.8175506591797
0, 0, 38, 270.3522338867188
0, 0, 39, 229.1296234130859
0, 0, 40, 242.1164855957031
0, 0, 41, 267.0645751953125
0, 0, 42, 229.2315368652344
0, 0, 43, 260.7355041503906
0, 0, 44, 252.6939849853516
0, 0, 45, 252.9613189697266
0, 0, 46, 244.8200836181641
0, 0, 47, 253.81005859375
0, 0, 48, 268.0314331054688
0, 0, 49, 273.5917663574219
0, 0, 50, 250.2567443847656
0, 0, 51, 252.7732391357422
0, 0, 52, 271.5561218261719
0, 0, 53, 291.3444213867188
0, 0, 54, 243.3323211669922
0, 0, 55, 240.5087280273438
0, 0, 56, 277.5050964355469
0, 0, 57, 264.712158203125
0, 0, 58, 248.9231109619141
0, 0, 59, 271.3212890625
0, 0, 60, 235.3554077148438
0, 0, 61, 246.7776184082031
0, 0, 62, 256.9462585449219
0, 0, 63, 266.1643676757812
0, 0, 64, 255.1014556884766
0, 0, 65, 261.8727416992188
0, 0, 66, 276.3846130371094
0, 0, 67, 249.4131622314453
0, 0, 68, 257.9722290039062
0, 0, 69, 260.7649841308594
0, 0, 70, 274.0535278320312
0, 0, 71, 237.3623657226562
0, 0, 72, 251.7676544189453
0, 0, 73, 259.1103820800781
0, 0, 74, 251.3704223632812
0, 0, 75, 241.8082427978516
0, 0, 76, 228.2569885253906
0, 0, 77, 259.2495422363281
0, 0, 78, 255.639404296875
0, 0, 79, 278.7648620605469
0, 0, 80, 218.0506439208984
0, 0, 81, 268.3395690917969
0, 0, 82, 255.5823669433594
0, 0, 83, 243.2215728759766
0, 0, 84, 269.57568359375
0, 0, 85, 232.6571655273438
0, 0, 86, 253.6939544677734
0, 0, 87, 251.0792541503906
0, 0, 88, 259.2528076171875
0, 0, 89, 282.836181640625
0, 0, 90, 245.1694793701172
0, 0, 91, 279.8678283691406
0, 0, 92, 253.8877716064453
0, 0, 93, 249.1107177734375
0, 0, 94, 250.6275024414062
0, 0, 95, 247.7052154541016
0, 0, 96, 274.2498779296875
0, 0, 97, 271.5443115234375
0, 0, 98, 273.2248840332031
0, 0, 99, 257.9309692382812
0, 0, 100, 259.9180297851562
0, 0, 101, 225.2326965332031
0, 0, 102, 233.1601257324219
0, 0, 103, 270.2017211914062
0, 0, 104, 253.1689605712891
0, 0, 105, 250.6977691650391
0, 0, 106, 245.7691802978516
0, 0, 107, 152.2365570068359
0, 0, 108, 38.4886589050293
0, 0, 109, 12.03269863128662
0, 0, 110, 12.9225902557373
0, 0, 111, 9.487135887145996
0, 0, 112, 5.833006858825684
0, 0, 113, 5.767261981964111
0, 0, 114, 6.708102703094482
0, 0, 115, 5.677312850952148
0, 0, 116, 6.444136142730713
0, 0, 117, 6.145965576171875
0, 0, 118, 6.396779537200928
0, 0, 119, 3.435357570648193
0, 0, 120, 4.563929557800293
0, 0, 121, 4.530176639556885
0, 0, 122, 4.349171161651611
0, 0, 123, 3.823169946670532
0, 0, 124, 6.460521697998047
0, 0, 125, 3.095364332199097
0, 0, 126, 3.666725397109985
0, 0, 127, 3.962626695632935
0, 1, 0, 7.856105804443359
0, 1, 1, 2.533691883087158
0, 1, 2, 3.152386426925659
0, 1, 3, 2.454469442367554
0, 1, 4, 2.696337699890137
0, 1, 5, 3.853349924087524
0, 1, 6, 4.351272106170654
0, 1, 7, 2.875415086746216
0, 1, 8, 6.555184841156006
0, 1, 9, 3.725151777267456
0, 1, 10, 8.184892654418945
0, 1, 11, 12.81107330322266
0, 1, 12, 7.376645088195801
0, 1, 13, 9.220248222351074
0, 1, 14, 9.266590118408203
0, 1, 15, 7.463016510009766
0, 1, 16, 11.75114727020264
0, 1, 17, 10.48563194274902
0, 1, 18, 18.93046951293945
0, 1, 19, 66.02968597412109
0, 1, 20, 200.2347106933594
0, 1, 21, 254.5282897949219
0, 1, 22, 294.206298828125
0, 1, 23, 286.924072265625
0, 1, 24, 276.7065734863281
0, 1, 25, 292.0662536621094
0, 1, 26, 268.2393188476562
0, 1, 27, 307.343505859375
0, 1, 28, 300.6456909179688
0, 1, 29, 294.9531860351562
0, 1, 30, 281.7541809082031
0, 1, 31, 292.638427734375
0, 1, 32, 290.4392395019531
0, 1, 33, 294.8556823730469
0, 1, 34, 292.6029357910156
0, 1, 35, 278.3396606445312
0, 1, 36, 305.7738952636719
0, 1, 37, 295.3958740234375
0, 1, 38, 280.4189758300781
0, 1, 39, 294.1878356933594
0, 1, 40, 266.2728576660156
0, 1, 41, 288.1371765136719
0, 1, 42, 290.13330078125
0, 1, 43, 332.61962890625
0, 1, 44, 277.4071044921875
0, 1, 45, 292.0401916503906
0, 1, 46, 259.5235290527344
0, 1, 47, 310.6196899414062
0, 1, 48, 284.503173828125
0, 1, 49, 302.8482055664062
0, 1, 50, 261.5806579589844
0, 1, 51, 272.3768920898438
0, 1, 52, 296.1346435546875
0, 1, 53, 304.4721374511719
0, 1, 54, 274.5466918945312
0, 1, 55, 292.9717712402344
0, 1, 56, 275.6239013671875
0, 1, 57, 297.7315979003906
0, 1, 58, 310.2299194335938
0, 1, 59, 292.8322448730469
0, 1, 60, 297.0743103027344
0, 1, 61, 274.1891479492188
0, 1, 62, 307.8891296386719
0, 1, 63, 286.6136779785156
0, 1, 64, 287.9716186523438
0, 1, 65, 295.4558410644531
0, 1, 66, 291.8936767578125
0, 1, 67, 292.8028564453125
0, 1, 68, 276.4597473144531
0, 1, 69, 280.8980712890625
0, 1, 70, 270.880859375
0, 1, 71, 272.5442199707031
0, 1, 72, 287.4628601074219
0, 1, 73, 303.5317077636719
0, 1, 74, 304.4878845214844
0, 1, 75, 291.6803588867188
0, 1, 76, 285.203125
0, 1, 77, 288.8871765136719
0, 1, 78, 296.2841186523438
0, 1, 79, 300.477294921875
0, 1, 80, 296.4922485351562
0, 1, 81, 300.6532592773438
0, 1, 82, 283.0027160644531
0, 1, 83, 332.0193176269531
0, 1, 84, 306.9486999511719
0, 1, 85, 252.7133178710938
0, 1, 86, 293.7007141113281
0, 1, 87, 290.6210021972656
0, 1, 88, 297.9528198242188
0, 1, 89, 289.833984375
0, 1, 90, 271.5215759277344
0, 1, 91, 318.8843994140625
0, 1, 92, 291.7852172851562
0, 1, 93, 286.2658996582031
0, 1, 94, 301.7562255859375
0, 1, 95, 284.0628662109375
0, 1, 96, 282.2323608398438
0, 1, 97, 301.26171875
0, 1, 98, 277.0822448730469
0, 1, 99, 265.4014587402344
0, 1, 100, 276.2523803710938
0, 1, 101, 281.6902465820312
0, 1, 102, 276.1480407714844
0, 1, 103, 280.5923156738281
0, 1, 104, 309.2638549804688
0, 1, 105, 297.661376953125
0, 1, 106, 262.2362060546875
0, 1, 107, 191.8259735107422
0, 1, 108, 81.18039703369141
0, 1, 109, 24.24376678466797
0, 1, 110, 11.50551414489746
0, 1, 111, 10.02240467071533
0, 1, 112, 11.00210952758789
0, 1, 113, 5.643473625183105
0, 1, 114, 6.848291397094727
0, 1, 115, 8.075544357299805
0, 1, 116, 10.03231525421143
0, 1, 117, 6.820304393768311
0, 1, 118, 6.588214874267578
0, 1, 119, 5.861127376556396
0, 1, 120, 4.440778732299805
0, 1, 121, 3.089656114578247
0, 1, 122, 3.859398603439331
0, 1, 123, 3.755687952041626
0, 1, 124, 9.823097229003906
0, 1, 125, 5.293036460876465
0, 1, 126, 3.446722984313965
0, 1, 127, 2.540323972702026
0, 2, 0, 6.476875305175781
0, 2, 1, 2.502654314041138
0, 2, 2, 6.625220775604248
0, 2, 3, 3.651310682296753
0, 2, 4, 3.676210403442383
0, 2, 5, 1.59738028049469
0, 2, 6, 2.140330791473389
0, 2, 7, 4.249933242797852
0, 2, 8, 4.554068565368652
0, 2, 9, 7.085606098175049
0, 2, 10, 10.04420471191406
0, 2, 11, 7.32784366607666
0, 2, 12, 5.98431396484375
0, 2, 13, 10.24339771270752
0, 2, 14, 11.5394229888916
0, 2, 15, 7.610054492950439
0, 2, 16, 8.493062019348145
0, 2, 17, 17.64916610717773
0, 2, 18, 32.66843414306641
0, 2, 19, 115.5069961547852
0, 2, 20, 249.5820465087891
0, 2, 21, 271.208251953125
0, 2, 22, 315.7534484863281
0, 2, 23, 300.7995300292969
0, 2, 24, 286.6371765136719
0, 2, 25, 304.3109436035156
0, 2, 26, 295.1044616699219
0, 2, 27, 278.2637939453125
0, 2, 28, 272.5657653808594
0, 2, 29, 273.139404296875
0, 2, 30, 290.0074462890625
0, 2, 31, 277.9425354003906
0, 2, 32, 293.825927734375
0, 2, 33, 282.8347473144531
0, 2, 34, 331.7442932128906
0, 2, 35, 289.9208068847656
0, 2, 36, 304.8517456054688
0, 2, 37, 315.2967834472656
0, 2, 38, 311.0089721679688
0, 2, 39, 265.8401794433594
0, 2, 40, 306.1360473632812
0, 2, 41, 293.65625
0, 2, 42, 301.6619873046875
0, 2, 43, 314.286865234375
0, 2, 44, 309.8215637207031
0, 2, 45, 325.6102600097656
0, 2, 46, 288.3920593261719
0, 2, 47, 302.8082580566406
0, 2, 48, 281.5096130371094
0, 2, 49, 276.5155334472656
0, 2, 50, 295.347900390625
0, 2, 51, 285.4681091308594
0, 2, 52, 274.3064270019531
0, 2, 53, 287.1652526855469
0, 2, 54, 279.702392578125
0, 2, 55, 276.4261779785156
0, 2, 56, 301.9939270019531
0, 2, 57, 290.1524353027344
0, 2, 58, 300.5723876953125
0, 2, 59, 288.3003540039062
0, 2, 60, 319.8786010742188
0, 2, 61, 301.4815979003906
0, 2, 62, 314.2961120605469
0, 2, 63, 302.2536926269531
0, 2, 64, 297.0160217285156
0, 2, 65, 315.1679382324219
0, 2, 66, 280.0328674316406
0, 2, 67, 291.0615539550781
0, 2, 68, 296.4559631347656
0, 2, 69, 311.6558532714844
0, 2, 70, 334.9460754394531
0, 2, 71, 286.188232421875
0, 2, 72, 304.3604431152344
0, 2, 73, 310.0719604492188
0, 2, 74, 286.6654357910156
0, 2, 75, 303.1260681152344
0, 2, 76, 287.5272521972656
0, 2, 77, 300.897705078125
0, 2, 78, 313.7967224121094
0, 2, 79, 311.1062927246094
0, 2, 80, 297.2910766601562
0, 2, 81, 282.1672668457031
0, 2, 82, 317.5921020507812
0, 2, 83, 313.0403747558594
0, 2, 84, 286.7886657714844
0, 2, 85, 280.5868225097656
0, 2, 86, 323.446044921875
0, 2, 87, 286.4797973632812
0, 2, 88, 281.0245361328125
0, 2, 89, 295.3021850585938
0, 2, 90, 296.3682250976562
0, 2, 91, 276.1652526855469
0, 2, 92, 305.4389038085938
0, 2, 93, 317.2943725585938
0, 2, 94, 291.4690246582031
0, 2, 95, 313.5252075195312
0, 2, 96, 317.291259765625
0, 2, 97, 291.89990234375
0, 2, 98, 294.8826293945312
0, 2, 99, 274.337158203125
0, 2, 100, 305.9100341796875
0, 2, 101, 299.8781433105469
0, 2, 102, 296.6626586914062
0, 2, 103, 294.0896911621094
0, 2, 104, 293.6799926757812
0, 2, 105, 273.867431640625
0, 2, 106, 297.8732604980469
0, 2, 107, 275.0699157714844
0, 2, 108, 118.4067993164062
0, 2, 109, 32.80706024169922
0, 2, 110, 10.16814517974854
0, 2, 111, 11.24229526519775
0, 2, 112, 9.497194290161133
0, 2, 113, 13.4340295791626
0, 2, 114, 10.48949146270752
0, 2, 115, 9.373231887817383
0, 2, 116, 7.376830101013184
0, 2, 117, 5.570014953613281
0, 2, 118, 3.501246690750122
0, 2, 119, 3.825169324874878
0, 2, 120, 9.213756561279297
0, 2, 121, 2.824149608612061
0, 2, 122, 4.958549022674561
0, 2, 123, 5.137781143188477
0, 2, 124, 2.80037260055542
0, 2, 125, 4.740011692047119
0, 2, 126, 2.859199047088623
0, 2, 127, 4.580295085906982
0, 3, 0, 1.511384963989258
0, 3, 1, 2.511990308761597
0, 3, 2, 3.809140920639038
0, 3, 3, 5.6504225730896
0, 3, 4, 3.388635158538818
0, 3, 5, 6.8332839012146
0, 3, 6, 6.889523029327393
0, 3, 7, 4.468437671661377
0, 3, 8, 5.792168140411377
0, 3, 9, 4.938404560089111
0, 3, 10, 6.248851299285889
0, 3, 11, 3.783969163894653
0, 3, 12, 5.334596633911133
0, 3, 13, 15.58210277557373
0, 3, 14, 12.07316207885742
0, 3, 15, 14.40028285980225
0, 3, 16, 12.03446769714355
0, 3, 17, 19.19064140319824
0, 3, 18, 52.09403228759766
0, 3, 19, 176.0922546386719
0, 3, 20, 270.5516662597656
0, 3, 21, 271.2313842773438
0, 3, 22, 281.9981994628906
0, 3, 23, 286.2058410644531
0, 3, 24, 287.069091796875
0, 3, 25, 270.3677978515625
0, 3, 26, 305.3031311035156
0, 3, 27, 293.4593811035156
0, 3, 28, 280.6173400878906
0, 3, 29, 339.0940246582031
0, 3, 30, 319.4478759765625
0, 3, 31, 288.8167724609375
0, 3, 32, 309.3081970214844
0, 3, 33, 313.7553100585938
0, 3, 34, 321.6183776855469
0, 3, 35, 305.9403991699219
0, 3, 36, 271.3538208007812
0, 3, 37, 315.4779052734375
0, 3, 38, 302.4334716796875
0, 3, 39, 287.7047119140625
0, 3, 40, 265.1515502929688
0, 3, 41, 300.7527770996094
0, 3, 42, 284.4258728027344
0, 3, 43, 305.4405517578125
0, 3, 44, 309.8497314453125
0, 3, 45, 289.77587890625
0, 3, 46, 329.6708679199219
0, 3, 47, 300.3183288574219
0, 3, 48, 304.4181213378906
0, 3, 49, 276.7464599609375
0, 3, 50, 290.6578674316406
0, 3, 51, 275.1934204101562
0, 3, 52, 315.6765747070312
0, 3, 53, 290.5992431640625
0, 3, 54, 284.7907409667969
0, 3, 55, 283.4559631347656
0, 3, 56, 298.9056396484375
0, 3, 57, 288.15869140625
0, 3, 58, 309.0225830078125
0, 3, 59, 297.4501647949219
0, 3, 60, 297.56689453125
0, 3, 61, 264.5359191894531
0, 3, 62, 284.8377380371094
0, 3, 63, 308.794921875
0, 3, 64, 316.7674255371094
0, 3, 65, 304.126953125
0, 3, 66, 316.2722778320312
0, 3, 67, 319.23876953125
0, 3, 68, 282.2173156738281
0, 3, 69, 287.4930725097656
0, 3, 70, 287.7121887207031
0, 3, 71, 301.1367797851562
0, 3, 72, 269.19580078125
0, 3, 73, 307.5559997558594
0, 3, 74, 292.7846069335938
0, 3, 75, 291.3033752441406
0, 3, 76, 306.4312744140625
0, 3, 77, 314.7989501953125
0, 3, 78, 303.4586791992188
0, 3, 79, 281.4283752441406
0, 3, 80, 292.3359375
0, 3, 81, 310.5326232910156
0, 3, 82, 315.2049560546875
0, 3, 83, 300.8602600097656
0, 3, 84, 310.9522399902344
0, 3, 85, 292.9273071289062
0, 3, 86, 303.04931640625
0, 3, 87, 300.24462890625
0, 3, 88, 297.6638793945312
0, 3, 89, 296.6339416503906
0, 3, 90, 275.4376831054688
0, 3, 91, 284.4380187988281
0, 3, 92, 302.6472778320312
0, 3, 93, 313.2859191894531
0, 3, 94, 301.5576171875
0, 3, 95, 334.9274291992188
0, 3, 96, 289.7081298828125
0, 3, 97, 282.3350524902344
0, 3, 98, 278.0230712890625
0, 3, 99, 262.3489685058594
0, 3, 100, 284.9378967285156
0, 3, 101, 297.9308776855469
0, 3, 102, 274.651611328125
0, 3, 103, 319.4573364257812
0, 3, 104, 308.9647521972656
0, 3, 105, 287.3295288085938
0, 3, 106, 301.7472229003906
0, 3, 107, 280.7529296875
0, 3, 108, 169.1696929931641
0, 3, 109, 56.51565170288086
0, 3, 110, 20.1341724395752
0, 3, 111, 12.53415870666504
0, 3, 112, 16.03619194030762
0, 3, 113, 7.773879528045654
0, 3, 114, 10.1660795211792
0, 3, 115, 8.199411392211914
0, 3, 116, 8.494894981384277
0, 3, 117, 9.370468139648438
0, 3, 118, 10.37966442108154
0, 3, 119, 7.811476707458496
0, 3, 120, 3.267070293426514
0, 3, 121, 4.048917293548584
0, 3, 122, 5.133323669433594
0, 3, 123, 5.490768909454346
0, 3, 124, 3.545027494430542
0, 3, 125, 6.391409873962402
0, 3, 126, 4.896748065948486
0, 3, 127, 2.511061668395996
0, 4, 0, 4.651552200317383
0, 4, 1, 5.169684410095215
0, 4, 2, 2.795973777770996
0, 4, 3, 3.358033418655396
0, 4, 4, 7.101545810699463
0, 4, 5, 9.189284324645996
0, 4, 6, 5.451418876647949
0, 4, 7, 4.073843002319336
0, 4, 8, 3.217504024505615
0, 4, 9, 5.045255184173584
0, 4, 10, 6.313688278198242
0, 4, 11, 7.107738494873047
0, 4, 12, 7.858375072479248
0, 4, 13, 7.781074047088623
0, 4, 14, 11.91182327270508
0, 4, 15, 9.431934356689453
0, 4, 16, 15.61583995819092
0, 4, 17, 18.20005226135254
0, 4, 18, 91.64482879638672
0, 4, 19, 223.7291259765625
0, 4, 20, 285.5284423828125
0, 4, 21, 273.9627990722656
0, 4, 22, 306.5697021484375
0, 4, 23, 265.9969177246094
0, 4, 24, 289.3086853027344
0, 4, 25, 273.947509765625
0, 4, 26, 298.1065979003906
0, 4, 27, 282.4591979980469
0, 4, 28, 309.9671325683594
0, 4, 29, 322.4119262695312
0, 4, 30, 308.4647216796875
0, 4, 31, 303.734130859375
0, 4, 32, 280.3644714355469
0, 4, 33, 296.0968322753906
0, 4, 34, 299.4533081054688
0, 4, 35, 313.4761047363281
0, 4, 36, 294.0943298339844
0, 4, 37, 291.0440979003906
0, 4, 38, 297.0596923828125
0, 4, 39, 293.9915771484375
0, 4, 40, 304.5911865234375
0, 4, 41, 310.6385803222656
0, 4, 42, 330.5794982910156
0, 4, 43, 296.0443115234375
0, 4, 44, 323.3643798828125
0, 4, 45, 326.2616577148438
0, 4, 46, 305.7429504394531
0, 4, 47, 293.5621337890625
0, 4, 48, 294.4870910644531
0, 4, 49, 278.6849365234375
0, 4, 50, 296.8750610351562
0, 4, 51, 315.7299194335938
0, 4, 52, 328.961669921875
0, 4, 53, 305.32763671875
0, 4, 54, 287.6227722167969
0, 4, 55, 315.9578857421875
0, 4, 56, 286.5965881347656
0, 4, 57, 310.7764282226562
0, 4, 58, 295.9254760742188
0, 4, 59, 308.0849304199219
0, 4, 60, 303.5911254882812
0, 4, 61, 315.840576171875
0, 4, 62, 306.1087341308594
0, 4, 63, 299.13330078125
0, 4, 64, 329.9262390136719
0, 4, 65, 315.4955749511719
0, 4, 66, 294.7560729980469
0, 4, 67, 286.2791442871094
0, 4, 68, 314.6978149414062
0, 4, 69, 277.3248291015625
0, 4, 70, 299.30712890625
0, 4, 71, 321.2920532226562
0, 4, 72, 333.7055053710938
0, 4, 73, 299.6934509277344
0, 4, 74, 292.7691650390625
0, 4, 75, 288.3025207519531
0, 4, 76, 274.8171691894531
0, 4, 77, 279.0647888183594
0, 4, 78, 309.0798645019531
0, 4, 79, 319.1896362304688
0, 4, 80, 314.9373779296875
0, 4, 81, 311.7178649902344
0, 4, 82, 298.4104614257812
0, 4, 83, 299.1248779296875
0, 4, 84, 293.8252563476562
0, 4, 85, 296.1360168457031
0, 4, 86, 298.5200500488281
0, 4, 87, 284.8446655273438
0, 4, 88, 307.216796875
0, 4, 89, 296.2379150390625
0, 4, 90, 334.9238586425781
0, 4, 91, 302.0964050292969
0, 4, 92, 288.5225524902344
0, 4, 93, 296.7879028320312
0, 4, 94, 291.6166687011719
0, 4, 95, 289.1986999511719
0, 4, 96, 322.644287109375
0, 4, 97, 273.7380065917969
0, 4, 98, 327.0750732421875
0, 4, 99, 315.5306091308594
0, 4, 100, 302.2250671386719
0, 4, 101, 256.8156127929688
0, 4, 102, 297.7751770019531
0, 4, 103, 317.3003540039062
0, 4, 104, 282.6908264160156
0, 4, 105, 309.5037231445312
0, 4, 106, 286.3188171386719
0, 4, 107, 294.5439758300781
0, 4, 108, 226.8968658447266
0, 4, 109, 79.07596588134766
0, 4, 110, 16.54612350463867
0, 4, 111, 13.17690086364746
0, 4, 112, 8.333775520324707
0, 4, 113, 10.85436725616455
0, 4, 114, 8.099062919616699
0, 4, 115, 8.184803009033203
0, 4, 116, 9.531257629394531
0, 4, 117, 4.948235034942627
0, 4, 118, 12.63426303863525
0, 4, 119, 8.291921615600586
0, 4, 120, 5.972007751464844
0, 4, 121, 6.13027811050415
0, 4, 122, 6.029569149017334
0, 4, 123, 6.051680564880371
0, 4, 124, 4.247954845428467
0, 4, 125, 9.523354530334473
0, 4, 126, 4.947902679443359
0, 4, 127, 3.857756614685059
0, 5, 0, 6.223968029022217
0, 5, 1, 2.999258041381836
0, 5, 2, 3.192350387573242
0, 5, 3, 4.28841495513916
0, 5, 4, 7.252727508544922
0, 5, 5, 4.56458854675293
0, 5, 6, 7.538411140441895
0, 5, 7, 4.153347015380859
0, 5, 8, 4.32462739944458
0, 5, 9, 4.440848350524902
0, 5, 10, 7.801762580871582
0, 5, 11, 6.713244915008545
0, 5, 12, 9.172945022583008
0, 5, 13, 5.093776226043701
0, 5, 14, 14.40414810180664
0, 5, 15, 15.93623161315918
0, 5, 16, 14.07116222381592
0, 5, 17, 28.7863655090332
0, 5, 18, 137.2291107177734
0, 5, 19, 287.6706848144531
0, 5, 20, 306.490966796875
0, 5, 21, 317.471435546875
0, 5, 22, 274.3173522949219
0, 5, 23, 309.7560424804688
0, 5, 24, 300.617919921875
0, 5, 25, 289.0073852539062
0, 5, 26, 295.5419921875
0, 5, 27, 320.8804626464844
0, 5, 28, 303.2486267089844
0, 5, 29, 298.8060302734375
0, 5, 30, 324.2492980957031
0, 5, 31, 286.747314453125
0, 5, 32, 303.5270080566406
0, 5, 33, 304.5389099121094
0, 5, 34, 299.487060546875
0, 5, 35, 313.1720581054688
0, 5, 36, 268.3330383300781
0, 5, 37, 281.4734497070312
0, 5, 38, 293.7274475097656
0, 5, 39, 313.7733459472656
0, 5, 40, 308.6878662109375
0, 5, 41, 274.7196655273438
0, 5, 42, 304.3999938964844
0, 5, 43, 314.6397705078125
0, 5, 44, 291.2030944824219
0, 5, 45, 301.1993713378906
0, 5, 46, 264.1686706542969
0, 5, 47, 279.612548828125
0, 5, 48, 293.3320922851562
0, 5, 49, 287.0306396484375
0, 5, 50, 293.4889526367188
0, 5, 51, 279.4103698730469
0, 5, 52, 269.7569885253906
0, 5, 53, 283.9439086914062
0, 5, 54, 293.070556640625
0, 5, 55, 346.5191345214844
0, 5, 56, 304.9990844726562
0, 5, 57, 306.8516540527344
0, 5, 58, 311.6067199707031
0, 5, 59, 302.6387023925781
0, 5, 60, 308.9391784667969
0, 5, 61, 280.4667053222656
0, 5, 62, 324.5263061523438
0, 5, 63, 289.2850952148438
0, 5, 64, 321.6323547363281
0, 5, 65, 307.9440612792969
0, 5, 66, 327.4292907714844
0, 5, 67, 311.6025085449219
0, 5, 68, 307.4628295898438
0, 5, 69, 310.4626770019531
0, 5, 70, 303.0159912109375
0, 5, 71, 272.6258850097656
0, 5, 72, 310.5559387207031
0, 5, 73, 300.300048828125
0, 5, 74, 295.6806640625
0, 5, 75, 294.4779357910156
0, 5, 76, 285.4146728515625
0, 5, 77, 298.3481750488281
0, 5, 78, 316.9403686523438
0, 5, 79, 307.31103515625
0, 5, 80, 293.9367065429688
0, 5, 81, 327.0206604003906
0, 5, 82, 324.6555786132812
0, 5, 83, 283.1337280273438
0, 5, 84, 300.7796325683594
0, 5, 85, 270.3258666992188
0, 5, 86, 324.5973510742188
0, 5, 87, 283.1419677734375
0, 5, 88, 311.6904602050781
0, 5, 89, 305.4193115234375
0, 5, 90, 316.1539611816406
0, 5, 91, 312.4938354492188
0, 5, 92, 295.7698669433594
0, 5, 93, 321.4051208496094
0, 5, 94, 306.7908020019531
0, 5, 95, 296.0018005371094
0, 5, 96, 297.5939331054688
0, 5, 97, 297.9598999023438
0, 5, 98, 319.0567626953125
0, 5, 99, 301.6108093261719
0, 5, 100, 291.366455078125
0, 5, 101, 305.6769409179688
0, 5, 102, 291.2232055664062
0, 5, 103, 313.163818359375
0, 5, 104, 302.3500366210938
0, 5, 105, 291.8050537109375
0, 5, 106, 282.658203125
0, 5, 107, 293.5876770019531
0, 5, 108, 263.36669921875
0, 5, 109, 156.5028991699219
0, 5, 110, 40.23559188842773
0, 5, 111, 19.22713088989258
0, 5, 112, 16.77552795410156
0, 5, 113, 14.07173728942871
0, 5, 114, 12.21154022216797
0, 5, 115, 7.030868530273438
0, 5, 116, 6.977682113647461
0, 5, 117, 6.018657684326172
0, 5, 118, 13.52451229095459
0, 5, 119, 7.543106079101562
0, 5, 120, 4.869804859161377
0, 5, 121, 4.334092140197754
0, 5, 122, 6.238664150238037
0, 5, 123, 5.496021747589111
0, 5, 124, 7.595536708831787
0, 5, 125, 3.186333894729614
0, 5, 126, 7.144192695617676
0, 5, 127, 2.840403079986572
0, 6, 0, 3.771765232086182
0, 6, 1, 2.860543251037598
0, 6, 2, 5.313422679901123
0, 6, 3, 6.635097980499268
0, 6, 4, 3.067004919052124
0, 6, 5, 5.07596492767334
0, 6, 6, 11.9095573425293
0, 6, 7, 6.69919490814209
0, 6, 8, 7.225213050842285
0, 6, 9, 5.898896217346191
0, 6, 10, 6.998648643493652
0, 6, 11, 9.491531372070312
0, 6, 12, 9.192784309387207
0, 6, 13, 15.59060192108154
0, 6, 14, 10.28555107116699
0, 6, 15, 20.73551940917969
0, 6, 16, 30.02261161804199
0, 6, 17, 56.03329849243164
0, 6, 18, 175.8228607177734
0, 6, 19, 275.8467407226562
0, 6, 20, 292.8132629394531
0, 6, 21, 313.3800048828125
0, 6, 22, 322.8096008300781
0, 6, 23, 305.623779296875
0, 6, 24, 316.2716674804688
0, 6, 25, 315.0818176269531
0, 6, 26, 318.8897399902344
0, 6, 27, 331.7052612304688
0, 6, 28, 296.2794494628906
0, 6, 29, 330.1777038574219
0, 6, 30, 280.1273193359375
0, 6, 31, 286.6807861328125
0, 6, 32, 342.1282958984375
0, 6, 33, 299.8015441894531
0, 6, 34, 340.2037353515625
0, 6, 35, 321.3107299804688
0, 6, 36, 276.4095153808594
0, 6, 37, 288.104248046875
0, 6, 38, 312.2793884277344
0, 6, 39, 299.445556640625
0, 6, 40, 286.3458251953125
0, 6, 41, 294.2854919433594
0, 6, 42, 303.9546508789062
0, 6, 43, 291.5579833984375
0, 6, 44, 281.6153564453125
0, 6, 45, 319.9607849121094
0, 6, 46, 301.556396484375
0, 6, 47, 334.8580627441406
0, 6, 48, 292.0474243164062
0, 6, 49, 311.3471374511719
0, 6, 50, 328.281005859375
0, 6, 51, 310.96533203125
0, 6, 52, 321.0654602050781
0, 6, 53, 329.9888610839844
0, 6, 54, 303.3947448730469
0, 6, 55, 305.8720397949219
0, 6, 56, 296.837890625
0, 6, 57, 314.7270812988281
0, 6, 58, 261.5319213867188
0, 6, 59, 303.7640686035156
0, 6, 60, 312.4350891113281
0, 6, 61, 272.5656433105469
0, 6, 62, 339.7393493652344
0, 6, 63, 323.9059143066406
0, 6, 64, 289.1904602050781
0, 6, 65, 284.9881286621094
0, 6, 66, 302.7164306640625
0, 6, 67, 309.315185546875
0, 6, 68, 295.8417358398438
0, 6, 69, 277.6366882324219
0, 6, 70, 272.9604797363281
0, 6, 71, 288.9168090820312
0, 6, 72, 310.6135559082031
0, 6, 73, 296.9580383300781
0, 6, 74, 331.204345703125
0, 6, 75, 343.1940307617188
0, 6, 76, 296.7757263183594
0, 6, 77, 284.7864074707031
0, 6, 78, 280.0818786621094
0, 6, 79, 291.8941345214844
0, 6, 80, 301.5322265625
0, 6, 81, 313.9417419433594
0, 6, 82, 319.3655700683594
0, 6, 83, 322.0232543945312
0, 6, 84, 297.3740234375
0, 6, 85, 300.2358703613281
0, 6, 86, 331.3211059570312
0, 6, 87, 292.3191833496094
0, 6, 88, 305.5696105957031
0, 6, 89, 304.8482055664062
0, 6, 90, 298.6643676757812
0, 6, 91, 311.8995666503906
0, 6, 92, 287.2097473144531
0, 6, 93, 296.8906555175781
0, 6, 94, 274.36376953125
0, 6, 95, 299.6576232910156
0, 6, 96, 346.5790100097656
0, 6, 97, 306.7276000976562
0, 6, 98, 300.2987060546875
0, 6, 99, 271.8389892578125
0, 6, 100, 308.3703002929688
0, 6, 101, 291.8605346679688
0, 6, 102, 308.52783203125
0, 6, 103, 307.9688720703125
0, 6, 104, 288.9767761230469
0, 6, 105, 304.675048828125
0, 6, 106, 307.5260314941406
0, 6, 107, 305.9631958007812
0, 6, 108, 267.1700439453125
0, 6, 109, 186.2618103027344
0, 6, 110, 55.74539947509766
0, 6, 111, 22.07589912414551
0, 6, 112, 11.92551898956299
0, 6, 113, 11.22737884521484
0, 6, 114, 11.35386657714844
0, 6, 115, 12.73654365539551
0, 6, 116, 8.96965503692627
0, 6, 117, 6.868329048156738
0, 6, 118, 9.768655776977539
0, 6, 119, 7.416909694671631
0, 6, 120, 4.865274429321289
0, 6, 121, 7.194450378417969
0, 6, 122, 5.533927917480469
0, 6, 123, 7.085371971130371
0, 6, 124, 6.706581592559814
0, 6, 125, 5.888033390045166
0, 6, 126, 5.744741916656494
0, 6, 127, 5.759806156158447
0, 7, 0, 8.244282722473145
0, 7, 1, 4.327197551727295
0, 7, 2, 8.833974838256836
0, 7, 3, 5.813862800598145
0, 7, 4, 4.083212375640869
0, 7, 5, 5.965841770172119
0, 7, 6, 6.300803661346436
0, 7, 7, 7.274299621582031
0, 7, 8, 6.287824630737305
0, 7, 9, 6.465337753295898
0, 7, 10, 8.342292785644531
0, 7, 11, 12.91476440429688
0, 7, 12, 10.91705226898193
0, 7, 13, 13.2464427947998
0, 7, 14, 10.38994407653809
0, 7, 15, 16.42725372314453
0, 7, 16, 27.46786880493164
0, 7, 17, 97.42178344726562
0, 7, 18, 218.2027893066406
0, 7, 19, 293.2816162109375
0, 7, 20, 296.1856689453125
0, 7, 21, 275.9501953125
0, 7, 22, 300.0613708496094
0, 7, 23, 291.2508544921875
0, 7, 24, 313.7860717773438
0, 7, 25, 325.3777770996094
0, 7, 26, 276.9668884277344
0, 7, 27, 296.9768981933594
0, 7, 28, 325.3877868652344
0, 7, 29, 320.5117797851562
0, 7, 30, 299.439453125
0, 7, 31, 277.9537658691406
0, 7, 32, 305.6982421875
0, 7, 33, 263.9727478027344
0, 7, 34, 298.4783020019531
0, 7, 35, 318.80712890625
0, 7, 36, 330.7986145019531
0, 7, 37, 323.9956359863281
0, 7, 38, 296.3549499511719
0, 7, 39, 306.9204406738281
0, 7, 40, 288.4504089355469
0, 7, 41, 270.9637756347656
0, 7, 42, 301.2700805664062
0, 7, 43, 273.9953308105469
0, 7, 44, 304.3352355957031
0, 7, 45, 295.4205017089844
0, 7, 46, 285.2929077148438
0, 7, 47, 329.2028198242188
0, 7, 48, 287.1684875488281
0, 7, 49, 300.36474609375
0, 7, 50, 322.5601196289062
0, 7, 51, 298.5482482910156
0, 7, 52, 325.0995788574219
0, 7, 53, 308.1294250488281
0, 7, 54, 321.7991333007812
0, 7, 55, 306.5723266601562
0, 7, 56, 277.8563537597656
0, 7, 57, 282.4642944335938
0, 7, 58, 297.5767211914062
0, 7, 59, 293.7635803222656
0, 7, 60, 322.2789001464844
0, 7, 61, 276.7931213378906
0, 7, 62, 298.3963012695312
0, 7, 63, 294.2795104980469
0, 7, 64, 306.5812072753906
0, 7, 65, 332.8493957519531
0, 7, 66, 320.7519226074219
0, 7, 67, 304.1839294433594
0, 7, 68, 280.7321166992188
0, 7, 69, 292.7064208984375
0, 7, 70, 305.6288757324219
0, 7, 71, 310.2030639648438
0, 7, 72, 285.1489562988281
0, 7, 73, 294.8876037597656
0, 7, 74, 343.6936645507812
0, 7, 75, 318.64453125
0, 7, 76, 322.22900390625
0, 7, 77, 282.3096008300781
0, 7, 78, 299.2787475585938
0, 7, 79, 299.3752746582031
0, 7, 80, 310.1366271972656
0, 7, 81, 320.1958618164062
0, 7, 82, 327.9526977539062
0, 7, 83, 317.9754638671875
0, 7, 84, 309.2563171386719
0, 7, 85, 272.1311645507812
0, 7, 86, 310.8843688964844
0, 7, 87, 311.0361938476562
0, 7, 88, 307.712646484375
0, 7, 89, 292.9680786132812
0, 7, 90, 306.6659851074219
0, 7, 91, 315.8614501953125
0, 7, 92, 291.179443359375
0, 7, 93, 309.7407531738281
0, 7, 94, 276.4236755371094
0, 7, 95, 296.8221740722656
0, 7, 96, 332.8252868652344
0, 7, 97, 294.7060852050781
0, 7, 98, 291.547607421875
0, 7, 99, 312.6986999511719
0, 7, 100, 281.5539245605469
0, 7, 101, 274.5942077636719
0, 7, 102, 290.0883483886719
0, 7, 103, 293.88232421875
0, 7, 104, 275.0189514160156
0, 7, 105, 304.7330932617188
0, 7, 106, 317.7090759277344
0, 7, 107, 298.3559875488281
0, 7, 108, 273.3513793945312
0, 7, 109, 236.8096923828125
0, 7, 110, 95.92414855957031
0, 7, 111, 23.90327262878418
0, 7, 112, 13.44426155090332
0, 7, 113, 15.09852504730225
0, 7, 114, 16.35277938842773
0, 7, 115, 11.09774684906006
0, 7, 116, 7.597463607788086
0, 7, 117, 9.513325691223145
0, 7, 118, 11.42795562744141
0, 7, 119, 6.31657600402832
0, 7, 120, 4.322932243347168
0, 7, 121, 8.072049140930176
0, 7, 122, 8.22313117980957
0, 7, 123, 3.978361129760742
0, 7, 124, 4.611981868743896
0, 7, 125, 6.838696002960205
0, 7, 126, 9.822590827941895
0, 7, 127, 3.09263801574707
0, 8, 0, 5.372623443603516
0, 8, 1, 6.475028514862061
0, 8, 2, 4.440788269042969
0, 8, 3, 2.817761421203613
0, 8, 4, 4.300918102264404
0, 8, 5, 3.822945594787598
0, 8, 6, 4.034247398376465
0, 8, 7, 4.633591651916504
0, 8, 8, 8.102028846740723
0, 8, 9, 5.121038913726807
0, 8, 10, 9.759108543395996
0, 8, 11, 11.82607746124268
0, 8, 12, 11.3817834854126
0, 8, 13, 12.61563205718994
0, 8, 14, 15.33457660675049
0, 8, 15, 18.53147125244141
0, 8, 16, 32.56734848022461
0, 8, 17, 129.5430145263672
0, 8, 18, 242.4381713867188
0, 8, 19, 294.5218200683594
0, 8, 20, 283.8328552246094
0, 8, 21, 308.8815612792969
0, 8, 22, 295.1434020996094
0, 8, 23, 275.46435546875
0, 8, 24, 269.853759765625
0, 8, 25, 274.9618530273438
0, 8, 26, 305.9771118164062
0, 8, 27, 307.0966796875
0, 8, 28, 303.8548583984375
0, 8, 29, 318.3368530273438
0, 8, 30, 313.6784362792969
0, 8, 31, 302.9190673828125
0, 8, 32, 280.3785400390625
0, 8, 33, 294.2186889648438
0, 8, 34, 290.4253845214844
0, 8, 35, 280.22412109375
0, 8, 36, 315.031982421875
0, 8, 37, 342.2509155273438
0, 8, 38, 332.3070983886719
0, 8, 39, 279.7288208007812
0, 8, 40, 305.0739440917969
