# TOPAS Version: 3.1.p3
# Parameter File: batch_inserts_54.txt
# Results for scorer Readout_Adipose
# Scored in component: MyBox
# X in 1 bin  of 0.75 cm
# Y in 512 bins of 0.0783984 cm
# Z in 128 bins of 0.078125 cm
# EnergyDeposit ( MeV ) : Sum   
0, 0, 0, 25.56135940551758
0, 0, 1, 24.83732986450195
0, 0, 2, 22.51326751708984
0, 0, 3, 24.58847427368164
0, 0, 4, 15.944655418396
0, 0, 5, 21.99118232727051
0, 0, 6, 23.31919097900391
0, 0, 7, 32.80157089233398
0, 0, 8, 22.66106033325195
0, 0, 9, 23.97907447814941
0, 0, 10, 25.20187759399414
0, 0, 11, 30.49836921691895
0, 0, 12, 37.18862915039062
0, 0, 13, 32.79581832885742
0, 0, 14, 34.98322677612305
0, 0, 15, 49.62236022949219
0, 0, 16, 46.79424285888672
0, 0, 17, 49.01218795776367
0, 0, 18, 72.87061309814453
0, 0, 19, 189.2331237792969
0, 0, 20, 695.95166015625
0, 0, 21, 1189.536987304688
0, 0, 22, 1245.286987304688
0, 0, 23, 1275.774291992188
0, 0, 24, 1283.703125
0, 0, 25, 1356.276123046875
0, 0, 26, 1275.60791015625
0, 0, 27, 1280.012573242188
0, 0, 28, 1318.751586914062
0, 0, 29, 1266.948120117188
0, 0, 30, 1264.56982421875
0, 0, 31, 1280.744506835938
0, 0, 32, 1262.464965820312
0, 0, 33, 1238.237548828125
0, 0, 34, 1326.119873046875
0, 0, 35, 1300.572265625
0, 0, 36, 1244.253784179688
0, 0, 37, 1279.884887695312
0, 0, 38, 1241.580078125
0, 0, 39, 1240.403076171875
0, 0, 40, 1226.16943359375
0, 0, 41, 1269.072143554688
0, 0, 42, 1252.806884765625
0, 0, 43, 1267.782958984375
0, 0, 44, 1227.979248046875
0, 0, 45, 1287.903076171875
0, 0, 46, 1260.879760742188
0, 0, 47, 1242.65869140625
0, 0, 48, 1276.84423828125
0, 0, 49, 1288.242553710938
0, 0, 50, 1312.046264648438
0, 0, 51, 1263.263427734375
0, 0, 52, 1358.736328125
0, 0, 53, 1325.65185546875
0, 0, 54, 1291.474731445312
0, 0, 55, 1234.762084960938
0, 0, 56, 1321.371215820312
0, 0, 57, 1289.638793945312
0, 0, 58, 1256.47509765625
0, 0, 59, 1332.382568359375
0, 0, 60, 1324.660034179688
0, 0, 61, 1264.4345703125
0, 0, 62, 1242.287231445312
0, 0, 63, 1277.216430664062
0, 0, 64, 1331.026245117188
0, 0, 65, 1281.405639648438
0, 0, 66, 1315.560913085938
0, 0, 67, 1217.892456054688
0, 0, 68, 1309.734741210938
0, 0, 69, 1330.46484375
0, 0, 70, 1344.493408203125
0, 0, 71, 1287.734252929688
0, 0, 72, 1316.985473632812
0, 0, 73, 1233.6962890625
0, 0, 74, 1294.140014648438
0, 0, 75, 1295.531982421875
0, 0, 76, 1257.286987304688
0, 0, 77, 1285.668701171875
0, 0, 78, 1312.348876953125
0, 0, 79, 1326.165771484375
0, 0, 80, 1260.412231445312
0, 0, 81, 1319.876586914062
0, 0, 82, 1287.699829101562
0, 0, 83, 1295.3154296875
0, 0, 84, 1320.457275390625
0, 0, 85, 1237.123413085938
0, 0, 86, 1264.8330078125
0, 0, 87, 1255.783447265625
0, 0, 88, 1258.683837890625
0, 0, 89, 1338.048706054688
0, 0, 90, 1277.474731445312
0, 0, 91, 1353.550903320312
0, 0, 92, 1303.32373046875
0, 0, 93, 1272.83935546875
0, 0, 94, 1242.439575195312
0, 0, 95, 1326.981323242188
0, 0, 96, 1283.964111328125
0, 0, 97, 1325.116333007812
0, 0, 98, 1256.622314453125
0, 0, 99, 1251.607177734375
0, 0, 100, 1286.882568359375
0, 0, 101, 1315.544067382812
0, 0, 102, 1236.114379882812
0, 0, 103, 1320.788696289062
0, 0, 104, 1261.512573242188
0, 0, 105, 1264.243041992188
0, 0, 106, 1206.58544921875
0, 0, 107, 781.8924560546875
0, 0, 108, 197.5520324707031
0, 0, 109, 70.78264617919922
0, 0, 110, 63.87741470336914
0, 0, 111, 39.21181106567383
0, 0, 112, 34.69377517700195
0, 0, 113, 33.32682800292969
0, 0, 114, 35.94594192504883
0, 0, 115, 30.45784759521484
0, 0, 116, 28.83651351928711
0, 0, 117, 29.04942893981934
0, 0, 118, 22.01174354553223
0, 0, 119, 22.9512939453125
0, 0, 120, 25.37943649291992
0, 0, 121, 28.61787414550781
0, 0, 122, 19.53254127502441
0, 0, 123, 16.7073974609375
0, 0, 124, 22.31509590148926
0, 0, 125, 23.24825477600098
0, 0, 126, 23.86547660827637
0, 0, 127, 16.37437629699707
0, 1, 0, 24.90560340881348
0, 1, 1, 18.66496849060059
0, 1, 2, 24.77864646911621
0, 1, 3, 21.38866233825684
0, 1, 4, 21.70752906799316
0, 1, 5, 24.68556785583496
0, 1, 6, 22.00268363952637
0, 1, 7, 24.42947006225586
0, 1, 8, 39.55039215087891
0, 1, 9, 30.14448165893555
0, 1, 10, 34.20972061157227
0, 1, 11, 42.24871063232422
0, 1, 12, 35.92146301269531
0, 1, 13, 45.36483001708984
0, 1, 14, 39.65594863891602
0, 1, 15, 46.80021667480469
0, 1, 16, 57.10915756225586
0, 1, 17, 63.54714965820312
0, 1, 18, 97.25178527832031
0, 1, 19, 398.1268310546875
0, 1, 20, 1041.566528320312
0, 1, 21, 1372.649658203125
0, 1, 22, 1478.80224609375
0, 1, 23, 1461.394775390625
0, 1, 24, 1446.7841796875
0, 1, 25, 1419.488403320312
0, 1, 26, 1472.583251953125
0, 1, 27, 1463.199829101562
0, 1, 28, 1490.460693359375
0, 1, 29, 1474.708740234375
0, 1, 30, 1507.2431640625
0, 1, 31, 1486.925048828125
0, 1, 32, 1412.277099609375
0, 1, 33, 1497.493286132812
0, 1, 34, 1502.677124023438
0, 1, 35, 1461.286376953125
0, 1, 36, 1494.7265625
0, 1, 37, 1408.133911132812
0, 1, 38, 1396.81103515625
0, 1, 39, 1525.217895507812
0, 1, 40, 1465.979614257812
0, 1, 41, 1488.353881835938
0, 1, 42, 1495.281616210938
0, 1, 43, 1503.126098632812
0, 1, 44, 1449.717407226562
0, 1, 45, 1487.480102539062
0, 1, 46, 1418.987548828125
0, 1, 47, 1433.291748046875
0, 1, 48, 1429.239013671875
0, 1, 49, 1486.704223632812
0, 1, 50, 1444.5283203125
0, 1, 51, 1472.975341796875
0, 1, 52, 1476.763305664062
0, 1, 53, 1480.55419921875
0, 1, 54, 1503.902587890625
0, 1, 55, 1500.477783203125
0, 1, 56, 1469.509399414062
0, 1, 57, 1459.27294921875
0, 1, 58, 1429.819458007812
0, 1, 59, 1480.391357421875
0, 1, 60, 1463.680053710938
0, 1, 61, 1449.667602539062
0, 1, 62, 1458.8427734375
0, 1, 63, 1416.19970703125
0, 1, 64, 1473.918701171875
0, 1, 65, 1419.038696289062
0, 1, 66, 1438.92724609375
0, 1, 67, 1456.149780273438
0, 1, 68, 1390.711669921875
0, 1, 69, 1464.787109375
0, 1, 70, 1434.182861328125
0, 1, 71, 1496.397094726562
0, 1, 72, 1437.777465820312
0, 1, 73, 1488.136108398438
0, 1, 74, 1462.554565429688
0, 1, 75, 1478.330444335938
0, 1, 76, 1451.176635742188
0, 1, 77, 1468.391723632812
0, 1, 78, 1452.84521484375
0, 1, 79, 1505.330810546875
0, 1, 80, 1450.367797851562
0, 1, 81, 1428.767333984375
0, 1, 82, 1474.95263671875
0, 1, 83, 1459.306274414062
0, 1, 84, 1535.544921875
0, 1, 85, 1448.255493164062
0, 1, 86, 1406.851196289062
0, 1, 87, 1421.375610351562
0, 1, 88, 1475.4541015625
0, 1, 89, 1477.553833007812
0, 1, 90, 1422.059204101562
0, 1, 91, 1463.195922851562
0, 1, 92, 1415.696166992188
0, 1, 93, 1460.572387695312
0, 1, 94, 1463.493408203125
0, 1, 95, 1419.430541992188
0, 1, 96, 1494.998413085938
0, 1, 97, 1516.533081054688
0, 1, 98, 1476.010498046875
0, 1, 99, 1418.614013671875
0, 1, 100, 1446.173706054688
0, 1, 101, 1412.977416992188
0, 1, 102, 1443.99365234375
0, 1, 103, 1412.766723632812
0, 1, 104, 1406.455810546875
0, 1, 105, 1462.21875
0, 1, 106, 1360.647583007812
0, 1, 107, 1017.784851074219
0, 1, 108, 401.2724914550781
0, 1, 109, 92.41273498535156
0, 1, 110, 61.36288833618164
0, 1, 111, 56.00582885742188
0, 1, 112, 49.95349502563477
0, 1, 113, 39.43633651733398
0, 1, 114, 40.27396774291992
0, 1, 115, 38.10271453857422
0, 1, 116, 35.55975341796875
0, 1, 117, 33.49740982055664
0, 1, 118, 32.36218643188477
0, 1, 119, 29.7077522277832
0, 1, 120, 28.28584861755371
0, 1, 121, 24.75236129760742
0, 1, 122, 22.25489616394043
0, 1, 123, 23.04432678222656
0, 1, 124, 31.54501533508301
0, 1, 125, 18.82138061523438
0, 1, 126, 19.71377944946289
0, 1, 127, 19.09259986877441
0, 2, 0, 17.19472122192383
0, 2, 1, 22.14346504211426
0, 2, 2, 28.01829719543457
0, 2, 3, 15.97952651977539
0, 2, 4, 24.85198974609375
0, 2, 5, 22.4508113861084
0, 2, 6, 24.62196159362793
0, 2, 7, 21.98867988586426
0, 2, 8, 27.1527214050293
0, 2, 9, 29.11687850952148
0, 2, 10, 29.71401786804199
0, 2, 11, 34.15851211547852
0, 2, 12, 41.6505126953125
0, 2, 13, 47.44815444946289
0, 2, 14, 48.65957260131836
0, 2, 15, 50.8768424987793
0, 2, 16, 58.81364822387695
0, 2, 17, 76.99612426757812
0, 2, 18, 149.3929748535156
0, 2, 19, 608.8943481445312
0, 2, 20, 1284.942993164062
0, 2, 21, 1438.968872070312
0, 2, 22, 1452.610107421875
0, 2, 23, 1406.22802734375
0, 2, 24, 1440.783569335938
0, 2, 25, 1521.614990234375
0, 2, 26, 1556.826416015625
0, 2, 27, 1452.99951171875
0, 2, 28, 1468.220336914062
0, 2, 29, 1461.91552734375
0, 2, 30, 1463.24853515625
0, 2, 31, 1536.034545898438
0, 2, 32, 1509.231689453125
0, 2, 33, 1443.59326171875
0, 2, 34, 1472.779052734375
0, 2, 35, 1473.29833984375
0, 2, 36, 1523.544677734375
0, 2, 37, 1546.638427734375
0, 2, 38, 1508.811645507812
0, 2, 39, 1467.07177734375
0, 2, 40, 1507.839599609375
0, 2, 41, 1515.96875
0, 2, 42, 1505.48095703125
0, 2, 43, 1552.676147460938
0, 2, 44, 1463.077026367188
0, 2, 45, 1482.5078125
0, 2, 46, 1429.355712890625
0, 2, 47, 1447.492065429688
0, 2, 48, 1397.842529296875
0, 2, 49, 1462.727294921875
0, 2, 50, 1447.0458984375
0, 2, 51, 1446.738403320312
0, 2, 52, 1491.525390625
0, 2, 53, 1521.064453125
0, 2, 54, 1523.81982421875
0, 2, 55, 1490.715576171875
0, 2, 56, 1461.322509765625
0, 2, 57, 1412.11083984375
0, 2, 58, 1455.262084960938
0, 2, 59, 1450.86376953125
0, 2, 60, 1467.673461914062
0, 2, 61, 1446.067016601562
0, 2, 62, 1468.365356445312
0, 2, 63, 1508.871459960938
0, 2, 64, 1458.090698242188
0, 2, 65, 1431.516967773438
0, 2, 66, 1486.902099609375
0, 2, 67, 1503.673828125
0, 2, 68, 1543.079833984375
0, 2, 69, 1534.992431640625
0, 2, 70, 1510.243286132812
0, 2, 71, 1461.293334960938
0, 2, 72, 1518.0458984375
0, 2, 73, 1519.4345703125
0, 2, 74, 1489.66845703125
0, 2, 75, 1507.112548828125
0, 2, 76, 1452.813720703125
0, 2, 77, 1507.390625
0, 2, 78, 1433.000122070312
0, 2, 79, 1537.968139648438
0, 2, 80, 1482.69580078125
0, 2, 81, 1463.35888671875
0, 2, 82, 1560.614135742188
0, 2, 83, 1515.271118164062
0, 2, 84, 1493.045532226562
0, 2, 85, 1513.00390625
0, 2, 86, 1546.275756835938
0, 2, 87, 1486.91796875
0, 2, 88, 1538.605590820312
0, 2, 89, 1468.154907226562
0, 2, 90, 1436.065063476562
0, 2, 91, 1406.267456054688
0, 2, 92, 1476.236572265625
0, 2, 93, 1494.903442382812
0, 2, 94, 1447.442504882812
0, 2, 95, 1543.126953125
0, 2, 96, 1517.105102539062
0, 2, 97, 1455.880737304688
0, 2, 98, 1462.29443359375
0, 2, 99, 1404.14013671875
0, 2, 100, 1470.162963867188
0, 2, 101, 1482.427001953125
0, 2, 102, 1463.362182617188
0, 2, 103, 1390.004638671875
0, 2, 104, 1410.275390625
0, 2, 105, 1394.147705078125
0, 2, 106, 1459.497436523438
0, 2, 107, 1274.638427734375
0, 2, 108, 619.5274658203125
0, 2, 109, 169.6382751464844
0, 2, 110, 64.87680816650391
0, 2, 111, 57.71218490600586
0, 2, 112, 45.85766983032227
0, 2, 113, 42.96556091308594
0, 2, 114, 41.81457138061523
0, 2, 115, 40.03024673461914
0, 2, 116, 36.62078094482422
0, 2, 117, 33.78743362426758
0, 2, 118, 27.33102226257324
0, 2, 119, 30.21345520019531
0, 2, 120, 33.33015060424805
0, 2, 121, 17.3454475402832
0, 2, 122, 24.39605903625488
0, 2, 123, 18.62249946594238
0, 2, 124, 27.24566650390625
0, 2, 125, 29.98861694335938
0, 2, 126, 20.56838035583496
0, 2, 127, 20.10489082336426
0, 3, 0, 19.80490112304688
0, 3, 1, 25.15654945373535
0, 3, 2, 18.86038970947266
0, 3, 3, 24.42125129699707
0, 3, 4, 24.66825675964355
0, 3, 5, 21.14090728759766
0, 3, 6, 31.52182579040527
0, 3, 7, 29.0893611907959
0, 3, 8, 30.22550773620605
0, 3, 9, 25.28993606567383
0, 3, 10, 31.18339729309082
0, 3, 11, 34.52311706542969
0, 3, 12, 46.20683288574219
0, 3, 13, 50.22724151611328
0, 3, 14, 55.48588943481445
0, 3, 15, 58.63268661499023
0, 3, 16, 71.98564910888672
0, 3, 17, 94.84119415283203
0, 3, 18, 237.9099273681641
0, 3, 19, 888.5489501953125
0, 3, 20, 1387.18310546875
0, 3, 21, 1506.90380859375
0, 3, 22, 1462.935913085938
0, 3, 23, 1454.471923828125
0, 3, 24, 1436.645141601562
0, 3, 25, 1457.6748046875
0, 3, 26, 1493.380249023438
0, 3, 27, 1464.627197265625
0, 3, 28, 1487.932739257812
0, 3, 29, 1546.081909179688
0, 3, 30, 1576.062866210938
0, 3, 31, 1512.149047851562
0, 3, 32, 1547.561279296875
0, 3, 33, 1542.017456054688
0, 3, 34, 1487.271850585938
0, 3, 35, 1462.7294921875
0, 3, 36, 1451.983520507812
0, 3, 37, 1511.984252929688
0, 3, 38, 1515.990356445312
0, 3, 39, 1436.654174804688
0, 3, 40, 1447.862426757812
0, 3, 41, 1561.726196289062
0, 3, 42, 1459.699462890625
0, 3, 43, 1454.114013671875
0, 3, 44, 1451.353515625
0, 3, 45, 1507.427124023438
0, 3, 46, 1507.051879882812
0, 3, 47, 1438.8623046875
0, 3, 48, 1508.769897460938
0, 3, 49, 1456.162475585938
0, 3, 50, 1486.215942382812
0, 3, 51, 1534.452026367188
0, 3, 52, 1538.789672851562
0, 3, 53, 1466.36962890625
0, 3, 54, 1537.569946289062
0, 3, 55, 1502.790405273438
0, 3, 56, 1435.942138671875
0, 3, 57, 1502.534545898438
0, 3, 58, 1515.651245117188
0, 3, 59, 1512.173950195312
0, 3, 60, 1531.535278320312
0, 3, 61, 1478.909423828125
0, 3, 62, 1491.916137695312
0, 3, 63, 1497.088134765625
0, 3, 64, 1498.475219726562
0, 3, 65, 1516.548706054688
0, 3, 66, 1556.5390625
0, 3, 67, 1548.192626953125
0, 3, 68, 1446.734375
0, 3, 69, 1469.182983398438
0, 3, 70, 1387.230834960938
0, 3, 71, 1465.546142578125
0, 3, 72, 1548.769287109375
0, 3, 73, 1505.541015625
0, 3, 74, 1464.405151367188
0, 3, 75, 1458.182739257812
0, 3, 76, 1576.230590820312
0, 3, 77, 1541.490844726562
0, 3, 78, 1428.710815429688
0, 3, 79, 1492.09326171875
0, 3, 80, 1460.082153320312
0, 3, 81, 1477.397705078125
0, 3, 82, 1558.2880859375
0, 3, 83, 1510.685424804688
0, 3, 84, 1560.0908203125
0, 3, 85, 1480.072631835938
0, 3, 86, 1520.462158203125
0, 3, 87, 1534.20263671875
0, 3, 88, 1462.307373046875
0, 3, 89, 1446.708862304688
0, 3, 90, 1452.10888671875
0, 3, 91, 1418.742065429688
0, 3, 92, 1511.910278320312
0, 3, 93, 1500.139526367188
0, 3, 94, 1515.50341796875
0, 3, 95, 1543.755249023438
0, 3, 96, 1512.386474609375
0, 3, 97, 1462.960327148438
0, 3, 98, 1428.448486328125
0, 3, 99, 1464.515869140625
0, 3, 100, 1469.412475585938
0, 3, 101, 1471.608764648438
0, 3, 102, 1518.3876953125
0, 3, 103, 1559.333129882812
0, 3, 104, 1502.873901367188
0, 3, 105, 1515.402954101562
0, 3, 106, 1478.130859375
0, 3, 107, 1344.039672851562
0, 3, 108, 870.5156860351562
0, 3, 109, 268.0943298339844
0, 3, 110, 105.6680297851562
0, 3, 111, 65.53857421875
0, 3, 112, 60.30475234985352
0, 3, 113, 56.12478637695312
0, 3, 114, 53.00492477416992
0, 3, 115, 51.79750061035156
0, 3, 116, 36.70978164672852
0, 3, 117, 35.80268096923828
0, 3, 118, 31.98969078063965
0, 3, 119, 29.5457820892334
0, 3, 120, 28.9983024597168
0, 3, 121, 22.16733551025391
0, 3, 122, 26.87335205078125
0, 3, 123, 25.77860069274902
0, 3, 124, 23.10910606384277
0, 3, 125, 27.86320877075195
0, 3, 126, 21.85496711730957
0, 3, 127, 23.45358467102051
0, 4, 0, 18.31571769714355
0, 4, 1, 20.15604209899902
0, 4, 2, 19.08474922180176
0, 4, 3, 20.47990989685059
0, 4, 4, 24.87226867675781
0, 4, 5, 32.88377380371094
0, 4, 6, 31.41086578369141
0, 4, 7, 29.15242767333984
0, 4, 8, 25.61243438720703
0, 4, 9, 34.07311630249023
0, 4, 10, 31.32124900817871
0, 4, 11, 41.49494552612305
0, 4, 12, 50.37594604492188
0, 4, 13, 47.16988372802734
0, 4, 14, 48.19332504272461
0, 4, 15, 60.63967895507812
0, 4, 16, 75.33811950683594
0, 4, 17, 112.6469497680664
0, 4, 18, 437.6024475097656
0, 4, 19, 1174.6220703125
0, 4, 20, 1441.117797851562
0, 4, 21, 1426.347778320312
0, 4, 22, 1438.468505859375
0, 4, 23, 1454.144409179688
0, 4, 24, 1480.798217773438
0, 4, 25, 1403.453491210938
0, 4, 26, 1536.454833984375
0, 4, 27, 1542.0322265625
0, 4, 28, 1511.116455078125
0, 4, 29, 1517.487548828125
0, 4, 30, 1525.349853515625
0, 4, 31, 1569.798706054688
0, 4, 32, 1516.48583984375
0, 4, 33, 1498.114624023438
0, 4, 34, 1467.709716796875
0, 4, 35, 1560.239624023438
0, 4, 36, 1504.601196289062
0, 4, 37, 1511.44775390625
0, 4, 38, 1529.287475585938
0, 4, 39, 1470.692993164062
0, 4, 40, 1515.622192382812
0, 4, 41, 1585.40380859375
0, 4, 42, 1565.238525390625
0, 4, 43, 1471.745483398438
0, 4, 44, 1497.514038085938
0, 4, 45, 1521.344604492188
0, 4, 46, 1470.630859375
0, 4, 47, 1502.739624023438
0, 4, 48, 1526.185913085938
0, 4, 49, 1469.422607421875
0, 4, 50, 1519.732421875
0, 4, 51, 1490.729614257812
0, 4, 52, 1492.128051757812
0, 4, 53, 1450.615112304688
0, 4, 54, 1444.53955078125
0, 4, 55, 1524.336303710938
0, 4, 56, 1455.224365234375
0, 4, 57, 1496.952392578125
0, 4, 58, 1458.289916992188
0, 4, 59, 1462.497192382812
0, 4, 60, 1528.103149414062
0, 4, 61, 1495.197631835938
0, 4, 62, 1504.235229492188
0, 4, 63, 1544.727416992188
0, 4, 64, 1593.07177734375
0, 4, 65, 1423.760620117188
0, 4, 66, 1515.861206054688
0, 4, 67, 1522.390014648438
0, 4, 68, 1495.8173828125
0, 4, 69, 1465.298950195312
0, 4, 70, 1541.593383789062
0, 4, 71, 1523.069702148438
0, 4, 72, 1529.076782226562
0, 4, 73, 1495.932006835938
0, 4, 74, 1489.323608398438
0, 4, 75, 1532.902587890625
0, 4, 76, 1481.880493164062
0, 4, 77, 1501.235717773438
0, 4, 78, 1502.002075195312
0, 4, 79, 1484.212524414062
0, 4, 80, 1514.312377929688
0, 4, 81, 1517.708374023438
0, 4, 82, 1566.181640625
0, 4, 83, 1504.03662109375
0, 4, 84, 1543.095458984375
0, 4, 85, 1555.036987304688
0, 4, 86, 1525.456176757812
0, 4, 87, 1495.150024414062
0, 4, 88, 1518.286010742188
0, 4, 89, 1480.044189453125
0, 4, 90, 1542.908447265625
0, 4, 91, 1552.20263671875
0, 4, 92, 1493.139770507812
0, 4, 93, 1514.034790039062
0, 4, 94, 1483.5810546875
0, 4, 95, 1509.41455078125
0, 4, 96, 1443.06640625
0, 4, 97, 1415.72900390625
0, 4, 98, 1551.811401367188
0, 4, 99, 1512.03076171875
0, 4, 100, 1489.436401367188
0, 4, 101, 1448.188842773438
0, 4, 102, 1451.010009765625
0, 4, 103, 1513.020141601562
0, 4, 104, 1507.577026367188
0, 4, 105, 1561.05126953125
0, 4, 106, 1475.51416015625
0, 4, 107, 1452.42041015625
0, 4, 108, 1120.162353515625
0, 4, 109, 438.3032836914062
0, 4, 110, 97.23110198974609
0, 4, 111, 63.66906356811523
0, 4, 112, 63.71133804321289
0, 4, 113, 49.25807189941406
0, 4, 114, 52.16485595703125
0, 4, 115, 45.90436553955078
0, 4, 116, 39.47428512573242
0, 4, 117, 36.68598556518555
0, 4, 118, 42.79482269287109
0, 4, 119, 40.82991027832031
0, 4, 120, 33.64492034912109
0, 4, 121, 26.0280704498291
0, 4, 122, 30.13486862182617
0, 4, 123, 28.66948318481445
0, 4, 124, 20.68084526062012
0, 4, 125, 27.82682418823242
0, 4, 126, 18.83478736877441
0, 4, 127, 24.63283729553223
0, 5, 0, 23.95800971984863
0, 5, 1, 31.49515533447266
0, 5, 2, 28.60098075866699
0, 5, 3, 21.48919868469238
0, 5, 4, 21.897705078125
0, 5, 5, 34.73472595214844
0, 5, 6, 29.59989738464355
0, 5, 7, 24.78643417358398
0, 5, 8, 34.59625244140625
0, 5, 9, 31.4841480255127
0, 5, 10, 33.16603088378906
0, 5, 11, 40.36335754394531
0, 5, 12, 37.75512313842773
0, 5, 13, 42.57549285888672
0, 5, 14, 64.69008636474609
0, 5, 15, 76.59248352050781
0, 5, 16, 82.03041839599609
0, 5, 17, 157.9636688232422
0, 5, 18, 676.642578125
0, 5, 19, 1349.170043945312
0, 5, 20, 1529.748657226562
0, 5, 21, 1490.601440429688
0, 5, 22, 1497.155151367188
0, 5, 23, 1531.735473632812
0, 5, 24, 1465.204467773438
0, 5, 25, 1427.373046875
0, 5, 26, 1527.443603515625
0, 5, 27, 1538.081665039062
0, 5, 28, 1485.880126953125
0, 5, 29, 1520.789428710938
0, 5, 30, 1492.29443359375
0, 5, 31, 1497.763671875
0, 5, 32, 1593.726806640625
0, 5, 33, 1507.002685546875
0, 5, 34, 1484.811279296875
0, 5, 35, 1511.435791015625
0, 5, 36, 1446.18505859375
0, 5, 37, 1528.077392578125
0, 5, 38, 1551.189208984375
0, 5, 39, 1549.035034179688
0, 5, 40, 1498.113159179688
0, 5, 41, 1483.493041992188
0, 5, 42, 1536.576293945312
0, 5, 43, 1528.614013671875
0, 5, 44, 1539.482666015625
0, 5, 45, 1505.844360351562
0, 5, 46, 1492.034545898438
0, 5, 47, 1480.7255859375
0, 5, 48, 1501.402709960938
0, 5, 49, 1524.410034179688
0, 5, 50, 1500.669189453125
0, 5, 51, 1514.84716796875
0, 5, 52, 1429.223754882812
0, 5, 53, 1522.883056640625
0, 5, 54, 1515.10205078125
0, 5, 55, 1526.067260742188
0, 5, 56, 1484.69970703125
0, 5, 57, 1540.581176757812
0, 5, 58, 1507.20361328125
0, 5, 59, 1487.851806640625
0, 5, 60, 1538.92626953125
0, 5, 61, 1448.555053710938
0, 5, 62, 1590.122924804688
0, 5, 63, 1431.78271484375
0, 5, 64, 1488.192504882812
0, 5, 65, 1463.271728515625
0, 5, 66, 1528.896728515625
0, 5, 67, 1560.807739257812
0, 5, 68, 1466.700805664062
0, 5, 69, 1480.09814453125
0, 5, 70, 1489.973388671875
0, 5, 71, 1473.878173828125
0, 5, 72, 1543.781982421875
0, 5, 73, 1456.898681640625
0, 5, 74, 1490.990234375
0, 5, 75, 1486.28466796875
0, 5, 76, 1482.712158203125
0, 5, 77, 1514.591796875
0, 5, 78, 1525.092895507812
0, 5, 79, 1510.942626953125
0, 5, 80, 1516.304321289062
0, 5, 81, 1597.312622070312
0, 5, 82, 1525.557861328125
0, 5, 83, 1492.430786132812
0, 5, 84, 1534.498046875
0, 5, 85, 1515.793090820312
0, 5, 86, 1555.934326171875
0, 5, 87, 1470.22607421875
0, 5, 88, 1495.490844726562
0, 5, 89, 1480.211303710938
0, 5, 90, 1480.975341796875
0, 5, 91, 1550.800903320312
0, 5, 92, 1485.375610351562
0, 5, 93, 1560.355712890625
0, 5, 94, 1515.455688476562
0, 5, 95, 1567.505615234375
0, 5, 96, 1500.4375
0, 5, 97, 1507.985961914062
0, 5, 98, 1508.508911132812
0, 5, 99, 1542.94677734375
0, 5, 100, 1436.05810546875
0, 5, 101, 1429.912475585938
0, 5, 102, 1511.16748046875
0, 5, 103, 1475.369140625
0, 5, 104, 1456.577758789062
0, 5, 105, 1495.789794921875
0, 5, 106, 1464.5556640625
0, 5, 107, 1399.8671875
0, 5, 108, 1290.673583984375
0, 5, 109, 723.2894897460938
0, 5, 110, 191.705810546875
0, 5, 111, 90.69025421142578
0, 5, 112, 78.6949462890625
0, 5, 113, 63.3012580871582
0, 5, 114, 56.27946472167969
0, 5, 115, 54.39962387084961
0, 5, 116, 42.85160827636719
0, 5, 117, 37.63650894165039
0, 5, 118, 41.91957092285156
0, 5, 119, 23.1573429107666
0, 5, 120, 27.95834159851074
0, 5, 121, 27.13627815246582
0, 5, 122, 32.82323455810547
0, 5, 123, 29.70298194885254
0, 5, 124, 29.54827690124512
0, 5, 125, 24.68786239624023
0, 5, 126, 21.30148124694824
0, 5, 127, 23.71488380432129
0, 6, 0, 20.20954322814941
0, 6, 1, 27.44727516174316
0, 6, 2, 29.90430641174316
0, 6, 3, 28.0689697265625
0, 6, 4, 26.49761962890625
0, 6, 5, 36.23145294189453
0, 6, 6, 31.05975532531738
0, 6, 7, 30.22864532470703
0, 6, 8, 31.18485641479492
0, 6, 9, 33.68607711791992
0, 6, 10, 42.09643936157227
0, 6, 11, 39.32695007324219
0, 6, 12, 41.09917831420898
0, 6, 13, 63.73154449462891
0, 6, 14, 64.36935424804688
0, 6, 15, 79.07344818115234
0, 6, 16, 111.9844970703125
0, 6, 17, 297.5441589355469
0, 6, 18, 899.2142944335938
0, 6, 19, 1377.853637695312
0, 6, 20, 1436.166381835938
0, 6, 21, 1529.066772460938
0, 6, 22, 1506.594360351562
0, 6, 23, 1527.544555664062
0, 6, 24, 1477.423583984375
0, 6, 25, 1525.385498046875
0, 6, 26, 1514.63525390625
0, 6, 27, 1519.949951171875
0, 6, 28, 1549.067016601562
0, 6, 29, 1579.449340820312
0, 6, 30, 1518.643920898438
0, 6, 31, 1490.63623046875
0, 6, 32, 1526.6376953125
0, 6, 33, 1490.736083984375
0, 6, 34, 1561.360961914062
0, 6, 35, 1499.9755859375
0, 6, 36, 1437.460693359375
0, 6, 37, 1545.359008789062
0, 6, 38, 1516.5888671875
0, 6, 39, 1528.146484375
0, 6, 40, 1461.178344726562
0, 6, 41, 1443.6865234375
0, 6, 42, 1515.786010742188
0, 6, 43, 1491.390014648438
0, 6, 44, 1434.331420898438
0, 6, 45, 1548.329833984375
0, 6, 46, 1554.70654296875
0, 6, 47, 1495.440551757812
0, 6, 48, 1525.732543945312
0, 6, 49, 1508.707885742188
0, 6, 50, 1574.542724609375
0, 6, 51, 1501.587768554688
0, 6, 52, 1560.556396484375
0, 6, 53, 1475.008666992188
0, 6, 54, 1500.1357421875
0, 6, 55, 1575.034545898438
0, 6, 56, 1524.320434570312
0, 6, 57, 1503.417724609375
0, 6, 58, 1469.099365234375
0, 6, 59, 1521.777221679688
0, 6, 60, 1467.157470703125
0, 6, 61, 1569.844482421875
0, 6, 62, 1546.565063476562
0, 6, 63, 1499.74658203125
0, 6, 64, 1407.571655273438
0, 6, 65, 1496.278442382812
0, 6, 66, 1508.81298828125
0, 6, 67, 1511.415283203125
0, 6, 68, 1543.24609375
0, 6, 69, 1483.788452148438
0, 6, 70, 1525.70751953125
0, 6, 71, 1466.898071289062
0, 6, 72, 1598.436157226562
0, 6, 73, 1485.720092773438
0, 6, 74, 1557.765991210938
0, 6, 75, 1540.170043945312
0, 6, 76, 1562.125122070312
0, 6, 77, 1501.373413085938
0, 6, 78, 1444.872436523438
0, 6, 79, 1556.47119140625
0, 6, 80, 1484.8779296875
0, 6, 81, 1486.68798828125
0, 6, 82, 1505.02685546875
0, 6, 83, 1523.803955078125
0, 6, 84, 1520.047973632812
0, 6, 85, 1533.142456054688
0, 6, 86, 1539.737670898438
0, 6, 87, 1577.708618164062
0, 6, 88, 1478.498291015625
0, 6, 89, 1568.293090820312
0, 6, 90, 1490.615844726562
0, 6, 91, 1541.268798828125
0, 6, 92, 1485.505615234375
0, 6, 93, 1493.644653320312
0, 6, 94, 1468.87890625
0, 6, 95, 1507.757568359375
0, 6, 96, 1521.248657226562
0, 6, 97, 1508.102661132812
0, 6, 98, 1498.688110351562
0, 6, 99, 1478.228393554688
0, 6, 100, 1518.407348632812
0, 6, 101, 1520.518920898438
0, 6, 102, 1540.144409179688
0, 6, 103, 1495.823608398438
0, 6, 104, 1463.24462890625
0, 6, 105, 1485.945190429688
0, 6, 106, 1497.317138671875
0, 6, 107, 1508.648071289062
0, 6, 108, 1408.257934570312
0, 6, 109, 926.912353515625
0, 6, 110, 285.4821472167969
0, 6, 111, 96.33325958251953
0, 6, 112, 78.2135009765625
0, 6, 113, 59.78517150878906
0, 6, 114, 52.65303039550781
0, 6, 115, 44.1412467956543
0, 6, 116, 43.49795532226562
0, 6, 117, 39.55435562133789
0, 6, 118, 38.37590026855469
0, 6, 119, 34.87734603881836
0, 6, 120, 29.80267333984375
0, 6, 121, 25.24448204040527
0, 6, 122, 28.69123840332031
0, 6, 123, 24.21722602844238
0, 6, 124, 35.40325546264648
0, 6, 125, 30.54706192016602
0, 6, 126, 20.80093955993652
0, 6, 127, 20.87802124023438
0, 7, 0, 24.11838150024414
0, 7, 1, 29.5213737487793
0, 7, 2, 21.30187225341797
0, 7, 3, 27.31154441833496
0, 7, 4, 24.77656173706055
0, 7, 5, 35.62964248657227
0, 7, 6, 32.93318176269531
0, 7, 7, 34.2348747253418
0, 7, 8, 34.31687927246094
0, 7, 9, 32.41845321655273
0, 7, 10, 45.95500183105469
0, 7, 11, 48.86346054077148
0, 7, 12, 46.30146408081055
0, 7, 13, 53.21975326538086
0, 7, 14, 69.68194580078125
0, 7, 15, 75.70923614501953
0, 7, 16, 135.3476715087891
0, 7, 17, 458.6277770996094
0, 7, 18, 1099.52392578125
0, 7, 19, 1502.144775390625
0, 7, 20, 1487.721557617188
0, 7, 21, 1363.736694335938
0, 7, 22, 1485.68603515625
0, 7, 23, 1453.228515625
0, 7, 24, 1509.057373046875
0, 7, 25, 1593.0341796875
0, 7, 26, 1517.522705078125
0, 7, 27, 1510.242431640625
0, 7, 28, 1543.990112304688
0, 7, 29, 1581.50439453125
0, 7, 30, 1549.60595703125
0, 7, 31, 1436.135375976562
0, 7, 32, 1543.995727539062
0, 7, 33, 1486.458862304688
0, 7, 34, 1479.69921875
0, 7, 35, 1521.97119140625
0, 7, 36, 1470.864868164062
0, 7, 37, 1600.063110351562
0, 7, 38, 1504.394409179688
0, 7, 39, 1493.46826171875
0, 7, 40, 1542.438110351562
0, 7, 41, 1462.714599609375
0, 7, 42, 1489.569702148438
0, 7, 43, 1447.012573242188
0, 7, 44, 1488.186157226562
0, 7, 45, 1467.915283203125
0, 7, 46, 1512.258178710938
0, 7, 47, 1565.525390625
0, 7, 48, 1525.412475585938
0, 7, 49, 1537.361694335938
0, 7, 50, 1516.333129882812
0, 7, 51, 1499.933349609375
0, 7, 52, 1515.967651367188
0, 7, 53, 1494.446899414062
0, 7, 54, 1587.526489257812
0, 7, 55, 1476.847412109375
0, 7, 56, 1549.778198242188
0, 7, 57, 1511.065307617188
0, 7, 58, 1547.112426757812
0, 7, 59, 1542.036376953125
0, 7, 60, 1551.105102539062
0, 7, 61, 1489.767456054688
0, 7, 62, 1439.569091796875
0, 7, 63, 1516.276245117188
0, 7, 64, 1543.921630859375
0, 7, 65, 1524.465087890625
0, 7, 66, 1541.5498046875
0, 7, 67, 1573.816772460938
0, 7, 68, 1532.073608398438
0, 7, 69, 1516.407958984375
0, 7, 70, 1494.790405273438
0, 7, 71, 1522.125854492188
0, 7, 72, 1523.810180664062
0, 7, 73, 1512.757690429688
0, 7, 74, 1566.424194335938
0, 7, 75, 1535.668090820312
0, 7, 76, 1560.389892578125
0, 7, 77, 1512.489501953125
0, 7, 78, 1512.052124023438
0, 7, 79, 1423.185546875
0, 7, 80, 1491.971069335938
0, 7, 81, 1490.67138671875
0, 7, 82, 1534.682250976562
0, 7, 83, 1542.209350585938
0, 7, 84, 1582.6171875
0, 7, 85, 1476.7861328125
0, 7, 86, 1498.720092773438
0, 7, 87, 1509.6142578125
0, 7, 88, 1502.1181640625
0, 7, 89, 1551.1708984375
0, 7, 90, 1517.949340820312
0, 7, 91, 1558.214111328125
0, 7, 92, 1530.319091796875
0, 7, 93, 1556.569702148438
0, 7, 94, 1538.226806640625
0, 7, 95, 1509.630859375
0, 7, 96, 1504.567749023438
0, 7, 97, 1438.024047851562
0, 7, 98, 1485.06298828125
0, 7, 99, 1525.61474609375
0, 7, 100, 1424.1669921875
0, 7, 101, 1469.059692382812
0, 7, 102, 1448.917236328125
0, 7, 103, 1436.774780273438
0, 7, 104, 1494.042114257812
0, 7, 105, 1522.806884765625
0, 7, 106, 1568.666748046875
0, 7, 107, 1481.241577148438
0, 7, 108, 1413.55908203125
0, 7, 109, 1145.326538085938
0, 7, 110, 473.5965881347656
0, 7, 111, 127.8701248168945
0, 7, 112, 81.86097717285156
0, 7, 113, 67.30195617675781
0, 7, 114, 61.92296981811523
0, 7, 115, 53.88555526733398
0, 7, 116, 45.89104461669922
0, 7, 117, 45.70736694335938
0, 7, 118, 40.47875213623047
0, 7, 119, 37.78389739990234
0, 7, 120, 23.8328742980957
0, 7, 121, 31.99769592285156
0, 7, 122, 31.22231101989746
0, 7, 123, 35.01871109008789
0, 7, 124, 28.69990730285645
0, 7, 125, 24.47688293457031
0, 7, 126, 28.43647575378418
0, 7, 127, 20.20962142944336
0, 8, 0, 24.09992599487305
0, 8, 1, 22.81754684448242
0, 8, 2, 28.31256484985352
0, 8, 3, 26.55081367492676
0, 8, 4, 22.4710693359375
0, 8, 5, 37.79865646362305
0, 8, 6, 31.03975486755371
0, 8, 7, 26.48772048950195
0, 8, 8, 32.36919784545898
0, 8, 9, 45.61772155761719
0, 8, 10, 37.99152755737305
0, 8, 11, 46.88048553466797
0, 8, 12, 53.54896545410156
0, 8, 13, 66.48561096191406
0, 8, 14, 69.51906585693359
0, 8, 15, 84.09521484375
0, 8, 16, 168.5375061035156
0, 8, 17, 678.860595703125
0, 8, 18, 1278.651245117188
0, 8, 19, 1446.848754882812
0, 8, 20, 1424.421142578125
0, 8, 21, 1407.4951171875
0, 8, 22, 1488.339477539062
0, 8, 23, 1483.491088867188
0, 8, 24, 1439.882934570312
0, 8, 25, 1455.009399414062
0, 8, 26, 1515.184448242188
0, 8, 27, 1523.000854492188
0, 8, 28, 1479.378662109375
0, 8, 29, 1508.25732421875
0, 8, 30, 1482.13818359375
0, 8, 31, 1537.415405273438
0, 8, 32, 1510.740356445312
0, 8, 33, 1482.3076171875
0, 8, 34, 1542.2666015625
0, 8, 35, 1438.3515625
0, 8, 36, 1500.044555664062
0, 8, 37, 1557.743041992188
0, 8, 38, 1556.21533203125
0, 8, 39, 1494.49072265625
0, 8, 40, 1530.004760742188
0, 8, 41, 1484.822387695312
0, 8, 42, 1535.08642578125
0, 8, 43, 1433.860229492188
0, 8, 44, 1542.214965820312
0, 8, 45, 1508.978393554688
0, 8, 46, 1598.867919921875
