# TOPAS Version: 3.1.p3
# Parameter File: batch_inserts_308.txt
# Results for scorer Readout_Adipose
# Scored in component: MyBox
# X in 1 bin  of 0.75 cm
# Y in 512 bins of 0.0783984 cm
# Z in 128 bins of 0.078125 cm
# EnergyDeposit ( MeV ) : Sum   
0, 0, 0, 6.606348037719727
0, 0, 1, 1.266135215759277
0, 0, 2, 3.83152437210083
0, 0, 3, 2.885940074920654
0, 0, 4, 3.363275766372681
0, 0, 5, 5.583459377288818
0, 0, 6, 7.525552272796631
0, 0, 7, 12.01565837860107
0, 0, 8, 3.582701921463013
0, 0, 9, 4.728479385375977
0, 0, 10, 7.215374946594238
0, 0, 11, 4.113354206085205
0, 0, 12, 5.344711780548096
0, 0, 13, 6.642354488372803
0, 0, 14, 7.120433807373047
0, 0, 15, 9.801235198974609
0, 0, 16, 9.385232925415039
0, 0, 17, 8.794417381286621
0, 0, 18, 13.49746704101562
0, 0, 19, 44.63920974731445
0, 0, 20, 139.0410003662109
0, 0, 21, 222.9426422119141
0, 0, 22, 248.6006622314453
0, 0, 23, 257.2525329589844
0, 0, 24, 250.9405212402344
0, 0, 25, 259.2070922851562
0, 0, 26, 233.5520782470703
0, 0, 27, 237.311767578125
0, 0, 28, 273.54443359375
0, 0, 29, 253.4054718017578
0, 0, 30, 232.2296295166016
0, 0, 31, 244.4053955078125
0, 0, 32, 263.9617614746094
0, 0, 33, 260.8977966308594
0, 0, 34, 286.4208374023438
0, 0, 35, 267.5567626953125
0, 0, 36, 246.2870025634766
0, 0, 37, 253.8115692138672
0, 0, 38, 270.04736328125
0, 0, 39, 230.8961944580078
0, 0, 40, 241.5586395263672
0, 0, 41, 266.5713806152344
0, 0, 42, 228.4656982421875
0, 0, 43, 260.4789733886719
0, 0, 44, 252.6541137695312
0, 0, 45, 252.7721557617188
0, 0, 46, 243.7469177246094
0, 0, 47, 250.7094573974609
0, 0, 48, 266.7908630371094
0, 0, 49, 273.845458984375
0, 0, 50, 250.8164367675781
0, 0, 51, 252.6941680908203
0, 0, 52, 272.7257995605469
0, 0, 53, 289.8182373046875
0, 0, 54, 242.9494171142578
0, 0, 55, 239.8152465820312
0, 0, 56, 277.3120727539062
0, 0, 57, 264.8570251464844
0, 0, 58, 248.2496795654297
0, 0, 59, 269.7278137207031
0, 0, 60, 233.6669158935547
0, 0, 61, 244.8141937255859
0, 0, 62, 257.9288330078125
0, 0, 63, 265.9595031738281
0, 0, 64, 255.4460296630859
0, 0, 65, 260.7977600097656
0, 0, 66, 276.7058410644531
0, 0, 67, 246.5290069580078
0, 0, 68, 258.7374572753906
0, 0, 69, 261.40966796875
0, 0, 70, 273.2297058105469
0, 0, 71, 237.7815093994141
0, 0, 72, 249.1026611328125
0, 0, 73, 257.56591796875
0, 0, 74, 251.5008239746094
0, 0, 75, 238.9482574462891
0, 0, 76, 228.0575714111328
0, 0, 77, 259.39208984375
0, 0, 78, 258.8731689453125
0, 0, 79, 279.5526733398438
0, 0, 80, 219.5040588378906
0, 0, 81, 267.7633361816406
0, 0, 82, 256.4593200683594
0, 0, 83, 245.6075439453125
0, 0, 84, 270.8450622558594
0, 0, 85, 233.846923828125
0, 0, 86, 252.326171875
0, 0, 87, 252.4774017333984
0, 0, 88, 261.5220031738281
0, 0, 89, 286.0863037109375
0, 0, 90, 244.5347900390625
0, 0, 91, 279.586181640625
0, 0, 92, 252.6418914794922
0, 0, 93, 249.2243957519531
0, 0, 94, 249.1533813476562
0, 0, 95, 247.0796966552734
0, 0, 96, 274.1386108398438
0, 0, 97, 272.1063537597656
0, 0, 98, 272.4613647460938
0, 0, 99, 259.0941467285156
0, 0, 100, 258.5223693847656
0, 0, 101, 226.4792633056641
0, 0, 102, 232.0678405761719
0, 0, 103, 269.1313781738281
0, 0, 104, 253.671875
0, 0, 105, 250.8982238769531
0, 0, 106, 246.7487182617188
0, 0, 107, 151.9079895019531
0, 0, 108, 39.14585494995117
0, 0, 109, 11.62626266479492
0, 0, 110, 12.54080295562744
0, 0, 111, 8.450014114379883
0, 0, 112, 6.986388206481934
0, 0, 113, 5.521241664886475
0, 0, 114, 7.015572547912598
0, 0, 115, 5.059196949005127
0, 0, 116, 6.058453559875488
0, 0, 117, 5.91225528717041
0, 0, 118, 5.916849613189697
0, 0, 119, 3.107275247573853
0, 0, 120, 4.260902881622314
0, 0, 121, 3.843666553497314
0, 0, 122, 6.331902503967285
0, 0, 123, 5.39456844329834
0, 0, 124, 5.49107551574707
0, 0, 125, 2.436045408248901
0, 0, 126, 3.440292358398438
0, 0, 127, 4.312207698822021
0, 1, 0, 6.836955070495605
0, 1, 1, 4.188395977020264
0, 1, 2, 3.295542240142822
0, 1, 3, 2.068634748458862
0, 1, 4, 2.236156463623047
0, 1, 5, 3.195438385009766
0, 1, 6, 3.074557304382324
0, 1, 7, 3.867802858352661
0, 1, 8, 5.769894123077393
0, 1, 9, 5.931612968444824
0, 1, 10, 7.057593822479248
0, 1, 11, 13.72534370422363
0, 1, 12, 7.579811573028564
0, 1, 13, 9.991262435913086
0, 1, 14, 8.26209545135498
0, 1, 15, 6.898853302001953
0, 1, 16, 11.61219501495361
0, 1, 17, 13.32586479187012
0, 1, 18, 20.07744407653809
0, 1, 19, 65.38391876220703
0, 1, 20, 196.67431640625
0, 1, 21, 253.5514831542969
0, 1, 22, 296.1579284667969
0, 1, 23, 284.2805786132812
0, 1, 24, 276.7944946289062
0, 1, 25, 290.8964538574219
0, 1, 26, 268.9249572753906
0, 1, 27, 306.0840454101562
0, 1, 28, 298.97265625
0, 1, 29, 297.7922058105469
0, 1, 30, 284.2953491210938
0, 1, 31, 295.935302734375
0, 1, 32, 289.3706359863281
0, 1, 33, 296.5219116210938
0, 1, 34, 291.2733154296875
0, 1, 35, 279.2115783691406
0, 1, 36, 307.3111877441406
0, 1, 37, 293.9067687988281
0, 1, 38, 278.0813293457031
0, 1, 39, 297.9482116699219
0, 1, 40, 267.5729370117188
0, 1, 41, 286.2662658691406
0, 1, 42, 290.8004455566406
0, 1, 43, 331.3102416992188
0, 1, 44, 278.8085021972656
0, 1, 45, 292.2587280273438
0, 1, 46, 260.3240356445312
0, 1, 47, 311.8599548339844
0, 1, 48, 285.0636596679688
0, 1, 49, 300.3810119628906
0, 1, 50, 261.7528991699219
0, 1, 51, 272.2470092773438
0, 1, 52, 295.7217712402344
0, 1, 53, 305.5495910644531
0, 1, 54, 274.7523498535156
0, 1, 55, 294.2970886230469
0, 1, 56, 277.8923645019531
0, 1, 57, 298.1250915527344
0, 1, 58, 309.8456115722656
0, 1, 59, 294.6471252441406
0, 1, 60, 296.7976379394531
0, 1, 61, 275.4862365722656
0, 1, 62, 307.0617980957031
0, 1, 63, 286.6203002929688
0, 1, 64, 288.6071166992188
0, 1, 65, 295.2206115722656
0, 1, 66, 291.8656616210938
0, 1, 67, 292.1748657226562
0, 1, 68, 277.06396484375
0, 1, 69, 278.5086975097656
0, 1, 70, 272.2102355957031
0, 1, 71, 272.8509826660156
0, 1, 72, 285.6108093261719
0, 1, 73, 304.2951049804688
0, 1, 74, 304.1636352539062
0, 1, 75, 291.7419128417969
0, 1, 76, 284.6141052246094
0, 1, 77, 289.7249450683594
0, 1, 78, 297.7572021484375
0, 1, 79, 301.3235778808594
0, 1, 80, 296.1302795410156
0, 1, 81, 299.74072265625
0, 1, 82, 282.5110168457031
0, 1, 83, 331.0048522949219
0, 1, 84, 307.1239013671875
0, 1, 85, 254.0237884521484
0, 1, 86, 296.4866333007812
0, 1, 87, 289.91064453125
0, 1, 88, 298.1865234375
0, 1, 89, 290.2157592773438
0, 1, 90, 270.5342102050781
0, 1, 91, 318.3206787109375
0, 1, 92, 291.8079528808594
0, 1, 93, 286.6556396484375
0, 1, 94, 302.9393615722656
0, 1, 95, 283.0582275390625
0, 1, 96, 282.7801208496094
0, 1, 97, 301.1138610839844
0, 1, 98, 277.2403564453125
0, 1, 99, 266.1183166503906
0, 1, 100, 276.1019592285156
0, 1, 101, 282.9800415039062
0, 1, 102, 276.5079956054688
0, 1, 103, 280.5129089355469
0, 1, 104, 307.4475402832031
0, 1, 105, 297.4002075195312
0, 1, 106, 259.9127807617188
0, 1, 107, 191.8307495117188
0, 1, 108, 80.95263671875
0, 1, 109, 22.68735885620117
0, 1, 110, 12.08204555511475
0, 1, 111, 10.98996829986572
0, 1, 112, 12.33475112915039
0, 1, 113, 5.070624351501465
0, 1, 114, 6.720378398895264
0, 1, 115, 6.601326942443848
0, 1, 116, 11.01551055908203
0, 1, 117, 4.97860860824585
0, 1, 118, 4.510059356689453
0, 1, 119, 6.534571647644043
0, 1, 120, 5.655069351196289
0, 1, 121, 3.643097639083862
0, 1, 122, 5.989654064178467
0, 1, 123, 3.702137470245361
0, 1, 124, 8.128838539123535
0, 1, 125, 5.391842365264893
0, 1, 126, 2.351590871810913
0, 1, 127, 1.989069581031799
0, 2, 0, 4.207528591156006
0, 2, 1, 2.130167722702026
0, 2, 2, 5.185493469238281
0, 2, 3, 4.183103561401367
0, 2, 4, 3.630591869354248
0, 2, 5, 4.421743869781494
0, 2, 6, 2.241976737976074
0, 2, 7, 4.779767513275146
0, 2, 8, 4.022152900695801
0, 2, 9, 5.23500919342041
0, 2, 10, 9.367148399353027
0, 2, 11, 7.299546241760254
0, 2, 12, 5.722629547119141
0, 2, 13, 10.2148904800415
0, 2, 14, 10.35519123077393
0, 2, 15, 8.721778869628906
0, 2, 16, 13.21657562255859
0, 2, 17, 15.53634166717529
0, 2, 18, 30.76043319702148
0, 2, 19, 119.3180847167969
0, 2, 20, 245.7666625976562
0, 2, 21, 270.8676452636719
0, 2, 22, 315.9894104003906
0, 2, 23, 301.7077331542969
0, 2, 24, 287.8350830078125
0, 2, 25, 303.2543334960938
0, 2, 26, 293.2274780273438
0, 2, 27, 274.9074096679688
0, 2, 28, 273.6548767089844
0, 2, 29, 272.5826721191406
0, 2, 30, 289.3369140625
0, 2, 31, 279.0542297363281
0, 2, 32, 294.2147827148438
0, 2, 33, 282.2141723632812
0, 2, 34, 331.4208374023438
0, 2, 35, 289.44482421875
0, 2, 36, 305.5575561523438
0, 2, 37, 315.0977478027344
0, 2, 38, 312.9582214355469
0, 2, 39, 266.3998718261719
0, 2, 40, 307.9319458007812
0, 2, 41, 293.3287658691406
0, 2, 42, 302.7160034179688
0, 2, 43, 311.9774475097656
0, 2, 44, 310.0794372558594
0, 2, 45, 326.4999694824219
0, 2, 46, 287.4884033203125
0, 2, 47, 303.420654296875
0, 2, 48, 278.7993774414062
0, 2, 49, 279.9888305664062
0, 2, 50, 294.4388427734375
0, 2, 51, 285.7418518066406
0, 2, 52, 271.5238952636719
0, 2, 53, 287.9713439941406
0, 2, 54, 278.7744750976562
0, 2, 55, 273.0524291992188
0, 2, 56, 301.6675415039062
0, 2, 57, 292.3900146484375
0, 2, 58, 302.6870727539062
0, 2, 59, 287.56494140625
0, 2, 60, 319.9701843261719
0, 2, 61, 301.4252624511719
0, 2, 62, 314.5721435546875
0, 2, 63, 300.9865112304688
0, 2, 64, 297.1797790527344
0, 2, 65, 313.8554382324219
0, 2, 66, 278.6424865722656
0, 2, 67, 290.1804504394531
0, 2, 68, 295.6744079589844
0, 2, 69, 310.4805603027344
0, 2, 70, 333.2610168457031
0, 2, 71, 285.6505737304688
0, 2, 72, 305.0740356445312
0, 2, 73, 312.5963439941406
0, 2, 74, 284.8784790039062
0, 2, 75, 302.5682983398438
0, 2, 76, 285.6576843261719
0, 2, 77, 299.1158752441406
0, 2, 78, 314.1092834472656
0, 2, 79, 309.3545837402344
0, 2, 80, 296.7004089355469
0, 2, 81, 283.1881408691406
0, 2, 82, 317.7951049804688
0, 2, 83, 312.5371398925781
0, 2, 84, 288.6593933105469
0, 2, 85, 282.1846313476562
0, 2, 86, 325.9034423828125
0, 2, 87, 286.9039611816406
0, 2, 88, 279.4037475585938
0, 2, 89, 293.8584899902344
0, 2, 90, 296.0444030761719
0, 2, 91, 279.5135498046875
0, 2, 92, 304.6759033203125
0, 2, 93, 316.4864501953125
0, 2, 94, 291.8996887207031
0, 2, 95, 313.5756530761719
0, 2, 96, 314.82275390625
0, 2, 97, 290.6441040039062
0, 2, 98, 292.521484375
0, 2, 99, 273.7095336914062
0, 2, 100, 305.3163757324219
0, 2, 101, 302.0159912109375
0, 2, 102, 297.0545349121094
0, 2, 103, 292.5956726074219
0, 2, 104, 293.4811096191406
0, 2, 105, 274.0962219238281
0, 2, 106, 295.9316711425781
0, 2, 107, 272.3673706054688
0, 2, 108, 116.2336807250977
0, 2, 109, 32.37854766845703
0, 2, 110, 10.40329456329346
0, 2, 111, 10.04215908050537
0, 2, 112, 8.285057067871094
0, 2, 113, 9.800739288330078
0, 2, 114, 9.156989097595215
0, 2, 115, 10.67131233215332
0, 2, 116, 8.217814445495605
0, 2, 117, 6.11549711227417
0, 2, 118, 5.365728855133057
0, 2, 119, 5.95274019241333
0, 2, 120, 7.911716938018799
0, 2, 121, 1.459750890731812
0, 2, 122, 3.019434928894043
0, 2, 123, 4.470542430877686
0, 2, 124, 2.98955225944519
0, 2, 125, 4.363144397735596
0, 2, 126, 3.437084197998047
0, 2, 127, 4.590320587158203
0, 3, 0, 4.528456211090088
0, 3, 1, 3.325981855392456
0, 3, 2, 2.718741655349731
0, 3, 3, 3.186229467391968
0, 3, 4, 2.439203262329102
0, 3, 5, 6.12194299697876
0, 3, 6, 8.182210922241211
0, 3, 7, 4.389254570007324
0, 3, 8, 6.575770378112793
0, 3, 9, 6.869148731231689
0, 3, 10, 6.634281158447266
0, 3, 11, 3.185996294021606
0, 3, 12, 7.224070072174072
0, 3, 13, 14.71083641052246
0, 3, 14, 10.4166316986084
0, 3, 15, 13.01052474975586
0, 3, 16, 12.21725749969482
0, 3, 17, 20.2969913482666
0, 3, 18, 51.06597900390625
0, 3, 19, 176.1454620361328
0, 3, 20, 270.0593872070312
0, 3, 21, 272.1411437988281
0, 3, 22, 280.5033569335938
0, 3, 23, 287.309326171875
0, 3, 24, 285.1056213378906
0, 3, 25, 272.3067932128906
0, 3, 26, 304.4485168457031
0, 3, 27, 291.1755981445312
0, 3, 28, 279.6902160644531
0, 3, 29, 336.8062133789062
0, 3, 30, 315.8424072265625
0, 3, 31, 289.4330139160156
0, 3, 32, 306.7283020019531
0, 3, 33, 314.4573669433594
0, 3, 34, 321.7516784667969
0, 3, 35, 305.9291687011719
0, 3, 36, 272.3732604980469
0, 3, 37, 318.8081970214844
0, 3, 38, 305.4034423828125
0, 3, 39, 289.28857421875
0, 3, 40, 266.3079528808594
0, 3, 41, 301.8941955566406
0, 3, 42, 283.9703979492188
0, 3, 43, 306.763916015625
0, 3, 44, 312.8878479003906
0, 3, 45, 290.8238525390625
0, 3, 46, 330.0893249511719
0, 3, 47, 299.1662902832031
0, 3, 48, 305.4571533203125
0, 3, 49, 276.1662902832031
0, 3, 50, 289.3792419433594
0, 3, 51, 275.1072692871094
0, 3, 52, 317.6811828613281
0, 3, 53, 289.3739013671875
0, 3, 54, 283.1403503417969
0, 3, 55, 283.5393371582031
0, 3, 56, 297.8898010253906
0, 3, 57, 287.3160095214844
0, 3, 58, 307.9708251953125
0, 3, 59, 296.7176818847656
0, 3, 60, 297.8391418457031
0, 3, 61, 264.5107727050781
0, 3, 62, 284.1286010742188
0, 3, 63, 308.359375
0, 3, 64, 317.4996337890625
0, 3, 65, 307.5711059570312
0, 3, 66, 315.0740661621094
0, 3, 67, 318.6390686035156
0, 3, 68, 280.0078735351562
0, 3, 69, 283.4544677734375
0, 3, 70, 287.0199584960938
0, 3, 71, 298.6080017089844
0, 3, 72, 269.7954711914062
0, 3, 73, 307.8135375976562
0, 3, 74, 292.2853088378906
0, 3, 75, 291.56982421875
0, 3, 76, 307.54736328125
0, 3, 77, 316.7662048339844
0, 3, 78, 303.0516052246094
0, 3, 79, 281.6729125976562
0, 3, 80, 290.0941772460938
0, 3, 81, 310.0838928222656
0, 3, 82, 315.0867919921875
0, 3, 83, 300.1158447265625
0, 3, 84, 314.7286376953125
0, 3, 85, 295.0814514160156
0, 3, 86, 304.9360656738281
0, 3, 87, 297.2596435546875
0, 3, 88, 298.5751037597656
0, 3, 89, 296.3736572265625
0, 3, 90, 274.6921081542969
0, 3, 91, 283.4589233398438
0, 3, 92, 304.183349609375
0, 3, 93, 315.6084594726562
0, 3, 94, 300.2112426757812
0, 3, 95, 336.5383605957031
0, 3, 96, 289.3352355957031
0, 3, 97, 281.3360595703125
0, 3, 98, 278.1583557128906
0, 3, 99, 261.6039428710938
0, 3, 100, 283.4999084472656
0, 3, 101, 297.9943542480469
0, 3, 102, 274.5843811035156
0, 3, 103, 321.3517761230469
0, 3, 104, 308.3670043945312
0, 3, 105, 288.6159362792969
0, 3, 106, 302.2810974121094
0, 3, 107, 283.7651672363281
0, 3, 108, 169.4187774658203
0, 3, 109, 57.45591735839844
0, 3, 110, 18.19340515136719
0, 3, 111, 12.9184103012085
0, 3, 112, 12.73197650909424
0, 3, 113, 10.6087760925293
0, 3, 114, 9.695502281188965
0, 3, 115, 7.415758609771729
0, 3, 116, 7.02009916305542
0, 3, 117, 7.100185394287109
0, 3, 118, 7.468917846679688
0, 3, 119, 6.319079399108887
0, 3, 120, 5.498234272003174
0, 3, 121, 2.006861448287964
0, 3, 122, 4.602038860321045
0, 3, 123, 6.157064914703369
0, 3, 124, 2.461059331893921
0, 3, 125, 6.081801414489746
0, 3, 126, 4.555908203125
0, 3, 127, 2.107329845428467
0, 4, 0, 2.356980800628662
0, 4, 1, 4.628957271575928
0, 4, 2, 4.392620086669922
0, 4, 3, 1.215811848640442
0, 4, 4, 7.124945163726807
0, 4, 5, 9.272397994995117
0, 4, 6, 5.550990581512451
0, 4, 7, 6.111330509185791
0, 4, 8, 3.666207551956177
0, 4, 9, 5.29248571395874
0, 4, 10, 7.370534896850586
0, 4, 11, 6.725872993469238
0, 4, 12, 6.335107326507568
0, 4, 13, 9.52946662902832
0, 4, 14, 10.71145343780518
0, 4, 15, 10.44855403900146
0, 4, 16, 14.13392353057861
0, 4, 17, 18.0728816986084
0, 4, 18, 93.65682220458984
0, 4, 19, 221.3651885986328
0, 4, 20, 283.4082641601562
0, 4, 21, 273.5831604003906
0, 4, 22, 305.7469482421875
0, 4, 23, 265.6034545898438
0, 4, 24, 288.7722473144531
0, 4, 25, 271.9795532226562
0, 4, 26, 294.8595886230469
0, 4, 27, 283.9779663085938
0, 4, 28, 307.2254943847656
0, 4, 29, 322.0819091796875
0, 4, 30, 308.587890625
0, 4, 31, 302.6393432617188
0, 4, 32, 279.8396911621094
0, 4, 33, 298.4418640136719
0, 4, 34, 296.2264709472656
0, 4, 35, 311.4813537597656
0, 4, 36, 291.7902221679688
0, 4, 37, 288.8985290527344
0, 4, 38, 297.0879821777344
0, 4, 39, 293.9982299804688
0, 4, 40, 306.6121520996094
0, 4, 41, 313.5185546875
0, 4, 42, 330.2163391113281
0, 4, 43, 297.6947326660156
0, 4, 44, 320.2612915039062
0, 4, 45, 325.20849609375
0, 4, 46, 307.7435302734375
0, 4, 47, 294.6983337402344
0, 4, 48, 294.4365844726562
0, 4, 49, 277.4609069824219
0, 4, 50, 296.6419372558594
0, 4, 51, 315.9468078613281
0, 4, 52, 326.5476379394531
0, 4, 53, 303.8314208984375
0, 4, 54, 286.4919128417969
0, 4, 55, 315.1279907226562
0, 4, 56, 285.0940246582031
0, 4, 57, 312.3773498535156
0, 4, 58, 296.1086120605469
0, 4, 59, 310.3094177246094
0, 4, 60, 303.7494506835938
0, 4, 61, 317.3252258300781
0, 4, 62, 309.459716796875
0, 4, 63, 300.8175354003906
0, 4, 64, 331.3128662109375
0, 4, 65, 315.3038024902344
0, 4, 66, 293.9310607910156
0, 4, 67, 284.4868469238281
0, 4, 68, 311.8348693847656
0, 4, 69, 275.8954772949219
0, 4, 70, 298.9561462402344
0, 4, 71, 322.264892578125
0, 4, 72, 333.7225646972656
0, 4, 73, 297.4292297363281
0, 4, 74, 292.6157531738281
0, 4, 75, 290.3528137207031
0, 4, 76, 276.9303588867188
0, 4, 77, 278.7919006347656
0, 4, 78, 312.574462890625
0, 4, 79, 318.54833984375
0, 4, 80, 315.0517883300781
0, 4, 81, 312.7098999023438
0, 4, 82, 297.4393005371094
0, 4, 83, 299.9664611816406
0, 4, 84, 293.7032775878906
0, 4, 85, 295.3547668457031
0, 4, 86, 297.6068725585938
0, 4, 87, 285.7780151367188
0, 4, 88, 306.0846557617188
0, 4, 89, 293.9931640625
0, 4, 90, 334.1346130371094
0, 4, 91, 302.9566345214844
0, 4, 92, 288.2172546386719
0, 4, 93, 295.9933776855469
0, 4, 94, 295.0114440917969
0, 4, 95, 288.9988708496094
0, 4, 96, 328.3742980957031
0, 4, 97, 274.9710388183594
0, 4, 98, 327.307861328125
0, 4, 99, 315.3639526367188
0, 4, 100, 301.3890380859375
0, 4, 101, 256.2666320800781
0, 4, 102, 299.2770080566406
0, 4, 103, 316.4750061035156
0, 4, 104, 282.7358703613281
0, 4, 105, 311.0259399414062
0, 4, 106, 286.098876953125
0, 4, 107, 293.9503173828125
0, 4, 108, 227.2464904785156
0, 4, 109, 81.57635498046875
0, 4, 110, 17.23548698425293
0, 4, 111, 12.94183158874512
0, 4, 112, 13.83878707885742
0, 4, 113, 12.32854747772217
0, 4, 114, 8.016297340393066
0, 4, 115, 9.326879501342773
0, 4, 116, 9.2156982421875
0, 4, 117, 6.37945556640625
0, 4, 118, 11.85772323608398
0, 4, 119, 8.714366912841797
0, 4, 120, 5.798858642578125
0, 4, 121, 5.593116283416748
0, 4, 122, 5.557359218597412
0, 4, 123, 6.150870800018311
0, 4, 124, 5.682034492492676
0, 4, 125, 8.095952987670898
0, 4, 126, 5.018988132476807
0, 4, 127, 4.763908863067627
0, 5, 0, 4.668145179748535
0, 5, 1, 3.766729116439819
0, 5, 2, 2.96100640296936
0, 5, 3, 5.625427722930908
0, 5, 4, 5.842929840087891
0, 5, 5, 6.279113292694092
0, 5, 6, 6.564833641052246
0, 5, 7, 7.107911586761475
0, 5, 8, 5.366723537445068
0, 5, 9, 5.21451473236084
0, 5, 10, 7.327945232391357
0, 5, 11, 8.760353088378906
0, 5, 12, 9.934750556945801
0, 5, 13, 7.841051578521729
0, 5, 14, 13.52867889404297
0, 5, 15, 16.95142936706543
0, 5, 16, 15.67738819122314
0, 5, 17, 29.49284172058105
0, 5, 18, 137.6719055175781
0, 5, 19, 289.0099792480469
0, 5, 20, 305.41748046875
0, 5, 21, 316.8066101074219
0, 5, 22, 274.7046203613281
0, 5, 23, 309.9704284667969
0, 5, 24, 302.5778198242188
0, 5, 25, 289.2556457519531
0, 5, 26, 293.5733337402344
0, 5, 27, 323.5685424804688
0, 5, 28, 303.7360229492188
0, 5, 29, 297.0974731445312
0, 5, 30, 323.7349853515625
0, 5, 31, 287.545166015625
0, 5, 32, 303.1987915039062
0, 5, 33, 304.0658264160156
0, 5, 34, 299.3941040039062
0, 5, 35, 309.34814453125
0, 5, 36, 269.9340209960938
0, 5, 37, 282.2031860351562
0, 5, 38, 294.4627380371094
0, 5, 39, 312.7729797363281
0, 5, 40, 307.9981994628906
0, 5, 41, 274.5057983398438
0, 5, 42, 305.1637573242188
0, 5, 43, 312.8790893554688
0, 5, 44, 292.5446472167969
0, 5, 45, 302.3140258789062
0, 5, 46, 264.3410949707031
0, 5, 47, 281.0029907226562
0, 5, 48, 293.2675170898438
0, 5, 49, 286.2528991699219
0, 5, 50, 293.430908203125
0, 5, 51, 279.08056640625
0, 5, 52, 271.0982971191406
0, 5, 53, 284.0744934082031
0, 5, 54, 293.2436828613281
0, 5, 55, 347.0043640136719
0, 5, 56, 308.2880859375
0, 5, 57, 306.3912963867188
0, 5, 58, 311.2301330566406
0, 5, 59, 302.5414428710938
0, 5, 60, 306.3581237792969
0, 5, 61, 281.0711364746094
0, 5, 62, 325.56201171875
0, 5, 63, 292.0378723144531
0, 5, 64, 322.0769653320312
0, 5, 65, 306.2471618652344
0, 5, 66, 327.4779357910156
0, 5, 67, 311.3226623535156
0, 5, 68, 310.7459106445312
0, 5, 69, 311.2295227050781
0, 5, 70, 305.6349792480469
0, 5, 71, 271.7933654785156
0, 5, 72, 309.7331848144531
0, 5, 73, 302.5693664550781
0, 5, 74, 295.8343505859375
0, 5, 75, 293.9485473632812
0, 5, 76, 285.1109313964844
0, 5, 77, 299.6897277832031
0, 5, 78, 318.3884887695312
0, 5, 79, 305.5350036621094
0, 5, 80, 293.96240234375
0, 5, 81, 325.7497863769531
0, 5, 82, 325.4245910644531
0, 5, 83, 281.2599487304688
0, 5, 84, 301.4259033203125
0, 5, 85, 271.14697265625
0, 5, 86, 325.7146606445312
0, 5, 87, 282.6314392089844
0, 5, 88, 316.5981750488281
0, 5, 89, 305.8572998046875
0, 5, 90, 314.8392028808594
0, 5, 91, 312.5393371582031
0, 5, 92, 295.8612060546875
0, 5, 93, 321.9765319824219
0, 5, 94, 307.7810668945312
0, 5, 95, 297.2818908691406
0, 5, 96, 297.2628784179688
0, 5, 97, 294.7884521484375
0, 5, 98, 317.5613708496094
0, 5, 99, 302.9817810058594
0, 5, 100, 291.0971984863281
0, 5, 101, 306.1365356445312
0, 5, 102, 296.0179138183594
0, 5, 103, 314.9589233398438
0, 5, 104, 302.9945068359375
0, 5, 105, 290.9364013671875
0, 5, 106, 280.38623046875
0, 5, 107, 293.4194946289062
0, 5, 108, 263.9299621582031
0, 5, 109, 158.2556915283203
0, 5, 110, 40.89652252197266
0, 5, 111, 19.26611709594727
0, 5, 112, 19.59925079345703
0, 5, 113, 12.21963787078857
0, 5, 114, 11.58970832824707
0, 5, 115, 9.255607604980469
0, 5, 116, 7.001343250274658
0, 5, 117, 6.137853145599365
0, 5, 118, 12.9287633895874
0, 5, 119, 6.095102310180664
0, 5, 120, 4.378521919250488
0, 5, 121, 6.005352020263672
0, 5, 122, 4.783490657806396
0, 5, 123, 6.517655372619629
0, 5, 124, 4.582399368286133
0, 5, 125, 3.501215934753418
0, 5, 126, 8.169747352600098
0, 5, 127, 4.068015575408936
0, 6, 0, 5.824419498443604
0, 6, 1, 3.662144422531128
0, 6, 2, 4.882942676544189
0, 6, 3, 7.836573123931885
0, 6, 4, 2.933811664581299
0, 6, 5, 6.354243278503418
0, 6, 6, 8.167627334594727
0, 6, 7, 5.962979793548584
0, 6, 8, 6.01925802230835
0, 6, 9, 6.161444664001465
0, 6, 10, 8.198378562927246
0, 6, 11, 7.431498050689697
0, 6, 12, 9.440750122070312
0, 6, 13, 17.88302421569824
0, 6, 14, 7.78533411026001
0, 6, 15, 17.4900074005127
0, 6, 16, 28.60055351257324
0, 6, 17, 54.07102203369141
0, 6, 18, 174.4678344726562
0, 6, 19, 276.6327209472656
0, 6, 20, 293.3169555664062
0, 6, 21, 315.385009765625
0, 6, 22, 319.9557800292969
0, 6, 23, 308.4182739257812
0, 6, 24, 317.5396118164062
0, 6, 25, 316.1275939941406
0, 6, 26, 318.7917175292969
0, 6, 27, 332.3081359863281
0, 6, 28, 295.5514831542969
0, 6, 29, 333.5778503417969
0, 6, 30, 281.1643676757812
0, 6, 31, 285.205322265625
0, 6, 32, 339.1109313964844
0, 6, 33, 299.568359375
0, 6, 34, 340.2698669433594
0, 6, 35, 320.7994995117188
0, 6, 36, 274.7827758789062
0, 6, 37, 287.7960815429688
0, 6, 38, 311.765869140625
0, 6, 39, 299.9512634277344
0, 6, 40, 285.1315002441406
0, 6, 41, 295.2742919921875
0, 6, 42, 302.853515625
0, 6, 43, 289.5517272949219
0, 6, 44, 282.4051513671875
0, 6, 45, 319.1839904785156
0, 6, 46, 300.8287353515625
0, 6, 47, 334.7154846191406
0, 6, 48, 292.5830688476562
0, 6, 49, 310.5727844238281
0, 6, 50, 329.9743347167969
0, 6, 51, 310.6214599609375
0, 6, 52, 321.6760559082031
0, 6, 53, 330.0439147949219
0, 6, 54, 303.9503784179688
0, 6, 55, 304.7763977050781
0, 6, 56, 292.932373046875
0, 6, 57, 314.3302917480469
0, 6, 58, 261.3545532226562
0, 6, 59, 302.391357421875
0, 6, 60, 311.5603637695312
0, 6, 61, 269.5659790039062
0, 6, 62, 339.6152648925781
0, 6, 63, 323.7918701171875
0, 6, 64, 291.1607055664062
0, 6, 65, 286.45361328125
0, 6, 66, 302.4711608886719
0, 6, 67, 309.1340026855469
0, 6, 68, 294.2282104492188
0, 6, 69, 278.0984497070312
0, 6, 70, 274.8689270019531
0, 6, 71, 289.6085510253906
0, 6, 72, 309.9024353027344
0, 6, 73, 296.7638244628906
0, 6, 74, 331.4264526367188
0, 6, 75, 344.7458801269531
0, 6, 76, 298.118896484375
0, 6, 77, 286.1029357910156
0, 6, 78, 278.0593566894531
0, 6, 79, 292.0563659667969
0, 6, 80, 299.6961059570312
0, 6, 81, 316.0220947265625
0, 6, 82, 319.2866821289062
0, 6, 83, 325.0029907226562
0, 6, 84, 297.4566650390625
0, 6, 85, 301.1449584960938
0, 6, 86, 329.4844360351562
0, 6, 87, 294.2400512695312
0, 6, 88, 305.4620056152344
0, 6, 89, 303.517333984375
0, 6, 90, 298.6004333496094
0, 6, 91, 313.3193664550781
0, 6, 92, 284.0767822265625
0, 6, 93, 297.083251953125
0, 6, 94, 277.0785522460938
0, 6, 95, 299.3345642089844
0, 6, 96, 347.1537170410156
0, 6, 97, 308.4378356933594
0, 6, 98, 301.2274475097656
0, 6, 99, 274.5188293457031
0, 6, 100, 309.4817810058594
0, 6, 101, 292.9444580078125
0, 6, 102, 307.9648742675781
0, 6, 103, 308.1841735839844
0, 6, 104, 290.1366577148438
0, 6, 105, 301.4114990234375
0, 6, 106, 306.5884094238281
0, 6, 107, 307.9657287597656
0, 6, 108, 267.7287292480469
0, 6, 109, 186.8215179443359
0, 6, 110, 55.97096252441406
0, 6, 111, 21.71902275085449
0, 6, 112, 11.81316089630127
0, 6, 113, 9.625093460083008
0, 6, 114, 12.88675212860107
0, 6, 115, 11.62770080566406
0, 6, 116, 9.65599536895752
0, 6, 117, 8.428814888000488
0, 6, 118, 9.900949478149414
0, 6, 119, 10.2001953125
0, 6, 120, 7.0042405128479
0, 6, 121, 5.406070709228516
0, 6, 122, 6.928822994232178
0, 6, 123, 5.321459770202637
0, 6, 124, 6.530583381652832
0, 6, 125, 6.807156562805176
0, 6, 126, 3.90665078163147
0, 6, 127, 5.553713321685791
0, 7, 0, 4.892205715179443
0, 7, 1, 3.908061265945435
0, 7, 2, 5.220150947570801
0, 7, 3, 5.477721691131592
0, 7, 4, 6.205661773681641
0, 7, 5, 4.035071849822998
0, 7, 6, 5.842423915863037
0, 7, 7, 7.908164501190186
0, 7, 8, 4.402912139892578
0, 7, 9, 5.444553375244141
0, 7, 10, 8.921714782714844
0, 7, 11, 11.68962478637695
0, 7, 12, 11.59048748016357
0, 7, 13, 10.56291007995605
0, 7, 14, 10.0033655166626
0, 7, 15, 18.02615737915039
0, 7, 16, 25.58840370178223
0, 7, 17, 96.54067993164062
0, 7, 18, 217.3984680175781
0, 7, 19, 290.854736328125
0, 7, 20, 294.1309509277344
0, 7, 21, 275.6931762695312
0, 7, 22, 298.642578125
0, 7, 23, 291.1145935058594
0, 7, 24, 313.4494018554688
0, 7, 25, 323.5005798339844
0, 7, 26, 277.3017578125
0, 7, 27, 298.578369140625
0, 7, 28, 326.287109375
0, 7, 29, 321.960693359375
0, 7, 30, 299.3369445800781
0, 7, 31, 277.3016052246094
0, 7, 32, 307.0872497558594
0, 7, 33, 262.583740234375
0, 7, 34, 299.0955505371094
0, 7, 35, 321.9155883789062
0, 7, 36, 330.7291564941406
0, 7, 37, 324.3008422851562
0, 7, 38, 295.3801574707031
0, 7, 39, 308.70751953125
0, 7, 40, 290.1786193847656
0, 7, 41, 271.9070129394531
0, 7, 42, 302.0129699707031
0, 7, 43, 276.1417236328125
0, 7, 44, 303.5654602050781
0, 7, 45, 295.1001892089844
0, 7, 46, 282.8221130371094
0, 7, 47, 330.5458374023438
0, 7, 48, 287.2346801757812
0, 7, 49, 301.2050476074219
0, 7, 50, 321.8137512207031
0, 7, 51, 299.2935180664062
0, 7, 52, 326.28759765625
0, 7, 53, 310.4140930175781
0, 7, 54, 323.5403137207031
0, 7, 55, 307.9438781738281
0, 7, 56, 278.3264465332031
0, 7, 57, 284.7271423339844
0, 7, 58, 297.0067443847656
0, 7, 59, 293.3139953613281
0, 7, 60, 322.8834533691406
0, 7, 61, 278.1414184570312
0, 7, 62, 299.9569091796875
0, 7, 63, 293.7173767089844
0, 7, 64, 304.5149536132812
0, 7, 65, 329.9938049316406
0, 7, 66, 318.5874328613281
0, 7, 67, 300.651123046875
0, 7, 68, 280.0742797851562
0, 7, 69, 292.5040588378906
0, 7, 70, 302.2767944335938
0, 7, 71, 309.4470825195312
0, 7, 72, 284.9440612792969
0, 7, 73, 295.668701171875
0, 7, 74, 344.7633972167969
0, 7, 75, 318.6295776367188
0, 7, 76, 322.5449829101562
0, 7, 77, 283.3485412597656
0, 7, 78, 298.6432800292969
0, 7, 79, 298.8497314453125
0, 7, 80, 310.3152770996094
0, 7, 81, 319.3034973144531
0, 7, 82, 329.1754150390625
0, 7, 83, 316.55126953125
0, 7, 84, 310.94775390625
0, 7, 85, 272.0319213867188
0, 7, 86, 311.7853088378906
0, 7, 87, 310.7030029296875
0, 7, 88, 307.1111755371094
0, 7, 89, 293.7488708496094
0, 7, 90, 306.8785095214844
0, 7, 91, 316.9617004394531
0, 7, 92, 288.6083679199219
0, 7, 93, 309.3133239746094
0, 7, 94, 273.2291259765625
0, 7, 95, 297.1973876953125
0, 7, 96, 331.66259765625
0, 7, 97, 296.0260620117188
0, 7, 98, 295.2559204101562
0, 7, 99, 311.8812866210938
0, 7, 100, 282.8140869140625
0, 7, 101, 274.9900817871094
0, 7, 102, 291.136962890625
0, 7, 103, 294.5115966796875
0, 7, 104, 275.59228515625
0, 7, 105, 307.716064453125
0, 7, 106, 317.2630615234375
0, 7, 107, 297.2696228027344
0, 7, 108, 273.6496887207031
0, 7, 109, 235.4053497314453
0, 7, 110, 95.96504974365234
0, 7, 111, 24.05069351196289
0, 7, 112, 12.93095588684082
0, 7, 113, 14.8325023651123
0, 7, 114, 13.83675575256348
0, 7, 115, 10.7214879989624
0, 7, 116, 6.793539524078369
0, 7, 117, 6.898399829864502
0, 7, 118, 8.281017303466797
0, 7, 119, 6.87259578704834
0, 7, 120, 5.087851047515869
0, 7, 121, 7.931408882141113
0, 7, 122, 8.131011009216309
0, 7, 123, 3.351731777191162
0, 7, 124, 4.408933162689209
0, 7, 125, 8.168529510498047
0, 7, 126, 8.361345291137695
0, 7, 127, 4.840898990631104
0, 8, 0, 4.789341926574707
0, 8, 1, 7.19935941696167
0, 8, 2, 5.372538566589355
0, 8, 3, 4.285277843475342
0, 8, 4, 5.313578128814697
0, 8, 5, 3.89418625831604
0, 8, 6, 3.742489099502563
0, 8, 7, 5.06783390045166
0, 8, 8, 7.958686351776123
0, 8, 9, 5.2970871925354
0, 8, 10, 7.596205234527588
0, 8, 11, 10.21192932128906
0, 8, 12, 12.43370914459229
0, 8, 13, 15.64244651794434
0, 8, 14, 15.30922031402588
0, 8, 15, 17.77796173095703
0, 8, 16, 32.03416061401367
0, 8, 17, 129.9305725097656
0, 8, 18, 245.6468658447266
0, 8, 19, 293.893798828125
0, 8, 20, 285.7058410644531
0, 8, 21, 306.4123229980469
0, 8, 22, 295.3407897949219
0, 8, 23, 274.44287109375
0, 8, 24, 268.23046875
0, 8, 25, 275.1386413574219
0, 8, 26, 306.1304626464844
0, 8, 27, 307.2583312988281
0, 8, 28, 303.2342834472656
0, 8, 29, 318.3200073242188
0, 8, 30, 315.3662719726562
0, 8, 31, 303.2521362304688
0, 8, 32, 280.6805114746094
0, 8, 33, 292.7044982910156
0, 8, 34, 288.5550842285156
0, 8, 35, 280.4861450195312
0, 8, 36, 315.3515625
0, 8, 37, 341.6693725585938
0, 8, 38, 333.5262451171875
0, 8, 39, 282.0861206054688
0, 8, 40, 303.8270874023438
