# TOPAS Version: 3.1.p3
# Parameter File: batch_inserts_232.txt
# Results for scorer Readout_Adipose
# Scored in component: MyBox
# X in 1 bin  of 0.75 cm
# Y in 512 bins of 0.0783984 cm
# Z in 128 bins of 0.078125 cm
# EnergyDeposit ( MeV ) : Sum   
0, 0, 0, 16.23144721984863
0, 0, 1, 17.15254974365234
0, 0, 2, 27.79129409790039
0, 0, 3, 21.79665946960449
0, 0, 4, 19.44055366516113
0, 0, 5, 25.43412780761719
0, 0, 6, 22.14418601989746
0, 0, 7, 34.18560028076172
0, 0, 8, 26.86567687988281
0, 0, 9, 22.16068840026855
0, 0, 10, 23.56719779968262
0, 0, 11, 27.33530616760254
0, 0, 12, 36.42981338500977
0, 0, 13, 32.44657897949219
0, 0, 14, 40.25383758544922
0, 0, 15, 48.68127822875977
0, 0, 16, 45.32027053833008
0, 0, 17, 44.5685920715332
0, 0, 18, 73.46807098388672
0, 0, 19, 190.3459777832031
0, 0, 20, 703.2425537109375
0, 0, 21, 1193.269287109375
0, 0, 22, 1249.575073242188
0, 0, 23, 1276.615966796875
0, 0, 24, 1281.523681640625
0, 0, 25, 1357.219970703125
0, 0, 26, 1271.715209960938
0, 0, 27, 1278.082275390625
0, 0, 28, 1323.145751953125
0, 0, 29, 1270.141723632812
0, 0, 30, 1260.37060546875
0, 0, 31, 1280.2685546875
0, 0, 32, 1263.863647460938
0, 0, 33, 1243.786743164062
0, 0, 34, 1324.771240234375
0, 0, 35, 1298.43212890625
0, 0, 36, 1250.737060546875
0, 0, 37, 1282.16015625
0, 0, 38, 1243.422119140625
0, 0, 39, 1250.090698242188
0, 0, 40, 1228.741943359375
0, 0, 41, 1272.949584960938
0, 0, 42, 1255.860961914062
0, 0, 43, 1272.517333984375
0, 0, 44, 1227.219848632812
0, 0, 45, 1291.436279296875
0, 0, 46, 1263.441772460938
0, 0, 47, 1237.461059570312
0, 0, 48, 1272.552368164062
0, 0, 49, 1287.845703125
0, 0, 50, 1310.060668945312
0, 0, 51, 1264.026000976562
0, 0, 52, 1356.88232421875
0, 0, 53, 1328.95166015625
0, 0, 54, 1299.119384765625
0, 0, 55, 1230.72607421875
0, 0, 56, 1315.372924804688
0, 0, 57, 1291.743530273438
0, 0, 58, 1249.794677734375
0, 0, 59, 1333.768310546875
0, 0, 60, 1333.257568359375
0, 0, 61, 1261.633911132812
0, 0, 62, 1242.268188476562
0, 0, 63, 1281.892700195312
0, 0, 64, 1329.190795898438
0, 0, 65, 1283.8173828125
0, 0, 66, 1319.606689453125
0, 0, 67, 1215.368530273438
0, 0, 68, 1312.5517578125
0, 0, 69, 1324.959228515625
0, 0, 70, 1343.221069335938
0, 0, 71, 1287.33203125
0, 0, 72, 1312.049682617188
0, 0, 73, 1239.16455078125
0, 0, 74, 1292.457275390625
0, 0, 75, 1297.317626953125
0, 0, 76, 1259.751342773438
0, 0, 77, 1291.607788085938
0, 0, 78, 1314.305786132812
0, 0, 79, 1327.495483398438
0, 0, 80, 1262.32080078125
0, 0, 81, 1317.425415039062
0, 0, 82, 1287.309692382812
0, 0, 83, 1291.931396484375
0, 0, 84, 1325.898071289062
0, 0, 85, 1231.682373046875
0, 0, 86, 1264.20361328125
0, 0, 87, 1252.786254882812
0, 0, 88, 1250.574584960938
0, 0, 89, 1336.213623046875
0, 0, 90, 1275.7109375
0, 0, 91, 1356.234741210938
0, 0, 92, 1303.7314453125
0, 0, 93, 1270.842163085938
0, 0, 94, 1243.79541015625
0, 0, 95, 1327.488403320312
0, 0, 96, 1285.844848632812
0, 0, 97, 1326.692993164062
0, 0, 98, 1254.161254882812
0, 0, 99, 1247.8984375
0, 0, 100, 1291.870483398438
0, 0, 101, 1311.5166015625
0, 0, 102, 1232.96923828125
0, 0, 103, 1321.368530273438
0, 0, 104, 1261.197998046875
0, 0, 105, 1270.288696289062
0, 0, 106, 1207.658569335938
0, 0, 107, 780.862060546875
0, 0, 108, 193.3419342041016
0, 0, 109, 70.46879577636719
0, 0, 110, 67.02375793457031
0, 0, 111, 41.75052261352539
0, 0, 112, 32.85662841796875
0, 0, 113, 34.31497955322266
0, 0, 114, 37.22863388061523
0, 0, 115, 31.16019821166992
0, 0, 116, 27.10124397277832
0, 0, 117, 30.0185489654541
0, 0, 118, 25.82609939575195
0, 0, 119, 20.02156639099121
0, 0, 120, 24.23964500427246
0, 0, 121, 28.91059303283691
0, 0, 122, 24.0391960144043
0, 0, 123, 20.50102615356445
0, 0, 124, 21.16870880126953
0, 0, 125, 18.07940673828125
0, 0, 126, 23.41734313964844
0, 0, 127, 21.95571136474609
0, 1, 0, 26.94493865966797
0, 1, 1, 19.07478332519531
0, 1, 2, 25.31480598449707
0, 1, 3, 28.99588966369629
0, 1, 4, 23.21217727661133
0, 1, 5, 30.92727470397949
0, 1, 6, 25.97262573242188
0, 1, 7, 31.55298233032227
0, 1, 8, 31.28168869018555
0, 1, 9, 31.79098320007324
0, 1, 10, 33.09381103515625
0, 1, 11, 41.40341949462891
0, 1, 12, 39.16924667358398
0, 1, 13, 39.89617538452148
0, 1, 14, 41.49550628662109
0, 1, 15, 51.08916091918945
0, 1, 16, 57.16688919067383
0, 1, 17, 59.36649703979492
0, 1, 18, 101.5419158935547
0, 1, 19, 398.8103942871094
0, 1, 20, 1042.61083984375
0, 1, 21, 1373.247802734375
0, 1, 22, 1477.244873046875
0, 1, 23, 1459.961303710938
0, 1, 24, 1452.372802734375
0, 1, 25, 1420.612060546875
0, 1, 26, 1470.773803710938
0, 1, 27, 1462.979248046875
0, 1, 28, 1488.563720703125
0, 1, 29, 1477.548095703125
0, 1, 30, 1507.093994140625
0, 1, 31, 1483.754272460938
0, 1, 32, 1408.800903320312
0, 1, 33, 1500.780029296875
0, 1, 34, 1497.996337890625
0, 1, 35, 1462.34375
0, 1, 36, 1492.428833007812
0, 1, 37, 1408.446411132812
0, 1, 38, 1389.493896484375
0, 1, 39, 1526.263671875
0, 1, 40, 1459.2744140625
0, 1, 41, 1491.267822265625
0, 1, 42, 1493.722045898438
0, 1, 43, 1504.50830078125
0, 1, 44, 1448.4833984375
0, 1, 45, 1486.552612304688
0, 1, 46, 1420.63134765625
0, 1, 47, 1434.237426757812
0, 1, 48, 1429.254638671875
0, 1, 49, 1482.880493164062
0, 1, 50, 1443.218139648438
0, 1, 51, 1472.822875976562
0, 1, 52, 1472.18115234375
0, 1, 53, 1478.59228515625
0, 1, 54, 1508.840942382812
0, 1, 55, 1496.887451171875
0, 1, 56, 1470.551391601562
0, 1, 57, 1451.288818359375
0, 1, 58, 1430.55517578125
0, 1, 59, 1480.228515625
0, 1, 60, 1465.902954101562
0, 1, 61, 1450.79833984375
0, 1, 62, 1458.7958984375
0, 1, 63, 1413.085083007812
0, 1, 64, 1472.844482421875
0, 1, 65, 1417.522583007812
0, 1, 66, 1436.941650390625
0, 1, 67, 1458.333862304688
0, 1, 68, 1388.966918945312
0, 1, 69, 1461.886474609375
0, 1, 70, 1429.18798828125
0, 1, 71, 1498.415161132812
0, 1, 72, 1435.627685546875
0, 1, 73, 1490.47314453125
0, 1, 74, 1469.082153320312
0, 1, 75, 1478.26708984375
0, 1, 76, 1456.71435546875
0, 1, 77, 1464.095703125
0, 1, 78, 1452.722290039062
0, 1, 79, 1506.95751953125
0, 1, 80, 1452.939208984375
0, 1, 81, 1421.629150390625
0, 1, 82, 1476.255737304688
0, 1, 83, 1467.154541015625
0, 1, 84, 1537.718872070312
0, 1, 85, 1445.630737304688
0, 1, 86, 1407.814086914062
0, 1, 87, 1419.375854492188
0, 1, 88, 1474.893676757812
0, 1, 89, 1471.866943359375
0, 1, 90, 1420.226440429688
0, 1, 91, 1467.654174804688
0, 1, 92, 1413.35107421875
0, 1, 93, 1458.16796875
0, 1, 94, 1466.709106445312
0, 1, 95, 1421.75732421875
0, 1, 96, 1497.1123046875
0, 1, 97, 1515.817138671875
0, 1, 98, 1478.885009765625
0, 1, 99, 1421.8466796875
0, 1, 100, 1448.861938476562
0, 1, 101, 1417.750854492188
0, 1, 102, 1441.361450195312
0, 1, 103, 1411.296875
0, 1, 104, 1411.755126953125
0, 1, 105, 1465.094604492188
0, 1, 106, 1367.901123046875
0, 1, 107, 1022.719604492188
0, 1, 108, 405.1828308105469
0, 1, 109, 94.69857788085938
0, 1, 110, 61.99084854125977
0, 1, 111, 52.62776184082031
0, 1, 112, 47.73606872558594
0, 1, 113, 36.18182754516602
0, 1, 114, 34.29627990722656
0, 1, 115, 37.46771240234375
0, 1, 116, 37.09529495239258
0, 1, 117, 33.15411758422852
0, 1, 118, 34.1634635925293
0, 1, 119, 31.59504508972168
0, 1, 120, 32.32039260864258
0, 1, 121, 25.20014762878418
0, 1, 122, 21.85593795776367
0, 1, 123, 23.62391662597656
0, 1, 124, 26.45268630981445
0, 1, 125, 19.56937026977539
0, 1, 126, 16.37935066223145
0, 1, 127, 18.1843433380127
0, 2, 0, 22.52953147888184
0, 2, 1, 25.40181350708008
0, 2, 2, 25.00363540649414
0, 2, 3, 27.95053672790527
0, 2, 4, 21.04047203063965
0, 2, 5, 26.10753440856934
0, 2, 6, 26.33345413208008
0, 2, 7, 23.21168327331543
0, 2, 8, 25.93051528930664
0, 2, 9, 28.80123901367188
0, 2, 10, 33.01630020141602
0, 2, 11, 33.75877380371094
0, 2, 12, 34.42033767700195
0, 2, 13, 47.01872634887695
0, 2, 14, 45.85340118408203
0, 2, 15, 46.98542785644531
0, 2, 16, 60.2111930847168
0, 2, 17, 77.98421478271484
0, 2, 18, 144.8285522460938
0, 2, 19, 601.8424072265625
0, 2, 20, 1284.901123046875
0, 2, 21, 1432.800048828125
0, 2, 22, 1460.677001953125
0, 2, 23, 1404.228515625
0, 2, 24, 1445.953857421875
0, 2, 25, 1523.227661132812
0, 2, 26, 1559.271118164062
0, 2, 27, 1451.8427734375
0, 2, 28, 1462.180786132812
0, 2, 29, 1458.229125976562
0, 2, 30, 1461.767822265625
0, 2, 31, 1534.461181640625
0, 2, 32, 1504.348022460938
0, 2, 33, 1440.6826171875
0, 2, 34, 1471.957885742188
0, 2, 35, 1467.469970703125
0, 2, 36, 1527.97412109375
0, 2, 37, 1541.487548828125
0, 2, 38, 1510.2021484375
0, 2, 39, 1467.97607421875
0, 2, 40, 1504.430786132812
0, 2, 41, 1519.883422851562
0, 2, 42, 1509.161743164062
0, 2, 43, 1548.44921875
0, 2, 44, 1462.876098632812
0, 2, 45, 1482.02734375
0, 2, 46, 1421.976806640625
0, 2, 47, 1450.269287109375
0, 2, 48, 1397.017211914062
0, 2, 49, 1461.144775390625
0, 2, 50, 1441.077514648438
0, 2, 51, 1438.032470703125
0, 2, 52, 1496.666870117188
0, 2, 53, 1520.504760742188
0, 2, 54, 1521.822021484375
0, 2, 55, 1494.863037109375
0, 2, 56, 1460.552612304688
0, 2, 57, 1411.277587890625
0, 2, 58, 1454.029418945312
0, 2, 59, 1451.721069335938
0, 2, 60, 1466.779663085938
0, 2, 61, 1448.176147460938
0, 2, 62, 1472.72412109375
0, 2, 63, 1512.633178710938
0, 2, 64, 1462.8359375
0, 2, 65, 1427.197265625
0, 2, 66, 1487.358764648438
0, 2, 67, 1506.581298828125
0, 2, 68, 1542.472290039062
0, 2, 69, 1538.901000976562
0, 2, 70, 1506.42041015625
0, 2, 71, 1463.698120117188
0, 2, 72, 1515.983642578125
0, 2, 73, 1520.900024414062
0, 2, 74, 1496.306396484375
0, 2, 75, 1503.6953125
0, 2, 76, 1447.859497070312
0, 2, 77, 1502.334350585938
0, 2, 78, 1434.3564453125
0, 2, 79, 1542.7900390625
0, 2, 80, 1476.399169921875
0, 2, 81, 1464.91845703125
0, 2, 82, 1554.534790039062
0, 2, 83, 1514.437255859375
0, 2, 84, 1492.628784179688
0, 2, 85, 1516.131103515625
0, 2, 86, 1539.359619140625
0, 2, 87, 1489.405517578125
0, 2, 88, 1542.371826171875
0, 2, 89, 1464.177368164062
0, 2, 90, 1431.168334960938
0, 2, 91, 1406.323364257812
0, 2, 92, 1474.36962890625
0, 2, 93, 1495.9814453125
0, 2, 94, 1454.19677734375
0, 2, 95, 1539.589721679688
0, 2, 96, 1516.185913085938
0, 2, 97, 1452.447998046875
0, 2, 98, 1462.790771484375
0, 2, 99, 1400.392822265625
0, 2, 100, 1469.606811523438
0, 2, 101, 1476.727905273438
0, 2, 102, 1458.857177734375
0, 2, 103, 1385.559448242188
0, 2, 104, 1408.018920898438
0, 2, 105, 1394.33984375
0, 2, 106, 1453.603271484375
0, 2, 107, 1271.998779296875
0, 2, 108, 619.9502563476562
0, 2, 109, 172.7933044433594
0, 2, 110, 70.32108306884766
0, 2, 111, 66.34090423583984
0, 2, 112, 47.6760368347168
0, 2, 113, 46.46591567993164
0, 2, 114, 35.84040069580078
0, 2, 115, 42.43374252319336
0, 2, 116, 36.59169769287109
0, 2, 117, 32.3144416809082
0, 2, 118, 31.07401657104492
0, 2, 119, 29.87913703918457
0, 2, 120, 31.84798431396484
0, 2, 121, 20.21093940734863
0, 2, 122, 27.96431732177734
0, 2, 123, 21.98970985412598
0, 2, 124, 24.01880836486816
0, 2, 125, 27.32419395446777
0, 2, 126, 20.72314643859863
0, 2, 127, 20.84827995300293
0, 3, 0, 17.87701606750488
0, 3, 1, 23.49365997314453
0, 3, 2, 24.15320205688477
0, 3, 3, 21.86922645568848
0, 3, 4, 19.71631050109863
0, 3, 5, 25.19464492797852
0, 3, 6, 32.21034240722656
0, 3, 7, 32.0522575378418
0, 3, 8, 30.9659252166748
0, 3, 9, 29.2507266998291
0, 3, 10, 34.6597900390625
0, 3, 11, 35.63249206542969
0, 3, 12, 44.81514739990234
0, 3, 13, 52.04326248168945
0, 3, 14, 61.15321731567383
0, 3, 15, 57.67340469360352
0, 3, 16, 70.43082427978516
0, 3, 17, 87.17203521728516
0, 3, 18, 234.6936492919922
0, 3, 19, 878.5574340820312
0, 3, 20, 1386.34765625
0, 3, 21, 1506.578002929688
0, 3, 22, 1461.841918945312
0, 3, 23, 1453.535888671875
0, 3, 24, 1437.244140625
0, 3, 25, 1466.240478515625
0, 3, 26, 1496.848999023438
0, 3, 27, 1469.7216796875
0, 3, 28, 1496.682006835938
0, 3, 29, 1545.088745117188
0, 3, 30, 1569.380249023438
0, 3, 31, 1514.462768554688
0, 3, 32, 1551.02587890625
0, 3, 33, 1545.531127929688
0, 3, 34, 1487.772583007812
0, 3, 35, 1460.137329101562
0, 3, 36, 1453.87646484375
0, 3, 37, 1512.19921875
0, 3, 38, 1517.189697265625
0, 3, 39, 1441.594482421875
0, 3, 40, 1446.762939453125
0, 3, 41, 1565.50634765625
0, 3, 42, 1461.457763671875
0, 3, 43, 1452.6845703125
0, 3, 44, 1452.19970703125
0, 3, 45, 1508.95556640625
0, 3, 46, 1505.69873046875
0, 3, 47, 1441.197509765625
0, 3, 48, 1506.243286132812
0, 3, 49, 1454.10595703125
0, 3, 50, 1491.7373046875
0, 3, 51, 1539.5234375
0, 3, 52, 1539.182250976562
0, 3, 53, 1468.52001953125
0, 3, 54, 1537.00390625
0, 3, 55, 1503.773559570312
0, 3, 56, 1437.224731445312
0, 3, 57, 1502.6865234375
0, 3, 58, 1510.418823242188
0, 3, 59, 1510.020751953125
0, 3, 60, 1533.401733398438
0, 3, 61, 1484.311645507812
0, 3, 62, 1490.509521484375
0, 3, 63, 1491.580200195312
0, 3, 64, 1505.496826171875
0, 3, 65, 1517.689697265625
0, 3, 66, 1554.509399414062
0, 3, 67, 1544.75537109375
0, 3, 68, 1447.78173828125
0, 3, 69, 1462.861694335938
0, 3, 70, 1389.26318359375
0, 3, 71, 1462.584594726562
0, 3, 72, 1544.49169921875
0, 3, 73, 1503.952270507812
0, 3, 74, 1465.337768554688
0, 3, 75, 1466.31689453125
0, 3, 76, 1575.301391601562
0, 3, 77, 1540.146606445312
0, 3, 78, 1429.61669921875
0, 3, 79, 1495.813598632812
0, 3, 80, 1467.540405273438
0, 3, 81, 1477.531616210938
0, 3, 82, 1559.426025390625
0, 3, 83, 1515.755493164062
0, 3, 84, 1556.421997070312
0, 3, 85, 1479.47509765625
0, 3, 86, 1525.03857421875
0, 3, 87, 1538.044189453125
0, 3, 88, 1460.944458007812
0, 3, 89, 1450.922119140625
0, 3, 90, 1455.570678710938
0, 3, 91, 1417.286499023438
0, 3, 92, 1515.07763671875
0, 3, 93, 1505.064453125
0, 3, 94, 1516.514892578125
0, 3, 95, 1541.209594726562
0, 3, 96, 1514.50146484375
0, 3, 97, 1466.260864257812
0, 3, 98, 1430.588012695312
0, 3, 99, 1466.493408203125
0, 3, 100, 1465.94384765625
0, 3, 101, 1475.556884765625
0, 3, 102, 1522.304809570312
0, 3, 103, 1553.302734375
0, 3, 104, 1503.00341796875
0, 3, 105, 1515.8095703125
0, 3, 106, 1479.29931640625
0, 3, 107, 1346.007934570312
0, 3, 108, 870.51953125
0, 3, 109, 261.5380859375
0, 3, 110, 99.49473571777344
0, 3, 111, 65.69496917724609
0, 3, 112, 56.6461296081543
0, 3, 113, 49.55901718139648
0, 3, 114, 45.2778205871582
0, 3, 115, 51.90606689453125
0, 3, 116, 39.22346878051758
0, 3, 117, 36.82286834716797
0, 3, 118, 39.34597778320312
0, 3, 119, 27.82907485961914
0, 3, 120, 26.83597755432129
0, 3, 121, 20.41013145446777
0, 3, 122, 22.03446197509766
0, 3, 123, 25.82554244995117
0, 3, 124, 28.85499954223633
0, 3, 125, 33.07500076293945
0, 3, 126, 23.74203491210938
0, 3, 127, 16.18266296386719
0, 4, 0, 18.45980072021484
0, 4, 1, 24.45338249206543
0, 4, 2, 20.2350025177002
0, 4, 3, 21.64688301086426
0, 4, 4, 28.61273193359375
0, 4, 5, 31.88150787353516
0, 4, 6, 26.65201950073242
0, 4, 7, 31.01609802246094
0, 4, 8, 26.85611915588379
0, 4, 9, 35.99873733520508
0, 4, 10, 32.66790390014648
0, 4, 11, 41.75914764404297
0, 4, 12, 46.43139266967773
0, 4, 13, 51.01313018798828
0, 4, 14, 50.59040451049805
0, 4, 15, 63.31439971923828
0, 4, 16, 74.40497589111328
0, 4, 17, 118.0810852050781
0, 4, 18, 445.6506042480469
0, 4, 19, 1183.898315429688
0, 4, 20, 1449.232543945312
0, 4, 21, 1418.881225585938
0, 4, 22, 1434.401123046875
0, 4, 23, 1458.492919921875
0, 4, 24, 1473.85302734375
0, 4, 25, 1402.137939453125
0, 4, 26, 1533.34228515625
0, 4, 27, 1546.1220703125
0, 4, 28, 1511.350708007812
0, 4, 29, 1515.9794921875
0, 4, 30, 1525.39013671875
0, 4, 31, 1571.61328125
0, 4, 32, 1515.643188476562
0, 4, 33, 1493.695434570312
0, 4, 34, 1469.68212890625
0, 4, 35, 1561.875854492188
0, 4, 36, 1502.606567382812
0, 4, 37, 1513.621215820312
0, 4, 38, 1530.91650390625
0, 4, 39, 1464.982788085938
0, 4, 40, 1512.825317382812
0, 4, 41, 1589.474487304688
0, 4, 42, 1563.96826171875
0, 4, 43, 1479.234741210938
0, 4, 44, 1496.3583984375
0, 4, 45, 1517.873413085938
0, 4, 46, 1469.792114257812
0, 4, 47, 1503.159912109375
0, 4, 48, 1526.224365234375
0, 4, 49, 1476.424194335938
0, 4, 50, 1517.937255859375
0, 4, 51, 1494.630859375
0, 4, 52, 1493.431396484375
0, 4, 53, 1452.50341796875
0, 4, 54, 1439.19384765625
0, 4, 55, 1524.957885742188
0, 4, 56, 1453.323852539062
0, 4, 57, 1497.683349609375
0, 4, 58, 1465.442138671875
0, 4, 59, 1464.999877929688
0, 4, 60, 1523.568725585938
0, 4, 61, 1500.466186523438
0, 4, 62, 1504.14697265625
0, 4, 63, 1548.56640625
0, 4, 64, 1593.853881835938
0, 4, 65, 1422.432861328125
0, 4, 66, 1509.551635742188
0, 4, 67, 1522.29638671875
0, 4, 68, 1498.598999023438
0, 4, 69, 1470.336303710938
0, 4, 70, 1551.04443359375
0, 4, 71, 1520.998046875
0, 4, 72, 1527.372192382812
0, 4, 73, 1494.184204101562
0, 4, 74, 1488.864990234375
0, 4, 75, 1537.735961914062
0, 4, 76, 1479.595703125
0, 4, 77, 1497.487548828125
0, 4, 78, 1500.564819335938
0, 4, 79, 1479.419921875
0, 4, 80, 1518.305786132812
0, 4, 81, 1525.7060546875
0, 4, 82, 1566.746459960938
0, 4, 83, 1502.476440429688
0, 4, 84, 1534.690307617188
0, 4, 85, 1549.92724609375
0, 4, 86, 1527.206420898438
0, 4, 87, 1496.384521484375
0, 4, 88, 1513.72314453125
0, 4, 89, 1482.734130859375
0, 4, 90, 1545.480346679688
0, 4, 91, 1556.179321289062
0, 4, 92, 1490.73779296875
0, 4, 93, 1514.547729492188
0, 4, 94, 1480.26708984375
0, 4, 95, 1506.589965820312
0, 4, 96, 1446.3818359375
0, 4, 97, 1412.377563476562
0, 4, 98, 1555.280395507812
0, 4, 99, 1512.529541015625
0, 4, 100, 1494.828369140625
0, 4, 101, 1446.245971679688
0, 4, 102, 1447.3916015625
0, 4, 103, 1512.237060546875
0, 4, 104, 1510.330688476562
0, 4, 105, 1559.947265625
0, 4, 106, 1480.277954101562
0, 4, 107, 1454.358642578125
0, 4, 108, 1121.654663085938
0, 4, 109, 433.4303894042969
0, 4, 110, 98.71160888671875
0, 4, 111, 70.71710968017578
0, 4, 112, 61.9636344909668
0, 4, 113, 54.48445510864258
0, 4, 114, 57.50559234619141
0, 4, 115, 42.16846084594727
0, 4, 116, 32.26029205322266
0, 4, 117, 42.71600341796875
0, 4, 118, 40.57637786865234
0, 4, 119, 40.28475952148438
0, 4, 120, 34.54611968994141
0, 4, 121, 23.4382152557373
0, 4, 122, 27.65881156921387
0, 4, 123, 30.56175994873047
0, 4, 124, 26.5941333770752
0, 4, 125, 27.70539665222168
0, 4, 126, 24.58396530151367
0, 4, 127, 19.7067928314209
0, 5, 0, 20.60289192199707
0, 5, 1, 23.51675033569336
0, 5, 2, 29.66442680358887
0, 5, 3, 24.44478225708008
0, 5, 4, 21.71776580810547
0, 5, 5, 34.53097915649414
0, 5, 6, 34.80963134765625
0, 5, 7, 30.87795257568359
0, 5, 8, 34.77515029907227
0, 5, 9, 36.86779403686523
0, 5, 10, 38.68488693237305
0, 5, 11, 37.92176055908203
0, 5, 12, 40.04310607910156
0, 5, 13, 48.12123107910156
0, 5, 14, 62.6824836730957
0, 5, 15, 78.67073822021484
0, 5, 16, 78.41664123535156
0, 5, 17, 160.1443328857422
0, 5, 18, 675.0109252929688
0, 5, 19, 1349.658203125
0, 5, 20, 1523.802490234375
0, 5, 21, 1493.437133789062
0, 5, 22, 1495.298583984375
0, 5, 23, 1528.915283203125
0, 5, 24, 1464.694458007812
0, 5, 25, 1424.065795898438
0, 5, 26, 1525.989868164062
0, 5, 27, 1541.622436523438
0, 5, 28, 1482.794677734375
0, 5, 29, 1522.275756835938
0, 5, 30, 1496.281127929688
0, 5, 31, 1499.084594726562
0, 5, 32, 1594.42578125
0, 5, 33, 1504.250244140625
0, 5, 34, 1484.58251953125
0, 5, 35, 1513.849487304688
0, 5, 36, 1443.119384765625
0, 5, 37, 1527.930053710938
0, 5, 38, 1547.3623046875
0, 5, 39, 1546.05859375
0, 5, 40, 1497.134155273438
0, 5, 41, 1481.86181640625
0, 5, 42, 1540.2470703125
0, 5, 43, 1530.212768554688
0, 5, 44, 1542.082275390625
0, 5, 45, 1509.489013671875
0, 5, 46, 1489.65380859375
0, 5, 47, 1480.833618164062
0, 5, 48, 1501.716674804688
0, 5, 49, 1522.3046875
0, 5, 50, 1506.897827148438
0, 5, 51, 1519.897705078125
0, 5, 52, 1427.521728515625
0, 5, 53, 1522.790283203125
0, 5, 54, 1518.797119140625
0, 5, 55, 1527.812622070312
0, 5, 56, 1480.26171875
0, 5, 57, 1538.168823242188
0, 5, 58, 1506.418090820312
0, 5, 59, 1485.344360351562
0, 5, 60, 1536.577270507812
0, 5, 61, 1449.995483398438
0, 5, 62, 1592.015747070312
0, 5, 63, 1434.146362304688
0, 5, 64, 1487.808227539062
0, 5, 65, 1467.671752929688
0, 5, 66, 1530.01708984375
0, 5, 67, 1558.992919921875
0, 5, 68, 1464.572143554688
0, 5, 69, 1483.990112304688
0, 5, 70, 1484.875366210938
0, 5, 71, 1470.097045898438
0, 5, 72, 1538.75537109375
0, 5, 73, 1458.739013671875
0, 5, 74, 1495.255615234375
0, 5, 75, 1485.8720703125
0, 5, 76, 1476.147216796875
0, 5, 77, 1524.455078125
0, 5, 78, 1525.226318359375
0, 5, 79, 1508.9326171875
0, 5, 80, 1519.272094726562
0, 5, 81, 1595.02001953125
0, 5, 82, 1525.781616210938
0, 5, 83, 1486.44140625
0, 5, 84, 1531.643188476562
0, 5, 85, 1512.922485351562
0, 5, 86, 1557.002807617188
0, 5, 87, 1472.132568359375
0, 5, 88, 1498.412719726562
0, 5, 89, 1483.12109375
0, 5, 90, 1483.880981445312
0, 5, 91, 1552.07861328125
0, 5, 92, 1481.247436523438
0, 5, 93, 1556.124877929688
0, 5, 94, 1515.901611328125
0, 5, 95, 1561.501220703125
0, 5, 96, 1500.53857421875
0, 5, 97, 1507.066772460938
0, 5, 98, 1508.77734375
0, 5, 99, 1539.008911132812
0, 5, 100, 1430.47998046875
0, 5, 101, 1433.484008789062
0, 5, 102, 1511.322143554688
0, 5, 103, 1476.637573242188
0, 5, 104, 1463.755126953125
0, 5, 105, 1489.825561523438
0, 5, 106, 1456.236938476562
0, 5, 107, 1399.664306640625
0, 5, 108, 1291.144897460938
0, 5, 109, 718.8517456054688
0, 5, 110, 195.3716583251953
0, 5, 111, 92.09744262695312
0, 5, 112, 83.47095489501953
0, 5, 113, 65.48290252685547
0, 5, 114, 58.5261116027832
0, 5, 115, 54.25494003295898
0, 5, 116, 44.10551071166992
0, 5, 117, 33.00630950927734
0, 5, 118, 35.22253799438477
0, 5, 119, 26.9589786529541
0, 5, 120, 34.1371955871582
0, 5, 121, 27.76966285705566
0, 5, 122, 27.72948265075684
0, 5, 123, 28.39463043212891
0, 5, 124, 25.09019660949707
0, 5, 125, 20.78375816345215
0, 5, 126, 21.38260841369629
0, 5, 127, 23.01926040649414
0, 6, 0, 20.58771896362305
0, 6, 1, 25.24963569641113
0, 6, 2, 31.62879753112793
0, 6, 3, 27.19855690002441
0, 6, 4, 24.36461067199707
0, 6, 5, 33.7934455871582
0, 6, 6, 36.40203094482422
0, 6, 7, 29.07475090026855
0, 6, 8, 32.38439178466797
0, 6, 9, 35.03475952148438
0, 6, 10, 34.29089736938477
0, 6, 11, 37.13479995727539
0, 6, 12, 36.779052734375
0, 6, 13, 59.68830871582031
0, 6, 14, 66.91188049316406
0, 6, 15, 80.60237884521484
0, 6, 16, 107.4066390991211
0, 6, 17, 299.2606811523438
0, 6, 18, 900.99658203125
0, 6, 19, 1373.19482421875
0, 6, 20, 1444.229736328125
0, 6, 21, 1525.794677734375
0, 6, 22, 1502.814697265625
0, 6, 23, 1530.999755859375
0, 6, 24, 1479.3046875
0, 6, 25, 1530.288330078125
0, 6, 26, 1521.468383789062
0, 6, 27, 1521.442993164062
0, 6, 28, 1560.250244140625
0, 6, 29, 1575.430786132812
0, 6, 30, 1519.218017578125
0, 6, 31, 1494.281127929688
0, 6, 32, 1526.988037109375
0, 6, 33, 1492.031494140625
0, 6, 34, 1563.540649414062
0, 6, 35, 1499.326293945312
0, 6, 36, 1435.646850585938
0, 6, 37, 1544.912963867188
0, 6, 38, 1524.99560546875
0, 6, 39, 1520.235229492188
0, 6, 40, 1463.030517578125
0, 6, 41, 1442.990966796875
0, 6, 42, 1516.081665039062
0, 6, 43, 1485.385620117188
0, 6, 44, 1428.035766601562
0, 6, 45, 1552.015502929688
0, 6, 46, 1552.388549804688
0, 6, 47, 1494.3955078125
0, 6, 48, 1528.358276367188
0, 6, 49, 1511.292602539062
0, 6, 50, 1574.570068359375
0, 6, 51, 1503.56396484375
0, 6, 52, 1563.741577148438
0, 6, 53, 1467.75439453125
0, 6, 54, 1502.439331054688
0, 6, 55, 1568.84521484375
0, 6, 56, 1516.75927734375
0, 6, 57, 1506.65869140625
0, 6, 58, 1472.684936523438
0, 6, 59, 1521.02734375
0, 6, 60, 1472.345703125
0, 6, 61, 1575.384765625
0, 6, 62, 1543.654052734375
0, 6, 63, 1497.084594726562
0, 6, 64, 1410.793701171875
0, 6, 65, 1489.53125
0, 6, 66, 1510.603759765625
0, 6, 67, 1509.223999023438
0, 6, 68, 1544.19287109375
0, 6, 69, 1486.13916015625
0, 6, 70, 1526.755126953125
0, 6, 71, 1471.177856445312
0, 6, 72, 1595.929931640625
0, 6, 73, 1486.44140625
0, 6, 74, 1559.006958007812
0, 6, 75, 1537.873168945312
0, 6, 76, 1568.762573242188
0, 6, 77, 1506.975341796875
0, 6, 78, 1446.307373046875
0, 6, 79, 1560.30078125
0, 6, 80, 1481.443725585938
0, 6, 81, 1481.412109375
0, 6, 82, 1503.318969726562
0, 6, 83, 1527.8505859375
0, 6, 84, 1523.5419921875
0, 6, 85, 1536.040893554688
0, 6, 86, 1538.719360351562
0, 6, 87, 1572.970703125
0, 6, 88, 1478.704833984375
0, 6, 89, 1562.1240234375
0, 6, 90, 1488.87158203125
0, 6, 91, 1542.952880859375
0, 6, 92, 1487.235107421875
0, 6, 93, 1497.246948242188
0, 6, 94, 1469.986694335938
0, 6, 95, 1511.803833007812
0, 6, 96, 1522.443359375
0, 6, 97, 1506.636352539062
0, 6, 98, 1492.714233398438
0, 6, 99, 1482.365600585938
0, 6, 100, 1520.838256835938
0, 6, 101, 1513.601928710938
0, 6, 102, 1540.68212890625
0, 6, 103, 1500.953125
0, 6, 104, 1461.371215820312
0, 6, 105, 1483.363403320312
0, 6, 106, 1502.243041992188
0, 6, 107, 1506.243408203125
0, 6, 108, 1413.2294921875
0, 6, 109, 926.8621215820312
0, 6, 110, 280.2218627929688
0, 6, 111, 99.20995330810547
0, 6, 112, 77.36252593994141
0, 6, 113, 59.00558853149414
0, 6, 114, 56.2877311706543
0, 6, 115, 43.4668083190918
0, 6, 116, 47.03119659423828
0, 6, 117, 38.06111526489258
0, 6, 118, 38.2713508605957
0, 6, 119, 31.67641639709473
0, 6, 120, 36.04851913452148
0, 6, 121, 29.73166847229004
0, 6, 122, 31.3987979888916
0, 6, 123, 22.0437126159668
0, 6, 124, 28.94562911987305
0, 6, 125, 30.76892852783203
0, 6, 126, 19.03055572509766
0, 6, 127, 25.62927436828613
0, 7, 0, 19.67323303222656
0, 7, 1, 29.08070755004883
0, 7, 2, 25.46383094787598
0, 7, 3, 24.32681465148926
0, 7, 4, 21.39316749572754
0, 7, 5, 34.72218704223633
0, 7, 6, 32.88560104370117
0, 7, 7, 34.57960510253906
0, 7, 8, 34.15682983398438
0, 7, 9, 32.96574020385742
0, 7, 10, 43.85940933227539
0, 7, 11, 47.44222640991211
0, 7, 12, 45.29196929931641
0, 7, 13, 49.56365966796875
0, 7, 14, 61.26358032226562
0, 7, 15, 74.496826171875
0, 7, 16, 126.82373046875
0, 7, 17, 459.4523620605469
0, 7, 18, 1101.449462890625
0, 7, 19, 1498.510009765625
0, 7, 20, 1485.957885742188
0, 7, 21, 1365.807373046875
0, 7, 22, 1489.615356445312
0, 7, 23, 1452.15087890625
0, 7, 24, 1505.34228515625
0, 7, 25, 1594.429931640625
0, 7, 26, 1523.238647460938
0, 7, 27, 1513.966064453125
0, 7, 28, 1543.418212890625
0, 7, 29, 1576.178100585938
0, 7, 30, 1543.755737304688
0, 7, 31, 1435.784423828125
0, 7, 32, 1547.67333984375
0, 7, 33, 1490.23193359375
0, 7, 34, 1480.264404296875
0, 7, 35, 1521.937377929688
0, 7, 36, 1473.045043945312
0, 7, 37, 1598.755493164062
0, 7, 38, 1502.765258789062
0, 7, 39, 1493.68310546875
0, 7, 40, 1539.982055664062
0, 7, 41, 1464.908569335938
0, 7, 42, 1488.173095703125
0, 7, 43, 1447.56640625
0, 7, 44, 1490.213623046875
0, 7, 45, 1470.288330078125
0, 7, 46, 1511.861083984375
0, 7, 47, 1570.992309570312
0, 7, 48, 1524.068481445312
0, 7, 49, 1537.687622070312
0, 7, 50, 1520.795532226562
0, 7, 51, 1497.392944335938
0, 7, 52, 1516.581298828125
0, 7, 53, 1493.312622070312
0, 7, 54, 1587.58544921875
0, 7, 55, 1471.603271484375
0, 7, 56, 1551.079223632812
0, 7, 57, 1511.62646484375
0, 7, 58, 1547.800170898438
0, 7, 59, 1538.029907226562
0, 7, 60, 1548.167358398438
0, 7, 61, 1490.760986328125
0, 7, 62, 1432.732788085938
0, 7, 63, 1512.144409179688
0, 7, 64, 1544.749633789062
0, 7, 65, 1531.056518554688
0, 7, 66, 1540.162719726562
0, 7, 67, 1581.141967773438
0, 7, 68, 1528.353393554688
0, 7, 69, 1517.06884765625
0, 7, 70, 1496.446533203125
0, 7, 71, 1522.039306640625
0, 7, 72, 1522.519287109375
0, 7, 73, 1524.99169921875
0, 7, 74, 1579.476928710938
0, 7, 75, 1537.008422851562
0, 7, 76, 1558.10791015625
0, 7, 77, 1509.661743164062
0, 7, 78, 1510.428588867188
0, 7, 79, 1425.708618164062
0, 7, 80, 1484.794189453125
0, 7, 81, 1495.585083007812
0, 7, 82, 1529.98291015625
0, 7, 83, 1544.96923828125
0, 7, 84, 1586.57763671875
0, 7, 85, 1481.811767578125
0, 7, 86, 1503.511352539062
0, 7, 87, 1508.873168945312
0, 7, 88, 1504.716918945312
0, 7, 89, 1553.491455078125
0, 7, 90, 1517.012329101562
0, 7, 91, 1563.002685546875
0, 7, 92, 1528.23583984375
0, 7, 93, 1550.972045898438
0, 7, 94, 1531.792114257812
0, 7, 95, 1503.795532226562
0, 7, 96, 1506.308349609375
0, 7, 97, 1433.293334960938
0, 7, 98, 1486.225952148438
0, 7, 99, 1523.732055664062
0, 7, 100, 1417.16650390625
0, 7, 101, 1460.879760742188
0, 7, 102, 1451.952880859375
0, 7, 103, 1430.666870117188
0, 7, 104, 1494.834716796875
0, 7, 105, 1527.298950195312
0, 7, 106, 1562.754516601562
0, 7, 107, 1482.368408203125
0, 7, 108, 1412.404907226562
0, 7, 109, 1147.993286132812
0, 7, 110, 471.4893493652344
0, 7, 111, 129.0631103515625
0, 7, 112, 79.56163024902344
0, 7, 113, 75.20796966552734
0, 7, 114, 52.75150680541992
0, 7, 115, 51.23620223999023
0, 7, 116, 46.38204956054688
0, 7, 117, 43.87663650512695
0, 7, 118, 42.23781585693359
0, 7, 119, 32.53694534301758
0, 7, 120, 22.73411560058594
0, 7, 121, 28.67938995361328
0, 7, 122, 32.07526397705078
0, 7, 123, 38.75035095214844
0, 7, 124, 28.48619079589844
0, 7, 125, 23.79853057861328
0, 7, 126, 28.77176284790039
0, 7, 127, 17.15497779846191
0, 8, 0, 22.26206016540527
0, 8, 1, 23.46772384643555
0, 8, 2, 26.87568092346191
0, 8, 3, 26.98452949523926
0, 8, 4, 22.71136093139648
0, 8, 5, 31.8492317199707
0, 8, 6, 30.72202491760254
0, 8, 7, 25.06632041931152
0, 8, 8, 40.39942932128906
0, 8, 9, 41.05225372314453
0, 8, 10, 39.23989486694336
0, 8, 11, 43.62344741821289
0, 8, 12, 50.98748397827148
0, 8, 13, 74.92192077636719
0, 8, 14, 69.35562133789062
0, 8, 15, 89.76209259033203
0, 8, 16, 176.3786315917969
0, 8, 17, 676.4655151367188
0, 8, 18, 1276.6767578125
0, 8, 19, 1450.472290039062
0, 8, 20, 1419.555297851562
0, 8, 21, 1408.740966796875
0, 8, 22, 1485.454956054688
0, 8, 23, 1482.446411132812
0, 8, 24, 1434.151977539062
0, 8, 25, 1455.346801757812
0, 8, 26, 1517.406127929688
0, 8, 27, 1524.79638671875
0, 8, 28, 1475.533325195312
0, 8, 29, 1501.35546875
0, 8, 30, 1491.566772460938
0, 8, 31, 1541.651000976562
0, 8, 32, 1509.358642578125
0, 8, 33, 1481.213134765625
0, 8, 34, 1529.275512695312
0, 8, 35, 1442.619018554688
0, 8, 36, 1500.79443359375
0, 8, 37, 1554.228515625
0, 8, 38, 1558.972900390625
0, 8, 39, 1498.666870117188
0, 8, 40, 1530.419311523438
0, 8, 41, 1483.591918945312
0, 8, 42, 1535.92578125
0, 8, 43, 1432.034057617188
0, 8, 44, 1533.457275390625
0, 8, 45, 1515.293334960938
0, 8, 46, 1594.3115234375
0, 8, 47, 1583.598754882812
0, 8, 48, 1547.735717773438
