# TOPAS Version: 3.1.p3
# Parameter File: batch_inserts_264.txt
# Results for scorer Readout_Adipose
# Scored in component: MyBox
# X in 1 bin  of 0.75 cm
# Y in 512 bins of 0.0783984 cm
# Z in 128 bins of 0.078125 cm
# EnergyDeposit ( MeV ) : Sum   
0, 0, 0, 6.35552453994751
0, 0, 1, 2.12776780128479
0, 0, 2, 2.543205976486206
0, 0, 3, 2.386626005172729
0, 0, 4, 3.77345085144043
0, 0, 5, 2.683684825897217
0, 0, 6, 8.008868217468262
0, 0, 7, 8.843390464782715
0, 0, 8, 3.061583757400513
0, 0, 9, 2.992805004119873
0, 0, 10, 7.817348003387451
0, 0, 11, 4.663985252380371
0, 0, 12, 6.110514640808105
0, 0, 13, 6.664906978607178
0, 0, 14, 6.359305858612061
0, 0, 15, 9.332453727722168
0, 0, 16, 8.692657470703125
0, 0, 17, 8.971878051757812
0, 0, 18, 13.7996244430542
0, 0, 19, 46.79220581054688
0, 0, 20, 139.4826049804688
0, 0, 21, 222.7598114013672
0, 0, 22, 250.2367706298828
0, 0, 23, 256.8789367675781
0, 0, 24, 251.2274932861328
0, 0, 25, 258.5818176269531
0, 0, 26, 232.9684295654297
0, 0, 27, 238.8522338867188
0, 0, 28, 270.6581420898438
0, 0, 29, 252.3936462402344
0, 0, 30, 229.9669036865234
0, 0, 31, 243.2340087890625
0, 0, 32, 264.1420593261719
0, 0, 33, 260.5254821777344
0, 0, 34, 288.8444519042969
0, 0, 35, 266.2955017089844
0, 0, 36, 245.8742065429688
0, 0, 37, 251.9632263183594
0, 0, 38, 270.0528869628906
0, 0, 39, 228.9651489257812
0, 0, 40, 242.1887512207031
0, 0, 41, 265.2105712890625
0, 0, 42, 229.2703857421875
0, 0, 43, 263.4591369628906
0, 0, 44, 251.3855133056641
0, 0, 45, 253.0543212890625
0, 0, 46, 244.7930908203125
0, 0, 47, 253.2968292236328
0, 0, 48, 267.1343688964844
0, 0, 49, 273.5407409667969
0, 0, 50, 249.9841613769531
0, 0, 51, 253.24951171875
0, 0, 52, 271.9685363769531
0, 0, 53, 291.0850219726562
0, 0, 54, 243.0186614990234
0, 0, 55, 241.0324401855469
0, 0, 56, 277.5550537109375
0, 0, 57, 263.2789306640625
0, 0, 58, 249.7050170898438
0, 0, 59, 271.6902465820312
0, 0, 60, 234.1183319091797
0, 0, 61, 246.7240905761719
0, 0, 62, 258.5401306152344
0, 0, 63, 267.8604736328125
0, 0, 64, 255.4260864257812
0, 0, 65, 262.2967529296875
0, 0, 66, 276.1616516113281
0, 0, 67, 251.3375244140625
0, 0, 68, 259.3565673828125
0, 0, 69, 261.0208435058594
0, 0, 70, 272.2261962890625
0, 0, 71, 237.7310943603516
0, 0, 72, 250.048828125
0, 0, 73, 261.0882873535156
0, 0, 74, 251.2910766601562
0, 0, 75, 240.0792999267578
0, 0, 76, 228.5051422119141
0, 0, 77, 260.3667907714844
0, 0, 78, 257.6826477050781
0, 0, 79, 278.0366821289062
0, 0, 80, 217.6449127197266
0, 0, 81, 267.4384155273438
0, 0, 82, 256.7408752441406
0, 0, 83, 244.6439361572266
0, 0, 84, 269.2972717285156
0, 0, 85, 231.9914855957031
0, 0, 86, 254.1827850341797
0, 0, 87, 254.2175598144531
0, 0, 88, 261.3412170410156
0, 0, 89, 280.9869384765625
0, 0, 90, 246.1441040039062
0, 0, 91, 279.9152221679688
0, 0, 92, 255.7657165527344
0, 0, 93, 250.4745788574219
0, 0, 94, 246.9995574951172
0, 0, 95, 247.89208984375
0, 0, 96, 275.3442077636719
0, 0, 97, 273.8055725097656
0, 0, 98, 272.191650390625
0, 0, 99, 259.4657897949219
0, 0, 100, 258.4324035644531
0, 0, 101, 226.0454406738281
0, 0, 102, 232.1919555664062
0, 0, 103, 271.9519348144531
0, 0, 104, 254.2568969726562
0, 0, 105, 251.7028045654297
0, 0, 106, 245.6167907714844
0, 0, 107, 149.6635284423828
0, 0, 108, 37.81499862670898
0, 0, 109, 12.7890739440918
0, 0, 110, 12.7944221496582
0, 0, 111, 9.792752265930176
0, 0, 112, 6.114326000213623
0, 0, 113, 6.53083610534668
0, 0, 114, 6.265871524810791
0, 0, 115, 4.785328388214111
0, 0, 116, 6.167783737182617
0, 0, 117, 4.997876644134521
0, 0, 118, 7.748088836669922
0, 0, 119, 6.799140930175781
0, 0, 120, 2.64091968536377
0, 0, 121, 3.847920894622803
0, 0, 122, 4.195461273193359
0, 0, 123, 3.096870422363281
0, 0, 124, 7.709539413452148
0, 0, 125, 4.586983680725098
0, 0, 126, 3.732093334197998
0, 0, 127, 4.220120429992676
0, 1, 0, 7.419439315795898
0, 1, 1, 3.153545379638672
0, 1, 2, 4.418266296386719
0, 1, 3, 0.8880016803741455
0, 1, 4, 4.915282726287842
0, 1, 5, 3.835401058197021
0, 1, 6, 6.123274803161621
0, 1, 7, 6.823828220367432
0, 1, 8, 7.996824264526367
0, 1, 9, 6.256422996520996
0, 1, 10, 5.999106884002686
0, 1, 11, 11.18880367279053
0, 1, 12, 9.30933666229248
0, 1, 13, 8.793705940246582
0, 1, 14, 7.01438570022583
0, 1, 15, 7.639967441558838
0, 1, 16, 12.65277576446533
0, 1, 17, 10.6294469833374
0, 1, 18, 19.29273414611816
0, 1, 19, 64.83300018310547
0, 1, 20, 198.8293914794922
0, 1, 21, 256.309326171875
0, 1, 22, 295.9591674804688
0, 1, 23, 283.2093505859375
0, 1, 24, 277.6266479492188
0, 1, 25, 287.6519775390625
0, 1, 26, 269.6306457519531
0, 1, 27, 306.9038696289062
0, 1, 28, 299.7790832519531
0, 1, 29, 294.9373168945312
0, 1, 30, 280.272216796875
0, 1, 31, 292.4676208496094
0, 1, 32, 291.304443359375
0, 1, 33, 295.0616455078125
0, 1, 34, 291.6213684082031
0, 1, 35, 279.2362365722656
0, 1, 36, 306.4668273925781
0, 1, 37, 295.4773254394531
0, 1, 38, 279.8072814941406
0, 1, 39, 298.2983093261719
0, 1, 40, 265.5068969726562
0, 1, 41, 285.9324951171875
0, 1, 42, 289.4012451171875
0, 1, 43, 331.8024597167969
0, 1, 44, 278.0586547851562
0, 1, 45, 293.2681274414062
0, 1, 46, 258.338623046875
0, 1, 47, 310.8847961425781
0, 1, 48, 281.8103942871094
0, 1, 49, 302.9296569824219
0, 1, 50, 264.6600646972656
0, 1, 51, 274.4917602539062
0, 1, 52, 296.5303649902344
0, 1, 53, 304.2788696289062
0, 1, 54, 276.3075866699219
0, 1, 55, 293.6348571777344
0, 1, 56, 277.9280700683594
0, 1, 57, 298.5529479980469
0, 1, 58, 309.4438781738281
0, 1, 59, 293.9997863769531
0, 1, 60, 299.0097351074219
0, 1, 61, 275.2192993164062
0, 1, 62, 308.1896667480469
0, 1, 63, 286.7974548339844
0, 1, 64, 291.3167419433594
0, 1, 65, 295.1744995117188
0, 1, 66, 292.7029724121094
0, 1, 67, 292.0865783691406
0, 1, 68, 276.77490234375
0, 1, 69, 283.1337890625
0, 1, 70, 268.9900817871094
0, 1, 71, 272.9985961914062
0, 1, 72, 285.0103149414062
0, 1, 73, 304.5326232910156
0, 1, 74, 305.4824829101562
0, 1, 75, 290.9175720214844
0, 1, 76, 285.5421142578125
0, 1, 77, 290.00439453125
0, 1, 78, 296.4236145019531
0, 1, 79, 301.0349731445312
0, 1, 80, 297.7113342285156
0, 1, 81, 300.0079650878906
0, 1, 82, 286.1039123535156
0, 1, 83, 333.56884765625
0, 1, 84, 309.0830383300781
0, 1, 85, 251.5325927734375
0, 1, 86, 293.6699829101562
0, 1, 87, 291.2774047851562
0, 1, 88, 296.5298461914062
0, 1, 89, 291.51123046875
0, 1, 90, 269.7808227539062
0, 1, 91, 317.7134399414062
0, 1, 92, 290.0751037597656
0, 1, 93, 286.2383422851562
0, 1, 94, 304.704833984375
0, 1, 95, 284.56396484375
0, 1, 96, 282.1772155761719
0, 1, 97, 301.5675354003906
0, 1, 98, 276.8120422363281
0, 1, 99, 265.6926879882812
0, 1, 100, 276.9743957519531
0, 1, 101, 283.3528137207031
0, 1, 102, 277.0780334472656
0, 1, 103, 281.0036010742188
0, 1, 104, 306.5763549804688
0, 1, 105, 297.9046936035156
0, 1, 106, 263.2251281738281
0, 1, 107, 193.3003540039062
0, 1, 108, 79.7757568359375
0, 1, 109, 23.79434585571289
0, 1, 110, 11.12852573394775
0, 1, 111, 9.129825592041016
0, 1, 112, 10.68578243255615
0, 1, 113, 5.004752159118652
0, 1, 114, 5.491401672363281
0, 1, 115, 7.196056842803955
0, 1, 116, 11.70154094696045
0, 1, 117, 5.718945026397705
0, 1, 118, 4.218968391418457
0, 1, 119, 4.695315837860107
0, 1, 120, 6.702767848968506
0, 1, 121, 3.463332891464233
0, 1, 122, 3.23770546913147
0, 1, 123, 2.911736011505127
0, 1, 124, 8.612702369689941
0, 1, 125, 4.592012405395508
0, 1, 126, 4.615331172943115
0, 1, 127, 2.823451280593872
0, 2, 0, 5.509737491607666
0, 2, 1, 4.966301918029785
0, 2, 2, 4.850247859954834
0, 2, 3, 4.101076602935791
0, 2, 4, 4.631905555725098
0, 2, 5, 1.831955194473267
0, 2, 6, 1.867820620536804
0, 2, 7, 3.686008453369141
0, 2, 8, 4.432848453521729
0, 2, 9, 7.023302555084229
0, 2, 10, 8.088543891906738
0, 2, 11, 6.832103729248047
0, 2, 12, 6.051735877990723
0, 2, 13, 10.87897682189941
0, 2, 14, 9.67524528503418
0, 2, 15, 7.43300199508667
0, 2, 16, 10.84022808074951
0, 2, 17, 19.23367691040039
0, 2, 18, 34.80631637573242
0, 2, 19, 116.4884719848633
0, 2, 20, 249.0443420410156
0, 2, 21, 272.33203125
0, 2, 22, 315.5234375
0, 2, 23, 300.3158874511719
0, 2, 24, 286.4147033691406
0, 2, 25, 302.7098999023438
0, 2, 26, 294.2991638183594
0, 2, 27, 276.5997314453125
0, 2, 28, 276.1642456054688
0, 2, 29, 274.2610778808594
0, 2, 30, 290.5531311035156
0, 2, 31, 280.60693359375
0, 2, 32, 293.0324401855469
0, 2, 33, 283.1811828613281
0, 2, 34, 332.3361206054688
0, 2, 35, 288.8579711914062
0, 2, 36, 303.3187255859375
0, 2, 37, 314.2785949707031
0, 2, 38, 309.7370910644531
0, 2, 39, 265.8314514160156
0, 2, 40, 307.6693420410156
0, 2, 41, 292.9807434082031
0, 2, 42, 303.1582946777344
0, 2, 43, 311.0787658691406
0, 2, 44, 311.1121520996094
0, 2, 45, 326.0040893554688
0, 2, 46, 288.5164184570312
0, 2, 47, 302.5625305175781
0, 2, 48, 284.90234375
0, 2, 49, 278.8310852050781
0, 2, 50, 293.927734375
0, 2, 51, 284.8901977539062
0, 2, 52, 272.5973510742188
0, 2, 53, 287.2746276855469
0, 2, 54, 281.5613403320312
0, 2, 55, 275.5443420410156
0, 2, 56, 302.015869140625
0, 2, 57, 291.4349365234375
0, 2, 58, 302.01806640625
0, 2, 59, 289.9083862304688
0, 2, 60, 318.517333984375
0, 2, 61, 301.2149353027344
0, 2, 62, 313.1721496582031
0, 2, 63, 302.4440002441406
0, 2, 64, 298.049072265625
0, 2, 65, 314.8027954101562
0, 2, 66, 278.5632629394531
0, 2, 67, 289.0396423339844
0, 2, 68, 295.3634948730469
0, 2, 69, 312.8747863769531
0, 2, 70, 337.1675415039062
0, 2, 71, 283.5035705566406
0, 2, 72, 302.75
0, 2, 73, 311.4842529296875
0, 2, 74, 285.4830932617188
0, 2, 75, 302.7182922363281
0, 2, 76, 287.2979125976562
0, 2, 77, 298.1060180664062
0, 2, 78, 313.0898742675781
0, 2, 79, 307.1513366699219
0, 2, 80, 295.730224609375
0, 2, 81, 282.092529296875
0, 2, 82, 316.5044250488281
0, 2, 83, 312.6867370605469
0, 2, 84, 289.58447265625
0, 2, 85, 282.5733337402344
0, 2, 86, 324.86962890625
0, 2, 87, 286.7354125976562
0, 2, 88, 278.7957458496094
0, 2, 89, 297.0206298828125
0, 2, 90, 295.4880065917969
0, 2, 91, 277.5946044921875
0, 2, 92, 307.0512390136719
0, 2, 93, 316.3957214355469
0, 2, 94, 290.7030029296875
0, 2, 95, 315.0013732910156
0, 2, 96, 317.2561340332031
0, 2, 97, 288.7982482910156
0, 2, 98, 294.2831726074219
0, 2, 99, 275.0966796875
0, 2, 100, 306.7041931152344
0, 2, 101, 300.1324462890625
0, 2, 102, 300.1915588378906
0, 2, 103, 291.0075378417969
0, 2, 104, 294.66552734375
0, 2, 105, 275.4804382324219
0, 2, 106, 296.259765625
0, 2, 107, 270.6164855957031
0, 2, 108, 116.0699462890625
0, 2, 109, 33.47329711914062
0, 2, 110, 9.311243057250977
0, 2, 111, 11.92523193359375
0, 2, 112, 8.074680328369141
0, 2, 113, 9.392177581787109
0, 2, 114, 10.44213962554932
0, 2, 115, 8.558032035827637
0, 2, 116, 9.414931297302246
0, 2, 117, 6.64835262298584
0, 2, 118, 2.122469186782837
0, 2, 119, 4.267075061798096
0, 2, 120, 5.311468124389648
0, 2, 121, 1.401949167251587
0, 2, 122, 3.841214179992676
0, 2, 123, 4.238791465759277
0, 2, 124, 3.629300832748413
0, 2, 125, 5.270067691802979
0, 2, 126, 2.665680646896362
0, 2, 127, 4.523011684417725
0, 3, 0, 3.567766666412354
0, 3, 1, 3.905163049697876
0, 3, 2, 3.994520664215088
0, 3, 3, 4.773375511169434
0, 3, 4, 3.592429876327515
0, 3, 5, 5.610866546630859
0, 3, 6, 7.471396923065186
0, 3, 7, 5.765461444854736
0, 3, 8, 5.969106674194336
0, 3, 9, 6.368303775787354
0, 3, 10, 5.58628511428833
0, 3, 11, 4.421606063842773
0, 3, 12, 9.481992721557617
0, 3, 13, 17.28793144226074
0, 3, 14, 11.36222171783447
0, 3, 15, 16.51141166687012
0, 3, 16, 11.69968509674072
0, 3, 17, 19.10848426818848
0, 3, 18, 51.70878219604492
0, 3, 19, 176.1408996582031
0, 3, 20, 271.1446228027344
0, 3, 21, 271.5888061523438
0, 3, 22, 280.7338562011719
0, 3, 23, 288.9794921875
0, 3, 24, 288.8422546386719
0, 3, 25, 273.8837280273438
0, 3, 26, 303.1815795898438
0, 3, 27, 292.5234375
0, 3, 28, 281.0778503417969
0, 3, 29, 337.1139831542969
0, 3, 30, 315.3359985351562
0, 3, 31, 288.4186706542969
0, 3, 32, 306.7142944335938
0, 3, 33, 314.0251159667969
0, 3, 34, 325.0314331054688
0, 3, 35, 306.5691223144531
0, 3, 36, 270.028076171875
0, 3, 37, 317.1098327636719
0, 3, 38, 305.1194458007812
0, 3, 39, 290.1199035644531
0, 3, 40, 266.8186950683594
0, 3, 41, 298.9107360839844
0, 3, 42, 285.3407287597656
0, 3, 43, 309.4065246582031
0, 3, 44, 310.8377685546875
0, 3, 45, 289.7748413085938
0, 3, 46, 328.8198547363281
0, 3, 47, 298.956298828125
0, 3, 48, 301.53369140625
0, 3, 49, 275.814208984375
0, 3, 50, 289.7702331542969
0, 3, 51, 276.6976013183594
0, 3, 52, 315.0701904296875
0, 3, 53, 287.8334350585938
0, 3, 54, 284.5169372558594
0, 3, 55, 281.9098510742188
0, 3, 56, 297.9253540039062
0, 3, 57, 288.5723571777344
0, 3, 58, 306.6533508300781
0, 3, 59, 296.4482116699219
0, 3, 60, 297.5718688964844
0, 3, 61, 264.7219848632812
0, 3, 62, 285.5706481933594
0, 3, 63, 306.7798461914062
0, 3, 64, 317.3040466308594
0, 3, 65, 304.7064819335938
0, 3, 66, 315.7041320800781
0, 3, 67, 317.7368774414062
0, 3, 68, 280.0130920410156
0, 3, 69, 283.2626342773438
0, 3, 70, 287.44921875
0, 3, 71, 299.82958984375
0, 3, 72, 271.0775756835938
0, 3, 73, 307.4949340820312
0, 3, 74, 292.9041137695312
0, 3, 75, 291.1163940429688
0, 3, 76, 304.8234252929688
0, 3, 77, 314.9682922363281
0, 3, 78, 301.863037109375
0, 3, 79, 284.4936828613281
0, 3, 80, 292.3079223632812
0, 3, 81, 309.9403076171875
0, 3, 82, 315.1458740234375
0, 3, 83, 302.1613159179688
0, 3, 84, 314.3899230957031
0, 3, 85, 295.5390930175781
0, 3, 86, 302.8416442871094
0, 3, 87, 299.5716247558594
0, 3, 88, 298.7161560058594
0, 3, 89, 294.917236328125
0, 3, 90, 274.6015014648438
0, 3, 91, 283.8721008300781
0, 3, 92, 304.6946716308594
0, 3, 93, 313.5166931152344
0, 3, 94, 297.9674682617188
0, 3, 95, 335.2848205566406
0, 3, 96, 290.0146789550781
0, 3, 97, 283.4646301269531
0, 3, 98, 277.9527282714844
0, 3, 99, 264.2031555175781
0, 3, 100, 287.3429565429688
0, 3, 101, 297.7176818847656
0, 3, 102, 276.4283142089844
0, 3, 103, 319.281005859375
0, 3, 104, 307.6937866210938
0, 3, 105, 289.3310241699219
0, 3, 106, 302.2701721191406
0, 3, 107, 282.0821533203125
0, 3, 108, 170.9136047363281
0, 3, 109, 56.96864318847656
0, 3, 110, 18.22433471679688
0, 3, 111, 12.14388656616211
0, 3, 112, 11.43638515472412
0, 3, 113, 5.510001659393311
0, 3, 114, 10.73202228546143
0, 3, 115, 7.575778007507324
0, 3, 116, 7.614354133605957
0, 3, 117, 6.787351608276367
0, 3, 118, 6.367133140563965
0, 3, 119, 6.502703189849854
0, 3, 120, 5.785065650939941
0, 3, 121, 2.52983570098877
0, 3, 122, 4.566290855407715
0, 3, 123, 6.487316608428955
0, 3, 124, 1.551194667816162
0, 3, 125, 5.629034519195557
0, 3, 126, 5.547029495239258
0, 3, 127, 2.194009780883789
0, 4, 0, 4.273125171661377
0, 4, 1, 4.739030838012695
0, 4, 2, 2.955042839050293
0, 4, 3, 1.795190453529358
0, 4, 4, 6.068036079406738
0, 4, 5, 9.46007251739502
0, 4, 6, 6.980602264404297
0, 4, 7, 5.241255760192871
0, 4, 8, 2.896703958511353
0, 4, 9, 5.273483753204346
0, 4, 10, 6.667156219482422
0, 4, 11, 5.656392097473145
0, 4, 12, 5.694048881530762
0, 4, 13, 8.001863479614258
0, 4, 14, 10.63548469543457
0, 4, 15, 11.84904766082764
0, 4, 16, 13.00249195098877
0, 4, 17, 17.86859512329102
0, 4, 18, 95.17686462402344
0, 4, 19, 221.3153076171875
0, 4, 20, 283.8858337402344
0, 4, 21, 272.5665893554688
0, 4, 22, 305.8690185546875
0, 4, 23, 266.0057373046875
0, 4, 24, 288.8942565917969
0, 4, 25, 275.1969299316406
0, 4, 26, 295.5689086914062
0, 4, 27, 281.3108520507812
0, 4, 28, 304.850341796875
0, 4, 29, 321.7974853515625
0, 4, 30, 308.7384643554688
0, 4, 31, 305.2722473144531
0, 4, 32, 280.6945495605469
0, 4, 33, 297.0409545898438
0, 4, 34, 298.457275390625
0, 4, 35, 312.318603515625
0, 4, 36, 295.9827880859375
0, 4, 37, 286.9520874023438
0, 4, 38, 298.1933898925781
0, 4, 39, 293.97216796875
0, 4, 40, 302.0557861328125
0, 4, 41, 311.8331909179688
0, 4, 42, 330.5826721191406
0, 4, 43, 297.5145874023438
0, 4, 44, 322.2383422851562
0, 4, 45, 325.181396484375
0, 4, 46, 306.6819458007812
0, 4, 47, 292.6029663085938
0, 4, 48, 297.7356567382812
0, 4, 49, 277.9493408203125
0, 4, 50, 296.9889526367188
0, 4, 51, 317.822021484375
0, 4, 52, 328.3028869628906
0, 4, 53, 304.59375
0, 4, 54, 285.7284240722656
0, 4, 55, 316.2731323242188
0, 4, 56, 285.287109375
0, 4, 57, 310.215087890625
0, 4, 58, 297.6646728515625
0, 4, 59, 306.8712158203125
0, 4, 60, 300.9951171875
0, 4, 61, 314.92041015625
0, 4, 62, 307.8957824707031
0, 4, 63, 300.252685546875
0, 4, 64, 328.3750915527344
0, 4, 65, 314.9583129882812
0, 4, 66, 294.2696228027344
0, 4, 67, 283.5892639160156
0, 4, 68, 312.7056579589844
0, 4, 69, 277.4910888671875
0, 4, 70, 299.1089782714844
0, 4, 71, 320.7189636230469
0, 4, 72, 331.6482238769531
0, 4, 73, 297.1851196289062
0, 4, 74, 293.3461303710938
0, 4, 75, 288.3934936523438
0, 4, 76, 278.8710021972656
0, 4, 77, 279.6139831542969
0, 4, 78, 309.8828430175781
0, 4, 79, 318.9933166503906
0, 4, 80, 316.3744201660156
0, 4, 81, 312.4556579589844
0, 4, 82, 297.3447570800781
0, 4, 83, 299.8670959472656
0, 4, 84, 291.7607421875
0, 4, 85, 293.7010803222656
0, 4, 86, 299.84033203125
0, 4, 87, 285.5148010253906
0, 4, 88, 306.7778625488281
0, 4, 89, 293.1661376953125
0, 4, 90, 332.2236022949219
0, 4, 91, 302.9888000488281
0, 4, 92, 288.69677734375
0, 4, 93, 297.8941955566406
0, 4, 94, 293.5582580566406
0, 4, 95, 289.9733581542969
0, 4, 96, 326.3870239257812
0, 4, 97, 274.3551330566406
0, 4, 98, 326.7171325683594
0, 4, 99, 312.3532409667969
0, 4, 100, 300.505615234375
0, 4, 101, 256.7711181640625
0, 4, 102, 296.6267700195312
0, 4, 103, 319.3645935058594
0, 4, 104, 281.5578002929688
0, 4, 105, 310.1916198730469
0, 4, 106, 286.2577514648438
0, 4, 107, 294.73681640625
0, 4, 108, 227.2227325439453
0, 4, 109, 80.87128448486328
0, 4, 110, 16.48460006713867
0, 4, 111, 14.35317134857178
0, 4, 112, 9.931267738342285
0, 4, 113, 10.16483688354492
0, 4, 114, 10.01743221282959
0, 4, 115, 11.00024604797363
0, 4, 116, 9.014693260192871
0, 4, 117, 7.806485652923584
0, 4, 118, 9.071637153625488
0, 4, 119, 9.893198013305664
0, 4, 120, 7.165402412414551
0, 4, 121, 3.948940515518188
0, 4, 122, 5.65852165222168
0, 4, 123, 7.115957260131836
0, 4, 124, 4.690750122070312
0, 4, 125, 9.181300163269043
0, 4, 126, 6.171888828277588
0, 4, 127, 2.519990921020508
0, 5, 0, 3.660626173019409
0, 5, 1, 3.533870458602905
0, 5, 2, 3.455709218978882
0, 5, 3, 4.45219612121582
0, 5, 4, 5.179982662200928
0, 5, 5, 5.209946632385254
0, 5, 6, 9.226102828979492
0, 5, 7, 5.424527168273926
0, 5, 8, 5.935750961303711
0, 5, 9, 5.1962571144104
0, 5, 10, 9.250630378723145
0, 5, 11, 8.117300033569336
0, 5, 12, 7.558393001556396
0, 5, 13, 6.896239280700684
0, 5, 14, 10.96909046173096
0, 5, 15, 15.05359268188477
0, 5, 16, 14.93590259552002
0, 5, 17, 30.33189582824707
0, 5, 18, 137.0973815917969
0, 5, 19, 285.5611267089844
0, 5, 20, 305.8112182617188
0, 5, 21, 317.5162658691406
0, 5, 22, 276.0986328125
0, 5, 23, 311.23388671875
0, 5, 24, 301.7325134277344
0, 5, 25, 289.5084228515625
0, 5, 26, 294.5516052246094
0, 5, 27, 325.6158752441406
0, 5, 28, 304.5072326660156
0, 5, 29, 299.9196472167969
0, 5, 30, 323.2702026367188
0, 5, 31, 287.2994689941406
0, 5, 32, 302.6283264160156
0, 5, 33, 304.3755493164062
0, 5, 34, 296.67919921875
0, 5, 35, 312.0723571777344
0, 5, 36, 270.7641906738281
0, 5, 37, 282.8403015136719
0, 5, 38, 295.1672058105469
0, 5, 39, 311.7593688964844
0, 5, 40, 308.3170471191406
0, 5, 41, 274.3069763183594
0, 5, 42, 305.1960144042969
0, 5, 43, 313.4265747070312
0, 5, 44, 291.8285827636719
0, 5, 45, 300.5552368164062
0, 5, 46, 265.2095336914062
0, 5, 47, 280.2019348144531
0, 5, 48, 293.9902954101562
0, 5, 49, 286.3828125
0, 5, 50, 293.0285034179688
0, 5, 51, 280.9212036132812
0, 5, 52, 268.6801147460938
0, 5, 53, 283.4843444824219
0, 5, 54, 292.1056213378906
0, 5, 55, 346.8125
0, 5, 56, 306.9841003417969
0, 5, 57, 308.4925537109375
0, 5, 58, 310.435302734375
0, 5, 59, 301.3662719726562
0, 5, 60, 308.4140930175781
0, 5, 61, 282.2128601074219
0, 5, 62, 324.7946472167969
0, 5, 63, 289.7939147949219
0, 5, 64, 324.9140319824219
0, 5, 65, 306.5180053710938
0, 5, 66, 327.9165344238281
0, 5, 67, 313.7983703613281
0, 5, 68, 308.21630859375
0, 5, 69, 309.6882019042969
0, 5, 70, 300.1375122070312
0, 5, 71, 273.197021484375
0, 5, 72, 311.05908203125
0, 5, 73, 301.7758483886719
0, 5, 74, 295.9472961425781
0, 5, 75, 297.0606079101562
0, 5, 76, 286.5745849609375
0, 5, 77, 299.6172790527344
0, 5, 78, 316.7042236328125
0, 5, 79, 306.5758361816406
0, 5, 80, 294.6497497558594
0, 5, 81, 325.234619140625
0, 5, 82, 323.8321533203125
0, 5, 83, 281.9561767578125
0, 5, 84, 300.2649536132812
0, 5, 85, 270.5183715820312
0, 5, 86, 325.4306030273438
0, 5, 87, 284.3562622070312
0, 5, 88, 312.6558532714844
0, 5, 89, 303.7001953125
0, 5, 90, 315.5101013183594
0, 5, 91, 313.4844360351562
0, 5, 92, 295.2870178222656
0, 5, 93, 323.7042541503906
0, 5, 94, 310.0761413574219
0, 5, 95, 297.2765197753906
0, 5, 96, 298.2040100097656
0, 5, 97, 296.0700988769531
0, 5, 98, 318.5313415527344
0, 5, 99, 301.1968994140625
0, 5, 100, 289.7021789550781
0, 5, 101, 303.84912109375
0, 5, 102, 294.4429321289062
0, 5, 103, 312.5653991699219
0, 5, 104, 302.5707397460938
0, 5, 105, 292.080810546875
0, 5, 106, 281.8496398925781
0, 5, 107, 296.0013732910156
0, 5, 108, 263.4042663574219
0, 5, 109, 158.3391418457031
0, 5, 110, 42.20613861083984
0, 5, 111, 21.60257339477539
0, 5, 112, 17.78501892089844
0, 5, 113, 14.47060394287109
0, 5, 114, 11.74239540100098
0, 5, 115, 8.9833984375
0, 5, 116, 8.425469398498535
0, 5, 117, 7.588247776031494
0, 5, 118, 13.61164474487305
0, 5, 119, 3.809967517852783
0, 5, 120, 5.408344745635986
0, 5, 121, 7.470035552978516
0, 5, 122, 6.404868125915527
0, 5, 123, 4.723823070526123
0, 5, 124, 7.145098209381104
0, 5, 125, 3.097745180130005
0, 5, 126, 4.047375202178955
0, 5, 127, 4.729942798614502
0, 6, 0, 5.407149791717529
0, 6, 1, 3.117149114608765
0, 6, 2, 5.936354160308838
0, 6, 3, 5.303236484527588
0, 6, 4, 3.110698223114014
0, 6, 5, 5.421224594116211
0, 6, 6, 6.910033226013184
0, 6, 7, 7.307207107543945
0, 6, 8, 8.08286190032959
0, 6, 9, 5.413294315338135
0, 6, 10, 7.609820365905762
0, 6, 11, 6.693216800689697
0, 6, 12, 7.534238338470459
0, 6, 13, 12.95618915557861
0, 6, 14, 10.60810947418213
0, 6, 15, 17.60091400146484
0, 6, 16, 31.02474021911621
0, 6, 17, 54.81520462036133
0, 6, 18, 173.8681793212891
0, 6, 19, 276.6682434082031
0, 6, 20, 290.8246459960938
0, 6, 21, 313.8634338378906
0, 6, 22, 320.0574035644531
0, 6, 23, 305.4351806640625
0, 6, 24, 315.7506408691406
0, 6, 25, 315.1050415039062
0, 6, 26, 319.7240295410156
0, 6, 27, 330.4300537109375
0, 6, 28, 294.7191772460938
0, 6, 29, 331.0751647949219
0, 6, 30, 279.5240783691406
0, 6, 31, 286.057373046875
0, 6, 32, 338.7359313964844
0, 6, 33, 298.9943542480469
0, 6, 34, 339.209228515625
0, 6, 35, 319.9241638183594
0, 6, 36, 272.549560546875
0, 6, 37, 289.82763671875
0, 6, 38, 311.1677856445312
0, 6, 39, 298.5277099609375
0, 6, 40, 284.5680541992188
0, 6, 41, 295.4939575195312
0, 6, 42, 302.6846923828125
0, 6, 43, 290.6856384277344
0, 6, 44, 282.4326477050781
0, 6, 45, 319.7074279785156
0, 6, 46, 303.4153747558594
0, 6, 47, 333.001953125
0, 6, 48, 292.432373046875
0, 6, 49, 311.7794189453125
0, 6, 50, 331.1461791992188
0, 6, 51, 310.9077758789062
0, 6, 52, 321.6620788574219
0, 6, 53, 327.3792724609375
0, 6, 54, 302.2268676757812
0, 6, 55, 304.0156860351562
0, 6, 56, 296.0213623046875
0, 6, 57, 312.0165100097656
0, 6, 58, 260.263427734375
0, 6, 59, 303.1832275390625
0, 6, 60, 312.4437866210938
0, 6, 61, 270.2624816894531
0, 6, 62, 337.9936218261719
0, 6, 63, 323.7185974121094
0, 6, 64, 290.679931640625
0, 6, 65, 285.8468322753906
0, 6, 66, 302.6868591308594
0, 6, 67, 309.5506896972656
0, 6, 68, 292.7895202636719
0, 6, 69, 281.236572265625
0, 6, 70, 276.1782531738281
0, 6, 71, 290.8123779296875
0, 6, 72, 312.261474609375
0, 6, 73, 294.8182678222656
0, 6, 74, 331.1029052734375
0, 6, 75, 343.5653991699219
0, 6, 76, 295.6636047363281
0, 6, 77, 286.9815979003906
0, 6, 78, 279.5304260253906
0, 6, 79, 292.9804992675781
0, 6, 80, 298.6379699707031
0, 6, 81, 315.7956848144531
0, 6, 82, 319.9274597167969
0, 6, 83, 321.0495910644531
0, 6, 84, 297.4682312011719
0, 6, 85, 301.0354919433594
0, 6, 86, 329.1505126953125
0, 6, 87, 291.2088012695312
0, 6, 88, 308.3225402832031
0, 6, 89, 304.3403625488281
0, 6, 90, 299.3605651855469
0, 6, 91, 312.9544067382812
0, 6, 92, 285.8838195800781
0, 6, 93, 295.9136962890625
0, 6, 94, 274.1344604492188
0, 6, 95, 299.2572631835938
0, 6, 96, 346.3734741210938
0, 6, 97, 309.7381591796875
0, 6, 98, 303.3827514648438
0, 6, 99, 269.3228759765625
0, 6, 100, 311.5263977050781
0, 6, 101, 292.5313110351562
0, 6, 102, 306.940185546875
0, 6, 103, 309.6647338867188
0, 6, 104, 294.3798522949219
0, 6, 105, 300.9008178710938
0, 6, 106, 307.7818298339844
0, 6, 107, 306.9840698242188
0, 6, 108, 266.7154846191406
0, 6, 109, 188.0215454101562
0, 6, 110, 55.32218551635742
0, 6, 111, 21.55435943603516
0, 6, 112, 15.43609046936035
0, 6, 113, 12.84342765808105
0, 6, 114, 11.94449710845947
0, 6, 115, 10.03899955749512
0, 6, 116, 9.387530326843262
0, 6, 117, 8.436254501342773
0, 6, 118, 12.23840236663818
0, 6, 119, 8.031102180480957
0, 6, 120, 5.328284740447998
0, 6, 121, 8.584656715393066
0, 6, 122, 8.175066947937012
0, 6, 123, 5.432528972625732
0, 6, 124, 6.537937164306641
0, 6, 125, 6.388879776000977
0, 6, 126, 5.121359825134277
0, 6, 127, 6.143903732299805
0, 7, 0, 6.155771732330322
0, 7, 1, 3.442267656326294
0, 7, 2, 7.178732872009277
0, 7, 3, 4.499449729919434
0, 7, 4, 3.8757643699646
0, 7, 5, 4.623232841491699
0, 7, 6, 5.126233100891113
0, 7, 7, 4.680059432983398
0, 7, 8, 4.706854820251465
0, 7, 9, 5.397079467773438
0, 7, 10, 9.613396644592285
0, 7, 11, 13.89341831207275
0, 7, 12, 13.1238956451416
0, 7, 13, 9.681173324584961
0, 7, 14, 10.46047210693359
0, 7, 15, 17.69778823852539
0, 7, 16, 25.50619888305664
0, 7, 17, 97.16405487060547
0, 7, 18, 218.8404388427734
0, 7, 19, 288.7708740234375
0, 7, 20, 296.516845703125
0, 7, 21, 276.6717224121094
0, 7, 22, 298.8221130371094
0, 7, 23, 290.0216064453125
0, 7, 24, 314.0091247558594
0, 7, 25, 325.1618957519531
0, 7, 26, 277.3988342285156
0, 7, 27, 297.3484802246094
0, 7, 28, 327.5631103515625
0, 7, 29, 317.0690307617188
0, 7, 30, 301.4737243652344
0, 7, 31, 275.91455078125
0, 7, 32, 304.0626831054688
0, 7, 33, 265.6178588867188
0, 7, 34, 296.6572875976562
0, 7, 35, 320.3134765625
0, 7, 36, 332.6671752929688
0, 7, 37, 324.4094543457031
0, 7, 38, 294.3487854003906
0, 7, 39, 305.5324401855469
0, 7, 40, 291.293701171875
0, 7, 41, 272.8782958984375
0, 7, 42, 302.0694274902344
0, 7, 43, 276.5202331542969
0, 7, 44, 303.0172424316406
0, 7, 45, 295.4114379882812
0, 7, 46, 283.9210205078125
0, 7, 47, 330.5130615234375
0, 7, 48, 284.0420227050781
0, 7, 49, 300.8955078125
0, 7, 50, 320.6917419433594
0, 7, 51, 298.4193725585938
0, 7, 52, 326.8495178222656
0, 7, 53, 311.7163391113281
0, 7, 54, 324.1888427734375
0, 7, 55, 308.2106018066406
0, 7, 56, 279.5262756347656
0, 7, 57, 283.9122009277344
0, 7, 58, 296.5122375488281
0, 7, 59, 295.0447692871094
0, 7, 60, 323.1990356445312
0, 7, 61, 277.7174072265625
0, 7, 62, 295.9328308105469
0, 7, 63, 292.9776916503906
0, 7, 64, 305.3605041503906
0, 7, 65, 333.0724182128906
0, 7, 66, 321.8186950683594
0, 7, 67, 301.9913024902344
0, 7, 68, 281.6265869140625
0, 7, 69, 294.0921936035156
0, 7, 70, 302.0580139160156
0, 7, 71, 309.5092163085938
0, 7, 72, 286.3489074707031
0, 7, 73, 294.8323974609375
0, 7, 74, 343.5372924804688
0, 7, 75, 319.5987243652344
0, 7, 76, 324.0509948730469
0, 7, 77, 278.7272033691406
0, 7, 78, 301.9106140136719
0, 7, 79, 297.7084350585938
0, 7, 80, 312.4665832519531
0, 7, 81, 318.8487548828125
0, 7, 82, 329.4611206054688
0, 7, 83, 317.4296569824219
0, 7, 84, 308.3292236328125
0, 7, 85, 272.0423583984375
0, 7, 86, 312.97119140625
0, 7, 87, 311.3253479003906
0, 7, 88, 308.2247924804688
0, 7, 89, 292.9218444824219
0, 7, 90, 308.4706420898438
0, 7, 91, 316.3928527832031
0, 7, 92, 290.2220764160156
0, 7, 93, 306.9280700683594
0, 7, 94, 273.19091796875
0, 7, 95, 295.0898742675781
0, 7, 96, 330.2765808105469
0, 7, 97, 294.9176330566406
0, 7, 98, 291.6172180175781
0, 7, 99, 313.108154296875
0, 7, 100, 281.4675598144531
0, 7, 101, 275.2328796386719
0, 7, 102, 290.1927185058594
0, 7, 103, 291.1098022460938
0, 7, 104, 277.1554565429688
0, 7, 105, 306.7793884277344
0, 7, 106, 316.9216003417969
0, 7, 107, 296.531982421875
0, 7, 108, 275.3465576171875
0, 7, 109, 236.1570892333984
0, 7, 110, 97.36165618896484
0, 7, 111, 23.80312538146973
0, 7, 112, 14.93574905395508
0, 7, 113, 15.47605037689209
0, 7, 114, 17.97057723999023
0, 7, 115, 12.45657730102539
0, 7, 116, 7.672624588012695
0, 7, 117, 6.73513650894165
0, 7, 118, 9.837432861328125
0, 7, 119, 6.51703405380249
0, 7, 120, 4.254287242889404
0, 7, 121, 5.727494239807129
0, 7, 122, 6.544578552246094
0, 7, 123, 5.344740867614746
0, 7, 124, 4.578267097473145
0, 7, 125, 7.367570877075195
0, 7, 126, 8.848628997802734
0, 7, 127, 2.50324821472168
0, 8, 0, 6.562934398651123
0, 8, 1, 4.445249557495117
0, 8, 2, 5.497061729431152
0, 8, 3, 2.631414175033569
0, 8, 4, 2.678027868270874
0, 8, 5, 4.749489307403564
0, 8, 6, 6.591505527496338
0, 8, 7, 5.369227409362793
0, 8, 8, 9.916093826293945
0, 8, 9, 5.361439228057861
0, 8, 10, 9.505021095275879
0, 8, 11, 11.44266510009766
0, 8, 12, 13.30384635925293
0, 8, 13, 14.36980056762695
0, 8, 14, 13.95587348937988
0, 8, 15, 19.28281021118164
0, 8, 16, 33.40940475463867
0, 8, 17, 131.2851715087891
0, 8, 18, 241.8587646484375
0, 8, 19, 293.9684753417969
0, 8, 20, 286.7680969238281
0, 8, 21, 307.0665893554688
0, 8, 22, 294.041259765625
0, 8, 23, 274.7666625976562
0, 8, 24, 267.9708251953125
0, 8, 25, 274.8909912109375
0, 8, 26, 306.0774230957031
0, 8, 27, 306.8253784179688
0, 8, 28, 305.1734008789062
0, 8, 29, 318.6584777832031
0, 8, 30, 313.6614990234375
0, 8, 31, 305.8709411621094
0, 8, 32, 280.1807861328125
0, 8, 33, 292.7060241699219
0, 8, 34, 288.5654602050781
0, 8, 35, 278.5819396972656
0, 8, 36, 317.2206420898438
0, 8, 37, 340.07763671875
0, 8, 38, 331.7254333496094
0, 8, 39, 280.6736450195312
0, 8, 40, 303.5191040039062
0, 8, 41, 293.7295837402344
