# TOPAS Version: 3.1.p3
# Parameter File: batch_inserts_148.txt
# Results for scorer Readout_Adipose
# Scored in component: MyBox
# X in 1 bin  of 0.75 cm
# Y in 512 bins of 0.0783984 cm
# Z in 128 bins of 0.078125 cm
# EnergyDeposit ( MeV ) : Sum   
0, 0, 0, 22.66908836364746
0, 0, 1, 16.83103942871094
0, 0, 2, 24.86557388305664
0, 0, 3, 20.84517669677734
0, 0, 4, 18.83659744262695
0, 0, 5, 18.8016471862793
0, 0, 6, 22.42574119567871
0, 0, 7, 35.23632049560547
0, 0, 8, 25.79813194274902
0, 0, 9, 20.95812606811523
0, 0, 10, 28.16162109375
0, 0, 11, 26.02779006958008
0, 0, 12, 38.80412292480469
0, 0, 13, 33.94221878051758
0, 0, 14, 36.23759841918945
0, 0, 15, 43.31003189086914
0, 0, 16, 41.76466369628906
0, 0, 17, 49.28433227539062
0, 0, 18, 77.08375549316406
0, 0, 19, 191.4718780517578
0, 0, 20, 704.73193359375
0, 0, 21, 1188.151733398438
0, 0, 22, 1246.281372070312
0, 0, 23, 1279.852661132812
0, 0, 24, 1282.413452148438
0, 0, 25, 1355.564208984375
0, 0, 26, 1271.459838867188
0, 0, 27, 1283.3701171875
0, 0, 28, 1321.528564453125
0, 0, 29, 1274.504760742188
0, 0, 30, 1262.155395507812
0, 0, 31, 1279.266967773438
0, 0, 32, 1265.973388671875
0, 0, 33, 1244.503295898438
0, 0, 34, 1321.417724609375
0, 0, 35, 1301.21435546875
0, 0, 36, 1244.89501953125
0, 0, 37, 1279.5400390625
0, 0, 38, 1246.704711914062
0, 0, 39, 1245.478759765625
0, 0, 40, 1226.423828125
0, 0, 41, 1265.643432617188
0, 0, 42, 1254.137573242188
0, 0, 43, 1264.07177734375
0, 0, 44, 1225.975341796875
0, 0, 45, 1286.816162109375
0, 0, 46, 1264.0322265625
0, 0, 47, 1243.189453125
0, 0, 48, 1278.842651367188
0, 0, 49, 1285.3173828125
0, 0, 50, 1310.526489257812
0, 0, 51, 1265.978759765625
0, 0, 52, 1359.5693359375
0, 0, 53, 1325.563232421875
0, 0, 54, 1293.775268554688
0, 0, 55, 1234.3779296875
0, 0, 56, 1320.546875
0, 0, 57, 1290.546630859375
0, 0, 58, 1256.095825195312
0, 0, 59, 1333.664306640625
0, 0, 60, 1324.16259765625
0, 0, 61, 1258.946655273438
0, 0, 62, 1243.18115234375
0, 0, 63, 1276.504150390625
0, 0, 64, 1331.557250976562
0, 0, 65, 1285.2939453125
0, 0, 66, 1316.513427734375
0, 0, 67, 1215.7373046875
0, 0, 68, 1312.186645507812
0, 0, 69, 1328.042236328125
0, 0, 70, 1344.6796875
0, 0, 71, 1286.524658203125
0, 0, 72, 1313.114135742188
0, 0, 73, 1242.441650390625
0, 0, 74, 1293.138549804688
0, 0, 75, 1300.092407226562
0, 0, 76, 1255.794311523438
0, 0, 77, 1285.430908203125
0, 0, 78, 1314.379028320312
0, 0, 79, 1323.462890625
0, 0, 80, 1265.3583984375
0, 0, 81, 1319.419921875
0, 0, 82, 1286.82861328125
0, 0, 83, 1292.60888671875
0, 0, 84, 1326.877319335938
0, 0, 85, 1235.346801757812
0, 0, 86, 1264.849853515625
0, 0, 87, 1254.6142578125
0, 0, 88, 1255.832397460938
0, 0, 89, 1334.764526367188
0, 0, 90, 1277.474609375
0, 0, 91, 1355.22998046875
0, 0, 92, 1304.801513671875
0, 0, 93, 1274.285522460938
0, 0, 94, 1246.508178710938
0, 0, 95, 1325.961669921875
0, 0, 96, 1285.035766601562
0, 0, 97, 1327.091918945312
0, 0, 98, 1257.0478515625
0, 0, 99, 1251.60546875
0, 0, 100, 1286.628173828125
0, 0, 101, 1317.111572265625
0, 0, 102, 1231.762451171875
0, 0, 103, 1320.538452148438
0, 0, 104, 1259.96630859375
0, 0, 105, 1269.960815429688
0, 0, 106, 1207.451782226562
0, 0, 107, 781.4716186523438
0, 0, 108, 190.9505615234375
0, 0, 109, 65.48492431640625
0, 0, 110, 67.07963562011719
0, 0, 111, 41.68062973022461
0, 0, 112, 35.38958358764648
0, 0, 113, 33.08766555786133
0, 0, 114, 33.31156539916992
0, 0, 115, 31.23775100708008
0, 0, 116, 26.62228775024414
0, 0, 117, 29.35617828369141
0, 0, 118, 29.11004638671875
0, 0, 119, 25.30575180053711
0, 0, 120, 25.93288803100586
0, 0, 121, 31.2196216583252
0, 0, 122, 23.9671516418457
0, 0, 123, 20.56668090820312
0, 0, 124, 21.00456237792969
0, 0, 125, 19.64199066162109
0, 0, 126, 21.16356086730957
0, 0, 127, 15.28767013549805
0, 1, 0, 21.28292846679688
0, 1, 1, 18.62848663330078
0, 1, 2, 21.43042755126953
0, 1, 3, 24.88852500915527
0, 1, 4, 22.93147277832031
0, 1, 5, 31.63627433776855
0, 1, 6, 27.4908390045166
0, 1, 7, 23.4310474395752
0, 1, 8, 32.48830413818359
0, 1, 9, 31.20330619812012
0, 1, 10, 37.05987930297852
0, 1, 11, 44.90843200683594
0, 1, 12, 42.63251876831055
0, 1, 13, 40.33066177368164
0, 1, 14, 39.7492561340332
0, 1, 15, 48.18316650390625
0, 1, 16, 63.0905876159668
0, 1, 17, 58.13599395751953
0, 1, 18, 97.3458251953125
0, 1, 19, 404.4526977539062
0, 1, 20, 1045.535766601562
0, 1, 21, 1373.784057617188
0, 1, 22, 1479.850708007812
0, 1, 23, 1460.34521484375
0, 1, 24, 1445.851684570312
0, 1, 25, 1417.19677734375
0, 1, 26, 1473.892700195312
0, 1, 27, 1468.911743164062
0, 1, 28, 1494.343994140625
0, 1, 29, 1476.164428710938
0, 1, 30, 1510.071411132812
0, 1, 31, 1485.454223632812
0, 1, 32, 1413.710083007812
0, 1, 33, 1496.978271484375
0, 1, 34, 1497.965454101562
0, 1, 35, 1458.412719726562
0, 1, 36, 1491.202026367188
0, 1, 37, 1408.901123046875
0, 1, 38, 1391.531372070312
0, 1, 39, 1522.730102539062
0, 1, 40, 1461.3173828125
0, 1, 41, 1495.60498046875
0, 1, 42, 1494.825439453125
0, 1, 43, 1501.007080078125
0, 1, 44, 1455.447509765625
0, 1, 45, 1487.71435546875
0, 1, 46, 1422.952026367188
0, 1, 47, 1431.8330078125
0, 1, 48, 1428.5107421875
0, 1, 49, 1488.953857421875
0, 1, 50, 1440.782348632812
0, 1, 51, 1482.390014648438
0, 1, 52, 1474.792724609375
0, 1, 53, 1474.6357421875
0, 1, 54, 1505.350830078125
0, 1, 55, 1496.853393554688
0, 1, 56, 1471.8896484375
0, 1, 57, 1458.933471679688
0, 1, 58, 1432.032958984375
0, 1, 59, 1481.189819335938
0, 1, 60, 1464.984375
0, 1, 61, 1450.041015625
0, 1, 62, 1453.041015625
0, 1, 63, 1416.786499023438
0, 1, 64, 1474.295288085938
0, 1, 65, 1416.030029296875
0, 1, 66, 1439.665405273438
0, 1, 67, 1452.611450195312
0, 1, 68, 1386.646118164062
0, 1, 69, 1462.561889648438
0, 1, 70, 1431.854858398438
0, 1, 71, 1497.758544921875
0, 1, 72, 1433.05517578125
0, 1, 73, 1486.616577148438
0, 1, 74, 1471.330688476562
0, 1, 75, 1479.225219726562
0, 1, 76, 1460.360229492188
0, 1, 77, 1460.0703125
0, 1, 78, 1450.094482421875
0, 1, 79, 1500.813110351562
0, 1, 80, 1450.34033203125
0, 1, 81, 1426.279052734375
0, 1, 82, 1472.89697265625
0, 1, 83, 1468.259155273438
0, 1, 84, 1536.784301757812
0, 1, 85, 1450.684204101562
0, 1, 86, 1406.225341796875
0, 1, 87, 1426.25634765625
0, 1, 88, 1472.438110351562
0, 1, 89, 1480.5693359375
0, 1, 90, 1423.262451171875
0, 1, 91, 1462.203369140625
0, 1, 92, 1408.030517578125
0, 1, 93, 1459.582763671875
0, 1, 94, 1464.340942382812
0, 1, 95, 1421.738647460938
0, 1, 96, 1500.342651367188
0, 1, 97, 1520.10302734375
0, 1, 98, 1482.241088867188
0, 1, 99, 1419.754638671875
0, 1, 100, 1447.850219726562
0, 1, 101, 1412.536010742188
0, 1, 102, 1441.714599609375
0, 1, 103, 1411.193115234375
0, 1, 104, 1406.491821289062
0, 1, 105, 1462.340209960938
0, 1, 106, 1363.930419921875
0, 1, 107, 1023.9208984375
0, 1, 108, 405.3872680664062
0, 1, 109, 94.08115386962891
0, 1, 110, 66.10882568359375
0, 1, 111, 53.13876342773438
0, 1, 112, 44.4960823059082
0, 1, 113, 39.90388870239258
0, 1, 114, 34.39351654052734
0, 1, 115, 34.52605056762695
0, 1, 116, 36.42634963989258
0, 1, 117, 35.23988342285156
0, 1, 118, 39.53460693359375
0, 1, 119, 24.68624496459961
0, 1, 120, 27.82059288024902
0, 1, 121, 26.25846099853516
0, 1, 122, 20.74724006652832
0, 1, 123, 23.4471492767334
0, 1, 124, 27.46672630310059
0, 1, 125, 20.66182708740234
0, 1, 126, 24.85643577575684
0, 1, 127, 21.54407691955566
0, 2, 0, 23.13256454467773
0, 2, 1, 24.2583122253418
0, 2, 2, 20.50242614746094
0, 2, 3, 27.64765930175781
0, 2, 4, 27.91408348083496
0, 2, 5, 27.07662582397461
0, 2, 6, 22.57492637634277
0, 2, 7, 22.94398498535156
0, 2, 8, 27.51116943359375
0, 2, 9, 28.50200271606445
0, 2, 10, 30.75505256652832
0, 2, 11, 33.3979377746582
0, 2, 12, 42.90471267700195
0, 2, 13, 44.60867309570312
0, 2, 14, 46.05767822265625
0, 2, 15, 46.20079040527344
0, 2, 16, 66.40956878662109
0, 2, 17, 79.03117370605469
0, 2, 18, 143.6368103027344
0, 2, 19, 606.5027465820312
0, 2, 20, 1286.843383789062
0, 2, 21, 1433.774291992188
0, 2, 22, 1460.84326171875
0, 2, 23, 1404.018920898438
0, 2, 24, 1439.398681640625
0, 2, 25, 1523.377807617188
0, 2, 26, 1556.073120117188
0, 2, 27, 1454.703491210938
0, 2, 28, 1461.328369140625
0, 2, 29, 1463.405151367188
0, 2, 30, 1463.302856445312
0, 2, 31, 1532.6064453125
0, 2, 32, 1511.098266601562
0, 2, 33, 1443.365844726562
0, 2, 34, 1473.18603515625
0, 2, 35, 1469.4345703125
0, 2, 36, 1527.063842773438
0, 2, 37, 1540.792846679688
0, 2, 38, 1504.72119140625
0, 2, 39, 1462.849975585938
0, 2, 40, 1500.038818359375
0, 2, 41, 1519.002685546875
0, 2, 42, 1507.6416015625
0, 2, 43, 1551.102661132812
0, 2, 44, 1462.03662109375
0, 2, 45, 1477.860961914062
0, 2, 46, 1423.81103515625
0, 2, 47, 1449.802612304688
0, 2, 48, 1395.193237304688
0, 2, 49, 1462.842529296875
0, 2, 50, 1443.714599609375
0, 2, 51, 1443.591430664062
0, 2, 52, 1495.010986328125
0, 2, 53, 1522.840209960938
0, 2, 54, 1527.982543945312
0, 2, 55, 1491.064697265625
0, 2, 56, 1458.65283203125
0, 2, 57, 1414.344848632812
0, 2, 58, 1457.902954101562
0, 2, 59, 1455.525634765625
0, 2, 60, 1473.541381835938
0, 2, 61, 1444.537353515625
0, 2, 62, 1473.738891601562
0, 2, 63, 1511.64599609375
0, 2, 64, 1459.09521484375
0, 2, 65, 1428.609008789062
0, 2, 66, 1489.489379882812
0, 2, 67, 1502.67626953125
0, 2, 68, 1541.157470703125
0, 2, 69, 1541.713256835938
0, 2, 70, 1506.311401367188
0, 2, 71, 1467.028076171875
0, 2, 72, 1520.473876953125
0, 2, 73, 1522.366943359375
0, 2, 74, 1489.443603515625
0, 2, 75, 1506.105712890625
0, 2, 76, 1455.312744140625
0, 2, 77, 1512.476806640625
0, 2, 78, 1432.518798828125
0, 2, 79, 1541.086181640625
0, 2, 80, 1480.881713867188
0, 2, 81, 1468.87353515625
0, 2, 82, 1560.109619140625
0, 2, 83, 1516.74462890625
0, 2, 84, 1490.767211914062
0, 2, 85, 1514.924072265625
0, 2, 86, 1540.126342773438
0, 2, 87, 1486.25830078125
0, 2, 88, 1537.153076171875
0, 2, 89, 1467.642333984375
0, 2, 90, 1428.5751953125
0, 2, 91, 1405.311279296875
0, 2, 92, 1475.746826171875
0, 2, 93, 1494.62939453125
0, 2, 94, 1450.565063476562
0, 2, 95, 1543.41259765625
0, 2, 96, 1516.1669921875
0, 2, 97, 1448.686279296875
0, 2, 98, 1466.08056640625
0, 2, 99, 1404.716064453125
0, 2, 100, 1470.490844726562
0, 2, 101, 1478.953002929688
0, 2, 102, 1458.69677734375
0, 2, 103, 1386.381225585938
0, 2, 104, 1409.392578125
0, 2, 105, 1391.503784179688
0, 2, 106, 1458.391479492188
0, 2, 107, 1270.754516601562
0, 2, 108, 620.386962890625
0, 2, 109, 171.497802734375
0, 2, 110, 70.01363372802734
0, 2, 111, 65.33018493652344
0, 2, 112, 50.94941329956055
0, 2, 113, 47.42935180664062
0, 2, 114, 37.6843376159668
0, 2, 115, 44.73896408081055
0, 2, 116, 33.98493576049805
0, 2, 117, 36.92451858520508
0, 2, 118, 35.2801628112793
0, 2, 119, 30.38736724853516
0, 2, 120, 28.34454536437988
0, 2, 121, 20.9093074798584
0, 2, 122, 28.04932403564453
0, 2, 123, 20.57696533203125
0, 2, 124, 19.30239295959473
0, 2, 125, 27.40363883972168
0, 2, 126, 16.20625495910645
0, 2, 127, 21.1187572479248
0, 3, 0, 13.66162967681885
0, 3, 1, 18.35659980773926
0, 3, 2, 26.90712928771973
0, 3, 3, 21.37142181396484
0, 3, 4, 21.57263565063477
0, 3, 5, 21.23145866394043
0, 3, 6, 33.99267959594727
0, 3, 7, 25.34024047851562
0, 3, 8, 30.48922920227051
0, 3, 9, 32.19934844970703
0, 3, 10, 36.62827682495117
0, 3, 11, 38.08882141113281
0, 3, 12, 44.45703887939453
0, 3, 13, 51.80872344970703
0, 3, 14, 58.52330017089844
0, 3, 15, 53.8033561706543
0, 3, 16, 69.74345397949219
0, 3, 17, 86.83318328857422
0, 3, 18, 243.2530975341797
0, 3, 19, 872.5355834960938
0, 3, 20, 1382.975463867188
0, 3, 21, 1503.055297851562
0, 3, 22, 1463.607788085938
0, 3, 23, 1447.000732421875
0, 3, 24, 1437.915161132812
0, 3, 25, 1461.70458984375
0, 3, 26, 1491.830200195312
0, 3, 27, 1466.814697265625
0, 3, 28, 1486.125244140625
0, 3, 29, 1544.087646484375
0, 3, 30, 1571.781372070312
0, 3, 31, 1510.943481445312
0, 3, 32, 1544.806274414062
0, 3, 33, 1542.087768554688
0, 3, 34, 1494.275512695312
0, 3, 35, 1465.280029296875
0, 3, 36, 1448.092163085938
0, 3, 37, 1516.80224609375
0, 3, 38, 1517.345947265625
0, 3, 39, 1438.237548828125
0, 3, 40, 1439.713745117188
0, 3, 41, 1564.894165039062
0, 3, 42, 1468.800659179688
0, 3, 43, 1459.872314453125
0, 3, 44, 1451.362182617188
0, 3, 45, 1511.890747070312
0, 3, 46, 1511.482543945312
0, 3, 47, 1440.032348632812
0, 3, 48, 1509.232055664062
0, 3, 49, 1451.170288085938
0, 3, 50, 1493.477661132812
0, 3, 51, 1534.287475585938
0, 3, 52, 1535.2861328125
0, 3, 53, 1461.77587890625
0, 3, 54, 1540.37548828125
0, 3, 55, 1505.593017578125
0, 3, 56, 1433.957275390625
0, 3, 57, 1503.22216796875
0, 3, 58, 1512.792724609375
0, 3, 59, 1510.804321289062
0, 3, 60, 1532.40087890625
0, 3, 61, 1481.011474609375
0, 3, 62, 1490.962646484375
0, 3, 63, 1492.23291015625
0, 3, 64, 1500.265380859375
0, 3, 65, 1511.572875976562
0, 3, 66, 1558.3251953125
0, 3, 67, 1553.092407226562
0, 3, 68, 1448.246459960938
0, 3, 69, 1461.736572265625
0, 3, 70, 1388.130981445312
0, 3, 71, 1465.106811523438
0, 3, 72, 1543.5634765625
0, 3, 73, 1503.419799804688
0, 3, 74, 1465.337890625
0, 3, 75, 1459.522583007812
0, 3, 76, 1569.929443359375
0, 3, 77, 1541.15478515625
0, 3, 78, 1433.74951171875
0, 3, 79, 1490.161254882812
0, 3, 80, 1463.69140625
0, 3, 81, 1468.886962890625
0, 3, 82, 1557.241943359375
0, 3, 83, 1516.750610351562
0, 3, 84, 1563.58251953125
0, 3, 85, 1479.234130859375
0, 3, 86, 1520.59716796875
0, 3, 87, 1537.071166992188
0, 3, 88, 1457.601928710938
0, 3, 89, 1451.631225585938
0, 3, 90, 1457.82470703125
0, 3, 91, 1417.031616210938
0, 3, 92, 1513.505859375
0, 3, 93, 1500.728759765625
0, 3, 94, 1512.66650390625
0, 3, 95, 1538.801025390625
0, 3, 96, 1511.63037109375
0, 3, 97, 1467.120361328125
0, 3, 98, 1437.375732421875
0, 3, 99, 1469.017333984375
0, 3, 100, 1466.38916015625
0, 3, 101, 1478.175415039062
0, 3, 102, 1521.02978515625
0, 3, 103, 1554.227172851562
0, 3, 104, 1500.271606445312
0, 3, 105, 1511.080688476562
0, 3, 106, 1482.534057617188
0, 3, 107, 1347.234130859375
0, 3, 108, 874.1712646484375
0, 3, 109, 263.6278076171875
0, 3, 110, 103.7182693481445
0, 3, 111, 65.49942779541016
0, 3, 112, 59.55141830444336
0, 3, 113, 49.44930648803711
0, 3, 114, 51.7224235534668
0, 3, 115, 49.68325805664062
0, 3, 116, 41.76152801513672
0, 3, 117, 41.75543975830078
0, 3, 118, 39.46841812133789
0, 3, 119, 32.85713577270508
0, 3, 120, 26.07811737060547
0, 3, 121, 18.03219604492188
0, 3, 122, 24.02082633972168
0, 3, 123, 22.48071479797363
0, 3, 124, 25.18748092651367
0, 3, 125, 27.78898811340332
0, 3, 126, 22.02005577087402
0, 3, 127, 15.80181312561035
0, 4, 0, 19.33754920959473
0, 4, 1, 24.22208976745605
0, 4, 2, 24.74130058288574
0, 4, 3, 21.63237571716309
0, 4, 4, 26.5245532989502
0, 4, 5, 29.05170440673828
0, 4, 6, 24.9749698638916
0, 4, 7, 29.37994194030762
0, 4, 8, 27.51889801025391
0, 4, 9, 30.67531776428223
0, 4, 10, 33.80401611328125
0, 4, 11, 38.22739410400391
0, 4, 12, 42.74142456054688
0, 4, 13, 53.3536491394043
0, 4, 14, 49.74987030029297
0, 4, 15, 62.57078552246094
0, 4, 16, 72.1341552734375
0, 4, 17, 113.0776062011719
0, 4, 18, 449.3107299804688
0, 4, 19, 1179.331176757812
0, 4, 20, 1446.822021484375
0, 4, 21, 1420.090209960938
0, 4, 22, 1432.5322265625
0, 4, 23, 1450.671142578125
0, 4, 24, 1480.148071289062
0, 4, 25, 1398.680297851562
0, 4, 26, 1539.6328125
0, 4, 27, 1543.889770507812
0, 4, 28, 1502.378051757812
0, 4, 29, 1515.102416992188
0, 4, 30, 1529.677001953125
0, 4, 31, 1575.998657226562
0, 4, 32, 1515.388549804688
0, 4, 33, 1493.206176757812
0, 4, 34, 1465.057006835938
0, 4, 35, 1559.469482421875
0, 4, 36, 1500.382934570312
0, 4, 37, 1515.166381835938
0, 4, 38, 1533.359252929688
0, 4, 39, 1469.314819335938
0, 4, 40, 1510.764038085938
0, 4, 41, 1587.304931640625
0, 4, 42, 1565.494018554688
0, 4, 43, 1473.115844726562
0, 4, 44, 1493.101318359375
0, 4, 45, 1519.624145507812
0, 4, 46, 1465.957885742188
0, 4, 47, 1506.881225585938
0, 4, 48, 1524.211303710938
0, 4, 49, 1473.222900390625
0, 4, 50, 1519.903564453125
0, 4, 51, 1497.17578125
0, 4, 52, 1493.77978515625
0, 4, 53, 1451.713745117188
0, 4, 54, 1447.95458984375
0, 4, 55, 1525.455688476562
0, 4, 56, 1456.592895507812
0, 4, 57, 1492.055053710938
0, 4, 58, 1464.759521484375
0, 4, 59, 1465.72802734375
0, 4, 60, 1523.502197265625
0, 4, 61, 1501.144287109375
0, 4, 62, 1513.1416015625
0, 4, 63, 1544.665405273438
0, 4, 64, 1592.341918945312
0, 4, 65, 1423.453857421875
0, 4, 66, 1515.290405273438
0, 4, 67, 1517.272827148438
0, 4, 68, 1494.918212890625
0, 4, 69, 1467.903930664062
0, 4, 70, 1545.90380859375
0, 4, 71, 1514.361450195312
0, 4, 72, 1531.97705078125
0, 4, 73, 1489.838500976562
0, 4, 74, 1488.086547851562
0, 4, 75, 1532.245727539062
0, 4, 76, 1482.731201171875
0, 4, 77, 1497.8173828125
0, 4, 78, 1504.193115234375
0, 4, 79, 1483.348266601562
0, 4, 80, 1513.918701171875
0, 4, 81, 1529.880615234375
0, 4, 82, 1569.769287109375
0, 4, 83, 1504.339721679688
0, 4, 84, 1531.681640625
0, 4, 85, 1551.499755859375
0, 4, 86, 1526.9697265625
0, 4, 87, 1495.922241210938
0, 4, 88, 1513.428344726562
0, 4, 89, 1481.890991210938
0, 4, 90, 1546.323120117188
0, 4, 91, 1553.845581054688
0, 4, 92, 1495.515380859375
0, 4, 93, 1522.668579101562
0, 4, 94, 1481.516357421875
0, 4, 95, 1507.186645507812
0, 4, 96, 1443.0341796875
0, 4, 97, 1405.1484375
0, 4, 98, 1555.263671875
0, 4, 99, 1506.830932617188
0, 4, 100, 1492.462158203125
0, 4, 101, 1446.074829101562
0, 4, 102, 1442.846557617188
0, 4, 103, 1514.06201171875
0, 4, 104, 1510.09033203125
0, 4, 105, 1554.606201171875
0, 4, 106, 1474.738403320312
0, 4, 107, 1455.098266601562
0, 4, 108, 1119.426147460938
0, 4, 109, 438.9928894042969
0, 4, 110, 95.15244293212891
0, 4, 111, 68.33808135986328
0, 4, 112, 57.01521301269531
0, 4, 113, 51.95477294921875
0, 4, 114, 49.12369155883789
0, 4, 115, 44.96103668212891
0, 4, 116, 36.41845703125
0, 4, 117, 38.41675567626953
0, 4, 118, 39.6376838684082
0, 4, 119, 37.87221908569336
0, 4, 120, 39.42411041259766
0, 4, 121, 27.60882377624512
0, 4, 122, 32.7575798034668
0, 4, 123, 31.06262969970703
0, 4, 124, 23.13316345214844
0, 4, 125, 37.64586639404297
0, 4, 126, 24.00762748718262
0, 4, 127, 20.34316635131836
0, 5, 0, 23.2377872467041
0, 5, 1, 26.63313293457031
0, 5, 2, 25.52909660339355
0, 5, 3, 25.00941467285156
0, 5, 4, 26.52504730224609
0, 5, 5, 37.09635543823242
0, 5, 6, 26.74125671386719
0, 5, 7, 35.40772247314453
0, 5, 8, 31.25711441040039
0, 5, 9, 30.69562530517578
0, 5, 10, 30.19172477722168
0, 5, 11, 39.36084365844727
0, 5, 12, 40.92080307006836
0, 5, 13, 44.07728958129883
0, 5, 14, 59.83506393432617
0, 5, 15, 81.66041564941406
0, 5, 16, 80.09459686279297
0, 5, 17, 157.2785034179688
0, 5, 18, 672.8690185546875
0, 5, 19, 1341.83935546875
0, 5, 20, 1526.639038085938
0, 5, 21, 1494.891723632812
0, 5, 22, 1501.400024414062
0, 5, 23, 1533.995727539062
0, 5, 24, 1465.599609375
0, 5, 25, 1429.196166992188
0, 5, 26, 1526.235717773438
0, 5, 27, 1536.82470703125
0, 5, 28, 1481.978637695312
0, 5, 29, 1521.823486328125
0, 5, 30, 1493.063720703125
0, 5, 31, 1496.873291015625
0, 5, 32, 1595.265258789062
0, 5, 33, 1500.83642578125
0, 5, 34, 1487.181396484375
0, 5, 35, 1514.59375
0, 5, 36, 1444.098754882812
0, 5, 37, 1532.491577148438
0, 5, 38, 1544.053100585938
0, 5, 39, 1547.585083007812
0, 5, 40, 1501.24609375
0, 5, 41, 1478.533203125
0, 5, 42, 1540.738403320312
0, 5, 43, 1530.22021484375
0, 5, 44, 1545.264038085938
0, 5, 45, 1506.591430664062
0, 5, 46, 1491.96533203125
0, 5, 47, 1480.36083984375
0, 5, 48, 1505.335083007812
0, 5, 49, 1523.162231445312
0, 5, 50, 1506.939086914062
0, 5, 51, 1517.314086914062
0, 5, 52, 1431.787109375
0, 5, 53, 1524.034057617188
0, 5, 54, 1521.565551757812
0, 5, 55, 1519.515625
0, 5, 56, 1487.16748046875
0, 5, 57, 1539.911499023438
0, 5, 58, 1509.337646484375
0, 5, 59, 1487.232421875
0, 5, 60, 1534.479736328125
0, 5, 61, 1449.571899414062
0, 5, 62, 1584.128540039062
0, 5, 63, 1427.961791992188
0, 5, 64, 1488.048217773438
0, 5, 65, 1469.044921875
0, 5, 66, 1525.614868164062
0, 5, 67, 1557.677612304688
0, 5, 68, 1458.62060546875
0, 5, 69, 1483.121337890625
0, 5, 70, 1484.352661132812
0, 5, 71, 1469.374633789062
0, 5, 72, 1537.350708007812
0, 5, 73, 1461.302001953125
0, 5, 74, 1492.132202148438
0, 5, 75, 1491.200073242188
0, 5, 76, 1477.126342773438
0, 5, 77, 1513.703979492188
0, 5, 78, 1527.6142578125
0, 5, 79, 1509.3759765625
0, 5, 80, 1520.820068359375
0, 5, 81, 1592.349243164062
0, 5, 82, 1523.642211914062
0, 5, 83, 1489.117797851562
0, 5, 84, 1531.731689453125
0, 5, 85, 1518.657104492188
0, 5, 86, 1555.361206054688
0, 5, 87, 1472.140991210938
0, 5, 88, 1503.83056640625
0, 5, 89, 1479.991088867188
0, 5, 90, 1480.307006835938
0, 5, 91, 1548.343017578125
0, 5, 92, 1484.792236328125
0, 5, 93, 1563.072021484375
0, 5, 94, 1507.573974609375
0, 5, 95, 1560.844482421875
0, 5, 96, 1497.072387695312
0, 5, 97, 1506.224975585938
0, 5, 98, 1510.040161132812
0, 5, 99, 1541.937866210938
0, 5, 100, 1435.181518554688
0, 5, 101, 1432.119140625
0, 5, 102, 1514.493530273438
0, 5, 103, 1475.393920898438
0, 5, 104, 1458.527954101562
0, 5, 105, 1492.834350585938
0, 5, 106, 1456.990356445312
0, 5, 107, 1402.117797851562
0, 5, 108, 1288.137329101562
0, 5, 109, 719.1593017578125
0, 5, 110, 188.9928894042969
0, 5, 111, 95.48390197753906
0, 5, 112, 77.25370025634766
0, 5, 113, 63.75015640258789
0, 5, 114, 60.87954330444336
0, 5, 115, 55.20165252685547
0, 5, 116, 39.85001373291016
0, 5, 117, 32.32734680175781
0, 5, 118, 43.07622146606445
0, 5, 119, 28.77441787719727
0, 5, 120, 27.08352661132812
0, 5, 121, 28.52366828918457
0, 5, 122, 29.44565963745117
0, 5, 123, 28.05849647521973
0, 5, 124, 27.69695854187012
0, 5, 125, 24.14828872680664
0, 5, 126, 18.44533920288086
0, 5, 127, 28.98085594177246
0, 6, 0, 17.61373901367188
0, 6, 1, 24.65424537658691
0, 6, 2, 26.944091796875
0, 6, 3, 25.79416275024414
0, 6, 4, 23.30175971984863
0, 6, 5, 35.45768737792969
0, 6, 6, 31.49270439147949
0, 6, 7, 32.05369186401367
0, 6, 8, 29.16404914855957
0, 6, 9, 35.63689422607422
0, 6, 10, 35.04713439941406
0, 6, 11, 41.40333557128906
0, 6, 12, 34.90785598754883
0, 6, 13, 53.07080078125
0, 6, 14, 61.9345588684082
0, 6, 15, 80.98785400390625
0, 6, 16, 111.0582427978516
0, 6, 17, 303.1908874511719
0, 6, 18, 898.575439453125
0, 6, 19, 1373.15185546875
0, 6, 20, 1444.228149414062
0, 6, 21, 1527.265747070312
0, 6, 22, 1501.932373046875
0, 6, 23, 1531.085815429688
0, 6, 24, 1483.067626953125
0, 6, 25, 1527.517211914062
0, 6, 26, 1516.42138671875
0, 6, 27, 1528.218994140625
0, 6, 28, 1551.818969726562
0, 6, 29, 1569.364990234375
0, 6, 30, 1515.572387695312
0, 6, 31, 1488.645874023438
0, 6, 32, 1524.845825195312
0, 6, 33, 1493.250366210938
0, 6, 34, 1557.121948242188
0, 6, 35, 1498.832153320312
0, 6, 36, 1445.201049804688
0, 6, 37, 1546.103759765625
0, 6, 38, 1525.64208984375
0, 6, 39, 1522.57470703125
0, 6, 40, 1457.677612304688
0, 6, 41, 1443.18603515625
0, 6, 42, 1514.086303710938
0, 6, 43, 1489.119140625
0, 6, 44, 1431.31103515625
0, 6, 45, 1545.5546875
0, 6, 46, 1553.159545898438
0, 6, 47, 1496.11669921875
0, 6, 48, 1520.714233398438
0, 6, 49, 1511.363891601562
0, 6, 50, 1569.96875
0, 6, 51, 1499.88427734375
0, 6, 52, 1563.586669921875
0, 6, 53, 1479.440063476562
0, 6, 54, 1499.116821289062
0, 6, 55, 1574.029907226562
0, 6, 56, 1523.240600585938
0, 6, 57, 1510.3427734375
0, 6, 58, 1466.970825195312
0, 6, 59, 1520.595703125
0, 6, 60, 1469.7685546875
0, 6, 61, 1569.436401367188
0, 6, 62, 1545.053833007812
0, 6, 63, 1494.708618164062
0, 6, 64, 1415.635986328125
0, 6, 65, 1490.206420898438
0, 6, 66, 1506.743286132812
0, 6, 67, 1509.331176757812
0, 6, 68, 1549.39013671875
0, 6, 69, 1482.698486328125
0, 6, 70, 1522.990844726562
0, 6, 71, 1470.322875976562
0, 6, 72, 1593.696533203125
0, 6, 73, 1487.641357421875
0, 6, 74, 1552.630126953125
0, 6, 75, 1537.847534179688
0, 6, 76, 1567.505249023438
0, 6, 77, 1507.726806640625
0, 6, 78, 1443.184814453125
0, 6, 79, 1558.083862304688
0, 6, 80, 1483.73388671875
0, 6, 81, 1482.96875
0, 6, 82, 1501.251098632812
0, 6, 83, 1526.092529296875
0, 6, 84, 1518.293334960938
0, 6, 85, 1534.2841796875
0, 6, 86, 1541.786376953125
0, 6, 87, 1571.505859375
0, 6, 88, 1478.405151367188
0, 6, 89, 1563.512939453125
0, 6, 90, 1491.956909179688
0, 6, 91, 1541.466430664062
0, 6, 92, 1489.353149414062
0, 6, 93, 1501.485229492188
0, 6, 94, 1466.816162109375
0, 6, 95, 1509.168334960938
0, 6, 96, 1521.015625
0, 6, 97, 1506.610595703125
0, 6, 98, 1495.87841796875
0, 6, 99, 1478.801391601562
0, 6, 100, 1521.433349609375
0, 6, 101, 1515.008178710938
0, 6, 102, 1539.2294921875
0, 6, 103, 1497.457275390625
0, 6, 104, 1471.965454101562
0, 6, 105, 1485.489379882812
0, 6, 106, 1499.72802734375
0, 6, 107, 1504.372192382812
0, 6, 108, 1407.537475585938
0, 6, 109, 925.554443359375
0, 6, 110, 283.2963562011719
0, 6, 111, 93.91463470458984
0, 6, 112, 76.51708221435547
0, 6, 113, 61.31489562988281
0, 6, 114, 55.21718978881836
0, 6, 115, 42.02023696899414
0, 6, 116, 40.22108459472656
0, 6, 117, 38.30538177490234
0, 6, 118, 43.55886077880859
0, 6, 119, 34.20271301269531
0, 6, 120, 34.13591766357422
0, 6, 121, 30.18992233276367
0, 6, 122, 25.1629467010498
0, 6, 123, 25.62623023986816
0, 6, 124, 27.80464363098145
0, 6, 125, 29.99525260925293
0, 6, 126, 21.51947975158691
0, 6, 127, 25.26067543029785
0, 7, 0, 23.57049369812012
0, 7, 1, 27.0600757598877
0, 7, 2, 23.67206573486328
0, 7, 3, 25.16509628295898
0, 7, 4, 22.03908538818359
0, 7, 5, 34.70912170410156
0, 7, 6, 30.45141410827637
0, 7, 7, 36.55792617797852
0, 7, 8, 28.64267349243164
0, 7, 9, 37.03030395507812
0, 7, 10, 43.33672332763672
0, 7, 11, 46.92071151733398
0, 7, 12, 49.22970962524414
0, 7, 13, 47.71706390380859
0, 7, 14, 60.59624862670898
0, 7, 15, 80.67646026611328
0, 7, 16, 129.9781494140625
0, 7, 17, 460.1671752929688
0, 7, 18, 1101.074340820312
0, 7, 19, 1500.694580078125
0, 7, 20, 1483.220947265625
0, 7, 21, 1367.810913085938
0, 7, 22, 1486.991577148438
0, 7, 23, 1455.587890625
0, 7, 24, 1510.496337890625
0, 7, 25, 1595.84326171875
0, 7, 26, 1517.943969726562
0, 7, 27, 1509.438232421875
0, 7, 28, 1546.041870117188
0, 7, 29, 1572.652587890625
0, 7, 30, 1551.428344726562
0, 7, 31, 1438.131103515625
0, 7, 32, 1540.326782226562
0, 7, 33, 1488.29541015625
0, 7, 34, 1480.516845703125
0, 7, 35, 1525.458251953125
0, 7, 36, 1474.667114257812
0, 7, 37, 1598.203002929688
0, 7, 38, 1505.799682617188
0, 7, 39, 1489.76025390625
0, 7, 40, 1541.935546875
0, 7, 41, 1472.320678710938
0, 7, 42, 1485.119995117188
0, 7, 43, 1448.255249023438
0, 7, 44, 1486.854370117188
0, 7, 45, 1467.40673828125
0, 7, 46, 1511.028930664062
0, 7, 47, 1569.618896484375
0, 7, 48, 1521.591796875
0, 7, 49, 1541.460205078125
0, 7, 50, 1517.504272460938
0, 7, 51, 1499.712768554688
0, 7, 52, 1516.415649414062
0, 7, 53, 1492.477294921875
0, 7, 54, 1588.747314453125
0, 7, 55, 1474.720947265625
0, 7, 56, 1551.08349609375
0, 7, 57, 1516.097778320312
0, 7, 58, 1550.578857421875
0, 7, 59, 1538.301025390625
0, 7, 60, 1547.990844726562
0, 7, 61, 1490.647216796875
0, 7, 62, 1438.483520507812
0, 7, 63, 1520.810668945312
0, 7, 64, 1545.223388671875
0, 7, 65, 1525.191528320312
0, 7, 66, 1539.021362304688
0, 7, 67, 1581.197265625
0, 7, 68, 1532.041870117188
0, 7, 69, 1516.124877929688
0, 7, 70, 1497.992553710938
0, 7, 71, 1523.121704101562
0, 7, 72, 1520.937744140625
0, 7, 73, 1521.202392578125
0, 7, 74, 1573.845092773438
0, 7, 75, 1534.729370117188
0, 7, 76, 1558.915405273438
0, 7, 77, 1513.365478515625
0, 7, 78, 1506.09765625
0, 7, 79, 1422.69140625
0, 7, 80, 1485.531372070312
0, 7, 81, 1495.141357421875
0, 7, 82, 1536.023071289062
0, 7, 83, 1543.35888671875
0, 7, 84, 1585.966796875
0, 7, 85, 1480.762451171875
0, 7, 86, 1508.077270507812
0, 7, 87, 1508.531372070312
0, 7, 88, 1504.111206054688
0, 7, 89, 1555.23046875
0, 7, 90, 1523.6591796875
0, 7, 91, 1563.759033203125
0, 7, 92, 1526.622436523438
0, 7, 93, 1552.81103515625
0, 7, 94, 1541.179809570312
0, 7, 95, 1502.964233398438
0, 7, 96, 1504.022094726562
0, 7, 97, 1433.117431640625
0, 7, 98, 1482.791259765625
0, 7, 99, 1525.05908203125
0, 7, 100, 1421.12353515625
0, 7, 101, 1468.7744140625
0, 7, 102, 1449.563110351562
0, 7, 103, 1432.67041015625
0, 7, 104, 1491.942504882812
0, 7, 105, 1522.595825195312
0, 7, 106, 1566.014404296875
0, 7, 107, 1481.234741210938
0, 7, 108, 1407.404907226562
0, 7, 109, 1150.533081054688
0, 7, 110, 468.9853820800781
0, 7, 111, 126.6769332885742
0, 7, 112, 80.67913818359375
0, 7, 113, 72.02234649658203
0, 7, 114, 55.41726303100586
0, 7, 115, 53.63310623168945
0, 7, 116, 48.68666839599609
0, 7, 117, 44.82074737548828
0, 7, 118, 39.13983535766602
0, 7, 119, 32.93081283569336
0, 7, 120, 24.18208122253418
0, 7, 121, 28.52422332763672
0, 7, 122, 35.30359268188477
0, 7, 123, 34.91025924682617
0, 7, 124, 33.62607192993164
0, 7, 125, 24.49577713012695
0, 7, 126, 27.00754547119141
0, 7, 127, 24.2596263885498
0, 8, 0, 23.73116683959961
0, 8, 1, 21.4508171081543
0, 8, 2, 26.78600883483887
0, 8, 3, 28.42831420898438
0, 8, 4, 25.02229309082031
0, 8, 5, 34.59748077392578
0, 8, 6, 35.18711853027344
0, 8, 7, 28.08827781677246
0, 8, 8, 39.18352508544922
0, 8, 9, 48.29946899414062
0, 8, 10, 46.19433212280273
0, 8, 11, 47.42787933349609
0, 8, 12, 59.19000244140625
0, 8, 13, 70.12623596191406
0, 8, 14, 68.77522277832031
0, 8, 15, 84.30168151855469
0, 8, 16, 169.3741302490234
0, 8, 17, 674.1974487304688
0, 8, 18, 1278.419799804688
0, 8, 19, 1448.462158203125
0, 8, 20, 1421.98828125
0, 8, 21, 1406.09375
0, 8, 22, 1490.636474609375
0, 8, 23, 1477.750366210938
0, 8, 24, 1433.760009765625
0, 8, 25, 1451.927978515625
0, 8, 26, 1512.483032226562
0, 8, 27, 1525.95947265625
0, 8, 28, 1477.3291015625
0, 8, 29, 1505.531982421875
0, 8, 30, 1492.39697265625
0, 8, 31, 1535.1484375
0, 8, 32, 1507.98583984375
0, 8, 33, 1480.285888671875
0, 8, 34, 1532.511596679688
0, 8, 35, 1443.628173828125
0, 8, 36, 1499.331909179688
0, 8, 37, 1552.835693359375
0, 8, 38, 1552.232421875
0, 8, 39, 1494.124145507812
0, 8, 40, 1533.142578125
0, 8, 41, 1483.505981445312
0, 8, 42, 1542.31103515625
0, 8, 43, 1433.93017578125
0, 8, 44, 1536.63818359375
0, 8, 45, 1512.213989257812
0, 8, 46, 1599.686889648438
0, 8, 47, 1583.251098632812
