# TOPAS Version: 3.1.p3
# Parameter File: batch_inserts_300.txt
# Results for scorer Readout_Adipose
# Scored in component: MyBox
# X in 1 bin  of 0.75 cm
# Y in 512 bins of 0.0783984 cm
# Z in 128 bins of 0.078125 cm
# EnergyDeposit ( MeV ) : Sum   
0, 0, 0, 3.257184267044067
0, 0, 1, 1.070634722709656
0, 0, 2, 4.458430767059326
0, 0, 3, 1.966333627700806
0, 0, 4, 3.735550165176392
0, 0, 5, 2.182689905166626
0, 0, 6, 6.964658737182617
0, 0, 7, 8.066596984863281
0, 0, 8, 4.003320693969727
0, 0, 9, 4.20637845993042
0, 0, 10, 6.457539558410645
0, 0, 11, 3.586279392242432
0, 0, 12, 3.871407508850098
0, 0, 13, 7.487188339233398
0, 0, 14, 6.939469337463379
0, 0, 15, 8.30650806427002
0, 0, 16, 7.803005695343018
0, 0, 17, 9.578921318054199
0, 0, 18, 14.24472045898438
0, 0, 19, 44.05137634277344
0, 0, 20, 141.5235290527344
0, 0, 21, 223.3934173583984
0, 0, 22, 249.6910400390625
0, 0, 23, 256.4426574707031
0, 0, 24, 250.7737121582031
0, 0, 25, 259.837158203125
0, 0, 26, 234.3019714355469
0, 0, 27, 236.2477264404297
0, 0, 28, 274.9308471679688
0, 0, 29, 254.5562896728516
0, 0, 30, 229.8762512207031
0, 0, 31, 243.3813323974609
0, 0, 32, 263.9995727539062
0, 0, 33, 260.0664978027344
0, 0, 34, 289.3862609863281
0, 0, 35, 266.0204162597656
0, 0, 36, 246.0158233642578
0, 0, 37, 253.9322967529297
0, 0, 38, 269.9402465820312
0, 0, 39, 229.6342468261719
0, 0, 40, 241.8074798583984
0, 0, 41, 268.83984375
0, 0, 42, 228.4060516357422
0, 0, 43, 258.9553527832031
0, 0, 44, 252.2177429199219
0, 0, 45, 252.8430328369141
0, 0, 46, 245.2022705078125
0, 0, 47, 252.5491943359375
0, 0, 48, 267.8146362304688
0, 0, 49, 272.1650085449219
0, 0, 50, 253.3669128417969
0, 0, 51, 253.8963623046875
0, 0, 52, 273.2896118164062
0, 0, 53, 289.8047485351562
0, 0, 54, 242.0305633544922
0, 0, 55, 240.1777954101562
0, 0, 56, 279.8729553222656
0, 0, 57, 263.0461120605469
0, 0, 58, 247.2434844970703
0, 0, 59, 270.64892578125
0, 0, 60, 234.8941345214844
0, 0, 61, 245.6005706787109
0, 0, 62, 257.0584716796875
0, 0, 63, 265.8104858398438
0, 0, 64, 255.6823272705078
0, 0, 65, 261.93115234375
0, 0, 66, 276.3865051269531
0, 0, 67, 247.0233612060547
0, 0, 68, 257.8663635253906
0, 0, 69, 262.1575622558594
0, 0, 70, 274.5745239257812
0, 0, 71, 238.3278198242188
0, 0, 72, 251.4952239990234
0, 0, 73, 258.9627075195312
0, 0, 74, 251.6159057617188
0, 0, 75, 244.0735321044922
0, 0, 76, 228.9880523681641
0, 0, 77, 261.857177734375
0, 0, 78, 255.8942108154297
0, 0, 79, 278.2432250976562
0, 0, 80, 216.6345672607422
0, 0, 81, 266.0856018066406
0, 0, 82, 256.1671447753906
0, 0, 83, 244.3779602050781
0, 0, 84, 269.8494262695312
0, 0, 85, 232.4286346435547
0, 0, 86, 252.8036041259766
0, 0, 87, 250.3869323730469
0, 0, 88, 260.059326171875
0, 0, 89, 283.7212524414062
0, 0, 90, 243.2584075927734
0, 0, 91, 280.7070617675781
0, 0, 92, 253.4253540039062
0, 0, 93, 249.0467224121094
0, 0, 94, 246.4107971191406
0, 0, 95, 247.4014892578125
0, 0, 96, 276.8915710449219
0, 0, 97, 273.0237426757812
0, 0, 98, 273.8655700683594
0, 0, 99, 257.1991271972656
0, 0, 100, 258.9601440429688
0, 0, 101, 226.5508575439453
0, 0, 102, 233.1613922119141
0, 0, 103, 268.753662109375
0, 0, 104, 253.9599151611328
0, 0, 105, 251.9707946777344
0, 0, 106, 245.9256286621094
0, 0, 107, 152.113525390625
0, 0, 108, 38.11509704589844
0, 0, 109, 12.08748912811279
0, 0, 110, 13.92421627044678
0, 0, 111, 9.46795654296875
0, 0, 112, 6.325187683105469
0, 0, 113, 5.159029006958008
0, 0, 114, 6.131903171539307
0, 0, 115, 4.456715106964111
0, 0, 116, 5.532593727111816
0, 0, 117, 5.718463897705078
0, 0, 118, 6.936779499053955
0, 0, 119, 3.230144500732422
0, 0, 120, 4.38743782043457
0, 0, 121, 4.862549781799316
0, 0, 122, 6.152794361114502
0, 0, 123, 3.836939334869385
0, 0, 124, 5.778877735137939
0, 0, 125, 3.887299537658691
0, 0, 126, 3.969873905181885
0, 0, 127, 2.924885749816895
0, 1, 0, 6.837521553039551
0, 1, 1, 3.002223014831543
0, 1, 2, 4.543327808380127
0, 1, 3, 1.354024887084961
0, 1, 4, 4.361879825592041
0, 1, 5, 4.25517463684082
0, 1, 6, 3.583461999893188
0, 1, 7, 3.176980018615723
0, 1, 8, 5.997325897216797
0, 1, 9, 3.749646902084351
0, 1, 10, 8.534580230712891
0, 1, 11, 11.85178852081299
0, 1, 12, 8.512591361999512
0, 1, 13, 9.144148826599121
0, 1, 14, 7.987212657928467
0, 1, 15, 7.334627628326416
0, 1, 16, 13.90058708190918
0, 1, 17, 11.00194358825684
0, 1, 18, 20.15610313415527
0, 1, 19, 67.25444793701172
0, 1, 20, 198.3218994140625
0, 1, 21, 254.7555847167969
0, 1, 22, 295.7593688964844
0, 1, 23, 285.2695007324219
0, 1, 24, 276.5385437011719
0, 1, 25, 291.0518493652344
0, 1, 26, 267.6104431152344
0, 1, 27, 305.7243957519531
0, 1, 28, 299.6495361328125
0, 1, 29, 295.9395446777344
0, 1, 30, 280.119384765625
0, 1, 31, 294.753662109375
0, 1, 32, 289.3983459472656
0, 1, 33, 295.4122314453125
0, 1, 34, 291.4920959472656
0, 1, 35, 279.7744140625
0, 1, 36, 307.7662048339844
0, 1, 37, 296.4885559082031
0, 1, 38, 279.1647033691406
0, 1, 39, 296.2160949707031
0, 1, 40, 266.0843811035156
0, 1, 41, 285.8475952148438
0, 1, 42, 292.1076049804688
0, 1, 43, 331.5826110839844
0, 1, 44, 278.7817077636719
0, 1, 45, 292.2106018066406
0, 1, 46, 260.0927734375
0, 1, 47, 309.7905883789062
0, 1, 48, 283.9303894042969
0, 1, 49, 300.0985717773438
0, 1, 50, 261.055419921875
0, 1, 51, 271.7975769042969
0, 1, 52, 297.8895263671875
0, 1, 53, 305.2852783203125
0, 1, 54, 274.485595703125
0, 1, 55, 292.7688903808594
0, 1, 56, 276.6377868652344
0, 1, 57, 296.6194458007812
0, 1, 58, 310.8891296386719
0, 1, 59, 292.976806640625
0, 1, 60, 297.2878723144531
0, 1, 61, 273.7382202148438
0, 1, 62, 308.5854187011719
0, 1, 63, 289.5247802734375
0, 1, 64, 288.0491638183594
0, 1, 65, 294.2678527832031
0, 1, 66, 293.0111083984375
0, 1, 67, 292.2146911621094
0, 1, 68, 277.0427551269531
0, 1, 69, 282.7529907226562
0, 1, 70, 271.0206604003906
0, 1, 71, 273.83984375
0, 1, 72, 288.3593139648438
0, 1, 73, 304.191650390625
0, 1, 74, 303.3369140625
0, 1, 75, 290.7098388671875
0, 1, 76, 285.6498107910156
0, 1, 77, 289.2068786621094
0, 1, 78, 295.9841003417969
0, 1, 79, 304.1304626464844
0, 1, 80, 294.7748718261719
0, 1, 81, 300.7121887207031
0, 1, 82, 283.3573608398438
0, 1, 83, 331.9219665527344
0, 1, 84, 308.3758850097656
0, 1, 85, 251.5709838867188
0, 1, 86, 296.9539184570312
0, 1, 87, 291.2069091796875
0, 1, 88, 298.1434020996094
0, 1, 89, 292.1630249023438
0, 1, 90, 269.9694519042969
0, 1, 91, 317.6622314453125
0, 1, 92, 289.3154602050781
0, 1, 93, 285.8800048828125
0, 1, 94, 304.6468811035156
0, 1, 95, 283.0985107421875
0, 1, 96, 282.9126281738281
0, 1, 97, 301.5717163085938
0, 1, 98, 280.0753479003906
0, 1, 99, 265.4793090820312
0, 1, 100, 276.882568359375
0, 1, 101, 282.6041870117188
0, 1, 102, 279.4864807128906
0, 1, 103, 282.0735778808594
0, 1, 104, 307.0396728515625
0, 1, 105, 298.4978637695312
0, 1, 106, 262.60400390625
0, 1, 107, 195.6797637939453
0, 1, 108, 80.85329437255859
0, 1, 109, 22.86564254760742
0, 1, 110, 10.87515258789062
0, 1, 111, 13.29160022735596
0, 1, 112, 13.58082008361816
0, 1, 113, 6.544331550598145
0, 1, 114, 5.554527759552002
0, 1, 115, 5.726338863372803
0, 1, 116, 11.12649917602539
0, 1, 117, 6.3106689453125
0, 1, 118, 4.773528575897217
0, 1, 119, 5.367805004119873
0, 1, 120, 3.935307502746582
0, 1, 121, 4.397098541259766
0, 1, 122, 3.532053232192993
0, 1, 123, 4.336791515350342
0, 1, 124, 6.494389057159424
0, 1, 125, 3.481655120849609
0, 1, 126, 1.956623792648315
0, 1, 127, 1.791985869407654
0, 2, 0, 5.471742153167725
0, 2, 1, 1.643755793571472
0, 2, 2, 5.527937889099121
0, 2, 3, 3.889755010604858
0, 2, 4, 3.457330226898193
0, 2, 5, 1.383392214775085
0, 2, 6, 2.796318769454956
0, 2, 7, 4.978849411010742
0, 2, 8, 5.166455745697021
0, 2, 9, 5.522875308990479
0, 2, 10, 8.587762832641602
0, 2, 11, 7.818187236785889
0, 2, 12, 7.787201404571533
0, 2, 13, 9.842792510986328
0, 2, 14, 9.660841941833496
0, 2, 15, 6.826222896575928
0, 2, 16, 10.20974540710449
0, 2, 17, 17.22774124145508
0, 2, 18, 29.56047248840332
0, 2, 19, 116.2940292358398
0, 2, 20, 246.9059906005859
0, 2, 21, 271.4251403808594
0, 2, 22, 315.7646179199219
0, 2, 23, 300.7339172363281
0, 2, 24, 285.5780639648438
0, 2, 25, 303.7107543945312
0, 2, 26, 292.1263427734375
0, 2, 27, 275.6742553710938
0, 2, 28, 274.4463806152344
0, 2, 29, 273.2484436035156
0, 2, 30, 289.6953430175781
0, 2, 31, 276.4953002929688
0, 2, 32, 294.3017578125
0, 2, 33, 283.3796691894531
0, 2, 34, 333.2630615234375
0, 2, 35, 291.4606323242188
0, 2, 36, 304.5195617675781
0, 2, 37, 315.3204345703125
0, 2, 38, 312.689697265625
0, 2, 39, 267.5289001464844
0, 2, 40, 305.5191345214844
0, 2, 41, 293.9656982421875
0, 2, 42, 301.8122253417969
0, 2, 43, 313.2431945800781
0, 2, 44, 313.5690612792969
0, 2, 45, 325.2499694824219
0, 2, 46, 287.9869079589844
0, 2, 47, 303.1357421875
0, 2, 48, 283.5028991699219
0, 2, 49, 280.1913452148438
0, 2, 50, 293.3468322753906
0, 2, 51, 287.8017272949219
0, 2, 52, 271.2127380371094
0, 2, 53, 286.256103515625
0, 2, 54, 279.4029846191406
0, 2, 55, 274.373291015625
0, 2, 56, 302.8425598144531
0, 2, 57, 292.5561828613281
0, 2, 58, 301.6961975097656
0, 2, 59, 287.538818359375
0, 2, 60, 319.0699157714844
0, 2, 61, 301.2860107421875
0, 2, 62, 313.756591796875
0, 2, 63, 302.6089782714844
0, 2, 64, 294.8691711425781
0, 2, 65, 315.3099060058594
0, 2, 66, 279.8133850097656
0, 2, 67, 291.2282104492188
0, 2, 68, 296.0763549804688
0, 2, 69, 310.8294067382812
0, 2, 70, 334.9884643554688
0, 2, 71, 282.9483337402344
0, 2, 72, 302.9502563476562
0, 2, 73, 311.8622741699219
0, 2, 74, 287.1767578125
0, 2, 75, 304.4369812011719
0, 2, 76, 286.8236694335938
0, 2, 77, 300.4530029296875
0, 2, 78, 313.536865234375
0, 2, 79, 309.236328125
0, 2, 80, 299.2510070800781
0, 2, 81, 282.6908264160156
0, 2, 82, 317.8240356445312
0, 2, 83, 314.2147521972656
0, 2, 84, 287.9560852050781
0, 2, 85, 281.854736328125
0, 2, 86, 323.48486328125
0, 2, 87, 286.7858581542969
0, 2, 88, 280.9039306640625
0, 2, 89, 297.7636108398438
0, 2, 90, 296.7984008789062
0, 2, 91, 275.8736267089844
0, 2, 92, 306.4795227050781
0, 2, 93, 317.6454162597656
0, 2, 94, 290.659423828125
0, 2, 95, 315.0571594238281
0, 2, 96, 314.6246032714844
0, 2, 97, 293.2835388183594
0, 2, 98, 292.8487548828125
0, 2, 99, 275.2964172363281
0, 2, 100, 305.7010803222656
0, 2, 101, 301.2572937011719
0, 2, 102, 296.099853515625
0, 2, 103, 293.2093200683594
0, 2, 104, 294.2242126464844
0, 2, 105, 275.1280517578125
0, 2, 106, 295.1894226074219
0, 2, 107, 270.6881408691406
0, 2, 108, 117.4656143188477
0, 2, 109, 32.34257507324219
0, 2, 110, 9.24799919128418
0, 2, 111, 12.82710361480713
0, 2, 112, 6.230322360992432
0, 2, 113, 10.01724243164062
0, 2, 114, 10.17624950408936
0, 2, 115, 10.35186100006104
0, 2, 116, 11.30657577514648
0, 2, 117, 5.933855056762695
0, 2, 118, 3.562047004699707
0, 2, 119, 6.423962593078613
0, 2, 120, 5.895593166351318
0, 2, 121, 2.675589084625244
0, 2, 122, 5.61027193069458
0, 2, 123, 4.601852416992188
0, 2, 124, 4.56410026550293
0, 2, 125, 4.654323577880859
0, 2, 126, 4.15162467956543
0, 2, 127, 4.770926952362061
0, 3, 0, 4.45394229888916
0, 3, 1, 2.458172798156738
0, 3, 2, 3.0568687915802
0, 3, 3, 2.415687322616577
0, 3, 4, 4.577659130096436
0, 3, 5, 9.111598968505859
0, 3, 6, 6.115013122558594
0, 3, 7, 4.142418384552002
0, 3, 8, 5.750511169433594
0, 3, 9, 5.484092235565186
0, 3, 10, 6.189972877502441
0, 3, 11, 2.830105066299438
0, 3, 12, 6.968808174133301
0, 3, 13, 15.66631984710693
0, 3, 14, 10.24217510223389
0, 3, 15, 14.83285808563232
0, 3, 16, 10.05572032928467
0, 3, 17, 19.0434741973877
0, 3, 18, 51.41941070556641
0, 3, 19, 177.5629577636719
0, 3, 20, 269.0209655761719
0, 3, 21, 272.5466003417969
0, 3, 22, 281.3916931152344
0, 3, 23, 285.3514099121094
0, 3, 24, 285.8854064941406
0, 3, 25, 272.3141784667969
0, 3, 26, 304.1737670898438
0, 3, 27, 291.7726745605469
0, 3, 28, 282.3569946289062
0, 3, 29, 337.1498107910156
0, 3, 30, 317.1838073730469
0, 3, 31, 286.5726013183594
0, 3, 32, 306.2150268554688
0, 3, 33, 313.8325500488281
0, 3, 34, 320.1818542480469
0, 3, 35, 306.6017456054688
0, 3, 36, 269.7940368652344
0, 3, 37, 316.3330078125
0, 3, 38, 304.1117248535156
0, 3, 39, 287.2294311523438
0, 3, 40, 266.1886291503906
0, 3, 41, 300.7643737792969
0, 3, 42, 284.9814758300781
0, 3, 43, 307.2244567871094
0, 3, 44, 309.7146301269531
0, 3, 45, 290.1283264160156
0, 3, 46, 329.6767883300781
0, 3, 47, 299.1625061035156
0, 3, 48, 302.2458190917969
0, 3, 49, 275.8554382324219
0, 3, 50, 291.7049865722656
0, 3, 51, 274.1657104492188
0, 3, 52, 315.2927856445312
0, 3, 53, 289.4281616210938
0, 3, 54, 283.6084594726562
0, 3, 55, 283.6229248046875
0, 3, 56, 297.5386657714844
0, 3, 57, 287.083251953125
0, 3, 58, 305.9000244140625
0, 3, 59, 295.7115173339844
0, 3, 60, 302.2662963867188
0, 3, 61, 266.7944641113281
0, 3, 62, 284.0030822753906
0, 3, 63, 306.7412414550781
0, 3, 64, 317.1091918945312
0, 3, 65, 304.7106628417969
0, 3, 66, 314.3931884765625
0, 3, 67, 320.0652465820312
0, 3, 68, 280.9697875976562
0, 3, 69, 287.2884826660156
0, 3, 70, 288.6965026855469
0, 3, 71, 299.3756103515625
0, 3, 72, 268.4223327636719
0, 3, 73, 310.4654846191406
0, 3, 74, 292.2583923339844
0, 3, 75, 289.2155456542969
0, 3, 76, 304.7342224121094
0, 3, 77, 313.9439086914062
0, 3, 78, 302.7809143066406
0, 3, 79, 283.3096008300781
0, 3, 80, 291.11669921875
0, 3, 81, 309.7230834960938
0, 3, 82, 314.5693054199219
0, 3, 83, 300.2623901367188
0, 3, 84, 311.1611633300781
0, 3, 85, 293.1124572753906
0, 3, 86, 303.2682800292969
0, 3, 87, 298.9250183105469
0, 3, 88, 297.5973815917969
0, 3, 89, 296.8575134277344
0, 3, 90, 279.232177734375
0, 3, 91, 283.1388549804688
0, 3, 92, 302.666015625
0, 3, 93, 312.3497619628906
0, 3, 94, 299.5147399902344
0, 3, 95, 334.7684936523438
0, 3, 96, 290.0719909667969
0, 3, 97, 284.5468139648438
0, 3, 98, 278.3166198730469
0, 3, 99, 263.3939514160156
0, 3, 100, 286.4008483886719
0, 3, 101, 297.3257141113281
0, 3, 102, 275.4199523925781
0, 3, 103, 319.6973266601562
0, 3, 104, 307.7462158203125
0, 3, 105, 287.6103515625
0, 3, 106, 303.230712890625
0, 3, 107, 281.0789794921875
0, 3, 108, 169.886962890625
0, 3, 109, 59.39801025390625
0, 3, 110, 21.51908874511719
0, 3, 111, 13.6961612701416
0, 3, 112, 14.1768741607666
0, 3, 113, 7.00480842590332
0, 3, 114, 9.399502754211426
0, 3, 115, 8.718290328979492
0, 3, 116, 6.51745080947876
0, 3, 117, 6.958231925964355
0, 3, 118, 7.419591903686523
0, 3, 119, 7.154547214508057
0, 3, 120, 4.478377819061279
0, 3, 121, 3.172059535980225
0, 3, 122, 4.227180004119873
0, 3, 123, 5.417202949523926
0, 3, 124, 4.701331615447998
0, 3, 125, 7.8732590675354
0, 3, 126, 4.477861881256104
0, 3, 127, 2.644140958786011
0, 4, 0, 4.206108570098877
0, 4, 1, 5.886597156524658
0, 4, 2, 3.417572498321533
0, 4, 3, 3.356512069702148
0, 4, 4, 8.352285385131836
0, 4, 5, 8.236081123352051
0, 4, 6, 5.99701976776123
0, 4, 7, 4.942140102386475
0, 4, 8, 4.193627834320068
0, 4, 9, 4.817553043365479
0, 4, 10, 6.302301406860352
0, 4, 11, 5.916947364807129
0, 4, 12, 6.401805877685547
0, 4, 13, 11.0686616897583
0, 4, 14, 10.0593376159668
0, 4, 15, 8.412760734558105
0, 4, 16, 14.87529563903809
0, 4, 17, 17.00665664672852
0, 4, 18, 93.07634735107422
0, 4, 19, 224.0267944335938
0, 4, 20, 285.4675598144531
0, 4, 21, 273.5052185058594
0, 4, 22, 304.2833251953125
0, 4, 23, 268.6352844238281
0, 4, 24, 288.9263916015625
0, 4, 25, 273.7951354980469
0, 4, 26, 297.0413818359375
0, 4, 27, 283.353271484375
0, 4, 28, 307.8687744140625
0, 4, 29, 322.5745544433594
0, 4, 30, 309.2365417480469
0, 4, 31, 304.3598937988281
0, 4, 32, 280.275390625
0, 4, 33, 295.6050415039062
0, 4, 34, 296.5946655273438
0, 4, 35, 312.9749145507812
0, 4, 36, 291.9398193359375
0, 4, 37, 288.1454467773438
0, 4, 38, 298.5420227050781
0, 4, 39, 295.1592407226562
0, 4, 40, 301.3230285644531
0, 4, 41, 311.5923156738281
0, 4, 42, 329.5194396972656
0, 4, 43, 294.45556640625
0, 4, 44, 320.62939453125
0, 4, 45, 327.7663269042969
0, 4, 46, 307.3706970214844
0, 4, 47, 293.4037475585938
0, 4, 48, 295.8614196777344
0, 4, 49, 278.738525390625
0, 4, 50, 297.2998962402344
0, 4, 51, 317.5625915527344
0, 4, 52, 328.9797058105469
0, 4, 53, 303.934814453125
0, 4, 54, 285.9292907714844
0, 4, 55, 317.4302062988281
0, 4, 56, 285.9515380859375
0, 4, 57, 310.4013366699219
0, 4, 58, 296.7188110351562
0, 4, 59, 309.1199340820312
0, 4, 60, 301.4010009765625
0, 4, 61, 316.0296630859375
0, 4, 62, 308.8450622558594
0, 4, 63, 298.1888427734375
0, 4, 64, 329.7772827148438
0, 4, 65, 316.1004028320312
0, 4, 66, 296.7177429199219
0, 4, 67, 288.2760009765625
0, 4, 68, 313.7938232421875
0, 4, 69, 276.0257873535156
0, 4, 70, 299.4596862792969
0, 4, 71, 321.0633239746094
0, 4, 72, 333.4312133789062
0, 4, 73, 298.0171813964844
0, 4, 74, 292.8982849121094
0, 4, 75, 290.302490234375
0, 4, 76, 275.4572143554688
0, 4, 77, 277.8582458496094
0, 4, 78, 307.7919311523438
0, 4, 79, 318.9584655761719
0, 4, 80, 314.8106994628906
0, 4, 81, 312.2085571289062
0, 4, 82, 297.9327087402344
0, 4, 83, 299.0824279785156
0, 4, 84, 293.6200561523438
0, 4, 85, 294.2835998535156
0, 4, 86, 297.8408203125
0, 4, 87, 285.7355041503906
0, 4, 88, 308.6644592285156
0, 4, 89, 295.0204772949219
0, 4, 90, 332.2405395507812
0, 4, 91, 301.7712097167969
0, 4, 92, 289.3175048828125
0, 4, 93, 296.2408752441406
0, 4, 94, 291.4207458496094
0, 4, 95, 289.1192626953125
0, 4, 96, 321.1404418945312
0, 4, 97, 273.1354064941406
0, 4, 98, 326.8055419921875
0, 4, 99, 314.6683959960938
0, 4, 100, 301.5999755859375
0, 4, 101, 256.6592102050781
0, 4, 102, 299.0099182128906
0, 4, 103, 317.5695190429688
0, 4, 104, 282.8568115234375
0, 4, 105, 309.3432922363281
0, 4, 106, 287.4178466796875
0, 4, 107, 295.8414916992188
0, 4, 108, 227.1651458740234
0, 4, 109, 78.96625518798828
0, 4, 110, 17.30321311950684
0, 4, 111, 12.79690456390381
0, 4, 112, 8.808712005615234
0, 4, 113, 8.500184059143066
0, 4, 114, 9.184756278991699
0, 4, 115, 8.646712303161621
0, 4, 116, 10.93853855133057
0, 4, 117, 7.995580673217773
0, 4, 118, 9.378190040588379
0, 4, 119, 8.067464828491211
0, 4, 120, 5.837783336639404
0, 4, 121, 7.01588249206543
0, 4, 122, 7.67125940322876
0, 4, 123, 5.952696800231934
0, 4, 124, 5.860435485839844
0, 4, 125, 9.365828514099121
0, 4, 126, 5.615903377532959
0, 4, 127, 2.498345851898193
0, 5, 0, 4.072383403778076
0, 5, 1, 4.263209819793701
0, 5, 2, 4.630396842956543
0, 5, 3, 3.684364557266235
0, 5, 4, 4.697263717651367
0, 5, 5, 5.829564094543457
0, 5, 6, 6.841211318969727
0, 5, 7, 4.039527416229248
0, 5, 8, 5.50708532333374
0, 5, 9, 7.087151050567627
0, 5, 10, 8.404467582702637
0, 5, 11, 8.239216804504395
0, 5, 12, 8.963862419128418
0, 5, 13, 5.457093238830566
0, 5, 14, 11.99713134765625
0, 5, 15, 16.54970741271973
0, 5, 16, 13.93979167938232
0, 5, 17, 29.84222984313965
0, 5, 18, 136.4857940673828
0, 5, 19, 288.7217407226562
0, 5, 20, 306.8848571777344
0, 5, 21, 317.4999084472656
0, 5, 22, 275.9787902832031
0, 5, 23, 310.1652221679688
0, 5, 24, 301.1744995117188
0, 5, 25, 289.26025390625
0, 5, 26, 293.2588500976562
0, 5, 27, 321.2018737792969
0, 5, 28, 306.7715454101562
0, 5, 29, 298.5013427734375
0, 5, 30, 327.1089782714844
0, 5, 31, 286.4223937988281
0, 5, 32, 302.0718383789062
0, 5, 33, 304.5771484375
0, 5, 34, 298.1735534667969
0, 5, 35, 309.3414611816406
0, 5, 36, 271.5794677734375
0, 5, 37, 281.6243591308594
0, 5, 38, 293.5259094238281
0, 5, 39, 311.8831787109375
0, 5, 40, 308.5802307128906
0, 5, 41, 273.7341918945312
0, 5, 42, 305.8941955566406
0, 5, 43, 315.5849609375
0, 5, 44, 291.223388671875
0, 5, 45, 302.3529052734375
0, 5, 46, 263.654052734375
0, 5, 47, 279.6526184082031
0, 5, 48, 292.5449829101562
0, 5, 49, 286.873291015625
0, 5, 50, 294.5686340332031
0, 5, 51, 279.7178039550781
0, 5, 52, 272.1831359863281
0, 5, 53, 283.4259643554688
0, 5, 54, 292.7871704101562
0, 5, 55, 344.8714294433594
0, 5, 56, 305.1808166503906
0, 5, 57, 306.8311462402344
0, 5, 58, 310.7167663574219
0, 5, 59, 304.0124206542969
0, 5, 60, 306.9735717773438
0, 5, 61, 283.7127990722656
0, 5, 62, 325.5685729980469
0, 5, 63, 290.682373046875
0, 5, 64, 321.5581970214844
0, 5, 65, 306.6876831054688
0, 5, 66, 327.222412109375
0, 5, 67, 312.6177673339844
0, 5, 68, 307.0818786621094
0, 5, 69, 311.3199768066406
0, 5, 70, 301.2453918457031
0, 5, 71, 271.1361083984375
0, 5, 72, 312.7609252929688
0, 5, 73, 300.6080932617188
0, 5, 74, 295.135498046875
0, 5, 75, 293.8089904785156
0, 5, 76, 288.0100402832031
0, 5, 77, 300.8175964355469
0, 5, 78, 314.9690856933594
0, 5, 79, 305.1608276367188
0, 5, 80, 294.6785583496094
0, 5, 81, 326.835205078125
0, 5, 82, 326.5432434082031
0, 5, 83, 283.0238647460938
0, 5, 84, 302.5837097167969
0, 5, 85, 269.5503845214844
0, 5, 86, 324.4364929199219
0, 5, 87, 285.1166687011719
0, 5, 88, 312.786376953125
0, 5, 89, 303.3341674804688
0, 5, 90, 316.6729125976562
0, 5, 91, 314.6946105957031
0, 5, 92, 296.5273132324219
0, 5, 93, 322.131591796875
0, 5, 94, 308.600341796875
0, 5, 95, 298.1402282714844
0, 5, 96, 296.572509765625
0, 5, 97, 295.6571044921875
0, 5, 98, 318.6921691894531
0, 5, 99, 303.2592163085938
0, 5, 100, 292.5273132324219
0, 5, 101, 305.5098571777344
0, 5, 102, 294.2251892089844
0, 5, 103, 312.8855285644531
0, 5, 104, 302.1035766601562
0, 5, 105, 294.0082092285156
0, 5, 106, 281.3612365722656
0, 5, 107, 294.6443786621094
0, 5, 108, 263.0956420898438
0, 5, 109, 160.185302734375
0, 5, 110, 41.34381103515625
0, 5, 111, 20.13530731201172
0, 5, 112, 17.4575023651123
0, 5, 113, 15.51277542114258
0, 5, 114, 11.89202499389648
0, 5, 115, 6.714221477508545
0, 5, 116, 8.8778076171875
0, 5, 117, 6.571329116821289
0, 5, 118, 15.22973823547363
0, 5, 119, 6.845883369445801
0, 5, 120, 4.617856502532959
0, 5, 121, 6.764685153961182
0, 5, 122, 6.760280132293701
0, 5, 123, 5.988928318023682
0, 5, 124, 5.098885536193848
0, 5, 125, 2.764601707458496
0, 5, 126, 7.960400581359863
0, 5, 127, 2.826627969741821
0, 6, 0, 4.991611957550049
0, 6, 1, 3.498739957809448
0, 6, 2, 7.704908847808838
0, 6, 3, 6.231710910797119
0, 6, 4, 3.386032342910767
0, 6, 5, 5.274962425231934
0, 6, 6, 7.371151924133301
0, 6, 7, 4.579618453979492
0, 6, 8, 6.100271224975586
0, 6, 9, 6.048041820526123
0, 6, 10, 7.455189228057861
0, 6, 11, 7.364406108856201
0, 6, 12, 10.51731967926025
0, 6, 13, 15.86490821838379
0, 6, 14, 9.299619674682617
0, 6, 15, 16.39360618591309
0, 6, 16, 28.08252334594727
0, 6, 17, 55.63487243652344
0, 6, 18, 173.8587036132812
0, 6, 19, 276.251220703125
0, 6, 20, 292.6125183105469
0, 6, 21, 314.1941833496094
0, 6, 22, 320.40576171875
0, 6, 23, 303.7765808105469
0, 6, 24, 316.4020690917969
0, 6, 25, 315.1893005371094
0, 6, 26, 319.5050354003906
0, 6, 27, 330.7042236328125
0, 6, 28, 295.5797424316406
0, 6, 29, 329.735107421875
0, 6, 30, 280.2121276855469
0, 6, 31, 285.3131713867188
0, 6, 32, 338.8772583007812
0, 6, 33, 299.9735107421875
0, 6, 34, 340.6235656738281
0, 6, 35, 322.9180908203125
0, 6, 36, 274.4364013671875
0, 6, 37, 288.1776733398438
0, 6, 38, 310.3765258789062
0, 6, 39, 299.1234130859375
0, 6, 40, 285.5846252441406
0, 6, 41, 294.9671630859375
0, 6, 42, 302.7322082519531
0, 6, 43, 288.2855834960938
0, 6, 44, 279.8766784667969
0, 6, 45, 320.8010864257812
0, 6, 46, 301.9860534667969
0, 6, 47, 335.5381164550781
0, 6, 48, 291.1544189453125
0, 6, 49, 310.8616333007812
0, 6, 50, 329.4009704589844
0, 6, 51, 311.3155517578125
0, 6, 52, 321.920654296875
0, 6, 53, 327.7141723632812
0, 6, 54, 303.2638244628906
0, 6, 55, 306.5646362304688
0, 6, 56, 297.6983947753906
0, 6, 57, 314.606689453125
0, 6, 58, 261.0148620605469
0, 6, 59, 303.4588012695312
0, 6, 60, 313.6702575683594
0, 6, 61, 269.6761779785156
0, 6, 62, 339.2471923828125
0, 6, 63, 321.9661254882812
0, 6, 64, 289.8931579589844
0, 6, 65, 284.0979309082031
0, 6, 66, 307.3477478027344
0, 6, 67, 309.7333374023438
0, 6, 68, 294.0384521484375
0, 6, 69, 277.471923828125
0, 6, 70, 275.933349609375
0, 6, 71, 291.1213073730469
0, 6, 72, 309.2565002441406
0, 6, 73, 294.1795654296875
0, 6, 74, 330.1176147460938
0, 6, 75, 345.311767578125
0, 6, 76, 295.3348388671875
0, 6, 77, 284.6393127441406
0, 6, 78, 280.0690002441406
0, 6, 79, 292.6707153320312
0, 6, 80, 300.8412780761719
0, 6, 81, 314.2528381347656
0, 6, 82, 319.4437866210938
0, 6, 83, 321.5320434570312
0, 6, 84, 297.3849487304688
0, 6, 85, 299.7163391113281
0, 6, 86, 329.5778198242188
0, 6, 87, 292.1524047851562
0, 6, 88, 309.5616149902344
0, 6, 89, 304.9503173828125
0, 6, 90, 298.6305236816406
0, 6, 91, 312.4683532714844
0, 6, 92, 285.437255859375
0, 6, 93, 295.923828125
0, 6, 94, 273.6322937011719
0, 6, 95, 300.5130920410156
0, 6, 96, 352.3403625488281
0, 6, 97, 307.2478332519531
0, 6, 98, 300.2749633789062
0, 6, 99, 271.73828125
0, 6, 100, 310.2483825683594
0, 6, 101, 292.6656799316406
0, 6, 102, 306.8706359863281
0, 6, 103, 306.7211303710938
0, 6, 104, 291.1641235351562
0, 6, 105, 301.600341796875
0, 6, 106, 307.5451049804688
0, 6, 107, 305.3919982910156
0, 6, 108, 266.1676940917969
0, 6, 109, 187.4420318603516
0, 6, 110, 58.82487487792969
0, 6, 111, 22.39671897888184
0, 6, 112, 15.27144336700439
0, 6, 113, 11.53249645233154
0, 6, 114, 14.96233749389648
0, 6, 115, 13.99385929107666
0, 6, 116, 9.191162109375
0, 6, 117, 7.049267768859863
0, 6, 118, 12.35774803161621
0, 6, 119, 7.785752773284912
0, 6, 120, 5.287364482879639
0, 6, 121, 6.939730167388916
0, 6, 122, 6.061401844024658
0, 6, 123, 5.02188777923584
0, 6, 124, 4.997859954833984
0, 6, 125, 5.510574340820312
0, 6, 126, 4.589091300964355
0, 6, 127, 6.883528232574463
0, 7, 0, 4.850785255432129
0, 7, 1, 4.36101770401001
0, 7, 2, 5.826813697814941
0, 7, 3, 5.35361909866333
0, 7, 4, 3.417169570922852
0, 7, 5, 7.271156311035156
0, 7, 6, 5.750148296356201
0, 7, 7, 7.541679859161377
0, 7, 8, 6.612354755401611
0, 7, 9, 5.67763614654541
0, 7, 10, 8.754683494567871
0, 7, 11, 13.1175594329834
0, 7, 12, 9.885322570800781
0, 7, 13, 12.33133697509766
0, 7, 14, 11.83866786956787
0, 7, 15, 17.06357574462891
0, 7, 16, 25.20204162597656
0, 7, 17, 97.93631744384766
0, 7, 18, 218.2119598388672
0, 7, 19, 291.7538452148438
0, 7, 20, 297.69140625
0, 7, 21, 276.9386291503906
0, 7, 22, 300.1220397949219
0, 7, 23, 292.3320617675781
0, 7, 24, 313.430419921875
0, 7, 25, 324.29736328125
0, 7, 26, 277.9066772460938
0, 7, 27, 296.6062316894531
0, 7, 28, 324.7359008789062
0, 7, 29, 318.0325927734375
0, 7, 30, 299.8936462402344
0, 7, 31, 278.4469909667969
0, 7, 32, 308.449951171875
0, 7, 33, 262.8719177246094
0, 7, 34, 300.35302734375
0, 7, 35, 319.6685180664062
0, 7, 36, 329.2070617675781
0, 7, 37, 322.5852966308594
0, 7, 38, 295.2578125
0, 7, 39, 306.2600402832031
0, 7, 40, 288.7715148925781
0, 7, 41, 272.2326354980469
0, 7, 42, 302.1600952148438
0, 7, 43, 275.2512817382812
0, 7, 44, 303.1766052246094
0, 7, 45, 295.7589111328125
0, 7, 46, 283.4972534179688
0, 7, 47, 328.8927917480469
0, 7, 48, 288.779296875
0, 7, 49, 301.5923461914062
0, 7, 50, 321.0312194824219
0, 7, 51, 299.0959777832031
0, 7, 52, 325.2915649414062
0, 7, 53, 308.5547485351562
0, 7, 54, 323.5752868652344
0, 7, 55, 306.0264587402344
0, 7, 56, 279.8061218261719
0, 7, 57, 282.8681335449219
0, 7, 58, 295.8712463378906
0, 7, 59, 293.0515441894531
0, 7, 60, 324.9795837402344
0, 7, 61, 280.8201904296875
0, 7, 62, 300.8218994140625
0, 7, 63, 292.4395141601562
0, 7, 64, 309.3359680175781
0, 7, 65, 330.0266723632812
0, 7, 66, 319.1061706542969
0, 7, 67, 303.2791442871094
0, 7, 68, 283.8412475585938
0, 7, 69, 295.9355163574219
0, 7, 70, 303.5504760742188
0, 7, 71, 309.6794738769531
0, 7, 72, 285.1496887207031
0, 7, 73, 296.3098754882812
0, 7, 74, 343.820068359375
0, 7, 75, 317.9723815917969
0, 7, 76, 323.1143798828125
0, 7, 77, 280.5917358398438
0, 7, 78, 300.3869018554688
0, 7, 79, 298.4388427734375
0, 7, 80, 313.2878112792969
0, 7, 81, 319.6905212402344
0, 7, 82, 328.9686279296875
0, 7, 83, 316.9407348632812
0, 7, 84, 309.6774597167969
0, 7, 85, 271.9754638671875
0, 7, 86, 310.7835998535156
0, 7, 87, 312.1221618652344
0, 7, 88, 306.203125
0, 7, 89, 291.7272033691406
0, 7, 90, 306.5693969726562
0, 7, 91, 317.6187133789062
0, 7, 92, 286.4065856933594
0, 7, 93, 309.887939453125
0, 7, 94, 273.4706115722656
0, 7, 95, 295.3956604003906
0, 7, 96, 330.2880859375
0, 7, 97, 295.8872680664062
0, 7, 98, 291.494384765625
0, 7, 99, 313.1255187988281
0, 7, 100, 279.3995056152344
0, 7, 101, 274.6034545898438
0, 7, 102, 289.0525817871094
0, 7, 103, 292.4301452636719
0, 7, 104, 275.3580627441406
0, 7, 105, 306.7207946777344
0, 7, 106, 316.8251953125
0, 7, 107, 296.4273986816406
0, 7, 108, 272.9799194335938
0, 7, 109, 236.8413543701172
0, 7, 110, 97.24932861328125
0, 7, 111, 22.91310882568359
0, 7, 112, 13.59015655517578
0, 7, 113, 13.61285591125488
0, 7, 114, 13.01007461547852
0, 7, 115, 9.49567699432373
0, 7, 116, 8.755705833435059
0, 7, 117, 6.46762228012085
0, 7, 118, 8.071125030517578
0, 7, 119, 10.79638671875
0, 7, 120, 5.06121301651001
0, 7, 121, 6.108481407165527
0, 7, 122, 7.182563304901123
0, 7, 123, 3.829961776733398
0, 7, 124, 5.31675910949707
0, 7, 125, 6.967628479003906
0, 7, 126, 8.278153419494629
0, 7, 127, 5.791176319122314
0, 8, 0, 6.186429977416992
0, 8, 1, 5.22775411605835
0, 8, 2, 3.981226682662964
0, 8, 3, 2.017357349395752
0, 8, 4, 4.086888790130615
0, 8, 5, 3.687710762023926
0, 8, 6, 4.006773471832275
0, 8, 7, 7.72216796875
0, 8, 8, 10.07783985137939
0, 8, 9, 5.734786033630371
0, 8, 10, 7.288375377655029
0, 8, 11, 12.94071388244629
0, 8, 12, 13.70733451843262
0, 8, 13, 17.43521308898926
0, 8, 14, 13.56609439849854
0, 8, 15, 21.23967742919922
0, 8, 16, 32.93318939208984
0, 8, 17, 130.6696929931641
0, 8, 18, 243.4726257324219
0, 8, 19, 294.6521606445312
0, 8, 20, 283.8899841308594
0, 8, 21, 309.9158325195312
0, 8, 22, 297.5942687988281
0, 8, 23, 274.2983093261719
0, 8, 24, 269.1337890625
0, 8, 25, 276.2980041503906
0, 8, 26, 306.4779968261719
0, 8, 27, 308.2575988769531
0, 8, 28, 303.3451843261719
0, 8, 29, 321.1822509765625
0, 8, 30, 315.8421020507812
0, 8, 31, 303.0658264160156
0, 8, 32, 281.4221496582031
0, 8, 33, 293.1420593261719
0, 8, 34, 291.0594177246094
0, 8, 35, 280.5810241699219
0, 8, 36, 315.7275085449219
0, 8, 37, 339.6211547851562
0, 8, 38, 332.4628295898438
0, 8, 39, 280.1239318847656
0, 8, 40, 304.076171875
