# TOPAS Version: 3.1.p3
# Parameter File: batch_inserts_328.txt
# Results for scorer Readout_Adipose
# Scored in component: MyBox
# X in 1 bin  of 0.75 cm
# Y in 512 bins of 0.0783984 cm
# Z in 128 bins of 0.078125 cm
# EnergyDeposit ( MeV ) : Sum   
0, 0, 0, 18.83000564575195
0, 0, 1, 16.44240760803223
0, 0, 2, 27.87375640869141
0, 0, 3, 23.86375045776367
0, 0, 4, 20.15845489501953
0, 0, 5, 19.80631828308105
0, 0, 6, 22.41239738464355
0, 0, 7, 30.53561592102051
0, 0, 8, 24.71148300170898
0, 0, 9, 23.27724456787109
0, 0, 10, 25.88908958435059
0, 0, 11, 28.08807182312012
0, 0, 12, 31.79979133605957
0, 0, 13, 29.53374481201172
0, 0, 14, 41.01354598999023
0, 0, 15, 43.42830657958984
0, 0, 16, 41.54312133789062
0, 0, 17, 48.05832290649414
0, 0, 18, 79.27297973632812
0, 0, 19, 192.3620452880859
0, 0, 20, 700.3307495117188
0, 0, 21, 1190.712036132812
0, 0, 22, 1245.545532226562
0, 0, 23, 1278.380004882812
0, 0, 24, 1282.4150390625
0, 0, 25, 1357.606323242188
0, 0, 26, 1273.571044921875
0, 0, 27, 1279.214477539062
0, 0, 28, 1321.086303710938
0, 0, 29, 1268.96728515625
0, 0, 30, 1265.527099609375
0, 0, 31, 1279.407958984375
0, 0, 32, 1263.697143554688
0, 0, 33, 1237.49951171875
0, 0, 34, 1328.150756835938
0, 0, 35, 1298.8349609375
0, 0, 36, 1247.104858398438
0, 0, 37, 1279.2646484375
0, 0, 38, 1250.6884765625
0, 0, 39, 1247.465454101562
0, 0, 40, 1221.5546875
0, 0, 41, 1269.163452148438
0, 0, 42, 1252.756591796875
0, 0, 43, 1266.966552734375
0, 0, 44, 1226.63671875
0, 0, 45, 1289.514526367188
0, 0, 46, 1268.238037109375
0, 0, 47, 1238.8779296875
0, 0, 48, 1278.813110351562
0, 0, 49, 1288.083129882812
0, 0, 50, 1311.1044921875
0, 0, 51, 1260.058715820312
0, 0, 52, 1358.365112304688
0, 0, 53, 1323.837524414062
0, 0, 54, 1299.85888671875
0, 0, 55, 1233.031860351562
0, 0, 56, 1316.133544921875
0, 0, 57, 1291.110229492188
0, 0, 58, 1255.98095703125
0, 0, 59, 1329.175659179688
0, 0, 60, 1326.063232421875
0, 0, 61, 1260.316162109375
0, 0, 62, 1238.13818359375
0, 0, 63, 1277.930541992188
0, 0, 64, 1332.412475585938
0, 0, 65, 1285.36962890625
0, 0, 66, 1314.034912109375
0, 0, 67, 1218.614990234375
0, 0, 68, 1309.748291015625
0, 0, 69, 1326.973999023438
0, 0, 70, 1341.399169921875
0, 0, 71, 1285.131225585938
0, 0, 72, 1313.046875
0, 0, 73, 1234.373901367188
0, 0, 74, 1289.785400390625
0, 0, 75, 1293.037109375
0, 0, 76, 1256.540893554688
0, 0, 77, 1288.056030273438
0, 0, 78, 1313.0439453125
0, 0, 79, 1326.4501953125
0, 0, 80, 1258.834716796875
0, 0, 81, 1320.598266601562
0, 0, 82, 1290.142578125
0, 0, 83, 1293.875366210938
0, 0, 84, 1330.649047851562
0, 0, 85, 1231.935913085938
0, 0, 86, 1263.462646484375
0, 0, 87, 1252.607666015625
0, 0, 88, 1259.169799804688
0, 0, 89, 1336.560180664062
0, 0, 90, 1274.76806640625
0, 0, 91, 1352.526489257812
0, 0, 92, 1305.353149414062
0, 0, 93, 1270.40966796875
0, 0, 94, 1246.509765625
0, 0, 95, 1332.736206054688
0, 0, 96, 1282.83203125
0, 0, 97, 1324.671630859375
0, 0, 98, 1254.801879882812
0, 0, 99, 1249.359741210938
0, 0, 100, 1287.874145507812
0, 0, 101, 1312.67529296875
0, 0, 102, 1235.782592773438
0, 0, 103, 1324.9189453125
0, 0, 104, 1259.056884765625
0, 0, 105, 1266.713623046875
0, 0, 106, 1206.922973632812
0, 0, 107, 778.9060668945312
0, 0, 108, 195.9891967773438
0, 0, 109, 67.01396179199219
0, 0, 110, 64.53616333007812
0, 0, 111, 39.91278457641602
0, 0, 112, 35.3409538269043
0, 0, 113, 32.41125869750977
0, 0, 114, 36.28411102294922
0, 0, 115, 28.86094284057617
0, 0, 116, 28.13506126403809
0, 0, 117, 32.96362686157227
0, 0, 118, 23.77571296691895
0, 0, 119, 21.22637557983398
0, 0, 120, 23.53152847290039
0, 0, 121, 29.59300422668457
0, 0, 122, 25.71889495849609
0, 0, 123, 21.12455177307129
0, 0, 124, 24.69898986816406
0, 0, 125, 19.90397071838379
0, 0, 126, 25.25149154663086
0, 0, 127, 19.19925117492676
0, 1, 0, 24.87077140808105
0, 1, 1, 22.54008483886719
0, 1, 2, 24.02849769592285
0, 1, 3, 23.33763313293457
0, 1, 4, 19.90943717956543
0, 1, 5, 21.32760810852051
0, 1, 6, 23.24922943115234
0, 1, 7, 24.09701156616211
0, 1, 8, 30.09257888793945
0, 1, 9, 33.13539886474609
0, 1, 10, 31.37332725524902
0, 1, 11, 40.2861328125
0, 1, 12, 37.62632369995117
0, 1, 13, 45.40567779541016
0, 1, 14, 40.0749626159668
0, 1, 15, 50.88622283935547
0, 1, 16, 58.4853630065918
0, 1, 17, 61.97202301025391
0, 1, 18, 102.1698913574219
0, 1, 19, 398.146484375
0, 1, 20, 1040.1796875
0, 1, 21, 1373.099731445312
0, 1, 22, 1477.605224609375
0, 1, 23, 1460.828735351562
0, 1, 24, 1447.354125976562
0, 1, 25, 1422.630249023438
0, 1, 26, 1473.162475585938
0, 1, 27, 1465.06884765625
0, 1, 28, 1488.04931640625
0, 1, 29, 1479.924194335938
0, 1, 30, 1512.668334960938
0, 1, 31, 1487.1611328125
0, 1, 32, 1410.536499023438
0, 1, 33, 1500.983276367188
0, 1, 34, 1497.521606445312
0, 1, 35, 1463.225708007812
0, 1, 36, 1490.558349609375
0, 1, 37, 1414.94921875
0, 1, 38, 1391.35107421875
0, 1, 39, 1522.068603515625
0, 1, 40, 1460.590576171875
0, 1, 41, 1488.045532226562
0, 1, 42, 1501.513061523438
0, 1, 43, 1502.635620117188
0, 1, 44, 1447.160888671875
0, 1, 45, 1482.831787109375
0, 1, 46, 1418.591552734375
0, 1, 47, 1434.21240234375
0, 1, 48, 1435.302490234375
0, 1, 49, 1485.009399414062
0, 1, 50, 1442.674072265625
0, 1, 51, 1469.860717773438
0, 1, 52, 1473.898559570312
0, 1, 53, 1475.651123046875
0, 1, 54, 1507.828491210938
0, 1, 55, 1491.704467773438
0, 1, 56, 1466.509643554688
0, 1, 57, 1455.32080078125
0, 1, 58, 1431.028686523438
0, 1, 59, 1479.4501953125
0, 1, 60, 1461.666748046875
0, 1, 61, 1452.23974609375
0, 1, 62, 1450.491821289062
0, 1, 63, 1418.132446289062
0, 1, 64, 1475.572021484375
0, 1, 65, 1416.818481445312
0, 1, 66, 1441.225952148438
0, 1, 67, 1453.5517578125
0, 1, 68, 1384.309936523438
0, 1, 69, 1458.024536132812
0, 1, 70, 1432.270629882812
0, 1, 71, 1496.379150390625
0, 1, 72, 1435.193115234375
0, 1, 73, 1489.981323242188
0, 1, 74, 1471.911254882812
0, 1, 75, 1476.102294921875
0, 1, 76, 1455.288818359375
0, 1, 77, 1462.219360351562
0, 1, 78, 1451.278564453125
0, 1, 79, 1504.29345703125
0, 1, 80, 1447.688598632812
0, 1, 81, 1424.9140625
0, 1, 82, 1471.477172851562
0, 1, 83, 1461.353759765625
0, 1, 84, 1532.189086914062
0, 1, 85, 1449.409057617188
0, 1, 86, 1406.730712890625
0, 1, 87, 1421.199096679688
0, 1, 88, 1474.04443359375
0, 1, 89, 1480.89990234375
0, 1, 90, 1422.58837890625
0, 1, 91, 1457.369140625
0, 1, 92, 1410.270141601562
0, 1, 93, 1461.317016601562
0, 1, 94, 1466.45703125
0, 1, 95, 1421.828979492188
0, 1, 96, 1499.58642578125
0, 1, 97, 1517.930297851562
0, 1, 98, 1471.015625
0, 1, 99, 1419.806030273438
0, 1, 100, 1449.153564453125
0, 1, 101, 1415.18359375
0, 1, 102, 1439.982421875
0, 1, 103, 1413.674682617188
0, 1, 104, 1408.498901367188
0, 1, 105, 1460.095947265625
0, 1, 106, 1365.67822265625
0, 1, 107, 1025.413696289062
0, 1, 108, 408.7561340332031
0, 1, 109, 95.80596160888672
0, 1, 110, 60.30052947998047
0, 1, 111, 53.33060455322266
0, 1, 112, 48.55798721313477
0, 1, 113, 37.84859466552734
0, 1, 114, 31.01676177978516
0, 1, 115, 39.503173828125
0, 1, 116, 36.88607025146484
0, 1, 117, 39.21840667724609
0, 1, 118, 34.10737228393555
0, 1, 119, 32.4968376159668
0, 1, 120, 32.93510055541992
0, 1, 121, 25.50480270385742
0, 1, 122, 24.75567245483398
0, 1, 123, 26.88066864013672
0, 1, 124, 26.1297779083252
0, 1, 125, 20.69004058837891
0, 1, 126, 16.0872974395752
0, 1, 127, 17.3170337677002
0, 2, 0, 19.94129943847656
0, 2, 1, 23.95723533630371
0, 2, 2, 19.57836532592773
0, 2, 3, 25.89841842651367
0, 2, 4, 21.13667488098145
0, 2, 5, 22.89065933227539
0, 2, 6, 25.62336349487305
0, 2, 7, 25.43624114990234
0, 2, 8, 22.55668830871582
0, 2, 9, 26.87678909301758
0, 2, 10, 27.01378059387207
0, 2, 11, 31.94389915466309
0, 2, 12, 41.03806686401367
0, 2, 13, 47.16709518432617
0, 2, 14, 45.17535781860352
0, 2, 15, 41.67517852783203
0, 2, 16, 65.57030487060547
0, 2, 17, 83.19841003417969
0, 2, 18, 146.5582580566406
0, 2, 19, 608.9019775390625
0, 2, 20, 1287.157592773438
0, 2, 21, 1435.943481445312
0, 2, 22, 1457.938232421875
0, 2, 23, 1403.543334960938
0, 2, 24, 1443.578125
0, 2, 25, 1520.21875
0, 2, 26, 1554.461059570312
0, 2, 27, 1454.520141601562
0, 2, 28, 1455.022094726562
0, 2, 29, 1464.437255859375
0, 2, 30, 1461.338256835938
0, 2, 31, 1534.958740234375
0, 2, 32, 1509.666381835938
0, 2, 33, 1443.983642578125
0, 2, 34, 1475.38916015625
0, 2, 35, 1470.885498046875
0, 2, 36, 1527.38134765625
0, 2, 37, 1540.266357421875
0, 2, 38, 1503.768798828125
0, 2, 39, 1461.339965820312
0, 2, 40, 1503.829711914062
0, 2, 41, 1520.341186523438
0, 2, 42, 1502.387329101562
0, 2, 43, 1546.808471679688
0, 2, 44, 1454.963256835938
0, 2, 45, 1484.15576171875
0, 2, 46, 1431.102905273438
0, 2, 47, 1443.135131835938
0, 2, 48, 1392.146850585938
0, 2, 49, 1465.220092773438
0, 2, 50, 1440.6240234375
0, 2, 51, 1446.855102539062
0, 2, 52, 1495.0087890625
0, 2, 53, 1522.738891601562
0, 2, 54, 1523.34521484375
0, 2, 55, 1491.738403320312
0, 2, 56, 1460.417602539062
0, 2, 57, 1415.537231445312
0, 2, 58, 1452.224975585938
0, 2, 59, 1446.753662109375
0, 2, 60, 1473.119384765625
0, 2, 61, 1449.8818359375
0, 2, 62, 1474.200927734375
0, 2, 63, 1503.23779296875
0, 2, 64, 1455.666748046875
0, 2, 65, 1427.544677734375
0, 2, 66, 1490.72021484375
0, 2, 67, 1505.178833007812
0, 2, 68, 1541.379028320312
0, 2, 69, 1538.158081054688
0, 2, 70, 1507.080810546875
0, 2, 71, 1461.487060546875
0, 2, 72, 1517.392944335938
0, 2, 73, 1517.747802734375
0, 2, 74, 1487.201416015625
0, 2, 75, 1504.640502929688
0, 2, 76, 1448.931762695312
0, 2, 77, 1503.535400390625
0, 2, 78, 1429.965576171875
0, 2, 79, 1539.571899414062
0, 2, 80, 1483.26025390625
0, 2, 81, 1464.8994140625
0, 2, 82, 1555.503173828125
0, 2, 83, 1513.953369140625
0, 2, 84, 1490.020629882812
0, 2, 85, 1512.47314453125
0, 2, 86, 1540.11083984375
0, 2, 87, 1486.651733398438
0, 2, 88, 1540.700439453125
0, 2, 89, 1460.208862304688
0, 2, 90, 1433.5888671875
0, 2, 91, 1406.486572265625
0, 2, 92, 1474.689331054688
0, 2, 93, 1496.40869140625
0, 2, 94, 1449.6806640625
0, 2, 95, 1544.440307617188
0, 2, 96, 1517.044677734375
0, 2, 97, 1452.466796875
0, 2, 98, 1471.870727539062
0, 2, 99, 1406.608032226562
0, 2, 100, 1476.573974609375
0, 2, 101, 1481.834716796875
0, 2, 102, 1462.174438476562
0, 2, 103, 1393.2763671875
0, 2, 104, 1413.397827148438
0, 2, 105, 1393.382934570312
0, 2, 106, 1457.73388671875
0, 2, 107, 1278.07763671875
0, 2, 108, 616.6978149414062
0, 2, 109, 169.8944396972656
0, 2, 110, 69.41352081298828
0, 2, 111, 59.46230316162109
0, 2, 112, 44.89356994628906
0, 2, 113, 46.88539505004883
0, 2, 114, 39.53311157226562
0, 2, 115, 40.65062713623047
0, 2, 116, 32.34146881103516
0, 2, 117, 32.42243194580078
0, 2, 118, 30.80771636962891
0, 2, 119, 31.91274070739746
0, 2, 120, 28.19648933410645
0, 2, 121, 24.47280693054199
0, 2, 122, 28.87947082519531
0, 2, 123, 22.48349761962891
0, 2, 124, 23.61789512634277
0, 2, 125, 30.21546173095703
0, 2, 126, 17.0062198638916
0, 2, 127, 20.53729629516602
0, 3, 0, 20.98806381225586
0, 3, 1, 21.31452369689941
0, 3, 2, 20.03478813171387
0, 3, 3, 25.7622184753418
0, 3, 4, 20.11714553833008
0, 3, 5, 22.44064712524414
0, 3, 6, 33.37369537353516
0, 3, 7, 25.95284271240234
0, 3, 8, 32.96869277954102
0, 3, 9, 26.42912673950195
0, 3, 10, 36.02804183959961
0, 3, 11, 35.31753158569336
0, 3, 12, 41.02234268188477
0, 3, 13, 54.14378356933594
0, 3, 14, 62.86201095581055
0, 3, 15, 51.02195739746094
0, 3, 16, 64.02059936523438
0, 3, 17, 87.44709777832031
0, 3, 18, 238.3049926757812
0, 3, 19, 879.5447998046875
0, 3, 20, 1386.128784179688
0, 3, 21, 1503.692504882812
0, 3, 22, 1460.188842773438
0, 3, 23, 1448.399169921875
0, 3, 24, 1442.805419921875
0, 3, 25, 1463.605590820312
0, 3, 26, 1488.512451171875
0, 3, 27, 1469.035766601562
0, 3, 28, 1489.801147460938
0, 3, 29, 1539.71630859375
0, 3, 30, 1570.811889648438
0, 3, 31, 1511.66650390625
0, 3, 32, 1547.625366210938
0, 3, 33, 1539.149658203125
0, 3, 34, 1485.689575195312
0, 3, 35, 1464.327514648438
0, 3, 36, 1447.524169921875
0, 3, 37, 1510.221557617188
0, 3, 38, 1519.6826171875
0, 3, 39, 1440.446044921875
0, 3, 40, 1443.614135742188
0, 3, 41, 1560.35400390625
0, 3, 42, 1460.623413085938
0, 3, 43, 1455.740112304688
0, 3, 44, 1453.712158203125
0, 3, 45, 1508.751220703125
0, 3, 46, 1506.928344726562
0, 3, 47, 1442.192260742188
0, 3, 48, 1507.853637695312
0, 3, 49, 1449.500244140625
0, 3, 50, 1487.573608398438
0, 3, 51, 1536.368530273438
0, 3, 52, 1537.228149414062
0, 3, 53, 1465.423461914062
0, 3, 54, 1539.118408203125
0, 3, 55, 1503.237426757812
0, 3, 56, 1436.744140625
0, 3, 57, 1501.308959960938
0, 3, 58, 1511.805786132812
0, 3, 59, 1511.274047851562
0, 3, 60, 1539.1474609375
0, 3, 61, 1482.146484375
0, 3, 62, 1490.266357421875
0, 3, 63, 1495.9794921875
0, 3, 64, 1498.207763671875
0, 3, 65, 1514.633178710938
0, 3, 66, 1557.531372070312
0, 3, 67, 1552.075561523438
0, 3, 68, 1449.46240234375
0, 3, 69, 1469.135986328125
0, 3, 70, 1389.018920898438
0, 3, 71, 1464.516479492188
0, 3, 72, 1550.068115234375
0, 3, 73, 1500.714965820312
0, 3, 74, 1461.857055664062
0, 3, 75, 1460.55908203125
0, 3, 76, 1577.276611328125
0, 3, 77, 1544.091064453125
0, 3, 78, 1432.406860351562
0, 3, 79, 1492.034423828125
0, 3, 80, 1459.246948242188
0, 3, 81, 1470.953491210938
0, 3, 82, 1555.624755859375
0, 3, 83, 1508.555053710938
0, 3, 84, 1561.251831054688
0, 3, 85, 1481.1884765625
0, 3, 86, 1523.324096679688
0, 3, 87, 1535.926879882812
0, 3, 88, 1458.348388671875
0, 3, 89, 1449.307250976562
0, 3, 90, 1447.046508789062
0, 3, 91, 1422.847290039062
0, 3, 92, 1511.134521484375
0, 3, 93, 1499.693725585938
0, 3, 94, 1516.158447265625
0, 3, 95, 1546.587890625
0, 3, 96, 1514.224487304688
0, 3, 97, 1465.455444335938
0, 3, 98, 1433.888427734375
0, 3, 99, 1467.478271484375
0, 3, 100, 1463.748901367188
0, 3, 101, 1476.653198242188
0, 3, 102, 1521.1259765625
0, 3, 103, 1546.943969726562
0, 3, 104, 1499.983642578125
0, 3, 105, 1515.90380859375
0, 3, 106, 1478.15283203125
0, 3, 107, 1336.525512695312
0, 3, 108, 876.31787109375
0, 3, 109, 264.4842224121094
0, 3, 110, 100.8292846679688
0, 3, 111, 71.54660034179688
0, 3, 112, 55.93813705444336
0, 3, 113, 55.56535339355469
0, 3, 114, 49.77875137329102
0, 3, 115, 53.81836318969727
0, 3, 116, 34.75186920166016
0, 3, 117, 37.90450286865234
0, 3, 118, 27.64458274841309
0, 3, 119, 37.34071731567383
0, 3, 120, 31.1135196685791
0, 3, 121, 22.17681694030762
0, 3, 122, 23.75772857666016
0, 3, 123, 23.20580673217773
0, 3, 124, 21.39203453063965
0, 3, 125, 24.75453758239746
0, 3, 126, 25.33896064758301
0, 3, 127, 14.81093406677246
0, 4, 0, 21.74400520324707
0, 4, 1, 23.53990936279297
0, 4, 2, 24.34895706176758
0, 4, 3, 21.67006492614746
0, 4, 4, 26.0104866027832
0, 4, 5, 29.16311454772949
0, 4, 6, 29.43271827697754
0, 4, 7, 33.26090240478516
0, 4, 8, 23.75350570678711
0, 4, 9, 34.95347595214844
0, 4, 10, 31.41518020629883
0, 4, 11, 37.67478942871094
0, 4, 12, 47.91485595703125
0, 4, 13, 52.01234436035156
0, 4, 14, 50.83677673339844
0, 4, 15, 60.51049041748047
0, 4, 16, 76.4754638671875
0, 4, 17, 118.1289749145508
0, 4, 18, 440.0106811523438
0, 4, 19, 1179.677978515625
0, 4, 20, 1445.136962890625
0, 4, 21, 1422.284423828125
0, 4, 22, 1429.716796875
0, 4, 23, 1451.163940429688
0, 4, 24, 1476.52734375
0, 4, 25, 1403.382690429688
0, 4, 26, 1540.983764648438
0, 4, 27, 1549.891357421875
0, 4, 28, 1512.309814453125
0, 4, 29, 1517.504516601562
0, 4, 30, 1523.2607421875
0, 4, 31, 1572.0244140625
0, 4, 32, 1522.890258789062
0, 4, 33, 1494.1279296875
0, 4, 34, 1469.352294921875
0, 4, 35, 1557.379150390625
0, 4, 36, 1503.052124023438
0, 4, 37, 1513.351196289062
0, 4, 38, 1532.521362304688
0, 4, 39, 1471.89599609375
0, 4, 40, 1511.262939453125
0, 4, 41, 1585.561767578125
0, 4, 42, 1563.5009765625
0, 4, 43, 1471.849365234375
0, 4, 44, 1499.443725585938
0, 4, 45, 1522.969360351562
0, 4, 46, 1468.43359375
0, 4, 47, 1503.890380859375
0, 4, 48, 1519.343505859375
0, 4, 49, 1468.810546875
0, 4, 50, 1519.207885742188
0, 4, 51, 1494.951293945312
0, 4, 52, 1494.36962890625
0, 4, 53, 1455.545166015625
0, 4, 54, 1444.093017578125
0, 4, 55, 1527.760498046875
0, 4, 56, 1454.310302734375
0, 4, 57, 1491.498046875
0, 4, 58, 1461.671997070312
0, 4, 59, 1461.904418945312
0, 4, 60, 1527.832641601562
0, 4, 61, 1501.484008789062
0, 4, 62, 1507.293212890625
0, 4, 63, 1545.93505859375
0, 4, 64, 1592.39208984375
0, 4, 65, 1425.2529296875
0, 4, 66, 1513.174682617188
0, 4, 67, 1517.358154296875
0, 4, 68, 1497.455444335938
0, 4, 69, 1472.840942382812
0, 4, 70, 1541.6826171875
0, 4, 71, 1519.997436523438
0, 4, 72, 1525.8017578125
0, 4, 73, 1492.78173828125
0, 4, 74, 1486.32470703125
0, 4, 75, 1536.503784179688
0, 4, 76, 1483.366333007812
0, 4, 77, 1501.129150390625
0, 4, 78, 1504.17529296875
0, 4, 79, 1482.257446289062
0, 4, 80, 1513.469482421875
0, 4, 81, 1528.178955078125
0, 4, 82, 1564.6884765625
0, 4, 83, 1503.843627929688
0, 4, 84, 1542.619506835938
0, 4, 85, 1551.626342773438
0, 4, 86, 1528.89990234375
0, 4, 87, 1494.721801757812
0, 4, 88, 1517.498901367188
0, 4, 89, 1485.276489257812
0, 4, 90, 1550.402954101562
0, 4, 91, 1553.664184570312
0, 4, 92, 1487.016479492188
0, 4, 93, 1519.30810546875
0, 4, 94, 1484.64990234375
0, 4, 95, 1511.33544921875
0, 4, 96, 1443.879272460938
0, 4, 97, 1407.562377929688
0, 4, 98, 1550.180786132812
0, 4, 99, 1509.964965820312
0, 4, 100, 1488.686157226562
0, 4, 101, 1450.873046875
0, 4, 102, 1445.89111328125
0, 4, 103, 1513.2470703125
0, 4, 104, 1509.842041015625
0, 4, 105, 1560.246948242188
0, 4, 106, 1474.068481445312
0, 4, 107, 1453.790161132812
0, 4, 108, 1122.75244140625
0, 4, 109, 432.8184509277344
0, 4, 110, 96.53757476806641
0, 4, 111, 70.01059722900391
0, 4, 112, 63.29496002197266
0, 4, 113, 46.90069961547852
0, 4, 114, 47.506103515625
0, 4, 115, 43.14373779296875
0, 4, 116, 41.02627182006836
0, 4, 117, 36.39117050170898
0, 4, 118, 41.51754379272461
0, 4, 119, 41.12721633911133
0, 4, 120, 32.01776885986328
0, 4, 121, 26.51426887512207
0, 4, 122, 27.24429512023926
0, 4, 123, 28.16158866882324
0, 4, 124, 21.14676666259766
0, 4, 125, 29.61634635925293
0, 4, 126, 19.61482810974121
0, 4, 127, 23.05142593383789
0, 5, 0, 21.73764610290527
0, 5, 1, 22.38617134094238
0, 5, 2, 30.60045051574707
0, 5, 3, 28.9448070526123
0, 5, 4, 22.98083114624023
0, 5, 5, 37.47414779663086
0, 5, 6, 29.89975738525391
0, 5, 7, 32.78422546386719
0, 5, 8, 35.56047439575195
0, 5, 9, 33.31709671020508
0, 5, 10, 32.12112808227539
0, 5, 11, 40.57282638549805
0, 5, 12, 42.84856414794922
0, 5, 13, 47.82706451416016
0, 5, 14, 58.93209075927734
0, 5, 15, 82.34316253662109
0, 5, 16, 79.02642822265625
0, 5, 17, 156.2335662841797
0, 5, 18, 674.07373046875
0, 5, 19, 1350.885986328125
0, 5, 20, 1528.085205078125
0, 5, 21, 1489.506469726562
0, 5, 22, 1499.362426757812
0, 5, 23, 1533.32763671875
0, 5, 24, 1463.79248046875
0, 5, 25, 1429.719970703125
0, 5, 26, 1533.20361328125
0, 5, 27, 1541.314697265625
0, 5, 28, 1484.354248046875
0, 5, 29, 1523.748168945312
0, 5, 30, 1491.484252929688
0, 5, 31, 1508.000244140625
0, 5, 32, 1595.578491210938
0, 5, 33, 1503.4462890625
0, 5, 34, 1488.489135742188
0, 5, 35, 1511.21435546875
0, 5, 36, 1438.601318359375
0, 5, 37, 1531.1083984375
0, 5, 38, 1546.299560546875
0, 5, 39, 1551.200317382812
0, 5, 40, 1506.079345703125
0, 5, 41, 1480.717895507812
0, 5, 42, 1539.87451171875
0, 5, 43, 1531.230590820312
0, 5, 44, 1545.131103515625
0, 5, 45, 1507.99072265625
0, 5, 46, 1493.127197265625
0, 5, 47, 1483.780395507812
0, 5, 48, 1502.192260742188
0, 5, 49, 1526.182373046875
0, 5, 50, 1499.109741210938
0, 5, 51, 1518.746215820312
0, 5, 52, 1427.494262695312
0, 5, 53, 1523.076904296875
0, 5, 54, 1522.472045898438
0, 5, 55, 1525.320678710938
0, 5, 56, 1492.462768554688
0, 5, 57, 1544.620483398438
0, 5, 58, 1506.867919921875
0, 5, 59, 1491.761596679688
0, 5, 60, 1541.962036132812
0, 5, 61, 1451.6923828125
0, 5, 62, 1586.15283203125
0, 5, 63, 1441.884887695312
0, 5, 64, 1490.034790039062
0, 5, 65, 1473.275024414062
0, 5, 66, 1523.433471679688
0, 5, 67, 1559.524536132812
0, 5, 68, 1459.929443359375
0, 5, 69, 1476.192260742188
0, 5, 70, 1487.662353515625
0, 5, 71, 1471.933349609375
0, 5, 72, 1535.498901367188
0, 5, 73, 1460.323486328125
0, 5, 74, 1497.14501953125
0, 5, 75, 1483.851684570312
0, 5, 76, 1477.975708007812
0, 5, 77, 1518.469116210938
0, 5, 78, 1530.6533203125
0, 5, 79, 1510.941772460938
0, 5, 80, 1520.118286132812
0, 5, 81, 1595.872192382812
0, 5, 82, 1525.289306640625
0, 5, 83, 1490.540405273438
0, 5, 84, 1535.64599609375
0, 5, 85, 1510.12158203125
0, 5, 86, 1551.376586914062
0, 5, 87, 1472.544189453125
0, 5, 88, 1496.7333984375
0, 5, 89, 1479.208129882812
0, 5, 90, 1479.647705078125
0, 5, 91, 1553.783325195312
0, 5, 92, 1482.703247070312
0, 5, 93, 1559.4296875
0, 5, 94, 1510.667114257812
0, 5, 95, 1566.522583007812
0, 5, 96, 1501.2666015625
0, 5, 97, 1510.168701171875
0, 5, 98, 1511.36328125
0, 5, 99, 1548.884643554688
0, 5, 100, 1430.183227539062
0, 5, 101, 1432.380126953125
0, 5, 102, 1516.010986328125
0, 5, 103, 1479.899047851562
0, 5, 104, 1456.98291015625
0, 5, 105, 1492.713989257812
0, 5, 106, 1457.351806640625
0, 5, 107, 1404.795776367188
0, 5, 108, 1289.486450195312
0, 5, 109, 725.7952880859375
0, 5, 110, 190.6491546630859
0, 5, 111, 91.22747802734375
0, 5, 112, 81.60689544677734
0, 5, 113, 64.67124938964844
0, 5, 114, 59.81973648071289
0, 5, 115, 56.51551055908203
0, 5, 116, 45.05311965942383
0, 5, 117, 38.54900741577148
0, 5, 118, 39.55825424194336
0, 5, 119, 28.68117523193359
0, 5, 120, 29.18309211730957
0, 5, 121, 22.46214485168457
0, 5, 122, 26.79462623596191
0, 5, 123, 29.08172225952148
0, 5, 124, 29.8331298828125
0, 5, 125, 25.43270683288574
0, 5, 126, 19.46445846557617
0, 5, 127, 23.75285148620605
0, 6, 0, 22.67224884033203
0, 6, 1, 25.65172576904297
0, 6, 2, 27.15480804443359
0, 6, 3, 28.83949279785156
0, 6, 4, 29.44274139404297
0, 6, 5, 29.63165664672852
0, 6, 6, 34.66876983642578
0, 6, 7, 30.09093475341797
0, 6, 8, 31.6507453918457
0, 6, 9, 33.40673446655273
0, 6, 10, 37.18654632568359
0, 6, 11, 37.89743423461914
0, 6, 12, 35.0410041809082
0, 6, 13, 53.77321243286133
0, 6, 14, 67.63304138183594
0, 6, 15, 82.43148040771484
0, 6, 16, 115.8143615722656
0, 6, 17, 300.9379272460938
0, 6, 18, 900.9351806640625
0, 6, 19, 1376.4228515625
0, 6, 20, 1438.375610351562
0, 6, 21, 1529.546264648438
0, 6, 22, 1504.51513671875
0, 6, 23, 1527.600341796875
0, 6, 24, 1476.401489257812
0, 6, 25, 1525.55810546875
0, 6, 26, 1511.290283203125
0, 6, 27, 1518.918090820312
0, 6, 28, 1554.862182617188
0, 6, 29, 1573.908447265625
0, 6, 30, 1513.294921875
0, 6, 31, 1491.564575195312
0, 6, 32, 1521.8125
0, 6, 33, 1490.509887695312
0, 6, 34, 1559.61376953125
0, 6, 35, 1495.561401367188
0, 6, 36, 1439.041870117188
0, 6, 37, 1546.804077148438
0, 6, 38, 1521.15966796875
0, 6, 39, 1521.076904296875
0, 6, 40, 1459.345336914062
0, 6, 41, 1440.088256835938
0, 6, 42, 1516.255493164062
0, 6, 43, 1486.533813476562
0, 6, 44, 1430.359985351562
0, 6, 45, 1549.795288085938
0, 6, 46, 1552.952758789062
0, 6, 47, 1496.104736328125
0, 6, 48, 1526.212768554688
0, 6, 49, 1511.327880859375
0, 6, 50, 1578.910522460938
0, 6, 51, 1497.123168945312
0, 6, 52, 1564.510864257812
0, 6, 53, 1476.800415039062
0, 6, 54, 1503.302368164062
0, 6, 55, 1568.361694335938
0, 6, 56, 1523.56591796875
0, 6, 57, 1508.164306640625
0, 6, 58, 1466.46337890625
0, 6, 59, 1521.712768554688
0, 6, 60, 1470.572387695312
0, 6, 61, 1571.246948242188
0, 6, 62, 1549.340087890625
0, 6, 63, 1498.635986328125
0, 6, 64, 1409.825561523438
0, 6, 65, 1491.479370117188
0, 6, 66, 1511.537719726562
0, 6, 67, 1517.342163085938
0, 6, 68, 1550.925170898438
0, 6, 69, 1482.992919921875
0, 6, 70, 1521.162109375
0, 6, 71, 1470.366821289062
0, 6, 72, 1599.925170898438
0, 6, 73, 1486.550537109375
0, 6, 74, 1556.016235351562
0, 6, 75, 1537.934692382812
0, 6, 76, 1564.843505859375
0, 6, 77, 1500.33251953125
0, 6, 78, 1449.906982421875
0, 6, 79, 1555.254638671875
0, 6, 80, 1483.507202148438
0, 6, 81, 1487.63525390625
0, 6, 82, 1499.881958007812
0, 6, 83, 1525.011474609375
0, 6, 84, 1520.234008789062
0, 6, 85, 1535.065063476562
0, 6, 86, 1541.967041015625
0, 6, 87, 1572.447631835938
0, 6, 88, 1478.67578125
0, 6, 89, 1563.262451171875
0, 6, 90, 1494.71142578125
0, 6, 91, 1545.945678710938
0, 6, 92, 1490.259643554688
0, 6, 93, 1500.961669921875
0, 6, 94, 1473.55224609375
0, 6, 95, 1505.766845703125
0, 6, 96, 1517.422973632812
0, 6, 97, 1504.507080078125
0, 6, 98, 1500.280151367188
0, 6, 99, 1481.8310546875
0, 6, 100, 1525.482421875
0, 6, 101, 1514.992553710938
0, 6, 102, 1540.859130859375
0, 6, 103, 1499.640380859375
0, 6, 104, 1462.119384765625
0, 6, 105, 1485.165893554688
0, 6, 106, 1498.481079101562
0, 6, 107, 1504.926879882812
0, 6, 108, 1408.149780273438
0, 6, 109, 927.9111328125
0, 6, 110, 289.4722290039062
0, 6, 111, 99.13330078125
0, 6, 112, 74.39185333251953
0, 6, 113, 58.21194458007812
0, 6, 114, 53.91687393188477
0, 6, 115, 40.49067687988281
0, 6, 116, 44.63159561157227
0, 6, 117, 41.40237808227539
0, 6, 118, 46.57132339477539
0, 6, 119, 32.46442794799805
0, 6, 120, 36.1594352722168
0, 6, 121, 30.72019386291504
0, 6, 122, 26.94104194641113
0, 6, 123, 23.29659843444824
0, 6, 124, 35.99540328979492
0, 6, 125, 33.91018295288086
0, 6, 126, 21.32591438293457
0, 6, 127, 22.73590469360352
0, 7, 0, 24.43210220336914
0, 7, 1, 26.96243667602539
0, 7, 2, 25.959228515625
0, 7, 3, 24.20095252990723
0, 7, 4, 23.95951652526855
0, 7, 5, 45.73001480102539
0, 7, 6, 32.20241928100586
0, 7, 7, 36.77085494995117
0, 7, 8, 30.2498722076416
0, 7, 9, 33.60437393188477
0, 7, 10, 49.2345085144043
0, 7, 11, 43.95840835571289
0, 7, 12, 47.0048942565918
0, 7, 13, 51.82312774658203
0, 7, 14, 62.22764587402344
0, 7, 15, 81.06153869628906
0, 7, 16, 135.3326110839844
0, 7, 17, 455.6749877929688
0, 7, 18, 1097.534790039062
0, 7, 19, 1509.889770507812
0, 7, 20, 1485.600708007812
0, 7, 21, 1363.471069335938
0, 7, 22, 1486.12353515625
0, 7, 23, 1453.1103515625
0, 7, 24, 1508.613159179688
0, 7, 25, 1593.271850585938
0, 7, 26, 1517.935302734375
0, 7, 27, 1513.741088867188
0, 7, 28, 1544.199951171875
0, 7, 29, 1574.84423828125
0, 7, 30, 1547.746459960938
0, 7, 31, 1436.41259765625
0, 7, 32, 1545.750366210938
0, 7, 33, 1489.476928710938
0, 7, 34, 1480.882934570312
0, 7, 35, 1521.958618164062
0, 7, 36, 1472.704711914062
0, 7, 37, 1599.28173828125
0, 7, 38, 1504.102416992188
0, 7, 39, 1490.121459960938
0, 7, 40, 1547.209838867188
0, 7, 41, 1463.692138671875
0, 7, 42, 1487.991455078125
0, 7, 43, 1444.011840820312
0, 7, 44, 1490.307861328125
0, 7, 45, 1467.9296875
0, 7, 46, 1508.17724609375
0, 7, 47, 1561.812133789062
0, 7, 48, 1523.328369140625
0, 7, 49, 1535.819213867188
0, 7, 50, 1519.576416015625
0, 7, 51, 1498.276245117188
0, 7, 52, 1515.340454101562
0, 7, 53, 1502.0419921875
0, 7, 54, 1586.480224609375
0, 7, 55, 1473.541381835938
0, 7, 56, 1548.053344726562
0, 7, 57, 1508.52294921875
0, 7, 58, 1546.21826171875
0, 7, 59, 1540.325439453125
0, 7, 60, 1548.105834960938
0, 7, 61, 1486.006225585938
0, 7, 62, 1437.452026367188
0, 7, 63, 1509.595336914062
0, 7, 64, 1548.407348632812
0, 7, 65, 1528.365356445312
0, 7, 66, 1537.617309570312
0, 7, 67, 1578.983642578125
0, 7, 68, 1534.25537109375
0, 7, 69, 1518.241577148438
0, 7, 70, 1496.716430664062
0, 7, 71, 1521.232299804688
0, 7, 72, 1520.965576171875
0, 7, 73, 1515.189208984375
0, 7, 74, 1574.909301757812
0, 7, 75, 1538.323486328125
0, 7, 76, 1557.049560546875
0, 7, 77, 1512.99365234375
0, 7, 78, 1521.757080078125
0, 7, 79, 1427.274780273438
0, 7, 80, 1491.433837890625
0, 7, 81, 1487.10205078125
0, 7, 82, 1528.84912109375
0, 7, 83, 1540.745849609375
0, 7, 84, 1579.532348632812
0, 7, 85, 1477.470458984375
0, 7, 86, 1500.797973632812
0, 7, 87, 1502.134765625
0, 7, 88, 1508.07666015625
0, 7, 89, 1555.452026367188
0, 7, 90, 1526.963623046875
0, 7, 91, 1566.585815429688
0, 7, 92, 1532.27685546875
0, 7, 93, 1555.849365234375
0, 7, 94, 1535.850219726562
0, 7, 95, 1504.43115234375
0, 7, 96, 1510.127563476562
0, 7, 97, 1435.01611328125
0, 7, 98, 1484.589965820312
0, 7, 99, 1531.7490234375
0, 7, 100, 1422.716430664062
0, 7, 101, 1465.499389648438
0, 7, 102, 1452.13720703125
0, 7, 103, 1432.5478515625
0, 7, 104, 1494.555786132812
0, 7, 105, 1526.094482421875
0, 7, 106, 1568.635986328125
0, 7, 107, 1480.546142578125
0, 7, 108, 1410.37939453125
0, 7, 109, 1146.068115234375
0, 7, 110, 475.5539245605469
0, 7, 111, 124.6698760986328
0, 7, 112, 79.58843231201172
0, 7, 113, 69.50164794921875
0, 7, 114, 54.97076416015625
0, 7, 115, 45.23168563842773
0, 7, 116, 44.05759429931641
0, 7, 117, 46.72565841674805
0, 7, 118, 35.07771301269531
0, 7, 119, 37.82343673706055
0, 7, 120, 20.4034252166748
0, 7, 121, 33.4088020324707
0, 7, 122, 30.04350090026855
0, 7, 123, 31.43560791015625
0, 7, 124, 30.69554138183594
0, 7, 125, 26.69233322143555
0, 7, 126, 31.21508979797363
0, 7, 127, 20.16710472106934
0, 8, 0, 19.66072845458984
0, 8, 1, 24.53554916381836
0, 8, 2, 28.29654884338379
0, 8, 3, 27.26719284057617
0, 8, 4, 24.11163902282715
0, 8, 5, 34.35727691650391
0, 8, 6, 29.9577579498291
0, 8, 7, 31.85366439819336
0, 8, 8, 30.70290184020996
0, 8, 9, 50.43987655639648
0, 8, 10, 40.47246932983398
0, 8, 11, 46.20022201538086
0, 8, 12, 52.86603164672852
0, 8, 13, 73.83871459960938
0, 8, 14, 72.42909240722656
0, 8, 15, 90.50148773193359
0, 8, 16, 170.2434387207031
0, 8, 17, 674.8694458007812
0, 8, 18, 1277.160522460938
0, 8, 19, 1442.24609375
0, 8, 20, 1421.160888671875
0, 8, 21, 1405.73583984375
0, 8, 22, 1489.90673828125
0, 8, 23, 1480.607666015625
0, 8, 24, 1442.364135742188
0, 8, 25, 1457.172119140625
0, 8, 26, 1515.253662109375
0, 8, 27, 1518.932983398438
0, 8, 28, 1474.682983398438
0, 8, 29, 1508.93505859375
0, 8, 30, 1488.390502929688
0, 8, 31, 1536.624267578125
0, 8, 32, 1513.6591796875
0, 8, 33, 1478.558959960938
0, 8, 34, 1535.360961914062
0, 8, 35, 1442.794921875
0, 8, 36, 1499.871459960938
0, 8, 37, 1555.251586914062
0, 8, 38, 1555.126586914062
0, 8, 39, 1493.160522460938
0, 8, 40, 1531.177734375
0, 8, 41, 1482.859985351562
0, 8, 42, 1536.593994140625
0, 8, 43, 1437.362426757812
0, 8, 44, 1536.230102539062
0, 8, 45, 1516.896118164062
0, 8, 46, 1598.3994140625
