# TOPAS Version: 3.1.p3
# Parameter File: batch_inserts_190.txt
# Results for scorer Readout_Adipose
# Scored in component: MyBox
# X in 1 bin  of 0.75 cm
# Y in 512 bins of 0.0783984 cm
# Z in 128 bins of 0.078125 cm
# EnergyDeposit ( MeV ) : Sum   
0, 0, 0, 5.835000038146973
0, 0, 1, 2.313277721405029
0, 0, 2, 3.898370981216431
0, 0, 3, 1.379554748535156
0, 0, 4, 3.596107244491577
0, 0, 5, 5.113564968109131
0, 0, 6, 6.936723232269287
0, 0, 7, 9.159846305847168
0, 0, 8, 2.809474229812622
0, 0, 9, 3.485533714294434
0, 0, 10, 6.052692413330078
0, 0, 11, 5.039027690887451
0, 0, 12, 4.376502513885498
0, 0, 13, 6.46771764755249
0, 0, 14, 7.472779750823975
0, 0, 15, 8.905104637145996
0, 0, 16, 8.477931022644043
0, 0, 17, 8.847812652587891
0, 0, 18, 13.3110179901123
0, 0, 19, 43.86211776733398
0, 0, 20, 138.5717926025391
0, 0, 21, 223.0928039550781
0, 0, 22, 248.9610137939453
0, 0, 23, 257.107421875
0, 0, 24, 250.4527130126953
0, 0, 25, 258.4595336914062
0, 0, 26, 233.5763092041016
0, 0, 27, 237.2458343505859
0, 0, 28, 272.8790893554688
0, 0, 29, 251.8643341064453
0, 0, 30, 229.5093078613281
0, 0, 31, 243.7905120849609
0, 0, 32, 263.4560241699219
0, 0, 33, 260.7375183105469
0, 0, 34, 288.790771484375
0, 0, 35, 266.5426635742188
0, 0, 36, 246.783203125
0, 0, 37, 252.374755859375
0, 0, 38, 268.860107421875
0, 0, 39, 229.4938354492188
0, 0, 40, 241.0487976074219
0, 0, 41, 264.955078125
0, 0, 42, 229.97900390625
0, 0, 43, 260.2859497070312
0, 0, 44, 252.3468933105469
0, 0, 45, 253.4419250488281
0, 0, 46, 244.6549835205078
0, 0, 47, 255.5704040527344
0, 0, 48, 266.1430053710938
0, 0, 49, 274.5472717285156
0, 0, 50, 251.7367095947266
0, 0, 51, 254.2620849609375
0, 0, 52, 272.6861267089844
0, 0, 53, 292.049560546875
0, 0, 54, 242.4678802490234
0, 0, 55, 241.0613403320312
0, 0, 56, 278.2374267578125
0, 0, 57, 262.3648376464844
0, 0, 58, 247.3221893310547
0, 0, 59, 270.6511840820312
0, 0, 60, 233.649658203125
0, 0, 61, 245.1569061279297
0, 0, 62, 258.645751953125
0, 0, 63, 267.7042541503906
0, 0, 64, 255.1660919189453
0, 0, 65, 260.3268127441406
0, 0, 66, 276.0733032226562
0, 0, 67, 246.1844787597656
0, 0, 68, 258.1275634765625
0, 0, 69, 261.5675048828125
0, 0, 70, 271.895263671875
0, 0, 71, 238.9142761230469
0, 0, 72, 251.3784484863281
0, 0, 73, 258.7051086425781
0, 0, 74, 251.22998046875
0, 0, 75, 240.5339660644531
0, 0, 76, 228.0908203125
0, 0, 77, 259.3994140625
0, 0, 78, 258.1322326660156
0, 0, 79, 278.3888854980469
0, 0, 80, 215.012451171875
0, 0, 81, 266.2082824707031
0, 0, 82, 256.4493408203125
0, 0, 83, 245.8956604003906
0, 0, 84, 271.1994934082031
0, 0, 85, 232.98779296875
0, 0, 86, 253.1836700439453
0, 0, 87, 251.6443786621094
0, 0, 88, 260.923583984375
0, 0, 89, 284.1458740234375
0, 0, 90, 244.1483612060547
0, 0, 91, 282.4136352539062
0, 0, 92, 253.1466217041016
0, 0, 93, 249.4544067382812
0, 0, 94, 251.5408325195312
0, 0, 95, 247.4443511962891
0, 0, 96, 275.3416748046875
0, 0, 97, 272.2857055664062
0, 0, 98, 272.7501831054688
0, 0, 99, 258.8131103515625
0, 0, 100, 258.5196533203125
0, 0, 101, 226.532470703125
0, 0, 102, 232.7568054199219
0, 0, 103, 269.6466674804688
0, 0, 104, 254.1289672851562
0, 0, 105, 252.0648498535156
0, 0, 106, 245.7706451416016
0, 0, 107, 151.1700592041016
0, 0, 108, 37.52016067504883
0, 0, 109, 12.09785270690918
0, 0, 110, 12.19744110107422
0, 0, 111, 8.022109985351562
0, 0, 112, 6.92065954208374
0, 0, 113, 5.076277732849121
0, 0, 114, 7.311233043670654
0, 0, 115, 5.467521190643311
0, 0, 116, 4.967164039611816
0, 0, 117, 5.894014835357666
0, 0, 118, 7.241616725921631
0, 0, 119, 3.835324287414551
0, 0, 120, 2.743772745132446
0, 0, 121, 2.918121099472046
0, 0, 122, 6.820374965667725
0, 0, 123, 2.116643667221069
0, 0, 124, 4.238704204559326
0, 0, 125, 3.016069650650024
0, 0, 126, 3.166705131530762
0, 0, 127, 2.521465301513672
0, 1, 0, 8.368170738220215
0, 1, 1, 2.973746299743652
0, 1, 2, 3.898104906082153
0, 1, 3, 2.792198896408081
0, 1, 4, 3.508666038513184
0, 1, 5, 3.864733934402466
0, 1, 6, 5.71890115737915
0, 1, 7, 5.718443393707275
0, 1, 8, 7.098377704620361
0, 1, 9, 3.354097127914429
0, 1, 10, 6.563624858856201
0, 1, 11, 11.31050109863281
0, 1, 12, 7.439550399780273
0, 1, 13, 10.48159885406494
0, 1, 14, 9.47836971282959
0, 1, 15, 9.554527282714844
0, 1, 16, 11.67625427246094
0, 1, 17, 12.26033687591553
0, 1, 18, 20.51636123657227
0, 1, 19, 66.24933624267578
0, 1, 20, 199.2579193115234
0, 1, 21, 257.229248046875
0, 1, 22, 297.4640197753906
0, 1, 23, 283.5191040039062
0, 1, 24, 276.6242065429688
0, 1, 25, 286.4938659667969
0, 1, 26, 268.0794067382812
0, 1, 27, 306.7583312988281
0, 1, 28, 298.4666442871094
0, 1, 29, 297.0225219726562
0, 1, 30, 279.8731079101562
0, 1, 31, 292.5560302734375
0, 1, 32, 290.2289123535156
0, 1, 33, 295.6776733398438
0, 1, 34, 292.6919860839844
0, 1, 35, 278.1532592773438
0, 1, 36, 306.4683837890625
0, 1, 37, 294.0002136230469
0, 1, 38, 278.4287109375
0, 1, 39, 294.7870178222656
0, 1, 40, 267.6423645019531
0, 1, 41, 286.6641235351562
0, 1, 42, 290.6574096679688
0, 1, 43, 332.9197998046875
0, 1, 44, 280.0261840820312
0, 1, 45, 293.2289428710938
0, 1, 46, 260.2305908203125
0, 1, 47, 310.3164367675781
0, 1, 48, 285.3112182617188
0, 1, 49, 302.2781982421875
0, 1, 50, 263.9615478515625
0, 1, 51, 275.09912109375
0, 1, 52, 296.4158630371094
0, 1, 53, 303.2688598632812
0, 1, 54, 274.7752685546875
0, 1, 55, 293.3622131347656
0, 1, 56, 281.6308898925781
0, 1, 57, 299.37646484375
0, 1, 58, 311.0911560058594
0, 1, 59, 292.7863159179688
0, 1, 60, 297.8551330566406
0, 1, 61, 275.4124450683594
0, 1, 62, 307.0497436523438
0, 1, 63, 288.1300659179688
0, 1, 64, 287.4461364746094
0, 1, 65, 296.2596740722656
0, 1, 66, 291.3313293457031
0, 1, 67, 290.4970703125
0, 1, 68, 278.8324279785156
0, 1, 69, 280.0682678222656
0, 1, 70, 271.2361450195312
0, 1, 71, 272.1418762207031
0, 1, 72, 284.7582397460938
0, 1, 73, 305.0380554199219
0, 1, 74, 306.4305725097656
0, 1, 75, 293.1785278320312
0, 1, 76, 285.8521423339844
0, 1, 77, 289.76318359375
0, 1, 78, 297.8922729492188
0, 1, 79, 301.4505004882812
0, 1, 80, 297.5401916503906
0, 1, 81, 302.3480224609375
0, 1, 82, 283.2166442871094
0, 1, 83, 332.7097778320312
0, 1, 84, 307.1998596191406
0, 1, 85, 251.6054534912109
0, 1, 86, 293.9084777832031
0, 1, 87, 291.9762268066406
0, 1, 88, 298.7645568847656
0, 1, 89, 291.9261474609375
0, 1, 90, 272.4820861816406
0, 1, 91, 317.7792053222656
0, 1, 92, 289.1041564941406
0, 1, 93, 287.3216857910156
0, 1, 94, 303.902099609375
0, 1, 95, 283.5137329101562
0, 1, 96, 282.2690124511719
0, 1, 97, 303.2578430175781
0, 1, 98, 278.3205871582031
0, 1, 99, 266.6565246582031
0, 1, 100, 275.9744262695312
0, 1, 101, 280.9585876464844
0, 1, 102, 277.6902465820312
0, 1, 103, 281.5379638671875
0, 1, 104, 307.0578002929688
0, 1, 105, 296.1848754882812
0, 1, 106, 260.8623046875
0, 1, 107, 192.2920074462891
0, 1, 108, 79.93120574951172
0, 1, 109, 24.38431549072266
0, 1, 110, 11.08285808563232
0, 1, 111, 9.67188835144043
0, 1, 112, 11.29595470428467
0, 1, 113, 4.555581569671631
0, 1, 114, 5.843270301818848
0, 1, 115, 7.280324935913086
0, 1, 116, 10.57127285003662
0, 1, 117, 6.090816020965576
0, 1, 118, 5.776772975921631
0, 1, 119, 5.596223831176758
0, 1, 120, 3.729720830917358
0, 1, 121, 2.55809497833252
0, 1, 122, 2.43581485748291
0, 1, 123, 4.166619300842285
0, 1, 124, 6.466967582702637
0, 1, 125, 4.396890163421631
0, 1, 126, 3.383940935134888
0, 1, 127, 1.830484986305237
0, 2, 0, 5.851431369781494
0, 2, 1, 2.851091623306274
0, 2, 2, 4.274775981903076
0, 2, 3, 7.52772045135498
0, 2, 4, 2.357619285583496
0, 2, 5, 1.624066472053528
0, 2, 6, 2.484563112258911
0, 2, 7, 4.542266368865967
0, 2, 8, 4.227269649505615
0, 2, 9, 6.644110679626465
0, 2, 10, 9.012053489685059
0, 2, 11, 7.042949676513672
0, 2, 12, 6.779355049133301
0, 2, 13, 11.73188495635986
0, 2, 14, 9.99613094329834
0, 2, 15, 7.610334873199463
0, 2, 16, 9.527670860290527
0, 2, 17, 16.20156097412109
0, 2, 18, 28.70125007629395
0, 2, 19, 116.9824981689453
0, 2, 20, 246.7440032958984
0, 2, 21, 270.4389038085938
0, 2, 22, 317.1212768554688
0, 2, 23, 300.036865234375
0, 2, 24, 285.30859375
0, 2, 25, 302.3765258789062
0, 2, 26, 294.6700439453125
0, 2, 27, 275.5541076660156
0, 2, 28, 272.918701171875
0, 2, 29, 273.2259826660156
0, 2, 30, 287.9557495117188
0, 2, 31, 277.6421813964844
0, 2, 32, 295.6177062988281
0, 2, 33, 282.1672973632812
0, 2, 34, 331.1362609863281
0, 2, 35, 289.00439453125
0, 2, 36, 303.9893798828125
0, 2, 37, 314.8005676269531
0, 2, 38, 310.92236328125
0, 2, 39, 265.8674011230469
0, 2, 40, 309.4260559082031
0, 2, 41, 291.580078125
0, 2, 42, 302.6070556640625
0, 2, 43, 312.1725463867188
0, 2, 44, 312.0213928222656
0, 2, 45, 326.1452026367188
0, 2, 46, 288.2608642578125
0, 2, 47, 303.0055236816406
0, 2, 48, 281.0681457519531
0, 2, 49, 279.504638671875
0, 2, 50, 294.7231140136719
0, 2, 51, 284.7873229980469
0, 2, 52, 273.9984436035156
0, 2, 53, 286.6689453125
0, 2, 54, 278.4235229492188
0, 2, 55, 274.29833984375
0, 2, 56, 300.735107421875
0, 2, 57, 291.0372314453125
0, 2, 58, 301.1482238769531
0, 2, 59, 291.9104614257812
0, 2, 60, 320.0397033691406
0, 2, 61, 302.4484558105469
0, 2, 62, 312.4608459472656
0, 2, 63, 304.6468811035156
0, 2, 64, 295.0175476074219
0, 2, 65, 313.3846435546875
0, 2, 66, 279.3105163574219
0, 2, 67, 292.0708312988281
0, 2, 68, 295.7796325683594
0, 2, 69, 308.718505859375
0, 2, 70, 334.271240234375
0, 2, 71, 282.4479675292969
0, 2, 72, 300.4906921386719
0, 2, 73, 311.1500549316406
0, 2, 74, 285.8151245117188
0, 2, 75, 304.614501953125
0, 2, 76, 286.6867980957031
0, 2, 77, 301.0289916992188
0, 2, 78, 314.1231994628906
0, 2, 79, 307.8875122070312
0, 2, 80, 298.0354614257812
0, 2, 81, 283.7965393066406
0, 2, 82, 321.7431030273438
0, 2, 83, 314.8181457519531
0, 2, 84, 287.0016784667969
0, 2, 85, 282.800048828125
0, 2, 86, 326.0445861816406
0, 2, 87, 286.9115905761719
0, 2, 88, 280.331298828125
0, 2, 89, 295.8024291992188
0, 2, 90, 294.6076965332031
0, 2, 91, 276.6567993164062
0, 2, 92, 307.7310485839844
0, 2, 93, 316.2177124023438
0, 2, 94, 291.8529357910156
0, 2, 95, 314.9013366699219
0, 2, 96, 316.4115600585938
0, 2, 97, 289.156494140625
0, 2, 98, 293.5122375488281
0, 2, 99, 273.8602600097656
0, 2, 100, 305.852294921875
0, 2, 101, 302.2928771972656
0, 2, 102, 297.158935546875
0, 2, 103, 293.1934509277344
0, 2, 104, 292.0377197265625
0, 2, 105, 273.3974609375
0, 2, 106, 298.3822021484375
0, 2, 107, 269.2911071777344
0, 2, 108, 115.5397109985352
0, 2, 109, 32.0882682800293
0, 2, 110, 9.511737823486328
0, 2, 111, 11.12532520294189
0, 2, 112, 8.548552513122559
0, 2, 113, 9.408320426940918
0, 2, 114, 8.900716781616211
0, 2, 115, 9.217961311340332
0, 2, 116, 8.002199172973633
0, 2, 117, 7.514265060424805
0, 2, 118, 2.21901535987854
0, 2, 119, 4.28667163848877
0, 2, 120, 8.575201034545898
0, 2, 121, 2.244448661804199
0, 2, 122, 5.159358978271484
0, 2, 123, 4.079442024230957
0, 2, 124, 5.033803462982178
0, 2, 125, 4.422041893005371
0, 2, 126, 2.890759706497192
0, 2, 127, 4.668724060058594
0, 3, 0, 3.860872268676758
0, 3, 1, 2.805394172668457
0, 3, 2, 3.924233198165894
0, 3, 3, 1.60258674621582
0, 3, 4, 3.787494897842407
0, 3, 5, 7.569846630096436
0, 3, 6, 7.986198902130127
0, 3, 7, 5.16340160369873
0, 3, 8, 6.849522113800049
0, 3, 9, 7.681024074554443
0, 3, 10, 5.936646938323975
0, 3, 11, 4.195859909057617
0, 3, 12, 8.221280097961426
0, 3, 13, 14.13521385192871
0, 3, 14, 10.2596378326416
0, 3, 15, 13.01141738891602
0, 3, 16, 11.23012256622314
0, 3, 17, 20.08334922790527
0, 3, 18, 55.89825820922852
0, 3, 19, 174.2634429931641
0, 3, 20, 268.8823852539062
0, 3, 21, 271.5877685546875
0, 3, 22, 281.1961059570312
0, 3, 23, 285.8426818847656
0, 3, 24, 286.2156982421875
0, 3, 25, 270.4635620117188
0, 3, 26, 304.7351684570312
0, 3, 27, 291.2853088378906
0, 3, 28, 280.359619140625
0, 3, 29, 338.2994689941406
0, 3, 30, 315.5677490234375
0, 3, 31, 289.1645812988281
0, 3, 32, 307.603515625
0, 3, 33, 313.5538330078125
0, 3, 34, 321.0898132324219
0, 3, 35, 307.70361328125
0, 3, 36, 268.5664672851562
0, 3, 37, 317.0078125
0, 3, 38, 303.9113464355469
0, 3, 39, 288.968017578125
0, 3, 40, 266.2773742675781
0, 3, 41, 305.6138610839844
0, 3, 42, 284.9793701171875
0, 3, 43, 305.9330444335938
0, 3, 44, 311.1131896972656
0, 3, 45, 290.7711181640625
0, 3, 46, 329.7901611328125
0, 3, 47, 299.437744140625
0, 3, 48, 302.3525695800781
0, 3, 49, 276.9497985839844
0, 3, 50, 289.3876953125
0, 3, 51, 277.517333984375
0, 3, 52, 316.8240661621094
0, 3, 53, 287.8662414550781
0, 3, 54, 285.2734375
0, 3, 55, 284.6271057128906
0, 3, 56, 298.7315979003906
0, 3, 57, 288.4407653808594
0, 3, 58, 305.8352966308594
0, 3, 59, 293.6077575683594
0, 3, 60, 298.4609069824219
0, 3, 61, 263.7505187988281
0, 3, 62, 285.0969848632812
0, 3, 63, 306.4233093261719
0, 3, 64, 316.3849792480469
0, 3, 65, 307.6072387695312
0, 3, 66, 315.1802673339844
0, 3, 67, 317.042236328125
0, 3, 68, 279.8106079101562
0, 3, 69, 284.7047119140625
0, 3, 70, 289.4666137695312
0, 3, 71, 300.5686340332031
0, 3, 72, 270.7805480957031
0, 3, 73, 308.8155517578125
0, 3, 74, 294.9955749511719
0, 3, 75, 294.2052307128906
0, 3, 76, 304.8111877441406
0, 3, 77, 315.0432739257812
0, 3, 78, 301.7826538085938
0, 3, 79, 282.4982299804688
0, 3, 80, 289.1667175292969
0, 3, 81, 313.0458068847656
0, 3, 82, 315.5993041992188
0, 3, 83, 300.008056640625
0, 3, 84, 311.0252075195312
0, 3, 85, 293.016845703125
0, 3, 86, 302.4169006347656
0, 3, 87, 297.781005859375
0, 3, 88, 298.45166015625
0, 3, 89, 294.8289184570312
0, 3, 90, 275.3594970703125
0, 3, 91, 287.1076965332031
0, 3, 92, 302.7861633300781
0, 3, 93, 311.8604736328125
0, 3, 94, 297.3374328613281
0, 3, 95, 333.7825317382812
0, 3, 96, 289.1610717773438
0, 3, 97, 284.8116149902344
0, 3, 98, 278.4382019042969
0, 3, 99, 260.6352233886719
0, 3, 100, 282.7117614746094
0, 3, 101, 296.3808288574219
0, 3, 102, 276.126953125
0, 3, 103, 320.2698364257812
0, 3, 104, 308.7025146484375
0, 3, 105, 288.8309631347656
0, 3, 106, 304.7149963378906
0, 3, 107, 284.2529907226562
0, 3, 108, 166.8971710205078
0, 3, 109, 55.78665542602539
0, 3, 110, 16.9826717376709
0, 3, 111, 12.94529247283936
0, 3, 112, 14.97690105438232
0, 3, 113, 6.688995361328125
0, 3, 114, 9.153714179992676
0, 3, 115, 6.592719078063965
0, 3, 116, 8.490825653076172
0, 3, 117, 6.409721851348877
0, 3, 118, 8.490955352783203
0, 3, 119, 5.12643575668335
0, 3, 120, 6.798489570617676
0, 3, 121, 1.839203357696533
0, 3, 122, 3.823917865753174
0, 3, 123, 5.622358798980713
0, 3, 124, 3.156759738922119
0, 3, 125, 7.295174598693848
0, 3, 126, 4.048871040344238
0, 3, 127, 2.158691644668579
0, 4, 0, 4.686170101165771
0, 4, 1, 5.708940029144287
0, 4, 2, 3.374223709106445
0, 4, 3, 1.178219556808472
0, 4, 4, 5.657941818237305
0, 4, 5, 7.240368843078613
0, 4, 6, 6.356819629669189
0, 4, 7, 5.386658191680908
0, 4, 8, 6.715179443359375
0, 4, 9, 6.002432346343994
0, 4, 10, 6.957547187805176
0, 4, 11, 6.64121675491333
0, 4, 12, 6.051191329956055
0, 4, 13, 9.77674674987793
0, 4, 14, 10.81806182861328
0, 4, 15, 10.15669631958008
0, 4, 16, 14.30234432220459
0, 4, 17, 18.95038414001465
0, 4, 18, 91.58452606201172
0, 4, 19, 223.2206268310547
0, 4, 20, 284.6199035644531
0, 4, 21, 273.4845275878906
0, 4, 22, 304.5848388671875
0, 4, 23, 267.9520874023438
0, 4, 24, 288.7156677246094
0, 4, 25, 271.8604736328125
0, 4, 26, 295.5860900878906
0, 4, 27, 281.8297424316406
0, 4, 28, 308.4211120605469
0, 4, 29, 321.9363403320312
0, 4, 30, 309.8926696777344
0, 4, 31, 306.7447509765625
0, 4, 32, 281.0914611816406
0, 4, 33, 296.4902954101562
0, 4, 34, 295.8768005371094
0, 4, 35, 312.3612976074219
0, 4, 36, 294.7074279785156
0, 4, 37, 289.7826232910156
0, 4, 38, 297.8196716308594
0, 4, 39, 295.5616149902344
0, 4, 40, 302.0176696777344
0, 4, 41, 311.8829345703125
0, 4, 42, 330.0169067382812
0, 4, 43, 298.0469055175781
0, 4, 44, 320.176513671875
0, 4, 45, 324.2247314453125
0, 4, 46, 305.0621948242188
0, 4, 47, 293.7048950195312
0, 4, 48, 297.0071105957031
0, 4, 49, 277.1434631347656
0, 4, 50, 296.2840270996094
0, 4, 51, 317.7161865234375
0, 4, 52, 328.3946228027344
0, 4, 53, 304.414306640625
0, 4, 54, 286.927734375
0, 4, 55, 314.0285339355469
0, 4, 56, 284.4161987304688
0, 4, 57, 309.1690979003906
0, 4, 58, 296.7649230957031
0, 4, 59, 308.5459594726562
0, 4, 60, 301.9463500976562
0, 4, 61, 315.3344421386719
0, 4, 62, 311.3580627441406
0, 4, 63, 299.6068420410156
0, 4, 64, 332.0484313964844
0, 4, 65, 315.2994384765625
0, 4, 66, 293.5795593261719
0, 4, 67, 284.6044311523438
0, 4, 68, 312.1985778808594
0, 4, 69, 275.53173828125
0, 4, 70, 299.3720703125
0, 4, 71, 320.7506408691406
0, 4, 72, 335.7165222167969
0, 4, 73, 300.6162109375
0, 4, 74, 291.7803955078125
0, 4, 75, 290.3427429199219
0, 4, 76, 274.7488098144531
0, 4, 77, 276.8818054199219
0, 4, 78, 311.3714904785156
0, 4, 79, 317.5301818847656
0, 4, 80, 318.0342407226562
0, 4, 81, 312.2388916015625
0, 4, 82, 297.163818359375
0, 4, 83, 301.2414245605469
0, 4, 84, 290.3909606933594
0, 4, 85, 294.3132019042969
0, 4, 86, 298.2492980957031
0, 4, 87, 285.5715942382812
0, 4, 88, 308.3639831542969
0, 4, 89, 294.8385314941406
0, 4, 90, 331.8265991210938
0, 4, 91, 302.0940551757812
0, 4, 92, 291.02734375
0, 4, 93, 295.5333251953125
0, 4, 94, 291.5910339355469
0, 4, 95, 288.4145812988281
0, 4, 96, 324.8392333984375
0, 4, 97, 274.4227294921875
0, 4, 98, 327.381591796875
0, 4, 99, 312.8224487304688
0, 4, 100, 300.9919128417969
0, 4, 101, 258.7648620605469
0, 4, 102, 297.2099914550781
0, 4, 103, 317.9268493652344
0, 4, 104, 281.7997436523438
0, 4, 105, 310.4470825195312
0, 4, 106, 288.6109924316406
0, 4, 107, 294.8948669433594
0, 4, 108, 226.144287109375
0, 4, 109, 78.75917053222656
0, 4, 110, 16.06148529052734
0, 4, 111, 13.50864028930664
0, 4, 112, 8.509696006774902
0, 4, 113, 10.53651332855225
0, 4, 114, 9.828092575073242
0, 4, 115, 11.02915668487549
0, 4, 116, 6.792929172515869
0, 4, 117, 6.67530632019043
0, 4, 118, 9.603535652160645
0, 4, 119, 12.12510585784912
0, 4, 120, 7.493244171142578
0, 4, 121, 5.42068338394165
0, 4, 122, 3.086994409561157
0, 4, 123, 6.460811138153076
0, 4, 124, 4.63691234588623
0, 4, 125, 8.582366943359375
0, 4, 126, 4.400892734527588
0, 4, 127, 4.97223424911499
0, 5, 0, 4.11309814453125
0, 5, 1, 3.878690958023071
0, 5, 2, 6.664669990539551
0, 5, 3, 3.267271280288696
0, 5, 4, 6.751559257507324
0, 5, 5, 8.282146453857422
0, 5, 6, 7.277287483215332
0, 5, 7, 5.990898609161377
0, 5, 8, 5.384642601013184
0, 5, 9, 4.800789833068848
0, 5, 10, 6.113176822662354
0, 5, 11, 6.704930782318115
0, 5, 12, 7.546088695526123
0, 5, 13, 4.161680221557617
0, 5, 14, 13.0994176864624
0, 5, 15, 17.10886573791504
0, 5, 16, 15.1994457244873
0, 5, 17, 28.6031436920166
0, 5, 18, 135.7295074462891
0, 5, 19, 286.5205383300781
0, 5, 20, 308.3546752929688
0, 5, 21, 316.7224731445312
0, 5, 22, 275.9280090332031
0, 5, 23, 310.2409362792969
0, 5, 24, 301.8116760253906
0, 5, 25, 289.2082214355469
0, 5, 26, 294.2575073242188
0, 5, 27, 323.5323791503906
0, 5, 28, 302.455322265625
0, 5, 29, 297.3674926757812
0, 5, 30, 324.1930541992188
0, 5, 31, 285.3504638671875
0, 5, 32, 301.3316955566406
0, 5, 33, 304.4894714355469
0, 5, 34, 297.1010437011719
0, 5, 35, 309.3067932128906
0, 5, 36, 268.4586486816406
0, 5, 37, 284.0940551757812
0, 5, 38, 292.8050537109375
0, 5, 39, 311.9623718261719
0, 5, 40, 307.8980712890625
0, 5, 41, 274.0839233398438
0, 5, 42, 306.6030883789062
0, 5, 43, 311.6295776367188
0, 5, 44, 292.0338134765625
0, 5, 45, 300.1315612792969
0, 5, 46, 266.1061096191406
0, 5, 47, 278.9251098632812
0, 5, 48, 294.412109375
0, 5, 49, 287.187744140625
0, 5, 50, 295.6094665527344
0, 5, 51, 278.7549133300781
0, 5, 52, 269.1112976074219
0, 5, 53, 285.7247009277344
0, 5, 54, 290.5361633300781
0, 5, 55, 343.9624938964844
0, 5, 56, 305.7592468261719
0, 5, 57, 306.4509887695312
0, 5, 58, 313.4764404296875
0, 5, 59, 305.5066528320312
0, 5, 60, 308.3017578125
0, 5, 61, 281.5439453125
0, 5, 62, 325.4877624511719
0, 5, 63, 290.938232421875
0, 5, 64, 322.860595703125
0, 5, 65, 307.3017883300781
0, 5, 66, 327.5759887695312
0, 5, 67, 311.683349609375
0, 5, 68, 310.5043640136719
0, 5, 69, 311.8562927246094
0, 5, 70, 302.5267028808594
0, 5, 71, 272.9450988769531
0, 5, 72, 311.728515625
0, 5, 73, 303.6279602050781
0, 5, 74, 295.9161376953125
0, 5, 75, 294.1595458984375
0, 5, 76, 286.5776062011719
0, 5, 77, 298.7771606445312
0, 5, 78, 319.1686096191406
0, 5, 79, 306.7492370605469
0, 5, 80, 294.1050415039062
0, 5, 81, 324.6826782226562
0, 5, 82, 323.3124694824219
0, 5, 83, 280.509765625
0, 5, 84, 303.2804870605469
0, 5, 85, 272.826904296875
0, 5, 86, 326.9096374511719
0, 5, 87, 283.993896484375
0, 5, 88, 316.1484680175781
0, 5, 89, 308.015380859375
0, 5, 90, 315.251953125
0, 5, 91, 312.9337158203125
0, 5, 92, 295.9558410644531
0, 5, 93, 323.1679992675781
0, 5, 94, 308.4220275878906
0, 5, 95, 295.5873107910156
0, 5, 96, 298.2918701171875
0, 5, 97, 297.5054321289062
0, 5, 98, 320.6381530761719
0, 5, 99, 302.8547973632812
0, 5, 100, 288.7596435546875
0, 5, 101, 305.7305603027344
0, 5, 102, 291.0702209472656
0, 5, 103, 313.9359130859375
0, 5, 104, 303.460205078125
0, 5, 105, 291.3077087402344
0, 5, 106, 281.7090759277344
0, 5, 107, 291.7321472167969
0, 5, 108, 267.2546081542969
0, 5, 109, 158.7127685546875
0, 5, 110, 40.00561904907227
0, 5, 111, 19.81930160522461
0, 5, 112, 19.8470344543457
0, 5, 113, 14.06285953521729
0, 5, 114, 12.34830951690674
0, 5, 115, 6.536542892456055
0, 5, 116, 7.913913249969482
0, 5, 117, 8.629053115844727
0, 5, 118, 13.34611225128174
0, 5, 119, 4.137217044830322
0, 5, 120, 7.242958068847656
0, 5, 121, 7.039247512817383
0, 5, 122, 6.190090179443359
0, 5, 123, 4.390353679656982
0, 5, 124, 5.573306560516357
0, 5, 125, 5.105887413024902
0, 5, 126, 6.870273113250732
0, 5, 127, 3.720170736312866
0, 6, 0, 3.535215616226196
0, 6, 1, 3.351786851882935
0, 6, 2, 6.498719215393066
0, 6, 3, 6.063591957092285
0, 6, 4, 3.651756763458252
0, 6, 5, 6.058190822601318
0, 6, 6, 7.276687622070312
0, 6, 7, 6.570786476135254
0, 6, 8, 5.085373878479004
0, 6, 9, 5.148537635803223
0, 6, 10, 7.637324333190918
0, 6, 11, 8.742996215820312
0, 6, 12, 11.08070278167725
0, 6, 13, 16.5578670501709
0, 6, 14, 11.62802696228027
0, 6, 15, 15.70847034454346
0, 6, 16, 27.66692352294922
0, 6, 17, 54.70312118530273
0, 6, 18, 173.6786956787109
0, 6, 19, 276.9637451171875
0, 6, 20, 291.193603515625
0, 6, 21, 315.1509399414062
0, 6, 22, 319.0945434570312
0, 6, 23, 305.2849731445312
0, 6, 24, 315.7185668945312
0, 6, 25, 315.5011901855469
0, 6, 26, 319.560791015625
0, 6, 27, 331.0242919921875
0, 6, 28, 294.4214477539062
0, 6, 29, 332.1289367675781
0, 6, 30, 285.4073791503906
0, 6, 31, 285.6640930175781
0, 6, 32, 341.1277160644531
0, 6, 33, 303.7770385742188
0, 6, 34, 341.0328063964844
0, 6, 35, 319.7420349121094
0, 6, 36, 278.0035705566406
0, 6, 37, 289.6193542480469
0, 6, 38, 312.9870910644531
0, 6, 39, 298.6324768066406
0, 6, 40, 283.3075561523438
0, 6, 41, 294.1972961425781
0, 6, 42, 304.349853515625
0, 6, 43, 287.6941528320312
0, 6, 44, 278.9314880371094
0, 6, 45, 318.6231689453125
0, 6, 46, 301.5527038574219
0, 6, 47, 333.3424682617188
0, 6, 48, 293.7532958984375
0, 6, 49, 313.807373046875
0, 6, 50, 329.4921569824219
0, 6, 51, 309.6087036132812
0, 6, 52, 322.1344909667969
0, 6, 53, 328.0821228027344
0, 6, 54, 302.9849853515625
0, 6, 55, 306.4054565429688
0, 6, 56, 294.2549743652344
0, 6, 57, 312.8923034667969
0, 6, 58, 262.5701599121094
0, 6, 59, 301.8093566894531
0, 6, 60, 312.8848876953125
0, 6, 61, 270.7051391601562
0, 6, 62, 335.8493041992188
0, 6, 63, 323.9698791503906
0, 6, 64, 291.0495910644531
0, 6, 65, 283.6032104492188
0, 6, 66, 302.4876098632812
0, 6, 67, 309.3434448242188
0, 6, 68, 293.3655090332031
0, 6, 69, 278.3393859863281
0, 6, 70, 274.8125915527344
0, 6, 71, 289.46630859375
0, 6, 72, 310.3813781738281
0, 6, 73, 293.7044372558594
0, 6, 74, 329.9877319335938
0, 6, 75, 344.32470703125
0, 6, 76, 296.7892150878906
0, 6, 77, 285.0680236816406
0, 6, 78, 277.9462585449219
0, 6, 79, 295.48193359375
0, 6, 80, 298.5562438964844
0, 6, 81, 315.2981567382812
0, 6, 82, 320.1179809570312
0, 6, 83, 321.618408203125
0, 6, 84, 296.4826354980469
0, 6, 85, 301.48193359375
0, 6, 86, 329.78759765625
0, 6, 87, 290.0234069824219
0, 6, 88, 306.997802734375
0, 6, 89, 305.0341491699219
0, 6, 90, 298.9237365722656
0, 6, 91, 311.6537475585938
0, 6, 92, 286.5546569824219
0, 6, 93, 296.2044677734375
0, 6, 94, 272.7773132324219
0, 6, 95, 300.7302551269531
0, 6, 96, 347.2529296875
0, 6, 97, 309.6577758789062
0, 6, 98, 301.2915344238281
0, 6, 99, 275.1069030761719
0, 6, 100, 312.138427734375
0, 6, 101, 292.9708862304688
0, 6, 102, 307.1618347167969
0, 6, 103, 307.0664672851562
0, 6, 104, 292.5164184570312
0, 6, 105, 300.8352966308594
0, 6, 106, 306.9882507324219
0, 6, 107, 307.6293029785156
0, 6, 108, 266.2376403808594
0, 6, 109, 187.2057495117188
0, 6, 110, 57.5518798828125
0, 6, 111, 21.55558395385742
0, 6, 112, 13.93271255493164
0, 6, 113, 10.86904811859131
0, 6, 114, 13.01149749755859
0, 6, 115, 12.22870635986328
0, 6, 116, 10.98510456085205
0, 6, 117, 7.789781093597412
0, 6, 118, 10.43421936035156
0, 6, 119, 12.60833644866943
0, 6, 120, 5.072554588317871
0, 6, 121, 5.18255090713501
0, 6, 122, 5.950949668884277
0, 6, 123, 4.720797538757324
0, 6, 124, 5.048063278198242
0, 6, 125, 8.83538818359375
0, 6, 126, 3.304215431213379
0, 6, 127, 6.73210334777832
0, 7, 0, 6.027539730072021
0, 7, 1, 3.437938213348389
0, 7, 2, 6.417791366577148
0, 7, 3, 2.841176271438599
0, 7, 4, 6.787597179412842
0, 7, 5, 5.573287963867188
0, 7, 6, 5.735676288604736
0, 7, 7, 5.347527027130127
0, 7, 8, 6.530779361724854
0, 7, 9, 8.974514007568359
0, 7, 10, 9.051780700683594
0, 7, 11, 13.69673919677734
0, 7, 12, 13.20017910003662
0, 7, 13, 12.075514793396
0, 7, 14, 11.73567295074463
0, 7, 15, 15.41929817199707
0, 7, 16, 26.51766586303711
0, 7, 17, 98.55775451660156
0, 7, 18, 219.6126861572266
0, 7, 19, 288.9989318847656
0, 7, 20, 294.9492492675781
0, 7, 21, 276.5004577636719
0, 7, 22, 299.5276794433594
0, 7, 23, 289.5357055664062
0, 7, 24, 313.47021484375
0, 7, 25, 324.7552490234375
0, 7, 26, 276.6831970214844
0, 7, 27, 298.4364013671875
0, 7, 28, 327.8938293457031
0, 7, 29, 318.224853515625
0, 7, 30, 299.6130065917969
0, 7, 31, 277.4167175292969
0, 7, 32, 306.5419616699219
0, 7, 33, 260.521728515625
0, 7, 34, 296.9610595703125
0, 7, 35, 321.8086853027344
0, 7, 36, 330.6327514648438
0, 7, 37, 323.7422180175781
0, 7, 38, 297.8856506347656
0, 7, 39, 307.279296875
0, 7, 40, 290.552490234375
0, 7, 41, 272.2882690429688
0, 7, 42, 301.1717529296875
0, 7, 43, 278.0090026855469
0, 7, 44, 305.66064453125
0, 7, 45, 295.6340942382812
0, 7, 46, 284.6101684570312
0, 7, 47, 328.8165283203125
0, 7, 48, 287.6477355957031
0, 7, 49, 302.2641296386719
0, 7, 50, 320.8646850585938
0, 7, 51, 299.4761962890625
0, 7, 52, 327.0901794433594
0, 7, 53, 308.9310607910156
0, 7, 54, 324.8283081054688
0, 7, 55, 306.7230529785156
0, 7, 56, 283.4481201171875
0, 7, 57, 284.2389831542969
0, 7, 58, 297.3030700683594
0, 7, 59, 293.5980834960938
0, 7, 60, 321.6190795898438
0, 7, 61, 277.2833557128906
0, 7, 62, 297.3458251953125
0, 7, 63, 293.3625793457031
0, 7, 64, 306.4733276367188
0, 7, 65, 331.7496948242188
0, 7, 66, 319.72119140625
0, 7, 67, 302.7678833007812
0, 7, 68, 279.4581909179688
0, 7, 69, 295.5143432617188
0, 7, 70, 302.7014465332031
0, 7, 71, 310.5558166503906
0, 7, 72, 283.2670288085938
0, 7, 73, 295.2662353515625
0, 7, 74, 343.4952392578125
0, 7, 75, 317.9150390625
0, 7, 76, 322.2975158691406
0, 7, 77, 281.4585266113281
0, 7, 78, 299.8586120605469
0, 7, 79, 297.2775573730469
0, 7, 80, 310.6818237304688
0, 7, 81, 319.7612609863281
0, 7, 82, 329.0914306640625
0, 7, 83, 318.3938598632812
0, 7, 84, 309.0911865234375
0, 7, 85, 271.9201965332031
0, 7, 86, 313.1636962890625
0, 7, 87, 314.0562133789062
0, 7, 88, 307.15673828125
0, 7, 89, 294.1628112792969
0, 7, 90, 308.4342651367188
0, 7, 91, 314.1739501953125
0, 7, 92, 290.332763671875
0, 7, 93, 307.953857421875
0, 7, 94, 277.4231262207031
0, 7, 95, 297.2976684570312
0, 7, 96, 329.009033203125
0, 7, 97, 295.6717529296875
0, 7, 98, 290.6629943847656
0, 7, 99, 313.549072265625
0, 7, 100, 283.1768798828125
0, 7, 101, 276.2974548339844
0, 7, 102, 292.9728393554688
0, 7, 103, 291.2326049804688
0, 7, 104, 274.1372375488281
0, 7, 105, 306.17822265625
0, 7, 106, 318.0731811523438
0, 7, 107, 296.2066345214844
0, 7, 108, 273.8685302734375
0, 7, 109, 236.9765777587891
0, 7, 110, 94.49651336669922
0, 7, 111, 23.43843460083008
0, 7, 112, 14.47355842590332
0, 7, 113, 13.2945556640625
0, 7, 114, 12.03966617584229
0, 7, 115, 14.67277431488037
0, 7, 116, 8.579619407653809
0, 7, 117, 4.385301113128662
0, 7, 118, 6.560315132141113
0, 7, 119, 5.868250846862793
0, 7, 120, 4.829497814178467
0, 7, 121, 6.82611083984375
0, 7, 122, 5.206957817077637
0, 7, 123, 7.139624118804932
0, 7, 124, 2.501468658447266
0, 7, 125, 5.752806663513184
0, 7, 126, 8.71048641204834
0, 7, 127, 3.509447336196899
0, 8, 0, 5.758155822753906
0, 8, 1, 4.023536682128906
0, 8, 2, 2.920528173446655
0, 8, 3, 4.934762001037598
0, 8, 4, 4.639710903167725
0, 8, 5, 5.494885921478271
0, 8, 6, 5.05098819732666
0, 8, 7, 5.172866821289062
0, 8, 8, 8.262710571289062
0, 8, 9, 5.987741470336914
0, 8, 10, 7.057789325714111
0, 8, 11, 11.83681964874268
0, 8, 12, 11.95119667053223
0, 8, 13, 14.47832202911377
0, 8, 14, 13.54572582244873
0, 8, 15, 18.9497127532959
0, 8, 16, 31.90065956115723
0, 8, 17, 131.8182525634766
0, 8, 18, 242.2942199707031
0, 8, 19, 294.2646179199219
0, 8, 20, 285.6343078613281
0, 8, 21, 305.7229919433594
0, 8, 22, 295.4295349121094
0, 8, 23, 274.4660949707031
0, 8, 24, 268.3031311035156
0, 8, 25, 274.8117370605469
0, 8, 26, 305.8290100097656
0, 8, 27, 307.1134033203125
0, 8, 28, 303.0533142089844
0, 8, 29, 320.0670471191406
0, 8, 30, 315.1664733886719
0, 8, 31, 303.7431335449219
0, 8, 32, 280.4543151855469
0, 8, 33, 293.574462890625
0, 8, 34, 289.3611755371094
0, 8, 35, 280.0061950683594
0, 8, 36, 314.3565063476562
0, 8, 37, 342.0252685546875
0, 8, 38, 330.7332458496094
0, 8, 39, 280.7226257324219
0, 8, 40, 305.0831604003906
0, 8, 41, 293.0255126953125
