# TOPAS Version: 3.1.p3
# Parameter File: batch_inserts_344.txt
# Results for scorer Readout_Adipose
# Scored in component: MyBox
# X in 1 bin  of 0.75 cm
# Y in 512 bins of 0.0783984 cm
# Z in 128 bins of 0.078125 cm
# EnergyDeposit ( MeV ) : Sum   
0, 0, 0, 18.00385665893555
0, 0, 1, 24.48137474060059
0, 0, 2, 32.40739059448242
0, 0, 3, 27.81160163879395
0, 0, 4, 19.13767242431641
0, 0, 5, 21.90045928955078
0, 0, 6, 24.90175437927246
0, 0, 7, 32.71878051757812
0, 0, 8, 19.68876457214355
0, 0, 9, 20.93488121032715
0, 0, 10, 25.17377281188965
0, 0, 11, 25.16093635559082
0, 0, 12, 33.31889724731445
0, 0, 13, 28.60494804382324
0, 0, 14, 39.46907806396484
0, 0, 15, 42.39573669433594
0, 0, 16, 43.70369720458984
0, 0, 17, 47.53830337524414
0, 0, 18, 77.69338226318359
0, 0, 19, 191.95068359375
0, 0, 20, 699.7184448242188
0, 0, 21, 1193.150512695312
0, 0, 22, 1251.08837890625
0, 0, 23, 1278.93994140625
0, 0, 24, 1284.721557617188
0, 0, 25, 1355.765625
0, 0, 26, 1269.616455078125
0, 0, 27, 1278.212036132812
0, 0, 28, 1322.149658203125
0, 0, 29, 1270.329467773438
0, 0, 30, 1261.081909179688
0, 0, 31, 1276.923583984375
0, 0, 32, 1266.2646484375
0, 0, 33, 1245.160888671875
0, 0, 34, 1327.141357421875
0, 0, 35, 1300.974365234375
0, 0, 36, 1245.4658203125
0, 0, 37, 1285.4443359375
0, 0, 38, 1245.264892578125
0, 0, 39, 1246.826049804688
0, 0, 40, 1223.00341796875
0, 0, 41, 1267.984985351562
0, 0, 42, 1253.897338867188
0, 0, 43, 1270.761352539062
0, 0, 44, 1219.85498046875
0, 0, 45, 1288.947143554688
0, 0, 46, 1261.215087890625
0, 0, 47, 1237.116455078125
0, 0, 48, 1275.69140625
0, 0, 49, 1285.33984375
0, 0, 50, 1307.921508789062
0, 0, 51, 1260.493774414062
0, 0, 52, 1359.805541992188
0, 0, 53, 1322.586303710938
0, 0, 54, 1295.977416992188
0, 0, 55, 1239.329711914062
0, 0, 56, 1320.26708984375
0, 0, 57, 1291.578369140625
0, 0, 58, 1253.718383789062
0, 0, 59, 1329.041259765625
0, 0, 60, 1328.333862304688
0, 0, 61, 1261.407104492188
0, 0, 62, 1240.387329101562
0, 0, 63, 1282.90087890625
0, 0, 64, 1332.793579101562
0, 0, 65, 1286.815307617188
0, 0, 66, 1319.28125
0, 0, 67, 1214.316528320312
0, 0, 68, 1310.158081054688
0, 0, 69, 1326.780151367188
0, 0, 70, 1342.739501953125
0, 0, 71, 1288.117431640625
0, 0, 72, 1312.75634765625
0, 0, 73, 1242.874267578125
0, 0, 74, 1295.13818359375
0, 0, 75, 1293.178588867188
0, 0, 76, 1254.785400390625
0, 0, 77, 1288.698974609375
0, 0, 78, 1314.819213867188
0, 0, 79, 1328.063110351562
0, 0, 80, 1262.763427734375
0, 0, 81, 1321.831298828125
0, 0, 82, 1287.06884765625
0, 0, 83, 1291.723999023438
0, 0, 84, 1331.529296875
0, 0, 85, 1232.534545898438
0, 0, 86, 1262.047973632812
0, 0, 87, 1247.760009765625
0, 0, 88, 1254.981201171875
0, 0, 89, 1339.31396484375
0, 0, 90, 1277.115600585938
0, 0, 91, 1355.16162109375
0, 0, 92, 1304.1103515625
0, 0, 93, 1268.500854492188
0, 0, 94, 1246.8359375
0, 0, 95, 1329.339721679688
0, 0, 96, 1282.753662109375
0, 0, 97, 1323.814697265625
0, 0, 98, 1261.11865234375
0, 0, 99, 1249.696166992188
0, 0, 100, 1287.363891601562
0, 0, 101, 1312.828857421875
0, 0, 102, 1232.33837890625
0, 0, 103, 1321.737182617188
0, 0, 104, 1261.145263671875
0, 0, 105, 1267.119384765625
0, 0, 106, 1209.642578125
0, 0, 107, 785.6463623046875
0, 0, 108, 195.9588928222656
0, 0, 109, 68.96230316162109
0, 0, 110, 60.65099334716797
0, 0, 111, 38.87351989746094
0, 0, 112, 32.15186309814453
0, 0, 113, 32.25204467773438
0, 0, 114, 40.06807708740234
0, 0, 115, 29.85945892333984
0, 0, 116, 24.15256500244141
0, 0, 117, 29.52518081665039
0, 0, 118, 24.98171043395996
0, 0, 119, 24.05142784118652
0, 0, 120, 27.2335262298584
0, 0, 121, 26.98597145080566
0, 0, 122, 26.5787410736084
0, 0, 123, 17.52441215515137
0, 0, 124, 17.29817771911621
0, 0, 125, 23.16707038879395
0, 0, 126, 20.89483642578125
0, 0, 127, 16.90346908569336
0, 1, 0, 21.55591773986816
0, 1, 1, 19.16005516052246
0, 1, 2, 20.67307472229004
0, 1, 3, 18.10712242126465
0, 1, 4, 19.40002822875977
0, 1, 5, 24.21513366699219
0, 1, 6, 19.53027534484863
0, 1, 7, 22.08083724975586
0, 1, 8, 34.67616271972656
0, 1, 9, 28.15467834472656
0, 1, 10, 35.29046249389648
0, 1, 11, 39.57103729248047
0, 1, 12, 39.2866325378418
0, 1, 13, 43.25738906860352
0, 1, 14, 39.81184768676758
0, 1, 15, 44.71377563476562
0, 1, 16, 59.9382209777832
0, 1, 17, 60.61608123779297
0, 1, 18, 99.14488983154297
0, 1, 19, 401.6996459960938
0, 1, 20, 1037.701049804688
0, 1, 21, 1372.499267578125
0, 1, 22, 1477.352783203125
0, 1, 23, 1462.417358398438
0, 1, 24, 1455.861206054688
0, 1, 25, 1419.40478515625
0, 1, 26, 1471.102172851562
0, 1, 27, 1466.693481445312
0, 1, 28, 1486.09716796875
0, 1, 29, 1480.099487304688
0, 1, 30, 1508.8974609375
0, 1, 31, 1483.055297851562
0, 1, 32, 1408.619750976562
0, 1, 33, 1504.71728515625
0, 1, 34, 1500.63330078125
0, 1, 35, 1462.719482421875
0, 1, 36, 1487.94873046875
0, 1, 37, 1408.542358398438
0, 1, 38, 1399.57470703125
0, 1, 39, 1525.1650390625
0, 1, 40, 1459.138671875
0, 1, 41, 1489.267456054688
0, 1, 42, 1494.76953125
0, 1, 43, 1502.627319335938
0, 1, 44, 1451.500854492188
0, 1, 45, 1487.536010742188
0, 1, 46, 1416.88916015625
0, 1, 47, 1431.917114257812
0, 1, 48, 1433.66455078125
0, 1, 49, 1486.146728515625
0, 1, 50, 1443.856689453125
0, 1, 51, 1474.544921875
0, 1, 52, 1474.052612304688
0, 1, 53, 1472.728759765625
0, 1, 54, 1504.423828125
0, 1, 55, 1494.525390625
0, 1, 56, 1467.280639648438
0, 1, 57, 1456.172485351562
0, 1, 58, 1429.319946289062
0, 1, 59, 1481.698364257812
0, 1, 60, 1468.239013671875
0, 1, 61, 1448.2431640625
0, 1, 62, 1449.695068359375
0, 1, 63, 1415.17919921875
0, 1, 64, 1474.302124023438
0, 1, 65, 1418.328247070312
0, 1, 66, 1440.135986328125
0, 1, 67, 1456.039306640625
0, 1, 68, 1386.713012695312
0, 1, 69, 1458.370483398438
0, 1, 70, 1427.74072265625
0, 1, 71, 1496.694458007812
0, 1, 72, 1435.958862304688
0, 1, 73, 1485.905639648438
0, 1, 74, 1469.459350585938
0, 1, 75, 1476.9619140625
0, 1, 76, 1453.718139648438
0, 1, 77, 1463.600830078125
0, 1, 78, 1447.515625
0, 1, 79, 1507.02197265625
0, 1, 80, 1449.86279296875
0, 1, 81, 1421.998291015625
0, 1, 82, 1469.543090820312
0, 1, 83, 1462.812133789062
0, 1, 84, 1535.68994140625
0, 1, 85, 1453.42919921875
0, 1, 86, 1405.70947265625
0, 1, 87, 1422.84375
0, 1, 88, 1469.662231445312
0, 1, 89, 1472.610229492188
0, 1, 90, 1427.106811523438
0, 1, 91, 1463.417358398438
0, 1, 92, 1413.968872070312
0, 1, 93, 1460.976318359375
0, 1, 94, 1466.677124023438
0, 1, 95, 1423.318969726562
0, 1, 96, 1499.215698242188
0, 1, 97, 1516.807495117188
0, 1, 98, 1472.358520507812
0, 1, 99, 1415.567138671875
0, 1, 100, 1447.298950195312
0, 1, 101, 1415.38525390625
0, 1, 102, 1437.780395507812
0, 1, 103, 1413.725708007812
0, 1, 104, 1408.946411132812
0, 1, 105, 1460.589233398438
0, 1, 106, 1367.186157226562
0, 1, 107, 1025.769897460938
0, 1, 108, 407.1935119628906
0, 1, 109, 88.09910583496094
0, 1, 110, 65.74083709716797
0, 1, 111, 52.34860229492188
0, 1, 112, 47.33097076416016
0, 1, 113, 35.8300666809082
0, 1, 114, 32.36113739013672
0, 1, 115, 37.69203567504883
0, 1, 116, 36.77764511108398
0, 1, 117, 34.275146484375
0, 1, 118, 31.67516899108887
0, 1, 119, 31.72427558898926
0, 1, 120, 30.5765495300293
0, 1, 121, 22.96332550048828
0, 1, 122, 20.9083080291748
0, 1, 123, 22.77326011657715
0, 1, 124, 30.04349327087402
0, 1, 125, 24.88394546508789
0, 1, 126, 16.58027648925781
0, 1, 127, 21.24322891235352
0, 2, 0, 16.64020919799805
0, 2, 1, 21.47204208374023
0, 2, 2, 23.33074188232422
0, 2, 3, 25.75381851196289
0, 2, 4, 22.80643844604492
0, 2, 5, 22.76905632019043
0, 2, 6, 25.44172096252441
0, 2, 7, 22.11075401306152
0, 2, 8, 26.14657211303711
0, 2, 9, 26.67568397521973
0, 2, 10, 32.01490020751953
0, 2, 11, 31.45728874206543
0, 2, 12, 41.03948211669922
0, 2, 13, 48.97821044921875
0, 2, 14, 51.29891967773438
0, 2, 15, 42.49786376953125
0, 2, 16, 60.87271881103516
0, 2, 17, 75.05899810791016
0, 2, 18, 147.242919921875
0, 2, 19, 607.927490234375
0, 2, 20, 1288.076049804688
0, 2, 21, 1433.21044921875
0, 2, 22, 1456.40283203125
0, 2, 23, 1407.5322265625
0, 2, 24, 1436.384521484375
0, 2, 25, 1520.393798828125
0, 2, 26, 1549.822265625
0, 2, 27, 1454.719604492188
0, 2, 28, 1456.293823242188
0, 2, 29, 1461.347778320312
0, 2, 30, 1466.84716796875
0, 2, 31, 1535.660522460938
0, 2, 32, 1504.838745117188
0, 2, 33, 1443.985473632812
0, 2, 34, 1471.518188476562
0, 2, 35, 1472.07177734375
0, 2, 36, 1526.393432617188
0, 2, 37, 1540.440673828125
0, 2, 38, 1508.897094726562
0, 2, 39, 1463.362060546875
0, 2, 40, 1505.530029296875
0, 2, 41, 1520.689697265625
0, 2, 42, 1506.892700195312
0, 2, 43, 1549.929321289062
0, 2, 44, 1460.21240234375
0, 2, 45, 1486.054321289062
0, 2, 46, 1430.08154296875
0, 2, 47, 1445.182373046875
0, 2, 48, 1394.692504882812
0, 2, 49, 1465.878784179688
0, 2, 50, 1442.146240234375
0, 2, 51, 1451.642822265625
0, 2, 52, 1495.481323242188
0, 2, 53, 1521.778564453125
0, 2, 54, 1525.205688476562
0, 2, 55, 1489.136352539062
0, 2, 56, 1461.762084960938
0, 2, 57, 1416.2861328125
0, 2, 58, 1456.293212890625
0, 2, 59, 1447.8740234375
0, 2, 60, 1472.35302734375
0, 2, 61, 1447.092407226562
0, 2, 62, 1469.846313476562
0, 2, 63, 1503.104125976562
0, 2, 64, 1456.469970703125
0, 2, 65, 1425.379272460938
0, 2, 66, 1493.468505859375
0, 2, 67, 1502.265625
0, 2, 68, 1545.058959960938
0, 2, 69, 1536.860961914062
0, 2, 70, 1509.81005859375
0, 2, 71, 1468.411865234375
0, 2, 72, 1516.87255859375
0, 2, 73, 1522.896850585938
0, 2, 74, 1488.816528320312
0, 2, 75, 1502.476318359375
0, 2, 76, 1451.17333984375
0, 2, 77, 1503.130249023438
0, 2, 78, 1430.19775390625
0, 2, 79, 1537.471923828125
0, 2, 80, 1481.070678710938
0, 2, 81, 1466.88037109375
0, 2, 82, 1558.07421875
0, 2, 83, 1511.369506835938
0, 2, 84, 1497.407104492188
0, 2, 85, 1508.793212890625
0, 2, 86, 1546.878295898438
0, 2, 87, 1492.85693359375
0, 2, 88, 1534.792114257812
0, 2, 89, 1462.796508789062
0, 2, 90, 1431.4755859375
0, 2, 91, 1404.615478515625
0, 2, 92, 1477.665649414062
0, 2, 93, 1496.097778320312
0, 2, 94, 1456.900756835938
0, 2, 95, 1541.927001953125
0, 2, 96, 1516.142822265625
0, 2, 97, 1455.231811523438
0, 2, 98, 1466.899291992188
0, 2, 99, 1401.5615234375
0, 2, 100, 1472.814086914062
0, 2, 101, 1481.198852539062
0, 2, 102, 1460.768798828125
0, 2, 103, 1392.733642578125
0, 2, 104, 1413.244873046875
0, 2, 105, 1400.398559570312
0, 2, 106, 1460.607177734375
0, 2, 107, 1274.931518554688
0, 2, 108, 624.1154174804688
0, 2, 109, 172.9376983642578
0, 2, 110, 66.37119293212891
0, 2, 111, 63.76918411254883
0, 2, 112, 42.27922821044922
0, 2, 113, 46.55118179321289
0, 2, 114, 38.30556488037109
0, 2, 115, 41.68929290771484
0, 2, 116, 36.10207366943359
0, 2, 117, 36.26335144042969
0, 2, 118, 30.59687614440918
0, 2, 119, 25.84007835388184
0, 2, 120, 25.16948127746582
0, 2, 121, 24.1440486907959
0, 2, 122, 29.21664428710938
0, 2, 123, 22.30354881286621
0, 2, 124, 25.74918937683105
0, 2, 125, 27.74123191833496
0, 2, 126, 20.18133354187012
0, 2, 127, 20.07893753051758
0, 3, 0, 20.1607494354248
0, 3, 1, 22.18980598449707
0, 3, 2, 19.37137031555176
0, 3, 3, 25.07090377807617
0, 3, 4, 15.59654426574707
0, 3, 5, 25.33240127563477
0, 3, 6, 28.85723304748535
0, 3, 7, 26.76369857788086
0, 3, 8, 28.14641189575195
0, 3, 9, 29.85050392150879
0, 3, 10, 33.03079986572266
0, 3, 11, 32.69856262207031
0, 3, 12, 44.39105224609375
0, 3, 13, 49.62994384765625
0, 3, 14, 58.60660171508789
0, 3, 15, 59.16660690307617
0, 3, 16, 66.09907531738281
0, 3, 17, 86.97428131103516
0, 3, 18, 236.2638854980469
0, 3, 19, 875.521728515625
0, 3, 20, 1388.885009765625
0, 3, 21, 1510.336669921875
0, 3, 22, 1464.44921875
0, 3, 23, 1453.3271484375
0, 3, 24, 1437.899291992188
0, 3, 25, 1466.288940429688
0, 3, 26, 1495.581787109375
0, 3, 27, 1468
0, 3, 28, 1489.642822265625
0, 3, 29, 1539.889282226562
0, 3, 30, 1572.2822265625
0, 3, 31, 1512.523315429688
0, 3, 32, 1544.4287109375
0, 3, 33, 1541.040283203125
0, 3, 34, 1490.56005859375
0, 3, 35, 1461.873901367188
0, 3, 36, 1453.86767578125
0, 3, 37, 1509.589721679688
0, 3, 38, 1514.556518554688
0, 3, 39, 1440.176147460938
0, 3, 40, 1442.841186523438
0, 3, 41, 1558.526733398438
0, 3, 42, 1460.521362304688
0, 3, 43, 1455.515014648438
0, 3, 44, 1455.237915039062
0, 3, 45, 1510.796752929688
0, 3, 46, 1509.046508789062
0, 3, 47, 1446.051025390625
0, 3, 48, 1504.834838867188
0, 3, 49, 1450.097778320312
0, 3, 50, 1489.675537109375
0, 3, 51, 1536.118530273438
0, 3, 52, 1536.234741210938
0, 3, 53, 1468.962036132812
0, 3, 54, 1539.747924804688
0, 3, 55, 1502.654663085938
0, 3, 56, 1440.908325195312
0, 3, 57, 1500.541259765625
0, 3, 58, 1513.01513671875
0, 3, 59, 1509.694946289062
0, 3, 60, 1534.018310546875
0, 3, 61, 1488.888061523438
0, 3, 62, 1491.621459960938
0, 3, 63, 1497.056396484375
0, 3, 64, 1501.021728515625
0, 3, 65, 1515.209594726562
0, 3, 66, 1556.033935546875
0, 3, 67, 1542.351684570312
0, 3, 68, 1448.86865234375
0, 3, 69, 1459.724609375
0, 3, 70, 1391.06005859375
0, 3, 71, 1458.962646484375
0, 3, 72, 1548.799072265625
0, 3, 73, 1498.585571289062
0, 3, 74, 1469.291625976562
0, 3, 75, 1459.383544921875
0, 3, 76, 1576.618774414062
0, 3, 77, 1544.50732421875
0, 3, 78, 1431.80419921875
0, 3, 79, 1496.626708984375
0, 3, 80, 1460.577026367188
0, 3, 81, 1469.620361328125
0, 3, 82, 1551.454711914062
0, 3, 83, 1510.113525390625
0, 3, 84, 1561.273071289062
0, 3, 85, 1477.495971679688
0, 3, 86, 1522.9169921875
0, 3, 87, 1536.1748046875
0, 3, 88, 1457.953735351562
0, 3, 89, 1447.07373046875
0, 3, 90, 1452.690673828125
0, 3, 91, 1420.12060546875
0, 3, 92, 1516.369750976562
0, 3, 93, 1501.067260742188
0, 3, 94, 1516.862915039062
0, 3, 95, 1542.911743164062
0, 3, 96, 1517.862670898438
0, 3, 97, 1457.454467773438
0, 3, 98, 1432.135986328125
0, 3, 99, 1470.13330078125
0, 3, 100, 1470.848876953125
0, 3, 101, 1475.405883789062
0, 3, 102, 1521.56982421875
0, 3, 103, 1549.276977539062
0, 3, 104, 1496.524658203125
0, 3, 105, 1516.053466796875
0, 3, 106, 1475.833740234375
0, 3, 107, 1341.143798828125
0, 3, 108, 873.702392578125
0, 3, 109, 268.3856201171875
0, 3, 110, 102.6240005493164
0, 3, 111, 65.61436462402344
0, 3, 112, 60.93046951293945
0, 3, 113, 54.57226181030273
0, 3, 114, 55.41971206665039
0, 3, 115, 53.43588256835938
0, 3, 116, 37.24905776977539
0, 3, 117, 36.53687286376953
0, 3, 118, 45.14484786987305
0, 3, 119, 33.9690055847168
0, 3, 120, 28.29325866699219
0, 3, 121, 18.90969276428223
0, 3, 122, 29.14306640625
0, 3, 123, 24.5888729095459
0, 3, 124, 24.41820335388184
0, 3, 125, 28.30304527282715
0, 3, 126, 21.45172119140625
0, 3, 127, 19.20573616027832
0, 4, 0, 18.82799339294434
0, 4, 1, 22.98320198059082
0, 4, 2, 21.23983955383301
0, 4, 3, 21.14684677124023
0, 4, 4, 27.91524314880371
0, 4, 5, 33.41220092773438
0, 4, 6, 30.64751434326172
0, 4, 7, 29.97422218322754
0, 4, 8, 23.18010902404785
0, 4, 9, 36.92739868164062
0, 4, 10, 27.99290657043457
0, 4, 11, 42.1049690246582
0, 4, 12, 42.55415725708008
0, 4, 13, 49.46604919433594
0, 4, 14, 51.0121955871582
0, 4, 15, 64.59030151367188
0, 4, 16, 73.46001434326172
0, 4, 17, 116.9569549560547
0, 4, 18, 447.0855712890625
0, 4, 19, 1178.816650390625
0, 4, 20, 1442.374267578125
0, 4, 21, 1419.759033203125
0, 4, 22, 1429.8701171875
0, 4, 23, 1451.949951171875
0, 4, 24, 1468.821899414062
0, 4, 25, 1405.512451171875
0, 4, 26, 1539.387084960938
0, 4, 27, 1541.214111328125
0, 4, 28, 1512.060668945312
0, 4, 29, 1516.31396484375
0, 4, 30, 1527.276733398438
0, 4, 31, 1576.0341796875
0, 4, 32, 1517.147338867188
0, 4, 33, 1495.730102539062
0, 4, 34, 1473.244873046875
0, 4, 35, 1560.664306640625
0, 4, 36, 1505.319580078125
0, 4, 37, 1512.126342773438
0, 4, 38, 1531.142333984375
0, 4, 39, 1479.78857421875
0, 4, 40, 1516.0224609375
0, 4, 41, 1586.25048828125
0, 4, 42, 1563.640747070312
0, 4, 43, 1474.369018554688
0, 4, 44, 1496.877807617188
0, 4, 45, 1521.678466796875
0, 4, 46, 1466.637939453125
0, 4, 47, 1504.556274414062
0, 4, 48, 1526.770629882812
0, 4, 49, 1468.26513671875
0, 4, 50, 1517.4296875
0, 4, 51, 1488.622192382812
0, 4, 52, 1495.491088867188
0, 4, 53, 1454.106811523438
0, 4, 54, 1442.147338867188
0, 4, 55, 1526.896850585938
0, 4, 56, 1459.880859375
0, 4, 57, 1492.173583984375
0, 4, 58, 1460.823120117188
0, 4, 59, 1461.141845703125
0, 4, 60, 1532.179321289062
0, 4, 61, 1502.016235351562
0, 4, 62, 1508.210205078125
0, 4, 63, 1543.072387695312
0, 4, 64, 1589.132690429688
0, 4, 65, 1427.24658203125
0, 4, 66, 1511.524169921875
0, 4, 67, 1522.879638671875
0, 4, 68, 1495.263549804688
0, 4, 69, 1471.885986328125
0, 4, 70, 1543.023193359375
0, 4, 71, 1519.234008789062
0, 4, 72, 1525.232055664062
0, 4, 73, 1498.796752929688
0, 4, 74, 1483.88232421875
0, 4, 75, 1538.456176757812
0, 4, 76, 1487.137451171875
0, 4, 77, 1503.322875976562
0, 4, 78, 1500.437744140625
0, 4, 79, 1480.180297851562
0, 4, 80, 1511.892700195312
0, 4, 81, 1527.782836914062
0, 4, 82, 1564.561889648438
0, 4, 83, 1508.62255859375
0, 4, 84, 1539.208374023438
0, 4, 85, 1556.136352539062
0, 4, 86, 1529.538208007812
0, 4, 87, 1496.600463867188
0, 4, 88, 1516.173828125
0, 4, 89, 1484.272827148438
0, 4, 90, 1546.609619140625
0, 4, 91, 1555.77294921875
0, 4, 92, 1488.81396484375
0, 4, 93, 1517.661254882812
0, 4, 94, 1482.279296875
0, 4, 95, 1513.663696289062
0, 4, 96, 1445.787475585938
0, 4, 97, 1409.01318359375
0, 4, 98, 1550.367309570312
0, 4, 99, 1508.563598632812
0, 4, 100, 1493.861938476562
0, 4, 101, 1448.472045898438
0, 4, 102, 1442.600708007812
0, 4, 103, 1523.673461914062
0, 4, 104, 1512.42333984375
0, 4, 105, 1561.012451171875
0, 4, 106, 1476.21240234375
0, 4, 107, 1456.741455078125
0, 4, 108, 1118.884765625
0, 4, 109, 437.4557495117188
0, 4, 110, 97.58006286621094
0, 4, 111, 74.43315887451172
0, 4, 112, 62.44292831420898
0, 4, 113, 47.22092056274414
0, 4, 114, 45.52908325195312
0, 4, 115, 44.3629035949707
0, 4, 116, 40.36780548095703
0, 4, 117, 36.8638916015625
0, 4, 118, 35.70679473876953
0, 4, 119, 37.24882507324219
0, 4, 120, 35.20468521118164
0, 4, 121, 24.88675308227539
0, 4, 122, 27.57084274291992
0, 4, 123, 27.88181495666504
0, 4, 124, 17.02575302124023
0, 4, 125, 28.16105842590332
0, 4, 126, 24.00387573242188
0, 4, 127, 20.45726776123047
0, 5, 0, 22.73807334899902
0, 5, 1, 23.86373138427734
0, 5, 2, 27.99099922180176
0, 5, 3, 27.19293403625488
0, 5, 4, 20.94328308105469
0, 5, 5, 32.43120956420898
0, 5, 6, 33.47090530395508
0, 5, 7, 37.89373016357422
0, 5, 8, 36.3519287109375
0, 5, 9, 35.48090362548828
0, 5, 10, 30.52710914611816
0, 5, 11, 36.27653121948242
0, 5, 12, 42.756103515625
0, 5, 13, 45.08620834350586
0, 5, 14, 61.94092178344727
0, 5, 15, 76.57550811767578
0, 5, 16, 80.79647064208984
0, 5, 17, 156.8187866210938
0, 5, 18, 677.7883911132812
0, 5, 19, 1351.6474609375
0, 5, 20, 1526.717895507812
0, 5, 21, 1488.283325195312
0, 5, 22, 1496.77880859375
0, 5, 23, 1530.755981445312
0, 5, 24, 1465.259521484375
0, 5, 25, 1430.029296875
0, 5, 26, 1526.672119140625
0, 5, 27, 1542.244140625
0, 5, 28, 1486.396484375
0, 5, 29, 1520.509155273438
0, 5, 30, 1495.296752929688
0, 5, 31, 1502.863525390625
0, 5, 32, 1593.0576171875
0, 5, 33, 1502.574462890625
0, 5, 34, 1481.994140625
0, 5, 35, 1510.5400390625
0, 5, 36, 1446.500122070312
0, 5, 37, 1532.067993164062
0, 5, 38, 1544.369018554688
0, 5, 39, 1545.961547851562
0, 5, 40, 1499.905639648438
0, 5, 41, 1485.052124023438
0, 5, 42, 1544.517456054688
0, 5, 43, 1532.19287109375
0, 5, 44, 1539.082885742188
0, 5, 45, 1511.0908203125
0, 5, 46, 1494.946044921875
0, 5, 47, 1485.114135742188
0, 5, 48, 1501.9033203125
0, 5, 49, 1523.870971679688
0, 5, 50, 1502.417724609375
0, 5, 51, 1521.684814453125
0, 5, 52, 1428.358032226562
0, 5, 53, 1524.724365234375
0, 5, 54, 1523.237182617188
0, 5, 55, 1525.92724609375
0, 5, 56, 1485.210083007812
0, 5, 57, 1540.493041992188
0, 5, 58, 1508.838745117188
0, 5, 59, 1484.78125
0, 5, 60, 1535.448608398438
0, 5, 61, 1456.5380859375
0, 5, 62, 1588.097045898438
0, 5, 63, 1435.676879882812
0, 5, 64, 1490.104858398438
0, 5, 65, 1463.418579101562
0, 5, 66, 1522.888671875
0, 5, 67, 1566.382080078125
0, 5, 68, 1461.6025390625
0, 5, 69, 1482.077270507812
0, 5, 70, 1490.811157226562
0, 5, 71, 1465.370483398438
0, 5, 72, 1536.067626953125
0, 5, 73, 1463.09375
0, 5, 74, 1491.805541992188
0, 5, 75, 1492.998779296875
0, 5, 76, 1480.049682617188
0, 5, 77, 1517.65673828125
0, 5, 78, 1534.17529296875
0, 5, 79, 1506.978149414062
0, 5, 80, 1518.711181640625
0, 5, 81, 1598.51171875
0, 5, 82, 1526.985595703125
0, 5, 83, 1489.109497070312
0, 5, 84, 1529.538330078125
0, 5, 85, 1513.850830078125
0, 5, 86, 1554.691162109375
0, 5, 87, 1468.525146484375
0, 5, 88, 1504.650634765625
0, 5, 89, 1483.311157226562
0, 5, 90, 1482.822509765625
0, 5, 91, 1551.379028320312
0, 5, 92, 1484.474243164062
0, 5, 93, 1560.298828125
0, 5, 94, 1507.01708984375
0, 5, 95, 1558.547119140625
0, 5, 96, 1499.228149414062
0, 5, 97, 1514.881958007812
0, 5, 98, 1509.272705078125
0, 5, 99, 1540.4931640625
0, 5, 100, 1431.245239257812
0, 5, 101, 1424.993530273438
0, 5, 102, 1514.513671875
0, 5, 103, 1473.048095703125
0, 5, 104, 1457.41748046875
0, 5, 105, 1489.147827148438
0, 5, 106, 1456.021728515625
0, 5, 107, 1397.726806640625
0, 5, 108, 1285.664306640625
0, 5, 109, 724.0889282226562
0, 5, 110, 194.9972839355469
0, 5, 111, 94.21220397949219
0, 5, 112, 80.47939300537109
0, 5, 113, 61.8870849609375
0, 5, 114, 60.59375381469727
0, 5, 115, 54.8102912902832
0, 5, 116, 44.60287857055664
0, 5, 117, 34.91419219970703
0, 5, 118, 42.10800552368164
0, 5, 119, 26.03203964233398
0, 5, 120, 30.20534515380859
0, 5, 121, 27.62401962280273
0, 5, 122, 28.96356582641602
0, 5, 123, 29.35810089111328
0, 5, 124, 28.85811996459961
0, 5, 125, 22.08346939086914
0, 5, 126, 20.84339714050293
0, 5, 127, 22.13312339782715
0, 6, 0, 20.55766868591309
0, 6, 1, 25.11567115783691
0, 6, 2, 30.08996772766113
0, 6, 3, 26.95151138305664
0, 6, 4, 23.39879608154297
0, 6, 5, 34.25533294677734
0, 6, 6, 32.33298110961914
0, 6, 7, 29.10650444030762
0, 6, 8, 32.12095260620117
0, 6, 9, 35.6165657043457
0, 6, 10, 37.91258239746094
0, 6, 11, 38.97114944458008
0, 6, 12, 42.48634719848633
0, 6, 13, 56.26385498046875
0, 6, 14, 77.58753967285156
0, 6, 15, 86.84070587158203
0, 6, 16, 111.6172409057617
0, 6, 17, 296.3807983398438
0, 6, 18, 905.6761474609375
0, 6, 19, 1373.005004882812
0, 6, 20, 1432.978271484375
0, 6, 21, 1531.263549804688
0, 6, 22, 1510.915771484375
0, 6, 23, 1529.449096679688
0, 6, 24, 1478.884399414062
0, 6, 25, 1529.031494140625
0, 6, 26, 1513.64404296875
0, 6, 27, 1520.320678710938
0, 6, 28, 1558.091430664062
0, 6, 29, 1574.285034179688
0, 6, 30, 1514.372192382812
0, 6, 31, 1494.21875
0, 6, 32, 1523.086547851562
0, 6, 33, 1490.432495117188
0, 6, 34, 1557.967407226562
0, 6, 35, 1496.977416992188
0, 6, 36, 1439.61083984375
0, 6, 37, 1548.74951171875
0, 6, 38, 1523.050048828125
0, 6, 39, 1520.286376953125
0, 6, 40, 1457.506958007812
0, 6, 41, 1442.667724609375
0, 6, 42, 1512.295532226562
0, 6, 43, 1486.474853515625
0, 6, 44, 1431.079833984375
0, 6, 45, 1548.68994140625
0, 6, 46, 1556.167236328125
0, 6, 47, 1494.139404296875
0, 6, 48, 1525.318237304688
0, 6, 49, 1509.078369140625
0, 6, 50, 1577.403930664062
0, 6, 51, 1503.456298828125
0, 6, 52, 1561.117065429688
0, 6, 53, 1469.66650390625
0, 6, 54, 1499.258422851562
0, 6, 55, 1570.644409179688
0, 6, 56, 1525.69970703125
0, 6, 57, 1507.443969726562
0, 6, 58, 1467.527221679688
0, 6, 59, 1520.237548828125
0, 6, 60, 1474.211059570312
0, 6, 61, 1573.490844726562
0, 6, 62, 1545.816284179688
0, 6, 63, 1497.724243164062
0, 6, 64, 1415.58837890625
0, 6, 65, 1494.4111328125
0, 6, 66, 1513.3291015625
0, 6, 67, 1507.836791992188
0, 6, 68, 1547.144897460938
0, 6, 69, 1487.610717773438
0, 6, 70, 1524.37744140625
0, 6, 71, 1470.540161132812
0, 6, 72, 1593.812255859375
0, 6, 73, 1486.333740234375
0, 6, 74, 1559.394775390625
0, 6, 75, 1534.436767578125
0, 6, 76, 1568.24853515625
0, 6, 77, 1501.928588867188
0, 6, 78, 1444.62939453125
0, 6, 79, 1557.341064453125
0, 6, 80, 1484.298461914062
0, 6, 81, 1483.3720703125
0, 6, 82, 1502.35986328125
0, 6, 83, 1524.828125
0, 6, 84, 1519.311889648438
0, 6, 85, 1537.76904296875
0, 6, 86, 1540.662353515625
0, 6, 87, 1576.60107421875
0, 6, 88, 1480.362426757812
0, 6, 89, 1564.486328125
0, 6, 90, 1489.39013671875
0, 6, 91, 1539.838745117188
0, 6, 92, 1488.610473632812
0, 6, 93, 1496.567626953125
0, 6, 94, 1472.976928710938
0, 6, 95, 1509.119995117188
0, 6, 96, 1524.753173828125
0, 6, 97, 1505.343383789062
0, 6, 98, 1496.346801757812
0, 6, 99, 1482.2822265625
0, 6, 100, 1522.916748046875
0, 6, 101, 1512.66357421875
0, 6, 102, 1541.756469726562
0, 6, 103, 1497.344482421875
0, 6, 104, 1469.496948242188
0, 6, 105, 1488.357788085938
0, 6, 106, 1496.283203125
0, 6, 107, 1502.815307617188
0, 6, 108, 1409.641235351562
0, 6, 109, 925.5165405273438
0, 6, 110, 288.3823852539062
0, 6, 111, 93.45516204833984
0, 6, 112, 77.5540771484375
0, 6, 113, 56.60209274291992
0, 6, 114, 52.42495727539062
0, 6, 115, 44.45036315917969
0, 6, 116, 45.62525177001953
0, 6, 117, 40.18062591552734
0, 6, 118, 37.75931549072266
0, 6, 119, 32.53012084960938
0, 6, 120, 35.21332931518555
0, 6, 121, 33.2116813659668
0, 6, 122, 32.85674667358398
0, 6, 123, 22.41317749023438
0, 6, 124, 28.95640563964844
0, 6, 125, 29.21343994140625
0, 6, 126, 21.70157241821289
0, 6, 127, 21.26980209350586
0, 7, 0, 28.74428749084473
0, 7, 1, 26.94653701782227
0, 7, 2, 20.62237930297852
0, 7, 3, 21.56588554382324
0, 7, 4, 21.35074043273926
0, 7, 5, 38.05424118041992
0, 7, 6, 39.55606460571289
0, 7, 7, 33.56150436401367
0, 7, 8, 30.52937889099121
0, 7, 9, 33.00820541381836
0, 7, 10, 44.20985794067383
0, 7, 11, 48.30222320556641
0, 7, 12, 42.93955993652344
0, 7, 13, 50.52857971191406
0, 7, 14, 60.43272018432617
0, 7, 15, 79.19176483154297
0, 7, 16, 134.5869445800781
0, 7, 17, 455.7855834960938
0, 7, 18, 1096.314208984375
0, 7, 19, 1499.341796875
0, 7, 20, 1487.604125976562
0, 7, 21, 1362.55908203125
0, 7, 22, 1487.003051757812
0, 7, 23, 1457.09130859375
0, 7, 24, 1511.481689453125
0, 7, 25, 1589.90673828125
0, 7, 26, 1512.825561523438
0, 7, 27, 1509.174072265625
0, 7, 28, 1539.776245117188
0, 7, 29, 1572.129638671875
0, 7, 30, 1563.029663085938
0, 7, 31, 1435.601684570312
0, 7, 32, 1545.21435546875
0, 7, 33, 1490.23779296875
0, 7, 34, 1478.176513671875
0, 7, 35, 1521.885864257812
0, 7, 36, 1469.691650390625
0, 7, 37, 1595.863159179688
0, 7, 38, 1503.272216796875
0, 7, 39, 1494.67724609375
0, 7, 40, 1541.293823242188
0, 7, 41, 1466.701416015625
0, 7, 42, 1489.6376953125
0, 7, 43, 1445.271728515625
0, 7, 44, 1493.26416015625
0, 7, 45, 1467.598022460938
0, 7, 46, 1511.183837890625
0, 7, 47, 1566.484252929688
0, 7, 48, 1520.447875976562
0, 7, 49, 1542.356079101562
0, 7, 50, 1512.488525390625
0, 7, 51, 1496.09033203125
0, 7, 52, 1520.829833984375
0, 7, 53, 1497.537719726562
0, 7, 54, 1589.990112304688
0, 7, 55, 1481.027221679688
0, 7, 56, 1547.624755859375
0, 7, 57, 1514.87109375
0, 7, 58, 1549.998046875
0, 7, 59, 1540.722534179688
0, 7, 60, 1552.541137695312
0, 7, 61, 1494.222045898438
0, 7, 62, 1436.34326171875
0, 7, 63, 1511.368286132812
0, 7, 64, 1549.158447265625
0, 7, 65, 1525.002075195312
0, 7, 66, 1534.237426757812
0, 7, 67, 1583.018920898438
0, 7, 68, 1533.840209960938
0, 7, 69, 1516.261108398438
0, 7, 70, 1491.42333984375
0, 7, 71, 1520.829223632812
0, 7, 72, 1520.995971679688
0, 7, 73, 1518.07470703125
0, 7, 74, 1572.986938476562
0, 7, 75, 1534.632568359375
0, 7, 76, 1559.61865234375
0, 7, 77, 1511.909912109375
0, 7, 78, 1510.884643554688
0, 7, 79, 1426.40283203125
0, 7, 80, 1494.64794921875
0, 7, 81, 1491.028076171875
0, 7, 82, 1528.948486328125
0, 7, 83, 1547.345336914062
0, 7, 84, 1590.761840820312
0, 7, 85, 1477.533569335938
0, 7, 86, 1501.655639648438
0, 7, 87, 1500.614624023438
0, 7, 88, 1497.889892578125
0, 7, 89, 1550.3935546875
0, 7, 90, 1522.83837890625
0, 7, 91, 1565.158813476562
0, 7, 92, 1529.69189453125
0, 7, 93, 1552.283813476562
0, 7, 94, 1537.442504882812
0, 7, 95, 1505.398559570312
0, 7, 96, 1503.006225585938
0, 7, 97, 1436.762451171875
0, 7, 98, 1482.246704101562
0, 7, 99, 1527.304077148438
0, 7, 100, 1424.697387695312
0, 7, 101, 1470.296875
0, 7, 102, 1448.2255859375
0, 7, 103, 1436.307250976562
0, 7, 104, 1493.931030273438
0, 7, 105, 1531.0947265625
0, 7, 106, 1565.416625976562
0, 7, 107, 1477.839111328125
0, 7, 108, 1406.9296875
0, 7, 109, 1143.003784179688
0, 7, 110, 470.2848815917969
0, 7, 111, 130.2933807373047
0, 7, 112, 75.56428527832031
0, 7, 113, 68.19933319091797
0, 7, 114, 51.92617416381836
0, 7, 115, 48.89213180541992
0, 7, 116, 49.37442016601562
0, 7, 117, 42.19892883300781
0, 7, 118, 32.98677062988281
0, 7, 119, 34.49712371826172
0, 7, 120, 19.5588321685791
0, 7, 121, 30.04943084716797
0, 7, 122, 31.92161178588867
0, 7, 123, 32.97213363647461
0, 7, 124, 31.9844913482666
0, 7, 125, 23.56333351135254
0, 7, 126, 25.96456718444824
0, 7, 127, 19.86610794067383
0, 8, 0, 18.43793869018555
0, 8, 1, 22.14430236816406
0, 8, 2, 26.91085815429688
0, 8, 3, 27.02662467956543
0, 8, 4, 29.12099838256836
0, 8, 5, 32.42621994018555
0, 8, 6, 32.39306259155273
0, 8, 7, 28.03863906860352
0, 8, 8, 31.84370613098145
0, 8, 9, 49.70292663574219
0, 8, 10, 39.06000518798828
0, 8, 11, 43.71535110473633
0, 8, 12, 55.44247436523438
0, 8, 13, 70.076416015625
0, 8, 14, 69.82686614990234
0, 8, 15, 85.20589447021484
0, 8, 16, 173.7645721435547
0, 8, 17, 677.992431640625
0, 8, 18, 1281.533813476562
0, 8, 19, 1449.3203125
0, 8, 20, 1421.096923828125
0, 8, 21, 1407.1005859375
0, 8, 22, 1487.039184570312
0, 8, 23, 1483.248413085938
0, 8, 24, 1437.494018554688
0, 8, 25, 1460.885620117188
0, 8, 26, 1513.187133789062
0, 8, 27, 1523.994140625
0, 8, 28, 1474.57958984375
0, 8, 29, 1503.720703125
0, 8, 30, 1490.060668945312
0, 8, 31, 1533.363647460938
0, 8, 32, 1508.787963867188
0, 8, 33, 1484.152954101562
0, 8, 34, 1528.443115234375
0, 8, 35, 1449.42529296875
0, 8, 36, 1498.256958007812
0, 8, 37, 1558.85888671875
0, 8, 38, 1552.718627929688
0, 8, 39, 1495.497314453125
0, 8, 40, 1529.160522460938
0, 8, 41, 1481.692626953125
0, 8, 42, 1542.285034179688
0, 8, 43, 1435.01318359375
0, 8, 44, 1538.183349609375
0, 8, 45, 1516.46728515625
0, 8, 46, 1597.350952148438
0, 8, 47, 1583.091186523438
