# TOPAS Version: 3.1.p3
# Parameter File: batch_inserts_302.txt
# Results for scorer Readout_Adipose
# Scored in component: MyBox
# X in 1 bin  of 0.75 cm
# Y in 512 bins of 0.0783984 cm
# Z in 128 bins of 0.078125 cm
# EnergyDeposit ( MeV ) : Sum   
0, 0, 0, 17.97963333129883
0, 0, 1, 22.78816223144531
0, 0, 2, 28.22626876831055
0, 0, 3, 26.44526100158691
0, 0, 4, 20.99434852600098
0, 0, 5, 26.06438636779785
0, 0, 6, 25.97355461120605
0, 0, 7, 32.14773178100586
0, 0, 8, 22.52279281616211
0, 0, 9, 21.8690128326416
0, 0, 10, 23.45884132385254
0, 0, 11, 27.79562568664551
0, 0, 12, 38.56735610961914
0, 0, 13, 32.54209518432617
0, 0, 14, 37.20675277709961
0, 0, 15, 45.47300338745117
0, 0, 16, 43.18088150024414
0, 0, 17, 47.2717170715332
0, 0, 18, 76.42131805419922
0, 0, 19, 191.6370544433594
0, 0, 20, 704.2457275390625
0, 0, 21, 1192.721801757812
0, 0, 22, 1253.0517578125
0, 0, 23, 1270.549072265625
0, 0, 24, 1280.52294921875
0, 0, 25, 1361.543823242188
0, 0, 26, 1275.30322265625
0, 0, 27, 1278.674194335938
0, 0, 28, 1321.0703125
0, 0, 29, 1272.057006835938
0, 0, 30, 1265.912475585938
0, 0, 31, 1280.51904296875
0, 0, 32, 1267.2998046875
0, 0, 33, 1239.745849609375
0, 0, 34, 1326.258056640625
0, 0, 35, 1300.578247070312
0, 0, 36, 1244.559692382812
0, 0, 37, 1281.239501953125
0, 0, 38, 1247.130493164062
0, 0, 39, 1249.7392578125
0, 0, 40, 1222.312377929688
0, 0, 41, 1269.463134765625
0, 0, 42, 1249.632568359375
0, 0, 43, 1266.960815429688
0, 0, 44, 1220.381103515625
0, 0, 45, 1293.425659179688
0, 0, 46, 1261.45849609375
0, 0, 47, 1238.959350585938
0, 0, 48, 1275.011596679688
0, 0, 49, 1281.81787109375
0, 0, 50, 1311.9443359375
0, 0, 51, 1269.70361328125
0, 0, 52, 1358.955688476562
0, 0, 53, 1326.21142578125
0, 0, 54, 1297.6533203125
0, 0, 55, 1233.201538085938
0, 0, 56, 1317.373168945312
0, 0, 57, 1287.7705078125
0, 0, 58, 1252.660278320312
0, 0, 59, 1331.54296875
0, 0, 60, 1326.586547851562
0, 0, 61, 1259.3359375
0, 0, 62, 1243.2734375
0, 0, 63, 1275.536499023438
0, 0, 64, 1327.912963867188
0, 0, 65, 1288.256225585938
0, 0, 66, 1315.801879882812
0, 0, 67, 1211.903198242188
0, 0, 68, 1307.280029296875
0, 0, 69, 1328.119750976562
0, 0, 70, 1347.760009765625
0, 0, 71, 1288.184814453125
0, 0, 72, 1315.40771484375
0, 0, 73, 1240.7158203125
0, 0, 74, 1292.8505859375
0, 0, 75, 1296.291137695312
0, 0, 76, 1256.346923828125
0, 0, 77, 1285.630249023438
0, 0, 78, 1312.601928710938
0, 0, 79, 1330.1650390625
0, 0, 80, 1264.515747070312
0, 0, 81, 1322.28125
0, 0, 82, 1297.100708007812
0, 0, 83, 1293.746337890625
0, 0, 84, 1333.179565429688
0, 0, 85, 1236.753051757812
0, 0, 86, 1266.5361328125
0, 0, 87, 1250.765014648438
0, 0, 88, 1257.328002929688
0, 0, 89, 1330.431030273438
0, 0, 90, 1274.718505859375
0, 0, 91, 1355.617431640625
0, 0, 92, 1305.298217773438
0, 0, 93, 1278.16552734375
0, 0, 94, 1243.5986328125
0, 0, 95, 1325.296264648438
0, 0, 96, 1280.762084960938
0, 0, 97, 1325.959594726562
0, 0, 98, 1258.74462890625
0, 0, 99, 1253.132568359375
0, 0, 100, 1289.47509765625
0, 0, 101, 1318.103637695312
0, 0, 102, 1235.73046875
0, 0, 103, 1325.794555664062
0, 0, 104, 1262.32421875
0, 0, 105, 1268.604125976562
0, 0, 106, 1207.990966796875
0, 0, 107, 782.9529418945312
0, 0, 108, 201.3628845214844
0, 0, 109, 67.77890014648438
0, 0, 110, 58.77223587036133
0, 0, 111, 47.71728134155273
0, 0, 112, 38.27544403076172
0, 0, 113, 34.40827941894531
0, 0, 114, 33.55078125
0, 0, 115, 30.89891624450684
0, 0, 116, 29.51733207702637
0, 0, 117, 28.48361587524414
0, 0, 118, 30.0893440246582
0, 0, 119, 22.62551879882812
0, 0, 120, 25.62439346313477
0, 0, 121, 28.637939453125
0, 0, 122, 20.09866333007812
0, 0, 123, 18.55935668945312
0, 0, 124, 22.74993324279785
0, 0, 125, 22.09257316589355
0, 0, 126, 22.00135231018066
0, 0, 127, 19.98023414611816
0, 1, 0, 19.24134826660156
0, 1, 1, 18.52300834655762
0, 1, 2, 22.71802139282227
0, 1, 3, 23.32864570617676
0, 1, 4, 18.63113975524902
0, 1, 5, 20.40626907348633
0, 1, 6, 20.66629409790039
0, 1, 7, 20.34426498413086
0, 1, 8, 32.56626129150391
0, 1, 9, 34.59146499633789
0, 1, 10, 32.93845367431641
0, 1, 11, 44.12205505371094
0, 1, 12, 40.77258682250977
0, 1, 13, 44.01196670532227
0, 1, 14, 41.57951354980469
0, 1, 15, 46.76115798950195
0, 1, 16, 63.83272171020508
0, 1, 17, 61.95493316650391
0, 1, 18, 101.8470993041992
0, 1, 19, 400.9612731933594
0, 1, 20, 1042.0546875
0, 1, 21, 1371.015625
0, 1, 22, 1482.60693359375
0, 1, 23, 1461.512084960938
0, 1, 24, 1451.193115234375
0, 1, 25, 1422.282958984375
0, 1, 26, 1475.276489257812
0, 1, 27, 1460.85986328125
0, 1, 28, 1491.75244140625
0, 1, 29, 1481.02734375
0, 1, 30, 1502.175659179688
0, 1, 31, 1488.953247070312
0, 1, 32, 1412.156494140625
0, 1, 33, 1500.704833984375
0, 1, 34, 1499.7177734375
0, 1, 35, 1461.756103515625
0, 1, 36, 1487.46044921875
0, 1, 37, 1409.812866210938
0, 1, 38, 1392.410522460938
0, 1, 39, 1525.241088867188
0, 1, 40, 1465.319702148438
0, 1, 41, 1491.501342773438
0, 1, 42, 1498.632080078125
0, 1, 43, 1500.259155273438
0, 1, 44, 1452.652709960938
0, 1, 45, 1487.74853515625
0, 1, 46, 1422.647094726562
0, 1, 47, 1434.077514648438
0, 1, 48, 1432.669067382812
0, 1, 49, 1487.470703125
0, 1, 50, 1445.04931640625
0, 1, 51, 1471.782104492188
0, 1, 52, 1478.751953125
0, 1, 53, 1475.10791015625
0, 1, 54, 1501.259521484375
0, 1, 55, 1497.22021484375
0, 1, 56, 1471.194580078125
0, 1, 57, 1455.42431640625
0, 1, 58, 1431.981323242188
0, 1, 59, 1485.080200195312
0, 1, 60, 1461.913818359375
0, 1, 61, 1450.474365234375
0, 1, 62, 1454.894775390625
0, 1, 63, 1412.410888671875
0, 1, 64, 1474.842651367188
0, 1, 65, 1413.349609375
0, 1, 66, 1438.81005859375
0, 1, 67, 1459.544799804688
0, 1, 68, 1389.635009765625
0, 1, 69, 1455.958740234375
0, 1, 70, 1433.611083984375
0, 1, 71, 1497.707397460938
0, 1, 72, 1438.851806640625
0, 1, 73, 1490.508178710938
0, 1, 74, 1468.350341796875
0, 1, 75, 1474.45068359375
0, 1, 76, 1449.53857421875
0, 1, 77, 1462.521240234375
0, 1, 78, 1456.357543945312
0, 1, 79, 1498.865234375
0, 1, 80, 1443.733154296875
0, 1, 81, 1424.21826171875
0, 1, 82, 1479.079956054688
0, 1, 83, 1461.747314453125
0, 1, 84, 1541.258178710938
0, 1, 85, 1445.718505859375
0, 1, 86, 1411.14697265625
0, 1, 87, 1421.18505859375
0, 1, 88, 1471.552856445312
0, 1, 89, 1478.302612304688
0, 1, 90, 1423.85205078125
0, 1, 91, 1459.729858398438
0, 1, 92, 1412.118530273438
0, 1, 93, 1458.864990234375
0, 1, 94, 1470.297241210938
0, 1, 95, 1421.1806640625
0, 1, 96, 1494.706665039062
0, 1, 97, 1517.070068359375
0, 1, 98, 1474.579956054688
0, 1, 99, 1422.920043945312
0, 1, 100, 1446.399658203125
0, 1, 101, 1415.221313476562
0, 1, 102, 1445.334228515625
0, 1, 103, 1414.813232421875
0, 1, 104, 1409.595703125
0, 1, 105, 1463.221801757812
0, 1, 106, 1369.527465820312
0, 1, 107, 1021.191345214844
0, 1, 108, 409.3071899414062
0, 1, 109, 88.26155090332031
0, 1, 110, 63.62750625610352
0, 1, 111, 62.01030731201172
0, 1, 112, 50.31063079833984
0, 1, 113, 42.34873580932617
0, 1, 114, 39.50021743774414
0, 1, 115, 37.33897018432617
0, 1, 116, 33.96089553833008
0, 1, 117, 33.89008712768555
0, 1, 118, 33.29306411743164
0, 1, 119, 32.60450744628906
0, 1, 120, 32.00775909423828
0, 1, 121, 23.3087100982666
0, 1, 122, 19.82769203186035
0, 1, 123, 22.3172779083252
0, 1, 124, 33.15966796875
0, 1, 125, 17.96611976623535
0, 1, 126, 14.94894695281982
0, 1, 127, 21.88966941833496
0, 2, 0, 20.54061317443848
0, 2, 1, 19.13004302978516
0, 2, 2, 20.10929489135742
0, 2, 3, 17.43253326416016
0, 2, 4, 21.40855598449707
0, 2, 5, 26.05859184265137
0, 2, 6, 22.81688499450684
0, 2, 7, 24.82828712463379
0, 2, 8, 26.83466720581055
0, 2, 9, 27.92544174194336
0, 2, 10, 31.57544898986816
0, 2, 11, 34.69638442993164
0, 2, 12, 37.57463836669922
0, 2, 13, 44.7404899597168
0, 2, 14, 49.39187240600586
0, 2, 15, 46.93810653686523
0, 2, 16, 65.64564514160156
0, 2, 17, 80.52632904052734
0, 2, 18, 151.6812438964844
0, 2, 19, 608.13818359375
0, 2, 20, 1284.074951171875
0, 2, 21, 1433.954467773438
0, 2, 22, 1452.069091796875
0, 2, 23, 1399.21337890625
0, 2, 24, 1439.455200195312
0, 2, 25, 1523.891723632812
0, 2, 26, 1553.184692382812
0, 2, 27, 1456.199829101562
0, 2, 28, 1456.189453125
0, 2, 29, 1464.513916015625
0, 2, 30, 1465.220581054688
0, 2, 31, 1535.280639648438
0, 2, 32, 1504.653076171875
0, 2, 33, 1442.53857421875
0, 2, 34, 1477.177612304688
0, 2, 35, 1473.091796875
0, 2, 36, 1526.2607421875
0, 2, 37, 1542.018432617188
0, 2, 38, 1504.99462890625
0, 2, 39, 1465.682373046875
0, 2, 40, 1508.773193359375
0, 2, 41, 1517.56982421875
0, 2, 42, 1504.285888671875
0, 2, 43, 1547.008422851562
0, 2, 44, 1460.720458984375
0, 2, 45, 1480.095336914062
0, 2, 46, 1428.301513671875
0, 2, 47, 1452.252685546875
0, 2, 48, 1395.513793945312
0, 2, 49, 1463.472290039062
0, 2, 50, 1446.797607421875
0, 2, 51, 1447.534790039062
0, 2, 52, 1495.457275390625
0, 2, 53, 1525.922973632812
0, 2, 54, 1523.762084960938
0, 2, 55, 1489.992431640625
0, 2, 56, 1467.7529296875
0, 2, 57, 1420.731689453125
0, 2, 58, 1450.132934570312
0, 2, 59, 1446.690063476562
0, 2, 60, 1473.76220703125
0, 2, 61, 1450.077880859375
0, 2, 62, 1469.245483398438
0, 2, 63, 1505.339111328125
0, 2, 64, 1457.8046875
0, 2, 65, 1427.958129882812
0, 2, 66, 1490.3466796875
0, 2, 67, 1500.76123046875
0, 2, 68, 1541.95703125
0, 2, 69, 1540.452392578125
0, 2, 70, 1506.03759765625
0, 2, 71, 1463.549682617188
0, 2, 72, 1513.853881835938
0, 2, 73, 1514.481079101562
0, 2, 74, 1494.06005859375
0, 2, 75, 1506.104248046875
0, 2, 76, 1447.7060546875
0, 2, 77, 1506.211547851562
0, 2, 78, 1432.4326171875
0, 2, 79, 1541.069580078125
0, 2, 80, 1478.663818359375
0, 2, 81, 1464.937133789062
0, 2, 82, 1559.034912109375
0, 2, 83, 1508.534057617188
0, 2, 84, 1490.832641601562
0, 2, 85, 1515.48974609375
0, 2, 86, 1536.435180664062
0, 2, 87, 1485.082885742188
0, 2, 88, 1538.953247070312
0, 2, 89, 1462.89013671875
0, 2, 90, 1433.005126953125
0, 2, 91, 1402.097900390625
0, 2, 92, 1474.516845703125
0, 2, 93, 1492.910766601562
0, 2, 94, 1454.073974609375
0, 2, 95, 1545.190795898438
0, 2, 96, 1515.325927734375
0, 2, 97, 1457.654907226562
0, 2, 98, 1467.49072265625
0, 2, 99, 1409.35595703125
0, 2, 100, 1469.853393554688
0, 2, 101, 1481.247924804688
0, 2, 102, 1461.485961914062
0, 2, 103, 1387.28564453125
0, 2, 104, 1408.053588867188
0, 2, 105, 1396.188598632812
0, 2, 106, 1456.669311523438
0, 2, 107, 1274.310424804688
0, 2, 108, 622.8356323242188
0, 2, 109, 171.0792694091797
0, 2, 110, 64.9468994140625
0, 2, 111, 59.45722198486328
0, 2, 112, 45.08807373046875
0, 2, 113, 45.32159805297852
0, 2, 114, 34.87390899658203
0, 2, 115, 41.93854904174805
0, 2, 116, 41.55133438110352
0, 2, 117, 32.88591003417969
0, 2, 118, 27.09551811218262
0, 2, 119, 34.38964080810547
0, 2, 120, 30.62633514404297
0, 2, 121, 20.44652557373047
0, 2, 122, 26.9563159942627
0, 2, 123, 21.11022567749023
0, 2, 124, 23.90507316589355
0, 2, 125, 29.0568904876709
0, 2, 126, 19.85850715637207
0, 2, 127, 24.32088851928711
0, 3, 0, 20.91990280151367
0, 3, 1, 22.23362159729004
0, 3, 2, 21.09050941467285
0, 3, 3, 18.86734390258789
0, 3, 4, 21.30624771118164
0, 3, 5, 22.23419380187988
0, 3, 6, 34.03514862060547
0, 3, 7, 29.894287109375
0, 3, 8, 27.9464111328125
0, 3, 9, 28.46844100952148
0, 3, 10, 35.50888824462891
0, 3, 11, 29.53036880493164
0, 3, 12, 45.74972534179688
0, 3, 13, 54.74793243408203
0, 3, 14, 59.766845703125
0, 3, 15, 53.48575210571289
0, 3, 16, 67.21104431152344
0, 3, 17, 84.92623901367188
0, 3, 18, 238.9043426513672
0, 3, 19, 878.0883178710938
0, 3, 20, 1388.663696289062
0, 3, 21, 1509.347900390625
0, 3, 22, 1458.88623046875
0, 3, 23, 1454.649291992188
0, 3, 24, 1444.937255859375
0, 3, 25, 1465.739013671875
0, 3, 26, 1498.585815429688
0, 3, 27, 1465.41650390625
0, 3, 28, 1491.80322265625
0, 3, 29, 1540.760498046875
0, 3, 30, 1572.022583007812
0, 3, 31, 1510.424072265625
0, 3, 32, 1548.88427734375
0, 3, 33, 1544.927124023438
0, 3, 34, 1486.543701171875
0, 3, 35, 1461.29345703125
0, 3, 36, 1450.246948242188
0, 3, 37, 1515.736572265625
0, 3, 38, 1521.073486328125
0, 3, 39, 1443.911987304688
0, 3, 40, 1446.345336914062
0, 3, 41, 1566.061401367188
0, 3, 42, 1462.878173828125
0, 3, 43, 1458.28857421875
0, 3, 44, 1449.446533203125
0, 3, 45, 1505.04150390625
0, 3, 46, 1513.0185546875
0, 3, 47, 1444.619995117188
0, 3, 48, 1508.362915039062
0, 3, 49, 1452.64599609375
0, 3, 50, 1490.947387695312
0, 3, 51, 1537.93359375
0, 3, 52, 1542.385498046875
0, 3, 53, 1470.2060546875
0, 3, 54, 1533.034790039062
0, 3, 55, 1504.281982421875
0, 3, 56, 1434.066040039062
0, 3, 57, 1505.993774414062
0, 3, 58, 1512.307250976562
0, 3, 59, 1510.331176757812
0, 3, 60, 1534.906372070312
0, 3, 61, 1480.681030273438
0, 3, 62, 1488.8271484375
0, 3, 63, 1487.348510742188
0, 3, 64, 1496.891357421875
0, 3, 65, 1516.347778320312
0, 3, 66, 1559.757690429688
0, 3, 67, 1549.183349609375
0, 3, 68, 1447.90576171875
0, 3, 69, 1471.5576171875
0, 3, 70, 1385.5390625
0, 3, 71, 1462.711303710938
0, 3, 72, 1548.1689453125
0, 3, 73, 1503.97412109375
0, 3, 74, 1462.42236328125
0, 3, 75, 1458.279663085938
0, 3, 76, 1570.238891601562
0, 3, 77, 1539.591430664062
0, 3, 78, 1424.595947265625
0, 3, 79, 1492.962890625
0, 3, 80, 1460.136352539062
0, 3, 81, 1476.06201171875
0, 3, 82, 1555.927856445312
0, 3, 83, 1513.499267578125
0, 3, 84, 1559.636840820312
0, 3, 85, 1478.113403320312
0, 3, 86, 1525.693359375
0, 3, 87, 1547.145385742188
0, 3, 88, 1455.66796875
0, 3, 89, 1453.119995117188
0, 3, 90, 1451.836059570312
0, 3, 91, 1423.077880859375
0, 3, 92, 1512.76220703125
0, 3, 93, 1503.108642578125
0, 3, 94, 1513.7578125
0, 3, 95, 1544.487670898438
0, 3, 96, 1513.3447265625
0, 3, 97, 1462.707641601562
0, 3, 98, 1432.46630859375
0, 3, 99, 1464.723266601562
0, 3, 100, 1477.0400390625
0, 3, 101, 1472.222900390625
0, 3, 102, 1520.431640625
0, 3, 103, 1552.346313476562
0, 3, 104, 1503.674438476562
0, 3, 105, 1516.12353515625
0, 3, 106, 1477.4794921875
0, 3, 107, 1335.452758789062
0, 3, 108, 872.4574584960938
0, 3, 109, 270.1890869140625
0, 3, 110, 103.7644577026367
0, 3, 111, 63.16032028198242
0, 3, 112, 56.74019622802734
0, 3, 113, 61.22975158691406
0, 3, 114, 53.5844612121582
0, 3, 115, 56.49055862426758
0, 3, 116, 36.57096481323242
0, 3, 117, 35.77430725097656
0, 3, 118, 32.83255004882812
0, 3, 119, 31.9757137298584
0, 3, 120, 33.16139984130859
0, 3, 121, 23.9988956451416
0, 3, 122, 34.25395202636719
0, 3, 123, 28.0760440826416
0, 3, 124, 21.41762351989746
0, 3, 125, 26.87950706481934
0, 3, 126, 24.04256820678711
0, 3, 127, 17.3950138092041
0, 4, 0, 18.28365516662598
0, 4, 1, 23.5838508605957
0, 4, 2, 22.69669151306152
0, 4, 3, 17.87370300292969
0, 4, 4, 25.35497856140137
0, 4, 5, 31.59784698486328
0, 4, 6, 33.13594818115234
0, 4, 7, 37.1596565246582
0, 4, 8, 24.43609428405762
0, 4, 9, 30.65881538391113
0, 4, 10, 39.26371383666992
0, 4, 11, 43.36890411376953
0, 4, 12, 42.29324340820312
0, 4, 13, 55.51982879638672
0, 4, 14, 46.71804428100586
0, 4, 15, 60.23554229736328
0, 4, 16, 74.41321563720703
0, 4, 17, 112.6908569335938
0, 4, 18, 441.1335144042969
0, 4, 19, 1177.23681640625
0, 4, 20, 1442.515014648438
0, 4, 21, 1422.188354492188
0, 4, 22, 1441.957885742188
0, 4, 23, 1448.271484375
0, 4, 24, 1476.819702148438
0, 4, 25, 1397.15478515625
0, 4, 26, 1537.548706054688
0, 4, 27, 1544.49462890625
0, 4, 28, 1506.087036132812
0, 4, 29, 1516.616821289062
0, 4, 30, 1524.61767578125
0, 4, 31, 1574.416625976562
0, 4, 32, 1519.266723632812
0, 4, 33, 1495.929809570312
0, 4, 34, 1469.58740234375
0, 4, 35, 1555.687133789062
0, 4, 36, 1503.078002929688
0, 4, 37, 1506.351440429688
0, 4, 38, 1527.605346679688
0, 4, 39, 1470.841796875
0, 4, 40, 1515.248168945312
0, 4, 41, 1585.200805664062
0, 4, 42, 1570.68017578125
0, 4, 43, 1476.065307617188
0, 4, 44, 1496.135131835938
0, 4, 45, 1519.078247070312
0, 4, 46, 1472.216064453125
0, 4, 47, 1505.949340820312
0, 4, 48, 1527.3701171875
0, 4, 49, 1466.187133789062
0, 4, 50, 1518.078857421875
0, 4, 51, 1488.267333984375
0, 4, 52, 1492.217163085938
0, 4, 53, 1453.540649414062
0, 4, 54, 1446.551391601562
0, 4, 55, 1534.001220703125
0, 4, 56, 1450.553588867188
0, 4, 57, 1497.175903320312
0, 4, 58, 1465.899169921875
0, 4, 59, 1465.972045898438
0, 4, 60, 1524.412109375
0, 4, 61, 1497.9443359375
0, 4, 62, 1505.268920898438
0, 4, 63, 1545.59033203125
0, 4, 64, 1591.90478515625
0, 4, 65, 1421.111938476562
0, 4, 66, 1511.57080078125
0, 4, 67, 1516.842895507812
0, 4, 68, 1499.499389648438
0, 4, 69, 1470.155151367188
0, 4, 70, 1547.0048828125
0, 4, 71, 1518.23291015625
0, 4, 72, 1527.776245117188
0, 4, 73, 1489.05615234375
0, 4, 74, 1484.93896484375
0, 4, 75, 1533.982055664062
0, 4, 76, 1478.996704101562
0, 4, 77, 1499.026977539062
0, 4, 78, 1500.63916015625
0, 4, 79, 1482.018920898438
0, 4, 80, 1511.539672851562
0, 4, 81, 1525.309692382812
0, 4, 82, 1568.00048828125
0, 4, 83, 1513.783081054688
0, 4, 84, 1541.958374023438
0, 4, 85, 1548.894897460938
0, 4, 86, 1529.2646484375
0, 4, 87, 1492.549194335938
0, 4, 88, 1519.342163085938
0, 4, 89, 1485.859130859375
0, 4, 90, 1544.006469726562
0, 4, 91, 1556.134521484375
0, 4, 92, 1492.939819335938
0, 4, 93, 1523.322998046875
0, 4, 94, 1480.941772460938
0, 4, 95, 1510.233154296875
0, 4, 96, 1443.187377929688
0, 4, 97, 1410.9990234375
0, 4, 98, 1554.668701171875
0, 4, 99, 1508.48876953125
0, 4, 100, 1488.8759765625
0, 4, 101, 1446.736938476562
0, 4, 102, 1450.795776367188
0, 4, 103, 1515.889404296875
0, 4, 104, 1510.803344726562
0, 4, 105, 1552.067626953125
0, 4, 106, 1476.93896484375
0, 4, 107, 1459.235473632812
0, 4, 108, 1123.211669921875
0, 4, 109, 435.122802734375
0, 4, 110, 98.76728057861328
0, 4, 111, 70.18081665039062
0, 4, 112, 56.02475738525391
0, 4, 113, 49.54558563232422
0, 4, 114, 53.91371154785156
0, 4, 115, 41.26738357543945
0, 4, 116, 36.30232620239258
0, 4, 117, 40.31386947631836
0, 4, 118, 45.38476943969727
0, 4, 119, 39.57186889648438
0, 4, 120, 33.61825180053711
0, 4, 121, 27.2902774810791
0, 4, 122, 28.88401412963867
0, 4, 123, 28.91883850097656
0, 4, 124, 20.75412940979004
0, 4, 125, 27.56376457214355
0, 4, 126, 22.85062599182129
0, 4, 127, 23.17931175231934
0, 5, 0, 24.77383995056152
0, 5, 1, 21.32217407226562
0, 5, 2, 28.47016143798828
0, 5, 3, 25.51762771606445
0, 5, 4, 20.01598167419434
0, 5, 5, 35.90142059326172
0, 5, 6, 32.30321502685547
0, 5, 7, 30.44879531860352
0, 5, 8, 34.5882682800293
0, 5, 9, 38.73287963867188
0, 5, 10, 33.12339401245117
0, 5, 11, 39.63748168945312
0, 5, 12, 37.82023239135742
0, 5, 13, 46.71353912353516
0, 5, 14, 63.71445465087891
0, 5, 15, 78.54984283447266
0, 5, 16, 79.60951995849609
0, 5, 17, 156.0180206298828
0, 5, 18, 677.2166748046875
0, 5, 19, 1346.161499023438
0, 5, 20, 1523.12939453125
0, 5, 21, 1492.173217773438
0, 5, 22, 1493.705200195312
0, 5, 23, 1530.852416992188
0, 5, 24, 1469.6708984375
0, 5, 25, 1425.49755859375
0, 5, 26, 1525.994018554688
0, 5, 27, 1538.17138671875
0, 5, 28, 1485.646606445312
0, 5, 29, 1521.726928710938
0, 5, 30, 1497.160522460938
0, 5, 31, 1500.080200195312
0, 5, 32, 1591.199462890625
0, 5, 33, 1506.190673828125
0, 5, 34, 1486.850952148438
0, 5, 35, 1519.696899414062
0, 5, 36, 1439.73193359375
0, 5, 37, 1526.676391601562
0, 5, 38, 1550.220825195312
0, 5, 39, 1551.151611328125
0, 5, 40, 1501.826049804688
0, 5, 41, 1478.619262695312
0, 5, 42, 1541.938720703125
0, 5, 43, 1533.998413085938
0, 5, 44, 1547.495849609375
0, 5, 45, 1506.281005859375
0, 5, 46, 1490.700073242188
0, 5, 47, 1481.83837890625
0, 5, 48, 1501.750122070312
0, 5, 49, 1523.423950195312
0, 5, 50, 1500.450073242188
0, 5, 51, 1516.783203125
0, 5, 52, 1430.580688476562
0, 5, 53, 1523.624267578125
0, 5, 54, 1525.574584960938
0, 5, 55, 1528.376342773438
0, 5, 56, 1483.795043945312
0, 5, 57, 1536.150146484375
0, 5, 58, 1507.843139648438
0, 5, 59, 1484.851196289062
0, 5, 60, 1537.340698242188
0, 5, 61, 1452.132934570312
0, 5, 62, 1588.14404296875
0, 5, 63, 1433.924072265625
0, 5, 64, 1489.99853515625
0, 5, 65, 1465.1103515625
0, 5, 66, 1529.21142578125
0, 5, 67, 1558.543334960938
0, 5, 68, 1467.462036132812
0, 5, 69, 1477.502685546875
0, 5, 70, 1488.512451171875
0, 5, 71, 1469.839111328125
0, 5, 72, 1541.400024414062
0, 5, 73, 1460.143188476562
0, 5, 74, 1491.481567382812
0, 5, 75, 1487.286376953125
0, 5, 76, 1480.2822265625
0, 5, 77, 1521.998168945312
0, 5, 78, 1531.279541015625
0, 5, 79, 1509.121459960938
0, 5, 80, 1516.718017578125
0, 5, 81, 1595.00244140625
0, 5, 82, 1524.76025390625
0, 5, 83, 1488.271118164062
0, 5, 84, 1531.3251953125
0, 5, 85, 1509.449829101562
0, 5, 86, 1556.521484375
0, 5, 87, 1472.735595703125
0, 5, 88, 1496.953491210938
0, 5, 89, 1478.8115234375
0, 5, 90, 1480.5107421875
0, 5, 91, 1551.297241210938
0, 5, 92, 1481.552124023438
0, 5, 93, 1555.44970703125
0, 5, 94, 1511.105102539062
0, 5, 95, 1562.055053710938
0, 5, 96, 1500.912475585938
0, 5, 97, 1507.312866210938
0, 5, 98, 1514.76025390625
0, 5, 99, 1545.766357421875
0, 5, 100, 1431.446044921875
0, 5, 101, 1430.462646484375
0, 5, 102, 1517.866455078125
0, 5, 103, 1473.584716796875
0, 5, 104, 1457.669067382812
0, 5, 105, 1492.504150390625
0, 5, 106, 1456.557739257812
0, 5, 107, 1402.208984375
0, 5, 108, 1291.9306640625
0, 5, 109, 720.0994262695312
0, 5, 110, 192.2669067382812
0, 5, 111, 88.17654418945312
0, 5, 112, 88.06742858886719
0, 5, 113, 64.03510284423828
0, 5, 114, 53.63759231567383
0, 5, 115, 53.21989059448242
0, 5, 116, 44.67330932617188
0, 5, 117, 34.75935363769531
0, 5, 118, 42.68146514892578
0, 5, 119, 31.85874366760254
0, 5, 120, 25.43592071533203
0, 5, 121, 26.60625839233398
0, 5, 122, 25.8516674041748
0, 5, 123, 27.30441093444824
0, 5, 124, 26.7811107635498
0, 5, 125, 21.16319847106934
0, 5, 126, 20.61243057250977
0, 5, 127, 23.3314266204834
0, 6, 0, 22.6131534576416
0, 6, 1, 26.8642692565918
0, 6, 2, 26.24901008605957
0, 6, 3, 26.07087135314941
0, 6, 4, 23.4322624206543
0, 6, 5, 33.52187728881836
0, 6, 6, 32.57845306396484
0, 6, 7, 34.13236999511719
0, 6, 8, 31.19109344482422
0, 6, 9, 35.87558364868164
0, 6, 10, 39.93002319335938
0, 6, 11, 37.9867057800293
0, 6, 12, 38.91226959228516
0, 6, 13, 60.96503067016602
0, 6, 14, 61.20742797851562
0, 6, 15, 85.87937927246094
0, 6, 16, 110.7380752563477
0, 6, 17, 295.6465759277344
0, 6, 18, 899.2366943359375
0, 6, 19, 1374.52734375
0, 6, 20, 1438.415283203125
0, 6, 21, 1531.258544921875
0, 6, 22, 1501.150756835938
0, 6, 23, 1525.450317382812
0, 6, 24, 1476.9287109375
0, 6, 25, 1528.030517578125
0, 6, 26, 1514.04345703125
0, 6, 27, 1522.5771484375
0, 6, 28, 1552.717041015625
0, 6, 29, 1576.329467773438
0, 6, 30, 1511.4775390625
0, 6, 31, 1493.297973632812
0, 6, 32, 1526.62744140625
0, 6, 33, 1486.059692382812
0, 6, 34, 1561.562133789062
0, 6, 35, 1499.08837890625
0, 6, 36, 1435.408203125
0, 6, 37, 1546.082153320312
0, 6, 38, 1522.079711914062
0, 6, 39, 1521.690063476562
0, 6, 40, 1454.780029296875
0, 6, 41, 1444.4765625
0, 6, 42, 1518.32373046875
0, 6, 43, 1491.606079101562
0, 6, 44, 1432.406127929688
0, 6, 45, 1543.873901367188
0, 6, 46, 1552.138793945312
0, 6, 47, 1500.48388671875
0, 6, 48, 1528.293212890625
0, 6, 49, 1513.813720703125
0, 6, 50, 1575.008178710938
0, 6, 51, 1500.29833984375
0, 6, 52, 1570.206665039062
0, 6, 53, 1474.091430664062
0, 6, 54, 1499.700561523438
0, 6, 55, 1568.57177734375
0, 6, 56, 1523.936157226562
0, 6, 57, 1506.163452148438
0, 6, 58, 1466.160278320312
0, 6, 59, 1521.4873046875
0, 6, 60, 1469.0947265625
0, 6, 61, 1569.450073242188
0, 6, 62, 1547.085571289062
0, 6, 63, 1493.361328125
0, 6, 64, 1406.659423828125
0, 6, 65, 1498.26171875
0, 6, 66, 1508.300415039062
0, 6, 67, 1513.568359375
0, 6, 68, 1544.781372070312
0, 6, 69, 1486.318603515625
0, 6, 70, 1527.683715820312
0, 6, 71, 1466.819458007812
0, 6, 72, 1589.082153320312
0, 6, 73, 1492.761962890625
0, 6, 74, 1558.305053710938
0, 6, 75, 1536.529907226562
0, 6, 76, 1567.944580078125
0, 6, 77, 1501.355834960938
0, 6, 78, 1441.290649414062
0, 6, 79, 1556.162231445312
0, 6, 80, 1487.126586914062
0, 6, 81, 1487.731323242188
0, 6, 82, 1503.287719726562
0, 6, 83, 1524.723266601562
0, 6, 84, 1521.788696289062
0, 6, 85, 1536.003784179688
0, 6, 86, 1541.224609375
0, 6, 87, 1571.913452148438
0, 6, 88, 1476.010375976562
0, 6, 89, 1563.98681640625
0, 6, 90, 1492.573364257812
0, 6, 91, 1540.07080078125
0, 6, 92, 1483.3583984375
0, 6, 93, 1496.6103515625
0, 6, 94, 1471.501953125
0, 6, 95, 1507.597412109375
0, 6, 96, 1523.419677734375
0, 6, 97, 1502.176391601562
0, 6, 98, 1499.531372070312
0, 6, 99, 1476.579467773438
0, 6, 100, 1523.147705078125
0, 6, 101, 1512.904418945312
0, 6, 102, 1539.255004882812
0, 6, 103, 1497.187622070312
0, 6, 104, 1461.859008789062
0, 6, 105, 1485.68603515625
0, 6, 106, 1500.855590820312
0, 6, 107, 1503.248291015625
0, 6, 108, 1412.018432617188
0, 6, 109, 928.337890625
0, 6, 110, 279.8522338867188
0, 6, 111, 97.08954620361328
0, 6, 112, 76.07987213134766
0, 6, 113, 58.20560073852539
0, 6, 114, 57.663818359375
0, 6, 115, 48.9942626953125
0, 6, 116, 44.85386657714844
0, 6, 117, 40.80485534667969
0, 6, 118, 32.94789123535156
0, 6, 119, 32.9119758605957
0, 6, 120, 31.97307586669922
0, 6, 121, 27.93001747131348
0, 6, 122, 24.69552040100098
0, 6, 123, 22.69197654724121
0, 6, 124, 31.09683799743652
0, 6, 125, 33.12447738647461
0, 6, 126, 19.34599113464355
0, 6, 127, 22.92307662963867
0, 7, 0, 23.13105964660645
0, 7, 1, 24.83803176879883
0, 7, 2, 19.96654510498047
0, 7, 3, 26.23296737670898
0, 7, 4, 25.87407875061035
0, 7, 5, 42.67367935180664
0, 7, 6, 31.16116142272949
0, 7, 7, 36.82202529907227
0, 7, 8, 26.27911758422852
0, 7, 9, 31.41019248962402
0, 7, 10, 43.14698028564453
0, 7, 11, 44.88490676879883
0, 7, 12, 45.29499435424805
0, 7, 13, 55.10296249389648
0, 7, 14, 61.38890838623047
0, 7, 15, 85.75788116455078
0, 7, 16, 129.4241027832031
0, 7, 17, 457.787109375
0, 7, 18, 1099.207641601562
0, 7, 19, 1502.94970703125
0, 7, 20, 1483.496826171875
0, 7, 21, 1368.295654296875
0, 7, 22, 1486.463012695312
0, 7, 23, 1459.485961914062
0, 7, 24, 1509.901733398438
0, 7, 25, 1591.54296875
0, 7, 26, 1515.581665039062
0, 7, 27, 1509.108032226562
0, 7, 28, 1544.00830078125
0, 7, 29, 1573.182250976562
0, 7, 30, 1549.088745117188
0, 7, 31, 1437.133911132812
0, 7, 32, 1541.507446289062
0, 7, 33, 1494.008666992188
0, 7, 34, 1477.91845703125
0, 7, 35, 1522.724853515625
0, 7, 36, 1470.916870117188
0, 7, 37, 1600.489379882812
0, 7, 38, 1501.625366210938
0, 7, 39, 1492.6435546875
0, 7, 40, 1540.929077148438
0, 7, 41, 1463.649047851562
0, 7, 42, 1484.876586914062
0, 7, 43, 1444.169677734375
0, 7, 44, 1491.394409179688
0, 7, 45, 1470.916137695312
0, 7, 46, 1515.587646484375
0, 7, 47, 1565.1572265625
0, 7, 48, 1526.330932617188
0, 7, 49, 1537.3828125
0, 7, 50, 1515.767944335938
0, 7, 51, 1497.381103515625
0, 7, 52, 1517.66015625
0, 7, 53, 1491.555297851562
0, 7, 54, 1585.76806640625
0, 7, 55, 1470.216430664062
0, 7, 56, 1545.943359375
0, 7, 57, 1513.389282226562
0, 7, 58, 1549.702514648438
0, 7, 59, 1540.089477539062
0, 7, 60, 1551.237670898438
0, 7, 61, 1492.033569335938
0, 7, 62, 1436.452270507812
0, 7, 63, 1513.261962890625
0, 7, 64, 1549.425659179688
0, 7, 65, 1527.413452148438
0, 7, 66, 1538.0029296875
0, 7, 67, 1576.568969726562
0, 7, 68, 1526.052856445312
0, 7, 69, 1516.34228515625
0, 7, 70, 1492.810180664062
0, 7, 71, 1516.8994140625
0, 7, 72, 1523.630126953125
0, 7, 73, 1519.017456054688
0, 7, 74, 1569.48779296875
0, 7, 75, 1539.52392578125
0, 7, 76, 1562.798706054688
0, 7, 77, 1515.120483398438
0, 7, 78, 1512.01806640625
0, 7, 79, 1424.197998046875
0, 7, 80, 1488.295776367188
0, 7, 81, 1496.9345703125
0, 7, 82, 1532.463623046875
0, 7, 83, 1545.147705078125
0, 7, 84, 1580.0224609375
0, 7, 85, 1476.450073242188
0, 7, 86, 1498.913818359375
0, 7, 87, 1504.449829101562
0, 7, 88, 1498.5791015625
0, 7, 89, 1550.90380859375
0, 7, 90, 1520.03857421875
0, 7, 91, 1560.36962890625
0, 7, 92, 1527.74658203125
0, 7, 93, 1550.670166015625
0, 7, 94, 1537.768676757812
0, 7, 95, 1502.644897460938
0, 7, 96, 1512.764770507812
0, 7, 97, 1435.561767578125
0, 7, 98, 1484.369995117188
0, 7, 99, 1528.036743164062
0, 7, 100, 1426.971801757812
0, 7, 101, 1469.897827148438
0, 7, 102, 1449.944213867188
0, 7, 103, 1430.354614257812
0, 7, 104, 1492.583618164062
0, 7, 105, 1522.297241210938
0, 7, 106, 1562.982666015625
0, 7, 107, 1478.67919921875
0, 7, 108, 1413.825317382812
0, 7, 109, 1143.6240234375
0, 7, 110, 483.4246215820312
0, 7, 111, 129.130859375
0, 7, 112, 79.55731201171875
0, 7, 113, 71.14330291748047
0, 7, 114, 58.88329315185547
0, 7, 115, 45.655517578125
0, 7, 116, 54.28973770141602
0, 7, 117, 45.25861740112305
0, 7, 118, 34.23614120483398
0, 7, 119, 36.54968643188477
0, 7, 120, 27.10644340515137
0, 7, 121, 26.62443542480469
0, 7, 122, 34.91915130615234
0, 7, 123, 35.14828491210938
0, 7, 124, 32.99008941650391
0, 7, 125, 25.98004722595215
0, 7, 126, 29.6197624206543
0, 7, 127, 27.1306095123291
0, 8, 0, 23.12532234191895
0, 8, 1, 23.41453170776367
0, 8, 2, 27.14419746398926
0, 8, 3, 23.85107231140137
0, 8, 4, 30.43778991699219
0, 8, 5, 34.63393020629883
0, 8, 6, 29.83084487915039
0, 8, 7, 26.52320671081543
0, 8, 8, 38.43961715698242
0, 8, 9, 42.94157791137695
0, 8, 10, 39.32167816162109
0, 8, 11, 39.57038116455078
0, 8, 12, 52.65567398071289
0, 8, 13, 74.34913635253906
0, 8, 14, 75.17060852050781
0, 8, 15, 86.27290344238281
0, 8, 16, 171.0500793457031
0, 8, 17, 679.479736328125
0, 8, 18, 1277.938354492188
0, 8, 19, 1446.033813476562
0, 8, 20, 1422.842407226562
0, 8, 21, 1411.821411132812
0, 8, 22, 1486.858520507812
0, 8, 23, 1481.93408203125
0, 8, 24, 1436.481079101562
0, 8, 25, 1458.52734375
0, 8, 26, 1518.126586914062
0, 8, 27, 1520.7861328125
0, 8, 28, 1476.145385742188
0, 8, 29, 1508.1357421875
0, 8, 30, 1485.703369140625
0, 8, 31, 1538.284790039062
0, 8, 32, 1515.881225585938
0, 8, 33, 1484.51025390625
0, 8, 34, 1535.024780273438
0, 8, 35, 1441.188842773438
0, 8, 36, 1502.990112304688
0, 8, 37, 1557.115356445312
0, 8, 38, 1557.460083007812
0, 8, 39, 1489.943481445312
0, 8, 40, 1525.389770507812
0, 8, 41, 1480.966186523438
0, 8, 42, 1536.731689453125
0, 8, 43, 1439.0703125
0, 8, 44, 1535.550903320312
0, 8, 45, 1514.312622070312
0, 8, 46, 1594.4453125
0, 8, 47, 1587.238159179688
0, 8, 48, 1545.081909179688
0, 8, 49, 1564.4599609375
