# TOPAS Version: 3.1.p3
# Parameter File: batch_inserts_148.txt
# Results for scorer Readout_Adipose
# Scored in component: MyBox
# X in 1 bin  of 0.75 cm
# Y in 512 bins of 0.0783984 cm
# Z in 128 bins of 0.078125 cm
# EnergyDeposit ( MeV ) : Sum   
0, 0, 0, 5.101278781890869
0, 0, 1, 2.098859310150146
0, 0, 2, 3.03759241104126
0, 0, 3, 1.62913703918457
0, 0, 4, 4.812736988067627
0, 0, 5, 1.633427739143372
0, 0, 6, 7.260733127593994
0, 0, 7, 9.21429443359375
0, 0, 8, 2.193306684494019
0, 0, 9, 3.993553400039673
0, 0, 10, 6.411027908325195
0, 0, 11, 4.262241840362549
0, 0, 12, 5.026612758636475
0, 0, 13, 6.513874053955078
0, 0, 14, 7.692782878875732
0, 0, 15, 9.060624122619629
0, 0, 16, 8.365669250488281
0, 0, 17, 10.68796920776367
0, 0, 18, 14.69077205657959
0, 0, 19, 41.82022094726562
0, 0, 20, 138.755859375
0, 0, 21, 223.8368377685547
0, 0, 22, 248.9721527099609
0, 0, 23, 258.6895751953125
0, 0, 24, 251.1691741943359
0, 0, 25, 257.6027526855469
0, 0, 26, 233.2794952392578
0, 0, 27, 238.7434539794922
0, 0, 28, 271.9635925292969
0, 0, 29, 251.9793701171875
0, 0, 30, 231.3404998779297
0, 0, 31, 244.0661926269531
0, 0, 32, 263.0869140625
0, 0, 33, 261.2309265136719
0, 0, 34, 287.224853515625
0, 0, 35, 267.8014831542969
0, 0, 36, 245.7041015625
0, 0, 37, 253.3291015625
0, 0, 38, 268.1125793457031
0, 0, 39, 229.6064453125
0, 0, 40, 241.6141357421875
0, 0, 41, 265.4928588867188
0, 0, 42, 229.5523986816406
0, 0, 43, 260.2453918457031
0, 0, 44, 253.2979431152344
0, 0, 45, 251.8549499511719
0, 0, 46, 243.7373352050781
0, 0, 47, 254.84814453125
0, 0, 48, 265.9598999023438
0, 0, 49, 273.9884643554688
0, 0, 50, 252.0825653076172
0, 0, 51, 257.0180053710938
0, 0, 52, 272.648681640625
0, 0, 53, 291.9360046386719
0, 0, 54, 242.7332611083984
0, 0, 55, 240.3785400390625
0, 0, 56, 277.0745239257812
0, 0, 57, 264.0836181640625
0, 0, 58, 245.3713989257812
0, 0, 59, 270.0605773925781
0, 0, 60, 233.7434234619141
0, 0, 61, 244.1892852783203
0, 0, 62, 259.1470947265625
0, 0, 63, 268.1454772949219
0, 0, 64, 256.4122009277344
0, 0, 65, 261.0517883300781
0, 0, 66, 276.3070373535156
0, 0, 67, 247.5847625732422
0, 0, 68, 258.0304260253906
0, 0, 69, 263.7987060546875
0, 0, 70, 275.4541320800781
0, 0, 71, 239.3177337646484
0, 0, 72, 249.7062225341797
0, 0, 73, 259.9837036132812
0, 0, 74, 251.9173736572266
0, 0, 75, 241.3978424072266
0, 0, 76, 228.4903564453125
0, 0, 77, 259.0372924804688
0, 0, 78, 258.0432434082031
0, 0, 79, 276.6878051757812
0, 0, 80, 214.7058410644531
0, 0, 81, 266.4313659667969
0, 0, 82, 257.0177001953125
0, 0, 83, 246.3213348388672
0, 0, 84, 269.8085021972656
0, 0, 85, 231.9297027587891
0, 0, 86, 254.0682220458984
0, 0, 87, 251.2444152832031
0, 0, 88, 260.8211059570312
0, 0, 89, 283.8816833496094
0, 0, 90, 243.7845153808594
0, 0, 91, 280.5558471679688
0, 0, 92, 253.6753540039062
0, 0, 93, 248.5302581787109
0, 0, 94, 249.6635284423828
0, 0, 95, 248.4144439697266
0, 0, 96, 276.510498046875
0, 0, 97, 271.46044921875
0, 0, 98, 272.577392578125
0, 0, 99, 259.647705078125
0, 0, 100, 256.7499389648438
0, 0, 101, 228.4662170410156
0, 0, 102, 233.2625274658203
0, 0, 103, 268.6154479980469
0, 0, 104, 254.0963745117188
0, 0, 105, 252.284912109375
0, 0, 106, 243.9556884765625
0, 0, 107, 150.4025115966797
0, 0, 108, 38.64074325561523
0, 0, 109, 11.27684593200684
0, 0, 110, 12.18177223205566
0, 0, 111, 9.495453834533691
0, 0, 112, 6.718949317932129
0, 0, 113, 5.642183303833008
0, 0, 114, 6.084903717041016
0, 0, 115, 3.427284955978394
0, 0, 116, 5.667293548583984
0, 0, 117, 5.599825382232666
0, 0, 118, 7.823522090911865
0, 0, 119, 5.025275230407715
0, 0, 120, 4.818471908569336
0, 0, 121, 3.898464679718018
0, 0, 122, 4.320974826812744
0, 0, 123, 4.49205207824707
0, 0, 124, 5.223886966705322
0, 0, 125, 5.072553157806396
0, 0, 126, 3.330391883850098
0, 0, 127, 2.005859851837158
0, 1, 0, 6.833530902862549
0, 1, 1, 1.890927791595459
0, 1, 2, 4.58739709854126
0, 1, 3, 1.71636438369751
0, 1, 4, 3.096245050430298
0, 1, 5, 5.011174201965332
0, 1, 6, 5.916143417358398
0, 1, 7, 3.735626459121704
0, 1, 8, 7.554885864257812
0, 1, 9, 3.536449670791626
0, 1, 10, 8.265298843383789
0, 1, 11, 10.61296844482422
0, 1, 12, 8.458044052124023
0, 1, 13, 9.802406311035156
0, 1, 14, 7.213931083679199
0, 1, 15, 7.250161647796631
0, 1, 16, 11.46003437042236
0, 1, 17, 10.30934619903564
0, 1, 18, 21.70984268188477
0, 1, 19, 66.62564086914062
0, 1, 20, 200.0765991210938
0, 1, 21, 254.1179046630859
0, 1, 22, 296.7741394042969
0, 1, 23, 282.9258422851562
0, 1, 24, 276.0263671875
0, 1, 25, 287.0445861816406
0, 1, 26, 269.2295532226562
0, 1, 27, 306.7474975585938
0, 1, 28, 301.4609985351562
0, 1, 29, 294.7169494628906
0, 1, 30, 281.8088684082031
0, 1, 31, 290.3450622558594
0, 1, 32, 291.57275390625
0, 1, 33, 295.0650634765625
0, 1, 34, 292.1900634765625
0, 1, 35, 277.3229064941406
0, 1, 36, 308.7417907714844
0, 1, 37, 296.1439819335938
0, 1, 38, 277.4814758300781
0, 1, 39, 294.3682250976562
0, 1, 40, 265.6688537597656
0, 1, 41, 286.7142333984375
0, 1, 42, 291.0603332519531
0, 1, 43, 331.1800231933594
0, 1, 44, 278.00732421875
0, 1, 45, 293.1571044921875
0, 1, 46, 259.9112548828125
0, 1, 47, 309.2217102050781
0, 1, 48, 284.7718200683594
0, 1, 49, 301.6070556640625
0, 1, 50, 265.1822509765625
0, 1, 51, 275.8622436523438
0, 1, 52, 296.4869384765625
0, 1, 53, 303.6331176757812
0, 1, 54, 275.0133972167969
0, 1, 55, 294.2843627929688
0, 1, 56, 279.2710876464844
0, 1, 57, 301.2680969238281
0, 1, 58, 308.0833435058594
0, 1, 59, 292.1240539550781
0, 1, 60, 298.4543762207031
0, 1, 61, 273.8836364746094
0, 1, 62, 307.0633850097656
0, 1, 63, 288.7633361816406
0, 1, 64, 287.9418029785156
0, 1, 65, 294.1686096191406
0, 1, 66, 293.4679870605469
0, 1, 67, 290.4652099609375
0, 1, 68, 278.2510070800781
0, 1, 69, 280.0416259765625
0, 1, 70, 273.5921325683594
0, 1, 71, 272.4002990722656
0, 1, 72, 284.8099060058594
0, 1, 73, 304.8155517578125
0, 1, 74, 306.7201538085938
0, 1, 75, 293.8362121582031
0, 1, 76, 286.6066284179688
0, 1, 77, 288.866455078125
0, 1, 78, 297.6479187011719
0, 1, 79, 301.3997497558594
0, 1, 80, 298.3404846191406
0, 1, 81, 300.4019775390625
0, 1, 82, 284.723388671875
0, 1, 83, 333.3247985839844
0, 1, 84, 309.6954345703125
0, 1, 85, 255.9710998535156
0, 1, 86, 294.0295715332031
0, 1, 87, 292.0038452148438
0, 1, 88, 296.6890258789062
0, 1, 89, 293.4365844726562
0, 1, 90, 269.8069763183594
0, 1, 91, 318.0657043457031
0, 1, 92, 290.4953002929688
0, 1, 93, 286.2511596679688
0, 1, 94, 303.3723754882812
0, 1, 95, 283.6709899902344
0, 1, 96, 284.8550109863281
0, 1, 97, 302.5523376464844
0, 1, 98, 276.3631591796875
0, 1, 99, 267.8861083984375
0, 1, 100, 277.1083984375
0, 1, 101, 280.5920715332031
0, 1, 102, 278.8544616699219
0, 1, 103, 280.9371643066406
0, 1, 104, 306.1104736328125
0, 1, 105, 297.2738342285156
0, 1, 106, 261.5064392089844
0, 1, 107, 196.3653106689453
0, 1, 108, 84.48536682128906
0, 1, 109, 25.06744003295898
0, 1, 110, 10.88755893707275
0, 1, 111, 7.861851215362549
0, 1, 112, 11.81464576721191
0, 1, 113, 6.940187454223633
0, 1, 114, 6.54884147644043
0, 1, 115, 6.039144039154053
0, 1, 116, 10.76986312866211
0, 1, 117, 5.349562644958496
0, 1, 118, 6.142574787139893
0, 1, 119, 4.821952819824219
0, 1, 120, 5.524324417114258
0, 1, 121, 2.717022657394409
0, 1, 122, 2.870398759841919
0, 1, 123, 2.009835481643677
0, 1, 124, 6.593587875366211
0, 1, 125, 4.171896934509277
0, 1, 126, 3.515941381454468
0, 1, 127, 1.451472282409668
0, 2, 0, 4.201620578765869
0, 2, 1, 2.532204389572144
0, 2, 2, 4.128853321075439
0, 2, 3, 5.72822380065918
0, 2, 4, 3.652801275253296
0, 2, 5, 2.177320718765259
0, 2, 6, 4.161911010742188
0, 2, 7, 6.07918119430542
0, 2, 8, 5.61336088180542
0, 2, 9, 5.075165748596191
0, 2, 10, 9.620099067687988
0, 2, 11, 6.212160587310791
0, 2, 12, 7.09529447555542
0, 2, 13, 10.28122425079346
0, 2, 14, 9.434596061706543
0, 2, 15, 8.455600738525391
0, 2, 16, 9.103914260864258
0, 2, 17, 16.52849388122559
0, 2, 18, 30.98357772827148
0, 2, 19, 114.6537322998047
0, 2, 20, 246.9193878173828
0, 2, 21, 271.3028564453125
0, 2, 22, 315.3355102539062
0, 2, 23, 301.5433959960938
0, 2, 24, 288.1990356445312
0, 2, 25, 303.0060424804688
0, 2, 26, 294.2557373046875
0, 2, 27, 275.1661682128906
0, 2, 28, 275.0581665039062
0, 2, 29, 275.4700317382812
0, 2, 30, 289.3865051269531
0, 2, 31, 277.0542602539062
0, 2, 32, 296.2250061035156
0, 2, 33, 283.6671752929688
0, 2, 34, 332.1199340820312
0, 2, 35, 288.9469909667969
0, 2, 36, 302.9242553710938
0, 2, 37, 314.4610900878906
0, 2, 38, 309.2606506347656
0, 2, 39, 264.9559631347656
0, 2, 40, 306.4351196289062
0, 2, 41, 292.3168334960938
0, 2, 42, 302.8614807128906
0, 2, 43, 313.6642150878906
0, 2, 44, 312.8523254394531
0, 2, 45, 325.8409118652344
0, 2, 46, 286.6719055175781
0, 2, 47, 302.6239318847656
0, 2, 48, 279.9605102539062
0, 2, 49, 279.1043701171875
0, 2, 50, 294.831298828125
0, 2, 51, 283.4068908691406
0, 2, 52, 272.9343566894531
0, 2, 53, 285.6651916503906
0, 2, 54, 279.9677124023438
0, 2, 55, 277.2427673339844
0, 2, 56, 302.2658996582031
0, 2, 57, 292.0068054199219
0, 2, 58, 303.6365356445312
0, 2, 59, 293.5963439941406
0, 2, 60, 319.1220703125
0, 2, 61, 300.9521484375
0, 2, 62, 315.3528442382812
0, 2, 63, 305.2332458496094
0, 2, 64, 298.403076171875
0, 2, 65, 313.8791198730469
0, 2, 66, 280.6365661621094
0, 2, 67, 291.1844787597656
0, 2, 68, 295.8426208496094
0, 2, 69, 313.0658569335938
0, 2, 70, 335.1242370605469
0, 2, 71, 282.9456481933594
0, 2, 72, 304.2872314453125
0, 2, 73, 311.0133972167969
0, 2, 74, 286.7977600097656
0, 2, 75, 305.6394348144531
0, 2, 76, 288.6414184570312
0, 2, 77, 301.5816040039062
0, 2, 78, 312.7841491699219
0, 2, 79, 307.4528198242188
0, 2, 80, 296.8251037597656
0, 2, 81, 284.0756225585938
0, 2, 82, 318.2012023925781
0, 2, 83, 312.4584350585938
0, 2, 84, 288.2701721191406
0, 2, 85, 282.3203125
0, 2, 86, 323.9661560058594
0, 2, 87, 286.0268859863281
0, 2, 88, 279.8681335449219
0, 2, 89, 295.7813720703125
0, 2, 90, 295.36083984375
0, 2, 91, 275.6485900878906
0, 2, 92, 306.0728149414062
0, 2, 93, 316.4736938476562
0, 2, 94, 291.0068359375
0, 2, 95, 315.58984375
0, 2, 96, 315.5800476074219
0, 2, 97, 290.1105346679688
0, 2, 98, 295.0619201660156
0, 2, 99, 274.4740600585938
0, 2, 100, 305.8070983886719
0, 2, 101, 301.4967956542969
0, 2, 102, 295.5580139160156
0, 2, 103, 292.2588806152344
0, 2, 104, 292.2184753417969
0, 2, 105, 273.4427185058594
0, 2, 106, 296.4139099121094
0, 2, 107, 268.9671630859375
0, 2, 108, 115.7861557006836
0, 2, 109, 33.73685455322266
0, 2, 110, 10.41192150115967
0, 2, 111, 10.91607856750488
0, 2, 112, 9.536094665527344
0, 2, 113, 10.58252048492432
0, 2, 114, 8.45926570892334
0, 2, 115, 9.947920799255371
0, 2, 116, 8.978228569030762
0, 2, 117, 6.96947193145752
0, 2, 118, 3.487957715988159
0, 2, 119, 3.231016159057617
0, 2, 120, 7.197073459625244
0, 2, 121, 1.409749746322632
0, 2, 122, 5.218537330627441
0, 2, 123, 2.729064226150513
0, 2, 124, 1.888037919998169
0, 2, 125, 4.828397750854492
0, 2, 126, 4.581412792205811
0, 2, 127, 5.432519912719727
0, 3, 0, 2.743058443069458
0, 3, 1, 4.138462066650391
0, 3, 2, 4.793923854827881
0, 3, 3, 3.528947114944458
0, 3, 4, 3.371992111206055
0, 3, 5, 6.912329196929932
0, 3, 6, 7.249914646148682
0, 3, 7, 4.943034172058105
0, 3, 8, 4.605705261230469
0, 3, 9, 8.601112365722656
0, 3, 10, 7.320744514465332
0, 3, 11, 4.803919315338135
0, 3, 12, 9.197426795959473
0, 3, 13, 14.62854671478271
0, 3, 14, 12.04543781280518
0, 3, 15, 13.19674205780029
0, 3, 16, 11.93558597564697
0, 3, 17, 21.73156929016113
0, 3, 18, 55.32644271850586
0, 3, 19, 175.5343017578125
0, 3, 20, 268.3314208984375
0, 3, 21, 270.9872741699219
0, 3, 22, 283.2454223632812
0, 3, 23, 286.571533203125
0, 3, 24, 286.5194396972656
0, 3, 25, 267.8594970703125
0, 3, 26, 303.5177001953125
0, 3, 27, 292.2403869628906
0, 3, 28, 279.5017395019531
0, 3, 29, 338.3978576660156
0, 3, 30, 315.4225769042969
0, 3, 31, 285.7725219726562
0, 3, 32, 307.5320129394531
0, 3, 33, 315.7095336914062
0, 3, 34, 323.77294921875
0, 3, 35, 305.7843627929688
0, 3, 36, 268.6187744140625
0, 3, 37, 313.4163513183594
0, 3, 38, 303.9274291992188
0, 3, 39, 289.1145324707031
0, 3, 40, 266.1674499511719
0, 3, 41, 302.4277038574219
0, 3, 42, 284.7997131347656
0, 3, 43, 307.3468933105469
0, 3, 44, 310.4319152832031
0, 3, 45, 290.3283081054688
0, 3, 46, 329.5989074707031
0, 3, 47, 299.1275939941406
0, 3, 48, 302.5696411132812
0, 3, 49, 277.6810302734375
0, 3, 50, 291.9727172851562
0, 3, 51, 276.0824890136719
0, 3, 52, 318.097412109375
0, 3, 53, 286.33154296875
0, 3, 54, 286.2838439941406
0, 3, 55, 285.1119384765625
0, 3, 56, 297.72705078125
0, 3, 57, 289.0936889648438
0, 3, 58, 305.2302551269531
0, 3, 59, 294.265869140625
0, 3, 60, 297.3235473632812
0, 3, 61, 264.5048217773438
0, 3, 62, 282.7709350585938
0, 3, 63, 307.7948913574219
0, 3, 64, 315.9993286132812
0, 3, 65, 304.2644653320312
0, 3, 66, 314.9925842285156
0, 3, 67, 319.6936645507812
0, 3, 68, 278.5950317382812
0, 3, 69, 282.6674499511719
0, 3, 70, 289.5444030761719
0, 3, 71, 301.6364440917969
0, 3, 72, 269.7877502441406
0, 3, 73, 307.3598327636719
0, 3, 74, 293.7316589355469
0, 3, 75, 291.0392150878906
0, 3, 76, 305.1830139160156
0, 3, 77, 314.0517578125
0, 3, 78, 305.233154296875
0, 3, 79, 283.591064453125
0, 3, 80, 289.6625671386719
0, 3, 81, 310.5068664550781
0, 3, 82, 314.6484680175781
0, 3, 83, 301.4588012695312
0, 3, 84, 310.7236633300781
0, 3, 85, 293.1493530273438
0, 3, 86, 300.8911743164062
0, 3, 87, 296.9016723632812
0, 3, 88, 297.7041015625
0, 3, 89, 296.1306762695312
0, 3, 90, 278.8120422363281
0, 3, 91, 283.3315124511719
0, 3, 92, 303.8486022949219
0, 3, 93, 312.3555908203125
0, 3, 94, 297.4849548339844
0, 3, 95, 333.537109375
0, 3, 96, 290.9656677246094
0, 3, 97, 285.1810607910156
0, 3, 98, 278.7814331054688
0, 3, 99, 261.14697265625
0, 3, 100, 283.6709289550781
0, 3, 101, 296.3603210449219
0, 3, 102, 274.0280456542969
0, 3, 103, 321.0757446289062
0, 3, 104, 309.0198059082031
0, 3, 105, 288.3145751953125
0, 3, 106, 303.2425842285156
0, 3, 107, 283.863525390625
0, 3, 108, 167.1543426513672
0, 3, 109, 55.55599975585938
0, 3, 110, 17.86785888671875
0, 3, 111, 13.12150001525879
0, 3, 112, 11.93233585357666
0, 3, 113, 6.144521713256836
0, 3, 114, 11.60791015625
0, 3, 115, 6.677320003509521
0, 3, 116, 8.847643852233887
0, 3, 117, 10.10769844055176
0, 3, 118, 7.864768505096436
0, 3, 119, 7.274111270904541
0, 3, 120, 6.060101985931396
0, 3, 121, 3.127401113510132
0, 3, 122, 3.921646356582642
0, 3, 123, 5.787150382995605
0, 3, 124, 4.453943729400635
0, 3, 125, 5.780890941619873
0, 3, 126, 3.279354095458984
0, 3, 127, 2.723335742950439
0, 4, 0, 2.970763206481934
0, 4, 1, 4.020925521850586
0, 4, 2, 3.303756952285767
0, 4, 3, 3.329221963882446
0, 4, 4, 7.271590232849121
0, 4, 5, 8.103660583496094
0, 4, 6, 6.907693386077881
0, 4, 7, 5.016622543334961
0, 4, 8, 4.129547119140625
0, 4, 9, 6.595590591430664
0, 4, 10, 6.085185527801514
0, 4, 11, 7.1409010887146
0, 4, 12, 5.883598804473877
0, 4, 13, 8.712060928344727
0, 4, 14, 11.92768669128418
0, 4, 15, 9.079584121704102
0, 4, 16, 13.66061210632324
0, 4, 17, 18.67955017089844
0, 4, 18, 92.43871307373047
0, 4, 19, 222.6963043212891
0, 4, 20, 284.7789001464844
0, 4, 21, 271.9095458984375
0, 4, 22, 304.4459838867188
0, 4, 23, 268.3569641113281
0, 4, 24, 289.1832580566406
0, 4, 25, 271.4071655273438
0, 4, 26, 294.6787109375
0, 4, 27, 283.7842102050781
0, 4, 28, 305.9296875
0, 4, 29, 322.5641479492188
0, 4, 30, 309.7342834472656
0, 4, 31, 305.9359741210938
0, 4, 32, 283.0834350585938
0, 4, 33, 297.7549438476562
0, 4, 34, 296.8231201171875
0, 4, 35, 311.9060668945312
0, 4, 36, 290.40234375
0, 4, 37, 288.6952819824219
0, 4, 38, 298.9972229003906
0, 4, 39, 294.9567260742188
0, 4, 40, 303.0881958007812
0, 4, 41, 313.8922119140625
0, 4, 42, 329.76416015625
0, 4, 43, 295.9402465820312
0, 4, 44, 320.4696044921875
0, 4, 45, 324.8794250488281
0, 4, 46, 305.7602233886719
0, 4, 47, 292.1396789550781
0, 4, 48, 295.619140625
0, 4, 49, 279.7417602539062
0, 4, 50, 298.6796875
0, 4, 51, 317.0842590332031
0, 4, 52, 327.0044860839844
0, 4, 53, 302.7923278808594
0, 4, 54, 288.7785034179688
0, 4, 55, 314.1336059570312
0, 4, 56, 286.3699340820312
0, 4, 57, 308.8443908691406
0, 4, 58, 295.6354675292969
0, 4, 59, 308.9347534179688
0, 4, 60, 300.8221435546875
0, 4, 61, 314.7702331542969
0, 4, 62, 310.9357299804688
0, 4, 63, 298.9149169921875
0, 4, 64, 329.1610412597656
0, 4, 65, 316.5304870605469
0, 4, 66, 293.4831237792969
0, 4, 67, 285.0175476074219
0, 4, 68, 311.443359375
0, 4, 69, 275.918212890625
0, 4, 70, 299.3038635253906
0, 4, 71, 322.0492858886719
0, 4, 72, 333.8318786621094
0, 4, 73, 297.7886047363281
0, 4, 74, 292.2447509765625
0, 4, 75, 289.3558044433594
0, 4, 76, 274.856201171875
0, 4, 77, 277.2768859863281
0, 4, 78, 311.2393493652344
0, 4, 79, 319.8442687988281
0, 4, 80, 316.0238647460938
0, 4, 81, 314.2763366699219
0, 4, 82, 297.7195739746094
0, 4, 83, 301.2390747070312
0, 4, 84, 290.41162109375
0, 4, 85, 295.7611694335938
0, 4, 86, 296.6275634765625
0, 4, 87, 284.6036682128906
0, 4, 88, 304.3944396972656
0, 4, 89, 294.5535278320312
0, 4, 90, 333.7975769042969
0, 4, 91, 301.5787353515625
0, 4, 92, 291.5140686035156
0, 4, 93, 298.4861145019531
0, 4, 94, 291.4338684082031
0, 4, 95, 288.5444641113281
0, 4, 96, 323.3448791503906
0, 4, 97, 274.924072265625
0, 4, 98, 327.0292358398438
0, 4, 99, 312.5219116210938
0, 4, 100, 300.0416259765625
0, 4, 101, 256.5888061523438
0, 4, 102, 296.5252685546875
0, 4, 103, 317.8855590820312
0, 4, 104, 280.748291015625
0, 4, 105, 310.4706115722656
0, 4, 106, 287.6029357910156
0, 4, 107, 295.5088195800781
0, 4, 108, 224.8297729492188
0, 4, 109, 78.97127532958984
0, 4, 110, 16.23643112182617
0, 4, 111, 13.93366050720215
0, 4, 112, 7.411561965942383
0, 4, 113, 9.684657096862793
0, 4, 114, 8.341231346130371
0, 4, 115, 8.732609748840332
0, 4, 116, 7.059540748596191
0, 4, 117, 6.601386547088623
0, 4, 118, 8.782312393188477
0, 4, 119, 9.286416053771973
0, 4, 120, 6.807703018188477
0, 4, 121, 4.214112281799316
0, 4, 122, 3.862954616546631
0, 4, 123, 6.549570560455322
0, 4, 124, 7.324089527130127
0, 4, 125, 10.81015205383301
0, 4, 126, 5.448737144470215
0, 4, 127, 4.49224328994751
0, 5, 0, 3.849375009536743
0, 5, 1, 3.982765197753906
0, 5, 2, 4.34508228302002
0, 5, 3, 3.643856048583984
0, 5, 4, 4.581667423248291
0, 5, 5, 6.754987716674805
0, 5, 6, 5.676138877868652
0, 5, 7, 7.743289947509766
0, 5, 8, 4.275845527648926
0, 5, 9, 5.453319072723389
0, 5, 10, 6.578697204589844
0, 5, 11, 9.206860542297363
0, 5, 12, 8.123180389404297
0, 5, 13, 5.888557910919189
0, 5, 14, 11.63241958618164
0, 5, 15, 17.86470603942871
0, 5, 16, 16.05923271179199
0, 5, 17, 29.68364715576172
0, 5, 18, 137.0453643798828
0, 5, 19, 287.2916564941406
0, 5, 20, 307.1780395507812
0, 5, 21, 317.4509887695312
0, 5, 22, 276.7096252441406
0, 5, 23, 314.2109985351562
0, 5, 24, 303.4740295410156
0, 5, 25, 291.2738037109375
0, 5, 26, 295.6570434570312
0, 5, 27, 321.3169860839844
0, 5, 28, 301.0512390136719
0, 5, 29, 296.0319213867188
0, 5, 30, 323.6207885742188
0, 5, 31, 285.2933654785156
0, 5, 32, 302.9594116210938
0, 5, 33, 303.357421875
0, 5, 34, 298.1086120605469
0, 5, 35, 309.5931091308594
0, 5, 36, 274.0039367675781
0, 5, 37, 284.6099853515625
0, 5, 38, 292.6485900878906
0, 5, 39, 313.9389953613281
0, 5, 40, 308.1318969726562
0, 5, 41, 274.4182739257812
0, 5, 42, 305.0487670898438
0, 5, 43, 313.950927734375
0, 5, 44, 294.1981506347656
0, 5, 45, 300.8109436035156
0, 5, 46, 265.8205261230469
0, 5, 47, 280.4268493652344
0, 5, 48, 294.4690246582031
0, 5, 49, 286.5330505371094
0, 5, 50, 296.2254028320312
0, 5, 51, 280.405029296875
0, 5, 52, 270.6787414550781
0, 5, 53, 284.8243103027344
0, 5, 54, 291.8600158691406
0, 5, 55, 343.1253662109375
0, 5, 56, 304.9088745117188
0, 5, 57, 305.5006103515625
0, 5, 58, 312.2221069335938
0, 5, 59, 304.7690734863281
0, 5, 60, 308.074462890625
0, 5, 61, 282.4421997070312
0, 5, 62, 326.6163635253906
0, 5, 63, 290.5348205566406
0, 5, 64, 323.7554626464844
0, 5, 65, 309.7767944335938
0, 5, 66, 327.0395812988281
0, 5, 67, 311.9519348144531
0, 5, 68, 307.8259582519531
0, 5, 69, 312.6001281738281
0, 5, 70, 301.6494750976562
0, 5, 71, 271.2705383300781
0, 5, 72, 310.0935974121094
0, 5, 73, 303.0861511230469
0, 5, 74, 295.1946716308594
0, 5, 75, 295.3409423828125
0, 5, 76, 284.6341857910156
0, 5, 77, 297.7914733886719
0, 5, 78, 317.9666748046875
0, 5, 79, 306.7056884765625
0, 5, 80, 294.2922668457031
0, 5, 81, 325.1647338867188
0, 5, 82, 323.2355041503906
0, 5, 83, 281.7242126464844
0, 5, 84, 301.3563232421875
0, 5, 85, 271.8317260742188
0, 5, 86, 327.8772888183594
0, 5, 87, 284.0431518554688
0, 5, 88, 312.354248046875
0, 5, 89, 304.8418273925781
0, 5, 90, 315.2437133789062
0, 5, 91, 314.1577758789062
0, 5, 92, 298.5881042480469
0, 5, 93, 323.3444213867188
0, 5, 94, 306.8329162597656
0, 5, 95, 295.0785827636719
0, 5, 96, 296.6389770507812
0, 5, 97, 295.816162109375
0, 5, 98, 321.7714233398438
0, 5, 99, 304.0870666503906
0, 5, 100, 291.0177612304688
0, 5, 101, 305.7659912109375
0, 5, 102, 292.3169250488281
0, 5, 103, 313.8053894042969
0, 5, 104, 302.182861328125
0, 5, 105, 291.0740966796875
0, 5, 106, 281.0374145507812
0, 5, 107, 291.5528564453125
0, 5, 108, 267.0956115722656
0, 5, 109, 156.6071319580078
0, 5, 110, 39.31386947631836
0, 5, 111, 20.3405704498291
0, 5, 112, 15.52533149719238
0, 5, 113, 13.78490161895752
0, 5, 114, 13.64935970306396
0, 5, 115, 8.13734245300293
0, 5, 116, 8.833298683166504
0, 5, 117, 7.058460712432861
0, 5, 118, 12.60977172851562
0, 5, 119, 5.624527931213379
0, 5, 120, 5.56261682510376
0, 5, 121, 4.322961330413818
0, 5, 122, 5.44524097442627
0, 5, 123, 5.259296894073486
0, 5, 124, 6.326915740966797
0, 5, 125, 5.361086368560791
0, 5, 126, 6.424857139587402
0, 5, 127, 6.300403594970703
0, 6, 0, 3.089720010757446
0, 6, 1, 2.029334783554077
0, 6, 2, 4.731058597564697
0, 6, 3, 5.753958225250244
0, 6, 4, 3.639385461807251
0, 6, 5, 5.569196701049805
0, 6, 6, 8.614274978637695
0, 6, 7, 5.606865406036377
0, 6, 8, 6.229716777801514
0, 6, 9, 5.694991588592529
0, 6, 10, 8.218659400939941
0, 6, 11, 10.16716194152832
0, 6, 12, 7.580912590026855
0, 6, 13, 13.1159029006958
0, 6, 14, 8.027297019958496
0, 6, 15, 15.9346981048584
0, 6, 16, 27.67758178710938
0, 6, 17, 56.26401519775391
0, 6, 18, 172.8767547607422
0, 6, 19, 276.044921875
0, 6, 20, 292.7385864257812
0, 6, 21, 314.4026794433594
0, 6, 22, 320.9227905273438
0, 6, 23, 306.14013671875
0, 6, 24, 317.5784606933594
0, 6, 25, 315.6503295898438
0, 6, 26, 321.7481689453125
0, 6, 27, 332.9519348144531
0, 6, 28, 293.9841003417969
0, 6, 29, 329.1795959472656
0, 6, 30, 281.1828918457031
0, 6, 31, 286.4867553710938
0, 6, 32, 340.4508361816406
0, 6, 33, 301.4285583496094
0, 6, 34, 340.3464050292969
0, 6, 35, 321.0108337402344
0, 6, 36, 274.6020202636719
0, 6, 37, 288.41064453125
0, 6, 38, 313.4827575683594
0, 6, 39, 297.631103515625
0, 6, 40, 283.8432006835938
0, 6, 41, 297.6461181640625
0, 6, 42, 304.9507446289062
0, 6, 43, 288.98193359375
0, 6, 44, 281.0310363769531
0, 6, 45, 318.8070983886719
0, 6, 46, 302.6138610839844
0, 6, 47, 334.1296081542969
0, 6, 48, 290.8597106933594
0, 6, 49, 311.3460083007812
0, 6, 50, 327.9093627929688
0, 6, 51, 310.6730651855469
0, 6, 52, 320.5209350585938
0, 6, 53, 329.0638427734375
0, 6, 54, 302.62158203125
0, 6, 55, 307.2649841308594
0, 6, 56, 295.7565307617188
0, 6, 57, 313.9626159667969
0, 6, 58, 261.1581726074219
0, 6, 59, 301.5980224609375
0, 6, 60, 312.8818054199219
0, 6, 61, 270.78369140625
0, 6, 62, 334.12646484375
0, 6, 63, 322.3512573242188
0, 6, 64, 291.8398742675781
0, 6, 65, 284.6746520996094
0, 6, 66, 301.9509582519531
0, 6, 67, 309.515380859375
0, 6, 68, 295.1067810058594
0, 6, 69, 277.8383483886719
0, 6, 70, 274.9505004882812
0, 6, 71, 288.5622253417969
0, 6, 72, 311.1252136230469
0, 6, 73, 293.4276123046875
0, 6, 74, 330.3926391601562
0, 6, 75, 344.7102661132812
0, 6, 76, 297.4739990234375
0, 6, 77, 287.54833984375
0, 6, 78, 277.1236267089844
0, 6, 79, 294.0810241699219
0, 6, 80, 300.0627746582031
0, 6, 81, 313.710693359375
0, 6, 82, 320.2080078125
0, 6, 83, 319.2420654296875
0, 6, 84, 295.7209167480469
0, 6, 85, 301.74853515625
0, 6, 86, 332.4425354003906
0, 6, 87, 292.3423461914062
0, 6, 88, 305.5355224609375
0, 6, 89, 305.29736328125
0, 6, 90, 300.59423828125
0, 6, 91, 311.3399963378906
0, 6, 92, 284.7788391113281
0, 6, 93, 296.6019287109375
0, 6, 94, 271.9622497558594
0, 6, 95, 301.0749206542969
0, 6, 96, 348.8326416015625
0, 6, 97, 309.1734619140625
0, 6, 98, 301.3233032226562
0, 6, 99, 273.3844909667969
0, 6, 100, 308.590087890625
0, 6, 101, 292.8448181152344
0, 6, 102, 308.0782775878906
0, 6, 103, 307.6735229492188
0, 6, 104, 292.413818359375
0, 6, 105, 300.117919921875
0, 6, 106, 306.880615234375
0, 6, 107, 306.2955627441406
0, 6, 108, 267.5766296386719
0, 6, 109, 187.4377136230469
0, 6, 110, 55.91206741333008
0, 6, 111, 21.6879940032959
0, 6, 112, 13.87254047393799
0, 6, 113, 11.48781299591064
0, 6, 114, 12.77675819396973
0, 6, 115, 11.21636867523193
0, 6, 116, 10.47425174713135
0, 6, 117, 6.625607490539551
0, 6, 118, 7.737014293670654
0, 6, 119, 10.93687915802002
0, 6, 120, 5.783740043640137
0, 6, 121, 7.940675258636475
0, 6, 122, 6.519387245178223
0, 6, 123, 4.61106538772583
0, 6, 124, 5.182858943939209
0, 6, 125, 6.757447242736816
0, 6, 126, 3.829957246780396
0, 6, 127, 8.112753868103027
0, 7, 0, 6.128849983215332
0, 7, 1, 4.260905265808105
0, 7, 2, 5.517564296722412
0, 7, 3, 6.362767219543457
0, 7, 4, 2.735445499420166
0, 7, 5, 5.817818164825439
0, 7, 6, 5.414741516113281
0, 7, 7, 4.381284713745117
0, 7, 8, 5.938299179077148
0, 7, 9, 10.00488090515137
0, 7, 10, 7.856180191040039
0, 7, 11, 10.9693717956543
0, 7, 12, 11.33353614807129
0, 7, 13, 9.599246978759766
0, 7, 14, 10.45918941497803
0, 7, 15, 16.99079704284668
0, 7, 16, 25.5343132019043
0, 7, 17, 97.74723815917969
0, 7, 18, 221.8236083984375
0, 7, 19, 288.7352600097656
0, 7, 20, 296.2713317871094
0, 7, 21, 277.748291015625
0, 7, 22, 299.1779479980469
0, 7, 23, 289.3746948242188
0, 7, 24, 314.3530883789062
0, 7, 25, 325.5311279296875
0, 7, 26, 277.0770263671875
0, 7, 27, 298.2069091796875
0, 7, 28, 327.0407104492188
0, 7, 29, 317.5867614746094
0, 7, 30, 302.160888671875
0, 7, 31, 279.0846862792969
0, 7, 32, 303.5657653808594
0, 7, 33, 261.4112854003906
0, 7, 34, 298.1927490234375
0, 7, 35, 319.5012512207031
0, 7, 36, 331.5307922363281
0, 7, 37, 324.8804626464844
0, 7, 38, 295.9228515625
0, 7, 39, 304.7279663085938
0, 7, 40, 289.2380981445312
0, 7, 41, 271.1424560546875
0, 7, 42, 300.2152709960938
0, 7, 43, 276.5673828125
0, 7, 44, 302.6371459960938
0, 7, 45, 294.8031311035156
0, 7, 46, 282.6048278808594
0, 7, 47, 330.1573791503906
0, 7, 48, 286.1896362304688
0, 7, 49, 302.3208923339844
0, 7, 50, 321.7045593261719
0, 7, 51, 298.4180297851562
0, 7, 52, 326.2356872558594
0, 7, 53, 309.8421325683594
0, 7, 54, 323.8468322753906
0, 7, 55, 307.6893310546875
0, 7, 56, 284.4523010253906
0, 7, 57, 283.6438293457031
0, 7, 58, 297.6323852539062
0, 7, 59, 292.7082824707031
0, 7, 60, 321.8111877441406
0, 7, 61, 277.4240112304688
0, 7, 62, 299.0956420898438
0, 7, 63, 296.16748046875
0, 7, 64, 305.6784973144531
0, 7, 65, 330.8672180175781
0, 7, 66, 319.7013854980469
0, 7, 67, 302.0902099609375
0, 7, 68, 279.1957397460938
0, 7, 69, 294.6654052734375
0, 7, 70, 302.666259765625
0, 7, 71, 309.8874206542969
0, 7, 72, 284.09375
0, 7, 73, 296.6504516601562
0, 7, 74, 344.2547302246094
0, 7, 75, 317.9672241210938
0, 7, 76, 323.0570068359375
0, 7, 77, 282.8320922851562
0, 7, 78, 298.7555541992188
0, 7, 79, 296.3813781738281
0, 7, 80, 312.0210571289062
0, 7, 81, 318.8624877929688
0, 7, 82, 330.5548400878906
0, 7, 83, 317.9342956542969
0, 7, 84, 310.4006042480469
0, 7, 85, 271.4131469726562
0, 7, 86, 310.1690979003906
0, 7, 87, 311.8475646972656
0, 7, 88, 306.1208801269531
0, 7, 89, 295.5277709960938
0, 7, 90, 308.0125732421875
0, 7, 91, 314.6960754394531
0, 7, 92, 288.6790161132812
0, 7, 93, 307.6228637695312
0, 7, 94, 273.6244812011719
0, 7, 95, 296.2607116699219
0, 7, 96, 333.3431701660156
0, 7, 97, 295.0416870117188
0, 7, 98, 290.8184509277344
0, 7, 99, 311.9350891113281
0, 7, 100, 284.0945434570312
0, 7, 101, 275.2745971679688
0, 7, 102, 289.7810974121094
0, 7, 103, 291.0874328613281
0, 7, 104, 274.5790710449219
0, 7, 105, 306.4028015136719
0, 7, 106, 317.9310302734375
0, 7, 107, 296.1155700683594
0, 7, 108, 273.4705810546875
0, 7, 109, 237.2687835693359
0, 7, 110, 96.55532836914062
0, 7, 111, 23.59315299987793
0, 7, 112, 12.96496963500977
0, 7, 113, 15.53999996185303
0, 7, 114, 11.61331081390381
0, 7, 115, 14.84512710571289
0, 7, 116, 14.55564212799072
0, 7, 117, 7.119883060455322
0, 7, 118, 9.632832527160645
0, 7, 119, 4.429125308990479
0, 7, 120, 6.991631984710693
0, 7, 121, 6.209568023681641
0, 7, 122, 8.482285499572754
0, 7, 123, 6.934933185577393
0, 7, 124, 2.423795938491821
0, 7, 125, 9.537346839904785
0, 7, 126, 7.271889209747314
0, 7, 127, 3.12568998336792
0, 8, 0, 5.942226886749268
0, 8, 1, 3.983310699462891
0, 8, 2, 3.625155210494995
0, 8, 3, 4.151474475860596
0, 8, 4, 4.444191932678223
0, 8, 5, 7.860678672790527
0, 8, 6, 6.265835285186768
0, 8, 7, 5.603889942169189
0, 8, 8, 7.014142036437988
0, 8, 9, 6.608407020568848
0, 8, 10, 7.711087226867676
0, 8, 11, 15.13189697265625
0, 8, 12, 17.11727714538574
0, 8, 13, 17.32776069641113
0, 8, 14, 13.22032928466797
0, 8, 15, 16.87132453918457
0, 8, 16, 32.28680801391602
0, 8, 17, 129.8452453613281
0, 8, 18, 243.8645782470703
0, 8, 19, 295.9370727539062
0, 8, 20, 285.9959716796875
0, 8, 21, 305.9609680175781
0, 8, 22, 295.9642028808594
0, 8, 23, 274.7614135742188
0, 8, 24, 268.117431640625
0, 8, 25, 274.6399841308594
0, 8, 26, 305.8401184082031
0, 8, 27, 308.1781005859375
0, 8, 28, 306.2759399414062
0, 8, 29, 319.0025939941406
0, 8, 30, 318.8142395019531
0, 8, 31, 304.0518798828125
0, 8, 32, 279.8615112304688
0, 8, 33, 294.2147521972656
0, 8, 34, 288.4222717285156
0, 8, 35, 280.3304443359375
0, 8, 36, 315.1580810546875
0, 8, 37, 338.1145324707031
0, 8, 38, 330.4029846191406
0, 8, 39, 280.4372863769531
0, 8, 40, 304.4572143554688
