# TOPAS Version: 3.1.p3
# Parameter File: batch_inserts_268.txt
# Results for scorer Readout_Adipose
# Scored in component: MyBox
# X in 1 bin  of 0.75 cm
# Y in 512 bins of 0.0783984 cm
# Z in 128 bins of 0.078125 cm
# EnergyDeposit ( MeV ) : Sum   
0, 0, 0, 19.84817695617676
0, 0, 1, 20.11579322814941
0, 0, 2, 21.37775421142578
0, 0, 3, 21.47976112365723
0, 0, 4, 18.14263153076172
0, 0, 5, 24.42302894592285
0, 0, 6, 22.3984375
0, 0, 7, 36.19144058227539
0, 0, 8, 28.67572402954102
0, 0, 9, 17.64295387268066
0, 0, 10, 23.28025054931641
0, 0, 11, 27.18470573425293
0, 0, 12, 36.17216110229492
0, 0, 13, 34.28329849243164
0, 0, 14, 38.64698791503906
0, 0, 15, 50.28347778320312
0, 0, 16, 44.70413208007812
0, 0, 17, 45.20038986206055
0, 0, 18, 73.17547607421875
0, 0, 19, 192.2042083740234
0, 0, 20, 703.3447875976562
0, 0, 21, 1190.304321289062
0, 0, 22, 1246.756225585938
0, 0, 23, 1271.986572265625
0, 0, 24, 1283.387084960938
0, 0, 25, 1358.88818359375
0, 0, 26, 1272.748413085938
0, 0, 27, 1277.4765625
0, 0, 28, 1322.12158203125
0, 0, 29, 1271.69921875
0, 0, 30, 1267.991088867188
0, 0, 31, 1278.81591796875
0, 0, 32, 1265.228881835938
0, 0, 33, 1243.421508789062
0, 0, 34, 1327.396728515625
0, 0, 35, 1302.2783203125
0, 0, 36, 1243.656005859375
0, 0, 37, 1279.34814453125
0, 0, 38, 1246.615478515625
0, 0, 39, 1242.972900390625
0, 0, 40, 1225.90673828125
0, 0, 41, 1266.705810546875
0, 0, 42, 1254.287109375
0, 0, 43, 1268.013305664062
0, 0, 44, 1223.74560546875
0, 0, 45, 1289.214233398438
0, 0, 46, 1261.67626953125
0, 0, 47, 1237.017333984375
0, 0, 48, 1282.69140625
0, 0, 49, 1288.224609375
0, 0, 50, 1315.639526367188
0, 0, 51, 1265.298828125
0, 0, 52, 1359.924438476562
0, 0, 53, 1326.934448242188
0, 0, 54, 1298.780029296875
0, 0, 55, 1234.059692382812
0, 0, 56, 1314.528198242188
0, 0, 57, 1296.47265625
0, 0, 58, 1256.197875976562
0, 0, 59, 1331.0361328125
0, 0, 60, 1327.18017578125
0, 0, 61, 1263.701293945312
0, 0, 62, 1237.547485351562
0, 0, 63, 1277.723388671875
0, 0, 64, 1330.171020507812
0, 0, 65, 1289.36474609375
0, 0, 66, 1318.126953125
0, 0, 67, 1218.01513671875
0, 0, 68, 1312.724487304688
0, 0, 69, 1327.668334960938
0, 0, 70, 1338.462280273438
0, 0, 71, 1286.53857421875
0, 0, 72, 1311.35302734375
0, 0, 73, 1235.1298828125
0, 0, 74, 1293.750732421875
0, 0, 75, 1295.115112304688
0, 0, 76, 1262.031127929688
0, 0, 77, 1283.990844726562
0, 0, 78, 1320.923461914062
0, 0, 79, 1326.963989257812
0, 0, 80, 1261.906372070312
0, 0, 81, 1324.05322265625
0, 0, 82, 1287.572387695312
0, 0, 83, 1288.860961914062
0, 0, 84, 1332.4521484375
0, 0, 85, 1233.71337890625
0, 0, 86, 1266.79833984375
0, 0, 87, 1250.776489257812
0, 0, 88, 1257.57373046875
0, 0, 89, 1331.964965820312
0, 0, 90, 1277.751708984375
0, 0, 91, 1354.536743164062
0, 0, 92, 1297.204956054688
0, 0, 93, 1272.062866210938
0, 0, 94, 1242.902954101562
0, 0, 95, 1326.234497070312
0, 0, 96, 1285.658447265625
0, 0, 97, 1325.945434570312
0, 0, 98, 1254.875854492188
0, 0, 99, 1253.525268554688
0, 0, 100, 1292.448120117188
0, 0, 101, 1314.013061523438
0, 0, 102, 1233.269409179688
0, 0, 103, 1322.263549804688
0, 0, 104, 1261.585327148438
0, 0, 105, 1264.953735351562
0, 0, 106, 1209.89111328125
0, 0, 107, 781.1163940429688
0, 0, 108, 197.2479705810547
0, 0, 109, 68.93584442138672
0, 0, 110, 64.70314788818359
0, 0, 111, 43.51172637939453
0, 0, 112, 36.16140365600586
0, 0, 113, 31.58397102355957
0, 0, 114, 33.00762557983398
0, 0, 115, 31.16160202026367
0, 0, 116, 29.65337944030762
0, 0, 117, 29.2627067565918
0, 0, 118, 25.98607635498047
0, 0, 119, 23.06636238098145
0, 0, 120, 25.36920738220215
0, 0, 121, 27.12290382385254
0, 0, 122, 26.2625904083252
0, 0, 123, 18.25866317749023
0, 0, 124, 20.40873718261719
0, 0, 125, 20.21865463256836
0, 0, 126, 24.5744457244873
0, 0, 127, 22.88296508789062
0, 1, 0, 25.1226692199707
0, 1, 1, 21.80933570861816
0, 1, 2, 22.96463012695312
0, 1, 3, 23.84728050231934
0, 1, 4, 26.06655883789062
0, 1, 5, 25.96754837036133
0, 1, 6, 22.02436447143555
0, 1, 7, 26.40408134460449
0, 1, 8, 35.36860275268555
0, 1, 9, 34.77362823486328
0, 1, 10, 35.48788452148438
0, 1, 11, 39.73850631713867
0, 1, 12, 38.60281753540039
0, 1, 13, 46.38236999511719
0, 1, 14, 40.46505355834961
0, 1, 15, 48.69418716430664
0, 1, 16, 56.2401008605957
0, 1, 17, 64.61004638671875
0, 1, 18, 95.89081573486328
0, 1, 19, 402.9090270996094
0, 1, 20, 1043.487426757812
0, 1, 21, 1374.062377929688
0, 1, 22, 1478.139526367188
0, 1, 23, 1467.042602539062
0, 1, 24, 1447.443481445312
0, 1, 25, 1423.258056640625
0, 1, 26, 1476.012817382812
0, 1, 27, 1464.947387695312
0, 1, 28, 1492.661376953125
0, 1, 29, 1474.25048828125
0, 1, 30, 1511.263061523438
0, 1, 31, 1483.798217773438
0, 1, 32, 1406.732543945312
0, 1, 33, 1496.5234375
0, 1, 34, 1500.618041992188
0, 1, 35, 1462.363647460938
0, 1, 36, 1492.401000976562
0, 1, 37, 1411.536865234375
0, 1, 38, 1395.119262695312
0, 1, 39, 1522.16064453125
0, 1, 40, 1462.660400390625
0, 1, 41, 1486.193237304688
0, 1, 42, 1494.694458007812
0, 1, 43, 1501.564697265625
0, 1, 44, 1448.738891601562
0, 1, 45, 1487.965087890625
0, 1, 46, 1419.733154296875
0, 1, 47, 1433.321533203125
0, 1, 48, 1429.987915039062
0, 1, 49, 1486.228271484375
0, 1, 50, 1443.5166015625
0, 1, 51, 1471.31640625
0, 1, 52, 1478.853515625
0, 1, 53, 1471.959594726562
0, 1, 54, 1505.6904296875
0, 1, 55, 1500.740478515625
0, 1, 56, 1473.176635742188
0, 1, 57, 1454.000732421875
0, 1, 58, 1429.82763671875
0, 1, 59, 1483.003295898438
0, 1, 60, 1463.907958984375
0, 1, 61, 1447.604248046875
0, 1, 62, 1456.253662109375
0, 1, 63, 1414.90087890625
0, 1, 64, 1481.183959960938
0, 1, 65, 1414.963745117188
0, 1, 66, 1441.019775390625
0, 1, 67, 1457.2734375
0, 1, 68, 1385.027465820312
0, 1, 69, 1465.222045898438
0, 1, 70, 1429.45703125
0, 1, 71, 1499.963989257812
0, 1, 72, 1437.432739257812
0, 1, 73, 1497.254150390625
0, 1, 74, 1467.442260742188
0, 1, 75, 1471.673217773438
0, 1, 76, 1453.375
0, 1, 77, 1465.293334960938
0, 1, 78, 1449.485473632812
0, 1, 79, 1506.488037109375
0, 1, 80, 1448.623046875
0, 1, 81, 1424.642211914062
0, 1, 82, 1474.957397460938
0, 1, 83, 1460.398071289062
0, 1, 84, 1535.889526367188
0, 1, 85, 1445.257690429688
0, 1, 86, 1404.103515625
0, 1, 87, 1419.568969726562
0, 1, 88, 1474.163940429688
0, 1, 89, 1474.8134765625
0, 1, 90, 1421.528564453125
0, 1, 91, 1469.16259765625
0, 1, 92, 1414.529418945312
0, 1, 93, 1460.687133789062
0, 1, 94, 1468.6630859375
0, 1, 95, 1421.4697265625
0, 1, 96, 1495.993041992188
0, 1, 97, 1513.855346679688
0, 1, 98, 1474.049194335938
0, 1, 99, 1423.55029296875
0, 1, 100, 1447.588256835938
0, 1, 101, 1412.62060546875
0, 1, 102, 1440.84228515625
0, 1, 103, 1411.498413085938
0, 1, 104, 1408.682739257812
0, 1, 105, 1461.023559570312
0, 1, 106, 1366.016479492188
0, 1, 107, 1020.131042480469
0, 1, 108, 406.2168884277344
0, 1, 109, 92.15082550048828
0, 1, 110, 60.39526748657227
0, 1, 111, 53.9747428894043
0, 1, 112, 50.15950012207031
0, 1, 113, 42.4670295715332
0, 1, 114, 35.51816940307617
0, 1, 115, 37.63901138305664
0, 1, 116, 36.2171516418457
0, 1, 117, 30.70949172973633
0, 1, 118, 36.37369918823242
0, 1, 119, 29.51946640014648
0, 1, 120, 28.55614471435547
0, 1, 121, 21.38884735107422
0, 1, 122, 21.78494071960449
0, 1, 123, 21.44559478759766
0, 1, 124, 30.6972599029541
0, 1, 125, 25.75551795959473
0, 1, 126, 17.22636032104492
0, 1, 127, 22.07024383544922
0, 2, 0, 23.68940162658691
0, 2, 1, 24.86768531799316
0, 2, 2, 29.07942962646484
0, 2, 3, 23.48523712158203
0, 2, 4, 19.45308494567871
0, 2, 5, 27.7308521270752
0, 2, 6, 27.01398086547852
0, 2, 7, 23.47641181945801
0, 2, 8, 24.90039825439453
0, 2, 9, 28.09964942932129
0, 2, 10, 28.23214149475098
0, 2, 11, 27.66247749328613
0, 2, 12, 39.48970413208008
0, 2, 13, 44.87479400634766
0, 2, 14, 50.18196487426758
0, 2, 15, 47.79439926147461
0, 2, 16, 59.88061141967773
0, 2, 17, 77.36964416503906
0, 2, 18, 149.9936065673828
0, 2, 19, 607.0256958007812
0, 2, 20, 1282.782836914062
0, 2, 21, 1435.923217773438
0, 2, 22, 1454.252563476562
0, 2, 23, 1404.015014648438
0, 2, 24, 1440.320556640625
0, 2, 25, 1527.1572265625
0, 2, 26, 1553.767211914062
0, 2, 27, 1450.769165039062
0, 2, 28, 1456.499755859375
0, 2, 29, 1462.599487304688
0, 2, 30, 1460.675170898438
0, 2, 31, 1537.617431640625
0, 2, 32, 1512.328247070312
0, 2, 33, 1443.851440429688
0, 2, 34, 1473.89013671875
0, 2, 35, 1469.37109375
0, 2, 36, 1524.09521484375
0, 2, 37, 1539.57373046875
0, 2, 38, 1506.552124023438
0, 2, 39, 1469.058349609375
0, 2, 40, 1502.257202148438
0, 2, 41, 1515.974487304688
0, 2, 42, 1502.250122070312
0, 2, 43, 1546.599975585938
0, 2, 44, 1456.87890625
0, 2, 45, 1478.639892578125
0, 2, 46, 1430.884033203125
0, 2, 47, 1447.93603515625
0, 2, 48, 1400.402709960938
0, 2, 49, 1464.091186523438
0, 2, 50, 1438.994873046875
0, 2, 51, 1446.778686523438
0, 2, 52, 1496.57958984375
0, 2, 53, 1524.699462890625
0, 2, 54, 1524.99755859375
0, 2, 55, 1492.932373046875
0, 2, 56, 1462.713256835938
0, 2, 57, 1411.657104492188
0, 2, 58, 1453.249145507812
0, 2, 59, 1446.409912109375
0, 2, 60, 1472.311279296875
0, 2, 61, 1447.252075195312
0, 2, 62, 1474.267456054688
0, 2, 63, 1508.76611328125
0, 2, 64, 1457.683715820312
0, 2, 65, 1427.327026367188
0, 2, 66, 1490.975219726562
0, 2, 67, 1503.999877929688
0, 2, 68, 1542.357543945312
0, 2, 69, 1540.308959960938
0, 2, 70, 1510.448852539062
0, 2, 71, 1464.470336914062
0, 2, 72, 1516.9150390625
0, 2, 73, 1520.748046875
0, 2, 74, 1490.570922851562
0, 2, 75, 1499.53369140625
0, 2, 76, 1443.925048828125
0, 2, 77, 1505.184814453125
0, 2, 78, 1431.8876953125
0, 2, 79, 1536.191650390625
0, 2, 80, 1483.802490234375
0, 2, 81, 1462.963989257812
0, 2, 82, 1554.379638671875
0, 2, 83, 1518.031860351562
0, 2, 84, 1494.966430664062
0, 2, 85, 1517.785034179688
0, 2, 86, 1538.16259765625
0, 2, 87, 1487.634033203125
0, 2, 88, 1539.766479492188
0, 2, 89, 1465.746215820312
0, 2, 90, 1429.140747070312
0, 2, 91, 1404.361694335938
0, 2, 92, 1475.352416992188
0, 2, 93, 1494.215576171875
0, 2, 94, 1452.770874023438
0, 2, 95, 1544.08349609375
0, 2, 96, 1515.972900390625
0, 2, 97, 1452.86767578125
0, 2, 98, 1468.123779296875
0, 2, 99, 1403.400024414062
0, 2, 100, 1473.30615234375
0, 2, 101, 1477.671508789062
0, 2, 102, 1462.068115234375
0, 2, 103, 1388.969360351562
0, 2, 104, 1410.978515625
0, 2, 105, 1392.48974609375
0, 2, 106, 1456.778076171875
0, 2, 107, 1276.275024414062
0, 2, 108, 622.2521362304688
0, 2, 109, 167.4420318603516
0, 2, 110, 70.01671600341797
0, 2, 111, 64.60662841796875
0, 2, 112, 44.32411956787109
0, 2, 113, 49.62240982055664
0, 2, 114, 38.67020797729492
0, 2, 115, 39.29594421386719
0, 2, 116, 33.17520904541016
0, 2, 117, 31.70881271362305
0, 2, 118, 29.89287376403809
0, 2, 119, 29.12694358825684
0, 2, 120, 34.70575714111328
0, 2, 121, 19.84468460083008
0, 2, 122, 30.07248497009277
0, 2, 123, 20.66715621948242
0, 2, 124, 28.3885498046875
0, 2, 125, 30.18249130249023
0, 2, 126, 21.59482002258301
0, 2, 127, 20.85708808898926
0, 3, 0, 21.61583518981934
0, 3, 1, 20.86643409729004
0, 3, 2, 22.44147109985352
0, 3, 3, 19.94030570983887
0, 3, 4, 20.62066078186035
0, 3, 5, 23.66921997070312
0, 3, 6, 28.81604194641113
0, 3, 7, 30.00740623474121
0, 3, 8, 27.82541847229004
0, 3, 9, 30.94541549682617
0, 3, 10, 34.25293350219727
0, 3, 11, 33.26487350463867
0, 3, 12, 42.85269546508789
0, 3, 13, 55.45334625244141
0, 3, 14, 60.46435546875
0, 3, 15, 57.34807586669922
0, 3, 16, 67.41055297851562
0, 3, 17, 89.82410430908203
0, 3, 18, 238.5905609130859
0, 3, 19, 874.6357421875
0, 3, 20, 1386.95849609375
0, 3, 21, 1505.7919921875
0, 3, 22, 1463.461669921875
0, 3, 23, 1456.6884765625
0, 3, 24, 1440.918212890625
0, 3, 25, 1464.206787109375
0, 3, 26, 1490.148315429688
0, 3, 27, 1473.913330078125
0, 3, 28, 1490.455200195312
0, 3, 29, 1543.365478515625
0, 3, 30, 1576.796630859375
0, 3, 31, 1510.393798828125
0, 3, 32, 1540.968139648438
0, 3, 33, 1541.300903320312
0, 3, 34, 1488.442260742188
0, 3, 35, 1468.4794921875
0, 3, 36, 1452.5205078125
0, 3, 37, 1516.215576171875
0, 3, 38, 1513.180419921875
0, 3, 39, 1433.62060546875
0, 3, 40, 1443.11328125
0, 3, 41, 1565.926391601562
0, 3, 42, 1461.15869140625
0, 3, 43, 1458.4267578125
0, 3, 44, 1452.695434570312
0, 3, 45, 1508.703735351562
0, 3, 46, 1509.860961914062
0, 3, 47, 1440.42919921875
0, 3, 48, 1505.99853515625
0, 3, 49, 1454.395385742188
0, 3, 50, 1493.341064453125
0, 3, 51, 1539.184448242188
0, 3, 52, 1534.0517578125
0, 3, 53, 1466.26123046875
0, 3, 54, 1537.641967773438
0, 3, 55, 1501.428466796875
0, 3, 56, 1437.953491210938
0, 3, 57, 1505.60400390625
0, 3, 58, 1517.041381835938
0, 3, 59, 1510.214477539062
0, 3, 60, 1533.68896484375
0, 3, 61, 1485.714965820312
0, 3, 62, 1495.810668945312
0, 3, 63, 1491.383178710938
0, 3, 64, 1501.710205078125
0, 3, 65, 1512.328735351562
0, 3, 66, 1558.21142578125
0, 3, 67, 1545.064697265625
0, 3, 68, 1452.209716796875
0, 3, 69, 1465.350341796875
0, 3, 70, 1391.705810546875
0, 3, 71, 1462.144287109375
0, 3, 72, 1548.331909179688
0, 3, 73, 1499.91064453125
0, 3, 74, 1471.144653320312
0, 3, 75, 1457.830444335938
0, 3, 76, 1572.313110351562
0, 3, 77, 1545.4130859375
0, 3, 78, 1435.15869140625
0, 3, 79, 1496.773071289062
0, 3, 80, 1460.742065429688
0, 3, 81, 1472.421264648438
0, 3, 82, 1553.07080078125
0, 3, 83, 1513.340087890625
0, 3, 84, 1560.842529296875
0, 3, 85, 1478.975463867188
0, 3, 86, 1526.374877929688
0, 3, 87, 1538.154418945312
0, 3, 88, 1463.287475585938
0, 3, 89, 1449.2568359375
0, 3, 90, 1450.192993164062
0, 3, 91, 1414.710205078125
0, 3, 92, 1515.949829101562
0, 3, 93, 1502.5830078125
0, 3, 94, 1514.511108398438
0, 3, 95, 1544.3671875
0, 3, 96, 1514.206665039062
0, 3, 97, 1463.383666992188
0, 3, 98, 1433.806030273438
0, 3, 99, 1470.254638671875
0, 3, 100, 1467.50537109375
0, 3, 101, 1475.726806640625
0, 3, 102, 1524.902099609375
0, 3, 103, 1550.002563476562
0, 3, 104, 1503.851928710938
0, 3, 105, 1519.05712890625
0, 3, 106, 1477.13671875
0, 3, 107, 1339.973876953125
0, 3, 108, 883.1226196289062
0, 3, 109, 264.3068542480469
0, 3, 110, 100.7151718139648
0, 3, 111, 62.51506423950195
0, 3, 112, 55.69500732421875
0, 3, 113, 51.00193405151367
0, 3, 114, 49.99682998657227
0, 3, 115, 54.10413360595703
0, 3, 116, 37.57060623168945
0, 3, 117, 41.31844329833984
0, 3, 118, 30.6628303527832
0, 3, 119, 31.28462409973145
0, 3, 120, 32.37772369384766
0, 3, 121, 21.64385795593262
0, 3, 122, 20.96537780761719
0, 3, 123, 24.26932907104492
0, 3, 124, 20.89612770080566
0, 3, 125, 24.4891414642334
0, 3, 126, 29.36696815490723
0, 3, 127, 16.89498138427734
0, 4, 0, 20.09665107727051
0, 4, 1, 23.74465560913086
0, 4, 2, 17.79321479797363
0, 4, 3, 21.72077369689941
0, 4, 4, 26.73258590698242
0, 4, 5, 27.1340274810791
0, 4, 6, 30.37541770935059
0, 4, 7, 30.44342041015625
0, 4, 8, 25.45746231079102
0, 4, 9, 33.32743453979492
0, 4, 10, 30.81238746643066
0, 4, 11, 39.892578125
0, 4, 12, 48.13690185546875
0, 4, 13, 51.53103637695312
0, 4, 14, 50.42813491821289
0, 4, 15, 63.69934463500977
0, 4, 16, 77.41645050048828
0, 4, 17, 120.3330841064453
0, 4, 18, 441.4058227539062
0, 4, 19, 1187.890380859375
0, 4, 20, 1445.234497070312
0, 4, 21, 1420.2763671875
0, 4, 22, 1437.084106445312
0, 4, 23, 1447.525024414062
0, 4, 24, 1474.1650390625
0, 4, 25, 1410.297607421875
0, 4, 26, 1539.251708984375
0, 4, 27, 1543.309448242188
0, 4, 28, 1506.11962890625
0, 4, 29, 1518.0087890625
0, 4, 30, 1526.069091796875
0, 4, 31, 1579.0849609375
0, 4, 32, 1518.398803710938
0, 4, 33, 1490.794311523438
0, 4, 34, 1473.9443359375
0, 4, 35, 1559.374145507812
0, 4, 36, 1503.840209960938
0, 4, 37, 1507.806762695312
0, 4, 38, 1528.90234375
0, 4, 39, 1469.884765625
0, 4, 40, 1512.9951171875
0, 4, 41, 1588.568237304688
0, 4, 42, 1561.620971679688
0, 4, 43, 1474.722290039062
0, 4, 44, 1491.905883789062
0, 4, 45, 1519.971801757812
0, 4, 46, 1467.042358398438
0, 4, 47, 1502.696411132812
0, 4, 48, 1532.795776367188
0, 4, 49, 1472.571899414062
0, 4, 50, 1519.714233398438
0, 4, 51, 1496.518310546875
0, 4, 52, 1493.057739257812
0, 4, 53, 1452.10400390625
0, 4, 54, 1443.343994140625
0, 4, 55, 1526.90234375
0, 4, 56, 1453.132690429688
0, 4, 57, 1497.39404296875
0, 4, 58, 1461.56640625
0, 4, 59, 1466.633544921875
0, 4, 60, 1525.8955078125
0, 4, 61, 1499.685180664062
0, 4, 62, 1502.254028320312
0, 4, 63, 1544.404174804688
0, 4, 64, 1592.009155273438
0, 4, 65, 1425.436157226562
0, 4, 66, 1514.750732421875
0, 4, 67, 1518.173095703125
0, 4, 68, 1498.708740234375
0, 4, 69, 1466.192138671875
0, 4, 70, 1543.190307617188
0, 4, 71, 1516.274047851562
0, 4, 72, 1525.110717773438
0, 4, 73, 1492.13232421875
0, 4, 74, 1482.773071289062
0, 4, 75, 1538.12744140625
0, 4, 76, 1482.016357421875
0, 4, 77, 1499.0751953125
0, 4, 78, 1501.691284179688
0, 4, 79, 1480.669189453125
0, 4, 80, 1515.848510742188
0, 4, 81, 1524.252197265625
0, 4, 82, 1563.782592773438
0, 4, 83, 1501.670043945312
0, 4, 84, 1539.288940429688
0, 4, 85, 1553.953735351562
0, 4, 86, 1524.173583984375
0, 4, 87, 1490.857666015625
0, 4, 88, 1509.697631835938
0, 4, 89, 1483.183227539062
0, 4, 90, 1543.09521484375
0, 4, 91, 1558.597290039062
0, 4, 92, 1490.867065429688
0, 4, 93, 1518.102172851562
0, 4, 94, 1480.503540039062
0, 4, 95, 1512.323852539062
0, 4, 96, 1442.49853515625
0, 4, 97, 1413.145751953125
0, 4, 98, 1556.970458984375
0, 4, 99, 1512.63427734375
0, 4, 100, 1483.914672851562
0, 4, 101, 1450.888671875
0, 4, 102, 1448.670043945312
0, 4, 103, 1518.204956054688
0, 4, 104, 1506.016967773438
0, 4, 105, 1556.528930664062
0, 4, 106, 1472.195068359375
0, 4, 107, 1454.585205078125
0, 4, 108, 1120.26416015625
0, 4, 109, 435.3104553222656
0, 4, 110, 100.9169540405273
0, 4, 111, 70.29067230224609
0, 4, 112, 60.01626205444336
0, 4, 113, 50.42828750610352
0, 4, 114, 52.28243637084961
0, 4, 115, 40.95854187011719
0, 4, 116, 37.44476699829102
0, 4, 117, 44.60560989379883
0, 4, 118, 36.54887390136719
0, 4, 119, 39.52774047851562
0, 4, 120, 36.11302185058594
0, 4, 121, 26.22676849365234
0, 4, 122, 32.42206954956055
0, 4, 123, 27.83101081848145
0, 4, 124, 23.42919921875
0, 4, 125, 26.28229331970215
0, 4, 126, 21.81034851074219
0, 4, 127, 14.65952014923096
0, 5, 0, 26.80922698974609
0, 5, 1, 21.97714805603027
0, 5, 2, 26.96879959106445
0, 5, 3, 27.69224739074707
0, 5, 4, 24.74638557434082
0, 5, 5, 34.27291870117188
0, 5, 6, 32.30170822143555
0, 5, 7, 32.70641708374023
0, 5, 8, 31.19294738769531
0, 5, 9, 30.0189094543457
0, 5, 10, 31.25138282775879
0, 5, 11, 41.04226684570312
0, 5, 12, 40.0033073425293
0, 5, 13, 44.60554122924805
0, 5, 14, 58.95792770385742
0, 5, 15, 79.75356292724609
0, 5, 16, 77.07042694091797
0, 5, 17, 156.3083190917969
0, 5, 18, 673.286376953125
0, 5, 19, 1346.873901367188
0, 5, 20, 1523.985229492188
0, 5, 21, 1494.651489257812
0, 5, 22, 1498.03857421875
0, 5, 23, 1534.34326171875
0, 5, 24, 1467.778198242188
0, 5, 25, 1430.520629882812
0, 5, 26, 1529.896606445312
0, 5, 27, 1542.561767578125
0, 5, 28, 1490.19287109375
0, 5, 29, 1520.321533203125
0, 5, 30, 1489.445922851562
0, 5, 31, 1502.385375976562
0, 5, 32, 1598.415771484375
0, 5, 33, 1504.454345703125
0, 5, 34, 1491.822509765625
0, 5, 35, 1513.56103515625
0, 5, 36, 1441.119262695312
0, 5, 37, 1529.493896484375
0, 5, 38, 1548.546142578125
0, 5, 39, 1551.008911132812
0, 5, 40, 1503.728271484375
0, 5, 41, 1479.035400390625
0, 5, 42, 1538.844970703125
0, 5, 43, 1528.37939453125
0, 5, 44, 1545.41162109375
0, 5, 45, 1508.965209960938
0, 5, 46, 1489.09228515625
0, 5, 47, 1483.475952148438
0, 5, 48, 1497.592163085938
0, 5, 49, 1523.16845703125
0, 5, 50, 1499.46435546875
0, 5, 51, 1522.29296875
0, 5, 52, 1427.915649414062
0, 5, 53, 1520.068481445312
0, 5, 54, 1517.936645507812
0, 5, 55, 1523.766967773438
0, 5, 56, 1483.281982421875
0, 5, 57, 1542.450561523438
0, 5, 58, 1512.974731445312
0, 5, 59, 1484.48486328125
0, 5, 60, 1535.637451171875
0, 5, 61, 1450.870727539062
0, 5, 62, 1587.307373046875
0, 5, 63, 1431.648193359375
0, 5, 64, 1488.547729492188
0, 5, 65, 1464.22119140625
0, 5, 66, 1525.286987304688
0, 5, 67, 1558.785400390625
0, 5, 68, 1465.401733398438
0, 5, 69, 1481.015380859375
0, 5, 70, 1490.845458984375
0, 5, 71, 1471.105102539062
0, 5, 72, 1543.93603515625
0, 5, 73, 1460.228515625
0, 5, 74, 1490.692504882812
0, 5, 75, 1483.683471679688
0, 5, 76, 1480.9228515625
0, 5, 77, 1518.3681640625
0, 5, 78, 1522.982177734375
0, 5, 79, 1507.229370117188
0, 5, 80, 1518.454956054688
0, 5, 81, 1591.63525390625
0, 5, 82, 1525.4931640625
0, 5, 83, 1491.198852539062
0, 5, 84, 1533.582641601562
0, 5, 85, 1513.789306640625
0, 5, 86, 1553.898315429688
0, 5, 87, 1471.147827148438
0, 5, 88, 1496.9228515625
0, 5, 89, 1480.782104492188
0, 5, 90, 1481.7109375
0, 5, 91, 1553.796142578125
0, 5, 92, 1477.888671875
0, 5, 93, 1564.446899414062
0, 5, 94, 1519.257446289062
0, 5, 95, 1564.1201171875
0, 5, 96, 1500.787719726562
0, 5, 97, 1511.881591796875
0, 5, 98, 1507.240600585938
0, 5, 99, 1542.764038085938
0, 5, 100, 1431.708740234375
0, 5, 101, 1426.947143554688
0, 5, 102, 1516.313842773438
0, 5, 103, 1473.921508789062
0, 5, 104, 1458.453735351562
0, 5, 105, 1491.973022460938
0, 5, 106, 1458.206787109375
0, 5, 107, 1400.83056640625
0, 5, 108, 1287.7509765625
0, 5, 109, 723.5767211914062
0, 5, 110, 187.9462585449219
0, 5, 111, 91.26029968261719
0, 5, 112, 81.391357421875
0, 5, 113, 63.32207489013672
0, 5, 114, 58.63864898681641
0, 5, 115, 52.37780380249023
0, 5, 116, 48.33169555664062
0, 5, 117, 36.10917663574219
0, 5, 118, 41.86906814575195
0, 5, 119, 23.8272819519043
0, 5, 120, 29.20232582092285
0, 5, 121, 24.87187004089355
0, 5, 122, 32.80296325683594
0, 5, 123, 24.68361854553223
0, 5, 124, 26.04521560668945
0, 5, 125, 22.73087882995605
0, 5, 126, 21.13090324401855
0, 5, 127, 22.49454498291016
0, 6, 0, 21.67943382263184
0, 6, 1, 34.74560928344727
0, 6, 2, 25.5758056640625
0, 6, 3, 31.11615562438965
0, 6, 4, 21.62942504882812
0, 6, 5, 29.60776519775391
0, 6, 6, 36.73212051391602
0, 6, 7, 31.2757511138916
0, 6, 8, 31.9543399810791
0, 6, 9, 34.90155792236328
0, 6, 10, 36.3140754699707
0, 6, 11, 39.1119499206543
0, 6, 12, 42.27474594116211
0, 6, 13, 55.06560134887695
0, 6, 14, 66.36306762695312
0, 6, 15, 80.75846099853516
0, 6, 16, 110.2362823486328
0, 6, 17, 294.7624816894531
0, 6, 18, 897.0667724609375
0, 6, 19, 1372.96240234375
0, 6, 20, 1440.869995117188
0, 6, 21, 1529.095458984375
0, 6, 22, 1505.355834960938
0, 6, 23, 1526.730224609375
0, 6, 24, 1475.853759765625
0, 6, 25, 1528.131713867188
0, 6, 26, 1514.576904296875
0, 6, 27, 1518.044067382812
0, 6, 28, 1556.44091796875
0, 6, 29, 1571.41943359375
0, 6, 30, 1518.8408203125
0, 6, 31, 1491.2412109375
0, 6, 32, 1530.55908203125
0, 6, 33, 1491.33154296875
0, 6, 34, 1560.265991210938
0, 6, 35, 1503.852783203125
0, 6, 36, 1442.5830078125
0, 6, 37, 1546.313842773438
0, 6, 38, 1523.684448242188
0, 6, 39, 1525.189208984375
0, 6, 40, 1460.900634765625
0, 6, 41, 1437.737426757812
0, 6, 42, 1519.674194335938
0, 6, 43, 1487.423828125
0, 6, 44, 1432.28759765625
0, 6, 45, 1543.61767578125
0, 6, 46, 1551.431762695312
0, 6, 47, 1497.406005859375
0, 6, 48, 1524.1103515625
0, 6, 49, 1508.66259765625
0, 6, 50, 1577.831909179688
0, 6, 51, 1499.478393554688
0, 6, 52, 1566.2138671875
0, 6, 53, 1474.993041992188
0, 6, 54, 1505.831176757812
0, 6, 55, 1575.137573242188
0, 6, 56, 1524.425659179688
0, 6, 57, 1503.076538085938
0, 6, 58, 1469.361572265625
0, 6, 59, 1523.859252929688
0, 6, 60, 1466.983276367188
0, 6, 61, 1571.20361328125
0, 6, 62, 1547.050903320312
0, 6, 63, 1496.660278320312
0, 6, 64, 1408.22900390625
0, 6, 65, 1493.812622070312
0, 6, 66, 1509.349365234375
0, 6, 67, 1510.28369140625
0, 6, 68, 1544.119750976562
0, 6, 69, 1487.485107421875
0, 6, 70, 1522.626098632812
0, 6, 71, 1466.262329101562
0, 6, 72, 1594.051879882812
0, 6, 73, 1488.548828125
0, 6, 74, 1560.42626953125
0, 6, 75, 1537.814331054688
0, 6, 76, 1566.017578125
0, 6, 77, 1505.923461914062
0, 6, 78, 1447.953857421875
0, 6, 79, 1554.490844726562
0, 6, 80, 1479.4443359375
0, 6, 81, 1484.271362304688
0, 6, 82, 1504.760131835938
0, 6, 83, 1527.940063476562
0, 6, 84, 1528.781372070312
0, 6, 85, 1536.45849609375
0, 6, 86, 1544.700927734375
0, 6, 87, 1577.843872070312
0, 6, 88, 1479.376708984375
0, 6, 89, 1561.427856445312
0, 6, 90, 1491.7890625
0, 6, 91, 1544.073974609375
0, 6, 92, 1486.833129882812
0, 6, 93, 1497.757080078125
0, 6, 94, 1468.107299804688
0, 6, 95, 1508.244140625
0, 6, 96, 1525.048583984375
0, 6, 97, 1501.761962890625
0, 6, 98, 1499.03857421875
0, 6, 99, 1478.936401367188
0, 6, 100, 1525.472534179688
0, 6, 101, 1516.325317382812
0, 6, 102, 1535.357666015625
0, 6, 103, 1501.412231445312
0, 6, 104, 1468.026611328125
0, 6, 105, 1488.73681640625
0, 6, 106, 1497.646728515625
0, 6, 107, 1506.132690429688
0, 6, 108, 1409.035400390625
0, 6, 109, 925.46142578125
0, 6, 110, 286.0768737792969
0, 6, 111, 92.14522552490234
0, 6, 112, 78.56735992431641
0, 6, 113, 56.48523712158203
0, 6, 114, 54.91411972045898
0, 6, 115, 44.46747589111328
0, 6, 116, 46.0850715637207
0, 6, 117, 42.12615585327148
0, 6, 118, 40.02425003051758
0, 6, 119, 36.59469223022461
0, 6, 120, 31.72208595275879
0, 6, 121, 27.03182792663574
0, 6, 122, 30.72736930847168
0, 6, 123, 26.28431701660156
0, 6, 124, 34.61299514770508
0, 6, 125, 28.7016773223877
0, 6, 126, 24.74333190917969
0, 6, 127, 23.26996803283691
0, 7, 0, 19.7000617980957
0, 7, 1, 25.94850540161133
0, 7, 2, 21.3339786529541
0, 7, 3, 24.18086624145508
0, 7, 4, 25.24988746643066
0, 7, 5, 33.91255569458008
0, 7, 6, 32.47995758056641
0, 7, 7, 33.67380142211914
0, 7, 8, 31.3433780670166
0, 7, 9, 31.80230140686035
0, 7, 10, 45.08129501342773
0, 7, 11, 45.31071090698242
0, 7, 12, 48.00278091430664
0, 7, 13, 52.85337448120117
0, 7, 14, 57.82040405273438
0, 7, 15, 82.43196868896484
0, 7, 16, 133.2910766601562
0, 7, 17, 463.1181335449219
0, 7, 18, 1103.005126953125
0, 7, 19, 1501.44140625
0, 7, 20, 1487.094360351562
0, 7, 21, 1369.449584960938
0, 7, 22, 1488.892456054688
0, 7, 23, 1456.4384765625
0, 7, 24, 1509.659423828125
0, 7, 25, 1597.041137695312
0, 7, 26, 1516.552612304688
0, 7, 27, 1508.724853515625
0, 7, 28, 1541.99462890625
0, 7, 29, 1578.276245117188
0, 7, 30, 1546.205322265625
0, 7, 31, 1435.69970703125
0, 7, 32, 1544.747680664062
0, 7, 33, 1494.306762695312
0, 7, 34, 1479.853759765625
0, 7, 35, 1524.120971679688
0, 7, 36, 1472.164916992188
0, 7, 37, 1598.37939453125
0, 7, 38, 1504.225341796875
0, 7, 39, 1494.588500976562
0, 7, 40, 1547.7265625
0, 7, 41, 1467.370361328125
0, 7, 42, 1494.59375
0, 7, 43, 1444.282104492188
0, 7, 44, 1488.583374023438
0, 7, 45, 1471.274658203125
0, 7, 46, 1518.853149414062
0, 7, 47, 1564.233764648438
0, 7, 48, 1522.5634765625
0, 7, 49, 1535.611572265625
0, 7, 50, 1511.745483398438
0, 7, 51, 1498.494995117188
0, 7, 52, 1524.556640625
0, 7, 53, 1493.711791992188
0, 7, 54, 1585.487548828125
0, 7, 55, 1470.921264648438
0, 7, 56, 1555.735961914062
0, 7, 57, 1509.281616210938
0, 7, 58, 1549.327758789062
0, 7, 59, 1539.53857421875
0, 7, 60, 1550.40966796875
0, 7, 61, 1490.953491210938
0, 7, 62, 1434.018798828125
0, 7, 63, 1510.9716796875
0, 7, 64, 1545.314575195312
0, 7, 65, 1531.614868164062
0, 7, 66, 1539.011840820312
0, 7, 67, 1575.876708984375
0, 7, 68, 1533.13330078125
0, 7, 69, 1517.800170898438
0, 7, 70, 1495.3701171875
0, 7, 71, 1522.028442382812
0, 7, 72, 1524.490234375
0, 7, 73, 1516.778198242188
0, 7, 74, 1577.74658203125
0, 7, 75, 1534.284912109375
0, 7, 76, 1558.206787109375
0, 7, 77, 1510.940673828125
0, 7, 78, 1513.504760742188
0, 7, 79, 1424.504028320312
0, 7, 80, 1488.078369140625
0, 7, 81, 1492.583129882812
0, 7, 82, 1531.235229492188
0, 7, 83, 1540.451416015625
0, 7, 84, 1587.084350585938
0, 7, 85, 1477.818725585938
0, 7, 86, 1501.590087890625
0, 7, 87, 1507.843994140625
0, 7, 88, 1504.558227539062
0, 7, 89, 1552.198486328125
0, 7, 90, 1520.89111328125
0, 7, 91, 1563.458374023438
0, 7, 92, 1529.835327148438
0, 7, 93, 1548.631103515625
0, 7, 94, 1533.8115234375
0, 7, 95, 1505.224243164062
0, 7, 96, 1508.569213867188
0, 7, 97, 1436.6025390625
0, 7, 98, 1483.9130859375
0, 7, 99, 1524.609741210938
0, 7, 100, 1419.829467773438
0, 7, 101, 1466.822265625
0, 7, 102, 1450.504028320312
0, 7, 103, 1436.33349609375
0, 7, 104, 1495.6064453125
0, 7, 105, 1526.03369140625
0, 7, 106, 1568.874877929688
0, 7, 107, 1476.15966796875
0, 7, 108, 1410.053833007812
0, 7, 109, 1148.323974609375
0, 7, 110, 470.8367614746094
0, 7, 111, 130.27880859375
0, 7, 112, 80.72685241699219
0, 7, 113, 68.06674957275391
0, 7, 114, 52.6442756652832
0, 7, 115, 49.23311996459961
0, 7, 116, 45.3592414855957
0, 7, 117, 49.61177062988281
0, 7, 118, 41.39291381835938
0, 7, 119, 35.92329788208008
0, 7, 120, 22.80342292785645
0, 7, 121, 32.05807876586914
0, 7, 122, 34.5594482421875
0, 7, 123, 33.78586578369141
0, 7, 124, 33.38804626464844
0, 7, 125, 23.51612091064453
0, 7, 126, 26.82096290588379
0, 7, 127, 21.34693336486816
0, 8, 0, 17.23289680480957
0, 8, 1, 21.68354034423828
0, 8, 2, 25.47179794311523
0, 8, 3, 22.0922966003418
0, 8, 4, 25.74527931213379
0, 8, 5, 31.00330543518066
0, 8, 6, 31.93286514282227
0, 8, 7, 30.86961364746094
0, 8, 8, 33.2691764831543
0, 8, 9, 44.81296539306641
0, 8, 10, 38.99264526367188
0, 8, 11, 49.47660827636719
0, 8, 12, 51.37197113037109
0, 8, 13, 71.58489227294922
0, 8, 14, 73.99070739746094
0, 8, 15, 89.00877380371094
0, 8, 16, 171.1416015625
0, 8, 17, 672.2858276367188
0, 8, 18, 1283.28515625
0, 8, 19, 1450.540649414062
0, 8, 20, 1420.60009765625
0, 8, 21, 1407.719604492188
0, 8, 22, 1486.202392578125
0, 8, 23, 1481.868774414062
0, 8, 24, 1435.036376953125
0, 8, 25, 1459.953002929688
0, 8, 26, 1518.0234375
0, 8, 27, 1521.874877929688
0, 8, 28, 1477.016723632812
0, 8, 29, 1506.613647460938
0, 8, 30, 1483.098999023438
0, 8, 31, 1537.488159179688
0, 8, 32, 1509.94970703125
0, 8, 33, 1484.501953125
0, 8, 34, 1531.82421875
0, 8, 35, 1440.920043945312
0, 8, 36, 1496.243408203125
0, 8, 37, 1554.98974609375
0, 8, 38, 1550.17041015625
0, 8, 39, 1492.32373046875
0, 8, 40, 1526.413208007812
0, 8, 41, 1482.9482421875
0, 8, 42, 1540.93603515625
0, 8, 43, 1434.744140625
0, 8, 44, 1534.797119140625
0, 8, 45, 1508.861083984375
0, 8, 46, 1596.739624023438
0, 8, 47, 1584.999633789062
0, 8, 48, 1546.050659179688
