# TOPAS Version: 3.1.p3
# Parameter File: batch_inserts_256.txt
# Results for scorer Readout_Adipose
# Scored in component: MyBox
# X in 1 bin  of 0.75 cm
# Y in 512 bins of 0.0783984 cm
# Z in 128 bins of 0.078125 cm
# EnergyDeposit ( MeV ) : Sum   
0, 0, 0, 2.745300054550171
0, 0, 1, 1.663646817207336
0, 0, 2, 3.253690242767334
0, 0, 3, 1.461307406425476
0, 0, 4, 3.99203896522522
0, 0, 5, 2.120004177093506
0, 0, 6, 7.420113563537598
0, 0, 7, 10.06722640991211
0, 0, 8, 2.524457454681396
0, 0, 9, 4.896313667297363
0, 0, 10, 9.019536972045898
0, 0, 11, 4.49745512008667
0, 0, 12, 4.647590160369873
0, 0, 13, 7.434634685516357
0, 0, 14, 8.148681640625
0, 0, 15, 9.535688400268555
0, 0, 16, 9.226680755615234
0, 0, 17, 11.24055576324463
0, 0, 18, 15.37969875335693
0, 0, 19, 48.26301574707031
0, 0, 20, 139.6147918701172
0, 0, 21, 223.5727996826172
0, 0, 22, 250.8321838378906
0, 0, 23, 257.7509155273438
0, 0, 24, 252.6908111572266
0, 0, 25, 257.5713500976562
0, 0, 26, 233.4201049804688
0, 0, 27, 236.3267211914062
0, 0, 28, 271.2767333984375
0, 0, 29, 253.0893249511719
0, 0, 30, 230.0924377441406
0, 0, 31, 243.1164855957031
0, 0, 32, 262.9210510253906
0, 0, 33, 260.2253112792969
0, 0, 34, 288.6361083984375
0, 0, 35, 265.9755554199219
0, 0, 36, 246.7855224609375
0, 0, 37, 253.0928955078125
0, 0, 38, 269.4530639648438
0, 0, 39, 229.9971160888672
0, 0, 40, 242.5410766601562
0, 0, 41, 265.8507995605469
0, 0, 42, 228.7524566650391
0, 0, 43, 258.7895202636719
0, 0, 44, 252.1422729492188
0, 0, 45, 253.8416442871094
0, 0, 46, 244.8549346923828
0, 0, 47, 253.7727508544922
0, 0, 48, 268.0309448242188
0, 0, 49, 274.1191101074219
0, 0, 50, 251.8658599853516
0, 0, 51, 254.9636993408203
0, 0, 52, 271.8779296875
0, 0, 53, 291.6851806640625
0, 0, 54, 242.1466522216797
0, 0, 55, 239.7001647949219
0, 0, 56, 277.2725830078125
0, 0, 57, 262.4443664550781
0, 0, 58, 247.4118041992188
0, 0, 59, 271.7490539550781
0, 0, 60, 234.6424407958984
0, 0, 61, 246.8805236816406
0, 0, 62, 258.7496337890625
0, 0, 63, 268.3834228515625
0, 0, 64, 256.5399475097656
0, 0, 65, 260.9468994140625
0, 0, 66, 276.9330749511719
0, 0, 67, 247.4818267822266
0, 0, 68, 259.1427307128906
0, 0, 69, 260.5711669921875
0, 0, 70, 273.6444396972656
0, 0, 71, 237.7565765380859
0, 0, 72, 249.7432556152344
0, 0, 73, 258.4164733886719
0, 0, 74, 252.2930603027344
0, 0, 75, 242.3804626464844
0, 0, 76, 228.1378936767578
0, 0, 77, 260.3056335449219
0, 0, 78, 256.04248046875
0, 0, 79, 277.8527526855469
0, 0, 80, 218.9436187744141
0, 0, 81, 268.5745849609375
0, 0, 82, 255.6135559082031
0, 0, 83, 243.9585418701172
0, 0, 84, 270.9182739257812
0, 0, 85, 231.5343475341797
0, 0, 86, 252.7581024169922
0, 0, 87, 250.8006896972656
0, 0, 88, 259.7655944824219
0, 0, 89, 283.7339477539062
0, 0, 90, 243.0785827636719
0, 0, 91, 280.6370849609375
0, 0, 92, 252.7490081787109
0, 0, 93, 249.5545501708984
0, 0, 94, 248.1777648925781
0, 0, 95, 247.1524810791016
0, 0, 96, 276.4588317871094
0, 0, 97, 273.2228393554688
0, 0, 98, 276.7246704101562
0, 0, 99, 258.2019348144531
0, 0, 100, 258.0162353515625
0, 0, 101, 226.4564361572266
0, 0, 102, 231.8555603027344
0, 0, 103, 269.8101196289062
0, 0, 104, 254.4965362548828
0, 0, 105, 251.8884429931641
0, 0, 106, 245.6270141601562
0, 0, 107, 152.104736328125
0, 0, 108, 39.20997619628906
0, 0, 109, 11.16319942474365
0, 0, 110, 13.10647487640381
0, 0, 111, 10.21254348754883
0, 0, 112, 7.574875831604004
0, 0, 113, 5.219081878662109
0, 0, 114, 5.453544139862061
0, 0, 115, 5.045905590057373
0, 0, 116, 5.673571586608887
0, 0, 117, 4.929056644439697
0, 0, 118, 6.112349033355713
0, 0, 119, 4.443356037139893
0, 0, 120, 3.923783302307129
0, 0, 121, 4.495504856109619
0, 0, 122, 4.764354705810547
0, 0, 123, 2.583638906478882
0, 0, 124, 4.767827987670898
0, 0, 125, 2.298685789108276
0, 0, 126, 3.938856363296509
0, 0, 127, 6.531282424926758
0, 1, 0, 7.079746723175049
0, 1, 1, 5.188304424285889
0, 1, 2, 4.002727508544922
0, 1, 3, 2.93033766746521
0, 1, 4, 3.329843759536743
0, 1, 5, 3.533564329147339
0, 1, 6, 3.291339635848999
0, 1, 7, 2.889995336532593
0, 1, 8, 7.330826759338379
0, 1, 9, 3.748569250106812
0, 1, 10, 6.862858295440674
0, 1, 11, 12.17247486114502
0, 1, 12, 8.211140632629395
0, 1, 13, 8.716229438781738
0, 1, 14, 6.96662712097168
0, 1, 15, 7.822216510772705
0, 1, 16, 10.99936866760254
0, 1, 17, 12.85772323608398
0, 1, 18, 19.75057983398438
0, 1, 19, 65.42333221435547
0, 1, 20, 198.1879272460938
0, 1, 21, 257.1680297851562
0, 1, 22, 296.3612670898438
0, 1, 23, 282.1585388183594
0, 1, 24, 275.3887023925781
0, 1, 25, 291.4468688964844
0, 1, 26, 267.910888671875
0, 1, 27, 306.9791564941406
0, 1, 28, 298.4548950195312
0, 1, 29, 295.7667541503906
0, 1, 30, 284.0205383300781
0, 1, 31, 291.5830993652344
0, 1, 32, 290.6890869140625
0, 1, 33, 298.9071044921875
0, 1, 34, 293.277587890625
0, 1, 35, 277.2282409667969
0, 1, 36, 307.2215881347656
0, 1, 37, 295.0808410644531
0, 1, 38, 279.3782958984375
0, 1, 39, 295.7343444824219
0, 1, 40, 265.6712036132812
0, 1, 41, 286.7218627929688
0, 1, 42, 288.9641723632812
0, 1, 43, 330.89892578125
0, 1, 44, 279.4147644042969
0, 1, 45, 293.5787353515625
0, 1, 46, 259.1142272949219
0, 1, 47, 309.558837890625
0, 1, 48, 286.7797241210938
0, 1, 49, 302.2431945800781
0, 1, 50, 263.6753234863281
0, 1, 51, 275.6493530273438
0, 1, 52, 299.018310546875
0, 1, 53, 304.2857666015625
0, 1, 54, 275.0276489257812
0, 1, 55, 293.9243469238281
0, 1, 56, 279.0866088867188
0, 1, 57, 298.1465454101562
0, 1, 58, 311.3756713867188
0, 1, 59, 293.3858032226562
0, 1, 60, 297.3828430175781
0, 1, 61, 275.3009338378906
0, 1, 62, 310.3379516601562
0, 1, 63, 287.5181274414062
0, 1, 64, 288.4663391113281
0, 1, 65, 294.5558776855469
0, 1, 66, 295.1643676757812
0, 1, 67, 291.8693542480469
0, 1, 68, 277.3316040039062
0, 1, 69, 280.9743041992188
0, 1, 70, 270.5498352050781
0, 1, 71, 274.3909606933594
0, 1, 72, 285.2786254882812
0, 1, 73, 305.7752990722656
0, 1, 74, 303.6577758789062
0, 1, 75, 291.9135437011719
0, 1, 76, 285.1858825683594
0, 1, 77, 288.856201171875
0, 1, 78, 299.1144104003906
0, 1, 79, 303.0758361816406
0, 1, 80, 294.1748657226562
0, 1, 81, 300.1688537597656
0, 1, 82, 287.0823669433594
0, 1, 83, 333.9237365722656
0, 1, 84, 308.3629150390625
0, 1, 85, 251.7840728759766
0, 1, 86, 293.805908203125
0, 1, 87, 290.7842407226562
0, 1, 88, 297.0941162109375
0, 1, 89, 289.7437744140625
0, 1, 90, 269.4727172851562
0, 1, 91, 319.4854736328125
0, 1, 92, 292.8191223144531
0, 1, 93, 286.3679504394531
0, 1, 94, 305.4674682617188
0, 1, 95, 283.2910766601562
0, 1, 96, 282.242919921875
0, 1, 97, 300.4297790527344
0, 1, 98, 276.6415405273438
0, 1, 99, 266.5920104980469
0, 1, 100, 277.6101989746094
0, 1, 101, 281.6430358886719
0, 1, 102, 280.7430725097656
0, 1, 103, 280.6565551757812
0, 1, 104, 307.0765991210938
0, 1, 105, 298.767822265625
0, 1, 106, 260.9156188964844
0, 1, 107, 191.7322845458984
0, 1, 108, 80.93190765380859
0, 1, 109, 23.66500854492188
0, 1, 110, 10.65312004089355
0, 1, 111, 9.09212589263916
0, 1, 112, 12.10586738586426
0, 1, 113, 4.762658596038818
0, 1, 114, 6.703181743621826
0, 1, 115, 7.645028591156006
0, 1, 116, 11.01069068908691
0, 1, 117, 6.028054714202881
0, 1, 118, 4.163609027862549
0, 1, 119, 4.958025455474854
0, 1, 120, 5.956470012664795
0, 1, 121, 4.62383508682251
0, 1, 122, 2.424771785736084
0, 1, 123, 2.982196807861328
0, 1, 124, 8.70921802520752
0, 1, 125, 3.182533025741577
0, 1, 126, 2.1084885597229
0, 1, 127, 2.268691539764404
0, 2, 0, 3.998587369918823
0, 2, 1, 1.659114599227905
0, 2, 2, 4.677416801452637
0, 2, 3, 4.506987571716309
0, 2, 4, 3.788809537887573
0, 2, 5, 2.229431390762329
0, 2, 6, 2.375154495239258
0, 2, 7, 3.692425966262817
0, 2, 8, 6.78721284866333
0, 2, 9, 5.385137557983398
0, 2, 10, 8.517372131347656
0, 2, 11, 5.99880313873291
0, 2, 12, 6.435496807098389
0, 2, 13, 10.53759956359863
0, 2, 14, 10.1232738494873
0, 2, 15, 6.99752140045166
0, 2, 16, 8.621540069580078
0, 2, 17, 17.30506324768066
0, 2, 18, 32.03906631469727
0, 2, 19, 117.0972213745117
0, 2, 20, 246.2028045654297
0, 2, 21, 270.904541015625
0, 2, 22, 316.1702270507812
0, 2, 23, 300.834228515625
0, 2, 24, 286.1625366210938
0, 2, 25, 301.2953796386719
0, 2, 26, 292.76025390625
0, 2, 27, 276.0183715820312
0, 2, 28, 272.833251953125
0, 2, 29, 275.2262573242188
0, 2, 30, 290.4321899414062
0, 2, 31, 277.8482360839844
0, 2, 32, 294.0650634765625
0, 2, 33, 281.8526306152344
0, 2, 34, 332.2684020996094
0, 2, 35, 292.1751403808594
0, 2, 36, 305.3450317382812
0, 2, 37, 315.6033325195312
0, 2, 38, 310.8084716796875
0, 2, 39, 266.7943725585938
0, 2, 40, 309.8218383789062
0, 2, 41, 290.514892578125
0, 2, 42, 302.9131469726562
0, 2, 43, 310.6995544433594
0, 2, 44, 315.0234375
0, 2, 45, 326.12060546875
0, 2, 46, 289.5346984863281
0, 2, 47, 303.3750305175781
0, 2, 48, 281.2520751953125
0, 2, 49, 278.1777038574219
0, 2, 50, 295.4147033691406
0, 2, 51, 283.2626647949219
0, 2, 52, 270.9050903320312
0, 2, 53, 286.9501342773438
0, 2, 54, 281.7032775878906
0, 2, 55, 275.0072326660156
0, 2, 56, 300.4044799804688
0, 2, 57, 290.3947448730469
0, 2, 58, 302.1226806640625
0, 2, 59, 287.1045532226562
0, 2, 60, 319.8258972167969
0, 2, 61, 301.5638122558594
0, 2, 62, 313.0250549316406
0, 2, 63, 303.0032958984375
0, 2, 64, 295.5350646972656
0, 2, 65, 313.3682861328125
0, 2, 66, 280.2872009277344
0, 2, 67, 290.6947326660156
0, 2, 68, 295.3632202148438
0, 2, 69, 312.3939208984375
0, 2, 70, 337.3275451660156
0, 2, 71, 284.6997680664062
0, 2, 72, 305.6411437988281
0, 2, 73, 312.3709411621094
0, 2, 74, 287.9653015136719
0, 2, 75, 303.9234008789062
0, 2, 76, 286.3795776367188
0, 2, 77, 300.5187072753906
0, 2, 78, 315.86865234375
0, 2, 79, 311.1717224121094
0, 2, 80, 295.2142639160156
0, 2, 81, 281.8162231445312
0, 2, 82, 318.1315002441406
0, 2, 83, 313.1238708496094
0, 2, 84, 289.039794921875
0, 2, 85, 284.901611328125
0, 2, 86, 324.813720703125
0, 2, 87, 287.2317810058594
0, 2, 88, 280.8134765625
0, 2, 89, 298.9508666992188
0, 2, 90, 295.4400939941406
0, 2, 91, 276.0411071777344
0, 2, 92, 304.5254516601562
0, 2, 93, 316.0064392089844
0, 2, 94, 291.3199768066406
0, 2, 95, 315.1578674316406
0, 2, 96, 314.8602600097656
0, 2, 97, 291.26904296875
0, 2, 98, 293.4106750488281
0, 2, 99, 273.5989074707031
0, 2, 100, 304.5732727050781
0, 2, 101, 300.7923889160156
0, 2, 102, 296.363525390625
0, 2, 103, 291.3888244628906
0, 2, 104, 291.1008911132812
0, 2, 105, 273.4872741699219
0, 2, 106, 297.6486206054688
0, 2, 107, 269.008544921875
0, 2, 108, 116.8519515991211
0, 2, 109, 31.39798355102539
0, 2, 110, 9.567896842956543
0, 2, 111, 11.39686679840088
0, 2, 112, 7.648720264434814
0, 2, 113, 10.66179466247559
0, 2, 114, 9.207063674926758
0, 2, 115, 10.97594547271729
0, 2, 116, 8.464076995849609
0, 2, 117, 6.437106132507324
0, 2, 118, 2.071180105209351
0, 2, 119, 6.642230033874512
0, 2, 120, 5.300489902496338
0, 2, 121, 1.62997031211853
0, 2, 122, 4.289109230041504
0, 2, 123, 5.267448425292969
0, 2, 124, 5.931307792663574
0, 2, 125, 6.459743499755859
0, 2, 126, 4.045633316040039
0, 2, 127, 5.552726268768311
0, 3, 0, 3.562052965164185
0, 3, 1, 2.557191371917725
0, 3, 2, 5.277202129364014
0, 3, 3, 2.395623445510864
0, 3, 4, 4.226293563842773
0, 3, 5, 7.296232223510742
0, 3, 6, 6.215240955352783
0, 3, 7, 5.492731094360352
0, 3, 8, 5.116600036621094
0, 3, 9, 6.021083831787109
0, 3, 10, 7.892518043518066
0, 3, 11, 5.072144985198975
0, 3, 12, 8.526530265808105
0, 3, 13, 14.54810905456543
0, 3, 14, 10.57883262634277
0, 3, 15, 15.03366184234619
0, 3, 16, 11.31359195709229
0, 3, 17, 19.52002716064453
0, 3, 18, 51.05281066894531
0, 3, 19, 176.8289337158203
0, 3, 20, 271.9031982421875
0, 3, 21, 271.7384643554688
0, 3, 22, 281.7084655761719
0, 3, 23, 285.9327392578125
0, 3, 24, 286.9503784179688
0, 3, 25, 274.6367492675781
0, 3, 26, 304.1584777832031
0, 3, 27, 293.3715515136719
0, 3, 28, 282.7917785644531
0, 3, 29, 336.9905700683594
0, 3, 30, 317.7578430175781
0, 3, 31, 286.2901000976562
0, 3, 32, 305.8553771972656
0, 3, 33, 314.8428955078125
0, 3, 34, 321.7616271972656
0, 3, 35, 307.3265991210938
0, 3, 36, 268.4275817871094
0, 3, 37, 314.6581420898438
0, 3, 38, 303.7604675292969
0, 3, 39, 288.3043518066406
0, 3, 40, 266.0179748535156
0, 3, 41, 299.79248046875
0, 3, 42, 286.0773315429688
0, 3, 43, 307.9874877929688
0, 3, 44, 308.762451171875
0, 3, 45, 289.430419921875
0, 3, 46, 329.67236328125
0, 3, 47, 299.7820129394531
0, 3, 48, 302.9299621582031
0, 3, 49, 275.7719116210938
0, 3, 50, 289.1961669921875
0, 3, 51, 274.5619506835938
0, 3, 52, 314.4922180175781
0, 3, 53, 289.9710083007812
0, 3, 54, 287.0863037109375
0, 3, 55, 286.2807312011719
0, 3, 56, 299.1481018066406
0, 3, 57, 290.6730041503906
0, 3, 58, 307.5817260742188
0, 3, 59, 295.0333557128906
0, 3, 60, 297.1627807617188
0, 3, 61, 264.3701477050781
0, 3, 62, 284.2818298339844
0, 3, 63, 305.9120483398438
0, 3, 64, 317.55322265625
0, 3, 65, 304.2892150878906
0, 3, 66, 314.7695007324219
0, 3, 67, 318.11328125
0, 3, 68, 278.8043212890625
0, 3, 69, 282.7093200683594
0, 3, 70, 288.2391052246094
0, 3, 71, 298.1416015625
0, 3, 72, 270.4806518554688
0, 3, 73, 311.0216369628906
0, 3, 74, 293.2825622558594
0, 3, 75, 289.0779724121094
0, 3, 76, 306.5813293457031
0, 3, 77, 314.3283386230469
0, 3, 78, 303.1171264648438
0, 3, 79, 280.9214477539062
0, 3, 80, 291.7284851074219
0, 3, 81, 311.330810546875
0, 3, 82, 315.0440673828125
0, 3, 83, 301.8414611816406
0, 3, 84, 312.4550170898438
0, 3, 85, 293.4087524414062
0, 3, 86, 304.12646484375
0, 3, 87, 299.1784973144531
0, 3, 88, 297.8875732421875
0, 3, 89, 296.835693359375
0, 3, 90, 275.9175720214844
0, 3, 91, 283.96826171875
0, 3, 92, 305.15625
0, 3, 93, 312.7234191894531
0, 3, 94, 297.0842895507812
0, 3, 95, 335.1820373535156
0, 3, 96, 293.4009399414062
0, 3, 97, 283.8025817871094
0, 3, 98, 277.2884826660156
0, 3, 99, 261.8866271972656
0, 3, 100, 285.37353515625
0, 3, 101, 296.4921264648438
0, 3, 102, 274.4093933105469
0, 3, 103, 320.9701232910156
0, 3, 104, 311.0836791992188
0, 3, 105, 288.1892395019531
0, 3, 106, 301.5814208984375
0, 3, 107, 282.514892578125
0, 3, 108, 168.4490661621094
0, 3, 109, 57.52330017089844
0, 3, 110, 18.48611259460449
0, 3, 111, 13.13446998596191
0, 3, 112, 11.42244434356689
0, 3, 113, 5.709081649780273
0, 3, 114, 11.05248928070068
0, 3, 115, 6.979272365570068
0, 3, 116, 7.931963443756104
0, 3, 117, 7.915055274963379
0, 3, 118, 6.172328948974609
0, 3, 119, 6.93792200088501
0, 3, 120, 6.345256328582764
0, 3, 121, 3.001122951507568
0, 3, 122, 3.884972810745239
0, 3, 123, 5.998488903045654
0, 3, 124, 2.927464485168457
0, 3, 125, 5.060431957244873
0, 3, 126, 5.109842777252197
0, 3, 127, 2.761921882629395
0, 4, 0, 2.125393629074097
0, 4, 1, 5.768166542053223
0, 4, 2, 4.635581970214844
0, 4, 3, 3.155339956283569
0, 4, 4, 5.129065036773682
0, 4, 5, 7.762308120727539
0, 4, 6, 7.991289615631104
0, 4, 7, 6.236802577972412
0, 4, 8, 4.259703159332275
0, 4, 9, 6.993196964263916
0, 4, 10, 5.726253986358643
0, 4, 11, 6.58726167678833
0, 4, 12, 5.414938449859619
0, 4, 13, 8.59343433380127
0, 4, 14, 15.12223720550537
0, 4, 15, 8.83242130279541
0, 4, 16, 13.85531234741211
0, 4, 17, 19.25632095336914
0, 4, 18, 94.86246490478516
0, 4, 19, 223.0676879882812
0, 4, 20, 282.81884765625
0, 4, 21, 272.0193176269531
0, 4, 22, 305.4826354980469
0, 4, 23, 265.6907043457031
0, 4, 24, 289.0027160644531
0, 4, 25, 275.1604309082031
0, 4, 26, 295.5198974609375
0, 4, 27, 283.6871337890625
0, 4, 28, 306.2304077148438
0, 4, 29, 322.8230895996094
0, 4, 30, 309.0315856933594
0, 4, 31, 305.5073547363281
0, 4, 32, 281.031005859375
0, 4, 33, 297.5848083496094
0, 4, 34, 297.765869140625
0, 4, 35, 311.4089660644531
0, 4, 36, 292.3011474609375
0, 4, 37, 288.8741760253906
0, 4, 38, 299.7576599121094
0, 4, 39, 293.6832580566406
0, 4, 40, 302.8088684082031
0, 4, 41, 311.308349609375
0, 4, 42, 329.8708801269531
0, 4, 43, 295.9341735839844
0, 4, 44, 321.7953186035156
0, 4, 45, 323.6043395996094
0, 4, 46, 304.8598022460938
0, 4, 47, 291.9635009765625
0, 4, 48, 296.1516418457031
0, 4, 49, 277.3912048339844
0, 4, 50, 296.9040832519531
0, 4, 51, 316.5213623046875
0, 4, 52, 328.03857421875
0, 4, 53, 303.6606140136719
0, 4, 54, 286.3636779785156
0, 4, 55, 315.6557006835938
0, 4, 56, 288.7252197265625
0, 4, 57, 308.7963256835938
0, 4, 58, 296.2843017578125
0, 4, 59, 308.2529296875
0, 4, 60, 300.7427368164062
0, 4, 61, 315.4546203613281
0, 4, 62, 309.2225341796875
0, 4, 63, 299.3197021484375
0, 4, 64, 330.0086059570312
0, 4, 65, 314.2947692871094
0, 4, 66, 294.1340637207031
0, 4, 67, 284.7935180664062
0, 4, 68, 314.7919006347656
0, 4, 69, 275.1056213378906
0, 4, 70, 298.6935119628906
0, 4, 71, 321.226318359375
0, 4, 72, 333.5381774902344
0, 4, 73, 299.6954040527344
0, 4, 74, 291.0424194335938
0, 4, 75, 289.3433837890625
0, 4, 76, 276.8941955566406
0, 4, 77, 277.4018859863281
0, 4, 78, 308.4868469238281
0, 4, 79, 320.1466369628906
0, 4, 80, 316.1403503417969
0, 4, 81, 311.853515625
0, 4, 82, 299.3097534179688
0, 4, 83, 301.3016357421875
0, 4, 84, 290.9549865722656
0, 4, 85, 295.9382019042969
0, 4, 86, 297.1270141601562
0, 4, 87, 283.8265686035156
0, 4, 88, 306.3976135253906
0, 4, 89, 293.6642150878906
0, 4, 90, 335.8021545410156
0, 4, 91, 302.612060546875
0, 4, 92, 291.8525085449219
0, 4, 93, 296.123291015625
0, 4, 94, 292.112060546875
0, 4, 95, 289.2599182128906
0, 4, 96, 322.8969116210938
0, 4, 97, 274.3240661621094
0, 4, 98, 326.2765197753906
0, 4, 99, 315.4159240722656
0, 4, 100, 300.9382629394531
0, 4, 101, 258.3447570800781
0, 4, 102, 301.7793579101562
0, 4, 103, 315.7626647949219
0, 4, 104, 281.4946899414062
0, 4, 105, 309.7066955566406
0, 4, 106, 286.4642028808594
0, 4, 107, 295.5465698242188
0, 4, 108, 225.6509552001953
0, 4, 109, 79.74808502197266
0, 4, 110, 16.63899040222168
0, 4, 111, 13.29170989990234
0, 4, 112, 8.711737632751465
0, 4, 113, 9.967905044555664
0, 4, 114, 9.682798385620117
0, 4, 115, 10.22065162658691
0, 4, 116, 8.531502723693848
0, 4, 117, 6.87923002243042
0, 4, 118, 10.09961605072021
0, 4, 119, 8.851053237915039
0, 4, 120, 4.300508975982666
0, 4, 121, 4.540807247161865
0, 4, 122, 3.356830596923828
0, 4, 123, 6.864795684814453
0, 4, 124, 5.559407711029053
0, 4, 125, 10.12200164794922
0, 4, 126, 3.974222183227539
0, 4, 127, 3.554363250732422
0, 5, 0, 3.350291728973389
0, 5, 1, 3.92868185043335
0, 5, 2, 2.994659185409546
0, 5, 3, 2.767275810241699
0, 5, 4, 7.012471675872803
0, 5, 5, 6.301793098449707
0, 5, 6, 9.072757720947266
0, 5, 7, 7.519994258880615
0, 5, 8, 7.139365196228027
0, 5, 9, 7.011843681335449
0, 5, 10, 10.22718524932861
0, 5, 11, 9.72099494934082
0, 5, 12, 8.313136100769043
0, 5, 13, 4.583242416381836
0, 5, 14, 13.2937650680542
0, 5, 15, 17.2391414642334
0, 5, 16, 14.04080390930176
0, 5, 17, 28.42438888549805
0, 5, 18, 136.0704498291016
0, 5, 19, 287.6925048828125
0, 5, 20, 306.8303833007812
0, 5, 21, 318.6889343261719
0, 5, 22, 277.4464416503906
0, 5, 23, 311.8551940917969
0, 5, 24, 301.5711975097656
0, 5, 25, 290.5245971679688
0, 5, 26, 294.9326171875
0, 5, 27, 322.5004272460938
0, 5, 28, 305.20654296875
0, 5, 29, 298.7226257324219
0, 5, 30, 326.772705078125
0, 5, 31, 285.7825622558594
0, 5, 32, 301.6385192871094
0, 5, 33, 303.1748046875
0, 5, 34, 299.390869140625
0, 5, 35, 309.3023681640625
0, 5, 36, 269.2493896484375
0, 5, 37, 283.2946472167969
0, 5, 38, 293.9491271972656
0, 5, 39, 313.1172180175781
0, 5, 40, 307.9671630859375
0, 5, 41, 271.7615661621094
0, 5, 42, 306.188232421875
0, 5, 43, 316.0509643554688
0, 5, 44, 290.7111511230469
0, 5, 45, 303.61767578125
0, 5, 46, 264.0252075195312
0, 5, 47, 281.7117004394531
0, 5, 48, 295.4393920898438
0, 5, 49, 286.6661987304688
0, 5, 50, 295.2718811035156
0, 5, 51, 281.3367004394531
0, 5, 52, 268.5120849609375
0, 5, 53, 282.8465576171875
0, 5, 54, 291.8790283203125
0, 5, 55, 344.1156311035156
0, 5, 56, 304.8442993164062
0, 5, 57, 307.6911315917969
0, 5, 58, 314.1702880859375
0, 5, 59, 304.2311401367188
0, 5, 60, 308.2105712890625
0, 5, 61, 280.8808898925781
0, 5, 62, 329.0769958496094
0, 5, 63, 292.0986022949219
0, 5, 64, 325.5154113769531
0, 5, 65, 306.29638671875
0, 5, 66, 329.3258972167969
0, 5, 67, 313.5096740722656
0, 5, 68, 307.5830383300781
0, 5, 69, 312.0420227050781
0, 5, 70, 299.8628234863281
0, 5, 71, 272.1633605957031
0, 5, 72, 309.8734130859375
0, 5, 73, 303.3813171386719
0, 5, 74, 298.0328674316406
0, 5, 75, 294.6202697753906
0, 5, 76, 285.08203125
0, 5, 77, 297.8956604003906
0, 5, 78, 316.2760620117188
0, 5, 79, 306.3477783203125
0, 5, 80, 294.9182739257812
0, 5, 81, 324.919921875
0, 5, 82, 324.1775817871094
0, 5, 83, 281.3981628417969
0, 5, 84, 303.5612487792969
0, 5, 85, 271.1141967773438
0, 5, 86, 324.7442016601562
0, 5, 87, 282.3458251953125
0, 5, 88, 313.6719665527344
0, 5, 89, 306.4421081542969
0, 5, 90, 316.1208801269531
0, 5, 91, 315.32470703125
0, 5, 92, 295.1474914550781
0, 5, 93, 320.5003051757812
0, 5, 94, 311.6748046875
0, 5, 95, 300.6582336425781
0, 5, 96, 296.4852600097656
0, 5, 97, 294.9638061523438
0, 5, 98, 321.6796569824219
0, 5, 99, 303.7108764648438
0, 5, 100, 290.5704956054688
0, 5, 101, 306.2860412597656
0, 5, 102, 294.0852355957031
0, 5, 103, 314.3399963378906
0, 5, 104, 303.900634765625
0, 5, 105, 291.4571228027344
0, 5, 106, 280.9463806152344
0, 5, 107, 294.1531677246094
0, 5, 108, 263.0582580566406
0, 5, 109, 157.5046081542969
0, 5, 110, 41.86691665649414
0, 5, 111, 22.34434700012207
0, 5, 112, 16.84711456298828
0, 5, 113, 13.75056171417236
0, 5, 114, 11.4395866394043
0, 5, 115, 9.127590179443359
0, 5, 116, 9.354186058044434
0, 5, 117, 6.58462381362915
0, 5, 118, 14.49500370025635
0, 5, 119, 3.268696308135986
0, 5, 120, 7.013450145721436
0, 5, 121, 5.414432048797607
0, 5, 122, 6.161399841308594
0, 5, 123, 5.484513759613037
0, 5, 124, 6.202507019042969
0, 5, 125, 4.076508045196533
0, 5, 126, 6.993760585784912
0, 5, 127, 3.039891958236694
0, 6, 0, 5.105615615844727
0, 6, 1, 2.651269674301147
0, 6, 2, 4.069125652313232
0, 6, 3, 5.034274578094482
0, 6, 4, 4.153963565826416
0, 6, 5, 4.325127601623535
0, 6, 6, 10.19879341125488
0, 6, 7, 5.357396602630615
0, 6, 8, 9.57285213470459
0, 6, 9, 7.162598133087158
0, 6, 10, 7.511805534362793
0, 6, 11, 7.192773342132568
0, 6, 12, 7.688624382019043
0, 6, 13, 14.21984767913818
0, 6, 14, 8.438043594360352
0, 6, 15, 15.91181468963623
0, 6, 16, 30.81453514099121
0, 6, 17, 54.48297119140625
0, 6, 18, 172.0086364746094
0, 6, 19, 275.6427307128906
0, 6, 20, 290.26025390625
0, 6, 21, 314.7187194824219
0, 6, 22, 321.6260070800781
0, 6, 23, 306.3204040527344
0, 6, 24, 315.4050598144531
0, 6, 25, 316.7984619140625
0, 6, 26, 320.6336975097656
0, 6, 27, 329.2531127929688
0, 6, 28, 295.0436401367188
0, 6, 29, 332.6500854492188
0, 6, 30, 280.9545593261719
0, 6, 31, 287.4531555175781
0, 6, 32, 338.9758605957031
0, 6, 33, 300.7122497558594
0, 6, 34, 339.9469909667969
0, 6, 35, 319.2312316894531
0, 6, 36, 273.8752136230469
0, 6, 37, 289.705810546875
0, 6, 38, 311.9139404296875
0, 6, 39, 299.1972961425781
0, 6, 40, 281.6749877929688
0, 6, 41, 292.6601257324219
0, 6, 42, 302.5042114257812
0, 6, 43, 289.9411315917969
0, 6, 44, 280.0790100097656
0, 6, 45, 319.0533142089844
0, 6, 46, 303.5443420410156
0, 6, 47, 333.5352783203125
0, 6, 48, 292.3578186035156
0, 6, 49, 310.3787231445312
0, 6, 50, 328.1659545898438
0, 6, 51, 311.1118774414062
0, 6, 52, 323.2469787597656
0, 6, 53, 326.6566772460938
0, 6, 54, 303.1630859375
0, 6, 55, 307.4059143066406
0, 6, 56, 295.7209777832031
0, 6, 57, 312.1625061035156
0, 6, 58, 263.0653076171875
0, 6, 59, 301.7062072753906
0, 6, 60, 311.8701477050781
0, 6, 61, 270.6055908203125
0, 6, 62, 336.6925048828125
0, 6, 63, 323.1385192871094
0, 6, 64, 291.7273864746094
0, 6, 65, 283.6363220214844
0, 6, 66, 302.7001037597656
0, 6, 67, 308.8601684570312
0, 6, 68, 293.3478088378906
0, 6, 69, 280.079833984375
0, 6, 70, 277.3107604980469
0, 6, 71, 290.8064575195312
0, 6, 72, 309.7215881347656
0, 6, 73, 291.2289428710938
0, 6, 74, 330.6792907714844
0, 6, 75, 343.54736328125
0, 6, 76, 295.4768371582031
0, 6, 77, 290.2654113769531
0, 6, 78, 279.1459655761719
0, 6, 79, 292.1734924316406
0, 6, 80, 298.7837524414062
0, 6, 81, 315.1929931640625
0, 6, 82, 318.9379577636719
0, 6, 83, 320.1311950683594
0, 6, 84, 296.0922546386719
0, 6, 85, 302.8818664550781
0, 6, 86, 329.4101257324219
0, 6, 87, 291.9881286621094
0, 6, 88, 306.6805725097656
0, 6, 89, 304.7281188964844
0, 6, 90, 299.9425964355469
0, 6, 91, 313.4337768554688
0, 6, 92, 284.3435974121094
0, 6, 93, 296.9641418457031
0, 6, 94, 272.7194213867188
0, 6, 95, 301.9002685546875
0, 6, 96, 347.03369140625
0, 6, 97, 310.4597473144531
0, 6, 98, 300.7595520019531
0, 6, 99, 270.8146057128906
0, 6, 100, 309.5114440917969
0, 6, 101, 291.9246215820312
0, 6, 102, 305.8539428710938
0, 6, 103, 307.2391357421875
0, 6, 104, 290.3809814453125
0, 6, 105, 300.8985290527344
0, 6, 106, 307.734375
0, 6, 107, 306.1144714355469
0, 6, 108, 267.8467102050781
0, 6, 109, 187.9251251220703
0, 6, 110, 54.37737274169922
0, 6, 111, 23.28122901916504
0, 6, 112, 15.06066608428955
0, 6, 113, 11.29218864440918
0, 6, 114, 11.66110706329346
0, 6, 115, 14.56553649902344
0, 6, 116, 10.20755195617676
0, 6, 117, 8.307623863220215
0, 6, 118, 10.18918609619141
0, 6, 119, 6.934587478637695
0, 6, 120, 5.957744121551514
0, 6, 121, 6.426899909973145
0, 6, 122, 7.847343444824219
0, 6, 123, 5.326670169830322
0, 6, 124, 7.407508373260498
0, 6, 125, 7.011800765991211
0, 6, 126, 3.67750072479248
0, 6, 127, 6.01793909072876
0, 7, 0, 6.099527359008789
0, 7, 1, 3.496046304702759
0, 7, 2, 5.660956382751465
0, 7, 3, 5.652853965759277
0, 7, 4, 4.201012134552002
0, 7, 5, 5.027044773101807
0, 7, 6, 6.662290573120117
0, 7, 7, 4.780438423156738
0, 7, 8, 6.226284027099609
0, 7, 9, 8.663259506225586
0, 7, 10, 8.063860893249512
0, 7, 11, 13.72697353363037
0, 7, 12, 10.06654167175293
0, 7, 13, 10.91922950744629
0, 7, 14, 10.75689506530762
0, 7, 15, 18.56938362121582
0, 7, 16, 25.78641891479492
0, 7, 17, 98.14199066162109
0, 7, 18, 219.0030822753906
0, 7, 19, 289.5274658203125
0, 7, 20, 296.9996337890625
0, 7, 21, 277.4010620117188
0, 7, 22, 299.5297546386719
0, 7, 23, 288.38671875
0, 7, 24, 313.1201782226562
0, 7, 25, 323.7850341796875
0, 7, 26, 278.8230590820312
0, 7, 27, 299.3000793457031
0, 7, 28, 326.0785522460938
0, 7, 29, 320.1032104492188
0, 7, 30, 299.3723449707031
0, 7, 31, 275.4898986816406
0, 7, 32, 306.7953491210938
0, 7, 33, 264.5029296875
0, 7, 34, 297.3445434570312
0, 7, 35, 319.9339294433594
0, 7, 36, 331.2388916015625
0, 7, 37, 322.6618041992188
0, 7, 38, 295.5482482910156
0, 7, 39, 306.2442016601562
0, 7, 40, 290.7846069335938
0, 7, 41, 277.52197265625
0, 7, 42, 301.5377197265625
0, 7, 43, 277.70556640625
0, 7, 44, 305.20263671875
0, 7, 45, 295.0713500976562
0, 7, 46, 283.5293579101562
0, 7, 47, 330.098388671875
0, 7, 48, 284.2062072753906
0, 7, 49, 300.8169250488281
0, 7, 50, 320.6469421386719
0, 7, 51, 299.2606811523438
0, 7, 52, 327.9790649414062
0, 7, 53, 311.294677734375
0, 7, 54, 322.2953796386719
0, 7, 55, 306.8195190429688
0, 7, 56, 280.2219543457031
0, 7, 57, 284.8212585449219
0, 7, 58, 294.3639221191406
0, 7, 59, 296.1781616210938
0, 7, 60, 323.3589782714844
0, 7, 61, 278.9087524414062
0, 7, 62, 297.6096801757812
0, 7, 63, 292.3716735839844
0, 7, 64, 308.4310302734375
0, 7, 65, 331.5306396484375
0, 7, 66, 318.2218322753906
0, 7, 67, 301.0186767578125
0, 7, 68, 280.5086059570312
0, 7, 69, 295.1934814453125
0, 7, 70, 299.9188842773438
0, 7, 71, 308.8390502929688
0, 7, 72, 286.0869750976562
0, 7, 73, 295.0855102539062
0, 7, 74, 346.5830993652344
0, 7, 75, 317.6569213867188
0, 7, 76, 325.5565185546875
0, 7, 77, 281.3711242675781
0, 7, 78, 301.3770141601562
0, 7, 79, 296.7880249023438
0, 7, 80, 315.5414733886719
0, 7, 81, 320.8640747070312
0, 7, 82, 328.4988403320312
0, 7, 83, 319.2243347167969
0, 7, 84, 309.564453125
0, 7, 85, 272.3998718261719
0, 7, 86, 312.1287536621094
0, 7, 87, 310.2170715332031
0, 7, 88, 311.6159362792969
0, 7, 89, 293.6028442382812
0, 7, 90, 307.3055114746094
0, 7, 91, 316.0306701660156
0, 7, 92, 289.2525634765625
0, 7, 93, 305.7110290527344
0, 7, 94, 274.2536315917969
0, 7, 95, 298.0404663085938
0, 7, 96, 330.3351135253906
0, 7, 97, 295.9167175292969
0, 7, 98, 289.6874084472656
0, 7, 99, 311.61474609375
0, 7, 100, 287.1136779785156
0, 7, 101, 275.0217895507812
0, 7, 102, 289.3678588867188
0, 7, 103, 292.170654296875
0, 7, 104, 275.2074890136719
0, 7, 105, 306.9302062988281
0, 7, 106, 317.6786193847656
0, 7, 107, 294.7967224121094
0, 7, 108, 273.0194091796875
0, 7, 109, 236.5832214355469
0, 7, 110, 100.1797027587891
0, 7, 111, 23.92559623718262
0, 7, 112, 14.25556087493896
0, 7, 113, 13.73461723327637
0, 7, 114, 13.70310211181641
0, 7, 115, 11.11318492889404
0, 7, 116, 8.57967472076416
0, 7, 117, 6.976537227630615
0, 7, 118, 10.16170883178711
0, 7, 119, 4.516092777252197
0, 7, 120, 4.098303318023682
0, 7, 121, 5.810090065002441
0, 7, 122, 6.03389835357666
0, 7, 123, 5.887381076812744
0, 7, 124, 3.615866661071777
0, 7, 125, 7.474420070648193
0, 7, 126, 7.549113273620605
0, 7, 127, 3.002912759780884
0, 8, 0, 5.31468677520752
0, 8, 1, 4.532382488250732
0, 8, 2, 4.253096580505371
0, 8, 3, 2.165575742721558
0, 8, 4, 3.088347196578979
0, 8, 5, 4.999715805053711
0, 8, 6, 6.847713470458984
0, 8, 7, 5.178130149841309
0, 8, 8, 9.252493858337402
0, 8, 9, 4.959250450134277
0, 8, 10, 7.605729579925537
0, 8, 11, 13.46746253967285
0, 8, 12, 16.62535285949707
0, 8, 13, 16.35441780090332
0, 8, 14, 12.75564956665039
0, 8, 15, 19.78312492370605
0, 8, 16, 33.75941848754883
0, 8, 17, 129.5518493652344
0, 8, 18, 243.6031799316406
0, 8, 19, 298.2785949707031
0, 8, 20, 287.1754150390625
0, 8, 21, 307.4129638671875
0, 8, 22, 295.4036865234375
0, 8, 23, 275.4178161621094
0, 8, 24, 267.9542541503906
0, 8, 25, 277.0366821289062
0, 8, 26, 307.3125610351562
0, 8, 27, 307.6900939941406
0, 8, 28, 303.2449035644531
0, 8, 29, 318.9323120117188
0, 8, 30, 313.3011169433594
0, 8, 31, 303.3967590332031
0, 8, 32, 281.5670776367188
0, 8, 33, 294.4544677734375
0, 8, 34, 287.4527282714844
0, 8, 35, 279.2766418457031
0, 8, 36, 318.1828002929688
0, 8, 37, 340.0643615722656
0, 8, 38, 331.81884765625
0, 8, 39, 280.4319152832031
