# TOPAS Version: 3.1.p3
# Parameter File: batch_inserts_90.txt
# Results for scorer Readout_Adipose
# Scored in component: MyBox
# X in 1 bin  of 0.75 cm
# Y in 512 bins of 0.0783984 cm
# Z in 128 bins of 0.078125 cm
# EnergyDeposit ( MeV ) : Sum   
0, 0, 0, 2.605448722839355
0, 0, 1, 1.378867983818054
0, 0, 2, 3.142910718917847
0, 0, 3, 3.14738392829895
0, 0, 4, 2.479149103164673
0, 0, 5, 1.831521272659302
0, 0, 6, 5.198652267456055
0, 0, 7, 9.368415832519531
0, 0, 8, 4.361952304840088
0, 0, 9, 3.820163488388062
0, 0, 10, 7.054361820220947
0, 0, 11, 4.831092834472656
0, 0, 12, 4.206583023071289
0, 0, 13, 4.786410808563232
0, 0, 14, 8.175292015075684
0, 0, 15, 10.3314037322998
0, 0, 16, 8.278629302978516
0, 0, 17, 9.805058479309082
0, 0, 18, 12.79233264923096
0, 0, 19, 44.11845779418945
0, 0, 20, 138.8998870849609
0, 0, 21, 223.4789581298828
0, 0, 22, 248.4114074707031
0, 0, 23, 256.0229797363281
0, 0, 24, 250.5172882080078
0, 0, 25, 257.1484985351562
0, 0, 26, 233.7597351074219
0, 0, 27, 236.3406982421875
0, 0, 28, 270.6241760253906
0, 0, 29, 252.3382873535156
0, 0, 30, 231.1392517089844
0, 0, 31, 243.6714324951172
0, 0, 32, 264.4411010742188
0, 0, 33, 261.5849304199219
0, 0, 34, 288.4717407226562
0, 0, 35, 267.7847900390625
0, 0, 36, 247.3161773681641
0, 0, 37, 251.7731323242188
0, 0, 38, 269.4053344726562
0, 0, 39, 231.0821228027344
0, 0, 40, 246.0320892333984
0, 0, 41, 264.1825256347656
0, 0, 42, 228.3191528320312
0, 0, 43, 260.7313537597656
0, 0, 44, 252.1289367675781
0, 0, 45, 252.7088928222656
0, 0, 46, 245.8477020263672
0, 0, 47, 252.4958343505859
0, 0, 48, 266.9421081542969
0, 0, 49, 274.4048461914062
0, 0, 50, 252.1076049804688
0, 0, 51, 255.0487518310547
0, 0, 52, 273.9661865234375
0, 0, 53, 291.1828002929688
0, 0, 54, 243.0829162597656
0, 0, 55, 241.4468383789062
0, 0, 56, 278.6781311035156
0, 0, 57, 264.0831909179688
0, 0, 58, 247.5531768798828
0, 0, 59, 269.7324523925781
0, 0, 60, 234.2383575439453
0, 0, 61, 245.2545471191406
0, 0, 62, 257.0742797851562
0, 0, 63, 265.9762573242188
0, 0, 64, 256.1365051269531
0, 0, 65, 261.4338989257812
0, 0, 66, 276.4185180664062
0, 0, 67, 246.6084594726562
0, 0, 68, 258.8677673339844
0, 0, 69, 261.4203491210938
0, 0, 70, 275.3606567382812
0, 0, 71, 237.4126586914062
0, 0, 72, 251.6988067626953
0, 0, 73, 257.4512023925781
0, 0, 74, 250.3001098632812
0, 0, 75, 239.4130096435547
0, 0, 76, 230.0510406494141
0, 0, 77, 261.5208435058594
0, 0, 78, 256.6932067871094
0, 0, 79, 277.169921875
0, 0, 80, 216.5885009765625
0, 0, 81, 267.5125427246094
0, 0, 82, 255.6114654541016
0, 0, 83, 245.3375701904297
0, 0, 84, 269.4347229003906
0, 0, 85, 231.6307678222656
0, 0, 86, 254.1137237548828
0, 0, 87, 250.8259429931641
0, 0, 88, 260.1347961425781
0, 0, 89, 283.0932006835938
0, 0, 90, 244.1178283691406
0, 0, 91, 280.5906066894531
0, 0, 92, 253.5316772460938
0, 0, 93, 249.6759033203125
0, 0, 94, 246.8168640136719
0, 0, 95, 247.5204010009766
0, 0, 96, 275.6452331542969
0, 0, 97, 272.8349914550781
0, 0, 98, 272.3152160644531
0, 0, 99, 258.5045471191406
0, 0, 100, 259.072021484375
0, 0, 101, 224.6878356933594
0, 0, 102, 232.0742797851562
0, 0, 103, 270.0970458984375
0, 0, 104, 253.9656524658203
0, 0, 105, 252.5920867919922
0, 0, 106, 247.2389526367188
0, 0, 107, 152.4296264648438
0, 0, 108, 37.85606384277344
0, 0, 109, 11.64705944061279
0, 0, 110, 11.93704605102539
0, 0, 111, 10.24992942810059
0, 0, 112, 6.129986763000488
0, 0, 113, 4.987024784088135
0, 0, 114, 6.413199901580811
0, 0, 115, 4.899113655090332
0, 0, 116, 6.31232738494873
0, 0, 117, 5.270690441131592
0, 0, 118, 5.632040023803711
0, 0, 119, 4.659329891204834
0, 0, 120, 3.944668292999268
0, 0, 121, 4.660451412200928
0, 0, 122, 5.191706657409668
0, 0, 123, 5.906478404998779
0, 0, 124, 5.588236331939697
0, 0, 125, 2.707827091217041
0, 0, 126, 4.065473556518555
0, 0, 127, 4.070098876953125
0, 1, 0, 7.781771659851074
0, 1, 1, 2.732430219650269
0, 1, 2, 5.023823738098145
0, 1, 3, 2.778549909591675
0, 1, 4, 2.783190011978149
0, 1, 5, 3.82746696472168
0, 1, 6, 4.799857616424561
0, 1, 7, 3.290446281433105
0, 1, 8, 9.351034164428711
0, 1, 9, 4.482112884521484
0, 1, 10, 7.355105400085449
0, 1, 11, 12.87257099151611
0, 1, 12, 7.716382026672363
0, 1, 13, 9.528165817260742
0, 1, 14, 8.330471038818359
0, 1, 15, 8.102546691894531
0, 1, 16, 11.13613605499268
0, 1, 17, 11.0582275390625
0, 1, 18, 20.47787094116211
0, 1, 19, 69.46103668212891
0, 1, 20, 201.2867584228516
0, 1, 21, 254.2975616455078
0, 1, 22, 294.0584716796875
0, 1, 23, 283.6375732421875
0, 1, 24, 276.6018371582031
0, 1, 25, 291.9373474121094
0, 1, 26, 268.1080322265625
0, 1, 27, 306.3767700195312
0, 1, 28, 300.18505859375
0, 1, 29, 296.8373413085938
0, 1, 30, 278.8485107421875
0, 1, 31, 291.3984375
0, 1, 32, 290.7208557128906
0, 1, 33, 296.610595703125
0, 1, 34, 292.4699401855469
0, 1, 35, 280.4477233886719
0, 1, 36, 307.8071594238281
0, 1, 37, 297.4306640625
0, 1, 38, 278.6708679199219
0, 1, 39, 297.1047973632812
0, 1, 40, 268.7892456054688
0, 1, 41, 286.5853576660156
0, 1, 42, 290.4083251953125
0, 1, 43, 332.8303833007812
0, 1, 44, 281.1474304199219
0, 1, 45, 292.8424682617188
0, 1, 46, 259.7611389160156
0, 1, 47, 311.0752258300781
0, 1, 48, 284.3684692382812
0, 1, 49, 302.8001098632812
0, 1, 50, 264.2110290527344
0, 1, 51, 273.2642517089844
0, 1, 52, 295.6425476074219
0, 1, 53, 305.8404235839844
0, 1, 54, 273.5885314941406
0, 1, 55, 294.6185607910156
0, 1, 56, 275.8566589355469
0, 1, 57, 297.06494140625
0, 1, 58, 311.0214538574219
0, 1, 59, 292.6168212890625
0, 1, 60, 300.4263000488281
0, 1, 61, 273.9701538085938
0, 1, 62, 307.4421081542969
0, 1, 63, 290.2465515136719
0, 1, 64, 288.0358276367188
0, 1, 65, 294.4972534179688
0, 1, 66, 294.1638793945312
0, 1, 67, 291.4863891601562
0, 1, 68, 276.84423828125
0, 1, 69, 282.8866271972656
0, 1, 70, 268.6209716796875
0, 1, 71, 274.4463195800781
0, 1, 72, 284.9731750488281
0, 1, 73, 302.8218994140625
0, 1, 74, 305.8067626953125
0, 1, 75, 293.1866149902344
0, 1, 76, 285.1812438964844
0, 1, 77, 289.7919616699219
0, 1, 78, 297.8115234375
0, 1, 79, 306.245361328125
0, 1, 80, 295.8869323730469
0, 1, 81, 299.200439453125
0, 1, 82, 284.2264709472656
0, 1, 83, 332.0855407714844
0, 1, 84, 311.6033630371094
0, 1, 85, 254.3386535644531
0, 1, 86, 294.1338500976562
0, 1, 87, 290.3012084960938
0, 1, 88, 298.6574096679688
0, 1, 89, 291.4996032714844
0, 1, 90, 271.0154418945312
0, 1, 91, 319.3408508300781
0, 1, 92, 292.0437316894531
0, 1, 93, 287.6893005371094
0, 1, 94, 302.2911987304688
0, 1, 95, 285.6552124023438
0, 1, 96, 283.4100036621094
0, 1, 97, 302.0765686035156
0, 1, 98, 277.5621948242188
0, 1, 99, 265.8239440917969
0, 1, 100, 276.2389831542969
0, 1, 101, 280.4827575683594
0, 1, 102, 276.9891357421875
0, 1, 103, 281.6998291015625
0, 1, 104, 305.8602600097656
0, 1, 105, 296.6437072753906
0, 1, 106, 260.5864868164062
0, 1, 107, 196.6516265869141
0, 1, 108, 81.95083618164062
0, 1, 109, 24.76729965209961
0, 1, 110, 11.51984691619873
0, 1, 111, 9.352935791015625
0, 1, 112, 13.19516658782959
0, 1, 113, 5.968122005462646
0, 1, 114, 6.280574798583984
0, 1, 115, 7.129651546478271
0, 1, 116, 10.55333137512207
0, 1, 117, 5.140228748321533
0, 1, 118, 5.339333534240723
0, 1, 119, 5.649706363677979
0, 1, 120, 6.582178115844727
0, 1, 121, 2.984665870666504
0, 1, 122, 3.361754179000854
0, 1, 123, 11.18702125549316
0, 1, 124, 8.344459533691406
0, 1, 125, 5.015262603759766
0, 1, 126, 1.427324175834656
0, 1, 127, 0.6755257844924927
0, 2, 0, 6.344029426574707
0, 2, 1, 1.953092098236084
0, 2, 2, 4.080428600311279
0, 2, 3, 5.149410247802734
0, 2, 4, 2.209107637405396
0, 2, 5, 2.020361661911011
0, 2, 6, 2.273576021194458
0, 2, 7, 3.660166025161743
0, 2, 8, 5.435841083526611
0, 2, 9, 4.656506061553955
0, 2, 10, 6.848138332366943
0, 2, 11, 5.333860874176025
0, 2, 12, 8.390369415283203
0, 2, 13, 10.32721424102783
0, 2, 14, 9.604748725891113
0, 2, 15, 7.61021900177002
0, 2, 16, 9.101615905761719
0, 2, 17, 17.27815818786621
0, 2, 18, 31.82671546936035
0, 2, 19, 116.975944519043
0, 2, 20, 247.1045074462891
0, 2, 21, 274.2740478515625
0, 2, 22, 316.610107421875
0, 2, 23, 302.2652893066406
0, 2, 24, 285.441650390625
0, 2, 25, 302.504150390625
0, 2, 26, 292.3072814941406
0, 2, 27, 274.7228698730469
0, 2, 28, 274.05126953125
0, 2, 29, 275.2586059570312
0, 2, 30, 292.8333129882812
0, 2, 31, 277.8757629394531
0, 2, 32, 294.9787292480469
0, 2, 33, 281.9955749511719
0, 2, 34, 331.8756408691406
0, 2, 35, 289.369140625
0, 2, 36, 306.4129028320312
0, 2, 37, 315.2122192382812
0, 2, 38, 313.7108764648438
0, 2, 39, 267.8329772949219
0, 2, 40, 307.3703918457031
0, 2, 41, 292.0780944824219
0, 2, 42, 303.0719299316406
0, 2, 43, 312.5376892089844
0, 2, 44, 312.4747009277344
0, 2, 45, 324.4253540039062
0, 2, 46, 286.7243347167969
0, 2, 47, 303.0460510253906
0, 2, 48, 282.0379028320312
0, 2, 49, 278.896728515625
0, 2, 50, 294.9049072265625
0, 2, 51, 282.6187133789062
0, 2, 52, 271.1534423828125
0, 2, 53, 287.712890625
0, 2, 54, 279.9647521972656
0, 2, 55, 274.5409545898438
0, 2, 56, 301.5918273925781
0, 2, 57, 293.5672302246094
0, 2, 58, 305.70654296875
0, 2, 59, 289.0192260742188
0, 2, 60, 321.0437927246094
0, 2, 61, 301.4277648925781
0, 2, 62, 314.2663269042969
0, 2, 63, 301.9733581542969
0, 2, 64, 296.1524658203125
0, 2, 65, 313.0357666015625
0, 2, 66, 279.6033935546875
0, 2, 67, 290.6387329101562
0, 2, 68, 296.4519653320312
0, 2, 69, 310.7534484863281
0, 2, 70, 334.3320617675781
0, 2, 71, 283.2757568359375
0, 2, 72, 300.7031860351562
0, 2, 73, 311.1470336914062
0, 2, 74, 285.3889770507812
0, 2, 75, 303.2263793945312
0, 2, 76, 288.0482788085938
0, 2, 77, 298.4226379394531
0, 2, 78, 315.0630187988281
0, 2, 79, 307.1909790039062
0, 2, 80, 295.2914428710938
0, 2, 81, 282.7406616210938
0, 2, 82, 317.0153503417969
0, 2, 83, 312.5602111816406
0, 2, 84, 287.9031066894531
0, 2, 85, 285.0648498535156
0, 2, 86, 325.01513671875
0, 2, 87, 286.6837463378906
0, 2, 88, 281.5580749511719
0, 2, 89, 296.0357055664062
0, 2, 90, 295.4776611328125
0, 2, 91, 275.0996704101562
0, 2, 92, 305.1903991699219
0, 2, 93, 318.2328186035156
0, 2, 94, 291.0238342285156
0, 2, 95, 313.9117126464844
0, 2, 96, 315.5532531738281
0, 2, 97, 291.6360168457031
0, 2, 98, 296.0193786621094
0, 2, 99, 272.7693176269531
0, 2, 100, 305.448974609375
0, 2, 101, 301.2575378417969
0, 2, 102, 296.0706787109375
0, 2, 103, 291.332763671875
0, 2, 104, 293.7488403320312
0, 2, 105, 273.1859130859375
0, 2, 106, 297.8337707519531
0, 2, 107, 268.4074096679688
0, 2, 108, 117.3415908813477
0, 2, 109, 31.14007759094238
0, 2, 110, 10.16871166229248
0, 2, 111, 11.28983783721924
0, 2, 112, 8.681495666503906
0, 2, 113, 12.94075775146484
0, 2, 114, 9.283634185791016
0, 2, 115, 9.479117393493652
0, 2, 116, 9.760449409484863
0, 2, 117, 8.727192878723145
0, 2, 118, 2.957289218902588
0, 2, 119, 5.723919868469238
0, 2, 120, 4.704582214355469
0, 2, 121, 0.8200420141220093
0, 2, 122, 3.613560676574707
0, 2, 123, 5.62677526473999
0, 2, 124, 5.958467483520508
0, 2, 125, 6.230786800384521
0, 2, 126, 3.939913988113403
0, 2, 127, 5.693601608276367
0, 3, 0, 2.539435863494873
0, 3, 1, 2.949439764022827
0, 3, 2, 3.056310653686523
0, 3, 3, 1.685592770576477
0, 3, 4, 4.280832290649414
0, 3, 5, 6.417536735534668
0, 3, 6, 6.161270618438721
0, 3, 7, 5.019073009490967
0, 3, 8, 4.506388664245605
0, 3, 9, 4.676877021789551
0, 3, 10, 6.18383264541626
0, 3, 11, 3.847492694854736
0, 3, 12, 6.580688953399658
0, 3, 13, 14.22964286804199
0, 3, 14, 11.0612096786499
0, 3, 15, 12.95237636566162
0, 3, 16, 10.23862838745117
0, 3, 17, 18.18319129943848
0, 3, 18, 51.74580383300781
0, 3, 19, 176.429931640625
0, 3, 20, 270.0999145507812
0, 3, 21, 273.6345825195312
0, 3, 22, 282.6103820800781
0, 3, 23, 287.041259765625
0, 3, 24, 288.3736572265625
0, 3, 25, 272.4090576171875
0, 3, 26, 304.5355529785156
0, 3, 27, 293.1103210449219
0, 3, 28, 283.2020568847656
0, 3, 29, 337.4572143554688
0, 3, 30, 316.3506469726562
0, 3, 31, 284.77294921875
0, 3, 32, 305.8826904296875
0, 3, 33, 314.0719299316406
0, 3, 34, 320.4808044433594
0, 3, 35, 309.3532104492188
0, 3, 36, 268.7646789550781
0, 3, 37, 311.8079833984375
0, 3, 38, 305.5436401367188
0, 3, 39, 288.7482604980469
0, 3, 40, 267.3346557617188
0, 3, 41, 300.7107849121094
0, 3, 42, 284.864990234375
0, 3, 43, 305.0806579589844
0, 3, 44, 311.0684204101562
0, 3, 45, 289.6346130371094
0, 3, 46, 329.5638427734375
0, 3, 47, 300.3042907714844
0, 3, 48, 304.2329406738281
0, 3, 49, 275.4017944335938
0, 3, 50, 289.5520935058594
0, 3, 51, 274.7760314941406
0, 3, 52, 315.3633422851562
0, 3, 53, 287.8224792480469
0, 3, 54, 283.8004150390625
0, 3, 55, 285.0738830566406
0, 3, 56, 298.5277709960938
0, 3, 57, 288.3860473632812
0, 3, 58, 305.5704956054688
0, 3, 59, 293.6736450195312
0, 3, 60, 297.1776733398438
0, 3, 61, 264.4758605957031
0, 3, 62, 283.2413024902344
0, 3, 63, 306.4378967285156
0, 3, 64, 316.9150085449219
0, 3, 65, 304.9624328613281
0, 3, 66, 314.2931213378906
0, 3, 67, 320.5758972167969
0, 3, 68, 279.9564208984375
0, 3, 69, 282.7493286132812
0, 3, 70, 287.8573608398438
0, 3, 71, 300.3825073242188
0, 3, 72, 268.7827453613281
0, 3, 73, 309.0121459960938
0, 3, 74, 295.0312805175781
0, 3, 75, 289.080810546875
0, 3, 76, 305.4301147460938
0, 3, 77, 316.0003967285156
0, 3, 78, 304.3866271972656
0, 3, 79, 282.1923522949219
0, 3, 80, 292.4139709472656
0, 3, 81, 310.7699584960938
0, 3, 82, 317.6970825195312
0, 3, 83, 299.8847351074219
0, 3, 84, 313.3783569335938
0, 3, 85, 293.8697204589844
0, 3, 86, 304.3861389160156
0, 3, 87, 298.3670043945312
0, 3, 88, 297.0669860839844
0, 3, 89, 298.2636108398438
0, 3, 90, 275.3124694824219
0, 3, 91, 285.7784729003906
0, 3, 92, 305.0784301757812
0, 3, 93, 315.6102600097656
0, 3, 94, 297.9029846191406
0, 3, 95, 336.5433044433594
0, 3, 96, 290.0646362304688
0, 3, 97, 284.4599304199219
0, 3, 98, 277.1285705566406
0, 3, 99, 263.0288696289062
0, 3, 100, 285.8919372558594
0, 3, 101, 296.7481994628906
0, 3, 102, 274.0534362792969
0, 3, 103, 319.6651916503906
0, 3, 104, 311.0667114257812
0, 3, 105, 286.9065551757812
0, 3, 106, 302.9749145507812
0, 3, 107, 280.7531433105469
0, 3, 108, 167.6971740722656
0, 3, 109, 56.59934997558594
0, 3, 110, 17.51542091369629
0, 3, 111, 13.2941427230835
0, 3, 112, 12.93595886230469
0, 3, 113, 7.685407161712646
0, 3, 114, 9.366460800170898
0, 3, 115, 6.631692886352539
0, 3, 116, 8.909162521362305
0, 3, 117, 7.120323181152344
0, 3, 118, 10.23392105102539
0, 3, 119, 6.023070335388184
0, 3, 120, 3.021175384521484
0, 3, 121, 4.305060386657715
0, 3, 122, 3.994964361190796
0, 3, 123, 4.941892623901367
0, 3, 124, 3.194613218307495
0, 3, 125, 4.284557819366455
0, 3, 126, 5.947763919830322
0, 3, 127, 2.955437183380127
0, 4, 0, 4.285622596740723
0, 4, 1, 7.059957981109619
0, 4, 2, 2.14599609375
0, 4, 3, 1.951816320419312
0, 4, 4, 7.948482036590576
0, 4, 5, 10.43793392181396
0, 4, 6, 7.709290504455566
0, 4, 7, 6.151509761810303
0, 4, 8, 4.816953659057617
0, 4, 9, 6.468795776367188
0, 4, 10, 6.09638500213623
0, 4, 11, 6.293946266174316
0, 4, 12, 6.300611972808838
0, 4, 13, 7.975082397460938
0, 4, 14, 12.05470943450928
0, 4, 15, 9.802799224853516
0, 4, 16, 13.57266139984131
0, 4, 17, 17.60758399963379
0, 4, 18, 95.17109680175781
0, 4, 19, 222.2848815917969
0, 4, 20, 283.1617126464844
0, 4, 21, 275.3854064941406
0, 4, 22, 305.6476135253906
0, 4, 23, 266.8912963867188
0, 4, 24, 288.7528076171875
0, 4, 25, 276.0903930664062
0, 4, 26, 294.7533264160156
0, 4, 27, 282.6188354492188
0, 4, 28, 306.1334838867188
0, 4, 29, 322.7529907226562
0, 4, 30, 310.2917175292969
0, 4, 31, 303.4712524414062
0, 4, 32, 280.7958374023438
0, 4, 33, 295.7584533691406
0, 4, 34, 298.6780395507812
0, 4, 35, 314.2282104492188
0, 4, 36, 294.2764892578125
0, 4, 37, 287.1602783203125
0, 4, 38, 296.8911437988281
0, 4, 39, 299.738037109375
0, 4, 40, 304.5920104980469
0, 4, 41, 311.6208801269531
0, 4, 42, 330.1259155273438
0, 4, 43, 295.7477722167969
0, 4, 44, 320.2459716796875
0, 4, 45, 323.3865356445312
0, 4, 46, 304.5960083007812
0, 4, 47, 291.6033020019531
0, 4, 48, 295.6910095214844
0, 4, 49, 277.187744140625
0, 4, 50, 297.0415954589844
0, 4, 51, 316.1399230957031
0, 4, 52, 325.90673828125
0, 4, 53, 305.3735656738281
0, 4, 54, 286.3711242675781
0, 4, 55, 313.8855590820312
0, 4, 56, 287.6591186523438
0, 4, 57, 310.2506408691406
0, 4, 58, 297.8548583984375
0, 4, 59, 310.6363525390625
0, 4, 60, 304.7693786621094
0, 4, 61, 316.1780700683594
0, 4, 62, 306.8814697265625
0, 4, 63, 297.1481628417969
0, 4, 64, 330.4289245605469
0, 4, 65, 315.5420227050781
0, 4, 66, 294.8026123046875
0, 4, 67, 286.1087646484375
0, 4, 68, 312.2494812011719
0, 4, 69, 275.5162353515625
0, 4, 70, 299.3917541503906
0, 4, 71, 322.06689453125
0, 4, 72, 332.6004638671875
0, 4, 73, 300.4611206054688
0, 4, 74, 296.3493041992188
0, 4, 75, 290.2756958007812
0, 4, 76, 274.6909484863281
0, 4, 77, 278.5904846191406
0, 4, 78, 308.6409912109375
0, 4, 79, 321.5451049804688
0, 4, 80, 316.6405639648438
0, 4, 81, 313.4743041992188
0, 4, 82, 299.3502197265625
0, 4, 83, 303.2177429199219
0, 4, 84, 290.9902648925781
0, 4, 85, 294.2810974121094
0, 4, 86, 297.7500610351562
0, 4, 87, 285.6410827636719
0, 4, 88, 306.5361938476562
0, 4, 89, 297.1661376953125
0, 4, 90, 331.3748168945312
0, 4, 91, 301.2130432128906
0, 4, 92, 291.0355529785156
0, 4, 93, 297.0006103515625
0, 4, 94, 295.1925659179688
0, 4, 95, 288.1315307617188
0, 4, 96, 322.3940124511719
0, 4, 97, 273.7000427246094
0, 4, 98, 327.7450256347656
0, 4, 99, 314.510986328125
0, 4, 100, 300.4466247558594
0, 4, 101, 258.4138793945312
0, 4, 102, 296.326171875
0, 4, 103, 316.8543090820312
0, 4, 104, 281.0223388671875
0, 4, 105, 310.3607482910156
0, 4, 106, 285.9223327636719
0, 4, 107, 297.2028198242188
0, 4, 108, 225.2541351318359
0, 4, 109, 80.32801818847656
0, 4, 110, 15.81426239013672
0, 4, 111, 12.87732982635498
0, 4, 112, 9.612462043762207
0, 4, 113, 10.62021350860596
0, 4, 114, 8.754314422607422
0, 4, 115, 11.0353946685791
0, 4, 116, 7.55195426940918
0, 4, 117, 4.907759666442871
0, 4, 118, 9.466403961181641
0, 4, 119, 8.646945953369141
0, 4, 120, 10.96301555633545
0, 4, 121, 4.373571395874023
0, 4, 122, 4.28633975982666
0, 4, 123, 6.761751651763916
0, 4, 124, 4.994297981262207
0, 4, 125, 9.030020713806152
0, 4, 126, 6.428719520568848
0, 4, 127, 3.812566518783569
0, 5, 0, 3.599809408187866
0, 5, 1, 3.420435905456543
0, 5, 2, 6.299514293670654
0, 5, 3, 4.833283424377441
0, 5, 4, 6.186440944671631
0, 5, 5, 6.232451915740967
0, 5, 6, 6.481898784637451
0, 5, 7, 4.331911563873291
0, 5, 8, 5.674659729003906
0, 5, 9, 6.359881401062012
0, 5, 10, 7.202061176300049
0, 5, 11, 8.820289611816406
0, 5, 12, 7.798483848571777
0, 5, 13, 6.742714881896973
0, 5, 14, 12.85642337799072
0, 5, 15, 17.64619636535645
0, 5, 16, 13.43244361877441
0, 5, 17, 30.87920188903809
0, 5, 18, 137.2348937988281
0, 5, 19, 287.8338623046875
0, 5, 20, 309.3809204101562
0, 5, 21, 315.6005859375
0, 5, 22, 276.5091552734375
0, 5, 23, 311.9201049804688
0, 5, 24, 302.0878601074219
0, 5, 25, 288.1333312988281
0, 5, 26, 293.7577209472656
0, 5, 27, 322.9456787109375
0, 5, 28, 304.1510925292969
0, 5, 29, 298.8244323730469
0, 5, 30, 326.1130065917969
0, 5, 31, 288.0892944335938
0, 5, 32, 302.730224609375
0, 5, 33, 303.0452880859375
0, 5, 34, 294.84912109375
0, 5, 35, 308.6270751953125
0, 5, 36, 269.3736267089844
0, 5, 37, 281.6260986328125
0, 5, 38, 292.2845764160156
0, 5, 39, 311.5557861328125
0, 5, 40, 309.1923522949219
0, 5, 41, 272.6361083984375
0, 5, 42, 306.3893127441406
0, 5, 43, 315.3839111328125
0, 5, 44, 292.6428833007812
0, 5, 45, 303.4088745117188
0, 5, 46, 264.1044616699219
0, 5, 47, 279.5023193359375
0, 5, 48, 292.9419860839844
0, 5, 49, 285.3603210449219
0, 5, 50, 295.968994140625
0, 5, 51, 279.1690979003906
0, 5, 52, 269.5307922363281
0, 5, 53, 286.3617858886719
0, 5, 54, 294.9456787109375
0, 5, 55, 345.2862548828125
0, 5, 56, 307.0370483398438
0, 5, 57, 309.1144714355469
0, 5, 58, 313.2426147460938
0, 5, 59, 303.0961608886719
0, 5, 60, 306.3683166503906
0, 5, 61, 280.1911315917969
0, 5, 62, 328.0884094238281
0, 5, 63, 290.4004821777344
0, 5, 64, 321.8368530273438
0, 5, 65, 309.1851501464844
0, 5, 66, 328.5426025390625
0, 5, 67, 310.0240783691406
0, 5, 68, 307.0397338867188
0, 5, 69, 310.533447265625
0, 5, 70, 302.0218200683594
0, 5, 71, 274.2835083007812
0, 5, 72, 310.9461975097656
0, 5, 73, 303.4372863769531
0, 5, 74, 295.3039855957031
0, 5, 75, 294.8363037109375
0, 5, 76, 284.4330749511719
0, 5, 77, 297.7996215820312
0, 5, 78, 318.4315490722656
0, 5, 79, 305.5752258300781
0, 5, 80, 294.6344604492188
0, 5, 81, 326.3548278808594
0, 5, 82, 325.0465698242188
0, 5, 83, 280.3642272949219
0, 5, 84, 304.0816345214844
0, 5, 85, 272.6781616210938
0, 5, 86, 325.2746887207031
0, 5, 87, 285.3577270507812
0, 5, 88, 311.7769470214844
0, 5, 89, 304.5779418945312
0, 5, 90, 316.3486022949219
0, 5, 91, 316.1363220214844
0, 5, 92, 297.8878479003906
0, 5, 93, 323.3327331542969
0, 5, 94, 307.2489318847656
0, 5, 95, 296.6788940429688
0, 5, 96, 295.8214721679688
0, 5, 97, 297.1164855957031
0, 5, 98, 320.1498107910156
0, 5, 99, 302.686279296875
0, 5, 100, 290.7490539550781
0, 5, 101, 306.6289672851562
0, 5, 102, 293.8673706054688
0, 5, 103, 313.173828125
0, 5, 104, 302.0354614257812
0, 5, 105, 292.4518127441406
0, 5, 106, 281.5252380371094
0, 5, 107, 293.6698608398438
0, 5, 108, 265.6951293945312
0, 5, 109, 157.9959106445312
0, 5, 110, 41.77371597290039
0, 5, 111, 21.82039833068848
0, 5, 112, 14.2843017578125
0, 5, 113, 15.02360916137695
0, 5, 114, 11.98086357116699
0, 5, 115, 7.831294059753418
0, 5, 116, 8.812403678894043
0, 5, 117, 6.13444709777832
0, 5, 118, 12.17694187164307
0, 5, 119, 7.437116622924805
0, 5, 120, 7.761319637298584
0, 5, 121, 3.997989177703857
0, 5, 122, 6.055116653442383
0, 5, 123, 4.548980712890625
0, 5, 124, 6.794920444488525
0, 5, 125, 4.069320201873779
0, 5, 126, 5.663339138031006
0, 5, 127, 3.632271766662598
0, 6, 0, 3.349797487258911
0, 6, 1, 3.175442457199097
0, 6, 2, 5.953567504882812
0, 6, 3, 5.664613246917725
0, 6, 4, 2.96583890914917
0, 6, 5, 4.843954563140869
0, 6, 6, 6.099833488464355
0, 6, 7, 5.995240688323975
0, 6, 8, 7.24155330657959
0, 6, 9, 6.11890983581543
0, 6, 10, 10.50944423675537
0, 6, 11, 7.737336158752441
0, 6, 12, 8.855314254760742
0, 6, 13, 15.55882358551025
0, 6, 14, 7.469622611999512
0, 6, 15, 16.46252822875977
0, 6, 16, 30.2680549621582
0, 6, 17, 56.52169418334961
0, 6, 18, 173.4566497802734
0, 6, 19, 275.567138671875
0, 6, 20, 289.900146484375
0, 6, 21, 314.1120910644531
0, 6, 22, 321.0500183105469
0, 6, 23, 307.9720153808594
0, 6, 24, 317.9912109375
0, 6, 25, 315.8872985839844
0, 6, 26, 319.359619140625
0, 6, 27, 331.6204528808594
0, 6, 28, 294.5648803710938
0, 6, 29, 330.2547912597656
0, 6, 30, 281.5090637207031
0, 6, 31, 286.8028259277344
0, 6, 32, 339.6867980957031
0, 6, 33, 302.0413818359375
0, 6, 34, 342.0079345703125
0, 6, 35, 320.0567626953125
0, 6, 36, 272.475341796875
0, 6, 37, 290.1826782226562
0, 6, 38, 311.5679626464844
0, 6, 39, 299.8148803710938
0, 6, 40, 282.843017578125
0, 6, 41, 294.1659240722656
0, 6, 42, 304.6138610839844
0, 6, 43, 289.9392395019531
0, 6, 44, 280.4291076660156
0, 6, 45, 321.1286010742188
0, 6, 46, 304.1634521484375
0, 6, 47, 334.1262817382812
0, 6, 48, 292.8091125488281
0, 6, 49, 312.1680908203125
0, 6, 50, 328.2394409179688
0, 6, 51, 310.9985961914062
0, 6, 52, 322.9632263183594
0, 6, 53, 326.6388244628906
0, 6, 54, 303.0539855957031
0, 6, 55, 305.4516296386719
0, 6, 56, 293.5590209960938
0, 6, 57, 311.9345397949219
0, 6, 58, 262.3147888183594
0, 6, 59, 301.3677368164062
0, 6, 60, 314.9110412597656
0, 6, 61, 271.1071166992188
0, 6, 62, 335.7312927246094
0, 6, 63, 322.5209350585938
0, 6, 64, 292.9739990234375
0, 6, 65, 284.9287719726562
0, 6, 66, 303.8069152832031
0, 6, 67, 310.9862060546875
0, 6, 68, 292.6657409667969
0, 6, 69, 278.6492919921875
0, 6, 70, 275.2533569335938
0, 6, 71, 289.3737487792969
0, 6, 72, 311.0431213378906
0, 6, 73, 292.8948669433594
0, 6, 74, 330.1720886230469
0, 6, 75, 344.2696533203125
0, 6, 76, 297.4635620117188
0, 6, 77, 287.2113952636719
0, 6, 78, 279.2154846191406
0, 6, 79, 291.6766357421875
0, 6, 80, 299.164306640625
0, 6, 81, 315.0949401855469
0, 6, 82, 320.378662109375
0, 6, 83, 320.8548583984375
0, 6, 84, 296.2020874023438
0, 6, 85, 300.47509765625
0, 6, 86, 330.5898742675781
0, 6, 87, 291.6764221191406
0, 6, 88, 306.9259033203125
0, 6, 89, 304.8759765625
0, 6, 90, 299.8345642089844
0, 6, 91, 313.1683349609375
0, 6, 92, 284.2158508300781
0, 6, 93, 293.6939392089844
0, 6, 94, 274.9651794433594
0, 6, 95, 300.2405090332031
0, 6, 96, 346.2027893066406
0, 6, 97, 308.8385314941406
0, 6, 98, 301.5533447265625
0, 6, 99, 270.2526550292969
0, 6, 100, 309.3415832519531
0, 6, 101, 291.81640625
0, 6, 102, 306.4667053222656
0, 6, 103, 307.2771606445312
0, 6, 104, 292.72607421875
0, 6, 105, 301.6474609375
0, 6, 106, 307.50341796875
0, 6, 107, 304.4382019042969
0, 6, 108, 265.0562744140625
0, 6, 109, 185.3212127685547
0, 6, 110, 53.48028564453125
0, 6, 111, 21.19621658325195
0, 6, 112, 13.32525539398193
0, 6, 113, 11.29729080200195
0, 6, 114, 12.09531402587891
0, 6, 115, 12.76625823974609
0, 6, 116, 9.554939270019531
0, 6, 117, 7.477240085601807
0, 6, 118, 9.890783309936523
0, 6, 119, 7.59513521194458
0, 6, 120, 5.785574913024902
0, 6, 121, 6.410675525665283
0, 6, 122, 5.312819957733154
0, 6, 123, 4.068778991699219
0, 6, 124, 6.747109413146973
0, 6, 125, 8.26167106628418
0, 6, 126, 3.769287347793579
0, 6, 127, 5.384994983673096
0, 7, 0, 7.019042491912842
0, 7, 1, 4.447727203369141
0, 7, 2, 6.058597087860107
0, 7, 3, 3.672283172607422
0, 7, 4, 2.430444955825806
0, 7, 5, 4.367333889007568
0, 7, 6, 11.4768590927124
0, 7, 7, 8.153099060058594
0, 7, 8, 4.748734474182129
0, 7, 9, 5.884929180145264
0, 7, 10, 8.272741317749023
0, 7, 11, 12.17074775695801
0, 7, 12, 10.44555282592773
0, 7, 13, 12.1933479309082
0, 7, 14, 12.12675285339355
0, 7, 15, 17.76811218261719
0, 7, 16, 25.60431861877441
0, 7, 17, 97.36084747314453
0, 7, 18, 218.0873260498047
0, 7, 19, 290.5060119628906
0, 7, 20, 296.2988586425781
0, 7, 21, 276.0948486328125
0, 7, 22, 300.0562438964844
0, 7, 23, 290.0154113769531
0, 7, 24, 311.9591674804688
0, 7, 25, 325.2552185058594
0, 7, 26, 278.6467895507812
0, 7, 27, 298.5933532714844
0, 7, 28, 327.3365783691406
0, 7, 29, 319.74462890625
0, 7, 30, 300.4668884277344
0, 7, 31, 278.1021423339844
0, 7, 32, 308.1225891113281
0, 7, 33, 261.8736267089844
0, 7, 34, 299.0687866210938
0, 7, 35, 321.0657348632812
0, 7, 36, 330.6813049316406
0, 7, 37, 326.8963928222656
0, 7, 38, 295.3014221191406
0, 7, 39, 307.1886901855469
0, 7, 40, 289.4864807128906
0, 7, 41, 275.6205444335938
0, 7, 42, 300.3609619140625
0, 7, 43, 275.7838439941406
0, 7, 44, 303.9964294433594
0, 7, 45, 291.9737854003906
0, 7, 46, 280.2395629882812
0, 7, 47, 327.1340942382812
0, 7, 48, 285.8851623535156
0, 7, 49, 302.793212890625
0, 7, 50, 321.4550170898438
0, 7, 51, 299.8641967773438
0, 7, 52, 326.5065612792969
0, 7, 53, 310.9326782226562
0, 7, 54, 322.7396240234375
0, 7, 55, 306.3765258789062
0, 7, 56, 280.1722106933594
0, 7, 57, 281.9900817871094
0, 7, 58, 295.0675354003906
0, 7, 59, 293.5785827636719
0, 7, 60, 325.4208068847656
0, 7, 61, 280.1196899414062
0, 7, 62, 296.9163818359375
0, 7, 63, 291.9427185058594
0, 7, 64, 306.6810302734375
0, 7, 65, 330.2388916015625
0, 7, 66, 321.8479309082031
0, 7, 67, 304.2334594726562
0, 7, 68, 279.1295166015625
0, 7, 69, 294.4280090332031
0, 7, 70, 301.1198120117188
0, 7, 71, 308.9147338867188
0, 7, 72, 286.5560302734375
0, 7, 73, 297.2730712890625
0, 7, 74, 343.9823913574219
0, 7, 75, 318.9106750488281
0, 7, 76, 322.4602355957031
0, 7, 77, 279.4652404785156
0, 7, 78, 299.9631042480469
0, 7, 79, 297.7903137207031
0, 7, 80, 313.8931884765625
0, 7, 81, 317.9262390136719
0, 7, 82, 329.3529663085938
0, 7, 83, 317.337158203125
0, 7, 84, 310.9493103027344
0, 7, 85, 273.0193481445312
0, 7, 86, 311.8400573730469
0, 7, 87, 308.7456970214844
0, 7, 88, 306.9815673828125
0, 7, 89, 294.187744140625
0, 7, 90, 305.1851501464844
0, 7, 91, 313.8464965820312
0, 7, 92, 286.6986999511719
0, 7, 93, 307.0534973144531
0, 7, 94, 272.9358215332031
0, 7, 95, 297.3515014648438
0, 7, 96, 332.0756225585938
0, 7, 97, 296.3805236816406
0, 7, 98, 289.3662719726562
0, 7, 99, 310.7245483398438
0, 7, 100, 280.4797973632812
0, 7, 101, 274.6187438964844
0, 7, 102, 289.7781982421875
0, 7, 103, 296.2232360839844
0, 7, 104, 274.4505004882812
0, 7, 105, 305.8527221679688
0, 7, 106, 317.4184875488281
0, 7, 107, 297.9678344726562
0, 7, 108, 272.6914367675781
0, 7, 109, 234.967529296875
0, 7, 110, 96.29669952392578
0, 7, 111, 24.75480842590332
0, 7, 112, 15.59030532836914
0, 7, 113, 14.88950729370117
0, 7, 114, 13.12347412109375
0, 7, 115, 13.37490558624268
0, 7, 116, 12.62193489074707
0, 7, 117, 7.239241123199463
0, 7, 118, 5.848253726959229
0, 7, 119, 7.759513378143311
0, 7, 120, 5.997965335845947
0, 7, 121, 6.355341911315918
0, 7, 122, 7.593966007232666
0, 7, 123, 5.816465377807617
0, 7, 124, 3.294388771057129
0, 7, 125, 6.847908496856689
0, 7, 126, 7.613035202026367
0, 7, 127, 3.544861316680908
0, 8, 0, 5.489461421966553
0, 8, 1, 3.69982385635376
0, 8, 2, 2.929070949554443
0, 8, 3, 1.771403193473816
0, 8, 4, 4.909972667694092
0, 8, 5, 4.163261890411377
0, 8, 6, 4.924589157104492
0, 8, 7, 8.114962577819824
0, 8, 8, 10.53059387207031
0, 8, 9, 4.952162265777588
0, 8, 10, 10.53210258483887
0, 8, 11, 11.45359325408936
0, 8, 12, 13.61377048492432
0, 8, 13, 16.16314697265625
0, 8, 14, 15.10146236419678
0, 8, 15, 17.77146339416504
0, 8, 16, 31.79925155639648
0, 8, 17, 129.6334991455078
0, 8, 18, 243.0997619628906
0, 8, 19, 294.1778869628906
0, 8, 20, 285.9553527832031
0, 8, 21, 306.2426147460938
0, 8, 22, 298.4075927734375
0, 8, 23, 274.0264587402344
0, 8, 24, 268.4284057617188
0, 8, 25, 275.1962890625
0, 8, 26, 306.304931640625
0, 8, 27, 307.3034057617188
0, 8, 28, 303.863037109375
0, 8, 29, 320.1367797851562
0, 8, 30, 315.7140197753906
0, 8, 31, 303.8636474609375
0, 8, 32, 280.3639831542969
0, 8, 33, 293.804443359375
0, 8, 34, 287.6844787597656
0, 8, 35, 283.1481018066406
0, 8, 36, 317.4731750488281
0, 8, 37, 338.0134582519531
