# TOPAS Version: 3.1.p3
# Parameter File: batch_inserts_244.txt
# Results for scorer Readout_Adipose
# Scored in component: MyBox
# X in 1 bin  of 0.75 cm
# Y in 512 bins of 0.0783984 cm
# Z in 128 bins of 0.078125 cm
# EnergyDeposit ( MeV ) : Sum   
0, 0, 0, 4.722887516021729
0, 0, 1, 2.384068489074707
0, 0, 2, 4.188667297363281
0, 0, 3, 1.507939219474792
0, 0, 4, 3.161350965499878
0, 0, 5, 2.273858070373535
0, 0, 6, 7.466981887817383
0, 0, 7, 9.800097465515137
0, 0, 8, 2.125673294067383
0, 0, 9, 3.85232400894165
0, 0, 10, 6.312638759613037
0, 0, 11, 4.590927600860596
0, 0, 12, 3.685395479202271
0, 0, 13, 6.179111003875732
0, 0, 14, 7.729145526885986
0, 0, 15, 8.94633674621582
0, 0, 16, 9.011466026306152
0, 0, 17, 10.40217113494873
0, 0, 18, 13.77851486206055
0, 0, 19, 44.84952926635742
0, 0, 20, 139.1235809326172
0, 0, 21, 223.571533203125
0, 0, 22, 248.7625579833984
0, 0, 23, 257.0945129394531
0, 0, 24, 250.3102874755859
0, 0, 25, 257.7178344726562
0, 0, 26, 234.8116149902344
0, 0, 27, 236.6357269287109
0, 0, 28, 270.31103515625
0, 0, 29, 253.2015838623047
0, 0, 30, 231.5928649902344
0, 0, 31, 243.8699493408203
0, 0, 32, 264.271484375
0, 0, 33, 260.4338684082031
0, 0, 34, 289.0451049804688
0, 0, 35, 268.4875183105469
0, 0, 36, 246.3518829345703
0, 0, 37, 252.8151397705078
0, 0, 38, 268.9814147949219
0, 0, 39, 231.028076171875
0, 0, 40, 241.1286926269531
0, 0, 41, 264.8616638183594
0, 0, 42, 229.2607116699219
0, 0, 43, 261.138671875
0, 0, 44, 253.7843017578125
0, 0, 45, 252.5494537353516
0, 0, 46, 244.5337066650391
0, 0, 47, 253.5987243652344
0, 0, 48, 265.9490661621094
0, 0, 49, 273.6199035644531
0, 0, 50, 250.7463073730469
0, 0, 51, 253.8353271484375
0, 0, 52, 273.7857360839844
0, 0, 53, 293.6752624511719
0, 0, 54, 243.2216644287109
0, 0, 55, 239.7304229736328
0, 0, 56, 277.6637268066406
0, 0, 57, 263.4576416015625
0, 0, 58, 248.4282531738281
0, 0, 59, 270.7890625
0, 0, 60, 236.3570251464844
0, 0, 61, 246.1255645751953
0, 0, 62, 257.6812438964844
0, 0, 63, 266.4674987792969
0, 0, 64, 255.1261749267578
0, 0, 65, 261.1951904296875
0, 0, 66, 277.5621643066406
0, 0, 67, 247.5466613769531
0, 0, 68, 258.8467102050781
0, 0, 69, 260.5714721679688
0, 0, 70, 273.5301818847656
0, 0, 71, 237.0244598388672
0, 0, 72, 251.8979034423828
0, 0, 73, 259.0125122070312
0, 0, 74, 252.0341491699219
0, 0, 75, 242.3877258300781
0, 0, 76, 230.4913330078125
0, 0, 77, 260.5581665039062
0, 0, 78, 258.9054260253906
0, 0, 79, 278.7255249023438
0, 0, 80, 216.9409027099609
0, 0, 81, 267.5409851074219
0, 0, 82, 256.17578125
0, 0, 83, 244.2570343017578
0, 0, 84, 269.6351318359375
0, 0, 85, 231.2964324951172
0, 0, 86, 254.8600616455078
0, 0, 87, 252.7742614746094
0, 0, 88, 259.7244567871094
0, 0, 89, 284.2332458496094
0, 0, 90, 244.4542541503906
0, 0, 91, 280.5017700195312
0, 0, 92, 252.220703125
0, 0, 93, 249.3711547851562
0, 0, 94, 248.5633087158203
0, 0, 95, 247.9153594970703
0, 0, 96, 274.569091796875
0, 0, 97, 273.5059204101562
0, 0, 98, 273.6861572265625
0, 0, 99, 257.8832702636719
0, 0, 100, 258.5866088867188
0, 0, 101, 227.1423187255859
0, 0, 102, 231.5934448242188
0, 0, 103, 268.6134033203125
0, 0, 104, 253.7452239990234
0, 0, 105, 252.0203399658203
0, 0, 106, 246.6969451904297
0, 0, 107, 152.0674438476562
0, 0, 108, 37.23129653930664
0, 0, 109, 11.78499221801758
0, 0, 110, 12.71866512298584
0, 0, 111, 8.895915985107422
0, 0, 112, 6.889759540557861
0, 0, 113, 4.578367233276367
0, 0, 114, 6.475922107696533
0, 0, 115, 6.675639152526855
0, 0, 116, 5.82373571395874
0, 0, 117, 4.672389984130859
0, 0, 118, 6.815739154815674
0, 0, 119, 5.122522830963135
0, 0, 120, 3.958384990692139
0, 0, 121, 3.812263965606689
0, 0, 122, 5.708018779754639
0, 0, 123, 2.942000150680542
0, 0, 124, 6.008878707885742
0, 0, 125, 2.486689805984497
0, 0, 126, 4.732982635498047
0, 0, 127, 3.412356615066528
0, 1, 0, 7.552186489105225
0, 1, 1, 2.4398033618927
0, 1, 2, 4.646467685699463
0, 1, 3, 2.333157777786255
0, 1, 4, 3.649045705795288
0, 1, 5, 4.56991720199585
0, 1, 6, 4.093034267425537
0, 1, 7, 3.633450508117676
0, 1, 8, 8.255955696105957
0, 1, 9, 4.98155689239502
0, 1, 10, 6.925131797790527
0, 1, 11, 10.80792808532715
0, 1, 12, 7.994456768035889
0, 1, 13, 9.406472206115723
0, 1, 14, 7.193835258483887
0, 1, 15, 9.81004810333252
0, 1, 16, 11.16039752960205
0, 1, 17, 10.09120750427246
0, 1, 18, 21.63692665100098
0, 1, 19, 66.03541564941406
0, 1, 20, 199.4625396728516
0, 1, 21, 253.9277648925781
0, 1, 22, 296.3908386230469
0, 1, 23, 283.6727905273438
0, 1, 24, 276.1744384765625
0, 1, 25, 289.3564147949219
0, 1, 26, 268.4620056152344
0, 1, 27, 305.7671813964844
0, 1, 28, 298.9350891113281
0, 1, 29, 295.2195434570312
0, 1, 30, 280.1181335449219
0, 1, 31, 291.2226257324219
0, 1, 32, 290.3464660644531
0, 1, 33, 296.8382568359375
0, 1, 34, 292.0278015136719
0, 1, 35, 278.5198364257812
0, 1, 36, 305.994140625
0, 1, 37, 294.4440002441406
0, 1, 38, 279.6163330078125
0, 1, 39, 296.5151977539062
0, 1, 40, 267.391845703125
0, 1, 41, 287.2757263183594
0, 1, 42, 289.9288024902344
0, 1, 43, 330.6669006347656
0, 1, 44, 278.1497497558594
0, 1, 45, 292.9804077148438
0, 1, 46, 261.8028564453125
0, 1, 47, 312.4728088378906
0, 1, 48, 285.3370056152344
0, 1, 49, 301.5334777832031
0, 1, 50, 262.8544616699219
0, 1, 51, 272.8946838378906
0, 1, 52, 294.250244140625
0, 1, 53, 304.8290710449219
0, 1, 54, 273.5177307128906
0, 1, 55, 292.1593017578125
0, 1, 56, 277.6036987304688
0, 1, 57, 298.7349243164062
0, 1, 58, 310.4957885742188
0, 1, 59, 290.3048400878906
0, 1, 60, 297.1493530273438
0, 1, 61, 274.3131103515625
0, 1, 62, 307.1809997558594
0, 1, 63, 286.9929809570312
0, 1, 64, 288.1123657226562
0, 1, 65, 294.7598876953125
0, 1, 66, 291.08642578125
0, 1, 67, 293.2449340820312
0, 1, 68, 278.2538146972656
0, 1, 69, 279.4925842285156
0, 1, 70, 270.3357238769531
0, 1, 71, 272.7555236816406
0, 1, 72, 285.7532958984375
0, 1, 73, 303.311279296875
0, 1, 74, 302.4300231933594
0, 1, 75, 295.2330627441406
0, 1, 76, 286.8704528808594
0, 1, 77, 292.1867370605469
0, 1, 78, 295.8164367675781
0, 1, 79, 302.1726379394531
0, 1, 80, 295.3521423339844
0, 1, 81, 299.5809936523438
0, 1, 82, 284.3055725097656
0, 1, 83, 331.6154174804688
0, 1, 84, 309.2130126953125
0, 1, 85, 252.1163330078125
0, 1, 86, 294.9372863769531
0, 1, 87, 289.2837524414062
0, 1, 88, 297.4468688964844
0, 1, 89, 288.8032531738281
0, 1, 90, 270.0834045410156
0, 1, 91, 317.2256469726562
0, 1, 92, 293.2105102539062
0, 1, 93, 286.2707214355469
0, 1, 94, 303.6955871582031
0, 1, 95, 283.1754150390625
0, 1, 96, 282.4063415527344
0, 1, 97, 301.5198669433594
0, 1, 98, 278.4251098632812
0, 1, 99, 267.4085998535156
0, 1, 100, 276.5029296875
0, 1, 101, 281.8458862304688
0, 1, 102, 278.4284362792969
0, 1, 103, 280.3471374511719
0, 1, 104, 307.5013427734375
0, 1, 105, 296.7202758789062
0, 1, 106, 261.6314697265625
0, 1, 107, 190.5623321533203
0, 1, 108, 80.27799987792969
0, 1, 109, 22.70145606994629
0, 1, 110, 11.14016914367676
0, 1, 111, 9.014805793762207
0, 1, 112, 11.61048030853271
0, 1, 113, 6.192368030548096
0, 1, 114, 5.947290897369385
0, 1, 115, 8.343274116516113
0, 1, 116, 11.02281761169434
0, 1, 117, 5.43541145324707
0, 1, 118, 6.337908267974854
0, 1, 119, 4.53691291809082
0, 1, 120, 4.589822769165039
0, 1, 121, 4.150207996368408
0, 1, 122, 3.285413503646851
0, 1, 123, 5.532954216003418
0, 1, 124, 8.320433616638184
0, 1, 125, 4.602057456970215
0, 1, 126, 1.383407115936279
0, 1, 127, 2.277620315551758
0, 2, 0, 3.775706768035889
0, 2, 1, 2.000166177749634
0, 2, 2, 4.91759729385376
0, 2, 3, 4.153001308441162
0, 2, 4, 3.651084661483765
0, 2, 5, 2.105186462402344
0, 2, 6, 2.224931240081787
0, 2, 7, 3.896105289459229
0, 2, 8, 4.676569938659668
0, 2, 9, 6.724725723266602
0, 2, 10, 8.74509334564209
0, 2, 11, 6.604547500610352
0, 2, 12, 5.820013523101807
0, 2, 13, 9.910605430603027
0, 2, 14, 10.03023719787598
0, 2, 15, 6.63096809387207
0, 2, 16, 8.979085922241211
0, 2, 17, 17.00994873046875
0, 2, 18, 31.25533676147461
0, 2, 19, 114.9721298217773
0, 2, 20, 245.3033752441406
0, 2, 21, 270.6015930175781
0, 2, 22, 317.8436279296875
0, 2, 23, 300.2544250488281
0, 2, 24, 287.333251953125
0, 2, 25, 301.61572265625
0, 2, 26, 294.6920776367188
0, 2, 27, 275.5402221679688
0, 2, 28, 272.3002014160156
0, 2, 29, 273.7983093261719
0, 2, 30, 288.0641479492188
0, 2, 31, 280.5957336425781
0, 2, 32, 293.1920776367188
0, 2, 33, 282.0354309082031
0, 2, 34, 332.4183959960938
0, 2, 35, 290.0860900878906
0, 2, 36, 304.0498657226562
0, 2, 37, 317.1224365234375
0, 2, 38, 312.4231262207031
0, 2, 39, 264.9202575683594
0, 2, 40, 310.2446899414062
0, 2, 41, 290.5028686523438
0, 2, 42, 302.2474975585938
0, 2, 43, 312.8302917480469
0, 2, 44, 315.206298828125
0, 2, 45, 325.8040466308594
0, 2, 46, 286.2068176269531
0, 2, 47, 303.3152160644531
0, 2, 48, 280.7362976074219
0, 2, 49, 277.2379455566406
0, 2, 50, 295.0472106933594
0, 2, 51, 286.585205078125
0, 2, 52, 271.5183410644531
0, 2, 53, 287.7047424316406
0, 2, 54, 279.6708679199219
0, 2, 55, 275.1737976074219
0, 2, 56, 302.5064392089844
0, 2, 57, 291.3719787597656
0, 2, 58, 303.1675109863281
0, 2, 59, 286.9511413574219
0, 2, 60, 318.9270935058594
0, 2, 61, 303.1456298828125
0, 2, 62, 314.7033386230469
0, 2, 63, 301.5481872558594
0, 2, 64, 297.5975036621094
0, 2, 65, 312.3074645996094
0, 2, 66, 282.3367004394531
0, 2, 67, 291.4129333496094
0, 2, 68, 296.1443786621094
0, 2, 69, 311.0740661621094
0, 2, 70, 334.0146179199219
0, 2, 71, 284.0961608886719
0, 2, 72, 301.6206665039062
0, 2, 73, 311.7933044433594
0, 2, 74, 288.5121459960938
0, 2, 75, 304.8117370605469
0, 2, 76, 287.1943969726562
0, 2, 77, 299.8419799804688
0, 2, 78, 314.3454284667969
0, 2, 79, 307.5758056640625
0, 2, 80, 297.1398315429688
0, 2, 81, 282.7027587890625
0, 2, 82, 316.7316284179688
0, 2, 83, 313.0486755371094
0, 2, 84, 287.4026794433594
0, 2, 85, 280.6618957519531
0, 2, 86, 324.117431640625
0, 2, 87, 287.1212158203125
0, 2, 88, 278.9497375488281
0, 2, 89, 297.6430053710938
0, 2, 90, 294.7099304199219
0, 2, 91, 279.8115234375
0, 2, 92, 303.6741638183594
0, 2, 93, 317.0081787109375
0, 2, 94, 291.1075744628906
0, 2, 95, 314.5583801269531
0, 2, 96, 314.5047607421875
0, 2, 97, 289.7178955078125
0, 2, 98, 293.0650939941406
0, 2, 99, 275.6318359375
0, 2, 100, 307.5213317871094
0, 2, 101, 300.11474609375
0, 2, 102, 297.6651306152344
0, 2, 103, 293.3096313476562
0, 2, 104, 294.0507202148438
0, 2, 105, 274.1151123046875
0, 2, 106, 296.9145202636719
0, 2, 107, 271.26123046875
0, 2, 108, 116.975700378418
0, 2, 109, 30.98276519775391
0, 2, 110, 9.637548446655273
0, 2, 111, 11.84792137145996
0, 2, 112, 9.698100090026855
0, 2, 113, 9.64892578125
0, 2, 114, 10.05002307891846
0, 2, 115, 8.738092422485352
0, 2, 116, 11.96909618377686
0, 2, 117, 6.767618656158447
0, 2, 118, 2.850380420684814
0, 2, 119, 6.748772621154785
0, 2, 120, 6.452742099761963
0, 2, 121, 3.711196184158325
0, 2, 122, 5.082512855529785
0, 2, 123, 4.158791065216064
0, 2, 124, 5.747214317321777
0, 2, 125, 4.925508975982666
0, 2, 126, 4.876808643341064
0, 2, 127, 5.568018436431885
0, 3, 0, 4.405647754669189
0, 3, 1, 2.85832405090332
0, 3, 2, 4.747580528259277
0, 3, 3, 1.720128893852234
0, 3, 4, 4.371140003204346
0, 3, 5, 8.679286956787109
0, 3, 6, 7.371034145355225
0, 3, 7, 8.456107139587402
0, 3, 8, 7.370715618133545
0, 3, 9, 7.523171901702881
0, 3, 10, 6.311917781829834
0, 3, 11, 3.549553632736206
0, 3, 12, 10.31384181976318
0, 3, 13, 14.29547882080078
0, 3, 14, 10.94313049316406
0, 3, 15, 14.37099933624268
0, 3, 16, 11.84660530090332
0, 3, 17, 21.63967323303223
0, 3, 18, 52.3306884765625
0, 3, 19, 177.0680236816406
0, 3, 20, 269.8328247070312
0, 3, 21, 271.3322143554688
0, 3, 22, 282.5458068847656
0, 3, 23, 286.9188537597656
0, 3, 24, 286.1122131347656
0, 3, 25, 271.5717468261719
0, 3, 26, 302.9210510253906
0, 3, 27, 293.1395568847656
0, 3, 28, 283.3631896972656
0, 3, 29, 338.5029602050781
0, 3, 30, 316.5176086425781
0, 3, 31, 288.5312194824219
0, 3, 32, 306.39501953125
0, 3, 33, 313.7762756347656
0, 3, 34, 322.0105590820312
0, 3, 35, 306.1290283203125
0, 3, 36, 272.5009460449219
0, 3, 37, 313.3007202148438
0, 3, 38, 306.4131774902344
0, 3, 39, 288.7455139160156
0, 3, 40, 266.0391845703125
0, 3, 41, 299.4806823730469
0, 3, 42, 286.0410461425781
0, 3, 43, 305.9521484375
0, 3, 44, 310.8953857421875
0, 3, 45, 292.8226623535156
0, 3, 46, 331.10693359375
0, 3, 47, 299.7291259765625
0, 3, 48, 304.3811950683594
0, 3, 49, 277.5685119628906
0, 3, 50, 289.1702575683594
0, 3, 51, 275.5097351074219
0, 3, 52, 314.3084411621094
0, 3, 53, 289.7363586425781
0, 3, 54, 287.2252502441406
0, 3, 55, 282.7694702148438
0, 3, 56, 297.9542846679688
0, 3, 57, 288.1646118164062
0, 3, 58, 305.4747009277344
0, 3, 59, 295.0294494628906
0, 3, 60, 297.2802429199219
0, 3, 61, 265.1466064453125
0, 3, 62, 283.9952697753906
0, 3, 63, 308.8185119628906
0, 3, 64, 316.6285705566406
0, 3, 65, 304.6250915527344
0, 3, 66, 314.5536499023438
0, 3, 67, 317.6413879394531
0, 3, 68, 278.9473876953125
0, 3, 69, 284.0276794433594
0, 3, 70, 288.7130126953125
0, 3, 71, 299.3788146972656
0, 3, 72, 271.0224914550781
0, 3, 73, 310.006103515625
0, 3, 74, 292.1578369140625
0, 3, 75, 289.1059265136719
0, 3, 76, 305.1988830566406
0, 3, 77, 314.3110046386719
0, 3, 78, 302.8399963378906
0, 3, 79, 282.5166931152344
0, 3, 80, 293.6016845703125
0, 3, 81, 312.0396423339844
0, 3, 82, 315.5234069824219
0, 3, 83, 301.2093200683594
0, 3, 84, 312.8211059570312
0, 3, 85, 293.6450805664062
0, 3, 86, 302.3706359863281
0, 3, 87, 297.3575744628906
0, 3, 88, 298.615966796875
0, 3, 89, 296.6647033691406
0, 3, 90, 277.0995178222656
0, 3, 91, 284.2097778320312
0, 3, 92, 306.16162109375
0, 3, 93, 312.3128662109375
0, 3, 94, 299.487548828125
0, 3, 95, 336.1973571777344
0, 3, 96, 291.4103088378906
0, 3, 97, 285.2703857421875
0, 3, 98, 278.1455078125
0, 3, 99, 261.1563720703125
0, 3, 100, 285.8945617675781
0, 3, 101, 297.5997314453125
0, 3, 102, 274.2140197753906
0, 3, 103, 323.1343994140625
0, 3, 104, 309.4607543945312
0, 3, 105, 287.2983093261719
0, 3, 106, 303.9824829101562
0, 3, 107, 282.8701782226562
0, 3, 108, 169.0870056152344
0, 3, 109, 57.89361953735352
0, 3, 110, 18.6506233215332
0, 3, 111, 12.29391098022461
0, 3, 112, 11.79068470001221
0, 3, 113, 5.608232498168945
0, 3, 114, 9.261806488037109
0, 3, 115, 7.683922290802002
0, 3, 116, 7.853046417236328
0, 3, 117, 6.404918193817139
0, 3, 118, 7.579407691955566
0, 3, 119, 6.333417892456055
0, 3, 120, 6.906267642974854
0, 3, 121, 3.748485803604126
0, 3, 122, 4.715959072113037
0, 3, 123, 8.379154205322266
0, 3, 124, 2.516048908233643
0, 3, 125, 5.918560981750488
0, 3, 126, 4.244245052337646
0, 3, 127, 3.043042421340942
0, 4, 0, 3.056801795959473
0, 4, 1, 5.633964061737061
0, 4, 2, 2.958725452423096
0, 4, 3, 1.870652556419373
0, 4, 4, 7.494531154632568
0, 4, 5, 10.18921089172363
0, 4, 6, 7.221282482147217
0, 4, 7, 5.931236267089844
0, 4, 8, 3.257819652557373
0, 4, 9, 7.128152847290039
0, 4, 10, 7.489854335784912
0, 4, 11, 10.2333927154541
0, 4, 12, 7.235099792480469
0, 4, 13, 7.777505874633789
0, 4, 14, 11.40090370178223
0, 4, 15, 9.786249160766602
0, 4, 16, 13.9952335357666
0, 4, 17, 20.35152626037598
0, 4, 18, 93.03877258300781
0, 4, 19, 225.5787658691406
0, 4, 20, 285.1233215332031
0, 4, 21, 271.9947509765625
0, 4, 22, 304.9371337890625
0, 4, 23, 268.8375854492188
0, 4, 24, 288.5349731445312
0, 4, 25, 271.6666564941406
0, 4, 26, 295.8097229003906
0, 4, 27, 283.728271484375
0, 4, 28, 308.6675415039062
0, 4, 29, 323.2225036621094
0, 4, 30, 310.044921875
0, 4, 31, 303.8376770019531
0, 4, 32, 282.9403991699219
0, 4, 33, 297.8249206542969
0, 4, 34, 298.4613037109375
0, 4, 35, 314.2682800292969
0, 4, 36, 295.8900146484375
0, 4, 37, 289.7515869140625
0, 4, 38, 296.2289733886719
0, 4, 39, 294.5430297851562
0, 4, 40, 302.9275817871094
0, 4, 41, 310.6466979980469
0, 4, 42, 330.5933227539062
0, 4, 43, 297.7837219238281
0, 4, 44, 321.3554077148438
0, 4, 45, 325.12158203125
0, 4, 46, 304.3609008789062
0, 4, 47, 293.2843322753906
0, 4, 48, 296.1354675292969
0, 4, 49, 278.3751220703125
0, 4, 50, 296.6483764648438
0, 4, 51, 315.8338012695312
0, 4, 52, 327.4561157226562
0, 4, 53, 302.8201904296875
0, 4, 54, 286.4957580566406
0, 4, 55, 316.2389221191406
0, 4, 56, 288.2375183105469
0, 4, 57, 309.9867248535156
0, 4, 58, 297.2069396972656
0, 4, 59, 308.0239562988281
0, 4, 60, 301.4431762695312
0, 4, 61, 316.4088134765625
0, 4, 62, 309.69189453125
0, 4, 63, 300.6286010742188
0, 4, 64, 329.0528564453125
0, 4, 65, 314.8621215820312
0, 4, 66, 295.0906982421875
0, 4, 67, 284.6449890136719
0, 4, 68, 315.3675231933594
0, 4, 69, 275.71630859375
0, 4, 70, 300.3464050292969
0, 4, 71, 321.1493225097656
0, 4, 72, 331.4711608886719
0, 4, 73, 299.1585998535156
0, 4, 74, 292.1510009765625
0, 4, 75, 290.3123779296875
0, 4, 76, 275.5140075683594
0, 4, 77, 277.5255432128906
0, 4, 78, 309.3550415039062
0, 4, 79, 320.4426879882812
0, 4, 80, 315.6982421875
0, 4, 81, 311.3477478027344
0, 4, 82, 298.8207397460938
0, 4, 83, 300.0338439941406
0, 4, 84, 291.0318298339844
0, 4, 85, 295.5283813476562
0, 4, 86, 299.6717529296875
0, 4, 87, 284.0776977539062
0, 4, 88, 309.6590576171875
0, 4, 89, 295.5873413085938
0, 4, 90, 332.5005493164062
0, 4, 91, 301.372802734375
0, 4, 92, 289.7719116210938
0, 4, 93, 297.5226440429688
0, 4, 94, 293.3853759765625
0, 4, 95, 287.4864501953125
0, 4, 96, 323.885009765625
0, 4, 97, 273.7462463378906
0, 4, 98, 326.239501953125
0, 4, 99, 313.3502502441406
0, 4, 100, 302.3640441894531
0, 4, 101, 258.1613159179688
0, 4, 102, 296.1051025390625
0, 4, 103, 317.1485290527344
0, 4, 104, 283.1665344238281
0, 4, 105, 309.5982055664062
0, 4, 106, 286.9920043945312
0, 4, 107, 295.3978576660156
0, 4, 108, 225.8074188232422
0, 4, 109, 79.62904357910156
0, 4, 110, 15.12982940673828
0, 4, 111, 13.222975730896
0, 4, 112, 9.268924713134766
0, 4, 113, 9.821476936340332
0, 4, 114, 7.719360828399658
0, 4, 115, 10.24537658691406
0, 4, 116, 9.494819641113281
0, 4, 117, 7.739524364471436
0, 4, 118, 9.410611152648926
0, 4, 119, 8.787753105163574
0, 4, 120, 4.460252285003662
0, 4, 121, 5.429079532623291
0, 4, 122, 4.386555671691895
0, 4, 123, 9.780933380126953
0, 4, 124, 4.779291152954102
0, 4, 125, 8.125513076782227
0, 4, 126, 8.765999794006348
0, 4, 127, 5.686241626739502
0, 5, 0, 3.122183084487915
0, 5, 1, 3.244041204452515
0, 5, 2, 3.672994375228882
0, 5, 3, 4.044514179229736
0, 5, 4, 4.904996395111084
0, 5, 5, 6.029586791992188
0, 5, 6, 7.176204681396484
0, 5, 7, 5.637724876403809
0, 5, 8, 7.012839317321777
0, 5, 9, 5.282887935638428
0, 5, 10, 6.862296581268311
0, 5, 11, 9.762906074523926
0, 5, 12, 8.181999206542969
0, 5, 13, 8.367935180664062
0, 5, 14, 13.26869106292725
0, 5, 15, 16.88089752197266
0, 5, 16, 13.74624347686768
0, 5, 17, 29.73469543457031
0, 5, 18, 138.5699768066406
0, 5, 19, 287.3113708496094
0, 5, 20, 306.2654724121094
0, 5, 21, 318.2025756835938
0, 5, 22, 275.7307739257812
0, 5, 23, 310.9480285644531
0, 5, 24, 301.4689025878906
0, 5, 25, 289.4219970703125
0, 5, 26, 294.5364990234375
0, 5, 27, 321.551025390625
0, 5, 28, 302.5774841308594
0, 5, 29, 298.1612243652344
0, 5, 30, 323.1800842285156
0, 5, 31, 286.0335388183594
0, 5, 32, 301.0569763183594
0, 5, 33, 302.9690246582031
0, 5, 34, 296.2597045898438
0, 5, 35, 310.0401611328125
0, 5, 36, 267.6412658691406
0, 5, 37, 281.47607421875
0, 5, 38, 293.4912414550781
0, 5, 39, 311.8636474609375
0, 5, 40, 308.1951904296875
0, 5, 41, 273.606689453125
0, 5, 42, 311.0220642089844
0, 5, 43, 314.1455993652344
0, 5, 44, 292.5994873046875
0, 5, 45, 300.741943359375
0, 5, 46, 264.32421875
0, 5, 47, 279.3230590820312
0, 5, 48, 295.8610229492188
0, 5, 49, 286.0916137695312
0, 5, 50, 298.6044921875
0, 5, 51, 279.7850952148438
0, 5, 52, 269.2305603027344
0, 5, 53, 284.0583190917969
0, 5, 54, 291.9476928710938
0, 5, 55, 345.4339294433594
0, 5, 56, 304.967041015625
0, 5, 57, 307.9690856933594
0, 5, 58, 312.0981750488281
0, 5, 59, 302.9506530761719
0, 5, 60, 308.2577209472656
0, 5, 61, 282.994873046875
0, 5, 62, 327.2715454101562
0, 5, 63, 292.2544860839844
0, 5, 64, 323.1269836425781
0, 5, 65, 309.6690063476562
0, 5, 66, 329.4925842285156
0, 5, 67, 311.8192443847656
0, 5, 68, 308.148193359375
0, 5, 69, 312.3227844238281
0, 5, 70, 301.6818237304688
0, 5, 71, 272.0966491699219
0, 5, 72, 310.0737915039062
0, 5, 73, 303.0462341308594
0, 5, 74, 294.8608093261719
0, 5, 75, 294.3688659667969
0, 5, 76, 285.7284240722656
0, 5, 77, 300.1035766601562
0, 5, 78, 314.2333679199219
0, 5, 79, 305.90966796875
0, 5, 80, 295.0529479980469
0, 5, 81, 325.2872619628906
0, 5, 82, 323.4519348144531
0, 5, 83, 280.4845886230469
0, 5, 84, 301.3903198242188
0, 5, 85, 271.1240539550781
0, 5, 86, 325.7845764160156
0, 5, 87, 284.72998046875
0, 5, 88, 314.1759948730469
0, 5, 89, 305.0913391113281
0, 5, 90, 317.4935607910156
0, 5, 91, 313.2148132324219
0, 5, 92, 297.2398376464844
0, 5, 93, 322.2788391113281
0, 5, 94, 309.5027160644531
0, 5, 95, 296.1032409667969
0, 5, 96, 300.5162963867188
0, 5, 97, 295.2551879882812
0, 5, 98, 319.6316528320312
0, 5, 99, 301.1384582519531
0, 5, 100, 290.2746276855469
0, 5, 101, 306.3487548828125
0, 5, 102, 294.4736022949219
0, 5, 103, 313.044189453125
0, 5, 104, 302.0749816894531
0, 5, 105, 292.6901550292969
0, 5, 106, 282.6122436523438
0, 5, 107, 293.7118530273438
0, 5, 108, 267.4237976074219
0, 5, 109, 162.9025726318359
0, 5, 110, 40.42204666137695
0, 5, 111, 21.04800033569336
0, 5, 112, 17.59383583068848
0, 5, 113, 17.05619049072266
0, 5, 114, 11.60851669311523
0, 5, 115, 9.229813575744629
0, 5, 116, 8.134499549865723
0, 5, 117, 5.541575908660889
0, 5, 118, 15.33518218994141
0, 5, 119, 4.528542518615723
0, 5, 120, 6.692817211151123
0, 5, 121, 6.265357971191406
0, 5, 122, 8.770337104797363
0, 5, 123, 6.043113708496094
0, 5, 124, 6.183383464813232
0, 5, 125, 5.127030372619629
0, 5, 126, 5.607232093811035
0, 5, 127, 2.119248151779175
0, 6, 0, 5.016643047332764
0, 6, 1, 2.474749803543091
0, 6, 2, 4.701743602752686
0, 6, 3, 5.476243495941162
0, 6, 4, 4.678356647491455
0, 6, 5, 6.310079097747803
0, 6, 6, 7.87380313873291
0, 6, 7, 4.558000087738037
0, 6, 8, 8.575081825256348
0, 6, 9, 5.029793739318848
0, 6, 10, 8.804852485656738
0, 6, 11, 8.616998672485352
0, 6, 12, 10.08241939544678
0, 6, 13, 13.01963520050049
0, 6, 14, 8.951484680175781
0, 6, 15, 18.11696434020996
0, 6, 16, 28.33040046691895
0, 6, 17, 54.76352691650391
0, 6, 18, 173.0761871337891
0, 6, 19, 276.046142578125
0, 6, 20, 291.0405578613281
0, 6, 21, 314.7558288574219
0, 6, 22, 318.8091125488281
0, 6, 23, 305.0605773925781
0, 6, 24, 317.7036743164062
0, 6, 25, 316.6115417480469
0, 6, 26, 320.1689147949219
0, 6, 27, 331.0037536621094
0, 6, 28, 294.7825927734375
0, 6, 29, 329.448486328125
0, 6, 30, 281.1767272949219
0, 6, 31, 287.8634338378906
0, 6, 32, 340.2395935058594
0, 6, 33, 299.3161315917969
0, 6, 34, 340.7176208496094
0, 6, 35, 320.2145690917969
0, 6, 36, 274.4578552246094
0, 6, 37, 288.9418029785156
0, 6, 38, 311.4558410644531
0, 6, 39, 300.3255310058594
0, 6, 40, 283.2367553710938
0, 6, 41, 295.8221435546875
0, 6, 42, 302.9430541992188
0, 6, 43, 289.9994506835938
0, 6, 44, 279.5082702636719
0, 6, 45, 319.0220336914062
0, 6, 46, 301.7959594726562
0, 6, 47, 332.0873718261719
0, 6, 48, 292.2505493164062
0, 6, 49, 311.7734680175781
0, 6, 50, 329.5598754882812
0, 6, 51, 310.2638854980469
0, 6, 52, 321.4417724609375
0, 6, 53, 328.3553466796875
0, 6, 54, 304.7118225097656
0, 6, 55, 305.7608337402344
0, 6, 56, 294.9312744140625
0, 6, 57, 312.3267517089844
0, 6, 58, 261.739990234375
0, 6, 59, 303.353271484375
0, 6, 60, 312.7368469238281
0, 6, 61, 270.6031494140625
0, 6, 62, 336.6895141601562
0, 6, 63, 321.8948059082031
0, 6, 64, 290.011962890625
0, 6, 65, 282.8123779296875
0, 6, 66, 301.5072021484375
0, 6, 67, 308.9557800292969
0, 6, 68, 293.2857360839844
0, 6, 69, 280.0191040039062
0, 6, 70, 273.4197692871094
0, 6, 71, 288.7023315429688
0, 6, 72, 312.1754760742188
0, 6, 73, 292.8074340820312
0, 6, 74, 330.7207946777344
0, 6, 75, 342.8859252929688
0, 6, 76, 298.5708618164062
0, 6, 77, 287.997802734375
0, 6, 78, 279.9730834960938
0, 6, 79, 292.5249633789062
0, 6, 80, 298.9603271484375
0, 6, 81, 315.8583374023438
0, 6, 82, 320.5971984863281
0, 6, 83, 321.8560485839844
0, 6, 84, 297.5917663574219
0, 6, 85, 301.3371276855469
0, 6, 86, 330.3923034667969
0, 6, 87, 291.7294616699219
0, 6, 88, 306.0943603515625
0, 6, 89, 304.0633239746094
0, 6, 90, 299.7511596679688
0, 6, 91, 311.9632568359375
0, 6, 92, 284.5328369140625
0, 6, 93, 295.88916015625
0, 6, 94, 275.6604309082031
0, 6, 95, 299.977294921875
0, 6, 96, 350.0182800292969
0, 6, 97, 307.5711059570312
0, 6, 98, 301.0768127441406
0, 6, 99, 271.3404846191406
0, 6, 100, 309.7228393554688
0, 6, 101, 292.8821411132812
0, 6, 102, 305.7661743164062
0, 6, 103, 308.5197448730469
0, 6, 104, 292.4482116699219
0, 6, 105, 300.904296875
0, 6, 106, 308.3812561035156
0, 6, 107, 305.8051452636719
0, 6, 108, 265.5418090820312
0, 6, 109, 185.3125
0, 6, 110, 54.57041549682617
0, 6, 111, 21.40081024169922
0, 6, 112, 12.15587139129639
0, 6, 113, 10.66435527801514
0, 6, 114, 12.5589485168457
0, 6, 115, 11.03838634490967
0, 6, 116, 11.05977439880371
0, 6, 117, 7.177466869354248
0, 6, 118, 10.47546005249023
0, 6, 119, 8.64576244354248
0, 6, 120, 4.772605419158936
0, 6, 121, 7.256348609924316
0, 6, 122, 7.609067916870117
0, 6, 123, 6.21005916595459
0, 6, 124, 7.228318214416504
0, 6, 125, 6.025142669677734
0, 6, 126, 4.293997764587402
0, 6, 127, 7.154875755310059
0, 7, 0, 5.268481731414795
0, 7, 1, 4.706220626831055
0, 7, 2, 6.890067100524902
0, 7, 3, 6.217948913574219
0, 7, 4, 4.978599548339844
0, 7, 5, 5.324954509735107
0, 7, 6, 4.800667285919189
0, 7, 7, 5.174008846282959
0, 7, 8, 5.047800540924072
0, 7, 9, 7.346773147583008
0, 7, 10, 7.350191116333008
0, 7, 11, 10.29563045501709
0, 7, 12, 8.923054695129395
0, 7, 13, 11.2220458984375
0, 7, 14, 10.42687702178955
0, 7, 15, 18.34473991394043
0, 7, 16, 28.05360412597656
0, 7, 17, 98.700439453125
0, 7, 18, 218.6078948974609
0, 7, 19, 288.64208984375
0, 7, 20, 298.3378601074219
0, 7, 21, 277.5853271484375
0, 7, 22, 299.4464721679688
0, 7, 23, 289.2104187011719
0, 7, 24, 313.8187255859375
0, 7, 25, 324.8898315429688
0, 7, 26, 276.7603759765625
0, 7, 27, 299.5689392089844
0, 7, 28, 326.4490966796875
0, 7, 29, 317.4529724121094
0, 7, 30, 299.533203125
0, 7, 31, 277.2258605957031
0, 7, 32, 306.5987243652344
0, 7, 33, 265.6881408691406
0, 7, 34, 296.7777404785156
0, 7, 35, 320.2637634277344
0, 7, 36, 330.9915771484375
0, 7, 37, 322.837646484375
0, 7, 38, 296.3628845214844
0, 7, 39, 307.11279296875
0, 7, 40, 290.4824829101562
0, 7, 41, 270.9861145019531
0, 7, 42, 300.1109619140625
0, 7, 43, 275.7819213867188
0, 7, 44, 304.2711791992188
0, 7, 45, 295.4212646484375
0, 7, 46, 284.5223388671875
0, 7, 47, 331.2225952148438
0, 7, 48, 286.6256713867188
0, 7, 49, 302.4212036132812
0, 7, 50, 320.9460754394531
0, 7, 51, 299.1553649902344
0, 7, 52, 325.3874816894531
0, 7, 53, 311.4840698242188
0, 7, 54, 324.3781433105469
0, 7, 55, 307.8980407714844
0, 7, 56, 280.4613037109375
0, 7, 57, 284.0435180664062
0, 7, 58, 295.9110412597656
0, 7, 59, 294.2843322753906
0, 7, 60, 323.7945861816406
0, 7, 61, 279.1017761230469
0, 7, 62, 296.8269653320312
0, 7, 63, 293.4993591308594
0, 7, 64, 304.7943115234375
0, 7, 65, 329.9266052246094
0, 7, 66, 319.5941467285156
0, 7, 67, 302.4078063964844
0, 7, 68, 280.9820556640625
0, 7, 69, 294.5265808105469
0, 7, 70, 302.624267578125
0, 7, 71, 310.7412109375
0, 7, 72, 286.5514526367188
0, 7, 73, 295.58544921875
0, 7, 74, 343.8248596191406
0, 7, 75, 318.745361328125
0, 7, 76, 322.5435180664062
0, 7, 77, 281.2056884765625
0, 7, 78, 302.9082946777344
0, 7, 79, 297.7687072753906
0, 7, 80, 311.3458862304688
0, 7, 81, 321.7865295410156
0, 7, 82, 328.4797058105469
0, 7, 83, 318.7736206054688
0, 7, 84, 309.0718078613281
0, 7, 85, 272.2427062988281
0, 7, 86, 311.4227600097656
0, 7, 87, 309.5182189941406
0, 7, 88, 306.8655700683594
0, 7, 89, 295.0573120117188
0, 7, 90, 307.3851318359375
0, 7, 91, 313.5068359375
0, 7, 92, 287.7252197265625
0, 7, 93, 306.3236694335938
0, 7, 94, 273.7691955566406
0, 7, 95, 296.0084228515625
0, 7, 96, 330.6807250976562
0, 7, 97, 294.7663879394531
0, 7, 98, 291.7142944335938
0, 7, 99, 310.0838928222656
0, 7, 100, 280.056396484375
0, 7, 101, 274.9795227050781
0, 7, 102, 289.3201599121094
0, 7, 103, 291.5841064453125
0, 7, 104, 275.9968872070312
0, 7, 105, 306.6220703125
0, 7, 106, 317.1295471191406
0, 7, 107, 296.8318176269531
0, 7, 108, 272.2930297851562
0, 7, 109, 236.8681182861328
0, 7, 110, 95.93206024169922
0, 7, 111, 24.22811126708984
0, 7, 112, 15.43025970458984
0, 7, 113, 13.76203536987305
0, 7, 114, 13.10725688934326
0, 7, 115, 13.2122278213501
0, 7, 116, 8.059697151184082
0, 7, 117, 6.922364711761475
0, 7, 118, 11.68314456939697
0, 7, 119, 4.093966960906982
0, 7, 120, 4.014089584350586
0, 7, 121, 5.50943660736084
0, 7, 122, 7.136093616485596
0, 7, 123, 5.355168342590332
0, 7, 124, 2.879435300827026
0, 7, 125, 6.806363105773926
0, 7, 126, 7.182175636291504
0, 7, 127, 2.47488808631897
0, 8, 0, 4.993042469024658
0, 8, 1, 4.220515251159668
0, 8, 2, 2.782945394515991
0, 8, 3, 3.512521505355835
0, 8, 4, 4.267521381378174
0, 8, 5, 4.123432159423828
0, 8, 6, 6.089866161346436
0, 8, 7, 4.408420085906982
0, 8, 8, 7.714322566986084
0, 8, 9, 4.397876739501953
0, 8, 10, 5.934677600860596
0, 8, 11, 12.64914989471436
0, 8, 12, 13.42684745788574
0, 8, 13, 16.18116188049316
0, 8, 14, 13.07681274414062
0, 8, 15, 18.70587158203125
0, 8, 16, 31.74138259887695
0, 8, 17, 129.3876037597656
0, 8, 18, 242.1173858642578
0, 8, 19, 295.1839599609375
0, 8, 20, 285.6226501464844
0, 8, 21, 308.4942932128906
0, 8, 22, 295.9163818359375
0, 8, 23, 275.4241333007812
0, 8, 24, 267.8255004882812
0, 8, 25, 276.8606567382812
0, 8, 26, 307.0947875976562
0, 8, 27, 307.8440551757812
0, 8, 28, 303.1740112304688
0, 8, 29, 318.8830871582031
0, 8, 30, 316.2422485351562
0, 8, 31, 305.2512817382812
0, 8, 32, 280.9203491210938
0, 8, 33, 294.7633361816406
0, 8, 34, 288.5184020996094
0, 8, 35, 281.1585388183594
0, 8, 36, 315.060546875
0, 8, 37, 341.5920104980469
0, 8, 38, 331.8188781738281
0, 8, 39, 280.691162109375
