# TOPAS Version: 3.1.p3
# Parameter File: batch_inserts_22.txt
# Results for scorer Readout_Adipose
# Scored in component: MyBox
# X in 1 bin  of 0.75 cm
# Y in 512 bins of 0.0783984 cm
# Z in 128 bins of 0.078125 cm
# EnergyDeposit ( MeV ) : Sum   
0, 0, 0, 3.609493970870972
0, 0, 1, 2.166399240493774
0, 0, 2, 4.05446720123291
0, 0, 3, 2.096229791641235
0, 0, 4, 4.019956111907959
0, 0, 5, 2.593796730041504
0, 0, 6, 8.468189239501953
0, 0, 7, 9.795379638671875
0, 0, 8, 3.008018493652344
0, 0, 9, 3.554234981536865
0, 0, 10, 6.389575481414795
0, 0, 11, 4.734558582305908
0, 0, 12, 3.973922729492188
0, 0, 13, 7.672109127044678
0, 0, 14, 7.249685287475586
0, 0, 15, 9.49859619140625
0, 0, 16, 7.676627635955811
0, 0, 17, 9.498058319091797
0, 0, 18, 13.77579593658447
0, 0, 19, 43.7180290222168
0, 0, 20, 141.0968933105469
0, 0, 21, 222.4151611328125
0, 0, 22, 250.2638244628906
0, 0, 23, 255.5015716552734
0, 0, 24, 251.8694000244141
0, 0, 25, 259.8927917480469
0, 0, 26, 233.5093688964844
0, 0, 27, 236.4463348388672
0, 0, 28, 276.9129333496094
0, 0, 29, 252.4861297607422
0, 0, 30, 228.6272888183594
0, 0, 31, 243.7574005126953
0, 0, 32, 263.982666015625
0, 0, 33, 261.2334594726562
0, 0, 34, 287.6145629882812
0, 0, 35, 266.4427490234375
0, 0, 36, 246.4392547607422
0, 0, 37, 251.3155517578125
0, 0, 38, 266.7372131347656
0, 0, 39, 228.8405456542969
0, 0, 40, 240.5612182617188
0, 0, 41, 266.405029296875
0, 0, 42, 229.6758422851562
0, 0, 43, 262.5076293945312
0, 0, 44, 254.6990966796875
0, 0, 45, 252.2205200195312
0, 0, 46, 243.7353363037109
0, 0, 47, 254.25927734375
0, 0, 48, 268.4286193847656
0, 0, 49, 275.1024169921875
0, 0, 50, 251.3973083496094
0, 0, 51, 254.0927429199219
0, 0, 52, 272.760986328125
0, 0, 53, 291.0835876464844
0, 0, 54, 242.046630859375
0, 0, 55, 240.3689270019531
0, 0, 56, 277.6221923828125
0, 0, 57, 262.2913818359375
0, 0, 58, 245.7552490234375
0, 0, 59, 275.2516784667969
0, 0, 60, 234.9690856933594
0, 0, 61, 246.2474670410156
0, 0, 62, 257.5310974121094
0, 0, 63, 265.9083862304688
0, 0, 64, 255.2710723876953
0, 0, 65, 261.318603515625
0, 0, 66, 277.5365295410156
0, 0, 67, 248.2211608886719
0, 0, 68, 259.0959777832031
0, 0, 69, 262.1276550292969
0, 0, 70, 272.4142456054688
0, 0, 71, 240.0293579101562
0, 0, 72, 251.0079193115234
0, 0, 73, 257.2068176269531
0, 0, 74, 252.8416595458984
0, 0, 75, 240.7093200683594
0, 0, 76, 227.953125
0, 0, 77, 260.4974670410156
0, 0, 78, 256.1359558105469
0, 0, 79, 278.1153869628906
0, 0, 80, 215.9613037109375
0, 0, 81, 268.0488891601562
0, 0, 82, 256.3270874023438
0, 0, 83, 244.5090484619141
0, 0, 84, 269.8651123046875
0, 0, 85, 232.2051086425781
0, 0, 86, 253.6841125488281
0, 0, 87, 250.4568634033203
0, 0, 88, 261.7543334960938
0, 0, 89, 283.1765747070312
0, 0, 90, 245.0209197998047
0, 0, 91, 279.8623352050781
0, 0, 92, 253.4051513671875
0, 0, 93, 250.1248474121094
0, 0, 94, 248.5377502441406
0, 0, 95, 248.2884826660156
0, 0, 96, 275.6170959472656
0, 0, 97, 272.761474609375
0, 0, 98, 273.1371765136719
0, 0, 99, 260.8999328613281
0, 0, 100, 258.4473571777344
0, 0, 101, 224.6796722412109
0, 0, 102, 233.3889923095703
0, 0, 103, 270.2284851074219
0, 0, 104, 254.0185241699219
0, 0, 105, 253.4880065917969
0, 0, 106, 246.2155151367188
0, 0, 107, 153.0142059326172
0, 0, 108, 39.23477172851562
0, 0, 109, 14.38787841796875
0, 0, 110, 12.76309108734131
0, 0, 111, 9.263226509094238
0, 0, 112, 6.729758262634277
0, 0, 113, 4.696337699890137
0, 0, 114, 6.984228134155273
0, 0, 115, 7.143350124359131
0, 0, 116, 8.508957862854004
0, 0, 117, 6.26204776763916
0, 0, 118, 4.988481998443604
0, 0, 119, 6.600124359130859
0, 0, 120, 6.452671527862549
0, 0, 121, 5.041377067565918
0, 0, 122, 3.517498731613159
0, 0, 123, 3.94485330581665
0, 0, 124, 5.441883563995361
0, 0, 125, 2.8372802734375
0, 0, 126, 3.455994606018066
0, 0, 127, 2.413505554199219
0, 1, 0, 7.647081851959229
0, 1, 1, 4.118956565856934
0, 1, 2, 4.541663646697998
0, 1, 3, 2.414698839187622
0, 1, 4, 4.11629056930542
0, 1, 5, 4.01732063293457
0, 1, 6, 4.107179641723633
0, 1, 7, 9.084457397460938
0, 1, 8, 8.413813591003418
0, 1, 9, 4.03330659866333
0, 1, 10, 5.917122364044189
0, 1, 11, 11.94866466522217
0, 1, 12, 9.189987182617188
0, 1, 13, 8.632384300231934
0, 1, 14, 7.973446846008301
0, 1, 15, 8.019622802734375
0, 1, 16, 11.73704814910889
0, 1, 17, 12.05992603302002
0, 1, 18, 19.76860809326172
0, 1, 19, 64.83546447753906
0, 1, 20, 201.6959075927734
0, 1, 21, 255.5227203369141
0, 1, 22, 295.0732727050781
0, 1, 23, 283.3261108398438
0, 1, 24, 276.7254943847656
0, 1, 25, 286.2645263671875
0, 1, 26, 268.107666015625
0, 1, 27, 306.2860717773438
0, 1, 28, 299.9041748046875
0, 1, 29, 295.5251159667969
0, 1, 30, 279.2820739746094
0, 1, 31, 291.541748046875
0, 1, 32, 290.3146057128906
0, 1, 33, 295.9184875488281
0, 1, 34, 291.0090026855469
0, 1, 35, 280.4137878417969
0, 1, 36, 308.3719482421875
0, 1, 37, 297.8433532714844
0, 1, 38, 281.4696350097656
0, 1, 39, 296.1926574707031
0, 1, 40, 265.067138671875
0, 1, 41, 286.48828125
0, 1, 42, 290.1836547851562
0, 1, 43, 332.6317749023438
0, 1, 44, 279.4789733886719
0, 1, 45, 291.5330505371094
0, 1, 46, 259.3452453613281
0, 1, 47, 309.730224609375
0, 1, 48, 284.9659729003906
0, 1, 49, 302.4975891113281
0, 1, 50, 264.6564636230469
0, 1, 51, 273.2554626464844
0, 1, 52, 296.4193725585938
0, 1, 53, 304.6629028320312
0, 1, 54, 276.029541015625
0, 1, 55, 292.8748474121094
0, 1, 56, 275.91552734375
0, 1, 57, 297.883544921875
0, 1, 58, 310.2567138671875
0, 1, 59, 291.7008972167969
0, 1, 60, 297.1792602539062
0, 1, 61, 274.1685485839844
0, 1, 62, 311.4853210449219
0, 1, 63, 284.1097412109375
0, 1, 64, 289.4395141601562
0, 1, 65, 294.3501892089844
0, 1, 66, 292.2338562011719
0, 1, 67, 292.829833984375
0, 1, 68, 277.4741516113281
0, 1, 69, 279.3314208984375
0, 1, 70, 269.4705200195312
0, 1, 71, 276.3045043945312
0, 1, 72, 286.3616333007812
0, 1, 73, 305.651611328125
0, 1, 74, 308.0413818359375
0, 1, 75, 294.639404296875
0, 1, 76, 287.2330932617188
0, 1, 77, 294.03173828125
0, 1, 78, 297.3882446289062
0, 1, 79, 301.2255249023438
0, 1, 80, 297.7738342285156
0, 1, 81, 300.8785400390625
0, 1, 82, 285.3413696289062
0, 1, 83, 330.4650573730469
0, 1, 84, 310.1540832519531
0, 1, 85, 251.0968933105469
0, 1, 86, 293.3048400878906
0, 1, 87, 292.6308288574219
0, 1, 88, 298.1278381347656
0, 1, 89, 290.9197998046875
0, 1, 90, 269.3560180664062
0, 1, 91, 316.4801330566406
0, 1, 92, 291.9489135742188
0, 1, 93, 286.0064697265625
0, 1, 94, 304.4287414550781
0, 1, 95, 284.9738464355469
0, 1, 96, 283.671142578125
0, 1, 97, 300.2932434082031
0, 1, 98, 277.8736877441406
0, 1, 99, 266.0521545410156
0, 1, 100, 278.4696044921875
0, 1, 101, 281.7773742675781
0, 1, 102, 276.9658203125
0, 1, 103, 281.876708984375
0, 1, 104, 306.1517639160156
0, 1, 105, 298.1033630371094
0, 1, 106, 261.3959655761719
0, 1, 107, 190.9228668212891
0, 1, 108, 80.34469604492188
0, 1, 109, 23.3061351776123
0, 1, 110, 11.90070056915283
0, 1, 111, 8.467376708984375
0, 1, 112, 13.92125415802002
0, 1, 113, 6.253567218780518
0, 1, 114, 6.96923828125
0, 1, 115, 6.659375190734863
0, 1, 116, 17.15541076660156
0, 1, 117, 7.937211990356445
0, 1, 118, 4.227519512176514
0, 1, 119, 5.961307525634766
0, 1, 120, 8.013522148132324
0, 1, 121, 2.622168302536011
0, 1, 122, 4.168076992034912
0, 1, 123, 4.35618257522583
0, 1, 124, 10.74532318115234
0, 1, 125, 6.158896446228027
0, 1, 126, 5.226509094238281
0, 1, 127, 2.783980131149292
0, 2, 0, 5.200826644897461
0, 2, 1, 2.0936439037323
0, 2, 2, 2.698760509490967
0, 2, 3, 3.998303651809692
0, 2, 4, 3.110791444778442
0, 2, 5, 1.375332236289978
0, 2, 6, 1.900695443153381
0, 2, 7, 4.166254997253418
0, 2, 8, 5.595210075378418
0, 2, 9, 6.30449914932251
0, 2, 10, 6.862974166870117
0, 2, 11, 6.349776744842529
0, 2, 12, 7.561567306518555
0, 2, 13, 11.98368644714355
0, 2, 14, 9.749655723571777
0, 2, 15, 7.434415340423584
0, 2, 16, 9.040216445922852
0, 2, 17, 18.14033508300781
0, 2, 18, 32.84647750854492
0, 2, 19, 115.8744277954102
0, 2, 20, 245.0493927001953
0, 2, 21, 272.2203674316406
0, 2, 22, 316.1162109375
0, 2, 23, 300.0410461425781
0, 2, 24, 285.4369201660156
0, 2, 25, 301.3885803222656
0, 2, 26, 291.4700622558594
0, 2, 27, 275.3955688476562
0, 2, 28, 271.9425354003906
0, 2, 29, 276.0370483398438
0, 2, 30, 288.3944396972656
0, 2, 31, 278.8773803710938
0, 2, 32, 294.0198974609375
0, 2, 33, 282.1771850585938
0, 2, 34, 333.1195373535156
0, 2, 35, 290.1206970214844
0, 2, 36, 303.6046752929688
0, 2, 37, 317.1423645019531
0, 2, 38, 312.9137573242188
0, 2, 39, 265.4176940917969
0, 2, 40, 305.6719665527344
0, 2, 41, 292.6482849121094
0, 2, 42, 305.5326538085938
0, 2, 43, 310.1298217773438
0, 2, 44, 309.34375
0, 2, 45, 326.3435974121094
0, 2, 46, 293.2447204589844
0, 2, 47, 302.2861022949219
0, 2, 48, 284.8495788574219
0, 2, 49, 280.7230529785156
0, 2, 50, 295.929443359375
0, 2, 51, 284.58837890625
0, 2, 52, 273.2705993652344
0, 2, 53, 289.2061767578125
0, 2, 54, 280.5486145019531
0, 2, 55, 274.5594177246094
0, 2, 56, 302.6925964355469
0, 2, 57, 292.6891174316406
0, 2, 58, 301.9149475097656
0, 2, 59, 290.1394348144531
0, 2, 60, 318.4503173828125
0, 2, 61, 301.6638793945312
0, 2, 62, 315.8910827636719
0, 2, 63, 301.6803894042969
0, 2, 64, 299.9057922363281
0, 2, 65, 312.8578796386719
0, 2, 66, 278.8140258789062
0, 2, 67, 291.4643859863281
0, 2, 68, 295.7131042480469
0, 2, 69, 311.3844299316406
0, 2, 70, 333.7353515625
0, 2, 71, 283.0278015136719
0, 2, 72, 300.9295959472656
0, 2, 73, 310.1181640625
0, 2, 74, 286.8570861816406
0, 2, 75, 304.8936157226562
0, 2, 76, 286.0142517089844
0, 2, 77, 297.6440124511719
0, 2, 78, 317.7503662109375
0, 2, 79, 307.3077087402344
0, 2, 80, 296.9933776855469
0, 2, 81, 282.3583679199219
0, 2, 82, 317.0089721679688
0, 2, 83, 315.92431640625
0, 2, 84, 289.6734313964844
0, 2, 85, 283.9197387695312
0, 2, 86, 325.0556335449219
0, 2, 87, 286.4938659667969
0, 2, 88, 281.2058715820312
0, 2, 89, 296.4283142089844
0, 2, 90, 294.9410095214844
0, 2, 91, 275.7997131347656
0, 2, 92, 305.3037414550781
0, 2, 93, 315.86767578125
0, 2, 94, 289.9872131347656
0, 2, 95, 315.3235473632812
0, 2, 96, 314.6924133300781
0, 2, 97, 290.9215698242188
0, 2, 98, 294.502685546875
0, 2, 99, 273.4046325683594
0, 2, 100, 305.6124877929688
0, 2, 101, 300.7481384277344
0, 2, 102, 296.814697265625
0, 2, 103, 292.1315612792969
0, 2, 104, 293.1480407714844
0, 2, 105, 273.9707641601562
0, 2, 106, 297.7429809570312
0, 2, 107, 270.6222229003906
0, 2, 108, 116.7524032592773
0, 2, 109, 32.30029296875
0, 2, 110, 10.11926174163818
0, 2, 111, 11.09304618835449
0, 2, 112, 7.353532314300537
0, 2, 113, 9.958763122558594
0, 2, 114, 10.91535663604736
0, 2, 115, 8.555268287658691
0, 2, 116, 8.909624099731445
0, 2, 117, 8.031242370605469
0, 2, 118, 2.481482744216919
0, 2, 119, 3.575825929641724
0, 2, 120, 6.424445152282715
0, 2, 121, 3.173779487609863
0, 2, 122, 3.149410009384155
0, 2, 123, 3.47942042350769
0, 2, 124, 2.558375120162964
0, 2, 125, 4.467789649963379
0, 2, 126, 5.311483383178711
0, 2, 127, 4.831113338470459
0, 3, 0, 4.539951324462891
0, 3, 1, 4.187763690948486
0, 3, 2, 2.664766311645508
0, 3, 3, 1.753044366836548
0, 3, 4, 3.162272930145264
0, 3, 5, 7.995108127593994
0, 3, 6, 6.513663768768311
0, 3, 7, 5.77758264541626
0, 3, 8, 7.156354427337646
0, 3, 9, 7.710041046142578
0, 3, 10, 6.843124389648438
0, 3, 11, 3.865380048751831
0, 3, 12, 6.755497455596924
0, 3, 13, 15.00996017456055
0, 3, 14, 12.77729225158691
0, 3, 15, 14.52797698974609
0, 3, 16, 11.64878845214844
0, 3, 17, 20.32003211975098
0, 3, 18, 50.5436897277832
0, 3, 19, 177.6215667724609
0, 3, 20, 271.3699951171875
0, 3, 21, 269.3714599609375
0, 3, 22, 281.0479431152344
0, 3, 23, 285.9105529785156
0, 3, 24, 285.7276611328125
0, 3, 25, 269.9752197265625
0, 3, 26, 303.6123046875
0, 3, 27, 293.1111450195312
0, 3, 28, 279.7608337402344
0, 3, 29, 336.3706665039062
0, 3, 30, 317.6275024414062
0, 3, 31, 286.1751708984375
0, 3, 32, 306.1625366210938
0, 3, 33, 314.9200744628906
0, 3, 34, 326.4702758789062
0, 3, 35, 309.2282409667969
0, 3, 36, 268.5474243164062
0, 3, 37, 313.7969970703125
0, 3, 38, 306.8443298339844
0, 3, 39, 289.6376037597656
0, 3, 40, 265.3245544433594
0, 3, 41, 301.6535339355469
0, 3, 42, 287.3646850585938
0, 3, 43, 304.9782104492188
0, 3, 44, 311.9088439941406
0, 3, 45, 289.7296447753906
0, 3, 46, 330.8237915039062
0, 3, 47, 299.369140625
0, 3, 48, 303.039306640625
0, 3, 49, 276.9774169921875
0, 3, 50, 289.9681091308594
0, 3, 51, 276.1121826171875
0, 3, 52, 314.3352966308594
0, 3, 53, 288.2994079589844
0, 3, 54, 285.3999938964844
0, 3, 55, 283.3566284179688
0, 3, 56, 299.8296203613281
0, 3, 57, 289.2132873535156
0, 3, 58, 309.2291259765625
0, 3, 59, 294.9017944335938
0, 3, 60, 298.3447875976562
0, 3, 61, 265.3139343261719
0, 3, 62, 284.6756896972656
0, 3, 63, 305.9345703125
0, 3, 64, 316.8676452636719
0, 3, 65, 307.6702270507812
0, 3, 66, 314.53125
0, 3, 67, 318.6569213867188
0, 3, 68, 279.989013671875
0, 3, 69, 283.1419372558594
0, 3, 70, 290.060546875
0, 3, 71, 296.7825317382812
0, 3, 72, 269.2338256835938
0, 3, 73, 308.3219299316406
0, 3, 74, 291.257080078125
0, 3, 75, 288.5671997070312
0, 3, 76, 305.8737182617188
0, 3, 77, 312.6990356445312
0, 3, 78, 303.0266418457031
0, 3, 79, 283.7617797851562
0, 3, 80, 290.9324340820312
0, 3, 81, 308.2935791015625
0, 3, 82, 314.9440612792969
0, 3, 83, 301.7087707519531
0, 3, 84, 311.3522338867188
0, 3, 85, 291.2673950195312
0, 3, 86, 301.4891967773438
0, 3, 87, 296.9227294921875
0, 3, 88, 298.4175109863281
0, 3, 89, 296.4354248046875
0, 3, 90, 275.2023620605469
0, 3, 91, 283.1475830078125
0, 3, 92, 304.2048645019531
0, 3, 93, 314.1011047363281
0, 3, 94, 298.6387329101562
0, 3, 95, 335.4448852539062
0, 3, 96, 290.7878723144531
0, 3, 97, 285.4311828613281
0, 3, 98, 277.9388732910156
0, 3, 99, 262.2159423828125
0, 3, 100, 285.3186950683594
0, 3, 101, 297.9969177246094
0, 3, 102, 273.522216796875
0, 3, 103, 320.3948364257812
0, 3, 104, 308.220458984375
0, 3, 105, 289.4889526367188
0, 3, 106, 301.520751953125
0, 3, 107, 281.5494995117188
0, 3, 108, 166.2886962890625
0, 3, 109, 58.75765609741211
0, 3, 110, 19.83190727233887
0, 3, 111, 12.75399208068848
0, 3, 112, 13.12752342224121
0, 3, 113, 6.455648422241211
0, 3, 114, 10.6366605758667
0, 3, 115, 10.15848636627197
0, 3, 116, 6.538445949554443
0, 3, 117, 6.147400856018066
0, 3, 118, 6.333045959472656
0, 3, 119, 5.763386726379395
0, 3, 120, 8.086604118347168
0, 3, 121, 2.413769483566284
0, 3, 122, 2.176786422729492
0, 3, 123, 6.151823043823242
0, 3, 124, 1.980996012687683
0, 3, 125, 6.939573287963867
0, 3, 126, 5.495927810668945
0, 3, 127, 3.263365507125854
0, 4, 0, 2.91232967376709
0, 4, 1, 4.271344184875488
0, 4, 2, 2.467165946960449
0, 4, 3, 1.995026588439941
0, 4, 4, 5.668549060821533
0, 4, 5, 8.499921798706055
0, 4, 6, 7.301167011260986
0, 4, 7, 4.075461864471436
0, 4, 8, 5.871120929718018
0, 4, 9, 7.372738361358643
0, 4, 10, 9.004257202148438
0, 4, 11, 6.704358100891113
0, 4, 12, 8.974266052246094
0, 4, 13, 8.221759796142578
0, 4, 14, 11.15732955932617
0, 4, 15, 10.36085510253906
0, 4, 16, 13.35996437072754
0, 4, 17, 17.9264965057373
0, 4, 18, 93.23355102539062
0, 4, 19, 223.4350280761719
0, 4, 20, 282.5020751953125
0, 4, 21, 273.6688842773438
0, 4, 22, 305.3659973144531
0, 4, 23, 265.5121459960938
0, 4, 24, 288.4057006835938
0, 4, 25, 273.5394287109375
0, 4, 26, 294.8513488769531
0, 4, 27, 283.0736389160156
0, 4, 28, 306.5490112304688
0, 4, 29, 323.0875549316406
0, 4, 30, 310.17578125
0, 4, 31, 305.0398254394531
0, 4, 32, 283.2889709472656
0, 4, 33, 295.3096923828125
0, 4, 34, 296.6484069824219
0, 4, 35, 312.9325256347656
0, 4, 36, 294.5820007324219
0, 4, 37, 287.1220703125
0, 4, 38, 297.9595947265625
0, 4, 39, 294.0491333007812
0, 4, 40, 300.9994201660156
0, 4, 41, 312.1236877441406
0, 4, 42, 329.4271850585938
0, 4, 43, 296.3950500488281
0, 4, 44, 319.6810607910156
0, 4, 45, 326.5576171875
0, 4, 46, 304.7440490722656
0, 4, 47, 293.3610229492188
0, 4, 48, 295.3898620605469
0, 4, 49, 279.3428039550781
0, 4, 50, 296.8171691894531
0, 4, 51, 316.2206115722656
0, 4, 52, 326.7655334472656
0, 4, 53, 304.1904907226562
0, 4, 54, 288.2975463867188
0, 4, 55, 315.4701232910156
0, 4, 56, 286.5477600097656
0, 4, 57, 309.929931640625
0, 4, 58, 296.7966613769531
0, 4, 59, 307.1762084960938
0, 4, 60, 301.2841186523438
0, 4, 61, 314.7799682617188
0, 4, 62, 307.7438659667969
0, 4, 63, 300.5167846679688
0, 4, 64, 328.297607421875
0, 4, 65, 315.542236328125
0, 4, 66, 294.5666198730469
0, 4, 67, 284.2294921875
0, 4, 68, 313.30419921875
0, 4, 69, 275.6557922363281
0, 4, 70, 301.2226257324219
0, 4, 71, 320.2385864257812
0, 4, 72, 332.9196472167969
0, 4, 73, 298.7232360839844
0, 4, 74, 294.3338012695312
0, 4, 75, 288.02490234375
0, 4, 76, 276.0414428710938
0, 4, 77, 279.8917236328125
0, 4, 78, 309.1561279296875
0, 4, 79, 319.4345092773438
0, 4, 80, 316.5545959472656
0, 4, 81, 314.0155334472656
0, 4, 82, 297.3503723144531
0, 4, 83, 299.19580078125
0, 4, 84, 292.6672058105469
0, 4, 85, 294.4102783203125
0, 4, 86, 300.3370056152344
0, 4, 87, 287.1620788574219
0, 4, 88, 305.2275695800781
0, 4, 89, 296.2496337890625
0, 4, 90, 331.5626220703125
0, 4, 91, 300.7724304199219
0, 4, 92, 290.8976135253906
0, 4, 93, 297.734375
0, 4, 94, 292.181640625
0, 4, 95, 289.0814819335938
0, 4, 96, 322.1708679199219
0, 4, 97, 275.326904296875
0, 4, 98, 326.1590576171875
0, 4, 99, 314.3866577148438
0, 4, 100, 301.7152099609375
0, 4, 101, 257.015625
0, 4, 102, 296.4170532226562
0, 4, 103, 317.4072570800781
0, 4, 104, 282.5101013183594
0, 4, 105, 310.6135864257812
0, 4, 106, 287.173583984375
0, 4, 107, 293.2231750488281
0, 4, 108, 226.3405151367188
0, 4, 109, 81.40511322021484
0, 4, 110, 17.09144973754883
0, 4, 111, 14.06481266021729
0, 4, 112, 10.80293369293213
0, 4, 113, 9.236570358276367
0, 4, 114, 8.027148246765137
0, 4, 115, 8.47364330291748
0, 4, 116, 9.190916061401367
0, 4, 117, 7.423053741455078
0, 4, 118, 8.82257080078125
0, 4, 119, 15.04919719696045
0, 4, 120, 9.240079879760742
0, 4, 121, 5.533468723297119
0, 4, 122, 3.78261137008667
0, 4, 123, 8.99752140045166
0, 4, 124, 5.90512752532959
0, 4, 125, 9.444442749023438
0, 4, 126, 4.347541332244873
0, 4, 127, 2.949244976043701
0, 5, 0, 3.580970048904419
0, 5, 1, 3.794313430786133
0, 5, 2, 4.351780891418457
0, 5, 3, 3.833675622940063
0, 5, 4, 6.222913265228271
0, 5, 5, 5.79624080657959
0, 5, 6, 12.77542209625244
0, 5, 7, 4.276830673217773
0, 5, 8, 8.04885196685791
0, 5, 9, 4.917158126831055
0, 5, 10, 4.892056941986084
0, 5, 11, 7.414505481719971
0, 5, 12, 9.49754810333252
0, 5, 13, 7.071846485137939
0, 5, 14, 10.8504056930542
0, 5, 15, 18.19952392578125
0, 5, 16, 13.20804500579834
0, 5, 17, 30.89858818054199
0, 5, 18, 139.2989959716797
0, 5, 19, 288.2888488769531
0, 5, 20, 307.337646484375
0, 5, 21, 315.5182495117188
0, 5, 22, 274.6747741699219
0, 5, 23, 312.9839782714844
0, 5, 24, 302.6417541503906
0, 5, 25, 288.2705993652344
0, 5, 26, 295.3021240234375
0, 5, 27, 323.1471862792969
0, 5, 28, 302.56298828125
0, 5, 29, 296.9566650390625
0, 5, 30, 323.8899230957031
0, 5, 31, 289.2200317382812
0, 5, 32, 302.72900390625
0, 5, 33, 303.1410217285156
0, 5, 34, 295.9326782226562
0, 5, 35, 309.0043334960938
0, 5, 36, 268.0300598144531
0, 5, 37, 282.1343383789062
0, 5, 38, 291.9240112304688
0, 5, 39, 310.8020324707031
0, 5, 40, 309.9229125976562
0, 5, 41, 274.1314086914062
0, 5, 42, 305.5177001953125
0, 5, 43, 313.4432373046875
0, 5, 44, 292.5973510742188
0, 5, 45, 302.3883666992188
0, 5, 46, 264.1377868652344
0, 5, 47, 282.5439453125
0, 5, 48, 293.6994323730469
0, 5, 49, 284.6448059082031
0, 5, 50, 296.0062561035156
0, 5, 51, 281.67626953125
0, 5, 52, 269.1188659667969
0, 5, 53, 284.5178833007812
0, 5, 54, 291.2586669921875
0, 5, 55, 345.9523010253906
0, 5, 56, 306.7477416992188
0, 5, 57, 305.6014099121094
0, 5, 58, 310.9012145996094
0, 5, 59, 302.3291015625
0, 5, 60, 306.3553161621094
0, 5, 61, 281.5406188964844
0, 5, 62, 324.1316223144531
0, 5, 63, 290.1215515136719
0, 5, 64, 321.8160705566406
0, 5, 65, 309.5984802246094
0, 5, 66, 327.4567565917969
0, 5, 67, 311.8695068359375
0, 5, 68, 308.1772766113281
0, 5, 69, 310.1065673828125
0, 5, 70, 299.8994750976562
0, 5, 71, 272.4302368164062
0, 5, 72, 311.6943969726562
0, 5, 73, 302.5616149902344
0, 5, 74, 297.1561584472656
0, 5, 75, 294.1856994628906
0, 5, 76, 285.8970642089844
0, 5, 77, 297.7474975585938
0, 5, 78, 315.4201354980469
0, 5, 79, 307.3874816894531
0, 5, 80, 294.1355895996094
0, 5, 81, 327.3982849121094
0, 5, 82, 323.209716796875
0, 5, 83, 282.1577453613281
0, 5, 84, 300.7887573242188
0, 5, 85, 271.8801574707031
0, 5, 86, 326.0640563964844
0, 5, 87, 283.4471130371094
0, 5, 88, 315.7115173339844
0, 5, 89, 305.4057312011719
0, 5, 90, 316.0805358886719
0, 5, 91, 314.4410095214844
0, 5, 92, 295.7476501464844
0, 5, 93, 324.9010314941406
0, 5, 94, 307.5929260253906
0, 5, 95, 295.1211547851562
0, 5, 96, 296.7175903320312
0, 5, 97, 296.4265441894531
0, 5, 98, 319.8932800292969
0, 5, 99, 303.0823669433594
0, 5, 100, 292.4099731445312
0, 5, 101, 305.5440368652344
0, 5, 102, 294.5522155761719
0, 5, 103, 312.106689453125
0, 5, 104, 302.8971862792969
0, 5, 105, 292.1952819824219
0, 5, 106, 282.6432495117188
0, 5, 107, 293.7063903808594
0, 5, 108, 264.6681823730469
0, 5, 109, 156.1356201171875
0, 5, 110, 42.03763580322266
0, 5, 111, 21.84406661987305
0, 5, 112, 14.90591144561768
0, 5, 113, 15.34027671813965
0, 5, 114, 12.20043659210205
0, 5, 115, 9.017900466918945
0, 5, 116, 9.292905807495117
0, 5, 117, 6.690998554229736
0, 5, 118, 12.84409236907959
0, 5, 119, 8.169836044311523
0, 5, 120, 6.535819053649902
0, 5, 121, 8.717828750610352
0, 5, 122, 5.512862205505371
0, 5, 123, 6.988543033599854
0, 5, 124, 4.776134490966797
0, 5, 125, 3.658267259597778
0, 5, 126, 7.092199802398682
0, 5, 127, 3.339278221130371
0, 6, 0, 5.666838645935059
0, 6, 1, 3.722039699554443
0, 6, 2, 6.77849006652832
0, 6, 3, 9.566276550292969
0, 6, 4, 2.858165979385376
0, 6, 5, 5.3066086769104
0, 6, 6, 8.441531181335449
0, 6, 7, 4.272066116333008
0, 6, 8, 7.215879917144775
0, 6, 9, 6.294850826263428
0, 6, 10, 7.540789127349854
0, 6, 11, 7.016350746154785
0, 6, 12, 8.251828193664551
0, 6, 13, 13.08199119567871
0, 6, 14, 10.65225219726562
0, 6, 15, 16.95501518249512
0, 6, 16, 30.78986358642578
0, 6, 17, 53.68678283691406
0, 6, 18, 172.0889434814453
0, 6, 19, 276.9129028320312
0, 6, 20, 290.4239196777344
0, 6, 21, 317.4155578613281
0, 6, 22, 319.2887878417969
0, 6, 23, 306.2726745605469
0, 6, 24, 316.8516235351562
0, 6, 25, 316.424560546875
0, 6, 26, 320.0340881347656
0, 6, 27, 330.10302734375
0, 6, 28, 295.3613891601562
0, 6, 29, 330.3849487304688
0, 6, 30, 282.7874145507812
0, 6, 31, 286.8333740234375
0, 6, 32, 341.1313171386719
0, 6, 33, 298.4886169433594
0, 6, 34, 341.8756103515625
0, 6, 35, 320.4374389648438
0, 6, 36, 274.5576477050781
0, 6, 37, 287.9971618652344
0, 6, 38, 311.7568664550781
0, 6, 39, 299.4180603027344
0, 6, 40, 283.6504516601562
0, 6, 41, 297.2615051269531
0, 6, 42, 303.117431640625
0, 6, 43, 290.060546875
0, 6, 44, 281.3175354003906
0, 6, 45, 319.2018127441406
0, 6, 46, 300.8876953125
0, 6, 47, 334.8957214355469
0, 6, 48, 294.281494140625
0, 6, 49, 310.5075378417969
0, 6, 50, 327.5692443847656
0, 6, 51, 310.4393310546875
0, 6, 52, 320.501953125
0, 6, 53, 326.5792541503906
0, 6, 54, 303.4246826171875
0, 6, 55, 304.197021484375
0, 6, 56, 295.9288024902344
0, 6, 57, 311.9706420898438
0, 6, 58, 260.7864990234375
0, 6, 59, 302.3126525878906
0, 6, 60, 314.1661987304688
0, 6, 61, 271.5851745605469
0, 6, 62, 334.2322387695312
0, 6, 63, 323.8939208984375
0, 6, 64, 292.438720703125
0, 6, 65, 283.9835815429688
0, 6, 66, 302.6858520507812
0, 6, 67, 309.6609497070312
0, 6, 68, 293.7710571289062
0, 6, 69, 280.6448974609375
0, 6, 70, 276.6307373046875
0, 6, 71, 292.8891296386719
0, 6, 72, 310.4155883789062
0, 6, 73, 290.2287902832031
0, 6, 74, 329.6646118164062
0, 6, 75, 343.9571228027344
0, 6, 76, 297.9632568359375
0, 6, 77, 285.4750061035156
0, 6, 78, 282.1572265625
0, 6, 79, 293.1343994140625
0, 6, 80, 298.2798461914062
0, 6, 81, 315.5367126464844
0, 6, 82, 320.2798461914062
0, 6, 83, 319.4054565429688
0, 6, 84, 295.6920776367188
0, 6, 85, 302.4718017578125
0, 6, 86, 330.5440063476562
0, 6, 87, 294.0109558105469
0, 6, 88, 308.6717834472656
0, 6, 89, 306.7785339355469
0, 6, 90, 300.5904541015625
0, 6, 91, 313.9258728027344
0, 6, 92, 284.7068786621094
0, 6, 93, 297.062744140625
0, 6, 94, 275.4048461914062
0, 6, 95, 300.2640991210938
0, 6, 96, 347.2290954589844
0, 6, 97, 308.2626953125
0, 6, 98, 300.5345458984375
0, 6, 99, 273.0769653320312
0, 6, 100, 313.0418395996094
0, 6, 101, 294.0719299316406
0, 6, 102, 306.03857421875
0, 6, 103, 307.7079467773438
0, 6, 104, 291.981689453125
0, 6, 105, 301.6387939453125
0, 6, 106, 307.33837890625
0, 6, 107, 304.3614501953125
0, 6, 108, 266.8860778808594
0, 6, 109, 184.7195892333984
0, 6, 110, 53.70229721069336
0, 6, 111, 21.15998458862305
0, 6, 112, 12.96513366699219
0, 6, 113, 9.89089298248291
0, 6, 114, 11.95719337463379
0, 6, 115, 10.92226791381836
0, 6, 116, 9.510226249694824
0, 6, 117, 5.937726020812988
0, 6, 118, 7.993015289306641
0, 6, 119, 7.740464210510254
0, 6, 120, 5.430837154388428
0, 6, 121, 6.23341703414917
0, 6, 122, 9.400707244873047
0, 6, 123, 5.466621398925781
0, 6, 124, 7.923726558685303
0, 6, 125, 10.25986099243164
0, 6, 126, 4.20692253112793
0, 6, 127, 7.428952693939209
0, 7, 0, 5.739686489105225
0, 7, 1, 5.509631633758545
0, 7, 2, 4.70487642288208
0, 7, 3, 3.54766321182251
0, 7, 4, 5.90153980255127
0, 7, 5, 5.288076877593994
0, 7, 6, 7.700527667999268
0, 7, 7, 4.100762844085693
0, 7, 8, 6.094637870788574
0, 7, 9, 5.960026741027832
0, 7, 10, 10.62933254241943
0, 7, 11, 10.34226512908936
0, 7, 12, 7.776431083679199
0, 7, 13, 10.66672039031982
0, 7, 14, 12.1920690536499
0, 7, 15, 16.1250114440918
0, 7, 16, 26.02921104431152
0, 7, 17, 97.62844848632812
0, 7, 18, 218.76171875
0, 7, 19, 290.6150817871094
0, 7, 20, 296.3420715332031
0, 7, 21, 278.0989379882812
0, 7, 22, 298.8761901855469
0, 7, 23, 289.3052978515625
0, 7, 24, 312.330810546875
0, 7, 25, 328.52734375
0, 7, 26, 276.7564392089844
0, 7, 27, 297.6239929199219
0, 7, 28, 329.2557067871094
0, 7, 29, 318.1265869140625
0, 7, 30, 303.6219482421875
0, 7, 31, 281.4221496582031
0, 7, 32, 303.7009887695312
0, 7, 33, 263.6170654296875
0, 7, 34, 297.3316955566406
0, 7, 35, 323.2084350585938
0, 7, 36, 332.4957885742188
0, 7, 37, 324.6162719726562
0, 7, 38, 294.86328125
0, 7, 39, 305.9451599121094
0, 7, 40, 288.42138671875
0, 7, 41, 270.2435607910156
0, 7, 42, 301.5258483886719
0, 7, 43, 274.0165710449219
0, 7, 44, 303.7646789550781
0, 7, 45, 296.5687561035156
0, 7, 46, 282.5381469726562
0, 7, 47, 329.1820068359375
0, 7, 48, 284.0350036621094
0, 7, 49, 301.2792663574219
0, 7, 50, 321.7028198242188
0, 7, 51, 298.5668334960938
0, 7, 52, 326.5005187988281
0, 7, 53, 312.1010131835938
0, 7, 54, 325.6918029785156
0, 7, 55, 307.9641418457031
0, 7, 56, 278.8190612792969
0, 7, 57, 281.6539916992188
0, 7, 58, 294.4114685058594
0, 7, 59, 292.476806640625
0, 7, 60, 324.119384765625
0, 7, 61, 278.739501953125
0, 7, 62, 296.6796569824219
0, 7, 63, 293.901123046875
0, 7, 64, 306.2037963867188
0, 7, 65, 331.0521545410156
0, 7, 66, 319.8159790039062
0, 7, 67, 302.4440612792969
0, 7, 68, 284.3619689941406
0, 7, 69, 292.8887329101562
0, 7, 70, 300.7528686523438
0, 7, 71, 309.1027221679688
0, 7, 72, 287.1978759765625
0, 7, 73, 296.4838256835938
0, 7, 74, 344.3026428222656
0, 7, 75, 320.9936218261719
0, 7, 76, 322.8807067871094
0, 7, 77, 279.7714538574219
0, 7, 78, 299.5190124511719
0, 7, 79, 296.7774047851562
0, 7, 80, 313.7093811035156
0, 7, 81, 319.4133911132812
0, 7, 82, 328.7137145996094
0, 7, 83, 318.4097595214844
0, 7, 84, 311.46630859375
0, 7, 85, 273.156982421875
0, 7, 86, 312.196044921875
0, 7, 87, 313.9080810546875
0, 7, 88, 306.6851196289062
0, 7, 89, 294.1778869628906
0, 7, 90, 305.4913635253906
0, 7, 91, 318.9769897460938
0, 7, 92, 286.6056823730469
0, 7, 93, 308.4206237792969
0, 7, 94, 274.7011413574219
0, 7, 95, 297.7758483886719
0, 7, 96, 331.8447265625
0, 7, 97, 295.9573059082031
0, 7, 98, 291.5658264160156
0, 7, 99, 314.6045837402344
0, 7, 100, 285.9581604003906
0, 7, 101, 274.5692138671875
0, 7, 102, 290.7005615234375
0, 7, 103, 294.4135437011719
0, 7, 104, 274.41552734375
0, 7, 105, 304.9509887695312
0, 7, 106, 317.198974609375
0, 7, 107, 297.985107421875
0, 7, 108, 273.7254638671875
0, 7, 109, 241.2372894287109
0, 7, 110, 97.44377136230469
0, 7, 111, 24.67696762084961
0, 7, 112, 12.82021617889404
0, 7, 113, 14.03913497924805
0, 7, 114, 11.54921436309814
0, 7, 115, 11.13364887237549
0, 7, 116, 9.939888954162598
0, 7, 117, 10.98968410491943
0, 7, 118, 7.925090312957764
0, 7, 119, 3.632003307342529
0, 7, 120, 5.802743434906006
0, 7, 121, 6.707569599151611
0, 7, 122, 6.072283744812012
0, 7, 123, 5.855089664459229
0, 7, 124, 3.81762433052063
0, 7, 125, 7.332422256469727
0, 7, 126, 7.566648006439209
0, 7, 127, 2.153585433959961
0, 8, 0, 4.961630344390869
0, 8, 1, 3.814598321914673
0, 8, 2, 4.106179237365723
0, 8, 3, 2.103771209716797
0, 8, 4, 4.197352886199951
0, 8, 5, 4.52736234664917
0, 8, 6, 5.912740707397461
0, 8, 7, 5.258020401000977
0, 8, 8, 6.954339504241943
0, 8, 9, 4.684543609619141
0, 8, 10, 6.284470558166504
0, 8, 11, 11.26610851287842
0, 8, 12, 13.30966281890869
0, 8, 13, 18.11600494384766
0, 8, 14, 13.87604522705078
0, 8, 15, 18.69865226745605
0, 8, 16, 33.29055023193359
0, 8, 17, 130.4809112548828
0, 8, 18, 243.6822662353516
0, 8, 19, 295.0520935058594
0, 8, 20, 286.2792053222656
0, 8, 21, 307.7615661621094
0, 8, 22, 294.7144165039062
0, 8, 23, 273.5835266113281
0, 8, 24, 268.5823974609375
0, 8, 25, 275.6676025390625
0, 8, 26, 306.9849853515625
0, 8, 27, 308.7881164550781
0, 8, 28, 304.9871520996094
0, 8, 29, 319.8825988769531
0, 8, 30, 315.6325988769531
0, 8, 31, 303.9456787109375
0, 8, 32, 280.0763854980469
0, 8, 33, 292.9329833984375
0, 8, 34, 289.0981140136719
0, 8, 35, 281.2438049316406
0, 8, 36, 314.9882202148438
0, 8, 37, 341.215087890625
0, 8, 38, 331.6539611816406
0, 8, 39, 281.5643920898438
0, 8, 40, 304.8044738769531
0, 8, 41, 290.676025390625
0, 8, 42, 326.8547973632812
