# TOPAS Version: 3.1.p3
# Parameter File: batch_inserts_28.txt
# Results for scorer Readout_Adipose
# Scored in component: MyBox
# X in 1 bin  of 0.75 cm
# Y in 512 bins of 0.0783984 cm
# Z in 128 bins of 0.078125 cm
# EnergyDeposit ( MeV ) : Sum   
0, 0, 0, 3.485531806945801
0, 0, 1, 1.490780591964722
0, 0, 2, 4.217487335205078
0, 0, 3, 2.229962348937988
0, 0, 4, 4.570740222930908
0, 0, 5, 2.04243803024292
0, 0, 6, 6.096455574035645
0, 0, 7, 14.1888427734375
0, 0, 8, 3.015666723251343
0, 0, 9, 4.108641147613525
0, 0, 10, 6.111283302307129
0, 0, 11, 3.87748646736145
0, 0, 12, 5.773607730865479
0, 0, 13, 6.144714832305908
0, 0, 14, 7.336240291595459
0, 0, 15, 10.37638568878174
0, 0, 16, 8.003557205200195
0, 0, 17, 10.11185741424561
0, 0, 18, 15.44272518157959
0, 0, 19, 44.17752456665039
0, 0, 20, 140.6355590820312
0, 0, 21, 224.6775817871094
0, 0, 22, 248.6050567626953
0, 0, 23, 257.4418640136719
0, 0, 24, 251.600830078125
0, 0, 25, 257.4530944824219
0, 0, 26, 235.955810546875
0, 0, 27, 236.1751556396484
0, 0, 28, 272.3292541503906
0, 0, 29, 251.6948394775391
0, 0, 30, 229.2406158447266
0, 0, 31, 243.9639434814453
0, 0, 32, 263.0772094726562
0, 0, 33, 260.3842163085938
0, 0, 34, 287.2138671875
0, 0, 35, 267.5514831542969
0, 0, 36, 246.6873626708984
0, 0, 37, 251.5791778564453
0, 0, 38, 267.6228332519531
0, 0, 39, 228.9315338134766
0, 0, 40, 242.1655883789062
0, 0, 41, 265.8804626464844
0, 0, 42, 230.7680969238281
0, 0, 43, 263.5079650878906
0, 0, 44, 253.7140197753906
0, 0, 45, 252.9263916015625
0, 0, 46, 245.2091064453125
0, 0, 47, 253.0283050537109
0, 0, 48, 267.4585876464844
0, 0, 49, 274.5947875976562
0, 0, 50, 250.7865753173828
0, 0, 51, 254.9649810791016
0, 0, 52, 272.6768798828125
0, 0, 53, 291.4546203613281
0, 0, 54, 241.8916778564453
0, 0, 55, 241.9314575195312
0, 0, 56, 277.5568542480469
0, 0, 57, 264.9230346679688
0, 0, 58, 245.4259185791016
0, 0, 59, 270.9696044921875
0, 0, 60, 235.1764526367188
0, 0, 61, 246.5829925537109
0, 0, 62, 257.3849487304688
0, 0, 63, 266.7317199707031
0, 0, 64, 255.63037109375
0, 0, 65, 260.9439086914062
0, 0, 66, 277.0582580566406
0, 0, 67, 249.0815887451172
0, 0, 68, 258.2156677246094
0, 0, 69, 263.0783996582031
0, 0, 70, 271.4489440917969
0, 0, 71, 237.5662384033203
0, 0, 72, 250.9590148925781
0, 0, 73, 257.7903747558594
0, 0, 74, 251.3134155273438
0, 0, 75, 239.6848297119141
0, 0, 76, 228.9871520996094
0, 0, 77, 259.5082092285156
0, 0, 78, 256.2165222167969
0, 0, 79, 277.6039733886719
0, 0, 80, 217.5816345214844
0, 0, 81, 269.0523376464844
0, 0, 82, 257.3284606933594
0, 0, 83, 244.6668701171875
0, 0, 84, 270.3935241699219
0, 0, 85, 231.6165771484375
0, 0, 86, 253.7696838378906
0, 0, 87, 250.5585479736328
0, 0, 88, 260.3661804199219
0, 0, 89, 283.40966796875
0, 0, 90, 244.3433990478516
0, 0, 91, 279.85693359375
0, 0, 92, 253.1196746826172
0, 0, 93, 250.1505737304688
0, 0, 94, 248.3406066894531
0, 0, 95, 249.5604248046875
0, 0, 96, 275.8047180175781
0, 0, 97, 271.4679260253906
0, 0, 98, 275.2062683105469
0, 0, 99, 257.7551879882812
0, 0, 100, 257.7023620605469
0, 0, 101, 226.4826507568359
0, 0, 102, 233.7240905761719
0, 0, 103, 270.4375305175781
0, 0, 104, 253.1103363037109
0, 0, 105, 252.6422729492188
0, 0, 106, 245.4108276367188
0, 0, 107, 152.5804443359375
0, 0, 108, 39.11704635620117
0, 0, 109, 12.86633968353271
0, 0, 110, 11.90943717956543
0, 0, 111, 9.876165390014648
0, 0, 112, 6.467804431915283
0, 0, 113, 4.858601093292236
0, 0, 114, 5.807207107543945
0, 0, 115, 4.252846240997314
0, 0, 116, 6.079842567443848
0, 0, 117, 6.930929183959961
0, 0, 118, 6.306396007537842
0, 0, 119, 5.270914077758789
0, 0, 120, 4.636984825134277
0, 0, 121, 4.803253650665283
0, 0, 122, 4.839935779571533
0, 0, 123, 3.621388673782349
0, 0, 124, 4.481466770172119
0, 0, 125, 5.246988296508789
0, 0, 126, 3.300893306732178
0, 0, 127, 2.854226589202881
0, 1, 0, 6.092475414276123
0, 1, 1, 4.384400367736816
0, 1, 2, 4.251052856445312
0, 1, 3, 3.521965742111206
0, 1, 4, 2.666988611221313
0, 1, 5, 3.297402858734131
0, 1, 6, 5.141260147094727
0, 1, 7, 3.806606769561768
0, 1, 8, 6.487156867980957
0, 1, 9, 4.574836254119873
0, 1, 10, 8.24913215637207
0, 1, 11, 11.79531574249268
0, 1, 12, 7.685059070587158
0, 1, 13, 10.0973539352417
0, 1, 14, 7.510176181793213
0, 1, 15, 7.180624961853027
0, 1, 16, 13.8952751159668
0, 1, 17, 12.67170143127441
0, 1, 18, 20.71940231323242
0, 1, 19, 66.02576446533203
0, 1, 20, 198.6167755126953
0, 1, 21, 255.7879486083984
0, 1, 22, 297.500244140625
0, 1, 23, 283.4694519042969
0, 1, 24, 276.4634094238281
0, 1, 25, 287.3717346191406
0, 1, 26, 269.3275451660156
0, 1, 27, 307.3891906738281
0, 1, 28, 302.7098999023438
0, 1, 29, 295.9992980957031
0, 1, 30, 280.2813720703125
0, 1, 31, 291.1069030761719
0, 1, 32, 290.6042175292969
0, 1, 33, 295.7714233398438
0, 1, 34, 293.4192199707031
0, 1, 35, 279.1756286621094
0, 1, 36, 309.1546630859375
0, 1, 37, 296.3023376464844
0, 1, 38, 278.9404907226562
0, 1, 39, 294.5713500976562
0, 1, 40, 265.0911254882812
0, 1, 41, 285.6867065429688
0, 1, 42, 289.0259704589844
0, 1, 43, 330.9303283691406
0, 1, 44, 281.758056640625
0, 1, 45, 292.9544372558594
0, 1, 46, 259.6426391601562
0, 1, 47, 310.2481689453125
0, 1, 48, 284.9789428710938
0, 1, 49, 306.0397338867188
0, 1, 50, 264.3116455078125
0, 1, 51, 270.8428955078125
0, 1, 52, 296.9999084472656
0, 1, 53, 305.4810791015625
0, 1, 54, 274.4876098632812
0, 1, 55, 293.9617919921875
0, 1, 56, 278.915283203125
0, 1, 57, 296.8692932128906
0, 1, 58, 310.42041015625
0, 1, 59, 292.73681640625
0, 1, 60, 298.7799072265625
0, 1, 61, 274.5083923339844
0, 1, 62, 306.5352478027344
0, 1, 63, 286.3226623535156
0, 1, 64, 288.3334350585938
0, 1, 65, 296.3372497558594
0, 1, 66, 293.3340454101562
0, 1, 67, 290.7702026367188
0, 1, 68, 278.4820251464844
0, 1, 69, 280.3905639648438
0, 1, 70, 270.9918518066406
0, 1, 71, 273.2664489746094
0, 1, 72, 286.7225341796875
0, 1, 73, 305.9823608398438
0, 1, 74, 302.9714660644531
0, 1, 75, 294.0504760742188
0, 1, 76, 286.4048461914062
0, 1, 77, 289.2742309570312
0, 1, 78, 296.4855346679688
0, 1, 79, 301.3847961425781
0, 1, 80, 296.8633117675781
0, 1, 81, 300.232177734375
0, 1, 82, 285.6577758789062
0, 1, 83, 331.7050170898438
0, 1, 84, 308.2372436523438
0, 1, 85, 254.3567962646484
0, 1, 86, 294.6901245117188
0, 1, 87, 289.6077880859375
0, 1, 88, 298.5723266601562
0, 1, 89, 291.4331665039062
0, 1, 90, 269.117919921875
0, 1, 91, 317.4010314941406
0, 1, 92, 291.6978454589844
0, 1, 93, 286.1484680175781
0, 1, 94, 302.3594665527344
0, 1, 95, 283.6298522949219
0, 1, 96, 282.6572265625
0, 1, 97, 300.1456604003906
0, 1, 98, 276.8202209472656
0, 1, 99, 265.8279724121094
0, 1, 100, 276.8777465820312
0, 1, 101, 282.2558898925781
0, 1, 102, 278.9380187988281
0, 1, 103, 281.2257995605469
0, 1, 104, 305.0419616699219
0, 1, 105, 297.8981628417969
0, 1, 106, 260.4176635742188
0, 1, 107, 191.7377166748047
0, 1, 108, 81.46028137207031
0, 1, 109, 24.6141242980957
0, 1, 110, 11.10027027130127
0, 1, 111, 7.282409191131592
0, 1, 112, 12.90806293487549
0, 1, 113, 8.727815628051758
0, 1, 114, 8.705766677856445
0, 1, 115, 9.048694610595703
0, 1, 116, 10.97696304321289
0, 1, 117, 6.362827777862549
0, 1, 118, 5.13566780090332
0, 1, 119, 4.397726058959961
0, 1, 120, 5.832058906555176
0, 1, 121, 3.934581756591797
0, 1, 122, 4.085313320159912
0, 1, 123, 3.789213418960571
0, 1, 124, 10.25148582458496
0, 1, 125, 3.066955089569092
0, 1, 126, 6.268267631530762
0, 1, 127, 2.81580638885498
0, 2, 0, 4.305221080780029
0, 2, 1, 1.662023186683655
0, 2, 2, 5.492375373840332
0, 2, 3, 6.285175800323486
0, 2, 4, 3.001445055007935
0, 2, 5, 2.016826868057251
0, 2, 6, 2.594848871231079
0, 2, 7, 4.197837829589844
0, 2, 8, 5.766322135925293
0, 2, 9, 6.778520107269287
0, 2, 10, 8.65384578704834
0, 2, 11, 5.727643489837646
0, 2, 12, 7.928356170654297
0, 2, 13, 10.82746124267578
0, 2, 14, 8.466492652893066
0, 2, 15, 8.575360298156738
0, 2, 16, 10.35725879669189
0, 2, 17, 17.44938468933105
0, 2, 18, 32.09356307983398
0, 2, 19, 119.8629379272461
0, 2, 20, 243.9938507080078
0, 2, 21, 271.4975280761719
0, 2, 22, 317.4274291992188
0, 2, 23, 301.0862426757812
0, 2, 24, 287.2868041992188
0, 2, 25, 301.1377258300781
0, 2, 26, 291.1109313964844
0, 2, 27, 275.8340759277344
0, 2, 28, 273.2746887207031
0, 2, 29, 274.36328125
0, 2, 30, 291.2380065917969
0, 2, 31, 280.0728149414062
0, 2, 32, 294.0303039550781
0, 2, 33, 281.9359436035156
0, 2, 34, 332.3335571289062
0, 2, 35, 290.0409851074219
0, 2, 36, 301.2612915039062
0, 2, 37, 314.6888122558594
0, 2, 38, 309.3177490234375
0, 2, 39, 268.4744873046875
0, 2, 40, 306.5561828613281
0, 2, 41, 292.0103454589844
0, 2, 42, 304.1907043457031
0, 2, 43, 311.743896484375
0, 2, 44, 312.4169921875
0, 2, 45, 325.9006042480469
0, 2, 46, 288.0153503417969
0, 2, 47, 303.6407775878906
0, 2, 48, 282.7939758300781
0, 2, 49, 277.1751708984375
0, 2, 50, 293.4219970703125
0, 2, 51, 284.6702575683594
0, 2, 52, 271.8496704101562
0, 2, 53, 288.573974609375
0, 2, 54, 280.8233947753906
0, 2, 55, 276.27978515625
0, 2, 56, 301.3460083007812
0, 2, 57, 292.9831237792969
0, 2, 58, 303.8577880859375
0, 2, 59, 289.4997253417969
0, 2, 60, 319.4620971679688
0, 2, 61, 301.1268005371094
0, 2, 62, 316.128662109375
0, 2, 63, 302.905517578125
0, 2, 64, 299.1148376464844
0, 2, 65, 314.6466674804688
0, 2, 66, 279.5564270019531
0, 2, 67, 290.5798034667969
0, 2, 68, 296.1581420898438
0, 2, 69, 311.9908447265625
0, 2, 70, 334.0969543457031
0, 2, 71, 285.9249572753906
0, 2, 72, 302.6626586914062
0, 2, 73, 311.6009216308594
0, 2, 74, 286.3837585449219
0, 2, 75, 305.5903015136719
0, 2, 76, 286.3252868652344
0, 2, 77, 300.1269226074219
0, 2, 78, 316.3968505859375
0, 2, 79, 307.8892211914062
0, 2, 80, 294.7574462890625
0, 2, 81, 282.6120300292969
0, 2, 82, 316.4927368164062
0, 2, 83, 314.0717468261719
0, 2, 84, 291.1364440917969
0, 2, 85, 283.8080444335938
0, 2, 86, 322.9740295410156
0, 2, 87, 286.5521850585938
0, 2, 88, 281.4292907714844
0, 2, 89, 297.4131469726562
0, 2, 90, 296.4992370605469
0, 2, 91, 274.8411560058594
0, 2, 92, 305.4317932128906
0, 2, 93, 317.4344787597656
0, 2, 94, 291.1488647460938
0, 2, 95, 314.8554077148438
0, 2, 96, 315.599853515625
0, 2, 97, 294.0212707519531
0, 2, 98, 293.8335876464844
0, 2, 99, 272.7210388183594
0, 2, 100, 305.8456115722656
0, 2, 101, 300.1883850097656
0, 2, 102, 294.9976196289062
0, 2, 103, 292.4464721679688
0, 2, 104, 292.810791015625
0, 2, 105, 274.57958984375
0, 2, 106, 296.4511108398438
0, 2, 107, 272.9531555175781
0, 2, 108, 117.5315322875977
0, 2, 109, 31.43792343139648
0, 2, 110, 9.455159187316895
0, 2, 111, 10.38465404510498
0, 2, 112, 7.645989418029785
0, 2, 113, 10.00518417358398
0, 2, 114, 9.281426429748535
0, 2, 115, 10.65159893035889
0, 2, 116, 11.22314167022705
0, 2, 117, 5.732090473175049
0, 2, 118, 2.650783777236938
0, 2, 119, 3.261388778686523
0, 2, 120, 4.944940567016602
0, 2, 121, 1.240536451339722
0, 2, 122, 4.297572612762451
0, 2, 123, 2.958001375198364
0, 2, 124, 3.154023170471191
0, 2, 125, 4.629568099975586
0, 2, 126, 5.248090267181396
0, 2, 127, 3.316570281982422
0, 3, 0, 4.137255668640137
0, 3, 1, 3.389629364013672
0, 3, 2, 4.162016868591309
0, 3, 3, 1.101805806159973
0, 3, 4, 3.628496170043945
0, 3, 5, 7.244623184204102
0, 3, 6, 7.133051872253418
0, 3, 7, 4.421261310577393
0, 3, 8, 6.046524524688721
0, 3, 9, 8.245226860046387
0, 3, 10, 7.521417140960693
0, 3, 11, 7.00192928314209
0, 3, 12, 6.003783702850342
0, 3, 13, 14.06046295166016
0, 3, 14, 11.88891887664795
0, 3, 15, 15.40170383453369
0, 3, 16, 11.45753192901611
0, 3, 17, 22.67891502380371
0, 3, 18, 51.65365600585938
0, 3, 19, 177.8353424072266
0, 3, 20, 269.9892578125
0, 3, 21, 269.9454040527344
0, 3, 22, 280.9005126953125
0, 3, 23, 287.0501098632812
0, 3, 24, 286.2328491210938
0, 3, 25, 269.408935546875
0, 3, 26, 303.3074035644531
0, 3, 27, 292.3001098632812
0, 3, 28, 279.8266296386719
0, 3, 29, 337.1557312011719
0, 3, 30, 317.4344177246094
0, 3, 31, 285.4782409667969
0, 3, 32, 307.3359069824219
0, 3, 33, 315.6102294921875
0, 3, 34, 322.7935485839844
0, 3, 35, 309.9012145996094
0, 3, 36, 268.6316223144531
0, 3, 37, 314.9927368164062
0, 3, 38, 304.5914916992188
0, 3, 39, 288.2647094726562
0, 3, 40, 267.8427429199219
0, 3, 41, 299.4436340332031
0, 3, 42, 287.2947387695312
0, 3, 43, 308.9344787597656
0, 3, 44, 309.7720336914062
0, 3, 45, 290.1968078613281
0, 3, 46, 329.1787414550781
0, 3, 47, 299.6648559570312
0, 3, 48, 303.1118774414062
0, 3, 49, 275.6203002929688
0, 3, 50, 290.7315063476562
0, 3, 51, 277.035888671875
0, 3, 52, 314.8389587402344
0, 3, 53, 287.6618347167969
0, 3, 54, 285.0864562988281
0, 3, 55, 283.0361328125
0, 3, 56, 297.7317810058594
0, 3, 57, 288.6489562988281
0, 3, 58, 307.8287963867188
0, 3, 59, 295.4571228027344
0, 3, 60, 297.5491943359375
0, 3, 61, 265.1096801757812
0, 3, 62, 285.4884033203125
0, 3, 63, 312.2876586914062
0, 3, 64, 318.1964416503906
0, 3, 65, 305.8519287109375
0, 3, 66, 314.0791320800781
0, 3, 67, 319.1168823242188
0, 3, 68, 279.3500061035156
0, 3, 69, 282.458251953125
0, 3, 70, 289.7478332519531
0, 3, 71, 299.3322143554688
0, 3, 72, 269.6580810546875
0, 3, 73, 307.6114501953125
0, 3, 74, 293.1777648925781
0, 3, 75, 288.6216430664062
0, 3, 76, 307.4212951660156
0, 3, 77, 313.6783447265625
0, 3, 78, 305.5609741210938
0, 3, 79, 283.2332458496094
0, 3, 80, 291.3533020019531
0, 3, 81, 310.3330078125
0, 3, 82, 317.2785034179688
0, 3, 83, 299.9950561523438
0, 3, 84, 314.982421875
0, 3, 85, 293.4511108398438
0, 3, 86, 300.8433227539062
0, 3, 87, 299.5267944335938
0, 3, 88, 297.7482604980469
0, 3, 89, 297.1234741210938
0, 3, 90, 274.5500183105469
0, 3, 91, 283.3500671386719
0, 3, 92, 303.4109802246094
0, 3, 93, 313.1684875488281
0, 3, 94, 297.5815734863281
0, 3, 95, 334.044677734375
0, 3, 96, 293.1848754882812
0, 3, 97, 282.3979187011719
0, 3, 98, 277.851318359375
0, 3, 99, 261.7818908691406
0, 3, 100, 283.7034912109375
0, 3, 101, 297.8199462890625
0, 3, 102, 275.9644470214844
0, 3, 103, 320.3152160644531
0, 3, 104, 308.4905395507812
0, 3, 105, 287.8900756835938
0, 3, 106, 302.363037109375
0, 3, 107, 281.3606567382812
0, 3, 108, 169.0995635986328
0, 3, 109, 55.98900604248047
0, 3, 110, 17.29627418518066
0, 3, 111, 13.54083442687988
0, 3, 112, 11.66518783569336
0, 3, 113, 6.12982702255249
0, 3, 114, 12.47301769256592
0, 3, 115, 9.095343589782715
0, 3, 116, 7.891297817230225
0, 3, 117, 6.611608028411865
0, 3, 118, 7.02838659286499
0, 3, 119, 5.378045082092285
0, 3, 120, 5.581518173217773
0, 3, 121, 2.21061372756958
0, 3, 122, 4.352209091186523
0, 3, 123, 7.449536323547363
0, 3, 124, 2.69745922088623
0, 3, 125, 5.569320201873779
0, 3, 126, 3.369335174560547
0, 3, 127, 5.182844638824463
0, 4, 0, 2.490254163742065
0, 4, 1, 4.891690254211426
0, 4, 2, 2.443962574005127
0, 4, 3, 2.135533094406128
0, 4, 4, 5.483024597167969
0, 4, 5, 7.369358062744141
0, 4, 6, 6.206912517547607
0, 4, 7, 4.717836380004883
0, 4, 8, 4.205771923065186
0, 4, 9, 6.301728248596191
0, 4, 10, 5.900519847869873
0, 4, 11, 7.228004932403564
0, 4, 12, 6.58289098739624
0, 4, 13, 9.630277633666992
0, 4, 14, 13.03355503082275
0, 4, 15, 15.16236400604248
0, 4, 16, 12.91427326202393
0, 4, 17, 18.78287124633789
0, 4, 18, 93.59395599365234
0, 4, 19, 222.8654632568359
0, 4, 20, 283.8771057128906
0, 4, 21, 272.662841796875
0, 4, 22, 304.4552001953125
0, 4, 23, 265.6147155761719
0, 4, 24, 288.7557678222656
0, 4, 25, 273.27294921875
0, 4, 26, 295.7403564453125
0, 4, 27, 284.2032165527344
0, 4, 28, 305.6802978515625
0, 4, 29, 324.1650085449219
0, 4, 30, 309.2314453125
0, 4, 31, 302.8689270019531
0, 4, 32, 283.1117553710938
0, 4, 33, 296.4371337890625
0, 4, 34, 297.4736328125
0, 4, 35, 312.5205993652344
0, 4, 36, 294.1726684570312
0, 4, 37, 286.395751953125
0, 4, 38, 297.4319152832031
0, 4, 39, 295.630615234375
0, 4, 40, 302.6319274902344
0, 4, 41, 314.8906555175781
0, 4, 42, 330.33837890625
0, 4, 43, 297.1026306152344
0, 4, 44, 321.5867614746094
0, 4, 45, 328.0475769042969
0, 4, 46, 305.4736022949219
0, 4, 47, 291.8737487792969
0, 4, 48, 296.6917114257812
0, 4, 49, 277.1539306640625
0, 4, 50, 296.6907958984375
0, 4, 51, 316.4416809082031
0, 4, 52, 329.3180847167969
0, 4, 53, 303.7464599609375
0, 4, 54, 287.5610961914062
0, 4, 55, 314.850341796875
0, 4, 56, 285.9552307128906
0, 4, 57, 308.35791015625
0, 4, 58, 298.5648498535156
0, 4, 59, 308.5252075195312
0, 4, 60, 301.4269104003906
0, 4, 61, 315.4628601074219
0, 4, 62, 308.6123046875
0, 4, 63, 299.4390258789062
0, 4, 64, 329.2498779296875
0, 4, 65, 317.3117980957031
0, 4, 66, 294.1172790527344
0, 4, 67, 284.764892578125
0, 4, 68, 312.7530822753906
0, 4, 69, 275.3623352050781
0, 4, 70, 300.6830749511719
0, 4, 71, 320.9764099121094
0, 4, 72, 332.4185791015625
0, 4, 73, 300.4285888671875
0, 4, 74, 292.1300659179688
0, 4, 75, 289.0696716308594
0, 4, 76, 274.5068359375
0, 4, 77, 277.7835998535156
0, 4, 78, 311.5096740722656
0, 4, 79, 318.7658081054688
0, 4, 80, 315.3841247558594
0, 4, 81, 312.3445739746094
0, 4, 82, 297.3300476074219
0, 4, 83, 300.2377624511719
0, 4, 84, 291.6605529785156
0, 4, 85, 295.2361145019531
0, 4, 86, 298.3599548339844
0, 4, 87, 284.8063659667969
0, 4, 88, 304.9748840332031
0, 4, 89, 294.4916076660156
0, 4, 90, 333.3140258789062
0, 4, 91, 300.5878601074219
0, 4, 92, 290.150146484375
0, 4, 93, 299.0212097167969
0, 4, 94, 290.8611145019531
0, 4, 95, 290.7451477050781
0, 4, 96, 323.480712890625
0, 4, 97, 274.8648986816406
0, 4, 98, 326.4475708007812
0, 4, 99, 312.8337097167969
0, 4, 100, 299.8972778320312
0, 4, 101, 256.9979858398438
0, 4, 102, 296.9586791992188
0, 4, 103, 317.5782165527344
0, 4, 104, 281.92236328125
0, 4, 105, 310.9375610351562
0, 4, 106, 286.9228210449219
0, 4, 107, 295.0432434082031
0, 4, 108, 226.0787811279297
0, 4, 109, 80.23513793945312
0, 4, 110, 16.65873908996582
0, 4, 111, 13.95249271392822
0, 4, 112, 8.160293579101562
0, 4, 113, 9.596837997436523
0, 4, 114, 7.638484477996826
0, 4, 115, 10.25494861602783
0, 4, 116, 8.69086742401123
0, 4, 117, 9.977723121643066
0, 4, 118, 8.837508201599121
0, 4, 119, 8.466396331787109
0, 4, 120, 5.989380836486816
0, 4, 121, 3.310514211654663
0, 4, 122, 3.855711698532104
0, 4, 123, 6.908653736114502
0, 4, 124, 5.649385452270508
0, 4, 125, 10.44962787628174
0, 4, 126, 5.528677463531494
0, 4, 127, 4.630953788757324
0, 5, 0, 4.373963356018066
0, 5, 1, 4.621243476867676
0, 5, 2, 3.658907651901245
0, 5, 3, 3.929520845413208
0, 5, 4, 5.126319408416748
0, 5, 5, 9.40196418762207
0, 5, 6, 8.558053970336914
0, 5, 7, 7.571002960205078
0, 5, 8, 4.11382532119751
0, 5, 9, 4.565892696380615
0, 5, 10, 5.754502773284912
0, 5, 11, 9.264579772949219
0, 5, 12, 9.34319019317627
0, 5, 13, 5.908866405487061
0, 5, 14, 12.82701969146729
0, 5, 15, 17.28667449951172
0, 5, 16, 13.57591724395752
0, 5, 17, 29.23838424682617
0, 5, 18, 137.6539916992188
0, 5, 19, 286.1965637207031
0, 5, 20, 305.9867858886719
0, 5, 21, 316.0958862304688
0, 5, 22, 274.4237060546875
0, 5, 23, 310.1809387207031
0, 5, 24, 302.8304138183594
0, 5, 25, 288.6329345703125
0, 5, 26, 295.8855590820312
0, 5, 27, 321.3485717773438
0, 5, 28, 301.0440979003906
0, 5, 29, 297.1388244628906
0, 5, 30, 324.3003845214844
0, 5, 31, 287.3205871582031
0, 5, 32, 304.2306213378906
0, 5, 33, 304.2849426269531
0, 5, 34, 296.7821960449219
0, 5, 35, 310.2165222167969
0, 5, 36, 269.9746398925781
0, 5, 37, 283.8996276855469
0, 5, 38, 293.2821655273438
0, 5, 39, 310.7499389648438
0, 5, 40, 308.3397521972656
0, 5, 41, 276.2979736328125
0, 5, 42, 306.8160705566406
0, 5, 43, 315.3854675292969
0, 5, 44, 292.5765686035156
0, 5, 45, 302.5799255371094
0, 5, 46, 264.9994201660156
0, 5, 47, 279.9204406738281
0, 5, 48, 293.2361450195312
0, 5, 49, 286.6152038574219
0, 5, 50, 294.0947875976562
0, 5, 51, 278.4669189453125
0, 5, 52, 268.17333984375
0, 5, 53, 284.7588806152344
0, 5, 54, 292.9859313964844
0, 5, 55, 344.4414978027344
0, 5, 56, 304.558837890625
0, 5, 57, 307.8630981445312
0, 5, 58, 311.7603759765625
0, 5, 59, 303.4788513183594
0, 5, 60, 307.4749450683594
0, 5, 61, 281.4496459960938
0, 5, 62, 324.4817810058594
0, 5, 63, 290.6903991699219
0, 5, 64, 326.9069213867188
0, 5, 65, 306.1307678222656
0, 5, 66, 325.7624816894531
0, 5, 67, 312.8264770507812
0, 5, 68, 308.1885681152344
0, 5, 69, 313.7586364746094
0, 5, 70, 298.8952026367188
0, 5, 71, 272.9715270996094
0, 5, 72, 317.5952453613281
0, 5, 73, 306.9526977539062
0, 5, 74, 295.332275390625
0, 5, 75, 295.6069946289062
0, 5, 76, 285.2290649414062
0, 5, 77, 298.7018127441406
0, 5, 78, 315.2908325195312
0, 5, 79, 305.9054565429688
0, 5, 80, 295.720947265625
0, 5, 81, 325.6895751953125
0, 5, 82, 322.9223327636719
0, 5, 83, 281.20458984375
0, 5, 84, 299.5296325683594
0, 5, 85, 270.7113952636719
0, 5, 86, 325.9296264648438
0, 5, 87, 282.6895751953125
0, 5, 88, 314.540771484375
0, 5, 89, 304.107666015625
0, 5, 90, 317.8849792480469
0, 5, 91, 312.5125122070312
0, 5, 92, 295.0420532226562
0, 5, 93, 324.2406616210938
0, 5, 94, 310.6719970703125
0, 5, 95, 295.468017578125
0, 5, 96, 298.9414367675781
0, 5, 97, 294.9863891601562
0, 5, 98, 320.8717346191406
0, 5, 99, 302.9983520507812
0, 5, 100, 289.4000549316406
0, 5, 101, 305.5748596191406
0, 5, 102, 295.0276489257812
0, 5, 103, 314.7169494628906
0, 5, 104, 303.6582946777344
0, 5, 105, 293.1933898925781
0, 5, 106, 281.5717468261719
0, 5, 107, 293.8825073242188
0, 5, 108, 264.9950561523438
0, 5, 109, 156.6513977050781
0, 5, 110, 39.58990859985352
0, 5, 111, 20.40942192077637
0, 5, 112, 14.90950679779053
0, 5, 113, 13.32086372375488
0, 5, 114, 11.15558815002441
0, 5, 115, 7.845426559448242
0, 5, 116, 8.29936408996582
0, 5, 117, 5.698472499847412
0, 5, 118, 13.4443998336792
0, 5, 119, 3.369404792785645
0, 5, 120, 5.89034366607666
0, 5, 121, 6.60987377166748
0, 5, 122, 6.982640743255615
0, 5, 123, 7.282595634460449
0, 5, 124, 6.776010513305664
0, 5, 125, 6.406376838684082
0, 5, 126, 6.071218967437744
0, 5, 127, 4.56850528717041
0, 6, 0, 4.360574245452881
0, 6, 1, 3.595376253128052
0, 6, 2, 4.769892692565918
0, 6, 3, 7.040523529052734
0, 6, 4, 4.560375213623047
0, 6, 5, 6.874958992004395
0, 6, 6, 9.288500785827637
0, 6, 7, 6.197429656982422
0, 6, 8, 7.186275482177734
0, 6, 9, 5.66144323348999
0, 6, 10, 8.534886360168457
0, 6, 11, 7.57609748840332
0, 6, 12, 8.037296295166016
0, 6, 13, 12.36206531524658
0, 6, 14, 9.434463500976562
0, 6, 15, 15.96531009674072
0, 6, 16, 27.09071350097656
0, 6, 17, 54.67205810546875
0, 6, 18, 173.201904296875
0, 6, 19, 277.4374694824219
0, 6, 20, 291.8956298828125
0, 6, 21, 316.0931396484375
0, 6, 22, 321.6455688476562
0, 6, 23, 305.8693542480469
0, 6, 24, 318.0556945800781
0, 6, 25, 316.3030395507812
0, 6, 26, 319.1900634765625
0, 6, 27, 329.4661560058594
0, 6, 28, 294.7041931152344
0, 6, 29, 329.7059326171875
0, 6, 30, 282.2452392578125
0, 6, 31, 287.1505126953125
0, 6, 32, 342.2840576171875
0, 6, 33, 298.4594116210938
0, 6, 34, 339.5445251464844
0, 6, 35, 321.4447937011719
0, 6, 36, 274.1922607421875
0, 6, 37, 288.6668395996094
0, 6, 38, 310.0084838867188
0, 6, 39, 298.7879638671875
0, 6, 40, 288.4519958496094
0, 6, 41, 294.7210998535156
0, 6, 42, 304.2353820800781
0, 6, 43, 288.4105224609375
0, 6, 44, 279.9060363769531
0, 6, 45, 319.1065368652344
0, 6, 46, 302.0502624511719
0, 6, 47, 333.137451171875
0, 6, 48, 294.2232666015625
0, 6, 49, 312.8692626953125
0, 6, 50, 329.3153076171875
0, 6, 51, 309.8246154785156
0, 6, 52, 320.6288146972656
0, 6, 53, 327.6515502929688
0, 6, 54, 303.513916015625
0, 6, 55, 304.8613891601562
0, 6, 56, 294.8092041015625
0, 6, 57, 312.4622497558594
0, 6, 58, 262.5633544921875
0, 6, 59, 303.655029296875
0, 6, 60, 313.93212890625
0, 6, 61, 271.0047302246094
0, 6, 62, 337.5907592773438
0, 6, 63, 323.7121276855469
0, 6, 64, 292.6926574707031
0, 6, 65, 284.7872009277344
0, 6, 66, 303.8157348632812
0, 6, 67, 308.7203063964844
0, 6, 68, 292.8662719726562
0, 6, 69, 278.1538391113281
0, 6, 70, 276.0302124023438
0, 6, 71, 289.6991577148438
0, 6, 72, 308.4990234375
0, 6, 73, 291.2980651855469
0, 6, 74, 332.60546875
0, 6, 75, 343.6562194824219
0, 6, 76, 296.0454711914062
0, 6, 77, 288.9067687988281
0, 6, 78, 278.5608215332031
0, 6, 79, 292.6055603027344
0, 6, 80, 302.6011047363281
0, 6, 81, 313.4456176757812
0, 6, 82, 320.4502868652344
0, 6, 83, 319.2986755371094
0, 6, 84, 295.489501953125
0, 6, 85, 300.6493530273438
0, 6, 86, 331.6742248535156
0, 6, 87, 293.1139831542969
0, 6, 88, 306.6397399902344
0, 6, 89, 305.2279052734375
0, 6, 90, 299.2474060058594
0, 6, 91, 312.7438354492188
0, 6, 92, 284.2741394042969
0, 6, 93, 296.0142517089844
0, 6, 94, 272.061279296875
0, 6, 95, 300.1765441894531
0, 6, 96, 347.3175659179688
0, 6, 97, 308.6763916015625
0, 6, 98, 301.484619140625
0, 6, 99, 272.8770446777344
0, 6, 100, 308.8551940917969
0, 6, 101, 292.3497314453125
0, 6, 102, 307.3918762207031
0, 6, 103, 308.1785583496094
0, 6, 104, 291.7229614257812
0, 6, 105, 301.5773315429688
0, 6, 106, 306.1440734863281
0, 6, 107, 307.5562744140625
0, 6, 108, 266.5975341796875
0, 6, 109, 186.4981536865234
0, 6, 110, 58.09477996826172
0, 6, 111, 21.99365425109863
0, 6, 112, 12.53885173797607
0, 6, 113, 12.22021675109863
0, 6, 114, 13.69890117645264
0, 6, 115, 12.28498554229736
0, 6, 116, 9.076703071594238
0, 6, 117, 8.344513893127441
0, 6, 118, 10.53737545013428
0, 6, 119, 8.055678367614746
0, 6, 120, 6.546374797821045
0, 6, 121, 6.848404884338379
0, 6, 122, 6.581131935119629
0, 6, 123, 5.937802791595459
0, 6, 124, 6.974790096282959
0, 6, 125, 7.324467658996582
0, 6, 126, 3.892569065093994
0, 6, 127, 6.907430171966553
0, 7, 0, 4.978384017944336
0, 7, 1, 3.711858987808228
0, 7, 2, 6.455771923065186
0, 7, 3, 2.431491613388062
0, 7, 4, 3.275209665298462
0, 7, 5, 6.461150646209717
0, 7, 6, 6.025828838348389
0, 7, 7, 4.745681285858154
0, 7, 8, 5.230696201324463
0, 7, 9, 5.353836536407471
0, 7, 10, 8.942474365234375
0, 7, 11, 11.05995655059814
0, 7, 12, 9.091808319091797
0, 7, 13, 11.29192733764648
0, 7, 14, 11.58483028411865
0, 7, 15, 15.2462739944458
0, 7, 16, 27.09128189086914
0, 7, 17, 97.70952606201172
0, 7, 18, 218.6946868896484
0, 7, 19, 290.8938598632812
0, 7, 20, 298.0155334472656
0, 7, 21, 277.8169555664062
0, 7, 22, 299.3204040527344
0, 7, 23, 288.2012939453125
0, 7, 24, 313.3992004394531
0, 7, 25, 323.4956359863281
0, 7, 26, 276.8232421875
0, 7, 27, 297.6419677734375
0, 7, 28, 329.7244873046875
0, 7, 29, 319.3451538085938
0, 7, 30, 300.9673156738281
0, 7, 31, 280.7292175292969
0, 7, 32, 302.9942932128906
0, 7, 33, 261.3802795410156
0, 7, 34, 297.5466003417969
0, 7, 35, 321.1665954589844
0, 7, 36, 332.3713989257812
0, 7, 37, 324.9850463867188
0, 7, 38, 295.3087768554688
0, 7, 39, 304.3480834960938
0, 7, 40, 290.0293273925781
0, 7, 41, 270.5159606933594
0, 7, 42, 301.5604858398438
0, 7, 43, 277.254638671875
0, 7, 44, 304.7780456542969
0, 7, 45, 297.5438232421875
0, 7, 46, 282.8228759765625
0, 7, 47, 329.75634765625
0, 7, 48, 284.0357666015625
0, 7, 49, 303.6201782226562
0, 7, 50, 321.2711486816406
0, 7, 51, 298.0254516601562
0, 7, 52, 327.1227722167969
0, 7, 53, 310.9960021972656
0, 7, 54, 322.443359375
0, 7, 55, 306.6017150878906
0, 7, 56, 281.4480895996094
0, 7, 57, 280.7966613769531
0, 7, 58, 294.1815795898438
0, 7, 59, 293.6611938476562
0, 7, 60, 324.3995056152344
0, 7, 61, 277.5300598144531
0, 7, 62, 299.8201599121094
0, 7, 63, 293.5642700195312
0, 7, 64, 307.062255859375
0, 7, 65, 331.2841186523438
0, 7, 66, 319.5234375
0, 7, 67, 302.71435546875
0, 7, 68, 280.4501953125
0, 7, 69, 296.027587890625
0, 7, 70, 300.9403381347656
0, 7, 71, 309.4966125488281
0, 7, 72, 285.638916015625
0, 7, 73, 294.67041015625
0, 7, 74, 344.6013488769531
0, 7, 75, 320.7194519042969
0, 7, 76, 324.1040344238281
0, 7, 77, 279.4592590332031
0, 7, 78, 299.8195495605469
0, 7, 79, 296.8232421875
0, 7, 80, 312.1365966796875
0, 7, 81, 318.7992248535156
0, 7, 82, 332.7337951660156
0, 7, 83, 316.9247436523438
0, 7, 84, 310.3604736328125
0, 7, 85, 271.8654479980469
0, 7, 86, 313.8163757324219
0, 7, 87, 311.5016784667969
0, 7, 88, 309.3882141113281
0, 7, 89, 291.0705261230469
0, 7, 90, 305.6359252929688
0, 7, 91, 317.4962463378906
0, 7, 92, 288.8742370605469
0, 7, 93, 307.7148132324219
0, 7, 94, 272.3009643554688
0, 7, 95, 296.8892517089844
0, 7, 96, 330.9529418945312
0, 7, 97, 295.4688415527344
0, 7, 98, 290.5339660644531
0, 7, 99, 312.7818603515625
0, 7, 100, 286.3748779296875
0, 7, 101, 275.1716613769531
0, 7, 102, 290.0846557617188
0, 7, 103, 291.8989562988281
0, 7, 104, 275.5115661621094
0, 7, 105, 305.0626525878906
0, 7, 106, 317.7617492675781
0, 7, 107, 296.7376708984375
0, 7, 108, 273.9147033691406
0, 7, 109, 236.8689270019531
0, 7, 110, 96.45543670654297
0, 7, 111, 24.87382316589355
0, 7, 112, 14.43139743804932
0, 7, 113, 13.47507381439209
0, 7, 114, 13.99854183197021
0, 7, 115, 12.40009117126465
0, 7, 116, 9.628464698791504
0, 7, 117, 10.49160385131836
0, 7, 118, 10.6711483001709
0, 7, 119, 7.284313678741455
0, 7, 120, 4.829215526580811
0, 7, 121, 6.979367733001709
0, 7, 122, 10.7224702835083
0, 7, 123, 4.263857841491699
0, 7, 124, 3.886980056762695
0, 7, 125, 5.694912433624268
0, 7, 126, 7.541103363037109
0, 7, 127, 1.749205470085144
0, 8, 0, 3.514692068099976
0, 8, 1, 4.940357208251953
0, 8, 2, 8.250906944274902
0, 8, 3, 2.53961968421936
0, 8, 4, 4.264499187469482
0, 8, 5, 5.037440776824951
0, 8, 6, 4.569336414337158
0, 8, 7, 6.990318298339844
0, 8, 8, 7.425909996032715
0, 8, 9, 4.602864742279053
0, 8, 10, 10.05076217651367
0, 8, 11, 12.53494548797607
0, 8, 12, 13.1310453414917
0, 8, 13, 16.22647666931152
0, 8, 14, 13.34639358520508
0, 8, 15, 17.362548828125
0, 8, 16, 33.04600143432617
0, 8, 17, 130.841796875
0, 8, 18, 243.2355804443359
0, 8, 19, 296.9561767578125
0, 8, 20, 286.2694396972656
0, 8, 21, 307.81591796875
0, 8, 22, 296.90087890625
0, 8, 23, 274.1379699707031
0, 8, 24, 268.8448181152344
0, 8, 25, 276.7110290527344
0, 8, 26, 306.8474426269531
0, 8, 27, 307.2157592773438
0, 8, 28, 304.0890808105469
0, 8, 29, 319.1804809570312
0, 8, 30, 314.9197082519531
0, 8, 31, 304.0999145507812
0, 8, 32, 278.6930236816406
0, 8, 33, 295.538330078125
0, 8, 34, 288.0542602539062
0, 8, 35, 280.3200378417969
0, 8, 36, 316.8554992675781
0, 8, 37, 339.9249267578125
0, 8, 38, 331.3044738769531
0, 8, 39, 281.9806213378906
