# TOPAS Version: 3.1.p3
# Parameter File: batch_inserts_242.txt
# Results for scorer Readout_Adipose
# Scored in component: MyBox
# X in 1 bin  of 0.75 cm
# Y in 512 bins of 0.0783984 cm
# Z in 128 bins of 0.078125 cm
# EnergyDeposit ( MeV ) : Sum   
0, 0, 0, 2.766602277755737
0, 0, 1, 4.151181221008301
0, 0, 2, 3.305080652236938
0, 0, 3, 2.123546838760376
0, 0, 4, 3.2258460521698
0, 0, 5, 3.541803359985352
0, 0, 6, 6.845197677612305
0, 0, 7, 9.028759002685547
0, 0, 8, 3.028017997741699
0, 0, 9, 4.603767871856689
0, 0, 10, 6.482191562652588
0, 0, 11, 4.471942901611328
0, 0, 12, 4.782956123352051
0, 0, 13, 6.592414379119873
0, 0, 14, 8.257752418518066
0, 0, 15, 9.645609855651855
0, 0, 16, 8.891586303710938
0, 0, 17, 9.318999290466309
0, 0, 18, 13.30539226531982
0, 0, 19, 45.09222030639648
0, 0, 20, 140.1511688232422
0, 0, 21, 224.2865905761719
0, 0, 22, 249.9133758544922
0, 0, 23, 257.0945129394531
0, 0, 24, 251.1434478759766
0, 0, 25, 259.4044189453125
0, 0, 26, 233.8880920410156
0, 0, 27, 236.8195953369141
0, 0, 28, 270.9286499023438
0, 0, 29, 252.0865020751953
0, 0, 30, 230.0426635742188
0, 0, 31, 243.9431610107422
0, 0, 32, 263.2859497070312
0, 0, 33, 261.3770141601562
0, 0, 34, 287.5941772460938
0, 0, 35, 267.2502136230469
0, 0, 36, 246.837646484375
0, 0, 37, 251.9284210205078
0, 0, 38, 267.808837890625
0, 0, 39, 228.6545562744141
0, 0, 40, 241.3182830810547
0, 0, 41, 266.1438903808594
0, 0, 42, 230.2482147216797
0, 0, 43, 262.4573364257812
0, 0, 44, 253.0464477539062
0, 0, 45, 252.9223327636719
0, 0, 46, 243.7041778564453
0, 0, 47, 253.2460479736328
0, 0, 48, 265.6625671386719
0, 0, 49, 273.3053283691406
0, 0, 50, 250.7295684814453
0, 0, 51, 255.0106353759766
0, 0, 52, 272.256103515625
0, 0, 53, 291.0050964355469
0, 0, 54, 243.1881561279297
0, 0, 55, 240.1158752441406
0, 0, 56, 276.7211303710938
0, 0, 57, 264.6126098632812
0, 0, 58, 247.3986206054688
0, 0, 59, 273.233642578125
0, 0, 60, 235.1005706787109
0, 0, 61, 244.6328887939453
0, 0, 62, 258.7789001464844
0, 0, 63, 269.8840026855469
0, 0, 64, 254.5928039550781
0, 0, 65, 261.1295166015625
0, 0, 66, 277.1397399902344
0, 0, 67, 248.6067962646484
0, 0, 68, 258.1089782714844
0, 0, 69, 260.354248046875
0, 0, 70, 274.5559387207031
0, 0, 71, 237.2654113769531
0, 0, 72, 250.5736694335938
0, 0, 73, 258.6704711914062
0, 0, 74, 251.1946716308594
0, 0, 75, 242.8889007568359
0, 0, 76, 229.8926544189453
0, 0, 77, 260.4256286621094
0, 0, 78, 257.6099853515625
0, 0, 79, 277.9122314453125
0, 0, 80, 216.6011657714844
0, 0, 81, 268.8995361328125
0, 0, 82, 256.32080078125
0, 0, 83, 245.9759368896484
0, 0, 84, 270.3461303710938
0, 0, 85, 231.8723754882812
0, 0, 86, 255.3346405029297
0, 0, 87, 251.0840606689453
0, 0, 88, 259.4782409667969
0, 0, 89, 283.7049255371094
0, 0, 90, 242.9334106445312
0, 0, 91, 280.5293884277344
0, 0, 92, 252.3378753662109
0, 0, 93, 249.3820037841797
0, 0, 94, 249.1204833984375
0, 0, 95, 247.7303009033203
0, 0, 96, 274.599365234375
0, 0, 97, 273.6504516601562
0, 0, 98, 274.285888671875
0, 0, 99, 257.5887756347656
0, 0, 100, 258.5269470214844
0, 0, 101, 226.9380187988281
0, 0, 102, 232.003173828125
0, 0, 103, 269.2400817871094
0, 0, 104, 253.7521514892578
0, 0, 105, 252.5514221191406
0, 0, 106, 245.5686187744141
0, 0, 107, 151.8929138183594
0, 0, 108, 37.8830451965332
0, 0, 109, 11.44359874725342
0, 0, 110, 12.99668121337891
0, 0, 111, 8.697829246520996
0, 0, 112, 7.438266277313232
0, 0, 113, 4.714570045471191
0, 0, 114, 7.004593372344971
0, 0, 115, 5.541569709777832
0, 0, 116, 5.136482238769531
0, 0, 117, 5.3034348487854
0, 0, 118, 6.166357517242432
0, 0, 119, 4.119207859039307
0, 0, 120, 3.594830989837646
0, 0, 121, 4.446303367614746
0, 0, 122, 5.711667537689209
0, 0, 123, 3.042950630187988
0, 0, 124, 5.942280769348145
0, 0, 125, 3.978121757507324
0, 0, 126, 3.738337755203247
0, 0, 127, 5.053940773010254
0, 1, 0, 7.041602611541748
0, 1, 1, 6.130836486816406
0, 1, 2, 4.483083724975586
0, 1, 3, 1.804134726524353
0, 1, 4, 5.230911254882812
0, 1, 5, 4.509469509124756
0, 1, 6, 5.331563472747803
0, 1, 7, 5.241947174072266
0, 1, 8, 8.037214279174805
0, 1, 9, 5.577901840209961
0, 1, 10, 6.404779434204102
0, 1, 11, 10.92524909973145
0, 1, 12, 7.701886177062988
0, 1, 13, 8.577219009399414
0, 1, 14, 7.068792343139648
0, 1, 15, 9.341741561889648
0, 1, 16, 12.18925476074219
0, 1, 17, 10.42926979064941
0, 1, 18, 21.8759880065918
0, 1, 19, 67.13967895507812
0, 1, 20, 199.3730926513672
0, 1, 21, 256.9168090820312
0, 1, 22, 297.6800842285156
0, 1, 23, 283.2117614746094
0, 1, 24, 275.3044128417969
0, 1, 25, 288.0646667480469
0, 1, 26, 268.4890747070312
0, 1, 27, 305.8251647949219
0, 1, 28, 298.5207214355469
0, 1, 29, 295.6367797851562
0, 1, 30, 280.02880859375
0, 1, 31, 290.7033996582031
0, 1, 32, 289.7902526855469
0, 1, 33, 299.5337829589844
0, 1, 34, 292.492431640625
0, 1, 35, 279.5668029785156
0, 1, 36, 306.0272827148438
0, 1, 37, 295.5927734375
0, 1, 38, 280.4966125488281
0, 1, 39, 299.1792602539062
0, 1, 40, 265.4454040527344
0, 1, 41, 286.6743774414062
0, 1, 42, 289.21142578125
0, 1, 43, 331.3817443847656
0, 1, 44, 278.7841796875
0, 1, 45, 292.6356811523438
0, 1, 46, 262.0557556152344
0, 1, 47, 309.1987609863281
0, 1, 48, 285.255859375
0, 1, 49, 302.8476867675781
0, 1, 50, 263.87939453125
0, 1, 51, 273.0759887695312
0, 1, 52, 294.6119995117188
0, 1, 53, 304.9547729492188
0, 1, 54, 273.5748901367188
0, 1, 55, 292.7734375
0, 1, 56, 277.2198486328125
0, 1, 57, 299.5917358398438
0, 1, 58, 310.4542846679688
0, 1, 59, 289.6717224121094
0, 1, 60, 297.3027648925781
0, 1, 61, 274.442626953125
0, 1, 62, 309.6024780273438
0, 1, 63, 288.2915344238281
0, 1, 64, 287.4732666015625
0, 1, 65, 294.7293090820312
0, 1, 66, 291.6353149414062
0, 1, 67, 291.2666931152344
0, 1, 68, 278.7337036132812
0, 1, 69, 279.55908203125
0, 1, 70, 271.7212524414062
0, 1, 71, 272.3155212402344
0, 1, 72, 284.457275390625
0, 1, 73, 303.8464050292969
0, 1, 74, 303.1032104492188
0, 1, 75, 294.7099609375
0, 1, 76, 285.1808776855469
0, 1, 77, 289.54248046875
0, 1, 78, 294.9148559570312
0, 1, 79, 302.1965942382812
0, 1, 80, 294.3169555664062
0, 1, 81, 299.9671020507812
0, 1, 82, 285.1730651855469
0, 1, 83, 331.5900573730469
0, 1, 84, 308.3551940917969
0, 1, 85, 251.5807342529297
0, 1, 86, 296.099609375
0, 1, 87, 289.5650024414062
0, 1, 88, 297.2573547363281
0, 1, 89, 288.607421875
0, 1, 90, 270.0151062011719
0, 1, 91, 317.8701477050781
0, 1, 92, 292.1300354003906
0, 1, 93, 285.370361328125
0, 1, 94, 304.0093994140625
0, 1, 95, 283.6884155273438
0, 1, 96, 282.7766723632812
0, 1, 97, 298.8660278320312
0, 1, 98, 280.0629272460938
0, 1, 99, 266.951904296875
0, 1, 100, 276.9173278808594
0, 1, 101, 281.9939880371094
0, 1, 102, 277.837158203125
0, 1, 103, 282.8839111328125
0, 1, 104, 306.14453125
0, 1, 105, 296.3773498535156
0, 1, 106, 261.2562255859375
0, 1, 107, 191.0734252929688
0, 1, 108, 80.28627777099609
0, 1, 109, 22.96417236328125
0, 1, 110, 11.95473766326904
0, 1, 111, 7.62931489944458
0, 1, 112, 11.13632488250732
0, 1, 113, 4.934229850769043
0, 1, 114, 5.887807846069336
0, 1, 115, 7.032088279724121
0, 1, 116, 10.87926006317139
0, 1, 117, 5.69414234161377
0, 1, 118, 5.022412776947021
0, 1, 119, 5.157333850860596
0, 1, 120, 4.772408008575439
0, 1, 121, 4.139639854431152
0, 1, 122, 1.825739860534668
0, 1, 123, 5.656625747680664
0, 1, 124, 8.49330997467041
0, 1, 125, 3.031296014785767
0, 1, 126, 2.780218839645386
0, 1, 127, 1.761814117431641
0, 2, 0, 4.236542224884033
0, 2, 1, 3.665730237960815
0, 2, 2, 5.206535339355469
0, 2, 3, 6.389121055603027
0, 2, 4, 2.006170988082886
0, 2, 5, 1.471474766731262
0, 2, 6, 1.895853757858276
0, 2, 7, 4.34522533416748
0, 2, 8, 4.580513477325439
0, 2, 9, 6.188570022583008
0, 2, 10, 8.475547790527344
0, 2, 11, 6.042805671691895
0, 2, 12, 7.848123550415039
0, 2, 13, 11.52680206298828
0, 2, 14, 10.029372215271
0, 2, 15, 7.511987209320068
0, 2, 16, 11.99749946594238
0, 2, 17, 19.64206504821777
0, 2, 18, 30.72402572631836
0, 2, 19, 117.4883346557617
0, 2, 20, 245.5254364013672
0, 2, 21, 270.7998352050781
0, 2, 22, 317.0685424804688
0, 2, 23, 300.0201416015625
0, 2, 24, 289.2244567871094
0, 2, 25, 301.1528015136719
0, 2, 26, 294.7363586425781
0, 2, 27, 275.5014953613281
0, 2, 28, 272.88818359375
0, 2, 29, 274.688232421875
0, 2, 30, 288.1262512207031
0, 2, 31, 278.3500061035156
0, 2, 32, 293.6233215332031
0, 2, 33, 281.7747192382812
0, 2, 34, 331.79150390625
0, 2, 35, 290.2494812011719
0, 2, 36, 304.2734375
0, 2, 37, 314.8176879882812
0, 2, 38, 309.7242736816406
0, 2, 39, 265.3195495605469
0, 2, 40, 309.3321533203125
0, 2, 41, 292.9260559082031
0, 2, 42, 302.9312438964844
0, 2, 43, 311.2039794921875
0, 2, 44, 312.8327331542969
0, 2, 45, 325.3960876464844
0, 2, 46, 286.5530700683594
0, 2, 47, 302.9688415527344
0, 2, 48, 280.7107543945312
0, 2, 49, 278.7643127441406
0, 2, 50, 293.2216186523438
0, 2, 51, 283.8486633300781
0, 2, 52, 271.7857360839844
0, 2, 53, 287.4676513671875
0, 2, 54, 281.3725280761719
0, 2, 55, 275.3213195800781
0, 2, 56, 301.975341796875
0, 2, 57, 290.4125671386719
0, 2, 58, 302.3916015625
0, 2, 59, 288.0021667480469
0, 2, 60, 319.8473510742188
0, 2, 61, 304.1351013183594
0, 2, 62, 316.8591003417969
0, 2, 63, 302.9512634277344
0, 2, 64, 297.8906555175781
0, 2, 65, 314.4601135253906
0, 2, 66, 282.3346862792969
0, 2, 67, 291.6851501464844
0, 2, 68, 296.7253112792969
0, 2, 69, 311.968017578125
0, 2, 70, 333.2890014648438
0, 2, 71, 284.0313720703125
0, 2, 72, 301.9474792480469
0, 2, 73, 311.08740234375
0, 2, 74, 286.8031921386719
0, 2, 75, 305.444580078125
0, 2, 76, 287.45849609375
0, 2, 77, 301.4174194335938
0, 2, 78, 316.2051391601562
0, 2, 79, 308.13623046875
0, 2, 80, 297.0393981933594
0, 2, 81, 281.9005126953125
0, 2, 82, 320.0957641601562
0, 2, 83, 312.9866333007812
0, 2, 84, 288.1410827636719
0, 2, 85, 283.2674865722656
0, 2, 86, 324.8466186523438
0, 2, 87, 286.6683349609375
0, 2, 88, 279.2325439453125
0, 2, 89, 298.1404418945312
0, 2, 90, 295.5941467285156
0, 2, 91, 277.0960693359375
0, 2, 92, 304.1687927246094
0, 2, 93, 318.1880187988281
0, 2, 94, 292.3380737304688
0, 2, 95, 315.5290832519531
0, 2, 96, 313.9925842285156
0, 2, 97, 291.1399230957031
0, 2, 98, 292.5514831542969
0, 2, 99, 274.1454162597656
0, 2, 100, 305.1169738769531
0, 2, 101, 300.2134399414062
0, 2, 102, 297.9546203613281
0, 2, 103, 293.1905517578125
0, 2, 104, 292.5462036132812
0, 2, 105, 274.5790100097656
0, 2, 106, 298.4969482421875
0, 2, 107, 270.814208984375
0, 2, 108, 116.5717468261719
0, 2, 109, 30.8546257019043
0, 2, 110, 9.469676971435547
0, 2, 111, 13.75271701812744
0, 2, 112, 7.518865585327148
0, 2, 113, 10.19952297210693
0, 2, 114, 9.739806175231934
0, 2, 115, 8.566032409667969
0, 2, 116, 8.845433235168457
0, 2, 117, 7.072385311126709
0, 2, 118, 2.581348180770874
0, 2, 119, 4.394508838653564
0, 2, 120, 6.35407543182373
0, 2, 121, 2.302730798721313
0, 2, 122, 3.736896991729736
0, 2, 123, 5.802643775939941
0, 2, 124, 6.243464946746826
0, 2, 125, 6.135190963745117
0, 2, 126, 4.855226516723633
0, 2, 127, 5.01963472366333
0, 3, 0, 3.915681123733521
0, 3, 1, 3.211076498031616
0, 3, 2, 4.638092994689941
0, 3, 3, 1.567200541496277
0, 3, 4, 3.3035888671875
0, 3, 5, 7.486061096191406
0, 3, 6, 7.25560188293457
0, 3, 7, 5.876688003540039
0, 3, 8, 5.99938440322876
0, 3, 9, 9.287714958190918
0, 3, 10, 6.941291809082031
0, 3, 11, 2.80914568901062
0, 3, 12, 12.12485790252686
0, 3, 13, 15.12127208709717
0, 3, 14, 10.86788654327393
0, 3, 15, 14.26628875732422
0, 3, 16, 11.69015026092529
0, 3, 17, 21.16923904418945
0, 3, 18, 50.35208129882812
0, 3, 19, 176.567138671875
0, 3, 20, 270.5457763671875
0, 3, 21, 271.820556640625
0, 3, 22, 283.3423156738281
0, 3, 23, 287.2828674316406
0, 3, 24, 286.4172668457031
0, 3, 25, 271.8071899414062
0, 3, 26, 307.2315979003906
0, 3, 27, 294.3430786132812
0, 3, 28, 282.84619140625
0, 3, 29, 337.6423034667969
0, 3, 30, 319.3064575195312
0, 3, 31, 286.9541625976562
0, 3, 32, 308.3710021972656
0, 3, 33, 313.3598022460938
0, 3, 34, 324.4934692382812
0, 3, 35, 306.2236328125
0, 3, 36, 270.1907043457031
0, 3, 37, 317.0343017578125
0, 3, 38, 305.8224487304688
0, 3, 39, 290.1936340332031
0, 3, 40, 266.2114868164062
0, 3, 41, 299.2151794433594
0, 3, 42, 287.4540405273438
0, 3, 43, 305.4395751953125
0, 3, 44, 310.5224304199219
0, 3, 45, 290.5418395996094
0, 3, 46, 330.1151428222656
0, 3, 47, 300.4422607421875
0, 3, 48, 304.4583740234375
0, 3, 49, 278.8792419433594
0, 3, 50, 289.4001159667969
0, 3, 51, 275.5321350097656
0, 3, 52, 315.4189147949219
0, 3, 53, 290.1589660644531
0, 3, 54, 285.446533203125
0, 3, 55, 282.3916625976562
0, 3, 56, 296.9242248535156
0, 3, 57, 287.2778625488281
0, 3, 58, 304.9961547851562
0, 3, 59, 294.5892333984375
0, 3, 60, 297.423095703125
0, 3, 61, 264.7626037597656
0, 3, 62, 284.5378723144531
0, 3, 63, 308.2452392578125
0, 3, 64, 316.8532104492188
0, 3, 65, 305.1785278320312
0, 3, 66, 314.972900390625
0, 3, 67, 317.6864013671875
0, 3, 68, 279.3342895507812
0, 3, 69, 284.3339538574219
0, 3, 70, 292.5838928222656
0, 3, 71, 299.2417907714844
0, 3, 72, 270.9558715820312
0, 3, 73, 308.6036987304688
0, 3, 74, 295.4158630371094
0, 3, 75, 289.4308471679688
0, 3, 76, 305.0854187011719
0, 3, 77, 313.2536010742188
0, 3, 78, 304.1247253417969
0, 3, 79, 281.2516174316406
0, 3, 80, 292.3022766113281
0, 3, 81, 311.9736328125
0, 3, 82, 315.2414855957031
0, 3, 83, 300.36572265625
0, 3, 84, 312.0159301757812
0, 3, 85, 293.3668823242188
0, 3, 86, 302.7544860839844
0, 3, 87, 297.7940063476562
0, 3, 88, 299.9408874511719
0, 3, 89, 299.0238952636719
0, 3, 90, 276.0321655273438
0, 3, 91, 286.1659545898438
0, 3, 92, 305.7265930175781
0, 3, 93, 312.3224182128906
0, 3, 94, 297.2802429199219
0, 3, 95, 334.2970886230469
0, 3, 96, 290.8588256835938
0, 3, 97, 285.8563842773438
0, 3, 98, 277.005615234375
0, 3, 99, 265.1326293945312
0, 3, 100, 285.8762512207031
0, 3, 101, 297.9594116210938
0, 3, 102, 274.8808288574219
0, 3, 103, 320.76025390625
0, 3, 104, 308.7353820800781
0, 3, 105, 288.2377624511719
0, 3, 106, 303.4852600097656
0, 3, 107, 281.9735412597656
0, 3, 108, 168.1597137451172
0, 3, 109, 58.39656066894531
0, 3, 110, 17.53518486022949
0, 3, 111, 13.1978006362915
0, 3, 112, 13.67921924591064
0, 3, 113, 6.247194766998291
0, 3, 114, 9.852269172668457
0, 3, 115, 8.632737159729004
0, 3, 116, 11.18318271636963
0, 3, 117, 8.915270805358887
0, 3, 118, 9.07064151763916
0, 3, 119, 5.746308326721191
0, 3, 120, 7.884154796600342
0, 3, 121, 1.919481635093689
0, 3, 122, 4.528228759765625
0, 3, 123, 6.082841873168945
0, 3, 124, 1.946767687797546
0, 3, 125, 5.131480693817139
0, 3, 126, 5.425867080688477
0, 3, 127, 1.85777223110199
0, 4, 0, 3.632544279098511
0, 4, 1, 4.994263648986816
0, 4, 2, 2.660431146621704
0, 4, 3, 1.830849289894104
0, 4, 4, 6.953428268432617
0, 4, 5, 7.971945285797119
0, 4, 6, 6.178828239440918
0, 4, 7, 4.699709415435791
0, 4, 8, 3.412652015686035
0, 4, 9, 7.635833740234375
0, 4, 10, 9.731063842773438
0, 4, 11, 7.907675743103027
0, 4, 12, 7.767534255981445
0, 4, 13, 9.596748352050781
0, 4, 14, 15.15236186981201
0, 4, 15, 9.919780731201172
0, 4, 16, 13.91031360626221
0, 4, 17, 20.9116382598877
0, 4, 18, 93.91615295410156
0, 4, 19, 224.8868865966797
0, 4, 20, 284.7408142089844
0, 4, 21, 272.2436218261719
0, 4, 22, 304.7314147949219
0, 4, 23, 267.2864685058594
0, 4, 24, 288.6194763183594
0, 4, 25, 273.6125793457031
0, 4, 26, 295.2192687988281
0, 4, 27, 283.2024536132812
0, 4, 28, 307.6436767578125
0, 4, 29, 321.5561218261719
0, 4, 30, 308.9393615722656
0, 4, 31, 304.6689758300781
0, 4, 32, 280.51708984375
0, 4, 33, 297.5453491210938
0, 4, 34, 296.425537109375
0, 4, 35, 312.650146484375
0, 4, 36, 294.2734375
0, 4, 37, 287.759033203125
0, 4, 38, 296.5639038085938
0, 4, 39, 295.5350646972656
0, 4, 40, 302.9525451660156
0, 4, 41, 314.5265502929688
0, 4, 42, 329.692626953125
0, 4, 43, 296.9109497070312
0, 4, 44, 321.4694519042969
0, 4, 45, 325.0399780273438
0, 4, 46, 305.4867248535156
0, 4, 47, 292.8808288574219
0, 4, 48, 297.0979919433594
0, 4, 49, 277.9814147949219
0, 4, 50, 296.2614135742188
0, 4, 51, 316.345947265625
0, 4, 52, 327.5930786132812
0, 4, 53, 304.902099609375
0, 4, 54, 286.4364013671875
0, 4, 55, 316.1930847167969
0, 4, 56, 288.3580017089844
0, 4, 57, 311.1917419433594
0, 4, 58, 295.3185119628906
0, 4, 59, 308.11767578125
0, 4, 60, 300.9144287109375
0, 4, 61, 316.2126159667969
0, 4, 62, 306.6357421875
0, 4, 63, 298.9852600097656
0, 4, 64, 329.967529296875
0, 4, 65, 316.2315673828125
0, 4, 66, 294.3727722167969
0, 4, 67, 284.4424438476562
0, 4, 68, 314.0313720703125
0, 4, 69, 275.3202819824219
0, 4, 70, 299.8504028320312
0, 4, 71, 320.9007873535156
0, 4, 72, 330.6225280761719
0, 4, 73, 299.7568664550781
0, 4, 74, 292.3831176757812
0, 4, 75, 291.0891723632812
0, 4, 76, 275.3008422851562
0, 4, 77, 278.0706176757812
0, 4, 78, 311.1949157714844
0, 4, 79, 319.0054626464844
0, 4, 80, 315.7619934082031
0, 4, 81, 311.0755310058594
0, 4, 82, 297.8167114257812
0, 4, 83, 302.3193359375
0, 4, 84, 291.2425537109375
0, 4, 85, 296.512939453125
0, 4, 86, 299.491455078125
0, 4, 87, 284.4313354492188
0, 4, 88, 308.0498352050781
0, 4, 89, 296.522216796875
0, 4, 90, 331.9526672363281
0, 4, 91, 301.0503234863281
0, 4, 92, 288.7673950195312
0, 4, 93, 297.1961975097656
0, 4, 94, 291.790771484375
0, 4, 95, 287.6473693847656
0, 4, 96, 325.2022705078125
0, 4, 97, 273.0790710449219
0, 4, 98, 327.5518493652344
0, 4, 99, 314.5586242675781
0, 4, 100, 301.5273742675781
0, 4, 101, 257.9757690429688
0, 4, 102, 297.2596740722656
0, 4, 103, 317.0106506347656
0, 4, 104, 284.2596435546875
0, 4, 105, 309.2398071289062
0, 4, 106, 287.3098449707031
0, 4, 107, 296.3451538085938
0, 4, 108, 225.3827667236328
0, 4, 109, 79.98300933837891
0, 4, 110, 15.47872447967529
0, 4, 111, 13.53109073638916
0, 4, 112, 8.220857620239258
0, 4, 113, 9.314211845397949
0, 4, 114, 8.279457092285156
0, 4, 115, 10.08579158782959
0, 4, 116, 9.495701789855957
0, 4, 117, 6.674506187438965
0, 4, 118, 9.181714057922363
0, 4, 119, 9.462989807128906
0, 4, 120, 4.28960132598877
0, 4, 121, 6.666656494140625
0, 4, 122, 5.371365547180176
0, 4, 123, 6.116852283477783
0, 4, 124, 3.946807146072388
0, 4, 125, 10.44326210021973
0, 4, 126, 6.275533199310303
0, 4, 127, 3.816077709197998
0, 5, 0, 3.335185050964355
0, 5, 1, 3.485312700271606
0, 5, 2, 4.041609287261963
0, 5, 3, 3.757606267929077
0, 5, 4, 6.576761245727539
0, 5, 5, 7.03623628616333
0, 5, 6, 5.207534313201904
0, 5, 7, 5.63553524017334
0, 5, 8, 6.326088905334473
0, 5, 9, 4.76270866394043
0, 5, 10, 10.45865726470947
0, 5, 11, 7.192922115325928
0, 5, 12, 7.26267671585083
0, 5, 13, 8.3597412109375
0, 5, 14, 14.99974250793457
0, 5, 15, 16.45538139343262
0, 5, 16, 13.42359161376953
0, 5, 17, 29.49637222290039
0, 5, 18, 139.0622253417969
0, 5, 19, 287.9751586914062
0, 5, 20, 306.6722106933594
0, 5, 21, 317.4887084960938
0, 5, 22, 275.3845825195312
0, 5, 23, 309.8864440917969
0, 5, 24, 301.6098022460938
0, 5, 25, 288.8023681640625
0, 5, 26, 294.440673828125
0, 5, 27, 321.5478515625
0, 5, 28, 303.7447204589844
0, 5, 29, 297.6318359375
0, 5, 30, 324.4862670898438
0, 5, 31, 285.8874816894531
0, 5, 32, 301.1289367675781
0, 5, 33, 304.3204040527344
0, 5, 34, 297.1322326660156
0, 5, 35, 308.5264282226562
0, 5, 36, 268.294189453125
0, 5, 37, 282.0022888183594
0, 5, 38, 291.8361206054688
0, 5, 39, 310.8959045410156
0, 5, 40, 308.241943359375
0, 5, 41, 273.3246154785156
0, 5, 42, 305.9884643554688
0, 5, 43, 313.4764099121094
0, 5, 44, 292.4070129394531
0, 5, 45, 300.6569213867188
0, 5, 46, 264.0567321777344
0, 5, 47, 279.6368713378906
0, 5, 48, 294.497802734375
0, 5, 49, 285.2805480957031
0, 5, 50, 295.2523498535156
0, 5, 51, 279.9066467285156
0, 5, 52, 268.546142578125
0, 5, 53, 283.847900390625
0, 5, 54, 291.7410888671875
0, 5, 55, 344.3224182128906
0, 5, 56, 305.9369506835938
0, 5, 57, 308.1102905273438
0, 5, 58, 313.3992309570312
0, 5, 59, 303.4520263671875
0, 5, 60, 309.1627197265625
0, 5, 61, 281.6364440917969
0, 5, 62, 328.9787902832031
0, 5, 63, 292.1124267578125
0, 5, 64, 323.4363403320312
0, 5, 65, 307.6905822753906
0, 5, 66, 328.8784790039062
0, 5, 67, 312.3607177734375
0, 5, 68, 308.6072998046875
0, 5, 69, 312.1569519042969
0, 5, 70, 301.9232482910156
0, 5, 71, 272.0188903808594
0, 5, 72, 309.6261596679688
0, 5, 73, 302.7710571289062
0, 5, 74, 294.5977478027344
0, 5, 75, 294.2691955566406
0, 5, 76, 286.5644226074219
0, 5, 77, 298.90185546875
0, 5, 78, 315.8443603515625
0, 5, 79, 306.9348754882812
0, 5, 80, 296.285888671875
0, 5, 81, 327.7798156738281
0, 5, 82, 322.9942932128906
0, 5, 83, 279.7005615234375
0, 5, 84, 301.52001953125
0, 5, 85, 270.0912780761719
0, 5, 86, 326.3222045898438
0, 5, 87, 283.3138427734375
0, 5, 88, 312.9820251464844
0, 5, 89, 305.5625915527344
0, 5, 90, 318.5597229003906
0, 5, 91, 314.2227172851562
0, 5, 92, 295.0327453613281
0, 5, 93, 322.9646911621094
0, 5, 94, 311.7667846679688
0, 5, 95, 297.9481811523438
0, 5, 96, 299.0551147460938
0, 5, 97, 297.146240234375
0, 5, 98, 318.3652648925781
0, 5, 99, 301.607666015625
0, 5, 100, 290.5216979980469
0, 5, 101, 306.3585815429688
0, 5, 102, 294.5445556640625
0, 5, 103, 313.1839904785156
0, 5, 104, 302.3021850585938
0, 5, 105, 292.2497863769531
0, 5, 106, 282.4816589355469
0, 5, 107, 293.1204833984375
0, 5, 108, 265.8868103027344
0, 5, 109, 159.4029541015625
0, 5, 110, 41.46360778808594
0, 5, 111, 21.48388671875
0, 5, 112, 17.31599807739258
0, 5, 113, 17.09970664978027
0, 5, 114, 12.67408752441406
0, 5, 115, 7.63437557220459
0, 5, 116, 8.464710235595703
0, 5, 117, 6.262935638427734
0, 5, 118, 15.60941982269287
0, 5, 119, 3.53583288192749
0, 5, 120, 6.447062015533447
0, 5, 121, 6.051342487335205
0, 5, 122, 6.886741638183594
0, 5, 123, 6.250204563140869
0, 5, 124, 5.591259479522705
0, 5, 125, 3.878052949905396
0, 5, 126, 5.650569915771484
0, 5, 127, 1.985158324241638
0, 6, 0, 4.184615612030029
0, 6, 1, 3.547374725341797
0, 6, 2, 4.711891651153564
0, 6, 3, 5.135481834411621
0, 6, 4, 4.167835235595703
0, 6, 5, 5.46354341506958
0, 6, 6, 10.05784606933594
0, 6, 7, 4.468298435211182
0, 6, 8, 9.236056327819824
0, 6, 9, 5.360077381134033
0, 6, 10, 8.562968254089355
0, 6, 11, 8.225829124450684
0, 6, 12, 8.942831993103027
0, 6, 13, 14.06071281433105
0, 6, 14, 9.249244689941406
0, 6, 15, 18.32238006591797
0, 6, 16, 29.09515953063965
0, 6, 17, 54.90000915527344
0, 6, 18, 172.9264678955078
0, 6, 19, 277.0591735839844
0, 6, 20, 290.5100708007812
0, 6, 21, 314.8778991699219
0, 6, 22, 318.9324645996094
0, 6, 23, 305.217041015625
0, 6, 24, 316.7955627441406
0, 6, 25, 315.7465515136719
0, 6, 26, 321.2431030273438
0, 6, 27, 330.5641479492188
0, 6, 28, 294.329833984375
0, 6, 29, 329.5636596679688
0, 6, 30, 282.2955932617188
0, 6, 31, 286.3798522949219
0, 6, 32, 339.0855407714844
0, 6, 33, 298.8634033203125
0, 6, 34, 340.2893371582031
0, 6, 35, 321.0874938964844
0, 6, 36, 274.5577392578125
0, 6, 37, 290.0071716308594
0, 6, 38, 314.1162719726562
0, 6, 39, 298.9641418457031
0, 6, 40, 283.423828125
0, 6, 41, 294.4332275390625
0, 6, 42, 302.7820434570312
0, 6, 43, 289.9993591308594
0, 6, 44, 280.633056640625
0, 6, 45, 319.6543884277344
0, 6, 46, 301.7113647460938
0, 6, 47, 332.8249206542969
0, 6, 48, 292.8519592285156
0, 6, 49, 311.5695495605469
0, 6, 50, 327.6901245117188
0, 6, 51, 310.5420227050781
0, 6, 52, 321.251220703125
0, 6, 53, 327.5568237304688
0, 6, 54, 305.0310974121094
0, 6, 55, 306.3705139160156
0, 6, 56, 294.4664916992188
0, 6, 57, 312.5371398925781
0, 6, 58, 262.3512268066406
0, 6, 59, 302.6954345703125
0, 6, 60, 313.9536743164062
0, 6, 61, 270.8572082519531
0, 6, 62, 335.5077514648438
0, 6, 63, 324.3788452148438
0, 6, 64, 292.4217529296875
0, 6, 65, 284.588134765625
0, 6, 66, 302.0598449707031
0, 6, 67, 309.2569885253906
0, 6, 68, 293.5195922851562
0, 6, 69, 279.2168579101562
0, 6, 70, 273.0372924804688
0, 6, 71, 288.6560363769531
0, 6, 72, 309.2340087890625
0, 6, 73, 293.813720703125
0, 6, 74, 329.9613037109375
0, 6, 75, 342.9897155761719
0, 6, 76, 298.3689575195312
0, 6, 77, 286.8625183105469
0, 6, 78, 279.3866271972656
0, 6, 79, 292.7203674316406
0, 6, 80, 298.697021484375
0, 6, 81, 314.4043273925781
0, 6, 82, 320.7411193847656
0, 6, 83, 320.3460693359375
0, 6, 84, 297.0907897949219
0, 6, 85, 302.1509094238281
0, 6, 86, 329.1971435546875
0, 6, 87, 293.1265869140625
0, 6, 88, 306.432373046875
0, 6, 89, 303.9134216308594
0, 6, 90, 300.2881164550781
0, 6, 91, 312.8820495605469
0, 6, 92, 284.0083923339844
0, 6, 93, 297.8873596191406
0, 6, 94, 273.7136840820312
0, 6, 95, 301.6199340820312
0, 6, 96, 351.3769226074219
0, 6, 97, 308.0213012695312
0, 6, 98, 301.4895629882812
0, 6, 99, 270.8342590332031
0, 6, 100, 310.62451171875
0, 6, 101, 292.983642578125
0, 6, 102, 306.2769165039062
0, 6, 103, 307.92822265625
0, 6, 104, 294.2029418945312
0, 6, 105, 301.5394287109375
0, 6, 106, 310.8743896484375
0, 6, 107, 309.523193359375
0, 6, 108, 265.6723937988281
0, 6, 109, 185.2689208984375
0, 6, 110, 57.13350296020508
0, 6, 111, 21.46028327941895
0, 6, 112, 13.68202209472656
0, 6, 113, 11.34432125091553
0, 6, 114, 11.98141479492188
0, 6, 115, 11.24580383300781
0, 6, 116, 11.78333377838135
0, 6, 117, 6.611645221710205
0, 6, 118, 9.810910224914551
0, 6, 119, 8.57301139831543
0, 6, 120, 6.281261444091797
0, 6, 121, 6.931235790252686
0, 6, 122, 6.654609203338623
0, 6, 123, 6.832334518432617
0, 6, 124, 8.060771942138672
0, 6, 125, 7.449353694915771
0, 6, 126, 5.00148344039917
0, 6, 127, 7.650565147399902
0, 7, 0, 5.955601692199707
0, 7, 1, 3.211400270462036
0, 7, 2, 6.258980274200439
0, 7, 3, 4.693351745605469
0, 7, 4, 3.185235977172852
0, 7, 5, 4.999045848846436
0, 7, 6, 5.39265251159668
0, 7, 7, 6.403811454772949
0, 7, 8, 8.727300643920898
0, 7, 9, 6.593398571014404
0, 7, 10, 9.092535972595215
0, 7, 11, 10.98470592498779
0, 7, 12, 9.132216453552246
0, 7, 13, 13.06400775909424
0, 7, 14, 11.16817188262939
0, 7, 15, 17.32108688354492
0, 7, 16, 25.50275421142578
0, 7, 17, 98.33649444580078
0, 7, 18, 217.3667602539062
0, 7, 19, 288.4632873535156
0, 7, 20, 298.1404113769531
0, 7, 21, 277.7122802734375
0, 7, 22, 298.1171875
0, 7, 23, 288.6677551269531
0, 7, 24, 314.1879272460938
0, 7, 25, 325.2339477539062
0, 7, 26, 277.0093994140625
0, 7, 27, 298.76513671875
0, 7, 28, 325.9438171386719
0, 7, 29, 319.1762084960938
0, 7, 30, 300.4678955078125
0, 7, 31, 276.5699768066406
0, 7, 32, 306.4408569335938
0, 7, 33, 263.4372863769531
0, 7, 34, 299.1106262207031
0, 7, 35, 319.5433349609375
0, 7, 36, 330.9998168945312
0, 7, 37, 323.3617248535156
0, 7, 38, 298.7552185058594
0, 7, 39, 307.5001525878906
0, 7, 40, 294.6986999511719
0, 7, 41, 274.7287292480469
0, 7, 42, 300.1278076171875
0, 7, 43, 274.2207336425781
0, 7, 44, 308.1602478027344
0, 7, 45, 296.6487426757812
0, 7, 46, 284.206298828125
0, 7, 47, 329.7677917480469
0, 7, 48, 287.1506958007812
0, 7, 49, 303.1048889160156
0, 7, 50, 320.3910827636719
0, 7, 51, 298.7816467285156
0, 7, 52, 325.6388549804688
0, 7, 53, 311.6825256347656
0, 7, 54, 323.4017944335938
0, 7, 55, 306.676513671875
0, 7, 56, 280.5323486328125
0, 7, 57, 284.9740600585938
0, 7, 58, 296.6141357421875
0, 7, 59, 295.4000549316406
0, 7, 60, 321.9571838378906
0, 7, 61, 281.1679077148438
0, 7, 62, 296.9210510253906
0, 7, 63, 293.6151123046875
0, 7, 64, 305.2147827148438
0, 7, 65, 328.9922180175781
0, 7, 66, 318.1028747558594
0, 7, 67, 300.6121826171875
0, 7, 68, 279.2525634765625
0, 7, 69, 294.4664001464844
0, 7, 70, 302.0290222167969
0, 7, 71, 310.6519165039062
0, 7, 72, 287.0993041992188
0, 7, 73, 296.259765625
0, 7, 74, 345.533203125
0, 7, 75, 319.7940673828125
0, 7, 76, 322.1519165039062
0, 7, 77, 281.6083068847656
0, 7, 78, 300.4006652832031
0, 7, 79, 297.2993774414062
0, 7, 80, 310.4872741699219
0, 7, 81, 320.9270935058594
0, 7, 82, 327.5255432128906
0, 7, 83, 319.6787414550781
0, 7, 84, 309.4566040039062
0, 7, 85, 272.5412902832031
0, 7, 86, 310.9686889648438
0, 7, 87, 308.3230590820312
0, 7, 88, 308.2149353027344
0, 7, 89, 298.1555480957031
0, 7, 90, 305.81396484375
0, 7, 91, 313.4667053222656
0, 7, 92, 288.9078369140625
0, 7, 93, 306.7791137695312
0, 7, 94, 273.9207458496094
0, 7, 95, 297.3232727050781
0, 7, 96, 332.6270141601562
0, 7, 97, 295.3919982910156
0, 7, 98, 290.1347351074219
0, 7, 99, 310.9111633300781
0, 7, 100, 281.0445251464844
0, 7, 101, 275.2764892578125
0, 7, 102, 289.7617492675781
0, 7, 103, 290.9976806640625
0, 7, 104, 274.698974609375
0, 7, 105, 306.2290954589844
0, 7, 106, 317.9215698242188
0, 7, 107, 297.1625061035156
0, 7, 108, 271.9884948730469
0, 7, 109, 237.4785308837891
0, 7, 110, 97.00897979736328
0, 7, 111, 23.51655769348145
0, 7, 112, 14.80679321289062
0, 7, 113, 13.55811405181885
0, 7, 114, 13.06064033508301
0, 7, 115, 12.07219886779785
0, 7, 116, 6.881954193115234
0, 7, 117, 8.488953590393066
0, 7, 118, 10.14657402038574
0, 7, 119, 5.617002964019775
0, 7, 120, 4.768951416015625
0, 7, 121, 5.372682094573975
0, 7, 122, 6.721722602844238
0, 7, 123, 5.946557521820068
0, 7, 124, 3.302936553955078
0, 7, 125, 5.930899143218994
0, 7, 126, 9.836949348449707
0, 7, 127, 3.003911733627319
0, 8, 0, 6.212645053863525
0, 8, 1, 4.84643030166626
0, 8, 2, 3.965591430664062
0, 8, 3, 4.160584926605225
0, 8, 4, 4.835110664367676
0, 8, 5, 4.626286506652832
0, 8, 6, 8.278844833374023
0, 8, 7, 4.932976722717285
0, 8, 8, 10.14755439758301
0, 8, 9, 4.419562339782715
0, 8, 10, 5.896315097808838
0, 8, 11, 13.48497200012207
0, 8, 12, 13.71792030334473
0, 8, 13, 13.42088413238525
0, 8, 14, 13.26963520050049
0, 8, 15, 18.6085033416748
0, 8, 16, 32.95430755615234
0, 8, 17, 130.5650177001953
0, 8, 18, 241.4781341552734
0, 8, 19, 295.2693481445312
0, 8, 20, 285.7733459472656
0, 8, 21, 306.667724609375
0, 8, 22, 294.9226379394531
0, 8, 23, 274.7303466796875
0, 8, 24, 268.1019897460938
0, 8, 25, 274.8427429199219
0, 8, 26, 306.0670471191406
0, 8, 27, 306.6495361328125
0, 8, 28, 303.5780639648438
0, 8, 29, 318.2176208496094
0, 8, 30, 316.5349731445312
0, 8, 31, 304.3167724609375
0, 8, 32, 281.1572265625
0, 8, 33, 294.6384582519531
0, 8, 34, 287.2050170898438
0, 8, 35, 281.6404418945312
0, 8, 36, 314.5835876464844
0, 8, 37, 338.7197570800781
0, 8, 38, 331.083984375
0, 8, 39, 280.8607177734375
0, 8, 40, 303.4225463867188
0, 8, 41, 291.5692138671875
