# TOPAS Version: 3.1.p3
# Parameter File: batch_inserts_94.txt
# Results for scorer Readout_Adipose
# Scored in component: MyBox
# X in 1 bin  of 0.75 cm
# Y in 512 bins of 0.0783984 cm
# Z in 128 bins of 0.078125 cm
# EnergyDeposit ( MeV ) : Sum   
0, 0, 0, 3.560137987136841
0, 0, 1, 1.657491445541382
0, 0, 2, 3.520354032516479
0, 0, 3, 2.878971576690674
0, 0, 4, 5.860827445983887
0, 0, 5, 2.237852334976196
0, 0, 6, 7.750043869018555
0, 0, 7, 11.28249549865723
0, 0, 8, 2.163458824157715
0, 0, 9, 4.94249439239502
0, 0, 10, 6.718611240386963
0, 0, 11, 4.176697731018066
0, 0, 12, 4.070406913757324
0, 0, 13, 9.952082633972168
0, 0, 14, 7.068193912506104
0, 0, 15, 10.0868034362793
0, 0, 16, 8.806070327758789
0, 0, 17, 10.84547233581543
0, 0, 18, 13.14795970916748
0, 0, 19, 47.71121978759766
0, 0, 20, 139.0434417724609
0, 0, 21, 224.0555114746094
0, 0, 22, 249.3735198974609
0, 0, 23, 256.4521179199219
0, 0, 24, 251.5021057128906
0, 0, 25, 257.9460144042969
0, 0, 26, 234.3701629638672
0, 0, 27, 237.6543579101562
0, 0, 28, 271.8060913085938
0, 0, 29, 252.5107879638672
0, 0, 30, 233.6319885253906
0, 0, 31, 245.3879852294922
0, 0, 32, 265.0286560058594
0, 0, 33, 260.3008728027344
0, 0, 34, 286.2635803222656
0, 0, 35, 266.4666137695312
0, 0, 36, 246.0654144287109
0, 0, 37, 251.4519805908203
0, 0, 38, 269.5575866699219
0, 0, 39, 228.7672119140625
0, 0, 40, 241.9149017333984
0, 0, 41, 265.4408874511719
0, 0, 42, 228.8681182861328
0, 0, 43, 258.0674438476562
0, 0, 44, 250.3669891357422
0, 0, 45, 254.1163635253906
0, 0, 46, 243.8749542236328
0, 0, 47, 253.804443359375
0, 0, 48, 269.6192016601562
0, 0, 49, 275.3521118164062
0, 0, 50, 250.6961517333984
0, 0, 51, 255.6646881103516
0, 0, 52, 272.3001403808594
0, 0, 53, 291.5064697265625
0, 0, 54, 242.0530395507812
0, 0, 55, 241.3874206542969
0, 0, 56, 277.2762451171875
0, 0, 57, 263.0457458496094
0, 0, 58, 245.2312469482422
0, 0, 59, 272.2517395019531
0, 0, 60, 233.9787750244141
0, 0, 61, 246.2773132324219
0, 0, 62, 258.5156555175781
0, 0, 63, 268.3990173339844
0, 0, 64, 257.7189025878906
0, 0, 65, 260.4064025878906
0, 0, 66, 277.8099670410156
0, 0, 67, 247.5209503173828
0, 0, 68, 259.22900390625
0, 0, 69, 263.5282592773438
0, 0, 70, 274.2989196777344
0, 0, 71, 236.3605651855469
0, 0, 72, 250.00537109375
0, 0, 73, 258.5949096679688
0, 0, 74, 251.0465393066406
0, 0, 75, 240.7668914794922
0, 0, 76, 230.0996398925781
0, 0, 77, 259.9298095703125
0, 0, 78, 255.1753234863281
0, 0, 79, 276.376708984375
0, 0, 80, 215.4150543212891
0, 0, 81, 267.3595581054688
0, 0, 82, 256.404541015625
0, 0, 83, 244.8935394287109
0, 0, 84, 272.0437622070312
0, 0, 85, 230.6655120849609
0, 0, 86, 253.1534729003906
0, 0, 87, 249.1360015869141
0, 0, 88, 260.5118408203125
0, 0, 89, 282.8124084472656
0, 0, 90, 243.0240936279297
0, 0, 91, 281.6737976074219
0, 0, 92, 253.7739562988281
0, 0, 93, 249.03515625
0, 0, 94, 250.4257049560547
0, 0, 95, 247.8584899902344
0, 0, 96, 275.0599975585938
0, 0, 97, 272.4212036132812
0, 0, 98, 274.8246765136719
0, 0, 99, 258.7645568847656
0, 0, 100, 257.7187805175781
0, 0, 101, 225.9681396484375
0, 0, 102, 231.4757080078125
0, 0, 103, 270.6454162597656
0, 0, 104, 252.8325347900391
0, 0, 105, 253.0215606689453
0, 0, 106, 246.0629577636719
0, 0, 107, 152.7572784423828
0, 0, 108, 39.4299430847168
0, 0, 109, 12.5405969619751
0, 0, 110, 11.66150093078613
0, 0, 111, 10.0358304977417
0, 0, 112, 6.82069730758667
0, 0, 113, 5.345205783843994
0, 0, 114, 5.840573310852051
0, 0, 115, 6.249398231506348
0, 0, 116, 5.219882011413574
0, 0, 117, 5.056621074676514
0, 0, 118, 5.991967678070068
0, 0, 119, 4.622899532318115
0, 0, 120, 5.998194217681885
0, 0, 121, 4.016190528869629
0, 0, 122, 3.526226758956909
0, 0, 123, 3.996446371078491
0, 0, 124, 5.487833023071289
0, 0, 125, 4.04921817779541
0, 0, 126, 3.179078578948975
0, 0, 127, 2.687159299850464
0, 1, 0, 9.584531784057617
0, 1, 1, 3.271469116210938
0, 1, 2, 5.703212738037109
0, 1, 3, 2.024321556091309
0, 1, 4, 3.106943368911743
0, 1, 5, 3.473873853683472
0, 1, 6, 5.173429012298584
0, 1, 7, 3.025377035140991
0, 1, 8, 8.295064926147461
0, 1, 9, 4.356072902679443
0, 1, 10, 7.137914657592773
0, 1, 11, 13.2462682723999
0, 1, 12, 8.262171745300293
0, 1, 13, 10.01371097564697
0, 1, 14, 7.452836990356445
0, 1, 15, 8.183999061584473
0, 1, 16, 11.11460876464844
0, 1, 17, 10.85637664794922
0, 1, 18, 19.96153259277344
0, 1, 19, 67.32891845703125
0, 1, 20, 196.3742980957031
0, 1, 21, 254.1737365722656
0, 1, 22, 294.4270324707031
0, 1, 23, 283.3663024902344
0, 1, 24, 274.0663146972656
0, 1, 25, 286.8001403808594
0, 1, 26, 268.0137939453125
0, 1, 27, 305.8363037109375
0, 1, 28, 300.3458251953125
0, 1, 29, 296.3546447753906
0, 1, 30, 280.0709228515625
0, 1, 31, 291.3414306640625
0, 1, 32, 292.0405578613281
0, 1, 33, 295.7192077636719
0, 1, 34, 293.5602111816406
0, 1, 35, 278.4898681640625
0, 1, 36, 307.8900451660156
0, 1, 37, 296.1965637207031
0, 1, 38, 279.3981628417969
0, 1, 39, 296.2008056640625
0, 1, 40, 268.7325439453125
0, 1, 41, 285.9697265625
0, 1, 42, 290.0428161621094
0, 1, 43, 332.3557739257812
0, 1, 44, 278.6239318847656
0, 1, 45, 292.4580383300781
0, 1, 46, 259.3047180175781
0, 1, 47, 310.1546630859375
0, 1, 48, 283.00341796875
0, 1, 49, 303.0541381835938
0, 1, 50, 263.0612182617188
0, 1, 51, 273.8757019042969
0, 1, 52, 298.5211791992188
0, 1, 53, 305.1004943847656
0, 1, 54, 274.2124938964844
0, 1, 55, 298.0589294433594
0, 1, 56, 277.3307495117188
0, 1, 57, 298.6920776367188
0, 1, 58, 311.2608947753906
0, 1, 59, 292.842041015625
0, 1, 60, 297.5414123535156
0, 1, 61, 274.0737609863281
0, 1, 62, 306.7422485351562
0, 1, 63, 286.2539672851562
0, 1, 64, 288.5892944335938
0, 1, 65, 294.0046691894531
0, 1, 66, 291.9918212890625
0, 1, 67, 292.0200500488281
0, 1, 68, 277.383544921875
0, 1, 69, 280.4091796875
0, 1, 70, 269.4301452636719
0, 1, 71, 273.7056274414062
0, 1, 72, 285.7472839355469
0, 1, 73, 305.0654296875
0, 1, 74, 302.9820251464844
0, 1, 75, 291.6661071777344
0, 1, 76, 285.4577026367188
0, 1, 77, 288.7767944335938
0, 1, 78, 299.5714416503906
0, 1, 79, 301.1515502929688
0, 1, 80, 296.4561462402344
0, 1, 81, 300.5159606933594
0, 1, 82, 282.5003662109375
0, 1, 83, 334.8446655273438
0, 1, 84, 308.6511840820312
0, 1, 85, 253.3577880859375
0, 1, 86, 295.0928344726562
0, 1, 87, 291.5513916015625
0, 1, 88, 298.3542785644531
0, 1, 89, 288.7539672851562
0, 1, 90, 270.3761291503906
0, 1, 91, 320.181396484375
0, 1, 92, 291.2786560058594
0, 1, 93, 285.8326721191406
0, 1, 94, 303.7552795410156
0, 1, 95, 283.4098510742188
0, 1, 96, 282.0522766113281
0, 1, 97, 302.703857421875
0, 1, 98, 278.741455078125
0, 1, 99, 266.1401977539062
0, 1, 100, 277.6297912597656
0, 1, 101, 280.6860961914062
0, 1, 102, 276.3854675292969
0, 1, 103, 281.0493469238281
0, 1, 104, 305.4082641601562
0, 1, 105, 297.2962646484375
0, 1, 106, 263.3087768554688
0, 1, 107, 190.9052581787109
0, 1, 108, 81.18486785888672
0, 1, 109, 24.12444305419922
0, 1, 110, 12.16076278686523
0, 1, 111, 8.51182746887207
0, 1, 112, 13.21187782287598
0, 1, 113, 5.718321323394775
0, 1, 114, 5.508203983306885
0, 1, 115, 6.137464046478271
0, 1, 116, 10.03162288665771
0, 1, 117, 6.179446220397949
0, 1, 118, 4.549549102783203
0, 1, 119, 8.984834671020508
0, 1, 120, 7.029060840606689
0, 1, 121, 5.14155387878418
0, 1, 122, 2.991185426712036
0, 1, 123, 5.153661727905273
0, 1, 124, 9.729223251342773
0, 1, 125, 6.445871829986572
0, 1, 126, 3.189731597900391
0, 1, 127, 1.74818754196167
0, 2, 0, 3.52511191368103
0, 2, 1, 1.393246650695801
0, 2, 2, 3.452474594116211
0, 2, 3, 5.163791656494141
0, 2, 4, 2.883071660995483
0, 2, 5, 1.971912860870361
0, 2, 6, 2.528931140899658
0, 2, 7, 4.454348087310791
0, 2, 8, 6.074156284332275
0, 2, 9, 4.279373645782471
0, 2, 10, 7.940764427185059
0, 2, 11, 5.544971942901611
0, 2, 12, 8.024111747741699
0, 2, 13, 10.91110134124756
0, 2, 14, 8.56609058380127
0, 2, 15, 9.29045295715332
0, 2, 16, 8.91484546661377
0, 2, 17, 16.76191329956055
0, 2, 18, 28.99201011657715
0, 2, 19, 116.9597549438477
0, 2, 20, 244.8273010253906
0, 2, 21, 272.4057922363281
0, 2, 22, 314.9721069335938
0, 2, 23, 299.7781677246094
0, 2, 24, 287.9664916992188
0, 2, 25, 303.7440185546875
0, 2, 26, 293.4816284179688
0, 2, 27, 275.1112365722656
0, 2, 28, 273.7213439941406
0, 2, 29, 274.8663330078125
0, 2, 30, 292.4681396484375
0, 2, 31, 276.9451904296875
0, 2, 32, 294.2323913574219
0, 2, 33, 282.0942077636719
0, 2, 34, 333.7969970703125
0, 2, 35, 289.1672058105469
0, 2, 36, 304.8983459472656
0, 2, 37, 316.487548828125
0, 2, 38, 312.7774963378906
0, 2, 39, 265.92236328125
0, 2, 40, 307.6948547363281
0, 2, 41, 290.5030822753906
0, 2, 42, 303.8052062988281
0, 2, 43, 313.6358642578125
0, 2, 44, 313.4591064453125
0, 2, 45, 324.5096740722656
0, 2, 46, 287.3727722167969
0, 2, 47, 303.6131286621094
0, 2, 48, 281.4828491210938
0, 2, 49, 277.0932312011719
0, 2, 50, 294.0472717285156
0, 2, 51, 285.677490234375
0, 2, 52, 271.6156921386719
0, 2, 53, 288.6211853027344
0, 2, 54, 280.3367309570312
0, 2, 55, 275.8489379882812
0, 2, 56, 301.2032775878906
0, 2, 57, 292.2937622070312
0, 2, 58, 303.3094787597656
0, 2, 59, 289.8443908691406
0, 2, 60, 319.3662109375
0, 2, 61, 302.0564575195312
0, 2, 62, 313.8257446289062
0, 2, 63, 301.2514953613281
0, 2, 64, 295.5516662597656
0, 2, 65, 314.2004699707031
0, 2, 66, 281.4094848632812
0, 2, 67, 290.0865783691406
0, 2, 68, 296.13330078125
0, 2, 69, 310.8224182128906
0, 2, 70, 334.8526611328125
0, 2, 71, 285.3903503417969
0, 2, 72, 299.3087463378906
0, 2, 73, 311.1442260742188
0, 2, 74, 286.7267150878906
0, 2, 75, 305.8947143554688
0, 2, 76, 286.7016296386719
0, 2, 77, 298.4856262207031
0, 2, 78, 314.1673278808594
0, 2, 79, 308.9131164550781
0, 2, 80, 296.7369995117188
0, 2, 81, 281.7652587890625
0, 2, 82, 318.4627075195312
0, 2, 83, 312.6341857910156
0, 2, 84, 286.9572143554688
0, 2, 85, 281.7848205566406
0, 2, 86, 323.8176879882812
0, 2, 87, 287.4583435058594
0, 2, 88, 281.2437744140625
0, 2, 89, 295.7213745117188
0, 2, 90, 295.6880493164062
0, 2, 91, 274.5127868652344
0, 2, 92, 305.9028930664062
0, 2, 93, 319.3943481445312
0, 2, 94, 293.1716918945312
0, 2, 95, 314.1815795898438
0, 2, 96, 315.1164245605469
0, 2, 97, 293.0993347167969
0, 2, 98, 293.5655212402344
0, 2, 99, 272.2900390625
0, 2, 100, 306.2093200683594
0, 2, 101, 300.4262084960938
0, 2, 102, 296.3472290039062
0, 2, 103, 293.7593688964844
0, 2, 104, 293.2137756347656
0, 2, 105, 272.7619323730469
0, 2, 106, 296.98486328125
0, 2, 107, 268.0877075195312
0, 2, 108, 116.0683441162109
0, 2, 109, 32.24232482910156
0, 2, 110, 9.625182151794434
0, 2, 111, 10.48184585571289
0, 2, 112, 8.796836853027344
0, 2, 113, 11.52220916748047
0, 2, 114, 9.385579109191895
0, 2, 115, 8.835840225219727
0, 2, 116, 9.525304794311523
0, 2, 117, 8.783862113952637
0, 2, 118, 4.039090156555176
0, 2, 119, 3.997207641601562
0, 2, 120, 5.385347843170166
0, 2, 121, 4.959280014038086
0, 2, 122, 4.213111877441406
0, 2, 123, 7.041278839111328
0, 2, 124, 2.710259675979614
0, 2, 125, 5.720338821411133
0, 2, 126, 5.425293445587158
0, 2, 127, 6.586205959320068
0, 3, 0, 2.105003595352173
0, 3, 1, 2.973616361618042
0, 3, 2, 4.483051300048828
0, 3, 3, 1.262704133987427
0, 3, 4, 3.718308448791504
0, 3, 5, 8.366327285766602
0, 3, 6, 6.051345825195312
0, 3, 7, 6.131370067596436
0, 3, 8, 4.774566650390625
0, 3, 9, 5.739270210266113
0, 3, 10, 7.226448059082031
0, 3, 11, 4.874700546264648
0, 3, 12, 7.197291374206543
0, 3, 13, 16.58539199829102
0, 3, 14, 11.80622577667236
0, 3, 15, 13.28390979766846
0, 3, 16, 10.51497745513916
0, 3, 17, 19.27980804443359
0, 3, 18, 53.7840461730957
0, 3, 19, 177.8438873291016
0, 3, 20, 268.78857421875
0, 3, 21, 270.8269653320312
0, 3, 22, 281.6144714355469
0, 3, 23, 287.4136962890625
0, 3, 24, 285.7661743164062
0, 3, 25, 274.4577941894531
0, 3, 26, 304.3351135253906
0, 3, 27, 292.77783203125
0, 3, 28, 279.0926818847656
0, 3, 29, 336.9519653320312
0, 3, 30, 317.8511657714844
0, 3, 31, 284.6669616699219
0, 3, 32, 307.2808837890625
0, 3, 33, 313.7805480957031
0, 3, 34, 321.4303283691406
0, 3, 35, 306.3702697753906
0, 3, 36, 271.3964233398438
0, 3, 37, 314.8186950683594
0, 3, 38, 304.1433715820312
0, 3, 39, 291.1536254882812
0, 3, 40, 271.4299011230469
0, 3, 41, 299.0515747070312
0, 3, 42, 285.7232360839844
0, 3, 43, 306.530517578125
0, 3, 44, 309.8787536621094
0, 3, 45, 289.6622924804688
0, 3, 46, 327.6675109863281
0, 3, 47, 298.9851989746094
0, 3, 48, 305.8167724609375
0, 3, 49, 276.4513549804688
0, 3, 50, 290.8123474121094
0, 3, 51, 277.2165222167969
0, 3, 52, 315.5686645507812
0, 3, 53, 287.8332214355469
0, 3, 54, 283.42578125
0, 3, 55, 283.528564453125
0, 3, 56, 297.9938049316406
0, 3, 57, 290.4106140136719
0, 3, 58, 305.8751525878906
0, 3, 59, 294.5407409667969
0, 3, 60, 297.7160339355469
0, 3, 61, 264.529541015625
0, 3, 62, 285.976318359375
0, 3, 63, 306.89111328125
0, 3, 64, 317.0048217773438
0, 3, 65, 303.8659362792969
0, 3, 66, 314.1539306640625
0, 3, 67, 320.4803466796875
0, 3, 68, 281.0776672363281
0, 3, 69, 283.507080078125
0, 3, 70, 290.112060546875
0, 3, 71, 300.3065185546875
0, 3, 72, 270.3509826660156
0, 3, 73, 307.1528930664062
0, 3, 74, 294.2555236816406
0, 3, 75, 289.8162841796875
0, 3, 76, 308.1693725585938
0, 3, 77, 316.4379577636719
0, 3, 78, 305.4510192871094
0, 3, 79, 282.0384216308594
0, 3, 80, 290.7132263183594
0, 3, 81, 311.1693420410156
0, 3, 82, 315.6307373046875
0, 3, 83, 300.0785522460938
0, 3, 84, 311.5657653808594
0, 3, 85, 293.6698303222656
0, 3, 86, 302.14794921875
0, 3, 87, 298.1328125
0, 3, 88, 297.7867736816406
0, 3, 89, 296.5450134277344
0, 3, 90, 275.0227661132812
0, 3, 91, 286.2094116210938
0, 3, 92, 302.9134216308594
0, 3, 93, 312.8119506835938
0, 3, 94, 298.0824890136719
0, 3, 95, 334.8297424316406
0, 3, 96, 289.3312072753906
0, 3, 97, 284.4325866699219
0, 3, 98, 277.5639953613281
0, 3, 99, 261.0461120605469
0, 3, 100, 283.6962280273438
0, 3, 101, 297.2666320800781
0, 3, 102, 275.4352111816406
0, 3, 103, 320.1869506835938
0, 3, 104, 309.0367431640625
0, 3, 105, 289.6069030761719
0, 3, 106, 301.3105773925781
0, 3, 107, 282.1277465820312
0, 3, 108, 166.5629119873047
0, 3, 109, 56.99857330322266
0, 3, 110, 19.74029541015625
0, 3, 111, 14.27549076080322
0, 3, 112, 13.25788021087646
0, 3, 113, 6.979114532470703
0, 3, 114, 9.933744430541992
0, 3, 115, 7.550606250762939
0, 3, 116, 10.17765331268311
0, 3, 117, 5.694768905639648
0, 3, 118, 5.499248504638672
0, 3, 119, 4.254029273986816
0, 3, 120, 5.431988716125488
0, 3, 121, 2.854251623153687
0, 3, 122, 2.851114511489868
0, 3, 123, 4.801664352416992
0, 3, 124, 4.635108947753906
0, 3, 125, 5.951308727264404
0, 3, 126, 5.6877760887146
0, 3, 127, 3.060080051422119
0, 4, 0, 4.052062034606934
0, 4, 1, 4.845826625823975
0, 4, 2, 4.005862236022949
0, 4, 3, 1.728679299354553
0, 4, 4, 7.421934604644775
0, 4, 5, 10.28084087371826
0, 4, 6, 6.923665523529053
0, 4, 7, 6.975151062011719
0, 4, 8, 5.378961086273193
0, 4, 9, 6.560072422027588
0, 4, 10, 10.46329975128174
0, 4, 11, 7.622543811798096
0, 4, 12, 5.420504093170166
0, 4, 13, 9.047723770141602
0, 4, 14, 10.86101722717285
0, 4, 15, 9.161517143249512
0, 4, 16, 13.33150196075439
0, 4, 17, 18.7020149230957
0, 4, 18, 94.66889190673828
0, 4, 19, 220.3761138916016
0, 4, 20, 284.3509216308594
0, 4, 21, 273.1659240722656
0, 4, 22, 305.2588195800781
0, 4, 23, 266.9818725585938
0, 4, 24, 288.85888671875
0, 4, 25, 273.1436462402344
0, 4, 26, 294.5783386230469
0, 4, 27, 283.1265869140625
0, 4, 28, 306.3337707519531
0, 4, 29, 325.203857421875
0, 4, 30, 311.7037658691406
0, 4, 31, 303.790771484375
0, 4, 32, 281.6140747070312
0, 4, 33, 295.1427001953125
0, 4, 34, 299.6573486328125
0, 4, 35, 312.9873352050781
0, 4, 36, 293.5122680664062
0, 4, 37, 286.8084411621094
0, 4, 38, 298.814208984375
0, 4, 39, 298.7224731445312
0, 4, 40, 300.9814147949219
0, 4, 41, 310.489013671875
0, 4, 42, 330.5921630859375
0, 4, 43, 296.4918212890625
0, 4, 44, 323.8563842773438
0, 4, 45, 322.1307678222656
0, 4, 46, 304.6271057128906
0, 4, 47, 292.353515625
0, 4, 48, 295.1747741699219
0, 4, 49, 278.0986938476562
0, 4, 50, 297.3162231445312
0, 4, 51, 315.2524108886719
0, 4, 52, 326.6572265625
0, 4, 53, 303.83984375
0, 4, 54, 288.1355895996094
0, 4, 55, 313.3501892089844
0, 4, 56, 287.3655395507812
0, 4, 57, 309.5408630371094
0, 4, 58, 297.2997741699219
0, 4, 59, 311.1479187011719
0, 4, 60, 300.5620422363281
0, 4, 61, 316.7681274414062
0, 4, 62, 308.615966796875
0, 4, 63, 297.3111267089844
0, 4, 64, 328.5966491699219
0, 4, 65, 317.9367980957031
0, 4, 66, 293.4607849121094
0, 4, 67, 285.1665954589844
0, 4, 68, 311.712646484375
0, 4, 69, 275.640625
0, 4, 70, 299.0016174316406
0, 4, 71, 321.2452392578125
0, 4, 72, 334.7134094238281
0, 4, 73, 300.1717224121094
0, 4, 74, 295.4869079589844
0, 4, 75, 290.1015014648438
0, 4, 76, 274.7255249023438
0, 4, 77, 277.2745361328125
0, 4, 78, 309.1676330566406
0, 4, 79, 317.7091064453125
0, 4, 80, 314.9441528320312
0, 4, 81, 314.031494140625
0, 4, 82, 298.2764587402344
0, 4, 83, 301.9176940917969
0, 4, 84, 293.8098449707031
0, 4, 85, 293.3209533691406
0, 4, 86, 296.9842834472656
0, 4, 87, 285.4980773925781
0, 4, 88, 306.9299926757812
0, 4, 89, 295.8450927734375
0, 4, 90, 333.1358947753906
0, 4, 91, 302.2479553222656
0, 4, 92, 291.6569213867188
0, 4, 93, 298.5230102539062
0, 4, 94, 293.0032958984375
0, 4, 95, 290.8352355957031
0, 4, 96, 324.8963623046875
0, 4, 97, 272.6654052734375
0, 4, 98, 328.1412048339844
0, 4, 99, 313.9188537597656
0, 4, 100, 301.4695739746094
0, 4, 101, 259.15869140625
0, 4, 102, 296.6085510253906
0, 4, 103, 316.9920959472656
0, 4, 104, 281.9581909179688
0, 4, 105, 309.3605651855469
0, 4, 106, 286.9311218261719
0, 4, 107, 295.7662048339844
0, 4, 108, 227.3165283203125
0, 4, 109, 82.33319091796875
0, 4, 110, 17.64873504638672
0, 4, 111, 14.27180862426758
0, 4, 112, 8.722468376159668
0, 4, 113, 9.082322120666504
0, 4, 114, 7.629739761352539
0, 4, 115, 12.05074310302734
0, 4, 116, 11.07185935974121
0, 4, 117, 5.350008964538574
0, 4, 118, 10.99113941192627
0, 4, 119, 12.58235549926758
0, 4, 120, 9.016782760620117
0, 4, 121, 3.298746824264526
0, 4, 122, 4.698821544647217
0, 4, 123, 5.47976016998291
0, 4, 124, 6.215186595916748
0, 4, 125, 6.561709880828857
0, 4, 126, 4.507089614868164
0, 4, 127, 4.659423828125
0, 5, 0, 3.407790660858154
0, 5, 1, 5.571841239929199
0, 5, 2, 5.314692974090576
0, 5, 3, 4.721897125244141
0, 5, 4, 6.792362689971924
0, 5, 5, 5.866867065429688
0, 5, 6, 6.198849201202393
0, 5, 7, 4.375688076019287
0, 5, 8, 4.270450592041016
0, 5, 9, 4.167022228240967
0, 5, 10, 5.849898338317871
0, 5, 11, 8.724221229553223
0, 5, 12, 7.629293918609619
0, 5, 13, 7.688812255859375
0, 5, 14, 12.59808540344238
0, 5, 15, 15.49568557739258
0, 5, 16, 14.41230201721191
0, 5, 17, 29.70415687561035
0, 5, 18, 137.6586303710938
0, 5, 19, 288.0699768066406
0, 5, 20, 305.8678588867188
0, 5, 21, 316.8921203613281
0, 5, 22, 276.13916015625
0, 5, 23, 309.3614196777344
0, 5, 24, 301.1455383300781
0, 5, 25, 288.2062683105469
0, 5, 26, 294.1175537109375
0, 5, 27, 321.0895385742188
0, 5, 28, 305.0825805664062
0, 5, 29, 298.7257385253906
0, 5, 30, 325.1911010742188
0, 5, 31, 286.6363830566406
0, 5, 32, 302.9348449707031
0, 5, 33, 304.7900085449219
0, 5, 34, 297.6814880371094
0, 5, 35, 309.8380126953125
0, 5, 36, 269.011474609375
0, 5, 37, 281.4859313964844
0, 5, 38, 292.7874145507812
0, 5, 39, 311.0588684082031
0, 5, 40, 309.9699096679688
0, 5, 41, 275.7705688476562
0, 5, 42, 304.0011596679688
0, 5, 43, 316.8163146972656
0, 5, 44, 291.7189025878906
0, 5, 45, 303.1404418945312
0, 5, 46, 267.4199523925781
0, 5, 47, 281.3058776855469
0, 5, 48, 293.3558349609375
0, 5, 49, 284.2619018554688
0, 5, 50, 293.0938720703125
0, 5, 51, 281.0360107421875
0, 5, 52, 269.9087219238281
0, 5, 53, 284.4310913085938
0, 5, 54, 293.6466979980469
0, 5, 55, 343.9386901855469
0, 5, 56, 308.2821044921875
0, 5, 57, 309.3617248535156
0, 5, 58, 314.5409545898438
0, 5, 59, 303.5025939941406
0, 5, 60, 307.6812744140625
0, 5, 61, 280.4538879394531
0, 5, 62, 324.0267639160156
0, 5, 63, 289.1284484863281
0, 5, 64, 326.1035461425781
0, 5, 65, 309.3871765136719
0, 5, 66, 328.0468444824219
0, 5, 67, 310.8778381347656
0, 5, 68, 306.9330444335938
0, 5, 69, 310.2296752929688
0, 5, 70, 300.1094665527344
0, 5, 71, 276.5405883789062
0, 5, 72, 307.790283203125
0, 5, 73, 302.0108947753906
0, 5, 74, 295.0905456542969
0, 5, 75, 294.5664978027344
0, 5, 76, 287.5168762207031
0, 5, 77, 302.1072387695312
0, 5, 78, 311.9100952148438
0, 5, 79, 307.3057250976562
0, 5, 80, 295.3708801269531
0, 5, 81, 326.8714904785156
0, 5, 82, 323.0649719238281
0, 5, 83, 281.1022338867188
0, 5, 84, 302.9120788574219
0, 5, 85, 271.9135131835938
0, 5, 86, 325.1905517578125
0, 5, 87, 284.63671875
0, 5, 88, 315.7296447753906
0, 5, 89, 307.1107788085938
0, 5, 90, 315.1832885742188
0, 5, 91, 315.3246154785156
0, 5, 92, 297.326904296875
0, 5, 93, 324.5648498535156
0, 5, 94, 308.5687255859375
0, 5, 95, 295.4597778320312
0, 5, 96, 295.9481811523438
0, 5, 97, 296.2578125
0, 5, 98, 319.3282470703125
0, 5, 99, 305.2512512207031
0, 5, 100, 291.9088134765625
0, 5, 101, 304.8334045410156
0, 5, 102, 294.6717834472656
0, 5, 103, 312.8722839355469
0, 5, 104, 301.986328125
0, 5, 105, 293.2462768554688
0, 5, 106, 280.7392578125
0, 5, 107, 293.2235717773438
0, 5, 108, 266.447265625
0, 5, 109, 157.2190399169922
0, 5, 110, 40.51637268066406
0, 5, 111, 20.92367553710938
0, 5, 112, 17.07711791992188
0, 5, 113, 17.78598403930664
0, 5, 114, 12.20004081726074
0, 5, 115, 7.077261924743652
0, 5, 116, 7.065048217773438
0, 5, 117, 5.664859771728516
0, 5, 118, 12.35054779052734
0, 5, 119, 4.784888744354248
0, 5, 120, 4.976914405822754
0, 5, 121, 6.707291603088379
0, 5, 122, 4.830424308776855
0, 5, 123, 3.760551929473877
0, 5, 124, 5.475419998168945
0, 5, 125, 2.981442928314209
0, 5, 126, 5.597019195556641
0, 5, 127, 3.099457502365112
0, 6, 0, 5.007312297821045
0, 6, 1, 3.724849462509155
0, 6, 2, 5.102077484130859
0, 6, 3, 5.939997673034668
0, 6, 4, 4.209270477294922
0, 6, 5, 6.343204975128174
0, 6, 6, 6.446761608123779
0, 6, 7, 5.474034309387207
0, 6, 8, 8.988700866699219
0, 6, 9, 6.715657234191895
0, 6, 10, 8.464199066162109
0, 6, 11, 10.19488525390625
0, 6, 12, 11.76684284210205
0, 6, 13, 13.66728496551514
0, 6, 14, 7.639858722686768
0, 6, 15, 16.67838096618652
0, 6, 16, 29.39064598083496
0, 6, 17, 56.59897994995117
0, 6, 18, 172.8537292480469
0, 6, 19, 275.4629516601562
0, 6, 20, 292.1389465332031
0, 6, 21, 314.04833984375
0, 6, 22, 318.9205932617188
0, 6, 23, 306.8014526367188
0, 6, 24, 317.6220092773438
0, 6, 25, 316.3420104980469
0, 6, 26, 319.3734436035156
0, 6, 27, 330.9974670410156
0, 6, 28, 297.9226684570312
0, 6, 29, 329.2644653320312
0, 6, 30, 281.1763610839844
0, 6, 31, 286.0872497558594
0, 6, 32, 343.013427734375
0, 6, 33, 298.4718322753906
0, 6, 34, 341.3570861816406
0, 6, 35, 321.2402954101562
0, 6, 36, 273.2755126953125
0, 6, 37, 292.2938232421875
0, 6, 38, 311.4135437011719
0, 6, 39, 298.5220031738281
0, 6, 40, 284.7422485351562
0, 6, 41, 296.0342712402344
0, 6, 42, 303.9122314453125
0, 6, 43, 291.8429870605469
0, 6, 44, 280.8067626953125
0, 6, 45, 321.1310119628906
0, 6, 46, 302.2172546386719
0, 6, 47, 331.971923828125
0, 6, 48, 292.3235168457031
0, 6, 49, 311.786865234375
0, 6, 50, 328.8204956054688
0, 6, 51, 311.2767333984375
0, 6, 52, 319.5558776855469
0, 6, 53, 326.7413024902344
0, 6, 54, 303.283447265625
0, 6, 55, 305.8184204101562
0, 6, 56, 293.4476928710938
0, 6, 57, 314.555908203125
0, 6, 58, 262.0093994140625
0, 6, 59, 301.7844848632812
0, 6, 60, 313.0392456054688
0, 6, 61, 271.8739013671875
0, 6, 62, 334.5459594726562
0, 6, 63, 323.2739868164062
0, 6, 64, 291.9996032714844
0, 6, 65, 285.5169067382812
0, 6, 66, 302.0408935546875
0, 6, 67, 311.7698974609375
0, 6, 68, 294.5348205566406
0, 6, 69, 279.7550354003906
0, 6, 70, 275.1183471679688
0, 6, 71, 287.9952697753906
0, 6, 72, 311.30322265625
0, 6, 73, 294.8385925292969
0, 6, 74, 330.5722045898438
0, 6, 75, 343.9496154785156
0, 6, 76, 300.2786560058594
0, 6, 77, 284.4920349121094
0, 6, 78, 278.4137573242188
0, 6, 79, 292.8612670898438
0, 6, 80, 299.9635009765625
0, 6, 81, 316.0195007324219
0, 6, 82, 321.3570251464844
0, 6, 83, 320.6386108398438
0, 6, 84, 294.9220886230469
0, 6, 85, 300.3311462402344
0, 6, 86, 329.7886962890625
0, 6, 87, 289.3394470214844
0, 6, 88, 307.2846069335938
0, 6, 89, 306.9241638183594
0, 6, 90, 302.2360229492188
0, 6, 91, 312.7449645996094
0, 6, 92, 283.502197265625
0, 6, 93, 296.3739929199219
0, 6, 94, 272.009033203125
0, 6, 95, 299.0868225097656
0, 6, 96, 348.6590881347656
0, 6, 97, 307.5105590820312
0, 6, 98, 300.2613220214844
0, 6, 99, 270.5389099121094
0, 6, 100, 308.8056335449219
0, 6, 101, 293.3038330078125
0, 6, 102, 309.2037353515625
0, 6, 103, 307.7344970703125
0, 6, 104, 292.3871154785156
0, 6, 105, 301.69580078125
0, 6, 106, 306.6127624511719
0, 6, 107, 304.9911804199219
0, 6, 108, 265.0971374511719
0, 6, 109, 185.1179504394531
0, 6, 110, 54.81489181518555
0, 6, 111, 21.98308372497559
0, 6, 112, 13.1766185760498
0, 6, 113, 10.57486343383789
0, 6, 114, 12.5302677154541
0, 6, 115, 11.88381767272949
0, 6, 116, 12.66926574707031
0, 6, 117, 8.801325798034668
0, 6, 118, 11.37635517120361
0, 6, 119, 9.65650463104248
0, 6, 120, 5.403201580047607
0, 6, 121, 8.472217559814453
0, 6, 122, 9.642163276672363
0, 6, 123, 3.659554004669189
0, 6, 124, 8.35295581817627
0, 6, 125, 5.874656200408936
0, 6, 126, 3.223085165023804
0, 6, 127, 5.868358612060547
0, 7, 0, 3.091747999191284
0, 7, 1, 3.790487766265869
0, 7, 2, 5.962974071502686
0, 7, 3, 3.952584028244019
0, 7, 4, 5.242369651794434
0, 7, 5, 6.458108901977539
0, 7, 6, 10.23504734039307
0, 7, 7, 6.363881587982178
0, 7, 8, 6.114693164825439
0, 7, 9, 7.608211517333984
0, 7, 10, 10.64135646820068
0, 7, 11, 10.82474994659424
0, 7, 12, 10.17717361450195
0, 7, 13, 13.66218948364258
0, 7, 14, 11.19293212890625
0, 7, 15, 17.69355010986328
0, 7, 16, 26.33407783508301
0, 7, 17, 98.50497436523438
0, 7, 18, 218.9037017822266
0, 7, 19, 290.609619140625
0, 7, 20, 297.6502380371094
0, 7, 21, 276.2085266113281
0, 7, 22, 301.4571228027344
0, 7, 23, 291.792724609375
0, 7, 24, 312.6028442382812
0, 7, 25, 324.2006530761719
0, 7, 26, 277.6754455566406
0, 7, 27, 297.6026306152344
0, 7, 28, 327.7857666015625
0, 7, 29, 317.8936767578125
0, 7, 30, 299.9805603027344
0, 7, 31, 277.5011596679688
0, 7, 32, 305.9705200195312
0, 7, 33, 263.8183898925781
0, 7, 34, 298.3107299804688
0, 7, 35, 321.0580444335938
0, 7, 36, 331.3185119628906
0, 7, 37, 324.3070983886719
0, 7, 38, 295.0056457519531
0, 7, 39, 306.8675537109375
0, 7, 40, 290.286376953125
0, 7, 41, 271.4315490722656
0, 7, 42, 301.6124877929688
0, 7, 43, 274.8320922851562
0, 7, 44, 304.2182006835938
0, 7, 45, 295.4374694824219
0, 7, 46, 281.6804809570312
0, 7, 47, 329.9988403320312
0, 7, 48, 287.1731567382812
0, 7, 49, 302.58642578125
0, 7, 50, 323.8826599121094
0, 7, 51, 298.7625732421875
0, 7, 52, 327.859619140625
0, 7, 53, 309.6257629394531
0, 7, 54, 322.8767395019531
0, 7, 55, 307.2456970214844
0, 7, 56, 279.7897033691406
0, 7, 57, 282.2493591308594
0, 7, 58, 294.1517028808594
0, 7, 59, 295.7097778320312
0, 7, 60, 321.6614990234375
0, 7, 61, 277.0977783203125
0, 7, 62, 298.005859375
0, 7, 63, 294.8164672851562
0, 7, 64, 306.395751953125
0, 7, 65, 334.338623046875
0, 7, 66, 318.4907531738281
0, 7, 67, 301.3007202148438
0, 7, 68, 280.2615966796875
0, 7, 69, 296.7375183105469
0, 7, 70, 301.1941528320312
0, 7, 71, 308.8208923339844
0, 7, 72, 287.4403076171875
0, 7, 73, 294.4723205566406
0, 7, 74, 343.4478454589844
0, 7, 75, 318.4099426269531
0, 7, 76, 321.7274169921875
0, 7, 77, 279.1723327636719
0, 7, 78, 302.1067199707031
0, 7, 79, 297.4640502929688
0, 7, 80, 312.4400634765625
0, 7, 81, 321.1584167480469
0, 7, 82, 327.5949096679688
0, 7, 83, 318.4985656738281
0, 7, 84, 309.6012878417969
0, 7, 85, 271.8262023925781
0, 7, 86, 310.2803039550781
0, 7, 87, 310.2323608398438
0, 7, 88, 307.5813598632812
0, 7, 89, 295.24755859375
0, 7, 90, 306.4775390625
0, 7, 91, 315.9831848144531
0, 7, 92, 287.1458129882812
0, 7, 93, 309.3503723144531
0, 7, 94, 275.2672729492188
0, 7, 95, 297.9543151855469
0, 7, 96, 331.4603576660156
0, 7, 97, 294.8847961425781
0, 7, 98, 289.5526123046875
0, 7, 99, 312.2491760253906
0, 7, 100, 282.6612548828125
0, 7, 101, 275.5957946777344
0, 7, 102, 292.19775390625
0, 7, 103, 294.548095703125
0, 7, 104, 273.9972229003906
0, 7, 105, 311.0123291015625
0, 7, 106, 318.1735534667969
0, 7, 107, 297.5872192382812
0, 7, 108, 273.1817932128906
0, 7, 109, 235.3354339599609
0, 7, 110, 95.41517639160156
0, 7, 111, 23.17607498168945
0, 7, 112, 13.45743083953857
0, 7, 113, 13.98576164245605
0, 7, 114, 14.27590656280518
0, 7, 115, 11.77828598022461
0, 7, 116, 10.6745023727417
0, 7, 117, 6.042548179626465
0, 7, 118, 7.040220737457275
0, 7, 119, 6.532241821289062
0, 7, 120, 4.863397598266602
0, 7, 121, 6.572988986968994
0, 7, 122, 5.823794841766357
0, 7, 123, 6.106508255004883
0, 7, 124, 4.153136730194092
0, 7, 125, 6.095990180969238
0, 7, 126, 6.098950862884521
0, 7, 127, 3.375535011291504
0, 8, 0, 5.242734909057617
0, 8, 1, 4.651300430297852
0, 8, 2, 3.733214855194092
0, 8, 3, 3.233453512191772
0, 8, 4, 4.180900573730469
0, 8, 5, 4.963630676269531
0, 8, 6, 5.215757369995117
0, 8, 7, 6.398458957672119
0, 8, 8, 8.049260139465332
0, 8, 9, 5.985824584960938
0, 8, 10, 7.130066394805908
0, 8, 11, 10.82491111755371
0, 8, 12, 13.13766574859619
0, 8, 13, 17.22393035888672
0, 8, 14, 14.015456199646
0, 8, 15, 18.37494277954102
0, 8, 16, 31.52467918395996
0, 8, 17, 130.1286315917969
0, 8, 18, 242.8702697753906
0, 8, 19, 295.2196350097656
0, 8, 20, 284.7591247558594
0, 8, 21, 306.5265197753906
0, 8, 22, 295.5777587890625
0, 8, 23, 276.422607421875
0, 8, 24, 271.8934936523438
0, 8, 25, 276.3360900878906
0, 8, 26, 306.5129089355469
0, 8, 27, 307.9836730957031
0, 8, 28, 301.9769897460938
0, 8, 29, 321.2241516113281
0, 8, 30, 315.2544860839844
0, 8, 31, 304.9505310058594
0, 8, 32, 280.7649230957031
0, 8, 33, 295.4162292480469
0, 8, 34, 288.8899230957031
0, 8, 35, 279.1496887207031
0, 8, 36, 315.5879821777344
0, 8, 37, 338.8250427246094
0, 8, 38, 331.6589050292969
0, 8, 39, 281.5769348144531
