# TOPAS Version: 3.1.p3
# Parameter File: batch_inserts_68.txt
# Results for scorer Readout_Adipose
# Scored in component: MyBox
# X in 1 bin  of 0.75 cm
# Y in 512 bins of 0.0783984 cm
# Z in 128 bins of 0.078125 cm
# EnergyDeposit ( MeV ) : Sum   
0, 0, 0, 5.032855987548828
0, 0, 1, 3.06358003616333
0, 0, 2, 4.094227313995361
0, 0, 3, 1.840988159179688
0, 0, 4, 2.826316595077515
0, 0, 5, 2.150423288345337
0, 0, 6, 6.058349132537842
0, 0, 7, 9.089531898498535
0, 0, 8, 5.824783325195312
0, 0, 9, 5.660490989685059
0, 0, 10, 6.327523708343506
0, 0, 11, 4.253002166748047
0, 0, 12, 5.718570232391357
0, 0, 13, 6.863202095031738
0, 0, 14, 8.222317695617676
0, 0, 15, 9.263875961303711
0, 0, 16, 8.184320449829102
0, 0, 17, 7.704397201538086
0, 0, 18, 12.88278770446777
0, 0, 19, 43.66482543945312
0, 0, 20, 138.9622497558594
0, 0, 21, 225.220947265625
0, 0, 22, 251.0928802490234
0, 0, 23, 255.2464141845703
0, 0, 24, 252.3374328613281
0, 0, 25, 258.6184692382812
0, 0, 26, 235.9005126953125
0, 0, 27, 236.7503356933594
0, 0, 28, 273.2575378417969
0, 0, 29, 251.8612518310547
0, 0, 30, 229.1239471435547
0, 0, 31, 244.1833038330078
0, 0, 32, 264.72607421875
0, 0, 33, 260.43212890625
0, 0, 34, 286.71826171875
0, 0, 35, 267.2054138183594
0, 0, 36, 247.1535339355469
0, 0, 37, 252.1636047363281
0, 0, 38, 269.184814453125
0, 0, 39, 228.1038055419922
0, 0, 40, 241.0858459472656
0, 0, 41, 267.0032958984375
0, 0, 42, 229.6559143066406
0, 0, 43, 259.6279907226562
0, 0, 44, 251.3408050537109
0, 0, 45, 251.462158203125
0, 0, 46, 243.6302947998047
0, 0, 47, 253.2367706298828
0, 0, 48, 267.1321105957031
0, 0, 49, 272.3656311035156
0, 0, 50, 250.1255340576172
0, 0, 51, 253.5187225341797
0, 0, 52, 273.4512939453125
0, 0, 53, 289.9582214355469
0, 0, 54, 242.4928283691406
0, 0, 55, 239.9915161132812
0, 0, 56, 277.9878540039062
0, 0, 57, 264.5343017578125
0, 0, 58, 249.2643127441406
0, 0, 59, 271.7133483886719
0, 0, 60, 234.4265441894531
0, 0, 61, 245.9336395263672
0, 0, 62, 258.7901306152344
0, 0, 63, 267.5726623535156
0, 0, 64, 257.755126953125
0, 0, 65, 260.76953125
0, 0, 66, 276.0268859863281
0, 0, 67, 249.5922241210938
0, 0, 68, 258.295166015625
0, 0, 69, 261.6087036132812
0, 0, 70, 272.7090148925781
0, 0, 71, 238.2908630371094
0, 0, 72, 250.0554046630859
0, 0, 73, 257.9126281738281
0, 0, 74, 252.7239227294922
0, 0, 75, 240.2350006103516
0, 0, 76, 227.9286956787109
0, 0, 77, 259.7474975585938
0, 0, 78, 256.9198303222656
0, 0, 79, 278.4988708496094
0, 0, 80, 216.0261688232422
0, 0, 81, 268.7102661132812
0, 0, 82, 255.0287475585938
0, 0, 83, 247.4751434326172
0, 0, 84, 269.9190368652344
0, 0, 85, 232.2900848388672
0, 0, 86, 252.7175598144531
0, 0, 87, 251.6636962890625
0, 0, 88, 261.5048522949219
0, 0, 89, 283.1035766601562
0, 0, 90, 245.5486602783203
0, 0, 91, 280.705810546875
0, 0, 92, 251.9957580566406
0, 0, 93, 248.6830291748047
0, 0, 94, 247.8610229492188
0, 0, 95, 247.5028839111328
0, 0, 96, 275.2400512695312
0, 0, 97, 271.1115112304688
0, 0, 98, 272.5873413085938
0, 0, 99, 258.0132446289062
0, 0, 100, 257.2850036621094
0, 0, 101, 226.0100860595703
0, 0, 102, 230.8752899169922
0, 0, 103, 269.7718200683594
0, 0, 104, 253.4938812255859
0, 0, 105, 251.9168243408203
0, 0, 106, 246.4301147460938
0, 0, 107, 152.732421875
0, 0, 108, 38.61888122558594
0, 0, 109, 13.83487224578857
0, 0, 110, 13.07873439788818
0, 0, 111, 9.83745288848877
0, 0, 112, 7.011817455291748
0, 0, 113, 5.854783058166504
0, 0, 114, 6.789376258850098
0, 0, 115, 5.807561874389648
0, 0, 116, 5.545722007751465
0, 0, 117, 10.43760585784912
0, 0, 118, 7.105696201324463
0, 0, 119, 4.732832431793213
0, 0, 120, 3.538932323455811
0, 0, 121, 3.033742904663086
0, 0, 122, 3.765639305114746
0, 0, 123, 2.894271850585938
0, 0, 124, 5.151352882385254
0, 0, 125, 2.800902843475342
0, 0, 126, 4.434377193450928
0, 0, 127, 3.882503986358643
0, 1, 0, 6.383571147918701
0, 1, 1, 3.062933444976807
0, 1, 2, 4.407248973846436
0, 1, 3, 3.753511190414429
0, 1, 4, 5.305020332336426
0, 1, 5, 4.492671489715576
0, 1, 6, 4.383804321289062
0, 1, 7, 5.597659587860107
0, 1, 8, 6.675048351287842
0, 1, 9, 4.667689800262451
0, 1, 10, 8.206911087036133
0, 1, 11, 16.81707191467285
0, 1, 12, 10.57974052429199
0, 1, 13, 8.986821174621582
0, 1, 14, 7.540017604827881
0, 1, 15, 7.034924507141113
0, 1, 16, 12.48849010467529
0, 1, 17, 14.77279567718506
0, 1, 18, 20.1322078704834
0, 1, 19, 66.31047058105469
0, 1, 20, 199.34130859375
0, 1, 21, 255.1749267578125
0, 1, 22, 294.5935668945312
0, 1, 23, 284.6451110839844
0, 1, 24, 274.7435302734375
0, 1, 25, 287.6676635742188
0, 1, 26, 267.7845764160156
0, 1, 27, 306.1982421875
0, 1, 28, 299.3253173828125
0, 1, 29, 298.3752136230469
0, 1, 30, 280.3480834960938
0, 1, 31, 294.0098876953125
0, 1, 32, 291.7699890136719
0, 1, 33, 298.5914611816406
0, 1, 34, 291.9310302734375
0, 1, 35, 280.7315368652344
0, 1, 36, 308.7561645507812
0, 1, 37, 294.6996765136719
0, 1, 38, 279.1296081542969
0, 1, 39, 296.2745666503906
0, 1, 40, 266.07421875
0, 1, 41, 285.9141235351562
0, 1, 42, 290.4874572753906
0, 1, 43, 333.5773010253906
0, 1, 44, 280.2874145507812
0, 1, 45, 291.4712524414062
0, 1, 46, 259.7751159667969
0, 1, 47, 311.1487731933594
0, 1, 48, 287.9714660644531
0, 1, 49, 301.3998413085938
0, 1, 50, 261.9971313476562
0, 1, 51, 273.2261657714844
0, 1, 52, 295.4695434570312
0, 1, 53, 304.7412719726562
0, 1, 54, 275.6137390136719
0, 1, 55, 292.5787658691406
0, 1, 56, 276.8252563476562
0, 1, 57, 299.9147644042969
0, 1, 58, 312.1275939941406
0, 1, 59, 292.0416259765625
0, 1, 60, 297.695556640625
0, 1, 61, 274.6926879882812
0, 1, 62, 306.4701232910156
0, 1, 63, 287.2540588378906
0, 1, 64, 288.9703369140625
0, 1, 65, 295.6709594726562
0, 1, 66, 292.1918334960938
0, 1, 67, 291.0110778808594
0, 1, 68, 278.6755676269531
0, 1, 69, 280.6136779785156
0, 1, 70, 270.1827697753906
0, 1, 71, 273.4037780761719
0, 1, 72, 285.4777221679688
0, 1, 73, 304.4811401367188
0, 1, 74, 304.2336730957031
0, 1, 75, 290.884521484375
0, 1, 76, 284.773681640625
0, 1, 77, 291.0316467285156
0, 1, 78, 295.8536987304688
0, 1, 79, 301.8794250488281
0, 1, 80, 296.9872436523438
0, 1, 81, 300.1267395019531
0, 1, 82, 284.2153625488281
0, 1, 83, 330.7084655761719
0, 1, 84, 306.7672424316406
0, 1, 85, 252.5672149658203
0, 1, 86, 293.7334594726562
0, 1, 87, 289.6298522949219
0, 1, 88, 297.5403442382812
0, 1, 89, 292.2000427246094
0, 1, 90, 271.3142395019531
0, 1, 91, 316.7494812011719
0, 1, 92, 288.9555358886719
0, 1, 93, 286.8841247558594
0, 1, 94, 302.8463134765625
0, 1, 95, 284.5732421875
0, 1, 96, 283.1140747070312
0, 1, 97, 301.6223449707031
0, 1, 98, 280.2035522460938
0, 1, 99, 266.5170593261719
0, 1, 100, 276.5083312988281
0, 1, 101, 283.25
0, 1, 102, 278.23095703125
0, 1, 103, 281.8322448730469
0, 1, 104, 305.7074279785156
0, 1, 105, 296.8052978515625
0, 1, 106, 262.0870056152344
0, 1, 107, 192.3642578125
0, 1, 108, 81.46987152099609
0, 1, 109, 23.11992454528809
0, 1, 110, 10.62381172180176
0, 1, 111, 8.563823699951172
0, 1, 112, 12.05645656585693
0, 1, 113, 6.267842769622803
0, 1, 114, 7.169159889221191
0, 1, 115, 6.932325839996338
0, 1, 116, 10.5385570526123
0, 1, 117, 6.406285762786865
0, 1, 118, 3.919907093048096
0, 1, 119, 5.749839782714844
0, 1, 120, 4.623029708862305
0, 1, 121, 3.462603330612183
0, 1, 122, 3.91853666305542
0, 1, 123, 7.02530574798584
0, 1, 124, 7.824753284454346
0, 1, 125, 5.039770603179932
0, 1, 126, 2.573687791824341
0, 1, 127, 1.464358806610107
0, 2, 0, 4.612349987030029
0, 2, 1, 3.302581071853638
0, 2, 2, 5.17323112487793
0, 2, 3, 3.631242036819458
0, 2, 4, 2.682574987411499
0, 2, 5, 2.972133874893188
0, 2, 6, 2.287947177886963
0, 2, 7, 2.971413373947144
0, 2, 8, 4.668118476867676
0, 2, 9, 6.875270366668701
0, 2, 10, 9.600038528442383
0, 2, 11, 6.621025562286377
0, 2, 12, 6.731300830841064
0, 2, 13, 10.43166446685791
0, 2, 14, 10.26293468475342
0, 2, 15, 9.103092193603516
0, 2, 16, 9.45484447479248
0, 2, 17, 15.93892478942871
0, 2, 18, 30.13812828063965
0, 2, 19, 118.040412902832
0, 2, 20, 244.66015625
0, 2, 21, 270.6891174316406
0, 2, 22, 316.9447326660156
0, 2, 23, 300.6144409179688
0, 2, 24, 287.6234741210938
0, 2, 25, 304.2906494140625
0, 2, 26, 293.212890625
0, 2, 27, 275.4819946289062
0, 2, 28, 273.37158203125
0, 2, 29, 273.1296997070312
0, 2, 30, 289.1243591308594
0, 2, 31, 279.6845092773438
0, 2, 32, 293.7581481933594
0, 2, 33, 282.2838134765625
0, 2, 34, 334.9992065429688
0, 2, 35, 288.8276062011719
0, 2, 36, 303.4129638671875
0, 2, 37, 319.8839721679688
0, 2, 38, 312.2114868164062
0, 2, 39, 266.4093322753906
0, 2, 40, 308.2267150878906
0, 2, 41, 292.6854858398438
0, 2, 42, 304.4360961914062
0, 2, 43, 313.5776062011719
0, 2, 44, 310.9362182617188
0, 2, 45, 324.5527648925781
0, 2, 46, 290.3800964355469
0, 2, 47, 302.6456909179688
0, 2, 48, 280.0333862304688
0, 2, 49, 279.1625366210938
0, 2, 50, 294.885498046875
0, 2, 51, 284.1495361328125
0, 2, 52, 273.288818359375
0, 2, 53, 288.4974365234375
0, 2, 54, 280.1788635253906
0, 2, 55, 276.484130859375
0, 2, 56, 301.2391967773438
0, 2, 57, 291.7352600097656
0, 2, 58, 301.2533874511719
0, 2, 59, 290.6399536132812
0, 2, 60, 318.2898254394531
0, 2, 61, 301.8301391601562
0, 2, 62, 313.1159973144531
0, 2, 63, 303.3851623535156
0, 2, 64, 297.1134033203125
0, 2, 65, 313.4995422363281
0, 2, 66, 278.1297607421875
0, 2, 67, 289.7265014648438
0, 2, 68, 295.2142333984375
0, 2, 69, 312.2840270996094
0, 2, 70, 333.8062133789062
0, 2, 71, 286.0716552734375
0, 2, 72, 300.9599609375
0, 2, 73, 313.1730041503906
0, 2, 74, 286.2711486816406
0, 2, 75, 306.1544494628906
0, 2, 76, 287.3194580078125
0, 2, 77, 299.4136657714844
0, 2, 78, 314.2011413574219
0, 2, 79, 308.4542236328125
0, 2, 80, 299.8689880371094
0, 2, 81, 283.0827331542969
0, 2, 82, 316.8583068847656
0, 2, 83, 311.0976257324219
0, 2, 84, 286.8473510742188
0, 2, 85, 281.5870666503906
0, 2, 86, 325.9413452148438
0, 2, 87, 286.344970703125
0, 2, 88, 279.9156494140625
0, 2, 89, 293.8796691894531
0, 2, 90, 297.2838134765625
0, 2, 91, 277.4441223144531
0, 2, 92, 308.06298828125
0, 2, 93, 316.5640258789062
0, 2, 94, 292.8933410644531
0, 2, 95, 316.3267517089844
0, 2, 96, 314.5061340332031
0, 2, 97, 290.1678771972656
0, 2, 98, 293.5299072265625
0, 2, 99, 272.6456604003906
0, 2, 100, 304.815673828125
0, 2, 101, 300.4655151367188
0, 2, 102, 297.1827697753906
0, 2, 103, 291.1947631835938
0, 2, 104, 293.6963195800781
0, 2, 105, 273.1051025390625
0, 2, 106, 295.3917846679688
0, 2, 107, 271.1290283203125
0, 2, 108, 115.8481979370117
0, 2, 109, 33.3252067565918
0, 2, 110, 10.14801120758057
0, 2, 111, 11.12991523742676
0, 2, 112, 7.992838859558105
0, 2, 113, 9.493932723999023
0, 2, 114, 8.820900917053223
0, 2, 115, 9.40335750579834
0, 2, 116, 11.08220672607422
0, 2, 117, 6.849809169769287
0, 2, 118, 6.890017509460449
0, 2, 119, 4.007907867431641
0, 2, 120, 6.718961715698242
0, 2, 121, 1.696247577667236
0, 2, 122, 2.905293941497803
0, 2, 123, 4.078269958496094
0, 2, 124, 4.833987712860107
0, 2, 125, 5.379271984100342
0, 2, 126, 1.915554761886597
0, 2, 127, 4.204975128173828
0, 3, 0, 2.619011163711548
0, 3, 1, 6.740931987762451
0, 3, 2, 3.557807683944702
0, 3, 3, 1.87688159942627
0, 3, 4, 3.217221736907959
0, 3, 5, 7.247457504272461
0, 3, 6, 6.679447650909424
0, 3, 7, 6.912639617919922
0, 3, 8, 6.262683391571045
0, 3, 9, 4.684561729431152
0, 3, 10, 5.621014595031738
0, 3, 11, 4.391759395599365
0, 3, 12, 7.599404335021973
0, 3, 13, 14.36555957794189
0, 3, 14, 10.47316360473633
0, 3, 15, 13.77534580230713
0, 3, 16, 11.27897071838379
0, 3, 17, 17.95083236694336
0, 3, 18, 50.88343048095703
0, 3, 19, 177.33447265625
0, 3, 20, 270.6983337402344
0, 3, 21, 272.0889892578125
0, 3, 22, 281.5560913085938
0, 3, 23, 286.2196960449219
0, 3, 24, 286.0022583007812
0, 3, 25, 273.632080078125
0, 3, 26, 304.0632019042969
0, 3, 27, 291.9325256347656
0, 3, 28, 280.7149047851562
0, 3, 29, 336.2073669433594
0, 3, 30, 315.9468383789062
0, 3, 31, 287.9011840820312
0, 3, 32, 305.8700866699219
0, 3, 33, 314.239013671875
0, 3, 34, 321.9303894042969
0, 3, 35, 305.9985656738281
0, 3, 36, 270.7658386230469
0, 3, 37, 316.8807983398438
0, 3, 38, 304.6421203613281
0, 3, 39, 289.1871948242188
0, 3, 40, 269.4779052734375
0, 3, 41, 302.6852416992188
0, 3, 42, 283.5280151367188
0, 3, 43, 304.4462280273438
0, 3, 44, 312.4781188964844
0, 3, 45, 290.2455139160156
0, 3, 46, 328.6242980957031
0, 3, 47, 299.9811401367188
0, 3, 48, 306.8523254394531
0, 3, 49, 275.9786682128906
0, 3, 50, 290.0840148925781
0, 3, 51, 275.5440979003906
0, 3, 52, 315.4036254882812
0, 3, 53, 289.0416564941406
0, 3, 54, 284.4246826171875
0, 3, 55, 280.8146362304688
0, 3, 56, 297.864990234375
0, 3, 57, 288.5833740234375
0, 3, 58, 307.388427734375
0, 3, 59, 294.1360168457031
0, 3, 60, 298.0271911621094
0, 3, 61, 264.072509765625
0, 3, 62, 283.7267761230469
0, 3, 63, 307.6968994140625
0, 3, 64, 315.5024719238281
0, 3, 65, 305.6851501464844
0, 3, 66, 314.9434204101562
0, 3, 67, 317.3382873535156
0, 3, 68, 279.133544921875
0, 3, 69, 282.5038452148438
0, 3, 70, 287.2523803710938
0, 3, 71, 297.944580078125
0, 3, 72, 269.28857421875
0, 3, 73, 308.7587280273438
0, 3, 74, 293.0459899902344
0, 3, 75, 289.5409851074219
0, 3, 76, 305.1649780273438
0, 3, 77, 313.9069213867188
0, 3, 78, 304.2113647460938
0, 3, 79, 281.0514221191406
0, 3, 80, 290.53955078125
0, 3, 81, 310.1752624511719
0, 3, 82, 316.2066955566406
0, 3, 83, 300.6788940429688
0, 3, 84, 311.1309509277344
0, 3, 85, 298.576171875
0, 3, 86, 303.4261779785156
0, 3, 87, 298.9736633300781
0, 3, 88, 299.47265625
0, 3, 89, 295.1761474609375
0, 3, 90, 275.9616088867188
0, 3, 91, 287.4380187988281
0, 3, 92, 303.4877319335938
0, 3, 93, 312.5710144042969
0, 3, 94, 297.567626953125
0, 3, 95, 336.0817565917969
0, 3, 96, 289.1321716308594
0, 3, 97, 282.0623474121094
0, 3, 98, 277.8351135253906
0, 3, 99, 262.0223999023438
0, 3, 100, 284.3966979980469
0, 3, 101, 295.6837463378906
0, 3, 102, 277.5262145996094
0, 3, 103, 321.1106872558594
0, 3, 104, 309.9648132324219
0, 3, 105, 288.926513671875
0, 3, 106, 301.6433715820312
0, 3, 107, 286.3163757324219
0, 3, 108, 166.7563781738281
0, 3, 109, 56.30915832519531
0, 3, 110, 19.62496185302734
0, 3, 111, 12.52192974090576
0, 3, 112, 14.12545108795166
0, 3, 113, 10.99180316925049
0, 3, 114, 10.67379093170166
0, 3, 115, 7.58089017868042
0, 3, 116, 5.534514904022217
0, 3, 117, 7.070630550384521
0, 3, 118, 5.6141357421875
0, 3, 119, 4.828958511352539
0, 3, 120, 6.327221393585205
0, 3, 121, 2.601468324661255
0, 3, 122, 5.4276442527771
0, 3, 123, 6.636941909790039
0, 3, 124, 2.639755964279175
0, 3, 125, 4.918793678283691
0, 3, 126, 5.92090368270874
0, 3, 127, 2.093887090682983
0, 4, 0, 2.25009298324585
0, 4, 1, 5.265907764434814
0, 4, 2, 3.10321044921875
0, 4, 3, 4.312008380889893
0, 4, 4, 5.782877922058105
0, 4, 5, 7.688182353973389
0, 4, 6, 5.406639575958252
0, 4, 7, 4.73453950881958
0, 4, 8, 3.766070127487183
0, 4, 9, 5.990458965301514
0, 4, 10, 6.019369125366211
0, 4, 11, 6.771336078643799
0, 4, 12, 6.025059700012207
0, 4, 13, 8.416053771972656
0, 4, 14, 11.33805179595947
0, 4, 15, 8.632452964782715
0, 4, 16, 13.43251800537109
0, 4, 17, 17.34995651245117
0, 4, 18, 92.51090240478516
0, 4, 19, 223.4750366210938
0, 4, 20, 283.7676086425781
0, 4, 21, 274.49267578125
0, 4, 22, 306.5411071777344
0, 4, 23, 266.840087890625
0, 4, 24, 288.122314453125
0, 4, 25, 274.200439453125
0, 4, 26, 296.2313842773438
0, 4, 27, 283.0927429199219
0, 4, 28, 306.5228576660156
0, 4, 29, 322.4644165039062
0, 4, 30, 309.1520690917969
0, 4, 31, 304.0050354003906
0, 4, 32, 280.5398864746094
0, 4, 33, 296.9923706054688
0, 4, 34, 297.4218444824219
0, 4, 35, 311.4017639160156
0, 4, 36, 293.1466674804688
0, 4, 37, 287.7431030273438
0, 4, 38, 298.3157043457031
0, 4, 39, 295.0504455566406
0, 4, 40, 300.85595703125
0, 4, 41, 311.1163024902344
0, 4, 42, 330.2031860351562
0, 4, 43, 294.6074523925781
0, 4, 44, 319.5053100585938
0, 4, 45, 325.1032409667969
0, 4, 46, 307.4570007324219
0, 4, 47, 293.1086120605469
0, 4, 48, 295.9933166503906
0, 4, 49, 277.8184814453125
0, 4, 50, 297.8517150878906
0, 4, 51, 315.1858825683594
0, 4, 52, 327.5112915039062
0, 4, 53, 306.7050476074219
0, 4, 54, 286.8050537109375
0, 4, 55, 315.0144348144531
0, 4, 56, 285.9976196289062
0, 4, 57, 309.8523559570312
0, 4, 58, 295.4569702148438
0, 4, 59, 307.5597229003906
0, 4, 60, 300.9797973632812
0, 4, 61, 316.7004699707031
0, 4, 62, 307.9335632324219
0, 4, 63, 298.2572021484375
0, 4, 64, 329.8930358886719
0, 4, 65, 317.697998046875
0, 4, 66, 293.8870239257812
0, 4, 67, 286.2813415527344
0, 4, 68, 311.4792175292969
0, 4, 69, 276.64892578125
0, 4, 70, 301.3188171386719
0, 4, 71, 321.4913635253906
0, 4, 72, 334.0432739257812
0, 4, 73, 301.0368041992188
0, 4, 74, 294.4563293457031
0, 4, 75, 290.4186401367188
0, 4, 76, 276.1297912597656
0, 4, 77, 280.9895629882812
0, 4, 78, 310.2821655273438
0, 4, 79, 319.8752746582031
0, 4, 80, 314.7491149902344
0, 4, 81, 311.8646240234375
0, 4, 82, 297.7885131835938
0, 4, 83, 300.6957397460938
0, 4, 84, 293.026123046875
0, 4, 85, 296.5204467773438
0, 4, 86, 296.8180541992188
0, 4, 87, 285.7459106445312
0, 4, 88, 305.26171875
0, 4, 89, 293.0078430175781
0, 4, 90, 332.4443359375
0, 4, 91, 301.5747375488281
0, 4, 92, 288.8633422851562
0, 4, 93, 297.1239318847656
0, 4, 94, 294.3865966796875
0, 4, 95, 288.1129150390625
0, 4, 96, 326.8214721679688
0, 4, 97, 275.5743408203125
0, 4, 98, 327.0588989257812
0, 4, 99, 313.7044677734375
0, 4, 100, 300.3710021972656
0, 4, 101, 256.2257385253906
0, 4, 102, 295.4742431640625
0, 4, 103, 317.7966613769531
0, 4, 104, 282.3741455078125
0, 4, 105, 310.7335510253906
0, 4, 106, 286.5468444824219
0, 4, 107, 293.9922485351562
0, 4, 108, 227.1033325195312
0, 4, 109, 79.71215057373047
0, 4, 110, 17.60544204711914
0, 4, 111, 13.28891277313232
0, 4, 112, 8.944337844848633
0, 4, 113, 10.68259048461914
0, 4, 114, 8.192312240600586
0, 4, 115, 9.929158210754395
0, 4, 116, 10.19500732421875
0, 4, 117, 9.833061218261719
0, 4, 118, 13.65829658508301
0, 4, 119, 10.22966480255127
0, 4, 120, 5.714430332183838
0, 4, 121, 5.086789608001709
0, 4, 122, 3.950859546661377
0, 4, 123, 5.791694641113281
0, 4, 124, 6.890994071960449
0, 4, 125, 8.297656059265137
0, 4, 126, 5.032105445861816
0, 4, 127, 4.965064525604248
0, 5, 0, 4.23069953918457
0, 5, 1, 3.510903120040894
0, 5, 2, 2.458582162857056
0, 5, 3, 4.021176815032959
0, 5, 4, 7.28734827041626
0, 5, 5, 6.636639595031738
0, 5, 6, 7.135969638824463
0, 5, 7, 6.582778930664062
0, 5, 8, 5.872196674346924
0, 5, 9, 5.620495319366455
0, 5, 10, 11.49817180633545
0, 5, 11, 7.86492919921875
0, 5, 12, 8.257153511047363
0, 5, 13, 6.856148719787598
0, 5, 14, 13.56465721130371
0, 5, 15, 15.04832363128662
0, 5, 16, 15.1549015045166
0, 5, 17, 29.71240997314453
0, 5, 18, 138.1254119873047
0, 5, 19, 288.5437622070312
0, 5, 20, 306.17236328125
0, 5, 21, 316.0127563476562
0, 5, 22, 275.4155578613281
0, 5, 23, 312.4188842773438
0, 5, 24, 301.0071411132812
0, 5, 25, 290.1310119628906
0, 5, 26, 294.4114990234375
0, 5, 27, 322.2527160644531
0, 5, 28, 303.4854431152344
0, 5, 29, 297.4062194824219
0, 5, 30, 322.5953674316406
0, 5, 31, 286.6291809082031
0, 5, 32, 301.2737731933594
0, 5, 33, 304.8287963867188
0, 5, 34, 296.5510864257812
0, 5, 35, 310.4421997070312
0, 5, 36, 270.1075439453125
0, 5, 37, 282.0064697265625
0, 5, 38, 292.5296630859375
0, 5, 39, 312.1478271484375
0, 5, 40, 308.1777038574219
0, 5, 41, 278.3469848632812
0, 5, 42, 305.9585876464844
0, 5, 43, 314.0136108398438
0, 5, 44, 293.2117309570312
0, 5, 45, 301.929443359375
0, 5, 46, 265.3078308105469
0, 5, 47, 279.739013671875
0, 5, 48, 292.5490417480469
0, 5, 49, 286.4188537597656
0, 5, 50, 295.5199279785156
0, 5, 51, 278.5407409667969
0, 5, 52, 269.7240295410156
0, 5, 53, 284.916748046875
0, 5, 54, 293.3100891113281
0, 5, 55, 346.2148132324219
0, 5, 56, 306.6621704101562
0, 5, 57, 306.0313720703125
0, 5, 58, 312.4031372070312
0, 5, 59, 306.1753845214844
0, 5, 60, 307.6470947265625
0, 5, 61, 283.1161193847656
0, 5, 62, 326.0011291503906
0, 5, 63, 289.6733093261719
0, 5, 64, 324.2191162109375
0, 5, 65, 304.9022216796875
0, 5, 66, 329.4693908691406
0, 5, 67, 310.6613464355469
0, 5, 68, 308.3483581542969
0, 5, 69, 312.7647705078125
0, 5, 70, 301.9389953613281
0, 5, 71, 273.0322570800781
0, 5, 72, 311.5354614257812
0, 5, 73, 300.711181640625
0, 5, 74, 294.9038391113281
0, 5, 75, 294.1402587890625
0, 5, 76, 284.5082397460938
0, 5, 77, 296.7789306640625
0, 5, 78, 317.0753784179688
0, 5, 79, 306.2062072753906
0, 5, 80, 294.1805419921875
0, 5, 81, 325.8185729980469
0, 5, 82, 325.2084350585938
0, 5, 83, 282.244873046875
0, 5, 84, 303.0374145507812
0, 5, 85, 272.11328125
0, 5, 86, 327.6673889160156
0, 5, 87, 284.953857421875
0, 5, 88, 315.3248596191406
0, 5, 89, 304.9965209960938
0, 5, 90, 315.6183776855469
0, 5, 91, 314.5802917480469
0, 5, 92, 296.1830444335938
0, 5, 93, 322.818603515625
0, 5, 94, 308.84130859375
0, 5, 95, 297.1453247070312
0, 5, 96, 296.2887878417969
0, 5, 97, 294.8211059570312
0, 5, 98, 319.0617370605469
0, 5, 99, 302.4869384765625
0, 5, 100, 291.203369140625
0, 5, 101, 306.769775390625
0, 5, 102, 293.9697265625
0, 5, 103, 313.7522888183594
0, 5, 104, 301.428466796875
0, 5, 105, 292.7022399902344
0, 5, 106, 282.5982666015625
0, 5, 107, 292.8939819335938
0, 5, 108, 264.2375793457031
0, 5, 109, 156.4591979980469
0, 5, 110, 39.96376037597656
0, 5, 111, 19.6248779296875
0, 5, 112, 17.79966163635254
0, 5, 113, 13.38263607025146
0, 5, 114, 12.30812072753906
0, 5, 115, 7.407877922058105
0, 5, 116, 7.421370029449463
0, 5, 117, 10.72013378143311
0, 5, 118, 12.75697708129883
0, 5, 119, 4.911173343658447
0, 5, 120, 5.911358833312988
0, 5, 121, 5.340015888214111
0, 5, 122, 5.35979175567627
0, 5, 123, 5.266332149505615
0, 5, 124, 5.310245037078857
0, 5, 125, 3.883063077926636
0, 5, 126, 6.804625511169434
0, 5, 127, 3.417777538299561
0, 6, 0, 7.080445289611816
0, 6, 1, 4.398663997650146
0, 6, 2, 6.003346920013428
0, 6, 3, 5.869932174682617
0, 6, 4, 5.860927104949951
0, 6, 5, 5.450502395629883
0, 6, 6, 9.559806823730469
0, 6, 7, 7.816820621490479
0, 6, 8, 6.856320858001709
0, 6, 9, 5.789027214050293
0, 6, 10, 6.980617046356201
0, 6, 11, 10.02134323120117
0, 6, 12, 9.011946678161621
0, 6, 13, 18.26274681091309
0, 6, 14, 7.978215217590332
0, 6, 15, 15.42596340179443
0, 6, 16, 31.84205436706543
0, 6, 17, 55.89626312255859
0, 6, 18, 172.4850463867188
0, 6, 19, 277.4070434570312
0, 6, 20, 293.6448974609375
0, 6, 21, 314.7080383300781
0, 6, 22, 320.8591918945312
0, 6, 23, 305.5343017578125
0, 6, 24, 319.5867309570312
0, 6, 25, 315.4686889648438
0, 6, 26, 318.8389587402344
0, 6, 27, 330.3618469238281
0, 6, 28, 294.46044921875
0, 6, 29, 330.4905395507812
0, 6, 30, 282.0495300292969
0, 6, 31, 286.7098388671875
0, 6, 32, 339.1033935546875
0, 6, 33, 302.3355407714844
0, 6, 34, 339.3429870605469
0, 6, 35, 320.3641052246094
0, 6, 36, 274.2791137695312
0, 6, 37, 287.6036376953125
0, 6, 38, 310.6363525390625
0, 6, 39, 300.158203125
0, 6, 40, 283.5092163085938
0, 6, 41, 292.9991760253906
0, 6, 42, 305.01416015625
0, 6, 43, 288.5825805664062
0, 6, 44, 280.0157470703125
0, 6, 45, 319.7464904785156
0, 6, 46, 302.8630676269531
0, 6, 47, 334.6120910644531
0, 6, 48, 292.6623229980469
0, 6, 49, 312.7298583984375
0, 6, 50, 329.7076110839844
0, 6, 51, 309.962158203125
0, 6, 52, 320.5525817871094
0, 6, 53, 326.9357299804688
0, 6, 54, 302.1052856445312
0, 6, 55, 305.883056640625
0, 6, 56, 294.6216735839844
0, 6, 57, 314.1702880859375
0, 6, 58, 261.2217102050781
0, 6, 59, 302.7605285644531
0, 6, 60, 311.5911560058594
0, 6, 61, 270.5680847167969
0, 6, 62, 334.4062194824219
0, 6, 63, 325.0187683105469
0, 6, 64, 289.4535827636719
0, 6, 65, 285.5915832519531
0, 6, 66, 302.8143310546875
0, 6, 67, 310.6062622070312
0, 6, 68, 297.5046081542969
0, 6, 69, 278.6526184082031
0, 6, 70, 273.200927734375
0, 6, 71, 289.5498046875
0, 6, 72, 311.2684936523438
0, 6, 73, 293.9233703613281
0, 6, 74, 330.6478881835938
0, 6, 75, 344.9856262207031
0, 6, 76, 297.9497680664062
0, 6, 77, 286.2127075195312
0, 6, 78, 279.578369140625
0, 6, 79, 294.7827453613281
0, 6, 80, 300.0903930664062
0, 6, 81, 316.2891540527344
0, 6, 82, 318.8201599121094
0, 6, 83, 319.3893432617188
0, 6, 84, 296.9988403320312
0, 6, 85, 300.3369750976562
0, 6, 86, 329.1646728515625
0, 6, 87, 292.0039367675781
0, 6, 88, 304.6372375488281
0, 6, 89, 306.8730163574219
0, 6, 90, 299.3881530761719
0, 6, 91, 311.8920593261719
0, 6, 92, 284.8559265136719
0, 6, 93, 293.5914611816406
0, 6, 94, 274.2966613769531
0, 6, 95, 298.6311645507812
0, 6, 96, 346.9105529785156
0, 6, 97, 307.9738464355469
0, 6, 98, 301.4962463378906
0, 6, 99, 271.605712890625
0, 6, 100, 310.6744079589844
0, 6, 101, 292.5706176757812
0, 6, 102, 306.54345703125
0, 6, 103, 308.1896667480469
0, 6, 104, 291.0848388671875
0, 6, 105, 302.4485778808594
0, 6, 106, 306.186279296875
0, 6, 107, 307.133544921875
0, 6, 108, 265.5288696289062
0, 6, 109, 186.9166717529297
0, 6, 110, 56.35820007324219
0, 6, 111, 22.26878547668457
0, 6, 112, 12.79690456390381
0, 6, 113, 9.522470474243164
0, 6, 114, 14.00144100189209
0, 6, 115, 11.39774608612061
0, 6, 116, 9.782997131347656
0, 6, 117, 8.232537269592285
0, 6, 118, 10.14379024505615
0, 6, 119, 12.93114757537842
0, 6, 120, 6.555830955505371
0, 6, 121, 6.183320045471191
0, 6, 122, 6.51417350769043
0, 6, 123, 4.762665271759033
0, 6, 124, 7.923360347747803
0, 6, 125, 8.494145393371582
0, 6, 126, 6.438499927520752
0, 6, 127, 6.970705032348633
0, 7, 0, 6.441743850708008
0, 7, 1, 4.034546852111816
0, 7, 2, 5.138059616088867
0, 7, 3, 5.245840072631836
0, 7, 4, 5.47451114654541
0, 7, 5, 5.458295345306396
0, 7, 6, 5.058971405029297
0, 7, 7, 6.606784343719482
0, 7, 8, 5.305790901184082
0, 7, 9, 4.539632797241211
0, 7, 10, 11.03824996948242
0, 7, 11, 13.90633773803711
0, 7, 12, 11.50010681152344
0, 7, 13, 9.805482864379883
0, 7, 14, 10.16490459442139
0, 7, 15, 17.46610450744629
0, 7, 16, 25.66583633422852
0, 7, 17, 96.87619018554688
0, 7, 18, 218.6680755615234
0, 7, 19, 291.0225830078125
0, 7, 20, 294.489990234375
0, 7, 21, 276.949462890625
0, 7, 22, 297.678955078125
0, 7, 23, 289.9604797363281
0, 7, 24, 314.6702880859375
0, 7, 25, 324.8702697753906
0, 7, 26, 279.1312866210938
0, 7, 27, 297.0746459960938
0, 7, 28, 326.0194396972656
0, 7, 29, 320.4246520996094
0, 7, 30, 301.1613159179688
0, 7, 31, 276.9967346191406
0, 7, 32, 304.1847534179688
0, 7, 33, 260.9873352050781
0, 7, 34, 297.0580749511719
0, 7, 35, 320.0506591796875
0, 7, 36, 330.5143432617188
0, 7, 37, 324.2460327148438
0, 7, 38, 294.6753845214844
0, 7, 39, 309.0529174804688
0, 7, 40, 292.0757446289062
0, 7, 41, 272.6343688964844
0, 7, 42, 301.8509826660156
0, 7, 43, 276.1543579101562
0, 7, 44, 303.4156799316406
0, 7, 45, 293.1228637695312
0, 7, 46, 280.0421142578125
0, 7, 47, 328.4780883789062
0, 7, 48, 286.8219909667969
0, 7, 49, 302.5508728027344
0, 7, 50, 320.6886596679688
0, 7, 51, 299.7946472167969
0, 7, 52, 332.1606750488281
0, 7, 53, 309.9726867675781
0, 7, 54, 323.8094482421875
0, 7, 55, 307.7445983886719
0, 7, 56, 278.11083984375
0, 7, 57, 283.3581848144531
0, 7, 58, 296.1065063476562
0, 7, 59, 295.6204223632812
0, 7, 60, 321.4479064941406
0, 7, 61, 278.5857543945312
0, 7, 62, 300.5519714355469
0, 7, 63, 294.1817932128906
0, 7, 64, 309.1592407226562
0, 7, 65, 330.0682373046875
0, 7, 66, 319.3179626464844
0, 7, 67, 300.5970764160156
0, 7, 68, 280.406982421875
0, 7, 69, 292.9645690917969
0, 7, 70, 302.4451293945312
0, 7, 71, 310.4910888671875
0, 7, 72, 285.4258422851562
0, 7, 73, 296.6759033203125
0, 7, 74, 343.5848388671875
0, 7, 75, 321.6012573242188
0, 7, 76, 323.5311279296875
0, 7, 77, 281.7210388183594
0, 7, 78, 298.880126953125
0, 7, 79, 296.9399719238281
0, 7, 80, 310.9101257324219
0, 7, 81, 319.9085693359375
0, 7, 82, 328.3842468261719
0, 7, 83, 317.7571716308594
0, 7, 84, 309.8835754394531
0, 7, 85, 272.8016052246094
0, 7, 86, 310.5105285644531
0, 7, 87, 315.0160827636719
0, 7, 88, 305.8927307128906
0, 7, 89, 293.0606079101562
0, 7, 90, 306.1758117675781
0, 7, 91, 315.0835571289062
0, 7, 92, 289.369384765625
0, 7, 93, 308.3315734863281
0, 7, 94, 274.57275390625
0, 7, 95, 301.9101867675781
0, 7, 96, 330.8478393554688
0, 7, 97, 294.6072387695312
0, 7, 98, 289.6776733398438
0, 7, 99, 313.2220153808594
0, 7, 100, 280.2288818359375
0, 7, 101, 275.2011413574219
0, 7, 102, 290.7696533203125
0, 7, 103, 294.0371398925781
0, 7, 104, 278.6909790039062
0, 7, 105, 306.8779602050781
0, 7, 106, 317.428466796875
0, 7, 107, 298.2892761230469
0, 7, 108, 275.089111328125
0, 7, 109, 234.0918884277344
0, 7, 110, 95.06041717529297
0, 7, 111, 23.00968551635742
0, 7, 112, 12.60981559753418
0, 7, 113, 13.94336032867432
0, 7, 114, 14.52741527557373
0, 7, 115, 13.20768070220947
0, 7, 116, 7.618933200836182
0, 7, 117, 5.966038703918457
0, 7, 118, 6.125490665435791
0, 7, 119, 5.081500053405762
0, 7, 120, 5.274116992950439
0, 7, 121, 5.643912315368652
0, 7, 122, 7.572515487670898
0, 7, 123, 5.123371601104736
0, 7, 124, 2.825273752212524
0, 7, 125, 6.707911014556885
0, 7, 126, 7.354028701782227
0, 7, 127, 3.789623975753784
0, 8, 0, 7.539068698883057
0, 8, 1, 4.362489223480225
0, 8, 2, 2.623865365982056
0, 8, 3, 2.768508434295654
0, 8, 4, 4.801700115203857
0, 8, 5, 5.657178401947021
0, 8, 6, 5.884999752044678
0, 8, 7, 7.23423957824707
0, 8, 8, 11.933424949646
0, 8, 9, 6.535289764404297
0, 8, 10, 6.078213214874268
0, 8, 11, 10.26901435852051
0, 8, 12, 12.4135684967041
0, 8, 13, 15.32711982727051
0, 8, 14, 12.75399684906006
0, 8, 15, 19.54903984069824
0, 8, 16, 31.77552604675293
0, 8, 17, 130.9580841064453
0, 8, 18, 242.5672607421875
0, 8, 19, 296.889404296875
0, 8, 20, 284.5721130371094
0, 8, 21, 307.0671081542969
0, 8, 22, 295.9852600097656
0, 8, 23, 275.4164428710938
0, 8, 24, 268.4234924316406
0, 8, 25, 276.6303405761719
0, 8, 26, 305.7193603515625
0, 8, 27, 307.426025390625
0, 8, 28, 302.3318481445312
0, 8, 29, 318.4545288085938
0, 8, 30, 314.6495056152344
0, 8, 31, 303.3562316894531
0, 8, 32, 281.8654479980469
0, 8, 33, 296.4386291503906
0, 8, 34, 289.6998291015625
0, 8, 35, 281.9597473144531
0, 8, 36, 314.8878784179688
0, 8, 37, 339.6245727539062
0, 8, 38, 331.4611511230469
0, 8, 39, 279.3094787597656
0, 8, 40, 303.5418395996094
