# TOPAS Version: 3.1.p3
# Parameter File: batch_inserts_18.txt
# Results for scorer Readout_Adipose
# Scored in component: MyBox
# X in 1 bin  of 0.75 cm
# Y in 512 bins of 0.0783984 cm
# Z in 128 bins of 0.078125 cm
# EnergyDeposit ( MeV ) : Sum   
0, 0, 0, 21.67370414733887
0, 0, 1, 16.81419372558594
0, 0, 2, 26.95735168457031
0, 0, 3, 26.35085868835449
0, 0, 4, 21.78384590148926
0, 0, 5, 22.05227279663086
0, 0, 6, 20.60196304321289
0, 0, 7, 35.69855117797852
0, 0, 8, 24.3129711151123
0, 0, 9, 18.89439964294434
0, 0, 10, 28.0842342376709
0, 0, 11, 24.45450401306152
0, 0, 12, 31.59455490112305
0, 0, 13, 32.75892639160156
0, 0, 14, 35.95806121826172
0, 0, 15, 51.90349960327148
0, 0, 16, 43.68874359130859
0, 0, 17, 44.03986358642578
0, 0, 18, 75.90925598144531
0, 0, 19, 193.0494079589844
0, 0, 20, 698.0635986328125
0, 0, 21, 1194.287475585938
0, 0, 22, 1246.544311523438
0, 0, 23, 1274.02392578125
0, 0, 24, 1279.646606445312
0, 0, 25, 1355.13134765625
0, 0, 26, 1271.747924804688
0, 0, 27, 1275.5458984375
0, 0, 28, 1324.380859375
0, 0, 29, 1272.0751953125
0, 0, 30, 1264.132202148438
0, 0, 31, 1282.952392578125
0, 0, 32, 1264.86376953125
0, 0, 33, 1239.965209960938
0, 0, 34, 1321.875854492188
0, 0, 35, 1302.722290039062
0, 0, 36, 1243.99951171875
0, 0, 37, 1280.45166015625
0, 0, 38, 1248.11328125
0, 0, 39, 1245.875366210938
0, 0, 40, 1224.500244140625
0, 0, 41, 1267.461303710938
0, 0, 42, 1250.374267578125
0, 0, 43, 1269.433959960938
0, 0, 44, 1223.364135742188
0, 0, 45, 1290.515502929688
0, 0, 46, 1265.3876953125
0, 0, 47, 1240.248657226562
0, 0, 48, 1278.028198242188
0, 0, 49, 1289.06005859375
0, 0, 50, 1314.8076171875
0, 0, 51, 1263.611328125
0, 0, 52, 1360.487426757812
0, 0, 53, 1328.1005859375
0, 0, 54, 1293.411254882812
0, 0, 55, 1231.19189453125
0, 0, 56, 1317.485717773438
0, 0, 57, 1295.806762695312
0, 0, 58, 1258.788940429688
0, 0, 59, 1335.511352539062
0, 0, 60, 1331.084106445312
0, 0, 61, 1262.512817382812
0, 0, 62, 1239.453369140625
0, 0, 63, 1279.224975585938
0, 0, 64, 1332.279541015625
0, 0, 65, 1293.458618164062
0, 0, 66, 1320.884155273438
0, 0, 67, 1216.455932617188
0, 0, 68, 1315.170166015625
0, 0, 69, 1326.156005859375
0, 0, 70, 1346.303344726562
0, 0, 71, 1286.990600585938
0, 0, 72, 1312.56787109375
0, 0, 73, 1237.566772460938
0, 0, 74, 1290.388671875
0, 0, 75, 1301.539428710938
0, 0, 76, 1255.01708984375
0, 0, 77, 1291.747680664062
0, 0, 78, 1315.317138671875
0, 0, 79, 1324.792358398438
0, 0, 80, 1259.719970703125
0, 0, 81, 1322.7255859375
0, 0, 82, 1291.235595703125
0, 0, 83, 1289.175415039062
0, 0, 84, 1327.937866210938
0, 0, 85, 1238.374755859375
0, 0, 86, 1266.11767578125
0, 0, 87, 1246.841552734375
0, 0, 88, 1250.993530273438
0, 0, 89, 1331.734252929688
0, 0, 90, 1276.981811523438
0, 0, 91, 1355.673217773438
0, 0, 92, 1300.742431640625
0, 0, 93, 1272.304321289062
0, 0, 94, 1241.807006835938
0, 0, 95, 1326.381958007812
0, 0, 96, 1281.02001953125
0, 0, 97, 1322.853881835938
0, 0, 98, 1258.544677734375
0, 0, 99, 1250.354370117188
0, 0, 100, 1291.437255859375
0, 0, 101, 1312.767211914062
0, 0, 102, 1234.715454101562
0, 0, 103, 1324.277221679688
0, 0, 104, 1264.177856445312
0, 0, 105, 1268.246459960938
0, 0, 106, 1210.130493164062
0, 0, 107, 783.8775024414062
0, 0, 108, 196.1055908203125
0, 0, 109, 69.18244934082031
0, 0, 110, 61.93872833251953
0, 0, 111, 39.54362487792969
0, 0, 112, 32.22007751464844
0, 0, 113, 30.1551628112793
0, 0, 114, 32.36920928955078
0, 0, 115, 29.04955863952637
0, 0, 116, 27.63221549987793
0, 0, 117, 35.37543106079102
0, 0, 118, 24.51783561706543
0, 0, 119, 22.17954063415527
0, 0, 120, 24.91708564758301
0, 0, 121, 30.00797271728516
0, 0, 122, 23.06660842895508
0, 0, 123, 20.92602729797363
0, 0, 124, 17.51355361938477
0, 0, 125, 20.05039405822754
0, 0, 126, 25.31381607055664
0, 0, 127, 18.87232398986816
0, 1, 0, 23.87831687927246
0, 1, 1, 21.33174705505371
0, 1, 2, 27.27850532531738
0, 1, 3, 24.70922660827637
0, 1, 4, 24.43102073669434
0, 1, 5, 24.99241065979004
0, 1, 6, 23.62950706481934
0, 1, 7, 23.95598220825195
0, 1, 8, 32.09220886230469
0, 1, 9, 35.10174179077148
0, 1, 10, 33.00825881958008
0, 1, 11, 43.35396575927734
0, 1, 12, 37.25161361694336
0, 1, 13, 43.81399154663086
0, 1, 14, 38.21123886108398
0, 1, 15, 50.89772415161133
0, 1, 16, 60.67671966552734
0, 1, 17, 60.68923950195312
0, 1, 18, 96.80088043212891
0, 1, 19, 407.6294860839844
0, 1, 20, 1042.1611328125
0, 1, 21, 1374.636352539062
0, 1, 22, 1477.11376953125
0, 1, 23, 1460.256958007812
0, 1, 24, 1448.89013671875
0, 1, 25, 1419.53564453125
0, 1, 26, 1473.384887695312
0, 1, 27, 1464.6474609375
0, 1, 28, 1488.666625976562
0, 1, 29, 1476.348754882812
0, 1, 30, 1508.051025390625
0, 1, 31, 1484.201171875
0, 1, 32, 1408.257080078125
0, 1, 33, 1505.627685546875
0, 1, 34, 1501.236694335938
0, 1, 35, 1459.634399414062
0, 1, 36, 1491.013549804688
0, 1, 37, 1407.38134765625
0, 1, 38, 1396.957885742188
0, 1, 39, 1525.179565429688
0, 1, 40, 1464.629760742188
0, 1, 41, 1490.112670898438
0, 1, 42, 1497.923217773438
0, 1, 43, 1502.867065429688
0, 1, 44, 1444.528076171875
0, 1, 45, 1485.231201171875
0, 1, 46, 1420.910278320312
0, 1, 47, 1433.515625
0, 1, 48, 1428.0322265625
0, 1, 49, 1485.4345703125
0, 1, 50, 1444.346313476562
0, 1, 51, 1473.828002929688
0, 1, 52, 1469.01416015625
0, 1, 53, 1474.689575195312
0, 1, 54, 1503.8759765625
0, 1, 55, 1491.697631835938
0, 1, 56, 1469.57373046875
0, 1, 57, 1453.320922851562
0, 1, 58, 1433.013671875
0, 1, 59, 1481.265258789062
0, 1, 60, 1470.390258789062
0, 1, 61, 1450.009643554688
0, 1, 62, 1455.828979492188
0, 1, 63, 1411.55859375
0, 1, 64, 1479.079345703125
0, 1, 65, 1419.821166992188
0, 1, 66, 1441.9140625
0, 1, 67, 1456.810668945312
0, 1, 68, 1386.9267578125
0, 1, 69, 1465.394409179688
0, 1, 70, 1430.628540039062
0, 1, 71, 1500.204345703125
0, 1, 72, 1433.318725585938
0, 1, 73, 1488.078247070312
0, 1, 74, 1471.785400390625
0, 1, 75, 1481.552856445312
0, 1, 76, 1455.10009765625
0, 1, 77, 1462.495727539062
0, 1, 78, 1450.753662109375
0, 1, 79, 1502.396606445312
0, 1, 80, 1452.621948242188
0, 1, 81, 1427.152465820312
0, 1, 82, 1476.717529296875
0, 1, 83, 1456.979125976562
0, 1, 84, 1540.1826171875
0, 1, 85, 1449.401123046875
0, 1, 86, 1403.315185546875
0, 1, 87, 1420.7919921875
0, 1, 88, 1473.424926757812
0, 1, 89, 1474.883056640625
0, 1, 90, 1424.605834960938
0, 1, 91, 1463.878295898438
0, 1, 92, 1413.527709960938
0, 1, 93, 1460.980224609375
0, 1, 94, 1465.6943359375
0, 1, 95, 1424.69189453125
0, 1, 96, 1495.553588867188
0, 1, 97, 1521.135620117188
0, 1, 98, 1473.101440429688
0, 1, 99, 1416.247436523438
0, 1, 100, 1456.697021484375
0, 1, 101, 1414.717041015625
0, 1, 102, 1439.06884765625
0, 1, 103, 1412.538696289062
0, 1, 104, 1408.985717773438
0, 1, 105, 1461.91748046875
0, 1, 106, 1364.6240234375
0, 1, 107, 1016.877258300781
0, 1, 108, 402.6933898925781
0, 1, 109, 92.99124145507812
0, 1, 110, 68.97118377685547
0, 1, 111, 56.40175628662109
0, 1, 112, 50.57686233520508
0, 1, 113, 42.87213134765625
0, 1, 114, 35.09396743774414
0, 1, 115, 40.83604431152344
0, 1, 116, 36.58073043823242
0, 1, 117, 36.20293426513672
0, 1, 118, 34.73043441772461
0, 1, 119, 28.81707763671875
0, 1, 120, 32.00472640991211
0, 1, 121, 22.91495132446289
0, 1, 122, 17.81561088562012
0, 1, 123, 24.3725700378418
0, 1, 124, 27.83450698852539
0, 1, 125, 23.99277114868164
0, 1, 126, 24.48543739318848
0, 1, 127, 19.34261703491211
0, 2, 0, 18.91089248657227
0, 2, 1, 26.01693916320801
0, 2, 2, 27.16964340209961
0, 2, 3, 25.00090026855469
0, 2, 4, 22.25460815429688
0, 2, 5, 23.70798492431641
0, 2, 6, 26.58531951904297
0, 2, 7, 20.11438179016113
0, 2, 8, 26.07764053344727
0, 2, 9, 28.34054565429688
0, 2, 10, 27.3034610748291
0, 2, 11, 34.3101692199707
0, 2, 12, 42.34019470214844
0, 2, 13, 47.38838577270508
0, 2, 14, 49.07905197143555
0, 2, 15, 42.96205902099609
0, 2, 16, 58.35795593261719
0, 2, 17, 77.52408599853516
0, 2, 18, 144.8501281738281
0, 2, 19, 601.5504760742188
0, 2, 20, 1287.126708984375
0, 2, 21, 1438.763427734375
0, 2, 22, 1452.79931640625
0, 2, 23, 1405.679931640625
0, 2, 24, 1439.570434570312
0, 2, 25, 1524.239013671875
0, 2, 26, 1557.33154296875
0, 2, 27, 1458.9921875
0, 2, 28, 1463.200561523438
0, 2, 29, 1460.349243164062
0, 2, 30, 1464.095703125
0, 2, 31, 1529.8359375
0, 2, 32, 1508.587036132812
0, 2, 33, 1442.068481445312
0, 2, 34, 1478.464477539062
0, 2, 35, 1470.936279296875
0, 2, 36, 1524.681030273438
0, 2, 37, 1540.246948242188
0, 2, 38, 1503.910278320312
0, 2, 39, 1464.352294921875
0, 2, 40, 1507.884765625
0, 2, 41, 1515.922241210938
0, 2, 42, 1504.294677734375
0, 2, 43, 1546.800170898438
0, 2, 44, 1463.52392578125
0, 2, 45, 1486.337646484375
0, 2, 46, 1430.661743164062
0, 2, 47, 1447.438720703125
0, 2, 48, 1393.127319335938
0, 2, 49, 1463.39892578125
0, 2, 50, 1442.164916992188
0, 2, 51, 1438.936401367188
0, 2, 52, 1495.090209960938
0, 2, 53, 1523.041748046875
0, 2, 54, 1526.923828125
0, 2, 55, 1492.791259765625
0, 2, 56, 1464.044555664062
0, 2, 57, 1416.10986328125
0, 2, 58, 1451.025146484375
0, 2, 59, 1445.083374023438
0, 2, 60, 1481.703369140625
0, 2, 61, 1448.640747070312
0, 2, 62, 1466.868286132812
0, 2, 63, 1507.816650390625
0, 2, 64, 1463.670288085938
0, 2, 65, 1423.244995117188
0, 2, 66, 1487.919067382812
0, 2, 67, 1506.735961914062
0, 2, 68, 1538.81982421875
0, 2, 69, 1535.521728515625
0, 2, 70, 1505.734008789062
0, 2, 71, 1465.425415039062
0, 2, 72, 1514.892700195312
0, 2, 73, 1516.125244140625
0, 2, 74, 1492.2890625
0, 2, 75, 1498.647338867188
0, 2, 76, 1456.2724609375
0, 2, 77, 1509.102905273438
0, 2, 78, 1430.513671875
0, 2, 79, 1542.258178710938
0, 2, 80, 1477.668579101562
0, 2, 81, 1461.841430664062
0, 2, 82, 1564.461059570312
0, 2, 83, 1515.691162109375
0, 2, 84, 1490.496337890625
0, 2, 85, 1514.872192382812
0, 2, 86, 1541.900024414062
0, 2, 87, 1487.408325195312
0, 2, 88, 1540.15625
0, 2, 89, 1463.213256835938
0, 2, 90, 1428.259887695312
0, 2, 91, 1401.477905273438
0, 2, 92, 1473.072143554688
0, 2, 93, 1491.881103515625
0, 2, 94, 1451.676025390625
0, 2, 95, 1544.685424804688
0, 2, 96, 1524.056396484375
0, 2, 97, 1456.265014648438
0, 2, 98, 1469.209838867188
0, 2, 99, 1400.7939453125
0, 2, 100, 1471.404541015625
0, 2, 101, 1485.8125
0, 2, 102, 1461.248046875
0, 2, 103, 1387.806030273438
0, 2, 104, 1408.185913085938
0, 2, 105, 1393.36669921875
0, 2, 106, 1456.648071289062
0, 2, 107, 1279.143920898438
0, 2, 108, 620.7012329101562
0, 2, 109, 167.5623626708984
0, 2, 110, 70.27354431152344
0, 2, 111, 63.21110153198242
0, 2, 112, 52.77103424072266
0, 2, 113, 43.90766906738281
0, 2, 114, 38.53739166259766
0, 2, 115, 44.63811111450195
0, 2, 116, 34.24411773681641
0, 2, 117, 28.91143608093262
0, 2, 118, 30.92580986022949
0, 2, 119, 28.25405311584473
0, 2, 120, 26.32618522644043
0, 2, 121, 16.47902297973633
0, 2, 122, 24.92541313171387
0, 2, 123, 22.18487548828125
0, 2, 124, 25.80033493041992
0, 2, 125, 33.9481086730957
0, 2, 126, 19.95153045654297
0, 2, 127, 19.52188301086426
0, 3, 0, 22.42617988586426
0, 3, 1, 27.33786773681641
0, 3, 2, 19.12732696533203
0, 3, 3, 23.13438415527344
0, 3, 4, 20.69471168518066
0, 3, 5, 22.82796478271484
0, 3, 6, 30.03157806396484
0, 3, 7, 31.03926849365234
0, 3, 8, 29.48650169372559
0, 3, 9, 30.17290687561035
0, 3, 10, 37.3145866394043
0, 3, 11, 34.7724494934082
0, 3, 12, 43.71578598022461
0, 3, 13, 51.3004035949707
0, 3, 14, 63.8104362487793
0, 3, 15, 55.53300476074219
0, 3, 16, 67.67322540283203
0, 3, 17, 96.10736846923828
0, 3, 18, 238.9612426757812
0, 3, 19, 873.3670654296875
0, 3, 20, 1385.01220703125
0, 3, 21, 1501.518920898438
0, 3, 22, 1462.08203125
0, 3, 23, 1448.717895507812
0, 3, 24, 1437.663940429688
0, 3, 25, 1465.572021484375
0, 3, 26, 1493.54736328125
0, 3, 27, 1470.195922851562
0, 3, 28, 1488.759521484375
0, 3, 29, 1546.123413085938
0, 3, 30, 1571.360595703125
0, 3, 31, 1514.07861328125
0, 3, 32, 1550.25244140625
0, 3, 33, 1539.73876953125
0, 3, 34, 1484.18603515625
0, 3, 35, 1463.327270507812
0, 3, 36, 1448.480346679688
0, 3, 37, 1514.174682617188
0, 3, 38, 1521.025634765625
0, 3, 39, 1446.430908203125
0, 3, 40, 1442.896118164062
0, 3, 41, 1563.4912109375
0, 3, 42, 1466.431518554688
0, 3, 43, 1458.064697265625
0, 3, 44, 1451.724853515625
0, 3, 45, 1510.220336914062
0, 3, 46, 1508.414306640625
0, 3, 47, 1438.492919921875
0, 3, 48, 1510.83056640625
0, 3, 49, 1460.839111328125
0, 3, 50, 1490.392700195312
0, 3, 51, 1536.065551757812
0, 3, 52, 1531.287231445312
0, 3, 53, 1469.015014648438
0, 3, 54, 1536.41064453125
0, 3, 55, 1513.148559570312
0, 3, 56, 1433.88623046875
0, 3, 57, 1507.194091796875
0, 3, 58, 1512.212280273438
0, 3, 59, 1507.328979492188
0, 3, 60, 1531.171752929688
0, 3, 61, 1483.632934570312
0, 3, 62, 1499.1240234375
0, 3, 63, 1498.886352539062
0, 3, 64, 1497.486083984375
0, 3, 65, 1515.6865234375
0, 3, 66, 1556.479248046875
0, 3, 67, 1548.025756835938
0, 3, 68, 1454.562744140625
0, 3, 69, 1464.659912109375
0, 3, 70, 1388.591064453125
0, 3, 71, 1458.964721679688
0, 3, 72, 1545.49169921875
0, 3, 73, 1498.123291015625
0, 3, 74, 1467.120849609375
0, 3, 75, 1459.320190429688
0, 3, 76, 1577.763061523438
0, 3, 77, 1541.502563476562
0, 3, 78, 1428.714965820312
0, 3, 79, 1496.820434570312
0, 3, 80, 1466.029174804688
0, 3, 81, 1471.684326171875
0, 3, 82, 1554.692138671875
0, 3, 83, 1509.387451171875
0, 3, 84, 1560.9287109375
0, 3, 85, 1477.52490234375
0, 3, 86, 1527.352905273438
0, 3, 87, 1541.254516601562
0, 3, 88, 1465.473022460938
0, 3, 89, 1453.547973632812
0, 3, 90, 1450.635375976562
0, 3, 91, 1419.694580078125
0, 3, 92, 1509.39111328125
0, 3, 93, 1500.7470703125
0, 3, 94, 1514.613525390625
0, 3, 95, 1542.129760742188
0, 3, 96, 1511.715698242188
0, 3, 97, 1458.5849609375
0, 3, 98, 1434.9306640625
0, 3, 99, 1463.457153320312
0, 3, 100, 1470.30810546875
0, 3, 101, 1472.336303710938
0, 3, 102, 1515.915405273438
0, 3, 103, 1551.542358398438
0, 3, 104, 1498.730102539062
0, 3, 105, 1516.880859375
0, 3, 106, 1483.35546875
0, 3, 107, 1340.75927734375
0, 3, 108, 873.6350708007812
0, 3, 109, 266.7804565429688
0, 3, 110, 100.8052444458008
0, 3, 111, 62.30403137207031
0, 3, 112, 57.67898941040039
0, 3, 113, 55.16188430786133
0, 3, 114, 50.14170074462891
0, 3, 115, 50.7272834777832
0, 3, 116, 38.90369415283203
0, 3, 117, 39.62570190429688
0, 3, 118, 32.53416061401367
0, 3, 119, 31.29207801818848
0, 3, 120, 31.10319328308105
0, 3, 121, 21.33645439147949
0, 3, 122, 23.07829666137695
0, 3, 123, 21.7754077911377
0, 3, 124, 20.09162330627441
0, 3, 125, 29.70330047607422
0, 3, 126, 23.35722351074219
0, 3, 127, 15.0839147567749
0, 4, 0, 22.41279411315918
0, 4, 1, 24.35522842407227
0, 4, 2, 20.8909854888916
0, 4, 3, 26.28908538818359
0, 4, 4, 24.76255989074707
0, 4, 5, 29.22924423217773
0, 4, 6, 30.8350830078125
0, 4, 7, 26.79770660400391
0, 4, 8, 28.2362232208252
0, 4, 9, 35.28375244140625
0, 4, 10, 31.55031585693359
0, 4, 11, 41.33851623535156
0, 4, 12, 45.31579971313477
0, 4, 13, 51.64410400390625
0, 4, 14, 54.09764099121094
0, 4, 15, 59.73837661743164
0, 4, 16, 74.84475708007812
0, 4, 17, 117.6325149536133
0, 4, 18, 447.53125
0, 4, 19, 1179.51953125
0, 4, 20, 1446.048706054688
0, 4, 21, 1419.303466796875
0, 4, 22, 1430.090209960938
0, 4, 23, 1459.670654296875
0, 4, 24, 1472.157104492188
0, 4, 25, 1403.436157226562
0, 4, 26, 1541.285278320312
0, 4, 27, 1540.9326171875
0, 4, 28, 1504.37890625
0, 4, 29, 1516.27783203125
0, 4, 30, 1526.612426757812
0, 4, 31, 1571.535766601562
0, 4, 32, 1512.719970703125
0, 4, 33, 1497.550903320312
0, 4, 34, 1468.707885742188
0, 4, 35, 1562.244506835938
0, 4, 36, 1502.2255859375
0, 4, 37, 1517.074951171875
0, 4, 38, 1529.693725585938
0, 4, 39, 1468.154541015625
0, 4, 40, 1515.114135742188
0, 4, 41, 1589.00537109375
0, 4, 42, 1558.3056640625
0, 4, 43, 1474.759887695312
0, 4, 44, 1494.143676757812
0, 4, 45, 1516.472290039062
0, 4, 46, 1469.297973632812
0, 4, 47, 1503.143310546875
0, 4, 48, 1523.122192382812
0, 4, 49, 1467.606567382812
0, 4, 50, 1517.656860351562
0, 4, 51, 1496.37841796875
0, 4, 52, 1495.617553710938
0, 4, 53, 1455.686157226562
0, 4, 54, 1451.569702148438
0, 4, 55, 1528.24365234375
0, 4, 56, 1451.486083984375
0, 4, 57, 1492.496215820312
0, 4, 58, 1461.471801757812
0, 4, 59, 1459.166625976562
0, 4, 60, 1528.907348632812
0, 4, 61, 1497.6787109375
0, 4, 62, 1504.611083984375
0, 4, 63, 1558.417358398438
0, 4, 64, 1593.732543945312
0, 4, 65, 1427.622802734375
0, 4, 66, 1517.362670898438
0, 4, 67, 1520.328491210938
0, 4, 68, 1498.830322265625
0, 4, 69, 1468.832153320312
0, 4, 70, 1546.242553710938
0, 4, 71, 1517.790283203125
0, 4, 72, 1525.94189453125
0, 4, 73, 1496.380981445312
0, 4, 74, 1484.28564453125
0, 4, 75, 1534.922729492188
0, 4, 76, 1485.7958984375
0, 4, 77, 1498.225341796875
0, 4, 78, 1508.484252929688
0, 4, 79, 1483.931762695312
0, 4, 80, 1510.134033203125
0, 4, 81, 1527.132202148438
0, 4, 82, 1570.1162109375
0, 4, 83, 1503.0302734375
0, 4, 84, 1539.57958984375
0, 4, 85, 1549.2236328125
0, 4, 86, 1526.951293945312
0, 4, 87, 1493.83740234375
0, 4, 88, 1516.98486328125
0, 4, 89, 1483.819213867188
0, 4, 90, 1546.358520507812
0, 4, 91, 1551.13330078125
0, 4, 92, 1492.044067382812
0, 4, 93, 1513.947998046875
0, 4, 94, 1480.274780273438
0, 4, 95, 1511.260375976562
0, 4, 96, 1440.924682617188
0, 4, 97, 1409.892456054688
0, 4, 98, 1554.192504882812
0, 4, 99, 1509.3740234375
0, 4, 100, 1491.608520507812
0, 4, 101, 1454.737548828125
0, 4, 102, 1445.5869140625
0, 4, 103, 1514.85498046875
0, 4, 104, 1511.265258789062
0, 4, 105, 1559.85888671875
0, 4, 106, 1473.920654296875
0, 4, 107, 1452.954711914062
0, 4, 108, 1124.014526367188
0, 4, 109, 435.2146301269531
0, 4, 110, 99.65370178222656
0, 4, 111, 68.15727233886719
0, 4, 112, 59.00165176391602
0, 4, 113, 50.21580123901367
0, 4, 114, 54.35073852539062
0, 4, 115, 39.77827453613281
0, 4, 116, 34.51105880737305
0, 4, 117, 39.82577514648438
0, 4, 118, 38.23738861083984
0, 4, 119, 42.89696502685547
0, 4, 120, 33.44064331054688
0, 4, 121, 26.18810272216797
0, 4, 122, 24.24978637695312
0, 4, 123, 33.92197799682617
0, 4, 124, 23.0814380645752
0, 4, 125, 30.46546173095703
0, 4, 126, 24.53731346130371
0, 4, 127, 17.41886329650879
0, 5, 0, 22.44172286987305
0, 5, 1, 20.38350677490234
0, 5, 2, 24.62835884094238
0, 5, 3, 24.34211921691895
0, 5, 4, 23.39816093444824
0, 5, 5, 37.85699844360352
0, 5, 6, 36.53072357177734
0, 5, 7, 32.91223526000977
0, 5, 8, 29.90013313293457
0, 5, 9, 32.43506240844727
0, 5, 10, 30.56379890441895
0, 5, 11, 40.19172286987305
0, 5, 12, 37.79012298583984
0, 5, 13, 46.08649826049805
0, 5, 14, 61.63393020629883
0, 5, 15, 81.14609527587891
0, 5, 16, 83.40273284912109
0, 5, 17, 158.2660217285156
0, 5, 18, 672.6622314453125
0, 5, 19, 1346.851318359375
0, 5, 20, 1526.780395507812
0, 5, 21, 1500.301513671875
0, 5, 22, 1498.910522460938
0, 5, 23, 1528.3115234375
0, 5, 24, 1469.007934570312
0, 5, 25, 1423.885131835938
0, 5, 26, 1530.129028320312
0, 5, 27, 1541.6181640625
0, 5, 28, 1485.280517578125
0, 5, 29, 1529.335815429688
0, 5, 30, 1492.400268554688
0, 5, 31, 1503.465209960938
0, 5, 32, 1589.652954101562
0, 5, 33, 1500.822265625
0, 5, 34, 1483.74560546875
0, 5, 35, 1510.642944335938
0, 5, 36, 1446.961181640625
0, 5, 37, 1531.898315429688
0, 5, 38, 1544.383056640625
0, 5, 39, 1548.474731445312
0, 5, 40, 1498.618408203125
0, 5, 41, 1479.415771484375
0, 5, 42, 1537.74658203125
0, 5, 43, 1529.841674804688
0, 5, 44, 1543.032348632812
0, 5, 45, 1516.46044921875
0, 5, 46, 1490.108154296875
0, 5, 47, 1483.179809570312
0, 5, 48, 1496.362426757812
0, 5, 49, 1524.447021484375
0, 5, 50, 1505.924438476562
0, 5, 51, 1517.096313476562
0, 5, 52, 1432.838134765625
0, 5, 53, 1526.680053710938
0, 5, 54, 1521.259155273438
0, 5, 55, 1524.114501953125
0, 5, 56, 1489.787109375
0, 5, 57, 1546.212158203125
0, 5, 58, 1504.724731445312
0, 5, 59, 1486.1806640625
0, 5, 60, 1538.326049804688
0, 5, 61, 1455.201171875
0, 5, 62, 1586.37548828125
0, 5, 63, 1434.504028320312
0, 5, 64, 1493.11865234375
0, 5, 65, 1463.76171875
0, 5, 66, 1524.966064453125
0, 5, 67, 1563.713745117188
0, 5, 68, 1465.482055664062
0, 5, 69, 1473.705322265625
0, 5, 70, 1488.5166015625
0, 5, 71, 1469.330810546875
0, 5, 72, 1538.567993164062
0, 5, 73, 1461.668334960938
0, 5, 74, 1494.211547851562
0, 5, 75, 1485.171997070312
0, 5, 76, 1474.617309570312
0, 5, 77, 1519.778564453125
0, 5, 78, 1523.8681640625
0, 5, 79, 1505.0478515625
0, 5, 80, 1518.350830078125
0, 5, 81, 1590.694702148438
0, 5, 82, 1528.4345703125
0, 5, 83, 1488.20654296875
0, 5, 84, 1529.7783203125
0, 5, 85, 1509.508178710938
0, 5, 86, 1553.903442382812
0, 5, 87, 1472.122802734375
0, 5, 88, 1500.42724609375
0, 5, 89, 1483.827514648438
0, 5, 90, 1480.594116210938
0, 5, 91, 1554.195068359375
0, 5, 92, 1481.175415039062
0, 5, 93, 1558.376098632812
0, 5, 94, 1510.796875
0, 5, 95, 1559.482666015625
0, 5, 96, 1500.577392578125
0, 5, 97, 1508.8515625
0, 5, 98, 1505.477416992188
0, 5, 99, 1542.713745117188
0, 5, 100, 1435.749633789062
0, 5, 101, 1425.143676757812
0, 5, 102, 1515.185180664062
0, 5, 103, 1475.435180664062
0, 5, 104, 1459.660522460938
0, 5, 105, 1495.264770507812
0, 5, 106, 1454.253295898438
0, 5, 107, 1398.518188476562
0, 5, 108, 1288.072143554688
0, 5, 109, 722.0316162109375
0, 5, 110, 195.5137023925781
0, 5, 111, 86.87512969970703
0, 5, 112, 80.57742309570312
0, 5, 113, 61.47058486938477
0, 5, 114, 60.81245040893555
0, 5, 115, 51.16216659545898
0, 5, 116, 40.09991836547852
0, 5, 117, 33.79695892333984
0, 5, 118, 36.1533317565918
0, 5, 119, 27.41387939453125
0, 5, 120, 28.86897468566895
0, 5, 121, 26.365966796875
0, 5, 122, 28.40614318847656
0, 5, 123, 25.83259391784668
0, 5, 124, 24.88571739196777
0, 5, 125, 26.96051025390625
0, 5, 126, 18.48488616943359
0, 5, 127, 20.62366485595703
0, 6, 0, 20.67726707458496
0, 6, 1, 31.85430717468262
0, 6, 2, 27.52804565429688
0, 6, 3, 29.93328094482422
0, 6, 4, 26.05774307250977
0, 6, 5, 29.42195129394531
0, 6, 6, 36.05516815185547
0, 6, 7, 28.77978324890137
0, 6, 8, 37.73843002319336
0, 6, 9, 36.04140472412109
0, 6, 10, 39.59311294555664
0, 6, 11, 34.4163703918457
0, 6, 12, 36.00141525268555
0, 6, 13, 51.1596565246582
0, 6, 14, 61.92789077758789
0, 6, 15, 89.33318328857422
0, 6, 16, 106.5012512207031
0, 6, 17, 296.2108459472656
0, 6, 18, 896.4057006835938
0, 6, 19, 1371.902587890625
0, 6, 20, 1435.670654296875
0, 6, 21, 1529.052124023438
0, 6, 22, 1507.530395507812
0, 6, 23, 1532.147705078125
0, 6, 24, 1479.48828125
0, 6, 25, 1526.535522460938
0, 6, 26, 1516.12255859375
0, 6, 27, 1521.785522460938
0, 6, 28, 1551.51904296875
0, 6, 29, 1574.398803710938
0, 6, 30, 1517.229614257812
0, 6, 31, 1490.71826171875
0, 6, 32, 1521.912475585938
0, 6, 33, 1490.996215820312
0, 6, 34, 1558.72021484375
0, 6, 35, 1501.66357421875
0, 6, 36, 1441.193359375
0, 6, 37, 1546.178833007812
0, 6, 38, 1519.18359375
0, 6, 39, 1519.477783203125
0, 6, 40, 1458.25146484375
0, 6, 41, 1440.722045898438
0, 6, 42, 1517.163818359375
0, 6, 43, 1486.899658203125
0, 6, 44, 1433.53662109375
0, 6, 45, 1548.288330078125
0, 6, 46, 1553.739379882812
0, 6, 47, 1496.757934570312
0, 6, 48, 1527.88818359375
0, 6, 49, 1510.018676757812
0, 6, 50, 1581.788208007812
0, 6, 51, 1504.833618164062
0, 6, 52, 1565.519653320312
0, 6, 53, 1469.756591796875
0, 6, 54, 1501.362915039062
0, 6, 55, 1574.0302734375
0, 6, 56, 1521.610229492188
0, 6, 57, 1505.143798828125
0, 6, 58, 1471.763427734375
0, 6, 59, 1520.401611328125
0, 6, 60, 1471.074096679688
0, 6, 61, 1572.70849609375
0, 6, 62, 1546.841552734375
0, 6, 63, 1494.0927734375
0, 6, 64, 1411.634521484375
0, 6, 65, 1497.943969726562
0, 6, 66, 1510.449829101562
0, 6, 67, 1511.696166992188
0, 6, 68, 1544.145874023438
0, 6, 69, 1485.103515625
0, 6, 70, 1521.780883789062
0, 6, 71, 1464.910278320312
0, 6, 72, 1595.743774414062
0, 6, 73, 1492.371948242188
0, 6, 74, 1560.401611328125
0, 6, 75, 1538.183471679688
0, 6, 76, 1564.81298828125
0, 6, 77, 1501.125610351562
0, 6, 78, 1444.029418945312
0, 6, 79, 1554.767211914062
0, 6, 80, 1486.038452148438
0, 6, 81, 1484.70849609375
0, 6, 82, 1505.853637695312
0, 6, 83, 1525.878662109375
0, 6, 84, 1518.21435546875
0, 6, 85, 1539.554931640625
0, 6, 86, 1546.533203125
0, 6, 87, 1571.906005859375
0, 6, 88, 1477.155151367188
0, 6, 89, 1562.93603515625
0, 6, 90, 1486.702758789062
0, 6, 91, 1540.887451171875
0, 6, 92, 1490.426513671875
0, 6, 93, 1502.4482421875
0, 6, 94, 1471.8701171875
0, 6, 95, 1510.95458984375
0, 6, 96, 1522.601196289062
0, 6, 97, 1504.180541992188
0, 6, 98, 1495.693725585938
0, 6, 99, 1480.796630859375
0, 6, 100, 1518.400512695312
0, 6, 101, 1517.382080078125
0, 6, 102, 1539.036865234375
0, 6, 103, 1498.296508789062
0, 6, 104, 1463.199462890625
0, 6, 105, 1484.762939453125
0, 6, 106, 1494.434326171875
0, 6, 107, 1502.598510742188
0, 6, 108, 1411.636108398438
0, 6, 109, 922.78955078125
0, 6, 110, 283.1647033691406
0, 6, 111, 96.90480804443359
0, 6, 112, 73.59428405761719
0, 6, 113, 60.26128768920898
0, 6, 114, 55.22257232666016
0, 6, 115, 47.42492294311523
0, 6, 116, 40.42612838745117
0, 6, 117, 37.61334609985352
0, 6, 118, 32.77691650390625
0, 6, 119, 38.02801132202148
0, 6, 120, 36.8896598815918
0, 6, 121, 32.54397201538086
0, 6, 122, 27.56645584106445
0, 6, 123, 23.90593147277832
0, 6, 124, 32.01731491088867
0, 6, 125, 32.51518630981445
0, 6, 126, 21.45815467834473
0, 6, 127, 21.35490226745605
0, 7, 0, 20.07438659667969
0, 7, 1, 30.03314971923828
0, 7, 2, 24.31737899780273
0, 7, 3, 29.71814727783203
0, 7, 4, 24.20403099060059
0, 7, 5, 34.08506393432617
0, 7, 6, 33.21975708007812
0, 7, 7, 33.79185485839844
0, 7, 8, 29.59745597839355
0, 7, 9, 35.32261276245117
0, 7, 10, 41.61207962036133
0, 7, 11, 48.17792892456055
0, 7, 12, 44.18937301635742
0, 7, 13, 50.21149444580078
0, 7, 14, 61.48305892944336
0, 7, 15, 79.83537292480469
0, 7, 16, 132.1979522705078
0, 7, 17, 459.44921875
0, 7, 18, 1099.048828125
0, 7, 19, 1498.451538085938
0, 7, 20, 1489.183715820312
0, 7, 21, 1367.657348632812
0, 7, 22, 1485.584838867188
0, 7, 23, 1454.321899414062
0, 7, 24, 1509.822387695312
0, 7, 25, 1592.222290039062
0, 7, 26, 1518.36474609375
0, 7, 27, 1507.927124023438
0, 7, 28, 1543.17578125
0, 7, 29, 1581.8798828125
0, 7, 30, 1549.945922851562
0, 7, 31, 1437.38330078125
0, 7, 32, 1542.261962890625
0, 7, 33, 1497.478515625
0, 7, 34, 1482.888061523438
0, 7, 35, 1519.896240234375
0, 7, 36, 1472.504760742188
0, 7, 37, 1597.533935546875
0, 7, 38, 1499.78076171875
0, 7, 39, 1494.589233398438
0, 7, 40, 1545.207153320312
0, 7, 41, 1465.55126953125
0, 7, 42, 1485.583862304688
0, 7, 43, 1444.8916015625
0, 7, 44, 1488.946411132812
0, 7, 45, 1471.226196289062
0, 7, 46, 1506.4912109375
0, 7, 47, 1564.98876953125
0, 7, 48, 1526.726684570312
0, 7, 49, 1542.025024414062
0, 7, 50, 1513.617553710938
0, 7, 51, 1495.251953125
0, 7, 52, 1518.889282226562
0, 7, 53, 1498.511352539062
0, 7, 54, 1586.927612304688
0, 7, 55, 1468.366943359375
0, 7, 56, 1545.863037109375
0, 7, 57, 1511.235717773438
0, 7, 58, 1544.681518554688
0, 7, 59, 1538.5546875
0, 7, 60, 1552.56494140625
0, 7, 61, 1490.374389648438
0, 7, 62, 1439.141235351562
0, 7, 63, 1516.504150390625
0, 7, 64, 1552.670654296875
0, 7, 65, 1524.758422851562
0, 7, 66, 1538.041259765625
0, 7, 67, 1578.770629882812
0, 7, 68, 1531.507202148438
0, 7, 69, 1511.520874023438
0, 7, 70, 1495.349975585938
0, 7, 71, 1529.16064453125
0, 7, 72, 1525.444213867188
0, 7, 73, 1517.170532226562
0, 7, 74, 1576.944702148438
0, 7, 75, 1536.802124023438
0, 7, 76, 1554.118896484375
0, 7, 77, 1516.0947265625
0, 7, 78, 1507.484008789062
0, 7, 79, 1422.034545898438
0, 7, 80, 1493.32958984375
0, 7, 81, 1497.503295898438
0, 7, 82, 1534.282836914062
0, 7, 83, 1541.882568359375
0, 7, 84, 1584.910522460938
0, 7, 85, 1477.888061523438
0, 7, 86, 1499.865478515625
0, 7, 87, 1508.451049804688
0, 7, 88, 1500.092407226562
0, 7, 89, 1555.666137695312
0, 7, 90, 1524.44189453125
0, 7, 91, 1567.285766601562
0, 7, 92, 1529.780151367188
0, 7, 93, 1557.578125
0, 7, 94, 1537.91943359375
0, 7, 95, 1506.324584960938
0, 7, 96, 1512.8486328125
0, 7, 97, 1436.832153320312
0, 7, 98, 1486.159423828125
0, 7, 99, 1528.18408203125
0, 7, 100, 1421.168579101562
0, 7, 101, 1468.712524414062
0, 7, 102, 1452.316284179688
0, 7, 103, 1434.48828125
0, 7, 104, 1494.171630859375
0, 7, 105, 1520.381591796875
0, 7, 106, 1565.746704101562
0, 7, 107, 1479.222045898438
0, 7, 108, 1406.281860351562
0, 7, 109, 1153.19970703125
0, 7, 110, 477.1145629882812
0, 7, 111, 128.8972625732422
0, 7, 112, 78.82598114013672
0, 7, 113, 64.89645385742188
0, 7, 114, 52.86220932006836
0, 7, 115, 50.72931671142578
0, 7, 116, 51.87433624267578
0, 7, 117, 43.19522476196289
0, 7, 118, 35.26652908325195
0, 7, 119, 34.75394821166992
0, 7, 120, 21.11755561828613
0, 7, 121, 30.12405204772949
0, 7, 122, 29.47415351867676
0, 7, 123, 35.87556457519531
0, 7, 124, 30.18469047546387
0, 7, 125, 20.70267105102539
0, 7, 126, 23.04039001464844
0, 7, 127, 21.03341865539551
0, 8, 0, 19.30122184753418
0, 8, 1, 25.92044639587402
0, 8, 2, 25.79024887084961
0, 8, 3, 22.62004470825195
0, 8, 4, 23.44536972045898
0, 8, 5, 35.55009460449219
0, 8, 6, 27.72961616516113
0, 8, 7, 27.48639678955078
0, 8, 8, 31.65377426147461
0, 8, 9, 47.56744766235352
0, 8, 10, 39.22991180419922
0, 8, 11, 42.35717391967773
0, 8, 12, 53.41984939575195
0, 8, 13, 73.70033264160156
0, 8, 14, 67.10549163818359
0, 8, 15, 83.57720184326172
0, 8, 16, 169.7227172851562
0, 8, 17, 677.6768188476562
0, 8, 18, 1279.856811523438
0, 8, 19, 1453.72265625
0, 8, 20, 1422.239990234375
0, 8, 21, 1409.738647460938
0, 8, 22, 1487.14111328125
0, 8, 23, 1478.950317382812
0, 8, 24, 1436.601928710938
0, 8, 25, 1465.797973632812
0, 8, 26, 1516.412963867188
0, 8, 27, 1522.79248046875
0, 8, 28, 1476.335815429688
0, 8, 29, 1503.28857421875
0, 8, 30, 1483.118530273438
0, 8, 31, 1536.792358398438
0, 8, 32, 1509.25732421875
0, 8, 33, 1478.682861328125
0, 8, 34, 1535.526977539062
0, 8, 35, 1449.02978515625
0, 8, 36, 1497.249389648438
0, 8, 37, 1557.055908203125
0, 8, 38, 1547.974853515625
0, 8, 39, 1497.121459960938
0, 8, 40, 1532.818603515625
0, 8, 41, 1481.508911132812
0, 8, 42, 1535.06396484375
0, 8, 43, 1437.897705078125
0, 8, 44, 1534.8759765625
0, 8, 45, 1513.421630859375
0, 8, 46, 1593.163208007812
0, 8, 47, 1584.392944335938
