# TOPAS Version: 3.1.p3
# Parameter File: batch_inserts_64.txt
# Results for scorer Readout_Adipose
# Scored in component: MyBox
# X in 1 bin  of 0.75 cm
# Y in 512 bins of 0.0783984 cm
# Z in 128 bins of 0.078125 cm
# EnergyDeposit ( MeV ) : Sum   
0, 0, 0, 4.121575355529785
0, 0, 1, 1.687361598014832
0, 0, 2, 4.857513904571533
0, 0, 3, 2.77471399307251
0, 0, 4, 6.593995094299316
0, 0, 5, 3.21068811416626
0, 0, 6, 6.208619117736816
0, 0, 7, 10.19423294067383
0, 0, 8, 3.908528804779053
0, 0, 9, 3.36773681640625
0, 0, 10, 6.009373664855957
0, 0, 11, 5.480271339416504
0, 0, 12, 4.143588066101074
0, 0, 13, 5.300076484680176
0, 0, 14, 7.774196147918701
0, 0, 15, 10.61718940734863
0, 0, 16, 8.247523307800293
0, 0, 17, 7.714638233184814
0, 0, 18, 14.50774955749512
0, 0, 19, 43.70613479614258
0, 0, 20, 140.4830322265625
0, 0, 21, 224.5554504394531
0, 0, 22, 248.6464691162109
0, 0, 23, 255.1330108642578
0, 0, 24, 250.1069030761719
0, 0, 25, 258.9359436035156
0, 0, 26, 234.3508148193359
0, 0, 27, 237.7039337158203
0, 0, 28, 271.0353088378906
0, 0, 29, 252.8541107177734
0, 0, 30, 229.3377685546875
0, 0, 31, 244.6299591064453
0, 0, 32, 264.422119140625
0, 0, 33, 261.4764709472656
0, 0, 34, 286.5363159179688
0, 0, 35, 268.4371948242188
0, 0, 36, 246.3528747558594
0, 0, 37, 253.5697937011719
0, 0, 38, 266.5497131347656
0, 0, 39, 228.5817565917969
0, 0, 40, 242.1475067138672
0, 0, 41, 267.3366088867188
0, 0, 42, 229.0824432373047
0, 0, 43, 259.1252136230469
0, 0, 44, 251.1051330566406
0, 0, 45, 252.5857696533203
0, 0, 46, 244.4926605224609
0, 0, 47, 251.4953918457031
0, 0, 48, 265.5959167480469
0, 0, 49, 271.9319458007812
0, 0, 50, 249.8454132080078
0, 0, 51, 255.2249755859375
0, 0, 52, 272.7654724121094
0, 0, 53, 291.0146484375
0, 0, 54, 241.6526794433594
0, 0, 55, 240.1786499023438
0, 0, 56, 277.5476684570312
0, 0, 57, 265.2988891601562
0, 0, 58, 245.7592926025391
0, 0, 59, 270.7315979003906
0, 0, 60, 235.0706939697266
0, 0, 61, 246.1524658203125
0, 0, 62, 260.4683532714844
0, 0, 63, 268.805419921875
0, 0, 64, 257.1672668457031
0, 0, 65, 261.9947814941406
0, 0, 66, 275.6351623535156
0, 0, 67, 244.8641967773438
0, 0, 68, 257.6153564453125
0, 0, 69, 260.6284790039062
0, 0, 70, 274.0754089355469
0, 0, 71, 237.6059112548828
0, 0, 72, 249.5059814453125
0, 0, 73, 258.4453735351562
0, 0, 74, 251.8717956542969
0, 0, 75, 240.2807769775391
0, 0, 76, 228.2773590087891
0, 0, 77, 261.7283935546875
0, 0, 78, 255.3304748535156
0, 0, 79, 278.4708557128906
0, 0, 80, 216.6235656738281
0, 0, 81, 267.1470031738281
0, 0, 82, 255.6693878173828
0, 0, 83, 245.9922790527344
0, 0, 84, 268.3750915527344
0, 0, 85, 232.1844024658203
0, 0, 86, 253.7541656494141
0, 0, 87, 250.9525299072266
0, 0, 88, 259.4468078613281
0, 0, 89, 282.4123840332031
0, 0, 90, 244.0372619628906
0, 0, 91, 279.853515625
0, 0, 92, 252.9508056640625
0, 0, 93, 249.2063140869141
0, 0, 94, 249.0441436767578
0, 0, 95, 248.3350372314453
0, 0, 96, 274.214599609375
0, 0, 97, 272.3557739257812
0, 0, 98, 272.7068481445312
0, 0, 99, 258.6529846191406
0, 0, 100, 257.5840759277344
0, 0, 101, 226.6695861816406
0, 0, 102, 231.9337921142578
0, 0, 103, 268.8959655761719
0, 0, 104, 256.2371215820312
0, 0, 105, 252.3985443115234
0, 0, 106, 245.3281097412109
0, 0, 107, 154.4072113037109
0, 0, 108, 39.18031311035156
0, 0, 109, 13.15934944152832
0, 0, 110, 12.83816528320312
0, 0, 111, 10.72243595123291
0, 0, 112, 7.592374324798584
0, 0, 113, 4.911100387573242
0, 0, 114, 7.171968460083008
0, 0, 115, 7.646472454071045
0, 0, 116, 5.990107536315918
0, 0, 117, 6.506146907806396
0, 0, 118, 7.248662948608398
0, 0, 119, 3.161511182785034
0, 0, 120, 3.63791298866272
0, 0, 121, 4.167614459991455
0, 0, 122, 4.095931053161621
0, 0, 123, 2.237613439559937
0, 0, 124, 4.902486801147461
0, 0, 125, 3.402580976486206
0, 0, 126, 3.275639772415161
0, 0, 127, 3.044228076934814
0, 1, 0, 8.513376235961914
0, 1, 1, 3.007522583007812
0, 1, 2, 4.361419677734375
0, 1, 3, 1.87718677520752
0, 1, 4, 5.408659934997559
0, 1, 5, 2.707414865493774
0, 1, 6, 5.127206325531006
0, 1, 7, 5.058097362518311
0, 1, 8, 8.537583351135254
0, 1, 9, 4.596193790435791
0, 1, 10, 6.104494094848633
0, 1, 11, 11.92190074920654
0, 1, 12, 9.222553253173828
0, 1, 13, 9.37059497833252
0, 1, 14, 7.629333019256592
0, 1, 15, 7.434019565582275
0, 1, 16, 10.72960090637207
0, 1, 17, 13.92846870422363
0, 1, 18, 19.96158981323242
0, 1, 19, 65.39574432373047
0, 1, 20, 198.4810180664062
0, 1, 21, 254.3945922851562
0, 1, 22, 294.4336853027344
0, 1, 23, 283.7913513183594
0, 1, 24, 275.4825744628906
0, 1, 25, 286.5242004394531
0, 1, 26, 268.9530029296875
0, 1, 27, 306.9634094238281
0, 1, 28, 298.1838073730469
0, 1, 29, 296.1654968261719
0, 1, 30, 280.541748046875
0, 1, 31, 293.7044372558594
0, 1, 32, 291.4417724609375
0, 1, 33, 296.38818359375
0, 1, 34, 293.8140258789062
0, 1, 35, 281.5419006347656
0, 1, 36, 306.6961364746094
0, 1, 37, 295.132568359375
0, 1, 38, 281.4420776367188
0, 1, 39, 295.9094848632812
0, 1, 40, 266.7616577148438
0, 1, 41, 285.4212341308594
0, 1, 42, 290.8038024902344
0, 1, 43, 332.7708129882812
0, 1, 44, 278.2292175292969
0, 1, 45, 293.5029907226562
0, 1, 46, 261.6304626464844
0, 1, 47, 310.755859375
0, 1, 48, 285.3267211914062
0, 1, 49, 303.0593566894531
0, 1, 50, 264.0557250976562
0, 1, 51, 271.5285949707031
0, 1, 52, 297.6898498535156
0, 1, 53, 303.8772888183594
0, 1, 54, 274.692626953125
0, 1, 55, 294.8954162597656
0, 1, 56, 278.7213134765625
0, 1, 57, 298.3024597167969
0, 1, 58, 311.1137390136719
0, 1, 59, 294.9153747558594
0, 1, 60, 297.4972839355469
0, 1, 61, 275.3636474609375
0, 1, 62, 306.35400390625
0, 1, 63, 285.4916076660156
0, 1, 64, 289.240478515625
0, 1, 65, 294.4873962402344
0, 1, 66, 291.9057922363281
0, 1, 67, 291.6695861816406
0, 1, 68, 277.9107055664062
0, 1, 69, 280.3292846679688
0, 1, 70, 269.4779357910156
0, 1, 71, 272.9753112792969
0, 1, 72, 286.9546203613281
0, 1, 73, 305.6152954101562
0, 1, 74, 303.9179382324219
0, 1, 75, 292.7015686035156
0, 1, 76, 285.7226867675781
0, 1, 77, 289.5841979980469
0, 1, 78, 295.85595703125
0, 1, 79, 301.5315856933594
0, 1, 80, 294.2610778808594
0, 1, 81, 298.7749633789062
0, 1, 82, 283.2754211425781
0, 1, 83, 332.1850280761719
0, 1, 84, 308.9496154785156
0, 1, 85, 253.5688018798828
0, 1, 86, 296.4526977539062
0, 1, 87, 291.9615173339844
0, 1, 88, 298.9532165527344
0, 1, 89, 290.9697875976562
0, 1, 90, 270.8381042480469
0, 1, 91, 318.3596801757812
0, 1, 92, 289.4326782226562
0, 1, 93, 285.8204650878906
0, 1, 94, 303.7774963378906
0, 1, 95, 285.999267578125
0, 1, 96, 282.1685791015625
0, 1, 97, 301.2055358886719
0, 1, 98, 279.2320861816406
0, 1, 99, 269.4806518554688
0, 1, 100, 277.828125
0, 1, 101, 282.5506896972656
0, 1, 102, 278.4736022949219
0, 1, 103, 283.7433776855469
0, 1, 104, 306.8871459960938
0, 1, 105, 296.6581420898438
0, 1, 106, 260.9959411621094
0, 1, 107, 192.7396087646484
0, 1, 108, 80.52565002441406
0, 1, 109, 23.16863441467285
0, 1, 110, 11.00035953521729
0, 1, 111, 9.412609100341797
0, 1, 112, 12.59681701660156
0, 1, 113, 5.100979804992676
0, 1, 114, 6.880001068115234
0, 1, 115, 7.156468391418457
0, 1, 116, 12.07721614837646
0, 1, 117, 8.257197380065918
0, 1, 118, 4.489511013031006
0, 1, 119, 4.991145133972168
0, 1, 120, 4.912844657897949
0, 1, 121, 2.196855068206787
0, 1, 122, 2.732449293136597
0, 1, 123, 5.865362167358398
0, 1, 124, 7.571225166320801
0, 1, 125, 5.355990409851074
0, 1, 126, 1.492849707603455
0, 1, 127, 1.516656279563904
0, 2, 0, 2.746671199798584
0, 2, 1, 1.531415104866028
0, 2, 2, 3.270121097564697
0, 2, 3, 3.681903839111328
0, 2, 4, 3.353062868118286
0, 2, 5, 4.246382236480713
0, 2, 6, 1.741678595542908
0, 2, 7, 3.346601963043213
0, 2, 8, 4.82116174697876
0, 2, 9, 5.261274337768555
0, 2, 10, 9.081204414367676
0, 2, 11, 5.707493782043457
0, 2, 12, 6.196824073791504
0, 2, 13, 11.55244827270508
0, 2, 14, 9.363905906677246
0, 2, 15, 9.511603355407715
0, 2, 16, 9.989072799682617
0, 2, 17, 15.41937351226807
0, 2, 18, 28.55980682373047
0, 2, 19, 117.4885635375977
0, 2, 20, 246.5611877441406
0, 2, 21, 271.0099487304688
0, 2, 22, 316.9530334472656
0, 2, 23, 299.7152404785156
0, 2, 24, 286.5125732421875
0, 2, 25, 303.2164611816406
0, 2, 26, 291.7600708007812
0, 2, 27, 276.5046081542969
0, 2, 28, 275.1416931152344
0, 2, 29, 273.5355529785156
0, 2, 30, 290.8171081542969
0, 2, 31, 277.9435424804688
0, 2, 32, 294.0512390136719
0, 2, 33, 282.7724609375
0, 2, 34, 333.4805908203125
0, 2, 35, 288.6758422851562
0, 2, 36, 304.2887878417969
0, 2, 37, 319.2943115234375
0, 2, 38, 312.65478515625
0, 2, 39, 268.5191040039062
0, 2, 40, 309.5824279785156
0, 2, 41, 290.2483520507812
0, 2, 42, 302.4935913085938
0, 2, 43, 311.834716796875
0, 2, 44, 311.366943359375
0, 2, 45, 324.1217956542969
0, 2, 46, 288.1096496582031
0, 2, 47, 304.3175964355469
0, 2, 48, 281.506103515625
0, 2, 49, 277.164306640625
0, 2, 50, 294.4289245605469
0, 2, 51, 284.6881713867188
0, 2, 52, 272.0741577148438
0, 2, 53, 288.5855102539062
0, 2, 54, 280.4377136230469
0, 2, 55, 273.3587341308594
0, 2, 56, 301.7696228027344
0, 2, 57, 293.0960083007812
0, 2, 58, 304.8367004394531
0, 2, 59, 289.273681640625
0, 2, 60, 318.9090576171875
0, 2, 61, 303.5332336425781
0, 2, 62, 313.8991088867188
0, 2, 63, 303.846923828125
0, 2, 64, 296.2216796875
0, 2, 65, 311.7371520996094
0, 2, 66, 278.1672668457031
0, 2, 67, 293.5152587890625
0, 2, 68, 296.1816711425781
0, 2, 69, 310.9164123535156
0, 2, 70, 333.106201171875
0, 2, 71, 283.0727233886719
0, 2, 72, 302.2839050292969
0, 2, 73, 311.5566711425781
0, 2, 74, 286.58740234375
0, 2, 75, 306.8742370605469
0, 2, 76, 287.59814453125
0, 2, 77, 299.9258728027344
0, 2, 78, 316.3881225585938
0, 2, 79, 309.1194763183594
0, 2, 80, 297.5202941894531
0, 2, 81, 283.042236328125
0, 2, 82, 317.5029602050781
0, 2, 83, 311.4011840820312
0, 2, 84, 287.1621704101562
0, 2, 85, 280.6666564941406
0, 2, 86, 322.8408203125
0, 2, 87, 288.4323425292969
0, 2, 88, 280.5000915527344
0, 2, 89, 296.6820068359375
0, 2, 90, 296.5350341796875
0, 2, 91, 277.7112731933594
0, 2, 92, 305.5907287597656
0, 2, 93, 315.961181640625
0, 2, 94, 292.7793579101562
0, 2, 95, 315.7957153320312
0, 2, 96, 315.4949340820312
0, 2, 97, 294.9587707519531
0, 2, 98, 295.8207702636719
0, 2, 99, 272.9578857421875
0, 2, 100, 305.8644104003906
0, 2, 101, 300.4292907714844
0, 2, 102, 296.3272094726562
0, 2, 103, 293.9322509765625
0, 2, 104, 293.9017944335938
0, 2, 105, 273.1629638671875
0, 2, 106, 297.3101501464844
0, 2, 107, 272.6238403320312
0, 2, 108, 116.2134017944336
0, 2, 109, 32.16685104370117
0, 2, 110, 12.16026496887207
0, 2, 111, 11.12905120849609
0, 2, 112, 8.519950866699219
0, 2, 113, 10.34711742401123
0, 2, 114, 9.335812568664551
0, 2, 115, 8.278315544128418
0, 2, 116, 9.695773124694824
0, 2, 117, 4.804608345031738
0, 2, 118, 4.524727344512939
0, 2, 119, 4.947322845458984
0, 2, 120, 7.665963172912598
0, 2, 121, 3.742253541946411
0, 2, 122, 4.830758094787598
0, 2, 123, 2.558074474334717
0, 2, 124, 3.557378768920898
0, 2, 125, 4.798669338226318
0, 2, 126, 3.263431310653687
0, 2, 127, 5.281520843505859
0, 3, 0, 4.449107646942139
0, 3, 1, 2.759391069412231
0, 3, 2, 5.743573188781738
0, 3, 3, 2.934435129165649
0, 3, 4, 4.604860305786133
0, 3, 5, 7.174699783325195
0, 3, 6, 6.916768550872803
0, 3, 7, 4.898404598236084
0, 3, 8, 5.076431751251221
0, 3, 9, 4.909119606018066
0, 3, 10, 5.834683418273926
0, 3, 11, 3.887765407562256
0, 3, 12, 8.681337356567383
0, 3, 13, 14.48960781097412
0, 3, 14, 11.33524608612061
0, 3, 15, 13.43993473052979
0, 3, 16, 10.32172966003418
0, 3, 17, 18.25888252258301
0, 3, 18, 52.06756210327148
0, 3, 19, 174.2521514892578
0, 3, 20, 269.4921569824219
0, 3, 21, 271.9303588867188
0, 3, 22, 281.541748046875
0, 3, 23, 287.0357360839844
0, 3, 24, 285.0497436523438
0, 3, 25, 275.5219116210938
0, 3, 26, 303.9217834472656
0, 3, 27, 292.0348510742188
0, 3, 28, 281.3358459472656
0, 3, 29, 337.1320190429688
0, 3, 30, 315.4713745117188
0, 3, 31, 290.1855163574219
0, 3, 32, 306.0718078613281
0, 3, 33, 314.3937072753906
0, 3, 34, 322.4167175292969
0, 3, 35, 304.9532775878906
0, 3, 36, 271.1773071289062
0, 3, 37, 314.6371459960938
0, 3, 38, 303.9393615722656
0, 3, 39, 290.7733764648438
0, 3, 40, 266.6614685058594
0, 3, 41, 301.4002075195312
0, 3, 42, 284.7511901855469
0, 3, 43, 306.658203125
0, 3, 44, 310.8891906738281
0, 3, 45, 290.1983642578125
0, 3, 46, 328.0941772460938
0, 3, 47, 298.9740295410156
0, 3, 48, 307.3147888183594
0, 3, 49, 276.8190307617188
0, 3, 50, 291.4870300292969
0, 3, 51, 278.469970703125
0, 3, 52, 316.3083190917969
0, 3, 53, 288.6905212402344
0, 3, 54, 283.3055114746094
0, 3, 55, 283.9523315429688
0, 3, 56, 300.7933959960938
0, 3, 57, 289.9375
0, 3, 58, 308.9624938964844
0, 3, 59, 293.3724670410156
0, 3, 60, 297.4376831054688
0, 3, 61, 264.1988830566406
0, 3, 62, 285.0274963378906
0, 3, 63, 307.474853515625
0, 3, 64, 315.9202270507812
0, 3, 65, 304.4437866210938
0, 3, 66, 316.2951354980469
0, 3, 67, 317.9571838378906
0, 3, 68, 279.1438293457031
0, 3, 69, 282.7432556152344
0, 3, 70, 289.2856140136719
0, 3, 71, 301.7281494140625
0, 3, 72, 269.5442199707031
0, 3, 73, 312.1052551269531
0, 3, 74, 291.7563171386719
0, 3, 75, 289.3345336914062
0, 3, 76, 305.2104797363281
0, 3, 77, 314.3183288574219
0, 3, 78, 304.0258178710938
0, 3, 79, 280.9603271484375
0, 3, 80, 290.9886779785156
0, 3, 81, 311.3391418457031
0, 3, 82, 315.7402648925781
0, 3, 83, 299.3630981445312
0, 3, 84, 310.9710693359375
0, 3, 85, 291.5047912597656
0, 3, 86, 304.0446472167969
0, 3, 87, 298.4762268066406
0, 3, 88, 298.7583618164062
0, 3, 89, 295.8650817871094
0, 3, 90, 275.1589660644531
0, 3, 91, 285.2577209472656
0, 3, 92, 304.0458374023438
0, 3, 93, 313.1157531738281
0, 3, 94, 297.1221618652344
0, 3, 95, 335.0989685058594
0, 3, 96, 289.4763488769531
0, 3, 97, 283.2380676269531
0, 3, 98, 276.7572021484375
0, 3, 99, 262.2083435058594
0, 3, 100, 284.3817138671875
0, 3, 101, 297.4836120605469
0, 3, 102, 275.1231079101562
0, 3, 103, 320.6958923339844
0, 3, 104, 307.5287475585938
0, 3, 105, 288.5901184082031
0, 3, 106, 301.9004821777344
0, 3, 107, 282.2696533203125
0, 3, 108, 166.0980529785156
0, 3, 109, 56.93017959594727
0, 3, 110, 21.93317794799805
0, 3, 111, 13.65811061859131
0, 3, 112, 13.84691333770752
0, 3, 113, 10.65103721618652
0, 3, 114, 12.43975067138672
0, 3, 115, 10.17096996307373
0, 3, 116, 6.227993965148926
0, 3, 117, 8.974230766296387
0, 3, 118, 8.160923957824707
0, 3, 119, 5.469856739044189
0, 3, 120, 6.348898887634277
0, 3, 121, 2.558040618896484
0, 3, 122, 5.604069709777832
0, 3, 123, 6.997650623321533
0, 3, 124, 4.739833831787109
0, 3, 125, 5.782647609710693
0, 3, 126, 4.991714954376221
0, 3, 127, 2.433594465255737
0, 4, 0, 1.927275419235229
0, 4, 1, 6.144187927246094
0, 4, 2, 2.921353578567505
0, 4, 3, 2.067626953125
0, 4, 4, 5.764834880828857
0, 4, 5, 8.210589408874512
0, 4, 6, 7.660644054412842
0, 4, 7, 5.736821174621582
0, 4, 8, 4.859254360198975
0, 4, 9, 5.280441284179688
0, 4, 10, 11.93367290496826
0, 4, 11, 6.004095554351807
0, 4, 12, 5.702156543731689
0, 4, 13, 8.403326034545898
0, 4, 14, 11.4546480178833
0, 4, 15, 10.04093074798584
0, 4, 16, 12.98754024505615
0, 4, 17, 18.04465866088867
0, 4, 18, 91.21469116210938
0, 4, 19, 221.8347778320312
0, 4, 20, 283.0069885253906
0, 4, 21, 272.6363525390625
0, 4, 22, 304.4382934570312
0, 4, 23, 267.4332885742188
0, 4, 24, 290.0138854980469
0, 4, 25, 276.1950073242188
0, 4, 26, 296.5572814941406
0, 4, 27, 282.7203063964844
0, 4, 28, 307.166748046875
0, 4, 29, 322.64794921875
0, 4, 30, 309.8821716308594
0, 4, 31, 304.6812438964844
0, 4, 32, 281.6808166503906
0, 4, 33, 297.9269714355469
0, 4, 34, 298.0542907714844
0, 4, 35, 311.5976257324219
0, 4, 36, 294.3005676269531
0, 4, 37, 286.894287109375
0, 4, 38, 297.8596496582031
0, 4, 39, 293.5156860351562
0, 4, 40, 301.1288757324219
0, 4, 41, 311.2520751953125
0, 4, 42, 331.6279296875
0, 4, 43, 295.352294921875
0, 4, 44, 320.1060791015625
0, 4, 45, 325.3779907226562
0, 4, 46, 306.0947875976562
0, 4, 47, 293.8540954589844
0, 4, 48, 295.8728637695312
0, 4, 49, 277.2975158691406
0, 4, 50, 297.6127014160156
0, 4, 51, 315.3386535644531
0, 4, 52, 328.1057739257812
0, 4, 53, 305.1535949707031
0, 4, 54, 287.2191162109375
0, 4, 55, 316.3630981445312
0, 4, 56, 286.4478454589844
0, 4, 57, 308.4453735351562
0, 4, 58, 293.0833435058594
0, 4, 59, 306.6624145507812
0, 4, 60, 301.1388854980469
0, 4, 61, 314.3944091796875
0, 4, 62, 306.6474609375
0, 4, 63, 299.2452087402344
0, 4, 64, 330.253662109375
0, 4, 65, 318.3351135253906
0, 4, 66, 291.7327880859375
0, 4, 67, 286.9709167480469
0, 4, 68, 314.9906921386719
0, 4, 69, 277.3972473144531
0, 4, 70, 299.7137145996094
0, 4, 71, 320.3949890136719
0, 4, 72, 334.4610595703125
0, 4, 73, 299.5728759765625
0, 4, 74, 294.1024780273438
0, 4, 75, 292.5393981933594
0, 4, 76, 274.5782470703125
0, 4, 77, 277.5276794433594
0, 4, 78, 308.4266357421875
0, 4, 79, 318.5778503417969
0, 4, 80, 316.1970520019531
0, 4, 81, 313.6829833984375
0, 4, 82, 297.6022033691406
0, 4, 83, 302.1263427734375
0, 4, 84, 290.3009948730469
0, 4, 85, 294.1237182617188
0, 4, 86, 297.9163513183594
0, 4, 87, 285.1779479980469
0, 4, 88, 307.945068359375
0, 4, 89, 295.3732299804688
0, 4, 90, 332.5838317871094
0, 4, 91, 304.8488159179688
0, 4, 92, 292.4117126464844
0, 4, 93, 296.6045227050781
0, 4, 94, 293.0104064941406
0, 4, 95, 287.8931274414062
0, 4, 96, 322.1148376464844
0, 4, 97, 274.0204162597656
0, 4, 98, 326.6548767089844
0, 4, 99, 312.6849060058594
0, 4, 100, 300.2841796875
0, 4, 101, 256.7439880371094
0, 4, 102, 297.1545715332031
0, 4, 103, 318.7079162597656
0, 4, 104, 281.990234375
0, 4, 105, 310.2553405761719
0, 4, 106, 286.4970092773438
0, 4, 107, 295.16943359375
0, 4, 108, 226.2466888427734
0, 4, 109, 80.88869476318359
0, 4, 110, 17.91791915893555
0, 4, 111, 13.55577754974365
0, 4, 112, 8.666173934936523
0, 4, 113, 12.47132301330566
0, 4, 114, 9.308613777160645
0, 4, 115, 8.196184158325195
0, 4, 116, 9.926422119140625
0, 4, 117, 11.30185127258301
0, 4, 118, 9.818378448486328
0, 4, 119, 10.16319465637207
0, 4, 120, 5.109064102172852
0, 4, 121, 5.65411376953125
0, 4, 122, 6.939690589904785
0, 4, 123, 6.450740814208984
0, 4, 124, 5.163323879241943
0, 4, 125, 8.726406097412109
0, 4, 126, 5.486521244049072
0, 4, 127, 5.863373756408691
0, 5, 0, 4.974521636962891
0, 5, 1, 3.286413192749023
0, 5, 2, 4.921139717102051
0, 5, 3, 4.582160949707031
0, 5, 4, 5.814193725585938
0, 5, 5, 5.794522762298584
0, 5, 6, 7.242642879486084
0, 5, 7, 6.29487133026123
0, 5, 8, 4.772397518157959
0, 5, 9, 4.836606979370117
0, 5, 10, 5.907919883728027
0, 5, 11, 10.00003051757812
0, 5, 12, 7.766018390655518
0, 5, 13, 5.295523643493652
0, 5, 14, 14.05674266815186
0, 5, 15, 17.48897933959961
0, 5, 16, 14.75648880004883
0, 5, 17, 29.53631591796875
0, 5, 18, 139.1694030761719
0, 5, 19, 289.0589599609375
0, 5, 20, 308.5601501464844
0, 5, 21, 315.9329528808594
0, 5, 22, 274.6956787109375
0, 5, 23, 313.2320251464844
0, 5, 24, 302.0869445800781
0, 5, 25, 288.1554870605469
0, 5, 26, 293.8687133789062
0, 5, 27, 321.9170532226562
0, 5, 28, 302.2185974121094
0, 5, 29, 297.2514343261719
0, 5, 30, 326.035400390625
0, 5, 31, 288.5044250488281
0, 5, 32, 301.1594543457031
0, 5, 33, 305.1053771972656
0, 5, 34, 295.1634826660156
0, 5, 35, 310.4617004394531
0, 5, 36, 271.608154296875
0, 5, 37, 281.9389343261719
0, 5, 38, 293.3223571777344
0, 5, 39, 310.5454406738281
0, 5, 40, 309.5128784179688
0, 5, 41, 274.9480590820312
0, 5, 42, 306.5715942382812
0, 5, 43, 312.5960083007812
0, 5, 44, 293.13427734375
0, 5, 45, 300.5406188964844
0, 5, 46, 266.7017822265625
0, 5, 47, 282.83447265625
0, 5, 48, 292.5204772949219
0, 5, 49, 284.9043579101562
0, 5, 50, 292.6102294921875
0, 5, 51, 278.2329406738281
0, 5, 52, 270.6469116210938
0, 5, 53, 285.1605834960938
0, 5, 54, 291.9072875976562
0, 5, 55, 343.5459594726562
0, 5, 56, 305.6907653808594
0, 5, 57, 306.7952270507812
0, 5, 58, 311.8080139160156
0, 5, 59, 305.9833374023438
0, 5, 60, 307.4768371582031
0, 5, 61, 282.1329650878906
0, 5, 62, 325.8862915039062
0, 5, 63, 291.438232421875
0, 5, 64, 322.4822692871094
0, 5, 65, 307.1686706542969
0, 5, 66, 329.2906799316406
0, 5, 67, 311.5086059570312
0, 5, 68, 307.8446655273438
0, 5, 69, 311.5468139648438
0, 5, 70, 299.336669921875
0, 5, 71, 272.7559509277344
0, 5, 72, 309.9123840332031
0, 5, 73, 303.1091003417969
0, 5, 74, 295.492919921875
0, 5, 75, 291.9097290039062
0, 5, 76, 288.2539672851562
0, 5, 77, 298.3452453613281
0, 5, 78, 312.402587890625
0, 5, 79, 307.8854370117188
0, 5, 80, 294.8074645996094
0, 5, 81, 325.7578125
0, 5, 82, 324.9090270996094
0, 5, 83, 284.4424133300781
0, 5, 84, 304.7296752929688
0, 5, 85, 269.8746337890625
0, 5, 86, 324.3452453613281
0, 5, 87, 285.269775390625
0, 5, 88, 313.9935607910156
0, 5, 89, 305.19921875
0, 5, 90, 317.2451477050781
0, 5, 91, 314.2505798339844
0, 5, 92, 295.59423828125
0, 5, 93, 321.7801818847656
0, 5, 94, 309.3480224609375
0, 5, 95, 298.3344421386719
0, 5, 96, 299.5450134277344
0, 5, 97, 294.8824462890625
0, 5, 98, 319.0973205566406
0, 5, 99, 305.4836120605469
0, 5, 100, 292.7074279785156
0, 5, 101, 303.9436645507812
0, 5, 102, 291.1046447753906
0, 5, 103, 313.5568542480469
0, 5, 104, 303.6316528320312
0, 5, 105, 291.791748046875
0, 5, 106, 281.6655883789062
0, 5, 107, 297.0558166503906
0, 5, 108, 266.45849609375
0, 5, 109, 159.1806945800781
0, 5, 110, 40.75510025024414
0, 5, 111, 20.13607406616211
0, 5, 112, 18.72820854187012
0, 5, 113, 15.71051025390625
0, 5, 114, 15.56523513793945
0, 5, 115, 8.356575965881348
0, 5, 116, 9.545374870300293
0, 5, 117, 9.114327430725098
0, 5, 118, 13.24907779693604
0, 5, 119, 4.674638271331787
0, 5, 120, 7.745814323425293
0, 5, 121, 5.177218437194824
0, 5, 122, 6.570327758789062
0, 5, 123, 4.687528610229492
0, 5, 124, 6.297368049621582
0, 5, 125, 4.696739196777344
0, 5, 126, 5.862054824829102
0, 5, 127, 4.554660797119141
0, 6, 0, 3.586106061935425
0, 6, 1, 2.787343263626099
0, 6, 2, 5.468450546264648
0, 6, 3, 6.639390468597412
0, 6, 4, 2.73438572883606
0, 6, 5, 6.898074150085449
0, 6, 6, 6.985942363739014
0, 6, 7, 6.038220405578613
0, 6, 8, 7.121918678283691
0, 6, 9, 5.087114810943604
0, 6, 10, 7.673770904541016
0, 6, 11, 9.348957061767578
0, 6, 12, 10.21449756622314
0, 6, 13, 17.4124584197998
0, 6, 14, 7.720332145690918
0, 6, 15, 16.01309013366699
0, 6, 16, 27.96014785766602
0, 6, 17, 58.08633422851562
0, 6, 18, 173.0162963867188
0, 6, 19, 277.647705078125
0, 6, 20, 293.2073364257812
0, 6, 21, 313.2490234375
0, 6, 22, 321.4189758300781
0, 6, 23, 305.4017944335938
0, 6, 24, 316.7125549316406
0, 6, 25, 315.79052734375
0, 6, 26, 320.2430725097656
0, 6, 27, 330.1997680664062
0, 6, 28, 296.3780212402344
0, 6, 29, 329.4382934570312
0, 6, 30, 281.1237487792969
0, 6, 31, 285.0289611816406
0, 6, 32, 341.4533081054688
0, 6, 33, 302.337158203125
0, 6, 34, 340.3938598632812
0, 6, 35, 320.2010498046875
0, 6, 36, 274.900146484375
0, 6, 37, 287.9834594726562
0, 6, 38, 311.1229248046875
0, 6, 39, 299.4244995117188
0, 6, 40, 283.983154296875
0, 6, 41, 294.0531616210938
0, 6, 42, 305.8285522460938
0, 6, 43, 289.7857666015625
0, 6, 44, 282.7431945800781
0, 6, 45, 320.2658386230469
0, 6, 46, 300.609130859375
0, 6, 47, 335.9847717285156
0, 6, 48, 293.2278137207031
0, 6, 49, 311.4535522460938
0, 6, 50, 328.7402038574219
0, 6, 51, 310.0001831054688
0, 6, 52, 322.0329284667969
0, 6, 53, 326.1437072753906
0, 6, 54, 300.5106811523438
0, 6, 55, 305.1270446777344
0, 6, 56, 295.2247924804688
0, 6, 57, 315.3466186523438
0, 6, 58, 261.2622680664062
0, 6, 59, 305.0771789550781
0, 6, 60, 314.1177673339844
0, 6, 61, 269.892578125
0, 6, 62, 335.1900634765625
0, 6, 63, 322.8776245117188
0, 6, 64, 290.1895141601562
0, 6, 65, 287.1417846679688
0, 6, 66, 305.67724609375
0, 6, 67, 308.8592834472656
0, 6, 68, 295.1005554199219
0, 6, 69, 278.6480407714844
0, 6, 70, 273.4708862304688
0, 6, 71, 289.1185607910156
0, 6, 72, 314.4820556640625
0, 6, 73, 293.5670471191406
0, 6, 74, 330.8099060058594
0, 6, 75, 343.8502502441406
0, 6, 76, 297.3648071289062
0, 6, 77, 286.51953125
0, 6, 78, 278.4928894042969
0, 6, 79, 292.2686157226562
0, 6, 80, 299.4650268554688
0, 6, 81, 316.1595153808594
0, 6, 82, 319.1626281738281
0, 6, 83, 319.3477783203125
0, 6, 84, 295.6720581054688
0, 6, 85, 302.0532531738281
0, 6, 86, 329.8733215332031
0, 6, 87, 292.495361328125
0, 6, 88, 304.1348876953125
0, 6, 89, 303.9032592773438
0, 6, 90, 298.5409545898438
0, 6, 91, 311.9559020996094
0, 6, 92, 284.1961975097656
0, 6, 93, 294.1978454589844
0, 6, 94, 273.5291442871094
0, 6, 95, 299.6162719726562
0, 6, 96, 345.1354370117188
0, 6, 97, 309.46728515625
0, 6, 98, 302.442626953125
0, 6, 99, 275.5739135742188
0, 6, 100, 310.8401489257812
0, 6, 101, 293.6319885253906
0, 6, 102, 307.8934936523438
0, 6, 103, 307.4126281738281
0, 6, 104, 290.9953002929688
0, 6, 105, 302.1087951660156
0, 6, 106, 308.4461059570312
0, 6, 107, 303.2520446777344
0, 6, 108, 266.8110961914062
0, 6, 109, 185.2385864257812
0, 6, 110, 55.06298828125
0, 6, 111, 20.5684700012207
0, 6, 112, 12.24719333648682
0, 6, 113, 9.966459274291992
0, 6, 114, 13.02957630157471
0, 6, 115, 12.10268020629883
0, 6, 116, 8.730512619018555
0, 6, 117, 7.231615543365479
0, 6, 118, 11.48674774169922
0, 6, 119, 6.618545055389404
0, 6, 120, 5.212238788604736
0, 6, 121, 5.760770797729492
0, 6, 122, 5.959354877471924
0, 6, 123, 5.404057025909424
0, 6, 124, 6.179799556732178
0, 6, 125, 6.10341739654541
0, 6, 126, 4.089607715606689
0, 6, 127, 5.140670299530029
0, 7, 0, 6.882114410400391
0, 7, 1, 4.613456726074219
0, 7, 2, 5.892349720001221
0, 7, 3, 4.715588092803955
0, 7, 4, 4.353205680847168
0, 7, 5, 6.650491237640381
0, 7, 6, 6.042521953582764
0, 7, 7, 5.59748649597168
0, 7, 8, 5.276067733764648
0, 7, 9, 5.255008220672607
0, 7, 10, 8.843766212463379
0, 7, 11, 13.75358867645264
0, 7, 12, 10.50032997131348
0, 7, 13, 10.39669799804688
0, 7, 14, 10.38960838317871
0, 7, 15, 15.87955665588379
0, 7, 16, 25.44345092773438
0, 7, 17, 98.22998046875
0, 7, 18, 219.0995941162109
0, 7, 19, 288.2607727050781
0, 7, 20, 295.6826477050781
0, 7, 21, 277.6206359863281
0, 7, 22, 300.4727478027344
0, 7, 23, 290.6300964355469
0, 7, 24, 314.2615661621094
0, 7, 25, 324.2155456542969
0, 7, 26, 278.4990234375
0, 7, 27, 298.2108154296875
0, 7, 28, 325.2795715332031
0, 7, 29, 316.3253173828125
0, 7, 30, 298.7192077636719
0, 7, 31, 277.3611450195312
0, 7, 32, 303.4089660644531
0, 7, 33, 265.3193054199219
0, 7, 34, 297.6954345703125
0, 7, 35, 319.951416015625
0, 7, 36, 330.2557067871094
0, 7, 37, 324.6694030761719
0, 7, 38, 295.6244812011719
0, 7, 39, 306.6605529785156
0, 7, 40, 290.3395690917969
0, 7, 41, 273.7929077148438
0, 7, 42, 304.4556274414062
0, 7, 43, 276.3922729492188
0, 7, 44, 304.7905883789062
0, 7, 45, 294.3522033691406
0, 7, 46, 281.9201049804688
0, 7, 47, 329.2328796386719
0, 7, 48, 285.4271545410156
0, 7, 49, 303.5652160644531
0, 7, 50, 321.8437194824219
0, 7, 51, 299.4127197265625
0, 7, 52, 327.6748352050781
0, 7, 53, 311.5354614257812
0, 7, 54, 324.4397888183594
0, 7, 55, 307.1961059570312
0, 7, 56, 279.24609375
0, 7, 57, 281.8410949707031
0, 7, 58, 297.0095520019531
0, 7, 59, 295.4446716308594
0, 7, 60, 322.1661987304688
0, 7, 61, 277.9732666015625
0, 7, 62, 297.8826599121094
0, 7, 63, 295.4761047363281
0, 7, 64, 306.1231689453125
0, 7, 65, 330.4711608886719
0, 7, 66, 320.3144836425781
0, 7, 67, 300.7000122070312
0, 7, 68, 282.4509582519531
0, 7, 69, 295.4865417480469
0, 7, 70, 302.6904907226562
0, 7, 71, 309.5113525390625
0, 7, 72, 283.7136840820312
0, 7, 73, 297.8995666503906
0, 7, 74, 343.6481628417969
0, 7, 75, 321.8070068359375
0, 7, 76, 323.9938049316406
0, 7, 77, 279.6576538085938
0, 7, 78, 301.1626281738281
0, 7, 79, 297.0572509765625
0, 7, 80, 314.232177734375
0, 7, 81, 319.5303039550781
0, 7, 82, 329.503662109375
0, 7, 83, 316.4852600097656
0, 7, 84, 310.3576354980469
0, 7, 85, 271.9599914550781
0, 7, 86, 311.1835021972656
0, 7, 87, 313.6336059570312
0, 7, 88, 306.7050476074219
0, 7, 89, 294.6728210449219
0, 7, 90, 307.9910278320312
0, 7, 91, 313.6756286621094
0, 7, 92, 288.7754821777344
0, 7, 93, 307.8520812988281
0, 7, 94, 273.4398803710938
0, 7, 95, 298.5134887695312
0, 7, 96, 330.7854309082031
0, 7, 97, 293.6427917480469
0, 7, 98, 291.7104797363281
0, 7, 99, 312.6510925292969
0, 7, 100, 280.6425476074219
0, 7, 101, 276.7518310546875
0, 7, 102, 291.0419616699219
0, 7, 103, 292.9669189453125
0, 7, 104, 274.0068664550781
0, 7, 105, 305.4937744140625
0, 7, 106, 317.5928649902344
0, 7, 107, 297.3901672363281
0, 7, 108, 275.5152282714844
0, 7, 109, 234.8686676025391
0, 7, 110, 95.02006530761719
0, 7, 111, 25.23180389404297
0, 7, 112, 13.98622035980225
0, 7, 113, 14.22454833984375
0, 7, 114, 13.01320838928223
0, 7, 115, 10.61967086791992
0, 7, 116, 10.61279106140137
0, 7, 117, 4.587047576904297
0, 7, 118, 6.301145553588867
0, 7, 119, 7.431808471679688
0, 7, 120, 4.868107795715332
0, 7, 121, 6.656807422637939
0, 7, 122, 7.867102146148682
0, 7, 123, 6.773335456848145
0, 7, 124, 3.56515097618103
0, 7, 125, 6.616583824157715
0, 7, 126, 7.509687900543213
0, 7, 127, 3.972227096557617
0, 8, 0, 5.978187084197998
0, 8, 1, 3.917245388031006
0, 8, 2, 4.674613952636719
0, 8, 3, 1.412713408470154
0, 8, 4, 4.221125602722168
0, 8, 5, 3.6237473487854
0, 8, 6, 5.841193675994873
0, 8, 7, 5.064353466033936
0, 8, 8, 8.497586250305176
0, 8, 9, 5.502340316772461
0, 8, 10, 10.15047073364258
0, 8, 11, 11.64250469207764
0, 8, 12, 13.89371681213379
0, 8, 13, 14.37417602539062
0, 8, 14, 11.93824100494385
0, 8, 15, 19.61882781982422
0, 8, 16, 35.81018829345703
0, 8, 17, 129.5522918701172
0, 8, 18, 243.2166290283203
0, 8, 19, 292.1138000488281
0, 8, 20, 286.308837890625
0, 8, 21, 307.6377868652344
0, 8, 22, 296.8013610839844
0, 8, 23, 274.9549560546875
0, 8, 24, 268.6387939453125
0, 8, 25, 275.3858642578125
0, 8, 26, 306.129638671875
0, 8, 27, 308.666748046875
0, 8, 28, 302.3561706542969
0, 8, 29, 319.1220703125
0, 8, 30, 313.9320678710938
0, 8, 31, 308.6224670410156
0, 8, 32, 282.0806274414062
0, 8, 33, 296.4257507324219
0, 8, 34, 289.6100158691406
0, 8, 35, 279.4090270996094
0, 8, 36, 318.5382995605469
0, 8, 37, 341.8556823730469
0, 8, 38, 331.7290649414062
0, 8, 39, 281.2094421386719
