# TOPAS Version: 3.1.p3
# Parameter File: batch_inserts_116.txt
# Results for scorer Readout_Adipose
# Scored in component: MyBox
# X in 1 bin  of 0.75 cm
# Y in 512 bins of 0.0783984 cm
# Z in 128 bins of 0.078125 cm
# EnergyDeposit ( MeV ) : Sum   
0, 0, 0, 4.974409580230713
0, 0, 1, 2.511254787445068
0, 0, 2, 3.158895015716553
0, 0, 3, 1.771401166915894
0, 0, 4, 3.851789474487305
0, 0, 5, 3.326011657714844
0, 0, 6, 5.356359481811523
0, 0, 7, 9.245102882385254
0, 0, 8, 3.700037002563477
0, 0, 9, 5.899644374847412
0, 0, 10, 8.741744995117188
0, 0, 11, 3.983272075653076
0, 0, 12, 3.870734214782715
0, 0, 13, 6.96877384185791
0, 0, 14, 7.404514789581299
0, 0, 15, 8.752518653869629
0, 0, 16, 9.261516571044922
0, 0, 17, 9.50697135925293
0, 0, 18, 12.38762187957764
0, 0, 19, 45.8616943359375
0, 0, 20, 139.9775085449219
0, 0, 21, 222.2801818847656
0, 0, 22, 249.7489166259766
0, 0, 23, 257.6912536621094
0, 0, 24, 250.641357421875
0, 0, 25, 257.9232788085938
0, 0, 26, 234.8469696044922
0, 0, 27, 236.2024230957031
0, 0, 28, 271.2928161621094
0, 0, 29, 252.0285339355469
0, 0, 30, 229.8292388916016
0, 0, 31, 243.1790313720703
0, 0, 32, 264.1333618164062
0, 0, 33, 262.2967529296875
0, 0, 34, 287.8870849609375
0, 0, 35, 267.6674499511719
0, 0, 36, 246.8693389892578
0, 0, 37, 252.9533843994141
0, 0, 38, 268.0746154785156
0, 0, 39, 228.9827270507812
0, 0, 40, 241.6864013671875
0, 0, 41, 266.5158386230469
0, 0, 42, 229.9607086181641
0, 0, 43, 259.7428894042969
0, 0, 44, 250.5677947998047
0, 0, 45, 251.7496948242188
0, 0, 46, 243.3391418457031
0, 0, 47, 253.2336730957031
0, 0, 48, 266.4967956542969
0, 0, 49, 274.2346496582031
0, 0, 50, 250.5327453613281
0, 0, 51, 254.2486114501953
0, 0, 52, 272.2997436523438
0, 0, 53, 293.4742736816406
0, 0, 54, 240.8914642333984
0, 0, 55, 239.3326568603516
0, 0, 56, 277.2628173828125
0, 0, 57, 266.6048889160156
0, 0, 58, 245.8041076660156
0, 0, 59, 269.0060424804688
0, 0, 60, 234.8571472167969
0, 0, 61, 245.5563049316406
0, 0, 62, 256.3246765136719
0, 0, 63, 266.3576049804688
0, 0, 64, 254.7630767822266
0, 0, 65, 262.5506286621094
0, 0, 66, 277.263427734375
0, 0, 67, 246.1410064697266
0, 0, 68, 259.0310974121094
0, 0, 69, 262.6195373535156
0, 0, 70, 273.563720703125
0, 0, 71, 239.0271911621094
0, 0, 72, 250.5951538085938
0, 0, 73, 257.4773254394531
0, 0, 74, 251.3946685791016
0, 0, 75, 240.8587493896484
0, 0, 76, 231.3422546386719
0, 0, 77, 263.4526062011719
0, 0, 78, 258.2864990234375
0, 0, 79, 280.0217590332031
0, 0, 80, 217.9172668457031
0, 0, 81, 267.906005859375
0, 0, 82, 256.2210693359375
0, 0, 83, 246.0548858642578
0, 0, 84, 269.9728393554688
0, 0, 85, 231.6367340087891
0, 0, 86, 253.4144287109375
0, 0, 87, 250.1859436035156
0, 0, 88, 260.3623962402344
0, 0, 89, 283.3013916015625
0, 0, 90, 243.442138671875
0, 0, 91, 281.4291687011719
0, 0, 92, 254.4847259521484
0, 0, 93, 248.5419158935547
0, 0, 94, 247.2522888183594
0, 0, 95, 249.2768707275391
0, 0, 96, 273.7558288574219
0, 0, 97, 271.620849609375
0, 0, 98, 274.6151733398438
0, 0, 99, 257.97802734375
0, 0, 100, 259.3587036132812
0, 0, 101, 225.8390197753906
0, 0, 102, 233.3029022216797
0, 0, 103, 269.3482971191406
0, 0, 104, 255.4667358398438
0, 0, 105, 252.7427368164062
0, 0, 106, 245.3195648193359
0, 0, 107, 151.7095489501953
0, 0, 108, 38.17040634155273
0, 0, 109, 11.97858142852783
0, 0, 110, 13.37295150756836
0, 0, 111, 7.820884227752686
0, 0, 112, 7.603580951690674
0, 0, 113, 4.8529953956604
0, 0, 114, 5.770572662353516
0, 0, 115, 3.730461835861206
0, 0, 116, 5.227093696594238
0, 0, 117, 5.478694438934326
0, 0, 118, 6.64387321472168
0, 0, 119, 5.190116882324219
0, 0, 120, 3.969950437545776
0, 0, 121, 3.868700265884399
0, 0, 122, 5.010639190673828
0, 0, 123, 5.982673645019531
0, 0, 124, 4.88662576675415
0, 0, 125, 4.189356327056885
0, 0, 126, 4.938107490539551
0, 0, 127, 2.063486576080322
0, 1, 0, 7.376132488250732
0, 1, 1, 2.431774854660034
0, 1, 2, 4.768986225128174
0, 1, 3, 2.404337644577026
0, 1, 4, 4.451233863830566
0, 1, 5, 4.774159908294678
0, 1, 6, 4.246900081634521
0, 1, 7, 7.685245513916016
0, 1, 8, 6.857707023620605
0, 1, 9, 3.970183134078979
0, 1, 10, 8.391180992126465
0, 1, 11, 10.92814064025879
0, 1, 12, 8.045164108276367
0, 1, 13, 9.221419334411621
0, 1, 14, 8.038906097412109
0, 1, 15, 7.837753295898438
0, 1, 16, 12.04194736480713
0, 1, 17, 9.372720718383789
0, 1, 18, 21.07708930969238
0, 1, 19, 66.32272338867188
0, 1, 20, 197.9153289794922
0, 1, 21, 255.6715393066406
0, 1, 22, 295.5611267089844
0, 1, 23, 284.6835632324219
0, 1, 24, 277.0353088378906
0, 1, 25, 289.8744812011719
0, 1, 26, 268.638427734375
0, 1, 27, 306.9403381347656
0, 1, 28, 298.907958984375
0, 1, 29, 297.1593933105469
0, 1, 30, 279.9972229003906
0, 1, 31, 292.9324035644531
0, 1, 32, 290.4016723632812
0, 1, 33, 295.5201721191406
0, 1, 34, 293.3645935058594
0, 1, 35, 277.1956176757812
0, 1, 36, 307.6806640625
0, 1, 37, 295.0461120605469
0, 1, 38, 277.5718383789062
0, 1, 39, 294.2394714355469
0, 1, 40, 265.5403442382812
0, 1, 41, 288.0443115234375
0, 1, 42, 290.6381530761719
0, 1, 43, 331.8367614746094
0, 1, 44, 279.5368041992188
0, 1, 45, 293.5960998535156
0, 1, 46, 259.2586975097656
0, 1, 47, 310.2964782714844
0, 1, 48, 283.2241516113281
0, 1, 49, 302.2062072753906
0, 1, 50, 264.4124755859375
0, 1, 51, 273.644775390625
0, 1, 52, 297.5292053222656
0, 1, 53, 303.3516235351562
0, 1, 54, 274.1642761230469
0, 1, 55, 292.3934020996094
0, 1, 56, 277.2144775390625
0, 1, 57, 299.2105407714844
0, 1, 58, 310.0505676269531
0, 1, 59, 293.0243225097656
0, 1, 60, 296.8441772460938
0, 1, 61, 275.7622680664062
0, 1, 62, 311.2875061035156
0, 1, 63, 285.7498474121094
0, 1, 64, 289.3826293945312
0, 1, 65, 295.0268859863281
0, 1, 66, 292.5305786132812
0, 1, 67, 290.6851501464844
0, 1, 68, 277.3699645996094
0, 1, 69, 281.4048461914062
0, 1, 70, 271.8244934082031
0, 1, 71, 273.6797180175781
0, 1, 72, 285.3704833984375
0, 1, 73, 304.2613525390625
0, 1, 74, 306.8533325195312
0, 1, 75, 294.6107788085938
0, 1, 76, 286.0190734863281
0, 1, 77, 292.0982360839844
0, 1, 78, 297.8271789550781
0, 1, 79, 303.9932556152344
0, 1, 80, 294.06689453125
0, 1, 81, 300.9164428710938
0, 1, 82, 282.5127868652344
0, 1, 83, 331.5931091308594
0, 1, 84, 308.2267761230469
0, 1, 85, 254.7793273925781
0, 1, 86, 293.4442138671875
0, 1, 87, 291.4408874511719
0, 1, 88, 298.4759521484375
0, 1, 89, 293.0834045410156
0, 1, 90, 270.3938598632812
0, 1, 91, 318.8987426757812
0, 1, 92, 290.0751953125
0, 1, 93, 285.1875610351562
0, 1, 94, 304.5782165527344
0, 1, 95, 283.7328186035156
0, 1, 96, 282.3660583496094
0, 1, 97, 300.0020446777344
0, 1, 98, 276.9638977050781
0, 1, 99, 268.2664489746094
0, 1, 100, 276.4222412109375
0, 1, 101, 280.4783020019531
0, 1, 102, 279.1511840820312
0, 1, 103, 282.5620727539062
0, 1, 104, 308.089111328125
0, 1, 105, 298.3196411132812
0, 1, 106, 261.3645324707031
0, 1, 107, 191.9704132080078
0, 1, 108, 81.39970397949219
0, 1, 109, 23.11508178710938
0, 1, 110, 11.46241188049316
0, 1, 111, 8.01265811920166
0, 1, 112, 12.46900653839111
0, 1, 113, 6.872656345367432
0, 1, 114, 6.144883155822754
0, 1, 115, 8.432936668395996
0, 1, 116, 11.19455337524414
0, 1, 117, 5.241635799407959
0, 1, 118, 4.916883945465088
0, 1, 119, 4.809131622314453
0, 1, 120, 5.343822479248047
0, 1, 121, 4.615820407867432
0, 1, 122, 3.886393070220947
0, 1, 123, 4.659310817718506
0, 1, 124, 10.1407356262207
0, 1, 125, 4.248936653137207
0, 1, 126, 3.241682767868042
0, 1, 127, 1.131496071815491
0, 2, 0, 3.199102640151978
0, 2, 1, 1.571931481361389
0, 2, 2, 3.184141635894775
0, 2, 3, 6.304441452026367
0, 2, 4, 2.883653879165649
0, 2, 5, 1.829107761383057
0, 2, 6, 2.448457956314087
0, 2, 7, 5.010727405548096
0, 2, 8, 4.657608509063721
0, 2, 9, 4.892745494842529
0, 2, 10, 7.82984733581543
0, 2, 11, 6.57581615447998
0, 2, 12, 6.35785961151123
0, 2, 13, 10.20211601257324
0, 2, 14, 10.34462356567383
0, 2, 15, 7.79693078994751
0, 2, 16, 8.738109588623047
0, 2, 17, 15.80257034301758
0, 2, 18, 30.91046714782715
0, 2, 19, 118.6920394897461
0, 2, 20, 246.1767883300781
0, 2, 21, 270.6629943847656
0, 2, 22, 316.4032287597656
0, 2, 23, 301.2837829589844
0, 2, 24, 285.3592529296875
0, 2, 25, 302.998779296875
0, 2, 26, 291.1214904785156
0, 2, 27, 277.24169921875
0, 2, 28, 274.3966674804688
0, 2, 29, 273.7960205078125
0, 2, 30, 289.9372253417969
0, 2, 31, 280.3741760253906
0, 2, 32, 292.4023132324219
0, 2, 33, 281.2703552246094
0, 2, 34, 335.0111999511719
0, 2, 35, 290.1216125488281
0, 2, 36, 303.2644348144531
0, 2, 37, 314.1654052734375
0, 2, 38, 310.5789489746094
0, 2, 39, 266.9909973144531
0, 2, 40, 308.650390625
0, 2, 41, 293.0502624511719
0, 2, 42, 304.7609252929688
0, 2, 43, 314.9361877441406
0, 2, 44, 311.8477783203125
0, 2, 45, 324.3453674316406
0, 2, 46, 286.7714233398438
0, 2, 47, 302.4983825683594
0, 2, 48, 280.4246520996094
0, 2, 49, 276.6824035644531
0, 2, 50, 295.7885131835938
0, 2, 51, 285.3380126953125
0, 2, 52, 272.0115661621094
0, 2, 53, 285.492431640625
0, 2, 54, 281.1246643066406
0, 2, 55, 277.8944091796875
0, 2, 56, 301.6231994628906
0, 2, 57, 292.6604919433594
0, 2, 58, 301.7179870605469
0, 2, 59, 288.01611328125
0, 2, 60, 319.0583801269531
0, 2, 61, 301.0978088378906
0, 2, 62, 312.8069458007812
0, 2, 63, 302.6292114257812
0, 2, 64, 295.90234375
0, 2, 65, 312.3388977050781
0, 2, 66, 281.3025817871094
0, 2, 67, 290.5054931640625
0, 2, 68, 295.3094787597656
0, 2, 69, 310.5413818359375
0, 2, 70, 334.9169006347656
0, 2, 71, 284.9731750488281
0, 2, 72, 301.7261657714844
0, 2, 73, 310.6861877441406
0, 2, 74, 287.7725830078125
0, 2, 75, 304.3875122070312
0, 2, 76, 288.1640625
0, 2, 77, 300.76953125
0, 2, 78, 316.6814880371094
0, 2, 79, 307.3505554199219
0, 2, 80, 297.3900451660156
0, 2, 81, 282.3460388183594
0, 2, 82, 320.3253173828125
0, 2, 83, 312.0586242675781
0, 2, 84, 288.0628662109375
0, 2, 85, 280.1880493164062
0, 2, 86, 325.3626708984375
0, 2, 87, 287.0443725585938
0, 2, 88, 280.396728515625
0, 2, 89, 298.4232788085938
0, 2, 90, 295.5192260742188
0, 2, 91, 278.26806640625
0, 2, 92, 307.8102722167969
0, 2, 93, 317.2915649414062
0, 2, 94, 290.8020324707031
0, 2, 95, 314.8992919921875
0, 2, 96, 314.90478515625
0, 2, 97, 291.7679138183594
0, 2, 98, 291.6287536621094
0, 2, 99, 272.4583740234375
0, 2, 100, 306.7022705078125
0, 2, 101, 301.4066467285156
0, 2, 102, 296.5984191894531
0, 2, 103, 292.6531066894531
0, 2, 104, 292.3745422363281
0, 2, 105, 273.2265014648438
0, 2, 106, 295.611572265625
0, 2, 107, 268.9834594726562
0, 2, 108, 116.8560104370117
0, 2, 109, 32.84853744506836
0, 2, 110, 9.71368408203125
0, 2, 111, 10.5515308380127
0, 2, 112, 8.789102554321289
0, 2, 113, 11.95981884002686
0, 2, 114, 11.84879589080811
0, 2, 115, 8.86720085144043
0, 2, 116, 8.82382869720459
0, 2, 117, 7.190708637237549
0, 2, 118, 2.569095373153687
0, 2, 119, 4.907047271728516
0, 2, 120, 7.655987739562988
0, 2, 121, 3.056620121002197
0, 2, 122, 4.630379199981689
0, 2, 123, 3.51137375831604
0, 2, 124, 2.967132329940796
0, 2, 125, 6.410080432891846
0, 2, 126, 2.932348251342773
0, 2, 127, 6.020459175109863
0, 3, 0, 3.536618709564209
0, 3, 1, 4.317001342773438
0, 3, 2, 3.773981809616089
0, 3, 3, 2.309011459350586
0, 3, 4, 5.30656099319458
0, 3, 5, 7.770161151885986
0, 3, 6, 7.069950103759766
0, 3, 7, 4.732912063598633
0, 3, 8, 5.722844123840332
0, 3, 9, 5.213283061981201
0, 3, 10, 7.522381782531738
0, 3, 11, 6.564526081085205
0, 3, 12, 8.005802154541016
0, 3, 13, 15.42281055450439
0, 3, 14, 12.57889366149902
0, 3, 15, 12.5974235534668
0, 3, 16, 12.45875549316406
0, 3, 17, 20.0702075958252
0, 3, 18, 55.83912658691406
0, 3, 19, 175.4788360595703
0, 3, 20, 269.9327087402344
0, 3, 21, 271.9268188476562
0, 3, 22, 281.6948547363281
0, 3, 23, 289.0787048339844
0, 3, 24, 286.5088500976562
0, 3, 25, 271.6732788085938
0, 3, 26, 303.3086242675781
0, 3, 27, 291.9912719726562
0, 3, 28, 281.2702941894531
0, 3, 29, 338.3352355957031
0, 3, 30, 317.3502807617188
0, 3, 31, 290.7767333984375
0, 3, 32, 307.181884765625
0, 3, 33, 312.8747253417969
0, 3, 34, 322.4877319335938
0, 3, 35, 306.0516967773438
0, 3, 36, 267.3967590332031
0, 3, 37, 313.2915649414062
0, 3, 38, 304.7667541503906
0, 3, 39, 291.1955261230469
0, 3, 40, 268.8790588378906
0, 3, 41, 298.0118103027344
0, 3, 42, 283.6510925292969
0, 3, 43, 306.5151977539062
0, 3, 44, 309.4737854003906
0, 3, 45, 289.6476135253906
0, 3, 46, 328.8611755371094
0, 3, 47, 298.2842712402344
0, 3, 48, 306.9805297851562
0, 3, 49, 276.5311584472656
0, 3, 50, 291.3576965332031
0, 3, 51, 276.1675109863281
0, 3, 52, 316.7903747558594
0, 3, 53, 288.6845397949219
0, 3, 54, 284.2760925292969
0, 3, 55, 284.3581237792969
0, 3, 56, 298.1446228027344
0, 3, 57, 288.1836547851562
0, 3, 58, 306.964599609375
0, 3, 59, 297.2493286132812
0, 3, 60, 297.089111328125
0, 3, 61, 265.2831115722656
0, 3, 62, 285.4494018554688
0, 3, 63, 309.9609375
0, 3, 64, 316.656494140625
0, 3, 65, 304.1906433105469
0, 3, 66, 315.7096557617188
0, 3, 67, 317.8420715332031
0, 3, 68, 279.4760437011719
0, 3, 69, 282.2815551757812
0, 3, 70, 286.6816101074219
0, 3, 71, 299.0997314453125
0, 3, 72, 269.6939697265625
0, 3, 73, 309.6159362792969
0, 3, 74, 294.9467468261719
0, 3, 75, 288.7420349121094
0, 3, 76, 307.4804077148438
0, 3, 77, 315.132080078125
0, 3, 78, 307.4900207519531
0, 3, 79, 283.0382080078125
0, 3, 80, 289.75732421875
0, 3, 81, 310.678466796875
0, 3, 82, 315.9998779296875
0, 3, 83, 302.224609375
0, 3, 84, 310.9979858398438
0, 3, 85, 293.1865844726562
0, 3, 86, 301.4982299804688
0, 3, 87, 298.961669921875
0, 3, 88, 302.8839111328125
0, 3, 89, 296.7618103027344
0, 3, 90, 275.3712768554688
0, 3, 91, 283.0452575683594
0, 3, 92, 303.9495849609375
0, 3, 93, 311.8195190429688
0, 3, 94, 298.2066650390625
0, 3, 95, 334.2008361816406
0, 3, 96, 290.0551147460938
0, 3, 97, 283.0855102539062
0, 3, 98, 277.0875244140625
0, 3, 99, 261.559814453125
0, 3, 100, 284.0897827148438
0, 3, 101, 296.5779113769531
0, 3, 102, 273.335693359375
0, 3, 103, 319.7822265625
0, 3, 104, 309.7855834960938
0, 3, 105, 288.8164367675781
0, 3, 106, 301.6669311523438
0, 3, 107, 282.3309326171875
0, 3, 108, 167.7702789306641
0, 3, 109, 56.19483947753906
0, 3, 110, 17.01913261413574
0, 3, 111, 11.91785049438477
0, 3, 112, 14.96654033660889
0, 3, 113, 7.528268337249756
0, 3, 114, 9.838545799255371
0, 3, 115, 6.309223651885986
0, 3, 116, 7.107234001159668
0, 3, 117, 6.418708324432373
0, 3, 118, 8.600057601928711
0, 3, 119, 8.250957489013672
0, 3, 120, 8.037834167480469
0, 3, 121, 2.771373510360718
0, 3, 122, 3.255501985549927
0, 3, 123, 4.925535678863525
0, 3, 124, 2.941870212554932
0, 3, 125, 4.165890693664551
0, 3, 126, 5.846063613891602
0, 3, 127, 2.274062156677246
0, 4, 0, 5.498934268951416
0, 4, 1, 5.395390510559082
0, 4, 2, 2.114867687225342
0, 4, 3, 2.696756839752197
0, 4, 4, 7.588006973266602
0, 4, 5, 8.668648719787598
0, 4, 6, 8.760576248168945
0, 4, 7, 4.251169204711914
0, 4, 8, 2.944854974746704
0, 4, 9, 6.565421581268311
0, 4, 10, 6.698127269744873
0, 4, 11, 7.495417594909668
0, 4, 12, 5.576814651489258
0, 4, 13, 7.834275245666504
0, 4, 14, 12.50164127349854
0, 4, 15, 9.466163635253906
0, 4, 16, 15.42589473724365
0, 4, 17, 19.92690467834473
0, 4, 18, 94.34861755371094
0, 4, 19, 222.1654357910156
0, 4, 20, 286.9486389160156
0, 4, 21, 271.6867065429688
0, 4, 22, 306.3336486816406
0, 4, 23, 265.7040710449219
0, 4, 24, 289.5102233886719
0, 4, 25, 271.877685546875
0, 4, 26, 294.0261535644531
0, 4, 27, 283.802734375
0, 4, 28, 307.7437133789062
0, 4, 29, 323.4195556640625
0, 4, 30, 309.23681640625
0, 4, 31, 303.3850402832031
0, 4, 32, 281.7570495605469
0, 4, 33, 295.0716857910156
0, 4, 34, 297.7345886230469
0, 4, 35, 312.3331909179688
0, 4, 36, 290.3701782226562
0, 4, 37, 291.4988708496094
0, 4, 38, 301.8846435546875
0, 4, 39, 295.5586547851562
0, 4, 40, 301.6796875
0, 4, 41, 314.5513000488281
0, 4, 42, 329.6914367675781
0, 4, 43, 298.0251770019531
0, 4, 44, 321.7276000976562
0, 4, 45, 322.4348449707031
0, 4, 46, 305.13232421875
0, 4, 47, 293.235595703125
0, 4, 48, 295.7833251953125
0, 4, 49, 278.4749755859375
0, 4, 50, 295.8874206542969
0, 4, 51, 316.0873107910156
0, 4, 52, 326.6145935058594
0, 4, 53, 304.7143249511719
0, 4, 54, 286.70263671875
0, 4, 55, 314.0360412597656
0, 4, 56, 288.0596923828125
0, 4, 57, 310.3113403320312
0, 4, 58, 294.1782836914062
0, 4, 59, 307.9992065429688
0, 4, 60, 302.8997192382812
0, 4, 61, 314.0878295898438
0, 4, 62, 308.9054260253906
0, 4, 63, 299.1561584472656
0, 4, 64, 330.7879333496094
0, 4, 65, 317.2068786621094
0, 4, 66, 294.3694763183594
0, 4, 67, 284.8614807128906
0, 4, 68, 311.7952575683594
0, 4, 69, 276.6296997070312
0, 4, 70, 299.6870727539062
0, 4, 71, 319.9243774414062
0, 4, 72, 334.0046081542969
0, 4, 73, 299.0760803222656
0, 4, 74, 292.3930969238281
0, 4, 75, 292.5861206054688
0, 4, 76, 277.3761596679688
0, 4, 77, 279.1449890136719
0, 4, 78, 310.2686767578125
0, 4, 79, 318.8024597167969
0, 4, 80, 317.5463562011719
0, 4, 81, 314.3642578125
0, 4, 82, 297.9438171386719
0, 4, 83, 300.5923461914062
0, 4, 84, 291.2674560546875
0, 4, 85, 295.5418090820312
0, 4, 86, 296.9152526855469
0, 4, 87, 285.1174926757812
0, 4, 88, 305.4969177246094
0, 4, 89, 294.1898803710938
0, 4, 90, 333.6142883300781
0, 4, 91, 303.3351440429688
0, 4, 92, 292.061767578125
0, 4, 93, 296.9056091308594
0, 4, 94, 292.6785888671875
0, 4, 95, 287.6381225585938
0, 4, 96, 325.6910705566406
0, 4, 97, 275.1647338867188
0, 4, 98, 329.2345886230469
0, 4, 99, 315.8180847167969
0, 4, 100, 300.027099609375
0, 4, 101, 260.4722290039062
0, 4, 102, 295.1833801269531
0, 4, 103, 317.5136108398438
0, 4, 104, 281.44091796875
0, 4, 105, 309.8072509765625
0, 4, 106, 286.7613830566406
0, 4, 107, 294.8172607421875
0, 4, 108, 225.2997589111328
0, 4, 109, 79.42282104492188
0, 4, 110, 15.49679470062256
0, 4, 111, 14.63940525054932
0, 4, 112, 9.864490509033203
0, 4, 113, 10.69463634490967
0, 4, 114, 8.335597038269043
0, 4, 115, 8.761904716491699
0, 4, 116, 6.884796142578125
0, 4, 117, 7.543522357940674
0, 4, 118, 12.34667778015137
0, 4, 119, 11.59951972961426
0, 4, 120, 5.543609142303467
0, 4, 121, 3.863438129425049
0, 4, 122, 3.670971632003784
0, 4, 123, 7.118521690368652
0, 4, 124, 6.193982124328613
0, 4, 125, 8.281784057617188
0, 4, 126, 4.709090232849121
0, 4, 127, 4.38206148147583
0, 5, 0, 3.416920900344849
0, 5, 1, 2.867385149002075
0, 5, 2, 6.013832569122314
0, 5, 3, 5.123438358306885
0, 5, 4, 5.139341831207275
0, 5, 5, 7.199900150299072
0, 5, 6, 7.807618618011475
0, 5, 7, 5.129956722259521
0, 5, 8, 3.697071552276611
0, 5, 9, 5.804717063903809
0, 5, 10, 7.325080394744873
0, 5, 11, 8.643239974975586
0, 5, 12, 8.5804443359375
0, 5, 13, 5.739858150482178
0, 5, 14, 13.29795932769775
0, 5, 15, 18.80972862243652
0, 5, 16, 16.42666244506836
0, 5, 17, 28.01409721374512
0, 5, 18, 135.5092620849609
0, 5, 19, 289.03857421875
0, 5, 20, 308.1236877441406
0, 5, 21, 319.4258422851562
0, 5, 22, 275.6142272949219
0, 5, 23, 311.4755249023438
0, 5, 24, 301.7811584472656
0, 5, 25, 290.2178649902344
0, 5, 26, 293.8816528320312
0, 5, 27, 321.6224060058594
0, 5, 28, 304.3234558105469
0, 5, 29, 299.0716857910156
0, 5, 30, 322.7950134277344
0, 5, 31, 285.6030883789062
0, 5, 32, 303.9241333007812
0, 5, 33, 303.9184875488281
0, 5, 34, 300.4837036132812
0, 5, 35, 309.6119079589844
0, 5, 36, 272.381591796875
0, 5, 37, 284.8834228515625
0, 5, 38, 292.0883483886719
0, 5, 39, 313.2624816894531
0, 5, 40, 309.5178833007812
0, 5, 41, 274.3348999023438
0, 5, 42, 306.0267639160156
0, 5, 43, 314.2781066894531
0, 5, 44, 291.6431579589844
0, 5, 45, 302.5519104003906
0, 5, 46, 266.8468322753906
0, 5, 47, 281.1152954101562
0, 5, 48, 291.7392883300781
0, 5, 49, 286.9230346679688
0, 5, 50, 294.21923828125
0, 5, 51, 278.2243041992188
0, 5, 52, 269.76171875
0, 5, 53, 284.457275390625
0, 5, 54, 292.4178161621094
0, 5, 55, 343.3736572265625
0, 5, 56, 305.8662719726562
0, 5, 57, 309.3834533691406
0, 5, 58, 311.7654724121094
0, 5, 59, 302.8932800292969
0, 5, 60, 305.9991149902344
0, 5, 61, 282.46630859375
0, 5, 62, 327.3760986328125
0, 5, 63, 289.3766174316406
0, 5, 64, 325.7326354980469
0, 5, 65, 308.1399841308594
0, 5, 66, 330.9562377929688
0, 5, 67, 310.3254699707031
0, 5, 68, 309.3328552246094
0, 5, 69, 311.363525390625
0, 5, 70, 302.4434204101562
0, 5, 71, 271.5017395019531
0, 5, 72, 310.8339233398438
0, 5, 73, 302.2077026367188
0, 5, 74, 294.9482421875
0, 5, 75, 293.5362243652344
0, 5, 76, 284.3633728027344
0, 5, 77, 298.4743041992188
0, 5, 78, 314.2175598144531
0, 5, 79, 306.3968811035156
0, 5, 80, 294.7012634277344
0, 5, 81, 328.1783447265625
0, 5, 82, 323.4398193359375
0, 5, 83, 279.9497985839844
0, 5, 84, 300.7924194335938
0, 5, 85, 273.8487548828125
0, 5, 86, 328.018798828125
0, 5, 87, 284.2377319335938
0, 5, 88, 312.3511352539062
0, 5, 89, 305.1685180664062
0, 5, 90, 319.3880310058594
0, 5, 91, 312.8672790527344
0, 5, 92, 297.7781066894531
0, 5, 93, 322.557373046875
0, 5, 94, 306.0458679199219
0, 5, 95, 298.1635131835938
0, 5, 96, 297.5682678222656
0, 5, 97, 296.1252136230469
0, 5, 98, 318.4941101074219
0, 5, 99, 302.5462341308594
0, 5, 100, 289.6222839355469
0, 5, 101, 304.585205078125
0, 5, 102, 291.1343078613281
0, 5, 103, 313.0749816894531
0, 5, 104, 301.525634765625
0, 5, 105, 291.7811584472656
0, 5, 106, 280.7916870117188
0, 5, 107, 293.223876953125
0, 5, 108, 267.0911560058594
0, 5, 109, 157.8683166503906
0, 5, 110, 39.50837326049805
0, 5, 111, 21.26815795898438
0, 5, 112, 17.10786628723145
0, 5, 113, 13.364333152771
0, 5, 114, 13.73340606689453
0, 5, 115, 8.473407745361328
0, 5, 116, 8.94359302520752
0, 5, 117, 6.109984874725342
0, 5, 118, 12.29588985443115
0, 5, 119, 5.878067016601562
0, 5, 120, 4.871294498443604
0, 5, 121, 7.101897716522217
0, 5, 122, 5.538308143615723
0, 5, 123, 5.646100044250488
0, 5, 124, 7.545873641967773
0, 5, 125, 6.487332820892334
0, 5, 126, 4.85285758972168
0, 5, 127, 6.982204914093018
0, 6, 0, 4.376078605651855
0, 6, 1, 3.386198997497559
0, 6, 2, 3.705680131912231
0, 6, 3, 5.121089458465576
0, 6, 4, 3.268276691436768
0, 6, 5, 12.16162490844727
0, 6, 6, 9.477842330932617
0, 6, 7, 7.276464462280273
0, 6, 8, 7.124227523803711
0, 6, 9, 7.677578449249268
0, 6, 10, 8.880285263061523
0, 6, 11, 8.044881820678711
0, 6, 12, 9.777960777282715
0, 6, 13, 14.3876485824585
0, 6, 14, 7.887731552124023
0, 6, 15, 17.42672920227051
0, 6, 16, 28.33126258850098
0, 6, 17, 54.13644409179688
0, 6, 18, 171.8570556640625
0, 6, 19, 275.5300598144531
0, 6, 20, 289.4770812988281
0, 6, 21, 313.2611083984375
0, 6, 22, 318.7706909179688
0, 6, 23, 307.0762023925781
0, 6, 24, 318.0450744628906
0, 6, 25, 315.8724670410156
0, 6, 26, 320.6022644042969
0, 6, 27, 330.3851318359375
0, 6, 28, 294.62890625
0, 6, 29, 334.0145263671875
0, 6, 30, 281.1584167480469
0, 6, 31, 286.5825805664062
0, 6, 32, 342.6300354003906
0, 6, 33, 300.2872619628906
0, 6, 34, 341.011474609375
0, 6, 35, 320.9236145019531
0, 6, 36, 273.3899841308594
0, 6, 37, 291.8536071777344
0, 6, 38, 310.0906982421875
0, 6, 39, 299.6910095214844
0, 6, 40, 285.2994995117188
0, 6, 41, 294.7289428710938
0, 6, 42, 307.9521484375
0, 6, 43, 288.4148864746094
0, 6, 44, 279.5338134765625
0, 6, 45, 319.4816589355469
0, 6, 46, 301.9259948730469
0, 6, 47, 333.4934997558594
0, 6, 48, 292.2127685546875
0, 6, 49, 311.7168579101562
0, 6, 50, 327.9969787597656
0, 6, 51, 313.0068359375
0, 6, 52, 322.0042724609375
0, 6, 53, 328.9804077148438
0, 6, 54, 308.9202575683594
0, 6, 55, 306.6206970214844
0, 6, 56, 292.3858337402344
0, 6, 57, 315.4952087402344
0, 6, 58, 260.26953125
0, 6, 59, 302.8340759277344
0, 6, 60, 313.1235656738281
0, 6, 61, 273.157470703125
0, 6, 62, 338.3675842285156
0, 6, 63, 324.2397766113281
0, 6, 64, 291.2691345214844
0, 6, 65, 283.0575866699219
0, 6, 66, 303.8582153320312
0, 6, 67, 312.0986938476562
0, 6, 68, 295.5252685546875
0, 6, 69, 280.0995178222656
0, 6, 70, 274.3218994140625
0, 6, 71, 289.7131042480469
0, 6, 72, 310.0665283203125
0, 6, 73, 291.8840942382812
0, 6, 74, 332.2043762207031
0, 6, 75, 342.8992919921875
0, 6, 76, 299.1419677734375
0, 6, 77, 285.0657043457031
0, 6, 78, 277.9226379394531
0, 6, 79, 292.8289794921875
0, 6, 80, 302.5644836425781
0, 6, 81, 313.8873596191406
0, 6, 82, 321.027099609375
0, 6, 83, 322.6559753417969
0, 6, 84, 296.4158630371094
0, 6, 85, 300.8839721679688
0, 6, 86, 330.98876953125
0, 6, 87, 289.7668762207031
0, 6, 88, 307.55126953125
0, 6, 89, 304.0183715820312
0, 6, 90, 298.5843811035156
0, 6, 91, 312.8026123046875
0, 6, 92, 285.3997497558594
0, 6, 93, 296.8381652832031
0, 6, 94, 272.5306701660156
0, 6, 95, 300.4620666503906
0, 6, 96, 343.5931091308594
0, 6, 97, 307.3454895019531
0, 6, 98, 301.5130004882812
0, 6, 99, 271.73046875
0, 6, 100, 308.8627319335938
0, 6, 101, 294.1099853515625
0, 6, 102, 308.0076904296875
0, 6, 103, 307.7706909179688
0, 6, 104, 293.2452392578125
0, 6, 105, 301.7910766601562
0, 6, 106, 307.4738464355469
0, 6, 107, 305.141357421875
0, 6, 108, 267.4732666015625
0, 6, 109, 186.2263031005859
0, 6, 110, 54.99346160888672
0, 6, 111, 21.52312469482422
0, 6, 112, 13.3690128326416
0, 6, 113, 10.82611751556396
0, 6, 114, 12.07779121398926
0, 6, 115, 10.70630836486816
0, 6, 116, 8.352843284606934
0, 6, 117, 5.492379188537598
0, 6, 118, 8.696157455444336
0, 6, 119, 10.87561702728271
0, 6, 120, 4.635313987731934
0, 6, 121, 4.698976516723633
0, 6, 122, 6.491440296173096
0, 6, 123, 4.35200309753418
0, 6, 124, 8.505997657775879
0, 6, 125, 7.354292392730713
0, 6, 126, 4.654694080352783
0, 6, 127, 5.716365337371826
0, 7, 0, 9.345011711120605
0, 7, 1, 4.306393146514893
0, 7, 2, 4.439670085906982
0, 7, 3, 5.150935649871826
0, 7, 4, 3.53104043006897
0, 7, 5, 4.760430812835693
0, 7, 6, 5.10439920425415
0, 7, 7, 4.792010307312012
0, 7, 8, 5.325560092926025
0, 7, 9, 7.260490417480469
0, 7, 10, 7.739148139953613
0, 7, 11, 10.56782913208008
0, 7, 12, 10.83734321594238
0, 7, 13, 11.13815021514893
0, 7, 14, 9.641324043273926
0, 7, 15, 18.88797569274902
0, 7, 16, 26.3761100769043
0, 7, 17, 95.81314849853516
0, 7, 18, 219.132080078125
0, 7, 19, 292.3974304199219
0, 7, 20, 297.4268188476562
0, 7, 21, 277.7911682128906
0, 7, 22, 298.5748901367188
0, 7, 23, 289.3206481933594
0, 7, 24, 313.4487609863281
0, 7, 25, 324.5429382324219
0, 7, 26, 278.3887634277344
0, 7, 27, 297.174072265625
0, 7, 28, 325.0431518554688
0, 7, 29, 318.8308715820312
0, 7, 30, 297.8307495117188
0, 7, 31, 278.0764770507812
0, 7, 32, 304.0975036621094
0, 7, 33, 263.6210021972656
0, 7, 34, 297.9116516113281
0, 7, 35, 319.7015380859375
0, 7, 36, 333.6660766601562
0, 7, 37, 322.3580322265625
0, 7, 38, 296.4394226074219
0, 7, 39, 306.5953674316406
0, 7, 40, 292.1336975097656
0, 7, 41, 270.6714477539062
0, 7, 42, 299.7742309570312
0, 7, 43, 272.5127258300781
0, 7, 44, 305.3345031738281
0, 7, 45, 295.602294921875
0, 7, 46, 280.726318359375
0, 7, 47, 328.8146667480469
0, 7, 48, 285.0210571289062
0, 7, 49, 303.4302673339844
0, 7, 50, 320.7820739746094
0, 7, 51, 300.8093566894531
0, 7, 52, 327.7372131347656
0, 7, 53, 313.9099731445312
0, 7, 54, 324.0405883789062
0, 7, 55, 305.9878540039062
0, 7, 56, 280.207763671875
0, 7, 57, 283.0342102050781
0, 7, 58, 295.5517578125
0, 7, 59, 293.3101196289062
0, 7, 60, 321.949951171875
0, 7, 61, 277.4758911132812
0, 7, 62, 295.4904479980469
0, 7, 63, 292.7380981445312
0, 7, 64, 305.8360900878906
0, 7, 65, 333.6513366699219
0, 7, 66, 317.3687133789062
0, 7, 67, 303.9527282714844
0, 7, 68, 283.1517333984375
0, 7, 69, 294.6082153320312
0, 7, 70, 302.2486267089844
0, 7, 71, 310.6487731933594
0, 7, 72, 285.3681335449219
0, 7, 73, 297.6219482421875
0, 7, 74, 344.3877563476562
0, 7, 75, 319.088134765625
0, 7, 76, 322.3614501953125
0, 7, 77, 280.9990539550781
0, 7, 78, 301.6883239746094
0, 7, 79, 300.6173706054688
0, 7, 80, 309.9659118652344
0, 7, 81, 319.3763427734375
0, 7, 82, 328.8450012207031
0, 7, 83, 319.1753845214844
0, 7, 84, 309.4518127441406
0, 7, 85, 271.85986328125
0, 7, 86, 309.7708740234375
0, 7, 87, 310.0161437988281
0, 7, 88, 307.4199829101562
0, 7, 89, 292.8717346191406
0, 7, 90, 306.4017333984375
0, 7, 91, 314.971435546875
0, 7, 92, 287.8265686035156
0, 7, 93, 307.742919921875
0, 7, 94, 271.8745422363281
0, 7, 95, 299.1192626953125
0, 7, 96, 331.2128295898438
0, 7, 97, 297.0550537109375
0, 7, 98, 291.3422546386719
0, 7, 99, 311.5559387207031
0, 7, 100, 282.4990539550781
0, 7, 101, 275.5054321289062
0, 7, 102, 290.5616149902344
0, 7, 103, 290.9373168945312
0, 7, 104, 275.2271118164062
0, 7, 105, 306.7999267578125
0, 7, 106, 318.686279296875
0, 7, 107, 297.3957824707031
0, 7, 108, 273.6049499511719
0, 7, 109, 235.5299072265625
0, 7, 110, 96.5855712890625
0, 7, 111, 24.89952850341797
0, 7, 112, 12.13707256317139
0, 7, 113, 14.04316997528076
0, 7, 114, 13.76368427276611
0, 7, 115, 15.08427238464355
0, 7, 116, 7.68076229095459
0, 7, 117, 6.579358100891113
0, 7, 118, 5.92324161529541
0, 7, 119, 6.461427211761475
0, 7, 120, 4.939023971557617
0, 7, 121, 9.647284507751465
0, 7, 122, 6.827780246734619
0, 7, 123, 4.934091567993164
0, 7, 124, 3.962250947952271
0, 7, 125, 5.074645519256592
0, 7, 126, 7.133698463439941
0, 7, 127, 3.144560813903809
0, 8, 0, 4.631820201873779
0, 8, 1, 2.788877725601196
0, 8, 2, 2.561187744140625
0, 8, 3, 1.60039210319519
0, 8, 4, 4.58503246307373
0, 8, 5, 4.30692720413208
0, 8, 6, 4.24256420135498
0, 8, 7, 5.115344047546387
0, 8, 8, 8.029840469360352
0, 8, 9, 6.402582168579102
0, 8, 10, 9.773277282714844
0, 8, 11, 10.84965324401855
0, 8, 12, 13.36252021789551
0, 8, 13, 15.52211284637451
0, 8, 14, 14.42214679718018
0, 8, 15, 18.42694282531738
0, 8, 16, 32.64135360717773
0, 8, 17, 129.8554534912109
0, 8, 18, 244.3724517822266
0, 8, 19, 296.0914916992188
0, 8, 20, 285.2288513183594
0, 8, 21, 306.6397094726562
0, 8, 22, 295.0489501953125
0, 8, 23, 274.5149536132812
0, 8, 24, 268.2569885253906
0, 8, 25, 275.9188232421875
0, 8, 26, 305.8858032226562
0, 8, 27, 307.5170288085938
0, 8, 28, 305.5106811523438
0, 8, 29, 319.1223449707031
0, 8, 30, 317.4388122558594
0, 8, 31, 304.109619140625
0, 8, 32, 282.2579040527344
0, 8, 33, 293.8883056640625
0, 8, 34, 288.120361328125
0, 8, 35, 280.455078125
0, 8, 36, 317.9670715332031
0, 8, 37, 338.5367736816406
0, 8, 38, 331.2972106933594
0, 8, 39, 280.5335388183594
0, 8, 40, 304.6206665039062
