# TOPAS Version: 3.1.p3
# Parameter File: batch_inserts_58.txt
# Results for scorer Readout_Adipose
# Scored in component: MyBox
# X in 1 bin  of 0.75 cm
# Y in 512 bins of 0.0783984 cm
# Z in 128 bins of 0.078125 cm
# EnergyDeposit ( MeV ) : Sum   
0, 0, 0, 5.390180587768555
0, 0, 1, 1.796091675758362
0, 0, 2, 4.333893775939941
0, 0, 3, 2.334105968475342
0, 0, 4, 4.927617073059082
0, 0, 5, 3.076865911483765
0, 0, 6, 5.37716007232666
0, 0, 7, 11.01953792572021
0, 0, 8, 3.220686197280884
0, 0, 9, 4.135416030883789
0, 0, 10, 7.210955142974854
0, 0, 11, 4.243690967559814
0, 0, 12, 4.746512889862061
0, 0, 13, 5.802575588226318
0, 0, 14, 6.191841602325439
0, 0, 15, 8.514383316040039
0, 0, 16, 8.678413391113281
0, 0, 17, 8.874311447143555
0, 0, 18, 13.21745777130127
0, 0, 19, 42.783203125
0, 0, 20, 140.5712280273438
0, 0, 21, 222.3916320800781
0, 0, 22, 249.45263671875
0, 0, 23, 255.0871429443359
0, 0, 24, 251.9874114990234
0, 0, 25, 257.1561889648438
0, 0, 26, 235.2399749755859
0, 0, 27, 237.0814208984375
0, 0, 28, 271.6602478027344
0, 0, 29, 252.692626953125
0, 0, 30, 229.4997711181641
0, 0, 31, 244.6691741943359
0, 0, 32, 263.7168273925781
0, 0, 33, 263.2409973144531
0, 0, 34, 289.2782897949219
0, 0, 35, 269.076904296875
0, 0, 36, 247.1934967041016
0, 0, 37, 253.0425415039062
0, 0, 38, 267.4287414550781
0, 0, 39, 229.5003051757812
0, 0, 40, 241.5140838623047
0, 0, 41, 267.0445861816406
0, 0, 42, 229.4925842285156
0, 0, 43, 259.3949279785156
0, 0, 44, 252.2210693359375
0, 0, 45, 253.2696838378906
0, 0, 46, 245.4014129638672
0, 0, 47, 253.6955871582031
0, 0, 48, 267.087646484375
0, 0, 49, 273.5061340332031
0, 0, 50, 249.5039672851562
0, 0, 51, 254.4156341552734
0, 0, 52, 273.2370910644531
0, 0, 53, 291.3608093261719
0, 0, 54, 242.6625061035156
0, 0, 55, 240.2862701416016
0, 0, 56, 280.0763244628906
0, 0, 57, 263.3549499511719
0, 0, 58, 247.8038635253906
0, 0, 59, 272.8029479980469
0, 0, 60, 234.9491424560547
0, 0, 61, 245.8956451416016
0, 0, 62, 258.5531921386719
0, 0, 63, 265.906982421875
0, 0, 64, 256.6629943847656
0, 0, 65, 262.036376953125
0, 0, 66, 277.3462524414062
0, 0, 67, 245.3822174072266
0, 0, 68, 258.1651611328125
0, 0, 69, 261.5155334472656
0, 0, 70, 273.6224365234375
0, 0, 71, 239.5608215332031
0, 0, 72, 249.5363922119141
0, 0, 73, 258.8374633789062
0, 0, 74, 251.7342681884766
0, 0, 75, 242.7529754638672
0, 0, 76, 228.2350463867188
0, 0, 77, 263.1200561523438
0, 0, 78, 257.8680725097656
0, 0, 79, 277.6538696289062
0, 0, 80, 218.5329895019531
0, 0, 81, 268.1458740234375
0, 0, 82, 255.1300354003906
0, 0, 83, 244.8155670166016
0, 0, 84, 267.118896484375
0, 0, 85, 235.5506744384766
0, 0, 86, 253.5199279785156
0, 0, 87, 251.7758026123047
0, 0, 88, 261.116943359375
0, 0, 89, 283.4955139160156
0, 0, 90, 243.7348937988281
0, 0, 91, 280.6898803710938
0, 0, 92, 251.9068298339844
0, 0, 93, 250.5133361816406
0, 0, 94, 248.3043670654297
0, 0, 95, 247.2251281738281
0, 0, 96, 274.1833801269531
0, 0, 97, 271.278076171875
0, 0, 98, 272.0239562988281
0, 0, 99, 257.5415344238281
0, 0, 100, 258.2720642089844
0, 0, 101, 226.9155426025391
0, 0, 102, 233.2389984130859
0, 0, 103, 270.5856628417969
0, 0, 104, 254.0833892822266
0, 0, 105, 251.1859436035156
0, 0, 106, 245.4403533935547
0, 0, 107, 151.907470703125
0, 0, 108, 38.65335845947266
0, 0, 109, 12.43671894073486
0, 0, 110, 13.97527313232422
0, 0, 111, 9.697604179382324
0, 0, 112, 6.839010238647461
0, 0, 113, 5.241497993469238
0, 0, 114, 8.271926879882812
0, 0, 115, 6.261534690856934
0, 0, 116, 5.358676433563232
0, 0, 117, 6.982359886169434
0, 0, 118, 5.884239673614502
0, 0, 119, 2.970935106277466
0, 0, 120, 3.254361152648926
0, 0, 121, 4.183182239532471
0, 0, 122, 3.054181098937988
0, 0, 123, 3.227242469787598
0, 0, 124, 5.343961238861084
0, 0, 125, 2.525399208068848
0, 0, 126, 3.293037891387939
0, 0, 127, 2.707260131835938
0, 1, 0, 7.032144069671631
0, 1, 1, 4.920938491821289
0, 1, 2, 4.684772968292236
0, 1, 3, 4.625722408294678
0, 1, 4, 4.148039817810059
0, 1, 5, 3.680381536483765
0, 1, 6, 4.52363395690918
0, 1, 7, 3.209051847457886
0, 1, 8, 10.16857051849365
0, 1, 9, 4.571733474731445
0, 1, 10, 7.63116979598999
0, 1, 11, 13.03308296203613
0, 1, 12, 7.920779705047607
0, 1, 13, 9.541825294494629
0, 1, 14, 7.346640110015869
0, 1, 15, 6.8029465675354
0, 1, 16, 10.37070178985596
0, 1, 17, 11.07159900665283
0, 1, 18, 21.80220985412598
0, 1, 19, 66.16321563720703
0, 1, 20, 200.5586547851562
0, 1, 21, 255.1245727539062
0, 1, 22, 294.7825012207031
0, 1, 23, 285.1043395996094
0, 1, 24, 276.6896057128906
0, 1, 25, 288.6555786132812
0, 1, 26, 269.6925048828125
0, 1, 27, 305.7398376464844
0, 1, 28, 301.3859558105469
0, 1, 29, 295.79296875
0, 1, 30, 281.2864990234375
0, 1, 31, 292.4697265625
0, 1, 32, 290.4070129394531
0, 1, 33, 295.9375305175781
0, 1, 34, 292.2901000976562
0, 1, 35, 278.9341735839844
0, 1, 36, 306.6410522460938
0, 1, 37, 294.8362426757812
0, 1, 38, 281.5909423828125
0, 1, 39, 294.2867736816406
0, 1, 40, 266.9208984375
0, 1, 41, 286.2525329589844
0, 1, 42, 290.6459350585938
0, 1, 43, 333.0101013183594
0, 1, 44, 280.9411010742188
0, 1, 45, 293.1060485839844
0, 1, 46, 258.0852966308594
0, 1, 47, 309.5883483886719
0, 1, 48, 285.1852111816406
0, 1, 49, 301.056396484375
0, 1, 50, 260.814208984375
0, 1, 51, 274.2109375
0, 1, 52, 300.3607482910156
0, 1, 53, 305.4313354492188
0, 1, 54, 273.8141174316406
0, 1, 55, 294.1268920898438
0, 1, 56, 276.830078125
0, 1, 57, 299.3529357910156
0, 1, 58, 309.5447998046875
0, 1, 59, 291.4453125
0, 1, 60, 296.7850341796875
0, 1, 61, 275.2959899902344
0, 1, 62, 306.1052856445312
0, 1, 63, 288.5100708007812
0, 1, 64, 288.1661682128906
0, 1, 65, 294.4997253417969
0, 1, 66, 293.805908203125
0, 1, 67, 291.5559387207031
0, 1, 68, 277.3595581054688
0, 1, 69, 280.4970092773438
0, 1, 70, 270.8605346679688
0, 1, 71, 272.768798828125
0, 1, 72, 287.6213684082031
0, 1, 73, 304.0574035644531
0, 1, 74, 304.2911987304688
0, 1, 75, 294.2643432617188
0, 1, 76, 287.7375183105469
0, 1, 77, 291.3383178710938
0, 1, 78, 299.5263366699219
0, 1, 79, 299.7436218261719
0, 1, 80, 296.9446411132812
0, 1, 81, 299.317138671875
0, 1, 82, 282.7626037597656
0, 1, 83, 332.648193359375
0, 1, 84, 307.24951171875
0, 1, 85, 254.1025695800781
0, 1, 86, 293.3400573730469
0, 1, 87, 291.25048828125
0, 1, 88, 297.8890991210938
0, 1, 89, 291.5455627441406
0, 1, 90, 269.9357299804688
0, 1, 91, 318.4409484863281
0, 1, 92, 289.9506225585938
0, 1, 93, 285.3686828613281
0, 1, 94, 302.4424743652344
0, 1, 95, 283.3801879882812
0, 1, 96, 282.4743957519531
0, 1, 97, 301.1167602539062
0, 1, 98, 277.7150573730469
0, 1, 99, 265.4584655761719
0, 1, 100, 276.2562866210938
0, 1, 101, 285.075927734375
0, 1, 102, 277.3624267578125
0, 1, 103, 280.4020690917969
0, 1, 104, 306.8403015136719
0, 1, 105, 297.6549072265625
0, 1, 106, 261.6092224121094
0, 1, 107, 193.94091796875
0, 1, 108, 82.04335784912109
0, 1, 109, 23.08185386657715
0, 1, 110, 11.36208724975586
0, 1, 111, 9.265817642211914
0, 1, 112, 11.59952163696289
0, 1, 113, 7.847689151763916
0, 1, 114, 8.040336608886719
0, 1, 115, 6.815767765045166
0, 1, 116, 11.50232028961182
0, 1, 117, 6.071536540985107
0, 1, 118, 4.349223136901855
0, 1, 119, 4.840895652770996
0, 1, 120, 4.553880214691162
0, 1, 121, 4.340444087982178
0, 1, 122, 4.26421594619751
0, 1, 123, 5.029721736907959
0, 1, 124, 7.147443771362305
0, 1, 125, 3.848818063735962
0, 1, 126, 3.874034643173218
0, 1, 127, 1.842926383018494
0, 2, 0, 6.317689895629883
0, 2, 1, 1.853351354598999
0, 2, 2, 4.148195743560791
0, 2, 3, 3.833142280578613
0, 2, 4, 3.485298871994019
0, 2, 5, 1.557235717773438
0, 2, 6, 2.832903623580933
0, 2, 7, 4.379879474639893
0, 2, 8, 5.971558094024658
0, 2, 9, 5.95799732208252
0, 2, 10, 9.10222053527832
0, 2, 11, 5.627547264099121
0, 2, 12, 7.98448657989502
0, 2, 13, 12.66399002075195
0, 2, 14, 9.450428009033203
0, 2, 15, 8.650047302246094
0, 2, 16, 9.722655296325684
0, 2, 17, 17.73600769042969
0, 2, 18, 29.88558387756348
0, 2, 19, 116.7891845703125
0, 2, 20, 246.8028259277344
0, 2, 21, 271.7377014160156
0, 2, 22, 316.2692260742188
0, 2, 23, 301.1181335449219
0, 2, 24, 286.4231262207031
0, 2, 25, 302.2105712890625
0, 2, 26, 292.9935302734375
0, 2, 27, 275.0546875
0, 2, 28, 271.7372436523438
0, 2, 29, 273.9019165039062
0, 2, 30, 288.8028869628906
0, 2, 31, 278.2602844238281
0, 2, 32, 295.6552734375
0, 2, 33, 281.0012512207031
0, 2, 34, 331.3330078125
0, 2, 35, 290.7763671875
0, 2, 36, 304.3783569335938
0, 2, 37, 316.3443908691406
0, 2, 38, 309.8848266601562
0, 2, 39, 267.91552734375
0, 2, 40, 307.8014526367188
0, 2, 41, 293.02490234375
0, 2, 42, 301.6000061035156
0, 2, 43, 312.5576782226562
0, 2, 44, 310.37744140625
0, 2, 45, 324.2747497558594
0, 2, 46, 287.8063354492188
0, 2, 47, 302.4310913085938
0, 2, 48, 284.9690246582031
0, 2, 49, 279.0560607910156
0, 2, 50, 297.0845336914062
0, 2, 51, 286.7871704101562
0, 2, 52, 273.0776672363281
0, 2, 53, 285.9145202636719
0, 2, 54, 280.7828063964844
0, 2, 55, 274.5664978027344
0, 2, 56, 302.8263549804688
0, 2, 57, 296.107421875
0, 2, 58, 302.60498046875
0, 2, 59, 289.6267700195312
0, 2, 60, 317.5667724609375
0, 2, 61, 300.6874389648438
0, 2, 62, 312.3961486816406
0, 2, 63, 304.8257751464844
0, 2, 64, 295.0938720703125
0, 2, 65, 313.6980590820312
0, 2, 66, 280.110107421875
0, 2, 67, 291.7615661621094
0, 2, 68, 297.7438354492188
0, 2, 69, 309.7423095703125
0, 2, 70, 335.927978515625
0, 2, 71, 283.8804626464844
0, 2, 72, 303.5480651855469
0, 2, 73, 310.7933654785156
0, 2, 74, 285.1614074707031
0, 2, 75, 304.5780639648438
0, 2, 76, 286.979736328125
0, 2, 77, 300.1021423339844
0, 2, 78, 314.0507507324219
0, 2, 79, 311.3190612792969
0, 2, 80, 298.9417114257812
0, 2, 81, 281.951171875
0, 2, 82, 318.84716796875
0, 2, 83, 312.0224304199219
0, 2, 84, 289.2691650390625
0, 2, 85, 282.0093383789062
0, 2, 86, 324.2035522460938
0, 2, 87, 286.8817443847656
0, 2, 88, 280.6267395019531
0, 2, 89, 293.836181640625
0, 2, 90, 295.44287109375
0, 2, 91, 277.4440002441406
0, 2, 92, 303.7093200683594
0, 2, 93, 316.3353271484375
0, 2, 94, 291.5074768066406
0, 2, 95, 314.4867248535156
0, 2, 96, 314.6435241699219
0, 2, 97, 290.0392761230469
0, 2, 98, 294.3863525390625
0, 2, 99, 273.07421875
0, 2, 100, 307.6866760253906
0, 2, 101, 300.7818908691406
0, 2, 102, 295.4090881347656
0, 2, 103, 294.237060546875
0, 2, 104, 293.5843811035156
0, 2, 105, 272.7140502929688
0, 2, 106, 295.8958129882812
0, 2, 107, 270.4705505371094
0, 2, 108, 116.6149444580078
0, 2, 109, 32.13227844238281
0, 2, 110, 9.230419158935547
0, 2, 111, 10.76401424407959
0, 2, 112, 8.899562835693359
0, 2, 113, 12.69686412811279
0, 2, 114, 10.18155384063721
0, 2, 115, 10.38866424560547
0, 2, 116, 10.21826076507568
0, 2, 117, 5.380434513092041
0, 2, 118, 4.560547828674316
0, 2, 119, 3.426991701126099
0, 2, 120, 4.71320629119873
0, 2, 121, 3.509783506393433
0, 2, 122, 3.890832662582397
0, 2, 123, 5.790572643280029
0, 2, 124, 3.465193271636963
0, 2, 125, 5.547233581542969
0, 2, 126, 3.986095190048218
0, 2, 127, 4.963479518890381
0, 3, 0, 3.221409797668457
0, 3, 1, 3.93963098526001
0, 3, 2, 4.584481239318848
0, 3, 3, 2.404831886291504
0, 3, 4, 3.479219198226929
0, 3, 5, 7.143505096435547
0, 3, 6, 6.350951194763184
0, 3, 7, 5.427557468414307
0, 3, 8, 5.569494247436523
0, 3, 9, 5.523994445800781
0, 3, 10, 5.656257152557373
0, 3, 11, 4.411889553070068
0, 3, 12, 7.233058929443359
0, 3, 13, 16.73797798156738
0, 3, 14, 12.03532028198242
0, 3, 15, 12.88520431518555
0, 3, 16, 10.13962841033936
0, 3, 17, 19.49394226074219
0, 3, 18, 51.05249404907227
0, 3, 19, 176.2567749023438
0, 3, 20, 271.1616821289062
0, 3, 21, 271.7911987304688
0, 3, 22, 281.0128784179688
0, 3, 23, 287.7482604980469
0, 3, 24, 284.5364074707031
0, 3, 25, 272.2969360351562
0, 3, 26, 304.5687255859375
0, 3, 27, 291.8611145019531
0, 3, 28, 283.7449340820312
0, 3, 29, 337.8549499511719
0, 3, 30, 318.2330932617188
0, 3, 31, 288.1449584960938
0, 3, 32, 305.7475891113281
0, 3, 33, 314.9952392578125
0, 3, 34, 325.6394653320312
0, 3, 35, 305.7697143554688
0, 3, 36, 269.4470825195312
0, 3, 37, 315.1873474121094
0, 3, 38, 305.31640625
0, 3, 39, 288.8908081054688
0, 3, 40, 268.1623840332031
0, 3, 41, 299.8014221191406
0, 3, 42, 286.7386169433594
0, 3, 43, 305.8626098632812
0, 3, 44, 312.2247314453125
0, 3, 45, 290.2973022460938
0, 3, 46, 329.1673583984375
0, 3, 47, 299.3082885742188
0, 3, 48, 302.3429870605469
0, 3, 49, 277.0040588378906
0, 3, 50, 289.0597229003906
0, 3, 51, 276.0455932617188
0, 3, 52, 315.7977600097656
0, 3, 53, 289.5329284667969
0, 3, 54, 284.099609375
0, 3, 55, 282.8268432617188
0, 3, 56, 298.2162170410156
0, 3, 57, 288.059326171875
0, 3, 58, 305.9298706054688
0, 3, 59, 294.4174499511719
0, 3, 60, 297.4865417480469
0, 3, 61, 265.7115783691406
0, 3, 62, 282.6049194335938
0, 3, 63, 306.7413940429688
0, 3, 64, 317.5213623046875
0, 3, 65, 305.2872924804688
0, 3, 66, 314.1208190917969
0, 3, 67, 317.1679992675781
0, 3, 68, 278.8578796386719
0, 3, 69, 283.590576171875
0, 3, 70, 286.77978515625
0, 3, 71, 298.4189453125
0, 3, 72, 270.9697875976562
0, 3, 73, 310.6800537109375
0, 3, 74, 293.11669921875
0, 3, 75, 289.3405456542969
0, 3, 76, 306.135498046875
0, 3, 77, 314.3204040527344
0, 3, 78, 302.9339599609375
0, 3, 79, 281.053466796875
0, 3, 80, 289.5108337402344
0, 3, 81, 312.6746215820312
0, 3, 82, 315.1436462402344
0, 3, 83, 299.7128601074219
0, 3, 84, 310.0396423339844
0, 3, 85, 292.6165771484375
0, 3, 86, 303.6549072265625
0, 3, 87, 298.4192199707031
0, 3, 88, 296.6665344238281
0, 3, 89, 295.6199340820312
0, 3, 90, 275.6337585449219
0, 3, 91, 283.541259765625
0, 3, 92, 304.9852294921875
0, 3, 93, 311.9043579101562
0, 3, 94, 299.7156372070312
0, 3, 95, 338.6218872070312
0, 3, 96, 291.0153503417969
0, 3, 97, 284.6856689453125
0, 3, 98, 276.9988098144531
0, 3, 99, 261.5492858886719
0, 3, 100, 284.1064758300781
0, 3, 101, 298.1051635742188
0, 3, 102, 273.9139404296875
0, 3, 103, 319.4724731445312
0, 3, 104, 308.0686950683594
0, 3, 105, 288.4739379882812
0, 3, 106, 301.2340393066406
0, 3, 107, 282.3722534179688
0, 3, 108, 169.5016326904297
0, 3, 109, 56.60550308227539
0, 3, 110, 21.28300857543945
0, 3, 111, 16.17993927001953
0, 3, 112, 16.48257637023926
0, 3, 113, 8.579934120178223
0, 3, 114, 8.961512565612793
0, 3, 115, 8.866867065429688
0, 3, 116, 6.016607761383057
0, 3, 117, 9.30784797668457
0, 3, 118, 11.10885429382324
0, 3, 119, 8.793092727661133
0, 3, 120, 4.738858222961426
0, 3, 121, 5.73113489151001
0, 3, 122, 3.642563819885254
0, 3, 123, 4.784942626953125
0, 3, 124, 7.145365238189697
0, 3, 125, 5.374159812927246
0, 3, 126, 6.469508647918701
0, 3, 127, 2.577987194061279
0, 4, 0, 1.84768271446228
0, 4, 1, 6.300068378448486
0, 4, 2, 3.459122896194458
0, 4, 3, 2.561413526535034
0, 4, 4, 6.511052131652832
0, 4, 5, 7.689664840698242
0, 4, 6, 7.219073295593262
0, 4, 7, 3.902796506881714
0, 4, 8, 3.147782325744629
0, 4, 9, 5.823501110076904
0, 4, 10, 6.72143030166626
0, 4, 11, 6.123884677886963
0, 4, 12, 8.735366821289062
0, 4, 13, 9.583353042602539
0, 4, 14, 11.57052612304688
0, 4, 15, 11.63037776947021
0, 4, 16, 13.64665222167969
0, 4, 17, 17.80881309509277
0, 4, 18, 92.54550933837891
0, 4, 19, 224.2754974365234
0, 4, 20, 283.3226928710938
0, 4, 21, 272.7376708984375
0, 4, 22, 307.689697265625
0, 4, 23, 266.9511413574219
0, 4, 24, 288.5827941894531
0, 4, 25, 275.7885437011719
0, 4, 26, 295.8980407714844
0, 4, 27, 282.7861022949219
0, 4, 28, 307.4839477539062
0, 4, 29, 322.7906494140625
0, 4, 30, 308.8765258789062
0, 4, 31, 305.5372924804688
0, 4, 32, 280.9893493652344
0, 4, 33, 296.0202331542969
0, 4, 34, 297.384033203125
0, 4, 35, 311.9466552734375
0, 4, 36, 294.47216796875
0, 4, 37, 289.2622680664062
0, 4, 38, 297.7867736816406
0, 4, 39, 296.3090209960938
0, 4, 40, 302.6702575683594
0, 4, 41, 310.8701782226562
0, 4, 42, 330.8809204101562
0, 4, 43, 294.9237670898438
0, 4, 44, 320.6116333007812
0, 4, 45, 326.311767578125
0, 4, 46, 304.7873840332031
0, 4, 47, 293.5592956542969
0, 4, 48, 294.1239624023438
0, 4, 49, 276.847412109375
0, 4, 50, 296.2334899902344
0, 4, 51, 314.7725219726562
0, 4, 52, 326.0846862792969
0, 4, 53, 306.5901794433594
0, 4, 54, 286.9538269042969
0, 4, 55, 315.6752014160156
0, 4, 56, 285.9933471679688
0, 4, 57, 308.4029541015625
0, 4, 58, 295.9163208007812
0, 4, 59, 307.4331970214844
0, 4, 60, 301.6054077148438
0, 4, 61, 316.4457702636719
0, 4, 62, 308.7931213378906
0, 4, 63, 302.0939025878906
0, 4, 64, 330.1705932617188
0, 4, 65, 315.7646789550781
0, 4, 66, 295.18505859375
0, 4, 67, 285.6141052246094
0, 4, 68, 315.4176330566406
0, 4, 69, 276.0912475585938
0, 4, 70, 299.5958557128906
0, 4, 71, 321.8246459960938
0, 4, 72, 331.614501953125
0, 4, 73, 298.7078247070312
0, 4, 74, 292.2489929199219
0, 4, 75, 291.9716186523438
0, 4, 76, 274.6785888671875
0, 4, 77, 280.0968322753906
0, 4, 78, 308.5020141601562
0, 4, 79, 319.0714721679688
0, 4, 80, 314.9241027832031
0, 4, 81, 314.1036682128906
0, 4, 82, 299.0358581542969
0, 4, 83, 300.3088684082031
0, 4, 84, 294.4795227050781
0, 4, 85, 296.4791564941406
0, 4, 86, 296.7023315429688
0, 4, 87, 285.8928527832031
0, 4, 88, 308.9455871582031
0, 4, 89, 297.8370056152344
0, 4, 90, 332.5082397460938
0, 4, 91, 302.0607604980469
0, 4, 92, 291.9646911621094
0, 4, 93, 297.6593933105469
0, 4, 94, 291.4114379882812
0, 4, 95, 291.9299926757812
0, 4, 96, 324.6263732910156
0, 4, 97, 274.039306640625
0, 4, 98, 326.0637817382812
0, 4, 99, 315.1740112304688
0, 4, 100, 301.2402038574219
0, 4, 101, 256.4222106933594
0, 4, 102, 299.40966796875
0, 4, 103, 317.458740234375
0, 4, 104, 281.0125122070312
0, 4, 105, 311.2529296875
0, 4, 106, 289.0973510742188
0, 4, 107, 294.7549743652344
0, 4, 108, 224.6802520751953
0, 4, 109, 79.24921417236328
0, 4, 110, 18.53246307373047
0, 4, 111, 12.42904186248779
0, 4, 112, 9.223918914794922
0, 4, 113, 9.573790550231934
0, 4, 114, 7.938174724578857
0, 4, 115, 9.387347221374512
0, 4, 116, 10.5379114151001
0, 4, 117, 6.416956901550293
0, 4, 118, 9.716527938842773
0, 4, 119, 9.858011245727539
0, 4, 120, 9.18282413482666
0, 4, 121, 4.824289798736572
0, 4, 122, 5.517648696899414
0, 4, 123, 6.381759166717529
0, 4, 124, 4.69936466217041
0, 4, 125, 8.40654468536377
0, 4, 126, 3.84857702255249
0, 4, 127, 4.654004573822021
0, 5, 0, 3.143657445907593
0, 5, 1, 4.978666305541992
0, 5, 2, 4.064873218536377
0, 5, 3, 3.558451652526855
0, 5, 4, 5.847797870635986
0, 5, 5, 6.267583847045898
0, 5, 6, 7.251949787139893
0, 5, 7, 4.734970092773438
0, 5, 8, 3.408969879150391
0, 5, 9, 5.034705638885498
0, 5, 10, 7.711309909820557
0, 5, 11, 7.386421680450439
0, 5, 12, 9.269353866577148
0, 5, 13, 6.482047557830811
0, 5, 14, 12.25545310974121
0, 5, 15, 15.54142951965332
0, 5, 16, 14.03162288665771
0, 5, 17, 29.56275749206543
0, 5, 18, 136.8227386474609
0, 5, 19, 286.5186157226562
0, 5, 20, 307.5942077636719
0, 5, 21, 316.5864868164062
0, 5, 22, 275.3771667480469
0, 5, 23, 314.2304992675781
0, 5, 24, 301.5535278320312
0, 5, 25, 290.5704345703125
0, 5, 26, 293.0855102539062
0, 5, 27, 321.7529602050781
0, 5, 28, 302.6494445800781
0, 5, 29, 298.5876159667969
0, 5, 30, 326.2441711425781
0, 5, 31, 288.3521118164062
0, 5, 32, 300.8746948242188
0, 5, 33, 306.4148254394531
0, 5, 34, 297.1574096679688
0, 5, 35, 310.841064453125
0, 5, 36, 269.8886413574219
0, 5, 37, 281.4716186523438
0, 5, 38, 292.9278869628906
0, 5, 39, 310.8896484375
0, 5, 40, 307.5913696289062
0, 5, 41, 276.212646484375
0, 5, 42, 305.52197265625
0, 5, 43, 316.5237121582031
0, 5, 44, 291.4110412597656
0, 5, 45, 302.868896484375
0, 5, 46, 263.5809020996094
0, 5, 47, 279.3101196289062
0, 5, 48, 294.9927062988281
0, 5, 49, 288.1283874511719
0, 5, 50, 295.4495544433594
0, 5, 51, 279.5880737304688
0, 5, 52, 268.9223022460938
0, 5, 53, 285.2677917480469
0, 5, 54, 291.884033203125
0, 5, 55, 345.7362365722656
0, 5, 56, 304.7380981445312
0, 5, 57, 305.7841186523438
0, 5, 58, 310.6396484375
0, 5, 59, 303.6835327148438
0, 5, 60, 309.2850952148438
0, 5, 61, 280.89404296875
0, 5, 62, 326.9546203613281
0, 5, 63, 290.9664001464844
0, 5, 64, 321.9911804199219
0, 5, 65, 304.7012939453125
0, 5, 66, 327.9328308105469
0, 5, 67, 311.2724914550781
0, 5, 68, 309.7711791992188
0, 5, 69, 310.350830078125
0, 5, 70, 301.1784362792969
0, 5, 71, 271.3427429199219
0, 5, 72, 312.2147216796875
0, 5, 73, 302.5479431152344
0, 5, 74, 295.6508483886719
0, 5, 75, 294.53125
0, 5, 76, 284.8196105957031
0, 5, 77, 299.9428100585938
0, 5, 78, 316.7794189453125
0, 5, 79, 306.914306640625
0, 5, 80, 294.3829650878906
0, 5, 81, 325.2455749511719
0, 5, 82, 324.0702209472656
0, 5, 83, 281.841796875
0, 5, 84, 300.4683227539062
0, 5, 85, 270.9117736816406
0, 5, 86, 327.2570495605469
0, 5, 87, 282.7489318847656
0, 5, 88, 313.2326049804688
0, 5, 89, 304.2828979492188
0, 5, 90, 314.8796997070312
0, 5, 91, 313.4676818847656
0, 5, 92, 296.0271606445312
0, 5, 93, 322.7813415527344
0, 5, 94, 309.0276489257812
0, 5, 95, 296.3857727050781
0, 5, 96, 295.5818786621094
0, 5, 97, 295.5531311035156
0, 5, 98, 319.1721496582031
0, 5, 99, 303.6058349609375
0, 5, 100, 292.7028503417969
0, 5, 101, 305.6576232910156
0, 5, 102, 291.192626953125
0, 5, 103, 312.78955078125
0, 5, 104, 303.0406799316406
0, 5, 105, 291.7925415039062
0, 5, 106, 280.9457702636719
0, 5, 107, 295.7331848144531
0, 5, 108, 264.139892578125
0, 5, 109, 156.8683166503906
0, 5, 110, 41.14308547973633
0, 5, 111, 18.9815731048584
0, 5, 112, 16.19396591186523
0, 5, 113, 16.86909294128418
0, 5, 114, 11.70132732391357
0, 5, 115, 7.603524208068848
0, 5, 116, 8.935921669006348
0, 5, 117, 7.364679336547852
0, 5, 118, 11.22529125213623
0, 5, 119, 3.164661884307861
0, 5, 120, 5.609261035919189
0, 5, 121, 5.349752426147461
0, 5, 122, 5.729038715362549
0, 5, 123, 4.161698341369629
0, 5, 124, 6.112574577331543
0, 5, 125, 3.51094388961792
0, 5, 126, 6.030348777770996
0, 5, 127, 4.452903270721436
0, 6, 0, 2.93240761756897
0, 6, 1, 4.210662364959717
0, 6, 2, 5.670393943786621
0, 6, 3, 7.704178810119629
0, 6, 4, 3.820979595184326
0, 6, 5, 5.472280025482178
0, 6, 6, 7.656479358673096
0, 6, 7, 5.522818565368652
0, 6, 8, 8.5927734375
0, 6, 9, 7.416932582855225
0, 6, 10, 9.924606323242188
0, 6, 11, 11.39965915679932
0, 6, 12, 8.658140182495117
0, 6, 13, 14.26502895355225
0, 6, 14, 8.850274085998535
0, 6, 15, 16.63607978820801
0, 6, 16, 28.73373413085938
0, 6, 17, 55.86500549316406
0, 6, 18, 174.4820098876953
0, 6, 19, 275.8722229003906
0, 6, 20, 290.6091003417969
0, 6, 21, 315.9309692382812
0, 6, 22, 321.8971557617188
0, 6, 23, 305.0294799804688
0, 6, 24, 316.7195129394531
0, 6, 25, 315.5632934570312
0, 6, 26, 319.6931457519531
0, 6, 27, 329.6801147460938
0, 6, 28, 297.1238403320312
0, 6, 29, 329.5095520019531
0, 6, 30, 281.0385131835938
0, 6, 31, 286.9107055664062
0, 6, 32, 339.8268432617188
0, 6, 33, 300.9546508789062
0, 6, 34, 340.429443359375
0, 6, 35, 319.4740905761719
0, 6, 36, 273.9917907714844
0, 6, 37, 287.8127136230469
0, 6, 38, 313.3466491699219
0, 6, 39, 299.6429138183594
0, 6, 40, 283.9803771972656
0, 6, 41, 298.1896057128906
0, 6, 42, 305.8424682617188
0, 6, 43, 288.5664367675781
0, 6, 44, 280.5864562988281
0, 6, 45, 318.916259765625
0, 6, 46, 302.0662231445312
0, 6, 47, 333.6826171875
0, 6, 48, 294.7908325195312
0, 6, 49, 310.9008483886719
0, 6, 50, 328.649658203125
0, 6, 51, 311.39306640625
0, 6, 52, 321.4213256835938
0, 6, 53, 326.5530395507812
0, 6, 54, 300.9432373046875
0, 6, 55, 308.8644714355469
0, 6, 56, 294.8304443359375
0, 6, 57, 314.0914611816406
0, 6, 58, 260.4519653320312
0, 6, 59, 304.2149963378906
0, 6, 60, 315.2925415039062
0, 6, 61, 269.6030578613281
0, 6, 62, 338.537841796875
0, 6, 63, 322.8327331542969
0, 6, 64, 292.0559997558594
0, 6, 65, 286.1897277832031
0, 6, 66, 303.3152465820312
0, 6, 67, 308.7301025390625
0, 6, 68, 293.4072570800781
0, 6, 69, 278.0984802246094
0, 6, 70, 273.8630981445312
0, 6, 71, 289.9738159179688
0, 6, 72, 311.7261962890625
0, 6, 73, 292.5408325195312
0, 6, 74, 329.7132263183594
0, 6, 75, 342.8333740234375
0, 6, 76, 297.9774780273438
0, 6, 77, 285.3903198242188
0, 6, 78, 278.2091369628906
0, 6, 79, 291.8438720703125
0, 6, 80, 300.7016296386719
0, 6, 81, 315.1187744140625
0, 6, 82, 319.4747619628906
0, 6, 83, 319.7751159667969
0, 6, 84, 294.7568359375
0, 6, 85, 300.4171142578125
0, 6, 86, 329.4566955566406
0, 6, 87, 294.072509765625
0, 6, 88, 306.0877075195312
0, 6, 89, 304.8328552246094
0, 6, 90, 299.4762573242188
0, 6, 91, 313.4906311035156
0, 6, 92, 284.7221374511719
0, 6, 93, 294.079833984375
0, 6, 94, 272.4118041992188
0, 6, 95, 300.96923828125
0, 6, 96, 348.2478332519531
0, 6, 97, 308.8095703125
0, 6, 98, 300.8207092285156
0, 6, 99, 270.6323547363281
0, 6, 100, 309.7894287109375
0, 6, 101, 293.1027221679688
0, 6, 102, 305.9249267578125
0, 6, 103, 306.9631042480469
0, 6, 104, 291.1500549316406
0, 6, 105, 300.449462890625
0, 6, 106, 307.8942260742188
0, 6, 107, 305.4852294921875
0, 6, 108, 266.2290954589844
0, 6, 109, 185.5778503417969
0, 6, 110, 56.43403244018555
0, 6, 111, 22.0441780090332
0, 6, 112, 15.01675224304199
0, 6, 113, 10.47774887084961
0, 6, 114, 13.06233882904053
0, 6, 115, 13.12356853485107
0, 6, 116, 9.985600471496582
0, 6, 117, 7.228290557861328
0, 6, 118, 9.662748336791992
0, 6, 119, 8.907611846923828
0, 6, 120, 5.473841190338135
0, 6, 121, 5.598257064819336
0, 6, 122, 5.681228637695312
0, 6, 123, 4.85162878036499
0, 6, 124, 7.039287567138672
0, 6, 125, 7.828074932098389
0, 6, 126, 5.209537506103516
0, 6, 127, 7.344141006469727
0, 7, 0, 9.774163246154785
0, 7, 1, 3.73279333114624
0, 7, 2, 4.716150283813477
0, 7, 3, 5.021707057952881
0, 7, 4, 3.176737785339355
0, 7, 5, 6.328919887542725
0, 7, 6, 5.820218563079834
0, 7, 7, 6.06254243850708
0, 7, 8, 6.789474010467529
0, 7, 9, 5.495991230010986
0, 7, 10, 9.847509384155273
0, 7, 11, 12.8064661026001
0, 7, 12, 10.92591667175293
0, 7, 13, 12.02631950378418
0, 7, 14, 9.941293716430664
0, 7, 15, 15.83785247802734
0, 7, 16, 25.97512817382812
0, 7, 17, 97.38542938232422
0, 7, 18, 219.6300048828125
0, 7, 19, 291.2104187011719
0, 7, 20, 297.6900329589844
0, 7, 21, 275.9200134277344
0, 7, 22, 300.1254577636719
0, 7, 23, 288.7550048828125
0, 7, 24, 315.081298828125
0, 7, 25, 324.5950317382812
0, 7, 26, 277.6991577148438
0, 7, 27, 297.6515808105469
0, 7, 28, 326.1607360839844
0, 7, 29, 318.1992492675781
0, 7, 30, 299.6226501464844
0, 7, 31, 277.3573913574219
0, 7, 32, 305.8612365722656
0, 7, 33, 261.8665771484375
0, 7, 34, 297.8192443847656
0, 7, 35, 320.1295471191406
0, 7, 36, 330.90673828125
0, 7, 37, 321.9767761230469
0, 7, 38, 296.4002075195312
0, 7, 39, 307.0593566894531
0, 7, 40, 291.8471069335938
0, 7, 41, 274.8421630859375
0, 7, 42, 301.3334655761719
0, 7, 43, 272.902099609375
0, 7, 44, 303.2793579101562
0, 7, 45, 293.50634765625
0, 7, 46, 282.9638366699219
0, 7, 47, 327.5198364257812
0, 7, 48, 284.952392578125
0, 7, 49, 300.6905822753906
0, 7, 50, 321.9941711425781
0, 7, 51, 298.9088439941406
0, 7, 52, 329.4981079101562
0, 7, 53, 308.7790222167969
0, 7, 54, 321.9436950683594
0, 7, 55, 306.1001586914062
0, 7, 56, 279.3030700683594
0, 7, 57, 281.2724609375
0, 7, 58, 296.9105834960938
0, 7, 59, 294.1810302734375
0, 7, 60, 325.3635864257812
0, 7, 61, 277.9725952148438
0, 7, 62, 298.4061889648438
0, 7, 63, 292.1644287109375
0, 7, 64, 309.4224243164062
0, 7, 65, 328.5824279785156
0, 7, 66, 317.8198852539062
0, 7, 67, 300.8209228515625
0, 7, 68, 281.2542419433594
0, 7, 69, 293.6239318847656
0, 7, 70, 299.82861328125
0, 7, 71, 308.3108215332031
0, 7, 72, 284.5646057128906
0, 7, 73, 294.3519287109375
0, 7, 74, 343.4299926757812
0, 7, 75, 319.1292114257812
0, 7, 76, 323.1834411621094
0, 7, 77, 282.079833984375
0, 7, 78, 299.3841857910156
0, 7, 79, 300.8188781738281
0, 7, 80, 312.96044921875
0, 7, 81, 321.3868713378906
0, 7, 82, 330.0453491210938
0, 7, 83, 316.1336669921875
0, 7, 84, 311.9320983886719
0, 7, 85, 271.7439270019531
0, 7, 86, 309.6838684082031
0, 7, 87, 313.3919372558594
0, 7, 88, 307.1846313476562
0, 7, 89, 293.3846130371094
0, 7, 90, 305.8956909179688
0, 7, 91, 317.4283142089844
0, 7, 92, 288.4908752441406
0, 7, 93, 307.0912780761719
0, 7, 94, 273.2649536132812
0, 7, 95, 297.4824523925781
0, 7, 96, 330.9000854492188
0, 7, 97, 293.9720153808594
0, 7, 98, 291.5689086914062
0, 7, 99, 314.7349243164062
0, 7, 100, 280.0432739257812
0, 7, 101, 274.7637329101562
0, 7, 102, 291.4377136230469
0, 7, 103, 291.28515625
0, 7, 104, 275.4741516113281
0, 7, 105, 305.2520141601562
0, 7, 106, 317.8406677246094
0, 7, 107, 296.09375
0, 7, 108, 274.3407592773438
0, 7, 109, 237.2323150634766
0, 7, 110, 97.79293060302734
0, 7, 111, 25.39129447937012
0, 7, 112, 12.98647022247314
0, 7, 113, 15.66018199920654
0, 7, 114, 17.05832481384277
0, 7, 115, 13.58169078826904
0, 7, 116, 10.09202861785889
0, 7, 117, 5.185032844543457
0, 7, 118, 11.76523113250732
0, 7, 119, 7.804003238677979
0, 7, 120, 4.237311840057373
0, 7, 121, 6.039123058319092
0, 7, 122, 7.791232109069824
0, 7, 123, 3.781899452209473
0, 7, 124, 3.319066524505615
0, 7, 125, 7.82765531539917
0, 7, 126, 7.52175760269165
0, 7, 127, 3.897148132324219
0, 8, 0, 3.915399312973022
0, 8, 1, 2.775577545166016
0, 8, 2, 3.326051235198975
0, 8, 3, 1.359779715538025
0, 8, 4, 6.108872890472412
0, 8, 5, 3.623586416244507
0, 8, 6, 7.161544322967529
0, 8, 7, 5.786154270172119
0, 8, 8, 11.03219985961914
0, 8, 9, 4.830537796020508
0, 8, 10, 7.502147674560547
0, 8, 11, 11.21236896514893
0, 8, 12, 13.17539978027344
0, 8, 13, 14.72675132751465
0, 8, 14, 14.26328468322754
0, 8, 15, 19.18095970153809
0, 8, 16, 32.08386611938477
0, 8, 17, 131.462890625
0, 8, 18, 243.4007873535156
0, 8, 19, 293.9956665039062
0, 8, 20, 284.5169982910156
0, 8, 21, 307.9689636230469
0, 8, 22, 298.3997802734375
0, 8, 23, 274.103515625
0, 8, 24, 269.033447265625
0, 8, 25, 278.3391723632812
0, 8, 26, 306.0824584960938
0, 8, 27, 308.054931640625
0, 8, 28, 305.7005310058594
0, 8, 29, 321.0605773925781
0, 8, 30, 313.9171447753906
0, 8, 31, 303.2616882324219
0, 8, 32, 279.5476684570312
0, 8, 33, 296.2268676757812
0, 8, 34, 290.6192321777344
0, 8, 35, 282.5523376464844
0, 8, 36, 314.761962890625
0, 8, 37, 340.5158996582031
0, 8, 38, 331.552490234375
0, 8, 39, 279.9651489257812
0, 8, 40, 303.3183898925781
0, 8, 41, 293.6221008300781
0, 8, 42, 327.735595703125
