# TOPAS Version: 3.1.p3
# Parameter File: batch_inserts_100.txt
# Results for scorer Readout_Adipose
# Scored in component: MyBox
# X in 1 bin  of 0.75 cm
# Y in 512 bins of 0.0783984 cm
# Z in 128 bins of 0.078125 cm
# EnergyDeposit ( MeV ) : Sum   
0, 0, 0, 18.46866798400879
0, 0, 1, 25.18862915039062
0, 0, 2, 20.23593139648438
0, 0, 3, 19.22140693664551
0, 0, 4, 17.90792083740234
0, 0, 5, 20.72855186462402
0, 0, 6, 20.85871124267578
0, 0, 7, 30.01988220214844
0, 0, 8, 21.19157028198242
0, 0, 9, 21.44709205627441
0, 0, 10, 26.81528854370117
0, 0, 11, 27.36590003967285
0, 0, 12, 34.10880661010742
0, 0, 13, 35.25422286987305
0, 0, 14, 40.0404052734375
0, 0, 15, 44.00354766845703
0, 0, 16, 44.40911102294922
0, 0, 17, 43.6580810546875
0, 0, 18, 71.36614990234375
0, 0, 19, 189.9888153076172
0, 0, 20, 700.6797485351562
0, 0, 21, 1191.710815429688
0, 0, 22, 1242.904174804688
0, 0, 23, 1275.156982421875
0, 0, 24, 1276.774536132812
0, 0, 25, 1356.508666992188
0, 0, 26, 1268.03515625
0, 0, 27, 1280.6982421875
0, 0, 28, 1317.857788085938
0, 0, 29, 1271.97314453125
0, 0, 30, 1262.366455078125
0, 0, 31, 1281.58544921875
0, 0, 32, 1266.54638671875
0, 0, 33, 1240.542114257812
0, 0, 34, 1322.97265625
0, 0, 35, 1296.885375976562
0, 0, 36, 1245.534790039062
0, 0, 37, 1279.748046875
0, 0, 38, 1249.30224609375
0, 0, 39, 1246.416870117188
0, 0, 40, 1226.428344726562
0, 0, 41, 1268.578857421875
0, 0, 42, 1253.4853515625
0, 0, 43, 1268.506225585938
0, 0, 44, 1226.378295898438
0, 0, 45, 1289.023803710938
0, 0, 46, 1262.906982421875
0, 0, 47, 1242.924194335938
0, 0, 48, 1275.974731445312
0, 0, 49, 1284.251586914062
0, 0, 50, 1311.173706054688
0, 0, 51, 1258.775512695312
0, 0, 52, 1366.505981445312
0, 0, 53, 1327.193603515625
0, 0, 54, 1294.99951171875
0, 0, 55, 1232.840942382812
0, 0, 56, 1318.854248046875
0, 0, 57, 1292.161010742188
0, 0, 58, 1255.85400390625
0, 0, 59, 1331.672607421875
0, 0, 60, 1322.1796875
0, 0, 61, 1264.955688476562
0, 0, 62, 1240.778076171875
0, 0, 63, 1276.42822265625
0, 0, 64, 1329.821899414062
0, 0, 65, 1282.55810546875
0, 0, 66, 1318.370483398438
0, 0, 67, 1213.864013671875
0, 0, 68, 1311.188720703125
0, 0, 69, 1326.125610351562
0, 0, 70, 1344.128295898438
0, 0, 71, 1285.964599609375
0, 0, 72, 1316.822265625
0, 0, 73, 1234.84033203125
0, 0, 74, 1285.835327148438
0, 0, 75, 1293.099731445312
0, 0, 76, 1255.946899414062
0, 0, 77, 1288.107055664062
0, 0, 78, 1313.125244140625
0, 0, 79, 1324.491333007812
0, 0, 80, 1262.299560546875
0, 0, 81, 1319.403076171875
0, 0, 82, 1284.25341796875
0, 0, 83, 1289.11865234375
0, 0, 84, 1332.51123046875
0, 0, 85, 1235.044921875
0, 0, 86, 1265.100219726562
0, 0, 87, 1253.206909179688
0, 0, 88, 1258.259521484375
0, 0, 89, 1334.424682617188
0, 0, 90, 1278.626953125
0, 0, 91, 1352.266723632812
0, 0, 92, 1304.27734375
0, 0, 93, 1274.32080078125
0, 0, 94, 1242.951538085938
0, 0, 95, 1327.571899414062
0, 0, 96, 1281.271118164062
0, 0, 97, 1323.028686523438
0, 0, 98, 1259.532348632812
0, 0, 99, 1252.259887695312
0, 0, 100, 1284.842895507812
0, 0, 101, 1314.119995117188
0, 0, 102, 1234.416259765625
0, 0, 103, 1327.277221679688
0, 0, 104, 1261.038940429688
0, 0, 105, 1265.946166992188
0, 0, 106, 1205.460571289062
0, 0, 107, 776.390625
0, 0, 108, 193.41259765625
0, 0, 109, 71.96570587158203
0, 0, 110, 68.21324157714844
0, 0, 111, 36.62009048461914
0, 0, 112, 36.63252258300781
0, 0, 113, 29.27225112915039
0, 0, 114, 36.00905609130859
0, 0, 115, 29.98435020446777
0, 0, 116, 29.12256050109863
0, 0, 117, 31.64837074279785
0, 0, 118, 27.52813911437988
0, 0, 119, 19.48574829101562
0, 0, 120, 22.67237663269043
0, 0, 121, 27.37592506408691
0, 0, 122, 28.26042556762695
0, 0, 123, 25.21383285522461
0, 0, 124, 22.37288475036621
0, 0, 125, 22.11787796020508
0, 0, 126, 26.71424674987793
0, 0, 127, 16.28402137756348
0, 1, 0, 27.71523475646973
0, 1, 1, 20.82471466064453
0, 1, 2, 23.42496871948242
0, 1, 3, 17.14090919494629
0, 1, 4, 29.12943649291992
0, 1, 5, 24.46343994140625
0, 1, 6, 22.81277656555176
0, 1, 7, 24.50003242492676
0, 1, 8, 31.52700996398926
0, 1, 9, 29.18307113647461
0, 1, 10, 34.46291732788086
0, 1, 11, 41.53758239746094
0, 1, 12, 41.90081405639648
0, 1, 13, 41.30458831787109
0, 1, 14, 45.21384811401367
0, 1, 15, 44.8109016418457
0, 1, 16, 57.72639846801758
0, 1, 17, 61.80634307861328
0, 1, 18, 99.25479888916016
0, 1, 19, 400.1374816894531
0, 1, 20, 1040.493408203125
0, 1, 21, 1375.057983398438
0, 1, 22, 1477.88525390625
0, 1, 23, 1464.925659179688
0, 1, 24, 1448.721557617188
0, 1, 25, 1423.736938476562
0, 1, 26, 1471.678588867188
0, 1, 27, 1462.171752929688
0, 1, 28, 1486.432373046875
0, 1, 29, 1477.72412109375
0, 1, 30, 1503.39453125
0, 1, 31, 1479.410522460938
0, 1, 32, 1412.404541015625
0, 1, 33, 1501.947875976562
0, 1, 34, 1504.001586914062
0, 1, 35, 1461.4365234375
0, 1, 36, 1487.701904296875
0, 1, 37, 1409.251098632812
0, 1, 38, 1391.110473632812
0, 1, 39, 1523.002685546875
0, 1, 40, 1468.502685546875
0, 1, 41, 1490.199462890625
0, 1, 42, 1497.522338867188
0, 1, 43, 1504.254028320312
0, 1, 44, 1449.831665039062
0, 1, 45, 1488.395263671875
0, 1, 46, 1415.259521484375
0, 1, 47, 1435.651611328125
0, 1, 48, 1429.782592773438
0, 1, 49, 1487.963012695312
0, 1, 50, 1440.558227539062
0, 1, 51, 1479.228271484375
0, 1, 52, 1475.336181640625
0, 1, 53, 1471.794555664062
0, 1, 54, 1504.745239257812
0, 1, 55, 1499.515380859375
0, 1, 56, 1469.31494140625
0, 1, 57, 1458.344848632812
0, 1, 58, 1430.1455078125
0, 1, 59, 1481.9482421875
0, 1, 60, 1462.21826171875
0, 1, 61, 1450.397705078125
0, 1, 62, 1457.047241210938
0, 1, 63, 1416.396850585938
0, 1, 64, 1478.650512695312
0, 1, 65, 1416.418701171875
0, 1, 66, 1436.965209960938
0, 1, 67, 1453.2607421875
0, 1, 68, 1388.339111328125
0, 1, 69, 1458.694458007812
0, 1, 70, 1437.184448242188
0, 1, 71, 1496.956665039062
0, 1, 72, 1437.23046875
0, 1, 73, 1490.87060546875
0, 1, 74, 1475.421875
0, 1, 75, 1476.864379882812
0, 1, 76, 1454.634643554688
0, 1, 77, 1466.962646484375
0, 1, 78, 1447.742919921875
0, 1, 79, 1506.523071289062
0, 1, 80, 1449.304809570312
0, 1, 81, 1423.542602539062
0, 1, 82, 1470.41357421875
0, 1, 83, 1458.255126953125
0, 1, 84, 1534.745239257812
0, 1, 85, 1454.317993164062
0, 1, 86, 1402.47705078125
0, 1, 87, 1423.622314453125
0, 1, 88, 1474.424926757812
0, 1, 89, 1474.415771484375
0, 1, 90, 1421.547119140625
0, 1, 91, 1461.320556640625
0, 1, 92, 1414.872924804688
0, 1, 93, 1462.844482421875
0, 1, 94, 1469.632202148438
0, 1, 95, 1423.1865234375
0, 1, 96, 1500.252685546875
0, 1, 97, 1521.8935546875
0, 1, 98, 1476.885009765625
0, 1, 99, 1415.762817382812
0, 1, 100, 1448.511962890625
0, 1, 101, 1411.177490234375
0, 1, 102, 1447.131591796875
0, 1, 103, 1416.162353515625
0, 1, 104, 1408.44873046875
0, 1, 105, 1463.083862304688
0, 1, 106, 1364.435180664062
0, 1, 107, 1016.476745605469
0, 1, 108, 402.3701782226562
0, 1, 109, 93.50440216064453
0, 1, 110, 63.9554328918457
0, 1, 111, 55.68387222290039
0, 1, 112, 43.30611038208008
0, 1, 113, 34.29751586914062
0, 1, 114, 38.6121826171875
0, 1, 115, 39.91912078857422
0, 1, 116, 36.4182014465332
0, 1, 117, 39.82624053955078
0, 1, 118, 32.79724884033203
0, 1, 119, 34.18280029296875
0, 1, 120, 32.42933654785156
0, 1, 121, 31.56744575500488
0, 1, 122, 25.3245792388916
0, 1, 123, 23.9974365234375
0, 1, 124, 30.0327091217041
0, 1, 125, 16.73154067993164
0, 1, 126, 18.33249092102051
0, 1, 127, 21.20623588562012
0, 2, 0, 20.53031921386719
0, 2, 1, 19.80414199829102
0, 2, 2, 23.91681861877441
0, 2, 3, 20.00933837890625
0, 2, 4, 21.2949333190918
0, 2, 5, 22.27141380310059
0, 2, 6, 21.91092681884766
0, 2, 7, 24.33558464050293
0, 2, 8, 24.37540054321289
0, 2, 9, 29.05924224853516
0, 2, 10, 33.38386535644531
0, 2, 11, 33.42485809326172
0, 2, 12, 39.2889518737793
0, 2, 13, 44.53495025634766
0, 2, 14, 43.51336669921875
0, 2, 15, 44.04114151000977
0, 2, 16, 58.22414016723633
0, 2, 17, 77.68215179443359
0, 2, 18, 143.1829376220703
0, 2, 19, 607.8582763671875
0, 2, 20, 1285.647338867188
0, 2, 21, 1433.033569335938
0, 2, 22, 1461.300415039062
0, 2, 23, 1401.817626953125
0, 2, 24, 1442.588745117188
0, 2, 25, 1517.000610351562
0, 2, 26, 1555.611206054688
0, 2, 27, 1459.41064453125
0, 2, 28, 1464.412353515625
0, 2, 29, 1463.817138671875
0, 2, 30, 1469.683959960938
0, 2, 31, 1537.2060546875
0, 2, 32, 1507.395263671875
0, 2, 33, 1440.41455078125
0, 2, 34, 1479.991455078125
0, 2, 35, 1471.877563476562
0, 2, 36, 1522.924926757812
0, 2, 37, 1542.597900390625
0, 2, 38, 1509.236328125
0, 2, 39, 1465.298828125
0, 2, 40, 1507.6513671875
0, 2, 41, 1522.63720703125
0, 2, 42, 1504.822387695312
0, 2, 43, 1549.541015625
0, 2, 44, 1457.47802734375
0, 2, 45, 1483.913818359375
0, 2, 46, 1427.117797851562
0, 2, 47, 1442.218139648438
0, 2, 48, 1397.701171875
0, 2, 49, 1465.131713867188
0, 2, 50, 1451.24462890625
0, 2, 51, 1449.419067382812
0, 2, 52, 1489.783081054688
0, 2, 53, 1521.661865234375
0, 2, 54, 1527.731079101562
0, 2, 55, 1493.873291015625
0, 2, 56, 1465.352172851562
0, 2, 57, 1411.406860351562
0, 2, 58, 1454.843872070312
0, 2, 59, 1446.709716796875
0, 2, 60, 1474.498657226562
0, 2, 61, 1448.481323242188
0, 2, 62, 1474.516723632812
0, 2, 63, 1500.530517578125
0, 2, 64, 1461.761108398438
0, 2, 65, 1423.527465820312
0, 2, 66, 1489.223266601562
0, 2, 67, 1500.54345703125
0, 2, 68, 1542.156005859375
0, 2, 69, 1543.615600585938
0, 2, 70, 1509.745727539062
0, 2, 71, 1461.43408203125
0, 2, 72, 1512.474487304688
0, 2, 73, 1514.22509765625
0, 2, 74, 1488.115844726562
0, 2, 75, 1503.265502929688
0, 2, 76, 1453.052734375
0, 2, 77, 1506.900268554688
0, 2, 78, 1431.11279296875
0, 2, 79, 1535.531616210938
0, 2, 80, 1476.508666992188
0, 2, 81, 1462.958374023438
0, 2, 82, 1557.395263671875
0, 2, 83, 1518.680419921875
0, 2, 84, 1493.155029296875
0, 2, 85, 1515.120971679688
0, 2, 86, 1536.4609375
0, 2, 87, 1487.543334960938
0, 2, 88, 1539.4853515625
0, 2, 89, 1464.004638671875
0, 2, 90, 1429.06201171875
0, 2, 91, 1405.296875
0, 2, 92, 1475.08984375
0, 2, 93, 1496.400390625
0, 2, 94, 1449.424926757812
0, 2, 95, 1546.864501953125
0, 2, 96, 1517.051513671875
0, 2, 97, 1452.75048828125
0, 2, 98, 1464.098266601562
0, 2, 99, 1400.4287109375
0, 2, 100, 1472.071533203125
0, 2, 101, 1481.684936523438
0, 2, 102, 1469.874389648438
0, 2, 103, 1389.611694335938
0, 2, 104, 1411.529296875
0, 2, 105, 1397.46435546875
0, 2, 106, 1459.631591796875
0, 2, 107, 1275.034301757812
0, 2, 108, 622.0755004882812
0, 2, 109, 168.8538665771484
0, 2, 110, 64.76459503173828
0, 2, 111, 64.30210113525391
0, 2, 112, 44.47049331665039
0, 2, 113, 44.94951248168945
0, 2, 114, 39.2066764831543
0, 2, 115, 40.56666946411133
0, 2, 116, 34.22342681884766
0, 2, 117, 37.10916519165039
0, 2, 118, 37.07049942016602
0, 2, 119, 38.14634704589844
0, 2, 120, 26.83434295654297
0, 2, 121, 19.7694149017334
0, 2, 122, 25.08977699279785
0, 2, 123, 20.16269111633301
0, 2, 124, 23.50583457946777
0, 2, 125, 30.98442840576172
0, 2, 126, 17.83541297912598
0, 2, 127, 18.10531997680664
0, 3, 0, 15.37785148620605
0, 3, 1, 20.52763175964355
0, 3, 2, 23.50038719177246
0, 3, 3, 21.38695526123047
0, 3, 4, 25.47771644592285
0, 3, 5, 23.01733779907227
0, 3, 6, 32.77124786376953
0, 3, 7, 31.15478897094727
0, 3, 8, 27.50982475280762
0, 3, 9, 25.74923706054688
0, 3, 10, 32.94572067260742
0, 3, 11, 33.30564880371094
0, 3, 12, 42.75774765014648
0, 3, 13, 53.40896224975586
0, 3, 14, 59.03057479858398
0, 3, 15, 56.7984504699707
0, 3, 16, 64.9005126953125
0, 3, 17, 90.39054870605469
0, 3, 18, 238.4793701171875
0, 3, 19, 876.7647094726562
0, 3, 20, 1387.465209960938
0, 3, 21, 1506.83837890625
0, 3, 22, 1457.661987304688
0, 3, 23, 1454.354614257812
0, 3, 24, 1436.483764648438
0, 3, 25, 1458.970458984375
0, 3, 26, 1491.405151367188
0, 3, 27, 1470.048217773438
0, 3, 28, 1489.72412109375
0, 3, 29, 1542.169799804688
0, 3, 30, 1570.518310546875
0, 3, 31, 1511.21728515625
0, 3, 32, 1545.613403320312
0, 3, 33, 1539.913208007812
0, 3, 34, 1486.302734375
0, 3, 35, 1463.931274414062
0, 3, 36, 1450.136474609375
0, 3, 37, 1513.865234375
0, 3, 38, 1521.966186523438
0, 3, 39, 1436.393188476562
0, 3, 40, 1447.58642578125
0, 3, 41, 1559.193115234375
0, 3, 42, 1464.147094726562
0, 3, 43, 1453.175415039062
0, 3, 44, 1450.056030273438
0, 3, 45, 1507.469360351562
0, 3, 46, 1505.755737304688
0, 3, 47, 1439.415283203125
0, 3, 48, 1511.26025390625
0, 3, 49, 1456.478149414062
0, 3, 50, 1494.0673828125
0, 3, 51, 1538.446899414062
0, 3, 52, 1531.267456054688
0, 3, 53, 1462.457885742188
0, 3, 54, 1535.146240234375
0, 3, 55, 1500.8857421875
0, 3, 56, 1439.073852539062
0, 3, 57, 1501.59228515625
0, 3, 58, 1513.781127929688
0, 3, 59, 1507.35400390625
0, 3, 60, 1535.969360351562
0, 3, 61, 1489.379272460938
0, 3, 62, 1495.333862304688
0, 3, 63, 1493.310791015625
0, 3, 64, 1499.277099609375
0, 3, 65, 1513.673950195312
0, 3, 66, 1558.1298828125
0, 3, 67, 1545.54638671875
0, 3, 68, 1455.72607421875
0, 3, 69, 1462.65380859375
0, 3, 70, 1384.621337890625
0, 3, 71, 1462.307983398438
0, 3, 72, 1550.71875
0, 3, 73, 1503.807250976562
0, 3, 74, 1469.608032226562
0, 3, 75, 1463.892333984375
0, 3, 76, 1574.5634765625
0, 3, 77, 1541.664672851562
0, 3, 78, 1433.414306640625
0, 3, 79, 1490.271606445312
0, 3, 80, 1461.63232421875
0, 3, 81, 1472.359619140625
0, 3, 82, 1558.113647460938
0, 3, 83, 1514.138671875
0, 3, 84, 1564.490356445312
0, 3, 85, 1473.927856445312
0, 3, 86, 1529.86083984375
0, 3, 87, 1540.834106445312
0, 3, 88, 1456.904541015625
0, 3, 89, 1452.434204101562
0, 3, 90, 1450.866821289062
0, 3, 91, 1417.17822265625
0, 3, 92, 1512.732788085938
0, 3, 93, 1505.614868164062
0, 3, 94, 1512.84521484375
0, 3, 95, 1542.824584960938
0, 3, 96, 1513.923461914062
0, 3, 97, 1461.691772460938
0, 3, 98, 1433.924438476562
0, 3, 99, 1464.210815429688
0, 3, 100, 1463.636596679688
0, 3, 101, 1476.868408203125
0, 3, 102, 1517.3857421875
0, 3, 103, 1551.39111328125
0, 3, 104, 1496.507080078125
0, 3, 105, 1514.312866210938
0, 3, 106, 1477.315551757812
0, 3, 107, 1338.3154296875
0, 3, 108, 868.0900268554688
0, 3, 109, 262.3899841308594
0, 3, 110, 99.08522033691406
0, 3, 111, 63.70638275146484
0, 3, 112, 60.19085693359375
0, 3, 113, 54.1805534362793
0, 3, 114, 48.32621383666992
0, 3, 115, 47.9998664855957
0, 3, 116, 34.79981231689453
0, 3, 117, 34.05154800415039
0, 3, 118, 34.05197525024414
0, 3, 119, 32.76315689086914
0, 3, 120, 35.70137023925781
0, 3, 121, 20.56423568725586
0, 3, 122, 24.22903060913086
0, 3, 123, 26.46007919311523
0, 3, 124, 24.72285842895508
0, 3, 125, 31.81905364990234
0, 3, 126, 21.26359367370605
0, 3, 127, 17.34628677368164
0, 4, 0, 22.45489501953125
0, 4, 1, 23.47196960449219
0, 4, 2, 21.63450241088867
0, 4, 3, 24.38789176940918
0, 4, 4, 25.4422779083252
0, 4, 5, 28.03577041625977
0, 4, 6, 37.20964431762695
0, 4, 7, 36.08124160766602
0, 4, 8, 28.46882629394531
0, 4, 9, 33.80496978759766
0, 4, 10, 30.87909317016602
0, 4, 11, 37.23369216918945
0, 4, 12, 45.45256042480469
0, 4, 13, 51.99864959716797
0, 4, 14, 52.46795654296875
0, 4, 15, 59.7039909362793
0, 4, 16, 74.81746673583984
0, 4, 17, 115.4068984985352
0, 4, 18, 443.0639953613281
0, 4, 19, 1182.314575195312
0, 4, 20, 1444.255493164062
0, 4, 21, 1416.769775390625
0, 4, 22, 1433.93115234375
0, 4, 23, 1457.053955078125
0, 4, 24, 1470.506469726562
0, 4, 25, 1400.191284179688
0, 4, 26, 1535.151977539062
0, 4, 27, 1550.2314453125
0, 4, 28, 1514.385620117188
0, 4, 29, 1516.453369140625
0, 4, 30, 1522.917358398438
0, 4, 31, 1569.10107421875
0, 4, 32, 1518.013793945312
0, 4, 33, 1492.6181640625
0, 4, 34, 1464.719482421875
0, 4, 35, 1558.518798828125
0, 4, 36, 1498.358520507812
0, 4, 37, 1511.061767578125
0, 4, 38, 1531.864990234375
0, 4, 39, 1470.801391601562
0, 4, 40, 1511.495239257812
0, 4, 41, 1583.139892578125
0, 4, 42, 1563.633056640625
0, 4, 43, 1475.989501953125
0, 4, 44, 1498.148559570312
0, 4, 45, 1518.798706054688
0, 4, 46, 1465.353149414062
0, 4, 47, 1501.89453125
0, 4, 48, 1528.574340820312
0, 4, 49, 1469.581665039062
0, 4, 50, 1521.116943359375
0, 4, 51, 1488.179565429688
0, 4, 52, 1494.733032226562
0, 4, 53, 1459.912719726562
0, 4, 54, 1443.60888671875
0, 4, 55, 1525.385009765625
0, 4, 56, 1461.317504882812
0, 4, 57, 1494.86376953125
0, 4, 58, 1457.344848632812
0, 4, 59, 1463.583862304688
0, 4, 60, 1530.573974609375
0, 4, 61, 1499.052490234375
0, 4, 62, 1507.802978515625
0, 4, 63, 1554.555541992188
0, 4, 64, 1587.778076171875
0, 4, 65, 1430.079223632812
0, 4, 66, 1512.84521484375
0, 4, 67, 1524.078247070312
0, 4, 68, 1493.918212890625
0, 4, 69, 1463.717041015625
0, 4, 70, 1541.827392578125
0, 4, 71, 1519.223999023438
0, 4, 72, 1529.306640625
0, 4, 73, 1496.634765625
0, 4, 74, 1485.238403320312
0, 4, 75, 1536.505981445312
0, 4, 76, 1479.910400390625
0, 4, 77, 1504.76904296875
0, 4, 78, 1504.574584960938
0, 4, 79, 1491.436645507812
0, 4, 80, 1518.800903320312
0, 4, 81, 1523.795288085938
0, 4, 82, 1563.844116210938
0, 4, 83, 1498.294799804688
0, 4, 84, 1537.754150390625
0, 4, 85, 1547.321533203125
0, 4, 86, 1525.9501953125
0, 4, 87, 1494.562622070312
0, 4, 88, 1515.078857421875
0, 4, 89, 1480.521240234375
0, 4, 90, 1546.972045898438
0, 4, 91, 1552.329833984375
0, 4, 92, 1492.593017578125
0, 4, 93, 1516.361328125
0, 4, 94, 1488.979370117188
0, 4, 95, 1510.0732421875
0, 4, 96, 1441.944458007812
0, 4, 97, 1410.040893554688
0, 4, 98, 1549.374755859375
0, 4, 99, 1510.160766601562
0, 4, 100, 1490.6484375
0, 4, 101, 1451.726684570312
0, 4, 102, 1443.226684570312
0, 4, 103, 1517.00830078125
0, 4, 104, 1507.137084960938
0, 4, 105, 1551.549072265625
0, 4, 106, 1476.951904296875
0, 4, 107, 1457.916870117188
0, 4, 108, 1120.782958984375
0, 4, 109, 434.1356811523438
0, 4, 110, 98.29517364501953
0, 4, 111, 70.42538452148438
0, 4, 112, 64.13111877441406
0, 4, 113, 48.47558975219727
0, 4, 114, 50.48078536987305
0, 4, 115, 48.28128433227539
0, 4, 116, 35.79435729980469
0, 4, 117, 41.69897842407227
0, 4, 118, 42.40376281738281
0, 4, 119, 37.00539779663086
0, 4, 120, 32.89249038696289
0, 4, 121, 29.0864372253418
0, 4, 122, 32.07559585571289
0, 4, 123, 28.03921127319336
0, 4, 124, 19.35224151611328
0, 4, 125, 30.31242179870605
0, 4, 126, 18.98935508728027
0, 4, 127, 22.00465774536133
0, 5, 0, 23.46393013000488
0, 5, 1, 25.62268257141113
0, 5, 2, 27.49405670166016
0, 5, 3, 26.17037010192871
0, 5, 4, 15.99836540222168
0, 5, 5, 36.60671234130859
0, 5, 6, 30.92566108703613
0, 5, 7, 32.76936721801758
0, 5, 8, 31.13467979431152
0, 5, 9, 32.33800888061523
0, 5, 10, 34.9125862121582
0, 5, 11, 38.1595458984375
0, 5, 12, 39.00256729125977
0, 5, 13, 47.28893280029297
0, 5, 14, 66.33724975585938
0, 5, 15, 77.21256256103516
0, 5, 16, 84.11903381347656
0, 5, 17, 154.9152526855469
0, 5, 18, 673.1554565429688
0, 5, 19, 1346.064453125
0, 5, 20, 1525.03271484375
0, 5, 21, 1491.329956054688
0, 5, 22, 1494.328735351562
0, 5, 23, 1527.558959960938
0, 5, 24, 1466.4794921875
0, 5, 25, 1429.93017578125
0, 5, 26, 1526.697631835938
0, 5, 27, 1536.331909179688
0, 5, 28, 1482.667602539062
0, 5, 29, 1523.356689453125
0, 5, 30, 1495.837158203125
0, 5, 31, 1499.887573242188
0, 5, 32, 1596.370971679688
0, 5, 33, 1501.309448242188
0, 5, 34, 1489.739990234375
0, 5, 35, 1517.493530273438
0, 5, 36, 1445.170654296875
0, 5, 37, 1526.447875976562
0, 5, 38, 1546.097045898438
0, 5, 39, 1547.768676757812
0, 5, 40, 1502.567626953125
0, 5, 41, 1480.621948242188
0, 5, 42, 1542.8798828125
0, 5, 43, 1532.3310546875
0, 5, 44, 1539.920654296875
0, 5, 45, 1512.874633789062
0, 5, 46, 1489.648803710938
0, 5, 47, 1484.861572265625
0, 5, 48, 1504.869995117188
0, 5, 49, 1520.984619140625
0, 5, 50, 1504.618530273438
0, 5, 51, 1517.280517578125
0, 5, 52, 1431.200561523438
0, 5, 53, 1523.537231445312
0, 5, 54, 1519.246948242188
0, 5, 55, 1524.093505859375
0, 5, 56, 1492.14404296875
0, 5, 57, 1538.831298828125
0, 5, 58, 1510.078247070312
0, 5, 59, 1491.016967773438
0, 5, 60, 1536.97216796875
0, 5, 61, 1456.744262695312
0, 5, 62, 1584.558471679688
0, 5, 63, 1437.079833984375
0, 5, 64, 1489.004638671875
0, 5, 65, 1466.978393554688
0, 5, 66, 1523.7919921875
0, 5, 67, 1562.896850585938
0, 5, 68, 1457.006591796875
0, 5, 69, 1481.636474609375
0, 5, 70, 1485.439331054688
0, 5, 71, 1473.261962890625
0, 5, 72, 1536.979858398438
0, 5, 73, 1460.452270507812
0, 5, 74, 1498.703247070312
0, 5, 75, 1492.831176757812
0, 5, 76, 1475.441040039062
0, 5, 77, 1517.168823242188
0, 5, 78, 1521.846313476562
0, 5, 79, 1508.859741210938
0, 5, 80, 1521.058959960938
0, 5, 81, 1589.671875
0, 5, 82, 1523.1259765625
0, 5, 83, 1494.19384765625
0, 5, 84, 1533.253540039062
0, 5, 85, 1518.358032226562
0, 5, 86, 1553.362426757812
0, 5, 87, 1477.944091796875
0, 5, 88, 1495.881225585938
0, 5, 89, 1482.1162109375
0, 5, 90, 1486.484252929688
0, 5, 91, 1550.991943359375
0, 5, 92, 1483.4501953125
0, 5, 93, 1558.421508789062
0, 5, 94, 1514.100952148438
0, 5, 95, 1564.152709960938
0, 5, 96, 1501.646850585938
0, 5, 97, 1507.72021484375
0, 5, 98, 1509.021850585938
0, 5, 99, 1540.992431640625
0, 5, 100, 1436.452270507812
0, 5, 101, 1424.956420898438
0, 5, 102, 1512.477172851562
0, 5, 103, 1474.671264648438
0, 5, 104, 1462.400634765625
0, 5, 105, 1488.734497070312
0, 5, 106, 1459.003662109375
0, 5, 107, 1401.582397460938
0, 5, 108, 1292.086547851562
0, 5, 109, 718.9398193359375
0, 5, 110, 194.5425262451172
0, 5, 111, 91.34883880615234
0, 5, 112, 83.68004608154297
0, 5, 113, 61.89188766479492
0, 5, 114, 60.45064163208008
0, 5, 115, 50.39154052734375
0, 5, 116, 46.37091827392578
0, 5, 117, 34.30904006958008
0, 5, 118, 44.27396011352539
0, 5, 119, 25.86777305603027
0, 5, 120, 25.91880989074707
0, 5, 121, 22.04953384399414
0, 5, 122, 31.38042449951172
0, 5, 123, 24.48625373840332
0, 5, 124, 24.8127326965332
0, 5, 125, 26.15414428710938
0, 5, 126, 20.52527809143066
0, 5, 127, 23.15320587158203
0, 6, 0, 23.21382141113281
0, 6, 1, 29.40469932556152
0, 6, 2, 34.48891067504883
0, 6, 3, 26.90061187744141
0, 6, 4, 25.67364692687988
0, 6, 5, 33.51008224487305
0, 6, 6, 33.71231460571289
0, 6, 7, 34.45395278930664
0, 6, 8, 31.44681549072266
0, 6, 9, 34.28702545166016
0, 6, 10, 35.73483657836914
0, 6, 11, 41.90068054199219
0, 6, 12, 41.08138275146484
0, 6, 13, 53.70503616333008
0, 6, 14, 68.82582855224609
0, 6, 15, 85.19561004638672
0, 6, 16, 112.7315902709961
0, 6, 17, 296.3880920410156
0, 6, 18, 901.3007202148438
0, 6, 19, 1377.301147460938
0, 6, 20, 1435.253662109375
0, 6, 21, 1534.953369140625
0, 6, 22, 1502.951049804688
0, 6, 23, 1528.767700195312
0, 6, 24, 1478.646240234375
0, 6, 25, 1526.022827148438
0, 6, 26, 1518.135986328125
0, 6, 27, 1523.254028320312
0, 6, 28, 1553.633422851562
0, 6, 29, 1577.231079101562
0, 6, 30, 1511.894653320312
0, 6, 31, 1491.80859375
0, 6, 32, 1523.0634765625
0, 6, 33, 1489.818115234375
0, 6, 34, 1564.642822265625
0, 6, 35, 1501.837524414062
0, 6, 36, 1439.302124023438
0, 6, 37, 1548.788452148438
0, 6, 38, 1528.0869140625
0, 6, 39, 1525.927978515625
0, 6, 40, 1461.30322265625
0, 6, 41, 1443.957275390625
0, 6, 42, 1519.480590820312
0, 6, 43, 1485.60595703125
0, 6, 44, 1431.461791992188
0, 6, 45, 1542.718994140625
0, 6, 46, 1556.986083984375
0, 6, 47, 1497.845458984375
0, 6, 48, 1525.37255859375
0, 6, 49, 1508.09619140625
0, 6, 50, 1573.665283203125
0, 6, 51, 1500.015747070312
0, 6, 52, 1561.362060546875
0, 6, 53, 1473.056030273438
0, 6, 54, 1499.337158203125
0, 6, 55, 1571.126342773438
0, 6, 56, 1522.4189453125
0, 6, 57, 1501.391235351562
0, 6, 58, 1464.765747070312
0, 6, 59, 1518.173583984375
0, 6, 60, 1465.407958984375
0, 6, 61, 1573.107299804688
0, 6, 62, 1544.569213867188
0, 6, 63, 1504.171020507812
0, 6, 64, 1411.122924804688
0, 6, 65, 1491.959350585938
0, 6, 66, 1511.402099609375
0, 6, 67, 1512.968872070312
0, 6, 68, 1543.277099609375
0, 6, 69, 1490.21826171875
0, 6, 70, 1520.856079101562
0, 6, 71, 1469.054443359375
0, 6, 72, 1595.614990234375
0, 6, 73, 1484.299560546875
0, 6, 74, 1563.333251953125
0, 6, 75, 1534.318725585938
0, 6, 76, 1565.94482421875
0, 6, 77, 1506.5263671875
0, 6, 78, 1441.530029296875
0, 6, 79, 1553.05615234375
0, 6, 80, 1482.979858398438
0, 6, 81, 1483.669799804688
0, 6, 82, 1506.148681640625
0, 6, 83, 1522.912231445312
0, 6, 84, 1518.406982421875
0, 6, 85, 1537.87841796875
0, 6, 86, 1541.095458984375
0, 6, 87, 1574.914306640625
0, 6, 88, 1480.372314453125
0, 6, 89, 1567.757690429688
0, 6, 90, 1492.214111328125
0, 6, 91, 1547.94970703125
0, 6, 92, 1483.413208007812
0, 6, 93, 1498.009033203125
0, 6, 94, 1467.953247070312
0, 6, 95, 1506.716430664062
0, 6, 96, 1517.110595703125
0, 6, 97, 1508.007202148438
0, 6, 98, 1494.243286132812
0, 6, 99, 1477.716430664062
0, 6, 100, 1522.945922851562
0, 6, 101, 1516.021118164062
0, 6, 102, 1542.396728515625
0, 6, 103, 1500.860107421875
0, 6, 104, 1466.267944335938
0, 6, 105, 1486.700805664062
0, 6, 106, 1498.12451171875
0, 6, 107, 1499.853759765625
0, 6, 108, 1406.325805664062
0, 6, 109, 923.6618041992188
0, 6, 110, 281.8190612792969
0, 6, 111, 91.59751892089844
0, 6, 112, 77.27717590332031
0, 6, 113, 59.17470550537109
0, 6, 114, 55.68193817138672
0, 6, 115, 43.5833625793457
0, 6, 116, 43.76136016845703
0, 6, 117, 35.94814682006836
0, 6, 118, 37.54885864257812
0, 6, 119, 34.82101058959961
0, 6, 120, 33.90243530273438
0, 6, 121, 30.86571502685547
0, 6, 122, 29.68022727966309
0, 6, 123, 30.10573196411133
0, 6, 124, 30.02609252929688
0, 6, 125, 29.73341369628906
0, 6, 126, 22.50064468383789
0, 6, 127, 19.63171577453613
0, 7, 0, 20.56399536132812
0, 7, 1, 27.46569061279297
0, 7, 2, 21.70571708679199
0, 7, 3, 28.27502632141113
0, 7, 4, 23.93012046813965
0, 7, 5, 48.10708236694336
0, 7, 6, 34.00218963623047
0, 7, 7, 36.22990036010742
0, 7, 8, 24.72489166259766
0, 7, 9, 39.13613510131836
0, 7, 10, 44.2644157409668
0, 7, 11, 57.40598297119141
0, 7, 12, 46.46395874023438
0, 7, 13, 47.71789932250977
0, 7, 14, 63.99557495117188
0, 7, 15, 79.28840637207031
0, 7, 16, 133.8164520263672
0, 7, 17, 456.5802307128906
0, 7, 18, 1099.5546875
0, 7, 19, 1500.053588867188
0, 7, 20, 1480.594848632812
0, 7, 21, 1368.015014648438
0, 7, 22, 1486.386840820312
0, 7, 23, 1452.1962890625
0, 7, 24, 1511.651489257812
0, 7, 25, 1589.854858398438
0, 7, 26, 1517.025512695312
0, 7, 27, 1509.197875976562
0, 7, 28, 1547.933715820312
0, 7, 29, 1582.510131835938
0, 7, 30, 1549.972412109375
0, 7, 31, 1437.9892578125
0, 7, 32, 1544.342407226562
0, 7, 33, 1499.613159179688
0, 7, 34, 1485.312622070312
0, 7, 35, 1519.536987304688
0, 7, 36, 1475.951904296875
0, 7, 37, 1598.367431640625
0, 7, 38, 1508.677490234375
0, 7, 39, 1493.187133789062
0, 7, 40, 1544.670166015625
0, 7, 41, 1464.320556640625
0, 7, 42, 1486.559204101562
0, 7, 43, 1439.537475585938
0, 7, 44, 1490.599731445312
0, 7, 45, 1469.612915039062
0, 7, 46, 1512.03955078125
0, 7, 47, 1562.011840820312
0, 7, 48, 1520.224853515625
0, 7, 49, 1543.829833984375
0, 7, 50, 1511.890380859375
0, 7, 51, 1499.702270507812
0, 7, 52, 1513.957397460938
0, 7, 53, 1498.070678710938
0, 7, 54, 1590.706787109375
0, 7, 55, 1469.51318359375
0, 7, 56, 1551.933471679688
0, 7, 57, 1517.996826171875
0, 7, 58, 1549.71533203125
0, 7, 59, 1542.333374023438
0, 7, 60, 1547.267333984375
0, 7, 61, 1487.424194335938
0, 7, 62, 1430.919677734375
0, 7, 63, 1511.01171875
0, 7, 64, 1548.673950195312
0, 7, 65, 1524.328491210938
0, 7, 66, 1536.515502929688
0, 7, 67, 1579.67822265625
0, 7, 68, 1533.498046875
0, 7, 69, 1518.414916992188
0, 7, 70, 1499.755737304688
0, 7, 71, 1523.073974609375
0, 7, 72, 1519.567016601562
0, 7, 73, 1517.46435546875
0, 7, 74, 1574.385986328125
0, 7, 75, 1539.071655273438
0, 7, 76, 1558.422607421875
0, 7, 77, 1514.7099609375
0, 7, 78, 1505.770629882812
0, 7, 79, 1421.811157226562
0, 7, 80, 1490.920654296875
0, 7, 81, 1497.506469726562
0, 7, 82, 1532.93359375
0, 7, 83, 1545.1396484375
0, 7, 84, 1583.087890625
0, 7, 85, 1472.682861328125
0, 7, 86, 1501.801879882812
0, 7, 87, 1503.082275390625
0, 7, 88, 1503.161743164062
0, 7, 89, 1550.586303710938
0, 7, 90, 1523.423583984375
0, 7, 91, 1563.370727539062
0, 7, 92, 1528.557861328125
0, 7, 93, 1553.396362304688
0, 7, 94, 1537.147827148438
0, 7, 95, 1508.1376953125
0, 7, 96, 1506.696166992188
0, 7, 97, 1432.145874023438
0, 7, 98, 1486.222412109375
0, 7, 99, 1524.106079101562
0, 7, 100, 1424.255981445312
0, 7, 101, 1464.815795898438
0, 7, 102, 1448.935546875
0, 7, 103, 1431.799682617188
0, 7, 104, 1495.133422851562
0, 7, 105, 1525.099731445312
0, 7, 106, 1568.574584960938
0, 7, 107, 1480.697265625
0, 7, 108, 1409.235473632812
0, 7, 109, 1144.802368164062
0, 7, 110, 475.4010009765625
0, 7, 111, 127.0527725219727
0, 7, 112, 79.04421997070312
0, 7, 113, 69.40913391113281
0, 7, 114, 58.47773742675781
0, 7, 115, 49.76976013183594
0, 7, 116, 47.5686149597168
0, 7, 117, 46.19834136962891
0, 7, 118, 40.46722793579102
0, 7, 119, 30.56819152832031
0, 7, 120, 24.77174758911133
0, 7, 121, 34.73721313476562
0, 7, 122, 33.93716430664062
0, 7, 123, 38.02547454833984
0, 7, 124, 27.97271537780762
0, 7, 125, 20.45726776123047
0, 7, 126, 35.18818664550781
0, 7, 127, 24.93918609619141
0, 8, 0, 21.24967765808105
0, 8, 1, 22.84478378295898
0, 8, 2, 24.00776100158691
0, 8, 3, 26.7901496887207
0, 8, 4, 25.46221923828125
0, 8, 5, 34.54023742675781
0, 8, 6, 28.39376449584961
0, 8, 7, 29.14144515991211
0, 8, 8, 34.27510452270508
0, 8, 9, 48.39038467407227
0, 8, 10, 42.33444595336914
0, 8, 11, 39.82522964477539
0, 8, 12, 52.47690582275391
0, 8, 13, 69.97457885742188
0, 8, 14, 70.10399627685547
0, 8, 15, 84.43316650390625
0, 8, 16, 173.0925140380859
0, 8, 17, 677.504638671875
0, 8, 18, 1278.656005859375
0, 8, 19, 1441.503784179688
0, 8, 20, 1420.906982421875
0, 8, 21, 1409.9775390625
0, 8, 22, 1483.383178710938
0, 8, 23, 1482.245483398438
0, 8, 24, 1439.728637695312
0, 8, 25, 1460.317626953125
0, 8, 26, 1516.122924804688
0, 8, 27, 1522.919189453125
0, 8, 28, 1479.3359375
0, 8, 29, 1503.403198242188
0, 8, 30, 1494.162719726562
0, 8, 31, 1539.030029296875
0, 8, 32, 1511.092163085938
0, 8, 33, 1482.999389648438
0, 8, 34, 1532.78955078125
0, 8, 35, 1439.46533203125
0, 8, 36, 1502.96044921875
0, 8, 37, 1550.85595703125
0, 8, 38, 1552.46435546875
0, 8, 39, 1495.170166015625
0, 8, 40, 1533.261962890625
0, 8, 41, 1487.712524414062
0, 8, 42, 1541.883422851562
0, 8, 43, 1431.831298828125
0, 8, 44, 1534.213256835938
0, 8, 45, 1510.638793945312
