# TOPAS Version: 3.1.p3
# Parameter File: batch_inserts_164.txt
# Results for scorer Readout_Adipose
# Scored in component: MyBox
# X in 1 bin  of 0.75 cm
# Y in 512 bins of 0.0783984 cm
# Z in 128 bins of 0.078125 cm
# EnergyDeposit ( MeV ) : Sum   
0, 0, 0, 7.20683765411377
0, 0, 1, 2.602377414703369
0, 0, 2, 2.86008095741272
0, 0, 3, 1.652328014373779
0, 0, 4, 4.739883422851562
0, 0, 5, 2.019943714141846
0, 0, 6, 8.824440002441406
0, 0, 7, 8.597752571105957
0, 0, 8, 2.51119589805603
0, 0, 9, 5.400536060333252
0, 0, 10, 6.264350891113281
0, 0, 11, 4.555455684661865
0, 0, 12, 4.403173923492432
0, 0, 13, 5.186824798583984
0, 0, 14, 7.421832084655762
0, 0, 15, 10.5098819732666
0, 0, 16, 9.303882598876953
0, 0, 17, 10.1522970199585
0, 0, 18, 13.36471080780029
0, 0, 19, 42.6965217590332
0, 0, 20, 138.2323608398438
0, 0, 21, 222.6665649414062
0, 0, 22, 247.705810546875
0, 0, 23, 256.6319885253906
0, 0, 24, 251.0627136230469
0, 0, 25, 259.6286315917969
0, 0, 26, 233.6114654541016
0, 0, 27, 237.3698425292969
0, 0, 28, 271.2115478515625
0, 0, 29, 251.4284057617188
0, 0, 30, 228.6787719726562
0, 0, 31, 243.3001861572266
0, 0, 32, 264.5491638183594
0, 0, 33, 262.4391784667969
0, 0, 34, 291.7115173339844
0, 0, 35, 268.4617614746094
0, 0, 36, 247.7321319580078
0, 0, 37, 253.6034393310547
0, 0, 38, 268.9320068359375
0, 0, 39, 228.7512969970703
0, 0, 40, 241.7318267822266
0, 0, 41, 265.5506896972656
0, 0, 42, 228.7069549560547
0, 0, 43, 259.8529968261719
0, 0, 44, 252.373291015625
0, 0, 45, 253.3934173583984
0, 0, 46, 245.2975006103516
0, 0, 47, 254.4583892822266
0, 0, 48, 266.8751220703125
0, 0, 49, 274.3103332519531
0, 0, 50, 250.6310577392578
0, 0, 51, 255.0763397216797
0, 0, 52, 272.06787109375
0, 0, 53, 291.6448364257812
0, 0, 54, 241.6918792724609
0, 0, 55, 240.6790924072266
0, 0, 56, 278.59716796875
0, 0, 57, 264.5516967773438
0, 0, 58, 245.9891662597656
0, 0, 59, 269.3981628417969
0, 0, 60, 235.5157318115234
0, 0, 61, 244.9741516113281
0, 0, 62, 258.2993469238281
0, 0, 63, 269.4015808105469
0, 0, 64, 256.628662109375
0, 0, 65, 262.0496215820312
0, 0, 66, 276.9246826171875
0, 0, 67, 245.5184631347656
0, 0, 68, 259.119140625
0, 0, 69, 261.0674438476562
0, 0, 70, 271.3372192382812
0, 0, 71, 237.4665679931641
0, 0, 72, 250.0369262695312
0, 0, 73, 259.76318359375
0, 0, 74, 249.9858245849609
0, 0, 75, 240.8302917480469
0, 0, 76, 229.6071472167969
0, 0, 77, 258.9341430664062
0, 0, 78, 258.0824890136719
0, 0, 79, 278.0722961425781
0, 0, 80, 215.5736083984375
0, 0, 81, 266.4873962402344
0, 0, 82, 259.0763854980469
0, 0, 83, 246.6118774414062
0, 0, 84, 270.003662109375
0, 0, 85, 232.7201690673828
0, 0, 86, 252.5953826904297
0, 0, 87, 252.444091796875
0, 0, 88, 259.9073791503906
0, 0, 89, 282.1697998046875
0, 0, 90, 243.2457122802734
0, 0, 91, 281.7695922851562
0, 0, 92, 253.2716217041016
0, 0, 93, 249.8782196044922
0, 0, 94, 248.0399017333984
0, 0, 95, 249.2704620361328
0, 0, 96, 274.8451843261719
0, 0, 97, 272.6950073242188
0, 0, 98, 272.2443237304688
0, 0, 99, 258.1415100097656
0, 0, 100, 257.56396484375
0, 0, 101, 226.536865234375
0, 0, 102, 233.0724792480469
0, 0, 103, 269.3008117675781
0, 0, 104, 254.0081329345703
0, 0, 105, 252.4504699707031
0, 0, 106, 246.9688262939453
0, 0, 107, 151.2392272949219
0, 0, 108, 37.42971038818359
0, 0, 109, 11.38855648040771
0, 0, 110, 13.03794097900391
0, 0, 111, 8.840042114257812
0, 0, 112, 7.43004322052002
0, 0, 113, 6.729910373687744
0, 0, 114, 8.618797302246094
0, 0, 115, 3.618921756744385
0, 0, 116, 6.571822643280029
0, 0, 117, 6.333559513092041
0, 0, 118, 5.654236793518066
0, 0, 119, 4.726592540740967
0, 0, 120, 3.07349705696106
0, 0, 121, 3.27386736869812
0, 0, 122, 3.632453918457031
0, 0, 123, 2.801409959793091
0, 0, 124, 5.757415771484375
0, 0, 125, 3.19243311882019
0, 0, 126, 5.486629009246826
0, 0, 127, 2.105959415435791
0, 1, 0, 7.814906120300293
0, 1, 1, 1.879297733306885
0, 1, 2, 4.486151695251465
0, 1, 3, 1.836701631546021
0, 1, 4, 2.320103883743286
0, 1, 5, 4.624051094055176
0, 1, 6, 5.075211524963379
0, 1, 7, 7.759205341339111
0, 1, 8, 7.690780162811279
0, 1, 9, 3.31110954284668
0, 1, 10, 7.88683557510376
0, 1, 11, 13.55617809295654
0, 1, 12, 8.011595726013184
0, 1, 13, 10.99042510986328
0, 1, 14, 7.050584316253662
0, 1, 15, 8.83750057220459
0, 1, 16, 13.25598335266113
0, 1, 17, 10.22710609436035
0, 1, 18, 20.25665664672852
0, 1, 19, 66.82510375976562
0, 1, 20, 202.7335357666016
0, 1, 21, 254.0564117431641
0, 1, 22, 297.3098754882812
0, 1, 23, 282.9192504882812
0, 1, 24, 275.8677062988281
0, 1, 25, 289.7602233886719
0, 1, 26, 270.6541442871094
0, 1, 27, 306.1528015136719
0, 1, 28, 298.0828247070312
0, 1, 29, 296.6363525390625
0, 1, 30, 280.861328125
0, 1, 31, 292.0314331054688
0, 1, 32, 291.7047729492188
0, 1, 33, 295.9338684082031
0, 1, 34, 291.765869140625
0, 1, 35, 279.0923156738281
0, 1, 36, 306.5131530761719
0, 1, 37, 294.8244934082031
0, 1, 38, 281.7083129882812
0, 1, 39, 295.0657043457031
0, 1, 40, 265.6735229492188
0, 1, 41, 291.294677734375
0, 1, 42, 290.4816284179688
0, 1, 43, 331.1746215820312
0, 1, 44, 277.9263305664062
0, 1, 45, 293.026611328125
0, 1, 46, 259.832275390625
0, 1, 47, 309.618896484375
0, 1, 48, 283.6225280761719
0, 1, 49, 302.1600646972656
0, 1, 50, 262.8518371582031
0, 1, 51, 272.6086730957031
0, 1, 52, 299.5809020996094
0, 1, 53, 303.4110412597656
0, 1, 54, 274.1514587402344
0, 1, 55, 293.969970703125
0, 1, 56, 279.7503051757812
0, 1, 57, 299.7613220214844
0, 1, 58, 309.6311340332031
0, 1, 59, 294.7225646972656
0, 1, 60, 296.9567565917969
0, 1, 61, 274.4473266601562
0, 1, 62, 309.9961242675781
0, 1, 63, 285.1297912597656
0, 1, 64, 289.5095520019531
0, 1, 65, 295.2907409667969
0, 1, 66, 292.0083923339844
0, 1, 67, 291.48095703125
0, 1, 68, 277.3985900878906
0, 1, 69, 280.7859802246094
0, 1, 70, 271.7958984375
0, 1, 71, 274.6615600585938
0, 1, 72, 286.169677734375
0, 1, 73, 303.0105285644531
0, 1, 74, 303.6138610839844
0, 1, 75, 293.9107666015625
0, 1, 76, 286.7172241210938
0, 1, 77, 290.5430908203125
0, 1, 78, 294.9805297851562
0, 1, 79, 300.1950073242188
0, 1, 80, 296.3007507324219
0, 1, 81, 299.7999877929688
0, 1, 82, 284.7669677734375
0, 1, 83, 331.2483825683594
0, 1, 84, 308.8698120117188
0, 1, 85, 253.4597778320312
0, 1, 86, 296.191650390625
0, 1, 87, 290.0570373535156
0, 1, 88, 298.2194519042969
0, 1, 89, 293.49462890625
0, 1, 90, 271.0395812988281
0, 1, 91, 317.7464904785156
0, 1, 92, 290.1482543945312
0, 1, 93, 286.7242126464844
0, 1, 94, 302.80078125
0, 1, 95, 285.2499084472656
0, 1, 96, 282.7778015136719
0, 1, 97, 301.9534912109375
0, 1, 98, 278.1859130859375
0, 1, 99, 268.0009155273438
0, 1, 100, 276.9905090332031
0, 1, 101, 280.9139099121094
0, 1, 102, 278.8951416015625
0, 1, 103, 281.107177734375
0, 1, 104, 307.2503051757812
0, 1, 105, 297.9551086425781
0, 1, 106, 260.6617736816406
0, 1, 107, 192.4801635742188
0, 1, 108, 81.67916870117188
0, 1, 109, 22.76373863220215
0, 1, 110, 12.38826942443848
0, 1, 111, 8.236516952514648
0, 1, 112, 13.15161418914795
0, 1, 113, 5.952815532684326
0, 1, 114, 6.48145055770874
0, 1, 115, 8.369259834289551
0, 1, 116, 11.0866231918335
0, 1, 117, 5.151141166687012
0, 1, 118, 4.663230419158936
0, 1, 119, 4.94346809387207
0, 1, 120, 3.940104722976685
0, 1, 121, 3.745679140090942
0, 1, 122, 2.040610551834106
0, 1, 123, 3.646220684051514
0, 1, 124, 6.486134052276611
0, 1, 125, 4.056848526000977
0, 1, 126, 2.040552139282227
0, 1, 127, 1.553832292556763
0, 2, 0, 3.862967729568481
0, 2, 1, 1.733513236045837
0, 2, 2, 4.15719747543335
0, 2, 3, 3.870708227157593
0, 2, 4, 2.206799507141113
0, 2, 5, 1.850203514099121
0, 2, 6, 2.527962684631348
0, 2, 7, 3.493827819824219
0, 2, 8, 5.955113410949707
0, 2, 9, 5.716822147369385
0, 2, 10, 7.605417251586914
0, 2, 11, 5.90395450592041
0, 2, 12, 6.87529182434082
0, 2, 13, 9.859611511230469
0, 2, 14, 9.3594970703125
0, 2, 15, 8.342134475708008
0, 2, 16, 8.581198692321777
0, 2, 17, 15.905029296875
0, 2, 18, 29.70092010498047
0, 2, 19, 114.5181274414062
0, 2, 20, 248.7087554931641
0, 2, 21, 270.5624389648438
0, 2, 22, 317.0627746582031
0, 2, 23, 300.4365539550781
0, 2, 24, 286.7399291992188
0, 2, 25, 303.1820983886719
0, 2, 26, 293.4523620605469
0, 2, 27, 276.9619140625
0, 2, 28, 272.9954833984375
0, 2, 29, 276.4294128417969
0, 2, 30, 288.465576171875
0, 2, 31, 277.675048828125
0, 2, 32, 295.1231689453125
0, 2, 33, 283.4295349121094
0, 2, 34, 331.4430541992188
0, 2, 35, 289.3746643066406
0, 2, 36, 302.9163818359375
0, 2, 37, 315.0591735839844
0, 2, 38, 314.3591613769531
0, 2, 39, 264.8385925292969
0, 2, 40, 308.339111328125
0, 2, 41, 293.3191833496094
0, 2, 42, 303.7463073730469
0, 2, 43, 312.2477416992188
0, 2, 44, 313.0114135742188
0, 2, 45, 327.3706359863281
0, 2, 46, 287.2900085449219
0, 2, 47, 304.3256225585938
0, 2, 48, 282.2391967773438
0, 2, 49, 278.4169616699219
0, 2, 50, 294.3911437988281
0, 2, 51, 285.4728393554688
0, 2, 52, 273.4089965820312
0, 2, 53, 285.8791809082031
0, 2, 54, 279.2878112792969
0, 2, 55, 275.7996520996094
0, 2, 56, 301.2053527832031
0, 2, 57, 291.7334289550781
0, 2, 58, 303.656005859375
0, 2, 59, 293.4933776855469
0, 2, 60, 322.3316040039062
0, 2, 61, 301.6507263183594
0, 2, 62, 314.94873046875
0, 2, 63, 304.3626403808594
0, 2, 64, 295.6776428222656
0, 2, 65, 311.34521484375
0, 2, 66, 279.1789245605469
0, 2, 67, 291.5483093261719
0, 2, 68, 295.879638671875
0, 2, 69, 309.9401550292969
0, 2, 70, 333.1190185546875
0, 2, 71, 282.6879272460938
0, 2, 72, 299.8352355957031
0, 2, 73, 311.126708984375
0, 2, 74, 288.3629455566406
0, 2, 75, 305.675048828125
0, 2, 76, 288.070556640625
0, 2, 77, 298.8919067382812
0, 2, 78, 319.4413757324219
0, 2, 79, 307.8053588867188
0, 2, 80, 298.5136413574219
0, 2, 81, 283.2874755859375
0, 2, 82, 318.9009094238281
0, 2, 83, 314.6631164550781
0, 2, 84, 287.0897521972656
0, 2, 85, 282.5386657714844
0, 2, 86, 324.4000854492188
0, 2, 87, 287.3163452148438
0, 2, 88, 282.2378540039062
0, 2, 89, 295.8387145996094
0, 2, 90, 296.4888610839844
0, 2, 91, 274.8194580078125
0, 2, 92, 305.13671875
0, 2, 93, 318.8763427734375
0, 2, 94, 292.3007507324219
0, 2, 95, 314.5230407714844
0, 2, 96, 316.5555419921875
0, 2, 97, 292.4955444335938
0, 2, 98, 292.782470703125
0, 2, 99, 274.7725524902344
0, 2, 100, 305.2819519042969
0, 2, 101, 301.0902404785156
0, 2, 102, 295.7977294921875
0, 2, 103, 293.5995178222656
0, 2, 104, 292.6332092285156
0, 2, 105, 273.3446350097656
0, 2, 106, 297.9409790039062
0, 2, 107, 268.5817260742188
0, 2, 108, 115.9676895141602
0, 2, 109, 32.83283996582031
0, 2, 110, 9.61518669128418
0, 2, 111, 12.91037464141846
0, 2, 112, 10.65440940856934
0, 2, 113, 9.124281883239746
0, 2, 114, 9.709573745727539
0, 2, 115, 10.73778057098389
0, 2, 116, 9.616426467895508
0, 2, 117, 9.920656204223633
0, 2, 118, 4.529854297637939
0, 2, 119, 2.602343797683716
0, 2, 120, 7.220164775848389
0, 2, 121, 1.510322093963623
0, 2, 122, 4.240795612335205
0, 2, 123, 4.226372718811035
0, 2, 124, 2.28921365737915
0, 2, 125, 6.054037094116211
0, 2, 126, 4.636285781860352
0, 2, 127, 6.56992244720459
0, 3, 0, 2.378236055374146
0, 3, 1, 2.938104629516602
0, 3, 2, 4.047138214111328
0, 3, 3, 3.152944326400757
0, 3, 4, 3.88263726234436
0, 3, 5, 8.38918399810791
0, 3, 6, 6.114440441131592
0, 3, 7, 5.109555244445801
0, 3, 8, 4.733287811279297
0, 3, 9, 7.707620620727539
0, 3, 10, 7.311277866363525
0, 3, 11, 4.34678840637207
0, 3, 12, 8.180968284606934
0, 3, 13, 15.04476928710938
0, 3, 14, 11.23962211608887
0, 3, 15, 12.47037792205811
0, 3, 16, 11.74395179748535
0, 3, 17, 21.54258728027344
0, 3, 18, 54.41070175170898
0, 3, 19, 174.95166015625
0, 3, 20, 270.8191223144531
0, 3, 21, 269.6310119628906
0, 3, 22, 284.1739501953125
0, 3, 23, 287.2713928222656
0, 3, 24, 286.7372436523438
0, 3, 25, 269.2208862304688
0, 3, 26, 303.2367553710938
0, 3, 27, 292.1539306640625
0, 3, 28, 279.9071350097656
0, 3, 29, 339.2805786132812
0, 3, 30, 315.6598205566406
0, 3, 31, 288.0857543945312
0, 3, 32, 306.4913024902344
0, 3, 33, 315.0950317382812
0, 3, 34, 320.6784973144531
0, 3, 35, 305.8815307617188
0, 3, 36, 267.9528198242188
0, 3, 37, 313.96484375
0, 3, 38, 304.1871948242188
0, 3, 39, 290.5176696777344
0, 3, 40, 267.0464782714844
0, 3, 41, 302.1733703613281
0, 3, 42, 284.7727966308594
0, 3, 43, 308.593994140625
0, 3, 44, 310.4325256347656
0, 3, 45, 290.4167175292969
0, 3, 46, 331.2795104980469
0, 3, 47, 301.6906433105469
0, 3, 48, 303.6301574707031
0, 3, 49, 279.0766906738281
0, 3, 50, 290.9549865722656
0, 3, 51, 275.4303283691406
0, 3, 52, 314.5325012207031
0, 3, 53, 286.443603515625
0, 3, 54, 284.9326171875
0, 3, 55, 285.6427307128906
0, 3, 56, 297.4064331054688
0, 3, 57, 289.45068359375
0, 3, 58, 307.3517456054688
0, 3, 59, 293.2600402832031
0, 3, 60, 297.1968688964844
0, 3, 61, 265.2732238769531
0, 3, 62, 283.3522033691406
0, 3, 63, 308.9381408691406
0, 3, 64, 316.0725402832031
0, 3, 65, 303.8922424316406
0, 3, 66, 314.2926635742188
0, 3, 67, 317.7380981445312
0, 3, 68, 278.8715209960938
0, 3, 69, 280.1790466308594
0, 3, 70, 287.8877868652344
0, 3, 71, 300.698486328125
0, 3, 72, 268.2832336425781
0, 3, 73, 309.0956726074219
0, 3, 74, 292.3804626464844
0, 3, 75, 289.8214721679688
0, 3, 76, 305.1944580078125
0, 3, 77, 313.4533386230469
0, 3, 78, 304.8469848632812
0, 3, 79, 283.7323913574219
0, 3, 80, 289.9878540039062
0, 3, 81, 310.2998962402344
0, 3, 82, 315.1628112792969
0, 3, 83, 301.4540100097656
0, 3, 84, 310.8887634277344
0, 3, 85, 293.1627807617188
0, 3, 86, 301.5920104980469
0, 3, 87, 300.64404296875
0, 3, 88, 296.8798217773438
0, 3, 89, 296.1278991699219
0, 3, 90, 277.099365234375
0, 3, 91, 284.4983825683594
0, 3, 92, 304.30419921875
0, 3, 93, 312.9265441894531
0, 3, 94, 298.565673828125
0, 3, 95, 332.5486145019531
0, 3, 96, 289.455078125
0, 3, 97, 286.129638671875
0, 3, 98, 277.8187561035156
0, 3, 99, 261.1734008789062
0, 3, 100, 286.1786499023438
0, 3, 101, 298.1065673828125
0, 3, 102, 274.6366577148438
0, 3, 103, 321.5101623535156
0, 3, 104, 309.4289245605469
0, 3, 105, 287.389404296875
0, 3, 106, 302.0637817382812
0, 3, 107, 285.9918823242188
0, 3, 108, 167.0215759277344
0, 3, 109, 55.34513854980469
0, 3, 110, 16.85479545593262
0, 3, 111, 12.8681812286377
0, 3, 112, 13.56681060791016
0, 3, 113, 6.768285751342773
0, 3, 114, 9.025891304016113
0, 3, 115, 6.620004653930664
0, 3, 116, 7.295489311218262
0, 3, 117, 10.9586124420166
0, 3, 118, 8.011370658874512
0, 3, 119, 4.213433265686035
0, 3, 120, 6.870733737945557
0, 3, 121, 1.779535293579102
0, 3, 122, 1.894052267074585
0, 3, 123, 5.160964965820312
0, 3, 124, 6.70832633972168
0, 3, 125, 5.63702917098999
0, 3, 126, 4.560046672821045
0, 3, 127, 4.244771957397461
0, 4, 0, 3.911145448684692
0, 4, 1, 4.349723815917969
0, 4, 2, 2.411842584609985
0, 4, 3, 2.279590845108032
0, 4, 4, 5.331429481506348
0, 4, 5, 7.911107540130615
0, 4, 6, 5.766730308532715
0, 4, 7, 5.102643489837646
0, 4, 8, 4.571093559265137
0, 4, 9, 6.071934700012207
0, 4, 10, 7.032053470611572
0, 4, 11, 7.039391040802002
0, 4, 12, 5.33551025390625
0, 4, 13, 8.000441551208496
0, 4, 14, 12.69562435150146
0, 4, 15, 10.32159519195557
0, 4, 16, 13.26441764831543
0, 4, 17, 20.34297180175781
0, 4, 18, 93.34989929199219
0, 4, 19, 222.8570404052734
0, 4, 20, 284.1476745605469
0, 4, 21, 272.3898315429688
0, 4, 22, 304.5199584960938
0, 4, 23, 271.0579528808594
0, 4, 24, 288.2701416015625
0, 4, 25, 272.319091796875
0, 4, 26, 295.4119262695312
0, 4, 27, 282.3870849609375
0, 4, 28, 305.8745422363281
0, 4, 29, 322.3037414550781
0, 4, 30, 309.4596557617188
0, 4, 31, 304.1188049316406
0, 4, 32, 283.0252685546875
0, 4, 33, 296.2652587890625
0, 4, 34, 297.1549682617188
0, 4, 35, 311.5573425292969
0, 4, 36, 293.1219482421875
0, 4, 37, 288.3810729980469
0, 4, 38, 299.2240295410156
0, 4, 39, 292.9789733886719
0, 4, 40, 300.7559509277344
0, 4, 41, 310.8269653320312
0, 4, 42, 328.715576171875
0, 4, 43, 296.4323120117188
0, 4, 44, 321.3824462890625
0, 4, 45, 324.2143249511719
0, 4, 46, 305.7556457519531
0, 4, 47, 293.7110595703125
0, 4, 48, 294.6817016601562
0, 4, 49, 277.6033020019531
0, 4, 50, 296.1618957519531
0, 4, 51, 315.3439025878906
0, 4, 52, 327.1007995605469
0, 4, 53, 303.7041625976562
0, 4, 54, 290.9540710449219
0, 4, 55, 314.3002624511719
0, 4, 56, 286.0945739746094
0, 4, 57, 309.8632507324219
0, 4, 58, 295.68408203125
0, 4, 59, 308.947265625
0, 4, 60, 301.1040649414062
0, 4, 61, 316.1222839355469
0, 4, 62, 306.4079284667969
0, 4, 63, 298.9620361328125
0, 4, 64, 330.0672912597656
0, 4, 65, 318.8500671386719
0, 4, 66, 293.2467651367188
0, 4, 67, 285.9825134277344
0, 4, 68, 311.3487548828125
0, 4, 69, 275.4242248535156
0, 4, 70, 298.88720703125
0, 4, 71, 320.1308898925781
0, 4, 72, 332.3961181640625
0, 4, 73, 298.8991088867188
0, 4, 74, 292.3555908203125
0, 4, 75, 288.99951171875
0, 4, 76, 273.780029296875
0, 4, 77, 279.9696044921875
0, 4, 78, 307.2510070800781
0, 4, 79, 318.3135070800781
0, 4, 80, 315.1116638183594
0, 4, 81, 314.8138732910156
0, 4, 82, 296.6941223144531
0, 4, 83, 301.2256164550781
0, 4, 84, 290.9121398925781
0, 4, 85, 295.5864562988281
0, 4, 86, 297.7068176269531
0, 4, 87, 284.0531921386719
0, 4, 88, 305.08544921875
0, 4, 89, 295.962158203125
0, 4, 90, 333.3189392089844
0, 4, 91, 300.4222106933594
0, 4, 92, 289.6972045898438
0, 4, 93, 297.3255920410156
0, 4, 94, 293.5707702636719
0, 4, 95, 288.7057495117188
0, 4, 96, 323.1168518066406
0, 4, 97, 275.203125
0, 4, 98, 327.4569702148438
0, 4, 99, 314.0576477050781
0, 4, 100, 300.5179443359375
0, 4, 101, 260.2022705078125
0, 4, 102, 296.4725036621094
0, 4, 103, 316.6310119628906
0, 4, 104, 281.3889770507812
0, 4, 105, 310.6190490722656
0, 4, 106, 287.0859680175781
0, 4, 107, 294.4732055664062
0, 4, 108, 227.4785003662109
0, 4, 109, 79.27608489990234
0, 4, 110, 17.11659240722656
0, 4, 111, 13.70696258544922
0, 4, 112, 7.619612216949463
0, 4, 113, 10.67961502075195
0, 4, 114, 8.166590690612793
0, 4, 115, 10.55294799804688
0, 4, 116, 7.846820831298828
0, 4, 117, 6.781185626983643
0, 4, 118, 8.140336990356445
0, 4, 119, 9.996438026428223
0, 4, 120, 7.890420913696289
0, 4, 121, 7.877144813537598
0, 4, 122, 3.149755716323853
0, 4, 123, 6.380919456481934
0, 4, 124, 5.586807727813721
0, 4, 125, 9.890356063842773
0, 4, 126, 4.250592231750488
0, 4, 127, 4.756008148193359
0, 5, 0, 3.608637094497681
0, 5, 1, 3.404462099075317
0, 5, 2, 5.196035385131836
0, 5, 3, 4.981635093688965
0, 5, 4, 4.406289577484131
0, 5, 5, 6.989292621612549
0, 5, 6, 5.972774505615234
0, 5, 7, 4.281053066253662
0, 5, 8, 4.010439395904541
0, 5, 9, 4.222276210784912
0, 5, 10, 6.259031295776367
0, 5, 11, 8.344398498535156
0, 5, 12, 7.714209079742432
0, 5, 13, 4.632067680358887
0, 5, 14, 11.97864437103271
0, 5, 15, 17.75913429260254
0, 5, 16, 15.79569244384766
0, 5, 17, 29.93426895141602
0, 5, 18, 137.8517913818359
0, 5, 19, 286.2165222167969
0, 5, 20, 308.1563415527344
0, 5, 21, 320.1042175292969
0, 5, 22, 278.2982788085938
0, 5, 23, 312.7160034179688
0, 5, 24, 301.9251403808594
0, 5, 25, 290.483154296875
0, 5, 26, 293.9396667480469
0, 5, 27, 321.6376647949219
0, 5, 28, 303.6593322753906
0, 5, 29, 296.9197692871094
0, 5, 30, 324.0141906738281
0, 5, 31, 284.908447265625
0, 5, 32, 302.6934814453125
0, 5, 33, 305.0982055664062
0, 5, 34, 296.3126525878906
0, 5, 35, 311.1224670410156
0, 5, 36, 272.9483032226562
0, 5, 37, 283.3357238769531
0, 5, 38, 291.6777648925781
0, 5, 39, 312.7720031738281
0, 5, 40, 308.6210021972656
0, 5, 41, 272.3375854492188
0, 5, 42, 304.4821166992188
0, 5, 43, 313.3565063476562
0, 5, 44, 292.9672241210938
0, 5, 45, 300.7625427246094
0, 5, 46, 267.031982421875
0, 5, 47, 279.7991943359375
0, 5, 48, 295.1608581542969
0, 5, 49, 286.8349304199219
0, 5, 50, 295.8384094238281
0, 5, 51, 280.2072448730469
0, 5, 52, 268.2403259277344
0, 5, 53, 283.455078125
0, 5, 54, 291.8920593261719
0, 5, 55, 343.4469604492188
0, 5, 56, 305.5088806152344
0, 5, 57, 306.3113403320312
0, 5, 58, 312.7393493652344
0, 5, 59, 303.840087890625
0, 5, 60, 308.3919677734375
0, 5, 61, 282.5621948242188
0, 5, 62, 322.8705444335938
0, 5, 63, 291.3724365234375
0, 5, 64, 323.4750366210938
0, 5, 65, 307.8815002441406
0, 5, 66, 327.1419982910156
0, 5, 67, 311.7431945800781
0, 5, 68, 309.1251525878906
0, 5, 69, 313.489501953125
0, 5, 70, 302.8588256835938
0, 5, 71, 271.1088562011719
0, 5, 72, 310.1476745605469
0, 5, 73, 304.4112854003906
0, 5, 74, 294.6788940429688
0, 5, 75, 293.5687866210938
0, 5, 76, 283.9067993164062
0, 5, 77, 296.888427734375
0, 5, 78, 318.6091613769531
0, 5, 79, 306.0652160644531
0, 5, 80, 295.65478515625
0, 5, 81, 325.9934997558594
0, 5, 82, 323.6567077636719
0, 5, 83, 279.994140625
0, 5, 84, 301.4637145996094
0, 5, 85, 271.3263244628906
0, 5, 86, 326.9145812988281
0, 5, 87, 284.2558898925781
0, 5, 88, 312.9552917480469
0, 5, 89, 304.8667297363281
0, 5, 90, 315.3474731445312
0, 5, 91, 315.2384948730469
0, 5, 92, 296.8263549804688
0, 5, 93, 323.3030395507812
0, 5, 94, 308.08837890625
0, 5, 95, 297.36865234375
0, 5, 96, 296.1397399902344
0, 5, 97, 295.1563110351562
0, 5, 98, 319.8727722167969
0, 5, 99, 300.8691711425781
0, 5, 100, 292.4290466308594
0, 5, 101, 304.3618774414062
0, 5, 102, 292.18701171875
0, 5, 103, 313.4091186523438
0, 5, 104, 301.3729858398438
0, 5, 105, 291.8486938476562
0, 5, 106, 281.5615539550781
0, 5, 107, 292.0016174316406
0, 5, 108, 267.7594299316406
0, 5, 109, 157.2462158203125
0, 5, 110, 39.42269134521484
0, 5, 111, 20.48798942565918
0, 5, 112, 15.79195976257324
0, 5, 113, 14.12050724029541
0, 5, 114, 13.33092498779297
0, 5, 115, 6.981070518493652
0, 5, 116, 6.620208263397217
0, 5, 117, 6.891977310180664
0, 5, 118, 11.06872749328613
0, 5, 119, 3.659310817718506
0, 5, 120, 6.501883506774902
0, 5, 121, 3.834951877593994
0, 5, 122, 5.356096267700195
0, 5, 123, 6.229957580566406
0, 5, 124, 6.480570316314697
0, 5, 125, 3.418642997741699
0, 5, 126, 5.698200702667236
0, 5, 127, 1.804627180099487
0, 6, 0, 3.42678165435791
0, 6, 1, 3.173298835754395
0, 6, 2, 5.550220966339111
0, 6, 3, 7.557399749755859
0, 6, 4, 3.594402551651001
0, 6, 5, 5.981657028198242
0, 6, 6, 8.035229682922363
0, 6, 7, 4.93642520904541
0, 6, 8, 6.169301509857178
0, 6, 9, 5.839311122894287
0, 6, 10, 6.414403915405273
0, 6, 11, 7.909877777099609
0, 6, 12, 9.550695419311523
0, 6, 13, 11.43857288360596
0, 6, 14, 8.600287437438965
0, 6, 15, 17.90177536010742
0, 6, 16, 29.69467735290527
0, 6, 17, 54.89868927001953
0, 6, 18, 171.8864898681641
0, 6, 19, 275.6109008789062
0, 6, 20, 290.68115234375
0, 6, 21, 313.6437072753906
0, 6, 22, 319.0513305664062
0, 6, 23, 305.2565612792969
0, 6, 24, 315.2853088378906
0, 6, 25, 316.0336303710938
0, 6, 26, 321.4085083007812
0, 6, 27, 330.8421325683594
0, 6, 28, 295.4110717773438
0, 6, 29, 329.6479187011719
0, 6, 30, 279.6533203125
0, 6, 31, 288.0494079589844
0, 6, 32, 340.131103515625
0, 6, 33, 301.2314758300781
0, 6, 34, 339.37060546875
0, 6, 35, 320.1842956542969
0, 6, 36, 274.29248046875
0, 6, 37, 289.7293395996094
0, 6, 38, 313.2073974609375
0, 6, 39, 299.8362121582031
0, 6, 40, 285.01513671875
0, 6, 41, 296.0368957519531
0, 6, 42, 304.5400085449219
0, 6, 43, 288.1573181152344
0, 6, 44, 280.6014404296875
0, 6, 45, 320.4509887695312
0, 6, 46, 300.1891174316406
0, 6, 47, 333.0384826660156
0, 6, 48, 292.5276489257812
0, 6, 49, 312.3843383789062
0, 6, 50, 328.9458618164062
0, 6, 51, 309.839111328125
0, 6, 52, 319.9727172851562
0, 6, 53, 328.0952453613281
0, 6, 54, 302.8919982910156
0, 6, 55, 306.9954223632812
0, 6, 56, 293.2602233886719
0, 6, 57, 313.704833984375
0, 6, 58, 261.2969665527344
0, 6, 59, 304.4476623535156
0, 6, 60, 312.1821899414062
0, 6, 61, 272.6333923339844
0, 6, 62, 335.1157531738281
0, 6, 63, 321.4799194335938
0, 6, 64, 292.4390258789062
0, 6, 65, 283.0650329589844
0, 6, 66, 304.298828125
0, 6, 67, 309.0173034667969
0, 6, 68, 297.4395141601562
0, 6, 69, 278.519775390625
0, 6, 70, 276.0492248535156
0, 6, 71, 289.3276977539062
0, 6, 72, 310.6415710449219
0, 6, 73, 292.0426635742188
0, 6, 74, 330.6329345703125
0, 6, 75, 342.7346801757812
0, 6, 76, 297.3130187988281
0, 6, 77, 286.3056945800781
0, 6, 78, 276.2608032226562
0, 6, 79, 293.3319396972656
0, 6, 80, 298.1768493652344
0, 6, 81, 313.6799926757812
0, 6, 82, 319.2894897460938
0, 6, 83, 320.5799255371094
0, 6, 84, 295.0774841308594
0, 6, 85, 300.4567260742188
0, 6, 86, 331.070556640625
0, 6, 87, 290.4656677246094
0, 6, 88, 307.5819396972656
0, 6, 89, 305.068359375
0, 6, 90, 301.0441589355469
0, 6, 91, 313.9629821777344
0, 6, 92, 287.0804443359375
0, 6, 93, 296.3630981445312
0, 6, 94, 272.8039245605469
0, 6, 95, 300.9477844238281
0, 6, 96, 349.5361938476562
0, 6, 97, 309.2063293457031
0, 6, 98, 302.2663269042969
0, 6, 99, 272.2344970703125
0, 6, 100, 310.8272399902344
0, 6, 101, 292.852783203125
0, 6, 102, 308.6343688964844
0, 6, 103, 306.8110046386719
0, 6, 104, 292.7902526855469
0, 6, 105, 300.6947937011719
0, 6, 106, 307.6322631835938
0, 6, 107, 304.5054016113281
0, 6, 108, 267.571533203125
0, 6, 109, 186.8729705810547
0, 6, 110, 54.83769989013672
0, 6, 111, 21.30673789978027
0, 6, 112, 12.68397998809814
0, 6, 113, 10.45644664764404
0, 6, 114, 11.61703491210938
0, 6, 115, 11.9103946685791
0, 6, 116, 11.097731590271
0, 6, 117, 7.560608386993408
0, 6, 118, 9.075118064880371
0, 6, 119, 13.18929767608643
0, 6, 120, 6.114936351776123
0, 6, 121, 6.668182849884033
0, 6, 122, 7.1782546043396
0, 6, 123, 5.500730991363525
0, 6, 124, 6.881464004516602
0, 6, 125, 8.207070350646973
0, 6, 126, 4.925302505493164
0, 6, 127, 8.831462860107422
0, 7, 0, 4.800989627838135
0, 7, 1, 4.132902145385742
0, 7, 2, 6.215268135070801
0, 7, 3, 3.895805835723877
0, 7, 4, 3.197104692459106
0, 7, 5, 3.951613664627075
0, 7, 6, 6.820547580718994
0, 7, 7, 4.009995937347412
0, 7, 8, 5.37846565246582
0, 7, 9, 8.025443077087402
0, 7, 10, 10.31700134277344
0, 7, 11, 16.52115058898926
0, 7, 12, 11.83017730712891
0, 7, 13, 13.14674377441406
0, 7, 14, 11.53639984130859
0, 7, 15, 18.06511688232422
0, 7, 16, 25.51542854309082
0, 7, 17, 98.54749298095703
0, 7, 18, 220.4302215576172
0, 7, 19, 290.2286376953125
0, 7, 20, 298.23486328125
0, 7, 21, 278.1424255371094
0, 7, 22, 299.6781311035156
0, 7, 23, 288.0044555664062
0, 7, 24, 314.0513305664062
0, 7, 25, 326.2135009765625
0, 7, 26, 278.6061096191406
0, 7, 27, 297.3474731445312
0, 7, 28, 326.4211120605469
0, 7, 29, 321.1235656738281
0, 7, 30, 303.5231323242188
0, 7, 31, 279.7608642578125
0, 7, 32, 304.8293762207031
0, 7, 33, 259.5563659667969
0, 7, 34, 297.2632141113281
0, 7, 35, 318.6080627441406
0, 7, 36, 332.9307556152344
0, 7, 37, 322.9975280761719
0, 7, 38, 295.6598205566406
0, 7, 39, 306.8655700683594
0, 7, 40, 290.8138732910156
0, 7, 41, 269.4501647949219
0, 7, 42, 302.052001953125
0, 7, 43, 275.298583984375
0, 7, 44, 306.5317993164062
0, 7, 45, 295.0221862792969
0, 7, 46, 281.5963439941406
0, 7, 47, 327.1195373535156
0, 7, 48, 286.3919067382812
0, 7, 49, 302.8450012207031
0, 7, 50, 321.4255676269531
0, 7, 51, 299.093505859375
0, 7, 52, 326.3901672363281
0, 7, 53, 309.3122863769531
0, 7, 54, 322.6796569824219
0, 7, 55, 306.4188537597656
0, 7, 56, 280.4668273925781
0, 7, 57, 283.2249145507812
0, 7, 58, 297.13134765625
0, 7, 59, 291.8320007324219
0, 7, 60, 321.4311828613281
0, 7, 61, 279.2259826660156
0, 7, 62, 299.2357482910156
0, 7, 63, 292.80810546875
0, 7, 64, 306.2505187988281
0, 7, 65, 329.679443359375
0, 7, 66, 321.0351257324219
0, 7, 67, 302.3408813476562
0, 7, 68, 279.2632446289062
0, 7, 69, 295.6654663085938
0, 7, 70, 300.9645385742188
0, 7, 71, 309.712646484375
0, 7, 72, 283.6637573242188
0, 7, 73, 295.421142578125
0, 7, 74, 344.3791198730469
0, 7, 75, 320.5598754882812
0, 7, 76, 324.1024169921875
0, 7, 77, 281.8055114746094
0, 7, 78, 299.4518127441406
0, 7, 79, 297.05224609375
0, 7, 80, 311.8429260253906
0, 7, 81, 321.4337158203125
0, 7, 82, 330.7389221191406
0, 7, 83, 317.7559814453125
0, 7, 84, 310.1956787109375
0, 7, 85, 272.1343688964844
0, 7, 86, 308.9144287109375
0, 7, 87, 309.0115661621094
0, 7, 88, 307.151123046875
0, 7, 89, 293.0205688476562
0, 7, 90, 308.9503784179688
0, 7, 91, 314.4868774414062
0, 7, 92, 288.2757873535156
0, 7, 93, 307.8062744140625
0, 7, 94, 272.7292175292969
0, 7, 95, 296.0364074707031
0, 7, 96, 330.9111633300781
0, 7, 97, 294.260009765625
0, 7, 98, 289.8967895507812
0, 7, 99, 313.0675964355469
0, 7, 100, 281.2362060546875
0, 7, 101, 273.9851379394531
0, 7, 102, 289.9032592773438
0, 7, 103, 292.2702331542969
0, 7, 104, 274.2225952148438
0, 7, 105, 306.444580078125
0, 7, 106, 318.5628051757812
0, 7, 107, 298.5260620117188
0, 7, 108, 272.9446716308594
0, 7, 109, 237.9857330322266
0, 7, 110, 97.71366119384766
0, 7, 111, 24.05230712890625
0, 7, 112, 14.4263162612915
0, 7, 113, 14.94320869445801
0, 7, 114, 12.97825622558594
0, 7, 115, 13.6917200088501
0, 7, 116, 8.590410232543945
0, 7, 117, 5.525769710540771
0, 7, 118, 9.262946128845215
0, 7, 119, 4.552038669586182
0, 7, 120, 6.413760662078857
0, 7, 121, 7.99627685546875
0, 7, 122, 6.713553905487061
0, 7, 123, 3.70943808555603
0, 7, 124, 3.542535543441772
0, 7, 125, 7.587852954864502
0, 7, 126, 9.247632026672363
0, 7, 127, 4.028598308563232
0, 8, 0, 6.461102485656738
0, 8, 1, 4.244783878326416
0, 8, 2, 2.329767465591431
0, 8, 3, 3.0895836353302
0, 8, 4, 4.729324817657471
0, 8, 5, 3.965447664260864
0, 8, 6, 5.219996929168701
0, 8, 7, 5.638005256652832
0, 8, 8, 8.955864906311035
0, 8, 9, 5.504989147186279
0, 8, 10, 9.546906471252441
0, 8, 11, 13.27764987945557
0, 8, 12, 13.0203161239624
0, 8, 13, 14.65398788452148
0, 8, 14, 11.77933120727539
0, 8, 15, 18.40644454956055
0, 8, 16, 32.59812164306641
0, 8, 17, 130.5260772705078
0, 8, 18, 242.5126037597656
0, 8, 19, 297.0570678710938
0, 8, 20, 285.6215515136719
0, 8, 21, 305.89990234375
0, 8, 22, 294.3910522460938
0, 8, 23, 275.0658264160156
0, 8, 24, 268.8032836914062
0, 8, 25, 275.1969604492188
0, 8, 26, 306.4344177246094
0, 8, 27, 305.9668884277344
0, 8, 28, 304.0362854003906
0, 8, 29, 317.7245483398438
0, 8, 30, 312.6050109863281
0, 8, 31, 304.6259460449219
0, 8, 32, 281.8468017578125
0, 8, 33, 295.0640869140625
0, 8, 34, 289.4303894042969
0, 8, 35, 282.8547668457031
0, 8, 36, 316.2298583984375
0, 8, 37, 339.3481750488281
0, 8, 38, 330.74462890625
0, 8, 39, 280.8094177246094
0, 8, 40, 304.7745361328125
