# TOPAS Version: 3.1.p3
# Parameter File: batch_inserts_324.txt
# Results for scorer Readout_Adipose
# Scored in component: MyBox
# X in 1 bin  of 0.75 cm
# Y in 512 bins of 0.0783984 cm
# Z in 128 bins of 0.078125 cm
# EnergyDeposit ( MeV ) : Sum   
0, 0, 0, 2.696396827697754
0, 0, 1, 1.7126225233078
0, 0, 2, 3.783165216445923
0, 0, 3, 1.81396472454071
0, 0, 4, 3.108763456344604
0, 0, 5, 2.841328620910645
0, 0, 6, 7.143264293670654
0, 0, 7, 9.613252639770508
0, 0, 8, 2.880603075027466
0, 0, 9, 6.32968807220459
0, 0, 10, 7.460248470306396
0, 0, 11, 5.605306625366211
0, 0, 12, 4.189404010772705
0, 0, 13, 6.468039512634277
0, 0, 14, 7.695302486419678
0, 0, 15, 10.65620136260986
0, 0, 16, 8.995033264160156
0, 0, 17, 7.338911533355713
0, 0, 18, 13.3585147857666
0, 0, 19, 41.95538330078125
0, 0, 20, 140.5096282958984
0, 0, 21, 223.7726440429688
0, 0, 22, 248.7161254882812
0, 0, 23, 258.8286743164062
0, 0, 24, 252.2467041015625
0, 0, 25, 262.7079162597656
0, 0, 26, 234.0954895019531
0, 0, 27, 238.5238342285156
0, 0, 28, 272.6070251464844
0, 0, 29, 252.3612213134766
0, 0, 30, 231.6471710205078
0, 0, 31, 247.5626220703125
0, 0, 32, 265.3171081542969
0, 0, 33, 260.1676330566406
0, 0, 34, 288.1907653808594
0, 0, 35, 266.0495910644531
0, 0, 36, 246.2590789794922
0, 0, 37, 252.1538848876953
0, 0, 38, 267.9652099609375
0, 0, 39, 230.2472534179688
0, 0, 40, 242.4785461425781
0, 0, 41, 268.1177673339844
0, 0, 42, 228.8007659912109
0, 0, 43, 261.6385498046875
0, 0, 44, 251.9032897949219
0, 0, 45, 252.9928131103516
0, 0, 46, 245.2512817382812
0, 0, 47, 251.5622711181641
0, 0, 48, 268.007568359375
0, 0, 49, 276.2659912109375
0, 0, 50, 252.0162200927734
0, 0, 51, 254.5093383789062
0, 0, 52, 272.9505920410156
0, 0, 53, 291.4074401855469
0, 0, 54, 242.6576080322266
0, 0, 55, 241.4303283691406
0, 0, 56, 276.4239501953125
0, 0, 57, 265.2770690917969
0, 0, 58, 247.1878662109375
0, 0, 59, 270.1437377929688
0, 0, 60, 233.6863098144531
0, 0, 61, 245.8040924072266
0, 0, 62, 257.9457702636719
0, 0, 63, 266.1358947753906
0, 0, 64, 255.5436859130859
0, 0, 65, 260.5286865234375
0, 0, 66, 277.0846252441406
0, 0, 67, 245.8598480224609
0, 0, 68, 259.4166870117188
0, 0, 69, 263.7006530761719
0, 0, 70, 271.6152648925781
0, 0, 71, 237.3349609375
0, 0, 72, 251.5571136474609
0, 0, 73, 259.2476196289062
0, 0, 74, 251.4039459228516
0, 0, 75, 239.6897583007812
0, 0, 76, 228.2865600585938
0, 0, 77, 260.1874694824219
0, 0, 78, 256.7138366699219
0, 0, 79, 280.7539978027344
0, 0, 80, 215.8158264160156
0, 0, 81, 266.0018005371094
0, 0, 82, 256.0865173339844
0, 0, 83, 245.9875640869141
0, 0, 84, 270.4879455566406
0, 0, 85, 231.1129760742188
0, 0, 86, 255.7440032958984
0, 0, 87, 250.5339508056641
0, 0, 88, 260.5883178710938
0, 0, 89, 282.9579162597656
0, 0, 90, 244.8522338867188
0, 0, 91, 280.1291198730469
0, 0, 92, 252.4512481689453
0, 0, 93, 249.2747192382812
0, 0, 94, 247.6803894042969
0, 0, 95, 247.3009490966797
0, 0, 96, 275.7187805175781
0, 0, 97, 272.6624145507812
0, 0, 98, 274.8538818359375
0, 0, 99, 259.2337036132812
0, 0, 100, 258.5201416015625
0, 0, 101, 226.4527893066406
0, 0, 102, 230.9299468994141
0, 0, 103, 271.3427734375
0, 0, 104, 253.9016265869141
0, 0, 105, 251.4551696777344
0, 0, 106, 247.9488983154297
0, 0, 107, 151.9215850830078
0, 0, 108, 38.21066665649414
0, 0, 109, 11.62765789031982
0, 0, 110, 12.5570592880249
0, 0, 111, 9.51496410369873
0, 0, 112, 7.006576061248779
0, 0, 113, 5.277538299560547
0, 0, 114, 6.967526912689209
0, 0, 115, 4.69119930267334
0, 0, 116, 6.454290390014648
0, 0, 117, 8.584775924682617
0, 0, 118, 6.858582973480225
0, 0, 119, 6.924761295318604
0, 0, 120, 5.512620449066162
0, 0, 121, 2.462762832641602
0, 0, 122, 5.773751735687256
0, 0, 123, 2.315015554428101
0, 0, 124, 5.064369201660156
0, 0, 125, 1.395142316818237
0, 0, 126, 4.051261425018311
0, 0, 127, 2.707699060440063
0, 1, 0, 6.941361904144287
0, 1, 1, 3.391336679458618
0, 1, 2, 6.441093921661377
0, 1, 3, 4.577611923217773
0, 1, 4, 2.530976533889771
0, 1, 5, 2.336677312850952
0, 1, 6, 3.971699237823486
0, 1, 7, 3.742377042770386
0, 1, 8, 7.299091339111328
0, 1, 9, 3.264928817749023
0, 1, 10, 7.054810523986816
0, 1, 11, 10.84474563598633
0, 1, 12, 8.425189018249512
0, 1, 13, 9.898568153381348
0, 1, 14, 7.176265239715576
0, 1, 15, 6.947358131408691
0, 1, 16, 11.22171401977539
0, 1, 17, 12.11922740936279
0, 1, 18, 21.59312438964844
0, 1, 19, 65.58205413818359
0, 1, 20, 197.6701049804688
0, 1, 21, 254.41943359375
0, 1, 22, 297.7001953125
0, 1, 23, 283.4901428222656
0, 1, 24, 274.2025146484375
0, 1, 25, 287.3163452148438
0, 1, 26, 267.7066345214844
0, 1, 27, 304.7472534179688
0, 1, 28, 301.7570495605469
0, 1, 29, 299.0976257324219
0, 1, 30, 280.8202209472656
0, 1, 31, 290.5948181152344
0, 1, 32, 290.0773620605469
0, 1, 33, 294.9881286621094
0, 1, 34, 293.2330627441406
0, 1, 35, 281.5393676757812
0, 1, 36, 306.3666076660156
0, 1, 37, 298.6437377929688
0, 1, 38, 278.826904296875
0, 1, 39, 297.6018676757812
0, 1, 40, 266.7480163574219
0, 1, 41, 286.6908569335938
0, 1, 42, 292.1262817382812
0, 1, 43, 332.6784973144531
0, 1, 44, 278.3666076660156
0, 1, 45, 291.7812194824219
0, 1, 46, 259.5908508300781
0, 1, 47, 313.1778869628906
0, 1, 48, 282.8344116210938
0, 1, 49, 303.231689453125
0, 1, 50, 263.7344055175781
0, 1, 51, 271.7844848632812
0, 1, 52, 295.5000915527344
0, 1, 53, 305.8224182128906
0, 1, 54, 274.3454284667969
0, 1, 55, 293.0661926269531
0, 1, 56, 277.0177612304688
0, 1, 57, 299.3482360839844
0, 1, 58, 308.4117736816406
0, 1, 59, 290.9588928222656
0, 1, 60, 299.3635559082031
0, 1, 61, 275.3021850585938
0, 1, 62, 309.9101257324219
0, 1, 63, 290.9933776855469
0, 1, 64, 291.8592529296875
0, 1, 65, 295.9154663085938
0, 1, 66, 292.6905212402344
0, 1, 67, 291.239013671875
0, 1, 68, 277.0499267578125
0, 1, 69, 280.0286865234375
0, 1, 70, 273.697021484375
0, 1, 71, 274.3619384765625
0, 1, 72, 284.8062133789062
0, 1, 73, 305.2572937011719
0, 1, 74, 304.8224182128906
0, 1, 75, 290.5917663574219
0, 1, 76, 285.9317932128906
0, 1, 77, 291.7344665527344
0, 1, 78, 296.3207397460938
0, 1, 79, 301.7464599609375
0, 1, 80, 298.0735473632812
0, 1, 81, 300.7692260742188
0, 1, 82, 282.521728515625
0, 1, 83, 330.8521728515625
0, 1, 84, 308.7261657714844
0, 1, 85, 254.3468017578125
0, 1, 86, 294.303955078125
0, 1, 87, 290.4529724121094
0, 1, 88, 298.0306091308594
0, 1, 89, 290.3882141113281
0, 1, 90, 269.9686584472656
0, 1, 91, 317.5687561035156
0, 1, 92, 292.8059387207031
0, 1, 93, 287.5590515136719
0, 1, 94, 302.6998901367188
0, 1, 95, 284.401123046875
0, 1, 96, 283.9455871582031
0, 1, 97, 302.0613403320312
0, 1, 98, 279.1328125
0, 1, 99, 266.2442626953125
0, 1, 100, 275.6416015625
0, 1, 101, 282.2331848144531
0, 1, 102, 279.31396484375
0, 1, 103, 280.690673828125
0, 1, 104, 305.8886108398438
0, 1, 105, 299.7551879882812
0, 1, 106, 262.8442687988281
0, 1, 107, 192.9039459228516
0, 1, 108, 80.68093109130859
0, 1, 109, 22.92183876037598
0, 1, 110, 10.86718845367432
0, 1, 111, 8.948118209838867
0, 1, 112, 12.54709815979004
0, 1, 113, 4.84633731842041
0, 1, 114, 5.844683647155762
0, 1, 115, 7.355633735656738
0, 1, 116, 11.36627292633057
0, 1, 117, 5.37097692489624
0, 1, 118, 5.486941814422607
0, 1, 119, 4.932364940643311
0, 1, 120, 6.378653526306152
0, 1, 121, 4.555824279785156
0, 1, 122, 2.402525901794434
0, 1, 123, 5.587221622467041
0, 1, 124, 9.955232620239258
0, 1, 125, 3.514168739318848
0, 1, 126, 2.936498165130615
0, 1, 127, 2.933806419372559
0, 2, 0, 5.737992763519287
0, 2, 1, 1.52920937538147
0, 2, 2, 5.571978092193604
0, 2, 3, 4.536399841308594
0, 2, 4, 4.020393371582031
0, 2, 5, 1.098235130310059
0, 2, 6, 3.664425611495972
0, 2, 7, 4.122181415557861
0, 2, 8, 4.768441677093506
0, 2, 9, 7.482542037963867
0, 2, 10, 8.979804039001465
0, 2, 11, 5.609102725982666
0, 2, 12, 5.922921180725098
0, 2, 13, 9.930238723754883
0, 2, 14, 10.74707412719727
0, 2, 15, 7.115182876586914
0, 2, 16, 9.739718437194824
0, 2, 17, 16.34222030639648
0, 2, 18, 31.51085662841797
0, 2, 19, 119.9813079833984
0, 2, 20, 249.0699157714844
0, 2, 21, 272.7324523925781
0, 2, 22, 314.9896545410156
0, 2, 23, 299.9783630371094
0, 2, 24, 287.4806518554688
0, 2, 25, 304.2218017578125
0, 2, 26, 292.0805969238281
0, 2, 27, 275.9061889648438
0, 2, 28, 272.9527282714844
0, 2, 29, 272.61669921875
0, 2, 30, 291.2141418457031
0, 2, 31, 277.8113098144531
0, 2, 32, 295.2669982910156
0, 2, 33, 282.5309448242188
0, 2, 34, 330.3434753417969
0, 2, 35, 289.4246826171875
0, 2, 36, 303.3128356933594
0, 2, 37, 317.6466369628906
0, 2, 38, 310.641357421875
0, 2, 39, 266.6075439453125
0, 2, 40, 308.9547729492188
0, 2, 41, 292.3593139648438
0, 2, 42, 302.1772155761719
0, 2, 43, 312.2892150878906
0, 2, 44, 310.3587341308594
0, 2, 45, 325.0917358398438
0, 2, 46, 287.9919128417969
0, 2, 47, 304.1383056640625
0, 2, 48, 281.0096130371094
0, 2, 49, 277.4983520507812
0, 2, 50, 293.6419982910156
0, 2, 51, 283.8376159667969
0, 2, 52, 272.6678466796875
0, 2, 53, 288.7091979980469
0, 2, 54, 279.7533874511719
0, 2, 55, 276.3932800292969
0, 2, 56, 301.7122802734375
0, 2, 57, 291.5055236816406
0, 2, 58, 304.4753723144531
0, 2, 59, 290.1374206542969
0, 2, 60, 318.7559509277344
0, 2, 61, 300.8416748046875
0, 2, 62, 314.6925659179688
0, 2, 63, 301.1578674316406
0, 2, 64, 296.4155578613281
0, 2, 65, 317.1422729492188
0, 2, 66, 278.4326477050781
0, 2, 67, 289.3576049804688
0, 2, 68, 296.0416564941406
0, 2, 69, 310.9695434570312
0, 2, 70, 333.26416015625
0, 2, 71, 284.5120239257812
0, 2, 72, 304.795166015625
0, 2, 73, 310.2931213378906
0, 2, 74, 285.2508239746094
0, 2, 75, 306.0377502441406
0, 2, 76, 287.2947082519531
0, 2, 77, 299.8049621582031
0, 2, 78, 314.1573791503906
0, 2, 79, 309.3860168457031
0, 2, 80, 295.9125366210938
0, 2, 81, 280.7947082519531
0, 2, 82, 318.6792297363281
0, 2, 83, 312.9595031738281
0, 2, 84, 288.2460632324219
0, 2, 85, 281.8698425292969
0, 2, 86, 323.6246643066406
0, 2, 87, 287.0538635253906
0, 2, 88, 280.773193359375
0, 2, 89, 295.6766052246094
0, 2, 90, 298.6314392089844
0, 2, 91, 278.5685119628906
0, 2, 92, 305.6214904785156
0, 2, 93, 315.6683959960938
0, 2, 94, 290.2872924804688
0, 2, 95, 314.5538940429688
0, 2, 96, 314.7983703613281
0, 2, 97, 290.3151550292969
0, 2, 98, 293.9452819824219
0, 2, 99, 273.16015625
0, 2, 100, 304.9171752929688
0, 2, 101, 300.7306518554688
0, 2, 102, 297.9252624511719
0, 2, 103, 293.1846618652344
0, 2, 104, 292.3746032714844
0, 2, 105, 275.0596618652344
0, 2, 106, 295.59423828125
0, 2, 107, 270.1566162109375
0, 2, 108, 116.2854995727539
0, 2, 109, 31.66231727600098
0, 2, 110, 10.12304496765137
0, 2, 111, 9.948403358459473
0, 2, 112, 7.569784164428711
0, 2, 113, 10.02373027801514
0, 2, 114, 8.532999038696289
0, 2, 115, 8.332996368408203
0, 2, 116, 7.694552898406982
0, 2, 117, 7.003858089447021
0, 2, 118, 3.754028558731079
0, 2, 119, 4.198958396911621
0, 2, 120, 5.181266784667969
0, 2, 121, 1.664186477661133
0, 2, 122, 5.383042335510254
0, 2, 123, 4.834669589996338
0, 2, 124, 3.746567726135254
0, 2, 125, 4.518566131591797
0, 2, 126, 3.807352304458618
0, 2, 127, 4.700134754180908
0, 3, 0, 3.399048805236816
0, 3, 1, 3.585421800613403
0, 3, 2, 2.571279287338257
0, 3, 3, 3.335319995880127
0, 3, 4, 2.929377317428589
0, 3, 5, 9.455774307250977
0, 3, 6, 6.571378707885742
0, 3, 7, 4.653376579284668
0, 3, 8, 5.857644557952881
0, 3, 9, 4.788650035858154
0, 3, 10, 6.960447788238525
0, 3, 11, 3.266893863677979
0, 3, 12, 6.824174404144287
0, 3, 13, 14.62998294830322
0, 3, 14, 10.12508583068848
0, 3, 15, 13.40195178985596
0, 3, 16, 13.04465198516846
0, 3, 17, 18.61894607543945
0, 3, 18, 51.50055694580078
0, 3, 19, 174.0631256103516
0, 3, 20, 270.2865905761719
0, 3, 21, 271.3188781738281
0, 3, 22, 280.6931762695312
0, 3, 23, 287.5609436035156
0, 3, 24, 287.949462890625
0, 3, 25, 272.430908203125
0, 3, 26, 304.8389587402344
0, 3, 27, 291.4672546386719
0, 3, 28, 280.7717590332031
0, 3, 29, 339.38818359375
0, 3, 30, 318.1454162597656
0, 3, 31, 286.355712890625
0, 3, 32, 305.7481079101562
0, 3, 33, 314.697021484375
0, 3, 34, 321.1739807128906
0, 3, 35, 308.5856628417969
0, 3, 36, 273.4797973632812
0, 3, 37, 312.9412841796875
0, 3, 38, 302.1550903320312
0, 3, 39, 289.1646423339844
0, 3, 40, 266.9783630371094
0, 3, 41, 300.9317321777344
0, 3, 42, 284.5991516113281
0, 3, 43, 307.3694152832031
0, 3, 44, 310.9944458007812
0, 3, 45, 290.0403747558594
0, 3, 46, 328.5149841308594
0, 3, 47, 301.9911804199219
0, 3, 48, 305.1320190429688
0, 3, 49, 276.3043212890625
0, 3, 50, 292.1094970703125
0, 3, 51, 276.4012756347656
0, 3, 52, 317.3065795898438
0, 3, 53, 287.0141296386719
0, 3, 54, 284.2662963867188
0, 3, 55, 283.0219421386719
0, 3, 56, 297.9648132324219
0, 3, 57, 287.130615234375
0, 3, 58, 306.9474792480469
0, 3, 59, 296.1105651855469
0, 3, 60, 299.0144348144531
0, 3, 61, 264.0499877929688
0, 3, 62, 284.8096923828125
0, 3, 63, 305.9590454101562
0, 3, 64, 316.6549987792969
0, 3, 65, 305.5769958496094
0, 3, 66, 314.6976623535156
0, 3, 67, 318.0994567871094
0, 3, 68, 279.5231628417969
0, 3, 69, 282.4382629394531
0, 3, 70, 286.4449462890625
0, 3, 71, 299.9028015136719
0, 3, 72, 270.0397033691406
0, 3, 73, 308.1875915527344
0, 3, 74, 292.2839660644531
0, 3, 75, 290.6657409667969
0, 3, 76, 306.7088317871094
0, 3, 77, 312.9379577636719
0, 3, 78, 305.5074462890625
0, 3, 79, 280.6580200195312
0, 3, 80, 288.4786682128906
0, 3, 81, 312.1376647949219
0, 3, 82, 315.9985046386719
0, 3, 83, 300.3892822265625
0, 3, 84, 311.8884887695312
0, 3, 85, 294.2756042480469
0, 3, 86, 302.7086791992188
0, 3, 87, 297.4137573242188
0, 3, 88, 299.1819763183594
0, 3, 89, 294.8589477539062
0, 3, 90, 276.2370300292969
0, 3, 91, 284.6597900390625
0, 3, 92, 303.9937438964844
0, 3, 93, 312.5117797851562
0, 3, 94, 298.190673828125
0, 3, 95, 334.6365356445312
0, 3, 96, 290.0177917480469
0, 3, 97, 283.5851745605469
0, 3, 98, 278.8964538574219
0, 3, 99, 266.1189270019531
0, 3, 100, 286.1388854980469
0, 3, 101, 297.9756164550781
0, 3, 102, 273.0933532714844
0, 3, 103, 318.900634765625
0, 3, 104, 306.9983215332031
0, 3, 105, 289.2090148925781
0, 3, 106, 305.7754821777344
0, 3, 107, 281.2338562011719
0, 3, 108, 169.9485626220703
0, 3, 109, 59.17694854736328
0, 3, 110, 19.64729118347168
0, 3, 111, 13.12749671936035
0, 3, 112, 15.72217655181885
0, 3, 113, 8.720892906188965
0, 3, 114, 11.29044055938721
0, 3, 115, 7.346986293792725
0, 3, 116, 6.644843101501465
0, 3, 117, 8.518461227416992
0, 3, 118, 10.44186878204346
0, 3, 119, 7.630176544189453
0, 3, 120, 5.012736320495605
0, 3, 121, 3.367627620697021
0, 3, 122, 2.813854932785034
0, 3, 123, 4.502372741699219
0, 3, 124, 3.352919578552246
0, 3, 125, 4.298774719238281
0, 3, 126, 4.727912902832031
0, 3, 127, 2.914633750915527
0, 4, 0, 1.26396369934082
0, 4, 1, 4.619318008422852
0, 4, 2, 2.638729095458984
0, 4, 3, 1.47331690788269
0, 4, 4, 7.447203636169434
0, 4, 5, 8.850034713745117
0, 4, 6, 5.399929046630859
0, 4, 7, 6.169045925140381
0, 4, 8, 7.724237442016602
0, 4, 9, 5.367118358612061
0, 4, 10, 6.071888446807861
0, 4, 11, 7.098387718200684
0, 4, 12, 7.569645881652832
0, 4, 13, 8.300209045410156
0, 4, 14, 10.41206455230713
0, 4, 15, 10.41605567932129
0, 4, 16, 14.41091156005859
0, 4, 17, 19.78542327880859
0, 4, 18, 92.95748138427734
0, 4, 19, 220.8650360107422
0, 4, 20, 285.5123291015625
0, 4, 21, 271.7353210449219
0, 4, 22, 304.6126708984375
0, 4, 23, 267.3458251953125
0, 4, 24, 289.0195922851562
0, 4, 25, 271.7470703125
0, 4, 26, 295.6737670898438
0, 4, 27, 281.0177001953125
0, 4, 28, 310.4430847167969
0, 4, 29, 320.6257934570312
0, 4, 30, 308.7590026855469
0, 4, 31, 305.6198425292969
0, 4, 32, 280.7542724609375
0, 4, 33, 297.1545715332031
0, 4, 34, 295.7879333496094
0, 4, 35, 311.1705627441406
0, 4, 36, 292.1961059570312
0, 4, 37, 285.7840881347656
0, 4, 38, 297.534423828125
0, 4, 39, 293.9057922363281
0, 4, 40, 302.9577941894531
0, 4, 41, 311.600341796875
0, 4, 42, 329.3599243164062
0, 4, 43, 294.9454345703125
0, 4, 44, 321.208740234375
0, 4, 45, 325.0522155761719
0, 4, 46, 305.3886413574219
0, 4, 47, 292.6415710449219
0, 4, 48, 295.748779296875
0, 4, 49, 279.3574829101562
0, 4, 50, 296.83837890625
0, 4, 51, 316.375732421875
0, 4, 52, 328.0378723144531
0, 4, 53, 304.5304870605469
0, 4, 54, 286.8900146484375
0, 4, 55, 317.8460693359375
0, 4, 56, 284.8155212402344
0, 4, 57, 311.1445922851562
0, 4, 58, 297.4359436035156
0, 4, 59, 309.9747009277344
0, 4, 60, 301.6607360839844
0, 4, 61, 316.6867370605469
0, 4, 62, 309.3400573730469
0, 4, 63, 298.9771728515625
0, 4, 64, 330.6300354003906
0, 4, 65, 315.7759399414062
0, 4, 66, 295.6660461425781
0, 4, 67, 285.2694091796875
0, 4, 68, 311.8435668945312
0, 4, 69, 275.5585021972656
0, 4, 70, 298.3247985839844
0, 4, 71, 321.8756713867188
0, 4, 72, 331.6602478027344
0, 4, 73, 297.8061218261719
0, 4, 74, 293.2470092773438
0, 4, 75, 289.2463684082031
0, 4, 76, 275.5785522460938
0, 4, 77, 279.8218688964844
0, 4, 78, 311.8431091308594
0, 4, 79, 318.5177917480469
0, 4, 80, 314.6954650878906
0, 4, 81, 311.5321044921875
0, 4, 82, 297.4375305175781
0, 4, 83, 299.6322631835938
0, 4, 84, 292.6838073730469
0, 4, 85, 294.3789672851562
0, 4, 86, 297.116943359375
0, 4, 87, 286.1034240722656
0, 4, 88, 306.2882995605469
0, 4, 89, 294.2839660644531
0, 4, 90, 332.8064575195312
0, 4, 91, 303.6934814453125
0, 4, 92, 290.4073791503906
0, 4, 93, 295.6841125488281
0, 4, 94, 295.0681457519531
0, 4, 95, 289.2702026367188
0, 4, 96, 323.7823486328125
0, 4, 97, 274.78759765625
0, 4, 98, 326.6366271972656
0, 4, 99, 313.5274658203125
0, 4, 100, 299.7683715820312
0, 4, 101, 255.8211517333984
0, 4, 102, 297.3509521484375
0, 4, 103, 317.6254272460938
0, 4, 104, 280.4827880859375
0, 4, 105, 309.2450866699219
0, 4, 106, 286.2439880371094
0, 4, 107, 294.7348937988281
0, 4, 108, 225.8923492431641
0, 4, 109, 80.04603576660156
0, 4, 110, 16.84306716918945
0, 4, 111, 13.90306282043457
0, 4, 112, 7.44606876373291
0, 4, 113, 12.33995723724365
0, 4, 114, 8.240299224853516
0, 4, 115, 9.470234870910645
0, 4, 116, 10.43665027618408
0, 4, 117, 5.775390625
0, 4, 118, 8.85755443572998
0, 4, 119, 10.276442527771
0, 4, 120, 4.856329441070557
0, 4, 121, 5.373030662536621
0, 4, 122, 5.708209037780762
0, 4, 123, 7.295688629150391
0, 4, 124, 7.05294942855835
0, 4, 125, 10.72945117950439
0, 4, 126, 5.978964805603027
0, 4, 127, 3.996172904968262
0, 5, 0, 5.15495491027832
0, 5, 1, 2.821363687515259
0, 5, 2, 3.656497478485107
0, 5, 3, 4.555608749389648
0, 5, 4, 5.159168720245361
0, 5, 5, 6.464005947113037
0, 5, 6, 7.999655246734619
0, 5, 7, 6.393404483795166
0, 5, 8, 4.577655792236328
0, 5, 9, 5.30284595489502
0, 5, 10, 8.582674026489258
0, 5, 11, 11.78691577911377
0, 5, 12, 7.065104484558105
0, 5, 13, 8.135541915893555
0, 5, 14, 14.04365730285645
0, 5, 15, 17.37668037414551
0, 5, 16, 16.82278442382812
0, 5, 17, 30.38018035888672
0, 5, 18, 138.6543579101562
0, 5, 19, 288.6847534179688
0, 5, 20, 308.1019897460938
0, 5, 21, 317.9283752441406
0, 5, 22, 276.9176330566406
0, 5, 23, 313.0186462402344
0, 5, 24, 301.2018737792969
0, 5, 25, 288.7352294921875
0, 5, 26, 295.3219299316406
0, 5, 27, 324.4646606445312
0, 5, 28, 300.57080078125
0, 5, 29, 296.2779235839844
0, 5, 30, 325.5072631835938
0, 5, 31, 287.0194091796875
0, 5, 32, 304.3432922363281
0, 5, 33, 302.471435546875
0, 5, 34, 296.7210998535156
0, 5, 35, 309.8574523925781
0, 5, 36, 268.3352966308594
0, 5, 37, 283.923095703125
0, 5, 38, 293.7162170410156
0, 5, 39, 312.1194458007812
0, 5, 40, 306.489013671875
0, 5, 41, 273.3539733886719
0, 5, 42, 306.9577026367188
0, 5, 43, 317.0471496582031
0, 5, 44, 291.2501831054688
0, 5, 45, 302.4896240234375
0, 5, 46, 268.335693359375
0, 5, 47, 281.8775634765625
0, 5, 48, 294.2168273925781
0, 5, 49, 285.8740539550781
0, 5, 50, 293.1991577148438
0, 5, 51, 280.5274353027344
0, 5, 52, 268.658447265625
0, 5, 53, 286.38818359375
0, 5, 54, 292.1163330078125
0, 5, 55, 344.5806884765625
0, 5, 56, 304.9040222167969
0, 5, 57, 307.7799072265625
0, 5, 58, 311.7865295410156
0, 5, 59, 302.3328247070312
0, 5, 60, 307.9498291015625
0, 5, 61, 281.8545837402344
0, 5, 62, 323.7608947753906
0, 5, 63, 289.6846618652344
0, 5, 64, 322.1041259765625
0, 5, 65, 307.2312927246094
0, 5, 66, 326.6204833984375
0, 5, 67, 311.4555053710938
0, 5, 68, 308.0312194824219
0, 5, 69, 310.2147521972656
0, 5, 70, 301.8801574707031
0, 5, 71, 272.7117004394531
0, 5, 72, 310.4998474121094
0, 5, 73, 306.6120910644531
0, 5, 74, 294.5629577636719
0, 5, 75, 297.7497253417969
0, 5, 76, 286.3997192382812
0, 5, 77, 300.3871765136719
0, 5, 78, 317.5996704101562
0, 5, 79, 307.9911499023438
0, 5, 80, 295.9684143066406
0, 5, 81, 326.5161437988281
0, 5, 82, 323.4419250488281
0, 5, 83, 282.1958923339844
0, 5, 84, 300.4688110351562
0, 5, 85, 271.69677734375
0, 5, 86, 325.1485290527344
0, 5, 87, 284.391845703125
0, 5, 88, 313.9001159667969
0, 5, 89, 304.4075317382812
0, 5, 90, 316.1300964355469
0, 5, 91, 312.7660522460938
0, 5, 92, 296.4375305175781
0, 5, 93, 324.1758117675781
0, 5, 94, 307.4505004882812
0, 5, 95, 297.4482421875
0, 5, 96, 300.3777465820312
0, 5, 97, 298.0227355957031
0, 5, 98, 316.3161315917969
0, 5, 99, 301.2048645019531
0, 5, 100, 290.5722961425781
0, 5, 101, 305.5069580078125
0, 5, 102, 292.9025268554688
0, 5, 103, 315.0179748535156
0, 5, 104, 303.2955017089844
0, 5, 105, 291.5292053222656
0, 5, 106, 280.6759643554688
0, 5, 107, 294.4646606445312
0, 5, 108, 264.365478515625
0, 5, 109, 156.5005950927734
0, 5, 110, 38.90258026123047
0, 5, 111, 21.57354354858398
0, 5, 112, 17.1225643157959
0, 5, 113, 10.95755577087402
0, 5, 114, 11.30270290374756
0, 5, 115, 8.182598114013672
0, 5, 116, 9.560983657836914
0, 5, 117, 7.336677551269531
0, 5, 118, 11.41231346130371
0, 5, 119, 6.222133159637451
0, 5, 120, 5.478945732116699
0, 5, 121, 7.282288551330566
0, 5, 122, 6.812757015228271
0, 5, 123, 4.643472671508789
0, 5, 124, 7.42385196685791
0, 5, 125, 3.747123956680298
0, 5, 126, 8.077627182006836
0, 5, 127, 3.892232179641724
0, 6, 0, 3.62545108795166
0, 6, 1, 2.844136953353882
0, 6, 2, 4.790012359619141
0, 6, 3, 6.342616081237793
0, 6, 4, 4.84125804901123
0, 6, 5, 6.7756028175354
0, 6, 6, 6.277241230010986
0, 6, 7, 5.252562999725342
0, 6, 8, 7.44459056854248
0, 6, 9, 6.625759601593018
0, 6, 10, 8.119272232055664
0, 6, 11, 8.891363143920898
0, 6, 12, 8.050039291381836
0, 6, 13, 12.09703350067139
0, 6, 14, 9.635404586791992
0, 6, 15, 17.54746437072754
0, 6, 16, 29.4121265411377
0, 6, 17, 54.62974166870117
0, 6, 18, 173.8089752197266
0, 6, 19, 277.7215576171875
0, 6, 20, 291.4448547363281
0, 6, 21, 313.2488403320312
0, 6, 22, 320.8430480957031
0, 6, 23, 304.9335327148438
0, 6, 24, 316.1472473144531
0, 6, 25, 316.8909912109375
0, 6, 26, 319.4354553222656
0, 6, 27, 330.5372314453125
0, 6, 28, 296.3085021972656
0, 6, 29, 330.6995544433594
0, 6, 30, 283.1808166503906
0, 6, 31, 285.0484313964844
0, 6, 32, 340.0404357910156
0, 6, 33, 300.6369323730469
0, 6, 34, 341.643798828125
0, 6, 35, 320.92529296875
0, 6, 36, 275.5896301269531
0, 6, 37, 288.7650451660156
0, 6, 38, 309.8350830078125
0, 6, 39, 299.2564392089844
0, 6, 40, 286.3597717285156
0, 6, 41, 294.9351196289062
0, 6, 42, 304.5005798339844
0, 6, 43, 287.6495361328125
0, 6, 44, 280.8919677734375
0, 6, 45, 319.6442260742188
0, 6, 46, 300.6114807128906
0, 6, 47, 335.4995422363281
0, 6, 48, 294.0678100585938
0, 6, 49, 310.4506225585938
0, 6, 50, 328.2585144042969
0, 6, 51, 309.6840515136719
0, 6, 52, 321.7916564941406
0, 6, 53, 326.6565551757812
0, 6, 54, 303.1962890625
0, 6, 55, 306.5794982910156
0, 6, 56, 298.0436706542969
0, 6, 57, 312.9402770996094
0, 6, 58, 261.6758117675781
0, 6, 59, 300.2867736816406
0, 6, 60, 313.3471984863281
0, 6, 61, 270.8192749023438
0, 6, 62, 339.4330749511719
0, 6, 63, 323.4116516113281
0, 6, 64, 289.6033325195312
0, 6, 65, 287.8207092285156
0, 6, 66, 302.8757629394531
0, 6, 67, 309.4017944335938
0, 6, 68, 293.3948974609375
0, 6, 69, 276.9051818847656
0, 6, 70, 275.3140563964844
0, 6, 71, 289.3777465820312
0, 6, 72, 309.9752502441406
0, 6, 73, 292.9283752441406
0, 6, 74, 329.3676452636719
0, 6, 75, 342.7502136230469
0, 6, 76, 296.6301879882812
0, 6, 77, 286.2785034179688
0, 6, 78, 278.0818786621094
0, 6, 79, 294.5179443359375
0, 6, 80, 300.2050170898438
0, 6, 81, 313.4689331054688
0, 6, 82, 320.1563720703125
0, 6, 83, 319.906005859375
0, 6, 84, 299.6560974121094
0, 6, 85, 300.9044189453125
0, 6, 86, 329.2491149902344
0, 6, 87, 293.7384643554688
0, 6, 88, 305.5392456054688
0, 6, 89, 305.8171997070312
0, 6, 90, 301.69140625
0, 6, 91, 312.4705200195312
0, 6, 92, 284.4309997558594
0, 6, 93, 293.7208862304688
0, 6, 94, 273.5958862304688
0, 6, 95, 300.0705261230469
0, 6, 96, 345.9581604003906
0, 6, 97, 308.36767578125
0, 6, 98, 301.3828735351562
0, 6, 99, 274.1758422851562
0, 6, 100, 310.0272521972656
0, 6, 101, 292.93603515625
0, 6, 102, 307.656982421875
0, 6, 103, 308.6095886230469
0, 6, 104, 291.9090270996094
0, 6, 105, 302.9317321777344
0, 6, 106, 308.0653381347656
0, 6, 107, 306.3707580566406
0, 6, 108, 265.0449829101562
0, 6, 109, 185.6147766113281
0, 6, 110, 54.54594039916992
0, 6, 111, 23.04033470153809
0, 6, 112, 12.37385845184326
0, 6, 113, 10.40345001220703
0, 6, 114, 14.3633861541748
0, 6, 115, 10.76941585540771
0, 6, 116, 8.020438194274902
0, 6, 117, 6.748895168304443
0, 6, 118, 9.489123344421387
0, 6, 119, 10.36993885040283
0, 6, 120, 7.270039081573486
0, 6, 121, 6.693861484527588
0, 6, 122, 6.156979084014893
0, 6, 123, 5.849127292633057
0, 6, 124, 7.482345581054688
0, 6, 125, 5.716713905334473
0, 6, 126, 4.463011264801025
0, 6, 127, 6.932997226715088
0, 7, 0, 5.967119693756104
0, 7, 1, 3.277559995651245
0, 7, 2, 4.68013334274292
0, 7, 3, 4.518172264099121
0, 7, 4, 3.803099870681763
0, 7, 5, 7.251240253448486
0, 7, 6, 7.999667644500732
0, 7, 7, 7.287865161895752
0, 7, 8, 4.9586181640625
0, 7, 9, 6.360589981079102
0, 7, 10, 9.344058990478516
0, 7, 11, 11.07749462127686
0, 7, 12, 12.78303623199463
0, 7, 13, 13.1943359375
0, 7, 14, 11.5745964050293
0, 7, 15, 18.43633842468262
0, 7, 16, 25.80795097351074
0, 7, 17, 97.02732086181641
0, 7, 18, 218.8510284423828
0, 7, 19, 289.5347900390625
0, 7, 20, 297.5309753417969
0, 7, 21, 276.7427368164062
0, 7, 22, 297.3983459472656
0, 7, 23, 291.90478515625
0, 7, 24, 313.9468994140625
0, 7, 25, 323.32958984375
0, 7, 26, 276.9450378417969
0, 7, 27, 298.5973815917969
0, 7, 28, 328.9484252929688
0, 7, 29, 319.9464721679688
0, 7, 30, 300.4788513183594
0, 7, 31, 277.0867614746094
0, 7, 32, 305.3873901367188
0, 7, 33, 260.5105285644531
0, 7, 34, 300.2925415039062
0, 7, 35, 319.4809875488281
0, 7, 36, 330.8865356445312
0, 7, 37, 324.16162109375
0, 7, 38, 295.4996032714844
0, 7, 39, 305.1161804199219
0, 7, 40, 288.9033508300781
0, 7, 41, 272.7854309082031
0, 7, 42, 302.9449157714844
0, 7, 43, 274.8951416015625
0, 7, 44, 302.1826782226562
0, 7, 45, 293.3678588867188
0, 7, 46, 282.5714416503906
0, 7, 47, 330.3493041992188
0, 7, 48, 287.2834167480469
0, 7, 49, 302.0137634277344
0, 7, 50, 321.4408569335938
0, 7, 51, 298.7830200195312
0, 7, 52, 325.6203002929688
0, 7, 53, 311.2210998535156
0, 7, 54, 323.0792236328125
0, 7, 55, 308.032958984375
0, 7, 56, 279.0611572265625
0, 7, 57, 283.3945007324219
0, 7, 58, 298.0050354003906
0, 7, 59, 295.5568237304688
0, 7, 60, 322.6487426757812
0, 7, 61, 279.384033203125
0, 7, 62, 299.0498046875
0, 7, 63, 294.892578125
0, 7, 64, 304.7096557617188
0, 7, 65, 331.438232421875
0, 7, 66, 319.6624145507812
0, 7, 67, 300.9033508300781
0, 7, 68, 279.3016967773438
0, 7, 69, 294.8113098144531
0, 7, 70, 302.7591247558594
0, 7, 71, 309.9414672851562
0, 7, 72, 287.7188720703125
0, 7, 73, 296.9006652832031
0, 7, 74, 346.6864318847656
0, 7, 75, 318.7148742675781
0, 7, 76, 322.075927734375
0, 7, 77, 281.7415161132812
0, 7, 78, 299.2666320800781
0, 7, 79, 297.2585754394531
0, 7, 80, 314.215576171875
0, 7, 81, 318.684814453125
0, 7, 82, 329.5364074707031
0, 7, 83, 318.0299072265625
0, 7, 84, 309.5254211425781
0, 7, 85, 271.9896240234375
0, 7, 86, 310.8374328613281
0, 7, 87, 310.8147583007812
0, 7, 88, 309.616455078125
0, 7, 89, 293.3154907226562
0, 7, 90, 305.4837341308594
0, 7, 91, 315.8168029785156
0, 7, 92, 288.6759338378906
0, 7, 93, 311.2882995605469
0, 7, 94, 273.684326171875
0, 7, 95, 295.4798583984375
0, 7, 96, 332.8970031738281
0, 7, 97, 295.8067932128906
0, 7, 98, 290.2820129394531
0, 7, 99, 312.3665161132812
0, 7, 100, 282.5617065429688
0, 7, 101, 275.1127624511719
0, 7, 102, 290.083251953125
0, 7, 103, 293.4168090820312
0, 7, 104, 276.1902770996094
0, 7, 105, 305.802001953125
0, 7, 106, 317.7477416992188
0, 7, 107, 300.20556640625
0, 7, 108, 272.4889831542969
0, 7, 109, 235.3937072753906
0, 7, 110, 96.23106384277344
0, 7, 111, 24.48221969604492
0, 7, 112, 13.27299308776855
0, 7, 113, 16.26127815246582
0, 7, 114, 15.12648773193359
0, 7, 115, 9.326315879821777
0, 7, 116, 6.536154270172119
0, 7, 117, 5.813466548919678
0, 7, 118, 9.342398643493652
0, 7, 119, 8.789289474487305
0, 7, 120, 6.48557186126709
0, 7, 121, 9.06828498840332
0, 7, 122, 8.073880195617676
0, 7, 123, 3.774934768676758
0, 7, 124, 6.251796245574951
0, 7, 125, 6.077994823455811
0, 7, 126, 10.13250637054443
0, 7, 127, 3.335280179977417
0, 8, 0, 5.635530948638916
0, 8, 1, 5.672513961791992
0, 8, 2, 4.751477241516113
0, 8, 3, 4.41969108581543
0, 8, 4, 4.07629919052124
0, 8, 5, 4.517874717712402
0, 8, 6, 6.138347148895264
0, 8, 7, 4.70898962020874
0, 8, 8, 8.8363037109375
0, 8, 9, 6.296770572662354
0, 8, 10, 6.535171031951904
0, 8, 11, 10.26420783996582
0, 8, 12, 14.68224811553955
0, 8, 13, 16.74309349060059
0, 8, 14, 12.06804943084717
0, 8, 15, 17.70145988464355
0, 8, 16, 31.47183609008789
0, 8, 17, 131.1579132080078
0, 8, 18, 243.7901000976562
0, 8, 19, 295.4745788574219
0, 8, 20, 288.2887878417969
0, 8, 21, 307.3719482421875
0, 8, 22, 295.8818359375
0, 8, 23, 275.6263122558594
0, 8, 24, 268.1744689941406
0, 8, 25, 277.0758056640625
0, 8, 26, 307.0169677734375
0, 8, 27, 308.4689025878906
0, 8, 28, 302.7810363769531
0, 8, 29, 319.1790466308594
0, 8, 30, 314.8622436523438
0, 8, 31, 305.970947265625
0, 8, 32, 281.6117553710938
0, 8, 33, 293.7403869628906
0, 8, 34, 289.5011596679688
0, 8, 35, 278.9353637695312
0, 8, 36, 316.0912475585938
0, 8, 37, 342.5640258789062
0, 8, 38, 334.3818359375
0, 8, 39, 280.026611328125
