# TOPAS Version: 3.1.p3
# Parameter File: batch_inserts_82.txt
# Results for scorer Readout_Adipose
# Scored in component: MyBox
# X in 1 bin  of 0.75 cm
# Y in 512 bins of 0.0783984 cm
# Z in 128 bins of 0.078125 cm
# EnergyDeposit ( MeV ) : Sum   
0, 0, 0, 18.47110748291016
0, 0, 1, 20.59334564208984
0, 0, 2, 29.28215789794922
0, 0, 3, 22.41381454467773
0, 0, 4, 21.49129676818848
0, 0, 5, 22.88953590393066
0, 0, 6, 27.03201675415039
0, 0, 7, 32.43896102905273
0, 0, 8, 21.64989280700684
0, 0, 9, 24.17663383483887
0, 0, 10, 26.4143180847168
0, 0, 11, 27.55156517028809
0, 0, 12, 34.41584396362305
0, 0, 13, 34.64934158325195
0, 0, 14, 42.31234359741211
0, 0, 15, 45.81878280639648
0, 0, 16, 44.55832672119141
0, 0, 17, 46.52198791503906
0, 0, 18, 68.97880554199219
0, 0, 19, 194.3387756347656
0, 0, 20, 697.6188354492188
0, 0, 21, 1192.083374023438
0, 0, 22, 1248.093872070312
0, 0, 23, 1271.973022460938
0, 0, 24, 1282.360595703125
0, 0, 25, 1357.650390625
0, 0, 26, 1272.560791015625
0, 0, 27, 1285.51416015625
0, 0, 28, 1321.556274414062
0, 0, 29, 1272.037719726562
0, 0, 30, 1264.9072265625
0, 0, 31, 1278.989868164062
0, 0, 32, 1265.003051757812
0, 0, 33, 1244.46484375
0, 0, 34, 1324.56787109375
0, 0, 35, 1302.083129882812
0, 0, 36, 1247.733276367188
0, 0, 37, 1281.774658203125
0, 0, 38, 1246.40966796875
0, 0, 39, 1244.914306640625
0, 0, 40, 1223.037719726562
0, 0, 41, 1272.0595703125
0, 0, 42, 1260.127197265625
0, 0, 43, 1266.483642578125
0, 0, 44, 1225.080078125
0, 0, 45, 1287.710083007812
0, 0, 46, 1259.659912109375
0, 0, 47, 1241.03369140625
0, 0, 48, 1279.323608398438
0, 0, 49, 1283.726196289062
0, 0, 50, 1310.647827148438
0, 0, 51, 1265.336303710938
0, 0, 52, 1356.732299804688
0, 0, 53, 1321.870361328125
0, 0, 54, 1293.835327148438
0, 0, 55, 1233.409057617188
0, 0, 56, 1317.765991210938
0, 0, 57, 1291.748657226562
0, 0, 58, 1257.262084960938
0, 0, 59, 1333.327392578125
0, 0, 60, 1323.68603515625
0, 0, 61, 1259.192749023438
0, 0, 62, 1242.383544921875
0, 0, 63, 1279.90771484375
0, 0, 64, 1332.492919921875
0, 0, 65, 1288.110229492188
0, 0, 66, 1318.755004882812
0, 0, 67, 1214.10791015625
0, 0, 68, 1310.9990234375
0, 0, 69, 1327.140502929688
0, 0, 70, 1346.032958984375
0, 0, 71, 1288.00439453125
0, 0, 72, 1319.271240234375
0, 0, 73, 1238.517333984375
0, 0, 74, 1287.542114257812
0, 0, 75, 1293.6474609375
0, 0, 76, 1249.796142578125
0, 0, 77, 1287.532104492188
0, 0, 78, 1316.264770507812
0, 0, 79, 1329.047729492188
0, 0, 80, 1257.76318359375
0, 0, 81, 1324.114624023438
0, 0, 82, 1286.712158203125
0, 0, 83, 1288.080688476562
0, 0, 84, 1328.466552734375
0, 0, 85, 1241.22900390625
0, 0, 86, 1262.472045898438
0, 0, 87, 1252.536010742188
0, 0, 88, 1255.525634765625
0, 0, 89, 1334.5419921875
0, 0, 90, 1277.6962890625
0, 0, 91, 1356.737915039062
0, 0, 92, 1305.434448242188
0, 0, 93, 1276.220092773438
0, 0, 94, 1245.446533203125
0, 0, 95, 1324.415405273438
0, 0, 96, 1283.643798828125
0, 0, 97, 1330.55078125
0, 0, 98, 1260.0927734375
0, 0, 99, 1249.233642578125
0, 0, 100, 1285.699951171875
0, 0, 101, 1316.401489257812
0, 0, 102, 1233.4794921875
0, 0, 103, 1325.669677734375
0, 0, 104, 1262.871948242188
0, 0, 105, 1268.467163085938
0, 0, 106, 1208.62841796875
0, 0, 107, 780.8836669921875
0, 0, 108, 193.2969970703125
0, 0, 109, 75.43256378173828
0, 0, 110, 63.22798919677734
0, 0, 111, 42.97563934326172
0, 0, 112, 35.94467926025391
0, 0, 113, 34.16747665405273
0, 0, 114, 34.91538238525391
0, 0, 115, 29.57238006591797
0, 0, 116, 26.35616302490234
0, 0, 117, 32.33980941772461
0, 0, 118, 24.9081859588623
0, 0, 119, 23.10208702087402
0, 0, 120, 25.62515830993652
0, 0, 121, 26.66098022460938
0, 0, 122, 19.85317802429199
0, 0, 123, 16.98783493041992
0, 0, 124, 20.19269943237305
0, 0, 125, 20.49082374572754
0, 0, 126, 23.2984790802002
0, 0, 127, 17.56441879272461
0, 1, 0, 23.6108283996582
0, 1, 1, 21.67731666564941
0, 1, 2, 21.96004486083984
0, 1, 3, 22.2425537109375
0, 1, 4, 23.23089981079102
0, 1, 5, 25.9705982208252
0, 1, 6, 21.07474517822266
0, 1, 7, 24.00738716125488
0, 1, 8, 36.83632659912109
0, 1, 9, 34.13372039794922
0, 1, 10, 35.75003814697266
0, 1, 11, 40.343505859375
0, 1, 12, 35.96390914916992
0, 1, 13, 41.58449935913086
0, 1, 14, 36.66572570800781
0, 1, 15, 50.32537460327148
0, 1, 16, 56.1518669128418
0, 1, 17, 66.22801208496094
0, 1, 18, 100.3287200927734
0, 1, 19, 400.5218811035156
0, 1, 20, 1040.516967773438
0, 1, 21, 1373.189086914062
0, 1, 22, 1476.745483398438
0, 1, 23, 1464.6416015625
0, 1, 24, 1450.791748046875
0, 1, 25, 1420.700805664062
0, 1, 26, 1467.832275390625
0, 1, 27, 1465.958251953125
0, 1, 28, 1492.111572265625
0, 1, 29, 1485.873413085938
0, 1, 30, 1505.507080078125
0, 1, 31, 1488.8310546875
0, 1, 32, 1413.5732421875
0, 1, 33, 1502.599853515625
0, 1, 34, 1500.263427734375
0, 1, 35, 1459.96044921875
0, 1, 36, 1489.359741210938
0, 1, 37, 1411.497802734375
0, 1, 38, 1395.307739257812
0, 1, 39, 1523.358642578125
0, 1, 40, 1464.870483398438
0, 1, 41, 1488.988647460938
0, 1, 42, 1498.693969726562
0, 1, 43, 1504.718383789062
0, 1, 44, 1453.400024414062
0, 1, 45, 1484.8232421875
0, 1, 46, 1421.700927734375
0, 1, 47, 1438.800170898438
0, 1, 48, 1435.945068359375
0, 1, 49, 1484.832397460938
0, 1, 50, 1440.893188476562
0, 1, 51, 1474.459716796875
0, 1, 52, 1473.078369140625
0, 1, 53, 1471.109619140625
0, 1, 54, 1507.945556640625
0, 1, 55, 1497.8447265625
0, 1, 56, 1468.550903320312
0, 1, 57, 1458.048095703125
0, 1, 58, 1429.588989257812
0, 1, 59, 1482.764282226562
0, 1, 60, 1465.920288085938
0, 1, 61, 1451.432006835938
0, 1, 62, 1455.485107421875
0, 1, 63, 1416.373291015625
0, 1, 64, 1481.364624023438
0, 1, 65, 1417.78662109375
0, 1, 66, 1440.078491210938
0, 1, 67, 1454.949096679688
0, 1, 68, 1383.336059570312
0, 1, 69, 1461.830444335938
0, 1, 70, 1433.901489257812
0, 1, 71, 1496.1044921875
0, 1, 72, 1432.059326171875
0, 1, 73, 1489.087036132812
0, 1, 74, 1471.383666992188
0, 1, 75, 1474.680053710938
0, 1, 76, 1448.937377929688
0, 1, 77, 1462.83056640625
0, 1, 78, 1449.616943359375
0, 1, 79, 1503.374389648438
0, 1, 80, 1448.031372070312
0, 1, 81, 1423.341796875
0, 1, 82, 1471.958862304688
0, 1, 83, 1458.99951171875
0, 1, 84, 1537.453125
0, 1, 85, 1445.067016601562
0, 1, 86, 1405.433349609375
0, 1, 87, 1418.3603515625
0, 1, 88, 1472.219482421875
0, 1, 89, 1470.928344726562
0, 1, 90, 1423.881103515625
0, 1, 91, 1465.97802734375
0, 1, 92, 1412.673095703125
0, 1, 93, 1462.467651367188
0, 1, 94, 1467.136840820312
0, 1, 95, 1421.149047851562
0, 1, 96, 1497.239135742188
0, 1, 97, 1516.27734375
0, 1, 98, 1479.686401367188
0, 1, 99, 1417.737915039062
0, 1, 100, 1449.737670898438
0, 1, 101, 1413.72314453125
0, 1, 102, 1444.135009765625
0, 1, 103, 1415.07763671875
0, 1, 104, 1407.998168945312
0, 1, 105, 1460.908203125
0, 1, 106, 1364.021118164062
0, 1, 107, 1016.530090332031
0, 1, 108, 405.5747680664062
0, 1, 109, 92.83563995361328
0, 1, 110, 65.02005767822266
0, 1, 111, 51.71755599975586
0, 1, 112, 46.34969329833984
0, 1, 113, 39.67416000366211
0, 1, 114, 36.84918212890625
0, 1, 115, 41.71421813964844
0, 1, 116, 34.106689453125
0, 1, 117, 34.49093627929688
0, 1, 118, 33.43078994750977
0, 1, 119, 26.69851875305176
0, 1, 120, 27.5550479888916
0, 1, 121, 23.57194137573242
0, 1, 122, 22.73688125610352
0, 1, 123, 27.2546215057373
0, 1, 124, 29.20932197570801
0, 1, 125, 19.17990875244141
0, 1, 126, 18.96229553222656
0, 1, 127, 17.71845817565918
0, 2, 0, 21.14093780517578
0, 2, 1, 18.25888442993164
0, 2, 2, 21.5545539855957
0, 2, 3, 31.67253494262695
0, 2, 4, 22.71042633056641
0, 2, 5, 22.208251953125
0, 2, 6, 22.90554618835449
0, 2, 7, 20.82503509521484
0, 2, 8, 24.22673225402832
0, 2, 9, 29.22922515869141
0, 2, 10, 29.46179962158203
0, 2, 11, 36.50341033935547
0, 2, 12, 43.98855972290039
0, 2, 13, 45.95882797241211
0, 2, 14, 45.76603317260742
0, 2, 15, 48.2960205078125
0, 2, 16, 59.20323944091797
0, 2, 17, 76.50502777099609
0, 2, 18, 144.4891815185547
0, 2, 19, 608.013916015625
0, 2, 20, 1286.379760742188
0, 2, 21, 1432.086303710938
0, 2, 22, 1453.900146484375
0, 2, 23, 1408.087158203125
0, 2, 24, 1441.316650390625
0, 2, 25, 1521.622436523438
0, 2, 26, 1553.69580078125
0, 2, 27, 1454.694091796875
0, 2, 28, 1461.1376953125
0, 2, 29, 1459.048706054688
0, 2, 30, 1467.9833984375
0, 2, 31, 1534.0498046875
0, 2, 32, 1509.67626953125
0, 2, 33, 1445.174926757812
0, 2, 34, 1475.470336914062
0, 2, 35, 1469.181640625
0, 2, 36, 1526.714721679688
0, 2, 37, 1538.7421875
0, 2, 38, 1505.790283203125
0, 2, 39, 1464.925537109375
0, 2, 40, 1502.40185546875
0, 2, 41, 1518.829833984375
0, 2, 42, 1503.775268554688
0, 2, 43, 1547.716796875
0, 2, 44, 1462.496704101562
0, 2, 45, 1483.244995117188
0, 2, 46, 1428.2724609375
0, 2, 47, 1447.319702148438
0, 2, 48, 1393.220825195312
0, 2, 49, 1464.947387695312
0, 2, 50, 1448.62158203125
0, 2, 51, 1446.092651367188
0, 2, 52, 1494.3701171875
0, 2, 53, 1521.262451171875
0, 2, 54, 1527.45556640625
0, 2, 55, 1498.710083007812
0, 2, 56, 1467.293579101562
0, 2, 57, 1418.912719726562
0, 2, 58, 1454.517333984375
0, 2, 59, 1445.243530273438
0, 2, 60, 1472.105346679688
0, 2, 61, 1444.493896484375
0, 2, 62, 1469.13818359375
0, 2, 63, 1506.152465820312
0, 2, 64, 1459.785766601562
0, 2, 65, 1422.551391601562
0, 2, 66, 1489.164672851562
0, 2, 67, 1508.006591796875
0, 2, 68, 1542.502807617188
0, 2, 69, 1538.909057617188
0, 2, 70, 1506.299438476562
0, 2, 71, 1462.151489257812
0, 2, 72, 1515.682250976562
0, 2, 73, 1518.037841796875
0, 2, 74, 1487.997436523438
0, 2, 75, 1505.437255859375
0, 2, 76, 1450.630981445312
0, 2, 77, 1507.786254882812
0, 2, 78, 1429.502197265625
0, 2, 79, 1538.077026367188
0, 2, 80, 1479.365356445312
0, 2, 81, 1462.93505859375
0, 2, 82, 1559.638305664062
0, 2, 83, 1513.1533203125
0, 2, 84, 1494.761840820312
0, 2, 85, 1512.62109375
0, 2, 86, 1535.8330078125
0, 2, 87, 1491.141235351562
0, 2, 88, 1535.837036132812
0, 2, 89, 1461.002319335938
0, 2, 90, 1430.361328125
0, 2, 91, 1404.62890625
0, 2, 92, 1478.03125
0, 2, 93, 1500.35791015625
0, 2, 94, 1447.910278320312
0, 2, 95, 1548.313232421875
0, 2, 96, 1514.8427734375
0, 2, 97, 1452.828735351562
0, 2, 98, 1464.400268554688
0, 2, 99, 1406.334716796875
0, 2, 100, 1475.16259765625
0, 2, 101, 1480.323974609375
0, 2, 102, 1466.80224609375
0, 2, 103, 1387.231689453125
0, 2, 104, 1414.154663085938
0, 2, 105, 1394.356201171875
0, 2, 106, 1457.387939453125
0, 2, 107, 1272.902587890625
0, 2, 108, 622.330078125
0, 2, 109, 168.1196746826172
0, 2, 110, 69.04602813720703
0, 2, 111, 59.6923713684082
0, 2, 112, 46.97952651977539
0, 2, 113, 44.80960464477539
0, 2, 114, 37.39423751831055
0, 2, 115, 36.49127960205078
0, 2, 116, 34.39251327514648
0, 2, 117, 32.3891487121582
0, 2, 118, 30.96245956420898
0, 2, 119, 32.67313003540039
0, 2, 120, 27.58237457275391
0, 2, 121, 20.16498756408691
0, 2, 122, 29.62350463867188
0, 2, 123, 25.3253231048584
0, 2, 124, 25.21859169006348
0, 2, 125, 32.64109039306641
0, 2, 126, 18.38549423217773
0, 2, 127, 22.1358470916748
0, 3, 0, 18.70384407043457
0, 3, 1, 18.48992538452148
0, 3, 2, 21.40935516357422
0, 3, 3, 18.10394477844238
0, 3, 4, 20.50974464416504
0, 3, 5, 22.54656028747559
0, 3, 6, 32.37759399414062
0, 3, 7, 32.01119995117188
0, 3, 8, 31.02799987792969
0, 3, 9, 25.52150344848633
0, 3, 10, 34.07361602783203
0, 3, 11, 34.49980926513672
0, 3, 12, 42.79665756225586
0, 3, 13, 52.94547271728516
0, 3, 14, 58.67452239990234
0, 3, 15, 52.586181640625
0, 3, 16, 66.12337493896484
0, 3, 17, 92.63001251220703
0, 3, 18, 243.5430603027344
0, 3, 19, 881.8981323242188
0, 3, 20, 1384.444458007812
0, 3, 21, 1506.292602539062
0, 3, 22, 1462.464233398438
0, 3, 23, 1448.10498046875
0, 3, 24, 1434.885498046875
0, 3, 25, 1463.461303710938
0, 3, 26, 1493.433349609375
0, 3, 27, 1468.083374023438
0, 3, 28, 1491.339721679688
0, 3, 29, 1541.091064453125
0, 3, 30, 1578.077392578125
0, 3, 31, 1512.8232421875
0, 3, 32, 1549.651123046875
0, 3, 33, 1536.132934570312
0, 3, 34, 1490.663452148438
0, 3, 35, 1465.013549804688
0, 3, 36, 1447.748657226562
0, 3, 37, 1516.336547851562
0, 3, 38, 1515.9931640625
0, 3, 39, 1440.03466796875
0, 3, 40, 1442.006469726562
0, 3, 41, 1562.334594726562
0, 3, 42, 1459.888061523438
0, 3, 43, 1458.251708984375
0, 3, 44, 1454.971923828125
0, 3, 45, 1505.00048828125
0, 3, 46, 1508.135498046875
0, 3, 47, 1441.463134765625
0, 3, 48, 1513.332763671875
0, 3, 49, 1454.096557617188
0, 3, 50, 1491.550537109375
0, 3, 51, 1534.455444335938
0, 3, 52, 1533.266235351562
0, 3, 53, 1467.788330078125
0, 3, 54, 1529.154296875
0, 3, 55, 1504.972534179688
0, 3, 56, 1434.028930664062
0, 3, 57, 1504.510620117188
0, 3, 58, 1515.225463867188
0, 3, 59, 1507.219970703125
0, 3, 60, 1539.188598632812
0, 3, 61, 1487.446166992188
0, 3, 62, 1493.275024414062
0, 3, 63, 1490.290771484375
0, 3, 64, 1494.777221679688
0, 3, 65, 1514.1669921875
0, 3, 66, 1557.558715820312
0, 3, 67, 1547.610595703125
0, 3, 68, 1452.205200195312
0, 3, 69, 1464.988037109375
0, 3, 70, 1385.226806640625
0, 3, 71, 1464.88134765625
0, 3, 72, 1550.066772460938
0, 3, 73, 1499.218505859375
0, 3, 74, 1467.256469726562
0, 3, 75, 1461.285766601562
0, 3, 76, 1570.983154296875
0, 3, 77, 1540.529541015625
0, 3, 78, 1431.445068359375
0, 3, 79, 1494.057739257812
0, 3, 80, 1461.857299804688
0, 3, 81, 1473.129760742188
0, 3, 82, 1553.331909179688
0, 3, 83, 1515.02197265625
0, 3, 84, 1560.928466796875
0, 3, 85, 1479.9853515625
0, 3, 86, 1526.73681640625
0, 3, 87, 1543.317138671875
0, 3, 88, 1461.08154296875
0, 3, 89, 1451.683959960938
0, 3, 90, 1448.369262695312
0, 3, 91, 1415.982055664062
0, 3, 92, 1514.260375976562
0, 3, 93, 1499.693969726562
0, 3, 94, 1517.355224609375
0, 3, 95, 1543.929931640625
0, 3, 96, 1511.711669921875
0, 3, 97, 1470.536376953125
0, 3, 98, 1433.208374023438
0, 3, 99, 1464.799438476562
0, 3, 100, 1470.943115234375
0, 3, 101, 1476.967163085938
0, 3, 102, 1524.076904296875
0, 3, 103, 1551.935913085938
0, 3, 104, 1500.401245117188
0, 3, 105, 1520.6064453125
0, 3, 106, 1479.994262695312
0, 3, 107, 1340.961547851562
0, 3, 108, 871.9578247070312
0, 3, 109, 267.3080444335938
0, 3, 110, 107.9455795288086
0, 3, 111, 65.29440307617188
0, 3, 112, 65.08332824707031
0, 3, 113, 51.68708038330078
0, 3, 114, 50.41260528564453
0, 3, 115, 49.27286148071289
0, 3, 116, 37.57176971435547
0, 3, 117, 37.34237670898438
0, 3, 118, 38.01443862915039
0, 3, 119, 28.59211540222168
0, 3, 120, 28.87005424499512
0, 3, 121, 20.47671318054199
0, 3, 122, 20.04006385803223
0, 3, 123, 28.3520565032959
0, 3, 124, 21.30822944641113
0, 3, 125, 27.20620536804199
0, 3, 126, 24.73138046264648
0, 3, 127, 14.42500782012939
0, 4, 0, 18.95183372497559
0, 4, 1, 23.66144752502441
0, 4, 2, 17.01608085632324
0, 4, 3, 20.15065002441406
0, 4, 4, 21.32418823242188
0, 4, 5, 27.94700813293457
0, 4, 6, 32.28414535522461
0, 4, 7, 35.36386108398438
0, 4, 8, 31.58286094665527
0, 4, 9, 34.96188354492188
0, 4, 10, 29.97682189941406
0, 4, 11, 43.70638656616211
0, 4, 12, 48.61721420288086
0, 4, 13, 50.98516845703125
0, 4, 14, 48.09918594360352
0, 4, 15, 62.98664093017578
0, 4, 16, 78.95732116699219
0, 4, 17, 116.7391204833984
0, 4, 18, 445.5419921875
0, 4, 19, 1179.14794921875
0, 4, 20, 1444.155639648438
0, 4, 21, 1423.340698242188
0, 4, 22, 1435.770751953125
0, 4, 23, 1456.143920898438
0, 4, 24, 1474.52099609375
0, 4, 25, 1409.518432617188
0, 4, 26, 1541.201538085938
0, 4, 27, 1545.857299804688
0, 4, 28, 1515.43994140625
0, 4, 29, 1513.073608398438
0, 4, 30, 1525.366943359375
0, 4, 31, 1575.21484375
0, 4, 32, 1512.921875
0, 4, 33, 1493.670532226562
0, 4, 34, 1469.027954101562
0, 4, 35, 1559.402465820312
0, 4, 36, 1501.698974609375
0, 4, 37, 1512.788696289062
0, 4, 38, 1532.974243164062
0, 4, 39, 1473.888671875
0, 4, 40, 1514.157592773438
0, 4, 41, 1584.784423828125
0, 4, 42, 1566.220336914062
0, 4, 43, 1471.585083007812
0, 4, 44, 1492.272094726562
0, 4, 45, 1516.166748046875
0, 4, 46, 1468.952026367188
0, 4, 47, 1502.289916992188
0, 4, 48, 1526.686279296875
0, 4, 49, 1470.7255859375
0, 4, 50, 1518.790893554688
0, 4, 51, 1485.517211914062
0, 4, 52, 1497.417602539062
0, 4, 53, 1453.189819335938
0, 4, 54, 1443.731201171875
0, 4, 55, 1529.833251953125
0, 4, 56, 1458.59033203125
0, 4, 57, 1496.192749023438
0, 4, 58, 1464.182250976562
0, 4, 59, 1466.421020507812
0, 4, 60, 1526.593994140625
0, 4, 61, 1503.174194335938
0, 4, 62, 1506.769165039062
0, 4, 63, 1544.926391601562
0, 4, 64, 1593.055297851562
0, 4, 65, 1424.706665039062
0, 4, 66, 1512.747436523438
0, 4, 67, 1521.947143554688
0, 4, 68, 1492.431762695312
0, 4, 69, 1466.123413085938
0, 4, 70, 1541.174438476562
0, 4, 71, 1519.325073242188
0, 4, 72, 1532.731079101562
0, 4, 73, 1501.697387695312
0, 4, 74, 1481.129150390625
0, 4, 75, 1534.373168945312
0, 4, 76, 1483.148803710938
0, 4, 77, 1500.411743164062
0, 4, 78, 1497.782470703125
0, 4, 79, 1476.864990234375
0, 4, 80, 1515.326904296875
0, 4, 81, 1519.265991210938
0, 4, 82, 1568.978149414062
0, 4, 83, 1510.736572265625
0, 4, 84, 1536.0703125
0, 4, 85, 1547.545654296875
0, 4, 86, 1522.474853515625
0, 4, 87, 1492.09814453125
0, 4, 88, 1513.649047851562
0, 4, 89, 1482.604125976562
0, 4, 90, 1543.624877929688
0, 4, 91, 1558.742431640625
0, 4, 92, 1486.474609375
0, 4, 93, 1517.93115234375
0, 4, 94, 1484.828369140625
0, 4, 95, 1512.519897460938
0, 4, 96, 1446.1875
0, 4, 97, 1413.26904296875
0, 4, 98, 1555.835327148438
0, 4, 99, 1511.739379882812
0, 4, 100, 1485.172973632812
0, 4, 101, 1448.804077148438
0, 4, 102, 1444.377075195312
0, 4, 103, 1516.493896484375
0, 4, 104, 1504.007690429688
0, 4, 105, 1555.41748046875
0, 4, 106, 1476.533935546875
0, 4, 107, 1454.66796875
0, 4, 108, 1122.744140625
0, 4, 109, 433.7049865722656
0, 4, 110, 98.59185028076172
0, 4, 111, 70.80271148681641
0, 4, 112, 60.85446166992188
0, 4, 113, 53.01161956787109
0, 4, 114, 51.93857192993164
0, 4, 115, 48.97385406494141
0, 4, 116, 38.14993667602539
0, 4, 117, 38.68766784667969
0, 4, 118, 45.08468627929688
0, 4, 119, 40.76523590087891
0, 4, 120, 38.98337173461914
0, 4, 121, 28.13672256469727
0, 4, 122, 35.20323944091797
0, 4, 123, 27.35008239746094
0, 4, 124, 22.09122085571289
0, 4, 125, 26.94408416748047
0, 4, 126, 19.71765899658203
0, 4, 127, 17.90278625488281
0, 5, 0, 24.08209228515625
0, 5, 1, 25.95113372802734
0, 5, 2, 30.24081230163574
0, 5, 3, 24.10892677307129
0, 5, 4, 21.83112525939941
0, 5, 5, 33.88028717041016
0, 5, 6, 32.20132446289062
0, 5, 7, 29.61437606811523
0, 5, 8, 28.63296127319336
0, 5, 9, 29.67465019226074
0, 5, 10, 33.38364791870117
0, 5, 11, 39.39629745483398
0, 5, 12, 37.91724395751953
0, 5, 13, 44.21000289916992
0, 5, 14, 64.1168212890625
0, 5, 15, 78.37519836425781
0, 5, 16, 80.1741943359375
0, 5, 17, 157.1338043212891
0, 5, 18, 675.1403198242188
0, 5, 19, 1341.921142578125
0, 5, 20, 1523.483154296875
0, 5, 21, 1493.540161132812
0, 5, 22, 1497.165893554688
0, 5, 23, 1528.262939453125
0, 5, 24, 1465.481323242188
0, 5, 25, 1423.4365234375
0, 5, 26, 1530.065307617188
0, 5, 27, 1542.764892578125
0, 5, 28, 1494.45263671875
0, 5, 29, 1520.269775390625
0, 5, 30, 1493.763671875
0, 5, 31, 1499.80712890625
0, 5, 32, 1598.201538085938
0, 5, 33, 1502.934326171875
0, 5, 34, 1488.757446289062
0, 5, 35, 1514.206665039062
0, 5, 36, 1444.835327148438
0, 5, 37, 1534.423950195312
0, 5, 38, 1547.557861328125
0, 5, 39, 1543.480102539062
0, 5, 40, 1496.456787109375
0, 5, 41, 1483.81640625
0, 5, 42, 1540.439208984375
0, 5, 43, 1533.348999023438
0, 5, 44, 1539.17431640625
0, 5, 45, 1508.745361328125
0, 5, 46, 1492.627319335938
0, 5, 47, 1479.475830078125
0, 5, 48, 1504.489501953125
0, 5, 49, 1523.935302734375
0, 5, 50, 1502.436645507812
0, 5, 51, 1518.310791015625
0, 5, 52, 1429.238647460938
0, 5, 53, 1522.56640625
0, 5, 54, 1519.012084960938
0, 5, 55, 1525.39453125
0, 5, 56, 1488.154907226562
0, 5, 57, 1537.523803710938
0, 5, 58, 1507.663940429688
0, 5, 59, 1485.723754882812
0, 5, 60, 1538.209594726562
0, 5, 61, 1449.330078125
0, 5, 62, 1580.033569335938
0, 5, 63, 1435.084594726562
0, 5, 64, 1484.914184570312
0, 5, 65, 1463.900146484375
0, 5, 66, 1527.029541015625
0, 5, 67, 1562.38671875
0, 5, 68, 1466.319213867188
0, 5, 69, 1482.55712890625
0, 5, 70, 1487.000854492188
0, 5, 71, 1469.720825195312
0, 5, 72, 1544.081909179688
0, 5, 73, 1457.925048828125
0, 5, 74, 1496.808349609375
0, 5, 75, 1489.656372070312
0, 5, 76, 1475.103149414062
0, 5, 77, 1519.709228515625
0, 5, 78, 1528.770263671875
0, 5, 79, 1513.6337890625
0, 5, 80, 1516.9951171875
0, 5, 81, 1593.169921875
0, 5, 82, 1522.47216796875
0, 5, 83, 1490.9189453125
0, 5, 84, 1531.377563476562
0, 5, 85, 1515.466674804688
0, 5, 86, 1555.571533203125
0, 5, 87, 1473.276977539062
0, 5, 88, 1496.35400390625
0, 5, 89, 1478.09912109375
0, 5, 90, 1482.58544921875
0, 5, 91, 1550.977172851562
0, 5, 92, 1484.143432617188
0, 5, 93, 1557.432373046875
0, 5, 94, 1518.709838867188
0, 5, 95, 1559.637451171875
0, 5, 96, 1497.528076171875
0, 5, 97, 1505.433837890625
0, 5, 98, 1510.762451171875
0, 5, 99, 1540.487670898438
0, 5, 100, 1438.029174804688
0, 5, 101, 1427.1171875
0, 5, 102, 1513.675903320312
0, 5, 103, 1473.704833984375
0, 5, 104, 1459.459716796875
0, 5, 105, 1490.428100585938
0, 5, 106, 1456.53369140625
0, 5, 107, 1398.94384765625
0, 5, 108, 1296.184448242188
0, 5, 109, 722.9931030273438
0, 5, 110, 193.9956512451172
0, 5, 111, 92.49806213378906
0, 5, 112, 82.63678741455078
0, 5, 113, 63.22779846191406
0, 5, 114, 55.32052230834961
0, 5, 115, 51.30716323852539
0, 5, 116, 42.36985015869141
0, 5, 117, 34.4421501159668
0, 5, 118, 42.21687316894531
0, 5, 119, 27.78523063659668
0, 5, 120, 25.46429824829102
0, 5, 121, 23.91913986206055
0, 5, 122, 30.22486877441406
0, 5, 123, 26.3603572845459
0, 5, 124, 31.20539474487305
0, 5, 125, 21.09718132019043
0, 5, 126, 25.51013946533203
0, 5, 127, 23.52877044677734
0, 6, 0, 23.70440864562988
0, 6, 1, 26.02197647094727
0, 6, 2, 29.38663673400879
0, 6, 3, 29.69586753845215
0, 6, 4, 26.41774749755859
0, 6, 5, 35.05757904052734
0, 6, 6, 35.52705383300781
0, 6, 7, 32.14271545410156
0, 6, 8, 33.96694946289062
0, 6, 9, 32.75887680053711
0, 6, 10, 38.10276794433594
0, 6, 11, 41.18813705444336
0, 6, 12, 39.32878875732422
0, 6, 13, 57.53473281860352
0, 6, 14, 68.48213958740234
0, 6, 15, 85.79147338867188
0, 6, 16, 109.4115447998047
0, 6, 17, 295.3126220703125
0, 6, 18, 898.6636962890625
0, 6, 19, 1377.045288085938
0, 6, 20, 1441.35546875
0, 6, 21, 1529.532348632812
0, 6, 22, 1505.932373046875
0, 6, 23, 1533.753662109375
0, 6, 24, 1477.4853515625
0, 6, 25, 1528.130859375
0, 6, 26, 1515.455078125
0, 6, 27, 1521.725830078125
0, 6, 28, 1548.7607421875
0, 6, 29, 1574.140502929688
0, 6, 30, 1514.297973632812
0, 6, 31, 1492.482055664062
0, 6, 32, 1528.0791015625
0, 6, 33, 1487.5693359375
0, 6, 34, 1564.435668945312
0, 6, 35, 1502.898681640625
0, 6, 36, 1438.8203125
0, 6, 37, 1544.872924804688
0, 6, 38, 1524.259643554688
0, 6, 39, 1525.376953125
0, 6, 40, 1458.778198242188
0, 6, 41, 1438.87060546875
0, 6, 42, 1516.064697265625
0, 6, 43, 1484.2236328125
0, 6, 44, 1430.304809570312
0, 6, 45, 1547.984375
0, 6, 46, 1559.503295898438
0, 6, 47, 1499.066284179688
0, 6, 48, 1527.138305664062
0, 6, 49, 1507.854614257812
0, 6, 50, 1579.499267578125
0, 6, 51, 1503.644897460938
0, 6, 52, 1566.906005859375
0, 6, 53, 1476.957275390625
0, 6, 54, 1503.5986328125
0, 6, 55, 1570.279052734375
0, 6, 56, 1521.750610351562
0, 6, 57, 1504.813720703125
0, 6, 58, 1468.830322265625
0, 6, 59, 1521.905151367188
0, 6, 60, 1469.926025390625
0, 6, 61, 1575.376098632812
0, 6, 62, 1543.912475585938
0, 6, 63, 1495.06201171875
0, 6, 64, 1406.507080078125
0, 6, 65, 1497.42578125
0, 6, 66, 1508.008544921875
0, 6, 67, 1514.334716796875
0, 6, 68, 1543.428955078125
0, 6, 69, 1486.138793945312
0, 6, 70, 1522.75830078125
0, 6, 71, 1466.584350585938
0, 6, 72, 1597.47998046875
0, 6, 73, 1484.93505859375
0, 6, 74, 1561.493896484375
0, 6, 75, 1536.657592773438
0, 6, 76, 1570.534790039062
0, 6, 77, 1502.339599609375
0, 6, 78, 1443.102172851562
0, 6, 79, 1553.830932617188
0, 6, 80, 1480.160278320312
0, 6, 81, 1482.169555664062
0, 6, 82, 1505.838256835938
0, 6, 83, 1528.915283203125
0, 6, 84, 1521.05859375
0, 6, 85, 1537.354248046875
0, 6, 86, 1543.875366210938
0, 6, 87, 1574.347778320312
0, 6, 88, 1480.446533203125
0, 6, 89, 1568.090454101562
0, 6, 90, 1495.049072265625
0, 6, 91, 1538.465454101562
0, 6, 92, 1486.490478515625
0, 6, 93, 1498.607788085938
0, 6, 94, 1468.4951171875
0, 6, 95, 1510.173461914062
0, 6, 96, 1515.926147460938
0, 6, 97, 1505.193115234375
0, 6, 98, 1498.761840820312
0, 6, 99, 1480.002075195312
0, 6, 100, 1522.298095703125
0, 6, 101, 1521.642456054688
0, 6, 102, 1537.37060546875
0, 6, 103, 1502.346313476562
0, 6, 104, 1465.44189453125
0, 6, 105, 1484.766235351562
0, 6, 106, 1498.63232421875
0, 6, 107, 1497.476684570312
0, 6, 108, 1406.644775390625
0, 6, 109, 920.6260375976562
0, 6, 110, 282.3903198242188
0, 6, 111, 97.77665710449219
0, 6, 112, 77.75037384033203
0, 6, 113, 57.10723495483398
0, 6, 114, 57.70012664794922
0, 6, 115, 48.82686233520508
0, 6, 116, 42.67068099975586
0, 6, 117, 36.64321517944336
0, 6, 118, 38.19291305541992
0, 6, 119, 35.21437454223633
0, 6, 120, 33.54720306396484
0, 6, 121, 30.9671745300293
0, 6, 122, 25.87623405456543
0, 6, 123, 28.43205261230469
0, 6, 124, 29.84865570068359
0, 6, 125, 31.74737739562988
0, 6, 126, 22.70110511779785
0, 6, 127, 25.14775848388672
0, 7, 0, 21.28167152404785
0, 7, 1, 26.67858695983887
0, 7, 2, 23.27378463745117
0, 7, 3, 23.92777633666992
0, 7, 4, 23.02450752258301
0, 7, 5, 37.71923828125
0, 7, 6, 32.65253829956055
0, 7, 7, 33.91666412353516
0, 7, 8, 27.01062965393066
0, 7, 9, 29.22346496582031
0, 7, 10, 46.44470977783203
0, 7, 11, 45.42626571655273
0, 7, 12, 45.83421325683594
0, 7, 13, 49.33077239990234
0, 7, 14, 62.4363899230957
0, 7, 15, 78.28691101074219
0, 7, 16, 128.7725372314453
0, 7, 17, 460.6141357421875
0, 7, 18, 1098.49169921875
0, 7, 19, 1499.706665039062
0, 7, 20, 1487.486572265625
0, 7, 21, 1368.412841796875
0, 7, 22, 1488.56787109375
0, 7, 23, 1458.2890625
0, 7, 24, 1510.647094726562
0, 7, 25, 1592.607055664062
0, 7, 26, 1516.484008789062
0, 7, 27, 1512.578491210938
0, 7, 28, 1538.525512695312
0, 7, 29, 1579.132568359375
0, 7, 30, 1550.603759765625
0, 7, 31, 1438.251342773438
0, 7, 32, 1541.724487304688
0, 7, 33, 1493.491821289062
0, 7, 34, 1480.63427734375
0, 7, 35, 1517.122192382812
0, 7, 36, 1471.494262695312
0, 7, 37, 1596.466796875
0, 7, 38, 1500.683471679688
0, 7, 39, 1492.865356445312
0, 7, 40, 1545.377197265625
0, 7, 41, 1463.546752929688
0, 7, 42, 1491.748657226562
0, 7, 43, 1446.500732421875
0, 7, 44, 1488.482055664062
0, 7, 45, 1468.409301757812
0, 7, 46, 1510.097900390625
0, 7, 47, 1564.4091796875
0, 7, 48, 1523.755737304688
0, 7, 49, 1538.45361328125
0, 7, 50, 1515.606201171875
0, 7, 51, 1499.69482421875
0, 7, 52, 1516.755493164062
0, 7, 53, 1497.779174804688
0, 7, 54, 1590.06982421875
0, 7, 55, 1471.493041992188
0, 7, 56, 1550.743286132812
0, 7, 57, 1512.6162109375
0, 7, 58, 1546.404907226562
0, 7, 59, 1542.543334960938
0, 7, 60, 1547.412841796875
0, 7, 61, 1491.337158203125
0, 7, 62, 1433.002807617188
0, 7, 63, 1509.872436523438
0, 7, 64, 1545.8544921875
0, 7, 65, 1529.458129882812
0, 7, 66, 1534.412841796875
0, 7, 67, 1581.588745117188
0, 7, 68, 1532.173950195312
0, 7, 69, 1514.411499023438
0, 7, 70, 1498.792846679688
0, 7, 71, 1523.85009765625
0, 7, 72, 1522.255859375
0, 7, 73, 1510.332763671875
0, 7, 74, 1572.2001953125
0, 7, 75, 1542.048828125
0, 7, 76, 1565.228759765625
0, 7, 77, 1513.742919921875
0, 7, 78, 1509.254760742188
0, 7, 79, 1421.950805664062
0, 7, 80, 1490.890502929688
0, 7, 81, 1493.477172851562
0, 7, 82, 1537.62060546875
0, 7, 83, 1543.3505859375
0, 7, 84, 1584.788696289062
0, 7, 85, 1477.525390625
0, 7, 86, 1503.114501953125
0, 7, 87, 1506.896362304688
0, 7, 88, 1493.990112304688
0, 7, 89, 1558.813110351562
0, 7, 90, 1523.113891601562
0, 7, 91, 1565.63720703125
0, 7, 92, 1530.942504882812
0, 7, 93, 1552.223022460938
0, 7, 94, 1537.424072265625
0, 7, 95, 1505.616943359375
0, 7, 96, 1507.567260742188
0, 7, 97, 1431.318237304688
0, 7, 98, 1483.012329101562
0, 7, 99, 1528.094360351562
0, 7, 100, 1417.866943359375
0, 7, 101, 1467.427978515625
0, 7, 102, 1451.945434570312
0, 7, 103, 1435.708984375
0, 7, 104, 1491.998291015625
0, 7, 105, 1522.754028320312
0, 7, 106, 1565.778198242188
0, 7, 107, 1479.190673828125
0, 7, 108, 1410.71484375
0, 7, 109, 1141.205322265625
0, 7, 110, 477.07568359375
0, 7, 111, 126.8496246337891
0, 7, 112, 76.70404052734375
0, 7, 113, 67.10291290283203
0, 7, 114, 56.45473480224609
0, 7, 115, 44.56962966918945
0, 7, 116, 46.34176635742188
0, 7, 117, 43.87844467163086
0, 7, 118, 35.6097526550293
0, 7, 119, 36.73602676391602
0, 7, 120, 21.48476791381836
0, 7, 121, 29.63076972961426
0, 7, 122, 34.93294525146484
0, 7, 123, 31.51605796813965
0, 7, 124, 30.96942138671875
0, 7, 125, 25.04171943664551
0, 7, 126, 25.01127815246582
0, 7, 127, 22.12596702575684
0, 8, 0, 20.39667701721191
0, 8, 1, 21.93435668945312
0, 8, 2, 21.17688751220703
0, 8, 3, 23.2550048828125
0, 8, 4, 22.90742111206055
0, 8, 5, 36.94608688354492
0, 8, 6, 26.48417663574219
0, 8, 7, 25.16599082946777
0, 8, 8, 30.8886775970459
0, 8, 9, 48.09685516357422
0, 8, 10, 38.97107315063477
0, 8, 11, 42.29682540893555
0, 8, 12, 53.39908599853516
0, 8, 13, 77.31873321533203
0, 8, 14, 66.18975067138672
0, 8, 15, 88.58770751953125
0, 8, 16, 173.0412292480469
0, 8, 17, 677.4667358398438
0, 8, 18, 1279.458984375
0, 8, 19, 1442.048828125
0, 8, 20, 1418.726684570312
0, 8, 21, 1418.422119140625
0, 8, 22, 1485.079223632812
0, 8, 23, 1481.163208007812
0, 8, 24, 1434.788818359375
0, 8, 25, 1459.204956054688
0, 8, 26, 1514.750366210938
0, 8, 27, 1522.150268554688
0, 8, 28, 1474.257080078125
0, 8, 29, 1500.086059570312
0, 8, 30, 1493.734619140625
0, 8, 31, 1537.297119140625
0, 8, 32, 1514.274047851562
0, 8, 33, 1481.847412109375
0, 8, 34, 1532.563842773438
0, 8, 35, 1436.908203125
0, 8, 36, 1497.214233398438
0, 8, 37, 1556.668579101562
0, 8, 38, 1550.322875976562
0, 8, 39, 1493.146850585938
0, 8, 40, 1526.91015625
0, 8, 41, 1484.318481445312
0, 8, 42, 1539.137573242188
0, 8, 43, 1436.135620117188
0, 8, 44, 1531.915161132812
0, 8, 45, 1515.107421875
0, 8, 46, 1595.895385742188
0, 8, 47, 1584.389038085938
