# TOPAS Version: 3.1.p3
# Parameter File: batch_inserts_120.txt
# Results for scorer Readout_Adipose
# Scored in component: MyBox
# X in 1 bin  of 0.75 cm
# Y in 512 bins of 0.0783984 cm
# Z in 128 bins of 0.078125 cm
# EnergyDeposit ( MeV ) : Sum   
0, 0, 0, 4.419151782989502
0, 0, 1, 3.533748388290405
0, 0, 2, 4.129780769348145
0, 0, 3, 3.075810432434082
0, 0, 4, 3.808315515518188
0, 0, 5, 1.800820350646973
0, 0, 6, 6.097161769866943
0, 0, 7, 8.833456039428711
0, 0, 8, 2.120480537414551
0, 0, 9, 4.983715057373047
0, 0, 10, 6.921013355255127
0, 0, 11, 4.607973098754883
0, 0, 12, 4.438408374786377
0, 0, 13, 5.578312873840332
0, 0, 14, 6.984734058380127
0, 0, 15, 9.276632308959961
0, 0, 16, 8.544200897216797
0, 0, 17, 9.021157264709473
0, 0, 18, 14.35613441467285
0, 0, 19, 44.03467178344727
0, 0, 20, 139.00634765625
0, 0, 21, 223.4963836669922
0, 0, 22, 248.24072265625
0, 0, 23, 256.6910400390625
0, 0, 24, 251.9570770263672
0, 0, 25, 257.8637084960938
0, 0, 26, 235.2623138427734
0, 0, 27, 236.4104919433594
0, 0, 28, 270.6257019042969
0, 0, 29, 252.01220703125
0, 0, 30, 230.9343719482422
0, 0, 31, 243.6356658935547
0, 0, 32, 263.3411560058594
0, 0, 33, 263.5677490234375
0, 0, 34, 287.5608215332031
0, 0, 35, 270.2797546386719
0, 0, 36, 247.5666198730469
0, 0, 37, 252.7674255371094
0, 0, 38, 269.8590393066406
0, 0, 39, 229.2698822021484
0, 0, 40, 242.2776336669922
0, 0, 41, 268.3124694824219
0, 0, 42, 229.1380157470703
0, 0, 43, 258.4278259277344
0, 0, 44, 252.280517578125
0, 0, 45, 252.4842376708984
0, 0, 46, 244.2484893798828
0, 0, 47, 252.2499694824219
0, 0, 48, 264.9786376953125
0, 0, 49, 273.9115600585938
0, 0, 50, 251.6008758544922
0, 0, 51, 255.7044525146484
0, 0, 52, 273.9842224121094
0, 0, 53, 291.3543395996094
0, 0, 54, 240.5933532714844
0, 0, 55, 241.1889190673828
0, 0, 56, 279.2532653808594
0, 0, 57, 263.0993347167969
0, 0, 58, 245.9081115722656
0, 0, 59, 270.4690246582031
0, 0, 60, 235.0366973876953
0, 0, 61, 245.2311553955078
0, 0, 62, 256.2322998046875
0, 0, 63, 268.0342407226562
0, 0, 64, 254.1858062744141
0, 0, 65, 260.6034240722656
0, 0, 66, 276.2786254882812
0, 0, 67, 245.2951812744141
0, 0, 68, 257.8834533691406
0, 0, 69, 261.02294921875
0, 0, 70, 274.0254211425781
0, 0, 71, 239.9480895996094
0, 0, 72, 250.1072235107422
0, 0, 73, 259.8660583496094
0, 0, 74, 252.23388671875
0, 0, 75, 241.9544372558594
0, 0, 76, 229.4361114501953
0, 0, 77, 261.0214538574219
0, 0, 78, 258.4423522949219
0, 0, 79, 279.581298828125
0, 0, 80, 218.6172180175781
0, 0, 81, 267.1668395996094
0, 0, 82, 256.1605834960938
0, 0, 83, 244.9863891601562
0, 0, 84, 269.8652954101562
0, 0, 85, 232.6474914550781
0, 0, 86, 253.2209625244141
0, 0, 87, 250.6291046142578
0, 0, 88, 259.2948303222656
0, 0, 89, 282.5024108886719
0, 0, 90, 244.6934661865234
0, 0, 91, 282.7997131347656
0, 0, 92, 255.8357086181641
0, 0, 93, 248.3218383789062
0, 0, 94, 249.0896148681641
0, 0, 95, 248.8607482910156
0, 0, 96, 275.6544494628906
0, 0, 97, 272.1393432617188
0, 0, 98, 273.4677124023438
0, 0, 99, 259.128662109375
0, 0, 100, 258.9885559082031
0, 0, 101, 226.2249450683594
0, 0, 102, 233.7168884277344
0, 0, 103, 268.3440551757812
0, 0, 104, 253.5463714599609
0, 0, 105, 251.9174652099609
0, 0, 106, 247.3125305175781
0, 0, 107, 151.9574890136719
0, 0, 108, 39.89230728149414
0, 0, 109, 12.14132595062256
0, 0, 110, 13.54374504089355
0, 0, 111, 10.99535083770752
0, 0, 112, 9.575106620788574
0, 0, 113, 4.34431266784668
0, 0, 114, 6.545608520507812
0, 0, 115, 3.589891195297241
0, 0, 116, 5.147658348083496
0, 0, 117, 6.93655252456665
0, 0, 118, 5.563812732696533
0, 0, 119, 4.990496635437012
0, 0, 120, 3.562275648117065
0, 0, 121, 3.065951108932495
0, 0, 122, 5.205819129943848
0, 0, 123, 2.972683191299438
0, 0, 124, 4.725439071655273
0, 0, 125, 4.248268127441406
0, 0, 126, 5.041394710540771
0, 0, 127, 2.695725202560425
0, 1, 0, 7.70240592956543
0, 1, 1, 2.046756505966187
0, 1, 2, 3.818016052246094
0, 1, 3, 1.617751836776733
0, 1, 4, 2.49148964881897
0, 1, 5, 4.919175148010254
0, 1, 6, 4.35516357421875
0, 1, 7, 5.440423011779785
0, 1, 8, 8.442670822143555
0, 1, 9, 4.940430641174316
0, 1, 10, 8.935907363891602
0, 1, 11, 13.28796672821045
0, 1, 12, 8.13971996307373
0, 1, 13, 9.13428783416748
0, 1, 14, 8.811596870422363
0, 1, 15, 7.735506057739258
0, 1, 16, 13.04950714111328
0, 1, 17, 12.49404144287109
0, 1, 18, 20.66738891601562
0, 1, 19, 67.40738677978516
0, 1, 20, 197.9868927001953
0, 1, 21, 255.4098968505859
0, 1, 22, 294.9477844238281
0, 1, 23, 283.8395385742188
0, 1, 24, 275.1814880371094
0, 1, 25, 290.4599914550781
0, 1, 26, 269.7107238769531
0, 1, 27, 306.7127685546875
0, 1, 28, 299.0182800292969
0, 1, 29, 296.9330139160156
0, 1, 30, 283.26220703125
0, 1, 31, 289.7655029296875
0, 1, 32, 289.6735229492188
0, 1, 33, 294.7537231445312
0, 1, 34, 291.8147277832031
0, 1, 35, 277.9852294921875
0, 1, 36, 306.5987243652344
0, 1, 37, 295.7660827636719
0, 1, 38, 279.1865234375
0, 1, 39, 294.5729064941406
0, 1, 40, 267.5695495605469
0, 1, 41, 285.8964538574219
0, 1, 42, 290.2082824707031
0, 1, 43, 332.8992614746094
0, 1, 44, 277.1742858886719
0, 1, 45, 293.3629150390625
0, 1, 46, 257.8541259765625
0, 1, 47, 311.788818359375
0, 1, 48, 285.4801940917969
0, 1, 49, 302.3861389160156
0, 1, 50, 262.0062255859375
0, 1, 51, 271.6730346679688
0, 1, 52, 293.9201965332031
0, 1, 53, 304.1314697265625
0, 1, 54, 273.6413879394531
0, 1, 55, 292.0444641113281
0, 1, 56, 277.9539794921875
0, 1, 57, 297.7985534667969
0, 1, 58, 309.2934875488281
0, 1, 59, 291.7021789550781
0, 1, 60, 297.2875061035156
0, 1, 61, 273.5540466308594
0, 1, 62, 308.9388122558594
0, 1, 63, 285.5903625488281
0, 1, 64, 288.6453552246094
0, 1, 65, 294.832763671875
0, 1, 66, 294.3330688476562
0, 1, 67, 291.4176330566406
0, 1, 68, 277.7759704589844
0, 1, 69, 279.6766662597656
0, 1, 70, 271.4865112304688
0, 1, 71, 273.469970703125
0, 1, 72, 285.5200500488281
0, 1, 73, 305.9947509765625
0, 1, 74, 306.4364929199219
0, 1, 75, 293.3683776855469
0, 1, 76, 285.2716369628906
0, 1, 77, 289.4577941894531
0, 1, 78, 297.8275146484375
0, 1, 79, 302.6856994628906
0, 1, 80, 296.8771667480469
0, 1, 81, 299.0965881347656
0, 1, 82, 281.3656005859375
0, 1, 83, 330.6307983398438
0, 1, 84, 308.1867065429688
0, 1, 85, 256.73583984375
0, 1, 86, 293.6321716308594
0, 1, 87, 292.5854187011719
0, 1, 88, 298.7619934082031
0, 1, 89, 290.7468872070312
0, 1, 90, 270.8580017089844
0, 1, 91, 317.4349060058594
0, 1, 92, 290.5914306640625
0, 1, 93, 285.5162353515625
0, 1, 94, 304.0027465820312
0, 1, 95, 283.6941223144531
0, 1, 96, 284.2348937988281
0, 1, 97, 301.7447814941406
0, 1, 98, 277.0654602050781
0, 1, 99, 268.190673828125
0, 1, 100, 277.1827697753906
0, 1, 101, 280.71240234375
0, 1, 102, 277.6580200195312
0, 1, 103, 281.4733276367188
0, 1, 104, 307.1051330566406
0, 1, 105, 296.2127380371094
0, 1, 106, 261.2389831542969
0, 1, 107, 190.7453460693359
0, 1, 108, 80.62760925292969
0, 1, 109, 24.17860412597656
0, 1, 110, 11.78591251373291
0, 1, 111, 10.63787841796875
0, 1, 112, 11.76862907409668
0, 1, 113, 4.879714012145996
0, 1, 114, 6.854940414428711
0, 1, 115, 7.280213356018066
0, 1, 116, 12.88267230987549
0, 1, 117, 6.611878395080566
0, 1, 118, 5.643511772155762
0, 1, 119, 4.4640212059021
0, 1, 120, 5.814407825469971
0, 1, 121, 5.966760158538818
0, 1, 122, 4.250713348388672
0, 1, 123, 2.397625684738159
0, 1, 124, 8.867021560668945
0, 1, 125, 3.231255054473877
0, 1, 126, 2.103326797485352
0, 1, 127, 0.4943066239356995
0, 2, 0, 5.314993858337402
0, 2, 1, 2.024412631988525
0, 2, 2, 4.368834495544434
0, 2, 3, 6.22059965133667
0, 2, 4, 2.49364161491394
0, 2, 5, 1.733101010322571
0, 2, 6, 1.900008320808411
0, 2, 7, 5.92427396774292
0, 2, 8, 5.23029088973999
0, 2, 9, 5.759826183319092
0, 2, 10, 7.945685863494873
0, 2, 11, 6.808469295501709
0, 2, 12, 6.732804775238037
0, 2, 13, 9.764707565307617
0, 2, 14, 11.91889476776123
0, 2, 15, 8.118570327758789
0, 2, 16, 7.928623676300049
0, 2, 17, 15.74848461151123
0, 2, 18, 31.4424934387207
0, 2, 19, 113.9793548583984
0, 2, 20, 246.5153961181641
0, 2, 21, 270.2766418457031
0, 2, 22, 316.4227294921875
0, 2, 23, 299.4798278808594
0, 2, 24, 288.2335205078125
0, 2, 25, 301.7760314941406
0, 2, 26, 292.5191650390625
0, 2, 27, 274.8663635253906
0, 2, 28, 273.1157531738281
0, 2, 29, 274.2609252929688
0, 2, 30, 290.9109802246094
0, 2, 31, 278.18310546875
0, 2, 32, 293.8809204101562
0, 2, 33, 280.6363830566406
0, 2, 34, 332.6446228027344
0, 2, 35, 288.4306640625
0, 2, 36, 303.9299011230469
0, 2, 37, 315.6447448730469
0, 2, 38, 309.9728393554688
0, 2, 39, 266.5713195800781
0, 2, 40, 307.9070434570312
0, 2, 41, 296.8959045410156
0, 2, 42, 304.1668090820312
0, 2, 43, 314.0721740722656
0, 2, 44, 313.195068359375
0, 2, 45, 325.8865356445312
0, 2, 46, 285.8814392089844
0, 2, 47, 302.6252136230469
0, 2, 48, 281.6351623535156
0, 2, 49, 280.9347229003906
0, 2, 50, 296.6257629394531
0, 2, 51, 282.0126342773438
0, 2, 52, 275.9149475097656
0, 2, 53, 286.2812194824219
0, 2, 54, 280.3829956054688
0, 2, 55, 276.3465270996094
0, 2, 56, 302.5016174316406
0, 2, 57, 291.63232421875
0, 2, 58, 300.2554931640625
0, 2, 59, 289.44482421875
0, 2, 60, 320.3273315429688
0, 2, 61, 302.4051208496094
0, 2, 62, 312.4077758789062
0, 2, 63, 302.0162963867188
0, 2, 64, 297.5471496582031
0, 2, 65, 315.1014099121094
0, 2, 66, 280.1513671875
0, 2, 67, 291.4052429199219
0, 2, 68, 295.4962768554688
0, 2, 69, 312.0273742675781
0, 2, 70, 334.2459106445312
0, 2, 71, 283.6892700195312
0, 2, 72, 305.923828125
0, 2, 73, 310.3737182617188
0, 2, 74, 285.2133483886719
0, 2, 75, 306.5794982910156
0, 2, 76, 287.9759216308594
0, 2, 77, 299.8037414550781
0, 2, 78, 315.9293518066406
0, 2, 79, 308.805908203125
0, 2, 80, 296.6931457519531
0, 2, 81, 283.7930908203125
0, 2, 82, 320.6116333007812
0, 2, 83, 311.8887329101562
0, 2, 84, 287.0367736816406
0, 2, 85, 279.8137512207031
0, 2, 86, 326.6118469238281
0, 2, 87, 287.1417846679688
0, 2, 88, 280.0906677246094
0, 2, 89, 295.5686950683594
0, 2, 90, 295.0025024414062
0, 2, 91, 277.18408203125
0, 2, 92, 306.619384765625
0, 2, 93, 320.0153503417969
0, 2, 94, 292.4962768554688
0, 2, 95, 314.5751037597656
0, 2, 96, 314.5102844238281
0, 2, 97, 291.395263671875
0, 2, 98, 291.7176208496094
0, 2, 99, 274.2138977050781
0, 2, 100, 306.7803039550781
0, 2, 101, 300.8630981445312
0, 2, 102, 297.2559509277344
0, 2, 103, 292.7589721679688
0, 2, 104, 293.5860595703125
0, 2, 105, 273.0338745117188
0, 2, 106, 295.7318725585938
0, 2, 107, 269.1448669433594
0, 2, 108, 115.4112930297852
0, 2, 109, 34.11816787719727
0, 2, 110, 10.68284893035889
0, 2, 111, 12.93778133392334
0, 2, 112, 8.257131576538086
0, 2, 113, 10.17690944671631
0, 2, 114, 9.960878372192383
0, 2, 115, 10.14853191375732
0, 2, 116, 7.282551288604736
0, 2, 117, 7.325991630554199
0, 2, 118, 1.836114048957825
0, 2, 119, 3.172127723693848
0, 2, 120, 5.728745460510254
0, 2, 121, 3.141151428222656
0, 2, 122, 6.038046836853027
0, 2, 123, 6.001221179962158
0, 2, 124, 3.612858057022095
0, 2, 125, 5.103806495666504
0, 2, 126, 3.789249897003174
0, 2, 127, 5.634559631347656
0, 3, 0, 2.738546848297119
0, 3, 1, 4.273614883422852
0, 3, 2, 3.079633235931396
0, 3, 3, 1.210888624191284
0, 3, 4, 3.458635568618774
0, 3, 5, 6.903446197509766
0, 3, 6, 6.576249599456787
0, 3, 7, 4.438893795013428
0, 3, 8, 4.93397855758667
0, 3, 9, 5.185940742492676
0, 3, 10, 7.925817012786865
0, 3, 11, 3.634662389755249
0, 3, 12, 7.21220874786377
0, 3, 13, 15.85677337646484
0, 3, 14, 14.29129314422607
0, 3, 15, 16.96027946472168
0, 3, 16, 13.01405429840088
0, 3, 17, 20.1633243560791
0, 3, 18, 52.96735382080078
0, 3, 19, 174.9812316894531
0, 3, 20, 269.3244934082031
0, 3, 21, 270.6358642578125
0, 3, 22, 283.2673034667969
0, 3, 23, 287.2659606933594
0, 3, 24, 286.8921813964844
0, 3, 25, 271.4477844238281
0, 3, 26, 303.897216796875
0, 3, 27, 292.078857421875
0, 3, 28, 282.078125
0, 3, 29, 339.8789978027344
0, 3, 30, 316.8701782226562
0, 3, 31, 287.0024719238281
0, 3, 32, 309.716796875
0, 3, 33, 313.7789916992188
0, 3, 34, 322.6023864746094
0, 3, 35, 306.8795471191406
0, 3, 36, 267.9457092285156
0, 3, 37, 311.6871643066406
0, 3, 38, 304.3210144042969
0, 3, 39, 289.65673828125
0, 3, 40, 266.9205932617188
0, 3, 41, 299.4577026367188
0, 3, 42, 284.5540161132812
0, 3, 43, 306.9632263183594
0, 3, 44, 309.9176330566406
0, 3, 45, 289.9014587402344
0, 3, 46, 329.2621765136719
0, 3, 47, 300.1205444335938
0, 3, 48, 303.6910095214844
0, 3, 49, 276.9369812011719
0, 3, 50, 292.0757446289062
0, 3, 51, 276.4321899414062
0, 3, 52, 315.6247863769531
0, 3, 53, 287.3251647949219
0, 3, 54, 284.09716796875
0, 3, 55, 285.5711975097656
0, 3, 56, 298.2169189453125
0, 3, 57, 290.9316101074219
0, 3, 58, 304.8857116699219
0, 3, 59, 296.7240600585938
0, 3, 60, 297.6576843261719
0, 3, 61, 265.1455078125
0, 3, 62, 284.8372497558594
0, 3, 63, 306.9443359375
0, 3, 64, 316.086181640625
0, 3, 65, 307.6973571777344
0, 3, 66, 314.9119873046875
0, 3, 67, 318.3406982421875
0, 3, 68, 279.3608093261719
0, 3, 69, 282.5208129882812
0, 3, 70, 288.1819763183594
0, 3, 71, 299.4508056640625
0, 3, 72, 269.4319458007812
0, 3, 73, 307.3817443847656
0, 3, 74, 291.8373413085938
0, 3, 75, 288.1640319824219
0, 3, 76, 306.7636108398438
0, 3, 77, 313.6864013671875
0, 3, 78, 304.173095703125
0, 3, 79, 282.7932434082031
0, 3, 80, 289.46142578125
0, 3, 81, 310.9363708496094
0, 3, 82, 318.578857421875
0, 3, 83, 301.5919799804688
0, 3, 84, 313.4153137207031
0, 3, 85, 294.7467346191406
0, 3, 86, 302.26513671875
0, 3, 87, 299.9688415527344
0, 3, 88, 301.4609680175781
0, 3, 89, 295.4930114746094
0, 3, 90, 278.7132263183594
0, 3, 91, 283.4525756835938
0, 3, 92, 302.7090148925781
0, 3, 93, 313.5418090820312
0, 3, 94, 296.9676818847656
0, 3, 95, 334.4779357910156
0, 3, 96, 290.1668090820312
0, 3, 97, 285.4414367675781
0, 3, 98, 278.3641357421875
0, 3, 99, 263.4172973632812
0, 3, 100, 287.05859375
0, 3, 101, 297.0132446289062
0, 3, 102, 275.8408813476562
0, 3, 103, 319.9273071289062
0, 3, 104, 309.8555297851562
0, 3, 105, 287.7899169921875
0, 3, 106, 302.0040283203125
0, 3, 107, 281.4904174804688
0, 3, 108, 167.6318664550781
0, 3, 109, 59.53793334960938
0, 3, 110, 18.59486389160156
0, 3, 111, 12.60152721405029
0, 3, 112, 11.84401512145996
0, 3, 113, 7.111413955688477
0, 3, 114, 8.730507850646973
0, 3, 115, 6.279640674591064
0, 3, 116, 9.296358108520508
0, 3, 117, 6.631326675415039
0, 3, 118, 10.65229797363281
0, 3, 119, 8.624410629272461
0, 3, 120, 7.204335689544678
0, 3, 121, 3.803503036499023
0, 3, 122, 4.724826335906982
0, 3, 123, 4.086086750030518
0, 3, 124, 6.639538764953613
0, 3, 125, 8.409359931945801
0, 3, 126, 6.13300895690918
0, 3, 127, 2.475497722625732
0, 4, 0, 3.990162372589111
0, 4, 1, 7.191295623779297
0, 4, 2, 2.243675470352173
0, 4, 3, 2.719431400299072
0, 4, 4, 6.168208599090576
0, 4, 5, 8.929689407348633
0, 4, 6, 5.867330074310303
0, 4, 7, 6.107274532318115
0, 4, 8, 4.860697746276855
0, 4, 9, 6.54742956161499
0, 4, 10, 7.664528369903564
0, 4, 11, 7.811400890350342
0, 4, 12, 5.330747604370117
0, 4, 13, 7.957230567932129
0, 4, 14, 11.94618988037109
0, 4, 15, 8.743355751037598
0, 4, 16, 13.90378379821777
0, 4, 17, 19.54836654663086
0, 4, 18, 92.86077117919922
0, 4, 19, 223.2618713378906
0, 4, 20, 285.6714477539062
0, 4, 21, 273.140625
0, 4, 22, 304.4820556640625
0, 4, 23, 266.6631164550781
0, 4, 24, 290.181396484375
0, 4, 25, 272.0600280761719
0, 4, 26, 295.4954528808594
0, 4, 27, 282.951171875
0, 4, 28, 307.1664428710938
0, 4, 29, 325.9098205566406
0, 4, 30, 308.8821716308594
0, 4, 31, 302.5846557617188
0, 4, 32, 283.0391540527344
0, 4, 33, 295.4787902832031
0, 4, 34, 296.0786437988281
0, 4, 35, 313.3816223144531
0, 4, 36, 291.8732299804688
0, 4, 37, 288.2335205078125
0, 4, 38, 299.504638671875
0, 4, 39, 295.6045837402344
0, 4, 40, 303.4930725097656
0, 4, 41, 312.9472045898438
0, 4, 42, 328.3298950195312
0, 4, 43, 297.5855712890625
0, 4, 44, 319.6559753417969
0, 4, 45, 325.736083984375
0, 4, 46, 305.8404235839844
0, 4, 47, 291.7981872558594
0, 4, 48, 293.51953125
0, 4, 49, 277.1166381835938
0, 4, 50, 296.6192626953125
0, 4, 51, 315.863037109375
0, 4, 52, 326.8650817871094
0, 4, 53, 303.6596069335938
0, 4, 54, 287.6853332519531
0, 4, 55, 314.7608947753906
0, 4, 56, 286.7133178710938
0, 4, 57, 310.7470092773438
0, 4, 58, 296.2574157714844
0, 4, 59, 307.7842407226562
0, 4, 60, 306.0580749511719
0, 4, 61, 315.078857421875
0, 4, 62, 308.9210510253906
0, 4, 63, 299.6857604980469
0, 4, 64, 328.7467041015625
0, 4, 65, 314.7878723144531
0, 4, 66, 294.0118713378906
0, 4, 67, 284.775634765625
0, 4, 68, 312.2237243652344
0, 4, 69, 276.0912170410156
0, 4, 70, 299.0387268066406
0, 4, 71, 324.2904968261719
0, 4, 72, 332.36572265625
0, 4, 73, 301.1825256347656
0, 4, 74, 293.3736877441406
0, 4, 75, 291.8318786621094
0, 4, 76, 276.1956481933594
0, 4, 77, 279.479248046875
0, 4, 78, 310.489990234375
0, 4, 79, 317.9496459960938
0, 4, 80, 317.1497497558594
0, 4, 81, 312.8324584960938
0, 4, 82, 299.1910095214844
0, 4, 83, 299.8095397949219
0, 4, 84, 290.2932739257812
0, 4, 85, 294.2263793945312
0, 4, 86, 296.304443359375
0, 4, 87, 284.5831909179688
0, 4, 88, 306.3549499511719
0, 4, 89, 293.8551330566406
0, 4, 90, 333.3921203613281
0, 4, 91, 301.5591430664062
0, 4, 92, 289.5222778320312
0, 4, 93, 296.739990234375
0, 4, 94, 291.5746459960938
0, 4, 95, 288.7911376953125
0, 4, 96, 323.8084716796875
0, 4, 97, 274.9444274902344
0, 4, 98, 326.7200927734375
0, 4, 99, 312.8098754882812
0, 4, 100, 299.5911865234375
0, 4, 101, 260.0488586425781
0, 4, 102, 294.6567993164062
0, 4, 103, 316.9017333984375
0, 4, 104, 280.528564453125
0, 4, 105, 313.4988708496094
0, 4, 106, 287.1823425292969
0, 4, 107, 294.7857666015625
0, 4, 108, 224.1924133300781
0, 4, 109, 80.37347412109375
0, 4, 110, 16.76968383789062
0, 4, 111, 13.84201335906982
0, 4, 112, 7.815735816955566
0, 4, 113, 9.822440147399902
0, 4, 114, 10.40956115722656
0, 4, 115, 9.394963264465332
0, 4, 116, 7.482781887054443
0, 4, 117, 7.998221397399902
0, 4, 118, 10.66274166107178
0, 4, 119, 7.666548728942871
0, 4, 120, 6.003052711486816
0, 4, 121, 4.395686626434326
0, 4, 122, 3.477735996246338
0, 4, 123, 5.100662231445312
0, 4, 124, 5.472941875457764
0, 4, 125, 9.040753364562988
0, 4, 126, 6.891834259033203
0, 4, 127, 5.821568489074707
0, 5, 0, 3.556911945343018
0, 5, 1, 4.154654026031494
0, 5, 2, 6.609923839569092
0, 5, 3, 4.122107028961182
0, 5, 4, 5.235988616943359
0, 5, 5, 6.775356769561768
0, 5, 6, 7.275252342224121
0, 5, 7, 5.877019882202148
0, 5, 8, 4.012053489685059
0, 5, 9, 5.671233654022217
0, 5, 10, 5.984649181365967
0, 5, 11, 9.541345596313477
0, 5, 12, 7.98090124130249
0, 5, 13, 5.516824245452881
0, 5, 14, 13.30492496490479
0, 5, 15, 18.10415840148926
0, 5, 16, 16.44996070861816
0, 5, 17, 28.03389930725098
0, 5, 18, 137.0612030029297
0, 5, 19, 287.6514587402344
0, 5, 20, 307.3392639160156
0, 5, 21, 318.9990539550781
0, 5, 22, 275.9757690429688
0, 5, 23, 310.9482421875
0, 5, 24, 302.4914245605469
0, 5, 25, 289.6878356933594
0, 5, 26, 294.5728759765625
0, 5, 27, 319.7835388183594
0, 5, 28, 303.5211486816406
0, 5, 29, 296.1983947753906
0, 5, 30, 321.9251098632812
0, 5, 31, 286.0288696289062
0, 5, 32, 303.1279602050781
0, 5, 33, 307.0939025878906
0, 5, 34, 298.2458801269531
0, 5, 35, 310.9046325683594
0, 5, 36, 272.7903137207031
0, 5, 37, 282.5348205566406
0, 5, 38, 293.8937377929688
0, 5, 39, 312.5365295410156
0, 5, 40, 308.2982177734375
0, 5, 41, 273.8734130859375
0, 5, 42, 306.7059020996094
0, 5, 43, 314.37939453125
0, 5, 44, 290.9569702148438
0, 5, 45, 301.3593444824219
0, 5, 46, 266.2318115234375
0, 5, 47, 279.8075866699219
0, 5, 48, 294.2081298828125
0, 5, 49, 287.4092407226562
0, 5, 50, 294.667236328125
0, 5, 51, 278.8201599121094
0, 5, 52, 269.6440124511719
0, 5, 53, 285.6856689453125
0, 5, 54, 293.0686340332031
0, 5, 55, 343.3901977539062
0, 5, 56, 306.0605773925781
0, 5, 57, 306.5486145019531
0, 5, 58, 311.2879028320312
0, 5, 59, 301.7612609863281
0, 5, 60, 306.5782470703125
0, 5, 61, 282.7043762207031
0, 5, 62, 325.875
0, 5, 63, 293.101806640625
0, 5, 64, 325.9547729492188
0, 5, 65, 307.9555969238281
0, 5, 66, 330.874267578125
0, 5, 67, 315.1705627441406
0, 5, 68, 308.6051025390625
0, 5, 69, 311.6872253417969
0, 5, 70, 303.1557006835938
0, 5, 71, 272.0070495605469
0, 5, 72, 311.6993713378906
0, 5, 73, 303.213623046875
0, 5, 74, 294.7837524414062
0, 5, 75, 294.0894165039062
0, 5, 76, 285.7276916503906
0, 5, 77, 297.8260803222656
0, 5, 78, 315.0371704101562
0, 5, 79, 308.4953918457031
0, 5, 80, 295.0187072753906
0, 5, 81, 325.1711120605469
0, 5, 82, 323.979248046875
0, 5, 83, 279.8368530273438
0, 5, 84, 301.4860534667969
0, 5, 85, 272.5222778320312
0, 5, 86, 326.6466674804688
0, 5, 87, 284.0479431152344
0, 5, 88, 313.5667114257812
0, 5, 89, 305.5414123535156
0, 5, 90, 316.8247375488281
0, 5, 91, 314.6808776855469
0, 5, 92, 296.6251525878906
0, 5, 93, 322.7659912109375
0, 5, 94, 306.7708435058594
0, 5, 95, 295.3572387695312
0, 5, 96, 296.4811096191406
0, 5, 97, 296.0341491699219
0, 5, 98, 320.6208801269531
0, 5, 99, 301.3906555175781
0, 5, 100, 289.8348083496094
0, 5, 101, 304.5785827636719
0, 5, 102, 292.2005920410156
0, 5, 103, 312.466064453125
0, 5, 104, 300.5490112304688
0, 5, 105, 290.8998718261719
0, 5, 106, 283.4723815917969
0, 5, 107, 294.1227111816406
0, 5, 108, 264.4574890136719
0, 5, 109, 157.5401458740234
0, 5, 110, 39.60121536254883
0, 5, 111, 22.57576942443848
0, 5, 112, 19.30499839782715
0, 5, 113, 13.29065132141113
0, 5, 114, 13.90513134002686
0, 5, 115, 7.077052593231201
0, 5, 116, 7.997100830078125
0, 5, 117, 6.47440767288208
0, 5, 118, 12.03259563446045
0, 5, 119, 3.253626346588135
0, 5, 120, 5.923775672912598
0, 5, 121, 6.357598781585693
0, 5, 122, 4.916776180267334
0, 5, 123, 4.048244953155518
0, 5, 124, 5.934117794036865
0, 5, 125, 5.395787239074707
0, 5, 126, 4.689982414245605
0, 5, 127, 4.750613689422607
0, 6, 0, 5.001701831817627
0, 6, 1, 2.849189519882202
0, 6, 2, 4.798147201538086
0, 6, 3, 4.492915153503418
0, 6, 4, 4.194546699523926
0, 6, 5, 4.942909240722656
0, 6, 6, 6.923150062561035
0, 6, 7, 5.771768093109131
0, 6, 8, 7.396019458770752
0, 6, 9, 8.626595497131348
0, 6, 10, 7.867923736572266
0, 6, 11, 10.64166736602783
0, 6, 12, 8.785565376281738
0, 6, 13, 12.55975723266602
0, 6, 14, 10.99425506591797
0, 6, 15, 15.93770980834961
0, 6, 16, 28.14602851867676
0, 6, 17, 54.14469528198242
0, 6, 18, 171.6472778320312
0, 6, 19, 274.5652770996094
0, 6, 20, 290.7531127929688
0, 6, 21, 314.326904296875
0, 6, 22, 319.3380126953125
0, 6, 23, 306.3474731445312
0, 6, 24, 318.6338500976562
0, 6, 25, 316.3122253417969
0, 6, 26, 319.9833679199219
0, 6, 27, 332.3500366210938
0, 6, 28, 296.4496765136719
0, 6, 29, 333.0747985839844
0, 6, 30, 280.6050415039062
0, 6, 31, 287.0577697753906
0, 6, 32, 343.7061157226562
0, 6, 33, 301.827392578125
0, 6, 34, 340.2154846191406
0, 6, 35, 321.8753356933594
0, 6, 36, 272.3455505371094
0, 6, 37, 291.8869018554688
0, 6, 38, 312.1934509277344
0, 6, 39, 296.9935913085938
0, 6, 40, 285.0165405273438
0, 6, 41, 296.5572814941406
0, 6, 42, 304.6501159667969
0, 6, 43, 289.0878295898438
0, 6, 44, 280.6512145996094
0, 6, 45, 319.5623168945312
0, 6, 46, 299.829345703125
0, 6, 47, 332.2388305664062
0, 6, 48, 292.2156982421875
0, 6, 49, 312.4524230957031
0, 6, 50, 327.6323852539062
0, 6, 51, 310.3614807128906
0, 6, 52, 322.3783264160156
0, 6, 53, 331.1525268554688
0, 6, 54, 304.274169921875
0, 6, 55, 305.7853698730469
0, 6, 56, 293.7964172363281
0, 6, 57, 313.7310180664062
0, 6, 58, 263.3530578613281
0, 6, 59, 300.3563232421875
0, 6, 60, 312.8633728027344
0, 6, 61, 272.3105163574219
0, 6, 62, 337.8584594726562
0, 6, 63, 325.3179321289062
0, 6, 64, 292.5890502929688
0, 6, 65, 283.5481567382812
0, 6, 66, 305.4691467285156
0, 6, 67, 309.9748229980469
0, 6, 68, 293.7435607910156
0, 6, 69, 280.0910339355469
0, 6, 70, 274.6558532714844
0, 6, 71, 290.7913513183594
0, 6, 72, 309.3048400878906
0, 6, 73, 290.3324584960938
0, 6, 74, 330.7939758300781
0, 6, 75, 343.8579711914062
0, 6, 76, 297.3853759765625
0, 6, 77, 285.9988098144531
0, 6, 78, 278.3308715820312
0, 6, 79, 292.8392333984375
0, 6, 80, 298.6812438964844
0, 6, 81, 316.90625
0, 6, 82, 318.3829650878906
0, 6, 83, 321.0539245605469
0, 6, 84, 295.5601501464844
0, 6, 85, 300.631591796875
0, 6, 86, 331.3498840332031
0, 6, 87, 290.4591674804688
0, 6, 88, 307.7898864746094
0, 6, 89, 304.1096496582031
0, 6, 90, 300.2696533203125
0, 6, 91, 316.6090393066406
0, 6, 92, 286.1109924316406
0, 6, 93, 295.0057067871094
0, 6, 94, 272.2135009765625
0, 6, 95, 299.3589782714844
0, 6, 96, 346.8385009765625
0, 6, 97, 307.5210571289062
0, 6, 98, 299.905517578125
0, 6, 99, 272.3487854003906
0, 6, 100, 308.7179565429688
0, 6, 101, 293.732177734375
0, 6, 102, 307.1023559570312
0, 6, 103, 308.823974609375
0, 6, 104, 291.7398681640625
0, 6, 105, 300.3353576660156
0, 6, 106, 307.1908264160156
0, 6, 107, 305.9619445800781
0, 6, 108, 266.9343566894531
0, 6, 109, 184.6223754882812
0, 6, 110, 54.55704879760742
0, 6, 111, 21.91522407531738
0, 6, 112, 13.26677227020264
0, 6, 113, 11.67487716674805
0, 6, 114, 11.45017147064209
0, 6, 115, 10.43050003051758
0, 6, 116, 10.01705551147461
0, 6, 117, 7.006644248962402
0, 6, 118, 9.589327812194824
0, 6, 119, 11.20709991455078
0, 6, 120, 4.822980880737305
0, 6, 121, 7.240739822387695
0, 6, 122, 6.807638168334961
0, 6, 123, 5.947473049163818
0, 6, 124, 7.014631271362305
0, 6, 125, 6.451455116271973
0, 6, 126, 4.971131801605225
0, 6, 127, 7.95134973526001
0, 7, 0, 5.00663423538208
0, 7, 1, 4.299437999725342
0, 7, 2, 5.771296977996826
0, 7, 3, 5.816059112548828
0, 7, 4, 4.966513156890869
0, 7, 5, 4.853646755218506
0, 7, 6, 8.043098449707031
0, 7, 7, 6.40825891494751
0, 7, 8, 5.470631122589111
0, 7, 9, 6.388023376464844
0, 7, 10, 8.734944343566895
0, 7, 11, 13.80107498168945
0, 7, 12, 13.89600467681885
0, 7, 13, 10.38233757019043
0, 7, 14, 11.13453197479248
0, 7, 15, 17.29850006103516
0, 7, 16, 27.19631767272949
0, 7, 17, 97.4293212890625
0, 7, 18, 219.1768035888672
0, 7, 19, 287.6896362304688
0, 7, 20, 296.4413146972656
0, 7, 21, 277.4465637207031
0, 7, 22, 300.2677001953125
0, 7, 23, 288.0113220214844
0, 7, 24, 312.4388732910156
0, 7, 25, 325.1047668457031
0, 7, 26, 277.7160339355469
0, 7, 27, 297.2073364257812
0, 7, 28, 324.3961791992188
0, 7, 29, 319.8922424316406
0, 7, 30, 299.1966857910156
0, 7, 31, 277.6074523925781
0, 7, 32, 306.2383422851562
0, 7, 33, 265.4066467285156
0, 7, 34, 298.4066772460938
0, 7, 35, 320.5708618164062
0, 7, 36, 333.9766235351562
0, 7, 37, 322.4611206054688
0, 7, 38, 295.5097045898438
0, 7, 39, 306.6259460449219
0, 7, 40, 288.1444091796875
0, 7, 41, 272.5172729492188
0, 7, 42, 300.3105163574219
0, 7, 43, 272.9528503417969
0, 7, 44, 305.8078002929688
0, 7, 45, 295.1946411132812
0, 7, 46, 282.7547607421875
0, 7, 47, 326.8753967285156
0, 7, 48, 284.1027526855469
0, 7, 49, 300.9114990234375
0, 7, 50, 320.5665588378906
0, 7, 51, 299.0847473144531
0, 7, 52, 325.4789428710938
0, 7, 53, 310.1308288574219
0, 7, 54, 324.1207580566406
0, 7, 55, 305.9950866699219
0, 7, 56, 280.6263427734375
0, 7, 57, 280.9483337402344
0, 7, 58, 295.87841796875
0, 7, 59, 292.0645141601562
0, 7, 60, 322.361083984375
0, 7, 61, 277.11767578125
0, 7, 62, 296.4378356933594
0, 7, 63, 294.8683471679688
0, 7, 64, 305.1393432617188
0, 7, 65, 330.4209289550781
0, 7, 66, 316.7724914550781
0, 7, 67, 304.2242736816406
0, 7, 68, 279.6722106933594
0, 7, 69, 293.8758239746094
0, 7, 70, 304.2463073730469
0, 7, 71, 310.21142578125
0, 7, 72, 285.2982177734375
0, 7, 73, 294.91015625
0, 7, 74, 344.6925964355469
0, 7, 75, 320.4135437011719
0, 7, 76, 323.5711364746094
0, 7, 77, 281.5966186523438
0, 7, 78, 299.18798828125
0, 7, 79, 297.4775085449219
0, 7, 80, 311.7882080078125
0, 7, 81, 319.2695617675781
0, 7, 82, 328.7964782714844
0, 7, 83, 317.3835144042969
0, 7, 84, 309.5172729492188
0, 7, 85, 271.51904296875
0, 7, 86, 309.9967346191406
0, 7, 87, 309.1801452636719
0, 7, 88, 306.9120178222656
0, 7, 89, 291.7230834960938
0, 7, 90, 306.5090637207031
0, 7, 91, 313.7002563476562
0, 7, 92, 288.6851806640625
0, 7, 93, 308.0647583007812
0, 7, 94, 272.1353149414062
0, 7, 95, 296.8511962890625
0, 7, 96, 331.2291259765625
0, 7, 97, 295.7695007324219
0, 7, 98, 292.0730285644531
0, 7, 99, 315.14794921875
0, 7, 100, 280.0582275390625
0, 7, 101, 275.8448486328125
0, 7, 102, 290.3245849609375
0, 7, 103, 291.469970703125
0, 7, 104, 273.820556640625
0, 7, 105, 306.6636047363281
0, 7, 106, 319.8884887695312
0, 7, 107, 296.0736389160156
0, 7, 108, 273.3316345214844
0, 7, 109, 237.8762969970703
0, 7, 110, 96.96177673339844
0, 7, 111, 23.88748741149902
0, 7, 112, 12.61509799957275
0, 7, 113, 15.40771770477295
0, 7, 114, 11.89175701141357
0, 7, 115, 14.55063629150391
0, 7, 116, 7.398823261260986
0, 7, 117, 4.795554161071777
0, 7, 118, 6.149690628051758
0, 7, 119, 7.475470066070557
0, 7, 120, 4.43644380569458
0, 7, 121, 6.662237644195557
0, 7, 122, 5.838781356811523
0, 7, 123, 5.114036560058594
0, 7, 124, 5.082994937896729
0, 7, 125, 5.030037879943848
0, 7, 126, 7.547821998596191
0, 7, 127, 2.070737361907959
0, 8, 0, 3.287000417709351
0, 8, 1, 3.368239164352417
0, 8, 2, 3.709874868392944
0, 8, 3, 4.58733081817627
0, 8, 4, 5.766987323760986
0, 8, 5, 4.727277755737305
0, 8, 6, 5.589645862579346
0, 8, 7, 5.438199043273926
0, 8, 8, 7.295287132263184
0, 8, 9, 5.50227165222168
0, 8, 10, 8.47607421875
0, 8, 11, 9.867518424987793
0, 8, 12, 14.03477096557617
0, 8, 13, 16.30995750427246
0, 8, 14, 13.93490409851074
0, 8, 15, 18.72233581542969
0, 8, 16, 32.92316436767578
0, 8, 17, 131.5675964355469
0, 8, 18, 243.5289001464844
0, 8, 19, 295.0887451171875
0, 8, 20, 285.1847534179688
0, 8, 21, 306.5828552246094
0, 8, 22, 295.3357849121094
0, 8, 23, 274.1409912109375
0, 8, 24, 269.00830078125
0, 8, 25, 274.6247253417969
0, 8, 26, 306.3655700683594
0, 8, 27, 307.8173522949219
0, 8, 28, 305.0118103027344
0, 8, 29, 317.9776916503906
0, 8, 30, 316.0251770019531
0, 8, 31, 304.7886352539062
0, 8, 32, 280.9522705078125
0, 8, 33, 294.829833984375
0, 8, 34, 288.7300415039062
0, 8, 35, 282.3227233886719
0, 8, 36, 315.1552734375
0, 8, 37, 338.6797790527344
0, 8, 38, 331.1118774414062
0, 8, 39, 280.811767578125
0, 8, 40, 304.9855651855469
