# TOPAS Version: 3.1.p3
# Parameter File: batch_inserts_208.txt
# Results for scorer Readout_Adipose
# Scored in component: MyBox
# X in 1 bin  of 0.75 cm
# Y in 512 bins of 0.0783984 cm
# Z in 128 bins of 0.078125 cm
# EnergyDeposit ( MeV ) : Sum   
0, 0, 0, 5.721436977386475
0, 0, 1, 2.835282564163208
0, 0, 2, 5.508979320526123
0, 0, 3, 3.472554206848145
0, 0, 4, 5.107550621032715
0, 0, 5, 1.502453923225403
0, 0, 6, 8.737279891967773
0, 0, 7, 7.540958404541016
0, 0, 8, 2.566299676895142
0, 0, 9, 4.161363124847412
0, 0, 10, 6.624846935272217
0, 0, 11, 4.323567390441895
0, 0, 12, 5.211926937103271
0, 0, 13, 6.058548927307129
0, 0, 14, 7.170074939727783
0, 0, 15, 8.927488327026367
0, 0, 16, 8.468856811523438
0, 0, 17, 9.868466377258301
0, 0, 18, 15.5045804977417
0, 0, 19, 43.52753829956055
0, 0, 20, 139.7835540771484
0, 0, 21, 224.3990325927734
0, 0, 22, 248.7758331298828
0, 0, 23, 259.0381164550781
0, 0, 24, 250.5356597900391
0, 0, 25, 258.8010864257812
0, 0, 26, 234.6496276855469
0, 0, 27, 237.9338989257812
0, 0, 28, 272.6282348632812
0, 0, 29, 251.7041931152344
0, 0, 30, 230.7228546142578
0, 0, 31, 243.3424072265625
0, 0, 32, 263.3869323730469
0, 0, 33, 259.7046508789062
0, 0, 34, 286.758056640625
0, 0, 35, 266.7750854492188
0, 0, 36, 246.2707214355469
0, 0, 37, 253.267578125
0, 0, 38, 267.0682983398438
0, 0, 39, 229.3302154541016
0, 0, 40, 241.3876342773438
0, 0, 41, 265.0533142089844
0, 0, 42, 228.5100708007812
0, 0, 43, 259.1942138671875
0, 0, 44, 252.8502807617188
0, 0, 45, 252.7581481933594
0, 0, 46, 243.9709777832031
0, 0, 47, 253.866943359375
0, 0, 48, 267.4328918457031
0, 0, 49, 274.6990051269531
0, 0, 50, 252.7860565185547
0, 0, 51, 255.5358734130859
0, 0, 52, 272.8048095703125
0, 0, 53, 291.9302368164062
0, 0, 54, 242.2037506103516
0, 0, 55, 239.7925720214844
0, 0, 56, 278.3215026855469
0, 0, 57, 263.1505126953125
0, 0, 58, 245.4563293457031
0, 0, 59, 269.4498291015625
0, 0, 60, 234.3268737792969
0, 0, 61, 245.3809661865234
0, 0, 62, 259.6696166992188
0, 0, 63, 266.5151977539062
0, 0, 64, 256.7641906738281
0, 0, 65, 260.2248229980469
0, 0, 66, 277.9231872558594
0, 0, 67, 247.3791198730469
0, 0, 68, 258.6232604980469
0, 0, 69, 260.1379699707031
0, 0, 70, 272.8947143554688
0, 0, 71, 238.0650634765625
0, 0, 72, 250.3117980957031
0, 0, 73, 258.4203491210938
0, 0, 74, 251.7491912841797
0, 0, 75, 241.1154327392578
0, 0, 76, 228.3901977539062
0, 0, 77, 259.9489135742188
0, 0, 78, 260.9790344238281
0, 0, 79, 279.3813171386719
0, 0, 80, 217.3306579589844
0, 0, 81, 268.3669738769531
0, 0, 82, 255.7803649902344
0, 0, 83, 244.6339721679688
0, 0, 84, 270.35302734375
0, 0, 85, 231.6341400146484
0, 0, 86, 253.7509765625
0, 0, 87, 250.4439239501953
0, 0, 88, 259.9700622558594
0, 0, 89, 284.0968017578125
0, 0, 90, 243.4020080566406
0, 0, 91, 281.0547790527344
0, 0, 92, 253.7423858642578
0, 0, 93, 248.3084411621094
0, 0, 94, 249.5037384033203
0, 0, 95, 248.4495086669922
0, 0, 96, 274.9525451660156
0, 0, 97, 272.8846435546875
0, 0, 98, 277.18798828125
0, 0, 99, 258.6050109863281
0, 0, 100, 259.0897827148438
0, 0, 101, 227.1196441650391
0, 0, 102, 232.2440795898438
0, 0, 103, 268.7830505371094
0, 0, 104, 255.8292236328125
0, 0, 105, 250.5138244628906
0, 0, 106, 245.9244995117188
0, 0, 107, 152.2801361083984
0, 0, 108, 37.82402420043945
0, 0, 109, 11.43715000152588
0, 0, 110, 12.64619827270508
0, 0, 111, 9.25229549407959
0, 0, 112, 7.360536575317383
0, 0, 113, 5.220865249633789
0, 0, 114, 6.206351757049561
0, 0, 115, 9.169474601745605
0, 0, 116, 4.774969577789307
0, 0, 117, 7.432616710662842
0, 0, 118, 6.657479286193848
0, 0, 119, 3.63300895690918
0, 0, 120, 3.834639549255371
0, 0, 121, 4.338425636291504
0, 0, 122, 3.690218687057495
0, 0, 123, 2.801614284515381
0, 0, 124, 6.490037441253662
0, 0, 125, 3.513256788253784
0, 0, 126, 5.942600727081299
0, 0, 127, 2.846396923065186
0, 1, 0, 7.435165882110596
0, 1, 1, 3.000144243240356
0, 1, 2, 5.086812973022461
0, 1, 3, 2.063650846481323
0, 1, 4, 5.114790916442871
0, 1, 5, 6.270152568817139
0, 1, 6, 6.967232704162598
0, 1, 7, 6.365293979644775
0, 1, 8, 7.044764995574951
0, 1, 9, 4.510387897491455
0, 1, 10, 8.564005851745605
0, 1, 11, 11.51836681365967
0, 1, 12, 7.573866844177246
0, 1, 13, 10.98822021484375
0, 1, 14, 7.900949954986572
0, 1, 15, 8.559125900268555
0, 1, 16, 10.48398113250732
0, 1, 17, 11.10587978363037
0, 1, 18, 21.13285446166992
0, 1, 19, 64.96373748779297
0, 1, 20, 199.0097198486328
0, 1, 21, 254.4582672119141
0, 1, 22, 296.8352661132812
0, 1, 23, 283.2779846191406
0, 1, 24, 275.3870544433594
0, 1, 25, 289.1474914550781
0, 1, 26, 268.5051574707031
0, 1, 27, 305.7835083007812
0, 1, 28, 298.7619018554688
0, 1, 29, 295.0975646972656
0, 1, 30, 281.6366882324219
0, 1, 31, 292.7725830078125
0, 1, 32, 290.5390014648438
0, 1, 33, 295.5681762695312
0, 1, 34, 291.5745544433594
0, 1, 35, 278.0897521972656
0, 1, 36, 306.1535034179688
0, 1, 37, 294.7860107421875
0, 1, 38, 280.6689758300781
0, 1, 39, 297.133544921875
0, 1, 40, 265.3023071289062
0, 1, 41, 285.3344116210938
0, 1, 42, 289.1759948730469
0, 1, 43, 333.3019409179688
0, 1, 44, 279.0731811523438
0, 1, 45, 293.2005615234375
0, 1, 46, 260.0291442871094
0, 1, 47, 311.46826171875
0, 1, 48, 287.4905395507812
0, 1, 49, 301.1648254394531
0, 1, 50, 262.7386169433594
0, 1, 51, 273.7350158691406
0, 1, 52, 293.9070739746094
0, 1, 53, 305.2916564941406
0, 1, 54, 276.6601257324219
0, 1, 55, 292.7701721191406
0, 1, 56, 278.9010009765625
0, 1, 57, 297.0994567871094
0, 1, 58, 310.8973083496094
0, 1, 59, 292.5269470214844
0, 1, 60, 296.6586608886719
0, 1, 61, 274.5115966796875
0, 1, 62, 309.1136169433594
0, 1, 63, 288.5277709960938
0, 1, 64, 288.1262817382812
0, 1, 65, 295.5935668945312
0, 1, 66, 291.0926513671875
0, 1, 67, 292.2775268554688
0, 1, 68, 278.1046447753906
0, 1, 69, 279.842041015625
0, 1, 70, 271.5967407226562
0, 1, 71, 272.401123046875
0, 1, 72, 285.5032653808594
0, 1, 73, 303.695068359375
0, 1, 74, 306.992431640625
0, 1, 75, 293.3229064941406
0, 1, 76, 284.0734252929688
0, 1, 77, 288.6275939941406
0, 1, 78, 295.5377807617188
0, 1, 79, 300.2697448730469
0, 1, 80, 296.4757995605469
0, 1, 81, 301.838623046875
0, 1, 82, 284.9170532226562
0, 1, 83, 334.0702514648438
0, 1, 84, 309.4897766113281
0, 1, 85, 253.5605621337891
0, 1, 86, 293.6055908203125
0, 1, 87, 291.4751892089844
0, 1, 88, 298.1917114257812
0, 1, 89, 289.8297119140625
0, 1, 90, 270.403076171875
0, 1, 91, 318.1961364746094
0, 1, 92, 291.4321899414062
0, 1, 93, 288.8396606445312
0, 1, 94, 304.7373657226562
0, 1, 95, 283.05615234375
0, 1, 96, 283.1161193847656
0, 1, 97, 300.75244140625
0, 1, 98, 277.1433715820312
0, 1, 99, 267.8327941894531
0, 1, 100, 275.8671569824219
0, 1, 101, 281.5383605957031
0, 1, 102, 279.2140502929688
0, 1, 103, 280.4650573730469
0, 1, 104, 306.9425659179688
0, 1, 105, 298.4548034667969
0, 1, 106, 262.189208984375
0, 1, 107, 192.126953125
0, 1, 108, 80.22079467773438
0, 1, 109, 22.45474243164062
0, 1, 110, 11.06709861755371
0, 1, 111, 10.35904693603516
0, 1, 112, 12.27344799041748
0, 1, 113, 5.333829879760742
0, 1, 114, 5.589690208435059
0, 1, 115, 6.531511306762695
0, 1, 116, 11.27781391143799
0, 1, 117, 5.185906410217285
0, 1, 118, 4.076717853546143
0, 1, 119, 4.905680179595947
0, 1, 120, 5.047532081604004
0, 1, 121, 3.668206453323364
0, 1, 122, 2.381803750991821
0, 1, 123, 2.107569932937622
0, 1, 124, 7.023659229278564
0, 1, 125, 3.175967454910278
0, 1, 126, 3.545834064483643
0, 1, 127, 0.8981316089630127
0, 2, 0, 3.696390151977539
0, 2, 1, 2.340837955474854
0, 2, 2, 4.041962146759033
0, 2, 3, 5.138449668884277
0, 2, 4, 2.831756830215454
0, 2, 5, 1.279509782791138
0, 2, 6, 3.104984045028687
0, 2, 7, 3.282469987869263
0, 2, 8, 6.134521484375
0, 2, 9, 5.484949111938477
0, 2, 10, 8.281686782836914
0, 2, 11, 7.240754127502441
0, 2, 12, 6.360312461853027
0, 2, 13, 9.414410591125488
0, 2, 14, 9.388643264770508
0, 2, 15, 7.106051921844482
0, 2, 16, 10.26822471618652
0, 2, 17, 16.62993621826172
0, 2, 18, 28.39424514770508
0, 2, 19, 116.422981262207
0, 2, 20, 248.8823089599609
0, 2, 21, 270.9937438964844
0, 2, 22, 316.5135192871094
0, 2, 23, 299.5603332519531
0, 2, 24, 287.2564697265625
0, 2, 25, 302.2294921875
0, 2, 26, 294.8558959960938
0, 2, 27, 274.7748718261719
0, 2, 28, 272.2958374023438
0, 2, 29, 273.6784057617188
0, 2, 30, 290.5138854980469
0, 2, 31, 278.2169494628906
0, 2, 32, 294.8866882324219
0, 2, 33, 282.0406494140625
0, 2, 34, 331.8506469726562
0, 2, 35, 287.9435119628906
0, 2, 36, 304.1642150878906
0, 2, 37, 316.3149108886719
0, 2, 38, 310.5480041503906
0, 2, 39, 268.1535034179688
0, 2, 40, 309.560791015625
0, 2, 41, 293.6897888183594
0, 2, 42, 302.3002319335938
0, 2, 43, 312.5338134765625
0, 2, 44, 311.706298828125
0, 2, 45, 324.3531494140625
0, 2, 46, 287.1462097167969
0, 2, 47, 303.6885375976562
0, 2, 48, 279.8262634277344
0, 2, 49, 278.6208190917969
0, 2, 50, 294.4952392578125
0, 2, 51, 286.2232971191406
0, 2, 52, 271.7373352050781
0, 2, 53, 287.1871643066406
0, 2, 54, 281.8775024414062
0, 2, 55, 274.7617492675781
0, 2, 56, 300.8823547363281
0, 2, 57, 290.884765625
0, 2, 58, 302.3177490234375
0, 2, 59, 290.9145202636719
0, 2, 60, 318.2216796875
0, 2, 61, 300.9535522460938
0, 2, 62, 312.4920043945312
0, 2, 63, 304.6321411132812
0, 2, 64, 295.0936279296875
0, 2, 65, 312.9662475585938
0, 2, 66, 279.6625671386719
0, 2, 67, 290.0735473632812
0, 2, 68, 295.5535278320312
0, 2, 69, 310.9378662109375
0, 2, 70, 334.470458984375
0, 2, 71, 282.3362731933594
0, 2, 72, 301.159912109375
0, 2, 73, 310.3385009765625
0, 2, 74, 285.8692321777344
0, 2, 75, 303.1001586914062
0, 2, 76, 287.0373229980469
0, 2, 77, 299.7111511230469
0, 2, 78, 314.9954528808594
0, 2, 79, 308.7571105957031
0, 2, 80, 296.0293884277344
0, 2, 81, 281.9785461425781
0, 2, 82, 317.9096984863281
0, 2, 83, 315.4229431152344
0, 2, 84, 288.4312133789062
0, 2, 85, 283.0259094238281
0, 2, 86, 325.3818359375
0, 2, 87, 285.7095336914062
0, 2, 88, 280.9453735351562
0, 2, 89, 296.6125183105469
0, 2, 90, 294.7263488769531
0, 2, 91, 274.9295959472656
0, 2, 92, 306.1977844238281
0, 2, 93, 317.1691589355469
0, 2, 94, 291.3316650390625
0, 2, 95, 314.6492919921875
0, 2, 96, 316.9232482910156
0, 2, 97, 291.0904846191406
0, 2, 98, 295.2997131347656
0, 2, 99, 273.3497924804688
0, 2, 100, 306.3943786621094
0, 2, 101, 300.5179443359375
0, 2, 102, 296.6192321777344
0, 2, 103, 293.268310546875
0, 2, 104, 293.2989196777344
0, 2, 105, 275.2997436523438
0, 2, 106, 296.3445434570312
0, 2, 107, 272.488037109375
0, 2, 108, 115.9359970092773
0, 2, 109, 32.22796630859375
0, 2, 110, 9.770699501037598
0, 2, 111, 12.2495174407959
0, 2, 112, 7.264262199401855
0, 2, 113, 9.769906044006348
0, 2, 114, 9.365653991699219
0, 2, 115, 9.070204734802246
0, 2, 116, 7.127301216125488
0, 2, 117, 8.06709098815918
0, 2, 118, 3.65686297416687
0, 2, 119, 3.298809766769409
0, 2, 120, 6.938112735748291
0, 2, 121, 2.866911888122559
0, 2, 122, 3.978431701660156
0, 2, 123, 5.426110744476318
0, 2, 124, 4.586134910583496
0, 2, 125, 7.282907009124756
0, 2, 126, 4.161222457885742
0, 2, 127, 4.983180999755859
0, 3, 0, 2.897260665893555
0, 3, 1, 4.44969367980957
0, 3, 2, 3.611403226852417
0, 3, 3, 2.625146389007568
0, 3, 4, 3.672742366790771
0, 3, 5, 5.744704723358154
0, 3, 6, 6.585987091064453
0, 3, 7, 6.039823532104492
0, 3, 8, 5.612153053283691
0, 3, 9, 7.051795482635498
0, 3, 10, 5.712845325469971
0, 3, 11, 4.587950229644775
0, 3, 12, 7.571281433105469
0, 3, 13, 14.28907871246338
0, 3, 14, 10.05124759674072
0, 3, 15, 14.26156806945801
0, 3, 16, 11.43180656433105
0, 3, 17, 20.72939491271973
0, 3, 18, 56.53202819824219
0, 3, 19, 174.2250366210938
0, 3, 20, 268.6525573730469
0, 3, 21, 270.8962097167969
0, 3, 22, 282.7164611816406
0, 3, 23, 287.0720520019531
0, 3, 24, 286.743408203125
0, 3, 25, 270.2688903808594
0, 3, 26, 304.3476257324219
0, 3, 27, 292.4455871582031
0, 3, 28, 280.2851257324219
0, 3, 29, 338.9031372070312
0, 3, 30, 316.2891845703125
0, 3, 31, 287.1363220214844
0, 3, 32, 307.9794311523438
0, 3, 33, 313.2558898925781
0, 3, 34, 321.9336853027344
0, 3, 35, 306.349609375
0, 3, 36, 272.7627563476562
0, 3, 37, 314.294677734375
0, 3, 38, 303.58056640625
0, 3, 39, 290.0730895996094
0, 3, 40, 266.6181030273438
0, 3, 41, 299.3476257324219
0, 3, 42, 285.8839111328125
0, 3, 43, 306.2859497070312
0, 3, 44, 309.9424133300781
0, 3, 45, 289.6880187988281
0, 3, 46, 329.2659301757812
0, 3, 47, 299.3220520019531
0, 3, 48, 305.3920288085938
0, 3, 49, 277.5415649414062
0, 3, 50, 290.5025634765625
0, 3, 51, 275.6327209472656
0, 3, 52, 314.4016723632812
0, 3, 53, 289.0374450683594
0, 3, 54, 285.1729736328125
0, 3, 55, 283.7977294921875
0, 3, 56, 298.1439208984375
0, 3, 57, 287.1061706542969
0, 3, 58, 306.3924865722656
0, 3, 59, 294.1847534179688
0, 3, 60, 298.30029296875
0, 3, 61, 265.0276489257812
0, 3, 62, 283.4577026367188
0, 3, 63, 305.8937072753906
0, 3, 64, 316.4701843261719
0, 3, 65, 306.5419921875
0, 3, 66, 315.1946411132812
0, 3, 67, 317.3529968261719
0, 3, 68, 279.4704284667969
0, 3, 69, 283.9855041503906
0, 3, 70, 288.530029296875
0, 3, 71, 300.8273315429688
0, 3, 72, 272.0914306640625
0, 3, 73, 310.2409362792969
0, 3, 74, 296.5315246582031
0, 3, 75, 289.214111328125
0, 3, 76, 304.6184692382812
0, 3, 77, 314.0580139160156
0, 3, 78, 303.7410888671875
0, 3, 79, 281.3518676757812
0, 3, 80, 290.1891174316406
0, 3, 81, 313.7598266601562
0, 3, 82, 316.7406616210938
0, 3, 83, 301.3327026367188
0, 3, 84, 309.9366760253906
0, 3, 85, 291.6515197753906
0, 3, 86, 301.8353576660156
0, 3, 87, 297.630126953125
0, 3, 88, 298.4952392578125
0, 3, 89, 294.493408203125
0, 3, 90, 278.3021240234375
0, 3, 91, 286.0427856445312
0, 3, 92, 302.49072265625
0, 3, 93, 313.5553588867188
0, 3, 94, 297.4741516113281
0, 3, 95, 333.5140686035156
0, 3, 96, 291.1755676269531
0, 3, 97, 286.6304016113281
0, 3, 98, 278.5069885253906
0, 3, 99, 261.5737609863281
0, 3, 100, 283.3744506835938
0, 3, 101, 296.8472900390625
0, 3, 102, 274.2672729492188
0, 3, 103, 320.6193237304688
0, 3, 104, 310.0189819335938
0, 3, 105, 288.3838806152344
0, 3, 106, 304.0156555175781
0, 3, 107, 281.1081848144531
0, 3, 108, 166.9330291748047
0, 3, 109, 57.21106338500977
0, 3, 110, 16.86427116394043
0, 3, 111, 12.16445541381836
0, 3, 112, 14.01429748535156
0, 3, 113, 7.508736610412598
0, 3, 114, 10.31223487854004
0, 3, 115, 6.964663028717041
0, 3, 116, 9.111433982849121
0, 3, 117, 7.384946346282959
0, 3, 118, 5.485004901885986
0, 3, 119, 5.938961029052734
0, 3, 120, 7.063490867614746
0, 3, 121, 2.148963451385498
0, 3, 122, 4.499940395355225
0, 3, 123, 4.94980001449585
0, 3, 124, 2.557217121124268
0, 3, 125, 7.567770004272461
0, 3, 126, 4.768266677856445
0, 3, 127, 2.953081846237183
0, 4, 0, 3.4024977684021
0, 4, 1, 3.930340766906738
0, 4, 2, 3.206860542297363
0, 4, 3, 1.960801720619202
0, 4, 4, 6.185452938079834
0, 4, 5, 7.572018623352051
0, 4, 6, 7.433409214019775
0, 4, 7, 5.635401248931885
0, 4, 8, 6.041774749755859
0, 4, 9, 6.448551654815674
0, 4, 10, 5.631714820861816
0, 4, 11, 6.04391622543335
0, 4, 12, 7.931641578674316
0, 4, 13, 9.225814819335938
0, 4, 14, 11.08427143096924
0, 4, 15, 9.78510570526123
0, 4, 16, 13.95285892486572
0, 4, 17, 18.39874458312988
0, 4, 18, 94.22019958496094
0, 4, 19, 222.7497863769531
0, 4, 20, 285.5415954589844
0, 4, 21, 272.7774353027344
0, 4, 22, 305.2372131347656
0, 4, 23, 266.5322265625
0, 4, 24, 288.6205749511719
0, 4, 25, 272.8003845214844
0, 4, 26, 294.1137390136719
0, 4, 27, 283.02685546875
0, 4, 28, 307.3968505859375
0, 4, 29, 323.0697937011719
0, 4, 30, 309.7344665527344
0, 4, 31, 304.9793090820312
0, 4, 32, 281.1021728515625
0, 4, 33, 298.9477233886719
0, 4, 34, 296.3718566894531
0, 4, 35, 311.2703247070312
0, 4, 36, 291.6477661132812
0, 4, 37, 288.1341552734375
0, 4, 38, 297.8209838867188
0, 4, 39, 295.8353271484375
0, 4, 40, 301.085205078125
0, 4, 41, 311.6180725097656
0, 4, 42, 330.5262756347656
0, 4, 43, 298.3010864257812
0, 4, 44, 319.8839111328125
0, 4, 45, 323.0941162109375
0, 4, 46, 305.960205078125
0, 4, 47, 293.9408264160156
0, 4, 48, 296.0590209960938
0, 4, 49, 277.3714294433594
0, 4, 50, 295.4317321777344
0, 4, 51, 316.8528442382812
0, 4, 52, 327.2681579589844
0, 4, 53, 304.7952880859375
0, 4, 54, 288.0158081054688
0, 4, 55, 314.3067321777344
0, 4, 56, 287.7542419433594
0, 4, 57, 311.8582153320312
0, 4, 58, 297.8218994140625
0, 4, 59, 308.9391479492188
0, 4, 60, 304.8117370605469
0, 4, 61, 314.6120300292969
0, 4, 62, 307.4955444335938
0, 4, 63, 297.1724243164062
0, 4, 64, 332.1131591796875
0, 4, 65, 315.370849609375
0, 4, 66, 294.3131103515625
0, 4, 67, 285.0590515136719
0, 4, 68, 311.9469909667969
0, 4, 69, 274.8776245117188
0, 4, 70, 298.3422241210938
0, 4, 71, 322.6307983398438
0, 4, 72, 335.6948852539062
0, 4, 73, 298.3878479003906
0, 4, 74, 292.32177734375
0, 4, 75, 290.4458923339844
0, 4, 76, 274.4708862304688
0, 4, 77, 278.4849548339844
0, 4, 78, 309.488525390625
0, 4, 79, 319.6763610839844
0, 4, 80, 318.0743408203125
0, 4, 81, 312.716796875
0, 4, 82, 297.1039733886719
0, 4, 83, 300.3989868164062
0, 4, 84, 294.1462707519531
0, 4, 85, 299.861328125
0, 4, 86, 297.69970703125
0, 4, 87, 284.0133666992188
0, 4, 88, 304.4585571289062
0, 4, 89, 294.5928649902344
0, 4, 90, 332.1496276855469
0, 4, 91, 301.3510131835938
0, 4, 92, 289.6012268066406
0, 4, 93, 295.7837219238281
0, 4, 94, 292.5873718261719
0, 4, 95, 287.68994140625
0, 4, 96, 323.1822509765625
0, 4, 97, 273.6903381347656
0, 4, 98, 327.1048278808594
0, 4, 99, 312.6884155273438
0, 4, 100, 301.70166015625
0, 4, 101, 256.5568542480469
0, 4, 102, 297.4147644042969
0, 4, 103, 317.2424926757812
0, 4, 104, 281.4466247558594
0, 4, 105, 309.7715454101562
0, 4, 106, 286.7542724609375
0, 4, 107, 295.4552612304688
0, 4, 108, 225.9653015136719
0, 4, 109, 80.43046569824219
0, 4, 110, 15.44377994537354
0, 4, 111, 12.71286296844482
0, 4, 112, 8.875078201293945
0, 4, 113, 10.12454414367676
0, 4, 114, 9.570204734802246
0, 4, 115, 11.0539379119873
0, 4, 116, 7.650629043579102
0, 4, 117, 6.326265335083008
0, 4, 118, 12.96639537811279
0, 4, 119, 9.655840873718262
0, 4, 120, 7.922421455383301
0, 4, 121, 5.130809783935547
0, 4, 122, 5.418591499328613
0, 4, 123, 6.722911357879639
0, 4, 124, 4.958017349243164
0, 4, 125, 8.254142761230469
0, 4, 126, 5.744897365570068
0, 4, 127, 3.887195348739624
0, 5, 0, 3.75033974647522
0, 5, 1, 3.120532035827637
0, 5, 2, 4.854753017425537
0, 5, 3, 4.309292793273926
0, 5, 4, 5.536732196807861
0, 5, 5, 7.104944229125977
0, 5, 6, 6.002264499664307
0, 5, 7, 7.091182231903076
0, 5, 8, 5.857007026672363
0, 5, 9, 4.818606376647949
0, 5, 10, 10.37032890319824
0, 5, 11, 8.228838920593262
0, 5, 12, 8.926766395568848
0, 5, 13, 6.65065860748291
0, 5, 14, 12.23297023773193
0, 5, 15, 19.34472274780273
0, 5, 16, 14.65465927124023
0, 5, 17, 28.73483276367188
0, 5, 18, 137.1044311523438
0, 5, 19, 286.2207946777344
0, 5, 20, 308.5042724609375
0, 5, 21, 317.9217529296875
0, 5, 22, 276.9708557128906
0, 5, 23, 309.9075927734375
0, 5, 24, 301.7087707519531
0, 5, 25, 289.9681396484375
0, 5, 26, 294.1080322265625
0, 5, 27, 322.7644653320312
0, 5, 28, 303.4238586425781
0, 5, 29, 297.3260803222656
0, 5, 30, 323.4586486816406
0, 5, 31, 286.9718322753906
0, 5, 32, 302.3036499023438
0, 5, 33, 305.5679016113281
0, 5, 34, 295.1794128417969
0, 5, 35, 309.985107421875
0, 5, 36, 270.2853088378906
0, 5, 37, 283.5134887695312
0, 5, 38, 293.1563110351562
0, 5, 39, 311.8831176757812
0, 5, 40, 307.7421569824219
0, 5, 41, 272.2853698730469
0, 5, 42, 305.589111328125
0, 5, 43, 314.8647155761719
0, 5, 44, 293.7047424316406
0, 5, 45, 300.295166015625
0, 5, 46, 263.7324523925781
0, 5, 47, 278.9111328125
0, 5, 48, 294.6216735839844
0, 5, 49, 287.0002746582031
0, 5, 50, 295.7609558105469
0, 5, 51, 279.0623779296875
0, 5, 52, 267.7295532226562
0, 5, 53, 282.7412414550781
0, 5, 54, 291.2692260742188
0, 5, 55, 344.8301086425781
0, 5, 56, 305.16455078125
0, 5, 57, 305.9854125976562
0, 5, 58, 312.9538269042969
0, 5, 59, 304.4454040527344
0, 5, 60, 307.0287475585938
0, 5, 61, 281.8025512695312
0, 5, 62, 324.1613159179688
0, 5, 63, 292.2218933105469
0, 5, 64, 324.6401062011719
0, 5, 65, 307.1970520019531
0, 5, 66, 328.3809509277344
0, 5, 67, 312.2701721191406
0, 5, 68, 308.012451171875
0, 5, 69, 312.7491760253906
0, 5, 70, 301.8583679199219
0, 5, 71, 271.5859680175781
0, 5, 72, 309.0307006835938
0, 5, 73, 300.9766845703125
0, 5, 74, 294.7685241699219
0, 5, 75, 295.5240173339844
0, 5, 76, 288.7863159179688
0, 5, 77, 298.6346435546875
0, 5, 78, 315.3384704589844
0, 5, 79, 309.0952453613281
0, 5, 80, 295.8494873046875
0, 5, 81, 325.3209838867188
0, 5, 82, 322.5261840820312
0, 5, 83, 281.93994140625
0, 5, 84, 301.9635009765625
0, 5, 85, 271.1918640136719
0, 5, 86, 327.4855651855469
0, 5, 87, 284.0796508789062
0, 5, 88, 314.5439147949219
0, 5, 89, 303.7406005859375
0, 5, 90, 315.3904418945312
0, 5, 91, 314.2078552246094
0, 5, 92, 295.5297241210938
0, 5, 93, 321.4424133300781
0, 5, 94, 309.1044921875
0, 5, 95, 295.5200500488281
0, 5, 96, 297.3565673828125
0, 5, 97, 295.3685913085938
0, 5, 98, 320.7055969238281
0, 5, 99, 302.7869567871094
0, 5, 100, 289.882568359375
0, 5, 101, 304.3341369628906
0, 5, 102, 292.235595703125
0, 5, 103, 313.0021667480469
0, 5, 104, 303.8067932128906
0, 5, 105, 291.1780395507812
0, 5, 106, 282.0411376953125
0, 5, 107, 293.4926452636719
0, 5, 108, 267.1724548339844
0, 5, 109, 157.0273895263672
0, 5, 110, 39.40729904174805
0, 5, 111, 21.18814849853516
0, 5, 112, 20.98528099060059
0, 5, 113, 15.06163597106934
0, 5, 114, 12.03201007843018
0, 5, 115, 8.47585391998291
0, 5, 116, 7.705248355865479
0, 5, 117, 7.337500095367432
0, 5, 118, 13.50523090362549
0, 5, 119, 7.218721866607666
0, 5, 120, 4.934870719909668
0, 5, 121, 6.14570426940918
0, 5, 122, 6.203144550323486
0, 5, 123, 5.96470832824707
0, 5, 124, 4.831552982330322
0, 5, 125, 3.95034122467041
0, 5, 126, 7.981176853179932
0, 5, 127, 5.914324760437012
0, 6, 0, 4.454653263092041
0, 6, 1, 4.291455268859863
0, 6, 2, 4.986783504486084
0, 6, 3, 5.049036979675293
0, 6, 4, 4.794116497039795
0, 6, 5, 5.650435447692871
0, 6, 6, 8.610198974609375
0, 6, 7, 6.864909648895264
0, 6, 8, 6.644539833068848
0, 6, 9, 6.76701545715332
0, 6, 10, 8.443881988525391
0, 6, 11, 8.781331062316895
0, 6, 12, 9.387139320373535
0, 6, 13, 17.25028610229492
0, 6, 14, 10.4216947555542
0, 6, 15, 15.45809078216553
0, 6, 16, 28.10149955749512
0, 6, 17, 54.85099029541016
0, 6, 18, 174.9805908203125
0, 6, 19, 276.3187561035156
0, 6, 20, 291.3544921875
0, 6, 21, 313.3795776367188
0, 6, 22, 320.4535522460938
0, 6, 23, 305.4329528808594
0, 6, 24, 315.6924133300781
0, 6, 25, 315.3658142089844
0, 6, 26, 321.256591796875
0, 6, 27, 330.5215759277344
0, 6, 28, 296.1130981445312
0, 6, 29, 330.8936157226562
0, 6, 30, 282.2820129394531
0, 6, 31, 285.9983215332031
0, 6, 32, 339.9543151855469
0, 6, 33, 300.3181762695312
0, 6, 34, 342.4768676757812
0, 6, 35, 320.4527587890625
0, 6, 36, 274.529052734375
0, 6, 37, 290.270751953125
0, 6, 38, 311.3416137695312
0, 6, 39, 298.5577087402344
0, 6, 40, 283.4712524414062
0, 6, 41, 295.0474853515625
0, 6, 42, 304.4649047851562
0, 6, 43, 288.1234741210938
0, 6, 44, 279.4679870605469
0, 6, 45, 319.0368347167969
0, 6, 46, 301.1266174316406
0, 6, 47, 331.7972106933594
0, 6, 48, 291.3964538574219
0, 6, 49, 311.9493103027344
0, 6, 50, 328.8932800292969
0, 6, 51, 310.2630920410156
0, 6, 52, 320.5477294921875
0, 6, 53, 328.1620483398438
0, 6, 54, 302.5592041015625
0, 6, 55, 306.4617614746094
0, 6, 56, 292.8059692382812
0, 6, 57, 313.693115234375
0, 6, 58, 265.3633117675781
0, 6, 59, 302.7750244140625
0, 6, 60, 313.1019287109375
0, 6, 61, 271.8919372558594
0, 6, 62, 339.162109375
0, 6, 63, 325.1906433105469
0, 6, 64, 290.3781433105469
0, 6, 65, 283.4732971191406
0, 6, 66, 303.0891418457031
0, 6, 67, 308.9947204589844
0, 6, 68, 296.3224182128906
0, 6, 69, 279.6907043457031
0, 6, 70, 274.8711242675781
0, 6, 71, 290.705810546875
0, 6, 72, 311.2856750488281
0, 6, 73, 295.165771484375
0, 6, 74, 330.3937072753906
0, 6, 75, 344.5049438476562
0, 6, 76, 298.1999206542969
0, 6, 77, 288.513916015625
0, 6, 78, 280.0699768066406
0, 6, 79, 291.6776733398438
0, 6, 80, 299.8677062988281
0, 6, 81, 314.3254699707031
0, 6, 82, 318.9726867675781
0, 6, 83, 320.673095703125
0, 6, 84, 297.6887512207031
0, 6, 85, 301.3108215332031
0, 6, 86, 330.939453125
0, 6, 87, 294.2153625488281
0, 6, 88, 305.5252075195312
0, 6, 89, 304.7429809570312
0, 6, 90, 299.1518859863281
0, 6, 91, 311.9991760253906
0, 6, 92, 285.443115234375
0, 6, 93, 296.82080078125
0, 6, 94, 274.6015014648438
0, 6, 95, 299.9633178710938
0, 6, 96, 346.9918823242188
0, 6, 97, 309.2025451660156
0, 6, 98, 300.27197265625
0, 6, 99, 271.3634033203125
0, 6, 100, 312.1461791992188
0, 6, 101, 294.284423828125
0, 6, 102, 307.2750854492188
0, 6, 103, 309.0220031738281
0, 6, 104, 292.3245849609375
0, 6, 105, 300.5531921386719
0, 6, 106, 307.5047302246094
0, 6, 107, 306.3052978515625
0, 6, 108, 264.7013244628906
0, 6, 109, 186.5453948974609
0, 6, 110, 53.98963928222656
0, 6, 111, 21.82088851928711
0, 6, 112, 13.35453987121582
0, 6, 113, 11.03866767883301
0, 6, 114, 14.90427303314209
0, 6, 115, 12.28427696228027
0, 6, 116, 10.07623863220215
0, 6, 117, 7.413209915161133
0, 6, 118, 10.62174129486084
0, 6, 119, 10.45016098022461
0, 6, 120, 6.923309803009033
0, 6, 121, 6.610338687896729
0, 6, 122, 6.233817577362061
0, 6, 123, 6.912874221801758
0, 6, 124, 5.639350414276123
0, 6, 125, 6.079336166381836
0, 6, 126, 3.222323656082153
0, 6, 127, 6.148638725280762
0, 7, 0, 7.798651218414307
0, 7, 1, 3.711289405822754
0, 7, 2, 5.610424518585205
0, 7, 3, 3.518477916717529
0, 7, 4, 3.552234649658203
0, 7, 5, 7.299844264984131
0, 7, 6, 5.904682636260986
0, 7, 7, 4.992863655090332
0, 7, 8, 4.826381206512451
0, 7, 9, 10.11751079559326
0, 7, 10, 8.468803405761719
0, 7, 11, 14.16614437103271
0, 7, 12, 8.630063056945801
0, 7, 13, 11.28525733947754
0, 7, 14, 13.00877380371094
0, 7, 15, 19.45318031311035
0, 7, 16, 27.07979583740234
0, 7, 17, 98.57137298583984
0, 7, 18, 217.3149719238281
0, 7, 19, 288.985107421875
0, 7, 20, 297.5407104492188
0, 7, 21, 277.4169006347656
0, 7, 22, 298.5470581054688
0, 7, 23, 290.5894470214844
0, 7, 24, 312.4670104980469
0, 7, 25, 324.5368347167969
0, 7, 26, 277.9245910644531
0, 7, 27, 298.3189697265625
0, 7, 28, 329.5416564941406
0, 7, 29, 319.6499938964844
0, 7, 30, 302.8086853027344
0, 7, 31, 278.2798156738281
0, 7, 32, 303.8409423828125
0, 7, 33, 262.3147583007812
0, 7, 34, 296.8688659667969
0, 7, 35, 320.797119140625
0, 7, 36, 329.5901794433594
0, 7, 37, 326.2118530273438
0, 7, 38, 296.7165832519531
0, 7, 39, 306.896240234375
0, 7, 40, 290.7929382324219
0, 7, 41, 272.7176818847656
0, 7, 42, 301.0584716796875
0, 7, 43, 275.560302734375
0, 7, 44, 303.348388671875
0, 7, 45, 295.7435607910156
0, 7, 46, 286.3826904296875
0, 7, 47, 328.2891235351562
0, 7, 48, 287.5878601074219
0, 7, 49, 301.1054382324219
0, 7, 50, 320.2018432617188
0, 7, 51, 299.9677124023438
0, 7, 52, 326.5775756835938
0, 7, 53, 310.022705078125
0, 7, 54, 324.5587158203125
0, 7, 55, 306.4912414550781
0, 7, 56, 282.1181030273438
0, 7, 57, 284.1500549316406
0, 7, 58, 295.6597595214844
0, 7, 59, 293.032470703125
0, 7, 60, 321.5475158691406
0, 7, 61, 276.3829345703125
0, 7, 62, 299.1492309570312
0, 7, 63, 293.1337585449219
0, 7, 64, 306.2287902832031
0, 7, 65, 331.3861389160156
0, 7, 66, 318.6792602539062
0, 7, 67, 301.83251953125
0, 7, 68, 280.7652893066406
0, 7, 69, 295.2594299316406
0, 7, 70, 302.3798522949219
0, 7, 71, 310.9871826171875
0, 7, 72, 285.2934875488281
0, 7, 73, 295.4273376464844
0, 7, 74, 343.3966979980469
0, 7, 75, 318.7417297363281
0, 7, 76, 323.0567321777344
0, 7, 77, 281.4905395507812
0, 7, 78, 301.0582580566406
0, 7, 79, 296.4591064453125
0, 7, 80, 309.7902221679688
0, 7, 81, 320.8987426757812
0, 7, 82, 331.9405517578125
0, 7, 83, 317.9618530273438
0, 7, 84, 309.9666748046875
0, 7, 85, 271.7635192871094
0, 7, 86, 313.3597717285156
0, 7, 87, 311.0061645507812
0, 7, 88, 307.2690124511719
0, 7, 89, 293.1636352539062
0, 7, 90, 308.3599853515625
0, 7, 91, 313.9943237304688
0, 7, 92, 289.858154296875
0, 7, 93, 307.8881530761719
0, 7, 94, 273.3008728027344
0, 7, 95, 295.1689453125
0, 7, 96, 330.7201843261719
0, 7, 97, 295.4513549804688
0, 7, 98, 289.8638000488281
0, 7, 99, 310.9043273925781
0, 7, 100, 283.3316040039062
0, 7, 101, 274.6960754394531
0, 7, 102, 289.2297668457031
0, 7, 103, 292.4146118164062
0, 7, 104, 276.0492248535156
0, 7, 105, 305.5973815917969
0, 7, 106, 317.3494262695312
0, 7, 107, 295.9847106933594
0, 7, 108, 273.9299926757812
0, 7, 109, 237.0437316894531
0, 7, 110, 97.61018371582031
0, 7, 111, 23.7422924041748
0, 7, 112, 14.19335842132568
0, 7, 113, 13.3815860748291
0, 7, 114, 14.34384918212891
0, 7, 115, 13.06324291229248
0, 7, 116, 6.881805419921875
0, 7, 117, 5.794792175292969
0, 7, 118, 6.915659427642822
0, 7, 119, 5.209274291992188
0, 7, 120, 4.106786727905273
0, 7, 121, 9.844010353088379
0, 7, 122, 5.890564918518066
0, 7, 123, 6.002728939056396
0, 7, 124, 3.27976131439209
0, 7, 125, 5.441533088684082
0, 7, 126, 8.200145721435547
0, 7, 127, 2.752237319946289
0, 8, 0, 4.673732757568359
0, 8, 1, 3.217221975326538
0, 8, 2, 3.451408386230469
0, 8, 3, 4.295877456665039
0, 8, 4, 3.18188738822937
0, 8, 5, 4.963321685791016
0, 8, 6, 3.600159168243408
0, 8, 7, 4.57225513458252
0, 8, 8, 8.404528617858887
0, 8, 9, 7.638011932373047
0, 8, 10, 9.530993461608887
0, 8, 11, 13.21055793762207
0, 8, 12, 13.46997737884521
0, 8, 13, 15.9653959274292
0, 8, 14, 14.37766551971436
0, 8, 15, 17.55919456481934
0, 8, 16, 31.82061576843262
0, 8, 17, 130.7132110595703
0, 8, 18, 241.3595428466797
0, 8, 19, 294.9423828125
0, 8, 20, 287.8536987304688
0, 8, 21, 306.9415283203125
0, 8, 22, 295.8666687011719
0, 8, 23, 275.3429260253906
0, 8, 24, 267.5962219238281
0, 8, 25, 275.5176696777344
0, 8, 26, 305.1669311523438
0, 8, 27, 307.63818359375
0, 8, 28, 305.1440734863281
0, 8, 29, 318.8504638671875
0, 8, 30, 312.8487243652344
0, 8, 31, 304.7230224609375
0, 8, 32, 281.8453369140625
0, 8, 33, 294.2868041992188
0, 8, 34, 288.1222839355469
0, 8, 35, 280.3861083984375
0, 8, 36, 316.9684448242188
0, 8, 37, 342.8521423339844
0, 8, 38, 332.6088256835938
0, 8, 39, 280.1952514648438
