# TOPAS Version: 3.1.p3
# Parameter File: batch_inserts_196.txt
# Results for scorer Readout_Adipose
# Scored in component: MyBox
# X in 1 bin  of 0.75 cm
# Y in 512 bins of 0.0783984 cm
# Z in 128 bins of 0.078125 cm
# EnergyDeposit ( MeV ) : Sum   
0, 0, 0, 4.29324197769165
0, 0, 1, 1.809416890144348
0, 0, 2, 5.270376205444336
0, 0, 3, 2.944887399673462
0, 0, 4, 5.71422004699707
0, 0, 5, 4.276184558868408
0, 0, 6, 8.985025405883789
0, 0, 7, 9.290023803710938
0, 0, 8, 2.987930297851562
0, 0, 9, 3.471273899078369
0, 0, 10, 6.529692649841309
0, 0, 11, 4.304918766021729
0, 0, 12, 5.849115371704102
0, 0, 13, 5.477046489715576
0, 0, 14, 7.590497016906738
0, 0, 15, 8.530794143676758
0, 0, 16, 8.365447998046875
0, 0, 17, 8.337344169616699
0, 0, 18, 12.67523384094238
0, 0, 19, 43.32064437866211
0, 0, 20, 138.9628601074219
0, 0, 21, 225.1311340332031
0, 0, 22, 248.2669067382812
0, 0, 23, 257.4989929199219
0, 0, 24, 251.2191162109375
0, 0, 25, 259.4224853515625
0, 0, 26, 233.7550354003906
0, 0, 27, 237.6596069335938
0, 0, 28, 271.2688293457031
0, 0, 29, 251.8582611083984
0, 0, 30, 228.8178253173828
0, 0, 31, 243.2324676513672
0, 0, 32, 264.3583984375
0, 0, 33, 262.5374755859375
0, 0, 34, 287.5199584960938
0, 0, 35, 267.9664306640625
0, 0, 36, 246.1439208984375
0, 0, 37, 254.0312652587891
0, 0, 38, 267.2354125976562
0, 0, 39, 229.5169219970703
0, 0, 40, 241.7950744628906
0, 0, 41, 267.838623046875
0, 0, 42, 228.5860137939453
0, 0, 43, 261.9745483398438
0, 0, 44, 254.2660522460938
0, 0, 45, 254.070556640625
0, 0, 46, 243.9520416259766
0, 0, 47, 255.0988311767578
0, 0, 48, 266.1329345703125
0, 0, 49, 274.3255615234375
0, 0, 50, 251.6882476806641
0, 0, 51, 254.1997680664062
0, 0, 52, 271.869140625
0, 0, 53, 291.5990600585938
0, 0, 54, 242.6349334716797
0, 0, 55, 239.6027984619141
0, 0, 56, 276.4472961425781
0, 0, 57, 266.6002807617188
0, 0, 58, 245.7505035400391
0, 0, 59, 269.6827087402344
0, 0, 60, 234.1588592529297
0, 0, 61, 244.9054260253906
0, 0, 62, 258.1803894042969
0, 0, 63, 267.8493957519531
0, 0, 64, 256.9258728027344
0, 0, 65, 264.2669372558594
0, 0, 66, 276.4744873046875
0, 0, 67, 247.1213531494141
0, 0, 68, 257.9512634277344
0, 0, 69, 260.752685546875
0, 0, 70, 272.6976318359375
0, 0, 71, 238.201171875
0, 0, 72, 249.8502502441406
0, 0, 73, 261.0906982421875
0, 0, 74, 250.6309204101562
0, 0, 75, 242.9454956054688
0, 0, 76, 230.9568481445312
0, 0, 77, 261.7799682617188
0, 0, 78, 259.2110290527344
0, 0, 79, 276.7261047363281
0, 0, 80, 218.5624694824219
0, 0, 81, 266.8766174316406
0, 0, 82, 256.8809509277344
0, 0, 83, 246.3994140625
0, 0, 84, 271.3665466308594
0, 0, 85, 231.4083404541016
0, 0, 86, 253.1619720458984
0, 0, 87, 251.2706756591797
0, 0, 88, 259.6616821289062
0, 0, 89, 284.2180480957031
0, 0, 90, 243.8774871826172
0, 0, 91, 281.8309326171875
0, 0, 92, 252.0054931640625
0, 0, 93, 249.1976013183594
0, 0, 94, 250.6006469726562
0, 0, 95, 247.6383361816406
0, 0, 96, 275.1384582519531
0, 0, 97, 273.8697509765625
0, 0, 98, 277.5472717285156
0, 0, 99, 258.0308227539062
0, 0, 100, 258.5723876953125
0, 0, 101, 227.3255767822266
0, 0, 102, 232.7477111816406
0, 0, 103, 270.9443969726562
0, 0, 104, 256.1116027832031
0, 0, 105, 250.5686187744141
0, 0, 106, 245.5288238525391
0, 0, 107, 151.5570526123047
0, 0, 108, 37.58033752441406
0, 0, 109, 12.19522666931152
0, 0, 110, 12.11573028564453
0, 0, 111, 9.488524436950684
0, 0, 112, 5.934158802032471
0, 0, 113, 5.012202262878418
0, 0, 114, 5.822914600372314
0, 0, 115, 5.229528427124023
0, 0, 116, 4.546082973480225
0, 0, 117, 5.590092658996582
0, 0, 118, 8.112269401550293
0, 0, 119, 4.240221500396729
0, 0, 120, 4.508383274078369
0, 0, 121, 4.228329181671143
0, 0, 122, 3.121920585632324
0, 0, 123, 3.003828763961792
0, 0, 124, 4.323882102966309
0, 0, 125, 3.101106643676758
0, 0, 126, 4.48418140411377
0, 0, 127, 3.334571361541748
0, 1, 0, 7.063658237457275
0, 1, 1, 2.206505537033081
0, 1, 2, 3.296814441680908
0, 1, 3, 2.036189079284668
0, 1, 4, 2.203855991363525
0, 1, 5, 5.561690330505371
0, 1, 6, 8.137551307678223
0, 1, 7, 4.025364875793457
0, 1, 8, 8.366839408874512
0, 1, 9, 4.166579723358154
0, 1, 10, 5.899257659912109
0, 1, 11, 10.91722965240479
0, 1, 12, 9.403636932373047
0, 1, 13, 9.517050743103027
0, 1, 14, 7.075573444366455
0, 1, 15, 7.343698978424072
0, 1, 16, 11.25639915466309
0, 1, 17, 14.09582328796387
0, 1, 18, 20.27041816711426
0, 1, 19, 65.94293975830078
0, 1, 20, 199.8407745361328
0, 1, 21, 254.1795349121094
0, 1, 22, 297.5032958984375
0, 1, 23, 285.2990112304688
0, 1, 24, 275.7109069824219
0, 1, 25, 288.9292602539062
0, 1, 26, 270.3201904296875
0, 1, 27, 307.0333251953125
0, 1, 28, 299.4211730957031
0, 1, 29, 298.3641662597656
0, 1, 30, 280.4316711425781
0, 1, 31, 292.2644348144531
0, 1, 32, 291.0605773925781
0, 1, 33, 295.7332763671875
0, 1, 34, 291.9461364746094
0, 1, 35, 278.4604797363281
0, 1, 36, 306.6907958984375
0, 1, 37, 296.6079406738281
0, 1, 38, 281.7268981933594
0, 1, 39, 296.3863220214844
0, 1, 40, 267.2135620117188
0, 1, 41, 284.9125061035156
0, 1, 42, 289.4937744140625
0, 1, 43, 331.11572265625
0, 1, 44, 278.9530334472656
0, 1, 45, 293.0815734863281
0, 1, 46, 262.9202575683594
0, 1, 47, 309.9469909667969
0, 1, 48, 284.2276916503906
0, 1, 49, 301.580078125
0, 1, 50, 265.0806274414062
0, 1, 51, 272.9819641113281
0, 1, 52, 295.3638610839844
0, 1, 53, 303.1574096679688
0, 1, 54, 274.8489685058594
0, 1, 55, 292.7039489746094
0, 1, 56, 280.6456604003906
0, 1, 57, 299.6271362304688
0, 1, 58, 309.2897644042969
0, 1, 59, 291.828857421875
0, 1, 60, 297.5185546875
0, 1, 61, 276.2320251464844
0, 1, 62, 307.4424133300781
0, 1, 63, 286.6023864746094
0, 1, 64, 287.4084777832031
0, 1, 65, 294.8122863769531
0, 1, 66, 292.0766906738281
0, 1, 67, 292.382080078125
0, 1, 68, 278.155029296875
0, 1, 69, 281.0393676757812
0, 1, 70, 270.8304443359375
0, 1, 71, 272.9651794433594
0, 1, 72, 286.4759826660156
0, 1, 73, 303.900390625
0, 1, 74, 308.6439514160156
0, 1, 75, 292.3236389160156
0, 1, 76, 285.2179870605469
0, 1, 77, 291.6730651855469
0, 1, 78, 298.2966918945312
0, 1, 79, 301.0876159667969
0, 1, 80, 295.8013000488281
0, 1, 81, 301.2188415527344
0, 1, 82, 282.9419250488281
0, 1, 83, 330.8376770019531
0, 1, 84, 308.4983520507812
0, 1, 85, 252.1987457275391
0, 1, 86, 293.3824768066406
0, 1, 87, 290.69140625
0, 1, 88, 299.6373901367188
0, 1, 89, 291.3027954101562
0, 1, 90, 269.435302734375
0, 1, 91, 317.6451110839844
0, 1, 92, 289.3204345703125
0, 1, 93, 286.0341796875
0, 1, 94, 303.8975524902344
0, 1, 95, 283.7951049804688
0, 1, 96, 284.1015930175781
0, 1, 97, 302.2770080566406
0, 1, 98, 277.2739562988281
0, 1, 99, 266.4521179199219
0, 1, 100, 275.9462585449219
0, 1, 101, 281.6952819824219
0, 1, 102, 278.8359680175781
0, 1, 103, 280.4305114746094
0, 1, 104, 306.6660461425781
0, 1, 105, 296.7802429199219
0, 1, 106, 261.8934020996094
0, 1, 107, 191.1275787353516
0, 1, 108, 82.13120269775391
0, 1, 109, 23.0897216796875
0, 1, 110, 11.47612571716309
0, 1, 111, 8.551654815673828
0, 1, 112, 11.03067970275879
0, 1, 113, 5.988040447235107
0, 1, 114, 7.546181678771973
0, 1, 115, 6.014560699462891
0, 1, 116, 9.79439640045166
0, 1, 117, 5.242784023284912
0, 1, 118, 4.576542854309082
0, 1, 119, 5.321610927581787
0, 1, 120, 4.667080879211426
0, 1, 121, 2.279884338378906
0, 1, 122, 2.031824111938477
0, 1, 123, 5.123528003692627
0, 1, 124, 10.42018699645996
0, 1, 125, 4.594974517822266
0, 1, 126, 2.152184724807739
0, 1, 127, 2.617865562438965
0, 2, 0, 5.116343021392822
0, 2, 1, 2.476839065551758
0, 2, 2, 3.669364213943481
0, 2, 3, 3.666836261749268
0, 2, 4, 3.050150394439697
0, 2, 5, 1.699487805366516
0, 2, 6, 2.57402777671814
0, 2, 7, 4.222687244415283
0, 2, 8, 3.777864456176758
0, 2, 9, 5.160431861877441
0, 2, 10, 9.042773246765137
0, 2, 11, 8.231237411499023
0, 2, 12, 5.966987609863281
0, 2, 13, 11.0329647064209
0, 2, 14, 10.9852409362793
0, 2, 15, 7.627521991729736
0, 2, 16, 8.925044059753418
0, 2, 17, 16.35436248779297
0, 2, 18, 29.04894828796387
0, 2, 19, 114.9491348266602
0, 2, 20, 246.9896240234375
0, 2, 21, 271.4057006835938
0, 2, 22, 319.419189453125
0, 2, 23, 301.9514465332031
0, 2, 24, 286.3882751464844
0, 2, 25, 301.3813781738281
0, 2, 26, 293.5419921875
0, 2, 27, 274.8263854980469
0, 2, 28, 273.5812683105469
0, 2, 29, 273.8652954101562
0, 2, 30, 289.0290222167969
0, 2, 31, 278.4564819335938
0, 2, 32, 293.6668090820312
0, 2, 33, 281.8853149414062
0, 2, 34, 330.0753173828125
0, 2, 35, 289.9450988769531
0, 2, 36, 303.747802734375
0, 2, 37, 314.5216674804688
0, 2, 38, 312.6923522949219
0, 2, 39, 267.3322448730469
0, 2, 40, 307.1159362792969
0, 2, 41, 292.8036499023438
0, 2, 42, 303.1072692871094
0, 2, 43, 314.6985473632812
0, 2, 44, 310.302978515625
0, 2, 45, 325.7230834960938
0, 2, 46, 288.1781005859375
0, 2, 47, 302.3558959960938
0, 2, 48, 280.052001953125
0, 2, 49, 279.4083557128906
0, 2, 50, 295.0989990234375
0, 2, 51, 286.0755310058594
0, 2, 52, 273.4345703125
0, 2, 53, 287.4422912597656
0, 2, 54, 280.4187622070312
0, 2, 55, 275.0408325195312
0, 2, 56, 301.2780151367188
0, 2, 57, 290.8255004882812
0, 2, 58, 302.701904296875
0, 2, 59, 292.1094970703125
0, 2, 60, 319.2157592773438
0, 2, 61, 300.990478515625
0, 2, 62, 312.4310302734375
0, 2, 63, 301.5148620605469
0, 2, 64, 295.0049438476562
0, 2, 65, 311.9722595214844
0, 2, 66, 279.5748291015625
0, 2, 67, 290.8880615234375
0, 2, 68, 298.9681396484375
0, 2, 69, 311.1219482421875
0, 2, 70, 334.1098022460938
0, 2, 71, 284.2062683105469
0, 2, 72, 302.5311584472656
0, 2, 73, 311.1161804199219
0, 2, 74, 285.730712890625
0, 2, 75, 306.5591735839844
0, 2, 76, 289.6219787597656
0, 2, 77, 299.3260498046875
0, 2, 78, 314.1306457519531
0, 2, 79, 310.1101379394531
0, 2, 80, 297.3309326171875
0, 2, 81, 282.8609313964844
0, 2, 82, 318.9989624023438
0, 2, 83, 314.392333984375
0, 2, 84, 289.1102294921875
0, 2, 85, 282.4706115722656
0, 2, 86, 324.2957153320312
0, 2, 87, 285.8323669433594
0, 2, 88, 280.3674011230469
0, 2, 89, 295.6624755859375
0, 2, 90, 295.1825256347656
0, 2, 91, 275.9451599121094
0, 2, 92, 305.1655578613281
0, 2, 93, 317.6248168945312
0, 2, 94, 291.8357849121094
0, 2, 95, 314.7779541015625
0, 2, 96, 315.6261291503906
0, 2, 97, 291.4215698242188
0, 2, 98, 292.6733093261719
0, 2, 99, 273.9645080566406
0, 2, 100, 305.3455505371094
0, 2, 101, 301.5596618652344
0, 2, 102, 296.8196716308594
0, 2, 103, 292.8903503417969
0, 2, 104, 292.6585998535156
0, 2, 105, 277.3375549316406
0, 2, 106, 298.0413208007812
0, 2, 107, 270.834716796875
0, 2, 108, 116.8776016235352
0, 2, 109, 32.51776885986328
0, 2, 110, 9.542007446289062
0, 2, 111, 13.1544942855835
0, 2, 112, 8.557496070861816
0, 2, 113, 11.98095035552979
0, 2, 114, 10.37446308135986
0, 2, 115, 8.691258430480957
0, 2, 116, 9.591587066650391
0, 2, 117, 8.461705207824707
0, 2, 118, 3.627706289291382
0, 2, 119, 4.330151557922363
0, 2, 120, 5.741577625274658
0, 2, 121, 3.054304838180542
0, 2, 122, 4.936362743377686
0, 2, 123, 2.812104225158691
0, 2, 124, 3.290792942047119
0, 2, 125, 4.600491523742676
0, 2, 126, 2.575545072555542
0, 2, 127, 5.443511009216309
0, 3, 0, 2.63922643661499
0, 3, 1, 2.622203826904297
0, 3, 2, 4.910510063171387
0, 3, 3, 2.290561676025391
0, 3, 4, 3.795919179916382
0, 3, 5, 6.622994422912598
0, 3, 6, 6.090924739837646
0, 3, 7, 6.175174713134766
0, 3, 8, 5.058557987213135
0, 3, 9, 8.756564140319824
0, 3, 10, 7.166826725006104
0, 3, 11, 6.451202869415283
0, 3, 12, 7.714785099029541
0, 3, 13, 14.44107532501221
0, 3, 14, 12.81052207946777
0, 3, 15, 13.97350311279297
0, 3, 16, 12.70848178863525
0, 3, 17, 20.15028190612793
0, 3, 18, 54.27656173706055
0, 3, 19, 174.8084106445312
0, 3, 20, 270.306640625
0, 3, 21, 271.2454223632812
0, 3, 22, 281.859130859375
0, 3, 23, 287.1297912597656
0, 3, 24, 288.26318359375
0, 3, 25, 270.0474853515625
0, 3, 26, 303.5007019042969
0, 3, 27, 291.9301452636719
0, 3, 28, 281.7967834472656
0, 3, 29, 337.8489074707031
0, 3, 30, 316.589599609375
0, 3, 31, 286.0673522949219
0, 3, 32, 311.48583984375
0, 3, 33, 314.5088806152344
0, 3, 34, 321.0418090820312
0, 3, 35, 306.8504943847656
0, 3, 36, 267.5615844726562
0, 3, 37, 314.5869750976562
0, 3, 38, 303.3758239746094
0, 3, 39, 290.1466979980469
0, 3, 40, 267.3073425292969
0, 3, 41, 301.4402465820312
0, 3, 42, 285.0562438964844
0, 3, 43, 306.4111328125
0, 3, 44, 311.0276489257812
0, 3, 45, 290.0306701660156
0, 3, 46, 328.4808044433594
0, 3, 47, 300.5571594238281
0, 3, 48, 302.3917236328125
0, 3, 49, 277.1703491210938
0, 3, 50, 290.2282104492188
0, 3, 51, 275.5254821777344
0, 3, 52, 316.1871337890625
0, 3, 53, 286.2692565917969
0, 3, 54, 285.8440856933594
0, 3, 55, 284.2806091308594
0, 3, 56, 297.0411987304688
0, 3, 57, 289.3696594238281
0, 3, 58, 305.0328979492188
0, 3, 59, 295.7022399902344
0, 3, 60, 298.4221801757812
0, 3, 61, 265.6729431152344
0, 3, 62, 287.3815002441406
0, 3, 63, 307.7583312988281
0, 3, 64, 315.8729248046875
0, 3, 65, 305.8523559570312
0, 3, 66, 314.7296752929688
0, 3, 67, 318.0870361328125
0, 3, 68, 279.9650573730469
0, 3, 69, 282.4810485839844
0, 3, 70, 289.374755859375
0, 3, 71, 297.9157104492188
0, 3, 72, 268.5714721679688
0, 3, 73, 307.9491882324219
0, 3, 74, 292.423828125
0, 3, 75, 289.9117431640625
0, 3, 76, 305.887939453125
0, 3, 77, 313.7767028808594
0, 3, 78, 304.5857849121094
0, 3, 79, 282.948486328125
0, 3, 80, 292.5030517578125
0, 3, 81, 310.7326965332031
0, 3, 82, 315.4669494628906
0, 3, 83, 300.4707946777344
0, 3, 84, 309.9508972167969
0, 3, 85, 292.4060363769531
0, 3, 86, 302.6678466796875
0, 3, 87, 298.5682983398438
0, 3, 88, 299.0813598632812
0, 3, 89, 296.3424377441406
0, 3, 90, 276.7604064941406
0, 3, 91, 285.8908996582031
0, 3, 92, 305.654296875
0, 3, 93, 314.1570434570312
0, 3, 94, 299.2863464355469
0, 3, 95, 334.2672729492188
0, 3, 96, 289.9365844726562
0, 3, 97, 285.5376281738281
0, 3, 98, 278.5418395996094
0, 3, 99, 261.9053955078125
0, 3, 100, 282.689453125
0, 3, 101, 295.4820556640625
0, 3, 102, 274.1715393066406
0, 3, 103, 321.5008850097656
0, 3, 104, 308.6357727050781
0, 3, 105, 289.3026428222656
0, 3, 106, 302.6109008789062
0, 3, 107, 284.3557739257812
0, 3, 108, 169.6676177978516
0, 3, 109, 55.57106018066406
0, 3, 110, 16.87397766113281
0, 3, 111, 12.74080371856689
0, 3, 112, 12.72392272949219
0, 3, 113, 7.931471347808838
0, 3, 114, 9.195108413696289
0, 3, 115, 6.746253490447998
0, 3, 116, 11.51745700836182
0, 3, 117, 9.254604339599609
0, 3, 118, 7.812016487121582
0, 3, 119, 5.255911827087402
0, 3, 120, 8.116353988647461
0, 3, 121, 3.531235218048096
0, 3, 122, 2.578309059143066
0, 3, 123, 4.64207124710083
0, 3, 124, 1.81481659412384
0, 3, 125, 6.975043296813965
0, 3, 126, 4.780887603759766
0, 3, 127, 2.491095304489136
0, 4, 0, 3.320693016052246
0, 4, 1, 4.034533977508545
0, 4, 2, 3.205562591552734
0, 4, 3, 1.522827982902527
0, 4, 4, 4.787022113800049
0, 4, 5, 7.207367420196533
0, 4, 6, 7.764145851135254
0, 4, 7, 6.463479995727539
0, 4, 8, 5.295328617095947
0, 4, 9, 5.504346370697021
0, 4, 10, 5.783247470855713
0, 4, 11, 5.703326225280762
0, 4, 12, 6.799245357513428
0, 4, 13, 8.182680130004883
0, 4, 14, 11.73001861572266
0, 4, 15, 9.526860237121582
0, 4, 16, 13.92833995819092
0, 4, 17, 19.0880126953125
0, 4, 18, 93.11251831054688
0, 4, 19, 224.8989868164062
0, 4, 20, 284.4943542480469
0, 4, 21, 272.9284973144531
0, 4, 22, 304.1520080566406
0, 4, 23, 266.536376953125
0, 4, 24, 288.6011962890625
0, 4, 25, 271.5887451171875
0, 4, 26, 295.2721557617188
0, 4, 27, 282.4763488769531
0, 4, 28, 306.6287841796875
0, 4, 29, 323.5713500976562
0, 4, 30, 309.6742553710938
0, 4, 31, 304.9537658691406
0, 4, 32, 281.6934814453125
0, 4, 33, 298.544921875
0, 4, 34, 297.5992431640625
0, 4, 35, 312.1689453125
0, 4, 36, 296.7649230957031
0, 4, 37, 289.5552673339844
0, 4, 38, 298.5153198242188
0, 4, 39, 295.2353820800781
0, 4, 40, 302.28857421875
0, 4, 41, 312.0090637207031
0, 4, 42, 331.7488098144531
0, 4, 43, 296.004638671875
0, 4, 44, 320.8616027832031
0, 4, 45, 324.6286926269531
0, 4, 46, 304.3301086425781
0, 4, 47, 293.9251098632812
0, 4, 48, 296.0974731445312
0, 4, 49, 278.1833801269531
0, 4, 50, 297.0734558105469
0, 4, 51, 317.4788208007812
0, 4, 52, 327.9815063476562
0, 4, 53, 305.0144958496094
0, 4, 54, 287.77001953125
0, 4, 55, 316.2244873046875
0, 4, 56, 286.4967956542969
0, 4, 57, 310.2201843261719
0, 4, 58, 295.7210388183594
0, 4, 59, 307.1057739257812
0, 4, 60, 302.5444641113281
0, 4, 61, 314.6957092285156
0, 4, 62, 307.9080810546875
0, 4, 63, 298.2069091796875
0, 4, 64, 332.3122863769531
0, 4, 65, 316.1448974609375
0, 4, 66, 292.7335510253906
0, 4, 67, 284.7396545410156
0, 4, 68, 311.9333801269531
0, 4, 69, 275.9649963378906
0, 4, 70, 299.2173156738281
0, 4, 71, 323.4981384277344
0, 4, 72, 334.0580749511719
0, 4, 73, 300.0030822753906
0, 4, 74, 293.1331481933594
0, 4, 75, 290.8880310058594
0, 4, 76, 274.4188537597656
0, 4, 77, 277.8447265625
0, 4, 78, 309.2362670898438
0, 4, 79, 320.5246887207031
0, 4, 80, 317.9459228515625
0, 4, 81, 312.4353637695312
0, 4, 82, 297.1413879394531
0, 4, 83, 301.4068603515625
0, 4, 84, 291.3909301757812
0, 4, 85, 295.4629821777344
0, 4, 86, 299.1668090820312
0, 4, 87, 285.6781616210938
0, 4, 88, 306.4403381347656
0, 4, 89, 295.1928100585938
0, 4, 90, 332.3075561523438
0, 4, 91, 302.5860595703125
0, 4, 92, 290.4852600097656
0, 4, 93, 296.6383056640625
0, 4, 94, 291.4124450683594
0, 4, 95, 287.6764221191406
0, 4, 96, 323.6229553222656
0, 4, 97, 273.4154357910156
0, 4, 98, 327.5533142089844
0, 4, 99, 314.60693359375
0, 4, 100, 301.0450744628906
0, 4, 101, 258.7996826171875
0, 4, 102, 298.5011901855469
0, 4, 103, 316.9689636230469
0, 4, 104, 281.5900268554688
0, 4, 105, 310.1055603027344
0, 4, 106, 288.5925903320312
0, 4, 107, 295.5242919921875
0, 4, 108, 226.2167053222656
0, 4, 109, 79.16501617431641
0, 4, 110, 15.88175868988037
0, 4, 111, 13.71839809417725
0, 4, 112, 8.094354629516602
0, 4, 113, 11.09836483001709
0, 4, 114, 9.848152160644531
0, 4, 115, 10.56609916687012
0, 4, 116, 9.032730102539062
0, 4, 117, 9.154889106750488
0, 4, 118, 10.01248741149902
0, 4, 119, 9.141945838928223
0, 4, 120, 5.307687759399414
0, 4, 121, 5.036899566650391
0, 4, 122, 4.563653469085693
0, 4, 123, 6.373618125915527
0, 4, 124, 7.124093532562256
0, 4, 125, 11.44155788421631
0, 4, 126, 4.42635440826416
0, 4, 127, 4.605285167694092
0, 5, 0, 3.302763938903809
0, 5, 1, 2.89289379119873
0, 5, 2, 4.120708465576172
0, 5, 3, 2.932553291320801
0, 5, 4, 5.720445156097412
0, 5, 5, 6.537941455841064
0, 5, 6, 6.977970123291016
0, 5, 7, 5.910508632659912
0, 5, 8, 5.499356746673584
0, 5, 9, 4.162980556488037
0, 5, 10, 7.424977779388428
0, 5, 11, 6.820651054382324
0, 5, 12, 7.68773889541626
0, 5, 13, 5.565847396850586
0, 5, 14, 12.39151382446289
0, 5, 15, 17.2222957611084
0, 5, 16, 13.54230976104736
0, 5, 17, 26.7585277557373
0, 5, 18, 136.5812225341797
0, 5, 19, 285.8302001953125
0, 5, 20, 311.0921936035156
0, 5, 21, 315.671142578125
0, 5, 22, 276.8476867675781
0, 5, 23, 310.4994201660156
0, 5, 24, 302.0538940429688
0, 5, 25, 289.6495666503906
0, 5, 26, 294.3348083496094
0, 5, 27, 322.8738708496094
0, 5, 28, 303.6780090332031
0, 5, 29, 297.2453002929688
0, 5, 30, 321.9217834472656
0, 5, 31, 285.458251953125
0, 5, 32, 301.2819519042969
0, 5, 33, 303.6436767578125
0, 5, 34, 295.3314819335938
0, 5, 35, 310.7556762695312
0, 5, 36, 271.4607543945312
0, 5, 37, 281.0838623046875
0, 5, 38, 291.3821411132812
0, 5, 39, 310.6390075683594
0, 5, 40, 307.8221435546875
0, 5, 41, 273.1408996582031
0, 5, 42, 306.2242431640625
0, 5, 43, 311.5851745605469
0, 5, 44, 293.47607421875
0, 5, 45, 300.7123413085938
0, 5, 46, 266.0112609863281
0, 5, 47, 280.8588256835938
0, 5, 48, 295.7073059082031
0, 5, 49, 286.065185546875
0, 5, 50, 296.3795471191406
0, 5, 51, 280.2760925292969
0, 5, 52, 268.4130249023438
0, 5, 53, 284.2393188476562
0, 5, 54, 294.4068603515625
0, 5, 55, 346.6382446289062
0, 5, 56, 305.0873718261719
0, 5, 57, 305.9939575195312
0, 5, 58, 313.3645629882812
0, 5, 59, 302.8992919921875
0, 5, 60, 308.0907897949219
0, 5, 61, 281.1477661132812
0, 5, 62, 323.8976440429688
0, 5, 63, 291.5948181152344
0, 5, 64, 322.666259765625
0, 5, 65, 307.2329711914062
0, 5, 66, 329.1727294921875
0, 5, 67, 312.2023315429688
0, 5, 68, 308.8223876953125
0, 5, 69, 313.2850036621094
0, 5, 70, 305.2732238769531
0, 5, 71, 272.1453857421875
0, 5, 72, 309.3701477050781
0, 5, 73, 301.7577209472656
0, 5, 74, 295.3053283691406
0, 5, 75, 294.90283203125
0, 5, 76, 285.6073303222656
0, 5, 77, 299.4447326660156
0, 5, 78, 312.187255859375
0, 5, 79, 307.7889099121094
0, 5, 80, 294.5496520996094
0, 5, 81, 326.3904113769531
0, 5, 82, 322.6136169433594
0, 5, 83, 281.57275390625
0, 5, 84, 302.5995483398438
0, 5, 85, 271.4432983398438
0, 5, 86, 328.4276733398438
0, 5, 87, 284.6093139648438
0, 5, 88, 313.0203552246094
0, 5, 89, 306.9256286621094
0, 5, 90, 315.4408264160156
0, 5, 91, 314.9588012695312
0, 5, 92, 299.1927185058594
0, 5, 93, 321.2689514160156
0, 5, 94, 306.9404296875
0, 5, 95, 297.1533203125
0, 5, 96, 296.5589599609375
0, 5, 97, 296.8113708496094
0, 5, 98, 318.5561828613281
0, 5, 99, 299.9457397460938
0, 5, 100, 290.3388977050781
0, 5, 101, 305.7998657226562
0, 5, 102, 291.0646362304688
0, 5, 103, 313.7577209472656
0, 5, 104, 303.4676818847656
0, 5, 105, 291.7902221679688
0, 5, 106, 281.5822448730469
0, 5, 107, 292.5384521484375
0, 5, 108, 266.6606750488281
0, 5, 109, 159.7149963378906
0, 5, 110, 39.22097015380859
0, 5, 111, 19.67497825622559
0, 5, 112, 17.9085693359375
0, 5, 113, 15.67233753204346
0, 5, 114, 12.77788352966309
0, 5, 115, 6.880045413970947
0, 5, 116, 7.147494316101074
0, 5, 117, 5.844509124755859
0, 5, 118, 11.35137748718262
0, 5, 119, 3.293226718902588
0, 5, 120, 7.318921089172363
0, 5, 121, 4.856949329376221
0, 5, 122, 7.747430324554443
0, 5, 123, 5.210158824920654
0, 5, 124, 4.931473255157471
0, 5, 125, 3.873023271560669
0, 5, 126, 6.817576885223389
0, 5, 127, 3.725812435150146
0, 6, 0, 5.731939315795898
0, 6, 1, 4.544661045074463
0, 6, 2, 4.24211311340332
0, 6, 3, 5.726658344268799
0, 6, 4, 4.098584175109863
0, 6, 5, 5.75501823425293
0, 6, 6, 7.697423934936523
0, 6, 7, 4.956451416015625
0, 6, 8, 7.361943244934082
0, 6, 9, 6.866497993469238
0, 6, 10, 8.99399471282959
0, 6, 11, 7.45834493637085
0, 6, 12, 10.030837059021
0, 6, 13, 15.45229625701904
0, 6, 14, 8.309116363525391
0, 6, 15, 15.72674083709717
0, 6, 16, 28.16650772094727
0, 6, 17, 53.98383712768555
0, 6, 18, 175.8173065185547
0, 6, 19, 279.6851806640625
0, 6, 20, 293.0710144042969
0, 6, 21, 315.1161499023438
0, 6, 22, 319.1216125488281
0, 6, 23, 307.7035522460938
0, 6, 24, 316.6676025390625
0, 6, 25, 317.2489013671875
0, 6, 26, 321.1146240234375
0, 6, 27, 331.4147338867188
0, 6, 28, 296.9256896972656
0, 6, 29, 330.091552734375
0, 6, 30, 281.8207092285156
0, 6, 31, 285.2689208984375
0, 6, 32, 341.8374328613281
0, 6, 33, 300.0078735351562
0, 6, 34, 339.3897094726562
0, 6, 35, 319.5211791992188
0, 6, 36, 273.9817810058594
0, 6, 37, 290.1571960449219
0, 6, 38, 314.41650390625
0, 6, 39, 297.6159057617188
0, 6, 40, 281.9253234863281
0, 6, 41, 293.6514892578125
0, 6, 42, 305.4088439941406
0, 6, 43, 287.9291076660156
0, 6, 44, 279.6023559570312
0, 6, 45, 318.4959106445312
0, 6, 46, 300.6642456054688
0, 6, 47, 333.3456726074219
0, 6, 48, 291.5567626953125
0, 6, 49, 311.4549560546875
0, 6, 50, 329.6195068359375
0, 6, 51, 311.4637145996094
0, 6, 52, 320.6246032714844
0, 6, 53, 328.564208984375
0, 6, 54, 303.3223876953125
0, 6, 55, 306.1998291015625
0, 6, 56, 294.4570922851562
0, 6, 57, 311.4747619628906
0, 6, 58, 264.112548828125
0, 6, 59, 303.6436767578125
0, 6, 60, 312.6767272949219
0, 6, 61, 271.4998779296875
0, 6, 62, 336.4260864257812
0, 6, 63, 323.7524108886719
0, 6, 64, 291.5978698730469
0, 6, 65, 282.8659973144531
0, 6, 66, 303.0531311035156
0, 6, 67, 309.3141784667969
0, 6, 68, 293.4193115234375
0, 6, 69, 278.5379638671875
0, 6, 70, 274.5027465820312
0, 6, 71, 288.89599609375
0, 6, 72, 313.6653747558594
0, 6, 73, 295.8056030273438
0, 6, 74, 330.1349182128906
0, 6, 75, 343.5802307128906
0, 6, 76, 298.2547607421875
0, 6, 77, 285.19775390625
0, 6, 78, 277.5030822753906
0, 6, 79, 291.8298645019531
0, 6, 80, 298.30712890625
0, 6, 81, 313.4791259765625
0, 6, 82, 320.5818786621094
0, 6, 83, 319.8839111328125
0, 6, 84, 296.0860290527344
0, 6, 85, 300.4947509765625
0, 6, 86, 330.3617553710938
0, 6, 87, 292.1744689941406
0, 6, 88, 306.0826110839844
0, 6, 89, 303.296142578125
0, 6, 90, 299.0218505859375
0, 6, 91, 312.3887329101562
0, 6, 92, 285.4265747070312
0, 6, 93, 300.9743957519531
0, 6, 94, 274.0340576171875
0, 6, 95, 302.4102478027344
0, 6, 96, 348.0068664550781
0, 6, 97, 309.1092529296875
0, 6, 98, 300.617431640625
0, 6, 99, 273.4095764160156
0, 6, 100, 309.2733459472656
0, 6, 101, 293.2117919921875
0, 6, 102, 306.2981872558594
0, 6, 103, 308.0389099121094
0, 6, 104, 292.0325622558594
0, 6, 105, 300.8473510742188
0, 6, 106, 307.7067260742188
0, 6, 107, 306.976318359375
0, 6, 108, 267.7268371582031
0, 6, 109, 188.2099304199219
0, 6, 110, 55.80328750610352
0, 6, 111, 21.56959342956543
0, 6, 112, 14.03249931335449
0, 6, 113, 10.50854587554932
0, 6, 114, 12.41356468200684
0, 6, 115, 12.00052070617676
0, 6, 116, 10.44363975524902
0, 6, 117, 8.914092063903809
0, 6, 118, 13.8841495513916
0, 6, 119, 11.50563621520996
0, 6, 120, 4.697867870330811
0, 6, 121, 5.326944351196289
0, 6, 122, 6.795740604400635
0, 6, 123, 5.589116096496582
0, 6, 124, 5.822725772857666
0, 6, 125, 5.748727798461914
0, 6, 126, 4.441911697387695
0, 6, 127, 7.704872608184814
0, 7, 0, 5.10300874710083
0, 7, 1, 3.165175676345825
0, 7, 2, 6.757012844085693
0, 7, 3, 2.643341541290283
0, 7, 4, 4.782858848571777
0, 7, 5, 6.986687183380127
0, 7, 6, 4.896090984344482
0, 7, 7, 4.488854885101318
0, 7, 8, 5.464044094085693
0, 7, 9, 7.805809020996094
0, 7, 10, 12.30177879333496
0, 7, 11, 11.86492919921875
0, 7, 12, 10.73811721801758
0, 7, 13, 11.25506782531738
0, 7, 14, 11.36490821838379
0, 7, 15, 14.89890575408936
0, 7, 16, 26.87978744506836
0, 7, 17, 99.43962860107422
0, 7, 18, 217.6400451660156
0, 7, 19, 289.4721374511719
0, 7, 20, 297.1436157226562
0, 7, 21, 278.1227722167969
0, 7, 22, 299.2272338867188
0, 7, 23, 289.1484985351562
0, 7, 24, 314.0645751953125
0, 7, 25, 324.7783508300781
0, 7, 26, 276.8311767578125
0, 7, 27, 298.7313537597656
0, 7, 28, 328.0338745117188
0, 7, 29, 321.7348937988281
0, 7, 30, 302.399169921875
0, 7, 31, 279.5805053710938
0, 7, 32, 305.2338562011719
0, 7, 33, 264.2059936523438
0, 7, 34, 297.6890258789062
0, 7, 35, 321.6302490234375
0, 7, 36, 332.4537963867188
0, 7, 37, 323.8591918945312
0, 7, 38, 295.96484375
0, 7, 39, 308.5394287109375
0, 7, 40, 289.9818115234375
0, 7, 41, 274.8076477050781
0, 7, 42, 302.1954956054688
0, 7, 43, 278.8044738769531
0, 7, 44, 303.6647033691406
0, 7, 45, 294.8361206054688
0, 7, 46, 284.9459533691406
0, 7, 47, 328.3370056152344
0, 7, 48, 288.1408386230469
0, 7, 49, 303.1762390136719
0, 7, 50, 321.8091125488281
0, 7, 51, 299.6708068847656
0, 7, 52, 326.9615783691406
0, 7, 53, 308.0460815429688
0, 7, 54, 323.8092651367188
0, 7, 55, 306.3384094238281
0, 7, 56, 280.8915100097656
0, 7, 57, 284.033203125
0, 7, 58, 296.1615295410156
0, 7, 59, 295.8211364746094
0, 7, 60, 322.6156311035156
0, 7, 61, 278.1547241210938
0, 7, 62, 299.8240051269531
0, 7, 63, 292.9541320800781
0, 7, 64, 308.9744873046875
0, 7, 65, 329.7709350585938
0, 7, 66, 318.0559692382812
0, 7, 67, 301.7686767578125
0, 7, 68, 279.3997497558594
0, 7, 69, 293.9103698730469
0, 7, 70, 301.82666015625
0, 7, 71, 311.3231201171875
0, 7, 72, 285.6405944824219
0, 7, 73, 296.102294921875
0, 7, 74, 344.1197204589844
0, 7, 75, 320.3269653320312
0, 7, 76, 324.0547180175781
0, 7, 77, 282.1878051757812
0, 7, 78, 302.36328125
0, 7, 79, 295.7215881347656
0, 7, 80, 310.4865417480469
0, 7, 81, 320.4060974121094
0, 7, 82, 329.466064453125
0, 7, 83, 317.7548522949219
0, 7, 84, 309.5187072753906
0, 7, 85, 271.5149230957031
0, 7, 86, 310.4120788574219
0, 7, 87, 310.2865295410156
0, 7, 88, 306.7210388183594
0, 7, 89, 293.14794921875
0, 7, 90, 309.5398559570312
0, 7, 91, 314.8115844726562
0, 7, 92, 287.6565551757812
0, 7, 93, 307.937744140625
0, 7, 94, 275.6852722167969
0, 7, 95, 295.5623474121094
0, 7, 96, 330.8033447265625
0, 7, 97, 295.3503723144531
0, 7, 98, 291.6105651855469
0, 7, 99, 310.6964416503906
0, 7, 100, 284.2992553710938
0, 7, 101, 275.5502624511719
0, 7, 102, 290.0548706054688
0, 7, 103, 291.3003845214844
0, 7, 104, 275.3436889648438
0, 7, 105, 306.3520202636719
0, 7, 106, 317.698974609375
0, 7, 107, 297.2228088378906
0, 7, 108, 274.4250793457031
0, 7, 109, 237.6069030761719
0, 7, 110, 97.51077270507812
0, 7, 111, 25.75251770019531
0, 7, 112, 15.31463527679443
0, 7, 113, 13.93229579925537
0, 7, 114, 14.25418567657471
0, 7, 115, 11.95729446411133
0, 7, 116, 9.910250663757324
0, 7, 117, 6.31108283996582
0, 7, 118, 6.409406185150146
0, 7, 119, 6.286301136016846
0, 7, 120, 4.10926342010498
0, 7, 121, 6.855059623718262
0, 7, 122, 6.498588085174561
0, 7, 123, 6.399165153503418
0, 7, 124, 4.014906883239746
0, 7, 125, 7.055126667022705
0, 7, 126, 10.30940914154053
0, 7, 127, 3.276997089385986
0, 8, 0, 4.227174758911133
0, 8, 1, 3.044049263000488
0, 8, 2, 2.855324983596802
0, 8, 3, 4.852395057678223
0, 8, 4, 5.109694957733154
0, 8, 5, 4.931007862091064
0, 8, 6, 4.338756561279297
0, 8, 7, 5.129748344421387
0, 8, 8, 8.492731094360352
0, 8, 9, 5.098306179046631
0, 8, 10, 7.069472312927246
0, 8, 11, 11.86384391784668
0, 8, 12, 11.97054481506348
0, 8, 13, 14.0164794921875
0, 8, 14, 11.9491491317749
0, 8, 15, 18.61631965637207
0, 8, 16, 31.9920539855957
0, 8, 17, 130.7037506103516
0, 8, 18, 242.2725372314453
0, 8, 19, 296.5063171386719
0, 8, 20, 284.9696044921875
0, 8, 21, 306.0973815917969
0, 8, 22, 294.8787841796875
0, 8, 23, 274.469482421875
0, 8, 24, 268.1437683105469
0, 8, 25, 274.7709655761719
0, 8, 26, 305.5180053710938
0, 8, 27, 307.050048828125
0, 8, 28, 303.09619140625
0, 8, 29, 318.8974609375
0, 8, 30, 316.3060302734375
0, 8, 31, 306.5693969726562
0, 8, 32, 280.8495483398438
0, 8, 33, 294.7697448730469
0, 8, 34, 289.2023315429688
0, 8, 35, 279.4133911132812
0, 8, 36, 314.1772766113281
0, 8, 37, 339.2824401855469
0, 8, 38, 332.4471740722656
0, 8, 39, 280.936767578125
