# TOPAS Version: 3.1.p3
# Parameter File: batch_inserts_282.txt
# Results for scorer Readout_Adipose
# Scored in component: MyBox
# X in 1 bin  of 0.75 cm
# Y in 512 bins of 0.0783984 cm
# Z in 128 bins of 0.078125 cm
# EnergyDeposit ( MeV ) : Sum   
0, 0, 0, 18.8279972076416
0, 0, 1, 20.38924407958984
0, 0, 2, 20.20997619628906
0, 0, 3, 23.53306579589844
0, 0, 4, 15.52767181396484
0, 0, 5, 21.03071784973145
0, 0, 6, 25.38852500915527
0, 0, 7, 31.47427940368652
0, 0, 8, 21.44781684875488
0, 0, 9, 20.43925285339355
0, 0, 10, 24.74465751647949
0, 0, 11, 27.06625938415527
0, 0, 12, 32.03908920288086
0, 0, 13, 28.16798210144043
0, 0, 14, 35.49894332885742
0, 0, 15, 50.04508209228516
0, 0, 16, 47.08971786499023
0, 0, 17, 43.9890251159668
0, 0, 18, 74.51800537109375
0, 0, 19, 194.1869659423828
0, 0, 20, 700.1004028320312
0, 0, 21, 1189.521850585938
0, 0, 22, 1247.908081054688
0, 0, 23, 1275.499145507812
0, 0, 24, 1284.33349609375
0, 0, 25, 1356.503295898438
0, 0, 26, 1273.6337890625
0, 0, 27, 1279.409423828125
0, 0, 28, 1322.755615234375
0, 0, 29, 1269.171752929688
0, 0, 30, 1263.152587890625
0, 0, 31, 1279.478149414062
0, 0, 32, 1263.127319335938
0, 0, 33, 1243.772705078125
0, 0, 34, 1326.75146484375
0, 0, 35, 1302.104614257812
0, 0, 36, 1249.9326171875
0, 0, 37, 1278.781982421875
0, 0, 38, 1251.208251953125
0, 0, 39, 1244.793334960938
0, 0, 40, 1220.9150390625
0, 0, 41, 1271.0380859375
0, 0, 42, 1253.063598632812
0, 0, 43, 1270.100341796875
0, 0, 44, 1224.47705078125
0, 0, 45, 1288.830810546875
0, 0, 46, 1264.120361328125
0, 0, 47, 1242.676635742188
0, 0, 48, 1277.137329101562
0, 0, 49, 1286.756958007812
0, 0, 50, 1310.890991210938
0, 0, 51, 1265.681030273438
0, 0, 52, 1359.132202148438
0, 0, 53, 1329.92333984375
0, 0, 54, 1294.897094726562
0, 0, 55, 1229.147216796875
0, 0, 56, 1317.437377929688
0, 0, 57, 1293.883666992188
0, 0, 58, 1257.1787109375
0, 0, 59, 1333.326293945312
0, 0, 60, 1323.6494140625
0, 0, 61, 1262.057739257812
0, 0, 62, 1240.1015625
0, 0, 63, 1273.892211914062
0, 0, 64, 1328.233642578125
0, 0, 65, 1285.787841796875
0, 0, 66, 1315.278930664062
0, 0, 67, 1217.979614257812
0, 0, 68, 1305.0751953125
0, 0, 69, 1325.321899414062
0, 0, 70, 1346.677490234375
0, 0, 71, 1288.056396484375
0, 0, 72, 1315.792724609375
0, 0, 73, 1242.984741210938
0, 0, 74, 1290.332885742188
0, 0, 75, 1299.873291015625
0, 0, 76, 1256.239501953125
0, 0, 77, 1285.5458984375
0, 0, 78, 1312.991333007812
0, 0, 79, 1324.115356445312
0, 0, 80, 1265.516357421875
0, 0, 81, 1329.604614257812
0, 0, 82, 1285.753173828125
0, 0, 83, 1287.540649414062
0, 0, 84, 1334.752807617188
0, 0, 85, 1232.44140625
0, 0, 86, 1271.105102539062
0, 0, 87, 1252.151977539062
0, 0, 88, 1255.863037109375
0, 0, 89, 1340.72265625
0, 0, 90, 1279.926635742188
0, 0, 91, 1353.872436523438
0, 0, 92, 1304.564819335938
0, 0, 93, 1270.36669921875
0, 0, 94, 1245.764404296875
0, 0, 95, 1331.858764648438
0, 0, 96, 1284.241333007812
0, 0, 97, 1325.20703125
0, 0, 98, 1258.58544921875
0, 0, 99, 1254.079467773438
0, 0, 100, 1289.537963867188
0, 0, 101, 1313.618408203125
0, 0, 102, 1232.4697265625
0, 0, 103, 1322.068237304688
0, 0, 104, 1263.136474609375
0, 0, 105, 1263.97265625
0, 0, 106, 1209.682495117188
0, 0, 107, 784.6973876953125
0, 0, 108, 194.2368621826172
0, 0, 109, 67.14987945556641
0, 0, 110, 59.1877326965332
0, 0, 111, 43.9407958984375
0, 0, 112, 34.18208312988281
0, 0, 113, 36.88175201416016
0, 0, 114, 33.98270416259766
0, 0, 115, 33.2132568359375
0, 0, 116, 32.35570526123047
0, 0, 117, 34.28190231323242
0, 0, 118, 23.60163497924805
0, 0, 119, 18.51261520385742
0, 0, 120, 23.64508438110352
0, 0, 121, 33.22113037109375
0, 0, 122, 19.77728271484375
0, 0, 123, 18.06242942810059
0, 0, 124, 18.01520729064941
0, 0, 125, 18.99523735046387
0, 0, 126, 23.08608245849609
0, 0, 127, 25.82987403869629
0, 1, 0, 24.88597297668457
0, 1, 1, 21.40896797180176
0, 1, 2, 23.1226749420166
0, 1, 3, 20.01418685913086
0, 1, 4, 25.04812622070312
0, 1, 5, 25.08145904541016
0, 1, 6, 21.1417407989502
0, 1, 7, 28.00272369384766
0, 1, 8, 38.50509643554688
0, 1, 9, 30.28956413269043
0, 1, 10, 33.68755722045898
0, 1, 11, 38.598876953125
0, 1, 12, 40.95648956298828
0, 1, 13, 46.84484100341797
0, 1, 14, 41.79202270507812
0, 1, 15, 49.09445190429688
0, 1, 16, 57.82773971557617
0, 1, 17, 61.81711578369141
0, 1, 18, 96.80537414550781
0, 1, 19, 401.1971740722656
0, 1, 20, 1039.386474609375
0, 1, 21, 1372.192504882812
0, 1, 22, 1476.16162109375
0, 1, 23, 1460.330078125
0, 1, 24, 1456.046264648438
0, 1, 25, 1419.722412109375
0, 1, 26, 1478.600952148438
0, 1, 27, 1460.406494140625
0, 1, 28, 1487.771606445312
0, 1, 29, 1472.11376953125
0, 1, 30, 1510.732421875
0, 1, 31, 1480.476318359375
0, 1, 32, 1412.957763671875
0, 1, 33, 1499.56982421875
0, 1, 34, 1503.578002929688
0, 1, 35, 1463.575561523438
0, 1, 36, 1489.240600585938
0, 1, 37, 1407.938354492188
0, 1, 38, 1391.75927734375
0, 1, 39, 1520.607421875
0, 1, 40, 1462.629760742188
0, 1, 41, 1484.209716796875
0, 1, 42, 1493.869873046875
0, 1, 43, 1502.861694335938
0, 1, 44, 1450.145874023438
0, 1, 45, 1488.833129882812
0, 1, 46, 1419.897705078125
0, 1, 47, 1435.949462890625
0, 1, 48, 1426.673217773438
0, 1, 49, 1486.776733398438
0, 1, 50, 1442.107788085938
0, 1, 51, 1475.64892578125
0, 1, 52, 1479.09814453125
0, 1, 53, 1473.203369140625
0, 1, 54, 1508.2939453125
0, 1, 55, 1496.852905273438
0, 1, 56, 1468.763549804688
0, 1, 57, 1456.943359375
0, 1, 58, 1428.456420898438
0, 1, 59, 1482.299072265625
0, 1, 60, 1464.077026367188
0, 1, 61, 1445.622192382812
0, 1, 62, 1456.018676757812
0, 1, 63, 1416.984985351562
0, 1, 64, 1477.682250976562
0, 1, 65, 1415.366577148438
0, 1, 66, 1440.633422851562
0, 1, 67, 1454.857299804688
0, 1, 68, 1390.003173828125
0, 1, 69, 1462.27783203125
0, 1, 70, 1433.4189453125
0, 1, 71, 1504.671752929688
0, 1, 72, 1437.270629882812
0, 1, 73, 1491.642456054688
0, 1, 74, 1468.138305664062
0, 1, 75, 1477.755859375
0, 1, 76, 1463.036010742188
0, 1, 77, 1467.995483398438
0, 1, 78, 1451.568115234375
0, 1, 79, 1501.678466796875
0, 1, 80, 1451.0361328125
0, 1, 81, 1423.220092773438
0, 1, 82, 1473.401123046875
0, 1, 83, 1460.10009765625
0, 1, 84, 1531.27197265625
0, 1, 85, 1452.334838867188
0, 1, 86, 1406.288940429688
0, 1, 87, 1418.984252929688
0, 1, 88, 1472.53564453125
0, 1, 89, 1472.40283203125
0, 1, 90, 1425.553588867188
0, 1, 91, 1463.499145507812
0, 1, 92, 1412.998657226562
0, 1, 93, 1460.4013671875
0, 1, 94, 1467.699584960938
0, 1, 95, 1417.8427734375
0, 1, 96, 1492.611694335938
0, 1, 97, 1515.294311523438
0, 1, 98, 1476.998901367188
0, 1, 99, 1417.215698242188
0, 1, 100, 1446.515747070312
0, 1, 101, 1414.166625976562
0, 1, 102, 1440.038818359375
0, 1, 103, 1417.66943359375
0, 1, 104, 1406.697631835938
0, 1, 105, 1461.912719726562
0, 1, 106, 1365.706176757812
0, 1, 107, 1018.820068359375
0, 1, 108, 405.4555053710938
0, 1, 109, 94.22365570068359
0, 1, 110, 64.96621704101562
0, 1, 111, 57.49530029296875
0, 1, 112, 50.46879959106445
0, 1, 113, 34.00402069091797
0, 1, 114, 39.25738906860352
0, 1, 115, 39.16119384765625
0, 1, 116, 35.93144989013672
0, 1, 117, 33.99134826660156
0, 1, 118, 38.68804931640625
0, 1, 119, 38.05495834350586
0, 1, 120, 29.25543975830078
0, 1, 121, 29.80851936340332
0, 1, 122, 23.43569374084473
0, 1, 123, 22.60671424865723
0, 1, 124, 26.96864700317383
0, 1, 125, 17.72156524658203
0, 1, 126, 16.27801132202148
0, 1, 127, 18.41110420227051
0, 2, 0, 20.19260787963867
0, 2, 1, 20.8495044708252
0, 2, 2, 32.11353302001953
0, 2, 3, 18.24789428710938
0, 2, 4, 21.48567199707031
0, 2, 5, 25.64704132080078
0, 2, 6, 27.05863952636719
0, 2, 7, 22.36002540588379
0, 2, 8, 27.20564270019531
0, 2, 9, 27.81972312927246
0, 2, 10, 29.2280330657959
0, 2, 11, 34.46529769897461
0, 2, 12, 42.00236129760742
0, 2, 13, 47.89053726196289
0, 2, 14, 48.27869415283203
0, 2, 15, 50.24737548828125
0, 2, 16, 59.08912658691406
0, 2, 17, 80.48703765869141
0, 2, 18, 146.8052520751953
0, 2, 19, 610.4407348632812
0, 2, 20, 1283.813110351562
0, 2, 21, 1435.121948242188
0, 2, 22, 1459.205688476562
0, 2, 23, 1409.564819335938
0, 2, 24, 1439.90478515625
0, 2, 25, 1523.882202148438
0, 2, 26, 1552.839111328125
0, 2, 27, 1455.554443359375
0, 2, 28, 1456.107788085938
0, 2, 29, 1461.656860351562
0, 2, 30, 1463.97216796875
0, 2, 31, 1537.368408203125
0, 2, 32, 1508.3076171875
0, 2, 33, 1438.889038085938
0, 2, 34, 1470.931640625
0, 2, 35, 1469.441284179688
0, 2, 36, 1525.765380859375
0, 2, 37, 1540.1513671875
0, 2, 38, 1508.127197265625
0, 2, 39, 1463.372924804688
0, 2, 40, 1502.297607421875
0, 2, 41, 1517.990600585938
0, 2, 42, 1504.654541015625
0, 2, 43, 1550.766479492188
0, 2, 44, 1461.608764648438
0, 2, 45, 1484.4619140625
0, 2, 46, 1422.083251953125
0, 2, 47, 1444.82177734375
0, 2, 48, 1402.337524414062
0, 2, 49, 1460.739868164062
0, 2, 50, 1447.167358398438
0, 2, 51, 1447.40673828125
0, 2, 52, 1498.184204101562
0, 2, 53, 1528.073608398438
0, 2, 54, 1525.518188476562
0, 2, 55, 1498.312622070312
0, 2, 56, 1460.573486328125
0, 2, 57, 1413.582885742188
0, 2, 58, 1453.186279296875
0, 2, 59, 1443.854370117188
0, 2, 60, 1475.069580078125
0, 2, 61, 1452.2001953125
0, 2, 62, 1471.045654296875
0, 2, 63, 1510.288452148438
0, 2, 64, 1459.424682617188
0, 2, 65, 1428.636474609375
0, 2, 66, 1487.763793945312
0, 2, 67, 1502.708618164062
0, 2, 68, 1545.223876953125
0, 2, 69, 1534.122802734375
0, 2, 70, 1508.50927734375
0, 2, 71, 1464.327270507812
0, 2, 72, 1517.851196289062
0, 2, 73, 1519.231689453125
0, 2, 74, 1487.825561523438
0, 2, 75, 1505.158447265625
0, 2, 76, 1451.579467773438
0, 2, 77, 1511.858642578125
0, 2, 78, 1425.6650390625
0, 2, 79, 1539.593994140625
0, 2, 80, 1478.711181640625
0, 2, 81, 1463.54736328125
0, 2, 82, 1559.1865234375
0, 2, 83, 1511.215942382812
0, 2, 84, 1494.918823242188
0, 2, 85, 1517.74267578125
0, 2, 86, 1540.101806640625
0, 2, 87, 1482.310913085938
0, 2, 88, 1536.70654296875
0, 2, 89, 1464.96630859375
0, 2, 90, 1431.73046875
0, 2, 91, 1403.007202148438
0, 2, 92, 1480.307495117188
0, 2, 93, 1493.437622070312
0, 2, 94, 1450.214721679688
0, 2, 95, 1545.322021484375
0, 2, 96, 1518.541259765625
0, 2, 97, 1456.10302734375
0, 2, 98, 1470.240600585938
0, 2, 99, 1404.336791992188
0, 2, 100, 1474.190673828125
0, 2, 101, 1477.265380859375
0, 2, 102, 1464.927124023438
0, 2, 103, 1393.730590820312
0, 2, 104, 1408.065185546875
0, 2, 105, 1395.660278320312
0, 2, 106, 1453.820678710938
0, 2, 107, 1277.917602539062
0, 2, 108, 619.51416015625
0, 2, 109, 168.4869537353516
0, 2, 110, 69.59716796875
0, 2, 111, 60.82817459106445
0, 2, 112, 45.07461547851562
0, 2, 113, 43.45814514160156
0, 2, 114, 42.58964157104492
0, 2, 115, 39.53963851928711
0, 2, 116, 36.32501602172852
0, 2, 117, 32.61360549926758
0, 2, 118, 27.37706565856934
0, 2, 119, 32.00804138183594
0, 2, 120, 30.214599609375
0, 2, 121, 19.18061637878418
0, 2, 122, 26.2397289276123
0, 2, 123, 25.6751708984375
0, 2, 124, 33.34210968017578
0, 2, 125, 28.07139778137207
0, 2, 126, 17.97794151306152
0, 2, 127, 21.62890243530273
0, 3, 0, 13.44669055938721
0, 3, 1, 22.75065803527832
0, 3, 2, 19.07011795043945
0, 3, 3, 22.96961975097656
0, 3, 4, 17.6114673614502
0, 3, 5, 26.71549415588379
0, 3, 6, 29.61681365966797
0, 3, 7, 34.51261138916016
0, 3, 8, 31.17776679992676
0, 3, 9, 24.11280059814453
0, 3, 10, 38.27216339111328
0, 3, 11, 35.68009567260742
0, 3, 12, 43.18914031982422
0, 3, 13, 53.78476333618164
0, 3, 14, 54.95796585083008
0, 3, 15, 53.88422393798828
0, 3, 16, 63.73669052124023
0, 3, 17, 92.07787322998047
0, 3, 18, 233.8314361572266
0, 3, 19, 878.4779052734375
0, 3, 20, 1386.59423828125
0, 3, 21, 1508.322509765625
0, 3, 22, 1463.22900390625
0, 3, 23, 1455.874145507812
0, 3, 24, 1443.212158203125
0, 3, 25, 1462.2021484375
0, 3, 26, 1491.069213867188
0, 3, 27, 1470.30078125
0, 3, 28, 1492.572875976562
0, 3, 29, 1544.187377929688
0, 3, 30, 1567.913818359375
0, 3, 31, 1511.556396484375
0, 3, 32, 1546.2890625
0, 3, 33, 1542.377563476562
0, 3, 34, 1489.8916015625
0, 3, 35, 1464.240600585938
0, 3, 36, 1449.75830078125
0, 3, 37, 1524.231689453125
0, 3, 38, 1518.797729492188
0, 3, 39, 1434.515380859375
0, 3, 40, 1443.89599609375
0, 3, 41, 1559.250122070312
0, 3, 42, 1461.623413085938
0, 3, 43, 1459.107055664062
0, 3, 44, 1454.669067382812
0, 3, 45, 1508.999145507812
0, 3, 46, 1504.03662109375
0, 3, 47, 1443.389404296875
0, 3, 48, 1504.423583984375
0, 3, 49, 1454.203002929688
0, 3, 50, 1490.907348632812
0, 3, 51, 1538.409301757812
0, 3, 52, 1535.087036132812
0, 3, 53, 1465.98974609375
0, 3, 54, 1539.51953125
0, 3, 55, 1505.396240234375
0, 3, 56, 1435.818725585938
0, 3, 57, 1504.39013671875
0, 3, 58, 1516.880126953125
0, 3, 59, 1513.091064453125
0, 3, 60, 1535.30419921875
0, 3, 61, 1479.126220703125
0, 3, 62, 1489.39453125
0, 3, 63, 1495.415283203125
0, 3, 64, 1498.637451171875
0, 3, 65, 1511.283325195312
0, 3, 66, 1552.322265625
0, 3, 67, 1545.244140625
0, 3, 68, 1447.809204101562
0, 3, 69, 1465.075439453125
0, 3, 70, 1389.09619140625
0, 3, 71, 1463.71484375
0, 3, 72, 1549.354736328125
0, 3, 73, 1499.17724609375
0, 3, 74, 1471.418334960938
0, 3, 75, 1461.644897460938
0, 3, 76, 1575.155517578125
0, 3, 77, 1542.794921875
0, 3, 78, 1426.53125
0, 3, 79, 1491.726928710938
0, 3, 80, 1458.697631835938
0, 3, 81, 1471.2578125
0, 3, 82, 1553.658813476562
0, 3, 83, 1511.008422851562
0, 3, 84, 1562.9345703125
0, 3, 85, 1473.952026367188
0, 3, 86, 1525.005859375
0, 3, 87, 1544.218627929688
0, 3, 88, 1457.578125
0, 3, 89, 1451.418701171875
0, 3, 90, 1449.533935546875
0, 3, 91, 1422.350708007812
0, 3, 92, 1509.535522460938
0, 3, 93, 1502.435913085938
0, 3, 94, 1517.102172851562
0, 3, 95, 1544.159912109375
0, 3, 96, 1512.021484375
0, 3, 97, 1466.349609375
0, 3, 98, 1434.681030273438
0, 3, 99, 1467.083984375
0, 3, 100, 1474.373291015625
0, 3, 101, 1469.819702148438
0, 3, 102, 1521.703369140625
0, 3, 103, 1556.430053710938
0, 3, 104, 1499.755126953125
0, 3, 105, 1514.235107421875
0, 3, 106, 1477.34033203125
0, 3, 107, 1339.878295898438
0, 3, 108, 873.3451538085938
0, 3, 109, 269.6658020019531
0, 3, 110, 101.2987213134766
0, 3, 111, 61.20050811767578
0, 3, 112, 58.43459320068359
0, 3, 113, 50.89458084106445
0, 3, 114, 47.83917999267578
0, 3, 115, 50.91010665893555
0, 3, 116, 36.2233772277832
0, 3, 117, 38.29053115844727
0, 3, 118, 31.71614837646484
0, 3, 119, 32.17284774780273
0, 3, 120, 31.83364486694336
0, 3, 121, 21.38317680358887
0, 3, 122, 23.12868499755859
0, 3, 123, 25.35011100769043
0, 3, 124, 23.5838451385498
0, 3, 125, 25.84214401245117
0, 3, 126, 30.44376754760742
0, 3, 127, 15.90426826477051
0, 4, 0, 21.04632949829102
0, 4, 1, 23.5351676940918
0, 4, 2, 16.93747901916504
0, 4, 3, 21.34881591796875
0, 4, 4, 26.96911430358887
0, 4, 5, 26.25501251220703
0, 4, 6, 26.94684600830078
0, 4, 7, 34.22197723388672
0, 4, 8, 25.24091529846191
0, 4, 9, 34.82765197753906
0, 4, 10, 32.54438400268555
0, 4, 11, 42.49279403686523
0, 4, 12, 43.12282562255859
0, 4, 13, 56.23283386230469
0, 4, 14, 51.56669616699219
0, 4, 15, 63.71879196166992
0, 4, 16, 75.84208679199219
0, 4, 17, 113.5377960205078
0, 4, 18, 449.1096801757812
0, 4, 19, 1180.07666015625
0, 4, 20, 1444.849609375
0, 4, 21, 1419.923828125
0, 4, 22, 1433.454833984375
0, 4, 23, 1450.86376953125
0, 4, 24, 1475.950317382812
0, 4, 25, 1408.00390625
0, 4, 26, 1541.852905273438
0, 4, 27, 1543.874877929688
0, 4, 28, 1506.76806640625
0, 4, 29, 1517.959838867188
0, 4, 30, 1528.807250976562
0, 4, 31, 1567.885864257812
0, 4, 32, 1521.804321289062
0, 4, 33, 1495.099731445312
0, 4, 34, 1472.19580078125
0, 4, 35, 1565.564208984375
0, 4, 36, 1509.228393554688
0, 4, 37, 1508.340454101562
0, 4, 38, 1530.294799804688
0, 4, 39, 1468.95947265625
0, 4, 40, 1512.044311523438
0, 4, 41, 1590.530395507812
0, 4, 42, 1562.3212890625
0, 4, 43, 1479.4609375
0, 4, 44, 1492.134765625
0, 4, 45, 1513.913696289062
0, 4, 46, 1474.164184570312
0, 4, 47, 1499.608032226562
0, 4, 48, 1533.401123046875
0, 4, 49, 1474.1982421875
0, 4, 50, 1517.188720703125
0, 4, 51, 1491.778564453125
0, 4, 52, 1496.11474609375
0, 4, 53, 1455.9970703125
0, 4, 54, 1439.435302734375
0, 4, 55, 1525.271240234375
0, 4, 56, 1449.43505859375
0, 4, 57, 1497.549926757812
0, 4, 58, 1465.411499023438
0, 4, 59, 1460.969482421875
0, 4, 60, 1524.3330078125
0, 4, 61, 1498.744018554688
0, 4, 62, 1502.137817382812
0, 4, 63, 1545.443237304688
0, 4, 64, 1591.220947265625
0, 4, 65, 1421.233154296875
0, 4, 66, 1515.007690429688
0, 4, 67, 1521.56884765625
0, 4, 68, 1494.58154296875
0, 4, 69, 1472.434448242188
0, 4, 70, 1546.21337890625
0, 4, 71, 1524.252075195312
0, 4, 72, 1530.983642578125
0, 4, 73, 1495.884033203125
0, 4, 74, 1486.923583984375
0, 4, 75, 1535.075805664062
0, 4, 76, 1482.69921875
0, 4, 77, 1499.965087890625
0, 4, 78, 1499.226928710938
0, 4, 79, 1482.800659179688
0, 4, 80, 1517.031127929688
0, 4, 81, 1525.409790039062
0, 4, 82, 1568.392700195312
0, 4, 83, 1506.865478515625
0, 4, 84, 1540.100341796875
0, 4, 85, 1556.884399414062
0, 4, 86, 1522.182861328125
0, 4, 87, 1493.222900390625
0, 4, 88, 1509.250244140625
0, 4, 89, 1481.975830078125
0, 4, 90, 1542.84814453125
0, 4, 91, 1555.478515625
0, 4, 92, 1492.388671875
0, 4, 93, 1515.118896484375
0, 4, 94, 1481.540649414062
0, 4, 95, 1511.05615234375
0, 4, 96, 1444.365844726562
0, 4, 97, 1407.483642578125
0, 4, 98, 1555.648559570312
0, 4, 99, 1516.906372070312
0, 4, 100, 1489.189331054688
0, 4, 101, 1449.59814453125
0, 4, 102, 1445.273803710938
0, 4, 103, 1516.890502929688
0, 4, 104, 1510.151000976562
0, 4, 105, 1555.280151367188
0, 4, 106, 1473.922729492188
0, 4, 107, 1456.2080078125
0, 4, 108, 1123.4560546875
0, 4, 109, 439.1864013671875
0, 4, 110, 96.41180419921875
0, 4, 111, 69.27977752685547
0, 4, 112, 59.58195114135742
0, 4, 113, 49.18373489379883
0, 4, 114, 50.04109191894531
0, 4, 115, 39.32503509521484
0, 4, 116, 36.52056121826172
0, 4, 117, 39.58440399169922
0, 4, 118, 36.94980621337891
0, 4, 119, 37.77408218383789
0, 4, 120, 35.32684326171875
0, 4, 121, 28.53472900390625
0, 4, 122, 32.10747909545898
0, 4, 123, 26.85671997070312
0, 4, 124, 20.06830406188965
0, 4, 125, 26.92097282409668
0, 4, 126, 22.31954765319824
0, 4, 127, 19.87115859985352
0, 5, 0, 21.16456604003906
0, 5, 1, 25.39118385314941
0, 5, 2, 29.66781044006348
0, 5, 3, 22.22438621520996
0, 5, 4, 20.96912384033203
0, 5, 5, 33.66781997680664
0, 5, 6, 34.07550048828125
0, 5, 7, 30.48777770996094
0, 5, 8, 29.47531127929688
0, 5, 9, 32.57624435424805
0, 5, 10, 32.05682754516602
0, 5, 11, 41.15021514892578
0, 5, 12, 43.1378059387207
0, 5, 13, 43.38743591308594
0, 5, 14, 58.96352386474609
0, 5, 15, 73.76449584960938
0, 5, 16, 78.77178955078125
0, 5, 17, 159.6900787353516
0, 5, 18, 674.1973876953125
0, 5, 19, 1347.612548828125
0, 5, 20, 1532.9560546875
0, 5, 21, 1494.79296875
0, 5, 22, 1500.348754882812
0, 5, 23, 1530.352294921875
0, 5, 24, 1466.847290039062
0, 5, 25, 1433.3203125
0, 5, 26, 1526.452270507812
0, 5, 27, 1538.5576171875
0, 5, 28, 1489.366577148438
0, 5, 29, 1525.119873046875
0, 5, 30, 1492.957885742188
0, 5, 31, 1502.38818359375
0, 5, 32, 1595.802490234375
0, 5, 33, 1503.061645507812
0, 5, 34, 1482.049560546875
0, 5, 35, 1509.315673828125
0, 5, 36, 1437.638549804688
0, 5, 37, 1529.614624023438
0, 5, 38, 1546.297119140625
0, 5, 39, 1560.777221679688
0, 5, 40, 1502.580078125
0, 5, 41, 1482.126586914062
0, 5, 42, 1540.399291992188
0, 5, 43, 1534.574462890625
0, 5, 44, 1544.736328125
0, 5, 45, 1510.005737304688
0, 5, 46, 1499.907836914062
0, 5, 47, 1482.232666015625
0, 5, 48, 1499.422973632812
0, 5, 49, 1524.230102539062
0, 5, 50, 1500.63037109375
0, 5, 51, 1522.069458007812
0, 5, 52, 1430.575927734375
0, 5, 53, 1520.969116210938
0, 5, 54, 1519.518310546875
0, 5, 55, 1524.835083007812
0, 5, 56, 1488.07861328125
0, 5, 57, 1538.697998046875
0, 5, 58, 1503.995971679688
0, 5, 59, 1491.9365234375
0, 5, 60, 1538.540405273438
0, 5, 61, 1452.615356445312
0, 5, 62, 1588.244018554688
0, 5, 63, 1435.265747070312
0, 5, 64, 1485.505981445312
0, 5, 65, 1470.43701171875
0, 5, 66, 1528.963989257812
0, 5, 67, 1563.590698242188
0, 5, 68, 1468.072143554688
0, 5, 69, 1477.977783203125
0, 5, 70, 1488.956176757812
0, 5, 71, 1471.632202148438
0, 5, 72, 1538.702392578125
0, 5, 73, 1460.489135742188
0, 5, 74, 1493.684814453125
0, 5, 75, 1485.484497070312
0, 5, 76, 1480.537353515625
0, 5, 77, 1521.574951171875
0, 5, 78, 1530.813232421875
0, 5, 79, 1510.206176757812
0, 5, 80, 1519.833740234375
0, 5, 81, 1599.824829101562
0, 5, 82, 1528.384399414062
0, 5, 83, 1488.14208984375
0, 5, 84, 1533.350219726562
0, 5, 85, 1508.262451171875
0, 5, 86, 1552.306396484375
0, 5, 87, 1473.33056640625
0, 5, 88, 1498.652221679688
0, 5, 89, 1479.868530273438
0, 5, 90, 1483.193603515625
0, 5, 91, 1550.506591796875
0, 5, 92, 1484.417846679688
0, 5, 93, 1556.551147460938
0, 5, 94, 1518.38916015625
0, 5, 95, 1565.081665039062
0, 5, 96, 1500.09130859375
0, 5, 97, 1510.669189453125
0, 5, 98, 1510.146728515625
0, 5, 99, 1543.791137695312
0, 5, 100, 1435.385131835938
0, 5, 101, 1431.724853515625
0, 5, 102, 1512.260131835938
0, 5, 103, 1474.62841796875
0, 5, 104, 1456.00390625
0, 5, 105, 1494.814208984375
0, 5, 106, 1462.828491210938
0, 5, 107, 1404.966796875
0, 5, 108, 1288.088012695312
0, 5, 109, 723.2529907226562
0, 5, 110, 187.7198638916016
0, 5, 111, 92.02616882324219
0, 5, 112, 83.39003753662109
0, 5, 113, 67.86930847167969
0, 5, 114, 60.88522338867188
0, 5, 115, 54.97709274291992
0, 5, 116, 45.53315734863281
0, 5, 117, 38.88970184326172
0, 5, 118, 41.42769241333008
0, 5, 119, 24.50950813293457
0, 5, 120, 25.26196670532227
0, 5, 121, 23.17693901062012
0, 5, 122, 30.29738426208496
0, 5, 123, 25.97469902038574
0, 5, 124, 29.85624504089355
0, 5, 125, 22.44891357421875
0, 5, 126, 21.70309638977051
0, 5, 127, 22.43647575378418
0, 6, 0, 22.26735305786133
0, 6, 1, 30.12871932983398
0, 6, 2, 31.72051048278809
0, 6, 3, 27.22604179382324
0, 6, 4, 22.73867797851562
0, 6, 5, 32.45267868041992
0, 6, 6, 36.31344985961914
0, 6, 7, 31.63953971862793
0, 6, 8, 34.91513061523438
0, 6, 9, 34.3132438659668
0, 6, 10, 36.35324096679688
0, 6, 11, 38.81603622436523
0, 6, 12, 38.57707977294922
0, 6, 13, 56.93476104736328
0, 6, 14, 68.89212036132812
0, 6, 15, 84.39962005615234
0, 6, 16, 112.5149307250977
0, 6, 17, 301.8110046386719
0, 6, 18, 897.9288330078125
0, 6, 19, 1374.701782226562
0, 6, 20, 1438.375122070312
0, 6, 21, 1531.457153320312
0, 6, 22, 1502.862548828125
0, 6, 23, 1529.199462890625
0, 6, 24, 1476.886352539062
0, 6, 25, 1527.447387695312
0, 6, 26, 1515.173706054688
0, 6, 27, 1522.20361328125
0, 6, 28, 1552.013671875
0, 6, 29, 1578.982177734375
0, 6, 30, 1518.355712890625
0, 6, 31, 1494.215942382812
0, 6, 32, 1521.4150390625
0, 6, 33, 1488.699340820312
0, 6, 34, 1562.303344726562
0, 6, 35, 1503.930419921875
0, 6, 36, 1434.861938476562
0, 6, 37, 1544.424194335938
0, 6, 38, 1523.782958984375
0, 6, 39, 1526.449829101562
0, 6, 40, 1459.514282226562
0, 6, 41, 1440.069091796875
0, 6, 42, 1514.6005859375
0, 6, 43, 1489.603515625
0, 6, 44, 1430.712646484375
0, 6, 45, 1545.043334960938
0, 6, 46, 1551.970336914062
0, 6, 47, 1495.99755859375
0, 6, 48, 1526.822509765625
0, 6, 49, 1504.991943359375
0, 6, 50, 1575.817993164062
0, 6, 51, 1504.404052734375
0, 6, 52, 1567.459228515625
0, 6, 53, 1479.135864257812
0, 6, 54, 1499.052490234375
0, 6, 55, 1570.889526367188
0, 6, 56, 1523.377685546875
0, 6, 57, 1502.428344726562
0, 6, 58, 1469.982055664062
0, 6, 59, 1523.099243164062
0, 6, 60, 1470.402709960938
0, 6, 61, 1575.034790039062
0, 6, 62, 1543.56494140625
0, 6, 63, 1493.724853515625
0, 6, 64, 1409.195190429688
0, 6, 65, 1491.167114257812
0, 6, 66, 1507.882202148438
0, 6, 67, 1511.671752929688
0, 6, 68, 1548.147827148438
0, 6, 69, 1482.507446289062
0, 6, 70, 1528.348754882812
0, 6, 71, 1468.8017578125
0, 6, 72, 1592.050903320312
0, 6, 73, 1491.753173828125
0, 6, 74, 1560.821411132812
0, 6, 75, 1535.254760742188
0, 6, 76, 1568.942260742188
0, 6, 77, 1503.766357421875
0, 6, 78, 1446.870849609375
0, 6, 79, 1555.657836914062
0, 6, 80, 1482.36962890625
0, 6, 81, 1488.977905273438
0, 6, 82, 1504.44970703125
0, 6, 83, 1528.95654296875
0, 6, 84, 1530.700805664062
0, 6, 85, 1535.195190429688
0, 6, 86, 1542.527954101562
0, 6, 87, 1587.890258789062
0, 6, 88, 1478.609252929688
0, 6, 89, 1561.802856445312
0, 6, 90, 1493.05712890625
0, 6, 91, 1542.365844726562
0, 6, 92, 1485.542602539062
0, 6, 93, 1499.445678710938
0, 6, 94, 1466.493041992188
0, 6, 95, 1511.50537109375
0, 6, 96, 1518.904052734375
0, 6, 97, 1502.9873046875
0, 6, 98, 1494.79296875
0, 6, 99, 1477.427490234375
0, 6, 100, 1518.697875976562
0, 6, 101, 1514.1259765625
0, 6, 102, 1540.117553710938
0, 6, 103, 1497.412109375
0, 6, 104, 1460.901000976562
0, 6, 105, 1485.34716796875
0, 6, 106, 1497.52294921875
0, 6, 107, 1503.226928710938
0, 6, 108, 1409.63671875
0, 6, 109, 927.445068359375
0, 6, 110, 284.9726257324219
0, 6, 111, 98.55660247802734
0, 6, 112, 75.12312316894531
0, 6, 113, 56.36920928955078
0, 6, 114, 56.51979064941406
0, 6, 115, 43.41467666625977
0, 6, 116, 47.33966064453125
0, 6, 117, 38.24821090698242
0, 6, 118, 43.22791290283203
0, 6, 119, 31.70874214172363
0, 6, 120, 31.73217010498047
0, 6, 121, 28.92960166931152
0, 6, 122, 27.09636497497559
0, 6, 123, 25.57668876647949
0, 6, 124, 28.12328720092773
0, 6, 125, 32.39280319213867
0, 6, 126, 18.73252105712891
0, 6, 127, 21.24728584289551
0, 7, 0, 24.98089408874512
0, 7, 1, 25.26077651977539
0, 7, 2, 20.90811538696289
0, 7, 3, 24.09201431274414
0, 7, 4, 24.94827842712402
0, 7, 5, 38.68833160400391
0, 7, 6, 36.42763137817383
0, 7, 7, 33.41911315917969
0, 7, 8, 30.34356307983398
0, 7, 9, 29.80205154418945
0, 7, 10, 44.52451324462891
0, 7, 11, 47.71194839477539
0, 7, 12, 43.76387786865234
0, 7, 13, 58.05533599853516
0, 7, 14, 61.67576599121094
0, 7, 15, 78.38877868652344
0, 7, 16, 130.7744140625
0, 7, 17, 457.5243225097656
0, 7, 18, 1095.395629882812
0, 7, 19, 1499.467651367188
0, 7, 20, 1490.38427734375
0, 7, 21, 1363.4423828125
0, 7, 22, 1485.282348632812
0, 7, 23, 1454.66015625
0, 7, 24, 1507.731811523438
0, 7, 25, 1590.828857421875
0, 7, 26, 1518.733642578125
0, 7, 27, 1507.60546875
0, 7, 28, 1544.235961914062
0, 7, 29, 1576.925048828125
0, 7, 30, 1544.976196289062
0, 7, 31, 1437.138793945312
0, 7, 32, 1541.115112304688
0, 7, 33, 1488.359497070312
0, 7, 34, 1481.299072265625
0, 7, 35, 1519.13330078125
0, 7, 36, 1472.140625
0, 7, 37, 1601.93115234375
0, 7, 38, 1502.360229492188
0, 7, 39, 1490.44580078125
0, 7, 40, 1546.3994140625
0, 7, 41, 1470.472534179688
0, 7, 42, 1493.164916992188
0, 7, 43, 1438.734008789062
0, 7, 44, 1487.013916015625
0, 7, 45, 1471.17529296875
0, 7, 46, 1510.83056640625
0, 7, 47, 1564.058959960938
0, 7, 48, 1522.878173828125
0, 7, 49, 1537.253540039062
0, 7, 50, 1512.481811523438
0, 7, 51, 1497.12255859375
0, 7, 52, 1515.211181640625
0, 7, 53, 1495.627563476562
0, 7, 54, 1583.942138671875
0, 7, 55, 1470.867309570312
0, 7, 56, 1552.966064453125
0, 7, 57, 1509.075561523438
0, 7, 58, 1549.111083984375
0, 7, 59, 1539.621826171875
0, 7, 60, 1546.587646484375
0, 7, 61, 1492.1552734375
0, 7, 62, 1434.426635742188
0, 7, 63, 1514.090209960938
0, 7, 64, 1551.925415039062
0, 7, 65, 1527.447509765625
0, 7, 66, 1540.80224609375
0, 7, 67, 1581.526123046875
0, 7, 68, 1534.879638671875
0, 7, 69, 1515.040161132812
0, 7, 70, 1493.09521484375
0, 7, 71, 1521.064575195312
0, 7, 72, 1524.827880859375
0, 7, 73, 1516.432373046875
0, 7, 74, 1575.393676757812
0, 7, 75, 1538.14794921875
0, 7, 76, 1557.362426757812
0, 7, 77, 1517.112548828125
0, 7, 78, 1507.607421875
0, 7, 79, 1424.442626953125
0, 7, 80, 1490.082641601562
0, 7, 81, 1494.0498046875
0, 7, 82, 1529.792602539062
0, 7, 83, 1540.395629882812
0, 7, 84, 1585.129272460938
0, 7, 85, 1476.539794921875
0, 7, 86, 1496.547241210938
0, 7, 87, 1503.678833007812
0, 7, 88, 1496.905517578125
0, 7, 89, 1553.26318359375
0, 7, 90, 1521.37255859375
0, 7, 91, 1565.638671875
0, 7, 92, 1533.076416015625
0, 7, 93, 1555.37744140625
0, 7, 94, 1532.033813476562
0, 7, 95, 1504.149047851562
0, 7, 96, 1509.829956054688
0, 7, 97, 1442.399291992188
0, 7, 98, 1485.156005859375
0, 7, 99, 1527.80322265625
0, 7, 100, 1421.53857421875
0, 7, 101, 1462.853759765625
0, 7, 102, 1449.0283203125
0, 7, 103, 1431.557006835938
0, 7, 104, 1492.432495117188
0, 7, 105, 1519.871337890625
0, 7, 106, 1564.053955078125
0, 7, 107, 1480.424926757812
0, 7, 108, 1407.043090820312
0, 7, 109, 1147.736206054688
0, 7, 110, 476.2964782714844
0, 7, 111, 126.0111923217773
0, 7, 112, 81.73464202880859
0, 7, 113, 65.318603515625
0, 7, 114, 56.09655380249023
0, 7, 115, 56.24908447265625
0, 7, 116, 47.55683898925781
0, 7, 117, 43.24408340454102
0, 7, 118, 37.74626159667969
0, 7, 119, 36.24655151367188
0, 7, 120, 20.33400535583496
0, 7, 121, 27.47219276428223
0, 7, 122, 36.6826171875
0, 7, 123, 32.29734039306641
0, 7, 124, 32.16795349121094
0, 7, 125, 27.90373611450195
0, 7, 126, 26.53142356872559
0, 7, 127, 20.92885589599609
0, 8, 0, 15.72698783874512
0, 8, 1, 25.96197891235352
0, 8, 2, 23.58994102478027
0, 8, 3, 24.44267082214355
0, 8, 4, 26.89754676818848
0, 8, 5, 28.27068519592285
0, 8, 6, 31.96943473815918
0, 8, 7, 30.41860580444336
0, 8, 8, 36.29074478149414
0, 8, 9, 44.96122741699219
0, 8, 10, 39.05014801025391
0, 8, 11, 41.3914909362793
0, 8, 12, 54.38795471191406
0, 8, 13, 68.6097412109375
0, 8, 14, 74.30213165283203
0, 8, 15, 86.84872436523438
0, 8, 16, 169.9063568115234
0, 8, 17, 673.8544311523438
0, 8, 18, 1278.669555664062
0, 8, 19, 1446.871704101562
0, 8, 20, 1425.344116210938
0, 8, 21, 1407.17529296875
0, 8, 22, 1492.568359375
0, 8, 23, 1480.183227539062
0, 8, 24, 1442.388061523438
0, 8, 25, 1461.96484375
0, 8, 26, 1518.839965820312
0, 8, 27, 1517.58154296875
0, 8, 28, 1474.525512695312
0, 8, 29, 1511.294067382812
0, 8, 30, 1485.7587890625
0, 8, 31, 1535.880004882812
0, 8, 32, 1508.643188476562
0, 8, 33, 1483.957641601562
0, 8, 34, 1538.474975585938
0, 8, 35, 1443.196044921875
0, 8, 36, 1500.817260742188
0, 8, 37, 1553.144775390625
0, 8, 38, 1549.801879882812
0, 8, 39, 1491.361206054688
0, 8, 40, 1531.677734375
0, 8, 41, 1486.631958007812
0, 8, 42, 1537.001953125
0, 8, 43, 1436.963989257812
0, 8, 44, 1540.290161132812
0, 8, 45, 1510.650268554688
0, 8, 46, 1596.134765625
0, 8, 47, 1585.091796875
