# TOPAS Version: 3.1.p3
# Parameter File: batch_inserts_174.txt
# Results for scorer Readout_Adipose
# Scored in component: MyBox
# X in 1 bin  of 0.75 cm
# Y in 512 bins of 0.0783984 cm
# Z in 128 bins of 0.078125 cm
# EnergyDeposit ( MeV ) : Sum   
0, 0, 0, 24.58194160461426
0, 0, 1, 20.81003761291504
0, 0, 2, 25.24942398071289
0, 0, 3, 23.10356712341309
0, 0, 4, 15.33378314971924
0, 0, 5, 24.55752754211426
0, 0, 6, 24.77540969848633
0, 0, 7, 34.11986923217773
0, 0, 8, 20.71119499206543
0, 0, 9, 24.50936126708984
0, 0, 10, 22.98150634765625
0, 0, 11, 25.36465454101562
0, 0, 12, 36.50042724609375
0, 0, 13, 37.63946151733398
0, 0, 14, 36.63136672973633
0, 0, 15, 48.43114852905273
0, 0, 16, 44.36348342895508
0, 0, 17, 46.49784088134766
0, 0, 18, 75.85967254638672
0, 0, 19, 188.6355133056641
0, 0, 20, 700.74169921875
0, 0, 21, 1188.108642578125
0, 0, 22, 1243.902465820312
0, 0, 23, 1273.686157226562
0, 0, 24, 1287.002563476562
0, 0, 25, 1355.544677734375
0, 0, 26, 1272.53369140625
0, 0, 27, 1280.71923828125
0, 0, 28, 1320.17333984375
0, 0, 29, 1277.00634765625
0, 0, 30, 1265.818481445312
0, 0, 31, 1278.14453125
0, 0, 32, 1266.397216796875
0, 0, 33, 1242.331298828125
0, 0, 34, 1324.78125
0, 0, 35, 1301.624267578125
0, 0, 36, 1244.885498046875
0, 0, 37, 1279.548828125
0, 0, 38, 1246.960327148438
0, 0, 39, 1244.298461914062
0, 0, 40, 1226.912719726562
0, 0, 41, 1265.226318359375
0, 0, 42, 1254.664794921875
0, 0, 43, 1268.191772460938
0, 0, 44, 1226.137329101562
0, 0, 45, 1287.8310546875
0, 0, 46, 1259.166137695312
0, 0, 47, 1240.482788085938
0, 0, 48, 1276.581176757812
0, 0, 49, 1288.9609375
0, 0, 50, 1310.986694335938
0, 0, 51, 1262.859130859375
0, 0, 52, 1360.315795898438
0, 0, 53, 1330.23046875
0, 0, 54, 1294.235595703125
0, 0, 55, 1231.423461914062
0, 0, 56, 1320.262817382812
0, 0, 57, 1289.47802734375
0, 0, 58, 1255.840942382812
0, 0, 59, 1332.347045898438
0, 0, 60, 1323.865356445312
0, 0, 61, 1261.169311523438
0, 0, 62, 1241.784057617188
0, 0, 63, 1275.898559570312
0, 0, 64, 1327.153686523438
0, 0, 65, 1282.377319335938
0, 0, 66, 1320.594604492188
0, 0, 67, 1213.300537109375
0, 0, 68, 1315.338012695312
0, 0, 69, 1329.106079101562
0, 0, 70, 1347.256958007812
0, 0, 71, 1286.513427734375
0, 0, 72, 1312.836181640625
0, 0, 73, 1234.870849609375
0, 0, 74, 1289.923217773438
0, 0, 75, 1299.53515625
0, 0, 76, 1255.565795898438
0, 0, 77, 1280.955688476562
0, 0, 78, 1313.4677734375
0, 0, 79, 1324.46728515625
0, 0, 80, 1262.585327148438
0, 0, 81, 1322.625610351562
0, 0, 82, 1286.540283203125
0, 0, 83, 1288.097900390625
0, 0, 84, 1323.5009765625
0, 0, 85, 1234.734741210938
0, 0, 86, 1264.302734375
0, 0, 87, 1253.390380859375
0, 0, 88, 1258.843017578125
0, 0, 89, 1334.414184570312
0, 0, 90, 1278.21044921875
0, 0, 91, 1356.83447265625
0, 0, 92, 1299.790283203125
0, 0, 93, 1273.76904296875
0, 0, 94, 1245.130737304688
0, 0, 95, 1327.61376953125
0, 0, 96, 1287.408935546875
0, 0, 97, 1326.224243164062
0, 0, 98, 1258.721435546875
0, 0, 99, 1252.09423828125
0, 0, 100, 1287.8720703125
0, 0, 101, 1315.634643554688
0, 0, 102, 1235.509887695312
0, 0, 103, 1321.0224609375
0, 0, 104, 1264.361083984375
0, 0, 105, 1269.452392578125
0, 0, 106, 1210.991577148438
0, 0, 107, 781.5845336914062
0, 0, 108, 195.1176147460938
0, 0, 109, 66.97700500488281
0, 0, 110, 65.0994873046875
0, 0, 111, 41.68918228149414
0, 0, 112, 37.01366806030273
0, 0, 113, 31.02424430847168
0, 0, 114, 34.17093658447266
0, 0, 115, 31.8297290802002
0, 0, 116, 23.31980133056641
0, 0, 117, 29.5722713470459
0, 0, 118, 25.1943359375
0, 0, 119, 21.73483657836914
0, 0, 120, 25.45964622497559
0, 0, 121, 27.69400596618652
0, 0, 122, 23.48492431640625
0, 0, 123, 20.05140113830566
0, 0, 124, 19.7938060760498
0, 0, 125, 19.81094741821289
0, 0, 126, 23.90638160705566
0, 0, 127, 12.92507457733154
0, 1, 0, 26.43874168395996
0, 1, 1, 21.75846290588379
0, 1, 2, 23.05279350280762
0, 1, 3, 25.11567687988281
0, 1, 4, 24.96739196777344
0, 1, 5, 28.53452301025391
0, 1, 6, 26.73962020874023
0, 1, 7, 33.32104110717773
0, 1, 8, 35.19017791748047
0, 1, 9, 31.0306224822998
0, 1, 10, 34.47943115234375
0, 1, 11, 45.85806274414062
0, 1, 12, 39.58743667602539
0, 1, 13, 41.15176010131836
0, 1, 14, 39.78392028808594
0, 1, 15, 50.8092155456543
0, 1, 16, 57.53901290893555
0, 1, 17, 64.04035949707031
0, 1, 18, 99.29243469238281
0, 1, 19, 396.6124267578125
0, 1, 20, 1048.198608398438
0, 1, 21, 1373.362915039062
0, 1, 22, 1480.911010742188
0, 1, 23, 1460.588623046875
0, 1, 24, 1449.85595703125
0, 1, 25, 1422.104614257812
0, 1, 26, 1472.654663085938
0, 1, 27, 1465.350830078125
0, 1, 28, 1494.307861328125
0, 1, 29, 1479.068115234375
0, 1, 30, 1508.7978515625
0, 1, 31, 1485.565307617188
0, 1, 32, 1410.347534179688
0, 1, 33, 1497.2353515625
0, 1, 34, 1503.1630859375
0, 1, 35, 1464.130981445312
0, 1, 36, 1490.47509765625
0, 1, 37, 1407.349975585938
0, 1, 38, 1389.54052734375
0, 1, 39, 1524.127563476562
0, 1, 40, 1461.266967773438
0, 1, 41, 1489.603515625
0, 1, 42, 1491.577758789062
0, 1, 43, 1502.058349609375
0, 1, 44, 1452.987426757812
0, 1, 45, 1490.880859375
0, 1, 46, 1426.809814453125
0, 1, 47, 1434.059692382812
0, 1, 48, 1430.915161132812
0, 1, 49, 1488.314575195312
0, 1, 50, 1438.564819335938
0, 1, 51, 1474.43115234375
0, 1, 52, 1477.206909179688
0, 1, 53, 1473.78369140625
0, 1, 54, 1503.069458007812
0, 1, 55, 1499.007690429688
0, 1, 56, 1466.1064453125
0, 1, 57, 1455.171752929688
0, 1, 58, 1427.80615234375
0, 1, 59, 1480.362060546875
0, 1, 60, 1462.894409179688
0, 1, 61, 1460.6728515625
0, 1, 62, 1458.599487304688
0, 1, 63, 1412.687255859375
0, 1, 64, 1473.905517578125
0, 1, 65, 1418.703002929688
0, 1, 66, 1434.781127929688
0, 1, 67, 1456.447509765625
0, 1, 68, 1386.4267578125
0, 1, 69, 1465.786254882812
0, 1, 70, 1437.3505859375
0, 1, 71, 1501.576782226562
0, 1, 72, 1436.247436523438
0, 1, 73, 1490.138427734375
0, 1, 74, 1470.66162109375
0, 1, 75, 1479.537841796875
0, 1, 76, 1454.44921875
0, 1, 77, 1463.09423828125
0, 1, 78, 1445.98486328125
0, 1, 79, 1499.837158203125
0, 1, 80, 1450.2939453125
0, 1, 81, 1425.3779296875
0, 1, 82, 1470.488159179688
0, 1, 83, 1467.687866210938
0, 1, 84, 1533.10986328125
0, 1, 85, 1445.0234375
0, 1, 86, 1406.18310546875
0, 1, 87, 1416.546997070312
0, 1, 88, 1473.5986328125
0, 1, 89, 1478.157836914062
0, 1, 90, 1424.774291992188
0, 1, 91, 1465.45068359375
0, 1, 92, 1410.23876953125
0, 1, 93, 1462.048828125
0, 1, 94, 1463.366943359375
0, 1, 95, 1422.445068359375
0, 1, 96, 1494.86962890625
0, 1, 97, 1517.89697265625
0, 1, 98, 1475.912841796875
0, 1, 99, 1417.7431640625
0, 1, 100, 1447.958862304688
0, 1, 101, 1414.552734375
0, 1, 102, 1442.087280273438
0, 1, 103, 1413.87255859375
0, 1, 104, 1407.61328125
0, 1, 105, 1461.875854492188
0, 1, 106, 1365.725708007812
0, 1, 107, 1017.806823730469
0, 1, 108, 398.719482421875
0, 1, 109, 93.04838562011719
0, 1, 110, 64.35443115234375
0, 1, 111, 60.65228652954102
0, 1, 112, 49.41716384887695
0, 1, 113, 35.74011611938477
0, 1, 114, 35.02350234985352
0, 1, 115, 38.49223709106445
0, 1, 116, 33.13567352294922
0, 1, 117, 30.75396537780762
0, 1, 118, 34.44717407226562
0, 1, 119, 25.73147392272949
0, 1, 120, 26.15094947814941
0, 1, 121, 25.12287902832031
0, 1, 122, 15.76302719116211
0, 1, 123, 20.4169807434082
0, 1, 124, 29.52074241638184
0, 1, 125, 19.48609924316406
0, 1, 126, 20.49378967285156
0, 1, 127, 21.58412551879883
0, 2, 0, 18.88725662231445
0, 2, 1, 22.30310249328613
0, 2, 2, 22.35963821411133
0, 2, 3, 21.87954330444336
0, 2, 4, 24.34666061401367
0, 2, 5, 26.2611255645752
0, 2, 6, 20.40804481506348
0, 2, 7, 17.86066436767578
0, 2, 8, 28.01812553405762
0, 2, 9, 28.14610290527344
0, 2, 10, 31.58071708679199
0, 2, 11, 36.244140625
0, 2, 12, 42.03200531005859
0, 2, 13, 50.45293426513672
0, 2, 14, 48.5136604309082
0, 2, 15, 47.95998382568359
0, 2, 16, 61.69436645507812
0, 2, 17, 80.63108825683594
0, 2, 18, 142.8377380371094
0, 2, 19, 603.6222534179688
0, 2, 20, 1285.984497070312
0, 2, 21, 1433.825317382812
0, 2, 22, 1460.476196289062
0, 2, 23, 1409.811279296875
0, 2, 24, 1441.038452148438
0, 2, 25, 1526.6865234375
0, 2, 26, 1558.457153320312
0, 2, 27, 1456.2734375
0, 2, 28, 1467.307495117188
0, 2, 29, 1462.337158203125
0, 2, 30, 1459.198120117188
0, 2, 31, 1528.826782226562
0, 2, 32, 1507.652221679688
0, 2, 33, 1447.23681640625
0, 2, 34, 1470.225830078125
0, 2, 35, 1468.236328125
0, 2, 36, 1523.571411132812
0, 2, 37, 1546.200561523438
0, 2, 38, 1509.438110351562
0, 2, 39, 1468.4990234375
0, 2, 40, 1506.514404296875
0, 2, 41, 1515.871215820312
0, 2, 42, 1505.230712890625
0, 2, 43, 1552.26708984375
0, 2, 44, 1461.04345703125
0, 2, 45, 1483.360107421875
0, 2, 46, 1427.928100585938
0, 2, 47, 1447.210571289062
0, 2, 48, 1399.9677734375
0, 2, 49, 1462.803833007812
0, 2, 50, 1444.403930664062
0, 2, 51, 1444.546508789062
0, 2, 52, 1491.780151367188
0, 2, 53, 1519.626953125
0, 2, 54, 1525.73486328125
0, 2, 55, 1493.063842773438
0, 2, 56, 1462.319091796875
0, 2, 57, 1415.932373046875
0, 2, 58, 1460.05517578125
0, 2, 59, 1454.109130859375
0, 2, 60, 1469.282470703125
0, 2, 61, 1444.804443359375
0, 2, 62, 1471.04541015625
0, 2, 63, 1507.518676757812
0, 2, 64, 1461.750122070312
0, 2, 65, 1427.2412109375
0, 2, 66, 1485.171264648438
0, 2, 67, 1505.289794921875
0, 2, 68, 1542.6689453125
0, 2, 69, 1540.960815429688
0, 2, 70, 1510.97216796875
0, 2, 71, 1461.285278320312
0, 2, 72, 1519.046997070312
0, 2, 73, 1525.733764648438
0, 2, 74, 1492.3232421875
0, 2, 75, 1507.297607421875
0, 2, 76, 1453.756591796875
0, 2, 77, 1507.3115234375
0, 2, 78, 1433.018432617188
0, 2, 79, 1544.543334960938
0, 2, 80, 1480.667724609375
0, 2, 81, 1462.944702148438
0, 2, 82, 1561.249877929688
0, 2, 83, 1519.66259765625
0, 2, 84, 1490.034057617188
0, 2, 85, 1516.125610351562
0, 2, 86, 1545.381958007812
0, 2, 87, 1487.990478515625
0, 2, 88, 1541.035888671875
0, 2, 89, 1464.749633789062
0, 2, 90, 1428.867065429688
0, 2, 91, 1405.126953125
0, 2, 92, 1479.249633789062
0, 2, 93, 1488.810791015625
0, 2, 94, 1449.867431640625
0, 2, 95, 1546.09619140625
0, 2, 96, 1514.267333984375
0, 2, 97, 1455.14306640625
0, 2, 98, 1460.799438476562
0, 2, 99, 1402.594482421875
0, 2, 100, 1471.831298828125
0, 2, 101, 1484.879638671875
0, 2, 102, 1461.387329101562
0, 2, 103, 1388.9892578125
0, 2, 104, 1405.693115234375
0, 2, 105, 1398.401489257812
0, 2, 106, 1455.927612304688
0, 2, 107, 1273.387329101562
0, 2, 108, 622.2977294921875
0, 2, 109, 170.4619903564453
0, 2, 110, 66.94348907470703
0, 2, 111, 62.55028533935547
0, 2, 112, 46.6038703918457
0, 2, 113, 48.15056228637695
0, 2, 114, 37.88277053833008
0, 2, 115, 44.10647583007812
0, 2, 116, 37.89712905883789
0, 2, 117, 37.87925720214844
0, 2, 118, 34.07965469360352
0, 2, 119, 31.33050918579102
0, 2, 120, 25.95642280578613
0, 2, 121, 20.51401329040527
0, 2, 122, 29.39789009094238
0, 2, 123, 21.22411155700684
0, 2, 124, 29.0161247253418
0, 2, 125, 26.29540634155273
0, 2, 126, 17.91750717163086
0, 2, 127, 21.17441558837891
0, 3, 0, 14.16294765472412
0, 3, 1, 23.19280624389648
0, 3, 2, 24.1500129699707
0, 3, 3, 19.71121978759766
0, 3, 4, 17.76263236999512
0, 3, 5, 24.57145309448242
0, 3, 6, 32.25148391723633
0, 3, 7, 26.98403167724609
0, 3, 8, 31.00224494934082
0, 3, 9, 31.35924339294434
0, 3, 10, 36.83332061767578
0, 3, 11, 40.32439041137695
0, 3, 12, 43.91530990600586
0, 3, 13, 50.38056945800781
0, 3, 14, 59.58914566040039
0, 3, 15, 57.21275329589844
0, 3, 16, 71.00534057617188
0, 3, 17, 89.29548645019531
0, 3, 18, 243.3407287597656
0, 3, 19, 875.4298706054688
0, 3, 20, 1387.301513671875
0, 3, 21, 1504.191650390625
0, 3, 22, 1461.876586914062
0, 3, 23, 1452.26513671875
0, 3, 24, 1439.24609375
0, 3, 25, 1462.028198242188
0, 3, 26, 1494.322998046875
0, 3, 27, 1466.152221679688
0, 3, 28, 1486.697143554688
0, 3, 29, 1543.484985351562
0, 3, 30, 1569.16845703125
0, 3, 31, 1511.315063476562
0, 3, 32, 1546.72265625
0, 3, 33, 1537.881225585938
0, 3, 34, 1493.990600585938
0, 3, 35, 1460.581420898438
0, 3, 36, 1452.546997070312
0, 3, 37, 1511.490478515625
0, 3, 38, 1517.434936523438
0, 3, 39, 1440.9150390625
0, 3, 40, 1438.414672851562
0, 3, 41, 1561.3818359375
0, 3, 42, 1459.5498046875
0, 3, 43, 1455.458251953125
0, 3, 44, 1451.282470703125
0, 3, 45, 1502.96826171875
0, 3, 46, 1509.577392578125
0, 3, 47, 1442.187133789062
0, 3, 48, 1507.767578125
0, 3, 49, 1456.619995117188
0, 3, 50, 1487.84130859375
0, 3, 51, 1533.713134765625
0, 3, 52, 1533.288452148438
0, 3, 53, 1462.621826171875
0, 3, 54, 1539.797241210938
0, 3, 55, 1503.959228515625
0, 3, 56, 1434.827026367188
0, 3, 57, 1507.781494140625
0, 3, 58, 1512.875244140625
0, 3, 59, 1510.893798828125
0, 3, 60, 1537.230102539062
0, 3, 61, 1479.614501953125
0, 3, 62, 1492.959594726562
0, 3, 63, 1495.186279296875
0, 3, 64, 1500.355346679688
0, 3, 65, 1513.780151367188
0, 3, 66, 1554.763793945312
0, 3, 67, 1548.59716796875
0, 3, 68, 1448.355346679688
0, 3, 69, 1461.604370117188
0, 3, 70, 1387.17529296875
0, 3, 71, 1459.923706054688
0, 3, 72, 1546.23876953125
0, 3, 73, 1496.71923828125
0, 3, 74, 1465.540283203125
0, 3, 75, 1461.134155273438
0, 3, 76, 1577.845703125
0, 3, 77, 1540.44287109375
0, 3, 78, 1430.576416015625
0, 3, 79, 1489.704467773438
0, 3, 80, 1461.689453125
0, 3, 81, 1476.205078125
0, 3, 82, 1556.149291992188
0, 3, 83, 1514.902099609375
0, 3, 84, 1566.757202148438
0, 3, 85, 1480.147338867188
0, 3, 86, 1521.34765625
0, 3, 87, 1533.525146484375
0, 3, 88, 1456.553100585938
0, 3, 89, 1446.5849609375
0, 3, 90, 1451.69482421875
0, 3, 91, 1419.14794921875
0, 3, 92, 1509.7880859375
0, 3, 93, 1502.400024414062
0, 3, 94, 1516.550903320312
0, 3, 95, 1541.49658203125
0, 3, 96, 1514.308227539062
0, 3, 97, 1468.684326171875
0, 3, 98, 1433.6064453125
0, 3, 99, 1467.891235351562
0, 3, 100, 1468.573852539062
0, 3, 101, 1473.351318359375
0, 3, 102, 1524.241088867188
0, 3, 103, 1556.286376953125
0, 3, 104, 1500.619262695312
0, 3, 105, 1513.438720703125
0, 3, 106, 1478.2490234375
0, 3, 107, 1345.80078125
0, 3, 108, 870.113037109375
0, 3, 109, 259.9927978515625
0, 3, 110, 101.9374618530273
0, 3, 111, 65.16763305664062
0, 3, 112, 60.42255401611328
0, 3, 113, 47.69808959960938
0, 3, 114, 52.8863525390625
0, 3, 115, 51.68099212646484
0, 3, 116, 34.60424041748047
0, 3, 117, 43.55163955688477
0, 3, 118, 35.16738891601562
0, 3, 119, 30.67929077148438
0, 3, 120, 34.33593368530273
0, 3, 121, 18.88442039489746
0, 3, 122, 23.22430038452148
0, 3, 123, 25.18241119384766
0, 3, 124, 17.41133499145508
0, 3, 125, 26.70208930969238
0, 3, 126, 22.07776260375977
0, 3, 127, 14.32754516601562
0, 4, 0, 22.01946830749512
0, 4, 1, 23.85444450378418
0, 4, 2, 21.10431098937988
0, 4, 3, 23.45039367675781
0, 4, 4, 24.50969696044922
0, 4, 5, 27.11959838867188
0, 4, 6, 25.55012512207031
0, 4, 7, 28.55964851379395
0, 4, 8, 23.92234802246094
0, 4, 9, 33.97972869873047
0, 4, 10, 32.07914352416992
0, 4, 11, 34.6754264831543
0, 4, 12, 45.05691146850586
0, 4, 13, 48.93399810791016
0, 4, 14, 49.30975341796875
0, 4, 15, 61.26834487915039
0, 4, 16, 74.63767242431641
0, 4, 17, 113.0369186401367
0, 4, 18, 445.3113403320312
0, 4, 19, 1182.294921875
0, 4, 20, 1448.841186523438
0, 4, 21, 1416.5634765625
0, 4, 22, 1432.807006835938
0, 4, 23, 1452.0244140625
0, 4, 24, 1477.61572265625
0, 4, 25, 1404.917724609375
0, 4, 26, 1538.459350585938
0, 4, 27, 1540.838745117188
0, 4, 28, 1503.4775390625
0, 4, 29, 1518.394897460938
0, 4, 30, 1528.1923828125
0, 4, 31, 1576.517578125
0, 4, 32, 1517.663330078125
0, 4, 33, 1491.568725585938
0, 4, 34, 1466.99853515625
0, 4, 35, 1559.806274414062
0, 4, 36, 1507.34130859375
0, 4, 37, 1513.59130859375
0, 4, 38, 1541.910034179688
0, 4, 39, 1468.355102539062
0, 4, 40, 1516.695068359375
0, 4, 41, 1584.012451171875
0, 4, 42, 1567.301635742188
0, 4, 43, 1478.742797851562
0, 4, 44, 1492.046752929688
0, 4, 45, 1516.271362304688
0, 4, 46, 1470.253051757812
0, 4, 47, 1505.6435546875
0, 4, 48, 1524.725341796875
0, 4, 49, 1469.357299804688
0, 4, 50, 1515.446533203125
0, 4, 51, 1493.97705078125
0, 4, 52, 1494.408935546875
0, 4, 53, 1450.644165039062
0, 4, 54, 1440.301635742188
0, 4, 55, 1522.913818359375
0, 4, 56, 1455.8291015625
0, 4, 57, 1498.763671875
0, 4, 58, 1455.88916015625
0, 4, 59, 1461.644653320312
0, 4, 60, 1519.627075195312
0, 4, 61, 1494.9482421875
0, 4, 62, 1504.966552734375
0, 4, 63, 1548.361938476562
0, 4, 64, 1593.933227539062
0, 4, 65, 1424.8994140625
0, 4, 66, 1517.6416015625
0, 4, 67, 1525.098388671875
0, 4, 68, 1496.768188476562
0, 4, 69, 1467.233154296875
0, 4, 70, 1543.617065429688
0, 4, 71, 1513.958984375
0, 4, 72, 1532.211181640625
0, 4, 73, 1492.09619140625
0, 4, 74, 1485.490478515625
0, 4, 75, 1540.099853515625
0, 4, 76, 1480.919799804688
0, 4, 77, 1498.287475585938
0, 4, 78, 1498.041870117188
0, 4, 79, 1480.408935546875
0, 4, 80, 1515.319091796875
0, 4, 81, 1525.024780273438
0, 4, 82, 1566.493774414062
0, 4, 83, 1503.582275390625
0, 4, 84, 1536.458374023438
0, 4, 85, 1554.208740234375
0, 4, 86, 1524.005737304688
0, 4, 87, 1502.001098632812
0, 4, 88, 1520.378540039062
0, 4, 89, 1479.854370117188
0, 4, 90, 1545.440551757812
0, 4, 91, 1555.893310546875
0, 4, 92, 1502.656494140625
0, 4, 93, 1519.244506835938
0, 4, 94, 1483.969970703125
0, 4, 95, 1508.8251953125
0, 4, 96, 1444.243896484375
0, 4, 97, 1409.8798828125
0, 4, 98, 1552.534912109375
0, 4, 99, 1513.605102539062
0, 4, 100, 1489.216186523438
0, 4, 101, 1445.09765625
0, 4, 102, 1441.9873046875
0, 4, 103, 1514.150390625
0, 4, 104, 1510.622192382812
0, 4, 105, 1557.235595703125
0, 4, 106, 1477.686889648438
0, 4, 107, 1456.529418945312
0, 4, 108, 1121.182861328125
0, 4, 109, 436.7184753417969
0, 4, 110, 97.11248016357422
0, 4, 111, 66.07511138916016
0, 4, 112, 61.89966583251953
0, 4, 113, 47.96218109130859
0, 4, 114, 58.10515213012695
0, 4, 115, 43.80016326904297
0, 4, 116, 35.1745719909668
0, 4, 117, 41.68515396118164
0, 4, 118, 39.91571426391602
0, 4, 119, 39.80881118774414
0, 4, 120, 32.54654693603516
0, 4, 121, 26.85398483276367
0, 4, 122, 31.67348289489746
0, 4, 123, 30.74888038635254
0, 4, 124, 25.15746879577637
0, 4, 125, 34.61925506591797
0, 4, 126, 23.04004859924316
0, 4, 127, 20.66825675964355
0, 5, 0, 23.88359451293945
0, 5, 1, 26.78962898254395
0, 5, 2, 29.82968521118164
0, 5, 3, 22.27226448059082
0, 5, 4, 20.78311347961426
0, 5, 5, 39.81131362915039
0, 5, 6, 27.72034072875977
0, 5, 7, 28.8761043548584
0, 5, 8, 37.76008224487305
0, 5, 9, 27.91325569152832
0, 5, 10, 31.94011116027832
0, 5, 11, 40.80482482910156
0, 5, 12, 38.79545211791992
0, 5, 13, 45.79719543457031
0, 5, 14, 63.6668815612793
0, 5, 15, 77.90445709228516
0, 5, 16, 81.10296630859375
0, 5, 17, 154.5694122314453
0, 5, 18, 673.1635131835938
0, 5, 19, 1344.07421875
0, 5, 20, 1524.101684570312
0, 5, 21, 1496.883056640625
0, 5, 22, 1495.426513671875
0, 5, 23, 1526.139770507812
0, 5, 24, 1464.015747070312
0, 5, 25, 1429.635131835938
0, 5, 26, 1523.253784179688
0, 5, 27, 1538.38232421875
0, 5, 28, 1485.732177734375
0, 5, 29, 1518.3203125
0, 5, 30, 1495.257446289062
0, 5, 31, 1499.778564453125
0, 5, 32, 1596.358276367188
0, 5, 33, 1503.602294921875
0, 5, 34, 1480.847534179688
0, 5, 35, 1509.514282226562
0, 5, 36, 1439.2529296875
0, 5, 37, 1531.038330078125
0, 5, 38, 1549.021118164062
0, 5, 39, 1546.941040039062
0, 5, 40, 1500.056030273438
0, 5, 41, 1478.191040039062
0, 5, 42, 1543.41015625
0, 5, 43, 1528.713989257812
0, 5, 44, 1544.5068359375
0, 5, 45, 1506.656127929688
0, 5, 46, 1492.822631835938
0, 5, 47, 1484.4833984375
0, 5, 48, 1503.153564453125
0, 5, 49, 1526.290893554688
0, 5, 50, 1509.97509765625
0, 5, 51, 1516.138793945312
0, 5, 52, 1429.876342773438
0, 5, 53, 1521.87353515625
0, 5, 54, 1520.69482421875
0, 5, 55, 1523.273193359375
0, 5, 56, 1482.8017578125
0, 5, 57, 1538.648559570312
0, 5, 58, 1509.0947265625
0, 5, 59, 1486.60986328125
0, 5, 60, 1536.232055664062
0, 5, 61, 1451.189086914062
0, 5, 62, 1584.921997070312
0, 5, 63, 1429.69921875
0, 5, 64, 1487.329345703125
0, 5, 65, 1463.3994140625
0, 5, 66, 1526.6376953125
0, 5, 67, 1564.44189453125
0, 5, 68, 1464.335571289062
0, 5, 69, 1483.654052734375
0, 5, 70, 1488.841796875
0, 5, 71, 1470.035522460938
0, 5, 72, 1540.442016601562
0, 5, 73, 1461.595825195312
0, 5, 74, 1495.483764648438
0, 5, 75, 1487.636840820312
0, 5, 76, 1473.37158203125
0, 5, 77, 1512.653686523438
0, 5, 78, 1522.949462890625
0, 5, 79, 1511.754638671875
0, 5, 80, 1522.425903320312
0, 5, 81, 1595.002807617188
0, 5, 82, 1525.965942382812
0, 5, 83, 1489.448364257812
0, 5, 84, 1532.755737304688
0, 5, 85, 1511.953369140625
0, 5, 86, 1557.745361328125
0, 5, 87, 1477.697387695312
0, 5, 88, 1498.803466796875
0, 5, 89, 1481.988037109375
0, 5, 90, 1474.937744140625
0, 5, 91, 1550.557373046875
0, 5, 92, 1484.413940429688
0, 5, 93, 1566.077392578125
0, 5, 94, 1511.748901367188
0, 5, 95, 1562.84375
0, 5, 96, 1499.756103515625
0, 5, 97, 1508.55126953125
0, 5, 98, 1510.578979492188
0, 5, 99, 1543.039672851562
0, 5, 100, 1435.80224609375
0, 5, 101, 1429.488647460938
0, 5, 102, 1513.5859375
0, 5, 103, 1470.641479492188
0, 5, 104, 1460.2236328125
0, 5, 105, 1493.155029296875
0, 5, 106, 1458.870239257812
0, 5, 107, 1394.051635742188
0, 5, 108, 1291.156127929688
0, 5, 109, 719.687744140625
0, 5, 110, 190.9978332519531
0, 5, 111, 88.68246459960938
0, 5, 112, 80.01020050048828
0, 5, 113, 64.22523498535156
0, 5, 114, 58.77202606201172
0, 5, 115, 57.31284332275391
0, 5, 116, 39.54474258422852
0, 5, 117, 36.1960334777832
0, 5, 118, 41.82830429077148
0, 5, 119, 27.02962303161621
0, 5, 120, 28.46486663818359
0, 5, 121, 29.42863655090332
0, 5, 122, 30.4290714263916
0, 5, 123, 25.63945579528809
0, 5, 124, 29.68761444091797
0, 5, 125, 19.78067016601562
0, 5, 126, 18.32431983947754
0, 5, 127, 21.98118782043457
0, 6, 0, 19.67831039428711
0, 6, 1, 28.11985397338867
0, 6, 2, 26.74319267272949
0, 6, 3, 28.45558547973633
0, 6, 4, 23.5855655670166
0, 6, 5, 35.69189071655273
0, 6, 6, 36.01517868041992
0, 6, 7, 31.05314826965332
0, 6, 8, 38.67741012573242
0, 6, 9, 38.17496871948242
0, 6, 10, 40.43776321411133
0, 6, 11, 38.52150726318359
0, 6, 12, 38.48733520507812
0, 6, 13, 55.31024551391602
0, 6, 14, 63.44730377197266
0, 6, 15, 78.91035461425781
0, 6, 16, 110.0005569458008
0, 6, 17, 296.3266296386719
0, 6, 18, 895.5894775390625
0, 6, 19, 1375.560791015625
0, 6, 20, 1439.220703125
0, 6, 21, 1528.637939453125
0, 6, 22, 1498.836181640625
0, 6, 23, 1528.500122070312
0, 6, 24, 1475.055297851562
0, 6, 25, 1528.226928710938
0, 6, 26, 1519.87255859375
0, 6, 27, 1524.991821289062
0, 6, 28, 1551.350463867188
0, 6, 29, 1573.777465820312
0, 6, 30, 1517.635131835938
0, 6, 31, 1496.296508789062
0, 6, 32, 1524.481079101562
0, 6, 33, 1487.868774414062
0, 6, 34, 1567.302734375
0, 6, 35, 1501.628173828125
0, 6, 36, 1439.603637695312
0, 6, 37, 1543.428955078125
0, 6, 38, 1526.982421875
0, 6, 39, 1521.36572265625
0, 6, 40, 1457.490478515625
0, 6, 41, 1443.51416015625
0, 6, 42, 1515.752197265625
0, 6, 43, 1489.560791015625
0, 6, 44, 1435.944213867188
0, 6, 45, 1545.04296875
0, 6, 46, 1550.938598632812
0, 6, 47, 1491.875366210938
0, 6, 48, 1523.975341796875
0, 6, 49, 1515.297241210938
0, 6, 50, 1574.454467773438
0, 6, 51, 1501.491333007812
0, 6, 52, 1563.61328125
0, 6, 53, 1476.145629882812
0, 6, 54, 1504.033081054688
0, 6, 55, 1572.70458984375
0, 6, 56, 1525.152954101562
0, 6, 57, 1504.564575195312
0, 6, 58, 1466.886352539062
0, 6, 59, 1525.3203125
0, 6, 60, 1469.341796875
0, 6, 61, 1571.826782226562
0, 6, 62, 1541.169677734375
0, 6, 63, 1492.72314453125
0, 6, 64, 1412.09033203125
0, 6, 65, 1492.585083007812
0, 6, 66, 1509.065551757812
0, 6, 67, 1509.84228515625
0, 6, 68, 1547.050537109375
0, 6, 69, 1484.229614257812
0, 6, 70, 1524.247192382812
0, 6, 71, 1471.868408203125
0, 6, 72, 1596.053100585938
0, 6, 73, 1487.23974609375
0, 6, 74, 1556.469604492188
0, 6, 75, 1534.2666015625
0, 6, 76, 1564.716552734375
0, 6, 77, 1508.428344726562
0, 6, 78, 1449.130004882812
0, 6, 79, 1558.658203125
0, 6, 80, 1478.679931640625
0, 6, 81, 1487.045532226562
0, 6, 82, 1508.761352539062
0, 6, 83, 1524.181030273438
0, 6, 84, 1516.072265625
0, 6, 85, 1534.413940429688
0, 6, 86, 1544.702270507812
0, 6, 87, 1574.8310546875
0, 6, 88, 1481.79833984375
0, 6, 89, 1565.7236328125
0, 6, 90, 1494.046508789062
0, 6, 91, 1542.461303710938
0, 6, 92, 1489.913818359375
0, 6, 93, 1500.713012695312
0, 6, 94, 1468.23779296875
0, 6, 95, 1513.571899414062
0, 6, 96, 1519.694213867188
0, 6, 97, 1506.940795898438
0, 6, 98, 1494.015258789062
0, 6, 99, 1475.324829101562
0, 6, 100, 1519.434448242188
0, 6, 101, 1516.51416015625
0, 6, 102, 1540.3720703125
0, 6, 103, 1499.440551757812
0, 6, 104, 1465.130493164062
0, 6, 105, 1483.726318359375
0, 6, 106, 1495.077758789062
0, 6, 107, 1504.911376953125
0, 6, 108, 1408.984130859375
0, 6, 109, 930.919189453125
0, 6, 110, 286.3520202636719
0, 6, 111, 94.42167663574219
0, 6, 112, 79.78681182861328
0, 6, 113, 60.47860336303711
0, 6, 114, 54.58628845214844
0, 6, 115, 40.10470199584961
0, 6, 116, 43.38458633422852
0, 6, 117, 36.77918243408203
0, 6, 118, 41.75730514526367
0, 6, 119, 38.43977355957031
0, 6, 120, 33.90388488769531
0, 6, 121, 31.10541534423828
0, 6, 122, 32.56901550292969
0, 6, 123, 26.81708908081055
0, 6, 124, 36.83470916748047
0, 6, 125, 29.61156845092773
0, 6, 126, 18.99603652954102
0, 6, 127, 21.9651927947998
0, 7, 0, 16.63739013671875
0, 7, 1, 26.5850658416748
0, 7, 2, 20.65948867797852
0, 7, 3, 21.26494979858398
0, 7, 4, 27.57546997070312
0, 7, 5, 34.19425582885742
0, 7, 6, 34.38021850585938
0, 7, 7, 33.05936813354492
0, 7, 8, 33.89159774780273
0, 7, 9, 36.78030776977539
0, 7, 10, 44.96862030029297
0, 7, 11, 48.90117263793945
0, 7, 12, 51.95038604736328
0, 7, 13, 58.45418167114258
0, 7, 14, 60.17637252807617
0, 7, 15, 76.24301910400391
0, 7, 16, 132.8233184814453
0, 7, 17, 464.8240051269531
0, 7, 18, 1105.737182617188
0, 7, 19, 1504.016357421875
0, 7, 20, 1486.654907226562
0, 7, 21, 1364.308959960938
0, 7, 22, 1489.2158203125
0, 7, 23, 1454.528930664062
0, 7, 24, 1510.377563476562
0, 7, 25, 1593.870239257812
0, 7, 26, 1516.0009765625
0, 7, 27, 1511.886840820312
0, 7, 28, 1546.679809570312
0, 7, 29, 1576.675170898438
0, 7, 30, 1552.390502929688
0, 7, 31, 1435.722045898438
0, 7, 32, 1544.413940429688
0, 7, 33, 1488.843017578125
0, 7, 34, 1478.033325195312
0, 7, 35, 1522.708740234375
0, 7, 36, 1475.565673828125
0, 7, 37, 1598.359375
0, 7, 38, 1505.117309570312
0, 7, 39, 1488.8681640625
0, 7, 40, 1544.279907226562
0, 7, 41, 1464.89013671875
0, 7, 42, 1485.000366210938
0, 7, 43, 1441.604858398438
0, 7, 44, 1490.17431640625
0, 7, 45, 1471.695434570312
0, 7, 46, 1516.5234375
0, 7, 47, 1567.260986328125
0, 7, 48, 1522.95068359375
0, 7, 49, 1542.712524414062
0, 7, 50, 1516.701171875
0, 7, 51, 1502.950439453125
0, 7, 52, 1517.861328125
0, 7, 53, 1493.412231445312
0, 7, 54, 1586.63427734375
0, 7, 55, 1470.035034179688
0, 7, 56, 1551.295288085938
0, 7, 57, 1511.501220703125
0, 7, 58, 1548.131469726562
0, 7, 59, 1538.649536132812
0, 7, 60, 1549.162475585938
0, 7, 61, 1488.244506835938
0, 7, 62, 1433.535766601562
0, 7, 63, 1516.950439453125
0, 7, 64, 1546.3330078125
0, 7, 65, 1527.036010742188
0, 7, 66, 1541.540649414062
0, 7, 67, 1578.20263671875
0, 7, 68, 1534.670532226562
0, 7, 69, 1524.914794921875
0, 7, 70, 1497.405151367188
0, 7, 71, 1524.8505859375
0, 7, 72, 1523.205078125
0, 7, 73, 1516.043579101562
0, 7, 74, 1577.509033203125
0, 7, 75, 1539.651123046875
0, 7, 76, 1561.684204101562
0, 7, 77, 1512.876953125
0, 7, 78, 1508.479614257812
0, 7, 79, 1425.480224609375
0, 7, 80, 1488.245971679688
0, 7, 81, 1492.472778320312
0, 7, 82, 1531.266723632812
0, 7, 83, 1548.707641601562
0, 7, 84, 1581.745483398438
0, 7, 85, 1481.091552734375
0, 7, 86, 1498.842407226562
0, 7, 87, 1507.18115234375
0, 7, 88, 1499.672729492188
0, 7, 89, 1551.205200195312
0, 7, 90, 1523.503295898438
0, 7, 91, 1563.684448242188
0, 7, 92, 1525.911254882812
0, 7, 93, 1555.006958007812
0, 7, 94, 1536.206176757812
0, 7, 95, 1502.732299804688
0, 7, 96, 1505.916381835938
0, 7, 97, 1435.552124023438
0, 7, 98, 1484.176635742188
0, 7, 99, 1527.623779296875
0, 7, 100, 1423.978271484375
0, 7, 101, 1462.224365234375
0, 7, 102, 1449.165771484375
0, 7, 103, 1435.266357421875
0, 7, 104, 1495.193725585938
0, 7, 105, 1521.109375
0, 7, 106, 1567.365844726562
0, 7, 107, 1482.726318359375
0, 7, 108, 1410.013549804688
0, 7, 109, 1143.762329101562
0, 7, 110, 470.0386047363281
0, 7, 111, 125.9399795532227
0, 7, 112, 80.80913543701172
0, 7, 113, 66.29427337646484
0, 7, 114, 59.0283317565918
0, 7, 115, 51.02520370483398
0, 7, 116, 43.82487487792969
0, 7, 117, 42.47110748291016
0, 7, 118, 36.62467193603516
0, 7, 119, 32.06072235107422
0, 7, 120, 23.94247436523438
0, 7, 121, 31.17424392700195
0, 7, 122, 35.88893890380859
0, 7, 123, 32.42031097412109
0, 7, 124, 35.38862228393555
0, 7, 125, 22.40830421447754
0, 7, 126, 25.8138599395752
0, 7, 127, 22.25417137145996
0, 8, 0, 22.87371444702148
0, 8, 1, 21.4608039855957
0, 8, 2, 22.76639747619629
0, 8, 3, 26.42028427124023
0, 8, 4, 23.67948722839355
0, 8, 5, 31.4214038848877
0, 8, 6, 33.39793014526367
0, 8, 7, 25.53614044189453
0, 8, 8, 36.5064697265625
0, 8, 9, 44.20051574707031
0, 8, 10, 46.86653900146484
0, 8, 11, 41.44031524658203
0, 8, 12, 50.12775802612305
0, 8, 13, 64.93374633789062
0, 8, 14, 71.68020629882812
0, 8, 15, 86.21071624755859
0, 8, 16, 165.9823455810547
0, 8, 17, 677.4715576171875
0, 8, 18, 1276.715209960938
0, 8, 19, 1452.107299804688
0, 8, 20, 1423.5234375
0, 8, 21, 1407.205810546875
0, 8, 22, 1489.545776367188
0, 8, 23, 1481.10546875
0, 8, 24, 1435.59814453125
0, 8, 25, 1455.080810546875
0, 8, 26, 1516.680908203125
0, 8, 27, 1523.661499023438
0, 8, 28, 1478.2490234375
0, 8, 29, 1510.670776367188
0, 8, 30, 1492.178588867188
0, 8, 31, 1531.437622070312
0, 8, 32, 1504.984252929688
0, 8, 33, 1482.002685546875
0, 8, 34, 1535.494506835938
0, 8, 35, 1437.211181640625
0, 8, 36, 1501.358032226562
0, 8, 37, 1554.218017578125
0, 8, 38, 1551.170166015625
0, 8, 39, 1493.167846679688
0, 8, 40, 1532.77978515625
0, 8, 41, 1482.292724609375
0, 8, 42, 1537.690063476562
0, 8, 43, 1430.877685546875
0, 8, 44, 1536.499755859375
0, 8, 45, 1510.856323242188
0, 8, 46, 1594.16357421875
0, 8, 47, 1585.327026367188
0, 8, 48, 1553.28564453125
0, 8, 49, 1563.714477539062
