# TOPAS Version: 3.1.p3
# Parameter File: batch_inserts_178.txt
# Results for scorer Readout_Adipose
# Scored in component: MyBox
# X in 1 bin  of 0.75 cm
# Y in 512 bins of 0.0783984 cm
# Z in 128 bins of 0.078125 cm
# EnergyDeposit ( MeV ) : Sum   
0, 0, 0, 23.08214378356934
0, 0, 1, 22.49370384216309
0, 0, 2, 28.81824684143066
0, 0, 3, 27.26456832885742
0, 0, 4, 21.8214054107666
0, 0, 5, 26.13312530517578
0, 0, 6, 20.49699974060059
0, 0, 7, 31.42802238464355
0, 0, 8, 19.55072402954102
0, 0, 9, 22.66830444335938
0, 0, 10, 24.08819198608398
0, 0, 11, 27.04508781433105
0, 0, 12, 35.86765289306641
0, 0, 13, 33.08615875244141
0, 0, 14, 37.57226943969727
0, 0, 15, 46.99540710449219
0, 0, 16, 44.0612907409668
0, 0, 17, 46.19028854370117
0, 0, 18, 78.11769104003906
0, 0, 19, 191.4447479248047
0, 0, 20, 700.3447265625
0, 0, 21, 1185.130126953125
0, 0, 22, 1244.105102539062
0, 0, 23, 1275.601318359375
0, 0, 24, 1280.078369140625
0, 0, 25, 1355.748168945312
0, 0, 26, 1271.34619140625
0, 0, 27, 1280.176879882812
0, 0, 28, 1320.188842773438
0, 0, 29, 1270.587646484375
0, 0, 30, 1265.480590820312
0, 0, 31, 1274.4306640625
0, 0, 32, 1265.376953125
0, 0, 33, 1242.26611328125
0, 0, 34, 1324.291137695312
0, 0, 35, 1303.180053710938
0, 0, 36, 1250.241943359375
0, 0, 37, 1278.76513671875
0, 0, 38, 1246.245361328125
0, 0, 39, 1244.176513671875
0, 0, 40, 1226.518920898438
0, 0, 41, 1271.485107421875
0, 0, 42, 1249.501220703125
0, 0, 43, 1264.672241210938
0, 0, 44, 1228.2822265625
0, 0, 45, 1289.400024414062
0, 0, 46, 1259.001586914062
0, 0, 47, 1239.739624023438
0, 0, 48, 1276.692504882812
0, 0, 49, 1292.455200195312
0, 0, 50, 1311.36376953125
0, 0, 51, 1262.215942382812
0, 0, 52, 1355.825927734375
0, 0, 53, 1331.828125
0, 0, 54, 1296.79833984375
0, 0, 55, 1232.8984375
0, 0, 56, 1319.214721679688
0, 0, 57, 1286.688354492188
0, 0, 58, 1253.513549804688
0, 0, 59, 1331.119018554688
0, 0, 60, 1326.919555664062
0, 0, 61, 1258.755981445312
0, 0, 62, 1239.389892578125
0, 0, 63, 1278.369995117188
0, 0, 64, 1327.515869140625
0, 0, 65, 1286.560424804688
0, 0, 66, 1320.179443359375
0, 0, 67, 1217.774047851562
0, 0, 68, 1314.943237304688
0, 0, 69, 1324.633422851562
0, 0, 70, 1344.109252929688
0, 0, 71, 1286.219360351562
0, 0, 72, 1312.408081054688
0, 0, 73, 1233.866577148438
0, 0, 74, 1286.709838867188
0, 0, 75, 1299.040161132812
0, 0, 76, 1254.170654296875
0, 0, 77, 1284.9423828125
0, 0, 78, 1318.119018554688
0, 0, 79, 1325.162231445312
0, 0, 80, 1265.762451171875
0, 0, 81, 1323.385498046875
0, 0, 82, 1284.000610351562
0, 0, 83, 1290.701538085938
0, 0, 84, 1323.314697265625
0, 0, 85, 1233.544311523438
0, 0, 86, 1265.09716796875
0, 0, 87, 1254.976196289062
0, 0, 88, 1258.036254882812
0, 0, 89, 1332.2919921875
0, 0, 90, 1278.632934570312
0, 0, 91, 1359.187255859375
0, 0, 92, 1302.484008789062
0, 0, 93, 1271.155029296875
0, 0, 94, 1243.937255859375
0, 0, 95, 1326.30078125
0, 0, 96, 1286.904052734375
0, 0, 97, 1328.116088867188
0, 0, 98, 1256.631713867188
0, 0, 99, 1248.391723632812
0, 0, 100, 1284.765747070312
0, 0, 101, 1313.522583007812
0, 0, 102, 1234.490966796875
0, 0, 103, 1321.972900390625
0, 0, 104, 1257.606689453125
0, 0, 105, 1266.943603515625
0, 0, 106, 1211.939208984375
0, 0, 107, 779.9009399414062
0, 0, 108, 191.0265045166016
0, 0, 109, 68.31842803955078
0, 0, 110, 63.3632926940918
0, 0, 111, 38.40580368041992
0, 0, 112, 36.58726119995117
0, 0, 113, 33.43226623535156
0, 0, 114, 34.30221176147461
0, 0, 115, 33.45975875854492
0, 0, 116, 31.58386421203613
0, 0, 117, 28.40639305114746
0, 0, 118, 27.64164352416992
0, 0, 119, 24.98465538024902
0, 0, 120, 25.10955429077148
0, 0, 121, 29.4358081817627
0, 0, 122, 26.85558319091797
0, 0, 123, 18.38822746276855
0, 0, 124, 25.94074440002441
0, 0, 125, 26.2056827545166
0, 0, 126, 21.4578800201416
0, 0, 127, 12.27402114868164
0, 1, 0, 23.36881828308105
0, 1, 1, 20.47789001464844
0, 1, 2, 20.28207015991211
0, 1, 3, 22.80175590515137
0, 1, 4, 23.48449897766113
0, 1, 5, 29.82093811035156
0, 1, 6, 26.36184310913086
0, 1, 7, 29.75563621520996
0, 1, 8, 39.74349975585938
0, 1, 9, 31.83600234985352
0, 1, 10, 34.15706253051758
0, 1, 11, 39.85867691040039
0, 1, 12, 41.83373641967773
0, 1, 13, 39.96296691894531
0, 1, 14, 41.0927619934082
0, 1, 15, 51.06965255737305
0, 1, 16, 56.43796539306641
0, 1, 17, 59.86995315551758
0, 1, 18, 96.77852630615234
0, 1, 19, 400.3478088378906
0, 1, 20, 1044.867431640625
0, 1, 21, 1377.050903320312
0, 1, 22, 1481.5537109375
0, 1, 23, 1463.866333007812
0, 1, 24, 1452.759399414062
0, 1, 25, 1418.195190429688
0, 1, 26, 1475.091796875
0, 1, 27, 1467.100341796875
0, 1, 28, 1492.376831054688
0, 1, 29, 1480.85400390625
0, 1, 30, 1507.987060546875
0, 1, 31, 1486.650390625
0, 1, 32, 1411.807983398438
0, 1, 33, 1499.34716796875
0, 1, 34, 1502.069946289062
0, 1, 35, 1458.21826171875
0, 1, 36, 1491.536987304688
0, 1, 37, 1414.530151367188
0, 1, 38, 1391.74267578125
0, 1, 39, 1522.707275390625
0, 1, 40, 1463.94384765625
0, 1, 41, 1488.882568359375
0, 1, 42, 1495.067993164062
0, 1, 43, 1501.986206054688
0, 1, 44, 1451.310913085938
0, 1, 45, 1487.702514648438
0, 1, 46, 1425.7353515625
0, 1, 47, 1434.077270507812
0, 1, 48, 1427.741455078125
0, 1, 49, 1486.547607421875
0, 1, 50, 1440.861206054688
0, 1, 51, 1475.617431640625
0, 1, 52, 1476.135131835938
0, 1, 53, 1473.518432617188
0, 1, 54, 1508.202392578125
0, 1, 55, 1491.6572265625
0, 1, 56, 1469.3525390625
0, 1, 57, 1460.6513671875
0, 1, 58, 1428.72900390625
0, 1, 59, 1479.234375
0, 1, 60, 1462.315795898438
0, 1, 61, 1454.849731445312
0, 1, 62, 1452.735961914062
0, 1, 63, 1414.605834960938
0, 1, 64, 1478.272338867188
0, 1, 65, 1417.243896484375
0, 1, 66, 1438.275146484375
0, 1, 67, 1453.307373046875
0, 1, 68, 1387.277709960938
0, 1, 69, 1461.625122070312
0, 1, 70, 1435.675415039062
0, 1, 71, 1495.502563476562
0, 1, 72, 1436.723510742188
0, 1, 73, 1482.794921875
0, 1, 74, 1470.5634765625
0, 1, 75, 1479.931518554688
0, 1, 76, 1452.857055664062
0, 1, 77, 1464.532104492188
0, 1, 78, 1455.3505859375
0, 1, 79, 1500.695922851562
0, 1, 80, 1448.107299804688
0, 1, 81, 1430.728271484375
0, 1, 82, 1471.09326171875
0, 1, 83, 1464.226684570312
0, 1, 84, 1532.832641601562
0, 1, 85, 1445.951171875
0, 1, 86, 1405.677368164062
0, 1, 87, 1420.563720703125
0, 1, 88, 1469.251220703125
0, 1, 89, 1473.808471679688
0, 1, 90, 1428.00146484375
0, 1, 91, 1467.837646484375
0, 1, 92, 1412.842407226562
0, 1, 93, 1465.771240234375
0, 1, 94, 1465.211547851562
0, 1, 95, 1421.385009765625
0, 1, 96, 1501.003540039062
0, 1, 97, 1518.031005859375
0, 1, 98, 1477.739624023438
0, 1, 99, 1418.954833984375
0, 1, 100, 1449.993286132812
0, 1, 101, 1414.943359375
0, 1, 102, 1439.673095703125
0, 1, 103, 1410.845336914062
0, 1, 104, 1404.088623046875
0, 1, 105, 1459.5810546875
0, 1, 106, 1362.610473632812
0, 1, 107, 1020.722717285156
0, 1, 108, 403.572021484375
0, 1, 109, 91.43937683105469
0, 1, 110, 61.72499847412109
0, 1, 111, 61.72536087036133
0, 1, 112, 44.24586868286133
0, 1, 113, 35.79827117919922
0, 1, 114, 37.96069717407227
0, 1, 115, 38.40612411499023
0, 1, 116, 31.78098678588867
0, 1, 117, 33.35101318359375
0, 1, 118, 36.03600311279297
0, 1, 119, 27.14745330810547
0, 1, 120, 26.19302749633789
0, 1, 121, 26.19176292419434
0, 1, 122, 17.58755683898926
0, 1, 123, 24.26458549499512
0, 1, 124, 31.07753944396973
0, 1, 125, 19.70346832275391
0, 1, 126, 22.17967987060547
0, 1, 127, 20.91598892211914
0, 2, 0, 18.63857078552246
0, 2, 1, 20.58980178833008
0, 2, 2, 26.26424980163574
0, 2, 3, 25.39585304260254
0, 2, 4, 21.8818416595459
0, 2, 5, 25.74646759033203
0, 2, 6, 26.5585823059082
0, 2, 7, 19.97566986083984
0, 2, 8, 30.97789001464844
0, 2, 9, 28.66898918151855
0, 2, 10, 29.67927932739258
0, 2, 11, 38.52933883666992
0, 2, 12, 39.81008148193359
0, 2, 13, 47.29431915283203
0, 2, 14, 49.38065338134766
0, 2, 15, 52.84938049316406
0, 2, 16, 64.12718963623047
0, 2, 17, 78.83403015136719
0, 2, 18, 143.4587249755859
0, 2, 19, 605.3848266601562
0, 2, 20, 1289.600708007812
0, 2, 21, 1435.08203125
0, 2, 22, 1455.919067382812
0, 2, 23, 1403.489501953125
0, 2, 24, 1440.13037109375
0, 2, 25, 1525.20849609375
0, 2, 26, 1552.54150390625
0, 2, 27, 1454.697265625
0, 2, 28, 1457.641845703125
0, 2, 29, 1462.107177734375
0, 2, 30, 1458.735107421875
0, 2, 31, 1529.631103515625
0, 2, 32, 1504.548095703125
0, 2, 33, 1440.614624023438
0, 2, 34, 1472.161987304688
0, 2, 35, 1465.69482421875
0, 2, 36, 1524.85693359375
0, 2, 37, 1545.3056640625
0, 2, 38, 1510.923828125
0, 2, 39, 1461.469360351562
0, 2, 40, 1503.85302734375
0, 2, 41, 1521.407592773438
0, 2, 42, 1510.212890625
0, 2, 43, 1548.020874023438
0, 2, 44, 1458.337524414062
0, 2, 45, 1484.270385742188
0, 2, 46, 1426.066040039062
0, 2, 47, 1447.8544921875
0, 2, 48, 1396.5947265625
0, 2, 49, 1460.714477539062
0, 2, 50, 1443.36279296875
0, 2, 51, 1448.954711914062
0, 2, 52, 1490.81201171875
0, 2, 53, 1524.210815429688
0, 2, 54, 1531.470581054688
0, 2, 55, 1489.260498046875
0, 2, 56, 1461.9658203125
0, 2, 57, 1417.767822265625
0, 2, 58, 1453.034545898438
0, 2, 59, 1457.848999023438
0, 2, 60, 1471.651733398438
0, 2, 61, 1446.343872070312
0, 2, 62, 1472.544067382812
0, 2, 63, 1507.734741210938
0, 2, 64, 1461.596801757812
0, 2, 65, 1427.077026367188
0, 2, 66, 1486.651245117188
0, 2, 67, 1505.804809570312
0, 2, 68, 1546.0927734375
0, 2, 69, 1535.011352539062
0, 2, 70, 1506.740966796875
0, 2, 71, 1462.935668945312
0, 2, 72, 1517.493286132812
0, 2, 73, 1521.792846679688
0, 2, 74, 1494.100952148438
0, 2, 75, 1504.037109375
0, 2, 76, 1454.717407226562
0, 2, 77, 1504.438110351562
0, 2, 78, 1429.446533203125
0, 2, 79, 1541.536987304688
0, 2, 80, 1479.253051757812
0, 2, 81, 1463.267944335938
0, 2, 82, 1560.440551757812
0, 2, 83, 1517.937866210938
0, 2, 84, 1489.675170898438
0, 2, 85, 1515.578369140625
0, 2, 86, 1541.025024414062
0, 2, 87, 1488.556030273438
0, 2, 88, 1534.517333984375
0, 2, 89, 1467.671630859375
0, 2, 90, 1429.657104492188
0, 2, 91, 1402.237670898438
0, 2, 92, 1479.601928710938
0, 2, 93, 1494.442260742188
0, 2, 94, 1455.186401367188
0, 2, 95, 1548.49169921875
0, 2, 96, 1517.137329101562
0, 2, 97, 1454.7763671875
0, 2, 98, 1462.460571289062
0, 2, 99, 1404.85302734375
0, 2, 100, 1472.903930664062
0, 2, 101, 1480.952026367188
0, 2, 102, 1463.60693359375
0, 2, 103, 1386.75732421875
0, 2, 104, 1407.323974609375
0, 2, 105, 1394.654541015625
0, 2, 106, 1455.358032226562
0, 2, 107, 1279.754028320312
0, 2, 108, 625.6383666992188
0, 2, 109, 171.6436309814453
0, 2, 110, 63.68256378173828
0, 2, 111, 66.20207214355469
0, 2, 112, 48.29119491577148
0, 2, 113, 43.421875
0, 2, 114, 35.14737701416016
0, 2, 115, 39.54573822021484
0, 2, 116, 33.93019866943359
0, 2, 117, 36.12469100952148
0, 2, 118, 29.91732788085938
0, 2, 119, 29.67779159545898
0, 2, 120, 30.07180023193359
0, 2, 121, 19.74579048156738
0, 2, 122, 25.97162628173828
0, 2, 123, 23.24032211303711
0, 2, 124, 22.63311386108398
0, 2, 125, 24.6527156829834
0, 2, 126, 15.38975048065186
0, 2, 127, 21.51123428344727
0, 3, 0, 19.8984375
0, 3, 1, 19.9046802520752
0, 3, 2, 23.41500854492188
0, 3, 3, 21.37692451477051
0, 3, 4, 22.54421234130859
0, 3, 5, 25.19896125793457
0, 3, 6, 32.18252944946289
0, 3, 7, 27.14343643188477
0, 3, 8, 32.19212341308594
0, 3, 9, 34.35369110107422
0, 3, 10, 35.94688415527344
0, 3, 11, 36.38712692260742
0, 3, 12, 41.48862457275391
0, 3, 13, 49.64249420166016
0, 3, 14, 55.97478485107422
0, 3, 15, 55.71956634521484
0, 3, 16, 71.59256744384766
0, 3, 17, 85.35650634765625
0, 3, 18, 241.1284942626953
0, 3, 19, 876.1246948242188
0, 3, 20, 1386.971069335938
0, 3, 21, 1503.0517578125
0, 3, 22, 1464.280639648438
0, 3, 23, 1454.453857421875
0, 3, 24, 1434.92919921875
0, 3, 25, 1465.100708007812
0, 3, 26, 1495.669921875
0, 3, 27, 1464.466918945312
0, 3, 28, 1485.092407226562
0, 3, 29, 1542.5712890625
0, 3, 30, 1568.9365234375
0, 3, 31, 1510.25
0, 3, 32, 1544.716186523438
0, 3, 33, 1539.444702148438
0, 3, 34, 1494.73828125
0, 3, 35, 1462.830078125
0, 3, 36, 1451.736083984375
0, 3, 37, 1512.849975585938
0, 3, 38, 1519.005615234375
0, 3, 39, 1443.190185546875
0, 3, 40, 1441.921508789062
0, 3, 41, 1562.415771484375
0, 3, 42, 1460.800415039062
0, 3, 43, 1454.14697265625
0, 3, 44, 1451.784301757812
0, 3, 45, 1507.252563476562
0, 3, 46, 1509.816040039062
0, 3, 47, 1444.227783203125
0, 3, 48, 1506.77880859375
0, 3, 49, 1452.734497070312
0, 3, 50, 1489.142578125
0, 3, 51, 1536.28173828125
0, 3, 52, 1533.037231445312
0, 3, 53, 1464.58984375
0, 3, 54, 1535.32275390625
0, 3, 55, 1503.357666015625
0, 3, 56, 1431.492919921875
0, 3, 57, 1501.390625
0, 3, 58, 1512.41015625
0, 3, 59, 1511.52197265625
0, 3, 60, 1532.558471679688
0, 3, 61, 1480.417846679688
0, 3, 62, 1494.574340820312
0, 3, 63, 1491.60791015625
0, 3, 64, 1503.297485351562
0, 3, 65, 1515.676147460938
0, 3, 66, 1554.83447265625
0, 3, 67, 1547.871215820312
0, 3, 68, 1445.452880859375
0, 3, 69, 1465.381591796875
0, 3, 70, 1389.063232421875
0, 3, 71, 1463.636474609375
0, 3, 72, 1544.53662109375
0, 3, 73, 1502.6015625
0, 3, 74, 1467.891479492188
0, 3, 75, 1456.286987304688
0, 3, 76, 1571.84423828125
0, 3, 77, 1542.055419921875
0, 3, 78, 1427.423217773438
0, 3, 79, 1491.5888671875
0, 3, 80, 1463.601806640625
0, 3, 81, 1476.627075195312
0, 3, 82, 1554.714965820312
0, 3, 83, 1517.267456054688
0, 3, 84, 1559.760009765625
0, 3, 85, 1480.991943359375
0, 3, 86, 1528.999877929688
0, 3, 87, 1537.305419921875
0, 3, 88, 1457.146362304688
0, 3, 89, 1448.376831054688
0, 3, 90, 1450.07568359375
0, 3, 91, 1418.744262695312
0, 3, 92, 1514.895874023438
0, 3, 93, 1499.087036132812
0, 3, 94, 1517.213623046875
0, 3, 95, 1541.532104492188
0, 3, 96, 1513.845336914062
0, 3, 97, 1464.251342773438
0, 3, 98, 1432.747924804688
0, 3, 99, 1468.104614257812
0, 3, 100, 1468.681274414062
0, 3, 101, 1474.064208984375
0, 3, 102, 1519.067749023438
0, 3, 103, 1555.991088867188
0, 3, 104, 1499.647338867188
0, 3, 105, 1515.043579101562
0, 3, 106, 1482.602783203125
0, 3, 107, 1345.466918945312
0, 3, 108, 870.7357788085938
0, 3, 109, 259.3794555664062
0, 3, 110, 105.7928924560547
0, 3, 111, 65.76856231689453
0, 3, 112, 56.42838287353516
0, 3, 113, 53.09817504882812
0, 3, 114, 47.12399673461914
0, 3, 115, 49.94432067871094
0, 3, 116, 39.07924270629883
0, 3, 117, 39.83622741699219
0, 3, 118, 37.91868591308594
0, 3, 119, 32.51115798950195
0, 3, 120, 29.65791511535645
0, 3, 121, 18.10004997253418
0, 3, 122, 24.48757362365723
0, 3, 123, 25.58176422119141
0, 3, 124, 23.75446128845215
0, 3, 125, 30.02444458007812
0, 3, 126, 24.2603874206543
0, 3, 127, 14.32150363922119
0, 4, 0, 19.57910919189453
0, 4, 1, 29.0424861907959
0, 4, 2, 17.33465766906738
0, 4, 3, 19.79920196533203
0, 4, 4, 22.58864402770996
0, 4, 5, 25.87052726745605
0, 4, 6, 24.78598213195801
0, 4, 7, 29.18306159973145
0, 4, 8, 29.56256484985352
0, 4, 9, 38.49901962280273
0, 4, 10, 33.11354446411133
0, 4, 11, 40.97562789916992
0, 4, 12, 45.47599411010742
0, 4, 13, 54.76343536376953
0, 4, 14, 46.02286148071289
0, 4, 15, 66.99710845947266
0, 4, 16, 68.12085723876953
0, 4, 17, 111.9576644897461
0, 4, 18, 445.0255737304688
0, 4, 19, 1178.666625976562
0, 4, 20, 1444.337280273438
0, 4, 21, 1420.047241210938
0, 4, 22, 1434.588623046875
0, 4, 23, 1451.928344726562
0, 4, 24, 1475.896728515625
0, 4, 25, 1409.900146484375
0, 4, 26, 1538.808959960938
0, 4, 27, 1545.447875976562
0, 4, 28, 1506.938110351562
0, 4, 29, 1519.7841796875
0, 4, 30, 1532.012817382812
0, 4, 31, 1575.875610351562
0, 4, 32, 1518.794555664062
0, 4, 33, 1495.954467773438
0, 4, 34, 1468.791748046875
0, 4, 35, 1556.901123046875
0, 4, 36, 1503.239379882812
0, 4, 37, 1517.022338867188
0, 4, 38, 1533.2705078125
0, 4, 39, 1473.263305664062
0, 4, 40, 1513.7451171875
0, 4, 41, 1585.278930664062
0, 4, 42, 1563.939086914062
0, 4, 43, 1475.783081054688
0, 4, 44, 1496.564086914062
0, 4, 45, 1519.24267578125
0, 4, 46, 1468.003051757812
0, 4, 47, 1509.773681640625
0, 4, 48, 1523.015258789062
0, 4, 49, 1470.945556640625
0, 4, 50, 1516.541381835938
0, 4, 51, 1493.822509765625
0, 4, 52, 1493.130249023438
0, 4, 53, 1455.810913085938
0, 4, 54, 1442.238525390625
0, 4, 55, 1524.597412109375
0, 4, 56, 1456.258056640625
0, 4, 57, 1496.596069335938
0, 4, 58, 1459.39453125
0, 4, 59, 1462.75537109375
0, 4, 60, 1530.069702148438
0, 4, 61, 1499.849609375
0, 4, 62, 1506.843017578125
0, 4, 63, 1546.107055664062
0, 4, 64, 1592.204956054688
0, 4, 65, 1423.024536132812
0, 4, 66, 1511.981079101562
0, 4, 67, 1522.358642578125
0, 4, 68, 1498.841918945312
0, 4, 69, 1467.117797851562
0, 4, 70, 1542.892211914062
0, 4, 71, 1514.59033203125
0, 4, 72, 1526.650512695312
0, 4, 73, 1488.363891601562
0, 4, 74, 1485.295043945312
0, 4, 75, 1536.283203125
0, 4, 76, 1477.915893554688
0, 4, 77, 1499.63818359375
0, 4, 78, 1504.052856445312
0, 4, 79, 1482.042846679688
0, 4, 80, 1513.248779296875
0, 4, 81, 1524.872436523438
0, 4, 82, 1568.092651367188
0, 4, 83, 1501.589721679688
0, 4, 84, 1536.061767578125
0, 4, 85, 1553.17041015625
0, 4, 86, 1530.183349609375
0, 4, 87, 1500.6240234375
0, 4, 88, 1515.953369140625
0, 4, 89, 1483.133422851562
0, 4, 90, 1546.852783203125
0, 4, 91, 1553.914916992188
0, 4, 92, 1497.013916015625
0, 4, 93, 1516.961303710938
0, 4, 94, 1482.261108398438
0, 4, 95, 1505.9921875
0, 4, 96, 1442.640258789062
0, 4, 97, 1407.400756835938
0, 4, 98, 1555.195190429688
0, 4, 99, 1505.634521484375
0, 4, 100, 1491.443115234375
0, 4, 101, 1450.927124023438
0, 4, 102, 1444.734130859375
0, 4, 103, 1513.080810546875
0, 4, 104, 1512.656982421875
0, 4, 105, 1556.91650390625
0, 4, 106, 1479.722045898438
0, 4, 107, 1456.201904296875
0, 4, 108, 1120.945434570312
0, 4, 109, 436.3270568847656
0, 4, 110, 98.01099395751953
0, 4, 111, 66.37299346923828
0, 4, 112, 59.51988220214844
0, 4, 113, 49.69855880737305
0, 4, 114, 54.47864532470703
0, 4, 115, 44.84770584106445
0, 4, 116, 34.31344985961914
0, 4, 117, 48.31836700439453
0, 4, 118, 38.89261245727539
0, 4, 119, 40.52940368652344
0, 4, 120, 39.02494812011719
0, 4, 121, 24.97844123840332
0, 4, 122, 35.29837799072266
0, 4, 123, 33.07005310058594
0, 4, 124, 21.82297325134277
0, 4, 125, 28.56283569335938
0, 4, 126, 23.12246322631836
0, 4, 127, 20.34609413146973
0, 5, 0, 27.91850090026855
0, 5, 1, 24.39856147766113
0, 5, 2, 27.86701393127441
0, 5, 3, 23.92986869812012
0, 5, 4, 21.94277381896973
0, 5, 5, 35.80901336669922
0, 5, 6, 24.50005531311035
0, 5, 7, 27.16463279724121
0, 5, 8, 31.3870792388916
0, 5, 9, 29.97802543640137
0, 5, 10, 32.58994293212891
0, 5, 11, 37.17173767089844
0, 5, 12, 36.55496597290039
0, 5, 13, 44.20054244995117
0, 5, 14, 64.69029998779297
0, 5, 15, 77.98825073242188
0, 5, 16, 82.59252166748047
0, 5, 17, 160.7311248779297
0, 5, 18, 674.9096069335938
0, 5, 19, 1341.232299804688
0, 5, 20, 1525.098510742188
0, 5, 21, 1500.318725585938
0, 5, 22, 1495.14306640625
0, 5, 23, 1529.0224609375
0, 5, 24, 1463.780029296875
0, 5, 25, 1426.68701171875
0, 5, 26, 1527.310302734375
0, 5, 27, 1540.596923828125
0, 5, 28, 1485.511962890625
0, 5, 29, 1524.1904296875
0, 5, 30, 1494.103393554688
0, 5, 31, 1497.66796875
0, 5, 32, 1591.622192382812
0, 5, 33, 1500.806762695312
0, 5, 34, 1483.119873046875
0, 5, 35, 1512.15625
0, 5, 36, 1444.064208984375
0, 5, 37, 1528.856567382812
0, 5, 38, 1551.92822265625
0, 5, 39, 1546.035522460938
0, 5, 40, 1499.977905273438
0, 5, 41, 1479.619018554688
0, 5, 42, 1540.41943359375
0, 5, 43, 1533.27880859375
0, 5, 44, 1539.909545898438
0, 5, 45, 1506.015869140625
0, 5, 46, 1491.76220703125
0, 5, 47, 1486.7646484375
0, 5, 48, 1503.978149414062
0, 5, 49, 1518.535888671875
0, 5, 50, 1510.217407226562
0, 5, 51, 1515.372680664062
0, 5, 52, 1431.441162109375
0, 5, 53, 1526.156127929688
0, 5, 54, 1522.139038085938
0, 5, 55, 1523.180419921875
0, 5, 56, 1482.937866210938
0, 5, 57, 1537.462524414062
0, 5, 58, 1506.842407226562
0, 5, 59, 1487.265747070312
0, 5, 60, 1536.058227539062
0, 5, 61, 1446.29248046875
0, 5, 62, 1586.263916015625
0, 5, 63, 1432.057006835938
0, 5, 64, 1485.747436523438
0, 5, 65, 1468.820678710938
0, 5, 66, 1527.836181640625
0, 5, 67, 1558.984130859375
0, 5, 68, 1467.23388671875
0, 5, 69, 1483.42333984375
0, 5, 70, 1486.913818359375
0, 5, 71, 1479.62158203125
0, 5, 72, 1541.622680664062
0, 5, 73, 1463.163208007812
0, 5, 74, 1491.784912109375
0, 5, 75, 1487.38720703125
0, 5, 76, 1476.155029296875
0, 5, 77, 1519.069580078125
0, 5, 78, 1520.851928710938
0, 5, 79, 1512.636596679688
0, 5, 80, 1523.237670898438
0, 5, 81, 1594.335327148438
0, 5, 82, 1529.047729492188
0, 5, 83, 1488.867553710938
0, 5, 84, 1533.657348632812
0, 5, 85, 1514.954833984375
0, 5, 86, 1559.094116210938
0, 5, 87, 1472.444213867188
0, 5, 88, 1495.799682617188
0, 5, 89, 1481.355346679688
0, 5, 90, 1479.154052734375
0, 5, 91, 1548.450317382812
0, 5, 92, 1484.687744140625
0, 5, 93, 1563.653930664062
0, 5, 94, 1511.160888671875
0, 5, 95, 1560.66357421875
0, 5, 96, 1501.055541992188
0, 5, 97, 1508.725708007812
0, 5, 98, 1508.544067382812
0, 5, 99, 1539.961059570312
0, 5, 100, 1438.332641601562
0, 5, 101, 1426.546752929688
0, 5, 102, 1511.548950195312
0, 5, 103, 1475.3896484375
0, 5, 104, 1458.879638671875
0, 5, 105, 1495.7265625
0, 5, 106, 1455.396728515625
0, 5, 107, 1401.301513671875
0, 5, 108, 1289.261840820312
0, 5, 109, 718.7008666992188
0, 5, 110, 189.3041229248047
0, 5, 111, 87.68572235107422
0, 5, 112, 79.52664947509766
0, 5, 113, 60.61190795898438
0, 5, 114, 65.26200866699219
0, 5, 115, 55.35040664672852
0, 5, 116, 40.02538681030273
0, 5, 117, 33.73998641967773
0, 5, 118, 37.74636459350586
0, 5, 119, 24.5548267364502
0, 5, 120, 27.65737724304199
0, 5, 121, 24.63694381713867
0, 5, 122, 25.49333190917969
0, 5, 123, 26.95652198791504
0, 5, 124, 26.50652122497559
0, 5, 125, 21.09084892272949
0, 5, 126, 21.76723861694336
0, 5, 127, 23.32609176635742
0, 6, 0, 19.49955940246582
0, 6, 1, 26.48715972900391
0, 6, 2, 28.09190368652344
0, 6, 3, 23.85637855529785
0, 6, 4, 23.98573875427246
0, 6, 5, 34.27861404418945
0, 6, 6, 37.69223022460938
0, 6, 7, 29.81766510009766
0, 6, 8, 33.78092193603516
0, 6, 9, 33.88943099975586
0, 6, 10, 36.6138916015625
0, 6, 11, 39.26066970825195
0, 6, 12, 38.38905715942383
0, 6, 13, 58.50141143798828
0, 6, 14, 62.96843338012695
0, 6, 15, 79.60718536376953
0, 6, 16, 106.5147094726562
0, 6, 17, 298.1755981445312
0, 6, 18, 898.3202514648438
0, 6, 19, 1371.40478515625
0, 6, 20, 1437.11669921875
0, 6, 21, 1529.604370117188
0, 6, 22, 1499.54443359375
0, 6, 23, 1525.832153320312
0, 6, 24, 1475.200317382812
0, 6, 25, 1533.190063476562
0, 6, 26, 1520.437255859375
0, 6, 27, 1525.713745117188
0, 6, 28, 1554.369262695312
0, 6, 29, 1571.604858398438
0, 6, 30, 1517.643188476562
0, 6, 31, 1492.69921875
0, 6, 32, 1525.518188476562
0, 6, 33, 1490.85009765625
0, 6, 34, 1564.822998046875
0, 6, 35, 1502.101196289062
0, 6, 36, 1441.091918945312
0, 6, 37, 1541.671875
0, 6, 38, 1527.12744140625
0, 6, 39, 1525.8681640625
0, 6, 40, 1457.75732421875
0, 6, 41, 1444.639038085938
0, 6, 42, 1515.34033203125
0, 6, 43, 1484.769165039062
0, 6, 44, 1430.5849609375
0, 6, 45, 1547.072265625
0, 6, 46, 1554.340454101562
0, 6, 47, 1495.444091796875
0, 6, 48, 1524.018432617188
0, 6, 49, 1514.949096679688
0, 6, 50, 1579.421997070312
0, 6, 51, 1507.91064453125
0, 6, 52, 1565.4716796875
0, 6, 53, 1476.41455078125
0, 6, 54, 1500.024536132812
0, 6, 55, 1571.431274414062
0, 6, 56, 1524.440307617188
0, 6, 57, 1503.862182617188
0, 6, 58, 1471.526245117188
0, 6, 59, 1524.348022460938
0, 6, 60, 1465.882080078125
0, 6, 61, 1570.301391601562
0, 6, 62, 1544.961791992188
0, 6, 63, 1492.417114257812
0, 6, 64, 1411.152099609375
0, 6, 65, 1492.630126953125
0, 6, 66, 1513.27197265625
0, 6, 67, 1507.324951171875
0, 6, 68, 1545.143676757812
0, 6, 69, 1486.4189453125
0, 6, 70, 1523.277099609375
0, 6, 71, 1469.929931640625
0, 6, 72, 1593.989013671875
0, 6, 73, 1490.495483398438
0, 6, 74, 1555.94921875
0, 6, 75, 1537.653564453125
0, 6, 76, 1564.2880859375
0, 6, 77, 1510.0927734375
0, 6, 78, 1449.065307617188
0, 6, 79, 1557.666015625
0, 6, 80, 1483.671752929688
0, 6, 81, 1485.524169921875
0, 6, 82, 1501.368530273438
0, 6, 83, 1527.576538085938
0, 6, 84, 1517.980590820312
0, 6, 85, 1536.112182617188
0, 6, 86, 1541.98876953125
0, 6, 87, 1575.658813476562
0, 6, 88, 1481.760986328125
0, 6, 89, 1563.41943359375
0, 6, 90, 1491.455810546875
0, 6, 91, 1543.21923828125
0, 6, 92, 1490.604736328125
0, 6, 93, 1499.315795898438
0, 6, 94, 1474.107421875
0, 6, 95, 1514.574462890625
0, 6, 96, 1518.901000976562
0, 6, 97, 1508.98681640625
0, 6, 98, 1495.592407226562
0, 6, 99, 1481.036010742188
0, 6, 100, 1521.431396484375
0, 6, 101, 1522.02685546875
0, 6, 102, 1538.449462890625
0, 6, 103, 1497.277465820312
0, 6, 104, 1465.142456054688
0, 6, 105, 1486.867919921875
0, 6, 106, 1500.589721679688
0, 6, 107, 1503.02001953125
0, 6, 108, 1407.597412109375
0, 6, 109, 922.873291015625
0, 6, 110, 285.8119812011719
0, 6, 111, 97.61468505859375
0, 6, 112, 86.05496215820312
0, 6, 113, 58.25191879272461
0, 6, 114, 62.02708435058594
0, 6, 115, 45.58758926391602
0, 6, 116, 40.90679550170898
0, 6, 117, 40.99341583251953
0, 6, 118, 40.98299789428711
0, 6, 119, 37.62299346923828
0, 6, 120, 36.4472541809082
0, 6, 121, 32.63235092163086
0, 6, 122, 31.88506889343262
0, 6, 123, 30.39260673522949
0, 6, 124, 27.19591903686523
0, 6, 125, 31.82399940490723
0, 6, 126, 20.88195037841797
0, 6, 127, 25.19677543640137
0, 7, 0, 20.92863845825195
0, 7, 1, 23.92015838623047
0, 7, 2, 22.06663703918457
0, 7, 3, 26.66774749755859
0, 7, 4, 23.0435791015625
0, 7, 5, 35.63420104980469
0, 7, 6, 38.47225570678711
0, 7, 7, 35.13787078857422
0, 7, 8, 29.43649101257324
0, 7, 9, 41.74184799194336
0, 7, 10, 46.33238983154297
0, 7, 11, 55.03546905517578
0, 7, 12, 50.56509017944336
0, 7, 13, 59.20857620239258
0, 7, 14, 60.03524398803711
0, 7, 15, 76.10903167724609
0, 7, 16, 131.3763885498047
0, 7, 17, 458.2831115722656
0, 7, 18, 1098.492553710938
0, 7, 19, 1503.7880859375
0, 7, 20, 1492.325317382812
0, 7, 21, 1364.646606445312
0, 7, 22, 1490.88427734375
0, 7, 23, 1453.9091796875
0, 7, 24, 1512.362426757812
0, 7, 25, 1596.022094726562
0, 7, 26, 1523.923461914062
0, 7, 27, 1511.0068359375
0, 7, 28, 1550.148559570312
0, 7, 29, 1575.899536132812
0, 7, 30, 1552.657348632812
0, 7, 31, 1436.852905273438
0, 7, 32, 1546.258178710938
0, 7, 33, 1485.777954101562
0, 7, 34, 1478.600708007812
0, 7, 35, 1527.1025390625
0, 7, 36, 1477.429443359375
0, 7, 37, 1602.987670898438
0, 7, 38, 1505.73046875
0, 7, 39, 1490.816528320312
0, 7, 40, 1545.609741210938
0, 7, 41, 1462.90869140625
0, 7, 42, 1490.3330078125
0, 7, 43, 1446.878173828125
0, 7, 44, 1492.526000976562
0, 7, 45, 1468.363525390625
0, 7, 46, 1511.594482421875
0, 7, 47, 1566.99169921875
0, 7, 48, 1521.040893554688
0, 7, 49, 1536.380493164062
0, 7, 50, 1515.834350585938
0, 7, 51, 1502.262939453125
0, 7, 52, 1516.855590820312
0, 7, 53, 1496.352661132812
0, 7, 54, 1585.980224609375
0, 7, 55, 1478.635864257812
0, 7, 56, 1552.977416992188
0, 7, 57, 1515.009887695312
0, 7, 58, 1550.116455078125
0, 7, 59, 1541.551147460938
0, 7, 60, 1553.812622070312
0, 7, 61, 1488.887573242188
0, 7, 62, 1435.368041992188
0, 7, 63, 1511.10888671875
0, 7, 64, 1548.943237304688
0, 7, 65, 1536.371459960938
0, 7, 66, 1539.092651367188
0, 7, 67, 1581.385864257812
0, 7, 68, 1534.734497070312
0, 7, 69, 1514.53076171875
0, 7, 70, 1498.899291992188
0, 7, 71, 1524.521850585938
0, 7, 72, 1522.911865234375
0, 7, 73, 1515.574951171875
0, 7, 74, 1574.618896484375
0, 7, 75, 1535.44091796875
0, 7, 76, 1559.003662109375
0, 7, 77, 1515.39306640625
0, 7, 78, 1507.483154296875
0, 7, 79, 1424.110107421875
0, 7, 80, 1488.61865234375
0, 7, 81, 1493.213623046875
0, 7, 82, 1533.474853515625
0, 7, 83, 1541.284912109375
0, 7, 84, 1585.621337890625
0, 7, 85, 1482.443603515625
0, 7, 86, 1501.712768554688
0, 7, 87, 1510.170532226562
0, 7, 88, 1502.27294921875
0, 7, 89, 1551.869506835938
0, 7, 90, 1523.746215820312
0, 7, 91, 1561.249389648438
0, 7, 92, 1522.919067382812
0, 7, 93, 1553.981323242188
0, 7, 94, 1543.847900390625
0, 7, 95, 1505.959838867188
0, 7, 96, 1502.847900390625
0, 7, 97, 1433.734252929688
0, 7, 98, 1481.272338867188
0, 7, 99, 1523.523559570312
0, 7, 100, 1418.231811523438
0, 7, 101, 1464.203857421875
0, 7, 102, 1448.923828125
0, 7, 103, 1434.160400390625
0, 7, 104, 1494.192138671875
0, 7, 105, 1528.71337890625
0, 7, 106, 1573.291748046875
0, 7, 107, 1482.932250976562
0, 7, 108, 1411.173950195312
0, 7, 109, 1148.025024414062
0, 7, 110, 468.763671875
0, 7, 111, 126.0949630737305
0, 7, 112, 77.84646606445312
0, 7, 113, 70.30078125
0, 7, 114, 53.69939422607422
0, 7, 115, 55.16659164428711
0, 7, 116, 44.52106094360352
0, 7, 117, 42.16057205200195
0, 7, 118, 34.65225982666016
0, 7, 119, 37.50861358642578
0, 7, 120, 26.98789024353027
0, 7, 121, 38.24529266357422
0, 7, 122, 37.87452697753906
0, 7, 123, 33.04665374755859
0, 7, 124, 30.48635292053223
0, 7, 125, 24.33135795593262
0, 7, 126, 31.18184471130371
0, 7, 127, 24.39788436889648
0, 8, 0, 19.74018096923828
0, 8, 1, 23.09537506103516
0, 8, 2, 24.75054931640625
0, 8, 3, 25.88960647583008
0, 8, 4, 26.50194549560547
0, 8, 5, 33.95428466796875
0, 8, 6, 36.56307983398438
0, 8, 7, 28.38188362121582
0, 8, 8, 39.91037750244141
0, 8, 9, 46.70256423950195
0, 8, 10, 47.43913269042969
0, 8, 11, 42.5355110168457
0, 8, 12, 57.64393615722656
0, 8, 13, 65.06288146972656
0, 8, 14, 68.70350646972656
0, 8, 15, 85.757568359375
0, 8, 16, 165.6641082763672
0, 8, 17, 675.4483032226562
0, 8, 18, 1272.191528320312
0, 8, 19, 1451.253173828125
0, 8, 20, 1419.6044921875
0, 8, 21, 1406.83740234375
0, 8, 22, 1488.1064453125
0, 8, 23, 1480.168334960938
0, 8, 24, 1437.3056640625
0, 8, 25, 1452.160400390625
0, 8, 26, 1514.182739257812
0, 8, 27, 1529.014526367188
0, 8, 28, 1473.38916015625
0, 8, 29, 1507.470947265625
0, 8, 30, 1488.1787109375
0, 8, 31, 1533.08935546875
0, 8, 32, 1504.283813476562
0, 8, 33, 1484.835205078125
0, 8, 34, 1535.386840820312
0, 8, 35, 1438.143310546875
0, 8, 36, 1502.24560546875
0, 8, 37, 1553.881713867188
0, 8, 38, 1554.508544921875
0, 8, 39, 1493.983276367188
0, 8, 40, 1531.611450195312
0, 8, 41, 1488.17138671875
0, 8, 42, 1538.599609375
0, 8, 43, 1431.054321289062
0, 8, 44, 1534.873901367188
0, 8, 45, 1508.711181640625
0, 8, 46, 1599.343139648438
