# TOPAS Version: 3.1.p3
# Parameter File: batch_inserts_72.txt
# Results for scorer Readout_Adipose
# Scored in component: MyBox
# X in 1 bin  of 0.75 cm
# Y in 512 bins of 0.0783984 cm
# Z in 128 bins of 0.078125 cm
# EnergyDeposit ( MeV ) : Sum   
0, 0, 0, 2.773329973220825
0, 0, 1, 1.556276798248291
0, 0, 2, 4.458738803863525
0, 0, 3, 2.872714519500732
0, 0, 4, 4.652679920196533
0, 0, 5, 2.815890073776245
0, 0, 6, 6.672635555267334
0, 0, 7, 10.9916353225708
0, 0, 8, 5.127213478088379
0, 0, 9, 5.787622451782227
0, 0, 10, 7.790894508361816
0, 0, 11, 4.569294452667236
0, 0, 12, 5.672389030456543
0, 0, 13, 6.502371311187744
0, 0, 14, 6.58002233505249
0, 0, 15, 10.25902652740479
0, 0, 16, 9.032523155212402
0, 0, 17, 10.23023891448975
0, 0, 18, 12.37958431243896
0, 0, 19, 43.80733489990234
0, 0, 20, 140.1832427978516
0, 0, 21, 222.489013671875
0, 0, 22, 249.2629699707031
0, 0, 23, 254.8180694580078
0, 0, 24, 253.5302581787109
0, 0, 25, 260.0755615234375
0, 0, 26, 232.7095794677734
0, 0, 27, 237.3204193115234
0, 0, 28, 273.2035522460938
0, 0, 29, 253.8990173339844
0, 0, 30, 229.6345062255859
0, 0, 31, 243.8055572509766
0, 0, 32, 263.8555297851562
0, 0, 33, 261.7052612304688
0, 0, 34, 286.5406188964844
0, 0, 35, 266.5960693359375
0, 0, 36, 246.3088684082031
0, 0, 37, 252.0081024169922
0, 0, 38, 271.0148315429688
0, 0, 39, 230.6400146484375
0, 0, 40, 240.6240234375
0, 0, 41, 267.0696105957031
0, 0, 42, 227.8928375244141
0, 0, 43, 259.3512878417969
0, 0, 44, 251.1886596679688
0, 0, 45, 252.5036315917969
0, 0, 46, 243.2367248535156
0, 0, 47, 252.1384582519531
0, 0, 48, 267.4654541015625
0, 0, 49, 271.7304992675781
0, 0, 50, 249.7174530029297
0, 0, 51, 254.4011383056641
0, 0, 52, 274.2804565429688
0, 0, 53, 290.4820556640625
0, 0, 54, 242.3225250244141
0, 0, 55, 239.9465484619141
0, 0, 56, 279.1416015625
0, 0, 57, 262.7635803222656
0, 0, 58, 246.1118774414062
0, 0, 59, 272.0111999511719
0, 0, 60, 233.8600006103516
0, 0, 61, 246.4606781005859
0, 0, 62, 257.3114318847656
0, 0, 63, 268.676513671875
0, 0, 64, 256.3427429199219
0, 0, 65, 260.6085205078125
0, 0, 66, 276.6601867675781
0, 0, 67, 246.7447357177734
0, 0, 68, 257.8434753417969
0, 0, 69, 261.1806030273438
0, 0, 70, 272.2611694335938
0, 0, 71, 239.7730560302734
0, 0, 72, 253.7626647949219
0, 0, 73, 257.8406982421875
0, 0, 74, 250.9757843017578
0, 0, 75, 239.1302642822266
0, 0, 76, 228.7256927490234
0, 0, 77, 259.7991027832031
0, 0, 78, 255.4094390869141
0, 0, 79, 278.0575561523438
0, 0, 80, 217.2003173828125
0, 0, 81, 266.8294067382812
0, 0, 82, 255.8631134033203
0, 0, 83, 246.8015441894531
0, 0, 84, 269.6638488769531
0, 0, 85, 231.6632232666016
0, 0, 86, 254.1464538574219
0, 0, 87, 253.1178894042969
0, 0, 88, 261.8650817871094
0, 0, 89, 282.7109375
0, 0, 90, 243.3870544433594
0, 0, 91, 281.5750732421875
0, 0, 92, 252.7331237792969
0, 0, 93, 248.9335632324219
0, 0, 94, 248.1368103027344
0, 0, 95, 246.8296661376953
0, 0, 96, 274.5526428222656
0, 0, 97, 271.9962768554688
0, 0, 98, 273.1364135742188
0, 0, 99, 258.43701171875
0, 0, 100, 258.4623107910156
0, 0, 101, 226.8792724609375
0, 0, 102, 230.6860809326172
0, 0, 103, 269.2792663574219
0, 0, 104, 252.8617095947266
0, 0, 105, 252.263427734375
0, 0, 106, 246.946533203125
0, 0, 107, 152.2684326171875
0, 0, 108, 37.48524475097656
0, 0, 109, 12.05595397949219
0, 0, 110, 13.03499126434326
0, 0, 111, 11.25828742980957
0, 0, 112, 8.516149520874023
0, 0, 113, 6.554500102996826
0, 0, 114, 6.359409809112549
0, 0, 115, 3.205374240875244
0, 0, 116, 6.573069095611572
0, 0, 117, 7.465487003326416
0, 0, 118, 6.344305515289307
0, 0, 119, 4.156964302062988
0, 0, 120, 4.495726108551025
0, 0, 121, 3.555115222930908
0, 0, 122, 5.021028518676758
0, 0, 123, 6.049928188323975
0, 0, 124, 3.869305849075317
0, 0, 125, 4.892718315124512
0, 0, 126, 5.87598705291748
0, 0, 127, 3.537463188171387
0, 1, 0, 7.007904052734375
0, 1, 1, 5.568140029907227
0, 1, 2, 3.27203893661499
0, 1, 3, 6.267959117889404
0, 1, 4, 4.787867069244385
0, 1, 5, 3.303080558776855
0, 1, 6, 4.115075588226318
0, 1, 7, 1.965864539146423
0, 1, 8, 6.947878360748291
0, 1, 9, 4.596480846405029
0, 1, 10, 6.510105609893799
0, 1, 11, 12.20645904541016
0, 1, 12, 9.054440498352051
0, 1, 13, 9.557851791381836
0, 1, 14, 8.649799346923828
0, 1, 15, 9.666483879089355
0, 1, 16, 10.93674087524414
0, 1, 17, 12.31147193908691
0, 1, 18, 20.32697296142578
0, 1, 19, 66.12724304199219
0, 1, 20, 199.2433776855469
0, 1, 21, 253.9886016845703
0, 1, 22, 294.4517517089844
0, 1, 23, 283.9385681152344
0, 1, 24, 274.718017578125
0, 1, 25, 288.2306213378906
0, 1, 26, 267.5285949707031
0, 1, 27, 306.048828125
0, 1, 28, 300.4769592285156
0, 1, 29, 295.7543334960938
0, 1, 30, 279.4928894042969
0, 1, 31, 291.7321472167969
0, 1, 32, 290.06298828125
0, 1, 33, 295.9904174804688
0, 1, 34, 292.4360656738281
0, 1, 35, 283.0698852539062
0, 1, 36, 305.3287048339844
0, 1, 37, 295.5473327636719
0, 1, 38, 278.5876159667969
0, 1, 39, 295.4341735839844
0, 1, 40, 267.33447265625
0, 1, 41, 286.9482727050781
0, 1, 42, 290.2374267578125
0, 1, 43, 333.2745056152344
0, 1, 44, 278.765625
0, 1, 45, 292.8664245605469
0, 1, 46, 260.4541320800781
0, 1, 47, 311.1972045898438
0, 1, 48, 285.3501586914062
0, 1, 49, 301.3910827636719
0, 1, 50, 264.8255004882812
0, 1, 51, 271.48779296875
0, 1, 52, 297.2241516113281
0, 1, 53, 304.4975280761719
0, 1, 54, 275.5169067382812
0, 1, 55, 292.4501037597656
0, 1, 56, 278.7455139160156
0, 1, 57, 300.1338195800781
0, 1, 58, 310.2727966308594
0, 1, 59, 294.5261840820312
0, 1, 60, 298.1015014648438
0, 1, 61, 276.6557312011719
0, 1, 62, 307.7716979980469
0, 1, 63, 285.2160034179688
0, 1, 64, 288.019287109375
0, 1, 65, 294.3276672363281
0, 1, 66, 292.1926574707031
0, 1, 67, 290.55712890625
0, 1, 68, 278.3758544921875
0, 1, 69, 283.2015075683594
0, 1, 70, 271.5580444335938
0, 1, 71, 274.3530883789062
0, 1, 72, 285.3360900878906
0, 1, 73, 305.4601440429688
0, 1, 74, 305.5163269042969
0, 1, 75, 290.8692321777344
0, 1, 76, 285.2427368164062
0, 1, 77, 292.8401489257812
0, 1, 78, 296.6190185546875
0, 1, 79, 302.8390808105469
0, 1, 80, 296.8629455566406
0, 1, 81, 301.4427490234375
0, 1, 82, 282.5364379882812
0, 1, 83, 331.6366577148438
0, 1, 84, 306.4886169433594
0, 1, 85, 253.4496917724609
0, 1, 86, 293.3738403320312
0, 1, 87, 292.1007690429688
0, 1, 88, 297.279052734375
0, 1, 89, 290.6036071777344
0, 1, 90, 270.9681701660156
0, 1, 91, 317.6130065917969
0, 1, 92, 288.6423645019531
0, 1, 93, 286.61279296875
0, 1, 94, 304.0036926269531
0, 1, 95, 284.8015441894531
0, 1, 96, 282.07763671875
0, 1, 97, 301.3226623535156
0, 1, 98, 279.4514465332031
0, 1, 99, 265.5997314453125
0, 1, 100, 277.8512878417969
0, 1, 101, 282.3536376953125
0, 1, 102, 278.3541870117188
0, 1, 103, 281.7560424804688
0, 1, 104, 306.0514831542969
0, 1, 105, 296.0550537109375
0, 1, 106, 260.7640991210938
0, 1, 107, 193.6676177978516
0, 1, 108, 80.31045532226562
0, 1, 109, 23.36024475097656
0, 1, 110, 10.79308605194092
0, 1, 111, 10.24355316162109
0, 1, 112, 11.9005708694458
0, 1, 113, 8.693896293640137
0, 1, 114, 5.903923034667969
0, 1, 115, 7.302014350891113
0, 1, 116, 11.6909008026123
0, 1, 117, 4.257591724395752
0, 1, 118, 5.423132419586182
0, 1, 119, 6.305303573608398
0, 1, 120, 3.928385257720947
0, 1, 121, 4.107248306274414
0, 1, 122, 4.587148189544678
0, 1, 123, 5.803491592407227
0, 1, 124, 8.013222694396973
0, 1, 125, 4.508354187011719
0, 1, 126, 2.005547761917114
0, 1, 127, 0.945598840713501
0, 2, 0, 4.357899188995361
0, 2, 1, 2.403227806091309
0, 2, 2, 3.765244245529175
0, 2, 3, 4.25667142868042
0, 2, 4, 2.9235680103302
0, 2, 5, 2.711779117584229
0, 2, 6, 1.639254093170166
0, 2, 7, 3.660907983779907
0, 2, 8, 5.855329990386963
0, 2, 9, 5.52939510345459
0, 2, 10, 7.512357234954834
0, 2, 11, 7.054580688476562
0, 2, 12, 7.229930400848389
0, 2, 13, 11.32906818389893
0, 2, 14, 10.78304386138916
0, 2, 15, 6.893606662750244
0, 2, 16, 10.09068870544434
0, 2, 17, 15.69391918182373
0, 2, 18, 28.41889381408691
0, 2, 19, 116.4629745483398
0, 2, 20, 246.8412322998047
0, 2, 21, 271.1128845214844
0, 2, 22, 316.3873596191406
0, 2, 23, 301.7650146484375
0, 2, 24, 287.6428527832031
0, 2, 25, 304.2898864746094
0, 2, 26, 293.1666259765625
0, 2, 27, 278.331787109375
0, 2, 28, 274.0078430175781
0, 2, 29, 272.4501647949219
0, 2, 30, 289.3830871582031
0, 2, 31, 279.8060607910156
0, 2, 32, 293.6834716796875
0, 2, 33, 281.4487915039062
0, 2, 34, 330.3819274902344
0, 2, 35, 289.5828247070312
0, 2, 36, 302.8773193359375
0, 2, 37, 316.6672058105469
0, 2, 38, 311.6089782714844
0, 2, 39, 266.1714477539062
0, 2, 40, 307.0147094726562
0, 2, 41, 290.8783264160156
0, 2, 42, 302.9085998535156
0, 2, 43, 311.2233276367188
0, 2, 44, 310.4879760742188
0, 2, 45, 325.6630249023438
0, 2, 46, 287.0901794433594
0, 2, 47, 303.7957153320312
0, 2, 48, 282.0106811523438
0, 2, 49, 278.6379699707031
0, 2, 50, 293.6998291015625
0, 2, 51, 284.1615600585938
0, 2, 52, 272.7567443847656
0, 2, 53, 286.0220642089844
0, 2, 54, 279.9884033203125
0, 2, 55, 272.6516723632812
0, 2, 56, 302.7864379882812
0, 2, 57, 290.7848510742188
0, 2, 58, 301.76220703125
0, 2, 59, 286.1548461914062
0, 2, 60, 319.7716064453125
0, 2, 61, 303.5889587402344
0, 2, 62, 312.7137756347656
0, 2, 63, 301.6452026367188
0, 2, 64, 296.7612915039062
0, 2, 65, 317.8943176269531
0, 2, 66, 279.488037109375
0, 2, 67, 290.9979248046875
0, 2, 68, 296.5091857910156
0, 2, 69, 310.6275634765625
0, 2, 70, 332.9934692382812
0, 2, 71, 281.7462463378906
0, 2, 72, 300.2972106933594
0, 2, 73, 309.9076232910156
0, 2, 74, 285.4807739257812
0, 2, 75, 306.2637023925781
0, 2, 76, 286.9440307617188
0, 2, 77, 301.1711730957031
0, 2, 78, 315.3152465820312
0, 2, 79, 308.5813293457031
0, 2, 80, 296.2951049804688
0, 2, 81, 282.8525695800781
0, 2, 82, 317.3146362304688
0, 2, 83, 311.2194213867188
0, 2, 84, 288.1326904296875
0, 2, 85, 281.3184509277344
0, 2, 86, 323.4415588378906
0, 2, 87, 287.0626220703125
0, 2, 88, 281.4370422363281
0, 2, 89, 294.5884704589844
0, 2, 90, 295.4919738769531
0, 2, 91, 279.1038513183594
0, 2, 92, 304.9513244628906
0, 2, 93, 317.2315063476562
0, 2, 94, 292.2183532714844
0, 2, 95, 314.6611328125
0, 2, 96, 313.8367309570312
0, 2, 97, 293.256591796875
0, 2, 98, 293.7531127929688
0, 2, 99, 272.9719848632812
0, 2, 100, 305.4695129394531
0, 2, 101, 302.5601501464844
0, 2, 102, 296.0847473144531
0, 2, 103, 291.4766540527344
0, 2, 104, 295.01123046875
0, 2, 105, 273.2196960449219
0, 2, 106, 297.8214416503906
0, 2, 107, 270.8046569824219
0, 2, 108, 116.88623046875
0, 2, 109, 32.64902114868164
0, 2, 110, 11.68408966064453
0, 2, 111, 10.6264820098877
0, 2, 112, 8.944123268127441
0, 2, 113, 9.944416046142578
0, 2, 114, 11.50634574890137
0, 2, 115, 11.13718032836914
0, 2, 116, 8.689193725585938
0, 2, 117, 7.025909423828125
0, 2, 118, 2.573839426040649
0, 2, 119, 3.590378284454346
0, 2, 120, 4.321052551269531
0, 2, 121, 1.661115288734436
0, 2, 122, 3.605916023254395
0, 2, 123, 3.616955518722534
0, 2, 124, 6.041672229766846
0, 2, 125, 4.860413074493408
0, 2, 126, 3.895933866500854
0, 2, 127, 4.650676727294922
0, 3, 0, 2.12825608253479
0, 3, 1, 3.088147401809692
0, 3, 2, 3.799953937530518
0, 3, 3, 3.939451932907104
0, 3, 4, 5.115638256072998
0, 3, 5, 6.667024612426758
0, 3, 6, 8.320359230041504
0, 3, 7, 5.417235851287842
0, 3, 8, 5.567638874053955
0, 3, 9, 6.200246334075928
0, 3, 10, 7.460617065429688
0, 3, 11, 3.692774534225464
0, 3, 12, 5.934993743896484
0, 3, 13, 14.42413425445557
0, 3, 14, 12.66677761077881
0, 3, 15, 14.53884601593018
0, 3, 16, 9.994538307189941
0, 3, 17, 19.00712776184082
0, 3, 18, 49.71685028076172
0, 3, 19, 174.0809783935547
0, 3, 20, 268.8403015136719
0, 3, 21, 271.2605285644531
0, 3, 22, 281.8076477050781
0, 3, 23, 287.4096984863281
0, 3, 24, 285.4561157226562
0, 3, 25, 273.2629699707031
0, 3, 26, 303.4564514160156
0, 3, 27, 291.4913330078125
0, 3, 28, 285.5840454101562
0, 3, 29, 337.8206481933594
0, 3, 30, 315.5752868652344
0, 3, 31, 287.68505859375
0, 3, 32, 305.3563842773438
0, 3, 33, 313.5787048339844
0, 3, 34, 323.1473999023438
0, 3, 35, 305.71142578125
0, 3, 36, 270.2535400390625
0, 3, 37, 313.3417663574219
0, 3, 38, 305.3582763671875
0, 3, 39, 289.6188659667969
0, 3, 40, 266.3075866699219
0, 3, 41, 301.8212585449219
0, 3, 42, 286.3262939453125
0, 3, 43, 305.2794494628906
0, 3, 44, 311.1248474121094
0, 3, 45, 289.3251647949219
0, 3, 46, 329.7595825195312
0, 3, 47, 298.1634216308594
0, 3, 48, 305.7406616210938
0, 3, 49, 279.1333312988281
0, 3, 50, 289.4205017089844
0, 3, 51, 275.1343688964844
0, 3, 52, 315.7339782714844
0, 3, 53, 290.4981689453125
0, 3, 54, 284.0395812988281
0, 3, 55, 283.3480834960938
0, 3, 56, 299.8104553222656
0, 3, 57, 286.7718200683594
0, 3, 58, 305.6466674804688
0, 3, 59, 297.1991882324219
0, 3, 60, 301.6775512695312
0, 3, 61, 265.5562744140625
0, 3, 62, 283.0481872558594
0, 3, 63, 309.6236877441406
0, 3, 64, 315.3624877929688
0, 3, 65, 304.1923828125
0, 3, 66, 315.7711181640625
0, 3, 67, 318.5976257324219
0, 3, 68, 279.3623352050781
0, 3, 69, 283.4544677734375
0, 3, 70, 288.3216552734375
0, 3, 71, 301.9297180175781
0, 3, 72, 268.9136352539062
0, 3, 73, 310.3303833007812
0, 3, 74, 293.3500671386719
0, 3, 75, 288.7023315429688
0, 3, 76, 305.0243835449219
0, 3, 77, 313.4252014160156
0, 3, 78, 302.7674865722656
0, 3, 79, 282.2245788574219
0, 3, 80, 292.1985473632812
0, 3, 81, 309.1759033203125
0, 3, 82, 314.4454650878906
0, 3, 83, 301.5763549804688
0, 3, 84, 310.183349609375
0, 3, 85, 294.1273803710938
0, 3, 86, 304.0267333984375
0, 3, 87, 298.57373046875
0, 3, 88, 296.8920288085938
0, 3, 89, 294.6881103515625
0, 3, 90, 277.2926635742188
0, 3, 91, 285.7369079589844
0, 3, 92, 305.2842407226562
0, 3, 93, 313.1048583984375
0, 3, 94, 298.4271240234375
0, 3, 95, 335.43798828125
0, 3, 96, 289.4166564941406
0, 3, 97, 284.4017333984375
0, 3, 98, 278.6950073242188
0, 3, 99, 260.7409057617188
0, 3, 100, 282.9143981933594
0, 3, 101, 297.970703125
0, 3, 102, 276.7699584960938
0, 3, 103, 320.8806762695312
0, 3, 104, 308.8439331054688
0, 3, 105, 287.9826049804688
0, 3, 106, 302.0127258300781
0, 3, 107, 283.0772399902344
0, 3, 108, 170.4774475097656
0, 3, 109, 56.1007194519043
0, 3, 110, 19.58357620239258
0, 3, 111, 13.0526123046875
0, 3, 112, 15.74497604370117
0, 3, 113, 8.007194519042969
0, 3, 114, 12.06164264678955
0, 3, 115, 7.848955631256104
0, 3, 116, 6.133605003356934
0, 3, 117, 8.636858940124512
0, 3, 118, 9.723700523376465
0, 3, 119, 6.919812679290771
0, 3, 120, 3.824617862701416
0, 3, 121, 2.078040599822998
0, 3, 122, 5.29068660736084
0, 3, 123, 8.107731819152832
0, 3, 124, 3.348766088485718
0, 3, 125, 4.250000476837158
0, 3, 126, 5.03706693649292
0, 3, 127, 1.693603515625
0, 4, 0, 2.339846134185791
0, 4, 1, 5.616907119750977
0, 4, 2, 2.499475002288818
0, 4, 3, 1.882143020629883
0, 4, 4, 7.018215179443359
0, 4, 5, 8.820671081542969
0, 4, 6, 5.931725025177002
0, 4, 7, 5.604121685028076
0, 4, 8, 3.355039596557617
0, 4, 9, 4.789385795593262
0, 4, 10, 6.498889446258545
0, 4, 11, 5.629158973693848
0, 4, 12, 5.663902759552002
0, 4, 13, 9.146806716918945
0, 4, 14, 11.91104221343994
0, 4, 15, 11.01945304870605
0, 4, 16, 13.11387729644775
0, 4, 17, 18.6007251739502
0, 4, 18, 94.447021484375
0, 4, 19, 223.0264587402344
0, 4, 20, 285.0996398925781
0, 4, 21, 273.0775451660156
0, 4, 22, 305.2159423828125
0, 4, 23, 267.8898010253906
0, 4, 24, 288.8285217285156
0, 4, 25, 273.8316345214844
0, 4, 26, 295.3489379882812
0, 4, 27, 282.1838684082031
0, 4, 28, 307.3793640136719
0, 4, 29, 322.4360961914062
0, 4, 30, 309.5279235839844
0, 4, 31, 306.9286499023438
0, 4, 32, 280.7187805175781
0, 4, 33, 297.9381713867188
0, 4, 34, 296.7227172851562
0, 4, 35, 311.3532409667969
0, 4, 36, 293.8576049804688
0, 4, 37, 288.4439697265625
0, 4, 38, 297.4837646484375
0, 4, 39, 294.8498840332031
0, 4, 40, 303.2854614257812
0, 4, 41, 314.3291015625
0, 4, 42, 331.3147277832031
0, 4, 43, 299.2325439453125
0, 4, 44, 322.4304809570312
0, 4, 45, 322.3022766113281
0, 4, 46, 305.9900207519531
0, 4, 47, 292.1806335449219
0, 4, 48, 295.0090026855469
0, 4, 49, 278.1188659667969
0, 4, 50, 297.3617248535156
0, 4, 51, 316.456298828125
0, 4, 52, 328.5423889160156
0, 4, 53, 303.8235473632812
0, 4, 54, 286.8841857910156
0, 4, 55, 315.1685791015625
0, 4, 56, 284.9463500976562
0, 4, 57, 308.1574401855469
0, 4, 58, 297.4976806640625
0, 4, 59, 309.3661193847656
0, 4, 60, 300.9992370605469
0, 4, 61, 314.9822387695312
0, 4, 62, 309.5582885742188
0, 4, 63, 298.3977966308594
0, 4, 64, 330.2222290039062
0, 4, 65, 315.1195678710938
0, 4, 66, 295.4978637695312
0, 4, 67, 285.0227966308594
0, 4, 68, 311.8291931152344
0, 4, 69, 277.5796203613281
0, 4, 70, 300.7617492675781
0, 4, 71, 321.0360717773438
0, 4, 72, 334.4698181152344
0, 4, 73, 298.8210144042969
0, 4, 74, 294.0829467773438
0, 4, 75, 291.0220336914062
0, 4, 76, 276.3184204101562
0, 4, 77, 277.3970336914062
0, 4, 78, 307.84716796875
0, 4, 79, 317.5197143554688
0, 4, 80, 314.0782470703125
0, 4, 81, 312.1964111328125
0, 4, 82, 298.6133422851562
0, 4, 83, 301.97265625
0, 4, 84, 291.1664733886719
0, 4, 85, 294.8505859375
0, 4, 86, 297.4656677246094
0, 4, 87, 287.6036376953125
0, 4, 88, 307.5486450195312
0, 4, 89, 295.6692810058594
0, 4, 90, 333.7957763671875
0, 4, 91, 299.9871215820312
0, 4, 92, 291.7208862304688
0, 4, 93, 296.7151489257812
0, 4, 94, 293.6959228515625
0, 4, 95, 288.2897338867188
0, 4, 96, 325.5612182617188
0, 4, 97, 274.2803039550781
0, 4, 98, 326.2216491699219
0, 4, 99, 315.6482849121094
0, 4, 100, 299.7964782714844
0, 4, 101, 255.9438018798828
0, 4, 102, 296.9374694824219
0, 4, 103, 318.9076538085938
0, 4, 104, 281.4140625
0, 4, 105, 309.7112426757812
0, 4, 106, 286.899169921875
0, 4, 107, 294.1536865234375
0, 4, 108, 224.0205841064453
0, 4, 109, 80.05984497070312
0, 4, 110, 17.72492790222168
0, 4, 111, 13.97638511657715
0, 4, 112, 8.602838516235352
0, 4, 113, 10.92850017547607
0, 4, 114, 7.902179718017578
0, 4, 115, 10.40307426452637
0, 4, 116, 11.58645725250244
0, 4, 117, 6.268513679504395
0, 4, 118, 12.27021217346191
0, 4, 119, 10.61246871948242
0, 4, 120, 5.896819114685059
0, 4, 121, 4.790053367614746
0, 4, 122, 6.871199131011963
0, 4, 123, 5.864569664001465
0, 4, 124, 6.392402172088623
0, 4, 125, 8.080683708190918
0, 4, 126, 4.040096282958984
0, 4, 127, 4.909464359283447
0, 5, 0, 3.364707708358765
0, 5, 1, 4.516514778137207
0, 5, 2, 3.755173444747925
0, 5, 3, 5.044040203094482
0, 5, 4, 5.240623950958252
0, 5, 5, 5.858603477478027
0, 5, 6, 7.935295104980469
0, 5, 7, 6.300215244293213
0, 5, 8, 4.255029201507568
0, 5, 9, 6.200364112854004
0, 5, 10, 7.591458797454834
0, 5, 11, 8.322985649108887
0, 5, 12, 7.667702198028564
0, 5, 13, 5.29652214050293
0, 5, 14, 13.09726333618164
0, 5, 15, 14.99769496917725
0, 5, 16, 14.86182594299316
0, 5, 17, 27.74203872680664
0, 5, 18, 139.0006866455078
0, 5, 19, 288.0364379882812
0, 5, 20, 306.4711608886719
0, 5, 21, 317.6781311035156
0, 5, 22, 275.7447204589844
0, 5, 23, 311.1569213867188
0, 5, 24, 300.9254150390625
0, 5, 25, 288.7413024902344
0, 5, 26, 294.5624389648438
0, 5, 27, 323.7001342773438
0, 5, 28, 301.4380187988281
0, 5, 29, 297.1250305175781
0, 5, 30, 322.401611328125
0, 5, 31, 287.1036071777344
0, 5, 32, 302.5065307617188
0, 5, 33, 306.2326965332031
0, 5, 34, 296.4256286621094
0, 5, 35, 309.4073181152344
0, 5, 36, 269.7225341796875
0, 5, 37, 282.1288146972656
0, 5, 38, 294.2762756347656
0, 5, 39, 311.8380737304688
0, 5, 40, 308.9229736328125
0, 5, 41, 272.9505615234375
0, 5, 42, 304.46484375
0, 5, 43, 315.6964111328125
0, 5, 44, 293.3345031738281
0, 5, 45, 303.9639587402344
0, 5, 46, 264.7412109375
0, 5, 47, 279.0218505859375
0, 5, 48, 294.4628601074219
0, 5, 49, 287.69482421875
0, 5, 50, 294.1875305175781
0, 5, 51, 278.3564147949219
0, 5, 52, 269.9107055664062
0, 5, 53, 284.5361022949219
0, 5, 54, 291.2156982421875
0, 5, 55, 345.6920166015625
0, 5, 56, 304.689697265625
0, 5, 57, 306.1731262207031
0, 5, 58, 310.40771484375
0, 5, 59, 302.8592224121094
0, 5, 60, 307.9692993164062
0, 5, 61, 280.8706665039062
0, 5, 62, 326.1273193359375
0, 5, 63, 288.1673278808594
0, 5, 64, 321.4872436523438
0, 5, 65, 304.9235534667969
0, 5, 66, 327.2663879394531
0, 5, 67, 312.3684387207031
0, 5, 68, 309.7778930664062
0, 5, 69, 311.3004455566406
0, 5, 70, 299.5130004882812
0, 5, 71, 271.7791442871094
0, 5, 72, 311.2858276367188
0, 5, 73, 300.1506958007812
0, 5, 74, 295.6784057617188
0, 5, 75, 292.8904113769531
0, 5, 76, 288.7223815917969
0, 5, 77, 297.8704833984375
0, 5, 78, 316.7348022460938
0, 5, 79, 307.6012878417969
0, 5, 80, 293.9010314941406
0, 5, 81, 327.7558288574219
0, 5, 82, 322.5300598144531
0, 5, 83, 282.5852355957031
0, 5, 84, 303.5631408691406
0, 5, 85, 269.8213806152344
0, 5, 86, 325.236083984375
0, 5, 87, 284.7807312011719
0, 5, 88, 315.1767578125
0, 5, 89, 304.4148254394531
0, 5, 90, 316.3713989257812
0, 5, 91, 315.7355041503906
0, 5, 92, 295.7267761230469
0, 5, 93, 322.6839599609375
0, 5, 94, 309.2833251953125
0, 5, 95, 298.2911682128906
0, 5, 96, 301.8763427734375
0, 5, 97, 296.5875549316406
0, 5, 98, 319.7826538085938
0, 5, 99, 301.1200561523438
0, 5, 100, 290.0757446289062
0, 5, 101, 307.2573547363281
0, 5, 102, 291.3110656738281
0, 5, 103, 312.9450378417969
0, 5, 104, 303.8503112792969
0, 5, 105, 293.7176208496094
0, 5, 106, 281.1096801757812
0, 5, 107, 294.4483642578125
0, 5, 108, 263.9664001464844
0, 5, 109, 155.7884063720703
0, 5, 110, 40.16728973388672
0, 5, 111, 20.30615997314453
0, 5, 112, 16.65370559692383
0, 5, 113, 13.62770366668701
0, 5, 114, 12.81905651092529
0, 5, 115, 6.900070667266846
0, 5, 116, 8.594108581542969
0, 5, 117, 9.224364280700684
0, 5, 118, 11.18741226196289
0, 5, 119, 4.702746868133545
0, 5, 120, 7.061234474182129
0, 5, 121, 6.498374462127686
0, 5, 122, 5.680377960205078
0, 5, 123, 3.769146919250488
0, 5, 124, 6.955239772796631
0, 5, 125, 3.51321268081665
0, 5, 126, 4.568672180175781
0, 5, 127, 4.207919120788574
0, 6, 0, 4.00410270690918
0, 6, 1, 3.207253217697144
0, 6, 2, 3.822893857955933
0, 6, 3, 7.034641265869141
0, 6, 4, 4.047852516174316
0, 6, 5, 4.962744235992432
0, 6, 6, 7.415836334228516
0, 6, 7, 5.74019193649292
0, 6, 8, 7.733573913574219
0, 6, 9, 6.032957553863525
0, 6, 10, 8.43458080291748
0, 6, 11, 8.265604019165039
0, 6, 12, 9.177696228027344
0, 6, 13, 15.8819408416748
0, 6, 14, 9.011940956115723
0, 6, 15, 15.70181465148926
0, 6, 16, 26.88261222839355
0, 6, 17, 55.93932342529297
0, 6, 18, 172.3639373779297
0, 6, 19, 278.506591796875
0, 6, 20, 291.5278930664062
0, 6, 21, 314.2191162109375
0, 6, 22, 320.5102233886719
0, 6, 23, 304.7120361328125
0, 6, 24, 317.3972473144531
0, 6, 25, 317.002685546875
0, 6, 26, 318.44140625
0, 6, 27, 329.8145446777344
0, 6, 28, 295.7302551269531
0, 6, 29, 329.9981079101562
0, 6, 30, 284.5495910644531
0, 6, 31, 284.7303466796875
0, 6, 32, 339.4194946289062
0, 6, 33, 301.6136779785156
0, 6, 34, 340.8126831054688
0, 6, 35, 320.2359924316406
0, 6, 36, 272.4799194335938
0, 6, 37, 287.9788818359375
0, 6, 38, 309.5884399414062
0, 6, 39, 298.97607421875
0, 6, 40, 286.6171875
0, 6, 41, 295.0374755859375
0, 6, 42, 303.73681640625
0, 6, 43, 286.8992614746094
0, 6, 44, 280.3526611328125
0, 6, 45, 321.9378356933594
0, 6, 46, 303.3402709960938
0, 6, 47, 333.3814392089844
0, 6, 48, 294.8212280273438
0, 6, 49, 314.3262634277344
0, 6, 50, 329.1964416503906
0, 6, 51, 310.0511779785156
0, 6, 52, 320.9703063964844
0, 6, 53, 328.9419860839844
0, 6, 54, 300.99853515625
0, 6, 55, 305.0938720703125
0, 6, 56, 293.3558349609375
0, 6, 57, 314.4346618652344
0, 6, 58, 262.5748291015625
0, 6, 59, 301.8377075195312
0, 6, 60, 313.2392883300781
0, 6, 61, 269.6902160644531
0, 6, 62, 336.171875
0, 6, 63, 324.6511840820312
0, 6, 64, 290.36669921875
0, 6, 65, 284.8243408203125
0, 6, 66, 305.7034606933594
0, 6, 67, 309.010986328125
0, 6, 68, 292.4690856933594
0, 6, 69, 277.57861328125
0, 6, 70, 273.5213012695312
0, 6, 71, 290.5496520996094
0, 6, 72, 310.8074645996094
0, 6, 73, 296.4889221191406
0, 6, 74, 330.2087707519531
0, 6, 75, 341.8394470214844
0, 6, 76, 296.5863342285156
0, 6, 77, 286.3515930175781
0, 6, 78, 278.5614624023438
0, 6, 79, 293.2247619628906
0, 6, 80, 300.7374877929688
0, 6, 81, 313.8152465820312
0, 6, 82, 321.2757568359375
0, 6, 83, 317.9880676269531
0, 6, 84, 295.9789428710938
0, 6, 85, 300.7935180664062
0, 6, 86, 329.6368103027344
0, 6, 87, 292.7259826660156
0, 6, 88, 306.4863586425781
0, 6, 89, 302.8821411132812
0, 6, 90, 298.2239990234375
0, 6, 91, 312.1995239257812
0, 6, 92, 284.1665649414062
0, 6, 93, 294.4049987792969
0, 6, 94, 272.3478698730469
0, 6, 95, 300.4816589355469
0, 6, 96, 345.4272766113281
0, 6, 97, 308.4037475585938
0, 6, 98, 302.7095031738281
0, 6, 99, 272.6903076171875
0, 6, 100, 307.9239501953125
0, 6, 101, 293.5750122070312
0, 6, 102, 306.1545715332031
0, 6, 103, 306.6953125
0, 6, 104, 290.0831909179688
0, 6, 105, 300.7489318847656
0, 6, 106, 311.4603271484375
0, 6, 107, 304.3906860351562
0, 6, 108, 264.9723815917969
0, 6, 109, 187.3966217041016
0, 6, 110, 55.73646926879883
0, 6, 111, 20.45976829528809
0, 6, 112, 14.58459758758545
0, 6, 113, 10.42941665649414
0, 6, 114, 12.253493309021
0, 6, 115, 12.40389060974121
0, 6, 116, 10.82640838623047
0, 6, 117, 7.690793991088867
0, 6, 118, 10.32005596160889
0, 6, 119, 7.901230335235596
0, 6, 120, 6.131605625152588
0, 6, 121, 5.546684265136719
0, 6, 122, 6.470252513885498
0, 6, 123, 4.224521160125732
0, 6, 124, 7.843133449554443
0, 6, 125, 7.181085586547852
0, 6, 126, 3.487512350082397
0, 6, 127, 6.018839359283447
0, 7, 0, 7.660351276397705
0, 7, 1, 3.352057933807373
0, 7, 2, 5.490317821502686
0, 7, 3, 3.933221578598022
0, 7, 4, 4.712172985076904
0, 7, 5, 5.933221340179443
0, 7, 6, 5.31370735168457
0, 7, 7, 7.796740055084229
0, 7, 8, 8.455509185791016
0, 7, 9, 5.407394409179688
0, 7, 10, 7.130402088165283
0, 7, 11, 12.08765602111816
0, 7, 12, 9.892937660217285
0, 7, 13, 10.03952121734619
0, 7, 14, 10.35891723632812
0, 7, 15, 16.11452102661133
0, 7, 16, 26.87448310852051
0, 7, 17, 96.76110076904297
0, 7, 18, 217.5597076416016
0, 7, 19, 288.6973571777344
0, 7, 20, 298.3208312988281
0, 7, 21, 275.8963623046875
0, 7, 22, 300.4337158203125
0, 7, 23, 289.4573059082031
0, 7, 24, 315.2429504394531
0, 7, 25, 324.8429870605469
0, 7, 26, 277.8833618164062
0, 7, 27, 297.3235168457031
0, 7, 28, 325.9987487792969
0, 7, 29, 317.7351989746094
0, 7, 30, 301.1236877441406
0, 7, 31, 277.6841735839844
0, 7, 32, 304.2506713867188
0, 7, 33, 263.4037170410156
0, 7, 34, 299.1185302734375
0, 7, 35, 321.7015991210938
0, 7, 36, 329.4018249511719
0, 7, 37, 327.3931274414062
0, 7, 38, 297.5003662109375
0, 7, 39, 307.5051574707031
0, 7, 40, 288.2806396484375
0, 7, 41, 271.9824523925781
0, 7, 42, 303.8626403808594
0, 7, 43, 274.0702514648438
0, 7, 44, 304.0555419921875
0, 7, 45, 293.7933044433594
0, 7, 46, 279.4706726074219
0, 7, 47, 327.2122192382812
0, 7, 48, 284.3306274414062
0, 7, 49, 303.7332153320312
0, 7, 50, 321.1795043945312
0, 7, 51, 298.9444580078125
0, 7, 52, 326.224365234375
0, 7, 53, 310.2676391601562
0, 7, 54, 323.7499694824219
0, 7, 55, 307.7459106445312
0, 7, 56, 279.2254638671875
0, 7, 57, 280.8500061035156
0, 7, 58, 296.37060546875
0, 7, 59, 296.4219360351562
0, 7, 60, 322.24853515625
0, 7, 61, 278.5636291503906
0, 7, 62, 299.3705444335938
0, 7, 63, 293.7597351074219
0, 7, 64, 307.8820495605469
0, 7, 65, 330.181884765625
0, 7, 66, 317.4940490722656
0, 7, 67, 301.7948608398438
0, 7, 68, 280.3147277832031
0, 7, 69, 293.6888427734375
0, 7, 70, 300.3061218261719
0, 7, 71, 309.6970520019531
0, 7, 72, 284.7595825195312
0, 7, 73, 297.0763549804688
0, 7, 74, 345.1502990722656
0, 7, 75, 320.761474609375
0, 7, 76, 323.9848022460938
0, 7, 77, 281.1923522949219
0, 7, 78, 300.7370300292969
0, 7, 79, 298.4385375976562
0, 7, 80, 312.7643127441406
0, 7, 81, 320.68212890625
0, 7, 82, 330.8843688964844
0, 7, 83, 318.0435791015625
0, 7, 84, 310.3463745117188
0, 7, 85, 272.3822021484375
0, 7, 86, 311.1287231445312
0, 7, 87, 310.7728576660156
0, 7, 88, 307.0036315917969
0, 7, 89, 293.1802673339844
0, 7, 90, 305.0372009277344
0, 7, 91, 316.4680786132812
0, 7, 92, 287.4685363769531
0, 7, 93, 307.1415405273438
0, 7, 94, 275.9407958984375
0, 7, 95, 295.0233459472656
0, 7, 96, 331.3401489257812
0, 7, 97, 294.0684204101562
0, 7, 98, 290.8811645507812
0, 7, 99, 314.8487243652344
0, 7, 100, 281.5295104980469
0, 7, 101, 276.3715209960938
0, 7, 102, 289.7488708496094
0, 7, 103, 292.9417419433594
0, 7, 104, 275.2628784179688
0, 7, 105, 306.9998779296875
0, 7, 106, 317.0724182128906
0, 7, 107, 295.6823425292969
0, 7, 108, 274.2301940917969
0, 7, 109, 235.7640533447266
0, 7, 110, 96.41097259521484
0, 7, 111, 24.1104736328125
0, 7, 112, 13.61967945098877
0, 7, 113, 14.59134101867676
0, 7, 114, 13.1082239151001
0, 7, 115, 11.06723594665527
0, 7, 116, 11.27283382415771
0, 7, 117, 6.25103759765625
0, 7, 118, 8.903397560119629
0, 7, 119, 4.942232131958008
0, 7, 120, 4.777770042419434
0, 7, 121, 7.850693702697754
0, 7, 122, 7.537235260009766
0, 7, 123, 5.463438510894775
0, 7, 124, 3.736970663070679
0, 7, 125, 7.282898902893066
0, 7, 126, 8.921886444091797
0, 7, 127, 5.637923240661621
0, 8, 0, 5.534144878387451
0, 8, 1, 2.766533851623535
0, 8, 2, 3.178961515426636
0, 8, 3, 4.599343299865723
0, 8, 4, 3.530471324920654
0, 8, 5, 5.480412483215332
0, 8, 6, 5.916823863983154
0, 8, 7, 6.705102920532227
0, 8, 8, 10.03475284576416
0, 8, 9, 4.641119956970215
0, 8, 10, 6.850321769714355
0, 8, 11, 11.76470279693604
0, 8, 12, 14.34492683410645
0, 8, 13, 16.59762191772461
0, 8, 14, 12.96697044372559
0, 8, 15, 19.70898628234863
0, 8, 16, 32.34919738769531
0, 8, 17, 130.6952209472656
0, 8, 18, 243.2126159667969
0, 8, 19, 293.2091064453125
0, 8, 20, 283.8765258789062
0, 8, 21, 305.9274597167969
0, 8, 22, 295.8617858886719
0, 8, 23, 276.2158203125
0, 8, 24, 267.2940979003906
0, 8, 25, 274.8994140625
0, 8, 26, 306.7693786621094
0, 8, 27, 307.6595153808594
0, 8, 28, 306.6457824707031
0, 8, 29, 320.5501708984375
0, 8, 30, 315.0652770996094
0, 8, 31, 305.0321960449219
0, 8, 32, 281.6358032226562
0, 8, 33, 295.3098449707031
0, 8, 34, 287.9313354492188
0, 8, 35, 279.8470764160156
0, 8, 36, 314.7637634277344
0, 8, 37, 339.6951904296875
0, 8, 38, 330.5846557617188
0, 8, 39, 279.2240905761719
