# TOPAS Version: 3.1.p3
# Parameter File: batch_inserts_328.txt
# Results for scorer Readout_Adipose
# Scored in component: MyBox
# X in 1 bin  of 0.75 cm
# Y in 512 bins of 0.0783984 cm
# Z in 128 bins of 0.078125 cm
# EnergyDeposit ( MeV ) : Sum   
0, 0, 0, 3.019414901733398
0, 0, 1, 1.431467771530151
0, 0, 2, 3.61249566078186
0, 0, 3, 1.841385722160339
0, 0, 4, 3.114938974380493
0, 0, 5, 3.080648422241211
0, 0, 6, 6.448295116424561
0, 0, 7, 8.846743583679199
0, 0, 8, 4.041645526885986
0, 0, 9, 6.587430000305176
0, 0, 10, 7.581135272979736
0, 0, 11, 4.319856643676758
0, 0, 12, 4.410122871398926
0, 0, 13, 5.14177131652832
0, 0, 14, 9.212164878845215
0, 0, 15, 10.64931583404541
0, 0, 16, 9.601273536682129
0, 0, 17, 8.837080001831055
0, 0, 18, 13.05909061431885
0, 0, 19, 43.76424026489258
0, 0, 20, 137.8114471435547
0, 0, 21, 222.6342163085938
0, 0, 22, 251.0662231445312
0, 0, 23, 259.6683044433594
0, 0, 24, 250.7596893310547
0, 0, 25, 258.4281311035156
0, 0, 26, 236.2090911865234
0, 0, 27, 237.0470886230469
0, 0, 28, 271.8515319824219
0, 0, 29, 251.5584411621094
0, 0, 30, 231.9052429199219
0, 0, 31, 243.215087890625
0, 0, 32, 264.8671875
0, 0, 33, 259.3058471679688
0, 0, 34, 288.3913269042969
0, 0, 35, 267.4415588378906
0, 0, 36, 246.6045074462891
0, 0, 37, 253.5610198974609
0, 0, 38, 268.794677734375
0, 0, 39, 229.9947509765625
0, 0, 40, 241.4223785400391
0, 0, 41, 266.7695617675781
0, 0, 42, 229.9290313720703
0, 0, 43, 258.8748474121094
0, 0, 44, 252.2883911132812
0, 0, 45, 253.2280883789062
0, 0, 46, 244.4830322265625
0, 0, 47, 252.6623382568359
0, 0, 48, 269.1125183105469
0, 0, 49, 275.7741088867188
0, 0, 50, 251.5297698974609
0, 0, 51, 254.1010589599609
0, 0, 52, 272.3018188476562
0, 0, 53, 292.1344604492188
0, 0, 54, 245.8662567138672
0, 0, 55, 241.3936614990234
0, 0, 56, 276.6838684082031
0, 0, 57, 262.6897888183594
0, 0, 58, 245.5348052978516
0, 0, 59, 270.7762756347656
0, 0, 60, 236.0508880615234
0, 0, 61, 245.9638977050781
0, 0, 62, 256.9991455078125
0, 0, 63, 265.5396423339844
0, 0, 64, 256.0558776855469
0, 0, 65, 261.7908630371094
0, 0, 66, 276.9255676269531
0, 0, 67, 246.9253692626953
0, 0, 68, 257.8843383789062
0, 0, 69, 264.0063171386719
0, 0, 70, 271.9894409179688
0, 0, 71, 237.5982360839844
0, 0, 72, 249.7098236083984
0, 0, 73, 257.1311950683594
0, 0, 74, 251.4965972900391
0, 0, 75, 239.0779571533203
0, 0, 76, 228.3384094238281
0, 0, 77, 260.8994750976562
0, 0, 78, 257.4552612304688
0, 0, 79, 278.4899597167969
0, 0, 80, 215.9098205566406
0, 0, 81, 268.57958984375
0, 0, 82, 258.0973815917969
0, 0, 83, 245.6757659912109
0, 0, 84, 269.6094055175781
0, 0, 85, 231.0091400146484
0, 0, 86, 252.48583984375
0, 0, 87, 250.7038116455078
0, 0, 88, 262.1793518066406
0, 0, 89, 283.830078125
0, 0, 90, 243.8938140869141
0, 0, 91, 280.1431579589844
0, 0, 92, 254.9457397460938
0, 0, 93, 249.4258728027344
0, 0, 94, 249.6088409423828
0, 0, 95, 248.1487426757812
0, 0, 96, 275.857666015625
0, 0, 97, 271.7492980957031
0, 0, 98, 272.449951171875
0, 0, 99, 258.5408630371094
0, 0, 100, 259.7938232421875
0, 0, 101, 225.6965179443359
0, 0, 102, 230.6982879638672
0, 0, 103, 270.4017028808594
0, 0, 104, 254.0401916503906
0, 0, 105, 250.7089691162109
0, 0, 106, 245.0044708251953
0, 0, 107, 151.8009185791016
0, 0, 108, 39.43896484375
0, 0, 109, 12.25236511230469
0, 0, 110, 12.39400959014893
0, 0, 111, 10.92652702331543
0, 0, 112, 8.155659675598145
0, 0, 113, 4.600086212158203
0, 0, 114, 6.462211608886719
0, 0, 115, 4.890967845916748
0, 0, 116, 6.078862190246582
0, 0, 117, 6.615452289581299
0, 0, 118, 6.785192489624023
0, 0, 119, 4.266621589660645
0, 0, 120, 3.756545782089233
0, 0, 121, 3.687380075454712
0, 0, 122, 5.343567848205566
0, 0, 123, 3.922105550765991
0, 0, 124, 5.929628849029541
0, 0, 125, 1.06217360496521
0, 0, 126, 3.939108848571777
0, 0, 127, 4.482930183410645
0, 1, 0, 6.530060768127441
0, 1, 1, 4.360786914825439
0, 1, 2, 3.033935785293579
0, 1, 3, 2.621085643768311
0, 1, 4, 4.038033485412598
0, 1, 5, 3.094395875930786
0, 1, 6, 3.395581483840942
0, 1, 7, 4.040322303771973
0, 1, 8, 5.71035623550415
0, 1, 9, 2.953242778778076
0, 1, 10, 6.94422721862793
0, 1, 11, 10.83376884460449
0, 1, 12, 9.033272743225098
0, 1, 13, 10.84419727325439
0, 1, 14, 8.525847434997559
0, 1, 15, 7.300216197967529
0, 1, 16, 10.99000644683838
0, 1, 17, 10.87821197509766
0, 1, 18, 22.56480979919434
0, 1, 19, 66.62741088867188
0, 1, 20, 199.8038940429688
0, 1, 21, 255.7352447509766
0, 1, 22, 295.6338195800781
0, 1, 23, 283.3107604980469
0, 1, 24, 275.980224609375
0, 1, 25, 289.9340209960938
0, 1, 26, 268.2161254882812
0, 1, 27, 305.9699401855469
0, 1, 28, 301.3860168457031
0, 1, 29, 296.8900756835938
0, 1, 30, 282.1925659179688
0, 1, 31, 292.8741760253906
0, 1, 32, 291.462890625
0, 1, 33, 295.2559814453125
0, 1, 34, 293.1441650390625
0, 1, 35, 280.5582275390625
0, 1, 36, 306.2446899414062
0, 1, 37, 297.2483215332031
0, 1, 38, 278.2450256347656
0, 1, 39, 295.7554016113281
0, 1, 40, 268.2628784179688
0, 1, 41, 285.4534912109375
0, 1, 42, 291.4124755859375
0, 1, 43, 335.2717590332031
0, 1, 44, 276.8681030273438
0, 1, 45, 292.3525085449219
0, 1, 46, 260.5935974121094
0, 1, 47, 312.6624755859375
0, 1, 48, 284.8151245117188
0, 1, 49, 301.6513366699219
0, 1, 50, 263.9520263671875
0, 1, 51, 270.9298095703125
0, 1, 52, 295.0056762695312
0, 1, 53, 306.9994201660156
0, 1, 54, 276.0851745605469
0, 1, 55, 293.1028747558594
0, 1, 56, 276.6062927246094
0, 1, 57, 297.3424682617188
0, 1, 58, 308.8713073730469
0, 1, 59, 293.0260925292969
0, 1, 60, 297.8148803710938
0, 1, 61, 277.9226684570312
0, 1, 62, 305.8318176269531
0, 1, 63, 288.8903503417969
0, 1, 64, 288.1494140625
0, 1, 65, 296.5522766113281
0, 1, 66, 293.0828857421875
0, 1, 67, 291.1319274902344
0, 1, 68, 277.1184692382812
0, 1, 69, 278.591064453125
0, 1, 70, 271.1518859863281
0, 1, 71, 273.7706298828125
0, 1, 72, 286.7266235351562
0, 1, 73, 303.9827270507812
0, 1, 74, 304.4604187011719
0, 1, 75, 292.3879089355469
0, 1, 76, 283.8979187011719
0, 1, 77, 289.0633239746094
0, 1, 78, 298.0386657714844
0, 1, 79, 303.5971984863281
0, 1, 80, 295.0423278808594
0, 1, 81, 301.4420776367188
0, 1, 82, 284.311279296875
0, 1, 83, 331.4341430664062
0, 1, 84, 309.7891235351562
0, 1, 85, 254.8890075683594
0, 1, 86, 295.764892578125
0, 1, 87, 289.8056030273438
0, 1, 88, 298.1556396484375
0, 1, 89, 288.3751220703125
0, 1, 90, 270.669189453125
0, 1, 91, 316.2254028320312
0, 1, 92, 290.1131896972656
0, 1, 93, 287.9190368652344
0, 1, 94, 302.8863830566406
0, 1, 95, 283.6753845214844
0, 1, 96, 286.6439514160156
0, 1, 97, 301.088134765625
0, 1, 98, 276.6781005859375
0, 1, 99, 265.3601684570312
0, 1, 100, 276.6261901855469
0, 1, 101, 282.2078857421875
0, 1, 102, 277.2349243164062
0, 1, 103, 280.9821166992188
0, 1, 104, 309.006103515625
0, 1, 105, 296.76318359375
0, 1, 106, 262.4671020507812
0, 1, 107, 193.5904846191406
0, 1, 108, 81.99152374267578
0, 1, 109, 22.44465065002441
0, 1, 110, 10.94489288330078
0, 1, 111, 7.719942092895508
0, 1, 112, 13.18207454681396
0, 1, 113, 4.678853988647461
0, 1, 114, 5.74493408203125
0, 1, 115, 7.189507007598877
0, 1, 116, 12.85673809051514
0, 1, 117, 7.135261058807373
0, 1, 118, 4.321249008178711
0, 1, 119, 9.435728073120117
0, 1, 120, 5.858263492584229
0, 1, 121, 4.567508697509766
0, 1, 122, 3.673231363296509
0, 1, 123, 4.779922962188721
0, 1, 124, 7.862903594970703
0, 1, 125, 5.283430099487305
0, 1, 126, 2.472847938537598
0, 1, 127, 0.6360751986503601
0, 2, 0, 5.412088871002197
0, 2, 1, 2.010739088058472
0, 2, 2, 3.226109504699707
0, 2, 3, 4.736506938934326
0, 2, 4, 3.116161823272705
0, 2, 5, 2.327289581298828
0, 2, 6, 1.738542556762695
0, 2, 7, 3.826361417770386
0, 2, 8, 4.641739845275879
0, 2, 9, 5.250537872314453
0, 2, 10, 7.238456249237061
0, 2, 11, 5.202324867248535
0, 2, 12, 6.033441543579102
0, 2, 13, 10.60214900970459
0, 2, 14, 9.720885276794434
0, 2, 15, 6.981452465057373
0, 2, 16, 10.93719291687012
0, 2, 17, 17.77941513061523
0, 2, 18, 29.80005264282227
0, 2, 19, 116.8137283325195
0, 2, 20, 248.4672393798828
0, 2, 21, 272.4435729980469
0, 2, 22, 316.46533203125
0, 2, 23, 301.144775390625
0, 2, 24, 287.4513854980469
0, 2, 25, 302.9917602539062
0, 2, 26, 294.9231567382812
0, 2, 27, 275.1687622070312
0, 2, 28, 271.2717895507812
0, 2, 29, 273.5258483886719
0, 2, 30, 291.7721557617188
0, 2, 31, 277.9418029785156
0, 2, 32, 294.8284301757812
0, 2, 33, 284.3198852539062
0, 2, 34, 334.8818359375
0, 2, 35, 288.722412109375
0, 2, 36, 304.6842041015625
0, 2, 37, 317.1131591796875
0, 2, 38, 309.7903442382812
0, 2, 39, 264.9218139648438
0, 2, 40, 307.4201965332031
0, 2, 41, 292.8140869140625
0, 2, 42, 302.6549072265625
0, 2, 43, 311.9379577636719
0, 2, 44, 310.163330078125
0, 2, 45, 324.3139953613281
0, 2, 46, 286.6005249023438
0, 2, 47, 302.4935607910156
0, 2, 48, 280.1729431152344
0, 2, 49, 278.4027099609375
0, 2, 50, 292.8382873535156
0, 2, 51, 283.5660400390625
0, 2, 52, 271.3633422851562
0, 2, 53, 289.1333312988281
0, 2, 54, 279.4395446777344
0, 2, 55, 274.3635864257812
0, 2, 56, 301.760009765625
0, 2, 57, 291.4586486816406
0, 2, 58, 301.856689453125
0, 2, 59, 289.3779907226562
0, 2, 60, 320.1588439941406
0, 2, 61, 302.90625
0, 2, 62, 315.7932434082031
0, 2, 63, 302.1568908691406
0, 2, 64, 295.9084167480469
0, 2, 65, 313.1212158203125
0, 2, 66, 279.1376342773438
0, 2, 67, 290.2343444824219
0, 2, 68, 295.86328125
0, 2, 69, 312.4962158203125
0, 2, 70, 334.7044677734375
0, 2, 71, 285.0370483398438
0, 2, 72, 300.9122924804688
0, 2, 73, 311.4542236328125
0, 2, 74, 285.1213073730469
0, 2, 75, 302.7563781738281
0, 2, 76, 287.0684204101562
0, 2, 77, 298.2514343261719
0, 2, 78, 314.1549987792969
0, 2, 79, 308.8317565917969
0, 2, 80, 298.725830078125
0, 2, 81, 283.045166015625
0, 2, 82, 319.1539916992188
0, 2, 83, 314.0072631835938
0, 2, 84, 288.5452575683594
0, 2, 85, 282.595703125
0, 2, 86, 323.5017395019531
0, 2, 87, 287.3367309570312
0, 2, 88, 281.141845703125
0, 2, 89, 295.3018188476562
0, 2, 90, 294.9000854492188
0, 2, 91, 277.6446533203125
0, 2, 92, 306.88671875
0, 2, 93, 316.9900207519531
0, 2, 94, 290.366455078125
0, 2, 95, 314.4755554199219
0, 2, 96, 315.6178588867188
0, 2, 97, 291.8013305664062
0, 2, 98, 293.7267150878906
0, 2, 99, 274.2503967285156
0, 2, 100, 306.0771789550781
0, 2, 101, 300.8897094726562
0, 2, 102, 296.0604248046875
0, 2, 103, 292.4761962890625
0, 2, 104, 294.3759765625
0, 2, 105, 274.7182006835938
0, 2, 106, 296.4152526855469
0, 2, 107, 272.5349426269531
0, 2, 108, 116.8260269165039
0, 2, 109, 31.15296363830566
0, 2, 110, 9.614910125732422
0, 2, 111, 11.85970783233643
0, 2, 112, 7.928827285766602
0, 2, 113, 11.1450719833374
0, 2, 114, 8.973722457885742
0, 2, 115, 9.491578102111816
0, 2, 116, 7.514469623565674
0, 2, 117, 7.080264568328857
0, 2, 118, 4.573520660400391
0, 2, 119, 4.423708915710449
0, 2, 120, 4.63985013961792
0, 2, 121, 2.310799837112427
0, 2, 122, 5.502027988433838
0, 2, 123, 4.775007247924805
0, 2, 124, 2.667149543762207
0, 2, 125, 6.022269248962402
0, 2, 126, 2.745043992996216
0, 2, 127, 5.904454231262207
0, 3, 0, 3.102716684341431
0, 3, 1, 2.948281526565552
0, 3, 2, 3.91618537902832
0, 3, 3, 4.193457126617432
0, 3, 4, 4.304173946380615
0, 3, 5, 7.210697174072266
0, 3, 6, 6.363899707794189
0, 3, 7, 4.303818225860596
0, 3, 8, 9.203170776367188
0, 3, 9, 6.647472381591797
0, 3, 10, 8.36967658996582
0, 3, 11, 4.851433753967285
0, 3, 12, 6.603606700897217
0, 3, 13, 14.98556137084961
0, 3, 14, 13.10455513000488
0, 3, 15, 13.63397312164307
0, 3, 16, 11.42045116424561
0, 3, 17, 19.88666152954102
0, 3, 18, 51.65519332885742
0, 3, 19, 176.5061187744141
0, 3, 20, 270.51171875
0, 3, 21, 271.0831909179688
0, 3, 22, 282.6375122070312
0, 3, 23, 287.1094360351562
0, 3, 24, 288.0940246582031
0, 3, 25, 270.6513061523438
0, 3, 26, 303.9257507324219
0, 3, 27, 291.2180786132812
0, 3, 28, 283.7530822753906
0, 3, 29, 337.6726989746094
0, 3, 30, 317.0321655273438
0, 3, 31, 286.2147216796875
0, 3, 32, 305.5391235351562
0, 3, 33, 313.7155151367188
0, 3, 34, 322.0918579101562
0, 3, 35, 307.0823669433594
0, 3, 36, 269.6092529296875
0, 3, 37, 312.9583435058594
0, 3, 38, 304.1684265136719
0, 3, 39, 290.2024230957031
0, 3, 40, 267.3196716308594
0, 3, 41, 298.48681640625
0, 3, 42, 284.4338989257812
0, 3, 43, 305.2244873046875
0, 3, 44, 310.0519104003906
0, 3, 45, 289.6865234375
0, 3, 46, 328.583984375
0, 3, 47, 299.5630187988281
0, 3, 48, 304.5090637207031
0, 3, 49, 275.8600769042969
0, 3, 50, 289.4340209960938
0, 3, 51, 275.8471069335938
0, 3, 52, 316.3829040527344
0, 3, 53, 287.1890869140625
0, 3, 54, 284.8790893554688
0, 3, 55, 284.3287353515625
0, 3, 56, 297.9886474609375
0, 3, 57, 287.6161499023438
0, 3, 58, 308.5619201660156
0, 3, 59, 296.9307861328125
0, 3, 60, 300.7993774414062
0, 3, 61, 263.5238037109375
0, 3, 62, 284.6406555175781
0, 3, 63, 306.7438659667969
0, 3, 64, 316.1293640136719
0, 3, 65, 309.0009765625
0, 3, 66, 313.8802185058594
0, 3, 67, 318.8469848632812
0, 3, 68, 279.9563903808594
0, 3, 69, 284.6149291992188
0, 3, 70, 286.5776977539062
0, 3, 71, 298.7899475097656
0, 3, 72, 272.1112670898438
0, 3, 73, 309.2038269042969
0, 3, 74, 292.8057556152344
0, 3, 75, 289.9657897949219
0, 3, 76, 307.1834716796875
0, 3, 77, 313.1691589355469
0, 3, 78, 305.7101135253906
0, 3, 79, 282.7494506835938
0, 3, 80, 289.9666442871094
0, 3, 81, 310.0638732910156
0, 3, 82, 315.0663146972656
0, 3, 83, 300.6041870117188
0, 3, 84, 311.3926696777344
0, 3, 85, 292.8058776855469
0, 3, 86, 303.7459411621094
0, 3, 87, 298.7958679199219
0, 3, 88, 299.3355102539062
0, 3, 89, 297.706298828125
0, 3, 90, 276.0727233886719
0, 3, 91, 285.1268310546875
0, 3, 92, 304.1196594238281
0, 3, 93, 311.6323852539062
0, 3, 94, 298.8356628417969
0, 3, 95, 335.1700439453125
0, 3, 96, 289.3035583496094
0, 3, 97, 283.8608093261719
0, 3, 98, 279.1913757324219
0, 3, 99, 262.4335021972656
0, 3, 100, 285.3616027832031
0, 3, 101, 297.5577087402344
0, 3, 102, 274.8147888183594
0, 3, 103, 318.5195922851562
0, 3, 104, 308.5309143066406
0, 3, 105, 287.1678466796875
0, 3, 106, 303.6053466796875
0, 3, 107, 280.4282531738281
0, 3, 108, 171.4085388183594
0, 3, 109, 57.73678207397461
0, 3, 110, 17.94943237304688
0, 3, 111, 13.78853702545166
0, 3, 112, 11.47829818725586
0, 3, 113, 7.926958560943604
0, 3, 114, 10.12664985656738
0, 3, 115, 7.911004066467285
0, 3, 116, 5.38698673248291
0, 3, 117, 6.993806838989258
0, 3, 118, 5.615948677062988
0, 3, 119, 9.210911750793457
0, 3, 120, 3.445772409439087
0, 3, 121, 2.857496976852417
0, 3, 122, 5.170192718505859
0, 3, 123, 4.746512889862061
0, 3, 124, 2.584098815917969
0, 3, 125, 4.147946357727051
0, 3, 126, 5.722508907318115
0, 3, 127, 2.040719509124756
0, 4, 0, 3.622483730316162
0, 4, 1, 5.167174339294434
0, 4, 2, 2.597038507461548
0, 4, 3, 1.806765198707581
0, 4, 4, 5.039655208587646
0, 4, 5, 7.957003116607666
0, 4, 6, 7.386762619018555
0, 4, 7, 5.905596256256104
0, 4, 8, 5.547414779663086
0, 4, 9, 5.895984172821045
0, 4, 10, 5.323041439056396
0, 4, 11, 6.007756233215332
0, 4, 12, 7.997535705566406
0, 4, 13, 9.181132316589355
0, 4, 14, 11.42908763885498
0, 4, 15, 9.91634464263916
0, 4, 16, 13.14422607421875
0, 4, 17, 19.75447463989258
0, 4, 18, 92.09087371826172
0, 4, 19, 221.7654418945312
0, 4, 20, 285.9311218261719
0, 4, 21, 272.7332153320312
0, 4, 22, 303.5632019042969
0, 4, 23, 267.1646423339844
0, 4, 24, 289.685302734375
0, 4, 25, 271.7083740234375
0, 4, 26, 294.6763916015625
0, 4, 27, 283.4324340820312
0, 4, 28, 306.8895568847656
0, 4, 29, 322.83203125
0, 4, 30, 309.3636474609375
0, 4, 31, 303.1200561523438
0, 4, 32, 280.6156311035156
0, 4, 33, 297.229248046875
0, 4, 34, 295.7818603515625
0, 4, 35, 312.4143981933594
0, 4, 36, 294.4945983886719
0, 4, 37, 287.963623046875
0, 4, 38, 296.5604248046875
0, 4, 39, 296.387939453125
0, 4, 40, 301.9056701660156
0, 4, 41, 312.5889282226562
0, 4, 42, 331.65625
0, 4, 43, 294.9662780761719
0, 4, 44, 321.498291015625
0, 4, 45, 326.0509643554688
0, 4, 46, 307.6674194335938
0, 4, 47, 293.1645812988281
0, 4, 48, 294.3391418457031
0, 4, 49, 277.3172912597656
0, 4, 50, 296.5142822265625
0, 4, 51, 318.2305908203125
0, 4, 52, 326.89697265625
0, 4, 53, 302.9183654785156
0, 4, 54, 288.0199584960938
0, 4, 55, 314.9784240722656
0, 4, 56, 286.6836242675781
0, 4, 57, 309.6301574707031
0, 4, 58, 295.3682556152344
0, 4, 59, 310.7055358886719
0, 4, 60, 304.2194519042969
0, 4, 61, 315.3377990722656
0, 4, 62, 307.3013000488281
0, 4, 63, 300.1694641113281
0, 4, 64, 329.9640197753906
0, 4, 65, 314.4277648925781
0, 4, 66, 295.4363098144531
0, 4, 67, 284.294677734375
0, 4, 68, 312.0848083496094
0, 4, 69, 274.6212463378906
0, 4, 70, 299.1149291992188
0, 4, 71, 321.5697937011719
0, 4, 72, 331.2875671386719
0, 4, 73, 297.6389770507812
0, 4, 74, 292.374755859375
0, 4, 75, 291.4146728515625
0, 4, 76, 275.3235473632812
0, 4, 77, 277.1770935058594
0, 4, 78, 310.020751953125
0, 4, 79, 318.9599609375
0, 4, 80, 315.970947265625
0, 4, 81, 312.7850646972656
0, 4, 82, 298.2696533203125
0, 4, 83, 301.8923950195312
0, 4, 84, 291.9351501464844
0, 4, 85, 294.5845642089844
0, 4, 86, 298.2486267089844
0, 4, 87, 286.8118896484375
0, 4, 88, 305.7122192382812
0, 4, 89, 296.4610290527344
0, 4, 90, 333.7838134765625
0, 4, 91, 300.5934448242188
0, 4, 92, 288.520751953125
0, 4, 93, 297.3833923339844
0, 4, 94, 293.2259826660156
0, 4, 95, 290.1435241699219
0, 4, 96, 323.6690368652344
0, 4, 97, 273.1789855957031
0, 4, 98, 326.35595703125
0, 4, 99, 312.8040466308594
0, 4, 100, 302.512939453125
0, 4, 101, 258.1322631835938
0, 4, 102, 297.7959289550781
0, 4, 103, 318.1597900390625
0, 4, 104, 280.5157165527344
0, 4, 105, 310.0551147460938
0, 4, 106, 286.0663146972656
0, 4, 107, 297.2593994140625
0, 4, 108, 226.4280090332031
0, 4, 109, 79.80235290527344
0, 4, 110, 16.51677131652832
0, 4, 111, 13.4125452041626
0, 4, 112, 9.415915489196777
0, 4, 113, 10.32541656494141
0, 4, 114, 7.959699153900146
0, 4, 115, 10.12309074401855
0, 4, 116, 11.08357906341553
0, 4, 117, 6.707271575927734
0, 4, 118, 10.42198085784912
0, 4, 119, 10.55944061279297
0, 4, 120, 8.103934288024902
0, 4, 121, 5.874147891998291
0, 4, 122, 5.956225872039795
0, 4, 123, 7.445291996002197
0, 4, 124, 7.490447998046875
0, 4, 125, 8.115267753601074
0, 4, 126, 4.290854930877686
0, 4, 127, 3.062124490737915
0, 5, 0, 6.310718536376953
0, 5, 1, 3.148905515670776
0, 5, 2, 4.277048587799072
0, 5, 3, 4.976276397705078
0, 5, 4, 4.959992408752441
0, 5, 5, 7.169256687164307
0, 5, 6, 5.842000484466553
0, 5, 7, 4.289624214172363
0, 5, 8, 4.846752166748047
0, 5, 9, 5.406809329986572
0, 5, 10, 7.075652599334717
0, 5, 11, 9.226790428161621
0, 5, 12, 10.01960182189941
0, 5, 13, 4.799320220947266
0, 5, 14, 12.46329307556152
0, 5, 15, 20.41388702392578
0, 5, 16, 16.04819297790527
0, 5, 17, 29.29068183898926
0, 5, 18, 139.6536254882812
0, 5, 19, 288.2515563964844
0, 5, 20, 308.3964538574219
0, 5, 21, 316.9504089355469
0, 5, 22, 275.1700439453125
0, 5, 23, 310.1683349609375
0, 5, 24, 300.9414367675781
0, 5, 25, 288.8382873535156
0, 5, 26, 294.8175048828125
0, 5, 27, 321.0813598632812
0, 5, 28, 300.3858642578125
0, 5, 29, 297.8907775878906
0, 5, 30, 323.4897766113281
0, 5, 31, 287.2117309570312
0, 5, 32, 303.1968994140625
0, 5, 33, 302.8484802246094
0, 5, 34, 296.1614379882812
0, 5, 35, 308.3405456542969
0, 5, 36, 268.4300231933594
0, 5, 37, 282.9271850585938
0, 5, 38, 292.2021484375
0, 5, 39, 315.1228942871094
0, 5, 40, 310.2674255371094
0, 5, 41, 273.666259765625
0, 5, 42, 304.7195434570312
0, 5, 43, 314.3528137207031
0, 5, 44, 292.3910217285156
0, 5, 45, 303.9825744628906
0, 5, 46, 265.5781555175781
0, 5, 47, 280.509521484375
0, 5, 48, 294.3804626464844
0, 5, 49, 286.2192993164062
0, 5, 50, 294.1342468261719
0, 5, 51, 279.4634704589844
0, 5, 52, 268.52978515625
0, 5, 53, 285.0464172363281
0, 5, 54, 291.4467468261719
0, 5, 55, 344.4096374511719
0, 5, 56, 306.5697326660156
0, 5, 57, 312.2301025390625
0, 5, 58, 313.501220703125
0, 5, 59, 304.0551452636719
0, 5, 60, 310.3608093261719
0, 5, 61, 281.1750183105469
0, 5, 62, 326.8835144042969
0, 5, 63, 296.0842895507812
0, 5, 64, 321.7918090820312
0, 5, 65, 309.00146484375
0, 5, 66, 325.7435913085938
0, 5, 67, 310.1735534667969
0, 5, 68, 306.9474792480469
0, 5, 69, 310.5447387695312
0, 5, 70, 300.5225830078125
0, 5, 71, 273.0413208007812
0, 5, 72, 309.8228149414062
0, 5, 73, 301.9996032714844
0, 5, 74, 294.4537658691406
0, 5, 75, 293.3188171386719
0, 5, 76, 286.5615539550781
0, 5, 77, 300.3812866210938
0, 5, 78, 315.8712463378906
0, 5, 79, 309.3290405273438
0, 5, 80, 298.3595275878906
0, 5, 81, 326.1958312988281
0, 5, 82, 324.5869445800781
0, 5, 83, 281.5847473144531
0, 5, 84, 302.401611328125
0, 5, 85, 270.3245849609375
0, 5, 86, 323.587158203125
0, 5, 87, 282.9440307617188
0, 5, 88, 311.977294921875
0, 5, 89, 304.6423034667969
0, 5, 90, 315.7893981933594
0, 5, 91, 314.1253051757812
0, 5, 92, 297.0588989257812
0, 5, 93, 324.3428649902344
0, 5, 94, 306.9088745117188
0, 5, 95, 296.6357116699219
0, 5, 96, 298.1120300292969
0, 5, 97, 295.8025512695312
0, 5, 98, 318.9035949707031
0, 5, 99, 303.9833984375
0, 5, 100, 290.2633972167969
0, 5, 101, 306.5203552246094
0, 5, 102, 292.7178039550781
0, 5, 103, 312.3105773925781
0, 5, 104, 304.4732666015625
0, 5, 105, 292.2715454101562
0, 5, 106, 281.48095703125
0, 5, 107, 294.2286071777344
0, 5, 108, 263.0030517578125
0, 5, 109, 160.1676940917969
0, 5, 110, 39.73293685913086
0, 5, 111, 22.17459487915039
0, 5, 112, 17.18710136413574
0, 5, 113, 12.60946369171143
0, 5, 114, 12.90256690979004
0, 5, 115, 9.655302047729492
0, 5, 116, 8.011197090148926
0, 5, 117, 7.612948417663574
0, 5, 118, 12.6153621673584
0, 5, 119, 5.527556896209717
0, 5, 120, 5.512714862823486
0, 5, 121, 4.887456893920898
0, 5, 122, 4.444927215576172
0, 5, 123, 5.10952091217041
0, 5, 124, 5.157267570495605
0, 5, 125, 4.365771770477295
0, 5, 126, 5.824101448059082
0, 5, 127, 5.225692272186279
0, 6, 0, 3.479570627212524
0, 6, 1, 2.441160678863525
0, 6, 2, 4.107589721679688
0, 6, 3, 6.456740856170654
0, 6, 4, 6.228824138641357
0, 6, 5, 5.966084480285645
0, 6, 6, 7.339519500732422
0, 6, 7, 6.226131439208984
0, 6, 8, 8.006712913513184
0, 6, 9, 6.04334545135498
0, 6, 10, 7.652261734008789
0, 6, 11, 8.50059986114502
0, 6, 12, 8.494792938232422
0, 6, 13, 10.81681442260742
0, 6, 14, 9.702714920043945
0, 6, 15, 15.26101112365723
0, 6, 16, 29.07418441772461
0, 6, 17, 55.52248382568359
0, 6, 18, 175.0741577148438
0, 6, 19, 275.3192138671875
0, 6, 20, 291.9818725585938
0, 6, 21, 313.7152709960938
0, 6, 22, 320.8577270507812
0, 6, 23, 306.9922180175781
0, 6, 24, 317.6021728515625
0, 6, 25, 315.9658508300781
0, 6, 26, 317.9530639648438
0, 6, 27, 330.5196228027344
0, 6, 28, 298.0044555664062
0, 6, 29, 330.0724792480469
0, 6, 30, 280.0691833496094
0, 6, 31, 286.9471130371094
0, 6, 32, 338.9353637695312
0, 6, 33, 299.1968688964844
0, 6, 34, 338.6520080566406
0, 6, 35, 319.1767578125
0, 6, 36, 274.7369995117188
0, 6, 37, 288.6720581054688
0, 6, 38, 310.2419128417969
0, 6, 39, 299.7494506835938
0, 6, 40, 284.8607788085938
0, 6, 41, 295.6771850585938
0, 6, 42, 305.247314453125
0, 6, 43, 290.7310485839844
0, 6, 44, 280.1027221679688
0, 6, 45, 320.4229125976562
0, 6, 46, 301.3606872558594
0, 6, 47, 332.9203491210938
0, 6, 48, 294.8549499511719
0, 6, 49, 312.5755310058594
0, 6, 50, 330.3279418945312
0, 6, 51, 310.4377136230469
0, 6, 52, 320.848876953125
0, 6, 53, 326.9303894042969
0, 6, 54, 306.9091796875
0, 6, 55, 308.0271301269531
0, 6, 56, 293.7581787109375
0, 6, 57, 311.4700317382812
0, 6, 58, 260.5842895507812
0, 6, 59, 300.0201110839844
0, 6, 60, 312.6904296875
0, 6, 61, 272.0639038085938
0, 6, 62, 336.8257751464844
0, 6, 63, 323.7977600097656
0, 6, 64, 292.4065551757812
0, 6, 65, 284.0466613769531
0, 6, 66, 305.5919189453125
0, 6, 67, 311.9604187011719
0, 6, 68, 297.138671875
0, 6, 69, 277.6029052734375
0, 6, 70, 274.4208374023438
0, 6, 71, 288.9202880859375
0, 6, 72, 313.384765625
0, 6, 73, 291.9020690917969
0, 6, 74, 330.1506958007812
0, 6, 75, 345.5232238769531
0, 6, 76, 296.7646179199219
0, 6, 77, 285.8262939453125
0, 6, 78, 278.2841491699219
0, 6, 79, 291.8355407714844
0, 6, 80, 299.4597778320312
0, 6, 81, 315.4382934570312
0, 6, 82, 319.0730590820312
0, 6, 83, 318.6548767089844
0, 6, 84, 296.9824523925781
0, 6, 85, 301.0588684082031
0, 6, 86, 329.9426574707031
0, 6, 87, 293.8807373046875
0, 6, 88, 307.3755493164062
0, 6, 89, 303.5079345703125
0, 6, 90, 301.3504333496094
0, 6, 91, 315.0867309570312
0, 6, 92, 285.2643127441406
0, 6, 93, 295.447021484375
0, 6, 94, 275.3718566894531
0, 6, 95, 297.8883666992188
0, 6, 96, 348.2606201171875
0, 6, 97, 307.0772094726562
0, 6, 98, 300.2519836425781
0, 6, 99, 270.4673156738281
0, 6, 100, 310.3961486816406
0, 6, 101, 293.5758056640625
0, 6, 102, 307.9384765625
0, 6, 103, 308.1098022460938
0, 6, 104, 290.9996337890625
0, 6, 105, 301.71484375
0, 6, 106, 308.1815795898438
0, 6, 107, 306.2957763671875
0, 6, 108, 265.6719665527344
0, 6, 109, 184.6794128417969
0, 6, 110, 56.08672332763672
0, 6, 111, 21.34860229492188
0, 6, 112, 12.47693061828613
0, 6, 113, 11.27068328857422
0, 6, 114, 11.9967565536499
0, 6, 115, 10.99725437164307
0, 6, 116, 8.0858154296875
0, 6, 117, 5.76248025894165
0, 6, 118, 11.97281360626221
0, 6, 119, 7.954512596130371
0, 6, 120, 7.490710735321045
0, 6, 121, 7.943443298339844
0, 6, 122, 5.778233051300049
0, 6, 123, 5.484801769256592
0, 6, 124, 6.984288692474365
0, 6, 125, 8.070066452026367
0, 6, 126, 3.731186151504517
0, 6, 127, 6.378873825073242
0, 7, 0, 8.818965911865234
0, 7, 1, 4.341056346893311
0, 7, 2, 8.931495666503906
0, 7, 3, 3.805673122406006
0, 7, 4, 3.638232231140137
0, 7, 5, 7.806652545928955
0, 7, 6, 5.341995716094971
0, 7, 7, 8.679780960083008
0, 7, 8, 4.853595733642578
0, 7, 9, 5.517993927001953
0, 7, 10, 11.96938133239746
0, 7, 11, 11.04383373260498
0, 7, 12, 10.03511238098145
0, 7, 13, 13.38953113555908
0, 7, 14, 11.46244144439697
0, 7, 15, 18.78002738952637
0, 7, 16, 25.32418251037598
0, 7, 17, 97.50797271728516
0, 7, 18, 217.3274383544922
0, 7, 19, 291.1370849609375
0, 7, 20, 296.6870422363281
0, 7, 21, 276.7357788085938
0, 7, 22, 298.5733642578125
0, 7, 23, 289.376708984375
0, 7, 24, 313.2163391113281
0, 7, 25, 324.5379028320312
0, 7, 26, 278.2354431152344
0, 7, 27, 299.8323669433594
0, 7, 28, 327.5380249023438
0, 7, 29, 318.9498901367188
0, 7, 30, 302.0297241210938
0, 7, 31, 278.5077514648438
0, 7, 32, 307.3681030273438
0, 7, 33, 263.5649108886719
0, 7, 34, 299.8782653808594
0, 7, 35, 320.3141174316406
0, 7, 36, 329.6607360839844
0, 7, 37, 325.4876708984375
0, 7, 38, 296.0286254882812
0, 7, 39, 306.4036865234375
0, 7, 40, 290.5650634765625
0, 7, 41, 269.4131774902344
0, 7, 42, 299.844970703125
0, 7, 43, 275.8148498535156
0, 7, 44, 303.5311889648438
0, 7, 45, 293.4013671875
0, 7, 46, 280.5229187011719
0, 7, 47, 328.94677734375
0, 7, 48, 284.5680236816406
0, 7, 49, 301.3191528320312
0, 7, 50, 320.8212585449219
0, 7, 51, 299.4161987304688
0, 7, 52, 326.8488159179688
0, 7, 53, 310.6353454589844
0, 7, 54, 323.0667114257812
0, 7, 55, 309.1543884277344
0, 7, 56, 280.4176330566406
0, 7, 57, 281.4611206054688
0, 7, 58, 294.3554077148438
0, 7, 59, 292.7960510253906
0, 7, 60, 324.1299438476562
0, 7, 61, 277.5906066894531
0, 7, 62, 298.1587524414062
0, 7, 63, 291.7127990722656
0, 7, 64, 307.9092712402344
0, 7, 65, 330.1882934570312
0, 7, 66, 320.1429138183594
0, 7, 67, 301.8470764160156
0, 7, 68, 280.9400939941406
0, 7, 69, 293.8349914550781
0, 7, 70, 301.8284301757812
0, 7, 71, 310.2339172363281
0, 7, 72, 284.5503234863281
0, 7, 73, 296.7034301757812
0, 7, 74, 345.0309143066406
0, 7, 75, 318.8394165039062
0, 7, 76, 322.0237426757812
0, 7, 77, 281.8733520507812
0, 7, 78, 301.6856384277344
0, 7, 79, 296.64501953125
0, 7, 80, 312.4986877441406
0, 7, 81, 318.0087280273438
0, 7, 82, 328.5706176757812
0, 7, 83, 315.791748046875
0, 7, 84, 309.146240234375
0, 7, 85, 272.7868041992188
0, 7, 86, 309.4614562988281
0, 7, 87, 310.2348022460938
0, 7, 88, 309.6584777832031
0, 7, 89, 294.5050354003906
0, 7, 90, 306.1403503417969
0, 7, 91, 313.4016723632812
0, 7, 92, 289.0539855957031
0, 7, 93, 307.6322326660156
0, 7, 94, 274.5770874023438
0, 7, 95, 296.622314453125
0, 7, 96, 332.6156616210938
0, 7, 97, 296.3403015136719
0, 7, 98, 290.429931640625
0, 7, 99, 314.3736877441406
0, 7, 100, 281.9556884765625
0, 7, 101, 274.5974731445312
0, 7, 102, 290.1431274414062
0, 7, 103, 292.7637329101562
0, 7, 104, 277.4165344238281
0, 7, 105, 308.6756591796875
0, 7, 106, 317.5978088378906
0, 7, 107, 297.5697326660156
0, 7, 108, 272.860107421875
0, 7, 109, 235.4522705078125
0, 7, 110, 95.4825439453125
0, 7, 111, 23.4763126373291
0, 7, 112, 13.66904544830322
0, 7, 113, 15.64768981933594
0, 7, 114, 14.40807247161865
0, 7, 115, 9.200264930725098
0, 7, 116, 7.203941345214844
0, 7, 117, 6.152349472045898
0, 7, 118, 7.080808162689209
0, 7, 119, 9.567893981933594
0, 7, 120, 3.999801397323608
0, 7, 121, 9.14312744140625
0, 7, 122, 8.39906120300293
0, 7, 123, 3.977897882461548
0, 7, 124, 4.279602527618408
0, 7, 125, 7.202926635742188
0, 7, 126, 10.17569065093994
0, 7, 127, 3.073452472686768
0, 8, 0, 4.393382549285889
0, 8, 1, 5.151087760925293
0, 8, 2, 6.463867664337158
0, 8, 3, 3.631813764572144
0, 8, 4, 5.120388031005859
0, 8, 5, 2.920311212539673
0, 8, 6, 5.069227695465088
0, 8, 7, 7.011545658111572
0, 8, 8, 7.69225549697876
0, 8, 9, 5.308618068695068
0, 8, 10, 7.03588342666626
0, 8, 11, 13.64973258972168
0, 8, 12, 12.49180507659912
0, 8, 13, 15.4346752166748
0, 8, 14, 16.54472732543945
0, 8, 15, 17.22620964050293
0, 8, 16, 32.20560836791992
0, 8, 17, 130.1953735351562
0, 8, 18, 242.3438720703125
0, 8, 19, 294.7431640625
0, 8, 20, 285.698486328125
0, 8, 21, 306.8880615234375
0, 8, 22, 297.8251647949219
0, 8, 23, 274.8228759765625
0, 8, 24, 270.0130920410156
0, 8, 25, 276.2176818847656
0, 8, 26, 306.0316772460938
0, 8, 27, 306.5994873046875
0, 8, 28, 302.108154296875
0, 8, 29, 320.8800354003906
0, 8, 30, 314.4634399414062
0, 8, 31, 306.5544128417969
0, 8, 32, 283.2854919433594
0, 8, 33, 293.3819885253906
0, 8, 34, 289.5445861816406
0, 8, 35, 282.4721069335938
0, 8, 36, 316.9487915039062
0, 8, 37, 339.4861450195312
0, 8, 38, 334.765869140625
0, 8, 39, 280.3001098632812
0, 8, 40, 305.2022705078125
