# TOPAS Version: 3.1.p3
# Parameter File: batch_inserts_108.txt
# Results for scorer Readout_Adipose
# Scored in component: MyBox
# X in 1 bin  of 0.75 cm
# Y in 512 bins of 0.0783984 cm
# Z in 128 bins of 0.078125 cm
# EnergyDeposit ( MeV ) : Sum   
0, 0, 0, 4.7560133934021
0, 0, 1, 1.798610210418701
0, 0, 2, 4.45704984664917
0, 0, 3, 2.376200675964355
0, 0, 4, 4.642003536224365
0, 0, 5, 1.276960968971252
0, 0, 6, 6.717616558074951
0, 0, 7, 10.24655151367188
0, 0, 8, 2.393731117248535
0, 0, 9, 3.715666532516479
0, 0, 10, 7.824582576751709
0, 0, 11, 5.623015880584717
0, 0, 12, 4.718758106231689
0, 0, 13, 5.913996696472168
0, 0, 14, 6.826825141906738
0, 0, 15, 10.70179080963135
0, 0, 16, 8.882078170776367
0, 0, 17, 9.861142158508301
0, 0, 18, 12.49025344848633
0, 0, 19, 45.95275115966797
0, 0, 20, 140.2132263183594
0, 0, 21, 223.5877685546875
0, 0, 22, 248.1803588867188
0, 0, 23, 255.7524108886719
0, 0, 24, 251.1841430664062
0, 0, 25, 258.3532409667969
0, 0, 26, 234.2069702148438
0, 0, 27, 237.1698608398438
0, 0, 28, 272.7537536621094
0, 0, 29, 251.95556640625
0, 0, 30, 228.5590667724609
0, 0, 31, 243.6112670898438
0, 0, 32, 263.0107421875
0, 0, 33, 262.4686889648438
0, 0, 34, 287.9962463378906
0, 0, 35, 268.5086975097656
0, 0, 36, 248.094970703125
0, 0, 37, 250.9272003173828
0, 0, 38, 268.8281555175781
0, 0, 39, 228.3738555908203
0, 0, 40, 241.0858001708984
0, 0, 41, 264.3120422363281
0, 0, 42, 229.1858825683594
0, 0, 43, 258.7278137207031
0, 0, 44, 250.7877197265625
0, 0, 45, 254.3276824951172
0, 0, 46, 243.4730682373047
0, 0, 47, 254.1743927001953
0, 0, 48, 269.8330688476562
0, 0, 49, 275.7044677734375
0, 0, 50, 251.9496154785156
0, 0, 51, 255.3891906738281
0, 0, 52, 274.4735412597656
0, 0, 53, 293.505859375
0, 0, 54, 242.1027679443359
0, 0, 55, 240.2735443115234
0, 0, 56, 277.1461791992188
0, 0, 57, 263.6866455078125
0, 0, 58, 245.8841247558594
0, 0, 59, 269.4505310058594
0, 0, 60, 234.5468902587891
0, 0, 61, 243.724609375
0, 0, 62, 256.8619079589844
0, 0, 63, 268.708984375
0, 0, 64, 255.152099609375
0, 0, 65, 259.8605651855469
0, 0, 66, 275.5499877929688
0, 0, 67, 244.4955444335938
0, 0, 68, 257.3501586914062
0, 0, 69, 262.3489379882812
0, 0, 70, 271.8561706542969
0, 0, 71, 237.3438262939453
0, 0, 72, 249.6781921386719
0, 0, 73, 258.6119689941406
0, 0, 74, 250.88037109375
0, 0, 75, 240.9545440673828
0, 0, 76, 230.0423736572266
0, 0, 77, 260.1668090820312
0, 0, 78, 259.3530578613281
0, 0, 79, 282.2608642578125
0, 0, 80, 216.0355529785156
0, 0, 81, 266.5184326171875
0, 0, 82, 257.0890502929688
0, 0, 83, 245.4329223632812
0, 0, 84, 271.3880310058594
0, 0, 85, 231.8091125488281
0, 0, 86, 252.1537933349609
0, 0, 87, 250.0299682617188
0, 0, 88, 259.7982788085938
0, 0, 89, 282.6332092285156
0, 0, 90, 243.0755004882812
0, 0, 91, 281.8132934570312
0, 0, 92, 252.0009155273438
0, 0, 93, 248.8877258300781
0, 0, 94, 247.7510223388672
0, 0, 95, 248.2516326904297
0, 0, 96, 277.2794494628906
0, 0, 97, 272.4772033691406
0, 0, 98, 274.8989868164062
0, 0, 99, 259.1025085449219
0, 0, 100, 257.7159729003906
0, 0, 101, 226.5435028076172
0, 0, 102, 232.3693695068359
0, 0, 103, 270.3558349609375
0, 0, 104, 255.6595306396484
0, 0, 105, 251.8934783935547
0, 0, 106, 246.9779510498047
0, 0, 107, 152.9209899902344
0, 0, 108, 39.59849166870117
0, 0, 109, 12.23015022277832
0, 0, 110, 11.750657081604
0, 0, 111, 10.98812866210938
0, 0, 112, 7.387828350067139
0, 0, 113, 4.662593841552734
0, 0, 114, 6.585871696472168
0, 0, 115, 3.352134704589844
0, 0, 116, 6.284197330474854
0, 0, 117, 6.443206787109375
0, 0, 118, 5.556589603424072
0, 0, 119, 5.310341835021973
0, 0, 120, 4.723484992980957
0, 0, 121, 2.42094612121582
0, 0, 122, 5.125364780426025
0, 0, 123, 5.863627433776855
0, 0, 124, 6.710425853729248
0, 0, 125, 3.030163526535034
0, 0, 126, 3.370735168457031
0, 0, 127, 2.094042539596558
0, 1, 0, 7.613091468811035
0, 1, 1, 2.691962957382202
0, 1, 2, 5.04202938079834
0, 1, 3, 2.331493377685547
0, 1, 4, 2.860184192657471
0, 1, 5, 3.439335823059082
0, 1, 6, 5.731449127197266
0, 1, 7, 3.333859443664551
0, 1, 8, 8.764244079589844
0, 1, 9, 4.744389057159424
0, 1, 10, 8.529519081115723
0, 1, 11, 12.3931360244751
0, 1, 12, 9.617973327636719
0, 1, 13, 9.847587585449219
0, 1, 14, 8.354822158813477
0, 1, 15, 7.555026531219482
0, 1, 16, 13.26692676544189
0, 1, 17, 10.14503860473633
0, 1, 18, 25.12447166442871
0, 1, 19, 65.96923828125
0, 1, 20, 198.4188232421875
0, 1, 21, 256.8162841796875
0, 1, 22, 296.2157287597656
0, 1, 23, 282.6223754882812
0, 1, 24, 276.0098876953125
0, 1, 25, 287.7597351074219
0, 1, 26, 269.1495666503906
0, 1, 27, 307.5699157714844
0, 1, 28, 300.3852844238281
0, 1, 29, 295.6340942382812
0, 1, 30, 280.2743225097656
0, 1, 31, 291.3493347167969
0, 1, 32, 289.3755798339844
0, 1, 33, 296.4485778808594
0, 1, 34, 293.9617614746094
0, 1, 35, 277.8000793457031
0, 1, 36, 307.4088745117188
0, 1, 37, 295.5484008789062
0, 1, 38, 281.1430053710938
0, 1, 39, 297.9767150878906
0, 1, 40, 266.4875183105469
0, 1, 41, 286.03125
0, 1, 42, 289.290283203125
0, 1, 43, 334.6186828613281
0, 1, 44, 278.0438842773438
0, 1, 45, 292.8983764648438
0, 1, 46, 259.8672790527344
0, 1, 47, 309.5515747070312
0, 1, 48, 284.3222961425781
0, 1, 49, 302.0107421875
0, 1, 50, 264.0548706054688
0, 1, 51, 271.5392456054688
0, 1, 52, 293.9985046386719
0, 1, 53, 302.5005187988281
0, 1, 54, 276.1178283691406
0, 1, 55, 292.2745666503906
0, 1, 56, 277.5502624511719
0, 1, 57, 299.08203125
0, 1, 58, 311.6018371582031
0, 1, 59, 290.7589416503906
0, 1, 60, 297.2193603515625
0, 1, 61, 274.9833374023438
0, 1, 62, 307.9672241210938
0, 1, 63, 286.0174560546875
0, 1, 64, 288.866943359375
0, 1, 65, 298.0560913085938
0, 1, 66, 291.7471618652344
0, 1, 67, 292.932861328125
0, 1, 68, 278.6347961425781
0, 1, 69, 280.4461669921875
0, 1, 70, 269.6656188964844
0, 1, 71, 273.1509399414062
0, 1, 72, 284.5647277832031
0, 1, 73, 302.7293090820312
0, 1, 74, 306.3075256347656
0, 1, 75, 292.22119140625
0, 1, 76, 286.8973083496094
0, 1, 77, 290.0741882324219
0, 1, 78, 298.3840637207031
0, 1, 79, 300.7245788574219
0, 1, 80, 294.9399108886719
0, 1, 81, 300.4400634765625
0, 1, 82, 282.9086608886719
0, 1, 83, 335.0115356445312
0, 1, 84, 310.5101013183594
0, 1, 85, 254.7357482910156
0, 1, 86, 298.03369140625
0, 1, 87, 289.8350524902344
0, 1, 88, 299.1955261230469
0, 1, 89, 291.0866394042969
0, 1, 90, 271.3575744628906
0, 1, 91, 320.3186950683594
0, 1, 92, 293.7283630371094
0, 1, 93, 286.6114196777344
0, 1, 94, 304.4221496582031
0, 1, 95, 285.39306640625
0, 1, 96, 286.1077575683594
0, 1, 97, 303.5437316894531
0, 1, 98, 277.722412109375
0, 1, 99, 267.1249389648438
0, 1, 100, 276.5036315917969
0, 1, 101, 282.4634094238281
0, 1, 102, 276.6890869140625
0, 1, 103, 280.4194641113281
0, 1, 104, 306.7562255859375
0, 1, 105, 296.2309265136719
0, 1, 106, 260.6666870117188
0, 1, 107, 194.1405487060547
0, 1, 108, 80.31051635742188
0, 1, 109, 22.96121406555176
0, 1, 110, 12.50343608856201
0, 1, 111, 8.760101318359375
0, 1, 112, 13.43058300018311
0, 1, 113, 8.937222480773926
0, 1, 114, 6.305184841156006
0, 1, 115, 5.403278827667236
0, 1, 116, 12.35710334777832
0, 1, 117, 5.884467124938965
0, 1, 118, 6.654617786407471
0, 1, 119, 7.534316539764404
0, 1, 120, 7.84616756439209
0, 1, 121, 5.35893440246582
0, 1, 122, 4.583744525909424
0, 1, 123, 3.154842376708984
0, 1, 124, 8.871150016784668
0, 1, 125, 4.240192413330078
0, 1, 126, 2.593591690063477
0, 1, 127, 1.913745403289795
0, 2, 0, 4.020143032073975
0, 2, 1, 1.400384187698364
0, 2, 2, 6.46600866317749
0, 2, 3, 4.953416347503662
0, 2, 4, 3.439227819442749
0, 2, 5, 2.700803756713867
0, 2, 6, 2.839493036270142
0, 2, 7, 4.223531723022461
0, 2, 8, 6.114973545074463
0, 2, 9, 6.165230751037598
0, 2, 10, 7.507344722747803
0, 2, 11, 5.988527774810791
0, 2, 12, 7.30711555480957
0, 2, 13, 11.69294929504395
0, 2, 14, 8.855048179626465
0, 2, 15, 9.447887420654297
0, 2, 16, 10.02074241638184
0, 2, 17, 16.65640640258789
0, 2, 18, 31.37079811096191
0, 2, 19, 116.1501083374023
0, 2, 20, 244.4839782714844
0, 2, 21, 270.466796875
0, 2, 22, 314.8109436035156
0, 2, 23, 299.6431274414062
0, 2, 24, 287.3765869140625
0, 2, 25, 303.4496154785156
0, 2, 26, 292.4974975585938
0, 2, 27, 275.3694458007812
0, 2, 28, 272.3577575683594
0, 2, 29, 274.3746948242188
0, 2, 30, 291.8717651367188
0, 2, 31, 276.113525390625
0, 2, 32, 293.4143371582031
0, 2, 33, 282.6459045410156
0, 2, 34, 333.1398010253906
0, 2, 35, 289.4327697753906
0, 2, 36, 301.3972473144531
0, 2, 37, 315.1447143554688
0, 2, 38, 311.9482727050781
0, 2, 39, 266.3176879882812
0, 2, 40, 310.5060729980469
0, 2, 41, 293.5976257324219
0, 2, 42, 304.7246704101562
0, 2, 43, 312.6272277832031
0, 2, 44, 313.2466735839844
0, 2, 45, 325.8569641113281
0, 2, 46, 285.5279846191406
0, 2, 47, 303.4250793457031
0, 2, 48, 282.3450927734375
0, 2, 49, 279.2839660644531
0, 2, 50, 294.7807312011719
0, 2, 51, 283.7288513183594
0, 2, 52, 273.4559631347656
0, 2, 53, 288.0042419433594
0, 2, 54, 280.3867797851562
0, 2, 55, 278.722412109375
0, 2, 56, 301.0357055664062
0, 2, 57, 294.218505859375
0, 2, 58, 301.1785583496094
0, 2, 59, 291.2014770507812
0, 2, 60, 319.4589233398438
0, 2, 61, 301.176513671875
0, 2, 62, 314.0949096679688
0, 2, 63, 302.9575805664062
0, 2, 64, 296.2608032226562
0, 2, 65, 313.8411865234375
0, 2, 66, 280.3243103027344
0, 2, 67, 292.5193786621094
0, 2, 68, 295.9597473144531
0, 2, 69, 311.6349182128906
0, 2, 70, 334.7131652832031
0, 2, 71, 282.5870971679688
0, 2, 72, 299.2269592285156
0, 2, 73, 312.0231018066406
0, 2, 74, 289.4070129394531
0, 2, 75, 304.1549987792969
0, 2, 76, 289.0321350097656
0, 2, 77, 301.8556213378906
0, 2, 78, 315.6917419433594
0, 2, 79, 307.6304016113281
0, 2, 80, 294.1681823730469
0, 2, 81, 280.6553955078125
0, 2, 82, 319.4208374023438
0, 2, 83, 312.8279724121094
0, 2, 84, 287.256591796875
0, 2, 85, 282.2517700195312
0, 2, 86, 325.6614990234375
0, 2, 87, 287.4273986816406
0, 2, 88, 280.1667785644531
0, 2, 89, 297.0480346679688
0, 2, 90, 294.6792602539062
0, 2, 91, 276.7997131347656
0, 2, 92, 305.2284240722656
0, 2, 93, 317.5530090332031
0, 2, 94, 291.2516479492188
0, 2, 95, 316.0121459960938
0, 2, 96, 314.6099853515625
0, 2, 97, 291.3834533691406
0, 2, 98, 294.7772827148438
0, 2, 99, 273.1224975585938
0, 2, 100, 306.8148498535156
0, 2, 101, 301.0530395507812
0, 2, 102, 297.4024963378906
0, 2, 103, 292.7419128417969
0, 2, 104, 292.3498229980469
0, 2, 105, 274.5549621582031
0, 2, 106, 297.7319641113281
0, 2, 107, 268.0009155273438
0, 2, 108, 117.0976181030273
0, 2, 109, 31.12079048156738
0, 2, 110, 9.773889541625977
0, 2, 111, 11.69838619232178
0, 2, 112, 8.114413261413574
0, 2, 113, 9.6824951171875
0, 2, 114, 9.692483901977539
0, 2, 115, 9.09217643737793
0, 2, 116, 11.65942287445068
0, 2, 117, 7.287537574768066
0, 2, 118, 2.317687749862671
0, 2, 119, 2.963805198669434
0, 2, 120, 4.541897773742676
0, 2, 121, 4.451400756835938
0, 2, 122, 5.462035179138184
0, 2, 123, 3.345532178878784
0, 2, 124, 2.408924341201782
0, 2, 125, 4.33558464050293
0, 2, 126, 2.920266389846802
0, 2, 127, 5.53539514541626
0, 3, 0, 4.215038299560547
0, 3, 1, 2.634227991104126
0, 3, 2, 4.637123584747314
0, 3, 3, 2.399751901626587
0, 3, 4, 3.959163188934326
0, 3, 5, 7.012833595275879
0, 3, 6, 6.640586376190186
0, 3, 7, 5.177772998809814
0, 3, 8, 4.626772880554199
0, 3, 9, 6.287598133087158
0, 3, 10, 6.490675926208496
0, 3, 11, 4.77865743637085
0, 3, 12, 7.913988590240479
0, 3, 13, 15.46860885620117
0, 3, 14, 11.01955890655518
0, 3, 15, 13.98813819885254
0, 3, 16, 14.98145389556885
0, 3, 17, 21.07306480407715
0, 3, 18, 53.20621109008789
0, 3, 19, 176.6426696777344
0, 3, 20, 268.8088684082031
0, 3, 21, 269.7207946777344
0, 3, 22, 282.9163208007812
0, 3, 23, 286.8705139160156
0, 3, 24, 286.4929504394531
0, 3, 25, 269.1403198242188
0, 3, 26, 303.2777099609375
0, 3, 27, 293.0354614257812
0, 3, 28, 281.8709106445312
0, 3, 29, 337.3855285644531
0, 3, 30, 317.0577392578125
0, 3, 31, 286.6447143554688
0, 3, 32, 306.1726989746094
0, 3, 33, 315.1271362304688
0, 3, 34, 319.9994506835938
0, 3, 35, 304.6082153320312
0, 3, 36, 270.1766967773438
0, 3, 37, 313.6245422363281
0, 3, 38, 303.4358520507812
0, 3, 39, 289.1029357910156
0, 3, 40, 269.0129699707031
0, 3, 41, 299.8025207519531
0, 3, 42, 287.0797119140625
0, 3, 43, 304.319091796875
0, 3, 44, 311.8976440429688
0, 3, 45, 290.1080322265625
0, 3, 46, 329.188232421875
0, 3, 47, 298.0384216308594
0, 3, 48, 302.015869140625
0, 3, 49, 275.7604675292969
0, 3, 50, 290.3757629394531
0, 3, 51, 274.3521728515625
0, 3, 52, 314.7414245605469
0, 3, 53, 286.4113464355469
0, 3, 54, 284.9549560546875
0, 3, 55, 286.0577392578125
0, 3, 56, 298.0742797851562
0, 3, 57, 289.8531799316406
0, 3, 58, 305.3556518554688
0, 3, 59, 294.3189392089844
0, 3, 60, 297.3647766113281
0, 3, 61, 264.6702575683594
0, 3, 62, 285.8435974121094
0, 3, 63, 307.7528076171875
0, 3, 64, 316.2542724609375
0, 3, 65, 304.9528198242188
0, 3, 66, 315.3981018066406
0, 3, 67, 317.5010375976562
0, 3, 68, 279.0162658691406
0, 3, 69, 283.0553283691406
0, 3, 70, 289.4200439453125
0, 3, 71, 301.1741333007812
0, 3, 72, 268.7098083496094
0, 3, 73, 309.7640075683594
0, 3, 74, 292.6913146972656
0, 3, 75, 289.0631408691406
0, 3, 76, 307.1297302246094
0, 3, 77, 314.7200317382812
0, 3, 78, 303.1408081054688
0, 3, 79, 282.1979370117188
0, 3, 80, 290.7472839355469
0, 3, 81, 312.0835266113281
0, 3, 82, 317.4711303710938
0, 3, 83, 300.512451171875
0, 3, 84, 311.2839660644531
0, 3, 85, 292.8887329101562
0, 3, 86, 303.4151306152344
0, 3, 87, 300.1942443847656
0, 3, 88, 298.6775817871094
0, 3, 89, 297.6846923828125
0, 3, 90, 276.2427673339844
0, 3, 91, 284.1164245605469
0, 3, 92, 303.8541259765625
0, 3, 93, 312.3111572265625
0, 3, 94, 300.8198547363281
0, 3, 95, 335.4056396484375
0, 3, 96, 290.3570861816406
0, 3, 97, 283.9663391113281
0, 3, 98, 278.0245056152344
0, 3, 99, 261.6952819824219
0, 3, 100, 285.4541625976562
0, 3, 101, 299.3624877929688
0, 3, 102, 273.5242309570312
0, 3, 103, 319.766845703125
0, 3, 104, 307.5889587402344
0, 3, 105, 287.1992797851562
0, 3, 106, 302.4471130371094
0, 3, 107, 282.0794982910156
0, 3, 108, 169.0455017089844
0, 3, 109, 58.49357223510742
0, 3, 110, 17.58450889587402
0, 3, 111, 14.1635274887085
0, 3, 112, 13.49703025817871
0, 3, 113, 9.205877304077148
0, 3, 114, 9.913649559020996
0, 3, 115, 7.654386043548584
0, 3, 116, 10.20796966552734
0, 3, 117, 6.281201362609863
0, 3, 118, 5.757406234741211
0, 3, 119, 4.596137523651123
0, 3, 120, 6.816617012023926
0, 3, 121, 3.294495105743408
0, 3, 122, 3.783856391906738
0, 3, 123, 4.123551368713379
0, 3, 124, 5.308502674102783
0, 3, 125, 5.715126514434814
0, 3, 126, 4.756963729858398
0, 3, 127, 4.157507419586182
0, 4, 0, 3.13094425201416
0, 4, 1, 6.026237487792969
0, 4, 2, 2.679466009140015
0, 4, 3, 1.743282198905945
0, 4, 4, 5.904031753540039
0, 4, 5, 8.763238906860352
0, 4, 6, 6.122342586517334
0, 4, 7, 6.425473213195801
0, 4, 8, 4.380275249481201
0, 4, 9, 6.985415935516357
0, 4, 10, 5.411023616790771
0, 4, 11, 7.500899314880371
0, 4, 12, 7.411005973815918
0, 4, 13, 10.36784172058105
0, 4, 14, 12.14227199554443
0, 4, 15, 10.15510940551758
0, 4, 16, 16.28802299499512
0, 4, 17, 18.06859588623047
0, 4, 18, 91.8927001953125
0, 4, 19, 222.1712646484375
0, 4, 20, 283.0895385742188
0, 4, 21, 273.186279296875
0, 4, 22, 305.5723876953125
0, 4, 23, 266.4956970214844
0, 4, 24, 288.673828125
0, 4, 25, 273.3922729492188
0, 4, 26, 293.55908203125
0, 4, 27, 283.01806640625
0, 4, 28, 306.1024475097656
0, 4, 29, 324.4596557617188
0, 4, 30, 310.2797546386719
0, 4, 31, 305.3070373535156
0, 4, 32, 280.0498962402344
0, 4, 33, 294.5184631347656
0, 4, 34, 296.5537414550781
0, 4, 35, 311.9048461914062
0, 4, 36, 293.5907592773438
0, 4, 37, 288.0788879394531
0, 4, 38, 299.3996887207031
0, 4, 39, 299.3798217773438
0, 4, 40, 301.2759399414062
0, 4, 41, 312.1903991699219
0, 4, 42, 329.4359436035156
0, 4, 43, 296.27490234375
0, 4, 44, 319.7320556640625
0, 4, 45, 323.9578857421875
0, 4, 46, 307.2249450683594
0, 4, 47, 292.7692565917969
0, 4, 48, 294.0382690429688
0, 4, 49, 277.2224731445312
0, 4, 50, 295.6502685546875
0, 4, 51, 317.5093078613281
0, 4, 52, 326.8030395507812
0, 4, 53, 302.3697509765625
0, 4, 54, 286.6504211425781
0, 4, 55, 313.7381286621094
0, 4, 56, 288.3976135253906
0, 4, 57, 311.2441711425781
0, 4, 58, 292.8813171386719
0, 4, 59, 310.6854248046875
0, 4, 60, 303.1530456542969
0, 4, 61, 317.4844665527344
0, 4, 62, 306.2842712402344
0, 4, 63, 299.1256103515625
0, 4, 64, 331.92724609375
0, 4, 65, 317.2597961425781
0, 4, 66, 293.5351257324219
0, 4, 67, 285.790771484375
0, 4, 68, 313.8121337890625
0, 4, 69, 277.5604858398438
0, 4, 70, 303.804443359375
0, 4, 71, 320.9468383789062
0, 4, 72, 334.274658203125
0, 4, 73, 298.56396484375
0, 4, 74, 293.3218383789062
0, 4, 75, 288.3157348632812
0, 4, 76, 274.8815612792969
0, 4, 77, 277.5985412597656
0, 4, 78, 309.5272521972656
0, 4, 79, 318.177490234375
0, 4, 80, 316.6680297851562
0, 4, 81, 313.6820678710938
0, 4, 82, 297.159423828125
0, 4, 83, 300.6758117675781
0, 4, 84, 295.1107788085938
0, 4, 85, 294.0401306152344
0, 4, 86, 297.8678283691406
0, 4, 87, 284.9132995605469
0, 4, 88, 303.811279296875
0, 4, 89, 295.580322265625
0, 4, 90, 333.037109375
0, 4, 91, 302.5815734863281
0, 4, 92, 290.6884765625
0, 4, 93, 295.6610717773438
0, 4, 94, 292.7256469726562
0, 4, 95, 289.3114013671875
0, 4, 96, 322.6536865234375
0, 4, 97, 274.2573852539062
0, 4, 98, 326.34228515625
0, 4, 99, 313.6617736816406
0, 4, 100, 300.0502014160156
0, 4, 101, 256.1229248046875
0, 4, 102, 298.748046875
0, 4, 103, 317.72119140625
0, 4, 104, 280.7322082519531
0, 4, 105, 310.805419921875
0, 4, 106, 286.2589416503906
0, 4, 107, 296.4627075195312
0, 4, 108, 225.3216094970703
0, 4, 109, 80.67794036865234
0, 4, 110, 16.94538116455078
0, 4, 111, 14.59682655334473
0, 4, 112, 9.411873817443848
0, 4, 113, 9.214789390563965
0, 4, 114, 8.252340316772461
0, 4, 115, 10.18263816833496
0, 4, 116, 9.063590049743652
0, 4, 117, 6.524407863616943
0, 4, 118, 8.862885475158691
0, 4, 119, 9.438430786132812
0, 4, 120, 6.089162826538086
0, 4, 121, 3.835007667541504
0, 4, 122, 4.306435585021973
0, 4, 123, 5.12991189956665
0, 4, 124, 5.648983955383301
0, 4, 125, 9.527891159057617
0, 4, 126, 4.879264354705811
0, 4, 127, 3.693182706832886
0, 5, 0, 3.252476692199707
0, 5, 1, 6.23157787322998
0, 5, 2, 4.94278621673584
0, 5, 3, 3.988508462905884
0, 5, 4, 6.164189338684082
0, 5, 5, 7.003373146057129
0, 5, 6, 9.420367240905762
0, 5, 7, 7.595192909240723
0, 5, 8, 4.149331569671631
0, 5, 9, 4.52538013458252
0, 5, 10, 7.379246234893799
0, 5, 11, 9.072090148925781
0, 5, 12, 10.70135021209717
0, 5, 13, 4.15138053894043
0, 5, 14, 12.30562210083008
0, 5, 15, 18.47471046447754
0, 5, 16, 13.48989963531494
0, 5, 17, 29.33979797363281
0, 5, 18, 138.4093017578125
0, 5, 19, 289.9239807128906
0, 5, 20, 307.722900390625
0, 5, 21, 317.4228210449219
0, 5, 22, 276.0425415039062
0, 5, 23, 312.7367858886719
0, 5, 24, 302.1731567382812
0, 5, 25, 289.92822265625
0, 5, 26, 295.7883605957031
0, 5, 27, 320.6865234375
0, 5, 28, 303.7073974609375
0, 5, 29, 297.8367919921875
0, 5, 30, 324.6063842773438
0, 5, 31, 287.5893859863281
0, 5, 32, 303.6925048828125
0, 5, 33, 303.0641174316406
0, 5, 34, 297.7498474121094
0, 5, 35, 309.1502685546875
0, 5, 36, 269.3511352539062
0, 5, 37, 281.9494323730469
0, 5, 38, 294.004638671875
0, 5, 39, 315.7015380859375
0, 5, 40, 309.2764282226562
0, 5, 41, 274.0160522460938
0, 5, 42, 303.5213928222656
0, 5, 43, 314.9910278320312
0, 5, 44, 292.2225341796875
0, 5, 45, 303.4551086425781
0, 5, 46, 265.0794677734375
0, 5, 47, 280.3421936035156
0, 5, 48, 294.3882446289062
0, 5, 49, 285.4514770507812
0, 5, 50, 294.3004455566406
0, 5, 51, 279.1329345703125
0, 5, 52, 269.5591735839844
0, 5, 53, 287.6422424316406
0, 5, 54, 293.6161499023438
0, 5, 55, 345.129638671875
0, 5, 56, 305.4559326171875
0, 5, 57, 308.8712463378906
0, 5, 58, 310.1838073730469
0, 5, 59, 302.0172424316406
0, 5, 60, 308.2442016601562
0, 5, 61, 281.8039855957031
0, 5, 62, 324.0085144042969
0, 5, 63, 289.9963989257812
0, 5, 64, 322.9863891601562
0, 5, 65, 306.4970703125
0, 5, 66, 326.8515625
0, 5, 67, 313.3278198242188
0, 5, 68, 308.7247924804688
0, 5, 69, 310.4453125
0, 5, 70, 300.1002197265625
0, 5, 71, 272.1405029296875
0, 5, 72, 312.0101318359375
0, 5, 73, 303.0324401855469
0, 5, 74, 295.4582214355469
0, 5, 75, 295.8759460449219
0, 5, 76, 285.338623046875
0, 5, 77, 297.8653259277344
0, 5, 78, 312.6081237792969
0, 5, 79, 307.4580383300781
0, 5, 80, 294.5236206054688
0, 5, 81, 326.8960266113281
0, 5, 82, 324.5178527832031
0, 5, 83, 280.5842895507812
0, 5, 84, 302.2481079101562
0, 5, 85, 271.2280883789062
0, 5, 86, 323.6297912597656
0, 5, 87, 284.3146057128906
0, 5, 88, 312.86669921875
0, 5, 89, 304.5757446289062
0, 5, 90, 314.8462829589844
0, 5, 91, 315.8720397949219
0, 5, 92, 295.7883605957031
0, 5, 93, 324.6479187011719
0, 5, 94, 306.7427978515625
0, 5, 95, 297.6291198730469
0, 5, 96, 296.2208251953125
0, 5, 97, 296.2119140625
0, 5, 98, 318.0843200683594
0, 5, 99, 301.841064453125
0, 5, 100, 291.6830444335938
0, 5, 101, 306.8307800292969
0, 5, 102, 292.4812316894531
0, 5, 103, 312.1297607421875
0, 5, 104, 308.0317687988281
0, 5, 105, 292.5259704589844
0, 5, 106, 280.7408447265625
0, 5, 107, 294.5269165039062
0, 5, 108, 264.4977722167969
0, 5, 109, 156.7319030761719
0, 5, 110, 38.65523910522461
0, 5, 111, 21.22347259521484
0, 5, 112, 15.30327129364014
0, 5, 113, 12.97213649749756
0, 5, 114, 12.97133922576904
0, 5, 115, 7.949143409729004
0, 5, 116, 9.0526123046875
0, 5, 117, 7.546365737915039
0, 5, 118, 14.35646057128906
0, 5, 119, 3.402267694473267
0, 5, 120, 5.452203273773193
0, 5, 121, 3.740291595458984
0, 5, 122, 6.075616359710693
0, 5, 123, 5.38447093963623
0, 5, 124, 6.204275608062744
0, 5, 125, 4.018067836761475
0, 5, 126, 7.014532089233398
0, 5, 127, 2.953966617584229
0, 6, 0, 6.495125770568848
0, 6, 1, 2.919228553771973
0, 6, 2, 6.153523921966553
0, 6, 3, 6.797109603881836
0, 6, 4, 3.736903190612793
0, 6, 5, 4.785831928253174
0, 6, 6, 7.785317897796631
0, 6, 7, 6.502537727355957
0, 6, 8, 11.2490234375
0, 6, 9, 8.031991004943848
0, 6, 10, 11.92269706726074
0, 6, 11, 7.552244663238525
0, 6, 12, 8.896803855895996
0, 6, 13, 14.58491039276123
0, 6, 14, 8.575470924377441
0, 6, 15, 17.21691703796387
0, 6, 16, 27.75074005126953
0, 6, 17, 55.49525451660156
0, 6, 18, 172.2585754394531
0, 6, 19, 276.8706665039062
0, 6, 20, 290.677978515625
0, 6, 21, 313.6304016113281
0, 6, 22, 319.9341735839844
0, 6, 23, 308.087890625
0, 6, 24, 316.7274780273438
0, 6, 25, 315.6679992675781
0, 6, 26, 322.4619750976562
0, 6, 27, 331.040283203125
0, 6, 28, 295.1299133300781
0, 6, 29, 332.4664611816406
0, 6, 30, 279.7194519042969
0, 6, 31, 286.3999938964844
0, 6, 32, 343.8265991210938
0, 6, 33, 303.5659790039062
0, 6, 34, 340.8177185058594
0, 6, 35, 319.3171997070312
0, 6, 36, 273.7988586425781
0, 6, 37, 291.3419799804688
0, 6, 38, 310.2302856445312
0, 6, 39, 299.0561218261719
0, 6, 40, 286.9603881835938
0, 6, 41, 294.9945983886719
0, 6, 42, 309.66552734375
0, 6, 43, 289.1055908203125
0, 6, 44, 280.7067565917969
0, 6, 45, 320.803466796875
0, 6, 46, 302.0899963378906
0, 6, 47, 333.3115844726562
0, 6, 48, 295.6132507324219
0, 6, 49, 312.2303771972656
0, 6, 50, 327.9040222167969
0, 6, 51, 312.8486328125
0, 6, 52, 322.0500183105469
0, 6, 53, 331.6419982910156
0, 6, 54, 303.1197509765625
0, 6, 55, 306.2969055175781
0, 6, 56, 293.6339111328125
0, 6, 57, 312.6398010253906
0, 6, 58, 261.8134155273438
0, 6, 59, 305.6162109375
0, 6, 60, 316.0758361816406
0, 6, 61, 271.3847045898438
0, 6, 62, 334.670166015625
0, 6, 63, 324.5443725585938
0, 6, 64, 294.3219909667969
0, 6, 65, 283.6640319824219
0, 6, 66, 306.4118957519531
0, 6, 67, 308.4195861816406
0, 6, 68, 292.6719055175781
0, 6, 69, 278.2916870117188
0, 6, 70, 275.9929809570312
0, 6, 71, 289.1440734863281
0, 6, 72, 308.8496704101562
0, 6, 73, 292.0054931640625
0, 6, 74, 330.4808349609375
0, 6, 75, 342.24072265625
0, 6, 76, 297.3754577636719
0, 6, 77, 287.0145568847656
0, 6, 78, 281.3887939453125
0, 6, 79, 295.7953491210938
0, 6, 80, 299.9980773925781
0, 6, 81, 315.5814208984375
0, 6, 82, 318.3695068359375
0, 6, 83, 322.3330078125
0, 6, 84, 294.8528747558594
0, 6, 85, 300.9193725585938
0, 6, 86, 329.5276184082031
0, 6, 87, 293.4562377929688
0, 6, 88, 305.5058288574219
0, 6, 89, 303.3599243164062
0, 6, 90, 298.4526672363281
0, 6, 91, 312.0897216796875
0, 6, 92, 285.415771484375
0, 6, 93, 296.3805847167969
0, 6, 94, 271.821044921875
0, 6, 95, 299.6620788574219
0, 6, 96, 348.48095703125
0, 6, 97, 307.7337646484375
0, 6, 98, 300.7101440429688
0, 6, 99, 272.2273559570312
0, 6, 100, 310.2815551757812
0, 6, 101, 293.1187133789062
0, 6, 102, 307.1788330078125
0, 6, 103, 307.4685668945312
0, 6, 104, 291.521484375
0, 6, 105, 299.8403625488281
0, 6, 106, 307.2677307128906
0, 6, 107, 305.0418701171875
0, 6, 108, 267.0397033691406
0, 6, 109, 188.1215972900391
0, 6, 110, 54.52699279785156
0, 6, 111, 22.2626838684082
0, 6, 112, 15.05215263366699
0, 6, 113, 13.91760540008545
0, 6, 114, 16.3660831451416
0, 6, 115, 12.16105651855469
0, 6, 116, 8.495320320129395
0, 6, 117, 6.844549655914307
0, 6, 118, 7.336960792541504
0, 6, 119, 8.833386421203613
0, 6, 120, 7.552566051483154
0, 6, 121, 8.545791625976562
0, 6, 122, 7.642897605895996
0, 6, 123, 4.625228881835938
0, 6, 124, 5.335968017578125
0, 6, 125, 7.870244979858398
0, 6, 126, 3.339699029922485
0, 6, 127, 5.251076698303223
0, 7, 0, 4.051668643951416
0, 7, 1, 3.920256614685059
0, 7, 2, 4.729104518890381
0, 7, 3, 4.79506778717041
0, 7, 4, 6.198463439941406
0, 7, 5, 3.89109468460083
0, 7, 6, 5.801072597503662
0, 7, 7, 6.231784343719482
0, 7, 8, 5.337481021881104
0, 7, 9, 8.536083221435547
0, 7, 10, 7.216753482818604
0, 7, 11, 11.90787124633789
0, 7, 12, 8.253045082092285
0, 7, 13, 13.145263671875
0, 7, 14, 11.65253639221191
0, 7, 15, 15.42195510864258
0, 7, 16, 25.55007171630859
0, 7, 17, 99.21190643310547
0, 7, 18, 218.1126556396484
0, 7, 19, 289.3244934082031
0, 7, 20, 298.1573181152344
0, 7, 21, 278.1445617675781
0, 7, 22, 301.0278625488281
0, 7, 23, 290.2586364746094
0, 7, 24, 313.9380187988281
0, 7, 25, 325.9881591796875
0, 7, 26, 276.9075622558594
0, 7, 27, 297.6322021484375
0, 7, 28, 328.1073303222656
0, 7, 29, 316.3937683105469
0, 7, 30, 299.2046813964844
0, 7, 31, 276.8837585449219
0, 7, 32, 306.5303649902344
0, 7, 33, 262.197265625
0, 7, 34, 297.2244873046875
0, 7, 35, 320.6900329589844
0, 7, 36, 333.8290710449219
0, 7, 37, 324.37548828125
0, 7, 38, 297.4091796875
0, 7, 39, 307.6863708496094
0, 7, 40, 288.224853515625
0, 7, 41, 270.7056884765625
0, 7, 42, 301.2249755859375
0, 7, 43, 275.4463500976562
0, 7, 44, 304.7991638183594
0, 7, 45, 296.0997924804688
0, 7, 46, 281.7967529296875
0, 7, 47, 328.9188537597656
0, 7, 48, 285.0565185546875
0, 7, 49, 300.5024719238281
0, 7, 50, 321.5204467773438
0, 7, 51, 299.2774658203125
0, 7, 52, 329.065185546875
0, 7, 53, 307.0008239746094
0, 7, 54, 322.5619812011719
0, 7, 55, 306.4468383789062
0, 7, 56, 278.4155883789062
0, 7, 57, 281.1585998535156
0, 7, 58, 297.7429809570312
0, 7, 59, 291.7612609863281
0, 7, 60, 323.3833312988281
0, 7, 61, 277.7516784667969
0, 7, 62, 296.5664367675781
0, 7, 63, 295.2374267578125
0, 7, 64, 306.5835876464844
0, 7, 65, 332.4755249023438
0, 7, 66, 318.0608215332031
0, 7, 67, 301.23291015625
0, 7, 68, 279.3680114746094
0, 7, 69, 296.2187805175781
0, 7, 70, 303.0714416503906
0, 7, 71, 309.8007202148438
0, 7, 72, 286.2962341308594
0, 7, 73, 296.8385009765625
0, 7, 74, 346.8436889648438
0, 7, 75, 318.48486328125
0, 7, 76, 322.8406372070312
0, 7, 77, 281.0828247070312
0, 7, 78, 300.6917724609375
0, 7, 79, 297.4228820800781
0, 7, 80, 311.7336730957031
0, 7, 81, 319.7236328125
0, 7, 82, 330.5661010742188
0, 7, 83, 316.3664855957031
0, 7, 84, 309.6173400878906
0, 7, 85, 272.2127685546875
0, 7, 86, 309.9988098144531
0, 7, 87, 313.9188537597656
0, 7, 88, 308.771240234375
0, 7, 89, 296.7207336425781
0, 7, 90, 305.9963684082031
0, 7, 91, 315.5149841308594
0, 7, 92, 286.1839599609375
0, 7, 93, 308.1036071777344
0, 7, 94, 272.5841369628906
0, 7, 95, 298.3272399902344
0, 7, 96, 331.8229370117188
0, 7, 97, 295.5875244140625
0, 7, 98, 289.8381652832031
0, 7, 99, 310.5886535644531
0, 7, 100, 283.9318237304688
0, 7, 101, 275.922607421875
0, 7, 102, 290.3492431640625
0, 7, 103, 290.7646484375
0, 7, 104, 273.8450622558594
0, 7, 105, 309.662109375
0, 7, 106, 318.5304870605469
0, 7, 107, 298.3419799804688
0, 7, 108, 273.7332458496094
0, 7, 109, 235.6069946289062
0, 7, 110, 95.71923828125
0, 7, 111, 23.18487548828125
0, 7, 112, 13.97754096984863
0, 7, 113, 14.66954040527344
0, 7, 114, 11.69541358947754
0, 7, 115, 10.83928108215332
0, 7, 116, 12.1819314956665
0, 7, 117, 5.280972003936768
0, 7, 118, 8.130236625671387
0, 7, 119, 6.754897117614746
0, 7, 120, 4.316176414489746
0, 7, 121, 5.74605655670166
0, 7, 122, 6.95551061630249
0, 7, 123, 4.993339538574219
0, 7, 124, 4.406617164611816
0, 7, 125, 6.561009883880615
0, 7, 126, 6.771886825561523
0, 7, 127, 4.881247043609619
0, 8, 0, 4.37385368347168
0, 8, 1, 4.892999172210693
0, 8, 2, 3.082771301269531
0, 8, 3, 2.763471841812134
0, 8, 4, 3.41509485244751
0, 8, 5, 3.675854682922363
0, 8, 6, 5.640534400939941
0, 8, 7, 4.680543422698975
0, 8, 8, 6.8759765625
0, 8, 9, 5.868869304656982
0, 8, 10, 6.967777252197266
0, 8, 11, 12.39821815490723
0, 8, 12, 12.6985387802124
0, 8, 13, 16.74704170227051
0, 8, 14, 13.20942974090576
0, 8, 15, 19.6701774597168
0, 8, 16, 34.6021728515625
0, 8, 17, 129.5377960205078
0, 8, 18, 243.7306060791016
0, 8, 19, 295.4288024902344
0, 8, 20, 291.12109375
0, 8, 21, 306.72314453125
0, 8, 22, 296.1411743164062
0, 8, 23, 273.7698364257812
0, 8, 24, 268.7232666015625
0, 8, 25, 277.427978515625
0, 8, 26, 305.4629516601562
0, 8, 27, 307.0827026367188
0, 8, 28, 303.448486328125
0, 8, 29, 321.0511169433594
0, 8, 30, 322.0565185546875
0, 8, 31, 304.3709716796875
0, 8, 32, 279.8930358886719
0, 8, 33, 295.357177734375
0, 8, 34, 287.8223266601562
0, 8, 35, 281.4804077148438
0, 8, 36, 318.0490417480469
0, 8, 37, 337.8666687011719
0, 8, 38, 331.5727844238281
0, 8, 39, 279.6644287109375
0, 8, 40, 304.8982849121094
0, 8, 41, 291.03515625
