# TOPAS Version: 3.1.p3
# Parameter File: batch_inserts_96.txt
# Results for scorer Readout_Adipose
# Scored in component: MyBox
# X in 1 bin  of 0.75 cm
# Y in 512 bins of 0.0783984 cm
# Z in 128 bins of 0.078125 cm
# EnergyDeposit ( MeV ) : Sum   
0, 0, 0, 4.572640895843506
0, 0, 1, 2.405931234359741
0, 0, 2, 2.492874145507812
0, 0, 3, 2.204953193664551
0, 0, 4, 3.102552890777588
0, 0, 5, 1.547600746154785
0, 0, 6, 5.598118305206299
0, 0, 7, 8.239724159240723
0, 0, 8, 2.31490421295166
0, 0, 9, 3.57088565826416
0, 0, 10, 6.578225612640381
0, 0, 11, 3.547878265380859
0, 0, 12, 3.681806087493896
0, 0, 13, 6.152790069580078
0, 0, 14, 7.142236232757568
0, 0, 15, 9.805238723754883
0, 0, 16, 8.970131874084473
0, 0, 17, 10.9349365234375
0, 0, 18, 12.7011137008667
0, 0, 19, 47.51885986328125
0, 0, 20, 138.5759887695312
0, 0, 21, 223.3204498291016
0, 0, 22, 251.467041015625
0, 0, 23, 257.5563659667969
0, 0, 24, 250.1517486572266
0, 0, 25, 258.2150268554688
0, 0, 26, 233.6306304931641
0, 0, 27, 237.6953277587891
0, 0, 28, 274.1875610351562
0, 0, 29, 253.58349609375
0, 0, 30, 231.4969635009766
0, 0, 31, 246.1823577880859
0, 0, 32, 263.9706420898438
0, 0, 33, 260.673583984375
0, 0, 34, 286.1505432128906
0, 0, 35, 266.7859497070312
0, 0, 36, 247.7622680664062
0, 0, 37, 252.2338104248047
0, 0, 38, 272.7415161132812
0, 0, 39, 229.6314849853516
0, 0, 40, 242.4526672363281
0, 0, 41, 265.030517578125
0, 0, 42, 232.0354156494141
0, 0, 43, 258.4971923828125
0, 0, 44, 250.2219543457031
0, 0, 45, 253.5180358886719
0, 0, 46, 244.7661285400391
0, 0, 47, 253.4203338623047
0, 0, 48, 269.2366943359375
0, 0, 49, 275.8125
0, 0, 50, 251.5554809570312
0, 0, 51, 254.9169769287109
0, 0, 52, 273.2095336914062
0, 0, 53, 290.8591613769531
0, 0, 54, 242.9369506835938
0, 0, 55, 240.2429962158203
0, 0, 56, 277.8376770019531
0, 0, 57, 262.5155944824219
0, 0, 58, 247.1719512939453
0, 0, 59, 271.474609375
0, 0, 60, 234.03271484375
0, 0, 61, 244.3416442871094
0, 0, 62, 256.9504699707031
0, 0, 63, 268.3814086914062
0, 0, 64, 255.2918853759766
0, 0, 65, 260.5154724121094
0, 0, 66, 274.9756774902344
0, 0, 67, 247.0035858154297
0, 0, 68, 259.5351257324219
0, 0, 69, 262.0653076171875
0, 0, 70, 271.7938537597656
0, 0, 71, 236.1448669433594
0, 0, 72, 250.5371398925781
0, 0, 73, 258.920166015625
0, 0, 74, 251.3606567382812
0, 0, 75, 240.3441467285156
0, 0, 76, 227.1173400878906
0, 0, 77, 261.3497009277344
0, 0, 78, 255.6160583496094
0, 0, 79, 278.7494201660156
0, 0, 80, 215.4590301513672
0, 0, 81, 267.1794128417969
0, 0, 82, 256.5173950195312
0, 0, 83, 244.9609527587891
0, 0, 84, 272.4268188476562
0, 0, 85, 231.5695190429688
0, 0, 86, 253.4591674804688
0, 0, 87, 250.4499969482422
0, 0, 88, 260.3788146972656
0, 0, 89, 282.9044494628906
0, 0, 90, 242.5807495117188
0, 0, 91, 281.1980895996094
0, 0, 92, 255.6397399902344
0, 0, 93, 248.8283386230469
0, 0, 94, 249.0907440185547
0, 0, 95, 250.84375
0, 0, 96, 275.5921936035156
0, 0, 97, 272.3002014160156
0, 0, 98, 273.2046813964844
0, 0, 99, 258.320068359375
0, 0, 100, 257.5207214355469
0, 0, 101, 227.21875
0, 0, 102, 232.1846466064453
0, 0, 103, 271.0648803710938
0, 0, 104, 253.3084869384766
0, 0, 105, 251.7870178222656
0, 0, 106, 247.4341430664062
0, 0, 107, 152.0025787353516
0, 0, 108, 37.65328979492188
0, 0, 109, 11.88765239715576
0, 0, 110, 12.00911617279053
0, 0, 111, 8.584077835083008
0, 0, 112, 8.078204154968262
0, 0, 113, 4.920953273773193
0, 0, 114, 8.191198348999023
0, 0, 115, 4.431248664855957
0, 0, 116, 5.689060211181641
0, 0, 117, 6.502083301544189
0, 0, 118, 6.233134746551514
0, 0, 119, 5.088092803955078
0, 0, 120, 4.02845573425293
0, 0, 121, 3.9151291847229
0, 0, 122, 4.463476657867432
0, 0, 123, 3.853600263595581
0, 0, 124, 7.360582828521729
0, 0, 125, 4.381874084472656
0, 0, 126, 4.868858814239502
0, 0, 127, 2.934414625167847
0, 1, 0, 9.356287956237793
0, 1, 1, 3.268352270126343
0, 1, 2, 5.584546089172363
0, 1, 3, 4.404031753540039
0, 1, 4, 3.787612199783325
0, 1, 5, 3.581898927688599
0, 1, 6, 6.604840278625488
0, 1, 7, 3.256604671478271
0, 1, 8, 7.310698986053467
0, 1, 9, 6.109743118286133
0, 1, 10, 8.230571746826172
0, 1, 11, 10.86148357391357
0, 1, 12, 8.461315155029297
0, 1, 13, 10.36124420166016
0, 1, 14, 7.93538761138916
0, 1, 15, 7.838905811309814
0, 1, 16, 11.66863632202148
0, 1, 17, 11.16979026794434
0, 1, 18, 22.73905181884766
0, 1, 19, 66.39995574951172
0, 1, 20, 198.1242523193359
0, 1, 21, 256.5323791503906
0, 1, 22, 297.3212890625
0, 1, 23, 283.3416748046875
0, 1, 24, 276.437255859375
0, 1, 25, 288.0746154785156
0, 1, 26, 268.0620727539062
0, 1, 27, 306.9383544921875
0, 1, 28, 300.7360534667969
0, 1, 29, 296.6472778320312
0, 1, 30, 280.5050964355469
0, 1, 31, 291.0807189941406
0, 1, 32, 292.0240173339844
0, 1, 33, 295.7843627929688
0, 1, 34, 294.6809387207031
0, 1, 35, 279.2347106933594
0, 1, 36, 307.37744140625
0, 1, 37, 294.1574401855469
0, 1, 38, 280.7951354980469
0, 1, 39, 295.1871032714844
0, 1, 40, 267.3825073242188
0, 1, 41, 288.305419921875
0, 1, 42, 289.6233825683594
0, 1, 43, 333.6912536621094
0, 1, 44, 279.2812805175781
0, 1, 45, 292.5114135742188
0, 1, 46, 259.0208435058594
0, 1, 47, 310.7270202636719
0, 1, 48, 285.6355285644531
0, 1, 49, 303.3167419433594
0, 1, 50, 263.5755920410156
0, 1, 51, 271.9268188476562
0, 1, 52, 295.7481994628906
0, 1, 53, 304.3456115722656
0, 1, 54, 275.4999694824219
0, 1, 55, 294.8764953613281
0, 1, 56, 276.4086303710938
0, 1, 57, 298.0475158691406
0, 1, 58, 312.0376892089844
0, 1, 59, 294.1670532226562
0, 1, 60, 296.5818786621094
0, 1, 61, 274.1896057128906
0, 1, 62, 308.9881286621094
0, 1, 63, 288.0630493164062
0, 1, 64, 288.5166320800781
0, 1, 65, 294.41943359375
0, 1, 66, 292.8983459472656
0, 1, 67, 291.406982421875
0, 1, 68, 278.1721801757812
0, 1, 69, 281.155029296875
0, 1, 70, 270.4153442382812
0, 1, 71, 274.3372802734375
0, 1, 72, 285.0499877929688
0, 1, 73, 305.4761962890625
0, 1, 74, 303.37255859375
0, 1, 75, 291.9854125976562
0, 1, 76, 284.8778686523438
0, 1, 77, 289.2283020019531
0, 1, 78, 297.3196411132812
0, 1, 79, 299.2170715332031
0, 1, 80, 296.0555725097656
0, 1, 81, 300.7051391601562
0, 1, 82, 282.1877136230469
0, 1, 83, 334.3278198242188
0, 1, 84, 307.9734497070312
0, 1, 85, 252.3600311279297
0, 1, 86, 293.676025390625
0, 1, 87, 290.1527099609375
0, 1, 88, 299.0064086914062
0, 1, 89, 289.4726257324219
0, 1, 90, 271.0602111816406
0, 1, 91, 317.2310791015625
0, 1, 92, 292.6417541503906
0, 1, 93, 286.9054565429688
0, 1, 94, 305.9100952148438
0, 1, 95, 285.4776611328125
0, 1, 96, 283.0768432617188
0, 1, 97, 303.8202514648438
0, 1, 98, 278.573974609375
0, 1, 99, 266.5943908691406
0, 1, 100, 277.2254028320312
0, 1, 101, 281.1587524414062
0, 1, 102, 278.8597717285156
0, 1, 103, 280.6886291503906
0, 1, 104, 305.6809692382812
0, 1, 105, 296.6229858398438
0, 1, 106, 260.37353515625
0, 1, 107, 191.2628021240234
0, 1, 108, 82.96602630615234
0, 1, 109, 25.16432571411133
0, 1, 110, 10.46055698394775
0, 1, 111, 8.907456398010254
0, 1, 112, 12.77587413787842
0, 1, 113, 5.615515232086182
0, 1, 114, 5.7436842918396
0, 1, 115, 6.365011692047119
0, 1, 116, 12.88742160797119
0, 1, 117, 5.50510311126709
0, 1, 118, 6.050910949707031
0, 1, 119, 6.691088676452637
0, 1, 120, 9.848606109619141
0, 1, 121, 3.009459495544434
0, 1, 122, 2.863926887512207
0, 1, 123, 4.989998340606689
0, 1, 124, 8.820646286010742
0, 1, 125, 4.368740558624268
0, 1, 126, 1.502359509468079
0, 1, 127, 1.484533071517944
0, 2, 0, 4.692491054534912
0, 2, 1, 2.283089876174927
0, 2, 2, 3.977985858917236
0, 2, 3, 5.787960052490234
0, 2, 4, 5.130626678466797
0, 2, 5, 1.523417115211487
0, 2, 6, 3.777885437011719
0, 2, 7, 6.258502960205078
0, 2, 8, 6.28018856048584
0, 2, 9, 4.346539974212646
0, 2, 10, 9.297208786010742
0, 2, 11, 5.470361232757568
0, 2, 12, 9.350676536560059
0, 2, 13, 13.12272262573242
0, 2, 14, 10.68025684356689
0, 2, 15, 8.847831726074219
0, 2, 16, 10.14235782623291
0, 2, 17, 17.53885841369629
0, 2, 18, 29.38620567321777
0, 2, 19, 116.1414108276367
0, 2, 20, 246.0418090820312
0, 2, 21, 270.3592224121094
0, 2, 22, 315.4474792480469
0, 2, 23, 302.1250915527344
0, 2, 24, 287.0878295898438
0, 2, 25, 302.2752990722656
0, 2, 26, 293.1894836425781
0, 2, 27, 275.5990295410156
0, 2, 28, 271.599853515625
0, 2, 29, 274.0577697753906
0, 2, 30, 292.6487731933594
0, 2, 31, 279.2019348144531
0, 2, 32, 293.2392883300781
0, 2, 33, 281.2705688476562
0, 2, 34, 331.0080261230469
0, 2, 35, 287.8401184082031
0, 2, 36, 302.339111328125
0, 2, 37, 316.198486328125
0, 2, 38, 309.3948059082031
0, 2, 39, 266.3234252929688
0, 2, 40, 310.6275024414062
0, 2, 41, 291.2144165039062
0, 2, 42, 303.6051025390625
0, 2, 43, 312.3065185546875
0, 2, 44, 310.4085083007812
0, 2, 45, 324.8619689941406
0, 2, 46, 287.8821716308594
0, 2, 47, 303.337646484375
0, 2, 48, 280.3744812011719
0, 2, 49, 276.6353149414062
0, 2, 50, 297.7260437011719
0, 2, 51, 284.41015625
0, 2, 52, 271.6934204101562
0, 2, 53, 289.2044982910156
0, 2, 54, 280.1791687011719
0, 2, 55, 276.611328125
0, 2, 56, 300.7721252441406
0, 2, 57, 292.0652770996094
0, 2, 58, 303.727783203125
0, 2, 59, 288.2991943359375
0, 2, 60, 317.5436096191406
0, 2, 61, 301.3438720703125
0, 2, 62, 312.8705444335938
0, 2, 63, 300.2696533203125
0, 2, 64, 295.792236328125
0, 2, 65, 314.0477294921875
0, 2, 66, 279.8243713378906
0, 2, 67, 290.9905395507812
0, 2, 68, 295.6498718261719
0, 2, 69, 310.493408203125
0, 2, 70, 334.3592834472656
0, 2, 71, 283.8690185546875
0, 2, 72, 300.3829345703125
0, 2, 73, 310.4823913574219
0, 2, 74, 285.7797241210938
0, 2, 75, 304.4236450195312
0, 2, 76, 288.156982421875
0, 2, 77, 297.7472534179688
0, 2, 78, 316.42333984375
0, 2, 79, 307.3136291503906
0, 2, 80, 299.35498046875
0, 2, 81, 282.6740417480469
0, 2, 82, 318.0953674316406
0, 2, 83, 311.3704223632812
0, 2, 84, 287.3477783203125
0, 2, 85, 282.1823425292969
0, 2, 86, 324.0349731445312
0, 2, 87, 286.4516906738281
0, 2, 88, 283.7476806640625
0, 2, 89, 295.1770324707031
0, 2, 90, 294.9149169921875
0, 2, 91, 275.6619262695312
0, 2, 92, 309.0392150878906
0, 2, 93, 317.6574401855469
0, 2, 94, 293.9847717285156
0, 2, 95, 315.2088928222656
0, 2, 96, 314.5943298339844
0, 2, 97, 291.8037109375
0, 2, 98, 294.3859252929688
0, 2, 99, 272.5708618164062
0, 2, 100, 306.3877563476562
0, 2, 101, 301.6371154785156
0, 2, 102, 296.8848876953125
0, 2, 103, 291.8582153320312
0, 2, 104, 293.4738159179688
0, 2, 105, 274.2382202148438
0, 2, 106, 296.9595642089844
0, 2, 107, 268.3167724609375
0, 2, 108, 116.0420989990234
0, 2, 109, 32.36164093017578
0, 2, 110, 9.902498245239258
0, 2, 111, 11.02655029296875
0, 2, 112, 7.809515476226807
0, 2, 113, 10.27199268341064
0, 2, 114, 10.40148258209229
0, 2, 115, 8.387887001037598
0, 2, 116, 8.127468109130859
0, 2, 117, 7.057979106903076
0, 2, 118, 5.954652309417725
0, 2, 119, 4.683796405792236
0, 2, 120, 5.647344589233398
0, 2, 121, 3.472382307052612
0, 2, 122, 6.628086566925049
0, 2, 123, 6.412096977233887
0, 2, 124, 3.024451017379761
0, 2, 125, 4.936546325683594
0, 2, 126, 6.391990661621094
0, 2, 127, 5.332852840423584
0, 3, 0, 3.00282096862793
0, 3, 1, 3.280194520950317
0, 3, 2, 4.012424468994141
0, 3, 3, 2.350776195526123
0, 3, 4, 3.156449794769287
0, 3, 5, 6.738130569458008
0, 3, 6, 7.244044780731201
0, 3, 7, 6.259958267211914
0, 3, 8, 4.793416976928711
0, 3, 9, 5.691465377807617
0, 3, 10, 7.510739326477051
0, 3, 11, 4.040040969848633
0, 3, 12, 7.645322322845459
0, 3, 13, 14.60390472412109
0, 3, 14, 10.58434963226318
0, 3, 15, 12.90240859985352
0, 3, 16, 10.93310928344727
0, 3, 17, 19.30631256103516
0, 3, 18, 53.62199783325195
0, 3, 19, 176.0205688476562
0, 3, 20, 269.2118835449219
0, 3, 21, 271.3219604492188
0, 3, 22, 282.2147827148438
0, 3, 23, 286.9464111328125
0, 3, 24, 287.0771179199219
0, 3, 25, 270.5285339355469
0, 3, 26, 304.4706420898438
0, 3, 27, 292.3391723632812
0, 3, 28, 280.5232543945312
0, 3, 29, 337.5205078125
0, 3, 30, 317.0189208984375
0, 3, 31, 284.315185546875
0, 3, 32, 306.9702453613281
0, 3, 33, 313.602294921875
0, 3, 34, 323.8103637695312
0, 3, 35, 305.9226379394531
0, 3, 36, 267.7474975585938
0, 3, 37, 316.8913269042969
0, 3, 38, 304.4068908691406
0, 3, 39, 290.0827331542969
0, 3, 40, 267.7523193359375
0, 3, 41, 299.188720703125
0, 3, 42, 285.9076843261719
0, 3, 43, 305.7953796386719
0, 3, 44, 311.3122863769531
0, 3, 45, 290.3145141601562
0, 3, 46, 327.9835205078125
0, 3, 47, 298.0776672363281
0, 3, 48, 307.7794189453125
0, 3, 49, 277.2600402832031
0, 3, 50, 291.2971496582031
0, 3, 51, 275.8860778808594
0, 3, 52, 316.1351318359375
0, 3, 53, 287.2697448730469
0, 3, 54, 283.2369995117188
0, 3, 55, 283.6517944335938
0, 3, 56, 300.0642700195312
0, 3, 57, 288.6339416503906
0, 3, 58, 306.8636169433594
0, 3, 59, 295.2983093261719
0, 3, 60, 297.84130859375
0, 3, 61, 265.8180541992188
0, 3, 62, 283.3377075195312
0, 3, 63, 307.8513488769531
0, 3, 64, 316.9680480957031
0, 3, 65, 305.1180725097656
0, 3, 66, 314.0792236328125
0, 3, 67, 317.7709045410156
0, 3, 68, 280.3004150390625
0, 3, 69, 285.3143920898438
0, 3, 70, 289.6487121582031
0, 3, 71, 299.06982421875
0, 3, 72, 269.6205139160156
0, 3, 73, 309.876708984375
0, 3, 74, 294.1353454589844
0, 3, 75, 292.7198181152344
0, 3, 76, 306.7305603027344
0, 3, 77, 314.1331176757812
0, 3, 78, 304.4189758300781
0, 3, 79, 284.2682495117188
0, 3, 80, 290.3338317871094
0, 3, 81, 310.4578552246094
0, 3, 82, 315.9381713867188
0, 3, 83, 300.5797119140625
0, 3, 84, 312.5311889648438
0, 3, 85, 294.1068725585938
0, 3, 86, 301.926513671875
0, 3, 87, 298.9696960449219
0, 3, 88, 297.9583740234375
0, 3, 89, 296.0599365234375
0, 3, 90, 276.4084777832031
0, 3, 91, 286.408935546875
0, 3, 92, 304.1031494140625
0, 3, 93, 316.185546875
0, 3, 94, 297.8539733886719
0, 3, 95, 334.6270141601562
0, 3, 96, 289.1272888183594
0, 3, 97, 284.3721923828125
0, 3, 98, 280.9722290039062
0, 3, 99, 263.2709045410156
0, 3, 100, 283.6730651855469
0, 3, 101, 298.0716552734375
0, 3, 102, 273.6067504882812
0, 3, 103, 320.1667785644531
0, 3, 104, 308.2409973144531
0, 3, 105, 288.9996337890625
0, 3, 106, 301.0487060546875
0, 3, 107, 281.9308471679688
0, 3, 108, 166.3617095947266
0, 3, 109, 58.16273880004883
0, 3, 110, 20.09734344482422
0, 3, 111, 13.07231903076172
0, 3, 112, 12.38558769226074
0, 3, 113, 6.7198166847229
0, 3, 114, 10.51757621765137
0, 3, 115, 7.208451271057129
0, 3, 116, 9.008519172668457
0, 3, 117, 5.686845302581787
0, 3, 118, 4.656322002410889
0, 3, 119, 3.835988759994507
0, 3, 120, 8.067778587341309
0, 3, 121, 3.469130754470825
0, 3, 122, 1.987547278404236
0, 3, 123, 4.740542888641357
0, 3, 124, 5.808356761932373
0, 3, 125, 6.37570333480835
0, 3, 126, 4.212466716766357
0, 3, 127, 4.517109394073486
0, 4, 0, 3.787926197052002
0, 4, 1, 4.53741979598999
0, 4, 2, 3.876452445983887
0, 4, 3, 1.239640355110168
0, 4, 4, 5.775826454162598
0, 4, 5, 8.764720916748047
0, 4, 6, 5.79805326461792
0, 4, 7, 4.570761203765869
0, 4, 8, 4.031507015228271
0, 4, 9, 6.812942504882812
0, 4, 10, 7.886621952056885
0, 4, 11, 7.294795513153076
0, 4, 12, 5.308159351348877
0, 4, 13, 8.743488311767578
0, 4, 14, 14.25885009765625
0, 4, 15, 9.486543655395508
0, 4, 16, 13.87653923034668
0, 4, 17, 18.96481895446777
0, 4, 18, 93.70616912841797
0, 4, 19, 223.2041320800781
0, 4, 20, 283.7069702148438
0, 4, 21, 273.2719421386719
0, 4, 22, 305.9578247070312
0, 4, 23, 266.7202758789062
0, 4, 24, 290.678466796875
0, 4, 25, 272.5652160644531
0, 4, 26, 294.6387634277344
0, 4, 27, 283.8671264648438
0, 4, 28, 305.7798767089844
0, 4, 29, 322.0044250488281
0, 4, 30, 310.5952453613281
0, 4, 31, 302.5397338867188
0, 4, 32, 281.1609191894531
0, 4, 33, 294.9901428222656
0, 4, 34, 296.6077270507812
0, 4, 35, 313.9279479980469
0, 4, 36, 293.3161010742188
0, 4, 37, 286.4613037109375
0, 4, 38, 300.2931823730469
0, 4, 39, 295.1623840332031
0, 4, 40, 301.5355529785156
0, 4, 41, 311.2793884277344
0, 4, 42, 329.54541015625
0, 4, 43, 298.954345703125
0, 4, 44, 321.3634338378906
0, 4, 45, 322.6228637695312
0, 4, 46, 304.6902160644531
0, 4, 47, 293.6789245605469
0, 4, 48, 295.4443664550781
0, 4, 49, 278.0710144042969
0, 4, 50, 296.9807739257812
0, 4, 51, 315.4842529296875
0, 4, 52, 325.9426574707031
0, 4, 53, 303.4345092773438
0, 4, 54, 289.0826721191406
0, 4, 55, 315.9863891601562
0, 4, 56, 287.1720886230469
0, 4, 57, 309.644775390625
0, 4, 58, 295.70263671875
0, 4, 59, 309.3403625488281
0, 4, 60, 301.3072204589844
0, 4, 61, 316.8104248046875
0, 4, 62, 308.4744567871094
0, 4, 63, 298.1888427734375
0, 4, 64, 329.926025390625
0, 4, 65, 314.7769165039062
0, 4, 66, 294.2499389648438
0, 4, 67, 283.89599609375
0, 4, 68, 311.3765563964844
0, 4, 69, 275.9324340820312
0, 4, 70, 299.2979431152344
0, 4, 71, 324.43701171875
0, 4, 72, 332.8551330566406
0, 4, 73, 299.3683471679688
0, 4, 74, 293.0171203613281
0, 4, 75, 290.2733764648438
0, 4, 76, 274.662109375
0, 4, 77, 280.1619873046875
0, 4, 78, 307.4977722167969
0, 4, 79, 319.7412109375
0, 4, 80, 316.6530151367188
0, 4, 81, 314.6624145507812
0, 4, 82, 297.1985778808594
0, 4, 83, 300.7704772949219
0, 4, 84, 293.2432861328125
0, 4, 85, 293.2773742675781
0, 4, 86, 297.1732482910156
0, 4, 87, 285.88525390625
0, 4, 88, 306.0000305175781
0, 4, 89, 296.6890563964844
0, 4, 90, 332.4009704589844
0, 4, 91, 300.0734252929688
0, 4, 92, 290.0296020507812
0, 4, 93, 296.5500793457031
0, 4, 94, 293.4011535644531
0, 4, 95, 290.9782409667969
0, 4, 96, 326.5673828125
0, 4, 97, 275.7401733398438
0, 4, 98, 327.6519165039062
0, 4, 99, 313.5964050292969
0, 4, 100, 301.08642578125
0, 4, 101, 257.6557312011719
0, 4, 102, 295.3948669433594
0, 4, 103, 316.6300354003906
0, 4, 104, 281.5972900390625
0, 4, 105, 310.5722351074219
0, 4, 106, 286.2741394042969
0, 4, 107, 292.8371276855469
0, 4, 108, 226.1669616699219
0, 4, 109, 81.39523315429688
0, 4, 110, 17.24630355834961
0, 4, 111, 15.08926677703857
0, 4, 112, 9.676530838012695
0, 4, 113, 10.23075103759766
0, 4, 114, 7.188599109649658
0, 4, 115, 12.10463905334473
0, 4, 116, 10.32010746002197
0, 4, 117, 8.145322799682617
0, 4, 118, 9.401970863342285
0, 4, 119, 11.91461753845215
0, 4, 120, 6.706545829772949
0, 4, 121, 4.236729145050049
0, 4, 122, 4.462662220001221
0, 4, 123, 6.183732509613037
0, 4, 124, 6.174071311950684
0, 4, 125, 6.639177799224854
0, 4, 126, 4.448318958282471
0, 4, 127, 5.448674201965332
0, 5, 0, 3.016430377960205
0, 5, 1, 5.378507614135742
0, 5, 2, 5.272927284240723
0, 5, 3, 4.933428764343262
0, 5, 4, 4.733665466308594
0, 5, 5, 5.768714427947998
0, 5, 6, 7.246875286102295
0, 5, 7, 4.428064346313477
0, 5, 8, 4.954453468322754
0, 5, 9, 5.301225662231445
0, 5, 10, 6.868998527526855
0, 5, 11, 10.41779136657715
0, 5, 12, 7.573520660400391
0, 5, 13, 6.326977252960205
0, 5, 14, 12.67896366119385
0, 5, 15, 15.45816802978516
0, 5, 16, 16.74882316589355
0, 5, 17, 28.54147529602051
0, 5, 18, 137.0082702636719
0, 5, 19, 287.4919128417969
0, 5, 20, 307.0463256835938
0, 5, 21, 315.9151000976562
0, 5, 22, 275.9115295410156
0, 5, 23, 309.3651123046875
0, 5, 24, 302.8428955078125
0, 5, 25, 289.7984008789062
0, 5, 26, 294.00927734375
0, 5, 27, 322.2251892089844
0, 5, 28, 303.3511047363281
0, 5, 29, 297.9716796875
0, 5, 30, 325.0115661621094
0, 5, 31, 289.2362060546875
0, 5, 32, 304.1806640625
0, 5, 33, 304.3703308105469
0, 5, 34, 297.3785095214844
0, 5, 35, 312.8637084960938
0, 5, 36, 270.8612670898438
0, 5, 37, 283.6047668457031
0, 5, 38, 294.0184631347656
0, 5, 39, 310.7978820800781
0, 5, 40, 310.5546569824219
0, 5, 41, 273.42138671875
0, 5, 42, 307.2349853515625
0, 5, 43, 314.9115905761719
0, 5, 44, 293.4660949707031
0, 5, 45, 300.5973510742188
0, 5, 46, 266.4617614746094
0, 5, 47, 280.536865234375
0, 5, 48, 292.2113647460938
0, 5, 49, 286.7143249511719
0, 5, 50, 293.6954345703125
0, 5, 51, 280.8152160644531
0, 5, 52, 267.8517456054688
0, 5, 53, 285.0897216796875
0, 5, 54, 290.6310729980469
0, 5, 55, 344.72705078125
0, 5, 56, 306.9883117675781
0, 5, 57, 309.2558288574219
0, 5, 58, 311.1174621582031
0, 5, 59, 304.5083923339844
0, 5, 60, 309.0553588867188
0, 5, 61, 282.8973693847656
0, 5, 62, 324.2855224609375
0, 5, 63, 292.4687805175781
0, 5, 64, 323.2673645019531
0, 5, 65, 307.8002319335938
0, 5, 66, 330.1047058105469
0, 5, 67, 310.5248718261719
0, 5, 68, 307.1073913574219
0, 5, 69, 310.0797119140625
0, 5, 70, 300.1745910644531
0, 5, 71, 272.146240234375
0, 5, 72, 308.99267578125
0, 5, 73, 303.8262023925781
0, 5, 74, 298.51171875
0, 5, 75, 295.1129455566406
0, 5, 76, 284.4323120117188
0, 5, 77, 298.029296875
0, 5, 78, 314.3206787109375
0, 5, 79, 306.3122863769531
0, 5, 80, 297.9491271972656
0, 5, 81, 325.9188537597656
0, 5, 82, 322.7836303710938
0, 5, 83, 284.4097290039062
0, 5, 84, 303.0934753417969
0, 5, 85, 271.690185546875
0, 5, 86, 324.9442138671875
0, 5, 87, 283.6379089355469
0, 5, 88, 313.3179626464844
0, 5, 89, 307.6707153320312
0, 5, 90, 316.6395568847656
0, 5, 91, 314.3037414550781
0, 5, 92, 297.6589965820312
0, 5, 93, 323.3646850585938
0, 5, 94, 309.8847351074219
0, 5, 95, 297.0971984863281
0, 5, 96, 299.1169738769531
0, 5, 97, 299.7207946777344
0, 5, 98, 318.8401794433594
0, 5, 99, 303.3654479980469
0, 5, 100, 291.7821350097656
0, 5, 101, 304.2587280273438
0, 5, 102, 293.0406494140625
0, 5, 103, 313.1712951660156
0, 5, 104, 302.1319580078125
0, 5, 105, 290.73193359375
0, 5, 106, 280.7493591308594
0, 5, 107, 294.5339050292969
0, 5, 108, 266.1301574707031
0, 5, 109, 159.5982818603516
0, 5, 110, 38.91390609741211
0, 5, 111, 20.67720222473145
0, 5, 112, 18.64859580993652
0, 5, 113, 15.97637844085693
0, 5, 114, 13.62974548339844
0, 5, 115, 7.689061164855957
0, 5, 116, 6.989177227020264
0, 5, 117, 8.603605270385742
0, 5, 118, 14.41869831085205
0, 5, 119, 9.831714630126953
0, 5, 120, 5.871370792388916
0, 5, 121, 7.465157508850098
0, 5, 122, 5.618924617767334
0, 5, 123, 3.935094833374023
0, 5, 124, 4.066744804382324
0, 5, 125, 3.896827697753906
0, 5, 126, 5.362743854522705
0, 5, 127, 3.522160530090332
0, 6, 0, 4.242838382720947
0, 6, 1, 6.348874568939209
0, 6, 2, 4.264859676361084
0, 6, 3, 4.972423553466797
0, 6, 4, 4.858102798461914
0, 6, 5, 6.261147499084473
0, 6, 6, 7.347214698791504
0, 6, 7, 7.974379539489746
0, 6, 8, 9.383235931396484
0, 6, 9, 7.94173002243042
0, 6, 10, 7.547747611999512
0, 6, 11, 6.705334663391113
0, 6, 12, 10.68329811096191
0, 6, 13, 12.66607761383057
0, 6, 14, 7.740655899047852
0, 6, 15, 16.85989570617676
0, 6, 16, 28.37364959716797
0, 6, 17, 56.99507904052734
0, 6, 18, 172.5462951660156
0, 6, 19, 275.1125183105469
0, 6, 20, 291.7776489257812
0, 6, 21, 314.5536193847656
0, 6, 22, 320.7629089355469
0, 6, 23, 307.3475036621094
0, 6, 24, 316.7561340332031
0, 6, 25, 315.6253051757812
0, 6, 26, 319.4263916015625
0, 6, 27, 329.6826477050781
0, 6, 28, 298.91064453125
0, 6, 29, 330.2026977539062
0, 6, 30, 279.6844787597656
0, 6, 31, 285.5067443847656
0, 6, 32, 341.4014587402344
0, 6, 33, 298.6710205078125
0, 6, 34, 341.0453796386719
0, 6, 35, 319.8136596679688
0, 6, 36, 274.1744384765625
0, 6, 37, 289.25146484375
0, 6, 38, 310.6476440429688
0, 6, 39, 300.4337463378906
0, 6, 40, 283.7621154785156
0, 6, 41, 294.6929931640625
0, 6, 42, 303.2166442871094
0, 6, 43, 290.4794311523438
0, 6, 44, 279.9988098144531
0, 6, 45, 319.6357421875
0, 6, 46, 300.6970520019531
0, 6, 47, 331.9859924316406
0, 6, 48, 292.9868469238281
0, 6, 49, 312.3409729003906
0, 6, 50, 329.2017517089844
0, 6, 51, 310.6770324707031
0, 6, 52, 321.2169494628906
0, 6, 53, 327.6321411132812
0, 6, 54, 302.9667663574219
0, 6, 55, 304.2492370605469
0, 6, 56, 292.3499450683594
0, 6, 57, 314.6476745605469
0, 6, 58, 261.4303894042969
0, 6, 59, 301.4816589355469
0, 6, 60, 311.9465026855469
0, 6, 61, 271.9769287109375
0, 6, 62, 335.7083435058594
0, 6, 63, 322.7651062011719
0, 6, 64, 291.2015380859375
0, 6, 65, 288.6571960449219
0, 6, 66, 303.1242980957031
0, 6, 67, 311.125
0, 6, 68, 293.1001586914062
0, 6, 69, 277.9798583984375
0, 6, 70, 274.0849914550781
0, 6, 71, 288.7502746582031
0, 6, 72, 312.3953857421875
0, 6, 73, 293.1391296386719
0, 6, 74, 330.1543884277344
0, 6, 75, 344.6305847167969
0, 6, 76, 296.8133239746094
0, 6, 77, 286.0425109863281
0, 6, 78, 280.0956115722656
0, 6, 79, 293.8465576171875
0, 6, 80, 299.7579956054688
0, 6, 81, 314.1413269042969
0, 6, 82, 320.3065185546875
0, 6, 83, 318.850341796875
0, 6, 84, 294.6233215332031
0, 6, 85, 300.6493835449219
0, 6, 86, 329.7322998046875
0, 6, 87, 291.1669006347656
0, 6, 88, 305.646240234375
0, 6, 89, 304.7890625
0, 6, 90, 299.3516845703125
0, 6, 91, 313.1975708007812
0, 6, 92, 282.93310546875
0, 6, 93, 297.1185913085938
0, 6, 94, 271.8574829101562
0, 6, 95, 299.958984375
0, 6, 96, 350.743896484375
0, 6, 97, 307.908935546875
0, 6, 98, 302.2630615234375
0, 6, 99, 273.4676818847656
0, 6, 100, 308.4202575683594
0, 6, 101, 293.2622680664062
0, 6, 102, 310.4065551757812
0, 6, 103, 307.9578552246094
0, 6, 104, 292.4652404785156
0, 6, 105, 302.0068664550781
0, 6, 106, 306.0765686035156
0, 6, 107, 305.0504455566406
0, 6, 108, 265.1390686035156
0, 6, 109, 185.7748565673828
0, 6, 110, 55.02181625366211
0, 6, 111, 21.63672256469727
0, 6, 112, 13.16188526153564
0, 6, 113, 10.20822048187256
0, 6, 114, 15.46061229705811
0, 6, 115, 11.88510704040527
0, 6, 116, 10.92418384552002
0, 6, 117, 5.22114086151123
0, 6, 118, 9.11086368560791
0, 6, 119, 10.23930835723877
0, 6, 120, 4.930001258850098
0, 6, 121, 9.780552864074707
0, 6, 122, 8.722245216369629
0, 6, 123, 4.908166408538818
0, 6, 124, 7.308259963989258
0, 6, 125, 7.47795295715332
0, 6, 126, 5.10613489151001
0, 6, 127, 7.302843570709229
0, 7, 0, 4.662704467773438
0, 7, 1, 6.946347713470459
0, 7, 2, 5.712298393249512
0, 7, 3, 5.17881441116333
0, 7, 4, 5.316396713256836
0, 7, 5, 4.666744709014893
0, 7, 6, 9.447357177734375
0, 7, 7, 4.368990421295166
0, 7, 8, 5.036096572875977
0, 7, 9, 6.921714782714844
0, 7, 10, 8.674771308898926
0, 7, 11, 11.24141788482666
0, 7, 12, 8.679330825805664
0, 7, 13, 14.1129150390625
0, 7, 14, 12.39387512207031
0, 7, 15, 20.88531875610352
0, 7, 16, 26.22945022583008
0, 7, 17, 96.24940490722656
0, 7, 18, 219.2195434570312
0, 7, 19, 289.3479614257812
0, 7, 20, 297.1414184570312
0, 7, 21, 277.2113342285156
0, 7, 22, 300.7391052246094
0, 7, 23, 290.6889038085938
0, 7, 24, 313.6843566894531
0, 7, 25, 325.2397155761719
0, 7, 26, 278.0108337402344
0, 7, 27, 297.6634216308594
0, 7, 28, 327.6578369140625
0, 7, 29, 319.200439453125
0, 7, 30, 300.4462585449219
0, 7, 31, 276.5231628417969
0, 7, 32, 305.9639587402344
0, 7, 33, 262.1954650878906
0, 7, 34, 297.2819519042969
0, 7, 35, 317.905029296875
0, 7, 36, 329.7350769042969
0, 7, 37, 325.0686340332031
0, 7, 38, 296.7080993652344
0, 7, 39, 308.1509704589844
0, 7, 40, 290.8240051269531
0, 7, 41, 270.9957580566406
0, 7, 42, 301.9735717773438
0, 7, 43, 274.1752014160156
0, 7, 44, 303.1951904296875
0, 7, 45, 295.6424560546875
0, 7, 46, 282.1826477050781
0, 7, 47, 326.6250610351562
0, 7, 48, 289.1098022460938
0, 7, 49, 301.6479797363281
0, 7, 50, 321.0311889648438
0, 7, 51, 298.1866760253906
0, 7, 52, 326.5391540527344
0, 7, 53, 309.9587097167969
0, 7, 54, 321.3171081542969
0, 7, 55, 307.7623901367188
0, 7, 56, 279.0549011230469
0, 7, 57, 282.9792175292969
0, 7, 58, 295.4243774414062
0, 7, 59, 295.062255859375
0, 7, 60, 321.7772216796875
0, 7, 61, 276.6013793945312
0, 7, 62, 298.1318969726562
0, 7, 63, 293.7825012207031
0, 7, 64, 308.1088256835938
0, 7, 65, 330.4594116210938
0, 7, 66, 320.7970275878906
0, 7, 67, 300.9168090820312
0, 7, 68, 280.0418701171875
0, 7, 69, 294.2406311035156
0, 7, 70, 301.0690612792969
0, 7, 71, 308.1439514160156
0, 7, 72, 283.8252258300781
0, 7, 73, 295.5470581054688
0, 7, 74, 344.1594848632812
0, 7, 75, 318.9910583496094
0, 7, 76, 322.9822387695312
0, 7, 77, 279.740234375
0, 7, 78, 304.4732055664062
0, 7, 79, 296.6203308105469
0, 7, 80, 315.1024169921875
0, 7, 81, 320.7547607421875
0, 7, 82, 328.4317932128906
0, 7, 83, 319.2677001953125
0, 7, 84, 309.2221984863281
0, 7, 85, 272.0058288574219
0, 7, 86, 311.2395935058594
0, 7, 87, 312.5364074707031
0, 7, 88, 305.8989868164062
0, 7, 89, 294.4898071289062
0, 7, 90, 307.7580261230469
0, 7, 91, 316.9322204589844
0, 7, 92, 286.3518371582031
0, 7, 93, 307.7582092285156
0, 7, 94, 273.8849487304688
0, 7, 95, 296.7508850097656
0, 7, 96, 331.7113342285156
0, 7, 97, 294.3687438964844
0, 7, 98, 290.3435974121094
0, 7, 99, 312.1470031738281
0, 7, 100, 281.4761352539062
0, 7, 101, 274.4270935058594
0, 7, 102, 292.8374328613281
0, 7, 103, 291.7083435058594
0, 7, 104, 275.7582397460938
0, 7, 105, 307.0335693359375
0, 7, 106, 316.7510375976562
0, 7, 107, 298.7859497070312
0, 7, 108, 273.9139404296875
0, 7, 109, 234.2912902832031
0, 7, 110, 95.2159423828125
0, 7, 111, 23.7679271697998
0, 7, 112, 12.11845684051514
0, 7, 113, 14.39939785003662
0, 7, 114, 13.22006416320801
0, 7, 115, 12.39992523193359
0, 7, 116, 8.264464378356934
0, 7, 117, 6.317731857299805
0, 7, 118, 8.666647911071777
0, 7, 119, 4.959043025970459
0, 7, 120, 6.422732830047607
0, 7, 121, 6.375085830688477
0, 7, 122, 5.903933048248291
0, 7, 123, 5.31712532043457
0, 7, 124, 4.558407783508301
0, 7, 125, 6.131421566009521
0, 7, 126, 6.958907127380371
0, 7, 127, 3.851739645004272
0, 8, 0, 3.950639724731445
0, 8, 1, 3.056035041809082
0, 8, 2, 4.879703998565674
0, 8, 3, 4.991297721862793
0, 8, 4, 4.274692535400391
0, 8, 5, 5.865409851074219
0, 8, 6, 7.425775051116943
0, 8, 7, 5.364198684692383
0, 8, 8, 9.030335426330566
0, 8, 9, 5.123021125793457
0, 8, 10, 9.943569183349609
0, 8, 11, 10.2673864364624
0, 8, 12, 12.50556945800781
0, 8, 13, 16.31583786010742
0, 8, 14, 14.08862495422363
0, 8, 15, 20.39520454406738
0, 8, 16, 33.99380874633789
0, 8, 17, 130.4001007080078
0, 8, 18, 243.0234375
0, 8, 19, 293.326416015625
0, 8, 20, 284.8921203613281
0, 8, 21, 306.7007751464844
0, 8, 22, 295.1107788085938
0, 8, 23, 274.5313720703125
0, 8, 24, 269.1900329589844
0, 8, 25, 277.2000122070312
0, 8, 26, 305.9904479980469
0, 8, 27, 309.6940307617188
0, 8, 28, 303.7294616699219
0, 8, 29, 318.5393676757812
0, 8, 30, 316.7628784179688
0, 8, 31, 304.8077392578125
0, 8, 32, 282.287109375
0, 8, 33, 295.3528137207031
0, 8, 34, 289.2217712402344
0, 8, 35, 278.9552917480469
0, 8, 36, 314.891357421875
0, 8, 37, 339.9293823242188
0, 8, 38, 330.9378356933594
0, 8, 39, 280.8089904785156
0, 8, 40, 303.8797607421875
