# TOPAS Version: 3.1.p3
# Parameter File: batch_inserts_340.txt
# Results for scorer Readout_Adipose
# Scored in component: MyBox
# X in 1 bin  of 0.75 cm
# Y in 512 bins of 0.0783984 cm
# Z in 128 bins of 0.078125 cm
# EnergyDeposit ( MeV ) : Sum   
0, 0, 0, 2.545974254608154
0, 0, 1, 1.441498517990112
0, 0, 2, 3.534928560256958
0, 0, 3, 2.602398633956909
0, 0, 4, 2.915419340133667
0, 0, 5, 3.631304264068604
0, 0, 6, 5.478316783905029
0, 0, 7, 7.96938943862915
0, 0, 8, 4.744244575500488
0, 0, 9, 3.166935205459595
0, 0, 10, 7.802915096282959
0, 0, 11, 3.644931077957153
0, 0, 12, 5.044711589813232
0, 0, 13, 6.991153717041016
0, 0, 14, 8.034330368041992
0, 0, 15, 10.07379627227783
0, 0, 16, 9.48299503326416
0, 0, 17, 10.74179935455322
0, 0, 18, 13.72480487823486
0, 0, 19, 43.7225341796875
0, 0, 20, 138.3097229003906
0, 0, 21, 224.6576995849609
0, 0, 22, 248.7693023681641
0, 0, 23, 257.3019714355469
0, 0, 24, 250.7132110595703
0, 0, 25, 258.2331848144531
0, 0, 26, 234.6366424560547
0, 0, 27, 238.0648345947266
0, 0, 28, 271.694580078125
0, 0, 29, 253.3578186035156
0, 0, 30, 230.8943786621094
0, 0, 31, 242.9196014404297
0, 0, 32, 263.8633117675781
0, 0, 33, 259.524658203125
0, 0, 34, 287.3802185058594
0, 0, 35, 267.4138488769531
0, 0, 36, 246.5364074707031
0, 0, 37, 251.4978790283203
0, 0, 38, 269.1588134765625
0, 0, 39, 228.6065826416016
0, 0, 40, 241.3335266113281
0, 0, 41, 267.4808654785156
0, 0, 42, 229.1312561035156
0, 0, 43, 260.7717590332031
0, 0, 44, 250.7189483642578
0, 0, 45, 253.4563140869141
0, 0, 46, 243.4455871582031
0, 0, 47, 253.0072479248047
0, 0, 48, 268.7038879394531
0, 0, 49, 274.3453369140625
0, 0, 50, 251.2066650390625
0, 0, 51, 253.11328125
0, 0, 52, 272.7322082519531
0, 0, 53, 291.33544921875
0, 0, 54, 242.702880859375
0, 0, 55, 239.6276092529297
0, 0, 56, 279.4002990722656
0, 0, 57, 262.3346252441406
0, 0, 58, 245.8999176025391
0, 0, 59, 271.2904052734375
0, 0, 60, 234.8568878173828
0, 0, 61, 244.6359558105469
0, 0, 62, 255.6955261230469
0, 0, 63, 266.0613708496094
0, 0, 64, 257.1352844238281
0, 0, 65, 261.843505859375
0, 0, 66, 276.98486328125
0, 0, 67, 248.1458282470703
0, 0, 68, 258.5002746582031
0, 0, 69, 263.77783203125
0, 0, 70, 271.1257629394531
0, 0, 71, 236.8506164550781
0, 0, 72, 250.7265472412109
0, 0, 73, 257.7740783691406
0, 0, 74, 250.2355651855469
0, 0, 75, 239.8798980712891
0, 0, 76, 228.0741119384766
0, 0, 77, 261.8574829101562
0, 0, 78, 257.3334655761719
0, 0, 79, 276.6509399414062
0, 0, 80, 215.6184539794922
0, 0, 81, 269.662353515625
0, 0, 82, 257.8683776855469
0, 0, 83, 243.5641784667969
0, 0, 84, 272.4712829589844
0, 0, 85, 231.9150695800781
0, 0, 86, 255.9602966308594
0, 0, 87, 250.7440185546875
0, 0, 88, 260.357421875
0, 0, 89, 282.2752990722656
0, 0, 90, 245.0857543945312
0, 0, 91, 281.4340209960938
0, 0, 92, 252.4660034179688
0, 0, 93, 250.2237243652344
0, 0, 94, 249.5726013183594
0, 0, 95, 248.4171752929688
0, 0, 96, 274.741943359375
0, 0, 97, 272.4728698730469
0, 0, 98, 272.9316101074219
0, 0, 99, 258.2240905761719
0, 0, 100, 260.3611450195312
0, 0, 101, 226.2253723144531
0, 0, 102, 230.9435882568359
0, 0, 103, 272.4507446289062
0, 0, 104, 254.3320770263672
0, 0, 105, 251.7981567382812
0, 0, 106, 245.5340881347656
0, 0, 107, 152.4350128173828
0, 0, 108, 37.64788436889648
0, 0, 109, 12.47286605834961
0, 0, 110, 12.17781543731689
0, 0, 111, 8.018956184387207
0, 0, 112, 7.249271392822266
0, 0, 113, 4.87573766708374
0, 0, 114, 6.191344738006592
0, 0, 115, 4.744091033935547
0, 0, 116, 4.746387481689453
0, 0, 117, 8.755465507507324
0, 0, 118, 4.775608539581299
0, 0, 119, 5.844253063201904
0, 0, 120, 3.077037811279297
0, 0, 121, 4.029175281524658
0, 0, 122, 3.844752311706543
0, 0, 123, 3.402268648147583
0, 0, 124, 5.762502670288086
0, 0, 125, 2.851453065872192
0, 0, 126, 4.463665008544922
0, 0, 127, 3.009271144866943
0, 1, 0, 6.478031635284424
0, 1, 1, 4.366769790649414
0, 1, 2, 6.788375854492188
0, 1, 3, 1.983839869499207
0, 1, 4, 3.014004468917847
0, 1, 5, 2.188823461532593
0, 1, 6, 5.671859264373779
0, 1, 7, 8.66630744934082
0, 1, 8, 7.149670124053955
0, 1, 9, 3.279669046401978
0, 1, 10, 6.377576351165771
0, 1, 11, 12.01352691650391
0, 1, 12, 7.406896591186523
0, 1, 13, 8.946120262145996
0, 1, 14, 7.748003482818604
0, 1, 15, 7.144082546234131
0, 1, 16, 11.26113224029541
0, 1, 17, 9.987570762634277
0, 1, 18, 21.18249702453613
0, 1, 19, 65.29264831542969
0, 1, 20, 197.0950469970703
0, 1, 21, 254.2494049072266
0, 1, 22, 295.4743041992188
0, 1, 23, 284.1049499511719
0, 1, 24, 275.6502990722656
0, 1, 25, 291.5735778808594
0, 1, 26, 268.8504943847656
0, 1, 27, 305.9577941894531
0, 1, 28, 299.6920776367188
0, 1, 29, 297.3924560546875
0, 1, 30, 282.5723876953125
0, 1, 31, 290.6346435546875
0, 1, 32, 290.6163635253906
0, 1, 33, 298.2192077636719
0, 1, 34, 294.2432250976562
0, 1, 35, 279.1146545410156
0, 1, 36, 306.3992919921875
0, 1, 37, 296.677490234375
0, 1, 38, 278.6771850585938
0, 1, 39, 294.8622131347656
0, 1, 40, 265.8723449707031
0, 1, 41, 285.1122741699219
0, 1, 42, 292.7327270507812
0, 1, 43, 330.7057800292969
0, 1, 44, 280.4743957519531
0, 1, 45, 291.7581787109375
0, 1, 46, 258.6297302246094
0, 1, 47, 311.4362487792969
0, 1, 48, 283.2114868164062
0, 1, 49, 305.0245361328125
0, 1, 50, 262.8307189941406
0, 1, 51, 272.0352478027344
0, 1, 52, 299.1454772949219
0, 1, 53, 305.3187866210938
0, 1, 54, 274.9170532226562
0, 1, 55, 293.1989440917969
0, 1, 56, 277.3125
0, 1, 57, 299.7023315429688
0, 1, 58, 310.0556945800781
0, 1, 59, 294.6361083984375
0, 1, 60, 298.0826416015625
0, 1, 61, 276.85302734375
0, 1, 62, 306.7618408203125
0, 1, 63, 286.7854919433594
0, 1, 64, 291.2548522949219
0, 1, 65, 295.5947875976562
0, 1, 66, 293.28125
0, 1, 67, 290.6919860839844
0, 1, 68, 278.3883361816406
0, 1, 69, 281.8760070800781
0, 1, 70, 272.0340576171875
0, 1, 71, 274.5193481445312
0, 1, 72, 284.8985900878906
0, 1, 73, 303.7236328125
0, 1, 74, 305.8434448242188
0, 1, 75, 293.0811157226562
0, 1, 76, 285.8883361816406
0, 1, 77, 290.3276062011719
0, 1, 78, 296.2152404785156
0, 1, 79, 303.9136352539062
0, 1, 80, 294.6374206542969
0, 1, 81, 302.7434997558594
0, 1, 82, 284.3955993652344
0, 1, 83, 331.8507385253906
0, 1, 84, 308.2491149902344
0, 1, 85, 253.782958984375
0, 1, 86, 294.6974487304688
0, 1, 87, 290.2903442382812
0, 1, 88, 297.4954528808594
0, 1, 89, 290.5028686523438
0, 1, 90, 269.6123962402344
0, 1, 91, 317.6085815429688
0, 1, 92, 294.2147827148438
0, 1, 93, 286.0231628417969
0, 1, 94, 302.9986572265625
0, 1, 95, 283.1252746582031
0, 1, 96, 282.5802612304688
0, 1, 97, 300.5148620605469
0, 1, 98, 278.7167358398438
0, 1, 99, 265.6605224609375
0, 1, 100, 276.0338745117188
0, 1, 101, 281.7007141113281
0, 1, 102, 278.9038696289062
0, 1, 103, 281.4495239257812
0, 1, 104, 306.102783203125
0, 1, 105, 296.5957641601562
0, 1, 106, 262.9447937011719
0, 1, 107, 193.6658782958984
0, 1, 108, 83.72466278076172
0, 1, 109, 23.55692291259766
0, 1, 110, 10.96301364898682
0, 1, 111, 7.786227703094482
0, 1, 112, 11.65711307525635
0, 1, 113, 4.267295837402344
0, 1, 114, 7.7074294090271
0, 1, 115, 8.17803955078125
0, 1, 116, 10.23445320129395
0, 1, 117, 8.533623695373535
0, 1, 118, 3.955179691314697
0, 1, 119, 6.059123516082764
0, 1, 120, 5.599902629852295
0, 1, 121, 5.898502349853516
0, 1, 122, 3.490269899368286
0, 1, 123, 4.669968605041504
0, 1, 124, 7.505293846130371
0, 1, 125, 3.44405722618103
0, 1, 126, 6.174910545349121
0, 1, 127, 1.949837684631348
0, 2, 0, 8.325736045837402
0, 2, 1, 2.393000364303589
0, 2, 2, 3.911009788513184
0, 2, 3, 3.484771013259888
0, 2, 4, 2.826998949050903
0, 2, 5, 1.836837530136108
0, 2, 6, 1.921715259552002
0, 2, 7, 2.799619913101196
0, 2, 8, 6.162458419799805
0, 2, 9, 7.271957397460938
0, 2, 10, 7.277563095092773
0, 2, 11, 5.450823783874512
0, 2, 12, 7.930875301361084
0, 2, 13, 8.123154640197754
0, 2, 14, 10.91304016113281
0, 2, 15, 9.858049392700195
0, 2, 16, 9.152558326721191
0, 2, 17, 16.81321334838867
0, 2, 18, 31.568115234375
0, 2, 19, 116.7556838989258
0, 2, 20, 245.8489685058594
0, 2, 21, 274.0201721191406
0, 2, 22, 315.0644836425781
0, 2, 23, 300.8207397460938
0, 2, 24, 288.8441772460938
0, 2, 25, 302.2063598632812
0, 2, 26, 293.1879577636719
0, 2, 27, 275.8605346679688
0, 2, 28, 274.8656616210938
0, 2, 29, 273.9288940429688
0, 2, 30, 289.6013488769531
0, 2, 31, 277.9158325195312
0, 2, 32, 295.6470336914062
0, 2, 33, 280.8033752441406
0, 2, 34, 334.9825439453125
0, 2, 35, 289.6816711425781
0, 2, 36, 303.6688537597656
0, 2, 37, 316.2044982910156
0, 2, 38, 312.2461242675781
0, 2, 39, 269.003173828125
0, 2, 40, 308.6002197265625
0, 2, 41, 293.7368774414062
0, 2, 42, 303.6790771484375
0, 2, 43, 311.242919921875
0, 2, 44, 311.5382690429688
0, 2, 45, 324.9721984863281
0, 2, 46, 285.5501403808594
0, 2, 47, 302.8072204589844
0, 2, 48, 282.8216247558594
0, 2, 49, 281.7923278808594
0, 2, 50, 294.766845703125
0, 2, 51, 285.0760803222656
0, 2, 52, 270.6270751953125
0, 2, 53, 287.1116027832031
0, 2, 54, 278.6690673828125
0, 2, 55, 277.1174011230469
0, 2, 56, 301.5084228515625
0, 2, 57, 294.2153930664062
0, 2, 58, 305.7934265136719
0, 2, 59, 288.2950134277344
0, 2, 60, 321.4112548828125
0, 2, 61, 301.6096496582031
0, 2, 62, 314.9672241210938
0, 2, 63, 301.0335388183594
0, 2, 64, 298.4424743652344
0, 2, 65, 314.4300231933594
0, 2, 66, 280.193603515625
0, 2, 67, 290.1573181152344
0, 2, 68, 297.021484375
0, 2, 69, 311.0113525390625
0, 2, 70, 334.1293029785156
0, 2, 71, 284.1249389648438
0, 2, 72, 300.4577026367188
0, 2, 73, 312.7025756835938
0, 2, 74, 285.1731567382812
0, 2, 75, 306.1357421875
0, 2, 76, 288.0626220703125
0, 2, 77, 300.6305236816406
0, 2, 78, 319.1888732910156
0, 2, 79, 308.8345642089844
0, 2, 80, 296.3809509277344
0, 2, 81, 280.4402160644531
0, 2, 82, 316.9349670410156
0, 2, 83, 313.5409851074219
0, 2, 84, 288.93212890625
0, 2, 85, 282.3811340332031
0, 2, 86, 324.0486145019531
0, 2, 87, 286.8648681640625
0, 2, 88, 280.0905151367188
0, 2, 89, 296.524169921875
0, 2, 90, 296.3988342285156
0, 2, 91, 278.7781066894531
0, 2, 92, 307.4026489257812
0, 2, 93, 315.3808898925781
0, 2, 94, 292.08984375
0, 2, 95, 314.7071533203125
0, 2, 96, 314.8015441894531
0, 2, 97, 293.1934814453125
0, 2, 98, 293.3995056152344
0, 2, 99, 273.8756103515625
0, 2, 100, 305.8821411132812
0, 2, 101, 300.1955871582031
0, 2, 102, 298.8813171386719
0, 2, 103, 291.4097900390625
0, 2, 104, 292.3681640625
0, 2, 105, 273.759033203125
0, 2, 106, 296.1456298828125
0, 2, 107, 270.9990539550781
0, 2, 108, 115.7391052246094
0, 2, 109, 33.95637512207031
0, 2, 110, 10.0692195892334
0, 2, 111, 11.61810493469238
0, 2, 112, 8.01826000213623
0, 2, 113, 10.53605556488037
0, 2, 114, 8.595447540283203
0, 2, 115, 11.78369331359863
0, 2, 116, 8.169244766235352
0, 2, 117, 8.582112312316895
0, 2, 118, 5.592157363891602
0, 2, 119, 5.434118270874023
0, 2, 120, 7.864211082458496
0, 2, 121, 3.001234531402588
0, 2, 122, 5.007759094238281
0, 2, 123, 5.755241870880127
0, 2, 124, 4.901669025421143
0, 2, 125, 6.203907012939453
0, 2, 126, 3.143143653869629
0, 2, 127, 5.441638469696045
0, 3, 0, 3.313191652297974
0, 3, 1, 3.20163631439209
0, 3, 2, 2.813279867172241
0, 3, 3, 2.544205188751221
0, 3, 4, 4.471859931945801
0, 3, 5, 5.989088535308838
0, 3, 6, 6.200802326202393
0, 3, 7, 4.780223369598389
0, 3, 8, 4.348920345306396
0, 3, 9, 5.66613245010376
0, 3, 10, 5.257922649383545
0, 3, 11, 5.27461051940918
0, 3, 12, 7.499495506286621
0, 3, 13, 20.15164566040039
0, 3, 14, 12.27519035339355
0, 3, 15, 15.09086894989014
0, 3, 16, 11.50459098815918
0, 3, 17, 19.35891914367676
0, 3, 18, 54.82088851928711
0, 3, 19, 177.4802703857422
0, 3, 20, 273.0099182128906
0, 3, 21, 271.1298828125
0, 3, 22, 281.4922790527344
0, 3, 23, 285.6409912109375
0, 3, 24, 286.80908203125
0, 3, 25, 271.3950805664062
0, 3, 26, 305.0135498046875
0, 3, 27, 292.9557189941406
0, 3, 28, 282.3027648925781
0, 3, 29, 337.2900085449219
0, 3, 30, 318.2216186523438
0, 3, 31, 285.4173583984375
0, 3, 32, 306.6663513183594
0, 3, 33, 313.3023376464844
0, 3, 34, 320.5315856933594
0, 3, 35, 306.1685485839844
0, 3, 36, 272.375732421875
0, 3, 37, 312.5058288574219
0, 3, 38, 302.7984008789062
0, 3, 39, 290.0751647949219
0, 3, 40, 268.9848937988281
0, 3, 41, 302.9248962402344
0, 3, 42, 288.4334411621094
0, 3, 43, 304.9222412109375
0, 3, 44, 309.9391479492188
0, 3, 45, 289.9025268554688
0, 3, 46, 327.7123718261719
0, 3, 47, 299.2897644042969
0, 3, 48, 303.1349792480469
0, 3, 49, 275.6081237792969
0, 3, 50, 291.8433837890625
0, 3, 51, 274.7554931640625
0, 3, 52, 315.735595703125
0, 3, 53, 288.6592407226562
0, 3, 54, 283.8058471679688
0, 3, 55, 283.5256958007812
0, 3, 56, 297.6178283691406
0, 3, 57, 288.0872497558594
0, 3, 58, 306.3468017578125
0, 3, 59, 294.9286193847656
0, 3, 60, 297.5794067382812
0, 3, 61, 264.2154235839844
0, 3, 62, 286.9964904785156
0, 3, 63, 308.98095703125
0, 3, 64, 317.3560485839844
0, 3, 65, 306.3102722167969
0, 3, 66, 313.7958679199219
0, 3, 67, 318.4444885253906
0, 3, 68, 280.4380493164062
0, 3, 69, 279.9786987304688
0, 3, 70, 286.5059509277344
0, 3, 71, 300.2888488769531
0, 3, 72, 272.0268249511719
0, 3, 73, 309.8986511230469
0, 3, 74, 291.9766845703125
0, 3, 75, 293.0236511230469
0, 3, 76, 305.1814880371094
0, 3, 77, 312.5596923828125
0, 3, 78, 305.4852905273438
0, 3, 79, 283.1003723144531
0, 3, 80, 289.9908447265625
0, 3, 81, 310.5171203613281
0, 3, 82, 314.3473815917969
0, 3, 83, 300.2078857421875
0, 3, 84, 311.9529418945312
0, 3, 85, 292.1387023925781
0, 3, 86, 301.4541015625
0, 3, 87, 302.8776245117188
0, 3, 88, 301.4347229003906
0, 3, 89, 297.1666870117188
0, 3, 90, 274.3351440429688
0, 3, 91, 283.0430908203125
0, 3, 92, 303.7236328125
0, 3, 93, 311.6812438964844
0, 3, 94, 298.4815368652344
0, 3, 95, 333.4432983398438
0, 3, 96, 291.2085571289062
0, 3, 97, 282.4745483398438
0, 3, 98, 278.5941162109375
0, 3, 99, 261.508056640625
0, 3, 100, 284.4385681152344
0, 3, 101, 296.0880432128906
0, 3, 102, 274.6018676757812
0, 3, 103, 319.8237915039062
0, 3, 104, 306.4144592285156
0, 3, 105, 288.0138549804688
0, 3, 106, 301.0798034667969
0, 3, 107, 281.1923828125
0, 3, 108, 167.7654266357422
0, 3, 109, 57.44099426269531
0, 3, 110, 17.9473705291748
0, 3, 111, 11.74990558624268
0, 3, 112, 12.66814136505127
0, 3, 113, 7.177821159362793
0, 3, 114, 10.74524402618408
0, 3, 115, 7.693004131317139
0, 3, 116, 6.824681282043457
0, 3, 117, 5.467914581298828
0, 3, 118, 5.392922878265381
0, 3, 119, 5.968452930450439
0, 3, 120, 6.654693126678467
0, 3, 121, 2.778598785400391
0, 3, 122, 2.951376438140869
0, 3, 123, 4.835142135620117
0, 3, 124, 3.012881278991699
0, 3, 125, 6.481589317321777
0, 3, 126, 4.059193134307861
0, 3, 127, 4.811591148376465
0, 4, 0, 2.989400148391724
0, 4, 1, 4.639820098876953
0, 4, 2, 2.57735276222229
0, 4, 3, 3.348502397537231
0, 4, 4, 6.196141242980957
0, 4, 5, 9.831926345825195
0, 4, 6, 6.710428237915039
0, 4, 7, 4.711334228515625
0, 4, 8, 3.44593620300293
0, 4, 9, 7.338452816009521
0, 4, 10, 6.419826030731201
0, 4, 11, 7.360971450805664
0, 4, 12, 7.82752513885498
0, 4, 13, 8.076839447021484
0, 4, 14, 11.75410461425781
0, 4, 15, 14.04834461212158
0, 4, 16, 13.33279609680176
0, 4, 17, 18.12347412109375
0, 4, 18, 93.04775238037109
0, 4, 19, 224.3306274414062
0, 4, 20, 285.0607299804688
0, 4, 21, 272.714599609375
0, 4, 22, 303.7696228027344
0, 4, 23, 266.2194519042969
0, 4, 24, 289.9812622070312
0, 4, 25, 271.9353637695312
0, 4, 26, 294.4867248535156
0, 4, 27, 280.9693908691406
0, 4, 28, 306.6113586425781
0, 4, 29, 322.5812377929688
0, 4, 30, 310.0100402832031
0, 4, 31, 303.6963806152344
0, 4, 32, 281.1329956054688
0, 4, 33, 294.8319702148438
0, 4, 34, 295.0992736816406
0, 4, 35, 311.7008972167969
0, 4, 36, 292.075927734375
0, 4, 37, 287.4917907714844
0, 4, 38, 298.9930114746094
0, 4, 39, 295.9367980957031
0, 4, 40, 304.3932495117188
0, 4, 41, 310.7231750488281
0, 4, 42, 331.0769348144531
0, 4, 43, 297.993408203125
0, 4, 44, 321.5278015136719
0, 4, 45, 324.8657531738281
0, 4, 46, 307.0244750976562
0, 4, 47, 293.5156860351562
0, 4, 48, 297.6139526367188
0, 4, 49, 278.0996398925781
0, 4, 50, 295.4287109375
0, 4, 51, 316.6939392089844
0, 4, 52, 327.4848937988281
0, 4, 53, 303.7075805664062
0, 4, 54, 287.19677734375
0, 4, 55, 316.1016845703125
0, 4, 56, 288.5654296875
0, 4, 57, 308.7292175292969
0, 4, 58, 293.8179626464844
0, 4, 59, 309.3010559082031
0, 4, 60, 302.5516052246094
0, 4, 61, 314.4958801269531
0, 4, 62, 308.0404968261719
0, 4, 63, 301.1030883789062
0, 4, 64, 328.9072875976562
0, 4, 65, 316.3127746582031
0, 4, 66, 293.1908264160156
0, 4, 67, 284.917236328125
0, 4, 68, 312.3655700683594
0, 4, 69, 275.8145751953125
0, 4, 70, 301.2234802246094
0, 4, 71, 326.0413513183594
0, 4, 72, 333.7881469726562
0, 4, 73, 300.0042419433594
0, 4, 74, 293.3576965332031
0, 4, 75, 289.6477355957031
0, 4, 76, 276.341552734375
0, 4, 77, 278.0797424316406
0, 4, 78, 309.474365234375
0, 4, 79, 321.0507507324219
0, 4, 80, 316.0921936035156
0, 4, 81, 312.8506469726562
0, 4, 82, 298.1774291992188
0, 4, 83, 299.9547729492188
0, 4, 84, 292.47314453125
0, 4, 85, 294.7196655273438
0, 4, 86, 298.8575439453125
0, 4, 87, 283.5746154785156
0, 4, 88, 304.1737365722656
0, 4, 89, 295.8407287597656
0, 4, 90, 331.6168518066406
0, 4, 91, 301.1093139648438
0, 4, 92, 290.3971557617188
0, 4, 93, 296.248779296875
0, 4, 94, 293.0602416992188
0, 4, 95, 291.9051513671875
0, 4, 96, 322.984130859375
0, 4, 97, 273.7236328125
0, 4, 98, 327.2887878417969
0, 4, 99, 314.2298278808594
0, 4, 100, 301.7195129394531
0, 4, 101, 258.615966796875
0, 4, 102, 295.6178588867188
0, 4, 103, 318.0946044921875
0, 4, 104, 283.4683227539062
0, 4, 105, 310.7720642089844
0, 4, 106, 286.7771911621094
0, 4, 107, 295.7857666015625
0, 4, 108, 225.1481628417969
0, 4, 109, 81.84867858886719
0, 4, 110, 16.33042144775391
0, 4, 111, 13.11401271820068
0, 4, 112, 9.597400665283203
0, 4, 113, 9.427773475646973
0, 4, 114, 7.581825256347656
0, 4, 115, 9.784034729003906
0, 4, 116, 9.942174911499023
0, 4, 117, 5.004196166992188
0, 4, 118, 10.95217895507812
0, 4, 119, 10.39899158477783
0, 4, 120, 6.002540111541748
0, 4, 121, 5.104664325714111
0, 4, 122, 6.046225547790527
0, 4, 123, 8.162652015686035
0, 4, 124, 7.024593353271484
0, 4, 125, 10.78465557098389
0, 4, 126, 4.882683277130127
0, 4, 127, 5.825886726379395
0, 5, 0, 3.684876441955566
0, 5, 1, 3.919840574264526
0, 5, 2, 5.494213104248047
0, 5, 3, 4.657415866851807
0, 5, 4, 5.261362075805664
0, 5, 5, 9.419256210327148
0, 5, 6, 6.687873840332031
0, 5, 7, 4.412900924682617
0, 5, 8, 3.786430358886719
0, 5, 9, 5.381813049316406
0, 5, 10, 7.02942419052124
0, 5, 11, 8.664071083068848
0, 5, 12, 8.019611358642578
0, 5, 13, 7.298139572143555
0, 5, 14, 12.96996688842773
0, 5, 15, 15.82713603973389
0, 5, 16, 16.43840217590332
0, 5, 17, 29.3444652557373
0, 5, 18, 139.5670166015625
0, 5, 19, 287.3610534667969
0, 5, 20, 309.0580749511719
0, 5, 21, 315.7836608886719
0, 5, 22, 273.583251953125
0, 5, 23, 310.0896606445312
0, 5, 24, 303.2644958496094
0, 5, 25, 289.3165283203125
0, 5, 26, 294.4520263671875
0, 5, 27, 323.5538330078125
0, 5, 28, 300.4602355957031
0, 5, 29, 298.3713073730469
0, 5, 30, 324.9013977050781
0, 5, 31, 286.5002746582031
0, 5, 32, 303.2209167480469
0, 5, 33, 303.0095825195312
0, 5, 34, 297.4745178222656
0, 5, 35, 310.1642456054688
0, 5, 36, 270.0482482910156
0, 5, 37, 281.9463195800781
0, 5, 38, 294.720947265625
0, 5, 39, 311.3482360839844
0, 5, 40, 308.5167236328125
0, 5, 41, 275.0854797363281
0, 5, 42, 306.9241638183594
0, 5, 43, 314.47900390625
0, 5, 44, 292.2460021972656
0, 5, 45, 306.4541320800781
0, 5, 46, 266.864013671875
0, 5, 47, 280.1407165527344
0, 5, 48, 293.993896484375
0, 5, 49, 285.2193908691406
0, 5, 50, 293.8796997070312
0, 5, 51, 281.2638244628906
0, 5, 52, 270.1854858398438
0, 5, 53, 282.9983825683594
0, 5, 54, 291.3963317871094
0, 5, 55, 344.6376342773438
0, 5, 56, 304.9977722167969
0, 5, 57, 309.2267150878906
0, 5, 58, 311.5035400390625
0, 5, 59, 303.2106628417969
0, 5, 60, 306.42236328125
0, 5, 61, 280.8726501464844
0, 5, 62, 325.0549926757812
0, 5, 63, 290.3948974609375
0, 5, 64, 321.4865112304688
0, 5, 65, 306.9768676757812
0, 5, 66, 326.690673828125
0, 5, 67, 314.1258239746094
0, 5, 68, 305.9606018066406
0, 5, 69, 310.3575134277344
0, 5, 70, 303.1696472167969
0, 5, 71, 273.2666625976562
0, 5, 72, 308.34326171875
0, 5, 73, 304.106689453125
0, 5, 74, 297.6012268066406
0, 5, 75, 294.426513671875
0, 5, 76, 286.0242614746094
0, 5, 77, 299.9310302734375
0, 5, 78, 315.1980590820312
0, 5, 79, 308.8869018554688
0, 5, 80, 295.4501647949219
0, 5, 81, 326.9329528808594
0, 5, 82, 323.4302368164062
0, 5, 83, 280.9692687988281
0, 5, 84, 299.7259216308594
0, 5, 85, 271.5082092285156
0, 5, 86, 324.5173645019531
0, 5, 87, 285.649169921875
0, 5, 88, 314.6982421875
0, 5, 89, 305.6344909667969
0, 5, 90, 316.4949645996094
0, 5, 91, 312.2671508789062
0, 5, 92, 296.195068359375
0, 5, 93, 323.3515014648438
0, 5, 94, 308.4449462890625
0, 5, 95, 296.3267517089844
0, 5, 96, 298.2247009277344
0, 5, 97, 297.0132751464844
0, 5, 98, 316.3248291015625
0, 5, 99, 302.7142944335938
0, 5, 100, 289.75146484375
0, 5, 101, 305.631103515625
0, 5, 102, 291.1759033203125
0, 5, 103, 314.6304626464844
0, 5, 104, 303.3648376464844
0, 5, 105, 292.5132446289062
0, 5, 106, 281.7034301757812
0, 5, 107, 294.0550842285156
0, 5, 108, 265.1099548339844
0, 5, 109, 155.5376586914062
0, 5, 110, 39.6575813293457
0, 5, 111, 21.65138053894043
0, 5, 112, 15.40779209136963
0, 5, 113, 15.11449909210205
0, 5, 114, 14.06564807891846
0, 5, 115, 6.11870002746582
0, 5, 116, 8.45304012298584
0, 5, 117, 5.795628547668457
0, 5, 118, 15.11051845550537
0, 5, 119, 5.40513277053833
0, 5, 120, 7.233097553253174
0, 5, 121, 3.389241933822632
0, 5, 122, 5.742467880249023
0, 5, 123, 4.532587051391602
0, 5, 124, 4.288549423217773
0, 5, 125, 4.746999263763428
0, 5, 126, 5.620395183563232
0, 5, 127, 2.577673435211182
0, 6, 0, 4.881563186645508
0, 6, 1, 3.589766979217529
0, 6, 2, 4.263482093811035
0, 6, 3, 4.958286762237549
0, 6, 4, 2.765764236450195
0, 6, 5, 7.470738410949707
0, 6, 6, 9.669329643249512
0, 6, 7, 5.700620174407959
0, 6, 8, 12.09623527526855
0, 6, 9, 6.816940307617188
0, 6, 10, 6.066189765930176
0, 6, 11, 7.008205413818359
0, 6, 12, 9.367262840270996
0, 6, 13, 11.87544441223145
0, 6, 14, 8.317479133605957
0, 6, 15, 18.76522064208984
0, 6, 16, 31.4290885925293
0, 6, 17, 54.94132995605469
0, 6, 18, 176.4518432617188
0, 6, 19, 276.6253051757812
0, 6, 20, 290.0567321777344
0, 6, 21, 313.9419860839844
0, 6, 22, 320.71826171875
0, 6, 23, 305.2543334960938
0, 6, 24, 316.3272094726562
0, 6, 25, 316.0381164550781
0, 6, 26, 320.6572265625
0, 6, 27, 331.0199890136719
0, 6, 28, 297.7971496582031
0, 6, 29, 333.7315063476562
0, 6, 30, 282.3409729003906
0, 6, 31, 285.9060363769531
0, 6, 32, 342.9569702148438
0, 6, 33, 298.9467468261719
0, 6, 34, 342.3843078613281
0, 6, 35, 319.4013061523438
0, 6, 36, 274.2597351074219
0, 6, 37, 290.7703247070312
0, 6, 38, 311.728271484375
0, 6, 39, 298.264892578125
0, 6, 40, 284.1394653320312
0, 6, 41, 294.1806640625
0, 6, 42, 302.3242797851562
0, 6, 43, 288.449951171875
0, 6, 44, 279.7162475585938
0, 6, 45, 321.5875244140625
0, 6, 46, 302.6629028320312
0, 6, 47, 333.698974609375
0, 6, 48, 293.2321472167969
0, 6, 49, 312.9365844726562
0, 6, 50, 329.0664978027344
0, 6, 51, 310.7579650878906
0, 6, 52, 321.5501098632812
0, 6, 53, 325.8388366699219
0, 6, 54, 303.8626708984375
0, 6, 55, 306.7495422363281
0, 6, 56, 294.2382507324219
0, 6, 57, 312.8929138183594
0, 6, 58, 264.7232360839844
0, 6, 59, 300.8208618164062
0, 6, 60, 314.779052734375
0, 6, 61, 272.5782470703125
0, 6, 62, 340.5130004882812
0, 6, 63, 323.8759765625
0, 6, 64, 291.5947570800781
0, 6, 65, 283.2042541503906
0, 6, 66, 306.4273681640625
0, 6, 67, 309.0091247558594
0, 6, 68, 293.0807495117188
0, 6, 69, 279.3600463867188
0, 6, 70, 274.0831604003906
0, 6, 71, 288.3901672363281
0, 6, 72, 309.0496520996094
0, 6, 73, 292.3549499511719
0, 6, 74, 329.8033447265625
0, 6, 75, 343.6427612304688
0, 6, 76, 297.3464965820312
0, 6, 77, 285.9364013671875
0, 6, 78, 277.9295043945312
0, 6, 79, 292.9649658203125
0, 6, 80, 301.0934448242188
0, 6, 81, 314.1981811523438
0, 6, 82, 320.9794311523438
0, 6, 83, 319.0972595214844
0, 6, 84, 294.73828125
0, 6, 85, 300.2363586425781
0, 6, 86, 330.8982238769531
0, 6, 87, 290.6110534667969
0, 6, 88, 310.5498352050781
0, 6, 89, 304.1834716796875
0, 6, 90, 299.1085510253906
0, 6, 91, 312.4827880859375
0, 6, 92, 285.0498962402344
0, 6, 93, 297.6621704101562
0, 6, 94, 273.1355895996094
0, 6, 95, 298.8925476074219
0, 6, 96, 347.1751403808594
0, 6, 97, 308.6703186035156
0, 6, 98, 301.6700134277344
0, 6, 99, 273.3359069824219
0, 6, 100, 308.4993286132812
0, 6, 101, 293.1340942382812
0, 6, 102, 310.5268859863281
0, 6, 103, 308.5416259765625
0, 6, 104, 294.3570556640625
0, 6, 105, 303.6484985351562
0, 6, 106, 308.3348083496094
0, 6, 107, 306.0658874511719
0, 6, 108, 266.5365295410156
0, 6, 109, 189.7808227539062
0, 6, 110, 61.60209274291992
0, 6, 111, 24.06519889831543
0, 6, 112, 13.38059616088867
0, 6, 113, 11.10482501983643
0, 6, 114, 12.90489482879639
0, 6, 115, 12.0883960723877
0, 6, 116, 10.68724346160889
0, 6, 117, 5.732229232788086
0, 6, 118, 9.517729759216309
0, 6, 119, 7.006266117095947
0, 6, 120, 7.245667934417725
0, 6, 121, 9.466662406921387
0, 6, 122, 6.478517532348633
0, 6, 123, 5.240946769714355
0, 6, 124, 7.07490062713623
0, 6, 125, 6.749480247497559
0, 6, 126, 2.961032390594482
0, 6, 127, 4.730567932128906
0, 7, 0, 6.862395286560059
0, 7, 1, 4.008140563964844
0, 7, 2, 6.432046890258789
0, 7, 3, 4.074344635009766
0, 7, 4, 4.987565517425537
0, 7, 5, 3.839740037918091
0, 7, 6, 4.827014923095703
0, 7, 7, 6.503931999206543
0, 7, 8, 4.301928520202637
0, 7, 9, 5.359047412872314
0, 7, 10, 7.092997550964355
0, 7, 11, 10.70100116729736
0, 7, 12, 11.53936767578125
0, 7, 13, 14.18832874298096
0, 7, 14, 10.32304954528809
0, 7, 15, 16.64365196228027
0, 7, 16, 29.0550537109375
0, 7, 17, 96.07182312011719
0, 7, 18, 219.1645965576172
0, 7, 19, 289.1681823730469
0, 7, 20, 298.1863708496094
0, 7, 21, 277.8621215820312
0, 7, 22, 300.2971496582031
0, 7, 23, 289.8175354003906
0, 7, 24, 312.9662170410156
0, 7, 25, 323.2298889160156
0, 7, 26, 278.3220520019531
0, 7, 27, 297.6457824707031
0, 7, 28, 324.9699401855469
0, 7, 29, 319.1575317382812
0, 7, 30, 299.0575256347656
0, 7, 31, 276.8697814941406
0, 7, 32, 306.4437561035156
0, 7, 33, 262.8255310058594
0, 7, 34, 297.8669128417969
0, 7, 35, 319.850830078125
0, 7, 36, 330.5604553222656
0, 7, 37, 324.6795959472656
0, 7, 38, 298.0239868164062
0, 7, 39, 305.0247192382812
0, 7, 40, 289.0263977050781
0, 7, 41, 270.9279479980469
0, 7, 42, 301.2451782226562
0, 7, 43, 274.0081787109375
0, 7, 44, 303.0804748535156
0, 7, 45, 295.1794128417969
0, 7, 46, 281.2095336914062
0, 7, 47, 328.6852416992188
0, 7, 48, 284.2384033203125
0, 7, 49, 301.4345703125
0, 7, 50, 321.2554931640625
0, 7, 51, 298.967041015625
0, 7, 52, 329.0991821289062
0, 7, 53, 311.0710754394531
0, 7, 54, 322.3577575683594
0, 7, 55, 308.1524658203125
0, 7, 56, 277.8926391601562
0, 7, 57, 281.3716125488281
0, 7, 58, 296.3915710449219
0, 7, 59, 296.6084289550781
0, 7, 60, 325.0487365722656
0, 7, 61, 278.2669067382812
0, 7, 62, 296.6494445800781
0, 7, 63, 292.248291015625
0, 7, 64, 308.00244140625
0, 7, 65, 331.5395202636719
0, 7, 66, 318.3739013671875
0, 7, 67, 302.3758850097656
0, 7, 68, 280.6675415039062
0, 7, 69, 294.4165954589844
0, 7, 70, 302.6776428222656
0, 7, 71, 313.4964904785156
0, 7, 72, 283.9179992675781
0, 7, 73, 295.88427734375
0, 7, 74, 344.753173828125
0, 7, 75, 317.9349670410156
0, 7, 76, 322.0237121582031
0, 7, 77, 282.7440490722656
0, 7, 78, 302.3928833007812
0, 7, 79, 299.2777709960938
0, 7, 80, 311.318359375
0, 7, 81, 318.5996398925781
0, 7, 82, 329.9632568359375
0, 7, 83, 317.4844360351562
0, 7, 84, 308.3470458984375
0, 7, 85, 271.5422668457031
0, 7, 86, 309.444580078125
0, 7, 87, 309.8495483398438
0, 7, 88, 309.6641845703125
0, 7, 89, 292.5809326171875
0, 7, 90, 307.6883544921875
0, 7, 91, 314.8796081542969
0, 7, 92, 287.7778625488281
0, 7, 93, 309.2600708007812
0, 7, 94, 274.6211242675781
0, 7, 95, 296.8191833496094
0, 7, 96, 330.9440002441406
0, 7, 97, 294.6265563964844
0, 7, 98, 292.548583984375
0, 7, 99, 314.149658203125
0, 7, 100, 281.2368774414062
0, 7, 101, 275.0440368652344
0, 7, 102, 289.9128723144531
0, 7, 103, 291.5162963867188
0, 7, 104, 274.2846069335938
0, 7, 105, 306.8510437011719
0, 7, 106, 318.37109375
0, 7, 107, 297.2642211914062
0, 7, 108, 274.3648986816406
0, 7, 109, 233.2165374755859
0, 7, 110, 96.63724517822266
0, 7, 111, 24.9203987121582
0, 7, 112, 13.32267093658447
0, 7, 113, 14.48404312133789
0, 7, 114, 12.50351333618164
0, 7, 115, 11.84566974639893
0, 7, 116, 8.873209953308105
0, 7, 117, 5.030739307403564
0, 7, 118, 9.656771659851074
0, 7, 119, 7.362409114837646
0, 7, 120, 4.762955188751221
0, 7, 121, 7.721750259399414
0, 7, 122, 10.49590587615967
0, 7, 123, 4.106239795684814
0, 7, 124, 3.473016500473022
0, 7, 125, 7.041346549987793
0, 7, 126, 9.92117977142334
0, 7, 127, 1.45762026309967
0, 8, 0, 3.254608154296875
0, 8, 1, 4.154273509979248
0, 8, 2, 3.98027515411377
0, 8, 3, 2.207704067230225
0, 8, 4, 3.480030298233032
0, 8, 5, 5.798227787017822
0, 8, 6, 4.452372550964355
0, 8, 7, 6.900320529937744
0, 8, 8, 9.860552787780762
0, 8, 9, 7.686620235443115
0, 8, 10, 7.344714641571045
0, 8, 11, 12.40025043487549
0, 8, 12, 14.76341915130615
0, 8, 13, 17.38396072387695
0, 8, 14, 14.62919330596924
0, 8, 15, 19.05480766296387
0, 8, 16, 32.20539855957031
0, 8, 17, 130.5525360107422
0, 8, 18, 242.8477478027344
0, 8, 19, 295.6002807617188
0, 8, 20, 287.0867919921875
0, 8, 21, 306.4972534179688
0, 8, 22, 294.0141906738281
0, 8, 23, 275.0070190429688
0, 8, 24, 268.2920837402344
0, 8, 25, 275.1228942871094
0, 8, 26, 307.1230773925781
0, 8, 27, 307.6316833496094
0, 8, 28, 303.9670715332031
0, 8, 29, 318.5959167480469
0, 8, 30, 314.9760437011719
0, 8, 31, 306.0389404296875
0, 8, 32, 281.5775451660156
0, 8, 33, 297.8368835449219
0, 8, 34, 290.0747985839844
0, 8, 35, 279.0467529296875
0, 8, 36, 314.8431701660156
0, 8, 37, 340.3471984863281
0, 8, 38, 332.1072998046875
0, 8, 39, 281.6496276855469
0, 8, 40, 305.85986328125
