# TOPAS Version: 3.1.p3
# Parameter File: batch_inserts_152.txt
# Results for scorer Readout_Adipose
# Scored in component: MyBox
# X in 1 bin  of 0.75 cm
# Y in 512 bins of 0.0783984 cm
# Z in 128 bins of 0.078125 cm
# EnergyDeposit ( MeV ) : Sum   
0, 0, 0, 19.77121162414551
0, 0, 1, 24.87434959411621
0, 0, 2, 23.37203407287598
0, 0, 3, 20.00640487670898
0, 0, 4, 19.08082008361816
0, 0, 5, 21.16059875488281
0, 0, 6, 23.65274429321289
0, 0, 7, 34.74322509765625
0, 0, 8, 21.88230514526367
0, 0, 9, 22.13313102722168
0, 0, 10, 24.52071952819824
0, 0, 11, 24.02428245544434
0, 0, 12, 35.81434631347656
0, 0, 13, 29.35706520080566
0, 0, 14, 33.99219131469727
0, 0, 15, 47.63059234619141
0, 0, 16, 42.32148361206055
0, 0, 17, 45.70216369628906
0, 0, 18, 76.84257507324219
0, 0, 19, 188.6122131347656
0, 0, 20, 698.69384765625
0, 0, 21, 1191.06640625
0, 0, 22, 1245.530517578125
0, 0, 23, 1278.109985351562
0, 0, 24, 1283.8173828125
0, 0, 25, 1355.203247070312
0, 0, 26, 1273.074462890625
0, 0, 27, 1282.311645507812
0, 0, 28, 1319.284912109375
0, 0, 29, 1271.210815429688
0, 0, 30, 1259.845825195312
0, 0, 31, 1278.938720703125
0, 0, 32, 1268.399047851562
0, 0, 33, 1238.803466796875
0, 0, 34, 1321.724853515625
0, 0, 35, 1305.562744140625
0, 0, 36, 1253.256225585938
0, 0, 37, 1279.306030273438
0, 0, 38, 1248.013305664062
0, 0, 39, 1246.44921875
0, 0, 40, 1226.785278320312
0, 0, 41, 1267.689697265625
0, 0, 42, 1255.167358398438
0, 0, 43, 1267.348876953125
0, 0, 44, 1227.25146484375
0, 0, 45, 1289.149536132812
0, 0, 46, 1261.436157226562
0, 0, 47, 1240.028564453125
0, 0, 48, 1277.08837890625
0, 0, 49, 1289.654663085938
0, 0, 50, 1313.246704101562
0, 0, 51, 1268.619262695312
0, 0, 52, 1357.15478515625
0, 0, 53, 1322.041015625
0, 0, 54, 1296.912109375
0, 0, 55, 1237.444091796875
0, 0, 56, 1316.503784179688
0, 0, 57, 1293.103271484375
0, 0, 58, 1257.35009765625
0, 0, 59, 1332.461303710938
0, 0, 60, 1328.434814453125
0, 0, 61, 1256.120239257812
0, 0, 62, 1236.930541992188
0, 0, 63, 1273.814819335938
0, 0, 64, 1328.4765625
0, 0, 65, 1288.100952148438
0, 0, 66, 1316.136108398438
0, 0, 67, 1212.255493164062
0, 0, 68, 1308.9814453125
0, 0, 69, 1326.697143554688
0, 0, 70, 1345.93212890625
0, 0, 71, 1289.399658203125
0, 0, 72, 1308.47021484375
0, 0, 73, 1241.768798828125
0, 0, 74, 1286.721557617188
0, 0, 75, 1298.358276367188
0, 0, 76, 1255.494750976562
0, 0, 77, 1285.51123046875
0, 0, 78, 1313.70849609375
0, 0, 79, 1326.5673828125
0, 0, 80, 1265.278076171875
0, 0, 81, 1325.085205078125
0, 0, 82, 1285.7861328125
0, 0, 83, 1290.50732421875
0, 0, 84, 1328.548583984375
0, 0, 85, 1232.800415039062
0, 0, 86, 1267.181396484375
0, 0, 87, 1254.98974609375
0, 0, 88, 1257.510620117188
0, 0, 89, 1334.218505859375
0, 0, 90, 1277.495849609375
0, 0, 91, 1355.396484375
0, 0, 92, 1303.339111328125
0, 0, 93, 1274.011840820312
0, 0, 94, 1248.18798828125
0, 0, 95, 1327.49609375
0, 0, 96, 1282.648071289062
0, 0, 97, 1324.64208984375
0, 0, 98, 1260.97998046875
0, 0, 99, 1250.509155273438
0, 0, 100, 1288.993896484375
0, 0, 101, 1313.699951171875
0, 0, 102, 1230.4921875
0, 0, 103, 1319.555541992188
0, 0, 104, 1261.441528320312
0, 0, 105, 1268.048583984375
0, 0, 106, 1208.650634765625
0, 0, 107, 782.22998046875
0, 0, 108, 193.3499298095703
0, 0, 109, 71.75251770019531
0, 0, 110, 62.69866180419922
0, 0, 111, 39.88879013061523
0, 0, 112, 36.43875885009766
0, 0, 113, 30.44207763671875
0, 0, 114, 35.59713745117188
0, 0, 115, 31.28463935852051
0, 0, 116, 28.16167831420898
0, 0, 117, 30.77078437805176
0, 0, 118, 27.50946426391602
0, 0, 119, 26.41654586791992
0, 0, 120, 25.18283653259277
0, 0, 121, 33.60302734375
0, 0, 122, 22.61934661865234
0, 0, 123, 26.30215835571289
0, 0, 124, 23.50983047485352
0, 0, 125, 20.41286659240723
0, 0, 126, 23.80605697631836
0, 0, 127, 19.10237312316895
0, 1, 0, 24.175537109375
0, 1, 1, 21.47418212890625
0, 1, 2, 18.55305290222168
0, 1, 3, 21.46092796325684
0, 1, 4, 23.06671714782715
0, 1, 5, 30.76786613464355
0, 1, 6, 30.5855598449707
0, 1, 7, 28.31461524963379
0, 1, 8, 30.97805786132812
0, 1, 9, 33.48861312866211
0, 1, 10, 31.38466644287109
0, 1, 11, 42.13194274902344
0, 1, 12, 40.25265884399414
0, 1, 13, 44.77466583251953
0, 1, 14, 40.97652053833008
0, 1, 15, 47.83551406860352
0, 1, 16, 61.451171875
0, 1, 17, 61.71903991699219
0, 1, 18, 100.1041870117188
0, 1, 19, 402.1598815917969
0, 1, 20, 1041.7626953125
0, 1, 21, 1372.982055664062
0, 1, 22, 1481.555541992188
0, 1, 23, 1465.131958007812
0, 1, 24, 1446.047973632812
0, 1, 25, 1416.881591796875
0, 1, 26, 1474.78955078125
0, 1, 27, 1462.195068359375
0, 1, 28, 1490.241333007812
0, 1, 29, 1478.663940429688
0, 1, 30, 1508.675659179688
0, 1, 31, 1483.492553710938
0, 1, 32, 1407.255126953125
0, 1, 33, 1498.797729492188
0, 1, 34, 1500.365600585938
0, 1, 35, 1460.3779296875
0, 1, 36, 1491.831665039062
0, 1, 37, 1406.824951171875
0, 1, 38, 1391.096557617188
0, 1, 39, 1522.39599609375
0, 1, 40, 1463.100708007812
0, 1, 41, 1488.315307617188
0, 1, 42, 1493.687744140625
0, 1, 43, 1504.57568359375
0, 1, 44, 1452.454711914062
0, 1, 45, 1488.401123046875
0, 1, 46, 1418.431396484375
0, 1, 47, 1432.365356445312
0, 1, 48, 1428.918334960938
0, 1, 49, 1490.39892578125
0, 1, 50, 1441.6640625
0, 1, 51, 1474.368896484375
0, 1, 52, 1477.342407226562
0, 1, 53, 1474.061767578125
0, 1, 54, 1507.793212890625
0, 1, 55, 1496.66796875
0, 1, 56, 1472.284301757812
0, 1, 57, 1459.589721679688
0, 1, 58, 1433.002563476562
0, 1, 59, 1479.432983398438
0, 1, 60, 1465.628295898438
0, 1, 61, 1452.415649414062
0, 1, 62, 1453.662963867188
0, 1, 63, 1411.602905273438
0, 1, 64, 1473.587036132812
0, 1, 65, 1418.795288085938
0, 1, 66, 1436.430908203125
0, 1, 67, 1453.394287109375
0, 1, 68, 1386.510131835938
0, 1, 69, 1461.108764648438
0, 1, 70, 1430.208251953125
0, 1, 71, 1497.744262695312
0, 1, 72, 1430.900512695312
0, 1, 73, 1484.743774414062
0, 1, 74, 1469.135620117188
0, 1, 75, 1479.236206054688
0, 1, 76, 1454.647705078125
0, 1, 77, 1460.435302734375
0, 1, 78, 1455.00048828125
0, 1, 79, 1505.1650390625
0, 1, 80, 1452.241821289062
0, 1, 81, 1424.209106445312
0, 1, 82, 1472.596557617188
0, 1, 83, 1464.296142578125
0, 1, 84, 1535.41357421875
0, 1, 85, 1451.290893554688
0, 1, 86, 1407.208862304688
0, 1, 87, 1417.742065429688
0, 1, 88, 1474.75634765625
0, 1, 89, 1475.242431640625
0, 1, 90, 1426.240600585938
0, 1, 91, 1466.309814453125
0, 1, 92, 1410.11376953125
0, 1, 93, 1463.701293945312
0, 1, 94, 1466.842895507812
0, 1, 95, 1427.41748046875
0, 1, 96, 1498.942626953125
0, 1, 97, 1519.88134765625
0, 1, 98, 1475.71435546875
0, 1, 99, 1426.011962890625
0, 1, 100, 1446.814575195312
0, 1, 101, 1413.692993164062
0, 1, 102, 1447.573364257812
0, 1, 103, 1415.582153320312
0, 1, 104, 1410.56494140625
0, 1, 105, 1463.021362304688
0, 1, 106, 1362.03369140625
0, 1, 107, 1018.099182128906
0, 1, 108, 400.4454956054688
0, 1, 109, 90.58815765380859
0, 1, 110, 65.85011291503906
0, 1, 111, 54.45673751831055
0, 1, 112, 48.61411666870117
0, 1, 113, 40.4732666015625
0, 1, 114, 35.90302276611328
0, 1, 115, 39.26031875610352
0, 1, 116, 35.79508590698242
0, 1, 117, 32.00465774536133
0, 1, 118, 37.81916809082031
0, 1, 119, 27.07424736022949
0, 1, 120, 30.56906318664551
0, 1, 121, 24.88849067687988
0, 1, 122, 23.21151924133301
0, 1, 123, 23.38226509094238
0, 1, 124, 29.6468677520752
0, 1, 125, 17.8041934967041
0, 1, 126, 27.86404800415039
0, 1, 127, 20.23586463928223
0, 2, 0, 19.28649139404297
0, 2, 1, 22.08552360534668
0, 2, 2, 20.54450416564941
0, 2, 3, 22.28487396240234
0, 2, 4, 25.1955738067627
0, 2, 5, 29.32357215881348
0, 2, 6, 22.18735885620117
0, 2, 7, 19.15156555175781
0, 2, 8, 25.34892463684082
0, 2, 9, 30.38054084777832
0, 2, 10, 32.5594596862793
0, 2, 11, 31.46780204772949
0, 2, 12, 40.16354751586914
0, 2, 13, 44.30547714233398
0, 2, 14, 47.08645248413086
0, 2, 15, 42.71823883056641
0, 2, 16, 66.07520294189453
0, 2, 17, 77.73454284667969
0, 2, 18, 140.4095458984375
0, 2, 19, 601.35205078125
0, 2, 20, 1286.501342773438
0, 2, 21, 1436.908569335938
0, 2, 22, 1461.912475585938
0, 2, 23, 1408.019409179688
0, 2, 24, 1439.599609375
0, 2, 25, 1524.283325195312
0, 2, 26, 1554.517944335938
0, 2, 27, 1456.698974609375
0, 2, 28, 1458.803100585938
0, 2, 29, 1462.17138671875
0, 2, 30, 1459.293212890625
0, 2, 31, 1540.14013671875
0, 2, 32, 1509.010375976562
0, 2, 33, 1442.338012695312
0, 2, 34, 1472.901000976562
0, 2, 35, 1470.602905273438
0, 2, 36, 1522.49951171875
0, 2, 37, 1545.860107421875
0, 2, 38, 1505.115966796875
0, 2, 39, 1465.252563476562
0, 2, 40, 1504.299438476562
0, 2, 41, 1519.060913085938
0, 2, 42, 1505.138427734375
0, 2, 43, 1549.822265625
0, 2, 44, 1458.962646484375
0, 2, 45, 1479.624389648438
0, 2, 46, 1425.282104492188
0, 2, 47, 1446.206787109375
0, 2, 48, 1390.578491210938
0, 2, 49, 1461.35400390625
0, 2, 50, 1442.760986328125
0, 2, 51, 1443.359130859375
0, 2, 52, 1497.19921875
0, 2, 53, 1523.693115234375
0, 2, 54, 1525.841674804688
0, 2, 55, 1493.913452148438
0, 2, 56, 1459.298583984375
0, 2, 57, 1416.183227539062
0, 2, 58, 1452.957763671875
0, 2, 59, 1455.788208007812
0, 2, 60, 1468.169799804688
0, 2, 61, 1445.0478515625
0, 2, 62, 1475.452026367188
0, 2, 63, 1512.259399414062
0, 2, 64, 1461.503662109375
0, 2, 65, 1425.747436523438
0, 2, 66, 1487.8564453125
0, 2, 67, 1502.289916992188
0, 2, 68, 1541.165649414062
0, 2, 69, 1538.134155273438
0, 2, 70, 1508.894409179688
0, 2, 71, 1464.302856445312
0, 2, 72, 1516.978271484375
0, 2, 73, 1519.740966796875
0, 2, 74, 1490.82958984375
0, 2, 75, 1504.324951171875
0, 2, 76, 1457.373779296875
0, 2, 77, 1507.9658203125
0, 2, 78, 1436.209594726562
0, 2, 79, 1543.634399414062
0, 2, 80, 1476.802124023438
0, 2, 81, 1468.363037109375
0, 2, 82, 1552.383544921875
0, 2, 83, 1514.580078125
0, 2, 84, 1492.365356445312
0, 2, 85, 1515.097534179688
0, 2, 86, 1540.567626953125
0, 2, 87, 1487.573486328125
0, 2, 88, 1537.195556640625
0, 2, 89, 1464.232177734375
0, 2, 90, 1431.095703125
0, 2, 91, 1405.121948242188
0, 2, 92, 1478.29833984375
0, 2, 93, 1491.273559570312
0, 2, 94, 1450.437622070312
0, 2, 95, 1544.876586914062
0, 2, 96, 1516.214233398438
0, 2, 97, 1453.596313476562
0, 2, 98, 1466.30224609375
0, 2, 99, 1403.992309570312
0, 2, 100, 1473.18017578125
0, 2, 101, 1482.361938476562
0, 2, 102, 1462.873779296875
0, 2, 103, 1385.128662109375
0, 2, 104, 1409.208374023438
0, 2, 105, 1393.102661132812
0, 2, 106, 1458.676513671875
0, 2, 107, 1275.360107421875
0, 2, 108, 622.164306640625
0, 2, 109, 170.0997924804688
0, 2, 110, 68.79010009765625
0, 2, 111, 60.51101684570312
0, 2, 112, 47.57316207885742
0, 2, 113, 47.95739364624023
0, 2, 114, 38.62664031982422
0, 2, 115, 47.0317268371582
0, 2, 116, 33.94675827026367
0, 2, 117, 39.5289421081543
0, 2, 118, 34.89811325073242
0, 2, 119, 30.29887771606445
0, 2, 120, 24.94207191467285
0, 2, 121, 22.19247245788574
0, 2, 122, 25.31261253356934
0, 2, 123, 22.55799102783203
0, 2, 124, 23.20641136169434
0, 2, 125, 24.54843521118164
0, 2, 126, 17.56746864318848
0, 2, 127, 22.2327880859375
0, 3, 0, 18.27098846435547
0, 3, 1, 18.89658546447754
0, 3, 2, 23.50497055053711
0, 3, 3, 20.69806861877441
0, 3, 4, 23.57354164123535
0, 3, 5, 19.9715404510498
0, 3, 6, 35.30580902099609
0, 3, 7, 28.19163703918457
0, 3, 8, 31.87199211120605
0, 3, 9, 30.86829566955566
0, 3, 10, 36.10931396484375
0, 3, 11, 39.32901000976562
0, 3, 12, 44.43354797363281
0, 3, 13, 51.83795166015625
0, 3, 14, 56.11538314819336
0, 3, 15, 59.29674530029297
0, 3, 16, 70.46839904785156
0, 3, 17, 86.46161651611328
0, 3, 18, 238.7365570068359
0, 3, 19, 877.8043212890625
0, 3, 20, 1388.4453125
0, 3, 21, 1507.228881835938
0, 3, 22, 1462.134643554688
0, 3, 23, 1447.849365234375
0, 3, 24, 1438.2880859375
0, 3, 25, 1465.741455078125
0, 3, 26, 1492.608032226562
0, 3, 27, 1463.204956054688
0, 3, 28, 1487.452514648438
0, 3, 29, 1543.918701171875
0, 3, 30, 1571.144287109375
0, 3, 31, 1507.259643554688
0, 3, 32, 1541.648681640625
0, 3, 33, 1542.761474609375
0, 3, 34, 1493.154907226562
0, 3, 35, 1463.248413085938
0, 3, 36, 1447.334228515625
0, 3, 37, 1512.444213867188
0, 3, 38, 1517.304565429688
0, 3, 39, 1440.088623046875
0, 3, 40, 1444.192504882812
0, 3, 41, 1559.829833984375
0, 3, 42, 1462.819213867188
0, 3, 43, 1452.8759765625
0, 3, 44, 1448.062744140625
0, 3, 45, 1509.329833984375
0, 3, 46, 1508.06298828125
0, 3, 47, 1443.55712890625
0, 3, 48, 1509.921752929688
0, 3, 49, 1454.359741210938
0, 3, 50, 1489.340454101562
0, 3, 51, 1539.721069335938
0, 3, 52, 1533.88720703125
0, 3, 53, 1466.132080078125
0, 3, 54, 1538.638793945312
0, 3, 55, 1503.079467773438
0, 3, 56, 1436.643676757812
0, 3, 57, 1502.166137695312
0, 3, 58, 1510.429077148438
0, 3, 59, 1508.8291015625
0, 3, 60, 1535.26416015625
0, 3, 61, 1479.807006835938
0, 3, 62, 1491.433349609375
0, 3, 63, 1491.788330078125
0, 3, 64, 1496.6220703125
0, 3, 65, 1511.615966796875
0, 3, 66, 1556.359619140625
0, 3, 67, 1550.152954101562
0, 3, 68, 1449.389892578125
0, 3, 69, 1463.95703125
0, 3, 70, 1388.755981445312
0, 3, 71, 1465.136962890625
0, 3, 72, 1547.769165039062
0, 3, 73, 1507.164916992188
0, 3, 74, 1464.694580078125
0, 3, 75, 1460.87158203125
0, 3, 76, 1574.411865234375
0, 3, 77, 1538.774047851562
0, 3, 78, 1430.850341796875
0, 3, 79, 1489.85498046875
0, 3, 80, 1462.363037109375
0, 3, 81, 1472.958374023438
0, 3, 82, 1556.555297851562
0, 3, 83, 1515.070556640625
0, 3, 84, 1562.925170898438
0, 3, 85, 1477.038452148438
0, 3, 86, 1525.01416015625
0, 3, 87, 1540.427978515625
0, 3, 88, 1456.196166992188
0, 3, 89, 1449.813598632812
0, 3, 90, 1455.933715820312
0, 3, 91, 1421.072387695312
0, 3, 92, 1509.6591796875
0, 3, 93, 1495.68310546875
0, 3, 94, 1511.700927734375
0, 3, 95, 1537.834350585938
0, 3, 96, 1511.208862304688
0, 3, 97, 1461.55029296875
0, 3, 98, 1431.01513671875
0, 3, 99, 1467.159301757812
0, 3, 100, 1468.9619140625
0, 3, 101, 1476.517456054688
0, 3, 102, 1523.948364257812
0, 3, 103, 1551.07763671875
0, 3, 104, 1496.393920898438
0, 3, 105, 1511.282836914062
0, 3, 106, 1476.383422851562
0, 3, 107, 1342.110961914062
0, 3, 108, 874.2601928710938
0, 3, 109, 261.1901245117188
0, 3, 110, 103.7438507080078
0, 3, 111, 68.52841949462891
0, 3, 112, 57.16013717651367
0, 3, 113, 50.62033462524414
0, 3, 114, 47.73082733154297
0, 3, 115, 51.88616180419922
0, 3, 116, 37.26748275756836
0, 3, 117, 38.84674072265625
0, 3, 118, 33.53188705444336
0, 3, 119, 30.80903625488281
0, 3, 120, 26.69855499267578
0, 3, 121, 16.93745994567871
0, 3, 122, 25.39789581298828
0, 3, 123, 22.67763328552246
0, 3, 124, 26.07691192626953
0, 3, 125, 29.34836578369141
0, 3, 126, 22.17022132873535
0, 3, 127, 16.77650451660156
0, 4, 0, 23.60563278198242
0, 4, 1, 23.89614486694336
0, 4, 2, 22.64395141601562
0, 4, 3, 23.28489875793457
0, 4, 4, 25.59609603881836
0, 4, 5, 30.51178741455078
0, 4, 6, 27.71227645874023
0, 4, 7, 31.35176277160645
0, 4, 8, 25.9686164855957
0, 4, 9, 39.58185958862305
0, 4, 10, 32.12995910644531
0, 4, 11, 40.23669052124023
0, 4, 12, 47.29942321777344
0, 4, 13, 53.74929809570312
0, 4, 14, 48.27223587036133
0, 4, 15, 61.59881210327148
0, 4, 16, 75.95383453369141
0, 4, 17, 112.4384384155273
0, 4, 18, 449.1976013183594
0, 4, 19, 1181.86865234375
0, 4, 20, 1447.22021484375
0, 4, 21, 1421.84521484375
0, 4, 22, 1435.898315429688
0, 4, 23, 1456.947509765625
0, 4, 24, 1476.8740234375
0, 4, 25, 1400.378051757812
0, 4, 26, 1536.009155273438
0, 4, 27, 1543.710815429688
0, 4, 28, 1504.782348632812
0, 4, 29, 1519.587768554688
0, 4, 30, 1528.495361328125
0, 4, 31, 1574.576904296875
0, 4, 32, 1518.41845703125
0, 4, 33, 1490.727294921875
0, 4, 34, 1463.044555664062
0, 4, 35, 1557.181640625
0, 4, 36, 1505.784057617188
0, 4, 37, 1517.636840820312
0, 4, 38, 1534.873901367188
0, 4, 39, 1469.632202148438
0, 4, 40, 1511.919555664062
0, 4, 41, 1586.137817382812
0, 4, 42, 1558.621337890625
0, 4, 43, 1470.225952148438
0, 4, 44, 1502.218872070312
0, 4, 45, 1520.567260742188
0, 4, 46, 1468.388427734375
0, 4, 47, 1506.596923828125
0, 4, 48, 1523.48388671875
0, 4, 49, 1467.503051757812
0, 4, 50, 1515.878540039062
0, 4, 51, 1495.258056640625
0, 4, 52, 1494.170532226562
0, 4, 53, 1451.519775390625
0, 4, 54, 1443.684204101562
0, 4, 55, 1527.341430664062
0, 4, 56, 1457.9951171875
0, 4, 57, 1499.444946289062
0, 4, 58, 1465.62109375
0, 4, 59, 1466.355224609375
0, 4, 60, 1523.2001953125
0, 4, 61, 1498.44140625
0, 4, 62, 1511.860717773438
0, 4, 63, 1548.895385742188
0, 4, 64, 1595.926391601562
0, 4, 65, 1424.158569335938
0, 4, 66, 1511.414428710938
0, 4, 67, 1519.261962890625
0, 4, 68, 1494.229736328125
0, 4, 69, 1469.75634765625
0, 4, 70, 1545.200805664062
0, 4, 71, 1514.034057617188
0, 4, 72, 1528.992553710938
0, 4, 73, 1487.549682617188
0, 4, 74, 1484.532958984375
0, 4, 75, 1535.482299804688
0, 4, 76, 1481.77490234375
0, 4, 77, 1496.740844726562
0, 4, 78, 1499.502685546875
0, 4, 79, 1481.7333984375
0, 4, 80, 1515.117919921875
0, 4, 81, 1525.459716796875
0, 4, 82, 1566.968383789062
0, 4, 83, 1503.71826171875
0, 4, 84, 1533.850708007812
0, 4, 85, 1551.935180664062
0, 4, 86, 1524.969604492188
0, 4, 87, 1497.898315429688
0, 4, 88, 1517.561645507812
0, 4, 89, 1482.219482421875
0, 4, 90, 1542.638305664062
0, 4, 91, 1552.286010742188
0, 4, 92, 1492.756469726562
0, 4, 93, 1520.63818359375
0, 4, 94, 1488.162719726562
0, 4, 95, 1512.3671875
0, 4, 96, 1446.61474609375
0, 4, 97, 1407.47412109375
0, 4, 98, 1553.254516601562
0, 4, 99, 1506.78076171875
0, 4, 100, 1488.771362304688
0, 4, 101, 1448.125122070312
0, 4, 102, 1442.08642578125
0, 4, 103, 1515.467895507812
0, 4, 104, 1515.057373046875
0, 4, 105, 1556.74169921875
0, 4, 106, 1480.015258789062
0, 4, 107, 1455.673706054688
0, 4, 108, 1119.888305664062
0, 4, 109, 432.2496032714844
0, 4, 110, 97.17597198486328
0, 4, 111, 70.10056304931641
0, 4, 112, 60.80785369873047
0, 4, 113, 51.08386993408203
0, 4, 114, 50.35862731933594
0, 4, 115, 46.02940368652344
0, 4, 116, 33.66210556030273
0, 4, 117, 38.60187149047852
0, 4, 118, 43.57086563110352
0, 4, 119, 38.39438629150391
0, 4, 120, 33.7789421081543
0, 4, 121, 24.60721588134766
0, 4, 122, 31.53731727600098
0, 4, 123, 32.17601776123047
0, 4, 124, 21.80139923095703
0, 4, 125, 34.81464004516602
0, 4, 126, 21.17698860168457
0, 4, 127, 17.72056007385254
0, 5, 0, 21.61785125732422
0, 5, 1, 25.39233589172363
0, 5, 2, 33.56444549560547
0, 5, 3, 27.94989013671875
0, 5, 4, 25.72870635986328
0, 5, 5, 38.06550216674805
0, 5, 6, 28.40036773681641
0, 5, 7, 35.54338073730469
0, 5, 8, 34.57931900024414
0, 5, 9, 29.74546241760254
0, 5, 10, 32.44919967651367
0, 5, 11, 35.64273071289062
0, 5, 12, 40.53166198730469
0, 5, 13, 40.35733795166016
0, 5, 14, 55.68044662475586
0, 5, 15, 78.31195831298828
0, 5, 16, 81.21403503417969
0, 5, 17, 161.0648498535156
0, 5, 18, 677.4398803710938
0, 5, 19, 1342.2158203125
0, 5, 20, 1527.074340820312
0, 5, 21, 1496.588256835938
0, 5, 22, 1499.197875976562
0, 5, 23, 1527.368286132812
0, 5, 24, 1467.324340820312
0, 5, 25, 1425.867309570312
0, 5, 26, 1529.003662109375
0, 5, 27, 1535.656616210938
0, 5, 28, 1483.864135742188
0, 5, 29, 1520.630493164062
0, 5, 30, 1496.075317382812
0, 5, 31, 1494.987548828125
0, 5, 32, 1601.815795898438
0, 5, 33, 1501.754272460938
0, 5, 34, 1479.827026367188
0, 5, 35, 1513.836303710938
0, 5, 36, 1441.557373046875
0, 5, 37, 1529.882202148438
0, 5, 38, 1545.24755859375
0, 5, 39, 1545.791015625
0, 5, 40, 1507.7158203125
0, 5, 41, 1475.486083984375
0, 5, 42, 1543.618530273438
0, 5, 43, 1534.312744140625
0, 5, 44, 1542.482666015625
0, 5, 45, 1504.365234375
0, 5, 46, 1491.599609375
0, 5, 47, 1479.7001953125
0, 5, 48, 1500.722290039062
0, 5, 49, 1524.633178710938
0, 5, 50, 1506.091796875
0, 5, 51, 1517.173828125
0, 5, 52, 1431.439819335938
0, 5, 53, 1526.216552734375
0, 5, 54, 1518.888793945312
0, 5, 55, 1520.472412109375
0, 5, 56, 1484.853637695312
0, 5, 57, 1542.779052734375
0, 5, 58, 1504.363403320312
0, 5, 59, 1488.708862304688
0, 5, 60, 1537.700439453125
0, 5, 61, 1448.605712890625
0, 5, 62, 1585.2724609375
0, 5, 63, 1429.056518554688
0, 5, 64, 1490.655395507812
0, 5, 65, 1465.821411132812
0, 5, 66, 1528.737548828125
0, 5, 67, 1561.249877929688
0, 5, 68, 1460.812744140625
0, 5, 69, 1482.585327148438
0, 5, 70, 1489.255981445312
0, 5, 71, 1466.408081054688
0, 5, 72, 1534.634521484375
0, 5, 73, 1461.693603515625
0, 5, 74, 1493.621337890625
0, 5, 75, 1491.1435546875
0, 5, 76, 1476.018920898438
0, 5, 77, 1516.8232421875
0, 5, 78, 1523.790649414062
0, 5, 79, 1512.09228515625
0, 5, 80, 1523.759887695312
0, 5, 81, 1595.143432617188
0, 5, 82, 1526.780395507812
0, 5, 83, 1491.626831054688
0, 5, 84, 1534.776489257812
0, 5, 85, 1513.03564453125
0, 5, 86, 1557.449829101562
0, 5, 87, 1467.565551757812
0, 5, 88, 1496.332641601562
0, 5, 89, 1486.109252929688
0, 5, 90, 1480.050170898438
0, 5, 91, 1547.85693359375
0, 5, 92, 1484.298217773438
0, 5, 93, 1561.7041015625
0, 5, 94, 1505.1875
0, 5, 95, 1561.737182617188
0, 5, 96, 1498.788940429688
0, 5, 97, 1511.405639648438
0, 5, 98, 1511.945922851562
0, 5, 99, 1539.95849609375
0, 5, 100, 1440.654296875
0, 5, 101, 1435.1845703125
0, 5, 102, 1510.49169921875
0, 5, 103, 1471.330322265625
0, 5, 104, 1458.25146484375
0, 5, 105, 1494.05908203125
0, 5, 106, 1458.478393554688
0, 5, 107, 1397.26416015625
0, 5, 108, 1290.433959960938
0, 5, 109, 720.9024658203125
0, 5, 110, 192.4382019042969
0, 5, 111, 89.71506500244141
0, 5, 112, 78.10517120361328
0, 5, 113, 63.43649291992188
0, 5, 114, 57.57514953613281
0, 5, 115, 50.56351470947266
0, 5, 116, 38.45632171630859
0, 5, 117, 35.04059600830078
0, 5, 118, 44.74200439453125
0, 5, 119, 22.14474678039551
0, 5, 120, 26.22889137268066
0, 5, 121, 26.30947875976562
0, 5, 122, 30.03294944763184
0, 5, 123, 28.25920677185059
0, 5, 124, 24.55133628845215
0, 5, 125, 21.57860374450684
0, 5, 126, 18.66348457336426
0, 5, 127, 21.81011199951172
0, 6, 0, 16.48332786560059
0, 6, 1, 26.92761421203613
0, 6, 2, 29.53679847717285
0, 6, 3, 30.75555992126465
0, 6, 4, 28.2545337677002
0, 6, 5, 30.09178161621094
0, 6, 6, 35.48532485961914
0, 6, 7, 30.49531745910645
0, 6, 8, 33.30115509033203
0, 6, 9, 32.76602935791016
0, 6, 10, 37.87790679931641
0, 6, 11, 36.46603775024414
0, 6, 12, 41.45869064331055
0, 6, 13, 57.42912673950195
0, 6, 14, 64.19886016845703
0, 6, 15, 82.15070343017578
0, 6, 16, 111.5303268432617
0, 6, 17, 304.0282287597656
0, 6, 18, 900.9920043945312
0, 6, 19, 1374.698364257812
0, 6, 20, 1444.567993164062
0, 6, 21, 1530.767822265625
0, 6, 22, 1500.454833984375
0, 6, 23, 1529.1796875
0, 6, 24, 1481.49853515625
0, 6, 25, 1531.796142578125
0, 6, 26, 1519.634399414062
0, 6, 27, 1529.306762695312
0, 6, 28, 1550.527221679688
0, 6, 29, 1571.030883789062
0, 6, 30, 1512.084716796875
0, 6, 31, 1493.408203125
0, 6, 32, 1522.880859375
0, 6, 33, 1491.557006835938
0, 6, 34, 1558.595947265625
0, 6, 35, 1502.951782226562
0, 6, 36, 1439.436767578125
0, 6, 37, 1545.436157226562
0, 6, 38, 1528.187622070312
0, 6, 39, 1523.613037109375
0, 6, 40, 1459.054077148438
0, 6, 41, 1437.586791992188
0, 6, 42, 1515.151977539062
0, 6, 43, 1487.949462890625
0, 6, 44, 1434.656005859375
0, 6, 45, 1545.928344726562
0, 6, 46, 1552.068603515625
0, 6, 47, 1497.074462890625
0, 6, 48, 1519.55322265625
0, 6, 49, 1509.2783203125
0, 6, 50, 1576.737548828125
0, 6, 51, 1500.728393554688
0, 6, 52, 1560.354370117188
0, 6, 53, 1478.525756835938
0, 6, 54, 1500.645141601562
0, 6, 55, 1573.883422851562
0, 6, 56, 1523.028076171875
0, 6, 57, 1502.513671875
0, 6, 58, 1468.515625
0, 6, 59, 1523.185546875
0, 6, 60, 1467.612548828125
0, 6, 61, 1568.57177734375
0, 6, 62, 1548.197387695312
0, 6, 63, 1492.102294921875
0, 6, 64, 1417.667602539062
0, 6, 65, 1491.2138671875
0, 6, 66, 1509.611083984375
0, 6, 67, 1510.93408203125
0, 6, 68, 1544.480712890625
0, 6, 69, 1485.929443359375
0, 6, 70, 1523.280395507812
0, 6, 71, 1468.333374023438
0, 6, 72, 1594.185546875
0, 6, 73, 1485.77685546875
0, 6, 74, 1556.115966796875
0, 6, 75, 1535.87548828125
0, 6, 76, 1564.93408203125
0, 6, 77, 1510.797241210938
0, 6, 78, 1444.49365234375
0, 6, 79, 1559.968505859375
0, 6, 80, 1482.597045898438
0, 6, 81, 1481.371826171875
0, 6, 82, 1508.154418945312
0, 6, 83, 1519.560546875
0, 6, 84, 1519.969970703125
0, 6, 85, 1539.026977539062
0, 6, 86, 1537.209594726562
0, 6, 87, 1573.292114257812
0, 6, 88, 1480.036743164062
0, 6, 89, 1565.176147460938
0, 6, 90, 1493.119384765625
0, 6, 91, 1543.633544921875
0, 6, 92, 1492.2314453125
0, 6, 93, 1497.045532226562
0, 6, 94, 1471.845703125
0, 6, 95, 1509.843505859375
0, 6, 96, 1522.651733398438
0, 6, 97, 1509.041748046875
0, 6, 98, 1495.910766601562
0, 6, 99, 1475.347900390625
0, 6, 100, 1522.030883789062
0, 6, 101, 1513.064453125
0, 6, 102, 1537.696655273438
0, 6, 103, 1496.206909179688
0, 6, 104, 1468.610473632812
0, 6, 105, 1485.51171875
0, 6, 106, 1498.56591796875
0, 6, 107, 1503.4931640625
0, 6, 108, 1407.741577148438
0, 6, 109, 925.389404296875
0, 6, 110, 283.9641418457031
0, 6, 111, 95.16915893554688
0, 6, 112, 75.92178344726562
0, 6, 113, 61.96598434448242
0, 6, 114, 54.07791137695312
0, 6, 115, 40.752197265625
0, 6, 116, 39.70137023925781
0, 6, 117, 40.41459274291992
0, 6, 118, 44.45683670043945
0, 6, 119, 38.19834136962891
0, 6, 120, 30.77206230163574
0, 6, 121, 29.17026329040527
0, 6, 122, 28.32465744018555
0, 6, 123, 25.1307487487793
0, 6, 124, 26.53805351257324
0, 6, 125, 30.31953048706055
0, 6, 126, 20.00884246826172
0, 6, 127, 22.2280445098877
0, 7, 0, 20.41907119750977
0, 7, 1, 25.40342140197754
0, 7, 2, 23.37753105163574
0, 7, 3, 22.71129417419434
0, 7, 4, 24.38655662536621
0, 7, 5, 37.77745819091797
0, 7, 6, 38.72128677368164
0, 7, 7, 36.82991027832031
0, 7, 8, 31.05664443969727
0, 7, 9, 41.52766418457031
0, 7, 10, 45.15305709838867
0, 7, 11, 51.05610275268555
0, 7, 12, 48.63983917236328
0, 7, 13, 48.55331802368164
0, 7, 14, 64.00847625732422
0, 7, 15, 76.57375335693359
0, 7, 16, 132.0708923339844
0, 7, 17, 460.4959106445312
0, 7, 18, 1102.309936523438
0, 7, 19, 1501.061279296875
0, 7, 20, 1486.09033203125
0, 7, 21, 1363.88037109375
0, 7, 22, 1489.330932617188
0, 7, 23, 1459.982666015625
0, 7, 24, 1509.70849609375
0, 7, 25, 1598.882568359375
0, 7, 26, 1518.214477539062
0, 7, 27, 1506.932983398438
0, 7, 28, 1544.65673828125
0, 7, 29, 1572.481567382812
0, 7, 30, 1552.307250976562
0, 7, 31, 1435.5166015625
0, 7, 32, 1544.053100585938
0, 7, 33, 1488.066772460938
0, 7, 34, 1478.236206054688
0, 7, 35, 1528.399780273438
0, 7, 36, 1475.682373046875
0, 7, 37, 1600.427856445312
0, 7, 38, 1509.27783203125
0, 7, 39, 1491.079223632812
0, 7, 40, 1542.92822265625
0, 7, 41, 1470.435424804688
0, 7, 42, 1494.145263671875
0, 7, 43, 1444.439331054688
0, 7, 44, 1490.477661132812
0, 7, 45, 1473.808715820312
0, 7, 46, 1508.877075195312
0, 7, 47, 1568.14990234375
0, 7, 48, 1520.930786132812
0, 7, 49, 1542.04296875
0, 7, 50, 1517.374389648438
0, 7, 51, 1499.081298828125
0, 7, 52, 1516.601806640625
0, 7, 53, 1492.303344726562
0, 7, 54, 1585.14990234375
0, 7, 55, 1473.708740234375
0, 7, 56, 1552.687866210938
0, 7, 57, 1515.053100585938
0, 7, 58, 1549.8955078125
0, 7, 59, 1541.69140625
0, 7, 60, 1550.98291015625
0, 7, 61, 1486.909912109375
0, 7, 62, 1433.072631835938
0, 7, 63, 1516.765380859375
0, 7, 64, 1546.65869140625
0, 7, 65, 1530.679443359375
0, 7, 66, 1541.949829101562
0, 7, 67, 1580.121459960938
0, 7, 68, 1533.918701171875
0, 7, 69, 1512.078735351562
0, 7, 70, 1498.777587890625
0, 7, 71, 1524.909057617188
0, 7, 72, 1522.79052734375
0, 7, 73, 1518.165771484375
0, 7, 74, 1572.873779296875
0, 7, 75, 1535.1240234375
0, 7, 76, 1560.905517578125
0, 7, 77, 1513.14599609375
0, 7, 78, 1504.106689453125
0, 7, 79, 1424.911010742188
0, 7, 80, 1492.421875
0, 7, 81, 1495.788208007812
0, 7, 82, 1537.521362304688
0, 7, 83, 1546.701293945312
0, 7, 84, 1583.874389648438
0, 7, 85, 1479.2841796875
0, 7, 86, 1502.634887695312
0, 7, 87, 1508.089965820312
0, 7, 88, 1498.353881835938
0, 7, 89, 1553.648071289062
0, 7, 90, 1521.937622070312
0, 7, 91, 1563.201171875
0, 7, 92, 1527.353149414062
0, 7, 93, 1555.060424804688
0, 7, 94, 1544.9267578125
0, 7, 95, 1510.647583007812
0, 7, 96, 1504.604125976562
0, 7, 97, 1432.519653320312
0, 7, 98, 1483.343139648438
0, 7, 99, 1528.185424804688
0, 7, 100, 1415.719970703125
0, 7, 101, 1462.925048828125
0, 7, 102, 1451.375610351562
0, 7, 103, 1429.751953125
0, 7, 104, 1492.52587890625
0, 7, 105, 1521.85302734375
0, 7, 106, 1572.27783203125
0, 7, 107, 1480.95751953125
0, 7, 108, 1414.979614257812
0, 7, 109, 1151.941284179688
0, 7, 110, 470.5178527832031
0, 7, 111, 124.9596786499023
0, 7, 112, 77.73471832275391
0, 7, 113, 73.89189910888672
0, 7, 114, 59.09689331054688
0, 7, 115, 56.36601638793945
0, 7, 116, 44.1517219543457
0, 7, 117, 45.42233657836914
0, 7, 118, 41.55929946899414
0, 7, 119, 37.55010223388672
0, 7, 120, 22.68733024597168
0, 7, 121, 32.88491821289062
0, 7, 122, 31.94181251525879
0, 7, 123, 30.65243530273438
0, 7, 124, 29.51684188842773
0, 7, 125, 27.62508583068848
0, 7, 126, 23.70656967163086
0, 7, 127, 21.79708099365234
0, 8, 0, 20.76334381103516
0, 8, 1, 21.63682556152344
0, 8, 2, 26.29581642150879
0, 8, 3, 23.43950462341309
0, 8, 4, 23.26852035522461
0, 8, 5, 31.81088066101074
0, 8, 6, 31.03968620300293
0, 8, 7, 28.13077163696289
0, 8, 8, 36.47676467895508
0, 8, 9, 44.37390899658203
0, 8, 10, 48.05267333984375
0, 8, 11, 40.08187484741211
0, 8, 12, 54.78881454467773
0, 8, 13, 71.68765258789062
0, 8, 14, 67.78757476806641
0, 8, 15, 83.32125854492188
0, 8, 16, 169.5390472412109
0, 8, 17, 674.3807373046875
0, 8, 18, 1275.351684570312
0, 8, 19, 1449.348510742188
0, 8, 20, 1419.758666992188
0, 8, 21, 1408.414428710938
0, 8, 22, 1490.742553710938
0, 8, 23, 1478.901611328125
0, 8, 24, 1435.173828125
0, 8, 25, 1457.6484375
0, 8, 26, 1515.494506835938
0, 8, 27, 1523.704711914062
0, 8, 28, 1479.957885742188
0, 8, 29, 1508.8603515625
0, 8, 30, 1485.751342773438
0, 8, 31, 1530.078979492188
0, 8, 32, 1507.665771484375
0, 8, 33, 1484.928955078125
0, 8, 34, 1536.170288085938
0, 8, 35, 1438.42333984375
0, 8, 36, 1495.67578125
0, 8, 37, 1554.0283203125
0, 8, 38, 1548.959838867188
0, 8, 39, 1496.375610351562
0, 8, 40, 1531.14404296875
0, 8, 41, 1482.193359375
0, 8, 42, 1541.283447265625
0, 8, 43, 1433.36083984375
0, 8, 44, 1535.061401367188
0, 8, 45, 1511.31689453125
0, 8, 46, 1600.70361328125
