# TOPAS Version: 3.1.p3
# Parameter File: batch_inserts_244.txt
# Results for scorer Readout_Adipose
# Scored in component: MyBox
# X in 1 bin  of 0.75 cm
# Y in 512 bins of 0.0783984 cm
# Z in 128 bins of 0.078125 cm
# EnergyDeposit ( MeV ) : Sum   
0, 0, 0, 20.1809139251709
0, 0, 1, 21.10624694824219
0, 0, 2, 29.7081470489502
0, 0, 3, 25.36780738830566
0, 0, 4, 20.17024803161621
0, 0, 5, 22.76865005493164
0, 0, 6, 30.45773315429688
0, 0, 7, 37.64396286010742
0, 0, 8, 22.67529106140137
0, 0, 9, 21.86631011962891
0, 0, 10, 22.38978576660156
0, 0, 11, 27.78306770324707
0, 0, 12, 34.83861541748047
0, 0, 13, 31.10354614257812
0, 0, 14, 38.01985549926758
0, 0, 15, 46.03963851928711
0, 0, 16, 43.78481674194336
0, 0, 17, 47.70690536499023
0, 0, 18, 76.77723693847656
0, 0, 19, 194.0072937011719
0, 0, 20, 700.2816772460938
0, 0, 21, 1190.624267578125
0, 0, 22, 1249.288208007812
0, 0, 23, 1274.294555664062
0, 0, 24, 1279.240234375
0, 0, 25, 1356.090942382812
0, 0, 26, 1273.862548828125
0, 0, 27, 1277.541381835938
0, 0, 28, 1320.610961914062
0, 0, 29, 1271.484497070312
0, 0, 30, 1264.279052734375
0, 0, 31, 1284.012817382812
0, 0, 32, 1263.105712890625
0, 0, 33, 1241.490234375
0, 0, 34, 1326.282104492188
0, 0, 35, 1305.962768554688
0, 0, 36, 1247.554443359375
0, 0, 37, 1280.928588867188
0, 0, 38, 1245.5478515625
0, 0, 39, 1249.046875
0, 0, 40, 1223.236572265625
0, 0, 41, 1269.786743164062
0, 0, 42, 1254.996337890625
0, 0, 43, 1267.394287109375
0, 0, 44, 1230.060913085938
0, 0, 45, 1287.325927734375
0, 0, 46, 1263.144409179688
0, 0, 47, 1239.39501953125
0, 0, 48, 1276.384887695312
0, 0, 49, 1286.403564453125
0, 0, 50, 1311.575927734375
0, 0, 51, 1260.894165039062
0, 0, 52, 1359.065673828125
0, 0, 53, 1328.283325195312
0, 0, 54, 1296.62841796875
0, 0, 55, 1231.7841796875
0, 0, 56, 1318.26708984375
0, 0, 57, 1293.193359375
0, 0, 58, 1255.486328125
0, 0, 59, 1329.275146484375
0, 0, 60, 1328.484741210938
0, 0, 61, 1264.182861328125
0, 0, 62, 1242.531005859375
0, 0, 63, 1278.482055664062
0, 0, 64, 1326.277099609375
0, 0, 65, 1286.962890625
0, 0, 66, 1316.310791015625
0, 0, 67, 1215.331665039062
0, 0, 68, 1310.303466796875
0, 0, 69, 1322.49365234375
0, 0, 70, 1340.495361328125
0, 0, 71, 1287.513916015625
0, 0, 72, 1313.944213867188
0, 0, 73, 1238.23291015625
0, 0, 74, 1293.94140625
0, 0, 75, 1294.371826171875
0, 0, 76, 1256.559692382812
0, 0, 77, 1284.0146484375
0, 0, 78, 1315.498657226562
0, 0, 79, 1330.3662109375
0, 0, 80, 1260.301025390625
0, 0, 81, 1324.644287109375
0, 0, 82, 1286.922241210938
0, 0, 83, 1290.14208984375
0, 0, 84, 1326.890014648438
0, 0, 85, 1236.999389648438
0, 0, 86, 1265.6083984375
0, 0, 87, 1249.548217773438
0, 0, 88, 1252.736328125
0, 0, 89, 1335.817504882812
0, 0, 90, 1280.638671875
0, 0, 91, 1357.66162109375
0, 0, 92, 1296.711303710938
0, 0, 93, 1273.375122070312
0, 0, 94, 1243.838012695312
0, 0, 95, 1324.59521484375
0, 0, 96, 1284.2998046875
0, 0, 97, 1322.952514648438
0, 0, 98, 1254.999877929688
0, 0, 99, 1248.17333984375
0, 0, 100, 1289.112182617188
0, 0, 101, 1313.875
0, 0, 102, 1234.41259765625
0, 0, 103, 1317.597534179688
0, 0, 104, 1261.609130859375
0, 0, 105, 1267.842529296875
0, 0, 106, 1211.744018554688
0, 0, 107, 784.8922729492188
0, 0, 108, 196.2004089355469
0, 0, 109, 66.55910491943359
0, 0, 110, 66.40636444091797
0, 0, 111, 39.15489196777344
0, 0, 112, 35.48308563232422
0, 0, 113, 30.09441566467285
0, 0, 114, 31.73785400390625
0, 0, 115, 31.06151008605957
0, 0, 116, 26.76284790039062
0, 0, 117, 27.88117408752441
0, 0, 118, 27.80607414245605
0, 0, 119, 22.43211364746094
0, 0, 120, 25.36735725402832
0, 0, 121, 27.42575454711914
0, 0, 122, 25.62004280090332
0, 0, 123, 18.42621040344238
0, 0, 124, 22.96282958984375
0, 0, 125, 16.76805114746094
0, 0, 126, 24.05165100097656
0, 0, 127, 15.74691486358643
0, 1, 0, 23.22398376464844
0, 1, 1, 24.41808700561523
0, 1, 2, 22.36517333984375
0, 1, 3, 23.07928848266602
0, 1, 4, 24.68367195129395
0, 1, 5, 30.66219902038574
0, 1, 6, 22.2452564239502
0, 1, 7, 23.94231605529785
0, 1, 8, 34.62256622314453
0, 1, 9, 29.46558380126953
0, 1, 10, 34.1906852722168
0, 1, 11, 39.72962951660156
0, 1, 12, 43.69643783569336
0, 1, 13, 44.89539337158203
0, 1, 14, 44.74361801147461
0, 1, 15, 56.03207015991211
0, 1, 16, 55.77935791015625
0, 1, 17, 59.44477081298828
0, 1, 18, 95.03050231933594
0, 1, 19, 396.8400268554688
0, 1, 20, 1043.944946289062
0, 1, 21, 1370.497192382812
0, 1, 22, 1477.843872070312
0, 1, 23, 1456.542602539062
0, 1, 24, 1445.689086914062
0, 1, 25, 1423.751586914062
0, 1, 26, 1475.206665039062
0, 1, 27, 1463.401245117188
0, 1, 28, 1491.629638671875
0, 1, 29, 1479.399047851562
0, 1, 30, 1510.532348632812
0, 1, 31, 1489.776977539062
0, 1, 32, 1409.829833984375
0, 1, 33, 1498.61474609375
0, 1, 34, 1498.558349609375
0, 1, 35, 1458.707275390625
0, 1, 36, 1488.274169921875
0, 1, 37, 1404.269653320312
0, 1, 38, 1389.283325195312
0, 1, 39, 1524.788818359375
0, 1, 40, 1463.086181640625
0, 1, 41, 1489.344116210938
0, 1, 42, 1494.737670898438
0, 1, 43, 1500.773803710938
0, 1, 44, 1449.573608398438
0, 1, 45, 1488.867431640625
0, 1, 46, 1421.464477539062
0, 1, 47, 1441.363403320312
0, 1, 48, 1433.64501953125
0, 1, 49, 1482.130126953125
0, 1, 50, 1442.371215820312
0, 1, 51, 1473.179321289062
0, 1, 52, 1473.804809570312
0, 1, 53, 1476.117431640625
0, 1, 54, 1504.465209960938
0, 1, 55, 1498.167846679688
0, 1, 56, 1470.367065429688
0, 1, 57, 1456.953735351562
0, 1, 58, 1428.3212890625
0, 1, 59, 1482.895385742188
0, 1, 60, 1468.469848632812
0, 1, 61, 1447.947631835938
0, 1, 62, 1452.321533203125
0, 1, 63, 1411.938598632812
0, 1, 64, 1475.240112304688
0, 1, 65, 1414.001586914062
0, 1, 66, 1440.125610351562
0, 1, 67, 1455.748291015625
0, 1, 68, 1393.712768554688
0, 1, 69, 1464.469848632812
0, 1, 70, 1430.596435546875
0, 1, 71, 1495.386596679688
0, 1, 72, 1435.032836914062
0, 1, 73, 1489.789184570312
0, 1, 74, 1470.5869140625
0, 1, 75, 1479.378295898438
0, 1, 76, 1458.794677734375
0, 1, 77, 1466.646362304688
0, 1, 78, 1445.018798828125
0, 1, 79, 1503.477783203125
0, 1, 80, 1452.430297851562
0, 1, 81, 1424.469970703125
0, 1, 82, 1475.481567382812
0, 1, 83, 1462.918701171875
0, 1, 84, 1537.651489257812
0, 1, 85, 1447.739868164062
0, 1, 86, 1407.699829101562
0, 1, 87, 1422.362426757812
0, 1, 88, 1470.703125
0, 1, 89, 1471.493530273438
0, 1, 90, 1424.837280273438
0, 1, 91, 1465.09423828125
0, 1, 92, 1411.888549804688
0, 1, 93, 1456.016479492188
0, 1, 94, 1464.391235351562
0, 1, 95, 1421.174560546875
0, 1, 96, 1496.1962890625
0, 1, 97, 1515.92431640625
0, 1, 98, 1475.67822265625
0, 1, 99, 1418.611328125
0, 1, 100, 1447.009155273438
0, 1, 101, 1414.31640625
0, 1, 102, 1441.381225585938
0, 1, 103, 1413.642822265625
0, 1, 104, 1411.656616210938
0, 1, 105, 1461.433959960938
0, 1, 106, 1366.346069335938
0, 1, 107, 1017.980041503906
0, 1, 108, 404.5426940917969
0, 1, 109, 94.43220520019531
0, 1, 110, 60.33119201660156
0, 1, 111, 59.95951461791992
0, 1, 112, 52.25860977172852
0, 1, 113, 38.31380081176758
0, 1, 114, 39.05354690551758
0, 1, 115, 41.24484252929688
0, 1, 116, 35.85158157348633
0, 1, 117, 35.91587066650391
0, 1, 118, 37.84894561767578
0, 1, 119, 32.92972946166992
0, 1, 120, 29.69773101806641
0, 1, 121, 26.96345520019531
0, 1, 122, 21.46009635925293
0, 1, 123, 22.54388236999512
0, 1, 124, 31.15104103088379
0, 1, 125, 22.96963691711426
0, 1, 126, 14.76939678192139
0, 1, 127, 20.00703620910645
0, 2, 0, 24.01352500915527
0, 2, 1, 19.42604827880859
0, 2, 2, 26.41862297058105
0, 2, 3, 25.02778244018555
0, 2, 4, 24.52896881103516
0, 2, 5, 26.37212944030762
0, 2, 6, 20.31321716308594
0, 2, 7, 25.43709564208984
0, 2, 8, 28.89140129089355
0, 2, 9, 27.49279594421387
0, 2, 10, 28.6706600189209
0, 2, 11, 35.13809585571289
0, 2, 12, 39.98662948608398
0, 2, 13, 45.26222610473633
0, 2, 14, 44.82564544677734
0, 2, 15, 43.78374862670898
0, 2, 16, 64.05947113037109
0, 2, 17, 75.81106567382812
0, 2, 18, 147.8003692626953
0, 2, 19, 604.6550903320312
0, 2, 20, 1283.015380859375
0, 2, 21, 1439.477905273438
0, 2, 22, 1460.302124023438
0, 2, 23, 1410.244750976562
0, 2, 24, 1439.223266601562
0, 2, 25, 1522.859008789062
0, 2, 26, 1554.890014648438
0, 2, 27, 1452.828857421875
0, 2, 28, 1459.092529296875
0, 2, 29, 1463.946533203125
0, 2, 30, 1457.385009765625
0, 2, 31, 1536.2275390625
0, 2, 32, 1506.912353515625
0, 2, 33, 1442.190551757812
0, 2, 34, 1472.271484375
0, 2, 35, 1473.547485351562
0, 2, 36, 1527.581909179688
0, 2, 37, 1543.627685546875
0, 2, 38, 1505.463623046875
0, 2, 39, 1462.652709960938
0, 2, 40, 1506.36279296875
0, 2, 41, 1512.563598632812
0, 2, 42, 1503.245239257812
0, 2, 43, 1550.661987304688
0, 2, 44, 1461.350708007812
0, 2, 45, 1481.073486328125
0, 2, 46, 1424.229736328125
0, 2, 47, 1446.072265625
0, 2, 48, 1393.810913085938
0, 2, 49, 1459.080444335938
0, 2, 50, 1442.463012695312
0, 2, 51, 1446.623291015625
0, 2, 52, 1492.846313476562
0, 2, 53, 1525.409912109375
0, 2, 54, 1523.920532226562
0, 2, 55, 1495.3662109375
0, 2, 56, 1463.356323242188
0, 2, 57, 1412.585083007812
0, 2, 58, 1455.910522460938
0, 2, 59, 1449.1455078125
0, 2, 60, 1467.7890625
0, 2, 61, 1449.732666015625
0, 2, 62, 1473.56884765625
0, 2, 63, 1507.644165039062
0, 2, 64, 1459.543579101562
0, 2, 65, 1424.763427734375
0, 2, 66, 1491.398193359375
0, 2, 67, 1503.009033203125
0, 2, 68, 1545.885375976562
0, 2, 69, 1538.068115234375
0, 2, 70, 1505.6337890625
0, 2, 71, 1465.80078125
0, 2, 72, 1517.438842773438
0, 2, 73, 1520.340576171875
0, 2, 74, 1494.24462890625
0, 2, 75, 1506.007446289062
0, 2, 76, 1451.931762695312
0, 2, 77, 1505.394897460938
0, 2, 78, 1435.878051757812
0, 2, 79, 1536.360229492188
0, 2, 80, 1480.015869140625
0, 2, 81, 1462.818359375
0, 2, 82, 1554.468994140625
0, 2, 83, 1512.139404296875
0, 2, 84, 1490.181030273438
0, 2, 85, 1514.59814453125
0, 2, 86, 1538.759399414062
0, 2, 87, 1491.557861328125
0, 2, 88, 1536.621337890625
0, 2, 89, 1467.57568359375
0, 2, 90, 1429.018920898438
0, 2, 91, 1408.772583007812
0, 2, 92, 1474.837768554688
0, 2, 93, 1496.231567382812
0, 2, 94, 1451.233764648438
0, 2, 95, 1544.231079101562
0, 2, 96, 1511.466796875
0, 2, 97, 1450.107788085938
0, 2, 98, 1464.852416992188
0, 2, 99, 1406.305297851562
0, 2, 100, 1470.22314453125
0, 2, 101, 1477.915283203125
0, 2, 102, 1460.634643554688
0, 2, 103, 1386.783813476562
0, 2, 104, 1409.89453125
0, 2, 105, 1400.897827148438
0, 2, 106, 1457.72265625
0, 2, 107, 1278.693237304688
0, 2, 108, 622.6917114257812
0, 2, 109, 170.2134552001953
0, 2, 110, 73.02402496337891
0, 2, 111, 62.55231094360352
0, 2, 112, 45.03027725219727
0, 2, 113, 39.93659210205078
0, 2, 114, 34.94610977172852
0, 2, 115, 41.08295822143555
0, 2, 116, 36.32453536987305
0, 2, 117, 32.28097915649414
0, 2, 118, 29.0709285736084
0, 2, 119, 35.27257919311523
0, 2, 120, 30.81087112426758
0, 2, 121, 19.08086013793945
0, 2, 122, 25.73676872253418
0, 2, 123, 20.25583839416504
0, 2, 124, 27.324951171875
0, 2, 125, 27.30936622619629
0, 2, 126, 18.7942008972168
0, 2, 127, 23.90764808654785
0, 3, 0, 18.5670337677002
0, 3, 1, 24.81081008911133
0, 3, 2, 19.28389549255371
0, 3, 3, 22.30636215209961
0, 3, 4, 20.47479057312012
0, 3, 5, 25.05802917480469
0, 3, 6, 32.22195816040039
0, 3, 7, 30.02645683288574
0, 3, 8, 33.13724517822266
0, 3, 9, 35.3426628112793
0, 3, 10, 35.24623870849609
0, 3, 11, 32.55725479125977
0, 3, 12, 46.86609268188477
0, 3, 13, 52.7824592590332
0, 3, 14, 58.05529022216797
0, 3, 15, 55.04664611816406
0, 3, 16, 68.61326599121094
0, 3, 17, 91.156494140625
0, 3, 18, 239.0867156982422
0, 3, 19, 879.629638671875
0, 3, 20, 1388.264770507812
0, 3, 21, 1507.788818359375
0, 3, 22, 1458.776123046875
0, 3, 23, 1454.070922851562
0, 3, 24, 1439.841430664062
0, 3, 25, 1458.886108398438
0, 3, 26, 1496.5302734375
0, 3, 27, 1468.458984375
0, 3, 28, 1495.267822265625
0, 3, 29, 1547.016967773438
0, 3, 30, 1570.501220703125
0, 3, 31, 1513.806518554688
0, 3, 32, 1546.353393554688
0, 3, 33, 1540.729736328125
0, 3, 34, 1486.239990234375
0, 3, 35, 1463.098388671875
0, 3, 36, 1451.941162109375
0, 3, 37, 1511.204467773438
0, 3, 38, 1520.845336914062
0, 3, 39, 1436.06494140625
0, 3, 40, 1442.626220703125
0, 3, 41, 1565.124877929688
0, 3, 42, 1458.0185546875
0, 3, 43, 1455.363891601562
0, 3, 44, 1449.30322265625
0, 3, 45, 1512.197631835938
0, 3, 46, 1510.0703125
0, 3, 47, 1442.205444335938
0, 3, 48, 1510.553833007812
0, 3, 49, 1458.12841796875
0, 3, 50, 1493.079345703125
0, 3, 51, 1537.220703125
0, 3, 52, 1533.166625976562
0, 3, 53, 1473.021728515625
0, 3, 54, 1538.300415039062
0, 3, 55, 1500.920776367188
0, 3, 56, 1436.853393554688
0, 3, 57, 1506.369262695312
0, 3, 58, 1510.45947265625
0, 3, 59, 1509.806396484375
0, 3, 60, 1530.225463867188
0, 3, 61, 1483.65185546875
0, 3, 62, 1493.37060546875
0, 3, 63, 1496.17578125
0, 3, 64, 1503.352661132812
0, 3, 65, 1520.042358398438
0, 3, 66, 1557.039184570312
0, 3, 67, 1543.914794921875
0, 3, 68, 1446.565795898438
0, 3, 69, 1458.20654296875
0, 3, 70, 1387.180541992188
0, 3, 71, 1461.49658203125
0, 3, 72, 1546.8603515625
0, 3, 73, 1504.217041015625
0, 3, 74, 1463.05810546875
0, 3, 75, 1460.042358398438
0, 3, 76, 1573.462280273438
0, 3, 77, 1540.510009765625
0, 3, 78, 1428.545532226562
0, 3, 79, 1495.426513671875
0, 3, 80, 1464.793334960938
0, 3, 81, 1474.957885742188
0, 3, 82, 1558.935180664062
0, 3, 83, 1515.744018554688
0, 3, 84, 1561.296752929688
0, 3, 85, 1478.26025390625
0, 3, 86, 1527.45068359375
0, 3, 87, 1539.512084960938
0, 3, 88, 1462.045532226562
0, 3, 89, 1451.710327148438
0, 3, 90, 1451.031005859375
0, 3, 91, 1418.559326171875
0, 3, 92, 1513.441040039062
0, 3, 93, 1499.509033203125
0, 3, 94, 1516.62939453125
0, 3, 95, 1544.298706054688
0, 3, 96, 1511.248657226562
0, 3, 97, 1467.247924804688
0, 3, 98, 1430.77490234375
0, 3, 99, 1468.324951171875
0, 3, 100, 1471.740112304688
0, 3, 101, 1472.559814453125
0, 3, 102, 1520.135986328125
0, 3, 103, 1555.760009765625
0, 3, 104, 1499.106567382812
0, 3, 105, 1514.542846679688
0, 3, 106, 1478.79052734375
0, 3, 107, 1339.704467773438
0, 3, 108, 878.0166015625
0, 3, 109, 267.7791137695312
0, 3, 110, 100.2555923461914
0, 3, 111, 62.35279083251953
0, 3, 112, 60.00213623046875
0, 3, 113, 46.18720626831055
0, 3, 114, 48.09999465942383
0, 3, 115, 54.88660430908203
0, 3, 116, 40.17398834228516
0, 3, 117, 38.13129425048828
0, 3, 118, 34.52974319458008
0, 3, 119, 28.85328674316406
0, 3, 120, 30.87929725646973
0, 3, 121, 20.98585891723633
0, 3, 122, 27.88459777832031
0, 3, 123, 25.92461776733398
0, 3, 124, 18.20465850830078
0, 3, 125, 28.9406623840332
0, 3, 126, 24.96325302124023
0, 3, 127, 17.72360801696777
0, 4, 0, 21.2916088104248
0, 4, 1, 27.46769142150879
0, 4, 2, 16.2183780670166
0, 4, 3, 23.92244338989258
0, 4, 4, 27.19100189208984
0, 4, 5, 28.59444236755371
0, 4, 6, 28.20473289489746
0, 4, 7, 35.71214294433594
0, 4, 8, 33.33034515380859
0, 4, 9, 35.58040237426758
0, 4, 10, 33.87298202514648
0, 4, 11, 47.92556381225586
0, 4, 12, 44.5374641418457
0, 4, 13, 50.37394714355469
0, 4, 14, 51.10030364990234
0, 4, 15, 62.75519561767578
0, 4, 16, 74.34259796142578
0, 4, 17, 115.8340377807617
0, 4, 18, 449.306396484375
0, 4, 19, 1182.939575195312
0, 4, 20, 1443.807983398438
0, 4, 21, 1417.180053710938
0, 4, 22, 1429.984985351562
0, 4, 23, 1455.409301757812
0, 4, 24, 1472.845092773438
0, 4, 25, 1407.495971679688
0, 4, 26, 1541.491821289062
0, 4, 27, 1545.52734375
0, 4, 28, 1509.318603515625
0, 4, 29, 1515.969970703125
0, 4, 30, 1524.925048828125
0, 4, 31, 1573.018676757812
0, 4, 32, 1515.0498046875
0, 4, 33, 1491.760864257812
0, 4, 34, 1475.886596679688
0, 4, 35, 1560.24072265625
0, 4, 36, 1508.582275390625
0, 4, 37, 1513.890747070312
0, 4, 38, 1528.695922851562
0, 4, 39, 1465.371948242188
0, 4, 40, 1510.917602539062
0, 4, 41, 1582.117797851562
0, 4, 42, 1564.441284179688
0, 4, 43, 1470.793579101562
0, 4, 44, 1495.443725585938
0, 4, 45, 1517.064453125
0, 4, 46, 1467.026000976562
0, 4, 47, 1503.92529296875
0, 4, 48, 1527.244873046875
0, 4, 49, 1473.671875
0, 4, 50, 1520.429809570312
0, 4, 51, 1492.115234375
0, 4, 52, 1493.866577148438
0, 4, 53, 1452.260375976562
0, 4, 54, 1438.980834960938
0, 4, 55, 1529.76708984375
0, 4, 56, 1453.96044921875
0, 4, 57, 1493.520751953125
0, 4, 58, 1466.2138671875
0, 4, 59, 1466.39111328125
0, 4, 60, 1523.749755859375
0, 4, 61, 1502.582397460938
0, 4, 62, 1505.318481445312
0, 4, 63, 1549.587646484375
0, 4, 64, 1589.709716796875
0, 4, 65, 1423.132690429688
0, 4, 66, 1519.460327148438
0, 4, 67, 1520.719970703125
0, 4, 68, 1500.842163085938
0, 4, 69, 1472.208251953125
0, 4, 70, 1545.273315429688
0, 4, 71, 1518.82861328125
0, 4, 72, 1524.686401367188
0, 4, 73, 1495.622680664062
0, 4, 74, 1485.458129882812
0, 4, 75, 1539.560546875
0, 4, 76, 1483.636352539062
0, 4, 77, 1498.22119140625
0, 4, 78, 1501.601928710938
0, 4, 79, 1484.9365234375
0, 4, 80, 1514.330322265625
0, 4, 81, 1522.791870117188
0, 4, 82, 1569.085083007812
0, 4, 83, 1500.003173828125
0, 4, 84, 1536.7490234375
0, 4, 85, 1551.288330078125
0, 4, 86, 1527.938232421875
0, 4, 87, 1495.71435546875
0, 4, 88, 1516.267700195312
0, 4, 89, 1482.218627929688
0, 4, 90, 1542.649169921875
0, 4, 91, 1555.228149414062
0, 4, 92, 1494.564331054688
0, 4, 93, 1513.660400390625
0, 4, 94, 1484.7802734375
0, 4, 95, 1508.751098632812
0, 4, 96, 1445.921264648438
0, 4, 97, 1413.55322265625
0, 4, 98, 1553.4365234375
0, 4, 99, 1510.671142578125
0, 4, 100, 1492.636962890625
0, 4, 101, 1446.664916992188
0, 4, 102, 1447.919311523438
0, 4, 103, 1513.677490234375
0, 4, 104, 1511.921264648438
0, 4, 105, 1558.867797851562
0, 4, 106, 1477.843139648438
0, 4, 107, 1454.914428710938
0, 4, 108, 1116.304321289062
0, 4, 109, 435.7024536132812
0, 4, 110, 98.01347351074219
0, 4, 111, 71.69345092773438
0, 4, 112, 63.34418106079102
0, 4, 113, 54.09392166137695
0, 4, 114, 53.50223159790039
0, 4, 115, 40.86206817626953
0, 4, 116, 36.21904754638672
0, 4, 117, 43.99457931518555
0, 4, 118, 44.72087097167969
0, 4, 119, 40.25654220581055
0, 4, 120, 34.34083938598633
0, 4, 121, 27.55347442626953
0, 4, 122, 24.66256141662598
0, 4, 123, 33.06307220458984
0, 4, 124, 21.98853302001953
0, 4, 125, 30.35883140563965
0, 4, 126, 27.33256149291992
0, 4, 127, 19.19283103942871
0, 5, 0, 21.46144485473633
0, 5, 1, 24.0335636138916
0, 5, 2, 27.90887069702148
0, 5, 3, 26.14345741271973
0, 5, 4, 18.6594295501709
0, 5, 5, 32.11776733398438
0, 5, 6, 35.31231307983398
0, 5, 7, 26.56680488586426
0, 5, 8, 31.3488655090332
0, 5, 9, 28.98226356506348
0, 5, 10, 33.98224639892578
0, 5, 11, 41.73167037963867
0, 5, 12, 38.15847778320312
0, 5, 13, 46.12367630004883
0, 5, 14, 63.22250747680664
0, 5, 15, 75.71533966064453
0, 5, 16, 76.78969573974609
0, 5, 17, 162.2770385742188
0, 5, 18, 678.7601928710938
0, 5, 19, 1347.062255859375
0, 5, 20, 1524.199340820312
0, 5, 21, 1495.581298828125
0, 5, 22, 1497.075439453125
0, 5, 23, 1531.829345703125
0, 5, 24, 1470.386840820312
0, 5, 25, 1425.73291015625
0, 5, 26, 1525.0439453125
0, 5, 27, 1536.325317382812
0, 5, 28, 1483.799926757812
0, 5, 29, 1523.670166015625
0, 5, 30, 1493.372924804688
0, 5, 31, 1496.119995117188
0, 5, 32, 1594.682739257812
0, 5, 33, 1504.525390625
0, 5, 34, 1486.880859375
0, 5, 35, 1508.952392578125
0, 5, 36, 1438.5625
0, 5, 37, 1530.445190429688
0, 5, 38, 1546.455810546875
0, 5, 39, 1552.019287109375
0, 5, 40, 1499.355590820312
0, 5, 41, 1479.449584960938
0, 5, 42, 1545.00830078125
0, 5, 43, 1525.714599609375
0, 5, 44, 1543.688110351562
0, 5, 45, 1506.918334960938
0, 5, 46, 1489.260620117188
0, 5, 47, 1484.1171875
0, 5, 48, 1499.159057617188
0, 5, 49, 1524.049438476562
0, 5, 50, 1506.977416992188
0, 5, 51, 1520.175170898438
0, 5, 52, 1428.446899414062
0, 5, 53, 1521.76904296875
0, 5, 54, 1517.11328125
0, 5, 55, 1521.747680664062
0, 5, 56, 1482.395751953125
0, 5, 57, 1540.585571289062
0, 5, 58, 1509.943969726562
0, 5, 59, 1486.679077148438
0, 5, 60, 1539.563598632812
0, 5, 61, 1455.527709960938
0, 5, 62, 1586.28271484375
0, 5, 63, 1436.072143554688
0, 5, 64, 1488.6728515625
0, 5, 65, 1471.021728515625
0, 5, 66, 1525.968139648438
0, 5, 67, 1557.616943359375
0, 5, 68, 1469.071044921875
0, 5, 69, 1481.941284179688
0, 5, 70, 1491.434692382812
0, 5, 71, 1471.878540039062
0, 5, 72, 1542.866333007812
0, 5, 73, 1462.13525390625
0, 5, 74, 1495.874145507812
0, 5, 75, 1484.691650390625
0, 5, 76, 1479.953002929688
0, 5, 77, 1520.512573242188
0, 5, 78, 1522.5830078125
0, 5, 79, 1511.453125
0, 5, 80, 1518.334716796875
0, 5, 81, 1595.972778320312
0, 5, 82, 1523.883056640625
0, 5, 83, 1487.3017578125
0, 5, 84, 1533.507446289062
0, 5, 85, 1511.34423828125
0, 5, 86, 1557.271240234375
0, 5, 87, 1470.67529296875
0, 5, 88, 1496.2841796875
0, 5, 89, 1483.737426757812
0, 5, 90, 1485.29150390625
0, 5, 91, 1552.545654296875
0, 5, 92, 1482.40771484375
0, 5, 93, 1556.087524414062
0, 5, 94, 1511.786010742188
0, 5, 95, 1564.830932617188
0, 5, 96, 1497.779052734375
0, 5, 97, 1509.638916015625
0, 5, 98, 1510.037475585938
0, 5, 99, 1538.098754882812
0, 5, 100, 1434.986083984375
0, 5, 101, 1429.05615234375
0, 5, 102, 1517.170532226562
0, 5, 103, 1476.82470703125
0, 5, 104, 1456.687255859375
0, 5, 105, 1493.813354492188
0, 5, 106, 1458.206420898438
0, 5, 107, 1402.815551757812
0, 5, 108, 1291.7294921875
0, 5, 109, 726.8386840820312
0, 5, 110, 192.6520843505859
0, 5, 111, 89.20912933349609
0, 5, 112, 78.38236999511719
0, 5, 113, 71.26857757568359
0, 5, 114, 57.79007339477539
0, 5, 115, 53.76655960083008
0, 5, 116, 45.04930877685547
0, 5, 117, 33.39211273193359
0, 5, 118, 38.51565933227539
0, 5, 119, 22.51437187194824
0, 5, 120, 35.28046417236328
0, 5, 121, 25.37140083312988
0, 5, 122, 30.78479957580566
0, 5, 123, 27.012939453125
0, 5, 124, 22.21047782897949
0, 5, 125, 23.83226013183594
0, 5, 126, 19.36721229553223
0, 5, 127, 22.43758201599121
0, 6, 0, 22.49507904052734
0, 6, 1, 28.96149635314941
0, 6, 2, 29.06269836425781
0, 6, 3, 30.84421920776367
0, 6, 4, 23.27244758605957
0, 6, 5, 36.84518432617188
0, 6, 6, 34.68534851074219
0, 6, 7, 27.97219848632812
0, 6, 8, 35.39250183105469
0, 6, 9, 28.66034317016602
0, 6, 10, 36.32032775878906
0, 6, 11, 38.63189315795898
0, 6, 12, 40.60026550292969
0, 6, 13, 54.17915725708008
0, 6, 14, 60.52734756469727
0, 6, 15, 87.29457855224609
0, 6, 16, 110.5079650878906
0, 6, 17, 300.754150390625
0, 6, 18, 895.2396240234375
0, 6, 19, 1371.18701171875
0, 6, 20, 1442.157958984375
0, 6, 21, 1527.791625976562
0, 6, 22, 1496.69091796875
0, 6, 23, 1527.339721679688
0, 6, 24, 1480.675659179688
0, 6, 25, 1527.400512695312
0, 6, 26, 1523.308837890625
0, 6, 27, 1520.98779296875
0, 6, 28, 1551.105712890625
0, 6, 29, 1573.426635742188
0, 6, 30, 1511.632568359375
0, 6, 31, 1491.524780273438
0, 6, 32, 1529.68603515625
0, 6, 33, 1487.978637695312
0, 6, 34, 1563.861938476562
0, 6, 35, 1502.984375
0, 6, 36, 1445.644287109375
0, 6, 37, 1543.93310546875
0, 6, 38, 1519.944458007812
0, 6, 39, 1524.698120117188
0, 6, 40, 1456.234252929688
0, 6, 41, 1442.875854492188
0, 6, 42, 1514.15576171875
0, 6, 43, 1490.817138671875
0, 6, 44, 1432.384399414062
0, 6, 45, 1547.150756835938
0, 6, 46, 1557.435668945312
0, 6, 47, 1497.5439453125
0, 6, 48, 1524.642456054688
0, 6, 49, 1509.140502929688
0, 6, 50, 1575.41650390625
0, 6, 51, 1503.309448242188
0, 6, 52, 1563.743774414062
0, 6, 53, 1471.746337890625
0, 6, 54, 1505.345947265625
0, 6, 55, 1570.94482421875
0, 6, 56, 1521.91357421875
0, 6, 57, 1504.11279296875
0, 6, 58, 1466.089233398438
0, 6, 59, 1520.397094726562
0, 6, 60, 1469.205688476562
0, 6, 61, 1570.308837890625
0, 6, 62, 1543.405151367188
0, 6, 63, 1494.6904296875
0, 6, 64, 1409.283081054688
0, 6, 65, 1489.526611328125
0, 6, 66, 1512.076171875
0, 6, 67, 1507.419799804688
0, 6, 68, 1543.584350585938
0, 6, 69, 1487.140991210938
0, 6, 70, 1526.507690429688
0, 6, 71, 1462.560180664062
0, 6, 72, 1597.787231445312
0, 6, 73, 1487.934814453125
0, 6, 74, 1560.84228515625
0, 6, 75, 1536.345825195312
0, 6, 76, 1568.314086914062
0, 6, 77, 1508.204467773438
0, 6, 78, 1448.338012695312
0, 6, 79, 1556.733154296875
0, 6, 80, 1481.989013671875
0, 6, 81, 1484.545654296875
0, 6, 82, 1504.939453125
0, 6, 83, 1525.75732421875
0, 6, 84, 1520.966186523438
0, 6, 85, 1534.669067382812
0, 6, 86, 1542.794921875
0, 6, 87, 1570.547973632812
0, 6, 88, 1479.028076171875
0, 6, 89, 1560.835571289062
0, 6, 90, 1492.7001953125
0, 6, 91, 1542.808227539062
0, 6, 92, 1485.014404296875
0, 6, 93, 1495.80810546875
0, 6, 94, 1476.417358398438
0, 6, 95, 1506.47216796875
0, 6, 96, 1525.379638671875
0, 6, 97, 1502.394287109375
0, 6, 98, 1494.8359375
0, 6, 99, 1477.0693359375
0, 6, 100, 1521.355712890625
0, 6, 101, 1514.52099609375
0, 6, 102, 1542.62841796875
0, 6, 103, 1501.551635742188
0, 6, 104, 1462.734619140625
0, 6, 105, 1481.185180664062
0, 6, 106, 1495.725219726562
0, 6, 107, 1505.981201171875
0, 6, 108, 1408.915405273438
0, 6, 109, 921.33837890625
0, 6, 110, 282.5835876464844
0, 6, 111, 96.16560363769531
0, 6, 112, 77.33432769775391
0, 6, 113, 56.30086517333984
0, 6, 114, 56.07268905639648
0, 6, 115, 44.83781051635742
0, 6, 116, 50.11689758300781
0, 6, 117, 36.50264739990234
0, 6, 118, 40.47183990478516
0, 6, 119, 32.1156005859375
0, 6, 120, 30.91597175598145
0, 6, 121, 29.69901275634766
0, 6, 122, 29.70925712585449
0, 6, 123, 26.3110179901123
0, 6, 124, 26.92565155029297
0, 6, 125, 28.80063247680664
0, 6, 126, 23.03654098510742
0, 6, 127, 22.93747901916504
0, 7, 0, 20.64783477783203
0, 7, 1, 29.8678150177002
0, 7, 2, 20.72132301330566
0, 7, 3, 25.25414085388184
0, 7, 4, 27.56784629821777
0, 7, 5, 33.04774475097656
0, 7, 6, 30.06489562988281
0, 7, 7, 33.51400756835938
0, 7, 8, 33.17103958129883
0, 7, 9, 32.48944091796875
0, 7, 10, 41.99756622314453
0, 7, 11, 47.74259567260742
0, 7, 12, 46.64739608764648
0, 7, 13, 50.35303115844727
0, 7, 14, 64.96690368652344
0, 7, 15, 79.88965606689453
0, 7, 16, 133.8921813964844
0, 7, 17, 455.892822265625
0, 7, 18, 1101.118286132812
0, 7, 19, 1502.009155273438
0, 7, 20, 1488.005859375
0, 7, 21, 1364.39892578125
0, 7, 22, 1488.05712890625
0, 7, 23, 1453.716430664062
0, 7, 24, 1506.478637695312
0, 7, 25, 1594.229370117188
0, 7, 26, 1518.0732421875
0, 7, 27, 1509.4384765625
0, 7, 28, 1551.284057617188
0, 7, 29, 1584.492919921875
0, 7, 30, 1548.292724609375
0, 7, 31, 1436.93798828125
0, 7, 32, 1545.63818359375
0, 7, 33, 1494.082275390625
0, 7, 34, 1477.075439453125
0, 7, 35, 1523.591796875
0, 7, 36, 1472.627685546875
0, 7, 37, 1596.499633789062
0, 7, 38, 1501.671142578125
0, 7, 39, 1491.35205078125
0, 7, 40, 1540.610717773438
0, 7, 41, 1468.134765625
0, 7, 42, 1490.727294921875
0, 7, 43, 1441.886596679688
0, 7, 44, 1489.347778320312
0, 7, 45, 1470.598510742188
0, 7, 46, 1511.472534179688
0, 7, 47, 1567.300048828125
0, 7, 48, 1521.667724609375
0, 7, 49, 1537.883422851562
0, 7, 50, 1517.387329101562
0, 7, 51, 1498.46044921875
0, 7, 52, 1515.3818359375
0, 7, 53, 1493.633666992188
0, 7, 54, 1584.487182617188
0, 7, 55, 1470.791625976562
0, 7, 56, 1548.75439453125
0, 7, 57, 1514.655639648438
0, 7, 58, 1551.08642578125
0, 7, 59, 1538.830078125
0, 7, 60, 1551.3447265625
0, 7, 61, 1490.518798828125
0, 7, 62, 1434.241333007812
0, 7, 63, 1513.44140625
0, 7, 64, 1546.396240234375
0, 7, 65, 1529.182739257812
0, 7, 66, 1537.396362304688
0, 7, 67, 1580.827758789062
0, 7, 68, 1531.657836914062
0, 7, 69, 1515.90673828125
0, 7, 70, 1499.0400390625
0, 7, 71, 1525.475219726562
0, 7, 72, 1524.90869140625
0, 7, 73, 1517.034790039062
0, 7, 74, 1576.75537109375
0, 7, 75, 1538.0390625
0, 7, 76, 1558.205078125
0, 7, 77, 1514.5751953125
0, 7, 78, 1509.423461914062
0, 7, 79, 1425.879150390625
0, 7, 80, 1488.19091796875
0, 7, 81, 1499.701538085938
0, 7, 82, 1527.975708007812
0, 7, 83, 1546.706787109375
0, 7, 84, 1586.484619140625
0, 7, 85, 1478.461669921875
0, 7, 86, 1506.21923828125
0, 7, 87, 1507.694580078125
0, 7, 88, 1500.50048828125
0, 7, 89, 1553.835693359375
0, 7, 90, 1519.86572265625
0, 7, 91, 1559.607666015625
0, 7, 92, 1527.878540039062
0, 7, 93, 1550.0224609375
0, 7, 94, 1535.443237304688
0, 7, 95, 1507.775146484375
0, 7, 96, 1510.650390625
0, 7, 97, 1433.24560546875
0, 7, 98, 1485.989990234375
0, 7, 99, 1526.33984375
0, 7, 100, 1421.239624023438
0, 7, 101, 1463.514892578125
0, 7, 102, 1450.112915039062
0, 7, 103, 1431.443115234375
0, 7, 104, 1495.398681640625
0, 7, 105, 1524.90087890625
0, 7, 106, 1565.016235351562
0, 7, 107, 1480.876220703125
0, 7, 108, 1411.879150390625
0, 7, 109, 1146.167358398438
0, 7, 110, 471.4088745117188
0, 7, 111, 128.08837890625
0, 7, 112, 81.23851776123047
0, 7, 113, 69.35089874267578
0, 7, 114, 58.50811004638672
0, 7, 115, 51.71137237548828
0, 7, 116, 45.41729736328125
0, 7, 117, 47.11665344238281
0, 7, 118, 46.98975372314453
0, 7, 119, 31.5871410369873
0, 7, 120, 22.0473690032959
0, 7, 121, 27.7327709197998
0, 7, 122, 34.90515899658203
0, 7, 123, 33.61127853393555
0, 7, 124, 31.65062713623047
0, 7, 125, 25.01610565185547
0, 7, 126, 26.30212211608887
0, 7, 127, 18.11802864074707
0, 8, 0, 21.94693756103516
0, 8, 1, 22.53469467163086
0, 8, 2, 23.01704406738281
0, 8, 3, 26.2847728729248
0, 8, 4, 24.90794372558594
0, 8, 5, 33.2065544128418
0, 8, 6, 36.80294036865234
0, 8, 7, 31.93379402160645
0, 8, 8, 36.53689575195312
0, 8, 9, 43.24532318115234
0, 8, 10, 41.59357452392578
0, 8, 11, 46.77231979370117
0, 8, 12, 54.68354034423828
0, 8, 13, 71.39999389648438
0, 8, 14, 71.58810424804688
0, 8, 15, 88.40070343017578
0, 8, 16, 164.7760314941406
0, 8, 17, 673.5491943359375
0, 8, 18, 1277.787963867188
0, 8, 19, 1443.485717773438
0, 8, 20, 1421.184448242188
0, 8, 21, 1408.601318359375
0, 8, 22, 1487.716064453125
0, 8, 23, 1479.122314453125
0, 8, 24, 1431.255249023438
0, 8, 25, 1457.185668945312
0, 8, 26, 1509.080688476562
0, 8, 27, 1518.445068359375
0, 8, 28, 1472.85302734375
0, 8, 29, 1501.013427734375
0, 8, 30, 1488.619873046875
0, 8, 31, 1539.34521484375
0, 8, 32, 1508.852172851562
0, 8, 33, 1480.202880859375
0, 8, 34, 1533.100219726562
0, 8, 35, 1445.972900390625
0, 8, 36, 1495.126342773438
0, 8, 37, 1558.049682617188
0, 8, 38, 1551.5029296875
0, 8, 39, 1492.315063476562
0, 8, 40, 1531.60498046875
0, 8, 41, 1485.258911132812
0, 8, 42, 1541.915893554688
0, 8, 43, 1434.179931640625
0, 8, 44, 1534.1142578125
0, 8, 45, 1510.687744140625
0, 8, 46, 1597.158813476562
0, 8, 47, 1585.921997070312
