# TOPAS Version: 3.1.p3
# Parameter File: batch_inserts_56.txt
# Results for scorer Readout_Adipose
# Scored in component: MyBox
# X in 1 bin  of 0.75 cm
# Y in 512 bins of 0.0783984 cm
# Z in 128 bins of 0.078125 cm
# EnergyDeposit ( MeV ) : Sum   
0, 0, 0, 5.408028125762939
0, 0, 1, 2.136571407318115
0, 0, 2, 4.178587436676025
0, 0, 3, 2.52386212348938
0, 0, 4, 4.268711090087891
0, 0, 5, 3.398382902145386
0, 0, 6, 6.706384658813477
0, 0, 7, 11.54103660583496
0, 0, 8, 4.759891986846924
0, 0, 9, 4.391995906829834
0, 0, 10, 6.462016105651855
0, 0, 11, 4.87407398223877
0, 0, 12, 4.794907569885254
0, 0, 13, 5.83565092086792
0, 0, 14, 6.44498872756958
0, 0, 15, 8.66203498840332
0, 0, 16, 10.00724124908447
0, 0, 17, 9.396756172180176
0, 0, 18, 13.34684371948242
0, 0, 19, 44.8326416015625
0, 0, 20, 139.4790496826172
0, 0, 21, 223.0428161621094
0, 0, 22, 247.6803588867188
0, 0, 23, 255.3408508300781
0, 0, 24, 253.7206268310547
0, 0, 25, 258.3885498046875
0, 0, 26, 237.0955810546875
0, 0, 27, 237.3977661132812
0, 0, 28, 273.1394653320312
0, 0, 29, 251.7554931640625
0, 0, 30, 228.8306121826172
0, 0, 31, 244.2556762695312
0, 0, 32, 264.0495300292969
0, 0, 33, 261.3709411621094
0, 0, 34, 287.9726257324219
0, 0, 35, 267.7523193359375
0, 0, 36, 246.4344940185547
0, 0, 37, 253.0146026611328
0, 0, 38, 268.3860778808594
0, 0, 39, 228.2351684570312
0, 0, 40, 241.2876892089844
0, 0, 41, 266.3368835449219
0, 0, 42, 229.6862945556641
0, 0, 43, 261.2221374511719
0, 0, 44, 250.6651458740234
0, 0, 45, 252.544921875
0, 0, 46, 243.8496551513672
0, 0, 47, 253.7873229980469
0, 0, 48, 269.3813171386719
0, 0, 49, 275.7727966308594
0, 0, 50, 250.9221038818359
0, 0, 51, 253.7113800048828
0, 0, 52, 272.0260620117188
0, 0, 53, 291.3682250976562
0, 0, 54, 242.8800506591797
0, 0, 55, 240.0267333984375
0, 0, 56, 277.9520874023438
0, 0, 57, 264.3724670410156
0, 0, 58, 248.2325592041016
0, 0, 59, 270.5624084472656
0, 0, 60, 234.18798828125
0, 0, 61, 245.5296783447266
0, 0, 62, 260.1919555664062
0, 0, 63, 267.1816101074219
0, 0, 64, 258.2707214355469
0, 0, 65, 261.4272766113281
0, 0, 66, 276.9698181152344
0, 0, 67, 247.9014434814453
0, 0, 68, 258.303955078125
0, 0, 69, 261.0200500488281
0, 0, 70, 272.4728698730469
0, 0, 71, 239.20556640625
0, 0, 72, 252.6340026855469
0, 0, 73, 259.97021484375
0, 0, 74, 249.9167022705078
0, 0, 75, 240.1957702636719
0, 0, 76, 227.1748352050781
0, 0, 77, 260.4584655761719
0, 0, 78, 256.7699584960938
0, 0, 79, 277.805419921875
0, 0, 80, 214.7873687744141
0, 0, 81, 266.4176330566406
0, 0, 82, 256.184814453125
0, 0, 83, 245.3037567138672
0, 0, 84, 267.2594909667969
0, 0, 85, 233.0034027099609
0, 0, 86, 253.5245361328125
0, 0, 87, 254.4293060302734
0, 0, 88, 261.2026672363281
0, 0, 89, 285.7848510742188
0, 0, 90, 244.0268707275391
0, 0, 91, 281.0580444335938
0, 0, 92, 254.6063232421875
0, 0, 93, 250.1146392822266
0, 0, 94, 247.6568145751953
0, 0, 95, 247.2660522460938
0, 0, 96, 275.5544738769531
0, 0, 97, 272.2512512207031
0, 0, 98, 272.09716796875
0, 0, 99, 258.2687072753906
0, 0, 100, 258.2764892578125
0, 0, 101, 226.9466705322266
0, 0, 102, 232.104736328125
0, 0, 103, 269.271484375
0, 0, 104, 254.5945434570312
0, 0, 105, 251.5508728027344
0, 0, 106, 246.6257781982422
0, 0, 107, 154.3023986816406
0, 0, 108, 38.36799240112305
0, 0, 109, 12.64475536346436
0, 0, 110, 12.90648937225342
0, 0, 111, 7.796382427215576
0, 0, 112, 6.748704433441162
0, 0, 113, 7.263574600219727
0, 0, 114, 9.869111061096191
0, 0, 115, 5.822964668273926
0, 0, 116, 5.68363094329834
0, 0, 117, 6.143470764160156
0, 0, 118, 6.260357856750488
0, 0, 119, 4.142735004425049
0, 0, 120, 2.787192821502686
0, 0, 121, 3.998970985412598
0, 0, 122, 3.51543927192688
0, 0, 123, 3.814522504806519
0, 0, 124, 4.966548919677734
0, 0, 125, 3.886199712753296
0, 0, 126, 3.88328742980957
0, 0, 127, 2.440406322479248
0, 1, 0, 7.635459899902344
0, 1, 1, 3.914279937744141
0, 1, 2, 3.344117641448975
0, 1, 3, 2.286058664321899
0, 1, 4, 2.769741296768188
0, 1, 5, 3.486623287200928
0, 1, 6, 4.79435920715332
0, 1, 7, 3.752018690109253
0, 1, 8, 7.202216148376465
0, 1, 9, 5.414456367492676
0, 1, 10, 7.584068298339844
0, 1, 11, 12.79141712188721
0, 1, 12, 9.379617691040039
0, 1, 13, 11.47823429107666
0, 1, 14, 7.786135673522949
0, 1, 15, 7.652873992919922
0, 1, 16, 9.999340057373047
0, 1, 17, 10.13894367218018
0, 1, 18, 21.47852325439453
0, 1, 19, 65.69939422607422
0, 1, 20, 200.3725280761719
0, 1, 21, 254.1130523681641
0, 1, 22, 294.2374267578125
0, 1, 23, 283.3809814453125
0, 1, 24, 275.3702087402344
0, 1, 25, 287.701171875
0, 1, 26, 267.2460021972656
0, 1, 27, 306.2025146484375
0, 1, 28, 297.9061279296875
0, 1, 29, 295.3037719726562
0, 1, 30, 280.5216674804688
0, 1, 31, 293.5733337402344
0, 1, 32, 289.7094116210938
0, 1, 33, 294.807861328125
0, 1, 34, 292.9255065917969
0, 1, 35, 278.1037902832031
0, 1, 36, 306.3231506347656
0, 1, 37, 294.0953063964844
0, 1, 38, 281.4068298339844
0, 1, 39, 296.1449890136719
0, 1, 40, 268.7384643554688
0, 1, 41, 288.3279418945312
0, 1, 42, 290.4192199707031
0, 1, 43, 334.0342712402344
0, 1, 44, 278.667724609375
0, 1, 45, 292.8525695800781
0, 1, 46, 257.9025573730469
0, 1, 47, 311.6730041503906
0, 1, 48, 286.3379211425781
0, 1, 49, 302.51953125
0, 1, 50, 261.6290283203125
0, 1, 51, 274.2235717773438
0, 1, 52, 297.3336486816406
0, 1, 53, 305.6824951171875
0, 1, 54, 274.0145263671875
0, 1, 55, 293.5932006835938
0, 1, 56, 275.949462890625
0, 1, 57, 298.4163818359375
0, 1, 58, 309.9862670898438
0, 1, 59, 294.8962707519531
0, 1, 60, 296.697509765625
0, 1, 61, 275.1193542480469
0, 1, 62, 306.2450561523438
0, 1, 63, 286.79150390625
0, 1, 64, 288.0782775878906
0, 1, 65, 295.4347839355469
0, 1, 66, 292.2210083007812
0, 1, 67, 293.032958984375
0, 1, 68, 279.6163330078125
0, 1, 69, 279.6578063964844
0, 1, 70, 270.3393859863281
0, 1, 71, 274.0916442871094
0, 1, 72, 284.3497314453125
0, 1, 73, 304.2104797363281
0, 1, 74, 302.0686645507812
0, 1, 75, 294.8277282714844
0, 1, 76, 285.4539489746094
0, 1, 77, 291.6240539550781
0, 1, 78, 297.4584350585938
0, 1, 79, 301.27099609375
0, 1, 80, 298.5296630859375
0, 1, 81, 302.0936584472656
0, 1, 82, 282.1950988769531
0, 1, 83, 331.91845703125
0, 1, 84, 308.0054626464844
0, 1, 85, 253.3594970703125
0, 1, 86, 294.4566955566406
0, 1, 87, 291.8551025390625
0, 1, 88, 298.9129638671875
0, 1, 89, 293.1675109863281
0, 1, 90, 269.6210327148438
0, 1, 91, 318.0617980957031
0, 1, 92, 290.3099670410156
0, 1, 93, 287.2545166015625
0, 1, 94, 304.6996459960938
0, 1, 95, 283.7374267578125
0, 1, 96, 282.2029724121094
0, 1, 97, 301.4412536621094
0, 1, 98, 277.2965087890625
0, 1, 99, 265.6181335449219
0, 1, 100, 276.0301818847656
0, 1, 101, 281.1127014160156
0, 1, 102, 277.91845703125
0, 1, 103, 280.1097412109375
0, 1, 104, 308.8667907714844
0, 1, 105, 296.4119873046875
0, 1, 106, 262.3261108398438
0, 1, 107, 194.3719787597656
0, 1, 108, 80.73165130615234
0, 1, 109, 26.98024368286133
0, 1, 110, 11.321213722229
0, 1, 111, 10.17995357513428
0, 1, 112, 11.81001758575439
0, 1, 113, 5.245644092559814
0, 1, 114, 8.650452613830566
0, 1, 115, 7.847496032714844
0, 1, 116, 10.09192657470703
0, 1, 117, 5.854190826416016
0, 1, 118, 3.752664804458618
0, 1, 119, 4.55531120300293
0, 1, 120, 4.607139110565186
0, 1, 121, 2.25215220451355
0, 1, 122, 2.579540014266968
0, 1, 123, 5.27286434173584
0, 1, 124, 9.022407531738281
0, 1, 125, 4.742151260375977
0, 1, 126, 5.282268047332764
0, 1, 127, 2.224155426025391
0, 2, 0, 6.794588088989258
0, 2, 1, 3.34876275062561
0, 2, 2, 4.104813575744629
0, 2, 3, 3.980647325515747
0, 2, 4, 3.219964027404785
0, 2, 5, 1.482466578483582
0, 2, 6, 2.345116376876831
0, 2, 7, 3.438754796981812
0, 2, 8, 4.751911163330078
0, 2, 9, 5.79093599319458
0, 2, 10, 8.010997772216797
0, 2, 11, 6.454310894012451
0, 2, 12, 6.318674564361572
0, 2, 13, 8.326906204223633
0, 2, 14, 9.36534309387207
0, 2, 15, 7.93149471282959
0, 2, 16, 8.618744850158691
0, 2, 17, 16.30491256713867
0, 2, 18, 30.56532096862793
0, 2, 19, 116.7290649414062
0, 2, 20, 248.0803680419922
0, 2, 21, 270.3561401367188
0, 2, 22, 315.3467407226562
0, 2, 23, 300.9056396484375
0, 2, 24, 288.2094421386719
0, 2, 25, 303.2913818359375
0, 2, 26, 293.5389099121094
0, 2, 27, 274.4833374023438
0, 2, 28, 272.1187133789062
0, 2, 29, 272.0526428222656
0, 2, 30, 288.6539306640625
0, 2, 31, 279.6541748046875
0, 2, 32, 293.1040954589844
0, 2, 33, 281.6872863769531
0, 2, 34, 330.586669921875
0, 2, 35, 291.1611633300781
0, 2, 36, 304.8601684570312
0, 2, 37, 315.9160766601562
0, 2, 38, 311.7737121582031
0, 2, 39, 265.9158935546875
0, 2, 40, 308.1866149902344
0, 2, 41, 291.5621337890625
0, 2, 42, 301.6543884277344
0, 2, 43, 313.8882141113281
0, 2, 44, 309.9132385253906
0, 2, 45, 327.5059509277344
0, 2, 46, 288.3811645507812
0, 2, 47, 303.1669616699219
0, 2, 48, 281.2095031738281
0, 2, 49, 277.4775085449219
0, 2, 50, 295.459228515625
0, 2, 51, 284.1815490722656
0, 2, 52, 271.9000854492188
0, 2, 53, 286.0287780761719
0, 2, 54, 280.7053527832031
0, 2, 55, 275.8774108886719
0, 2, 56, 302.7134094238281
0, 2, 57, 292.5845947265625
0, 2, 58, 300.8474731445312
0, 2, 59, 289.0264282226562
0, 2, 60, 318.0798950195312
0, 2, 61, 303.0595703125
0, 2, 62, 313.7528991699219
0, 2, 63, 303.1044616699219
0, 2, 64, 297.28076171875
0, 2, 65, 314.5830078125
0, 2, 66, 278.2438049316406
0, 2, 67, 290.8388061523438
0, 2, 68, 299.1310729980469
0, 2, 69, 310.3104858398438
0, 2, 70, 336.9856262207031
0, 2, 71, 282.0984497070312
0, 2, 72, 304.2786254882812
0, 2, 73, 310.6346740722656
0, 2, 74, 286.166259765625
0, 2, 75, 305.0513916015625
0, 2, 76, 287.0992431640625
0, 2, 77, 300.2570190429688
0, 2, 78, 313.4558410644531
0, 2, 79, 309.8408813476562
0, 2, 80, 295.9507141113281
0, 2, 81, 281.2090148925781
0, 2, 82, 318.9129333496094
0, 2, 83, 311.5378112792969
0, 2, 84, 286.738037109375
0, 2, 85, 280.3262939453125
0, 2, 86, 323.5658569335938
0, 2, 87, 286.0279541015625
0, 2, 88, 281.347412109375
0, 2, 89, 294.4377746582031
0, 2, 90, 295.0839233398438
0, 2, 91, 277.9266662597656
0, 2, 92, 304.4373168945312
0, 2, 93, 315.5329284667969
0, 2, 94, 291.0223999023438
0, 2, 95, 316.7213134765625
0, 2, 96, 314.9908447265625
0, 2, 97, 292.9821472167969
0, 2, 98, 295.8832092285156
0, 2, 99, 272.6223754882812
0, 2, 100, 305.5181884765625
0, 2, 101, 303.8340454101562
0, 2, 102, 296.9341125488281
0, 2, 103, 292.9895324707031
0, 2, 104, 296.6710205078125
0, 2, 105, 273.0776672363281
0, 2, 106, 295.9831848144531
0, 2, 107, 270.3514709472656
0, 2, 108, 118.0162200927734
0, 2, 109, 32.59053421020508
0, 2, 110, 9.308645248413086
0, 2, 111, 11.81524848937988
0, 2, 112, 7.569087982177734
0, 2, 113, 11.06516456604004
0, 2, 114, 10.49626541137695
0, 2, 115, 8.49662971496582
0, 2, 116, 7.432094573974609
0, 2, 117, 6.877268314361572
0, 2, 118, 4.095022678375244
0, 2, 119, 3.507073163986206
0, 2, 120, 5.978251457214355
0, 2, 121, 3.599717378616333
0, 2, 122, 3.906087398529053
0, 2, 123, 5.26813268661499
0, 2, 124, 5.769452095031738
0, 2, 125, 6.942487716674805
0, 2, 126, 3.91141676902771
0, 2, 127, 5.199085712432861
0, 3, 0, 4.771684646606445
0, 3, 1, 4.702797889709473
0, 3, 2, 5.730958938598633
0, 3, 3, 2.415175914764404
0, 3, 4, 4.740044593811035
0, 3, 5, 8.667954444885254
0, 3, 6, 6.932706356048584
0, 3, 7, 6.474021911621094
0, 3, 8, 5.105199337005615
0, 3, 9, 7.106462478637695
0, 3, 10, 5.768692493438721
0, 3, 11, 3.32681131362915
0, 3, 12, 6.764401435852051
0, 3, 13, 17.5025463104248
0, 3, 14, 11.67241859436035
0, 3, 15, 12.31618309020996
0, 3, 16, 11.85076522827148
0, 3, 17, 18.89148902893066
0, 3, 18, 55.04751205444336
0, 3, 19, 176.7600402832031
0, 3, 20, 269.5477294921875
0, 3, 21, 271.928955078125
0, 3, 22, 282.8663330078125
0, 3, 23, 286.4735412597656
0, 3, 24, 285.2646484375
0, 3, 25, 272.4331665039062
0, 3, 26, 303.7357177734375
0, 3, 27, 291.9822082519531
0, 3, 28, 283.2157897949219
0, 3, 29, 340.2350158691406
0, 3, 30, 321.1099853515625
0, 3, 31, 289.4595336914062
0, 3, 32, 306.7376098632812
0, 3, 33, 313.5234375
0, 3, 34, 322.3310852050781
0, 3, 35, 306.1360168457031
0, 3, 36, 270.8423767089844
0, 3, 37, 313.1525268554688
0, 3, 38, 304.1386413574219
0, 3, 39, 289.7315673828125
0, 3, 40, 267.4384155273438
0, 3, 41, 298.2853088378906
0, 3, 42, 286.4161682128906
0, 3, 43, 307.4212951660156
0, 3, 44, 310.5588684082031
0, 3, 45, 290.3750610351562
0, 3, 46, 330.71044921875
0, 3, 47, 299.9078674316406
0, 3, 48, 305.3683471679688
0, 3, 49, 277.0472106933594
0, 3, 50, 288.4412536621094
0, 3, 51, 274.9563293457031
0, 3, 52, 315.9402465820312
0, 3, 53, 289.4390258789062
0, 3, 54, 283.0449829101562
0, 3, 55, 283.3362426757812
0, 3, 56, 297.1024169921875
0, 3, 57, 288.8997192382812
0, 3, 58, 311.2826232910156
0, 3, 59, 295.5863952636719
0, 3, 60, 298.7441101074219
0, 3, 61, 269.123779296875
0, 3, 62, 283.2761840820312
0, 3, 63, 308.8237609863281
0, 3, 64, 317.1044616699219
0, 3, 65, 307.3738708496094
0, 3, 66, 313.9574279785156
0, 3, 67, 318.3930969238281
0, 3, 68, 278.7037658691406
0, 3, 69, 283.5120544433594
0, 3, 70, 288.9043579101562
0, 3, 71, 301.2864685058594
0, 3, 72, 272.4595947265625
0, 3, 73, 310.4639587402344
0, 3, 74, 293.5753479003906
0, 3, 75, 290.6121215820312
0, 3, 76, 305.6598815917969
0, 3, 77, 313.2678527832031
0, 3, 78, 302.1396179199219
0, 3, 79, 282.8929748535156
0, 3, 80, 291.9692993164062
0, 3, 81, 310.1290588378906
0, 3, 82, 316.7540893554688
0, 3, 83, 300.6303100585938
0, 3, 84, 311.8363647460938
0, 3, 85, 293.7459716796875
0, 3, 86, 303.3088073730469
0, 3, 87, 300.0768127441406
0, 3, 88, 298.3072204589844
0, 3, 89, 296.2423095703125
0, 3, 90, 277.0437622070312
0, 3, 91, 283.74365234375
0, 3, 92, 306.6159973144531
0, 3, 93, 312.4192199707031
0, 3, 94, 300.1391296386719
0, 3, 95, 335.3144836425781
0, 3, 96, 290.8537902832031
0, 3, 97, 282.1999816894531
0, 3, 98, 277.5346069335938
0, 3, 99, 262.6362915039062
0, 3, 100, 285.1910095214844
0, 3, 101, 297.2473754882812
0, 3, 102, 275.1166076660156
0, 3, 103, 319.7974853515625
0, 3, 104, 308.2243957519531
0, 3, 105, 289.2959289550781
0, 3, 106, 301.2718811035156
0, 3, 107, 282.6575927734375
0, 3, 108, 167.9984588623047
0, 3, 109, 55.71040725708008
0, 3, 110, 19.61970520019531
0, 3, 111, 14.74489784240723
0, 3, 112, 13.77514171600342
0, 3, 113, 6.735643863677979
0, 3, 114, 9.902155876159668
0, 3, 115, 7.969111442565918
0, 3, 116, 7.818338871002197
0, 3, 117, 7.567024707794189
0, 3, 118, 7.608836650848389
0, 3, 119, 9.01933765411377
0, 3, 120, 7.005149364471436
0, 3, 121, 3.434904098510742
0, 3, 122, 2.920948028564453
0, 3, 123, 5.025667667388916
0, 3, 124, 3.539650917053223
0, 3, 125, 5.623123168945312
0, 3, 126, 3.861741781234741
0, 3, 127, 3.091518640518188
0, 4, 0, 2.374939680099487
0, 4, 1, 4.204032897949219
0, 4, 2, 3.945583820343018
0, 4, 3, 3.901422262191772
0, 4, 4, 8.874338150024414
0, 4, 5, 7.315396785736084
0, 4, 6, 5.133594512939453
0, 4, 7, 3.489413022994995
0, 4, 8, 3.656991481781006
0, 4, 9, 4.778026103973389
0, 4, 10, 6.962286949157715
0, 4, 11, 6.049860954284668
0, 4, 12, 7.543354988098145
0, 4, 13, 8.794238090515137
0, 4, 14, 13.29366779327393
0, 4, 15, 11.3388557434082
0, 4, 16, 14.05503559112549
0, 4, 17, 18.30024719238281
0, 4, 18, 91.82035827636719
0, 4, 19, 223.3322143554688
0, 4, 20, 285.9641418457031
0, 4, 21, 273.0453796386719
0, 4, 22, 304.9970703125
0, 4, 23, 269.3235473632812
0, 4, 24, 288.4208984375
0, 4, 25, 274.8718872070312
0, 4, 26, 297.5193786621094
0, 4, 27, 283.4821166992188
0, 4, 28, 308.9458312988281
0, 4, 29, 321.9172058105469
0, 4, 30, 310.1948547363281
0, 4, 31, 304.3258972167969
0, 4, 32, 281.8367919921875
0, 4, 33, 297.0580139160156
0, 4, 34, 296.8203735351562
0, 4, 35, 312.4422302246094
0, 4, 36, 292.2734680175781
0, 4, 37, 289.8456115722656
0, 4, 38, 295.8812255859375
0, 4, 39, 296.0044250488281
0, 4, 40, 301.1873779296875
0, 4, 41, 311.953369140625
0, 4, 42, 327.9184265136719
0, 4, 43, 293.8074645996094
0, 4, 44, 322.2868041992188
0, 4, 45, 326.7197265625
0, 4, 46, 306.2063598632812
0, 4, 47, 292.5395202636719
0, 4, 48, 298.0603637695312
0, 4, 49, 277.206298828125
0, 4, 50, 297.8476867675781
0, 4, 51, 315.7102661132812
0, 4, 52, 326.3970031738281
0, 4, 53, 304.8973388671875
0, 4, 54, 286.2471618652344
0, 4, 55, 314.9501647949219
0, 4, 56, 287.1414489746094
0, 4, 57, 309.5906982421875
0, 4, 58, 296.6353454589844
0, 4, 59, 310.054443359375
0, 4, 60, 300.7391357421875
0, 4, 61, 317.20703125
0, 4, 62, 308.5145874023438
0, 4, 63, 298.1985778808594
0, 4, 64, 328.8575134277344
0, 4, 65, 316.6416015625
0, 4, 66, 295.8428955078125
0, 4, 67, 285.9767150878906
0, 4, 68, 314.01318359375
0, 4, 69, 274.7793273925781
0, 4, 70, 298.4645690917969
0, 4, 71, 321.6867370605469
0, 4, 72, 335.0938110351562
0, 4, 73, 299.6875915527344
0, 4, 74, 292.722900390625
0, 4, 75, 291.3082885742188
0, 4, 76, 274.0175476074219
0, 4, 77, 279.59521484375
0, 4, 78, 308.2032775878906
0, 4, 79, 318.5808410644531
0, 4, 80, 314.5282592773438
0, 4, 81, 312.1113586425781
0, 4, 82, 297.7330932617188
0, 4, 83, 300.0040893554688
0, 4, 84, 294.0875244140625
0, 4, 85, 295.5078125
0, 4, 86, 296.8521728515625
0, 4, 87, 284.2388000488281
0, 4, 88, 307.5131530761719
0, 4, 89, 293.4087219238281
0, 4, 90, 332.3928527832031
0, 4, 91, 302.0321655273438
0, 4, 92, 289.8716430664062
0, 4, 93, 297.0730590820312
0, 4, 94, 292.2376098632812
0, 4, 95, 288.7510986328125
0, 4, 96, 323.0239868164062
0, 4, 97, 273.823486328125
0, 4, 98, 326.5690612792969
0, 4, 99, 313.1893005371094
0, 4, 100, 300.9187316894531
0, 4, 101, 256.5275573730469
0, 4, 102, 296.3098754882812
0, 4, 103, 319.144775390625
0, 4, 104, 281.4187316894531
0, 4, 105, 310.09765625
0, 4, 106, 288.4239501953125
0, 4, 107, 293.1801452636719
0, 4, 108, 227.1622467041016
0, 4, 109, 78.47142028808594
0, 4, 110, 17.33771896362305
0, 4, 111, 15.96830940246582
0, 4, 112, 8.7239990234375
0, 4, 113, 11.43284511566162
0, 4, 114, 8.708945274353027
0, 4, 115, 9.454680442810059
0, 4, 116, 11.33580875396729
0, 4, 117, 7.77612829208374
0, 4, 118, 11.04633617401123
0, 4, 119, 8.239953994750977
0, 4, 120, 6.019427299499512
0, 4, 121, 5.555994033813477
0, 4, 122, 6.356005191802979
0, 4, 123, 6.516579627990723
0, 4, 124, 3.079843521118164
0, 4, 125, 8.280941963195801
0, 4, 126, 3.895953416824341
0, 4, 127, 4.524723529815674
0, 5, 0, 5.13043737411499
0, 5, 1, 3.814130783081055
0, 5, 2, 3.169124126434326
0, 5, 3, 4.706403255462646
0, 5, 4, 6.14771842956543
0, 5, 5, 6.860832691192627
0, 5, 6, 8.15432071685791
0, 5, 7, 4.060871601104736
0, 5, 8, 4.558676242828369
0, 5, 9, 4.404567718505859
0, 5, 10, 8.941677093505859
0, 5, 11, 6.819262504577637
0, 5, 12, 8.795729637145996
0, 5, 13, 4.780037403106689
0, 5, 14, 12.70652294158936
0, 5, 15, 16.0291690826416
0, 5, 16, 15.46128368377686
0, 5, 17, 28.90554428100586
0, 5, 18, 136.6875457763672
0, 5, 19, 286.1466064453125
0, 5, 20, 305.6808776855469
0, 5, 21, 317.0854797363281
0, 5, 22, 273.7688903808594
0, 5, 23, 310.6542663574219
0, 5, 24, 300.8424987792969
0, 5, 25, 290.1688537597656
0, 5, 26, 293.9623413085938
0, 5, 27, 321.6257629394531
0, 5, 28, 302.5929870605469
0, 5, 29, 298.1769409179688
0, 5, 30, 323.5479125976562
0, 5, 31, 287.7886657714844
0, 5, 32, 301.1237182617188
0, 5, 33, 304.8934326171875
0, 5, 34, 297.9651489257812
0, 5, 35, 311.4475708007812
0, 5, 36, 269.1990966796875
0, 5, 37, 281.18994140625
0, 5, 38, 293.5189208984375
0, 5, 39, 312.3559875488281
0, 5, 40, 308.5071105957031
0, 5, 41, 275.1744384765625
0, 5, 42, 307.9559631347656
0, 5, 43, 315.0282897949219
0, 5, 44, 290.3247375488281
0, 5, 45, 300.9820556640625
0, 5, 46, 264.4022216796875
0, 5, 47, 278.9127502441406
0, 5, 48, 292.5858459472656
0, 5, 49, 285.3671569824219
0, 5, 50, 295.6168212890625
0, 5, 51, 279.8377685546875
0, 5, 52, 269.0432434082031
0, 5, 53, 285.5309143066406
0, 5, 54, 291.5172729492188
0, 5, 55, 347.1034545898438
0, 5, 56, 306.2064819335938
0, 5, 57, 305.9946899414062
0, 5, 58, 311.2207336425781
0, 5, 59, 302.7120666503906
0, 5, 60, 309.5273132324219
0, 5, 61, 281.1007995605469
0, 5, 62, 325.9960327148438
0, 5, 63, 289.0420532226562
0, 5, 64, 323.1220397949219
0, 5, 65, 306.3427734375
0, 5, 66, 327.9043579101562
0, 5, 67, 312.0391845703125
0, 5, 68, 310.7421264648438
0, 5, 69, 311.8283386230469
0, 5, 70, 300.5565795898438
0, 5, 71, 271.9960021972656
0, 5, 72, 310.9707946777344
0, 5, 73, 304.4648742675781
0, 5, 74, 296.6596984863281
0, 5, 75, 294.2615966796875
0, 5, 76, 285.4226989746094
0, 5, 77, 297.8786926269531
0, 5, 78, 316.0051574707031
0, 5, 79, 308.16845703125
0, 5, 80, 294.4512023925781
0, 5, 81, 325.2323608398438
0, 5, 82, 324.6481323242188
0, 5, 83, 283.0765380859375
0, 5, 84, 301.7196960449219
0, 5, 85, 273.909912109375
0, 5, 86, 325.5515441894531
0, 5, 87, 283.599853515625
0, 5, 88, 312.5350952148438
0, 5, 89, 304.566162109375
0, 5, 90, 320.2232971191406
0, 5, 91, 313.4971618652344
0, 5, 92, 298.1036071777344
0, 5, 93, 322.4770202636719
0, 5, 94, 307.0028686523438
0, 5, 95, 295.6581420898438
0, 5, 96, 300.7169189453125
0, 5, 97, 297.0728454589844
0, 5, 98, 318.4747924804688
0, 5, 99, 304.8702392578125
0, 5, 100, 291.6894226074219
0, 5, 101, 304.7463989257812
0, 5, 102, 291.6068115234375
0, 5, 103, 312.8400268554688
0, 5, 104, 302.9557189941406
0, 5, 105, 293.9913330078125
0, 5, 106, 282.1967163085938
0, 5, 107, 293.5421447753906
0, 5, 108, 263.533935546875
0, 5, 109, 158.3285675048828
0, 5, 110, 41.04270172119141
0, 5, 111, 18.90386199951172
0, 5, 112, 16.28374099731445
0, 5, 113, 14.74709510803223
0, 5, 114, 11.78253555297852
0, 5, 115, 7.185638904571533
0, 5, 116, 7.806458950042725
0, 5, 117, 7.97674560546875
0, 5, 118, 13.63183116912842
0, 5, 119, 4.66050386428833
0, 5, 120, 6.664997577667236
0, 5, 121, 5.098453998565674
0, 5, 122, 5.433748722076416
0, 5, 123, 4.733941555023193
0, 5, 124, 9.824115753173828
0, 5, 125, 4.898120880126953
0, 5, 126, 5.260038375854492
0, 5, 127, 2.688297271728516
0, 6, 0, 4.758492946624756
0, 6, 1, 5.161781311035156
0, 6, 2, 6.760447025299072
0, 6, 3, 6.500659465789795
0, 6, 4, 3.574140787124634
0, 6, 5, 5.861167430877686
0, 6, 6, 8.496746063232422
0, 6, 7, 5.518648624420166
0, 6, 8, 7.094820976257324
0, 6, 9, 6.098869323730469
0, 6, 10, 8.535124778747559
0, 6, 11, 10.91287136077881
0, 6, 12, 8.819962501525879
0, 6, 13, 15.20781707763672
0, 6, 14, 8.279218673706055
0, 6, 15, 16.0427303314209
0, 6, 16, 28.55816841125488
0, 6, 17, 55.96463012695312
0, 6, 18, 175.6069641113281
0, 6, 19, 276.6646423339844
0, 6, 20, 292.4280395507812
0, 6, 21, 315.6440734863281
0, 6, 22, 324.2863464355469
0, 6, 23, 304.612060546875
0, 6, 24, 316.1879272460938
0, 6, 25, 315.7504272460938
0, 6, 26, 318.3629455566406
0, 6, 27, 330.2064208984375
0, 6, 28, 295.3920593261719
0, 6, 29, 330.5511474609375
0, 6, 30, 285.3501892089844
0, 6, 31, 287.2203674316406
0, 6, 32, 339.5626525878906
0, 6, 33, 300.5890808105469
0, 6, 34, 341.9867553710938
0, 6, 35, 320.7179565429688
0, 6, 36, 275.0498657226562
0, 6, 37, 290.2255859375
0, 6, 38, 311.4076232910156
0, 6, 39, 299.2552490234375
0, 6, 40, 287.6869506835938
0, 6, 41, 296.0792236328125
0, 6, 42, 304.4198303222656
0, 6, 43, 290.1283264160156
0, 6, 44, 279.9690246582031
0, 6, 45, 317.3859558105469
0, 6, 46, 302.9629516601562
0, 6, 47, 332.80517578125
0, 6, 48, 292.4545288085938
0, 6, 49, 312.9475402832031
0, 6, 50, 327.9308471679688
0, 6, 51, 311.2881774902344
0, 6, 52, 320.5570373535156
0, 6, 53, 328.3934326171875
0, 6, 54, 300.9738464355469
0, 6, 55, 305.8187866210938
0, 6, 56, 294.5151062011719
0, 6, 57, 312.2034606933594
0, 6, 58, 261.1145324707031
0, 6, 59, 303.0865478515625
0, 6, 60, 313.6330261230469
0, 6, 61, 269.7286071777344
0, 6, 62, 341.2779846191406
0, 6, 63, 323.5575256347656
0, 6, 64, 291.1120910644531
0, 6, 65, 286.5060424804688
0, 6, 66, 304.6653442382812
0, 6, 67, 309.4866943359375
0, 6, 68, 292.9625549316406
0, 6, 69, 279.1327209472656
0, 6, 70, 274.5666198730469
0, 6, 71, 289.0902404785156
0, 6, 72, 309.2571411132812
0, 6, 73, 293.8951721191406
0, 6, 74, 330.6520385742188
0, 6, 75, 342.6373291015625
0, 6, 76, 298.2984619140625
0, 6, 77, 285.4320983886719
0, 6, 78, 278.4216003417969
0, 6, 79, 291.6429138183594
0, 6, 80, 301.6284790039062
0, 6, 81, 315.8280029296875
0, 6, 82, 321.5985412597656
0, 6, 83, 322.1896057128906
0, 6, 84, 297.952880859375
0, 6, 85, 300.7618713378906
0, 6, 86, 330.1815795898438
0, 6, 87, 291.6930541992188
0, 6, 88, 307.31005859375
0, 6, 89, 305.4734497070312
0, 6, 90, 301.4089050292969
0, 6, 91, 311.9513854980469
0, 6, 92, 284.3481750488281
0, 6, 93, 295.39111328125
0, 6, 94, 275.0831604003906
0, 6, 95, 299.7981872558594
0, 6, 96, 345.6131591796875
0, 6, 97, 307.5730590820312
0, 6, 98, 301.2381591796875
0, 6, 99, 269.472412109375
0, 6, 100, 308.6703796386719
0, 6, 101, 294.9316711425781
0, 6, 102, 306.3407592773438
0, 6, 103, 308.4317932128906
0, 6, 104, 290.8341979980469
0, 6, 105, 301.3841552734375
0, 6, 106, 306.2496948242188
0, 6, 107, 306.0284118652344
0, 6, 108, 264.9664001464844
0, 6, 109, 188.2698516845703
0, 6, 110, 56.3938102722168
0, 6, 111, 21.80885314941406
0, 6, 112, 13.75330829620361
0, 6, 113, 11.53719806671143
0, 6, 114, 11.76109313964844
0, 6, 115, 11.82278823852539
0, 6, 116, 9.360743522644043
0, 6, 117, 13.40056896209717
0, 6, 118, 10.32521438598633
0, 6, 119, 10.46373081207275
0, 6, 120, 5.231941699981689
0, 6, 121, 5.203995227813721
0, 6, 122, 5.461497783660889
0, 6, 123, 5.086333751678467
0, 6, 124, 6.415457248687744
0, 6, 125, 7.775505542755127
0, 6, 126, 3.096060037612915
0, 6, 127, 4.619277000427246
0, 7, 0, 7.591170787811279
0, 7, 1, 3.923686504364014
0, 7, 2, 6.106542110443115
0, 7, 3, 3.970187902450562
0, 7, 4, 3.386350870132446
0, 7, 5, 3.867131948471069
0, 7, 6, 5.247861862182617
0, 7, 7, 8.382458686828613
0, 7, 8, 5.633147239685059
0, 7, 9, 6.636088371276855
0, 7, 10, 10.283371925354
0, 7, 11, 11.45680904388428
0, 7, 12, 10.27748584747314
0, 7, 13, 12.52795886993408
0, 7, 14, 9.861092567443848
0, 7, 15, 16.1879768371582
0, 7, 16, 26.67970848083496
0, 7, 17, 97.76882934570312
0, 7, 18, 218.6887969970703
0, 7, 19, 290.7604675292969
0, 7, 20, 297.6488952636719
0, 7, 21, 275.9897766113281
0, 7, 22, 298.4738159179688
0, 7, 23, 288.9514770507812
0, 7, 24, 313.2445678710938
0, 7, 25, 324.6197814941406
0, 7, 26, 277.3470458984375
0, 7, 27, 298.0083618164062
0, 7, 28, 326.1131896972656
0, 7, 29, 317.3173217773438
0, 7, 30, 300.0517578125
0, 7, 31, 277.511474609375
0, 7, 32, 303.6111450195312
0, 7, 33, 261.5141906738281
0, 7, 34, 296.5260009765625
0, 7, 35, 321.4488830566406
0, 7, 36, 331.4145202636719
0, 7, 37, 322.5856323242188
0, 7, 38, 295.5355224609375
0, 7, 39, 306.9053955078125
0, 7, 40, 290.6725769042969
0, 7, 41, 272.1902160644531
0, 7, 42, 299.4667053222656
0, 7, 43, 272.3865661621094
0, 7, 44, 304.4756774902344
0, 7, 45, 293.7794799804688
0, 7, 46, 282.8015441894531
0, 7, 47, 329.1037292480469
0, 7, 48, 286.22998046875
0, 7, 49, 301.1106567382812
0, 7, 50, 321.6175537109375
0, 7, 51, 298.5414123535156
0, 7, 52, 325.5728149414062
0, 7, 53, 309.5325317382812
0, 7, 54, 325.2545166015625
0, 7, 55, 306.5865783691406
0, 7, 56, 279.3315734863281
0, 7, 57, 284.9141235351562
0, 7, 58, 297.3687438964844
0, 7, 59, 293.8303833007812
0, 7, 60, 322.6319580078125
0, 7, 61, 276.9328918457031
0, 7, 62, 298.1919250488281
0, 7, 63, 291.3253479003906
0, 7, 64, 306.7537536621094
0, 7, 65, 330.7078247070312
0, 7, 66, 320.7189331054688
0, 7, 67, 300.4552612304688
0, 7, 68, 281.0033569335938
0, 7, 69, 295.0563354492188
0, 7, 70, 300.4292297363281
0, 7, 71, 309.3991394042969
0, 7, 72, 284.3433532714844
0, 7, 73, 295.7576599121094
0, 7, 74, 343.8070373535156
0, 7, 75, 320.3580932617188
0, 7, 76, 322.8341064453125
0, 7, 77, 282.8312683105469
0, 7, 78, 299.8854370117188
0, 7, 79, 300.8486938476562
0, 7, 80, 309.8458862304688
0, 7, 81, 320.9175415039062
0, 7, 82, 329.6483764648438
0, 7, 83, 317.0832214355469
0, 7, 84, 311.5466003417969
0, 7, 85, 272.5077819824219
0, 7, 86, 310.1418762207031
0, 7, 87, 312.7245483398438
0, 7, 88, 307.4367370605469
0, 7, 89, 292.5150146484375
0, 7, 90, 306.4157104492188
0, 7, 91, 317.271728515625
0, 7, 92, 289.3173217773438
0, 7, 93, 306.4910888671875
0, 7, 94, 273.6604919433594
0, 7, 95, 294.7469482421875
0, 7, 96, 332.24658203125
0, 7, 97, 294.4970092773438
0, 7, 98, 291.687255859375
0, 7, 99, 313.9150390625
0, 7, 100, 282.1697082519531
0, 7, 101, 274.5262451171875
0, 7, 102, 293.2607727050781
0, 7, 103, 294.0616455078125
0, 7, 104, 275.751220703125
0, 7, 105, 305.3551635742188
0, 7, 106, 318.0040588378906
0, 7, 107, 297.484130859375
0, 7, 108, 273.5850219726562
0, 7, 109, 236.417236328125
0, 7, 110, 95.97674560546875
0, 7, 111, 23.95481872558594
0, 7, 112, 13.01000881195068
0, 7, 113, 13.82871341705322
0, 7, 114, 14.6407413482666
0, 7, 115, 11.87036514282227
0, 7, 116, 8.733148574829102
0, 7, 117, 6.801002979278564
0, 7, 118, 12.07350254058838
0, 7, 119, 5.225015640258789
0, 7, 120, 4.658584117889404
0, 7, 121, 7.556222438812256
0, 7, 122, 8.348170280456543
0, 7, 123, 4.641232967376709
0, 7, 124, 2.754393100738525
0, 7, 125, 8.366013526916504
0, 7, 126, 8.702605247497559
0, 7, 127, 3.489322423934937
0, 8, 0, 6.755748748779297
0, 8, 1, 4.273338317871094
0, 8, 2, 2.795159101486206
0, 8, 3, 2.917250633239746
0, 8, 4, 5.913853168487549
0, 8, 5, 3.741450548171997
0, 8, 6, 6.413570880889893
0, 8, 7, 6.753485679626465
0, 8, 8, 9.454513549804688
0, 8, 9, 6.550837516784668
0, 8, 10, 8.808216094970703
0, 8, 11, 13.41258144378662
0, 8, 12, 12.81493282318115
0, 8, 13, 12.50478553771973
0, 8, 14, 13.62832355499268
0, 8, 15, 18.43341636657715
0, 8, 16, 34.55200958251953
0, 8, 17, 130.9167022705078
0, 8, 18, 245.5856475830078
0, 8, 19, 294.1882934570312
0, 8, 20, 287.8697814941406
0, 8, 21, 307.7684326171875
0, 8, 22, 295.1073303222656
0, 8, 23, 275.3115539550781
0, 8, 24, 268.7796630859375
0, 8, 25, 278.0223083496094
0, 8, 26, 305.6625366210938
0, 8, 27, 306.8297729492188
0, 8, 28, 307.5523376464844
0, 8, 29, 321.836181640625
0, 8, 30, 313.3120422363281
0, 8, 31, 302.8876647949219
0, 8, 32, 281.376708984375
0, 8, 33, 296.25439453125
0, 8, 34, 290.1715393066406
0, 8, 35, 280.5570068359375
0, 8, 36, 314.2081909179688
0, 8, 37, 338.5943298339844
0, 8, 38, 330.8959350585938
0, 8, 39, 282.3722534179688
