# TOPAS Version: 3.1.p3
# Parameter File: batch_inserts_206.txt
# Results for scorer Readout_Adipose
# Scored in component: MyBox
# X in 1 bin  of 0.75 cm
# Y in 512 bins of 0.0783984 cm
# Z in 128 bins of 0.078125 cm
# EnergyDeposit ( MeV ) : Sum   
0, 0, 0, 21.81233787536621
0, 0, 1, 27.08642768859863
0, 0, 2, 30.37802124023438
0, 0, 3, 24.38618469238281
0, 0, 4, 22.5296688079834
0, 0, 5, 29.21185493469238
0, 0, 6, 23.32120132446289
0, 0, 7, 33.2885627746582
0, 0, 8, 19.48040580749512
0, 0, 9, 21.58537101745605
0, 0, 10, 26.4487133026123
0, 0, 11, 28.9525260925293
0, 0, 12, 36.49963760375977
0, 0, 13, 28.46693229675293
0, 0, 14, 38.01212692260742
0, 0, 15, 49.90793991088867
0, 0, 16, 43.82422637939453
0, 0, 17, 48.83844375610352
0, 0, 18, 76.45960235595703
0, 0, 19, 190.0938415527344
0, 0, 20, 701.6873168945312
0, 0, 21, 1193.1328125
0, 0, 22, 1245.817504882812
0, 0, 23, 1277.30908203125
0, 0, 24, 1281.20751953125
0, 0, 25, 1358.34912109375
0, 0, 26, 1270.944458007812
0, 0, 27, 1279.656860351562
0, 0, 28, 1317.599975585938
0, 0, 29, 1272.352905273438
0, 0, 30, 1262.472045898438
0, 0, 31, 1279.1259765625
0, 0, 32, 1262.95361328125
0, 0, 33, 1242.902465820312
0, 0, 34, 1323.305908203125
0, 0, 35, 1301.812133789062
0, 0, 36, 1250.922241210938
0, 0, 37, 1280.916381835938
0, 0, 38, 1246.376708984375
0, 0, 39, 1244.603759765625
0, 0, 40, 1224.987548828125
0, 0, 41, 1269.511840820312
0, 0, 42, 1252.134643554688
0, 0, 43, 1268.471557617188
0, 0, 44, 1227.937133789062
0, 0, 45, 1287.143310546875
0, 0, 46, 1263.359375
0, 0, 47, 1238.71044921875
0, 0, 48, 1274.893310546875
0, 0, 49, 1289.039916992188
0, 0, 50, 1313.295776367188
0, 0, 51, 1265.28759765625
0, 0, 52, 1355.7724609375
0, 0, 53, 1324.9052734375
0, 0, 54, 1291.036499023438
0, 0, 55, 1237.62158203125
0, 0, 56, 1320.054443359375
0, 0, 57, 1291.717163085938
0, 0, 58, 1252.99853515625
0, 0, 59, 1331.118896484375
0, 0, 60, 1324.535522460938
0, 0, 61, 1261.9716796875
0, 0, 62, 1244.90771484375
0, 0, 63, 1275.517822265625
0, 0, 64, 1327.657470703125
0, 0, 65, 1286.8583984375
0, 0, 66, 1320.170532226562
0, 0, 67, 1214.723388671875
0, 0, 68, 1310.634399414062
0, 0, 69, 1325.971313476562
0, 0, 70, 1345.770751953125
0, 0, 71, 1287.664306640625
0, 0, 72, 1316.271850585938
0, 0, 73, 1240.000366210938
0, 0, 74, 1288.623657226562
0, 0, 75, 1297.815185546875
0, 0, 76, 1258.381591796875
0, 0, 77, 1282.69140625
0, 0, 78, 1317.484619140625
0, 0, 79, 1325.782836914062
0, 0, 80, 1260.533569335938
0, 0, 81, 1321.22314453125
0, 0, 82, 1282.986083984375
0, 0, 83, 1293.6533203125
0, 0, 84, 1327.810791015625
0, 0, 85, 1235.982666015625
0, 0, 86, 1265.281616210938
0, 0, 87, 1247.952026367188
0, 0, 88, 1255.611083984375
0, 0, 89, 1335.788940429688
0, 0, 90, 1279.68359375
0, 0, 91, 1352.82666015625
0, 0, 92, 1302.765869140625
0, 0, 93, 1271.630493164062
0, 0, 94, 1243.404663085938
0, 0, 95, 1329.168334960938
0, 0, 96, 1282.79345703125
0, 0, 97, 1330.605346679688
0, 0, 98, 1257.86767578125
0, 0, 99, 1248.983276367188
0, 0, 100, 1287.311889648438
0, 0, 101, 1314.88037109375
0, 0, 102, 1230.882568359375
0, 0, 103, 1321.997314453125
0, 0, 104, 1260.491333007812
0, 0, 105, 1271.976806640625
0, 0, 106, 1209.453857421875
0, 0, 107, 781.3204956054688
0, 0, 108, 196.8147125244141
0, 0, 109, 67.16755676269531
0, 0, 110, 63.58261871337891
0, 0, 111, 36.22122573852539
0, 0, 112, 35.97916412353516
0, 0, 113, 31.70608139038086
0, 0, 114, 34.99935913085938
0, 0, 115, 32.2568359375
0, 0, 116, 24.07279586791992
0, 0, 117, 29.68642425537109
0, 0, 118, 25.65112686157227
0, 0, 119, 22.1546459197998
0, 0, 120, 25.9465446472168
0, 0, 121, 29.3008861541748
0, 0, 122, 21.18624877929688
0, 0, 123, 21.63228034973145
0, 0, 124, 20.44137763977051
0, 0, 125, 17.19148445129395
0, 0, 126, 25.09486961364746
0, 0, 127, 13.59146118164062
0, 1, 0, 23.48471832275391
0, 1, 1, 19.14239311218262
0, 1, 2, 26.40707588195801
0, 1, 3, 20.58788681030273
0, 1, 4, 24.91131401062012
0, 1, 5, 27.18158912658691
0, 1, 6, 26.06396102905273
0, 1, 7, 28.80908584594727
0, 1, 8, 35.40162658691406
0, 1, 9, 28.83828926086426
0, 1, 10, 34.95627593994141
0, 1, 11, 39.68892288208008
0, 1, 12, 37.64678573608398
0, 1, 13, 41.93034744262695
0, 1, 14, 46.29447555541992
0, 1, 15, 46.50613784790039
0, 1, 16, 59.15459442138672
0, 1, 17, 59.02082443237305
0, 1, 18, 100.4760208129883
0, 1, 19, 394.6443481445312
0, 1, 20, 1043.903686523438
0, 1, 21, 1372.169799804688
0, 1, 22, 1481.059814453125
0, 1, 23, 1461.79736328125
0, 1, 24, 1448.360473632812
0, 1, 25, 1419.690795898438
0, 1, 26, 1476.498657226562
0, 1, 27, 1464.023803710938
0, 1, 28, 1486.971435546875
0, 1, 29, 1472.048583984375
0, 1, 30, 1505.805786132812
0, 1, 31, 1484.554077148438
0, 1, 32, 1412.107788085938
0, 1, 33, 1500.216186523438
0, 1, 34, 1499.487060546875
0, 1, 35, 1462.624633789062
0, 1, 36, 1491.000854492188
0, 1, 37, 1409.153442382812
0, 1, 38, 1393.585571289062
0, 1, 39, 1522.263427734375
0, 1, 40, 1464.760864257812
0, 1, 41, 1485.890014648438
0, 1, 42, 1494.470458984375
0, 1, 43, 1504.748657226562
0, 1, 44, 1448.854125976562
0, 1, 45, 1487.33984375
0, 1, 46, 1421.485961914062
0, 1, 47, 1432.008544921875
0, 1, 48, 1425.593627929688
0, 1, 49, 1486.973022460938
0, 1, 50, 1438.23486328125
0, 1, 51, 1475.190063476562
0, 1, 52, 1474.219482421875
0, 1, 53, 1475.602172851562
0, 1, 54, 1507.109497070312
0, 1, 55, 1491.39404296875
0, 1, 56, 1473.862426757812
0, 1, 57, 1456.194213867188
0, 1, 58, 1432.275756835938
0, 1, 59, 1483.742797851562
0, 1, 60, 1465.7939453125
0, 1, 61, 1449.54345703125
0, 1, 62, 1451.271606445312
0, 1, 63, 1419.653930664062
0, 1, 64, 1472.646850585938
0, 1, 65, 1419.048461914062
0, 1, 66, 1437.778442382812
0, 1, 67, 1456.363037109375
0, 1, 68, 1385.688110351562
0, 1, 69, 1462.438842773438
0, 1, 70, 1431.232788085938
0, 1, 71, 1496.880737304688
0, 1, 72, 1435.029541015625
0, 1, 73, 1487.435302734375
0, 1, 74, 1471.515869140625
0, 1, 75, 1475.685913085938
0, 1, 76, 1453.442138671875
0, 1, 77, 1460.709350585938
0, 1, 78, 1453.321166992188
0, 1, 79, 1499.788330078125
0, 1, 80, 1452.256469726562
0, 1, 81, 1427.629760742188
0, 1, 82, 1473.034545898438
0, 1, 83, 1456.23193359375
0, 1, 84, 1533.353759765625
0, 1, 85, 1448.194580078125
0, 1, 86, 1406.318969726562
0, 1, 87, 1425.730102539062
0, 1, 88, 1471.746337890625
0, 1, 89, 1470.32958984375
0, 1, 90, 1423.516723632812
0, 1, 91, 1466.158935546875
0, 1, 92, 1413.317138671875
0, 1, 93, 1460.038208007812
0, 1, 94, 1467.533325195312
0, 1, 95, 1426.034912109375
0, 1, 96, 1500.447387695312
0, 1, 97, 1516.0283203125
0, 1, 98, 1474.79248046875
0, 1, 99, 1422.115600585938
0, 1, 100, 1447.7197265625
0, 1, 101, 1414.384521484375
0, 1, 102, 1442.264282226562
0, 1, 103, 1412.93798828125
0, 1, 104, 1406.627319335938
0, 1, 105, 1462.899291992188
0, 1, 106, 1367.950805664062
0, 1, 107, 1024.388061523438
0, 1, 108, 402.483642578125
0, 1, 109, 88.94124603271484
0, 1, 110, 64.12281036376953
0, 1, 111, 52.16169738769531
0, 1, 112, 44.31034851074219
0, 1, 113, 39.98453140258789
0, 1, 114, 36.25447082519531
0, 1, 115, 40.14675903320312
0, 1, 116, 33.87750625610352
0, 1, 117, 34.2225227355957
0, 1, 118, 36.73934555053711
0, 1, 119, 28.08151054382324
0, 1, 120, 28.93205833435059
0, 1, 121, 23.41202926635742
0, 1, 122, 18.822265625
0, 1, 123, 26.65516090393066
0, 1, 124, 29.35433197021484
0, 1, 125, 21.00983810424805
0, 1, 126, 19.55386352539062
0, 1, 127, 21.62557792663574
0, 2, 0, 21.22809410095215
0, 2, 1, 25.63786888122559
0, 2, 2, 19.47042846679688
0, 2, 3, 28.31203460693359
0, 2, 4, 24.25401306152344
0, 2, 5, 33.33416748046875
0, 2, 6, 21.68021774291992
0, 2, 7, 21.00848197937012
0, 2, 8, 25.96853446960449
0, 2, 9, 28.06796455383301
0, 2, 10, 30.0511646270752
0, 2, 11, 32.58048629760742
0, 2, 12, 40.25360870361328
0, 2, 13, 53.84484481811523
0, 2, 14, 50.14117813110352
0, 2, 15, 49.22084045410156
0, 2, 16, 64.12519836425781
0, 2, 17, 77.66140747070312
0, 2, 18, 141.0688323974609
0, 2, 19, 605.5042724609375
0, 2, 20, 1289.311279296875
0, 2, 21, 1432.7529296875
0, 2, 22, 1460.178588867188
0, 2, 23, 1407.644653320312
0, 2, 24, 1440.29736328125
0, 2, 25, 1523.31591796875
0, 2, 26, 1554.246948242188
0, 2, 27, 1456.302001953125
0, 2, 28, 1458.295288085938
0, 2, 29, 1460.723388671875
0, 2, 30, 1463.858154296875
0, 2, 31, 1537.244506835938
0, 2, 32, 1506.325561523438
0, 2, 33, 1443.551513671875
0, 2, 34, 1470.06298828125
0, 2, 35, 1470.747924804688
0, 2, 36, 1524.133178710938
0, 2, 37, 1552.0625
0, 2, 38, 1501.8232421875
0, 2, 39, 1466.013061523438
0, 2, 40, 1504.378784179688
0, 2, 41, 1525.8291015625
0, 2, 42, 1506.277954101562
0, 2, 43, 1552.349731445312
0, 2, 44, 1461.86865234375
0, 2, 45, 1485.569946289062
0, 2, 46, 1423.93212890625
0, 2, 47, 1446.389892578125
0, 2, 48, 1399.036376953125
0, 2, 49, 1460.456909179688
0, 2, 50, 1445.751098632812
0, 2, 51, 1446.299560546875
0, 2, 52, 1492.433715820312
0, 2, 53, 1523.253784179688
0, 2, 54, 1527.373291015625
0, 2, 55, 1490.220703125
0, 2, 56, 1464.463745117188
0, 2, 57, 1415.127075195312
0, 2, 58, 1458.591674804688
0, 2, 59, 1450.404174804688
0, 2, 60, 1475.6533203125
0, 2, 61, 1451.050048828125
0, 2, 62, 1473.601806640625
0, 2, 63, 1507.360229492188
0, 2, 64, 1459.494262695312
0, 2, 65, 1429.560424804688
0, 2, 66, 1488.343139648438
0, 2, 67, 1505.038696289062
0, 2, 68, 1545.251220703125
0, 2, 69, 1536.038208007812
0, 2, 70, 1503.87646484375
0, 2, 71, 1466.9111328125
0, 2, 72, 1514.051391601562
0, 2, 73, 1520.507202148438
0, 2, 74, 1484.377197265625
0, 2, 75, 1500.328979492188
0, 2, 76, 1451.527954101562
0, 2, 77, 1512.15673828125
0, 2, 78, 1433.329345703125
0, 2, 79, 1540.073364257812
0, 2, 80, 1475.833984375
0, 2, 81, 1468.488647460938
0, 2, 82, 1560.762329101562
0, 2, 83, 1515.027099609375
0, 2, 84, 1490.5419921875
0, 2, 85, 1513.346435546875
0, 2, 86, 1543.600341796875
0, 2, 87, 1489.104125976562
0, 2, 88, 1540.350341796875
0, 2, 89, 1465.74951171875
0, 2, 90, 1430.727172851562
0, 2, 91, 1403.145629882812
0, 2, 92, 1480.721069335938
0, 2, 93, 1495.590209960938
0, 2, 94, 1451.284545898438
0, 2, 95, 1539.260986328125
0, 2, 96, 1511.307006835938
0, 2, 97, 1453.24267578125
0, 2, 98, 1463.34765625
0, 2, 99, 1401.246704101562
0, 2, 100, 1470.314697265625
0, 2, 101, 1480.311157226562
0, 2, 102, 1462.719360351562
0, 2, 103, 1388.103515625
0, 2, 104, 1409.021362304688
0, 2, 105, 1397.193603515625
0, 2, 106, 1453.558715820312
0, 2, 107, 1277.096313476562
0, 2, 108, 622.1078491210938
0, 2, 109, 171.3605804443359
0, 2, 110, 67.21463775634766
0, 2, 111, 64.26356506347656
0, 2, 112, 44.26392364501953
0, 2, 113, 44.57441329956055
0, 2, 114, 40.17630767822266
0, 2, 115, 44.38201141357422
0, 2, 116, 38.54875564575195
0, 2, 117, 39.30167388916016
0, 2, 118, 30.55908966064453
0, 2, 119, 33.54248046875
0, 2, 120, 31.80930328369141
0, 2, 121, 20.93632507324219
0, 2, 122, 26.92365264892578
0, 2, 123, 23.30368995666504
0, 2, 124, 26.31890678405762
0, 2, 125, 30.35733985900879
0, 2, 126, 18.69191360473633
0, 2, 127, 24.54529571533203
0, 3, 0, 14.63498592376709
0, 3, 1, 22.27146339416504
0, 3, 2, 22.91320991516113
0, 3, 3, 18.92523193359375
0, 3, 4, 16.93793678283691
0, 3, 5, 20.66582489013672
0, 3, 6, 32.32161331176758
0, 3, 7, 31.94205474853516
0, 3, 8, 26.99137687683105
0, 3, 9, 33.33996200561523
0, 3, 10, 33.62148666381836
0, 3, 11, 36.66117858886719
0, 3, 12, 44.45912933349609
0, 3, 13, 49.42517852783203
0, 3, 14, 55.73656463623047
0, 3, 15, 57.12322616577148
0, 3, 16, 67.51316070556641
0, 3, 17, 91.54227447509766
0, 3, 18, 242.6163482666016
0, 3, 19, 877.7579345703125
0, 3, 20, 1382.983276367188
0, 3, 21, 1505.155151367188
0, 3, 22, 1463.285278320312
0, 3, 23, 1449.898559570312
0, 3, 24, 1441.464477539062
0, 3, 25, 1465.47216796875
0, 3, 26, 1498.66064453125
0, 3, 27, 1466.11865234375
0, 3, 28, 1487.110717773438
0, 3, 29, 1550.902221679688
0, 3, 30, 1571.738891601562
0, 3, 31, 1512.703247070312
0, 3, 32, 1546.567993164062
0, 3, 33, 1540.355224609375
0, 3, 34, 1487.59326171875
0, 3, 35, 1460.976684570312
0, 3, 36, 1450.015258789062
0, 3, 37, 1512.348754882812
0, 3, 38, 1516.559936523438
0, 3, 39, 1436.248779296875
0, 3, 40, 1441.668212890625
0, 3, 41, 1566.2548828125
0, 3, 42, 1463.205444335938
0, 3, 43, 1461.579223632812
0, 3, 44, 1452.1220703125
0, 3, 45, 1508.333862304688
0, 3, 46, 1507.153442382812
0, 3, 47, 1443.230834960938
0, 3, 48, 1508.712890625
0, 3, 49, 1450.52392578125
0, 3, 50, 1487.20263671875
0, 3, 51, 1537.44384765625
0, 3, 52, 1536.461547851562
0, 3, 53, 1464.910888671875
0, 3, 54, 1534.83837890625
0, 3, 55, 1507.682861328125
0, 3, 56, 1433.429077148438
0, 3, 57, 1504.594482421875
0, 3, 58, 1513.873657226562
0, 3, 59, 1508.182373046875
0, 3, 60, 1531.91455078125
0, 3, 61, 1482.694213867188
0, 3, 62, 1494.553466796875
0, 3, 63, 1490.2275390625
0, 3, 64, 1501.525634765625
0, 3, 65, 1515.583740234375
0, 3, 66, 1557.755615234375
0, 3, 67, 1546.994140625
0, 3, 68, 1446.437255859375
0, 3, 69, 1468.154052734375
0, 3, 70, 1388.576171875
0, 3, 71, 1467.719360351562
0, 3, 72, 1547.802490234375
0, 3, 73, 1497.287231445312
0, 3, 74, 1475.512939453125
0, 3, 75, 1460.925415039062
0, 3, 76, 1574.63916015625
0, 3, 77, 1541.447021484375
0, 3, 78, 1428.384887695312
0, 3, 79, 1489.587036132812
0, 3, 80, 1460.380004882812
0, 3, 81, 1478.665649414062
0, 3, 82, 1556.38525390625
0, 3, 83, 1514.888793945312
0, 3, 84, 1559.331420898438
0, 3, 85, 1481.826171875
0, 3, 86, 1526.153564453125
0, 3, 87, 1537.685913085938
0, 3, 88, 1458.854858398438
0, 3, 89, 1449.607788085938
0, 3, 90, 1447.556640625
0, 3, 91, 1418.011474609375
0, 3, 92, 1509.879150390625
0, 3, 93, 1499.7353515625
0, 3, 94, 1512.523071289062
0, 3, 95, 1542.816650390625
0, 3, 96, 1517.7021484375
0, 3, 97, 1466.207641601562
0, 3, 98, 1434.537109375
0, 3, 99, 1463.997924804688
0, 3, 100, 1464.94384765625
0, 3, 101, 1472.800048828125
0, 3, 102, 1522.099243164062
0, 3, 103, 1557.8330078125
0, 3, 104, 1501.931762695312
0, 3, 105, 1513.107421875
0, 3, 106, 1479.831787109375
0, 3, 107, 1342.163452148438
0, 3, 108, 874.7700805664062
0, 3, 109, 265.0226135253906
0, 3, 110, 106.0583419799805
0, 3, 111, 64.81077575683594
0, 3, 112, 60.63285827636719
0, 3, 113, 49.92958450317383
0, 3, 114, 48.54714965820312
0, 3, 115, 48.01681900024414
0, 3, 116, 40.77845764160156
0, 3, 117, 40.51606369018555
0, 3, 118, 34.62709426879883
0, 3, 119, 32.35054016113281
0, 3, 120, 27.78255271911621
0, 3, 121, 20.5238151550293
0, 3, 122, 23.5156421661377
0, 3, 123, 25.46759033203125
0, 3, 124, 26.86698722839355
0, 3, 125, 28.06443023681641
0, 3, 126, 24.49553680419922
0, 3, 127, 15.01989269256592
0, 4, 0, 20.34142684936523
0, 4, 1, 24.82962989807129
0, 4, 2, 21.14470672607422
0, 4, 3, 19.0577220916748
0, 4, 4, 26.44709777832031
0, 4, 5, 31.96882629394531
0, 4, 6, 30.49770545959473
0, 4, 7, 29.19814300537109
0, 4, 8, 27.52860832214355
0, 4, 9, 35.12911987304688
0, 4, 10, 30.21488952636719
0, 4, 11, 36.38124847412109
0, 4, 12, 42.93981552124023
0, 4, 13, 52.87421417236328
0, 4, 14, 48.29826354980469
0, 4, 15, 62.75772476196289
0, 4, 16, 73.41678619384766
0, 4, 17, 111.1471557617188
0, 4, 18, 444.0643920898438
0, 4, 19, 1183.158813476562
0, 4, 20, 1449.57275390625
0, 4, 21, 1419.4775390625
0, 4, 22, 1432.045532226562
0, 4, 23, 1448.654296875
0, 4, 24, 1476.620239257812
0, 4, 25, 1404.278198242188
0, 4, 26, 1535.897216796875
0, 4, 27, 1544.997314453125
0, 4, 28, 1509.229248046875
0, 4, 29, 1515.877075195312
0, 4, 30, 1531.183837890625
0, 4, 31, 1572.99609375
0, 4, 32, 1514.486450195312
0, 4, 33, 1494.017456054688
0, 4, 34, 1467.845825195312
0, 4, 35, 1559.407592773438
0, 4, 36, 1503.790161132812
0, 4, 37, 1510.8525390625
0, 4, 38, 1532.701049804688
0, 4, 39, 1469.357543945312
0, 4, 40, 1514.930541992188
0, 4, 41, 1586.572509765625
0, 4, 42, 1567.115356445312
0, 4, 43, 1471.156005859375
0, 4, 44, 1494.919677734375
0, 4, 45, 1518.442626953125
0, 4, 46, 1468.3193359375
0, 4, 47, 1500.661865234375
0, 4, 48, 1526.168823242188
0, 4, 49, 1469.32763671875
0, 4, 50, 1514.211669921875
0, 4, 51, 1494.879028320312
0, 4, 52, 1496.928955078125
0, 4, 53, 1453.09326171875
0, 4, 54, 1442.095458984375
0, 4, 55, 1523.128295898438
0, 4, 56, 1453.093017578125
0, 4, 57, 1494.888427734375
0, 4, 58, 1462.2021484375
0, 4, 59, 1461.71435546875
0, 4, 60, 1528.258422851562
0, 4, 61, 1502.027954101562
0, 4, 62, 1502.526733398438
0, 4, 63, 1544.09033203125
0, 4, 64, 1593.86279296875
0, 4, 65, 1424.683349609375
0, 4, 66, 1513.046997070312
0, 4, 67, 1517.435302734375
0, 4, 68, 1493.846313476562
0, 4, 69, 1470.953491210938
0, 4, 70, 1543.76806640625
0, 4, 71, 1518.313354492188
0, 4, 72, 1533.22119140625
0, 4, 73, 1489.973388671875
0, 4, 74, 1488.74072265625
0, 4, 75, 1536.072387695312
0, 4, 76, 1477.455444335938
0, 4, 77, 1500.784423828125
0, 4, 78, 1506.058227539062
0, 4, 79, 1480.985473632812
0, 4, 80, 1516.1572265625
0, 4, 81, 1526.850219726562
0, 4, 82, 1566.910034179688
0, 4, 83, 1508.672119140625
0, 4, 84, 1536.385864257812
0, 4, 85, 1556.146850585938
0, 4, 86, 1523.23193359375
0, 4, 87, 1499.144409179688
0, 4, 88, 1515.344360351562
0, 4, 89, 1483.519897460938
0, 4, 90, 1545.693969726562
0, 4, 91, 1552.231811523438
0, 4, 92, 1491.380859375
0, 4, 93, 1519.62646484375
0, 4, 94, 1480.4072265625
0, 4, 95, 1512.79931640625
0, 4, 96, 1445.149780273438
0, 4, 97, 1408.065673828125
0, 4, 98, 1556.53515625
0, 4, 99, 1509.580200195312
0, 4, 100, 1490.677124023438
0, 4, 101, 1446.720703125
0, 4, 102, 1448.028198242188
0, 4, 103, 1512.1318359375
0, 4, 104, 1509.959350585938
0, 4, 105, 1555.274291992188
0, 4, 106, 1474.931884765625
0, 4, 107, 1455.078369140625
0, 4, 108, 1121.463989257812
0, 4, 109, 436.4613952636719
0, 4, 110, 95.92401123046875
0, 4, 111, 68.54248046875
0, 4, 112, 61.62873840332031
0, 4, 113, 52.72567367553711
0, 4, 114, 49.92479705810547
0, 4, 115, 47.20725250244141
0, 4, 116, 37.21419525146484
0, 4, 117, 43.30581665039062
0, 4, 118, 40.57774353027344
0, 4, 119, 36.58404159545898
0, 4, 120, 37.18082046508789
0, 4, 121, 28.35795974731445
0, 4, 122, 32.08331680297852
0, 4, 123, 27.20105361938477
0, 4, 124, 18.33839988708496
0, 4, 125, 28.87801361083984
0, 4, 126, 24.79391288757324
0, 4, 127, 20.35309982299805
0, 5, 0, 21.80075645446777
0, 5, 1, 25.16518783569336
0, 5, 2, 29.68877029418945
0, 5, 3, 27.07427215576172
0, 5, 4, 24.93928146362305
0, 5, 5, 35.14697265625
0, 5, 6, 31.37545204162598
0, 5, 7, 29.94906806945801
0, 5, 8, 31.23982620239258
0, 5, 9, 31.35776519775391
0, 5, 10, 36.10842132568359
0, 5, 11, 37.12602996826172
0, 5, 12, 39.21054077148438
0, 5, 13, 44.44281005859375
0, 5, 14, 61.37623977661133
0, 5, 15, 77.28743743896484
0, 5, 16, 80.24746704101562
0, 5, 17, 151.8843994140625
0, 5, 18, 677.0418090820312
0, 5, 19, 1342.5927734375
0, 5, 20, 1526.61474609375
0, 5, 21, 1489.763793945312
0, 5, 22, 1496.388793945312
0, 5, 23, 1531.888305664062
0, 5, 24, 1466.90185546875
0, 5, 25, 1430.428588867188
0, 5, 26, 1525.391845703125
0, 5, 27, 1541.252807617188
0, 5, 28, 1490.6513671875
0, 5, 29, 1519.750244140625
0, 5, 30, 1493.844360351562
0, 5, 31, 1498.712890625
0, 5, 32, 1597.084594726562
0, 5, 33, 1500.179077148438
0, 5, 34, 1484.128295898438
0, 5, 35, 1509.368896484375
0, 5, 36, 1443.748657226562
0, 5, 37, 1531.866821289062
0, 5, 38, 1547.918334960938
0, 5, 39, 1548.957641601562
0, 5, 40, 1497.689331054688
0, 5, 41, 1479.269897460938
0, 5, 42, 1538.060424804688
0, 5, 43, 1534.540405273438
0, 5, 44, 1539.467895507812
0, 5, 45, 1504.513793945312
0, 5, 46, 1495.358154296875
0, 5, 47, 1488.461303710938
0, 5, 48, 1501.168823242188
0, 5, 49, 1527.89501953125
0, 5, 50, 1506.502075195312
0, 5, 51, 1512.289428710938
0, 5, 52, 1432.48095703125
0, 5, 53, 1524.620239257812
0, 5, 54, 1521.752075195312
0, 5, 55, 1516.490966796875
0, 5, 56, 1485.832397460938
0, 5, 57, 1538.76025390625
0, 5, 58, 1510.724243164062
0, 5, 59, 1491.920776367188
0, 5, 60, 1533.46728515625
0, 5, 61, 1452.371337890625
0, 5, 62, 1588.907592773438
0, 5, 63, 1436.749755859375
0, 5, 64, 1489.452514648438
0, 5, 65, 1467.369873046875
0, 5, 66, 1524.478637695312
0, 5, 67, 1557.575439453125
0, 5, 68, 1462.029296875
0, 5, 69, 1484.72509765625
0, 5, 70, 1487.4580078125
0, 5, 71, 1471.229248046875
0, 5, 72, 1541.64306640625
0, 5, 73, 1459.052124023438
0, 5, 74, 1493.649047851562
0, 5, 75, 1485.491455078125
0, 5, 76, 1480.19580078125
0, 5, 77, 1514.394653320312
0, 5, 78, 1522.5458984375
0, 5, 79, 1514.651611328125
0, 5, 80, 1520.482299804688
0, 5, 81, 1595.624389648438
0, 5, 82, 1525.73193359375
0, 5, 83, 1486.998168945312
0, 5, 84, 1532.308959960938
0, 5, 85, 1512.986572265625
0, 5, 86, 1559.645874023438
0, 5, 87, 1472.049438476562
0, 5, 88, 1498.943725585938
0, 5, 89, 1477.938720703125
0, 5, 90, 1481.88525390625
0, 5, 91, 1549.146728515625
0, 5, 92, 1486.93798828125
0, 5, 93, 1562.620239257812
0, 5, 94, 1509.001831054688
0, 5, 95, 1559.307739257812
0, 5, 96, 1501.937133789062
0, 5, 97, 1514.246826171875
0, 5, 98, 1508.347412109375
0, 5, 99, 1544.157104492188
0, 5, 100, 1431.268310546875
0, 5, 101, 1427.51611328125
0, 5, 102, 1513.787109375
0, 5, 103, 1475.784057617188
0, 5, 104, 1463.4794921875
0, 5, 105, 1495.049072265625
0, 5, 106, 1458.045288085938
0, 5, 107, 1396.728881835938
0, 5, 108, 1285.784790039062
0, 5, 109, 718.738037109375
0, 5, 110, 190.8104400634766
0, 5, 111, 88.40812683105469
0, 5, 112, 86.03620147705078
0, 5, 113, 69.52862548828125
0, 5, 114, 59.08363342285156
0, 5, 115, 56.36948776245117
0, 5, 116, 38.45812606811523
0, 5, 117, 35.38440704345703
0, 5, 118, 40.45853424072266
0, 5, 119, 31.11532783508301
0, 5, 120, 27.76912879943848
0, 5, 121, 25.98455047607422
0, 5, 122, 27.63888359069824
0, 5, 123, 27.44832229614258
0, 5, 124, 26.88482093811035
0, 5, 125, 31.4573974609375
0, 5, 126, 23.44412612915039
0, 5, 127, 28.64467620849609
0, 6, 0, 19.86254119873047
0, 6, 1, 25.49593544006348
0, 6, 2, 26.90972709655762
0, 6, 3, 30.5350513458252
0, 6, 4, 22.21541404724121
0, 6, 5, 36.6313591003418
0, 6, 6, 35.98065948486328
0, 6, 7, 29.37847900390625
0, 6, 8, 33.58361053466797
0, 6, 9, 36.92081069946289
0, 6, 10, 39.72054672241211
0, 6, 11, 39.62994003295898
0, 6, 12, 41.60682678222656
0, 6, 13, 55.86934661865234
0, 6, 14, 59.70627212524414
0, 6, 15, 80.68504333496094
0, 6, 16, 113.1028137207031
0, 6, 17, 301.5287780761719
0, 6, 18, 895.2803955078125
0, 6, 19, 1373.114013671875
0, 6, 20, 1437.338745117188
0, 6, 21, 1529.535766601562
0, 6, 22, 1500.286376953125
0, 6, 23, 1527.693969726562
0, 6, 24, 1478.011962890625
0, 6, 25, 1527.944213867188
0, 6, 26, 1524.0478515625
0, 6, 27, 1522.441162109375
0, 6, 28, 1556.988647460938
0, 6, 29, 1573.339477539062
0, 6, 30, 1517.568237304688
0, 6, 31, 1491.541748046875
0, 6, 32, 1521.939331054688
0, 6, 33, 1496.167846679688
0, 6, 34, 1561.744140625
0, 6, 35, 1504.35888671875
0, 6, 36, 1438.965942382812
0, 6, 37, 1546.637817382812
0, 6, 38, 1525.923583984375
0, 6, 39, 1527.292602539062
0, 6, 40, 1460.0498046875
0, 6, 41, 1439.426879882812
0, 6, 42, 1523.549438476562
0, 6, 43, 1488.87451171875
0, 6, 44, 1431.373046875
0, 6, 45, 1541.929321289062
0, 6, 46, 1550.736694335938
0, 6, 47, 1493.951782226562
0, 6, 48, 1526.408325195312
0, 6, 49, 1510.440673828125
0, 6, 50, 1579.410034179688
0, 6, 51, 1506.3154296875
0, 6, 52, 1564.531616210938
0, 6, 53, 1478.197265625
0, 6, 54, 1497.982055664062
0, 6, 55, 1574.883911132812
0, 6, 56, 1522.87744140625
0, 6, 57, 1514.856689453125
0, 6, 58, 1467.9345703125
0, 6, 59, 1521.787841796875
0, 6, 60, 1468.68408203125
0, 6, 61, 1573.223876953125
0, 6, 62, 1549.255981445312
0, 6, 63, 1497.5322265625
0, 6, 64, 1409.252685546875
0, 6, 65, 1489.349853515625
0, 6, 66, 1510.182373046875
0, 6, 67, 1508.013671875
0, 6, 68, 1549.802612304688
0, 6, 69, 1490.4189453125
0, 6, 70, 1525.984375
0, 6, 71, 1472.160034179688
0, 6, 72, 1596.64599609375
0, 6, 73, 1492.28857421875
0, 6, 74, 1557.610717773438
0, 6, 75, 1538.641235351562
0, 6, 76, 1563.063232421875
0, 6, 77, 1512.138916015625
0, 6, 78, 1446.631225585938
0, 6, 79, 1555.386962890625
0, 6, 80, 1481.645874023438
0, 6, 81, 1487.892822265625
0, 6, 82, 1499.549072265625
0, 6, 83, 1528.3701171875
0, 6, 84, 1526.39501953125
0, 6, 85, 1537.537231445312
0, 6, 86, 1537.676513671875
0, 6, 87, 1573.031494140625
0, 6, 88, 1477.272216796875
0, 6, 89, 1563.476928710938
0, 6, 90, 1494.325439453125
0, 6, 91, 1541.102416992188
0, 6, 92, 1487.572265625
0, 6, 93, 1493.825561523438
0, 6, 94, 1476.850952148438
0, 6, 95, 1511.045043945312
0, 6, 96, 1519.556640625
0, 6, 97, 1505.29052734375
0, 6, 98, 1494.617797851562
0, 6, 99, 1486.312744140625
0, 6, 100, 1523.73681640625
0, 6, 101, 1517.736083984375
0, 6, 102, 1534.88427734375
0, 6, 103, 1501.762084960938
0, 6, 104, 1465.220825195312
0, 6, 105, 1486.9091796875
0, 6, 106, 1495.590209960938
0, 6, 107, 1503.392944335938
0, 6, 108, 1404.832641601562
0, 6, 109, 923.7254028320312
0, 6, 110, 278.7275695800781
0, 6, 111, 97.81444549560547
0, 6, 112, 82.83158874511719
0, 6, 113, 57.66290283203125
0, 6, 114, 54.79037475585938
0, 6, 115, 43.61750411987305
0, 6, 116, 45.57894897460938
0, 6, 117, 40.19275283813477
0, 6, 118, 44.05997467041016
0, 6, 119, 41.11260986328125
0, 6, 120, 29.71663856506348
0, 6, 121, 30.17024040222168
0, 6, 122, 28.57563018798828
0, 6, 123, 29.08274078369141
0, 6, 124, 29.54519653320312
0, 6, 125, 32.56130599975586
0, 6, 126, 22.33555030822754
0, 6, 127, 20.88634872436523
0, 7, 0, 20.44708442687988
0, 7, 1, 27.12592887878418
0, 7, 2, 20.3021240234375
0, 7, 3, 24.26863098144531
0, 7, 4, 27.85664176940918
0, 7, 5, 34.48051452636719
0, 7, 6, 32.9212532043457
0, 7, 7, 38.89733123779297
0, 7, 8, 31.04700088500977
0, 7, 9, 39.72477722167969
0, 7, 10, 50.13410949707031
0, 7, 11, 49.74422454833984
0, 7, 12, 46.04461288452148
0, 7, 13, 50.74513244628906
0, 7, 14, 64.28917694091797
0, 7, 15, 80.74097442626953
0, 7, 16, 128.2258605957031
0, 7, 17, 458.9516296386719
0, 7, 18, 1099.397583007812
0, 7, 19, 1498.61474609375
0, 7, 20, 1489.223876953125
0, 7, 21, 1364.267456054688
0, 7, 22, 1486.417236328125
0, 7, 23, 1455.882446289062
0, 7, 24, 1507.844604492188
0, 7, 25, 1594.487182617188
0, 7, 26, 1519.128540039062
0, 7, 27, 1510.962036132812
0, 7, 28, 1545.426635742188
0, 7, 29, 1571.619140625
0, 7, 30, 1553.430053710938
0, 7, 31, 1438.95751953125
0, 7, 32, 1541.840209960938
0, 7, 33, 1490.89208984375
0, 7, 34, 1479.101196289062
0, 7, 35, 1526.6728515625
0, 7, 36, 1469.73193359375
0, 7, 37, 1598.811767578125
0, 7, 38, 1499.914672851562
0, 7, 39, 1493.9765625
0, 7, 40, 1542.30810546875
0, 7, 41, 1465.45654296875
0, 7, 42, 1486.949462890625
0, 7, 43, 1439.907592773438
0, 7, 44, 1488.485961914062
0, 7, 45, 1470.536376953125
0, 7, 46, 1512.185180664062
0, 7, 47, 1566.23974609375
0, 7, 48, 1519.952026367188
0, 7, 49, 1536.639526367188
0, 7, 50, 1512.44873046875
0, 7, 51, 1498.171875
0, 7, 52, 1513.189575195312
0, 7, 53, 1496.86767578125
0, 7, 54, 1583.207763671875
0, 7, 55, 1470.859252929688
0, 7, 56, 1556.269165039062
0, 7, 57, 1516.403198242188
0, 7, 58, 1547.5224609375
0, 7, 59, 1540.616455078125
0, 7, 60, 1549.74560546875
0, 7, 61, 1487.736450195312
0, 7, 62, 1435.916748046875
0, 7, 63, 1513.579345703125
0, 7, 64, 1545.301513671875
0, 7, 65, 1528.204711914062
0, 7, 66, 1543.149780273438
0, 7, 67, 1579.402099609375
0, 7, 68, 1530.325561523438
0, 7, 69, 1514.720336914062
0, 7, 70, 1498.20068359375
0, 7, 71, 1526.328491210938
0, 7, 72, 1525.6162109375
0, 7, 73, 1519.572509765625
0, 7, 74, 1575.109619140625
0, 7, 75, 1542.307373046875
0, 7, 76, 1556.383056640625
0, 7, 77, 1512.82958984375
0, 7, 78, 1506.485473632812
0, 7, 79, 1427.00390625
0, 7, 80, 1486.2802734375
0, 7, 81, 1493.66796875
0, 7, 82, 1531.078247070312
0, 7, 83, 1542.283935546875
0, 7, 84, 1584.780151367188
0, 7, 85, 1476.637573242188
0, 7, 86, 1501.5556640625
0, 7, 87, 1508.529907226562
0, 7, 88, 1497.366088867188
0, 7, 89, 1552.163452148438
0, 7, 90, 1527.082153320312
0, 7, 91, 1561.410766601562
0, 7, 92, 1528.338256835938
0, 7, 93, 1553.511596679688
0, 7, 94, 1537.387084960938
0, 7, 95, 1505.185180664062
0, 7, 96, 1505.599853515625
0, 7, 97, 1434.87451171875
0, 7, 98, 1483.657348632812
0, 7, 99, 1527.224487304688
0, 7, 100, 1420.766479492188
0, 7, 101, 1468.629150390625
0, 7, 102, 1447.074584960938
0, 7, 103, 1431.833374023438
0, 7, 104, 1490.959106445312
0, 7, 105, 1521.739868164062
0, 7, 106, 1568.540283203125
0, 7, 107, 1477.964233398438
0, 7, 108, 1408.996459960938
0, 7, 109, 1146.099975585938
0, 7, 110, 469.9587707519531
0, 7, 111, 124.7257537841797
0, 7, 112, 82.11705780029297
0, 7, 113, 66.32648468017578
0, 7, 114, 61.84468460083008
0, 7, 115, 53.86791229248047
0, 7, 116, 48.45955276489258
0, 7, 117, 44.7592887878418
0, 7, 118, 34.34302139282227
0, 7, 119, 34.88855743408203
0, 7, 120, 25.25484085083008
0, 7, 121, 30.91996574401855
0, 7, 122, 30.15970039367676
0, 7, 123, 30.48349189758301
0, 7, 124, 32.3430061340332
0, 7, 125, 20.32802391052246
0, 7, 126, 23.99336433410645
0, 7, 127, 20.24823951721191
0, 8, 0, 22.51123046875
0, 8, 1, 22.44343376159668
0, 8, 2, 24.0269603729248
0, 8, 3, 23.89922332763672
0, 8, 4, 23.04499816894531
0, 8, 5, 33.76545333862305
0, 8, 6, 32.21566772460938
0, 8, 7, 26.62222290039062
0, 8, 8, 37.85270309448242
0, 8, 9, 45.55172348022461
0, 8, 10, 43.05783843994141
0, 8, 11, 44.67450714111328
0, 8, 12, 51.49039840698242
0, 8, 13, 68.12657165527344
0, 8, 14, 70.976318359375
0, 8, 15, 86.70990753173828
0, 8, 16, 170.0901794433594
0, 8, 17, 672.986083984375
0, 8, 18, 1275.025634765625
0, 8, 19, 1446.196044921875
0, 8, 20, 1425.810424804688
0, 8, 21, 1405.236206054688
0, 8, 22, 1486.675048828125
0, 8, 23, 1477.1806640625
0, 8, 24, 1433.002197265625
0, 8, 25, 1455.880126953125
0, 8, 26, 1512.205932617188
0, 8, 27, 1520.836181640625
0, 8, 28, 1480.703002929688
0, 8, 29, 1503.088012695312
0, 8, 30, 1486.9072265625
0, 8, 31, 1533.903564453125
0, 8, 32, 1508.408813476562
0, 8, 33, 1481.87451171875
0, 8, 34, 1540.92724609375
0, 8, 35, 1443.752197265625
0, 8, 36, 1504.236938476562
0, 8, 37, 1555.891723632812
0, 8, 38, 1561.95556640625
0, 8, 39, 1496.75732421875
0, 8, 40, 1530.375366210938
0, 8, 41, 1485.41259765625
0, 8, 42, 1545.115356445312
0, 8, 43, 1430.024291992188
0, 8, 44, 1536.272827148438
0, 8, 45, 1513.197631835938
0, 8, 46, 1598.8515625
