# TOPAS Version: 3.1.p3
# Parameter File: batch_inserts_248.txt
# Results for scorer Readout_Adipose
# Scored in component: MyBox
# X in 1 bin  of 0.75 cm
# Y in 512 bins of 0.0783984 cm
# Z in 128 bins of 0.078125 cm
# EnergyDeposit ( MeV ) : Sum   
0, 0, 0, 3.883040428161621
0, 0, 1, 1.791845440864563
0, 0, 2, 4.201320648193359
0, 0, 3, 2.035541534423828
0, 0, 4, 3.786202907562256
0, 0, 5, 2.525715112686157
0, 0, 6, 6.892595291137695
0, 0, 7, 10.19804382324219
0, 0, 8, 2.288677930831909
0, 0, 9, 5.360803127288818
0, 0, 10, 6.182002544403076
0, 0, 11, 5.914896011352539
0, 0, 12, 4.542738437652588
0, 0, 13, 6.765628337860107
0, 0, 14, 7.172345638275146
0, 0, 15, 8.708266258239746
0, 0, 16, 8.289573669433594
0, 0, 17, 9.831321716308594
0, 0, 18, 13.71383476257324
0, 0, 19, 44.43148040771484
0, 0, 20, 139.1909790039062
0, 0, 21, 224.0165710449219
0, 0, 22, 248.8561706542969
0, 0, 23, 257.0982971191406
0, 0, 24, 250.2476501464844
0, 0, 25, 258.5758972167969
0, 0, 26, 233.4608917236328
0, 0, 27, 236.5017395019531
0, 0, 28, 271.5922546386719
0, 0, 29, 252.8024291992188
0, 0, 30, 232.2591247558594
0, 0, 31, 243.2011566162109
0, 0, 32, 263.1900939941406
0, 0, 33, 260.1600341796875
0, 0, 34, 287.8779296875
0, 0, 35, 267.4713745117188
0, 0, 36, 246.9557342529297
0, 0, 37, 252.0703582763672
0, 0, 38, 268.4366455078125
0, 0, 39, 232.6424560546875
0, 0, 40, 241.5640258789062
0, 0, 41, 265.8883972167969
0, 0, 42, 228.5862274169922
0, 0, 43, 260.6436462402344
0, 0, 44, 254.1242370605469
0, 0, 45, 252.2601013183594
0, 0, 46, 243.6720733642578
0, 0, 47, 253.0758056640625
0, 0, 48, 267.6490478515625
0, 0, 49, 273.9164428710938
0, 0, 50, 251.1790008544922
0, 0, 51, 253.0310211181641
0, 0, 52, 273.3974914550781
0, 0, 53, 290.6670532226562
0, 0, 54, 243.1893005371094
0, 0, 55, 239.2681732177734
0, 0, 56, 276.552734375
0, 0, 57, 263.8415222167969
0, 0, 58, 245.3141021728516
0, 0, 59, 271.6152954101562
0, 0, 60, 236.1181793212891
0, 0, 61, 244.6302032470703
0, 0, 62, 258.5465698242188
0, 0, 63, 266.75244140625
0, 0, 64, 254.3718109130859
0, 0, 65, 262.6163024902344
0, 0, 66, 277.2418518066406
0, 0, 67, 248.223388671875
0, 0, 68, 257.703857421875
0, 0, 69, 260.809814453125
0, 0, 70, 273.1855163574219
0, 0, 71, 237.7292633056641
0, 0, 72, 248.9606781005859
0, 0, 73, 258.3943176269531
0, 0, 74, 252.8101501464844
0, 0, 75, 241.7175750732422
0, 0, 76, 226.8024444580078
0, 0, 77, 260.3121948242188
0, 0, 78, 257.1140747070312
0, 0, 79, 276.6024780273438
0, 0, 80, 218.4080352783203
0, 0, 81, 267.6629333496094
0, 0, 82, 256.835693359375
0, 0, 83, 244.0384674072266
0, 0, 84, 270.3553161621094
0, 0, 85, 231.13134765625
0, 0, 86, 252.3368682861328
0, 0, 87, 252.2394256591797
0, 0, 88, 259.8278503417969
0, 0, 89, 283.7032775878906
0, 0, 90, 244.9521636962891
0, 0, 91, 281.241455078125
0, 0, 92, 254.38427734375
0, 0, 93, 250.9625854492188
0, 0, 94, 248.2868347167969
0, 0, 95, 247.3967437744141
0, 0, 96, 275.1870727539062
0, 0, 97, 272.8975524902344
0, 0, 98, 272.8051147460938
0, 0, 99, 258.3097839355469
0, 0, 100, 258.5033874511719
0, 0, 101, 226.9774932861328
0, 0, 102, 234.3977355957031
0, 0, 103, 269.7386474609375
0, 0, 104, 253.5376281738281
0, 0, 105, 251.3232269287109
0, 0, 106, 244.9813842773438
0, 0, 107, 151.4983367919922
0, 0, 108, 37.59252166748047
0, 0, 109, 11.50325489044189
0, 0, 110, 14.12238311767578
0, 0, 111, 9.092641830444336
0, 0, 112, 6.14271354675293
0, 0, 113, 5.441543579101562
0, 0, 114, 7.374457359313965
0, 0, 115, 6.067736148834229
0, 0, 116, 7.127171516418457
0, 0, 117, 5.572298049926758
0, 0, 118, 7.546983242034912
0, 0, 119, 4.693777561187744
0, 0, 120, 2.519853353500366
0, 0, 121, 3.944262266159058
0, 0, 122, 5.052536010742188
0, 0, 123, 4.42353630065918
0, 0, 124, 5.935629367828369
0, 0, 125, 3.883298873901367
0, 0, 126, 5.878828048706055
0, 0, 127, 4.195101261138916
0, 1, 0, 6.853169918060303
0, 1, 1, 4.04680871963501
0, 1, 2, 5.476948261260986
0, 1, 3, 2.953300476074219
0, 1, 4, 4.088229656219482
0, 1, 5, 3.238189697265625
0, 1, 6, 4.873648166656494
0, 1, 7, 3.575947999954224
0, 1, 8, 6.736800193786621
0, 1, 9, 5.287508964538574
0, 1, 10, 8.589834213256836
0, 1, 11, 11.29318809509277
0, 1, 12, 7.900185585021973
0, 1, 13, 8.361984252929688
0, 1, 14, 6.899258613586426
0, 1, 15, 6.99822998046875
0, 1, 16, 13.22499084472656
0, 1, 17, 10.36152267456055
0, 1, 18, 19.40184783935547
0, 1, 19, 65.06752014160156
0, 1, 20, 200.0749206542969
0, 1, 21, 254.6580963134766
0, 1, 22, 296.2453918457031
0, 1, 23, 282.8306579589844
0, 1, 24, 275.041015625
0, 1, 25, 288.3837890625
0, 1, 26, 269.4346618652344
0, 1, 27, 308.5160522460938
0, 1, 28, 298.7146301269531
0, 1, 29, 295.2814025878906
0, 1, 30, 281.7980346679688
0, 1, 31, 290.7405700683594
0, 1, 32, 290.2482299804688
0, 1, 33, 294.9673156738281
0, 1, 34, 292.5788269042969
0, 1, 35, 277.6050109863281
0, 1, 36, 306.2161560058594
0, 1, 37, 295.7595825195312
0, 1, 38, 280.6057739257812
0, 1, 39, 296.8534240722656
0, 1, 40, 266.1561279296875
0, 1, 41, 285.6773071289062
0, 1, 42, 289.0380249023438
0, 1, 43, 330.9983825683594
0, 1, 44, 279.6232299804688
0, 1, 45, 293.6830444335938
0, 1, 46, 259.5742492675781
0, 1, 47, 310.5807800292969
0, 1, 48, 283.4803466796875
0, 1, 49, 302.3348388671875
0, 1, 50, 263.7845153808594
0, 1, 51, 273.7579345703125
0, 1, 52, 295.0057067871094
0, 1, 53, 304.5946960449219
0, 1, 54, 274.1582336425781
0, 1, 55, 292.5513305664062
0, 1, 56, 279.0746459960938
0, 1, 57, 298.3634033203125
0, 1, 58, 310.5945434570312
0, 1, 59, 292.7974548339844
0, 1, 60, 296.5485534667969
0, 1, 61, 275.1567687988281
0, 1, 62, 307.9700012207031
0, 1, 63, 286.7523803710938
0, 1, 64, 288.8798522949219
0, 1, 65, 294.284423828125
0, 1, 66, 294.4849548339844
0, 1, 67, 293.2649841308594
0, 1, 68, 278.4911193847656
0, 1, 69, 280.8774719238281
0, 1, 70, 270.8626708984375
0, 1, 71, 272.3636779785156
0, 1, 72, 286.7183837890625
0, 1, 73, 305.65283203125
0, 1, 74, 305.4014892578125
0, 1, 75, 292.693359375
0, 1, 76, 285.9695434570312
0, 1, 77, 291.6589660644531
0, 1, 78, 298.2626037597656
0, 1, 79, 300.7998962402344
0, 1, 80, 293.9089050292969
0, 1, 81, 299.6343994140625
0, 1, 82, 286.1206665039062
0, 1, 83, 333.0025939941406
0, 1, 84, 308.7399597167969
0, 1, 85, 253.8483734130859
0, 1, 86, 294.91455078125
0, 1, 87, 293.2173461914062
0, 1, 88, 297.0489807128906
0, 1, 89, 289.0103149414062
0, 1, 90, 269.3103332519531
0, 1, 91, 317.3019714355469
0, 1, 92, 293.4812622070312
0, 1, 93, 287.3354797363281
0, 1, 94, 304.7019958496094
0, 1, 95, 284.2112731933594
0, 1, 96, 282.7872009277344
0, 1, 97, 301.5130615234375
0, 1, 98, 278.674560546875
0, 1, 99, 265.2571105957031
0, 1, 100, 278.006591796875
0, 1, 101, 282.0348510742188
0, 1, 102, 277.5873718261719
0, 1, 103, 281.9442749023438
0, 1, 104, 307.0216979980469
0, 1, 105, 296.6851501464844
0, 1, 106, 261.0670166015625
0, 1, 107, 191.0869750976562
0, 1, 108, 80.38584136962891
0, 1, 109, 23.5216007232666
0, 1, 110, 10.71393203735352
0, 1, 111, 7.758675098419189
0, 1, 112, 10.74072742462158
0, 1, 113, 6.367644786834717
0, 1, 114, 6.102960586547852
0, 1, 115, 6.923771381378174
0, 1, 116, 9.954180717468262
0, 1, 117, 5.526285171508789
0, 1, 118, 4.941642761230469
0, 1, 119, 5.041390419006348
0, 1, 120, 4.751304149627686
0, 1, 121, 7.590653896331787
0, 1, 122, 2.407740116119385
0, 1, 123, 3.007674217224121
0, 1, 124, 10.1445369720459
0, 1, 125, 4.053291797637939
0, 1, 126, 4.378439426422119
0, 1, 127, 2.613582849502563
0, 2, 0, 4.971097946166992
0, 2, 1, 4.015609741210938
0, 2, 2, 4.675195693969727
0, 2, 3, 4.295173168182373
0, 2, 4, 3.902012586593628
0, 2, 5, 1.536179304122925
0, 2, 6, 1.881954908370972
0, 2, 7, 4.153728485107422
0, 2, 8, 5.367330074310303
0, 2, 9, 6.581273078918457
0, 2, 10, 7.765295028686523
0, 2, 11, 6.738075733184814
0, 2, 12, 5.321876049041748
0, 2, 13, 9.057333946228027
0, 2, 14, 9.132950782775879
0, 2, 15, 7.22966480255127
0, 2, 16, 9.838335037231445
0, 2, 17, 17.69753456115723
0, 2, 18, 32.20706939697266
0, 2, 19, 115.8775939941406
0, 2, 20, 246.6819763183594
0, 2, 21, 270.6399841308594
0, 2, 22, 315.4952697753906
0, 2, 23, 300.3291320800781
0, 2, 24, 287.9989624023438
0, 2, 25, 301.7689819335938
0, 2, 26, 295.2362060546875
0, 2, 27, 275.6156005859375
0, 2, 28, 275.5284729003906
0, 2, 29, 276.4301452636719
0, 2, 30, 288.7588500976562
0, 2, 31, 279.4268493652344
0, 2, 32, 294.42041015625
0, 2, 33, 282.6038818359375
0, 2, 34, 332.5356140136719
0, 2, 35, 290.3947448730469
0, 2, 36, 306.5635986328125
0, 2, 37, 314.0846557617188
0, 2, 38, 311.4873352050781
0, 2, 39, 266.7337341308594
0, 2, 40, 307.8673706054688
0, 2, 41, 292.6666259765625
0, 2, 42, 303.1141662597656
0, 2, 43, 311.9340515136719
0, 2, 44, 312.74072265625
0, 2, 45, 326.7353820800781
0, 2, 46, 287.0931701660156
0, 2, 47, 302.5350341796875
0, 2, 48, 284.3847351074219
0, 2, 49, 280.5429382324219
0, 2, 50, 293.5486450195312
0, 2, 51, 282.5780029296875
0, 2, 52, 270.9843444824219
0, 2, 53, 287.7970275878906
0, 2, 54, 280.0243225097656
0, 2, 55, 275.0020751953125
0, 2, 56, 302.476318359375
0, 2, 57, 291.8425903320312
0, 2, 58, 304.0816040039062
0, 2, 59, 288.6794738769531
0, 2, 60, 318.3762512207031
0, 2, 61, 301.2255859375
0, 2, 62, 313.3671569824219
0, 2, 63, 303.6488342285156
0, 2, 64, 297.6254272460938
0, 2, 65, 313.9234924316406
0, 2, 66, 278.4132995605469
0, 2, 67, 291.5087585449219
0, 2, 68, 297.4221801757812
0, 2, 69, 312.9578857421875
0, 2, 70, 334.775634765625
0, 2, 71, 282.8639526367188
0, 2, 72, 303.5928649902344
0, 2, 73, 311.7328796386719
0, 2, 74, 287.0867004394531
0, 2, 75, 302.8396606445312
0, 2, 76, 288.4651794433594
0, 2, 77, 299.5103454589844
0, 2, 78, 314.4199523925781
0, 2, 79, 308.3906860351562
0, 2, 80, 296.8944702148438
0, 2, 81, 284.7867126464844
0, 2, 82, 317.753173828125
0, 2, 83, 312.3101501464844
0, 2, 84, 288.7526550292969
0, 2, 85, 280.5314636230469
0, 2, 86, 324.5808410644531
0, 2, 87, 287.1761474609375
0, 2, 88, 280.6126708984375
0, 2, 89, 298.4561157226562
0, 2, 90, 295.5223999023438
0, 2, 91, 276.2845764160156
0, 2, 92, 304.3958740234375
0, 2, 93, 316.74267578125
0, 2, 94, 291.8530578613281
0, 2, 95, 313.5023193359375
0, 2, 96, 315.0068664550781
0, 2, 97, 291.0186462402344
0, 2, 98, 292.9052734375
0, 2, 99, 276.1962280273438
0, 2, 100, 307.5458068847656
0, 2, 101, 301.1032104492188
0, 2, 102, 296.8422241210938
0, 2, 103, 291.32080078125
0, 2, 104, 292.5560913085938
0, 2, 105, 274.4774780273438
0, 2, 106, 297.5003662109375
0, 2, 107, 270.22900390625
0, 2, 108, 115.8394012451172
0, 2, 109, 32.87353897094727
0, 2, 110, 10.47572135925293
0, 2, 111, 11.33734893798828
0, 2, 112, 8.957579612731934
0, 2, 113, 10.02876758575439
0, 2, 114, 9.432624816894531
0, 2, 115, 8.337441444396973
0, 2, 116, 12.81195545196533
0, 2, 117, 8.464478492736816
0, 2, 118, 3.744191646575928
0, 2, 119, 6.406572818756104
0, 2, 120, 7.29147481918335
0, 2, 121, 1.145453214645386
0, 2, 122, 5.28132152557373
0, 2, 123, 4.52228832244873
0, 2, 124, 2.109545469284058
0, 2, 125, 5.259170055389404
0, 2, 126, 4.40357494354248
0, 2, 127, 5.664608478546143
0, 3, 0, 4.483710289001465
0, 3, 1, 2.868405103683472
0, 3, 2, 3.99413013458252
0, 3, 3, 1.441401481628418
0, 3, 4, 2.528828859329224
0, 3, 5, 6.26757287979126
0, 3, 6, 6.393426895141602
0, 3, 7, 5.746565818786621
0, 3, 8, 4.45369815826416
0, 3, 9, 6.453496932983398
0, 3, 10, 5.386552333831787
0, 3, 11, 4.703329563140869
0, 3, 12, 6.960742473602295
0, 3, 13, 14.69524383544922
0, 3, 14, 10.91116142272949
0, 3, 15, 14.96537971496582
0, 3, 16, 12.09542083740234
0, 3, 17, 20.47529983520508
0, 3, 18, 50.90233993530273
0, 3, 19, 176.7018432617188
0, 3, 20, 270.7681274414062
0, 3, 21, 271.7070617675781
0, 3, 22, 281.4089965820312
0, 3, 23, 285.9457702636719
0, 3, 24, 285.8630065917969
0, 3, 25, 269.7706909179688
0, 3, 26, 304.1230163574219
0, 3, 27, 291.4992370605469
0, 3, 28, 284.1056823730469
0, 3, 29, 338.1562194824219
0, 3, 30, 315.7433166503906
0, 3, 31, 285.2209777832031
0, 3, 32, 306.9587707519531
0, 3, 33, 314.046875
0, 3, 34, 321.9323120117188
0, 3, 35, 308.2628173828125
0, 3, 36, 269.033447265625
0, 3, 37, 316.0277404785156
0, 3, 38, 305.7389831542969
0, 3, 39, 288.0740966796875
0, 3, 40, 265.9472351074219
0, 3, 41, 301.1123962402344
0, 3, 42, 286.1672668457031
0, 3, 43, 306.6824951171875
0, 3, 44, 309.9688720703125
0, 3, 45, 290.3260498046875
0, 3, 46, 328.8262329101562
0, 3, 47, 298.8002014160156
0, 3, 48, 302.0797424316406
0, 3, 49, 275.0319213867188
0, 3, 50, 289.1460266113281
0, 3, 51, 276.1789245605469
0, 3, 52, 317.1841735839844
0, 3, 53, 288.6559143066406
0, 3, 54, 285.5456848144531
0, 3, 55, 282.5968933105469
0, 3, 56, 299.0407409667969
0, 3, 57, 286.7774963378906
0, 3, 58, 307.203125
0, 3, 59, 293.9143676757812
0, 3, 60, 297.9133911132812
0, 3, 61, 264.3576354980469
0, 3, 62, 284.4620056152344
0, 3, 63, 307.5887451171875
0, 3, 64, 317.5245971679688
0, 3, 65, 304.6687927246094
0, 3, 66, 315.3323669433594
0, 3, 67, 318.0198669433594
0, 3, 68, 280.3165893554688
0, 3, 69, 282.2388916015625
0, 3, 70, 289.1495056152344
0, 3, 71, 300.1205444335938
0, 3, 72, 269.2174072265625
0, 3, 73, 307.3789367675781
0, 3, 74, 292.5653076171875
0, 3, 75, 292.8208618164062
0, 3, 76, 306.0838012695312
0, 3, 77, 316.30908203125
0, 3, 78, 303.2877502441406
0, 3, 79, 284.1229248046875
0, 3, 80, 291.1450805664062
0, 3, 81, 310.6125183105469
0, 3, 82, 315.1157531738281
0, 3, 83, 300.6903076171875
0, 3, 84, 310.2635803222656
0, 3, 85, 293.4320068359375
0, 3, 86, 303.75048828125
0, 3, 87, 297.1805419921875
0, 3, 88, 299.5054016113281
0, 3, 89, 294.9971008300781
0, 3, 90, 276.8305358886719
0, 3, 91, 284.2373962402344
0, 3, 92, 305.8898010253906
0, 3, 93, 312.4364318847656
0, 3, 94, 298.9536437988281
0, 3, 95, 334.0556030273438
0, 3, 96, 288.9008483886719
0, 3, 97, 286.15478515625
0, 3, 98, 280.0263061523438
0, 3, 99, 261.6748046875
0, 3, 100, 284.9534912109375
0, 3, 101, 297.3228454589844
0, 3, 102, 278.2669982910156
0, 3, 103, 321.3121337890625
0, 3, 104, 309.0809020996094
0, 3, 105, 287.697998046875
0, 3, 106, 303.4844360351562
0, 3, 107, 283.4173278808594
0, 3, 108, 168.5985260009766
0, 3, 109, 56.97064208984375
0, 3, 110, 18.19827651977539
0, 3, 111, 12.29886627197266
0, 3, 112, 11.36842441558838
0, 3, 113, 5.634366512298584
0, 3, 114, 10.80189323425293
0, 3, 115, 8.101202011108398
0, 3, 116, 6.275991439819336
0, 3, 117, 6.420914173126221
0, 3, 118, 7.334014415740967
0, 3, 119, 6.042626857757568
0, 3, 120, 5.952839851379395
0, 3, 121, 1.863832235336304
0, 3, 122, 4.56422233581543
0, 3, 123, 6.950993537902832
0, 3, 124, 2.972579717636108
0, 3, 125, 7.511609077453613
0, 3, 126, 3.987800359725952
0, 3, 127, 4.825179100036621
0, 4, 0, 3.015666961669922
0, 4, 1, 6.087788105010986
0, 4, 2, 4.082687377929688
0, 4, 3, 2.047426700592041
0, 4, 4, 7.455779075622559
0, 4, 5, 9.496222496032715
0, 4, 6, 5.781857967376709
0, 4, 7, 6.753671169281006
0, 4, 8, 4.360215663909912
0, 4, 9, 6.671635627746582
0, 4, 10, 5.692647933959961
0, 4, 11, 8.26264476776123
0, 4, 12, 4.936912536621094
0, 4, 13, 7.818230628967285
0, 4, 14, 11.99924945831299
0, 4, 15, 8.932596206665039
0, 4, 16, 14.7194709777832
0, 4, 17, 18.04416656494141
0, 4, 18, 95.98258972167969
0, 4, 19, 222.7323455810547
0, 4, 20, 284.4734802246094
0, 4, 21, 272.0953063964844
0, 4, 22, 305.0335083007812
0, 4, 23, 269.6281127929688
0, 4, 24, 290.0895385742188
0, 4, 25, 272.4276733398438
0, 4, 26, 294.5034484863281
0, 4, 27, 285.2372436523438
0, 4, 28, 305.4862670898438
0, 4, 29, 323.2218933105469
0, 4, 30, 308.6849975585938
0, 4, 31, 308.8699951171875
0, 4, 32, 282.0397644042969
0, 4, 33, 301.6948547363281
0, 4, 34, 298.4028015136719
0, 4, 35, 311.8572692871094
0, 4, 36, 294.0525817871094
0, 4, 37, 287.7767333984375
0, 4, 38, 298.0774536132812
0, 4, 39, 292.8874816894531
0, 4, 40, 302.1672668457031
0, 4, 41, 310.7645568847656
0, 4, 42, 334.1391906738281
0, 4, 43, 298.6281127929688
0, 4, 44, 322.2886962890625
0, 4, 45, 323.3803405761719
0, 4, 46, 304.0787353515625
0, 4, 47, 292.2432250976562
0, 4, 48, 295.9969177246094
0, 4, 49, 279.1504211425781
0, 4, 50, 296.7576599121094
0, 4, 51, 316.6023559570312
0, 4, 52, 327.3489990234375
0, 4, 53, 302.8883361816406
0, 4, 54, 289.6955261230469
0, 4, 55, 318.22998046875
0, 4, 56, 287.7754821777344
0, 4, 57, 311.6918029785156
0, 4, 58, 295.9957885742188
0, 4, 59, 309.3357543945312
0, 4, 60, 301.0989074707031
0, 4, 61, 315.7664794921875
0, 4, 62, 308.81494140625
0, 4, 63, 299.2248840332031
0, 4, 64, 328.6749572753906
0, 4, 65, 314.6186828613281
0, 4, 66, 295.4742126464844
0, 4, 67, 286.7253723144531
0, 4, 68, 315.5095825195312
0, 4, 69, 275.3001708984375
0, 4, 70, 301.3740539550781
0, 4, 71, 320.7879943847656
0, 4, 72, 332.8790283203125
0, 4, 73, 299.0219116210938
0, 4, 74, 292.5857238769531
0, 4, 75, 289.0275573730469
0, 4, 76, 276.5066223144531
0, 4, 77, 278.4786682128906
0, 4, 78, 310.0237731933594
0, 4, 79, 319.7662353515625
0, 4, 80, 316.6558532714844
0, 4, 81, 310.9230346679688
0, 4, 82, 296.894775390625
0, 4, 83, 301.3340148925781
0, 4, 84, 291.9166564941406
0, 4, 85, 293.6624450683594
0, 4, 86, 298.9461364746094
0, 4, 87, 284.8193054199219
0, 4, 88, 305.4404296875
0, 4, 89, 295.208984375
0, 4, 90, 332.4178161621094
0, 4, 91, 304.0710144042969
0, 4, 92, 288.7440185546875
0, 4, 93, 296.1424255371094
0, 4, 94, 291.5134582519531
0, 4, 95, 289.8882141113281
0, 4, 96, 322.9931640625
0, 4, 97, 273.0841979980469
0, 4, 98, 326.8924865722656
0, 4, 99, 313.9767761230469
0, 4, 100, 300.1798706054688
0, 4, 101, 257.2630004882812
0, 4, 102, 296.4012145996094
0, 4, 103, 316.7302856445312
0, 4, 104, 281.3601379394531
0, 4, 105, 309.8276062011719
0, 4, 106, 286.9962463378906
0, 4, 107, 294.177490234375
0, 4, 108, 227.7044525146484
0, 4, 109, 81.48396301269531
0, 4, 110, 19.84228515625
0, 4, 111, 13.41979694366455
0, 4, 112, 8.81482982635498
0, 4, 113, 9.294743537902832
0, 4, 114, 7.913369178771973
0, 4, 115, 8.536001205444336
0, 4, 116, 8.409296035766602
0, 4, 117, 8.286722183227539
0, 4, 118, 10.62329006195068
0, 4, 119, 10.05566120147705
0, 4, 120, 6.322219848632812
0, 4, 121, 3.830806016921997
0, 4, 122, 4.774093627929688
0, 4, 123, 5.679564476013184
0, 4, 124, 6.316665649414062
0, 4, 125, 10.76408195495605
0, 4, 126, 5.810839176177979
0, 4, 127, 3.363083362579346
0, 5, 0, 3.662078857421875
0, 5, 1, 2.754726648330688
0, 5, 2, 5.293975353240967
0, 5, 3, 4.785204887390137
0, 5, 4, 4.17985725402832
0, 5, 5, 7.281697273254395
0, 5, 6, 6.490074157714844
0, 5, 7, 6.178511619567871
0, 5, 8, 8.193278312683105
0, 5, 9, 5.544754028320312
0, 5, 10, 7.978525161743164
0, 5, 11, 7.298847675323486
0, 5, 12, 6.94650411605835
0, 5, 13, 8.742415428161621
0, 5, 14, 13.27524280548096
0, 5, 15, 14.93637752532959
0, 5, 16, 13.47634410858154
0, 5, 17, 28.18135833740234
0, 5, 18, 139.6130218505859
0, 5, 19, 286.89599609375
0, 5, 20, 306.8708190917969
0, 5, 21, 317.9388122558594
0, 5, 22, 276.0331115722656
0, 5, 23, 310.9570007324219
0, 5, 24, 302.278564453125
0, 5, 25, 291.5044250488281
0, 5, 26, 296.2012329101562
0, 5, 27, 322.2947692871094
0, 5, 28, 303.4321594238281
0, 5, 29, 297.2278137207031
0, 5, 30, 323.4812316894531
0, 5, 31, 286.5956115722656
0, 5, 32, 302.2594909667969
0, 5, 33, 303.4983520507812
0, 5, 34, 297.9023132324219
0, 5, 35, 308.6069946289062
0, 5, 36, 269.4754333496094
0, 5, 37, 283.1782836914062
0, 5, 38, 293.1026611328125
0, 5, 39, 312.5559692382812
0, 5, 40, 308.2959289550781
0, 5, 41, 272.6080932617188
0, 5, 42, 306.5313415527344
0, 5, 43, 313.8848266601562
0, 5, 44, 292.2553100585938
0, 5, 45, 301.4725952148438
0, 5, 46, 264.0115661621094
0, 5, 47, 279.3304748535156
0, 5, 48, 292.9234313964844
0, 5, 49, 286.9096374511719
0, 5, 50, 295.17578125
0, 5, 51, 280.3313598632812
0, 5, 52, 269.0180969238281
0, 5, 53, 282.8682556152344
0, 5, 54, 292.5300903320312
0, 5, 55, 345.3628540039062
0, 5, 56, 304.6921081542969
0, 5, 57, 307.123046875
0, 5, 58, 313.7026977539062
0, 5, 59, 303.6749877929688
0, 5, 60, 308.8084106445312
0, 5, 61, 281.30712890625
0, 5, 62, 327.020751953125
0, 5, 63, 291.373291015625
0, 5, 64, 325.0501708984375
0, 5, 65, 308.1526184082031
0, 5, 66, 330.2057800292969
0, 5, 67, 311.1922607421875
0, 5, 68, 308.906494140625
0, 5, 69, 310.5370178222656
0, 5, 70, 300.5712890625
0, 5, 71, 272.8907470703125
0, 5, 72, 309.0429382324219
0, 5, 73, 302.3544311523438
0, 5, 74, 295.6485900878906
0, 5, 75, 293.0552673339844
0, 5, 76, 287.412109375
0, 5, 77, 300.5580444335938
0, 5, 78, 315.5873413085938
0, 5, 79, 306.8809204101562
0, 5, 80, 297.3190307617188
0, 5, 81, 326.1712036132812
0, 5, 82, 325.174072265625
0, 5, 83, 279.8701171875
0, 5, 84, 302.850830078125
0, 5, 85, 271.7617797851562
0, 5, 86, 324.3208618164062
0, 5, 87, 285.7323913574219
0, 5, 88, 315.5599975585938
0, 5, 89, 306.5473937988281
0, 5, 90, 315.3113098144531
0, 5, 91, 313.1335144042969
0, 5, 92, 295.1964111328125
0, 5, 93, 323.0485229492188
0, 5, 94, 310.8235778808594
0, 5, 95, 295.7278747558594
0, 5, 96, 298.0440979003906
0, 5, 97, 294.5371398925781
0, 5, 98, 318.1816711425781
0, 5, 99, 303.7027282714844
0, 5, 100, 289.7818603515625
0, 5, 101, 304.9506225585938
0, 5, 102, 293.2389221191406
0, 5, 103, 313.6098327636719
0, 5, 104, 302.1655578613281
0, 5, 105, 292.0077819824219
0, 5, 106, 282.1333618164062
0, 5, 107, 294.9353637695312
0, 5, 108, 265.2391967773438
0, 5, 109, 155.5182189941406
0, 5, 110, 42.73782730102539
0, 5, 111, 21.05876350402832
0, 5, 112, 16.69145011901855
0, 5, 113, 16.39875221252441
0, 5, 114, 13.83746337890625
0, 5, 115, 7.561455726623535
0, 5, 116, 9.816120147705078
0, 5, 117, 7.197626113891602
0, 5, 118, 13.35336589813232
0, 5, 119, 2.90034031867981
0, 5, 120, 7.212071895599365
0, 5, 121, 6.83582878112793
0, 5, 122, 8.523581504821777
0, 5, 123, 6.085436820983887
0, 5, 124, 6.086999416351318
0, 5, 125, 3.112036228179932
0, 5, 126, 6.494495391845703
0, 5, 127, 3.835267066955566
0, 6, 0, 6.038477897644043
0, 6, 1, 2.764587640762329
0, 6, 2, 5.276342868804932
0, 6, 3, 5.544086933135986
0, 6, 4, 3.341877222061157
0, 6, 5, 5.030398845672607
0, 6, 6, 6.58263635635376
0, 6, 7, 6.614694118499756
0, 6, 8, 8.321860313415527
0, 6, 9, 5.04611873626709
0, 6, 10, 7.644343376159668
0, 6, 11, 10.2549467086792
0, 6, 12, 8.265973091125488
0, 6, 13, 12.11469173431396
0, 6, 14, 12.06481266021729
0, 6, 15, 17.88461685180664
0, 6, 16, 31.51834297180176
0, 6, 17, 55.55222702026367
0, 6, 18, 173.5032501220703
0, 6, 19, 276.196533203125
0, 6, 20, 290.367431640625
0, 6, 21, 313.2121887207031
0, 6, 22, 320.1589965820312
0, 6, 23, 306.7897338867188
0, 6, 24, 315.0932006835938
0, 6, 25, 315.2806396484375
0, 6, 26, 319.662353515625
0, 6, 27, 331.5758972167969
0, 6, 28, 296.3195190429688
0, 6, 29, 330.4823913574219
0, 6, 30, 281.90673828125
0, 6, 31, 286.0494079589844
0, 6, 32, 339.2360534667969
0, 6, 33, 299.2972106933594
0, 6, 34, 341.2045593261719
0, 6, 35, 319.8285522460938
0, 6, 36, 272.9341125488281
0, 6, 37, 290.5873107910156
0, 6, 38, 312.6750183105469
0, 6, 39, 298.5772399902344
0, 6, 40, 282.8735656738281
0, 6, 41, 295.9327392578125
0, 6, 42, 303.3145751953125
0, 6, 43, 289.6252136230469
0, 6, 44, 279.3198547363281
0, 6, 45, 320.706298828125
0, 6, 46, 300.3511047363281
0, 6, 47, 332.3694152832031
0, 6, 48, 294.3721008300781
0, 6, 49, 312.2564697265625
0, 6, 50, 328.7063293457031
0, 6, 51, 310.3890991210938
0, 6, 52, 322.8655090332031
0, 6, 53, 327.3482055664062
0, 6, 54, 303.2598266601562
0, 6, 55, 305.2755432128906
0, 6, 56, 294.4494323730469
0, 6, 57, 311.9832458496094
0, 6, 58, 261.8818054199219
0, 6, 59, 301.4823913574219
0, 6, 60, 314.2387390136719
0, 6, 61, 271.6074829101562
0, 6, 62, 339.7231750488281
0, 6, 63, 322.5796508789062
0, 6, 64, 288.9729309082031
0, 6, 65, 285.0199890136719
0, 6, 66, 303.8511352539062
0, 6, 67, 310.6495971679688
0, 6, 68, 292.5630798339844
0, 6, 69, 279.3317565917969
0, 6, 70, 273.4098510742188
0, 6, 71, 289.9172973632812
0, 6, 72, 311.3619384765625
0, 6, 73, 292.0668029785156
0, 6, 74, 329.5581359863281
0, 6, 75, 344.9781494140625
0, 6, 76, 299.4351196289062
0, 6, 77, 288.0724792480469
0, 6, 78, 279.6101379394531
0, 6, 79, 292.7266235351562
0, 6, 80, 298.3414001464844
0, 6, 81, 315.1221313476562
0, 6, 82, 318.6121215820312
0, 6, 83, 320.8827209472656
0, 6, 84, 295.0354919433594
0, 6, 85, 301.556640625
0, 6, 86, 331.0502319335938
0, 6, 87, 291.3699645996094
0, 6, 88, 306.30517578125
0, 6, 89, 306.5020751953125
0, 6, 90, 299.9828491210938
0, 6, 91, 312.6453857421875
0, 6, 92, 285.1564025878906
0, 6, 93, 294.5013427734375
0, 6, 94, 272.478271484375
0, 6, 95, 301.5444946289062
0, 6, 96, 348.3562927246094
0, 6, 97, 307.8507995605469
0, 6, 98, 300.9661254882812
0, 6, 99, 272.8840942382812
0, 6, 100, 309.0925598144531
0, 6, 101, 292.2378234863281
0, 6, 102, 306.3966979980469
0, 6, 103, 307.5887756347656
0, 6, 104, 294.6185302734375
0, 6, 105, 300.5465698242188
0, 6, 106, 308.9090576171875
0, 6, 107, 305.4866638183594
0, 6, 108, 265.8847961425781
0, 6, 109, 185.958740234375
0, 6, 110, 54.74526214599609
0, 6, 111, 22.91497039794922
0, 6, 112, 14.69699859619141
0, 6, 113, 10.50852870941162
0, 6, 114, 13.31231498718262
0, 6, 115, 12.94562149047852
0, 6, 116, 11.65829277038574
0, 6, 117, 7.608423709869385
0, 6, 118, 12.1481237411499
0, 6, 119, 7.701307773590088
0, 6, 120, 4.65307092666626
0, 6, 121, 6.117696285247803
0, 6, 122, 9.356928825378418
0, 6, 123, 5.415711879730225
0, 6, 124, 7.571066379547119
0, 6, 125, 6.958845138549805
0, 6, 126, 4.503194332122803
0, 6, 127, 6.749975204467773
0, 7, 0, 7.024409770965576
0, 7, 1, 4.325309753417969
0, 7, 2, 5.94639253616333
0, 7, 3, 3.409806728363037
0, 7, 4, 4.340998649597168
0, 7, 5, 7.543673038482666
0, 7, 6, 5.338890075683594
0, 7, 7, 5.903135776519775
0, 7, 8, 5.175260066986084
0, 7, 9, 5.938231468200684
0, 7, 10, 8.899399757385254
0, 7, 11, 10.54392719268799
0, 7, 12, 10.39453792572021
0, 7, 13, 12.63952922821045
0, 7, 14, 9.486733436584473
0, 7, 15, 17.01041030883789
0, 7, 16, 26.14912605285645
0, 7, 17, 99.12216186523438
0, 7, 18, 218.1120758056641
0, 7, 19, 291.6561584472656
0, 7, 20, 297.7995300292969
0, 7, 21, 277.9519958496094
0, 7, 22, 299.2294006347656
0, 7, 23, 288.6244812011719
0, 7, 24, 314.9062805175781
0, 7, 25, 324.0173645019531
0, 7, 26, 277.1285400390625
0, 7, 27, 297.7715148925781
0, 7, 28, 326.6575622558594
0, 7, 29, 318.0596008300781
0, 7, 30, 300.1402587890625
0, 7, 31, 277.9953308105469
0, 7, 32, 305.3529052734375
0, 7, 33, 265.6195983886719
0, 7, 34, 296.4878845214844
0, 7, 35, 319.480224609375
0, 7, 36, 330.8769226074219
0, 7, 37, 322.8565368652344
0, 7, 38, 295.5025024414062
0, 7, 39, 306.0346374511719
0, 7, 40, 291.2179260253906
0, 7, 41, 270.2744445800781
0, 7, 42, 301.0662841796875
0, 7, 43, 277.2161865234375
0, 7, 44, 304.3623962402344
0, 7, 45, 295.6514892578125
0, 7, 46, 285.9869079589844
0, 7, 47, 331.8364868164062
0, 7, 48, 285.8231201171875
0, 7, 49, 300.3433837890625
0, 7, 50, 321.6971130371094
0, 7, 51, 298.2842712402344
0, 7, 52, 326.7384033203125
0, 7, 53, 311.2833251953125
0, 7, 54, 324.2437744140625
0, 7, 55, 306.2983093261719
0, 7, 56, 280.6933898925781
0, 7, 57, 283.9576110839844
0, 7, 58, 296.5118713378906
0, 7, 59, 292.4573364257812
0, 7, 60, 321.8696899414062
0, 7, 61, 277.6787414550781
0, 7, 62, 296.4032287597656
0, 7, 63, 293.3463439941406
0, 7, 64, 305.8819274902344
0, 7, 65, 331.2014465332031
0, 7, 66, 319.0922546386719
0, 7, 67, 301.3965148925781
0, 7, 68, 280.6878967285156
0, 7, 69, 292.8840637207031
0, 7, 70, 301.5045471191406
0, 7, 71, 309.0869140625
0, 7, 72, 285.3213500976562
0, 7, 73, 296.0513610839844
0, 7, 74, 343.7672119140625
0, 7, 75, 318.0278015136719
0, 7, 76, 323.0445556640625
0, 7, 77, 279.6182250976562
0, 7, 78, 302.0923767089844
0, 7, 79, 298.0492553710938
0, 7, 80, 311.2359619140625
0, 7, 81, 319.9855651855469
0, 7, 82, 329.6663208007812
0, 7, 83, 318.9673767089844
0, 7, 84, 309.2381286621094
0, 7, 85, 272.8773193359375
0, 7, 86, 312.4206848144531
0, 7, 87, 309.0484008789062
0, 7, 88, 307.7675170898438
0, 7, 89, 295.6116638183594
0, 7, 90, 309.7178039550781
0, 7, 91, 315.252197265625
0, 7, 92, 288.0846252441406
0, 7, 93, 307.9017639160156
0, 7, 94, 275.3883056640625
0, 7, 95, 297.3554382324219
0, 7, 96, 331.79541015625
0, 7, 97, 294.5387878417969
0, 7, 98, 293.6471862792969
0, 7, 99, 311.1416015625
0, 7, 100, 281.335693359375
0, 7, 101, 274.8773498535156
0, 7, 102, 289.3610229492188
0, 7, 103, 293.7230529785156
0, 7, 104, 274.9879150390625
0, 7, 105, 306.5073852539062
0, 7, 106, 317.0899963378906
0, 7, 107, 296.4873352050781
0, 7, 108, 272.3363037109375
0, 7, 109, 236.632080078125
0, 7, 110, 95.29141235351562
0, 7, 111, 24.44057083129883
0, 7, 112, 14.15233898162842
0, 7, 113, 13.9694938659668
0, 7, 114, 13.06252479553223
0, 7, 115, 10.46695327758789
0, 7, 116, 8.334329605102539
0, 7, 117, 7.197514057159424
0, 7, 118, 7.532827854156494
0, 7, 119, 8.502470016479492
0, 7, 120, 5.787777423858643
0, 7, 121, 4.827351093292236
0, 7, 122, 6.501583099365234
0, 7, 123, 4.484946727752686
0, 7, 124, 4.499338150024414
0, 7, 125, 5.069397449493408
0, 7, 126, 9.47988224029541
0, 7, 127, 1.181868076324463
0, 8, 0, 6.720100879669189
0, 8, 1, 4.58457088470459
0, 8, 2, 3.896600723266602
0, 8, 3, 6.04463529586792
0, 8, 4, 3.243665456771851
0, 8, 5, 5.287212371826172
0, 8, 6, 6.167022228240967
0, 8, 7, 6.309966087341309
0, 8, 8, 9.07536506652832
0, 8, 9, 5.549328327178955
0, 8, 10, 7.499538898468018
0, 8, 11, 13.22524166107178
0, 8, 12, 14.28074264526367
0, 8, 13, 16.85409355163574
0, 8, 14, 13.19095516204834
0, 8, 15, 17.81605911254883
0, 8, 16, 32.60884475708008
0, 8, 17, 131.1985778808594
0, 8, 18, 243.1375122070312
0, 8, 19, 294.5841979980469
0, 8, 20, 285.6460876464844
0, 8, 21, 306.5560913085938
0, 8, 22, 295.0801696777344
0, 8, 23, 276.8213195800781
0, 8, 24, 269.0668334960938
0, 8, 25, 276.4127807617188
0, 8, 26, 305.8264770507812
0, 8, 27, 305.9176025390625
0, 8, 28, 302.408447265625
0, 8, 29, 320.5846557617188
0, 8, 30, 318.1359558105469
0, 8, 31, 303.5489807128906
0, 8, 32, 280.4321899414062
0, 8, 33, 292.4782104492188
0, 8, 34, 288.4049377441406
0, 8, 35, 280.1833801269531
0, 8, 36, 315.4480285644531
0, 8, 37, 341.0068969726562
0, 8, 38, 331.45166015625
0, 8, 39, 281.0923461914062
