# TOPAS Version: 3.1.p3
# Parameter File: batch_inserts_286.txt
# Results for scorer Readout_Adipose
# Scored in component: MyBox
# X in 1 bin  of 0.75 cm
# Y in 512 bins of 0.0783984 cm
# Z in 128 bins of 0.078125 cm
# EnergyDeposit ( MeV ) : Sum   
0, 0, 0, 2.785554647445679
0, 0, 1, 1.398800015449524
0, 0, 2, 2.636205911636353
0, 0, 3, 1.461055040359497
0, 0, 4, 2.845143556594849
0, 0, 5, 1.935327291488647
0, 0, 6, 8.661033630371094
0, 0, 7, 10.12515830993652
0, 0, 8, 2.221375703811646
0, 0, 9, 3.317479848861694
0, 0, 10, 6.606774806976318
0, 0, 11, 4.319977283477783
0, 0, 12, 5.552882671356201
0, 0, 13, 8.552135467529297
0, 0, 14, 6.589913368225098
0, 0, 15, 8.356709480285645
0, 0, 16, 8.031576156616211
0, 0, 17, 9.36632251739502
0, 0, 18, 14.18857669830322
0, 0, 19, 44.79973602294922
0, 0, 20, 142.3482818603516
0, 0, 21, 224.6847534179688
0, 0, 22, 252.5667572021484
0, 0, 23, 257.0675964355469
0, 0, 24, 251.3116302490234
0, 0, 25, 260.6837158203125
0, 0, 26, 234.89453125
0, 0, 27, 236.6899108886719
0, 0, 28, 271.4603576660156
0, 0, 29, 253.1980133056641
0, 0, 30, 231.8741607666016
0, 0, 31, 243.8970642089844
0, 0, 32, 263.857666015625
0, 0, 33, 260.2001342773438
0, 0, 34, 288.3272705078125
0, 0, 35, 266.0777282714844
0, 0, 36, 246.5639190673828
0, 0, 37, 253.0934753417969
0, 0, 38, 269.4585571289062
0, 0, 39, 229.5141906738281
0, 0, 40, 241.5126190185547
0, 0, 41, 266.0761108398438
0, 0, 42, 229.4835510253906
0, 0, 43, 260.5865783691406
0, 0, 44, 251.9873199462891
0, 0, 45, 252.8312072753906
0, 0, 46, 244.6184234619141
0, 0, 47, 253.8361511230469
0, 0, 48, 270.01318359375
0, 0, 49, 273.5911254882812
0, 0, 50, 251.018310546875
0, 0, 51, 253.4651489257812
0, 0, 52, 275.1967163085938
0, 0, 53, 292.3899536132812
0, 0, 54, 242.4999237060547
0, 0, 55, 240.05810546875
0, 0, 56, 278.3707275390625
0, 0, 57, 263.2974243164062
0, 0, 58, 247.0339050292969
0, 0, 59, 271.4520568847656
0, 0, 60, 235.6640014648438
0, 0, 61, 248.7839660644531
0, 0, 62, 256.207763671875
0, 0, 63, 268.6893310546875
0, 0, 64, 255.0510711669922
0, 0, 65, 262.6031799316406
0, 0, 66, 276.5235900878906
0, 0, 67, 247.4195861816406
0, 0, 68, 259.1239013671875
0, 0, 69, 264.7384643554688
0, 0, 70, 271.6565551757812
0, 0, 71, 239.3065643310547
0, 0, 72, 249.7323150634766
0, 0, 73, 258.8973388671875
0, 0, 74, 252.6749572753906
0, 0, 75, 242.3251190185547
0, 0, 76, 228.7057800292969
0, 0, 77, 259.5044250488281
0, 0, 78, 256.8089904785156
0, 0, 79, 280.5000305175781
0, 0, 80, 217.9241485595703
0, 0, 81, 266.2825012207031
0, 0, 82, 256.9013366699219
0, 0, 83, 246.4416198730469
0, 0, 84, 271.2000427246094
0, 0, 85, 231.1452941894531
0, 0, 86, 255.7445526123047
0, 0, 87, 251.6185607910156
0, 0, 88, 259.7963562011719
0, 0, 89, 284.7713012695312
0, 0, 90, 243.5302581787109
0, 0, 91, 281.5087890625
0, 0, 92, 253.3820495605469
0, 0, 93, 250.2590942382812
0, 0, 94, 246.4934234619141
0, 0, 95, 247.6618194580078
0, 0, 96, 275.8845825195312
0, 0, 97, 272.1733093261719
0, 0, 98, 273.8118591308594
0, 0, 99, 259.3768615722656
0, 0, 100, 259.3000183105469
0, 0, 101, 226.8843383789062
0, 0, 102, 231.4168548583984
0, 0, 103, 270.8727722167969
0, 0, 104, 253.8281860351562
0, 0, 105, 250.6681365966797
0, 0, 106, 245.0984954833984
0, 0, 107, 153.7244720458984
0, 0, 108, 39.90078735351562
0, 0, 109, 12.08643054962158
0, 0, 110, 13.18272876739502
0, 0, 111, 9.952408790588379
0, 0, 112, 6.890191555023193
0, 0, 113, 5.012556552886963
0, 0, 114, 6.469554901123047
0, 0, 115, 4.903648376464844
0, 0, 116, 6.863417625427246
0, 0, 117, 7.001547336578369
0, 0, 118, 6.698559284210205
0, 0, 119, 5.140023231506348
0, 0, 120, 3.524299144744873
0, 0, 121, 3.643273115158081
0, 0, 122, 3.273454427719116
0, 0, 123, 2.301941394805908
0, 0, 124, 5.392410755157471
0, 0, 125, 2.810556888580322
0, 0, 126, 4.988686561584473
0, 0, 127, 3.492542028427124
0, 1, 0, 7.387157917022705
0, 1, 1, 2.902067422866821
0, 1, 2, 4.996357440948486
0, 1, 3, 2.801967620849609
0, 1, 4, 2.756550312042236
0, 1, 5, 5.930372714996338
0, 1, 6, 3.010353326797485
0, 1, 7, 3.065582036972046
0, 1, 8, 9.2049560546875
0, 1, 9, 6.128740787506104
0, 1, 10, 8.487526893615723
0, 1, 11, 11.17350196838379
0, 1, 12, 7.756607055664062
0, 1, 13, 8.984509468078613
0, 1, 14, 8.824892997741699
0, 1, 15, 7.023877143859863
0, 1, 16, 13.27263736724854
0, 1, 17, 10.08194541931152
0, 1, 18, 21.5394401550293
0, 1, 19, 68.29782104492188
0, 1, 20, 197.3248748779297
0, 1, 21, 254.4518890380859
0, 1, 22, 296.1697082519531
0, 1, 23, 284.3875122070312
0, 1, 24, 278.6522827148438
0, 1, 25, 288.3012084960938
0, 1, 26, 268.1591796875
0, 1, 27, 304.5922241210938
0, 1, 28, 300.0833129882812
0, 1, 29, 294.7384033203125
0, 1, 30, 280.6499633789062
0, 1, 31, 291.2352600097656
0, 1, 32, 289.9801330566406
0, 1, 33, 296.2833557128906
0, 1, 34, 291.8161926269531
0, 1, 35, 280.7314758300781
0, 1, 36, 307.8018188476562
0, 1, 37, 296.1113891601562
0, 1, 38, 279.97119140625
0, 1, 39, 294.2105712890625
0, 1, 40, 267.0709533691406
0, 1, 41, 284.9587097167969
0, 1, 42, 289.4649963378906
0, 1, 43, 332.3032836914062
0, 1, 44, 278.8949279785156
0, 1, 45, 293.0632019042969
0, 1, 46, 260.3043518066406
0, 1, 47, 310.6393737792969
0, 1, 48, 283.0072326660156
0, 1, 49, 300.8637084960938
0, 1, 50, 263.3133239746094
0, 1, 51, 271.9764709472656
0, 1, 52, 297.4179382324219
0, 1, 53, 306.5785827636719
0, 1, 54, 274.7909851074219
0, 1, 55, 292.4526977539062
0, 1, 56, 277.957275390625
0, 1, 57, 297.4124755859375
0, 1, 58, 310.6800842285156
0, 1, 59, 293.2775573730469
0, 1, 60, 298.5369567871094
0, 1, 61, 274.4249572753906
0, 1, 62, 306.9842834472656
0, 1, 63, 286.7967529296875
0, 1, 64, 287.7854614257812
0, 1, 65, 293.9486083984375
0, 1, 66, 291.5420837402344
0, 1, 67, 293.2503662109375
0, 1, 68, 277.6839599609375
0, 1, 69, 281.4116516113281
0, 1, 70, 271.5864562988281
0, 1, 71, 273.199951171875
0, 1, 72, 285.8797302246094
0, 1, 73, 303.7348327636719
0, 1, 74, 303.6649169921875
0, 1, 75, 291.5664978027344
0, 1, 76, 284.971923828125
0, 1, 77, 289.2359313964844
0, 1, 78, 296.3996887207031
0, 1, 79, 300.9335327148438
0, 1, 80, 294.5422668457031
0, 1, 81, 299.7564697265625
0, 1, 82, 282.4528198242188
0, 1, 83, 333.4341735839844
0, 1, 84, 308.6200561523438
0, 1, 85, 254.265869140625
0, 1, 86, 294.4940490722656
0, 1, 87, 291.9064331054688
0, 1, 88, 300.7633666992188
0, 1, 89, 289.8059387207031
0, 1, 90, 271.8053283691406
0, 1, 91, 318.5884704589844
0, 1, 92, 291.9576110839844
0, 1, 93, 286.7015075683594
0, 1, 94, 304.6388549804688
0, 1, 95, 283.6932067871094
0, 1, 96, 283.9679870605469
0, 1, 97, 300.6649169921875
0, 1, 98, 277.5853881835938
0, 1, 99, 266.5521240234375
0, 1, 100, 277.6257934570312
0, 1, 101, 280.8992309570312
0, 1, 102, 279.0306396484375
0, 1, 103, 280.1005554199219
0, 1, 104, 306.9315490722656
0, 1, 105, 298.8399047851562
0, 1, 106, 264.9372253417969
0, 1, 107, 193.0863037109375
0, 1, 108, 80.34471893310547
0, 1, 109, 23.06962013244629
0, 1, 110, 10.94850444793701
0, 1, 111, 8.076432228088379
0, 1, 112, 12.09250736236572
0, 1, 113, 5.670668125152588
0, 1, 114, 6.510821342468262
0, 1, 115, 5.252852439880371
0, 1, 116, 9.254302978515625
0, 1, 117, 7.249413013458252
0, 1, 118, 4.833759307861328
0, 1, 119, 7.242650508880615
0, 1, 120, 4.105735778808594
0, 1, 121, 2.915056943893433
0, 1, 122, 3.632623434066772
0, 1, 123, 3.453918695449829
0, 1, 124, 6.34340238571167
0, 1, 125, 3.897279262542725
0, 1, 126, 3.813124179840088
0, 1, 127, 1.407549262046814
0, 2, 0, 5.082754135131836
0, 2, 1, 3.024094820022583
0, 2, 2, 5.296990871429443
0, 2, 3, 5.058437347412109
0, 2, 4, 4.565416812896729
0, 2, 5, 1.207971811294556
0, 2, 6, 2.417751789093018
0, 2, 7, 3.638701438903809
0, 2, 8, 4.948661327362061
0, 2, 9, 5.379733562469482
0, 2, 10, 8.759112358093262
0, 2, 11, 6.286105632781982
0, 2, 12, 5.874346733093262
0, 2, 13, 9.465110778808594
0, 2, 14, 9.65910530090332
0, 2, 15, 9.967761993408203
0, 2, 16, 9.88841438293457
0, 2, 17, 16.1430492401123
0, 2, 18, 30.35898590087891
0, 2, 19, 115.3517150878906
0, 2, 20, 245.9002532958984
0, 2, 21, 270.4537048339844
0, 2, 22, 314.407470703125
0, 2, 23, 300.1044006347656
0, 2, 24, 287.4562072753906
0, 2, 25, 304.2059326171875
0, 2, 26, 294.6499938964844
0, 2, 27, 275.3056945800781
0, 2, 28, 274.6707763671875
0, 2, 29, 274.53271484375
0, 2, 30, 292.5420227050781
0, 2, 31, 278.8019714355469
0, 2, 32, 294.9275207519531
0, 2, 33, 281.9756774902344
0, 2, 34, 335.3470764160156
0, 2, 35, 288.8039245605469
0, 2, 36, 304.5650634765625
0, 2, 37, 314.4307250976562
0, 2, 38, 313.807861328125
0, 2, 39, 268.4151306152344
0, 2, 40, 305.4927062988281
0, 2, 41, 296.3645324707031
0, 2, 42, 303.8453674316406
0, 2, 43, 312.8111572265625
0, 2, 44, 313.5570373535156
0, 2, 45, 324.38720703125
0, 2, 46, 286.9075622558594
0, 2, 47, 304.207275390625
0, 2, 48, 285.290283203125
0, 2, 49, 279.0615844726562
0, 2, 50, 296.015869140625
0, 2, 51, 282.4899291992188
0, 2, 52, 271.9852294921875
0, 2, 53, 289.2032470703125
0, 2, 54, 280.98974609375
0, 2, 55, 275.9895324707031
0, 2, 56, 301.5085754394531
0, 2, 57, 292.1495361328125
0, 2, 58, 301.3711853027344
0, 2, 59, 288.3887634277344
0, 2, 60, 319.9710693359375
0, 2, 61, 301.1935119628906
0, 2, 62, 312.9938659667969
0, 2, 63, 304.8306579589844
0, 2, 64, 295.7159729003906
0, 2, 65, 314.825439453125
0, 2, 66, 280.188720703125
0, 2, 67, 290.5299377441406
0, 2, 68, 296.6615600585938
0, 2, 69, 312.3759155273438
0, 2, 70, 337.0010986328125
0, 2, 71, 283.6477966308594
0, 2, 72, 303.311279296875
0, 2, 73, 310.5530700683594
0, 2, 74, 285.7024230957031
0, 2, 75, 304.0797729492188
0, 2, 76, 286.5588684082031
0, 2, 77, 302.9337768554688
0, 2, 78, 315.0661315917969
0, 2, 79, 309.5755920410156
0, 2, 80, 299.562744140625
0, 2, 81, 282.9346313476562
0, 2, 82, 318.2489318847656
0, 2, 83, 311.40625
0, 2, 84, 287.5688781738281
0, 2, 85, 279.9990539550781
0, 2, 86, 324.6155700683594
0, 2, 87, 286.7361145019531
0, 2, 88, 281.24951171875
0, 2, 89, 294.7088317871094
0, 2, 90, 297.2844848632812
0, 2, 91, 275.4079895019531
0, 2, 92, 305.3759460449219
0, 2, 93, 318.6092224121094
0, 2, 94, 293.6887817382812
0, 2, 95, 314.57421875
0, 2, 96, 314.1340026855469
0, 2, 97, 292.3619689941406
0, 2, 98, 293.65478515625
0, 2, 99, 273.7349243164062
0, 2, 100, 306.3369140625
0, 2, 101, 300.9436645507812
0, 2, 102, 296.5202331542969
0, 2, 103, 293.0312805175781
0, 2, 104, 294.3139953613281
0, 2, 105, 274.5597534179688
0, 2, 106, 297.9386291503906
0, 2, 107, 269.8806457519531
0, 2, 108, 117.7840042114258
0, 2, 109, 30.22911834716797
0, 2, 110, 9.446515083312988
0, 2, 111, 12.91743659973145
0, 2, 112, 9.038955688476562
0, 2, 113, 9.618955612182617
0, 2, 114, 9.579135894775391
0, 2, 115, 9.517613410949707
0, 2, 116, 10.16244411468506
0, 2, 117, 7.911007881164551
0, 2, 118, 5.060816287994385
0, 2, 119, 5.637564182281494
0, 2, 120, 7.123480319976807
0, 2, 121, 2.38652491569519
0, 2, 122, 4.334954738616943
0, 2, 123, 4.808392524719238
0, 2, 124, 4.092859745025635
0, 2, 125, 5.411598682403564
0, 2, 126, 2.282299280166626
0, 2, 127, 5.798007965087891
0, 3, 0, 2.439253807067871
0, 3, 1, 4.11618185043335
0, 3, 2, 4.61351490020752
0, 3, 3, 2.360283613204956
0, 3, 4, 3.261674642562866
0, 3, 5, 6.960444927215576
0, 3, 6, 6.501282215118408
0, 3, 7, 4.730075836181641
0, 3, 8, 3.987932205200195
0, 3, 9, 6.497490882873535
0, 3, 10, 6.707349300384521
0, 3, 11, 6.202980041503906
0, 3, 12, 9.313615798950195
0, 3, 13, 15.20850944519043
0, 3, 14, 12.18174839019775
0, 3, 15, 13.82884788513184
0, 3, 16, 11.57211875915527
0, 3, 17, 19.76782417297363
0, 3, 18, 53.54682159423828
0, 3, 19, 178.0930938720703
0, 3, 20, 270.4590148925781
0, 3, 21, 271.6159362792969
0, 3, 22, 283.2334899902344
0, 3, 23, 286.0820617675781
0, 3, 24, 287.3552551269531
0, 3, 25, 270.8335571289062
0, 3, 26, 304.1046142578125
0, 3, 27, 292.0227966308594
0, 3, 28, 280.5718383789062
0, 3, 29, 336.4033508300781
0, 3, 30, 315.4973754882812
0, 3, 31, 284.6923828125
0, 3, 32, 305.4462585449219
0, 3, 33, 315.6399536132812
0, 3, 34, 323.1644287109375
0, 3, 35, 307.1456604003906
0, 3, 36, 270.3377685546875
0, 3, 37, 317.0776062011719
0, 3, 38, 302.5682373046875
0, 3, 39, 285.9375610351562
0, 3, 40, 266.9647521972656
0, 3, 41, 300.8226318359375
0, 3, 42, 284.5528869628906
0, 3, 43, 308.644775390625
0, 3, 44, 312.1826782226562
0, 3, 45, 291.47509765625
0, 3, 46, 328.2451477050781
0, 3, 47, 298.8795471191406
0, 3, 48, 307.1085205078125
0, 3, 49, 276.6529846191406
0, 3, 50, 291.1897583007812
0, 3, 51, 276.110595703125
0, 3, 52, 316.1253051757812
0, 3, 53, 287.863037109375
0, 3, 54, 284.2627563476562
0, 3, 55, 283.4007568359375
0, 3, 56, 297.5545043945312
0, 3, 57, 287.9696655273438
0, 3, 58, 306.0108032226562
0, 3, 59, 296.6271057128906
0, 3, 60, 298.91650390625
0, 3, 61, 264.2414245605469
0, 3, 62, 282.6031188964844
0, 3, 63, 308.4256286621094
0, 3, 64, 317.9032287597656
0, 3, 65, 304.9127502441406
0, 3, 66, 315.3702392578125
0, 3, 67, 317.2466125488281
0, 3, 68, 282.8979187011719
0, 3, 69, 284.2528381347656
0, 3, 70, 286.14404296875
0, 3, 71, 301.451416015625
0, 3, 72, 271.5097961425781
0, 3, 73, 310.4197998046875
0, 3, 74, 292.1906433105469
0, 3, 75, 289.8814086914062
0, 3, 76, 305.9489440917969
0, 3, 77, 313.5159606933594
0, 3, 78, 305.7347717285156
0, 3, 79, 281.2740478515625
0, 3, 80, 289.1655578613281
0, 3, 81, 309.4934692382812
0, 3, 82, 314.3206787109375
0, 3, 83, 299.6806335449219
0, 3, 84, 310.3407592773438
0, 3, 85, 294.75048828125
0, 3, 86, 303.4789123535156
0, 3, 87, 299.6826477050781
0, 3, 88, 300.9951782226562
0, 3, 89, 296.2018127441406
0, 3, 90, 281.5870361328125
0, 3, 91, 283.2601318359375
0, 3, 92, 305.1553955078125
0, 3, 93, 313.4940490722656
0, 3, 94, 299.3818054199219
0, 3, 95, 335.6701965332031
0, 3, 96, 292.5046691894531
0, 3, 97, 285.7676391601562
0, 3, 98, 277.8140869140625
0, 3, 99, 263.0423278808594
0, 3, 100, 284.830810546875
0, 3, 101, 296.2521362304688
0, 3, 102, 274.5447387695312
0, 3, 103, 319.2727355957031
0, 3, 104, 308.3975219726562
0, 3, 105, 288.4306030273438
0, 3, 106, 301.4436950683594
0, 3, 107, 281.9864196777344
0, 3, 108, 168.7026824951172
0, 3, 109, 59.37857818603516
0, 3, 110, 17.29692459106445
0, 3, 111, 13.00952911376953
0, 3, 112, 11.228759765625
0, 3, 113, 8.125727653503418
0, 3, 114, 9.396417617797852
0, 3, 115, 7.403954982757568
0, 3, 116, 5.665245056152344
0, 3, 117, 6.435816764831543
0, 3, 118, 4.977333068847656
0, 3, 119, 6.006003856658936
0, 3, 120, 3.784914970397949
0, 3, 121, 2.682256460189819
0, 3, 122, 4.85137939453125
0, 3, 123, 6.737887382507324
0, 3, 124, 3.88444995880127
0, 3, 125, 5.299092292785645
0, 3, 126, 5.087706565856934
0, 3, 127, 3.246071815490723
0, 4, 0, 4.159535884857178
0, 4, 1, 4.145823955535889
0, 4, 2, 2.820913314819336
0, 4, 3, 1.558356285095215
0, 4, 4, 5.75732946395874
0, 4, 5, 8.352935791015625
0, 4, 6, 5.886839389801025
0, 4, 7, 4.503479480743408
0, 4, 8, 3.272112607955933
0, 4, 9, 4.629953861236572
0, 4, 10, 6.908016204833984
0, 4, 11, 6.209663867950439
0, 4, 12, 5.444494247436523
0, 4, 13, 8.993974685668945
0, 4, 14, 12.23415660858154
0, 4, 15, 9.38202953338623
0, 4, 16, 15.1463623046875
0, 4, 17, 18.26751136779785
0, 4, 18, 93.62629699707031
0, 4, 19, 222.4876403808594
0, 4, 20, 284.7120666503906
0, 4, 21, 272.6586303710938
0, 4, 22, 304.5828552246094
0, 4, 23, 265.3555908203125
0, 4, 24, 288.6895751953125
0, 4, 25, 274.0028686523438
0, 4, 26, 293.9613342285156
0, 4, 27, 281.9868469238281
0, 4, 28, 308.0935668945312
0, 4, 29, 323.7080993652344
0, 4, 30, 309.8504333496094
0, 4, 31, 303.1256408691406
0, 4, 32, 280.4425964355469
0, 4, 33, 295.4285888671875
0, 4, 34, 296.3472290039062
0, 4, 35, 311.7605895996094
0, 4, 36, 295.2105712890625
0, 4, 37, 286.1686401367188
0, 4, 38, 298.4662780761719
0, 4, 39, 296.9117126464844
0, 4, 40, 304.3866882324219
0, 4, 41, 311.439453125
0, 4, 42, 330.3670349121094
0, 4, 43, 294.8482055664062
0, 4, 44, 322.3950500488281
0, 4, 45, 322.8815002441406
0, 4, 46, 309.2697143554688
0, 4, 47, 292.7924499511719
0, 4, 48, 297.6275634765625
0, 4, 49, 278.4877624511719
0, 4, 50, 297.3089904785156
0, 4, 51, 317.3381652832031
0, 4, 52, 328.1396789550781
0, 4, 53, 305.0968322753906
0, 4, 54, 286.4428100585938
0, 4, 55, 316.3609008789062
0, 4, 56, 287.8036193847656
0, 4, 57, 309.5540466308594
0, 4, 58, 296.0260925292969
0, 4, 59, 311.5015869140625
0, 4, 60, 303.338134765625
0, 4, 61, 315.2048645019531
0, 4, 62, 308.3051452636719
0, 4, 63, 299.3704528808594
0, 4, 64, 330.5030517578125
0, 4, 65, 314.5954895019531
0, 4, 66, 293.6730041503906
0, 4, 67, 285.1755981445312
0, 4, 68, 312.4885864257812
0, 4, 69, 277.3633117675781
0, 4, 70, 299.4449157714844
0, 4, 71, 321.1078491210938
0, 4, 72, 333.8807067871094
0, 4, 73, 298.1701965332031
0, 4, 74, 291.1099243164062
0, 4, 75, 289.5437927246094
0, 4, 76, 274.3214416503906
0, 4, 77, 281.0491943359375
0, 4, 78, 307.4699401855469
0, 4, 79, 319.7342529296875
0, 4, 80, 314.5512084960938
0, 4, 81, 311.7491455078125
0, 4, 82, 297.6174621582031
0, 4, 83, 300.0926818847656
0, 4, 84, 292.154296875
0, 4, 85, 294.6331176757812
0, 4, 86, 301.3116760253906
0, 4, 87, 286.223876953125
0, 4, 88, 307.2044372558594
0, 4, 89, 293.3000183105469
0, 4, 90, 331.2136535644531
0, 4, 91, 303.0312194824219
0, 4, 92, 288.9345397949219
0, 4, 93, 295.9153442382812
0, 4, 94, 290.9442443847656
0, 4, 95, 290.6145935058594
0, 4, 96, 321.5023498535156
0, 4, 97, 275.1321105957031
0, 4, 98, 328.9559936523438
0, 4, 99, 312.5774536132812
0, 4, 100, 301.4124145507812
0, 4, 101, 258.0537414550781
0, 4, 102, 297.210693359375
0, 4, 103, 316.97607421875
0, 4, 104, 280.6900939941406
0, 4, 105, 309.8928527832031
0, 4, 106, 286.5518798828125
0, 4, 107, 297.0174865722656
0, 4, 108, 227.9020843505859
0, 4, 109, 80.95311737060547
0, 4, 110, 19.02492332458496
0, 4, 111, 13.89597511291504
0, 4, 112, 8.078432083129883
0, 4, 113, 8.677191734313965
0, 4, 114, 8.198927879333496
0, 4, 115, 9.533726692199707
0, 4, 116, 10.45926380157471
0, 4, 117, 11.18149185180664
0, 4, 118, 7.242471218109131
0, 4, 119, 8.541703224182129
0, 4, 120, 7.961602210998535
0, 4, 121, 5.983418464660645
0, 4, 122, 6.655200481414795
0, 4, 123, 5.538292407989502
0, 4, 124, 7.079488277435303
0, 4, 125, 10.6180591583252
0, 4, 126, 5.780261516571045
0, 4, 127, 2.714443445205688
0, 5, 0, 4.430724620819092
0, 5, 1, 4.473690032958984
0, 5, 2, 3.830113887786865
0, 5, 3, 4.684960842132568
0, 5, 4, 4.676796913146973
0, 5, 5, 5.958793640136719
0, 5, 6, 7.543235778808594
0, 5, 7, 5.972396850585938
0, 5, 8, 3.885931253433228
0, 5, 9, 4.803014755249023
0, 5, 10, 6.816122531890869
0, 5, 11, 9.035893440246582
0, 5, 12, 9.083950042724609
0, 5, 13, 5.32834529876709
0, 5, 14, 12.36150074005127
0, 5, 15, 15.84296321868896
0, 5, 16, 16.02463722229004
0, 5, 17, 27.35129928588867
0, 5, 18, 135.982421875
0, 5, 19, 287.1956176757812
0, 5, 20, 306.5853576660156
0, 5, 21, 316.7313842773438
0, 5, 22, 276.1176147460938
0, 5, 23, 314.6017761230469
0, 5, 24, 302.0057678222656
0, 5, 25, 289.6482543945312
0, 5, 26, 295.1731872558594
0, 5, 27, 323.3040771484375
0, 5, 28, 303.5595703125
0, 5, 29, 299.1294555664062
0, 5, 30, 328.1002807617188
0, 5, 31, 286.6171569824219
0, 5, 32, 301.8108215332031
0, 5, 33, 302.8661804199219
0, 5, 34, 298.87451171875
0, 5, 35, 310.0208740234375
0, 5, 36, 267.8772888183594
0, 5, 37, 281.3699340820312
0, 5, 38, 294.9157104492188
0, 5, 39, 311.5032958984375
0, 5, 40, 308.5264282226562
0, 5, 41, 275.7680053710938
0, 5, 42, 303.7658996582031
0, 5, 43, 316.64697265625
0, 5, 44, 291.9747009277344
0, 5, 45, 302.1569213867188
0, 5, 46, 268.7398681640625
0, 5, 47, 280.9845886230469
0, 5, 48, 293.858154296875
0, 5, 49, 285.770751953125
0, 5, 50, 294.0366516113281
0, 5, 51, 280.6393432617188
0, 5, 52, 269.369873046875
0, 5, 53, 285.4760131835938
0, 5, 54, 293.0233154296875
0, 5, 55, 346.2483825683594
0, 5, 56, 305.2855529785156
0, 5, 57, 309.2070007324219
0, 5, 58, 312.0640869140625
0, 5, 59, 305.1094665527344
0, 5, 60, 306.3255615234375
0, 5, 61, 280.959228515625
0, 5, 62, 326.7673034667969
0, 5, 63, 290.6271362304688
0, 5, 64, 322.9977111816406
0, 5, 65, 306.8172302246094
0, 5, 66, 328.4186706542969
0, 5, 67, 310.9227905273438
0, 5, 68, 308.0079040527344
0, 5, 69, 311.1643371582031
0, 5, 70, 301.0365600585938
0, 5, 71, 272.2839660644531
0, 5, 72, 309.3392944335938
0, 5, 73, 300.5928344726562
0, 5, 74, 297.3896179199219
0, 5, 75, 295.1181335449219
0, 5, 76, 288.0339965820312
0, 5, 77, 300.4480590820312
0, 5, 78, 314.4115295410156
0, 5, 79, 306.7444763183594
0, 5, 80, 294.0238952636719
0, 5, 81, 325.3541870117188
0, 5, 82, 327.8855895996094
0, 5, 83, 280.2025756835938
0, 5, 84, 303.4564819335938
0, 5, 85, 269.5842895507812
0, 5, 86, 325.5371704101562
0, 5, 87, 283.3914184570312
0, 5, 88, 313.8154602050781
0, 5, 89, 303.9596252441406
0, 5, 90, 314.9033813476562
0, 5, 91, 313.3416442871094
0, 5, 92, 295.3855895996094
0, 5, 93, 323.1802673339844
0, 5, 94, 308.1738586425781
0, 5, 95, 298.75830078125
0, 5, 96, 297.0156860351562
0, 5, 97, 295.716064453125
0, 5, 98, 320.53515625
0, 5, 99, 300.2224426269531
0, 5, 100, 291.3001708984375
0, 5, 101, 304.8226928710938
0, 5, 102, 291.5368041992188
0, 5, 103, 314.7218933105469
0, 5, 104, 302.6632995605469
0, 5, 105, 292.3451538085938
0, 5, 106, 282.9534912109375
0, 5, 107, 294.1532287597656
0, 5, 108, 264.0583801269531
0, 5, 109, 158.4681701660156
0, 5, 110, 40.58515167236328
0, 5, 111, 20.84407997131348
0, 5, 112, 17.86982917785645
0, 5, 113, 13.83199787139893
0, 5, 114, 11.13503646850586
0, 5, 115, 6.828179359436035
0, 5, 116, 8.527658462524414
0, 5, 117, 8.104644775390625
0, 5, 118, 14.75082015991211
0, 5, 119, 4.677227020263672
0, 5, 120, 4.980547428131104
0, 5, 121, 3.973941802978516
0, 5, 122, 4.887627601623535
0, 5, 123, 6.484333038330078
0, 5, 124, 4.072837352752686
0, 5, 125, 4.772915840148926
0, 5, 126, 5.748104095458984
0, 5, 127, 5.419910430908203
0, 6, 0, 6.166306495666504
0, 6, 1, 2.038645267486572
0, 6, 2, 7.162924766540527
0, 6, 3, 5.534415721893311
0, 6, 4, 4.116678714752197
0, 6, 5, 6.116500377655029
0, 6, 6, 6.148111820220947
0, 6, 7, 4.700104236602783
0, 6, 8, 9.13021183013916
0, 6, 9, 5.77999210357666
0, 6, 10, 6.631839275360107
0, 6, 11, 9.560220718383789
0, 6, 12, 8.929360389709473
0, 6, 13, 16.89836692810059
0, 6, 14, 9.805943489074707
0, 6, 15, 16.42071723937988
0, 6, 16, 30.11320877075195
0, 6, 17, 57.26966094970703
0, 6, 18, 174.0429229736328
0, 6, 19, 276.0982360839844
0, 6, 20, 291.2902221679688
0, 6, 21, 314.4697265625
0, 6, 22, 320.861572265625
0, 6, 23, 306.5457763671875
0, 6, 24, 315.71826171875
0, 6, 25, 315.290283203125
0, 6, 26, 320.4114379882812
0, 6, 27, 331.4355773925781
0, 6, 28, 297.5590209960938
0, 6, 29, 330.3436584472656
0, 6, 30, 280.4243469238281
0, 6, 31, 284.7489013671875
0, 6, 32, 338.8867797851562
0, 6, 33, 298.8905029296875
0, 6, 34, 339.4561462402344
0, 6, 35, 321.4028625488281
0, 6, 36, 273.8351135253906
0, 6, 37, 290.1153869628906
0, 6, 38, 310.7286987304688
0, 6, 39, 300.3531494140625
0, 6, 40, 285.7333984375
0, 6, 41, 297.9913940429688
0, 6, 42, 302.7058410644531
0, 6, 43, 288.9747314453125
0, 6, 44, 279.3355712890625
0, 6, 45, 319.540771484375
0, 6, 46, 301.0243835449219
0, 6, 47, 334.0753479003906
0, 6, 48, 293.6185913085938
0, 6, 49, 313.051025390625
0, 6, 50, 328.8466796875
0, 6, 51, 311.1516418457031
0, 6, 52, 321.2605590820312
0, 6, 53, 326.5133666992188
0, 6, 54, 301.7963256835938
0, 6, 55, 304.14599609375
0, 6, 56, 293.73193359375
0, 6, 57, 311.0575561523438
0, 6, 58, 261.6572265625
0, 6, 59, 301.6240234375
0, 6, 60, 313.8573913574219
0, 6, 61, 270.8988952636719
0, 6, 62, 337.3145446777344
0, 6, 63, 322.642333984375
0, 6, 64, 290.7435302734375
0, 6, 65, 285.1686401367188
0, 6, 66, 302.1292724609375
0, 6, 67, 309.074951171875
0, 6, 68, 294.9336242675781
0, 6, 69, 277.8321838378906
0, 6, 70, 273.6044311523438
0, 6, 71, 291.3168334960938
0, 6, 72, 310.3677673339844
0, 6, 73, 294.1041259765625
0, 6, 74, 332.351318359375
0, 6, 75, 341.9433898925781
0, 6, 76, 296.9033508300781
0, 6, 77, 285.4241027832031
0, 6, 78, 278.7406921386719
0, 6, 79, 292.724609375
0, 6, 80, 301.9262084960938
0, 6, 81, 315.1177368164062
0, 6, 82, 317.6803894042969
0, 6, 83, 323.3676147460938
0, 6, 84, 297.0531005859375
0, 6, 85, 300.6307067871094
0, 6, 86, 328.7805786132812
0, 6, 87, 295.8016052246094
0, 6, 88, 305.73046875
0, 6, 89, 304.439208984375
0, 6, 90, 299.1954345703125
0, 6, 91, 311.7693481445312
0, 6, 92, 284.5601806640625
0, 6, 93, 295.196533203125
0, 6, 94, 272.3557739257812
0, 6, 95, 301.522705078125
0, 6, 96, 348.0519714355469
0, 6, 97, 309.0146789550781
0, 6, 98, 300.121337890625
0, 6, 99, 272.0416259765625
0, 6, 100, 310.7453918457031
0, 6, 101, 292.578857421875
0, 6, 102, 305.9307861328125
0, 6, 103, 309.1383361816406
0, 6, 104, 290.0311584472656
0, 6, 105, 302.6983947753906
0, 6, 106, 305.8451538085938
0, 6, 107, 307.0091552734375
0, 6, 108, 265.0194091796875
0, 6, 109, 189.3409118652344
0, 6, 110, 57.73432540893555
0, 6, 111, 22.19289970397949
0, 6, 112, 14.28707313537598
0, 6, 113, 11.83599281311035
0, 6, 114, 14.23900985717773
0, 6, 115, 13.33336067199707
0, 6, 116, 11.59091186523438
0, 6, 117, 9.919450759887695
0, 6, 118, 9.825566291809082
0, 6, 119, 8.786126136779785
0, 6, 120, 4.903312683105469
0, 6, 121, 5.638161182403564
0, 6, 122, 5.441780090332031
0, 6, 123, 6.100222587585449
0, 6, 124, 5.406292915344238
0, 6, 125, 5.520433902740479
0, 6, 126, 3.936871290206909
0, 6, 127, 5.617502689361572
0, 7, 0, 6.390265464782715
0, 7, 1, 3.037396430969238
0, 7, 2, 6.706392765045166
0, 7, 3, 4.306043148040771
0, 7, 4, 3.886682510375977
0, 7, 5, 5.280562400817871
0, 7, 6, 4.779709815979004
0, 7, 7, 5.561083793640137
0, 7, 8, 7.287253379821777
0, 7, 9, 5.440121650695801
0, 7, 10, 9.072980880737305
0, 7, 11, 11.63286209106445
0, 7, 12, 11.6180248260498
0, 7, 13, 11.74982643127441
0, 7, 14, 10.26426982879639
0, 7, 15, 16.73480987548828
0, 7, 16, 25.51662445068359
0, 7, 17, 98.38119506835938
0, 7, 18, 218.2658233642578
0, 7, 19, 289.7127990722656
0, 7, 20, 297.5415649414062
0, 7, 21, 277.5899353027344
0, 7, 22, 299.6312255859375
0, 7, 23, 288.8258666992188
0, 7, 24, 312.8662719726562
0, 7, 25, 324.1551513671875
0, 7, 26, 278.6046752929688
0, 7, 27, 300.0008850097656
0, 7, 28, 324.813720703125
0, 7, 29, 319.1472473144531
0, 7, 30, 299.5823059082031
0, 7, 31, 278.0912475585938
0, 7, 32, 306.6830139160156
0, 7, 33, 262.60888671875
0, 7, 34, 297.6090087890625
0, 7, 35, 320.1280822753906
0, 7, 36, 329.369873046875
0, 7, 37, 323.1007995605469
0, 7, 38, 294.4242553710938
0, 7, 39, 307.7951354980469
0, 7, 40, 288.1016235351562
0, 7, 41, 271.4747924804688
0, 7, 42, 303.0386657714844
0, 7, 43, 272.8168640136719
0, 7, 44, 302.5150451660156
0, 7, 45, 294.4089965820312
0, 7, 46, 286.3393859863281
0, 7, 47, 329.1215209960938
0, 7, 48, 287.2621154785156
0, 7, 49, 300.9441223144531
0, 7, 50, 321.1739807128906
0, 7, 51, 298.3544311523438
0, 7, 52, 326.6255798339844
0, 7, 53, 312.2136535644531
0, 7, 54, 322.4328308105469
0, 7, 55, 305.9349975585938
0, 7, 56, 279.8514404296875
0, 7, 57, 284.558349609375
0, 7, 58, 295.7048645019531
0, 7, 59, 292.6064147949219
0, 7, 60, 322.6761779785156
0, 7, 61, 277.3766479492188
0, 7, 62, 297.3794860839844
0, 7, 63, 295.6533813476562
0, 7, 64, 309.0026245117188
0, 7, 65, 330.7187194824219
0, 7, 66, 317.9298706054688
0, 7, 67, 301.1405639648438
0, 7, 68, 282.0426940917969
0, 7, 69, 293.5475463867188
0, 7, 70, 303.7958984375
0, 7, 71, 308.6247863769531
0, 7, 72, 285.5152587890625
0, 7, 73, 296.4544982910156
0, 7, 74, 346.1388244628906
0, 7, 75, 319.5146484375
0, 7, 76, 323.2685241699219
0, 7, 77, 280.3018493652344
0, 7, 78, 301.5626525878906
0, 7, 79, 297.7488403320312
0, 7, 80, 310.16162109375
0, 7, 81, 322.2966613769531
0, 7, 82, 331.1224060058594
0, 7, 83, 316.7790832519531
0, 7, 84, 309.3948974609375
0, 7, 85, 271.4183044433594
0, 7, 86, 310.6816711425781
0, 7, 87, 309.5244750976562
0, 7, 88, 308.0224914550781
0, 7, 89, 292.2852478027344
0, 7, 90, 306.8587036132812
0, 7, 91, 315.5271606445312
0, 7, 92, 285.8438415527344
0, 7, 93, 306.9925842285156
0, 7, 94, 273.1912841796875
0, 7, 95, 296.3225708007812
0, 7, 96, 332.3203735351562
0, 7, 97, 295.2259826660156
0, 7, 98, 290.6259765625
0, 7, 99, 311.8447875976562
0, 7, 100, 281.1346130371094
0, 7, 101, 274.7298583984375
0, 7, 102, 290.242919921875
0, 7, 103, 291.7518920898438
0, 7, 104, 275.69140625
0, 7, 105, 305.4850463867188
0, 7, 106, 318.0787658691406
0, 7, 107, 296.5082092285156
0, 7, 108, 272.3851928710938
0, 7, 109, 234.4780120849609
0, 7, 110, 95.07191467285156
0, 7, 111, 24.22875785827637
0, 7, 112, 13.71652126312256
0, 7, 113, 13.63318824768066
0, 7, 114, 13.60034942626953
0, 7, 115, 11.24090671539307
0, 7, 116, 7.708152770996094
0, 7, 117, 6.102070808410645
0, 7, 118, 10.23655986785889
0, 7, 119, 6.31885290145874
0, 7, 120, 5.757759571075439
0, 7, 121, 5.916945457458496
0, 7, 122, 7.645677089691162
0, 7, 123, 2.656233072280884
0, 7, 124, 4.619669437408447
0, 7, 125, 6.503340244293213
0, 7, 126, 9.607291221618652
0, 7, 127, 1.749499320983887
0, 8, 0, 5.378733158111572
0, 8, 1, 4.459572792053223
0, 8, 2, 4.466932773590088
0, 8, 3, 1.479856729507446
0, 8, 4, 4.387849807739258
0, 8, 5, 6.249484539031982
0, 8, 6, 6.076894760131836
0, 8, 7, 6.653044700622559
0, 8, 8, 10.03966522216797
0, 8, 9, 5.252748966217041
0, 8, 10, 8.230269432067871
0, 8, 11, 10.90674114227295
0, 8, 12, 13.60622119903564
0, 8, 13, 14.31960868835449
0, 8, 14, 14.2588357925415
0, 8, 15, 19.57583427429199
0, 8, 16, 33.56222152709961
0, 8, 17, 129.3464202880859
0, 8, 18, 243.2991180419922
0, 8, 19, 295.072265625
0, 8, 20, 284.7037353515625
0, 8, 21, 306.4338989257812
0, 8, 22, 297.9400634765625
0, 8, 23, 274.1470642089844
0, 8, 24, 270.0560607910156
0, 8, 25, 276.2803649902344
0, 8, 26, 307.0540161132812
0, 8, 27, 307.5188598632812
0, 8, 28, 303.0514831542969
0, 8, 29, 319.3812255859375
0, 8, 30, 317.9688110351562
0, 8, 31, 303.9513244628906
0, 8, 32, 283.2025756835938
0, 8, 33, 295.6737365722656
0, 8, 34, 291.2007446289062
0, 8, 35, 281.9557800292969
0, 8, 36, 318.3425598144531
0, 8, 37, 340.6877746582031
0, 8, 38, 333.1326904296875
0, 8, 39, 280.6112670898438
