# TOPAS Version: 3.1.p3
# Parameter File: batch_inserts_246.txt
# Results for scorer Readout_Adipose
# Scored in component: MyBox
# X in 1 bin  of 0.75 cm
# Y in 512 bins of 0.0783984 cm
# Z in 128 bins of 0.078125 cm
# EnergyDeposit ( MeV ) : Sum   
0, 0, 0, 3.571625232696533
0, 0, 1, 2.145677328109741
0, 0, 2, 5.355903148651123
0, 0, 3, 1.364436149597168
0, 0, 4, 4.342607498168945
0, 0, 5, 2.240625619888306
0, 0, 6, 7.167452335357666
0, 0, 7, 9.259167671203613
0, 0, 8, 3.229910850524902
0, 0, 9, 3.468302726745605
0, 0, 10, 6.198899269104004
0, 0, 11, 4.837712287902832
0, 0, 12, 4.397831916809082
0, 0, 13, 6.674352169036865
0, 0, 14, 8.822175979614258
0, 0, 15, 9.437615394592285
0, 0, 16, 8.230891227722168
0, 0, 17, 10.40879154205322
0, 0, 18, 13.51212024688721
0, 0, 19, 44.72979736328125
0, 0, 20, 138.2091522216797
0, 0, 21, 224.0045928955078
0, 0, 22, 248.604248046875
0, 0, 23, 257.7627258300781
0, 0, 24, 250.5570373535156
0, 0, 25, 258.869873046875
0, 0, 26, 234.1568908691406
0, 0, 27, 236.6265869140625
0, 0, 28, 270.1214294433594
0, 0, 29, 253.3019409179688
0, 0, 30, 232.083251953125
0, 0, 31, 243.5816650390625
0, 0, 32, 263.8390502929688
0, 0, 33, 260.1267700195312
0, 0, 34, 287.1800231933594
0, 0, 35, 268.7423400878906
0, 0, 36, 246.6285095214844
0, 0, 37, 253.2777862548828
0, 0, 38, 269.9042663574219
0, 0, 39, 230.9479217529297
0, 0, 40, 241.5278167724609
0, 0, 41, 264.2728271484375
0, 0, 42, 230.0081329345703
0, 0, 43, 260.5141906738281
0, 0, 44, 253.6178131103516
0, 0, 45, 252.6388397216797
0, 0, 46, 243.9927368164062
0, 0, 47, 254.3306884765625
0, 0, 48, 267.7322692871094
0, 0, 49, 274.143310546875
0, 0, 50, 250.91943359375
0, 0, 51, 253.2968292236328
0, 0, 52, 273.2238464355469
0, 0, 53, 292.2428283691406
0, 0, 54, 243.3041381835938
0, 0, 55, 239.4672546386719
0, 0, 56, 278.2846374511719
0, 0, 57, 263.7475891113281
0, 0, 58, 248.8339538574219
0, 0, 59, 271.51220703125
0, 0, 60, 235.875732421875
0, 0, 61, 245.1139068603516
0, 0, 62, 258.4853515625
0, 0, 63, 266.6166687011719
0, 0, 64, 254.7484130859375
0, 0, 65, 260.2657775878906
0, 0, 66, 276.8658142089844
0, 0, 67, 247.4801940917969
0, 0, 68, 257.6662902832031
0, 0, 69, 260.9075927734375
0, 0, 70, 274.7203979492188
0, 0, 71, 238.4211730957031
0, 0, 72, 249.1248016357422
0, 0, 73, 259.1279296875
0, 0, 74, 253.7619781494141
0, 0, 75, 241.5494689941406
0, 0, 76, 227.3572540283203
0, 0, 77, 260.352783203125
0, 0, 78, 256.9349670410156
0, 0, 79, 278.1341552734375
0, 0, 80, 220.4939727783203
0, 0, 81, 268.8019714355469
0, 0, 82, 255.3773040771484
0, 0, 83, 244.6374969482422
0, 0, 84, 270.3084106445312
0, 0, 85, 231.2881469726562
0, 0, 86, 253.1179656982422
0, 0, 87, 250.6938018798828
0, 0, 88, 261.647216796875
0, 0, 89, 285.1419067382812
0, 0, 90, 243.6065521240234
0, 0, 91, 281.1593933105469
0, 0, 92, 252.2106628417969
0, 0, 93, 250.7642822265625
0, 0, 94, 248.4097900390625
0, 0, 95, 247.0080108642578
0, 0, 96, 274.632568359375
0, 0, 97, 273.1432800292969
0, 0, 98, 273.6962280273438
0, 0, 99, 259.9267883300781
0, 0, 100, 261.9181823730469
0, 0, 101, 226.0048370361328
0, 0, 102, 232.0186309814453
0, 0, 103, 269.8983764648438
0, 0, 104, 255.1481781005859
0, 0, 105, 251.4665985107422
0, 0, 106, 245.2027282714844
0, 0, 107, 151.3886413574219
0, 0, 108, 37.63190078735352
0, 0, 109, 12.01132202148438
0, 0, 110, 12.64287090301514
0, 0, 111, 9.467426300048828
0, 0, 112, 6.380065441131592
0, 0, 113, 5.672431945800781
0, 0, 114, 6.763015270233154
0, 0, 115, 4.660741329193115
0, 0, 116, 4.773177146911621
0, 0, 117, 4.818435668945312
0, 0, 118, 7.060210704803467
0, 0, 119, 5.199705123901367
0, 0, 120, 3.143938302993774
0, 0, 121, 6.012421607971191
0, 0, 122, 6.402559757232666
0, 0, 123, 2.264782190322876
0, 0, 124, 6.131445407867432
0, 0, 125, 3.56602931022644
0, 0, 126, 4.460384368896484
0, 0, 127, 6.253644943237305
0, 1, 0, 7.087985992431641
0, 1, 1, 4.034410953521729
0, 1, 2, 4.594653606414795
0, 1, 3, 2.35922646522522
0, 1, 4, 2.995191097259521
0, 1, 5, 5.559742450714111
0, 1, 6, 3.739120960235596
0, 1, 7, 5.366985321044922
0, 1, 8, 7.107648372650146
0, 1, 9, 5.11292552947998
0, 1, 10, 7.340553760528564
0, 1, 11, 10.89195823669434
0, 1, 12, 7.644856452941895
0, 1, 13, 8.18715763092041
0, 1, 14, 7.096714973449707
0, 1, 15, 7.917450428009033
0, 1, 16, 12.11213493347168
0, 1, 17, 10.50198745727539
0, 1, 18, 20.27131080627441
0, 1, 19, 66.16942596435547
0, 1, 20, 200.2766418457031
0, 1, 21, 255.4190216064453
0, 1, 22, 297.3140258789062
0, 1, 23, 282.2316589355469
0, 1, 24, 276.5405883789062
0, 1, 25, 289.0610046386719
0, 1, 26, 268.5279541015625
0, 1, 27, 307.0534973144531
0, 1, 28, 298.1392517089844
0, 1, 29, 295.3342590332031
0, 1, 30, 279.52587890625
0, 1, 31, 290.1641540527344
0, 1, 32, 290.0475769042969
0, 1, 33, 295.5870056152344
0, 1, 34, 292.1043701171875
0, 1, 35, 279.5019836425781
0, 1, 36, 306.6601867675781
0, 1, 37, 293.7711791992188
0, 1, 38, 281.4456481933594
0, 1, 39, 296.5733642578125
0, 1, 40, 266.8697814941406
0, 1, 41, 285.8810424804688
0, 1, 42, 288.7606811523438
0, 1, 43, 330.8286743164062
0, 1, 44, 278.0469055175781
0, 1, 45, 292.9899291992188
0, 1, 46, 261.7392578125
0, 1, 47, 310.2857360839844
0, 1, 48, 283.8410949707031
0, 1, 49, 302.4310302734375
0, 1, 50, 263.5688781738281
0, 1, 51, 272.6465454101562
0, 1, 52, 294.6491088867188
0, 1, 53, 304.1101684570312
0, 1, 54, 274.5813598632812
0, 1, 55, 292.2657775878906
0, 1, 56, 278.7354736328125
0, 1, 57, 297.3927612304688
0, 1, 58, 311.2119445800781
0, 1, 59, 290.4058532714844
0, 1, 60, 296.9985656738281
0, 1, 61, 275.152587890625
0, 1, 62, 309.5838012695312
0, 1, 63, 285.2112121582031
0, 1, 64, 288.7196350097656
0, 1, 65, 295.6943054199219
0, 1, 66, 291.6510620117188
0, 1, 67, 292.349853515625
0, 1, 68, 278.8565979003906
0, 1, 69, 278.708984375
0, 1, 70, 270.737548828125
0, 1, 71, 272.0284118652344
0, 1, 72, 287.3014526367188
0, 1, 73, 305.2969970703125
0, 1, 74, 304.0315246582031
0, 1, 75, 294.7748413085938
0, 1, 76, 285.8509216308594
0, 1, 77, 292.6291198730469
0, 1, 78, 297.9252624511719
0, 1, 79, 300.3433837890625
0, 1, 80, 296.658447265625
0, 1, 81, 299.7982482910156
0, 1, 82, 284.3641967773438
0, 1, 83, 331.4878234863281
0, 1, 84, 309.0750732421875
0, 1, 85, 253.053466796875
0, 1, 86, 294.8420715332031
0, 1, 87, 291.8742980957031
0, 1, 88, 297.2366638183594
0, 1, 89, 289.948486328125
0, 1, 90, 269.2632446289062
0, 1, 91, 319.7853698730469
0, 1, 92, 292.79931640625
0, 1, 93, 286.1624450683594
0, 1, 94, 303.1498107910156
0, 1, 95, 283.4688110351562
0, 1, 96, 283.4197998046875
0, 1, 97, 301.4100036621094
0, 1, 98, 277.5513916015625
0, 1, 99, 266.1425170898438
0, 1, 100, 276.32666015625
0, 1, 101, 282.6874694824219
0, 1, 102, 278.0796203613281
0, 1, 103, 280.9580078125
0, 1, 104, 306.73388671875
0, 1, 105, 296.2890930175781
0, 1, 106, 260.7297668457031
0, 1, 107, 190.1138763427734
0, 1, 108, 80.06085968017578
0, 1, 109, 22.99587631225586
0, 1, 110, 11.43436145782471
0, 1, 111, 8.98119068145752
0, 1, 112, 11.13423633575439
0, 1, 113, 5.748086929321289
0, 1, 114, 6.046120166778564
0, 1, 115, 6.706478118896484
0, 1, 116, 10.25923919677734
0, 1, 117, 5.4781813621521
0, 1, 118, 4.00461483001709
0, 1, 119, 5.620456218719482
0, 1, 120, 5.21755313873291
0, 1, 121, 4.907253742218018
0, 1, 122, 3.108591318130493
0, 1, 123, 3.095650434494019
0, 1, 124, 7.097255229949951
0, 1, 125, 5.781940460205078
0, 1, 126, 1.932826161384583
0, 1, 127, 1.886593103408813
0, 2, 0, 4.238181114196777
0, 2, 1, 2.931387901306152
0, 2, 2, 5.484411716461182
0, 2, 3, 5.184200286865234
0, 2, 4, 3.324490308761597
0, 2, 5, 2.658893585205078
0, 2, 6, 1.590310215950012
0, 2, 7, 3.948193311691284
0, 2, 8, 4.666184425354004
0, 2, 9, 6.842479228973389
0, 2, 10, 8.395450592041016
0, 2, 11, 6.159567832946777
0, 2, 12, 5.835114479064941
0, 2, 13, 9.629342079162598
0, 2, 14, 9.239230155944824
0, 2, 15, 7.0014328956604
0, 2, 16, 8.912480354309082
0, 2, 17, 18.43400573730469
0, 2, 18, 30.88015556335449
0, 2, 19, 117.2982330322266
0, 2, 20, 247.3459777832031
0, 2, 21, 270.7699584960938
0, 2, 22, 314.8371276855469
0, 2, 23, 300.838623046875
0, 2, 24, 287.3134765625
0, 2, 25, 301.1038818359375
0, 2, 26, 294.4981994628906
0, 2, 27, 276.7878112792969
0, 2, 28, 273.8627319335938
0, 2, 29, 274.7647094726562
0, 2, 30, 289.0763854980469
0, 2, 31, 277.3992919921875
0, 2, 32, 293.7816772460938
0, 2, 33, 283.7953186035156
0, 2, 34, 331.8896789550781
0, 2, 35, 292.4504089355469
0, 2, 36, 304.4685974121094
0, 2, 37, 315.5714721679688
0, 2, 38, 312.9562683105469
0, 2, 39, 266.4337158203125
0, 2, 40, 307.227294921875
0, 2, 41, 291.9689636230469
0, 2, 42, 303.4375
0, 2, 43, 313.4321594238281
0, 2, 44, 313.2308044433594
0, 2, 45, 325.2182006835938
0, 2, 46, 286.6023864746094
0, 2, 47, 302.4583129882812
0, 2, 48, 283.5256042480469
0, 2, 49, 279.4857788085938
0, 2, 50, 293.8225402832031
0, 2, 51, 284.367431640625
0, 2, 52, 270.8938903808594
0, 2, 53, 287.8033447265625
0, 2, 54, 280.53564453125
0, 2, 55, 276.4172668457031
0, 2, 56, 302.9505920410156
0, 2, 57, 290.5197143554688
0, 2, 58, 303.0431213378906
0, 2, 59, 286.2887878417969
0, 2, 60, 319.2408752441406
0, 2, 61, 303.0313720703125
0, 2, 62, 312.7332153320312
0, 2, 63, 302.8520202636719
0, 2, 64, 294.760986328125
0, 2, 65, 312.9670104980469
0, 2, 66, 280.5045776367188
0, 2, 67, 293.1774291992188
0, 2, 68, 297.8030395507812
0, 2, 69, 313.8694763183594
0, 2, 70, 333.678955078125
0, 2, 71, 283.3288879394531
0, 2, 72, 302.2179260253906
0, 2, 73, 311.8428344726562
0, 2, 74, 287.8840942382812
0, 2, 75, 303.0068969726562
0, 2, 76, 287.6671447753906
0, 2, 77, 299.9974670410156
0, 2, 78, 313.4547424316406
0, 2, 79, 308.3756103515625
0, 2, 80, 296.1809692382812
0, 2, 81, 282.6283569335938
0, 2, 82, 317.1273803710938
0, 2, 83, 313.2280883789062
0, 2, 84, 287.5574645996094
0, 2, 85, 281.7294921875
0, 2, 86, 327.5494384765625
0, 2, 87, 286.7814025878906
0, 2, 88, 279.6927185058594
0, 2, 89, 301.3136291503906
0, 2, 90, 294.6759033203125
0, 2, 91, 277.6719970703125
0, 2, 92, 306.2393493652344
0, 2, 93, 316.4295959472656
0, 2, 94, 292.9155578613281
0, 2, 95, 314.5627136230469
0, 2, 96, 315.17919921875
0, 2, 97, 291.3341064453125
0, 2, 98, 293.5538635253906
0, 2, 99, 277.3523559570312
0, 2, 100, 305.32080078125
0, 2, 101, 300.1518859863281
0, 2, 102, 297.2262878417969
0, 2, 103, 292.9179077148438
0, 2, 104, 293.5546264648438
0, 2, 105, 274.1300354003906
0, 2, 106, 297.2794799804688
0, 2, 107, 271.7471313476562
0, 2, 108, 116.8501663208008
0, 2, 109, 32.80764007568359
0, 2, 110, 10.3735179901123
0, 2, 111, 12.99238681793213
0, 2, 112, 8.436867713928223
0, 2, 113, 9.444093704223633
0, 2, 114, 9.658360481262207
0, 2, 115, 8.946919441223145
0, 2, 116, 11.98074722290039
0, 2, 117, 9.880502700805664
0, 2, 118, 2.018129110336304
0, 2, 119, 6.845623016357422
0, 2, 120, 6.20552921295166
0, 2, 121, 1.4311363697052
0, 2, 122, 5.241030693054199
0, 2, 123, 6.401308536529541
0, 2, 124, 3.829573631286621
0, 2, 125, 4.529005527496338
0, 2, 126, 4.903485774993896
0, 2, 127, 5.467537403106689
0, 3, 0, 4.086677074432373
0, 3, 1, 2.836900472640991
0, 3, 2, 3.438304662704468
0, 3, 3, 1.881272792816162
0, 3, 4, 3.144506931304932
0, 3, 5, 5.45713472366333
0, 3, 6, 5.957061767578125
0, 3, 7, 6.836196899414062
0, 3, 8, 4.842959403991699
0, 3, 9, 6.266144275665283
0, 3, 10, 5.465743541717529
0, 3, 11, 4.843418121337891
0, 3, 12, 9.693490028381348
0, 3, 13, 14.37371349334717
0, 3, 14, 11.94417572021484
0, 3, 15, 14.3939094543457
0, 3, 16, 12.09759140014648
0, 3, 17, 20.50394821166992
0, 3, 18, 50.58872222900391
0, 3, 19, 177.2969360351562
0, 3, 20, 270.1100463867188
0, 3, 21, 271.1290588378906
0, 3, 22, 284.9246520996094
0, 3, 23, 287.3385620117188
0, 3, 24, 285.6788024902344
0, 3, 25, 270.776123046875
0, 3, 26, 303.147216796875
0, 3, 27, 294.0892944335938
0, 3, 28, 285.2609558105469
0, 3, 29, 337.6689147949219
0, 3, 30, 316.4835510253906
0, 3, 31, 288.0141906738281
0, 3, 32, 308.2357788085938
0, 3, 33, 314.8477172851562
0, 3, 34, 322.87890625
0, 3, 35, 307.5378723144531
0, 3, 36, 268.3539428710938
0, 3, 37, 315.2226257324219
0, 3, 38, 304.6832885742188
0, 3, 39, 288.2597045898438
0, 3, 40, 267.3570251464844
0, 3, 41, 298.9075012207031
0, 3, 42, 285.9979248046875
0, 3, 43, 305.9024047851562
0, 3, 44, 311.0186462402344
0, 3, 45, 290.4965209960938
0, 3, 46, 330.4315490722656
0, 3, 47, 298.8490905761719
0, 3, 48, 303.7140197753906
0, 3, 49, 277.0032653808594
0, 3, 50, 288.6846008300781
0, 3, 51, 275.5736694335938
0, 3, 52, 315.716552734375
0, 3, 53, 288.8676452636719
0, 3, 54, 286.8206481933594
0, 3, 55, 282.6861267089844
0, 3, 56, 298.933837890625
0, 3, 57, 287.8605346679688
0, 3, 58, 305.3783264160156
0, 3, 59, 295.6845703125
0, 3, 60, 298.9527282714844
0, 3, 61, 265.0457153320312
0, 3, 62, 286.5022277832031
0, 3, 63, 307.53564453125
0, 3, 64, 317.718994140625
0, 3, 65, 304.8920593261719
0, 3, 66, 317.6558532714844
0, 3, 67, 321.3307495117188
0, 3, 68, 279.3210754394531
0, 3, 69, 283.1789855957031
0, 3, 70, 290.4560852050781
0, 3, 71, 299.8800964355469
0, 3, 72, 270.8652038574219
0, 3, 73, 309.6281127929688
0, 3, 74, 290.9703369140625
0, 3, 75, 290.0226135253906
0, 3, 76, 304.6332397460938
0, 3, 77, 314.3444213867188
0, 3, 78, 302.7050476074219
0, 3, 79, 282.22216796875
0, 3, 80, 294.1374206542969
0, 3, 81, 313.4219055175781
0, 3, 82, 314.591064453125
0, 3, 83, 301.4118957519531
0, 3, 84, 311.2982177734375
0, 3, 85, 294.3930358886719
0, 3, 86, 302.1493835449219
0, 3, 87, 297.5911865234375
0, 3, 88, 299.619384765625
0, 3, 89, 295.2400817871094
0, 3, 90, 277.904296875
0, 3, 91, 283.6348571777344
0, 3, 92, 304.8382568359375
0, 3, 93, 313.3255310058594
0, 3, 94, 299.7044372558594
0, 3, 95, 335.03466796875
0, 3, 96, 290.0141296386719
0, 3, 97, 285.1639404296875
0, 3, 98, 278.52099609375
0, 3, 99, 261.5370483398438
0, 3, 100, 284.5299377441406
0, 3, 101, 296.2492370605469
0, 3, 102, 274.9859313964844
0, 3, 103, 323.9157409667969
0, 3, 104, 309.1609497070312
0, 3, 105, 287.7119750976562
0, 3, 106, 305.2972717285156
0, 3, 107, 281.4905090332031
0, 3, 108, 168.0891876220703
0, 3, 109, 56.74612808227539
0, 3, 110, 18.08812713623047
0, 3, 111, 13.14502906799316
0, 3, 112, 11.10980224609375
0, 3, 113, 5.877579689025879
0, 3, 114, 9.828972816467285
0, 3, 115, 7.174425601959229
0, 3, 116, 6.813214778900146
0, 3, 117, 5.902573108673096
0, 3, 118, 6.835752487182617
0, 3, 119, 6.442288398742676
0, 3, 120, 6.130563735961914
0, 3, 121, 3.198522329330444
0, 3, 122, 5.369342803955078
0, 3, 123, 7.857039451599121
0, 3, 124, 4.19974422454834
0, 3, 125, 5.49721097946167
0, 3, 126, 3.481943607330322
0, 3, 127, 3.575927495956421
0, 4, 0, 4.87505054473877
0, 4, 1, 5.398646354675293
0, 4, 2, 3.987603902816772
0, 4, 3, 2.428829193115234
0, 4, 4, 6.455080986022949
0, 4, 5, 9.964466094970703
0, 4, 6, 6.315714359283447
0, 4, 7, 6.088286399841309
0, 4, 8, 3.505965948104858
0, 4, 9, 7.907227039337158
0, 4, 10, 6.827691555023193
0, 4, 11, 7.150301456451416
0, 4, 12, 7.630092620849609
0, 4, 13, 9.540822982788086
0, 4, 14, 14.8512544631958
0, 4, 15, 8.290205955505371
0, 4, 16, 14.677414894104
0, 4, 17, 17.99831962585449
0, 4, 18, 93.12204742431641
0, 4, 19, 224.2162628173828
0, 4, 20, 283.9179992675781
0, 4, 21, 272.2301330566406
0, 4, 22, 305.2341613769531
0, 4, 23, 265.8507690429688
0, 4, 24, 288.5830078125
0, 4, 25, 271.7247619628906
0, 4, 26, 295.0758361816406
0, 4, 27, 283.8941650390625
0, 4, 28, 309.1824340820312
0, 4, 29, 323.3787231445312
0, 4, 30, 310.2671813964844
0, 4, 31, 305.1421203613281
0, 4, 32, 281.0067443847656
0, 4, 33, 301.2152099609375
0, 4, 34, 296.0304870605469
0, 4, 35, 311.2760314941406
0, 4, 36, 293.5873107910156
0, 4, 37, 287.2091979980469
0, 4, 38, 298.6557006835938
0, 4, 39, 292.8026428222656
0, 4, 40, 302.258544921875
0, 4, 41, 311.4172058105469
0, 4, 42, 331.8218383789062
0, 4, 43, 298.3939514160156
0, 4, 44, 321.23388671875
0, 4, 45, 325.158447265625
0, 4, 46, 304.3151245117188
0, 4, 47, 293.1409301757812
0, 4, 48, 295.5618591308594
0, 4, 49, 280.0451049804688
0, 4, 50, 296.7242431640625
0, 4, 51, 315.5542297363281
0, 4, 52, 327.2099914550781
0, 4, 53, 303.49169921875
0, 4, 54, 286.4154052734375
0, 4, 55, 316.7919616699219
0, 4, 56, 288.0018005371094
0, 4, 57, 311.8286743164062
0, 4, 58, 294.2626342773438
0, 4, 59, 306.4912109375
0, 4, 60, 302.4485473632812
0, 4, 61, 315.5946044921875
0, 4, 62, 307.1966247558594
0, 4, 63, 299.2955322265625
0, 4, 64, 328.9848327636719
0, 4, 65, 315.0467529296875
0, 4, 66, 295.2657470703125
0, 4, 67, 284.4819946289062
0, 4, 68, 316.5290222167969
0, 4, 69, 277.2277526855469
0, 4, 70, 298.9151611328125
0, 4, 71, 321.8857421875
0, 4, 72, 331.8439025878906
0, 4, 73, 299.7976684570312
0, 4, 74, 292.1436767578125
0, 4, 75, 291.1433410644531
0, 4, 76, 277.9789733886719
0, 4, 77, 277.7501220703125
0, 4, 78, 308.7864990234375
0, 4, 79, 319.3061828613281
0, 4, 80, 316.1517639160156
0, 4, 81, 310.9460144042969
0, 4, 82, 298.2360229492188
0, 4, 83, 301.0836791992188
0, 4, 84, 293.6834106445312
0, 4, 85, 296.2813415527344
0, 4, 86, 298.4495544433594
0, 4, 87, 285.30615234375
0, 4, 88, 306.2326354980469
0, 4, 89, 296.7331848144531
0, 4, 90, 331.6787109375
0, 4, 91, 302.5847778320312
0, 4, 92, 289.2146301269531
0, 4, 93, 297.4928894042969
0, 4, 94, 291.2823791503906
0, 4, 95, 287.49951171875
0, 4, 96, 323.6841735839844
0, 4, 97, 273.2136535644531
0, 4, 98, 327.0684509277344
0, 4, 99, 313.3162841796875
0, 4, 100, 302.2311401367188
0, 4, 101, 258.3981018066406
0, 4, 102, 297.1518249511719
0, 4, 103, 316.9410400390625
0, 4, 104, 281.7257690429688
0, 4, 105, 310.1802368164062
0, 4, 106, 287.2164306640625
0, 4, 107, 295.7912292480469
0, 4, 108, 226.2508697509766
0, 4, 109, 79.59091949462891
0, 4, 110, 16.3157844543457
0, 4, 111, 13.42493534088135
0, 4, 112, 10.0045862197876
0, 4, 113, 9.877989768981934
0, 4, 114, 8.952634811401367
0, 4, 115, 10.12717914581299
0, 4, 116, 8.282645225524902
0, 4, 117, 8.874482154846191
0, 4, 118, 10.12980365753174
0, 4, 119, 9.242770195007324
0, 4, 120, 8.27393627166748
0, 4, 121, 4.355422496795654
0, 4, 122, 3.469239473342896
0, 4, 123, 5.435995578765869
0, 4, 124, 4.586110591888428
0, 4, 125, 9.500927925109863
0, 4, 126, 8.434870719909668
0, 4, 127, 3.837739706039429
0, 5, 0, 5.522628307342529
0, 5, 1, 6.242010116577148
0, 5, 2, 4.747788906097412
0, 5, 3, 3.919760465621948
0, 5, 4, 4.344107151031494
0, 5, 5, 5.303820133209229
0, 5, 6, 6.709641933441162
0, 5, 7, 5.022353649139404
0, 5, 8, 5.847805500030518
0, 5, 9, 4.770771026611328
0, 5, 10, 8.049180030822754
0, 5, 11, 7.767492771148682
0, 5, 12, 7.209814548492432
0, 5, 13, 5.589463710784912
0, 5, 14, 13.61608123779297
0, 5, 15, 15.86769008636475
0, 5, 16, 14.20321941375732
0, 5, 17, 29.66899871826172
0, 5, 18, 138.0887603759766
0, 5, 19, 288.2901916503906
0, 5, 20, 306.0118408203125
0, 5, 21, 318.0070190429688
0, 5, 22, 275.9843139648438
0, 5, 23, 314.0070190429688
0, 5, 24, 303.4980163574219
0, 5, 25, 291.4544982910156
0, 5, 26, 295.2791748046875
0, 5, 27, 322.4931640625
0, 5, 28, 302.4118957519531
0, 5, 29, 297.4747619628906
0, 5, 30, 323.0083312988281
0, 5, 31, 285.4917297363281
0, 5, 32, 301.3594665527344
0, 5, 33, 303.4994506835938
0, 5, 34, 297.9949951171875
0, 5, 35, 308.5462036132812
0, 5, 36, 267.9393615722656
0, 5, 37, 284.4603881835938
0, 5, 38, 293.5287170410156
0, 5, 39, 313.3240966796875
0, 5, 40, 309.2931213378906
0, 5, 41, 273.8001708984375
0, 5, 42, 308.5659484863281
0, 5, 43, 314.0066223144531
0, 5, 44, 292.3012084960938
0, 5, 45, 300.5862121582031
0, 5, 46, 263.3654174804688
0, 5, 47, 279.463623046875
0, 5, 48, 294.8295288085938
0, 5, 49, 286.8616638183594
0, 5, 50, 296.2979125976562
0, 5, 51, 279.4359130859375
0, 5, 52, 270.1520690917969
0, 5, 53, 283.5323181152344
0, 5, 54, 291.7880249023438
0, 5, 55, 348.0350341796875
0, 5, 56, 304.7573547363281
0, 5, 57, 308.0246276855469
0, 5, 58, 314.464111328125
0, 5, 59, 303.4825134277344
0, 5, 60, 307.42138671875
0, 5, 61, 280.7846069335938
0, 5, 62, 325.4735717773438
0, 5, 63, 292.6700439453125
0, 5, 64, 323.2648315429688
0, 5, 65, 308.8544921875
0, 5, 66, 329.8021545410156
0, 5, 67, 313.0888671875
0, 5, 68, 308.0745239257812
0, 5, 69, 311.8055114746094
0, 5, 70, 302.2493286132812
0, 5, 71, 272.1752014160156
0, 5, 72, 308.7344665527344
0, 5, 73, 301.7932739257812
0, 5, 74, 295.9943542480469
0, 5, 75, 293.1381225585938
0, 5, 76, 285.2267761230469
0, 5, 77, 301.2794189453125
0, 5, 78, 316.5518798828125
0, 5, 79, 306.178466796875
0, 5, 80, 293.3692016601562
0, 5, 81, 325.1775207519531
0, 5, 82, 324.2724609375
0, 5, 83, 280.2230834960938
0, 5, 84, 302.6329650878906
0, 5, 85, 271.5482482910156
0, 5, 86, 325.0827026367188
0, 5, 87, 285.3381652832031
0, 5, 88, 314.6026306152344
0, 5, 89, 303.6962890625
0, 5, 90, 315.2335510253906
0, 5, 91, 313.2315368652344
0, 5, 92, 295.0321350097656
0, 5, 93, 323.3884887695312
0, 5, 94, 309.2747497558594
0, 5, 95, 297.5684814453125
0, 5, 96, 298.3540344238281
0, 5, 97, 294.4266662597656
0, 5, 98, 318.2921752929688
0, 5, 99, 302.8441467285156
0, 5, 100, 291.68359375
0, 5, 101, 305.09912109375
0, 5, 102, 294.5184326171875
0, 5, 103, 313.6909484863281
0, 5, 104, 301.8263854980469
0, 5, 105, 292.3279113769531
0, 5, 106, 281.9945983886719
0, 5, 107, 293.431884765625
0, 5, 108, 265.1697692871094
0, 5, 109, 157.7911682128906
0, 5, 110, 39.93439102172852
0, 5, 111, 20.77976226806641
0, 5, 112, 15.94924354553223
0, 5, 113, 16.40822410583496
0, 5, 114, 14.49715137481689
0, 5, 115, 8.919351577758789
0, 5, 116, 8.187687873840332
0, 5, 117, 6.622687339782715
0, 5, 118, 16.29228782653809
0, 5, 119, 3.11196756362915
0, 5, 120, 6.145420551300049
0, 5, 121, 6.140106678009033
0, 5, 122, 8.725019454956055
0, 5, 123, 7.338126182556152
0, 5, 124, 5.780015468597412
0, 5, 125, 3.473719120025635
0, 5, 126, 4.959502220153809
0, 5, 127, 2.591368436813354
0, 6, 0, 4.608775615692139
0, 6, 1, 2.970900297164917
0, 6, 2, 4.654228210449219
0, 6, 3, 5.64310359954834
0, 6, 4, 4.392676830291748
0, 6, 5, 5.960648536682129
0, 6, 6, 6.932356834411621
0, 6, 7, 5.195079326629639
0, 6, 8, 10.52407932281494
0, 6, 9, 6.146976947784424
0, 6, 10, 9.849183082580566
0, 6, 11, 7.774069786071777
0, 6, 12, 8.621968269348145
0, 6, 13, 13.17113494873047
0, 6, 14, 9.645688056945801
0, 6, 15, 17.61044120788574
0, 6, 16, 29.23788261413574
0, 6, 17, 55.26917266845703
0, 6, 18, 173.8896636962891
0, 6, 19, 275.8998718261719
0, 6, 20, 291.8921508789062
0, 6, 21, 314.9750366210938
0, 6, 22, 319.0272521972656
0, 6, 23, 304.8629150390625
0, 6, 24, 315.6220397949219
0, 6, 25, 315.8904113769531
0, 6, 26, 320.8153381347656
0, 6, 27, 331.1011047363281
0, 6, 28, 295.3625183105469
0, 6, 29, 330.2141418457031
0, 6, 30, 281.51708984375
0, 6, 31, 288.1485290527344
0, 6, 32, 339.1354675292969
0, 6, 33, 299.3729248046875
0, 6, 34, 341.1513366699219
0, 6, 35, 319.1197204589844
0, 6, 36, 274.31396484375
0, 6, 37, 289.7764282226562
0, 6, 38, 312.6973266601562
0, 6, 39, 300.9052429199219
0, 6, 40, 282.4705200195312
0, 6, 41, 295.4446105957031
0, 6, 42, 303.6732482910156
0, 6, 43, 289.6519165039062
0, 6, 44, 280.3215942382812
0, 6, 45, 319.7092590332031
0, 6, 46, 301.7899169921875
0, 6, 47, 333.1526184082031
0, 6, 48, 291.7721862792969
0, 6, 49, 312.2853393554688
0, 6, 50, 328.5492248535156
0, 6, 51, 310.3646545410156
0, 6, 52, 321.1812133789062
0, 6, 53, 327.7309265136719
0, 6, 54, 303.7360229492188
0, 6, 55, 305.0907897949219
0, 6, 56, 293.948974609375
0, 6, 57, 311.674560546875
0, 6, 58, 260.4213256835938
0, 6, 59, 303.3648681640625
0, 6, 60, 313.3373107910156
0, 6, 61, 270.752685546875
0, 6, 62, 338.0702514648438
0, 6, 63, 321.7270812988281
0, 6, 64, 289.5473327636719
0, 6, 65, 282.7915649414062
0, 6, 66, 301.9869384765625
0, 6, 67, 310.1833801269531
0, 6, 68, 292.6289367675781
0, 6, 69, 280.9646606445312
0, 6, 70, 273.8045959472656
0, 6, 71, 289.1016540527344
0, 6, 72, 311.1308898925781
0, 6, 73, 293.349365234375
0, 6, 74, 329.5877990722656
0, 6, 75, 343.1075439453125
0, 6, 76, 297.8080444335938
0, 6, 77, 288.3161010742188
0, 6, 78, 279.9266662597656
0, 6, 79, 291.7369995117188
0, 6, 80, 297.6914978027344
0, 6, 81, 315.6304626464844
0, 6, 82, 318.7715454101562
0, 6, 83, 321.2896423339844
0, 6, 84, 296.2083435058594
0, 6, 85, 300.7677612304688
0, 6, 86, 328.8954162597656
0, 6, 87, 290.0547180175781
0, 6, 88, 307.4156799316406
0, 6, 89, 304.9437561035156
0, 6, 90, 299.49462890625
0, 6, 91, 311.5858764648438
0, 6, 92, 286.3832397460938
0, 6, 93, 297.3526306152344
0, 6, 94, 274.3591613769531
0, 6, 95, 300.1356811523438
0, 6, 96, 347.2865600585938
0, 6, 97, 309.5919799804688
0, 6, 98, 301.7939758300781
0, 6, 99, 270.6386108398438
0, 6, 100, 309.4840698242188
0, 6, 101, 293.3088073730469
0, 6, 102, 306.0987243652344
0, 6, 103, 308.6783752441406
0, 6, 104, 294.789794921875
0, 6, 105, 300.739990234375
0, 6, 106, 307.3936767578125
0, 6, 107, 306.2874755859375
0, 6, 108, 265.251708984375
0, 6, 109, 185.5759735107422
0, 6, 110, 54.02400588989258
0, 6, 111, 22.14830207824707
0, 6, 112, 14.10748195648193
0, 6, 113, 10.75582790374756
0, 6, 114, 11.57352066040039
0, 6, 115, 13.50230884552002
0, 6, 116, 9.378271102905273
0, 6, 117, 6.354061603546143
0, 6, 118, 10.58989429473877
0, 6, 119, 8.397109031677246
0, 6, 120, 4.753889560699463
0, 6, 121, 7.272392272949219
0, 6, 122, 8.130881309509277
0, 6, 123, 5.3214111328125
0, 6, 124, 7.824646472930908
0, 6, 125, 7.104897499084473
0, 6, 126, 5.990506172180176
0, 6, 127, 6.624783992767334
0, 7, 0, 7.356920719146729
0, 7, 1, 6.107024669647217
0, 7, 2, 5.26111888885498
0, 7, 3, 4.889670848846436
0, 7, 4, 7.206972122192383
0, 7, 5, 6.623048305511475
0, 7, 6, 4.875322818756104
0, 7, 7, 4.589464664459229
0, 7, 8, 4.627848148345947
0, 7, 9, 7.94779634475708
0, 7, 10, 7.207639217376709
0, 7, 11, 13.86086559295654
0, 7, 12, 10.23498630523682
0, 7, 13, 11.08252811431885
0, 7, 14, 10.30460357666016
0, 7, 15, 18.59262657165527
0, 7, 16, 25.84490394592285
0, 7, 17, 97.89618682861328
0, 7, 18, 219.0973510742188
0, 7, 19, 288.1384582519531
0, 7, 20, 297.6573486328125
0, 7, 21, 277.5621643066406
0, 7, 22, 298.8427734375
0, 7, 23, 289.0519409179688
0, 7, 24, 314.7169799804688
0, 7, 25, 325.6373291015625
0, 7, 26, 276.4188232421875
0, 7, 27, 298.7674255371094
0, 7, 28, 326.5292663574219
0, 7, 29, 318.2707214355469
0, 7, 30, 300.5528869628906
0, 7, 31, 277.0262145996094
0, 7, 32, 306.802734375
0, 7, 33, 264.2891235351562
0, 7, 34, 296.8032836914062
0, 7, 35, 320.0986328125
0, 7, 36, 332.6880187988281
0, 7, 37, 325.6526184082031
0, 7, 38, 295.2134399414062
0, 7, 39, 308.4119262695312
0, 7, 40, 293.0045166015625
0, 7, 41, 272.1759948730469
0, 7, 42, 300.7196350097656
0, 7, 43, 277.0852661132812
0, 7, 44, 303.8192749023438
0, 7, 45, 296.3936767578125
0, 7, 46, 283.4206848144531
0, 7, 47, 330.7794494628906
0, 7, 48, 286.83984375
0, 7, 49, 300.3672485351562
0, 7, 50, 321.0376281738281
0, 7, 51, 298.507568359375
0, 7, 52, 325.1386413574219
0, 7, 53, 311.960205078125
0, 7, 54, 326.8771362304688
0, 7, 55, 306.6701965332031
0, 7, 56, 279.0674133300781
0, 7, 57, 285.4784851074219
0, 7, 58, 295.6614990234375
0, 7, 59, 293.8658752441406
0, 7, 60, 322.6505126953125
0, 7, 61, 277.6783447265625
0, 7, 62, 297.9241027832031
0, 7, 63, 294.0200805664062
0, 7, 64, 306.025146484375
0, 7, 65, 333.4426574707031
0, 7, 66, 319.1336669921875
0, 7, 67, 302.3518371582031
0, 7, 68, 279.0406494140625
0, 7, 69, 295.3612060546875
0, 7, 70, 303.0983276367188
0, 7, 71, 309.5610656738281
0, 7, 72, 286.1643676757812
0, 7, 73, 294.0917663574219
0, 7, 74, 343.5981750488281
0, 7, 75, 319.9890441894531
0, 7, 76, 323.1590881347656
0, 7, 77, 279.3900756835938
0, 7, 78, 301.7953491210938
0, 7, 79, 296.9124450683594
0, 7, 80, 310.6395263671875
0, 7, 81, 319.6793518066406
0, 7, 82, 328.4839172363281
0, 7, 83, 318.7915649414062
0, 7, 84, 309.8096008300781
0, 7, 85, 272.6302185058594
0, 7, 86, 310.5684814453125
0, 7, 87, 309.46435546875
0, 7, 88, 308.8352355957031
0, 7, 89, 294.2259521484375
0, 7, 90, 307.3413696289062
0, 7, 91, 314.0167541503906
0, 7, 92, 289.5619506835938
0, 7, 93, 308.3110046386719
0, 7, 94, 273.3121337890625
0, 7, 95, 298.2367553710938
0, 7, 96, 331.3299560546875
0, 7, 97, 296.0138549804688
0, 7, 98, 289.7243041992188
0, 7, 99, 311.3506164550781
0, 7, 100, 280.4901733398438
0, 7, 101, 275.0814208984375
0, 7, 102, 289.424072265625
0, 7, 103, 292.4133605957031
0, 7, 104, 274.4303894042969
0, 7, 105, 306.1011047363281
0, 7, 106, 318.1072998046875
0, 7, 107, 296.0788879394531
0, 7, 108, 272.0667419433594
0, 7, 109, 235.798095703125
0, 7, 110, 95.55637359619141
0, 7, 111, 25.57033157348633
0, 7, 112, 14.41707420349121
0, 7, 113, 14.34839344024658
0, 7, 114, 13.57223129272461
0, 7, 115, 11.33065509796143
0, 7, 116, 8.208441734313965
0, 7, 117, 8.288010597229004
0, 7, 118, 7.785024166107178
0, 7, 119, 3.8589928150177
0, 7, 120, 4.543601512908936
0, 7, 121, 5.531131744384766
0, 7, 122, 7.309396743774414
0, 7, 123, 4.593326568603516
0, 7, 124, 3.417186260223389
0, 7, 125, 5.099451541900635
0, 7, 126, 7.329913139343262
0, 7, 127, 1.744008541107178
0, 8, 0, 6.509637355804443
0, 8, 1, 4.869683742523193
0, 8, 2, 2.924317121505737
0, 8, 3, 3.119955062866211
0, 8, 4, 4.323468208312988
0, 8, 5, 3.769265413284302
0, 8, 6, 5.705376148223877
0, 8, 7, 5.800781726837158
0, 8, 8, 7.906243324279785
0, 8, 9, 4.270506381988525
0, 8, 10, 6.108541011810303
0, 8, 11, 12.76368427276611
0, 8, 12, 13.41842365264893
0, 8, 13, 17.7089729309082
0, 8, 14, 13.16349601745605
0, 8, 15, 18.14639854431152
0, 8, 16, 34.10609436035156
0, 8, 17, 132.8690185546875
0, 8, 18, 243.4994812011719
0, 8, 19, 295.66796875
0, 8, 20, 285.3377685546875
0, 8, 21, 308.7210693359375
0, 8, 22, 295.3251342773438
0, 8, 23, 276.9883422851562
0, 8, 24, 268.2785949707031
0, 8, 25, 279.0502014160156
0, 8, 26, 307.0481567382812
0, 8, 27, 307.2447814941406
0, 8, 28, 302.7537536621094
0, 8, 29, 318.2457580566406
0, 8, 30, 314.77783203125
0, 8, 31, 307.455322265625
0, 8, 32, 280.4779663085938
0, 8, 33, 294.6083374023438
0, 8, 34, 289.1563110351562
0, 8, 35, 280.3541259765625
0, 8, 36, 318.8709716796875
0, 8, 37, 339.61669921875
0, 8, 38, 331.2364501953125
0, 8, 39, 280.0136108398438
0, 8, 40, 305.70166015625
