# TOPAS Version: 3.1.p3
# Parameter File: batch_inserts_6.txt
# Results for scorer Readout_Adipose
# Scored in component: MyBox
# X in 1 bin  of 0.75 cm
# Y in 512 bins of 0.0783984 cm
# Z in 128 bins of 0.078125 cm
# EnergyDeposit ( MeV ) : Sum   
0, 0, 0, 20.08216857910156
0, 0, 1, 19.18198394775391
0, 0, 2, 23.31963348388672
0, 0, 3, 21.77841949462891
0, 0, 4, 24.10528755187988
0, 0, 5, 27.84352684020996
0, 0, 6, 23.01048278808594
0, 0, 7, 32.52941513061523
0, 0, 8, 23.35619163513184
0, 0, 9, 22.16108322143555
0, 0, 10, 22.45585441589355
0, 0, 11, 27.95934104919434
0, 0, 12, 44.65206909179688
0, 0, 13, 33.0390739440918
0, 0, 14, 42.0228271484375
0, 0, 15, 46.8899040222168
0, 0, 16, 44.52413558959961
0, 0, 17, 45.39516448974609
0, 0, 18, 72.64411163330078
0, 0, 19, 189.2978210449219
0, 0, 20, 697.8534545898438
0, 0, 21, 1193.223266601562
0, 0, 22, 1251.824951171875
0, 0, 23, 1272.828125
0, 0, 24, 1280.217041015625
0, 0, 25, 1356.921264648438
0, 0, 26, 1269.122436523438
0, 0, 27, 1280.749877929688
0, 0, 28, 1325.628662109375
0, 0, 29, 1275.186279296875
0, 0, 30, 1259.797973632812
0, 0, 31, 1282.87060546875
0, 0, 32, 1264.302612304688
0, 0, 33, 1243.615966796875
0, 0, 34, 1325.221313476562
0, 0, 35, 1299.318603515625
0, 0, 36, 1247.716430664062
0, 0, 37, 1283.186401367188
0, 0, 38, 1252.892578125
0, 0, 39, 1245.380126953125
0, 0, 40, 1224.619995117188
0, 0, 41, 1271.507446289062
0, 0, 42, 1252.11328125
0, 0, 43, 1268.755615234375
0, 0, 44, 1226.3583984375
0, 0, 45, 1291.180419921875
0, 0, 46, 1261.031494140625
0, 0, 47, 1245.798217773438
0, 0, 48, 1276.806518554688
0, 0, 49, 1287.341552734375
0, 0, 50, 1316.25830078125
0, 0, 51, 1261.620971679688
0, 0, 52, 1357.895385742188
0, 0, 53, 1323.788818359375
0, 0, 54, 1296.523559570312
0, 0, 55, 1230.958374023438
0, 0, 56, 1314.963134765625
0, 0, 57, 1289.661743164062
0, 0, 58, 1257.169311523438
0, 0, 59, 1333.318115234375
0, 0, 60, 1328.862915039062
0, 0, 61, 1259.214965820312
0, 0, 62, 1238.510131835938
0, 0, 63, 1275.50390625
0, 0, 64, 1330.024780273438
0, 0, 65, 1287.994873046875
0, 0, 66, 1318.758666992188
0, 0, 67, 1220.181396484375
0, 0, 68, 1315.3037109375
0, 0, 69, 1324.83740234375
0, 0, 70, 1342.762817382812
0, 0, 71, 1288.474975585938
0, 0, 72, 1314.555419921875
0, 0, 73, 1235.666870117188
0, 0, 74, 1292.233276367188
0, 0, 75, 1295.376098632812
0, 0, 76, 1252.435424804688
0, 0, 77, 1287.506958007812
0, 0, 78, 1314.439453125
0, 0, 79, 1325.23779296875
0, 0, 80, 1262.398071289062
0, 0, 81, 1325.427856445312
0, 0, 82, 1286.951171875
0, 0, 83, 1285.460571289062
0, 0, 84, 1327.505737304688
0, 0, 85, 1231.842407226562
0, 0, 86, 1264.297607421875
0, 0, 87, 1249.083740234375
0, 0, 88, 1260.001708984375
0, 0, 89, 1337.060668945312
0, 0, 90, 1274.14794921875
0, 0, 91, 1354.060546875
0, 0, 92, 1300.125
0, 0, 93, 1273.60498046875
0, 0, 94, 1242.419189453125
0, 0, 95, 1327.425170898438
0, 0, 96, 1285.810180664062
0, 0, 97, 1325.41845703125
0, 0, 98, 1258.906005859375
0, 0, 99, 1254.86328125
0, 0, 100, 1287.208984375
0, 0, 101, 1316.153686523438
0, 0, 102, 1236.271484375
0, 0, 103, 1321.413696289062
0, 0, 104, 1261.990234375
0, 0, 105, 1266.005737304688
0, 0, 106, 1209.634155273438
0, 0, 107, 779.6148071289062
0, 0, 108, 192.6927490234375
0, 0, 109, 66.75830841064453
0, 0, 110, 60.15440368652344
0, 0, 111, 37.7373161315918
0, 0, 112, 33.55116271972656
0, 0, 113, 31.46541786193848
0, 0, 114, 36.34915542602539
0, 0, 115, 27.46509170532227
0, 0, 116, 26.32817077636719
0, 0, 117, 30.5993537902832
0, 0, 118, 28.09365272521973
0, 0, 119, 22.73967552185059
0, 0, 120, 26.46626091003418
0, 0, 121, 29.44506454467773
0, 0, 122, 26.10759735107422
0, 0, 123, 20.58703231811523
0, 0, 124, 21.71661758422852
0, 0, 125, 16.94112205505371
0, 0, 126, 20.45056533813477
0, 0, 127, 18.27352142333984
0, 1, 0, 22.18954277038574
0, 1, 1, 25.009521484375
0, 1, 2, 24.30534553527832
0, 1, 3, 20.16885185241699
0, 1, 4, 22.07756614685059
0, 1, 5, 27.07705688476562
0, 1, 6, 25.63996887207031
0, 1, 7, 23.12645530700684
0, 1, 8, 36.51284027099609
0, 1, 9, 29.21750450134277
0, 1, 10, 38.03499984741211
0, 1, 11, 40.82537078857422
0, 1, 12, 40.90657424926758
0, 1, 13, 45.14411544799805
0, 1, 14, 41.59805297851562
0, 1, 15, 46.37179565429688
0, 1, 16, 56.39450836181641
0, 1, 17, 58.87086486816406
0, 1, 18, 100.2243881225586
0, 1, 19, 401.3545532226562
0, 1, 20, 1039.975463867188
0, 1, 21, 1371.849365234375
0, 1, 22, 1475.379272460938
0, 1, 23, 1458.374145507812
0, 1, 24, 1447.490356445312
0, 1, 25, 1421.312133789062
0, 1, 26, 1471.601440429688
0, 1, 27, 1464.68701171875
0, 1, 28, 1487.820922851562
0, 1, 29, 1477.482421875
0, 1, 30, 1506.93212890625
0, 1, 31, 1481.0478515625
0, 1, 32, 1412.373901367188
0, 1, 33, 1497.017944335938
0, 1, 34, 1496.681274414062
0, 1, 35, 1463.610961914062
0, 1, 36, 1488.332397460938
0, 1, 37, 1404.505981445312
0, 1, 38, 1390.639282226562
0, 1, 39, 1525.570068359375
0, 1, 40, 1462.684814453125
0, 1, 41, 1488.549438476562
0, 1, 42, 1497.45361328125
0, 1, 43, 1500.370727539062
0, 1, 44, 1446.840698242188
0, 1, 45, 1489.573608398438
0, 1, 46, 1420.35693359375
0, 1, 47, 1434.73583984375
0, 1, 48, 1429.45068359375
0, 1, 49, 1488.57421875
0, 1, 50, 1439.044555664062
0, 1, 51, 1477.403198242188
0, 1, 52, 1473.277099609375
0, 1, 53, 1477.026245117188
0, 1, 54, 1504.908447265625
0, 1, 55, 1492.285400390625
0, 1, 56, 1471.194580078125
0, 1, 57, 1456.517822265625
0, 1, 58, 1428.787841796875
0, 1, 59, 1478.814819335938
0, 1, 60, 1464.0830078125
0, 1, 61, 1454.61962890625
0, 1, 62, 1456.46875
0, 1, 63, 1413.821044921875
0, 1, 64, 1478.580688476562
0, 1, 65, 1416.107299804688
0, 1, 66, 1436.827270507812
0, 1, 67, 1454.651123046875
0, 1, 68, 1384.972534179688
0, 1, 69, 1458.508056640625
0, 1, 70, 1426.95556640625
0, 1, 71, 1495.608154296875
0, 1, 72, 1439.24658203125
0, 1, 73, 1490.703002929688
0, 1, 74, 1469.608520507812
0, 1, 75, 1474.607177734375
0, 1, 76, 1454.642944335938
0, 1, 77, 1459.636840820312
0, 1, 78, 1446.80859375
0, 1, 79, 1499.073120117188
0, 1, 80, 1449.235595703125
0, 1, 81, 1421.16943359375
0, 1, 82, 1477.5693359375
0, 1, 83, 1462.10302734375
0, 1, 84, 1536.661376953125
0, 1, 85, 1451.314453125
0, 1, 86, 1403.748046875
0, 1, 87, 1422.668334960938
0, 1, 88, 1469.203125
0, 1, 89, 1472.790161132812
0, 1, 90, 1425.198974609375
0, 1, 91, 1464.78125
0, 1, 92, 1407.579711914062
0, 1, 93, 1459.67138671875
0, 1, 94, 1465.632202148438
0, 1, 95, 1426.5439453125
0, 1, 96, 1499.118896484375
0, 1, 97, 1519.085327148438
0, 1, 98, 1473.735595703125
0, 1, 99, 1422.34619140625
0, 1, 100, 1449.880249023438
0, 1, 101, 1413.950927734375
0, 1, 102, 1446.296875
0, 1, 103, 1410.221801757812
0, 1, 104, 1408.426147460938
0, 1, 105, 1466.01025390625
0, 1, 106, 1362.036010742188
0, 1, 107, 1015.959533691406
0, 1, 108, 405.9463500976562
0, 1, 109, 94.50673675537109
0, 1, 110, 60.18095397949219
0, 1, 111, 53.29597473144531
0, 1, 112, 46.09320831298828
0, 1, 113, 37.93299102783203
0, 1, 114, 34.91989517211914
0, 1, 115, 39.06407928466797
0, 1, 116, 40.35569000244141
0, 1, 117, 37.53920364379883
0, 1, 118, 37.35099792480469
0, 1, 119, 32.17626571655273
0, 1, 120, 30.66413879394531
0, 1, 121, 28.88101577758789
0, 1, 122, 22.86492919921875
0, 1, 123, 23.76522254943848
0, 1, 124, 33.36772918701172
0, 1, 125, 25.02230262756348
0, 1, 126, 15.82929611206055
0, 1, 127, 23.30511665344238
0, 2, 0, 13.37300395965576
0, 2, 1, 23.05970191955566
0, 2, 2, 24.01782417297363
0, 2, 3, 29.9534854888916
0, 2, 4, 20.77161979675293
0, 2, 5, 22.9063549041748
0, 2, 6, 19.95853233337402
0, 2, 7, 21.46795272827148
0, 2, 8, 30.30263328552246
0, 2, 9, 32.93428421020508
0, 2, 10, 29.38094329833984
0, 2, 11, 35.96052169799805
0, 2, 12, 40.20034408569336
0, 2, 13, 44.35294723510742
0, 2, 14, 50.27746963500977
0, 2, 15, 48.53476333618164
0, 2, 16, 62.98904418945312
0, 2, 17, 81.56005096435547
0, 2, 18, 150.0830993652344
0, 2, 19, 609.04833984375
0, 2, 20, 1283.269409179688
0, 2, 21, 1438.176513671875
0, 2, 22, 1459.771484375
0, 2, 23, 1405.70263671875
0, 2, 24, 1437.119018554688
0, 2, 25, 1522.68212890625
0, 2, 26, 1554.55029296875
0, 2, 27, 1458.024291992188
0, 2, 28, 1465.257446289062
0, 2, 29, 1461.2998046875
0, 2, 30, 1461.31005859375
0, 2, 31, 1531.298217773438
0, 2, 32, 1511.058959960938
0, 2, 33, 1440.72705078125
0, 2, 34, 1478.43408203125
0, 2, 35, 1475.352783203125
0, 2, 36, 1527.2216796875
0, 2, 37, 1540.1298828125
0, 2, 38, 1507.064697265625
0, 2, 39, 1461.250122070312
0, 2, 40, 1498.165161132812
0, 2, 41, 1517.923706054688
0, 2, 42, 1507.252075195312
0, 2, 43, 1547.951538085938
0, 2, 44, 1460.469116210938
0, 2, 45, 1477.734741210938
0, 2, 46, 1425.761108398438
0, 2, 47, 1444.955078125
0, 2, 48, 1397.415649414062
0, 2, 49, 1462.098999023438
0, 2, 50, 1443.0576171875
0, 2, 51, 1450.634765625
0, 2, 52, 1493.529296875
0, 2, 53, 1520.064086914062
0, 2, 54, 1523.814086914062
0, 2, 55, 1494.745971679688
0, 2, 56, 1463.444946289062
0, 2, 57, 1413.837646484375
0, 2, 58, 1455.650512695312
0, 2, 59, 1448.406127929688
0, 2, 60, 1471.165771484375
0, 2, 61, 1445.547607421875
0, 2, 62, 1475.577026367188
0, 2, 63, 1503.360961914062
0, 2, 64, 1466.649291992188
0, 2, 65, 1427.239990234375
0, 2, 66, 1487.519653320312
0, 2, 67, 1508.708862304688
0, 2, 68, 1544.118896484375
0, 2, 69, 1543.619506835938
0, 2, 70, 1514.329345703125
0, 2, 71, 1469.449584960938
0, 2, 72, 1515.307983398438
0, 2, 73, 1516.456909179688
0, 2, 74, 1494.4404296875
0, 2, 75, 1505.836669921875
0, 2, 76, 1450.278076171875
0, 2, 77, 1504.98876953125
0, 2, 78, 1431.667846679688
0, 2, 79, 1538.630737304688
0, 2, 80, 1479.303344726562
0, 2, 81, 1466.6396484375
0, 2, 82, 1556.908935546875
0, 2, 83, 1515.160766601562
0, 2, 84, 1495.931884765625
0, 2, 85, 1510.555297851562
0, 2, 86, 1543.228637695312
0, 2, 87, 1487.037475585938
0, 2, 88, 1537.034301757812
0, 2, 89, 1468.060180664062
0, 2, 90, 1427.770141601562
0, 2, 91, 1406.612670898438
0, 2, 92, 1473.3818359375
0, 2, 93, 1493.271484375
0, 2, 94, 1456.655517578125
0, 2, 95, 1545.575927734375
0, 2, 96, 1515.465942382812
0, 2, 97, 1457.71826171875
0, 2, 98, 1465.42236328125
0, 2, 99, 1403.490844726562
0, 2, 100, 1471.74755859375
0, 2, 101, 1482.780395507812
0, 2, 102, 1458.95068359375
0, 2, 103, 1384.702026367188
0, 2, 104, 1409.004272460938
0, 2, 105, 1394.911499023438
0, 2, 106, 1456.946044921875
0, 2, 107, 1275.58642578125
0, 2, 108, 616.5369873046875
0, 2, 109, 168.1201324462891
0, 2, 110, 72.64319610595703
0, 2, 111, 58.24610900878906
0, 2, 112, 46.98180389404297
0, 2, 113, 43.96464538574219
0, 2, 114, 36.26198959350586
0, 2, 115, 45.71969223022461
0, 2, 116, 36.80229187011719
0, 2, 117, 34.89853286743164
0, 2, 118, 32.08543395996094
0, 2, 119, 34.71332168579102
0, 2, 120, 27.99224853515625
0, 2, 121, 20.94741630554199
0, 2, 122, 27.94256210327148
0, 2, 123, 27.19126510620117
0, 2, 124, 26.28243064880371
0, 2, 125, 29.83791923522949
0, 2, 126, 19.45603179931641
0, 2, 127, 26.61487770080566
0, 3, 0, 20.78402519226074
0, 3, 1, 24.76785278320312
0, 3, 2, 20.84591293334961
0, 3, 3, 20.55278015136719
0, 3, 4, 15.48944759368896
0, 3, 5, 26.03660202026367
0, 3, 6, 31.71685791015625
0, 3, 7, 30.14653205871582
0, 3, 8, 32.6323356628418
0, 3, 9, 29.04276466369629
0, 3, 10, 36.93093490600586
0, 3, 11, 34.09957122802734
0, 3, 12, 44.09761047363281
0, 3, 13, 49.87464141845703
0, 3, 14, 60.48899841308594
0, 3, 15, 52.86381149291992
0, 3, 16, 71.45224761962891
0, 3, 17, 93.10905456542969
0, 3, 18, 240.6748352050781
0, 3, 19, 881.7051391601562
0, 3, 20, 1387.127807617188
0, 3, 21, 1505.671752929688
0, 3, 22, 1463.85546875
0, 3, 23, 1450.60791015625
0, 3, 24, 1446.250610351562
0, 3, 25, 1463.42236328125
0, 3, 26, 1497.19921875
0, 3, 27, 1466.111572265625
0, 3, 28, 1491.006469726562
0, 3, 29, 1545.470825195312
0, 3, 30, 1573.281616210938
0, 3, 31, 1513.052612304688
0, 3, 32, 1555.50927734375
0, 3, 33, 1540.854370117188
0, 3, 34, 1490.802856445312
0, 3, 35, 1464.82470703125
0, 3, 36, 1451.218139648438
0, 3, 37, 1512.275756835938
0, 3, 38, 1516.764038085938
0, 3, 39, 1445.683959960938
0, 3, 40, 1442.188232421875
0, 3, 41, 1559.900390625
0, 3, 42, 1460.332885742188
0, 3, 43, 1458.360595703125
0, 3, 44, 1448.958374023438
0, 3, 45, 1505.340698242188
0, 3, 46, 1509.037231445312
0, 3, 47, 1444.524780273438
0, 3, 48, 1512.52490234375
0, 3, 49, 1456.854370117188
0, 3, 50, 1488.828002929688
0, 3, 51, 1534.040283203125
0, 3, 52, 1536.877075195312
0, 3, 53, 1472.37890625
0, 3, 54, 1542.418579101562
0, 3, 55, 1504.094482421875
0, 3, 56, 1436.57421875
0, 3, 57, 1500.327880859375
0, 3, 58, 1512.432250976562
0, 3, 59, 1507.655395507812
0, 3, 60, 1539.302124023438
0, 3, 61, 1482.672119140625
0, 3, 62, 1495.813598632812
0, 3, 63, 1493.189819335938
0, 3, 64, 1501.4794921875
0, 3, 65, 1514.152099609375
0, 3, 66, 1553.093872070312
0, 3, 67, 1551.923461914062
0, 3, 68, 1449.200927734375
0, 3, 69, 1458.981811523438
0, 3, 70, 1390.489990234375
0, 3, 71, 1462.882934570312
0, 3, 72, 1552.087036132812
0, 3, 73, 1499.626342773438
0, 3, 74, 1458.699340820312
0, 3, 75, 1464.258422851562
0, 3, 76, 1570.9990234375
0, 3, 77, 1541.475708007812
0, 3, 78, 1427.657104492188
0, 3, 79, 1492.92529296875
0, 3, 80, 1462.45849609375
0, 3, 81, 1479.172241210938
0, 3, 82, 1556.88720703125
0, 3, 83, 1511.165283203125
0, 3, 84, 1564.630859375
0, 3, 85, 1476.906005859375
0, 3, 86, 1525.772827148438
0, 3, 87, 1541.1591796875
0, 3, 88, 1455.602294921875
0, 3, 89, 1452.47607421875
0, 3, 90, 1449.466674804688
0, 3, 91, 1421.8837890625
0, 3, 92, 1513.740600585938
0, 3, 93, 1503.448120117188
0, 3, 94, 1514.390380859375
0, 3, 95, 1547.396728515625
0, 3, 96, 1522.264282226562
0, 3, 97, 1467.760498046875
0, 3, 98, 1435.425048828125
0, 3, 99, 1462.803344726562
0, 3, 100, 1465.229370117188
0, 3, 101, 1477.985473632812
0, 3, 102, 1523.182250976562
0, 3, 103, 1558.689575195312
0, 3, 104, 1500.340942382812
0, 3, 105, 1517.875854492188
0, 3, 106, 1483.994995117188
0, 3, 107, 1337.566284179688
0, 3, 108, 875.0375366210938
0, 3, 109, 264.6618957519531
0, 3, 110, 103.3362884521484
0, 3, 111, 61.5881462097168
0, 3, 112, 58.26088333129883
0, 3, 113, 53.44328308105469
0, 3, 114, 46.35727691650391
0, 3, 115, 50.49571228027344
0, 3, 116, 42.51927947998047
0, 3, 117, 37.76945495605469
0, 3, 118, 32.39596939086914
0, 3, 119, 29.1862907409668
0, 3, 120, 23.88196182250977
0, 3, 121, 18.54449653625488
0, 3, 122, 24.89497184753418
0, 3, 123, 23.60537528991699
0, 3, 124, 21.43556785583496
0, 3, 125, 25.44582557678223
0, 3, 126, 24.03525924682617
0, 3, 127, 20.37043762207031
0, 4, 0, 19.98240661621094
0, 4, 1, 28.44108772277832
0, 4, 2, 18.15926933288574
0, 4, 3, 22.84070587158203
0, 4, 4, 27.37845802307129
0, 4, 5, 29.90200996398926
0, 4, 6, 28.20040321350098
0, 4, 7, 29.84310913085938
0, 4, 8, 30.36871719360352
0, 4, 9, 36.95452117919922
0, 4, 10, 31.79390525817871
0, 4, 11, 37.27480316162109
0, 4, 12, 49.24526596069336
0, 4, 13, 53.04495620727539
0, 4, 14, 52.33735656738281
0, 4, 15, 59.20386123657227
0, 4, 16, 77.61997222900391
0, 4, 17, 114.4817810058594
0, 4, 18, 452.1910400390625
0, 4, 19, 1182.646240234375
0, 4, 20, 1440.731567382812
0, 4, 21, 1419.201416015625
0, 4, 22, 1432.724365234375
0, 4, 23, 1453.831176757812
0, 4, 24, 1475.337524414062
0, 4, 25, 1403.038940429688
0, 4, 26, 1536.857055664062
0, 4, 27, 1551.889892578125
0, 4, 28, 1503.876220703125
0, 4, 29, 1515.047241210938
0, 4, 30, 1522.8505859375
0, 4, 31, 1579.60400390625
0, 4, 32, 1516.514526367188
0, 4, 33, 1493.524658203125
0, 4, 34, 1469.537231445312
0, 4, 35, 1563.235107421875
0, 4, 36, 1500.244506835938
0, 4, 37, 1515.374633789062
0, 4, 38, 1530.55810546875
0, 4, 39, 1471.197387695312
0, 4, 40, 1519.068725585938
0, 4, 41, 1589.970947265625
0, 4, 42, 1560.163940429688
0, 4, 43, 1472.119873046875
0, 4, 44, 1495.500244140625
0, 4, 45, 1523.421020507812
0, 4, 46, 1468.046264648438
0, 4, 47, 1502.217041015625
0, 4, 48, 1529.678833007812
0, 4, 49, 1465.493408203125
0, 4, 50, 1518.194946289062
0, 4, 51, 1491.542846679688
0, 4, 52, 1492.913208007812
0, 4, 53, 1450.852416992188
0, 4, 54, 1441.236328125
0, 4, 55, 1523.541015625
0, 4, 56, 1455.741821289062
0, 4, 57, 1497.934204101562
0, 4, 58, 1460.688354492188
0, 4, 59, 1467.408813476562
0, 4, 60, 1526.914428710938
0, 4, 61, 1498.121948242188
0, 4, 62, 1502.761596679688
0, 4, 63, 1547.321533203125
0, 4, 64, 1598.267456054688
0, 4, 65, 1426.5751953125
0, 4, 66, 1510.736694335938
0, 4, 67, 1518.9677734375
0, 4, 68, 1501.026245117188
0, 4, 69, 1472.667358398438
0, 4, 70, 1545.580810546875
0, 4, 71, 1519.960571289062
0, 4, 72, 1526.441772460938
0, 4, 73, 1496.89208984375
0, 4, 74, 1482.289184570312
0, 4, 75, 1534.531860351562
0, 4, 76, 1482.5380859375
0, 4, 77, 1500.938110351562
0, 4, 78, 1500.6337890625
0, 4, 79, 1481.860595703125
0, 4, 80, 1516.33740234375
0, 4, 81, 1527.406005859375
0, 4, 82, 1569.841064453125
0, 4, 83, 1499.1591796875
0, 4, 84, 1533.100952148438
0, 4, 85, 1548.072509765625
0, 4, 86, 1527.808471679688
0, 4, 87, 1493.888549804688
0, 4, 88, 1512.509033203125
0, 4, 89, 1483.170043945312
0, 4, 90, 1542.832275390625
0, 4, 91, 1559.009155273438
0, 4, 92, 1491.740844726562
0, 4, 93, 1515.781860351562
0, 4, 94, 1483.264038085938
0, 4, 95, 1514.613525390625
0, 4, 96, 1442.970092773438
0, 4, 97, 1412.861572265625
0, 4, 98, 1555.407104492188
0, 4, 99, 1510.076782226562
0, 4, 100, 1489.630126953125
0, 4, 101, 1451.622314453125
0, 4, 102, 1446.446411132812
0, 4, 103, 1518.195678710938
0, 4, 104, 1506.122314453125
0, 4, 105, 1558.278076171875
0, 4, 106, 1475.757690429688
0, 4, 107, 1454.357666015625
0, 4, 108, 1121.449829101562
0, 4, 109, 434.1570434570312
0, 4, 110, 94.90200042724609
0, 4, 111, 72.99697875976562
0, 4, 112, 60.08743286132812
0, 4, 113, 51.62364196777344
0, 4, 114, 53.54368209838867
0, 4, 115, 41.84835052490234
0, 4, 116, 35.62359237670898
0, 4, 117, 39.90202713012695
0, 4, 118, 39.38845825195312
0, 4, 119, 37.35981369018555
0, 4, 120, 34.64966201782227
0, 4, 121, 25.99486541748047
0, 4, 122, 31.48880004882812
0, 4, 123, 35.13214111328125
0, 4, 124, 25.33318901062012
0, 4, 125, 31.08868217468262
0, 4, 126, 22.20969581604004
0, 4, 127, 21.44168090820312
0, 5, 0, 19.39990997314453
0, 5, 1, 26.28700828552246
0, 5, 2, 32.33591079711914
0, 5, 3, 26.10210990905762
0, 5, 4, 19.3211555480957
0, 5, 5, 41.47515106201172
0, 5, 6, 32.41256332397461
0, 5, 7, 29.75389862060547
0, 5, 8, 31.30792236328125
0, 5, 9, 29.77698135375977
0, 5, 10, 31.33168029785156
0, 5, 11, 37.2362174987793
0, 5, 12, 44.13440704345703
0, 5, 13, 47.71990966796875
0, 5, 14, 60.98923110961914
0, 5, 15, 77.6544189453125
0, 5, 16, 82.29469299316406
0, 5, 17, 157.0239105224609
0, 5, 18, 674.1788940429688
0, 5, 19, 1344.424194335938
0, 5, 20, 1527.17822265625
0, 5, 21, 1494.585693359375
0, 5, 22, 1502.047119140625
0, 5, 23, 1531.795166015625
0, 5, 24, 1468.319091796875
0, 5, 25, 1428.636962890625
0, 5, 26, 1528.453857421875
0, 5, 27, 1538.031127929688
0, 5, 28, 1480.50439453125
0, 5, 29, 1521.546997070312
0, 5, 30, 1494.685546875
0, 5, 31, 1503.330444335938
0, 5, 32, 1591.142700195312
0, 5, 33, 1500.3984375
0, 5, 34, 1488.1357421875
0, 5, 35, 1510.590087890625
0, 5, 36, 1441.43017578125
0, 5, 37, 1530.2783203125
0, 5, 38, 1550.182861328125
0, 5, 39, 1548.762939453125
0, 5, 40, 1506.6337890625
0, 5, 41, 1482.0654296875
0, 5, 42, 1540.335083007812
0, 5, 43, 1534.043579101562
0, 5, 44, 1540.047973632812
0, 5, 45, 1510.955444335938
0, 5, 46, 1486.524169921875
0, 5, 47, 1481.006103515625
0, 5, 48, 1501.963500976562
0, 5, 49, 1522.603149414062
0, 5, 50, 1503.905883789062
0, 5, 51, 1515.087524414062
0, 5, 52, 1430.144653320312
0, 5, 53, 1522.063720703125
0, 5, 54, 1520.184936523438
0, 5, 55, 1523.636962890625
0, 5, 56, 1485.873291015625
0, 5, 57, 1540.977783203125
0, 5, 58, 1510.432250976562
0, 5, 59, 1487.006958007812
0, 5, 60, 1539.30712890625
0, 5, 61, 1450.580688476562
0, 5, 62, 1581.89013671875
0, 5, 63, 1433.33935546875
0, 5, 64, 1484.953735351562
0, 5, 65, 1468.509521484375
0, 5, 66, 1525.138671875
0, 5, 67, 1559.465942382812
0, 5, 68, 1464.947387695312
0, 5, 69, 1477.62841796875
0, 5, 70, 1488.797973632812
0, 5, 71, 1476.440063476562
0, 5, 72, 1537.128295898438
0, 5, 73, 1461.296997070312
0, 5, 74, 1494.17431640625
0, 5, 75, 1488.496826171875
0, 5, 76, 1479.5419921875
0, 5, 77, 1521.056518554688
0, 5, 78, 1524.2265625
0, 5, 79, 1510.978759765625
0, 5, 80, 1517.812622070312
0, 5, 81, 1592.996337890625
0, 5, 82, 1521.984252929688
0, 5, 83, 1489.41552734375
0, 5, 84, 1531.242919921875
0, 5, 85, 1514.219970703125
0, 5, 86, 1554.935302734375
0, 5, 87, 1472.504516601562
0, 5, 88, 1498.0263671875
0, 5, 89, 1480.904541015625
0, 5, 90, 1482.153686523438
0, 5, 91, 1557.387329101562
0, 5, 92, 1476.00732421875
0, 5, 93, 1558.47021484375
0, 5, 94, 1509.073974609375
0, 5, 95, 1559.392211914062
0, 5, 96, 1499.217041015625
0, 5, 97, 1506.882202148438
0, 5, 98, 1509.2626953125
0, 5, 99, 1542.3046875
0, 5, 100, 1438.740844726562
0, 5, 101, 1436.142700195312
0, 5, 102, 1516.726928710938
0, 5, 103, 1476.709594726562
0, 5, 104, 1458.319702148438
0, 5, 105, 1496.42529296875
0, 5, 106, 1456.43603515625
0, 5, 107, 1402.206420898438
0, 5, 108, 1293.211181640625
0, 5, 109, 726.5775756835938
0, 5, 110, 200.2301025390625
0, 5, 111, 93.86354064941406
0, 5, 112, 76.95343780517578
0, 5, 113, 69.49168395996094
0, 5, 114, 65.62356567382812
0, 5, 115, 48.27680969238281
0, 5, 116, 45.25650405883789
0, 5, 117, 36.00613021850586
0, 5, 118, 37.34518814086914
0, 5, 119, 31.15307235717773
0, 5, 120, 26.80790519714355
0, 5, 121, 19.51382064819336
0, 5, 122, 28.9113883972168
0, 5, 123, 28.68511772155762
0, 5, 124, 21.27587890625
0, 5, 125, 29.53807640075684
0, 5, 126, 25.98630714416504
0, 5, 127, 23.12331581115723
0, 6, 0, 17.84965896606445
0, 6, 1, 30.79513549804688
0, 6, 2, 28.14860534667969
0, 6, 3, 28.94239234924316
0, 6, 4, 24.92774963378906
0, 6, 5, 40.95369338989258
0, 6, 6, 37.02351760864258
0, 6, 7, 31.67454528808594
0, 6, 8, 33.39672088623047
0, 6, 9, 38.60333633422852
0, 6, 10, 35.92190933227539
0, 6, 11, 40.25810241699219
0, 6, 12, 39.69496154785156
0, 6, 13, 55.82145690917969
0, 6, 14, 64.44167327880859
0, 6, 15, 85.35908508300781
0, 6, 16, 111.0315093994141
0, 6, 17, 299.9975280761719
0, 6, 18, 897.384765625
0, 6, 19, 1371.457885742188
0, 6, 20, 1440.262573242188
0, 6, 21, 1527.3330078125
0, 6, 22, 1505.856323242188
0, 6, 23, 1528.337158203125
0, 6, 24, 1478.816040039062
0, 6, 25, 1525.666259765625
0, 6, 26, 1514.175170898438
0, 6, 27, 1519.9150390625
0, 6, 28, 1548.487548828125
0, 6, 29, 1566.697998046875
0, 6, 30, 1511.940795898438
0, 6, 31, 1497.691772460938
0, 6, 32, 1525.37255859375
0, 6, 33, 1492.034301757812
0, 6, 34, 1566.660522460938
0, 6, 35, 1507.340576171875
0, 6, 36, 1438.890258789062
0, 6, 37, 1548.24267578125
0, 6, 38, 1522.619995117188
0, 6, 39, 1517.067993164062
0, 6, 40, 1456.107177734375
0, 6, 41, 1437.69921875
0, 6, 42, 1514.70556640625
0, 6, 43, 1488.675415039062
0, 6, 44, 1429.698486328125
0, 6, 45, 1548.929565429688
0, 6, 46, 1559.90966796875
0, 6, 47, 1496.9208984375
0, 6, 48, 1522.333374023438
0, 6, 49, 1510.808349609375
0, 6, 50, 1577.243041992188
0, 6, 51, 1509.424194335938
0, 6, 52, 1563.037963867188
0, 6, 53, 1476.395874023438
0, 6, 54, 1499.6640625
0, 6, 55, 1572.933959960938
0, 6, 56, 1524.078369140625
0, 6, 57, 1506.904541015625
0, 6, 58, 1469.533447265625
0, 6, 59, 1519.265502929688
0, 6, 60, 1472.268432617188
0, 6, 61, 1573.14599609375
0, 6, 62, 1546.212036132812
0, 6, 63, 1494.036987304688
0, 6, 64, 1409.998657226562
0, 6, 65, 1491.81494140625
0, 6, 66, 1510.467651367188
0, 6, 67, 1509.798706054688
0, 6, 68, 1549.782470703125
0, 6, 69, 1488.290283203125
0, 6, 70, 1528.01416015625
0, 6, 71, 1464.042236328125
0, 6, 72, 1592.626098632812
0, 6, 73, 1494.104736328125
0, 6, 74, 1555.6923828125
0, 6, 75, 1538.371826171875
0, 6, 76, 1566.4990234375
0, 6, 77, 1507.809814453125
0, 6, 78, 1452.476196289062
0, 6, 79, 1553.833740234375
0, 6, 80, 1482.049560546875
0, 6, 81, 1484.584106445312
0, 6, 82, 1502.123168945312
0, 6, 83, 1521.316650390625
0, 6, 84, 1520.23974609375
0, 6, 85, 1535.148681640625
0, 6, 86, 1538.7158203125
0, 6, 87, 1570.589965820312
0, 6, 88, 1480.419555664062
0, 6, 89, 1566.63134765625
0, 6, 90, 1488.57080078125
0, 6, 91, 1537.775634765625
0, 6, 92, 1488.254028320312
0, 6, 93, 1501.59912109375
0, 6, 94, 1473.23486328125
0, 6, 95, 1505.7734375
0, 6, 96, 1519.656494140625
0, 6, 97, 1501.857055664062
0, 6, 98, 1496.909912109375
0, 6, 99, 1481.370849609375
0, 6, 100, 1518.858764648438
0, 6, 101, 1514.432006835938
0, 6, 102, 1537.364501953125
0, 6, 103, 1494.614135742188
0, 6, 104, 1468.994262695312
0, 6, 105, 1484.83251953125
0, 6, 106, 1491.417358398438
0, 6, 107, 1511.787963867188
0, 6, 108, 1410.961669921875
0, 6, 109, 924.4368896484375
0, 6, 110, 284.9522399902344
0, 6, 111, 97.09658050537109
0, 6, 112, 74.05568695068359
0, 6, 113, 56.53999710083008
0, 6, 114, 56.99856567382812
0, 6, 115, 46.16369247436523
0, 6, 116, 44.21188735961914
0, 6, 117, 35.40222549438477
0, 6, 118, 36.05853652954102
0, 6, 119, 30.89913177490234
0, 6, 120, 35.14139938354492
0, 6, 121, 31.98209381103516
0, 6, 122, 30.42476463317871
0, 6, 123, 25.17489433288574
0, 6, 124, 32.51962661743164
0, 6, 125, 30.12468910217285
0, 6, 126, 22.06890869140625
0, 6, 127, 25.13748931884766
0, 7, 0, 23.78814888000488
0, 7, 1, 28.42422866821289
0, 7, 2, 25.06012535095215
0, 7, 3, 26.83010482788086
0, 7, 4, 20.76826477050781
0, 7, 5, 35.53115844726562
0, 7, 6, 29.27520561218262
0, 7, 7, 32.8386116027832
0, 7, 8, 31.91132164001465
0, 7, 9, 35.36104965209961
0, 7, 10, 43.8985710144043
0, 7, 11, 47.79557037353516
0, 7, 12, 39.46561813354492
0, 7, 13, 48.3081169128418
0, 7, 14, 57.68830108642578
0, 7, 15, 77.70001220703125
0, 7, 16, 133.5001983642578
0, 7, 17, 460.6153259277344
0, 7, 18, 1100.329223632812
0, 7, 19, 1495.781005859375
0, 7, 20, 1483.0048828125
0, 7, 21, 1364.66748046875
0, 7, 22, 1484.850708007812
0, 7, 23, 1455.804321289062
0, 7, 24, 1512.956787109375
0, 7, 25, 1596.457641601562
0, 7, 26, 1521.389404296875
0, 7, 27, 1508.372802734375
0, 7, 28, 1546.000732421875
0, 7, 29, 1577.146362304688
0, 7, 30, 1546.09716796875
0, 7, 31, 1436.155029296875
0, 7, 32, 1546.503662109375
0, 7, 33, 1491.637573242188
0, 7, 34, 1479.921264648438
0, 7, 35, 1521.991577148438
0, 7, 36, 1473.767456054688
0, 7, 37, 1602.427978515625
0, 7, 38, 1501.80810546875
0, 7, 39, 1485.284057617188
0, 7, 40, 1538.968383789062
0, 7, 41, 1465.402954101562
0, 7, 42, 1488.971557617188
0, 7, 43, 1449.561889648438
0, 7, 44, 1488.583374023438
0, 7, 45, 1472.6474609375
0, 7, 46, 1506.91455078125
0, 7, 47, 1563.500854492188
0, 7, 48, 1522.917724609375
0, 7, 49, 1538.719970703125
0, 7, 50, 1514.977783203125
0, 7, 51, 1497.244995117188
0, 7, 52, 1516.542846679688
0, 7, 53, 1496.568969726562
0, 7, 54, 1584.183471679688
0, 7, 55, 1471.247192382812
0, 7, 56, 1551.577026367188
0, 7, 57, 1513.974609375
0, 7, 58, 1549.754516601562
0, 7, 59, 1540.5810546875
0, 7, 60, 1546.146240234375
0, 7, 61, 1496.609741210938
0, 7, 62, 1439.733764648438
0, 7, 63, 1513.171875
0, 7, 64, 1547.056274414062
0, 7, 65, 1529.87451171875
0, 7, 66, 1533.913330078125
0, 7, 67, 1583.549682617188
0, 7, 68, 1530.460693359375
0, 7, 69, 1511.2666015625
0, 7, 70, 1498.393798828125
0, 7, 71, 1526.780151367188
0, 7, 72, 1525.583129882812
0, 7, 73, 1518.0458984375
0, 7, 74, 1574.377563476562
0, 7, 75, 1536.89697265625
0, 7, 76, 1554.02099609375
0, 7, 77, 1511.731323242188
0, 7, 78, 1509.135498046875
0, 7, 79, 1427.722900390625
0, 7, 80, 1491.826049804688
0, 7, 81, 1497.318603515625
0, 7, 82, 1534.134155273438
0, 7, 83, 1543.638793945312
0, 7, 84, 1585.136108398438
0, 7, 85, 1474.61083984375
0, 7, 86, 1506.99267578125
0, 7, 87, 1504.699584960938
0, 7, 88, 1501.094604492188
0, 7, 89, 1557.26025390625
0, 7, 90, 1519.201171875
0, 7, 91, 1565.960815429688
0, 7, 92, 1529.953002929688
0, 7, 93, 1554.221435546875
0, 7, 94, 1536.410400390625
0, 7, 95, 1505.47021484375
0, 7, 96, 1504.75732421875
0, 7, 97, 1435.6171875
0, 7, 98, 1482.88623046875
0, 7, 99, 1524.44091796875
0, 7, 100, 1423.445556640625
0, 7, 101, 1470.913940429688
0, 7, 102, 1450.854125976562
0, 7, 103, 1433.80712890625
0, 7, 104, 1492.469604492188
0, 7, 105, 1523.848876953125
0, 7, 106, 1563.25830078125
0, 7, 107, 1479.471557617188
0, 7, 108, 1409.02294921875
0, 7, 109, 1148.038696289062
0, 7, 110, 477.6342163085938
0, 7, 111, 129.0641632080078
0, 7, 112, 75.91290283203125
0, 7, 113, 66.96185302734375
0, 7, 114, 55.97468948364258
0, 7, 115, 48.74765396118164
0, 7, 116, 42.48859786987305
0, 7, 117, 42.27136611938477
0, 7, 118, 35.62618637084961
0, 7, 119, 37.79335403442383
0, 7, 120, 30.39884185791016
0, 7, 121, 28.85272026062012
0, 7, 122, 32.14851379394531
0, 7, 123, 34.96659088134766
0, 7, 124, 31.01814460754395
0, 7, 125, 21.50251579284668
0, 7, 126, 18.74469566345215
0, 7, 127, 23.54476547241211
0, 8, 0, 21.87815475463867
0, 8, 1, 24.55527305603027
0, 8, 2, 24.46928024291992
0, 8, 3, 26.1299991607666
0, 8, 4, 26.38997650146484
0, 8, 5, 31.5581169128418
0, 8, 6, 32.13185119628906
0, 8, 7, 29.04853248596191
0, 8, 8, 33.10301971435547
0, 8, 9, 44.31344604492188
0, 8, 10, 41.33375549316406
0, 8, 11, 42.83636474609375
0, 8, 12, 58.69139099121094
0, 8, 13, 70.586181640625
0, 8, 14, 71.84104919433594
0, 8, 15, 88.14820861816406
0, 8, 16, 167.9682922363281
0, 8, 17, 676.3468627929688
0, 8, 18, 1278.462768554688
0, 8, 19, 1450.83154296875
0, 8, 20, 1420.449462890625
0, 8, 21, 1408.975219726562
0, 8, 22, 1488.813354492188
0, 8, 23, 1480.387939453125
0, 8, 24, 1440.061889648438
0, 8, 25, 1462.108642578125
0, 8, 26, 1509.457885742188
0, 8, 27, 1522.234375
0, 8, 28, 1476.734619140625
0, 8, 29, 1509.125244140625
0, 8, 30, 1488.434692382812
0, 8, 31, 1539.4619140625
0, 8, 32, 1510.396484375
0, 8, 33, 1475.916870117188
0, 8, 34, 1538.24609375
0, 8, 35, 1441.436767578125
0, 8, 36, 1496.150512695312
0, 8, 37, 1553.819213867188
0, 8, 38, 1547.337890625
0, 8, 39, 1497.09326171875
0, 8, 40, 1528.640502929688
0, 8, 41, 1478.659301757812
0, 8, 42, 1533.121948242188
0, 8, 43, 1438.645263671875
0, 8, 44, 1535.59912109375
0, 8, 45, 1513.84765625
0, 8, 46, 1590.874633789062
0, 8, 47, 1583.327758789062
