# TOPAS Version: 3.1.p3
# Parameter File: batch_inserts_46.txt
# Results for scorer Readout_Adipose
# Scored in component: MyBox
# X in 1 bin  of 0.75 cm
# Y in 512 bins of 0.0783984 cm
# Z in 128 bins of 0.078125 cm
# EnergyDeposit ( MeV ) : Sum   
0, 0, 0, 3.444833517074585
0, 0, 1, 1.507182836532593
0, 0, 2, 4.317709445953369
0, 0, 3, 1.83367657661438
0, 0, 4, 3.770708084106445
0, 0, 5, 3.314098834991455
0, 0, 6, 7.960655689239502
0, 0, 7, 11.91704559326172
0, 0, 8, 3.642195463180542
0, 0, 9, 3.175039529800415
0, 0, 10, 7.087428569793701
0, 0, 11, 4.47052526473999
0, 0, 12, 5.67032527923584
0, 0, 13, 5.084146976470947
0, 0, 14, 6.862784862518311
0, 0, 15, 9.9696044921875
0, 0, 16, 8.512611389160156
0, 0, 17, 10.00035953521729
0, 0, 18, 12.54851722717285
0, 0, 19, 45.96023941040039
0, 0, 20, 140.8665924072266
0, 0, 21, 223.1341400146484
0, 0, 22, 249.4655151367188
0, 0, 23, 255.9147338867188
0, 0, 24, 250.1780090332031
0, 0, 25, 259.8257751464844
0, 0, 26, 237.1582183837891
0, 0, 27, 238.3933715820312
0, 0, 28, 271.5716247558594
0, 0, 29, 252.8171081542969
0, 0, 30, 229.4706420898438
0, 0, 31, 245.5107116699219
0, 0, 32, 266.8517761230469
0, 0, 33, 261.2062072753906
0, 0, 34, 287.4190368652344
0, 0, 35, 266.1376342773438
0, 0, 36, 247.493408203125
0, 0, 37, 253.7240142822266
0, 0, 38, 267.7453918457031
0, 0, 39, 230.0059204101562
0, 0, 40, 243.3172302246094
0, 0, 41, 265.6685791015625
0, 0, 42, 228.6136932373047
0, 0, 43, 258.9560241699219
0, 0, 44, 251.4276580810547
0, 0, 45, 252.7882843017578
0, 0, 46, 245.5890045166016
0, 0, 47, 253.2845306396484
0, 0, 48, 270.0370178222656
0, 0, 49, 274.9429321289062
0, 0, 50, 250.7675476074219
0, 0, 51, 253.0130157470703
0, 0, 52, 276.4864196777344
0, 0, 53, 291.3463134765625
0, 0, 54, 241.9114379882812
0, 0, 55, 240.8498077392578
0, 0, 56, 277.5932006835938
0, 0, 57, 264.2787780761719
0, 0, 58, 248.0374755859375
0, 0, 59, 270.9147644042969
0, 0, 60, 235.7162628173828
0, 0, 61, 244.9453735351562
0, 0, 62, 259.0765075683594
0, 0, 63, 269.1558227539062
0, 0, 64, 256.8829650878906
0, 0, 65, 262.1720886230469
0, 0, 66, 276.6124877929688
0, 0, 67, 246.7791442871094
0, 0, 68, 259.8280029296875
0, 0, 69, 261.5098266601562
0, 0, 70, 272.88671875
0, 0, 71, 237.7221527099609
0, 0, 72, 249.9599609375
0, 0, 73, 260.1869812011719
0, 0, 74, 251.9214019775391
0, 0, 75, 242.0662231445312
0, 0, 76, 228.8152770996094
0, 0, 77, 260.8183288574219
0, 0, 78, 256.3423156738281
0, 0, 79, 278.3540649414062
0, 0, 80, 216.4666137695312
0, 0, 81, 266.944580078125
0, 0, 82, 255.6315460205078
0, 0, 83, 246.1767578125
0, 0, 84, 272.5550842285156
0, 0, 85, 232.3200378417969
0, 0, 86, 253.3695373535156
0, 0, 87, 250.5880584716797
0, 0, 88, 261.8851623535156
0, 0, 89, 285.8939819335938
0, 0, 90, 243.8712768554688
0, 0, 91, 280.636962890625
0, 0, 92, 253.9647216796875
0, 0, 93, 250.3076171875
0, 0, 94, 246.8901214599609
0, 0, 95, 247.4008636474609
0, 0, 96, 273.8745727539062
0, 0, 97, 271.6182861328125
0, 0, 98, 273.3175659179688
0, 0, 99, 260.0968017578125
0, 0, 100, 256.9882507324219
0, 0, 101, 226.2238159179688
0, 0, 102, 233.0064392089844
0, 0, 103, 271.7456970214844
0, 0, 104, 254.0870513916016
0, 0, 105, 252.5633392333984
0, 0, 106, 245.6219940185547
0, 0, 107, 152.7250213623047
0, 0, 108, 39.94338989257812
0, 0, 109, 12.35660648345947
0, 0, 110, 12.30733394622803
0, 0, 111, 10.38100433349609
0, 0, 112, 6.115944862365723
0, 0, 113, 4.347611904144287
0, 0, 114, 7.575376510620117
0, 0, 115, 5.133749008178711
0, 0, 116, 4.900440692901611
0, 0, 117, 8.660064697265625
0, 0, 118, 6.27518367767334
0, 0, 119, 3.92188572883606
0, 0, 120, 2.162615060806274
0, 0, 121, 2.890244245529175
0, 0, 122, 5.008890628814697
0, 0, 123, 4.007774829864502
0, 0, 124, 4.246533870697021
0, 0, 125, 4.33493185043335
0, 0, 126, 6.029498100280762
0, 0, 127, 1.603980302810669
0, 1, 0, 7.114369869232178
0, 1, 1, 4.173255443572998
0, 1, 2, 3.547449588775635
0, 1, 3, 1.755857586860657
0, 1, 4, 4.660717010498047
0, 1, 5, 3.554190874099731
0, 1, 6, 4.668350219726562
0, 1, 7, 3.822253465652466
0, 1, 8, 6.980849742889404
0, 1, 9, 6.250660419464111
0, 1, 10, 7.410307884216309
0, 1, 11, 10.96932506561279
0, 1, 12, 8.142993927001953
0, 1, 13, 10.98580741882324
0, 1, 14, 7.759742736816406
0, 1, 15, 8.980086326599121
0, 1, 16, 10.96494293212891
0, 1, 17, 10.335768699646
0, 1, 18, 20.00245666503906
0, 1, 19, 65.30427551269531
0, 1, 20, 198.3125610351562
0, 1, 21, 254.6336975097656
0, 1, 22, 294.7927551269531
0, 1, 23, 283.9148864746094
0, 1, 24, 275.4374084472656
0, 1, 25, 287.5773620605469
0, 1, 26, 267.927490234375
0, 1, 27, 305.4431457519531
0, 1, 28, 300.9185485839844
0, 1, 29, 296.9611511230469
0, 1, 30, 279.435546875
0, 1, 31, 293.3491821289062
0, 1, 32, 290.1431884765625
0, 1, 33, 296.7635498046875
0, 1, 34, 294.1401062011719
0, 1, 35, 279.9643859863281
0, 1, 36, 305.95458984375
0, 1, 37, 294.3088073730469
0, 1, 38, 279.2417602539062
0, 1, 39, 298.2134094238281
0, 1, 40, 267.7291564941406
0, 1, 41, 284.6679382324219
0, 1, 42, 288.4808959960938
0, 1, 43, 331.5957336425781
0, 1, 44, 279.2835083007812
0, 1, 45, 294.3483581542969
0, 1, 46, 258.450927734375
0, 1, 47, 311.2615051269531
0, 1, 48, 286.8905029296875
0, 1, 49, 303.3125305175781
0, 1, 50, 262.9680480957031
0, 1, 51, 275.8704223632812
0, 1, 52, 300.1862487792969
0, 1, 53, 306.1141052246094
0, 1, 54, 273.4386291503906
0, 1, 55, 294.8288879394531
0, 1, 56, 277.8082885742188
0, 1, 57, 297.4143676757812
0, 1, 58, 309.8248596191406
0, 1, 59, 292.1288146972656
0, 1, 60, 297.3779296875
0, 1, 61, 275.8761596679688
0, 1, 62, 307.3609924316406
0, 1, 63, 286.7472534179688
0, 1, 64, 289.1742858886719
0, 1, 65, 293.4726257324219
0, 1, 66, 291.4125366210938
0, 1, 67, 291.7943420410156
0, 1, 68, 278.1829833984375
0, 1, 69, 279.092529296875
0, 1, 70, 270.4197082519531
0, 1, 71, 275.068603515625
0, 1, 72, 286.8152160644531
0, 1, 73, 303.2079467773438
0, 1, 74, 302.5535888671875
0, 1, 75, 295.9516296386719
0, 1, 76, 285.98974609375
0, 1, 77, 289.081298828125
0, 1, 78, 296.6107788085938
0, 1, 79, 301.6777038574219
0, 1, 80, 293.3727722167969
0, 1, 81, 299.2688903808594
0, 1, 82, 283.1932067871094
0, 1, 83, 333.1248474121094
0, 1, 84, 308.5527038574219
0, 1, 85, 252.8472290039062
0, 1, 86, 293.5769348144531
0, 1, 87, 290.7168273925781
0, 1, 88, 296.641357421875
0, 1, 89, 289.8985900878906
0, 1, 90, 270.5459289550781
0, 1, 91, 317.4216003417969
0, 1, 92, 290.6708374023438
0, 1, 93, 286.085205078125
0, 1, 94, 302.7693481445312
0, 1, 95, 283.9242858886719
0, 1, 96, 284.4715270996094
0, 1, 97, 304.8878173828125
0, 1, 98, 277.8244323730469
0, 1, 99, 265.6225891113281
0, 1, 100, 276.5433959960938
0, 1, 101, 282.2130126953125
0, 1, 102, 276.1028747558594
0, 1, 103, 280.0071411132812
0, 1, 104, 305.9740905761719
0, 1, 105, 297.172607421875
0, 1, 106, 261.97021484375
0, 1, 107, 192.9254455566406
0, 1, 108, 83.02397918701172
0, 1, 109, 24.44557571411133
0, 1, 110, 13.74277114868164
0, 1, 111, 8.857111930847168
0, 1, 112, 12.37453651428223
0, 1, 113, 7.99828052520752
0, 1, 114, 6.433768749237061
0, 1, 115, 8.532906532287598
0, 1, 116, 10.62719345092773
0, 1, 117, 7.678411960601807
0, 1, 118, 4.359851360321045
0, 1, 119, 4.529994487762451
0, 1, 120, 5.160419940948486
0, 1, 121, 2.779139757156372
0, 1, 122, 2.225026845932007
0, 1, 123, 4.620331764221191
0, 1, 124, 8.484089851379395
0, 1, 125, 3.7582106590271
0, 1, 126, 4.233244895935059
0, 1, 127, 1.261211752891541
0, 2, 0, 4.430692195892334
0, 2, 1, 1.287787795066833
0, 2, 2, 4.953915119171143
0, 2, 3, 5.679093837738037
0, 2, 4, 3.49724555015564
0, 2, 5, 1.545694947242737
0, 2, 6, 3.145549058914185
0, 2, 7, 3.331199645996094
0, 2, 8, 5.366178512573242
0, 2, 9, 5.978333473205566
0, 2, 10, 9.48283863067627
0, 2, 11, 6.721891403198242
0, 2, 12, 5.351104259490967
0, 2, 13, 8.901974678039551
0, 2, 14, 9.565675735473633
0, 2, 15, 8.658428192138672
0, 2, 16, 9.176182746887207
0, 2, 17, 15.77493000030518
0, 2, 18, 29.84097290039062
0, 2, 19, 116.1374282836914
0, 2, 20, 245.4530792236328
0, 2, 21, 271.2835693359375
0, 2, 22, 314.6900939941406
0, 2, 23, 301.0611877441406
0, 2, 24, 290.5254211425781
0, 2, 25, 301.9914855957031
0, 2, 26, 293.064453125
0, 2, 27, 274.7923278808594
0, 2, 28, 273.1048583984375
0, 2, 29, 276.6572570800781
0, 2, 30, 293.3760375976562
0, 2, 31, 277.9779357910156
0, 2, 32, 294.4874572753906
0, 2, 33, 280.4621276855469
0, 2, 34, 333.2489318847656
0, 2, 35, 289.4798278808594
0, 2, 36, 305.6602783203125
0, 2, 37, 314.3961486816406
0, 2, 38, 312.1777648925781
0, 2, 39, 265.8820190429688
0, 2, 40, 305.7724609375
0, 2, 41, 294.9383239746094
0, 2, 42, 303.8331298828125
0, 2, 43, 312.8802795410156
0, 2, 44, 315.2330932617188
0, 2, 45, 325.3743286132812
0, 2, 46, 291.6904907226562
0, 2, 47, 303.108642578125
0, 2, 48, 283.6579895019531
0, 2, 49, 277.9256286621094
0, 2, 50, 295.8732299804688
0, 2, 51, 282.662841796875
0, 2, 52, 271.2174682617188
0, 2, 53, 287.7228393554688
0, 2, 54, 284.026123046875
0, 2, 55, 277.0056762695312
0, 2, 56, 303.220947265625
0, 2, 57, 293.5771484375
0, 2, 58, 301.5268249511719
0, 2, 59, 288.1941833496094
0, 2, 60, 322.0005798339844
0, 2, 61, 301.0026550292969
0, 2, 62, 312.5020141601562
0, 2, 63, 304.7735595703125
0, 2, 64, 295.9387512207031
0, 2, 65, 312.6251220703125
0, 2, 66, 279.4524841308594
0, 2, 67, 290.5225524902344
0, 2, 68, 297.1231994628906
0, 2, 69, 309.9977722167969
0, 2, 70, 333.9361572265625
0, 2, 71, 283.8866882324219
0, 2, 72, 301.5372924804688
0, 2, 73, 311.1228942871094
0, 2, 74, 286.4479064941406
0, 2, 75, 305.8534545898438
0, 2, 76, 289.2880554199219
0, 2, 77, 303.0964660644531
0, 2, 78, 315.335205078125
0, 2, 79, 308.8943786621094
0, 2, 80, 298.6556396484375
0, 2, 81, 282.159423828125
0, 2, 82, 318.630126953125
0, 2, 83, 310.9299621582031
0, 2, 84, 288.1721496582031
0, 2, 85, 281.9184875488281
0, 2, 86, 324.3572387695312
0, 2, 87, 287.3047180175781
0, 2, 88, 280.4396057128906
0, 2, 89, 295.6199951171875
0, 2, 90, 294.3941955566406
0, 2, 91, 275.5288696289062
0, 2, 92, 304.5132751464844
0, 2, 93, 316.6305847167969
0, 2, 94, 290.0428771972656
0, 2, 95, 314.3631591796875
0, 2, 96, 314.9983520507812
0, 2, 97, 291.6792297363281
0, 2, 98, 294.815673828125
0, 2, 99, 274.5046081542969
0, 2, 100, 304.6145324707031
0, 2, 101, 300.426513671875
0, 2, 102, 295.7879943847656
0, 2, 103, 295.5507202148438
0, 2, 104, 292.98876953125
0, 2, 105, 273.6630859375
0, 2, 106, 296.4425354003906
0, 2, 107, 270.0205383300781
0, 2, 108, 116.8758010864258
0, 2, 109, 30.9725227355957
0, 2, 110, 9.342160224914551
0, 2, 111, 10.93626880645752
0, 2, 112, 6.973167896270752
0, 2, 113, 9.913176536560059
0, 2, 114, 8.161648750305176
0, 2, 115, 10.35244846343994
0, 2, 116, 9.948580741882324
0, 2, 117, 6.592465400695801
0, 2, 118, 5.391441822052002
0, 2, 119, 6.941365718841553
0, 2, 120, 3.8873610496521
0, 2, 121, 2.308711290359497
0, 2, 122, 4.303384304046631
0, 2, 123, 5.389064788818359
0, 2, 124, 4.535180568695068
0, 2, 125, 4.468966484069824
0, 2, 126, 3.675593614578247
0, 2, 127, 6.165364742279053
0, 3, 0, 2.939767837524414
0, 3, 1, 2.71985387802124
0, 3, 2, 4.649689674377441
0, 3, 3, 1.059393167495728
0, 3, 4, 2.534631490707397
0, 3, 5, 6.649985313415527
0, 3, 6, 6.527768611907959
0, 3, 7, 5.398542404174805
0, 3, 8, 4.975780487060547
0, 3, 9, 4.149235725402832
0, 3, 10, 8.282389640808105
0, 3, 11, 3.580752849578857
0, 3, 12, 7.322098255157471
0, 3, 13, 15.83274364471436
0, 3, 14, 13.96186351776123
0, 3, 15, 12.87875175476074
0, 3, 16, 10.37859725952148
0, 3, 17, 19.62486457824707
0, 3, 18, 52.86568069458008
0, 3, 19, 178.8286895751953
0, 3, 20, 271.0660095214844
0, 3, 21, 269.68896484375
0, 3, 22, 282.3877563476562
0, 3, 23, 288.2218933105469
0, 3, 24, 285.8482360839844
0, 3, 25, 269.0585632324219
0, 3, 26, 303.9659729003906
0, 3, 27, 291.8642272949219
0, 3, 28, 278.3127136230469
0, 3, 29, 336.5859985351562
0, 3, 30, 317.1313781738281
0, 3, 31, 286.0277709960938
0, 3, 32, 306.5003967285156
0, 3, 33, 315.2053527832031
0, 3, 34, 322.1832885742188
0, 3, 35, 308.3943786621094
0, 3, 36, 268.73095703125
0, 3, 37, 317.6739501953125
0, 3, 38, 302.3125305175781
0, 3, 39, 287.1275329589844
0, 3, 40, 266.4915466308594
0, 3, 41, 298.9287109375
0, 3, 42, 286.6332092285156
0, 3, 43, 306.6393127441406
0, 3, 44, 312.666015625
0, 3, 45, 292.4232788085938
0, 3, 46, 328.3280944824219
0, 3, 47, 299.6478271484375
0, 3, 48, 304.2623596191406
0, 3, 49, 275.1467590332031
0, 3, 50, 289.7321166992188
0, 3, 51, 277.1299743652344
0, 3, 52, 314.7547302246094
0, 3, 53, 288.1061706542969
0, 3, 54, 285.2770385742188
0, 3, 55, 283.6387939453125
0, 3, 56, 297.6231994628906
0, 3, 57, 289.5364685058594
0, 3, 58, 308.2499084472656
0, 3, 59, 298.3439331054688
0, 3, 60, 299.761474609375
0, 3, 61, 264.9342651367188
0, 3, 62, 283.7077941894531
0, 3, 63, 307.2942810058594
0, 3, 64, 316.3158569335938
0, 3, 65, 305.1527709960938
0, 3, 66, 314.1151428222656
0, 3, 67, 317.4040832519531
0, 3, 68, 280.9812622070312
0, 3, 69, 282.4329833984375
0, 3, 70, 287.8375854492188
0, 3, 71, 300.61572265625
0, 3, 72, 268.9301147460938
0, 3, 73, 308.3544311523438
0, 3, 74, 291.6192321777344
0, 3, 75, 289.0140991210938
0, 3, 76, 305.5700073242188
0, 3, 77, 314.9648132324219
0, 3, 78, 304.1105346679688
0, 3, 79, 281.2258911132812
0, 3, 80, 290.5803833007812
0, 3, 81, 309.9244995117188
0, 3, 82, 315.9655151367188
0, 3, 83, 302.3924865722656
0, 3, 84, 310.1580505371094
0, 3, 85, 291.6812744140625
0, 3, 86, 302.7453308105469
0, 3, 87, 299.4124145507812
0, 3, 88, 299.9706115722656
0, 3, 89, 296.2647705078125
0, 3, 90, 277.3190307617188
0, 3, 91, 284.4193725585938
0, 3, 92, 303.5720825195312
0, 3, 93, 314.3111572265625
0, 3, 94, 299.579345703125
0, 3, 95, 334.7268676757812
0, 3, 96, 290.7279357910156
0, 3, 97, 286.0030822753906
0, 3, 98, 277.8775634765625
0, 3, 99, 261.0116882324219
0, 3, 100, 285.2954406738281
0, 3, 101, 299.2612915039062
0, 3, 102, 274.7585754394531
0, 3, 103, 318.6951599121094
0, 3, 104, 308.6519470214844
0, 3, 105, 288.2108154296875
0, 3, 106, 300.9649963378906
0, 3, 107, 281.3074035644531
0, 3, 108, 166.2338409423828
0, 3, 109, 57.97724151611328
0, 3, 110, 17.33246040344238
0, 3, 111, 13.59916687011719
0, 3, 112, 12.69166469573975
0, 3, 113, 7.855844974517822
0, 3, 114, 9.475488662719727
0, 3, 115, 6.351494312286377
0, 3, 116, 7.196693420410156
0, 3, 117, 8.165495872497559
0, 3, 118, 5.242940425872803
0, 3, 119, 5.053914546966553
0, 3, 120, 3.58474588394165
0, 3, 121, 3.569176197052002
0, 3, 122, 3.631589412689209
0, 3, 123, 6.175736904144287
0, 3, 124, 2.083278179168701
0, 3, 125, 4.293352603912354
0, 3, 126, 5.580892086029053
0, 3, 127, 3.465155601501465
0, 4, 0, 2.995947599411011
0, 4, 1, 4.513389110565186
0, 4, 2, 3.21477222442627
0, 4, 3, 3.214821338653564
0, 4, 4, 7.034927845001221
0, 4, 5, 7.559760093688965
0, 4, 6, 5.525626182556152
0, 4, 7, 3.468375205993652
0, 4, 8, 3.756724119186401
0, 4, 9, 4.898662090301514
0, 4, 10, 5.115524768829346
0, 4, 11, 6.737613201141357
0, 4, 12, 4.328254699707031
0, 4, 13, 9.472268104553223
0, 4, 14, 11.67951488494873
0, 4, 15, 10.79357528686523
0, 4, 16, 14.45547962188721
0, 4, 17, 18.92624855041504
0, 4, 18, 92.02987670898438
0, 4, 19, 225.4819183349609
0, 4, 20, 287.4043273925781
0, 4, 21, 272.2917785644531
0, 4, 22, 305.0269165039062
0, 4, 23, 266.0296325683594
0, 4, 24, 289.3933715820312
0, 4, 25, 273.045654296875
0, 4, 26, 294.6439208984375
0, 4, 27, 282.4062805175781
0, 4, 28, 307.4067077636719
0, 4, 29, 323.4754943847656
0, 4, 30, 309.2033081054688
0, 4, 31, 305.8597106933594
0, 4, 32, 282.0398254394531
0, 4, 33, 295.2083129882812
0, 4, 34, 297.970458984375
0, 4, 35, 312.8623352050781
0, 4, 36, 295.5036315917969
0, 4, 37, 286.9654235839844
0, 4, 38, 298.1181640625
0, 4, 39, 294.5104370117188
0, 4, 40, 302.5129089355469
0, 4, 41, 311.4709167480469
0, 4, 42, 328.6835021972656
0, 4, 43, 294.487060546875
0, 4, 44, 321.650146484375
0, 4, 45, 323.0543212890625
0, 4, 46, 306.3478698730469
0, 4, 47, 292.4685363769531
0, 4, 48, 295.1255187988281
0, 4, 49, 277.5195922851562
0, 4, 50, 296.8478088378906
0, 4, 51, 315.1878967285156
0, 4, 52, 326.4085083007812
0, 4, 53, 304.974853515625
0, 4, 54, 286.44091796875
0, 4, 55, 314.8516540527344
0, 4, 56, 288.4608459472656
0, 4, 57, 309.4192810058594
0, 4, 58, 297.3545532226562
0, 4, 59, 308.076171875
0, 4, 60, 303.8538513183594
0, 4, 61, 316.06103515625
0, 4, 62, 307.59716796875
0, 4, 63, 299.0218811035156
0, 4, 64, 329.6025085449219
0, 4, 65, 319.056884765625
0, 4, 66, 294.8038024902344
0, 4, 67, 285.8610534667969
0, 4, 68, 314.690185546875
0, 4, 69, 275.9657897949219
0, 4, 70, 299.9458923339844
0, 4, 71, 320.5167236328125
0, 4, 72, 333.1343383789062
0, 4, 73, 298.8680419921875
0, 4, 74, 292.7069396972656
0, 4, 75, 289.6665344238281
0, 4, 76, 273.8081359863281
0, 4, 77, 278.4313659667969
0, 4, 78, 311.0336303710938
0, 4, 79, 318.0953369140625
0, 4, 80, 317.2129516601562
0, 4, 81, 311.2044372558594
0, 4, 82, 297.3768310546875
0, 4, 83, 300.1863708496094
0, 4, 84, 292.0775756835938
0, 4, 85, 295.7704467773438
0, 4, 86, 296.3324279785156
0, 4, 87, 287.8620300292969
0, 4, 88, 307.4249877929688
0, 4, 89, 294.3931274414062
0, 4, 90, 333.9603881835938
0, 4, 91, 301.7445983886719
0, 4, 92, 290.8257751464844
0, 4, 93, 296.7615051269531
0, 4, 94, 291.6385498046875
0, 4, 95, 290.6126708984375
0, 4, 96, 322.7960205078125
0, 4, 97, 274.6110534667969
0, 4, 98, 328.2279052734375
0, 4, 99, 314.1062622070312
0, 4, 100, 301.3403015136719
0, 4, 101, 256.1334228515625
0, 4, 102, 298.4540710449219
0, 4, 103, 317.7615661621094
0, 4, 104, 281.8809509277344
0, 4, 105, 310.7725524902344
0, 4, 106, 287.6367492675781
0, 4, 107, 296.186279296875
0, 4, 108, 227.4315185546875
0, 4, 109, 80.39492797851562
0, 4, 110, 18.44235801696777
0, 4, 111, 13.36177635192871
0, 4, 112, 8.376243591308594
0, 4, 113, 11.47940063476562
0, 4, 114, 7.056159019470215
0, 4, 115, 10.06961822509766
0, 4, 116, 11.04666137695312
0, 4, 117, 8.387584686279297
0, 4, 118, 7.586802959442139
0, 4, 119, 10.57195854187012
0, 4, 120, 6.894416332244873
0, 4, 121, 5.23762035369873
0, 4, 122, 5.177308082580566
0, 4, 123, 7.399639129638672
0, 4, 124, 9.486927032470703
0, 4, 125, 8.904973030090332
0, 4, 126, 3.984363079071045
0, 4, 127, 3.533954381942749
0, 5, 0, 4.67879056930542
0, 5, 1, 5.01048469543457
0, 5, 2, 3.682724952697754
0, 5, 3, 4.195411682128906
0, 5, 4, 4.123935222625732
0, 5, 5, 5.249212741851807
0, 5, 6, 8.252053260803223
0, 5, 7, 4.678544521331787
0, 5, 8, 3.13503360748291
0, 5, 9, 4.198397636413574
0, 5, 10, 7.481245517730713
0, 5, 11, 8.131009101867676
0, 5, 12, 7.60154390335083
0, 5, 13, 5.060111522674561
0, 5, 14, 11.34688949584961
0, 5, 15, 16.11822700500488
0, 5, 16, 13.2644739151001
0, 5, 17, 27.3028450012207
0, 5, 18, 136.3302459716797
0, 5, 19, 286.3686828613281
0, 5, 20, 305.6006774902344
0, 5, 21, 316.5048828125
0, 5, 22, 275.9414672851562
0, 5, 23, 312.3787231445312
0, 5, 24, 302.2712707519531
0, 5, 25, 290.6739501953125
0, 5, 26, 293.6554565429688
0, 5, 27, 323.9098510742188
0, 5, 28, 304.5086364746094
0, 5, 29, 297.5895080566406
0, 5, 30, 324.7432250976562
0, 5, 31, 288.0290832519531
0, 5, 32, 303.29541015625
0, 5, 33, 303.957275390625
0, 5, 34, 299.2850341796875
0, 5, 35, 309.4309387207031
0, 5, 36, 269.3330383300781
0, 5, 37, 282.2503051757812
0, 5, 38, 295.0004272460938
0, 5, 39, 312.3465881347656
0, 5, 40, 309.5149536132812
0, 5, 41, 275.0986022949219
0, 5, 42, 304.5121765136719
0, 5, 43, 315.0907287597656
0, 5, 44, 292.0224304199219
0, 5, 45, 302.12890625
0, 5, 46, 266.7870788574219
0, 5, 47, 280.4253540039062
0, 5, 48, 293.2542419433594
0, 5, 49, 285.3461303710938
0, 5, 50, 296.3318786621094
0, 5, 51, 279.8030395507812
0, 5, 52, 270.1072692871094
0, 5, 53, 284.3135070800781
0, 5, 54, 293.7897644042969
0, 5, 55, 346.9978942871094
0, 5, 56, 306.9092712402344
0, 5, 57, 305.2461242675781
0, 5, 58, 310.3399963378906
0, 5, 59, 304.0725708007812
0, 5, 60, 305.9361267089844
0, 5, 61, 280.4172668457031
0, 5, 62, 325.2671508789062
0, 5, 63, 288.7676086425781
0, 5, 64, 321.4925231933594
0, 5, 65, 306.4571228027344
0, 5, 66, 325.83447265625
0, 5, 67, 311.0988464355469
0, 5, 68, 310.9249267578125
0, 5, 69, 311.3997192382812
0, 5, 70, 299.6622314453125
0, 5, 71, 271.0061950683594
0, 5, 72, 311.7540283203125
0, 5, 73, 301.7207946777344
0, 5, 74, 295.81689453125
0, 5, 75, 294.8620910644531
0, 5, 76, 285.5616760253906
0, 5, 77, 299.2627258300781
0, 5, 78, 316.0439147949219
0, 5, 79, 305.7645874023438
0, 5, 80, 295.5144653320312
0, 5, 81, 325.3665466308594
0, 5, 82, 325.5205078125
0, 5, 83, 281.6542358398438
0, 5, 84, 303.3065490722656
0, 5, 85, 269.977294921875
0, 5, 86, 326.5532836914062
0, 5, 87, 284.7579040527344
0, 5, 88, 312.34716796875
0, 5, 89, 304.0370483398438
0, 5, 90, 316.088623046875
0, 5, 91, 316.2593383789062
0, 5, 92, 295.5624389648438
0, 5, 93, 321.0479125976562
0, 5, 94, 308.1669616699219
0, 5, 95, 295.6786804199219
0, 5, 96, 297.9732360839844
0, 5, 97, 296.3128051757812
0, 5, 98, 319.1892700195312
0, 5, 99, 300.2474975585938
0, 5, 100, 292.0305480957031
0, 5, 101, 304.9967041015625
0, 5, 102, 291.4792785644531
0, 5, 103, 313.4834289550781
0, 5, 104, 304.0150146484375
0, 5, 105, 293.05810546875
0, 5, 106, 283.4686889648438
0, 5, 107, 294.7836608886719
0, 5, 108, 264.907470703125
0, 5, 109, 157.2550201416016
0, 5, 110, 40.11848449707031
0, 5, 111, 20.99040412902832
0, 5, 112, 17.38093948364258
0, 5, 113, 14.62548542022705
0, 5, 114, 13.16415405273438
0, 5, 115, 7.382579326629639
0, 5, 116, 9.021487236022949
0, 5, 117, 7.737626075744629
0, 5, 118, 12.63246726989746
0, 5, 119, 4.650635719299316
0, 5, 120, 8.450136184692383
0, 5, 121, 7.344415664672852
0, 5, 122, 7.025718688964844
0, 5, 123, 4.406879901885986
0, 5, 124, 4.847043037414551
0, 5, 125, 4.09228515625
0, 5, 126, 8.217753410339355
0, 5, 127, 4.907265186309814
0, 6, 0, 5.12269115447998
0, 6, 1, 4.496225833892822
0, 6, 2, 6.302647113800049
0, 6, 3, 4.865099430084229
0, 6, 4, 4.579566478729248
0, 6, 5, 6.921949863433838
0, 6, 6, 6.757984161376953
0, 6, 7, 4.420892715454102
0, 6, 8, 8.97305965423584
0, 6, 9, 5.326112270355225
0, 6, 10, 9.28337574005127
0, 6, 11, 10.95578575134277
0, 6, 12, 8.450976371765137
0, 6, 13, 15.48346996307373
0, 6, 14, 9.358014106750488
0, 6, 15, 16.82366180419922
0, 6, 16, 28.83044815063477
0, 6, 17, 56.1658935546875
0, 6, 18, 172.6236724853516
0, 6, 19, 278.5148315429688
0, 6, 20, 290.3340759277344
0, 6, 21, 314.3277587890625
0, 6, 22, 320.0729675292969
0, 6, 23, 305.8861694335938
0, 6, 24, 316.5443115234375
0, 6, 25, 317.7365417480469
0, 6, 26, 318.7503662109375
0, 6, 27, 330.5676879882812
0, 6, 28, 295.7933654785156
0, 6, 29, 330.1865234375
0, 6, 30, 282.0188293457031
0, 6, 31, 286.8235778808594
0, 6, 32, 339.1832885742188
0, 6, 33, 300.2937316894531
0, 6, 34, 339.3788452148438
0, 6, 35, 319.0443725585938
0, 6, 36, 272.8117980957031
0, 6, 37, 287.1193237304688
0, 6, 38, 311.8309020996094
0, 6, 39, 301.7575378417969
0, 6, 40, 283.6536254882812
0, 6, 41, 296.6192932128906
0, 6, 42, 302.9329223632812
0, 6, 43, 289.4936828613281
0, 6, 44, 281.3802490234375
0, 6, 45, 319.5190124511719
0, 6, 46, 300.7958374023438
0, 6, 47, 333.8717041015625
0, 6, 48, 293.7118530273438
0, 6, 49, 311.7655944824219
0, 6, 50, 328.1811828613281
0, 6, 51, 309.5322265625
0, 6, 52, 321.2084350585938
0, 6, 53, 328.3671875
0, 6, 54, 300.7602233886719
0, 6, 55, 303.5572509765625
0, 6, 56, 292.8480529785156
0, 6, 57, 312.7585144042969
0, 6, 58, 262.2858276367188
0, 6, 59, 303.9261779785156
0, 6, 60, 313.3092346191406
0, 6, 61, 270.5025634765625
0, 6, 62, 336.8328857421875
0, 6, 63, 322.3481140136719
0, 6, 64, 290.8213195800781
0, 6, 65, 285.2774047851562
0, 6, 66, 302.7881774902344
0, 6, 67, 310.6787719726562
0, 6, 68, 293.9330749511719
0, 6, 69, 277.7981262207031
0, 6, 70, 274.1842651367188
0, 6, 71, 289.3994445800781
0, 6, 72, 311.0574951171875
0, 6, 73, 291.0565795898438
0, 6, 74, 329.2750549316406
0, 6, 75, 342.3580017089844
0, 6, 76, 296.6140441894531
0, 6, 77, 287.00732421875
0, 6, 78, 278.8590698242188
0, 6, 79, 292.7922973632812
0, 6, 80, 301.6570129394531
0, 6, 81, 317.1382141113281
0, 6, 82, 317.3836364746094
0, 6, 83, 318.9397277832031
0, 6, 84, 296.2771301269531
0, 6, 85, 301.90869140625
0, 6, 86, 329.9973754882812
0, 6, 87, 292.7394409179688
0, 6, 88, 308.5480346679688
0, 6, 89, 303.2210998535156
0, 6, 90, 298.998291015625
0, 6, 91, 312.4103393554688
0, 6, 92, 284.9632568359375
0, 6, 93, 294.5249633789062
0, 6, 94, 273.4573364257812
0, 6, 95, 301.404052734375
0, 6, 96, 347.8860168457031
0, 6, 97, 309.7077026367188
0, 6, 98, 300.8336486816406
0, 6, 99, 272.4851379394531
0, 6, 100, 308.4416809082031
0, 6, 101, 293.4760131835938
0, 6, 102, 306.3853454589844
0, 6, 103, 309.5590515136719
0, 6, 104, 290.8204956054688
0, 6, 105, 303.9776306152344
0, 6, 106, 305.9500732421875
0, 6, 107, 306.3604125976562
0, 6, 108, 265.2928161621094
0, 6, 109, 190.0793762207031
0, 6, 110, 56.65055084228516
0, 6, 111, 21.50535774230957
0, 6, 112, 14.75347137451172
0, 6, 113, 10.94967555999756
0, 6, 114, 13.56288814544678
0, 6, 115, 11.66762065887451
0, 6, 116, 9.57919979095459
0, 6, 117, 8.278926849365234
0, 6, 118, 9.303760528564453
0, 6, 119, 9.688117980957031
0, 6, 120, 5.374329090118408
0, 6, 121, 6.972036361694336
0, 6, 122, 6.315108776092529
0, 6, 123, 5.077913761138916
0, 6, 124, 5.878252029418945
0, 6, 125, 5.331971168518066
0, 6, 126, 3.708098173141479
0, 6, 127, 5.637837409973145
0, 7, 0, 5.041119575500488
0, 7, 1, 3.605037450790405
0, 7, 2, 6.814369201660156
0, 7, 3, 5.603282928466797
0, 7, 4, 2.997513771057129
0, 7, 5, 5.083193778991699
0, 7, 6, 5.491971492767334
0, 7, 7, 3.939024925231934
0, 7, 8, 4.326445579528809
0, 7, 9, 6.528709888458252
0, 7, 10, 8.271878242492676
0, 7, 11, 12.089280128479
0, 7, 12, 12.57474994659424
0, 7, 13, 12.85326385498047
0, 7, 14, 11.24340152740479
0, 7, 15, 14.81178569793701
0, 7, 16, 25.79775047302246
0, 7, 17, 99.30156707763672
0, 7, 18, 219.3198394775391
0, 7, 19, 289.1735229492188
0, 7, 20, 296.8848876953125
0, 7, 21, 275.2962646484375
0, 7, 22, 299.9803161621094
0, 7, 23, 288.6798706054688
0, 7, 24, 313.2942504882812
0, 7, 25, 324.34375
0, 7, 26, 277.4255065917969
0, 7, 27, 297.8848266601562
0, 7, 28, 326.3406066894531
0, 7, 29, 319.4403686523438
0, 7, 30, 303.4607238769531
0, 7, 31, 278.725830078125
0, 7, 32, 306.3316345214844
0, 7, 33, 262.4087219238281
0, 7, 34, 299.0705261230469
0, 7, 35, 321.4815673828125
0, 7, 36, 329.4794616699219
0, 7, 37, 325.9671936035156
0, 7, 38, 296.6816711425781
0, 7, 39, 308.56689453125
0, 7, 40, 290.0235900878906
0, 7, 41, 269.9361572265625
0, 7, 42, 300.0392761230469
0, 7, 43, 273.3794555664062
0, 7, 44, 302.1658020019531
0, 7, 45, 293.89013671875
0, 7, 46, 280.9588928222656
0, 7, 47, 328.5475769042969
0, 7, 48, 285.8781127929688
0, 7, 49, 302.9969482421875
0, 7, 50, 322.8573303222656
0, 7, 51, 298.5700073242188
0, 7, 52, 328.8226318359375
0, 7, 53, 310.8488464355469
0, 7, 54, 322.6290588378906
0, 7, 55, 306.6318664550781
0, 7, 56, 280.8550415039062
0, 7, 57, 280.4672241210938
0, 7, 58, 294.2038879394531
0, 7, 59, 291.9921875
0, 7, 60, 322.0855712890625
0, 7, 61, 277.4527282714844
0, 7, 62, 298.3396606445312
0, 7, 63, 292.2951354980469
0, 7, 64, 308.1436767578125
0, 7, 65, 330.2269897460938
0, 7, 66, 320.5053405761719
0, 7, 67, 302.8154602050781
0, 7, 68, 282.9466552734375
0, 7, 69, 294.4892578125
0, 7, 70, 301.210693359375
0, 7, 71, 307.9031677246094
0, 7, 72, 284.7960205078125
0, 7, 73, 296.0379333496094
0, 7, 74, 345.3999328613281
0, 7, 75, 317.6334838867188
0, 7, 76, 324.5820922851562
0, 7, 77, 281.7057189941406
0, 7, 78, 300.2626342773438
0, 7, 79, 299.793212890625
0, 7, 80, 310.3185424804688
0, 7, 81, 319.8974914550781
0, 7, 82, 330.8900451660156
0, 7, 83, 316.7779541015625
0, 7, 84, 309.1649169921875
0, 7, 85, 272.8530578613281
0, 7, 86, 309.3578796386719
0, 7, 87, 311.0418090820312
0, 7, 88, 307.4606018066406
0, 7, 89, 292.5827331542969
0, 7, 90, 306.1731872558594
0, 7, 91, 317.1938781738281
0, 7, 92, 287.1822204589844
0, 7, 93, 305.5414123535156
0, 7, 94, 272.6664733886719
0, 7, 95, 298.1580200195312
0, 7, 96, 331.6561584472656
0, 7, 97, 293.8896789550781
0, 7, 98, 292.5275573730469
0, 7, 99, 313.40771484375
0, 7, 100, 281.766357421875
0, 7, 101, 274.938232421875
0, 7, 102, 289.583984375
0, 7, 103, 290.919677734375
0, 7, 104, 274.5258483886719
0, 7, 105, 304.665283203125
0, 7, 106, 317.048828125
0, 7, 107, 295.4127807617188
0, 7, 108, 272.5696105957031
0, 7, 109, 235.2165374755859
0, 7, 110, 94.97552490234375
0, 7, 111, 24.63010215759277
0, 7, 112, 13.70038509368896
0, 7, 113, 14.39088153839111
0, 7, 114, 13.85207748413086
0, 7, 115, 10.98839664459229
0, 7, 116, 9.770595550537109
0, 7, 117, 8.449477195739746
0, 7, 118, 8.156450271606445
0, 7, 119, 6.833250999450684
0, 7, 120, 7.521969318389893
0, 7, 121, 7.814468383789062
0, 7, 122, 8.224711418151855
0, 7, 123, 7.236104965209961
0, 7, 124, 2.758561372756958
0, 7, 125, 6.544609069824219
0, 7, 126, 6.43457555770874
0, 7, 127, 3.243498563766479
0, 8, 0, 4.799579620361328
0, 8, 1, 3.543965339660645
0, 8, 2, 3.975177764892578
0, 8, 3, 1.633261680603027
0, 8, 4, 4.962457656860352
0, 8, 5, 3.578989744186401
0, 8, 6, 6.812572002410889
0, 8, 7, 7.200925350189209
0, 8, 8, 9.586687088012695
0, 8, 9, 6.562780380249023
0, 8, 10, 9.095810890197754
0, 8, 11, 13.99374103546143
0, 8, 12, 15.69455623626709
0, 8, 13, 16.59160232543945
0, 8, 14, 13.63093185424805
0, 8, 15, 18.61345291137695
0, 8, 16, 31.66707992553711
0, 8, 17, 130.0113372802734
0, 8, 18, 242.2734832763672
0, 8, 19, 293.7626647949219
0, 8, 20, 287.6223754882812
0, 8, 21, 307.60498046875
0, 8, 22, 295.248046875
0, 8, 23, 274.3447570800781
0, 8, 24, 268.8344116210938
0, 8, 25, 278.5928344726562
0, 8, 26, 309.9208374023438
0, 8, 27, 306.9793090820312
0, 8, 28, 304.2952575683594
0, 8, 29, 319.0890808105469
0, 8, 30, 313.6913146972656
0, 8, 31, 303.0223388671875
0, 8, 32, 281.5267333984375
0, 8, 33, 294.505615234375
0, 8, 34, 291.1207275390625
0, 8, 35, 284.1948852539062
0, 8, 36, 315.0464477539062
0, 8, 37, 338.314453125
0, 8, 38, 330.7052612304688
0, 8, 39, 282.2673950195312
0, 8, 40, 303.0894165039062
