# TOPAS Version: 3.1.p3
# Parameter File: batch_inserts_348.txt
# Results for scorer Readout_Adipose
# Scored in component: MyBox
# X in 1 bin  of 0.75 cm
# Y in 512 bins of 0.0783984 cm
# Z in 128 bins of 0.078125 cm
# EnergyDeposit ( MeV ) : Sum   
0, 0, 0, 3.218259811401367
0, 0, 1, 2.351706504821777
0, 0, 2, 5.38419246673584
0, 0, 3, 3.108246088027954
0, 0, 4, 2.531508445739746
0, 0, 5, 3.156795740127563
0, 0, 6, 7.136173725128174
0, 0, 7, 8.92387580871582
0, 0, 8, 3.193163394927979
0, 0, 9, 4.196044921875
0, 0, 10, 7.522168159484863
0, 0, 11, 6.200609683990479
0, 0, 12, 5.600347995758057
0, 0, 13, 6.024007797241211
0, 0, 14, 7.6719651222229
0, 0, 15, 9.593335151672363
0, 0, 16, 9.180432319641113
0, 0, 17, 9.071280479431152
0, 0, 18, 13.55195808410645
0, 0, 19, 46.18001937866211
0, 0, 20, 140.0157012939453
0, 0, 21, 223.2944793701172
0, 0, 22, 249.2904052734375
0, 0, 23, 257.8230895996094
0, 0, 24, 251.8652954101562
0, 0, 25, 259.1530151367188
0, 0, 26, 234.4405517578125
0, 0, 27, 236.8594360351562
0, 0, 28, 274.4012756347656
0, 0, 29, 252.6734924316406
0, 0, 30, 228.8174438476562
0, 0, 31, 243.3775024414062
0, 0, 32, 263.7705688476562
0, 0, 33, 261.7595520019531
0, 0, 34, 288.0291137695312
0, 0, 35, 267.7827758789062
0, 0, 36, 246.2366180419922
0, 0, 37, 252.7155914306641
0, 0, 38, 268.8622741699219
0, 0, 39, 230.1109466552734
0, 0, 40, 241.1114349365234
0, 0, 41, 264.5392761230469
0, 0, 42, 230.3027496337891
0, 0, 43, 260.2787780761719
0, 0, 44, 251.8019714355469
0, 0, 45, 254.7573394775391
0, 0, 46, 244.3057403564453
0, 0, 47, 252.674560546875
0, 0, 48, 266.7345275878906
0, 0, 49, 274.6942138671875
0, 0, 50, 251.0178985595703
0, 0, 51, 253.8926239013672
0, 0, 52, 273.4630432128906
0, 0, 53, 290.9820861816406
0, 0, 54, 243.3991546630859
0, 0, 55, 241.2600860595703
0, 0, 56, 277.0985412597656
0, 0, 57, 261.9720764160156
0, 0, 58, 246.7727508544922
0, 0, 59, 270.3698120117188
0, 0, 60, 236.2587890625
0, 0, 61, 244.229248046875
0, 0, 62, 256.2567749023438
0, 0, 63, 268.0058288574219
0, 0, 64, 256.3305358886719
0, 0, 65, 260.6290283203125
0, 0, 66, 276.5047912597656
0, 0, 67, 246.17431640625
0, 0, 68, 258.1967163085938
0, 0, 69, 262.6361389160156
0, 0, 70, 270.9248657226562
0, 0, 71, 236.8292083740234
0, 0, 72, 250.0459747314453
0, 0, 73, 259.4969482421875
0, 0, 74, 252.8858795166016
0, 0, 75, 240.53125
0, 0, 76, 228.6259002685547
0, 0, 77, 261.5801391601562
0, 0, 78, 257.8728332519531
0, 0, 79, 279.4165954589844
0, 0, 80, 218.1598510742188
0, 0, 81, 266.2785034179688
0, 0, 82, 258.6033935546875
0, 0, 83, 243.9901123046875
0, 0, 84, 268.4117736816406
0, 0, 85, 232.111083984375
0, 0, 86, 252.2003326416016
0, 0, 87, 250.2710571289062
0, 0, 88, 259.634765625
0, 0, 89, 285.1474914550781
0, 0, 90, 243.1818084716797
0, 0, 91, 280.2628173828125
0, 0, 92, 253.7380523681641
0, 0, 93, 249.2334442138672
0, 0, 94, 246.8383941650391
0, 0, 95, 248.1269683837891
0, 0, 96, 275.4469604492188
0, 0, 97, 272.5243225097656
0, 0, 98, 272.6663208007812
0, 0, 99, 258.1388549804688
0, 0, 100, 258.701416015625
0, 0, 101, 225.3558349609375
0, 0, 102, 231.5145721435547
0, 0, 103, 270.5945129394531
0, 0, 104, 255.6394958496094
0, 0, 105, 251.7054748535156
0, 0, 106, 246.6524505615234
0, 0, 107, 151.4997711181641
0, 0, 108, 38.62107849121094
0, 0, 109, 12.13033580780029
0, 0, 110, 12.34817409515381
0, 0, 111, 9.25833797454834
0, 0, 112, 6.233433246612549
0, 0, 113, 5.131209850311279
0, 0, 114, 5.919270038604736
0, 0, 115, 4.686625480651855
0, 0, 116, 5.673137187957764
0, 0, 117, 7.833847999572754
0, 0, 118, 5.152984142303467
0, 0, 119, 5.359168529510498
0, 0, 120, 3.071032285690308
0, 0, 121, 6.409587860107422
0, 0, 122, 4.268860816955566
0, 0, 123, 5.6503005027771
0, 0, 124, 7.603102684020996
0, 0, 125, 1.126355290412903
0, 0, 126, 4.327175140380859
0, 0, 127, 4.061432838439941
0, 1, 0, 8.103720664978027
0, 1, 1, 2.878119707107544
0, 1, 2, 4.078651905059814
0, 1, 3, 1.304981827735901
0, 1, 4, 5.195691585540771
0, 1, 5, 1.749580025672913
0, 1, 6, 3.025446891784668
0, 1, 7, 4.350424766540527
0, 1, 8, 7.690507411956787
0, 1, 9, 4.154111385345459
0, 1, 10, 8.488297462463379
0, 1, 11, 13.04001235961914
0, 1, 12, 8.797597885131836
0, 1, 13, 12.23538780212402
0, 1, 14, 8.408408164978027
0, 1, 15, 7.130615711212158
0, 1, 16, 10.84868431091309
0, 1, 17, 11.07428932189941
0, 1, 18, 23.05906677246094
0, 1, 19, 66.92416381835938
0, 1, 20, 199.0042114257812
0, 1, 21, 255.60888671875
0, 1, 22, 294.7507629394531
0, 1, 23, 282.1996459960938
0, 1, 24, 276.6490478515625
0, 1, 25, 290.9098510742188
0, 1, 26, 267.8526306152344
0, 1, 27, 306.1451721191406
0, 1, 28, 298.4923095703125
0, 1, 29, 295.6398315429688
0, 1, 30, 280.7390441894531
0, 1, 31, 292.2326965332031
0, 1, 32, 289.9784240722656
0, 1, 33, 296.0353088378906
0, 1, 34, 292.2675170898438
0, 1, 35, 279.6864318847656
0, 1, 36, 309.40283203125
0, 1, 37, 295.1318359375
0, 1, 38, 280.0652465820312
0, 1, 39, 295.8049621582031
0, 1, 40, 266.0210571289062
0, 1, 41, 286.765380859375
0, 1, 42, 289.307373046875
0, 1, 43, 333.7181091308594
0, 1, 44, 278.4152221679688
0, 1, 45, 291.222412109375
0, 1, 46, 259.4576721191406
0, 1, 47, 310.428466796875
0, 1, 48, 286.2535705566406
0, 1, 49, 300.8270874023438
0, 1, 50, 262.9631042480469
0, 1, 51, 271.7200622558594
0, 1, 52, 296.0631713867188
0, 1, 53, 306.8773498535156
0, 1, 54, 274.32958984375
0, 1, 55, 293.7647094726562
0, 1, 56, 278.5318298339844
0, 1, 57, 298.9187622070312
0, 1, 58, 313.52294921875
0, 1, 59, 294.4192504882812
0, 1, 60, 296.4759826660156
0, 1, 61, 275.18212890625
0, 1, 62, 308.1793518066406
0, 1, 63, 287.3749389648438
0, 1, 64, 287.8623962402344
0, 1, 65, 295.4451904296875
0, 1, 66, 291.6593627929688
0, 1, 67, 292.0358276367188
0, 1, 68, 276.4495239257812
0, 1, 69, 282.7530517578125
0, 1, 70, 270.7332763671875
0, 1, 71, 272.8746337890625
0, 1, 72, 286.0103759765625
0, 1, 73, 302.7368774414062
0, 1, 74, 304.3967590332031
0, 1, 75, 291.9718322753906
0, 1, 76, 287.1217346191406
0, 1, 77, 292.4038696289062
0, 1, 78, 297.6604614257812
0, 1, 79, 304.6532897949219
0, 1, 80, 293.8421020507812
0, 1, 81, 300.6598815917969
0, 1, 82, 286.8459777832031
0, 1, 83, 333.3119506835938
0, 1, 84, 309.8630676269531
0, 1, 85, 254.1632537841797
0, 1, 86, 297.441162109375
0, 1, 87, 289.2832641601562
0, 1, 88, 298.9730224609375
0, 1, 89, 291.4667358398438
0, 1, 90, 269.2828979492188
0, 1, 91, 317.6788940429688
0, 1, 92, 291.882568359375
0, 1, 93, 285.7242736816406
0, 1, 94, 303.6465454101562
0, 1, 95, 283.8927612304688
0, 1, 96, 283.5885009765625
0, 1, 97, 301.6342468261719
0, 1, 98, 276.4859924316406
0, 1, 99, 266.3430480957031
0, 1, 100, 278.5246887207031
0, 1, 101, 283.8181457519531
0, 1, 102, 277.7436828613281
0, 1, 103, 281.4436645507812
0, 1, 104, 306.7251281738281
0, 1, 105, 296.9399719238281
0, 1, 106, 259.5773010253906
0, 1, 107, 192.2026977539062
0, 1, 108, 82.25968933105469
0, 1, 109, 25.12738609313965
0, 1, 110, 11.2287769317627
0, 1, 111, 9.297837257385254
0, 1, 112, 11.86257839202881
0, 1, 113, 4.537301063537598
0, 1, 114, 8.313292503356934
0, 1, 115, 5.485763072967529
0, 1, 116, 10.42209053039551
0, 1, 117, 7.774632930755615
0, 1, 118, 6.353431701660156
0, 1, 119, 8.833623886108398
0, 1, 120, 8.51807689666748
0, 1, 121, 4.183587074279785
0, 1, 122, 4.220564365386963
0, 1, 123, 2.655137777328491
0, 1, 124, 6.92626428604126
0, 1, 125, 2.246364593505859
0, 1, 126, 2.143991708755493
0, 1, 127, 2.510627269744873
0, 2, 0, 4.361364841461182
0, 2, 1, 2.6695556640625
0, 2, 2, 5.861860275268555
0, 2, 3, 3.554500341415405
0, 2, 4, 4.502980709075928
0, 2, 5, 1.982977509498596
0, 2, 6, 2.059226274490356
0, 2, 7, 3.520754814147949
0, 2, 8, 7.321437835693359
0, 2, 9, 5.520055294036865
0, 2, 10, 6.505371570587158
0, 2, 11, 6.768085956573486
0, 2, 12, 6.490903377532959
0, 2, 13, 9.351624488830566
0, 2, 14, 12.59122085571289
0, 2, 15, 8.542064666748047
0, 2, 16, 10.60411071777344
0, 2, 17, 17.20367622375488
0, 2, 18, 32.54285049438477
0, 2, 19, 114.1330490112305
0, 2, 20, 244.5798034667969
0, 2, 21, 270.5643005371094
0, 2, 22, 313.7297058105469
0, 2, 23, 299.640625
0, 2, 24, 287.6302795410156
0, 2, 25, 303.6226196289062
0, 2, 26, 291.7353515625
0, 2, 27, 274.8325500488281
0, 2, 28, 273.1663513183594
0, 2, 29, 276.7016906738281
0, 2, 30, 291.1721801757812
0, 2, 31, 276.9385986328125
0, 2, 32, 295.4250183105469
0, 2, 33, 281.9341125488281
0, 2, 34, 334.1214599609375
0, 2, 35, 289.2568359375
0, 2, 36, 302.4234619140625
0, 2, 37, 315.9987182617188
0, 2, 38, 312.7171936035156
0, 2, 39, 267.9151611328125
0, 2, 40, 307.44677734375
0, 2, 41, 291.9423217773438
0, 2, 42, 306.3294372558594
0, 2, 43, 311.1637573242188
0, 2, 44, 310.8804321289062
0, 2, 45, 324.4637145996094
0, 2, 46, 287.36669921875
0, 2, 47, 302.2350463867188
0, 2, 48, 284.9725036621094
0, 2, 49, 278.7564086914062
0, 2, 50, 295.385498046875
0, 2, 51, 285.2607421875
0, 2, 52, 271.4506225585938
0, 2, 53, 287.7155456542969
0, 2, 54, 280.2537841796875
0, 2, 55, 275.6956176757812
0, 2, 56, 301.4446716308594
0, 2, 57, 293.0556945800781
0, 2, 58, 300.9452819824219
0, 2, 59, 288.0932312011719
0, 2, 60, 319.6630859375
0, 2, 61, 300.8211975097656
0, 2, 62, 313.2080993652344
0, 2, 63, 300.09228515625
0, 2, 64, 294.9758605957031
0, 2, 65, 316.9090881347656
0, 2, 66, 279.8354187011719
0, 2, 67, 290.317138671875
0, 2, 68, 297.121826171875
0, 2, 69, 310.0550231933594
0, 2, 70, 334.0169677734375
0, 2, 71, 284.6726684570312
0, 2, 72, 299.6850280761719
0, 2, 73, 313.5360717773438
0, 2, 74, 289.3921813964844
0, 2, 75, 307.1954040527344
0, 2, 76, 287.4809875488281
0, 2, 77, 297.716552734375
0, 2, 78, 315.4554138183594
0, 2, 79, 307.2146606445312
0, 2, 80, 294.9950256347656
0, 2, 81, 281.21875
0, 2, 82, 320.085205078125
0, 2, 83, 314.3302612304688
0, 2, 84, 287.6270141601562
0, 2, 85, 283.5014038085938
0, 2, 86, 325.1236267089844
0, 2, 87, 287.8546142578125
0, 2, 88, 279.4711608886719
0, 2, 89, 295.3816833496094
0, 2, 90, 294.9551696777344
0, 2, 91, 274.8423767089844
0, 2, 92, 305.5350341796875
0, 2, 93, 316.7098388671875
0, 2, 94, 291.6662902832031
0, 2, 95, 316.3607177734375
0, 2, 96, 314.7018127441406
0, 2, 97, 292.7102355957031
0, 2, 98, 293.1646423339844
0, 2, 99, 273.4220886230469
0, 2, 100, 305.7814331054688
0, 2, 101, 301.0203247070312
0, 2, 102, 295.1428833007812
0, 2, 103, 291.0577087402344
0, 2, 104, 293.2851257324219
0, 2, 105, 276.1973876953125
0, 2, 106, 298.7944946289062
0, 2, 107, 271.552734375
0, 2, 108, 116.7047729492188
0, 2, 109, 30.89105415344238
0, 2, 110, 11.10372447967529
0, 2, 111, 10.721022605896
0, 2, 112, 7.112174510955811
0, 2, 113, 10.81690406799316
0, 2, 114, 11.67595386505127
0, 2, 115, 9.152633666992188
0, 2, 116, 10.38489818572998
0, 2, 117, 5.044442176818848
0, 2, 118, 2.783144950866699
0, 2, 119, 1.866022109985352
0, 2, 120, 4.98804759979248
0, 2, 121, 2.89095401763916
0, 2, 122, 6.005447864532471
0, 2, 123, 3.465853691101074
0, 2, 124, 3.700236320495605
0, 2, 125, 4.527415752410889
0, 2, 126, 2.898927450180054
0, 2, 127, 4.267989635467529
0, 3, 0, 3.198785305023193
0, 3, 1, 3.395497798919678
0, 3, 2, 3.441870212554932
0, 3, 3, 3.329217672348022
0, 3, 4, 4.233250617980957
0, 3, 5, 6.269594192504883
0, 3, 6, 6.393863677978516
0, 3, 7, 8.389981269836426
0, 3, 8, 7.957321643829346
0, 3, 9, 4.962092876434326
0, 3, 10, 6.320820808410645
0, 3, 11, 3.066513299942017
0, 3, 12, 8.521040916442871
0, 3, 13, 14.95507907867432
0, 3, 14, 12.53786468505859
0, 3, 15, 13.26661109924316
0, 3, 16, 10.60754776000977
0, 3, 17, 19.5562915802002
0, 3, 18, 50.60083770751953
0, 3, 19, 175.1083984375
0, 3, 20, 269.670166015625
0, 3, 21, 271.1335144042969
0, 3, 22, 281.8988342285156
0, 3, 23, 286.1068420410156
0, 3, 24, 286.1095886230469
0, 3, 25, 269.800048828125
0, 3, 26, 303.6260986328125
0, 3, 27, 293.07373046875
0, 3, 28, 280.0971374511719
0, 3, 29, 337.7149047851562
0, 3, 30, 317.0990295410156
0, 3, 31, 284.6264038085938
0, 3, 32, 307.0911560058594
0, 3, 33, 313.9494018554688
0, 3, 34, 321.0328063964844
0, 3, 35, 304.009033203125
0, 3, 36, 270.9110717773438
0, 3, 37, 312.0365600585938
0, 3, 38, 304.4619750976562
0, 3, 39, 292.6361083984375
0, 3, 40, 271.9731750488281
0, 3, 41, 298.1443786621094
0, 3, 42, 286.9212646484375
0, 3, 43, 304.8693237304688
0, 3, 44, 310.8271789550781
0, 3, 45, 290.1052856445312
0, 3, 46, 328.8829345703125
0, 3, 47, 298.7201538085938
0, 3, 48, 302.6383666992188
0, 3, 49, 275.636474609375
0, 3, 50, 289.6431579589844
0, 3, 51, 276.817626953125
0, 3, 52, 315.9906616210938
0, 3, 53, 287.4664001464844
0, 3, 54, 284.6787414550781
0, 3, 55, 285.1191711425781
0, 3, 56, 298.42529296875
0, 3, 57, 287.6553344726562
0, 3, 58, 305.3078918457031
0, 3, 59, 296.5154724121094
0, 3, 60, 297.8920593261719
0, 3, 61, 265.9441223144531
0, 3, 62, 284.5654907226562
0, 3, 63, 309.1689147949219
0, 3, 64, 316.20458984375
0, 3, 65, 305.7893981933594
0, 3, 66, 313.9495239257812
0, 3, 67, 317.6717529296875
0, 3, 68, 279.9420471191406
0, 3, 69, 282.3534240722656
0, 3, 70, 289.4322509765625
0, 3, 71, 297.3484191894531
0, 3, 72, 270.0392761230469
0, 3, 73, 306.0419921875
0, 3, 74, 292.381591796875
0, 3, 75, 289.7872619628906
0, 3, 76, 305.3048706054688
0, 3, 77, 314.024169921875
0, 3, 78, 302.6639709472656
0, 3, 79, 281.978759765625
0, 3, 80, 289.7059631347656
0, 3, 81, 310.0845031738281
0, 3, 82, 315.4899597167969
0, 3, 83, 300.9501953125
0, 3, 84, 311.6842346191406
0, 3, 85, 291.2036437988281
0, 3, 86, 302.7158203125
0, 3, 87, 297.0593872070312
0, 3, 88, 299.2411499023438
0, 3, 89, 298.2388305664062
0, 3, 90, 277.4817810058594
0, 3, 91, 283.7637023925781
0, 3, 92, 303.3394775390625
0, 3, 93, 312.5628662109375
0, 3, 94, 299.3755493164062
0, 3, 95, 335.3234252929688
0, 3, 96, 289.8438110351562
0, 3, 97, 286.3390502929688
0, 3, 98, 278.3313293457031
0, 3, 99, 261.6037902832031
0, 3, 100, 285.9604797363281
0, 3, 101, 297.4802551269531
0, 3, 102, 275.75341796875
0, 3, 103, 320.2020263671875
0, 3, 104, 307.9317321777344
0, 3, 105, 288.6945495605469
0, 3, 106, 301.446533203125
0, 3, 107, 281.46875
0, 3, 108, 169.6261444091797
0, 3, 109, 60.07064819335938
0, 3, 110, 18.19587707519531
0, 3, 111, 12.35943031311035
0, 3, 112, 14.33082580566406
0, 3, 113, 9.140145301818848
0, 3, 114, 11.10091876983643
0, 3, 115, 9.108860969543457
0, 3, 116, 9.250432014465332
0, 3, 117, 8.187249183654785
0, 3, 118, 6.639701843261719
0, 3, 119, 7.744174480438232
0, 3, 120, 3.220465421676636
0, 3, 121, 1.362622261047363
0, 3, 122, 3.115827798843384
0, 3, 123, 6.642888069152832
0, 3, 124, 6.627812385559082
0, 3, 125, 7.144214630126953
0, 3, 126, 4.781975746154785
0, 3, 127, 3.072019577026367
0, 4, 0, 3.15100884437561
0, 4, 1, 6.910359859466553
0, 4, 2, 2.701718807220459
0, 4, 3, 2.039148330688477
0, 4, 4, 6.183093070983887
0, 4, 5, 9.871630668640137
0, 4, 6, 8.026420593261719
0, 4, 7, 4.310019493103027
0, 4, 8, 4.501861572265625
0, 4, 9, 7.496240139007568
0, 4, 10, 7.729475021362305
0, 4, 11, 7.164546966552734
0, 4, 12, 6.274408340454102
0, 4, 13, 8.426873207092285
0, 4, 14, 11.64746284484863
0, 4, 15, 10.93962001800537
0, 4, 16, 18.64955520629883
0, 4, 17, 17.82455253601074
0, 4, 18, 94.02397155761719
0, 4, 19, 222.2425994873047
0, 4, 20, 283.337890625
0, 4, 21, 273.3603210449219
0, 4, 22, 304.6085205078125
0, 4, 23, 267.07763671875
0, 4, 24, 289.1297912597656
0, 4, 25, 273.5143127441406
0, 4, 26, 294.7806701660156
0, 4, 27, 281.7926940917969
0, 4, 28, 309.3196716308594
0, 4, 29, 323.756591796875
0, 4, 30, 309.7218322753906
0, 4, 31, 306.1662292480469
0, 4, 32, 281.061279296875
0, 4, 33, 296.3679809570312
0, 4, 34, 296.1670227050781
0, 4, 35, 313.6833801269531
0, 4, 36, 294.849365234375
0, 4, 37, 290.0039367675781
0, 4, 38, 300.6693420410156
0, 4, 39, 301.3236694335938
0, 4, 40, 302.2545166015625
0, 4, 41, 310.0048522949219
0, 4, 42, 329.6162719726562
0, 4, 43, 296.3676147460938
0, 4, 44, 322.4285278320312
0, 4, 45, 323.4380187988281
0, 4, 46, 306.515625
0, 4, 47, 293.1580200195312
0, 4, 48, 294.5635681152344
0, 4, 49, 277.3739624023438
0, 4, 50, 296.6189880371094
0, 4, 51, 315.5445556640625
0, 4, 52, 328.3096008300781
0, 4, 53, 303.6185302734375
0, 4, 54, 285.9796447753906
0, 4, 55, 316.3206176757812
0, 4, 56, 287.7611694335938
0, 4, 57, 308.8120727539062
0, 4, 58, 294.351318359375
0, 4, 59, 307.4269409179688
0, 4, 60, 304.927978515625
0, 4, 61, 317.0439453125
0, 4, 62, 307.2951965332031
0, 4, 63, 297.70751953125
0, 4, 64, 329.3853149414062
0, 4, 65, 316.2792053222656
0, 4, 66, 295.6538391113281
0, 4, 67, 287.6776733398438
0, 4, 68, 312.0325927734375
0, 4, 69, 275.9084777832031
0, 4, 70, 301.0332641601562
0, 4, 71, 322.2227478027344
0, 4, 72, 332.8244323730469
0, 4, 73, 297.5341796875
0, 4, 74, 293.2140502929688
0, 4, 75, 289.8287963867188
0, 4, 76, 276.6722412109375
0, 4, 77, 279.7633972167969
0, 4, 78, 309.016357421875
0, 4, 79, 318.7980346679688
0, 4, 80, 315.3819274902344
0, 4, 81, 313.3523864746094
0, 4, 82, 297.6222839355469
0, 4, 83, 298.9643859863281
0, 4, 84, 288.1794128417969
0, 4, 85, 297.0479736328125
0, 4, 86, 297.93603515625
0, 4, 87, 286.4981079101562
0, 4, 88, 305.7825317382812
0, 4, 89, 296.40283203125
0, 4, 90, 332.3174438476562
0, 4, 91, 301.2164001464844
0, 4, 92, 290.9496459960938
0, 4, 93, 298.7378845214844
0, 4, 94, 293.4078063964844
0, 4, 95, 289.9344482421875
0, 4, 96, 322.0453491210938
0, 4, 97, 273.4792785644531
0, 4, 98, 326.6060485839844
0, 4, 99, 312.6694030761719
0, 4, 100, 302.1715393066406
0, 4, 101, 257.2822265625
0, 4, 102, 298.5138549804688
0, 4, 103, 316.0676574707031
0, 4, 104, 281.348876953125
0, 4, 105, 311.3726806640625
0, 4, 106, 287.1514587402344
0, 4, 107, 297.7558288574219
0, 4, 108, 227.0968170166016
0, 4, 109, 81.47747039794922
0, 4, 110, 16.9909553527832
0, 4, 111, 15.14308261871338
0, 4, 112, 8.607772827148438
0, 4, 113, 8.315225601196289
0, 4, 114, 7.446684837341309
0, 4, 115, 8.42460823059082
0, 4, 116, 11.00863933563232
0, 4, 117, 6.591351509094238
0, 4, 118, 9.07304859161377
0, 4, 119, 8.999744415283203
0, 4, 120, 6.334782600402832
0, 4, 121, 3.856366157531738
0, 4, 122, 4.420440673828125
0, 4, 123, 6.976097106933594
0, 4, 124, 3.803410053253174
0, 4, 125, 10.49229049682617
0, 4, 126, 5.815484046936035
0, 4, 127, 3.968484878540039
0, 5, 0, 3.759361267089844
0, 5, 1, 4.31185245513916
0, 5, 2, 3.879370212554932
0, 5, 3, 3.573403596878052
0, 5, 4, 5.595791816711426
0, 5, 5, 4.992792129516602
0, 5, 6, 5.027276992797852
0, 5, 7, 3.853229761123657
0, 5, 8, 5.22894287109375
0, 5, 9, 6.252316474914551
0, 5, 10, 7.942761421203613
0, 5, 11, 9.48396110534668
0, 5, 12, 7.902371883392334
0, 5, 13, 5.150783061981201
0, 5, 14, 12.37946033477783
0, 5, 15, 17.41999435424805
0, 5, 16, 14.01901149749756
0, 5, 17, 30.21184158325195
0, 5, 18, 138.7031860351562
0, 5, 19, 287.9736938476562
0, 5, 20, 307.1650695800781
0, 5, 21, 316.9295043945312
0, 5, 22, 275.8881225585938
0, 5, 23, 312.5558471679688
0, 5, 24, 303.2463989257812
0, 5, 25, 289.5221252441406
0, 5, 26, 295.2550964355469
0, 5, 27, 323.4568176269531
0, 5, 28, 303.6839904785156
0, 5, 29, 298.590576171875
0, 5, 30, 323.5445861816406
0, 5, 31, 286.9203186035156
0, 5, 32, 304.4769897460938
0, 5, 33, 303.4525146484375
0, 5, 34, 298.7255859375
0, 5, 35, 309.8067932128906
0, 5, 36, 269.1800231933594
0, 5, 37, 280.8903503417969
0, 5, 38, 294.5111083984375
0, 5, 39, 312.1775817871094
0, 5, 40, 307.9375610351562
0, 5, 41, 274.3371887207031
0, 5, 42, 304.2951965332031
0, 5, 43, 313.7763671875
0, 5, 44, 291.0263977050781
0, 5, 45, 305.9385070800781
0, 5, 46, 265.3309326171875
0, 5, 47, 282.6195068359375
0, 5, 48, 294.4418029785156
0, 5, 49, 287.2841186523438
0, 5, 50, 296.3525390625
0, 5, 51, 278.9997863769531
0, 5, 52, 269.63037109375
0, 5, 53, 283.9201965332031
0, 5, 54, 295.1334228515625
0, 5, 55, 344.9679870605469
0, 5, 56, 305.5306701660156
0, 5, 57, 309.3358459472656
0, 5, 58, 310.6893310546875
0, 5, 59, 303.6311950683594
0, 5, 60, 307.8488464355469
0, 5, 61, 280.8349304199219
0, 5, 62, 323.6898193359375
0, 5, 63, 290.2906494140625
0, 5, 64, 324.1400146484375
0, 5, 65, 308.2603759765625
0, 5, 66, 326.5662841796875
0, 5, 67, 311.0570068359375
0, 5, 68, 308.0025634765625
0, 5, 69, 310.7731628417969
0, 5, 70, 303.1233215332031
0, 5, 71, 271.0914916992188
0, 5, 72, 309.4154968261719
0, 5, 73, 304.0809020996094
0, 5, 74, 295.728271484375
0, 5, 75, 295.2775573730469
0, 5, 76, 286.3646545410156
0, 5, 77, 298.9478149414062
0, 5, 78, 314.7534484863281
0, 5, 79, 305.3035278320312
0, 5, 80, 295.1923217773438
0, 5, 81, 326.494384765625
0, 5, 82, 324.4180603027344
0, 5, 83, 281.4183959960938
0, 5, 84, 306.6458740234375
0, 5, 85, 270.0286865234375
0, 5, 86, 324.1781921386719
0, 5, 87, 282.5265808105469
0, 5, 88, 315.7568969726562
0, 5, 89, 303.7732238769531
0, 5, 90, 316.0428466796875
0, 5, 91, 314.8453369140625
0, 5, 92, 296.3528137207031
0, 5, 93, 322.3365783691406
0, 5, 94, 307.7771911621094
0, 5, 95, 296.9000854492188
0, 5, 96, 295.5556335449219
0, 5, 97, 296.6804809570312
0, 5, 98, 318.5367126464844
0, 5, 99, 304.6538696289062
0, 5, 100, 291.5472106933594
0, 5, 101, 307.8993835449219
0, 5, 102, 291.5609436035156
0, 5, 103, 312.5833129882812
0, 5, 104, 305.1409606933594
0, 5, 105, 292.181640625
0, 5, 106, 283.3150024414062
0, 5, 107, 295.88232421875
0, 5, 108, 262.7716979980469
0, 5, 109, 157.6535034179688
0, 5, 110, 41.39834213256836
0, 5, 111, 21.39197158813477
0, 5, 112, 16.19832992553711
0, 5, 113, 14.08745956420898
0, 5, 114, 12.96837902069092
0, 5, 115, 7.334702491760254
0, 5, 116, 9.267430305480957
0, 5, 117, 6.926625728607178
0, 5, 118, 17.31757354736328
0, 5, 119, 4.495060920715332
0, 5, 120, 6.136819839477539
0, 5, 121, 4.148386478424072
0, 5, 122, 5.657573223114014
0, 5, 123, 5.430809497833252
0, 5, 124, 5.424331188201904
0, 5, 125, 3.10136079788208
0, 5, 126, 9.267056465148926
0, 5, 127, 3.416528224945068
0, 6, 0, 5.82498836517334
0, 6, 1, 3.915583372116089
0, 6, 2, 3.376778602600098
0, 6, 3, 6.226231098175049
0, 6, 4, 2.677763700485229
0, 6, 5, 5.339454650878906
0, 6, 6, 11.90067768096924
0, 6, 7, 7.468574523925781
0, 6, 8, 8.925433158874512
0, 6, 9, 7.205483436584473
0, 6, 10, 9.888915061950684
0, 6, 11, 7.223452091217041
0, 6, 12, 8.746253967285156
0, 6, 13, 11.61484813690186
0, 6, 14, 8.39362907409668
0, 6, 15, 17.17144393920898
0, 6, 16, 26.86248970031738
0, 6, 17, 54.56415939331055
0, 6, 18, 173.9335479736328
0, 6, 19, 278.4887390136719
0, 6, 20, 289.7480163574219
0, 6, 21, 313.4835815429688
0, 6, 22, 319.9948120117188
0, 6, 23, 307.9134826660156
0, 6, 24, 317.9383850097656
0, 6, 25, 317.7510681152344
0, 6, 26, 319.5242614746094
0, 6, 27, 331.3396911621094
0, 6, 28, 297.1162719726562
0, 6, 29, 330.0800476074219
0, 6, 30, 283.0240783691406
0, 6, 31, 285.7188415527344
0, 6, 32, 341.437255859375
0, 6, 33, 300.2373352050781
0, 6, 34, 338.7953796386719
0, 6, 35, 320.3570556640625
0, 6, 36, 274.2627258300781
0, 6, 37, 290.444091796875
0, 6, 38, 310.4822082519531
0, 6, 39, 298.423583984375
0, 6, 40, 284.2176818847656
0, 6, 41, 296.4708862304688
0, 6, 42, 306.0394287109375
0, 6, 43, 290.6057434082031
0, 6, 44, 280.7274475097656
0, 6, 45, 321.1063232421875
0, 6, 46, 302.5809020996094
0, 6, 47, 333.5493774414062
0, 6, 48, 294.5416870117188
0, 6, 49, 310.5941162109375
0, 6, 50, 327.3548278808594
0, 6, 51, 309.7438049316406
0, 6, 52, 320.6608581542969
0, 6, 53, 329.6481628417969
0, 6, 54, 302.9676208496094
0, 6, 55, 306.4104309082031
0, 6, 56, 294.1728515625
0, 6, 57, 313.0183410644531
0, 6, 58, 263.8815002441406
0, 6, 59, 301.0064086914062
0, 6, 60, 312.9704895019531
0, 6, 61, 271.5961303710938
0, 6, 62, 336.4266052246094
0, 6, 63, 324.9596252441406
0, 6, 64, 291.0338439941406
0, 6, 65, 284.9224243164062
0, 6, 66, 303.6025390625
0, 6, 67, 311.957763671875
0, 6, 68, 293.3623962402344
0, 6, 69, 277.3550415039062
0, 6, 70, 274.1239318847656
0, 6, 71, 288.7711791992188
0, 6, 72, 310.4794006347656
0, 6, 73, 291.2802734375
0, 6, 74, 329.9894104003906
0, 6, 75, 344.5115356445312
0, 6, 76, 298.8049011230469
0, 6, 77, 287.79541015625
0, 6, 78, 280.5667114257812
0, 6, 79, 295.234375
0, 6, 80, 299.5845031738281
0, 6, 81, 314.8583374023438
0, 6, 82, 320.1200561523438
0, 6, 83, 321.4334716796875
0, 6, 84, 296.4508056640625
0, 6, 85, 301.6787109375
0, 6, 86, 329.7608947753906
0, 6, 87, 293.0133666992188
0, 6, 88, 305.2131042480469
0, 6, 89, 306.8796997070312
0, 6, 90, 299.5199279785156
0, 6, 91, 313.7454833984375
0, 6, 92, 285.1838989257812
0, 6, 93, 295.2100219726562
0, 6, 94, 275.0170593261719
0, 6, 95, 299.8172302246094
0, 6, 96, 350.5653991699219
0, 6, 97, 308.1328125
0, 6, 98, 300.3797302246094
0, 6, 99, 272.3255615234375
0, 6, 100, 309.310791015625
0, 6, 101, 291.8797912597656
0, 6, 102, 308.5538024902344
0, 6, 103, 308.459228515625
0, 6, 104, 291.9828186035156
0, 6, 105, 301.9334106445312
0, 6, 106, 306.9334411621094
0, 6, 107, 304.870849609375
0, 6, 108, 266.1820983886719
0, 6, 109, 188.7080993652344
0, 6, 110, 55.11698150634766
0, 6, 111, 21.39868545532227
0, 6, 112, 12.33731269836426
0, 6, 113, 11.88745212554932
0, 6, 114, 12.07611751556396
0, 6, 115, 14.08208274841309
0, 6, 116, 6.819220066070557
0, 6, 117, 6.52177906036377
0, 6, 118, 9.230823516845703
0, 6, 119, 7.933871269226074
0, 6, 120, 6.850899219512939
0, 6, 121, 7.248190879821777
0, 6, 122, 6.921244621276855
0, 6, 123, 4.40145206451416
0, 6, 124, 7.345881462097168
0, 6, 125, 6.636283874511719
0, 6, 126, 5.132562160491943
0, 6, 127, 6.126076698303223
0, 7, 0, 4.29780912399292
0, 7, 1, 3.695411443710327
0, 7, 2, 5.056305885314941
0, 7, 3, 4.155559539794922
0, 7, 4, 4.924759387969971
0, 7, 5, 6.155879497528076
0, 7, 6, 6.141067981719971
0, 7, 7, 6.211085796356201
0, 7, 8, 4.336748600006104
0, 7, 9, 5.395900726318359
0, 7, 10, 8.47764778137207
0, 7, 11, 12.13211250305176
0, 7, 12, 9.660961151123047
0, 7, 13, 13.0262622833252
0, 7, 14, 11.24878120422363
0, 7, 15, 17.66101837158203
0, 7, 16, 26.19155693054199
0, 7, 17, 97.482177734375
0, 7, 18, 218.0768890380859
0, 7, 19, 288.2498779296875
0, 7, 20, 296.6366271972656
0, 7, 21, 276.458984375
0, 7, 22, 300.0148010253906
0, 7, 23, 290.4470825195312
0, 7, 24, 312.5786743164062
0, 7, 25, 327.7977294921875
0, 7, 26, 277.1995544433594
0, 7, 27, 297.0349426269531
0, 7, 28, 325.3515319824219
0, 7, 29, 316.2806701660156
0, 7, 30, 301.5924987792969
0, 7, 31, 276.3405151367188
0, 7, 32, 306.5152893066406
0, 7, 33, 262.3442077636719
0, 7, 34, 297.9760131835938
0, 7, 35, 324.9231872558594
0, 7, 36, 330.0064392089844
0, 7, 37, 323.1934509277344
0, 7, 38, 295.7679138183594
0, 7, 39, 304.8529663085938
0, 7, 40, 286.4239501953125
0, 7, 41, 270.98828125
0, 7, 42, 300.4044494628906
0, 7, 43, 272.8504333496094
0, 7, 44, 303.8712768554688
0, 7, 45, 297.1971740722656
0, 7, 46, 281.0204772949219
0, 7, 47, 326.6455078125
0, 7, 48, 283.8895263671875
0, 7, 49, 300.961181640625
0, 7, 50, 321.1528930664062
0, 7, 51, 299.9210815429688
0, 7, 52, 327.9534301757812
0, 7, 53, 311.1446228027344
0, 7, 54, 322.3424682617188
0, 7, 55, 308.1828308105469
0, 7, 56, 279.2456970214844
0, 7, 57, 283.126220703125
0, 7, 58, 294.9732360839844
0, 7, 59, 293.9439392089844
0, 7, 60, 323.5091552734375
0, 7, 61, 278.7393493652344
0, 7, 62, 296.8841857910156
0, 7, 63, 293.6538696289062
0, 7, 64, 308.2093811035156
0, 7, 65, 330.9165344238281
0, 7, 66, 318.3675231933594
0, 7, 67, 300.5186157226562
0, 7, 68, 279.3513793945312
0, 7, 69, 295.7833251953125
0, 7, 70, 301.8258361816406
0, 7, 71, 309.8159790039062
0, 7, 72, 283.7450866699219
0, 7, 73, 296.1854553222656
0, 7, 74, 346.7299499511719
0, 7, 75, 318.9947204589844
0, 7, 76, 323.8392639160156
0, 7, 77, 279.9699096679688
0, 7, 78, 301.2239685058594
0, 7, 79, 297.4465637207031
0, 7, 80, 312.8744201660156
0, 7, 81, 319.2636108398438
0, 7, 82, 332.5486755371094
0, 7, 83, 318.6065979003906
0, 7, 84, 311.2623291015625
0, 7, 85, 272.6981811523438
0, 7, 86, 310.5272216796875
0, 7, 87, 310.29248046875
0, 7, 88, 307.1999816894531
0, 7, 89, 294.1970825195312
0, 7, 90, 305.1317138671875
0, 7, 91, 314.77490234375
0, 7, 92, 289.041259765625
0, 7, 93, 308.7724609375
0, 7, 94, 273.6443786621094
0, 7, 95, 298.9998474121094
0, 7, 96, 333.5710754394531
0, 7, 97, 295.1812438964844
0, 7, 98, 291.4727478027344
0, 7, 99, 313.6316833496094
0, 7, 100, 281.9746398925781
0, 7, 101, 276.8923645019531
0, 7, 102, 290.3500061035156
0, 7, 103, 292.1003112792969
0, 7, 104, 274.3820190429688
0, 7, 105, 305.8534545898438
0, 7, 106, 316.9009399414062
0, 7, 107, 298.7392578125
0, 7, 108, 272.5083618164062
0, 7, 109, 235.0956878662109
0, 7, 110, 96.89218902587891
0, 7, 111, 25.21452140808105
0, 7, 112, 13.61866092681885
0, 7, 113, 14.84859752655029
0, 7, 114, 12.63152027130127
0, 7, 115, 11.31987380981445
0, 7, 116, 6.947514533996582
0, 7, 117, 5.847443580627441
0, 7, 118, 7.12720775604248
0, 7, 119, 6.978569030761719
0, 7, 120, 4.479960918426514
0, 7, 121, 5.429400444030762
0, 7, 122, 7.271630764007568
0, 7, 123, 5.638827323913574
0, 7, 124, 4.845929622650146
0, 7, 125, 6.423151969909668
0, 7, 126, 7.065062046051025
0, 7, 127, 3.245928287506104
0, 8, 0, 3.363811492919922
0, 8, 1, 8.570643424987793
0, 8, 2, 4.560486316680908
0, 8, 3, 2.457087993621826
0, 8, 4, 5.1258864402771
0, 8, 5, 3.818378925323486
0, 8, 6, 6.790091514587402
0, 8, 7, 5.12459659576416
0, 8, 8, 8.196379661560059
0, 8, 9, 4.526681423187256
0, 8, 10, 7.556252002716064
0, 8, 11, 13.73392581939697
0, 8, 12, 14.59399223327637
0, 8, 13, 16.6146297454834
0, 8, 14, 13.42595863342285
0, 8, 15, 18.50759506225586
0, 8, 16, 32.79018783569336
0, 8, 17, 129.8995971679688
0, 8, 18, 242.8708038330078
0, 8, 19, 296.755126953125
0, 8, 20, 286.6386108398438
0, 8, 21, 306.0151672363281
0, 8, 22, 295.4126281738281
0, 8, 23, 274.318359375
0, 8, 24, 268.5382080078125
0, 8, 25, 278.6205139160156
0, 8, 26, 305.7490539550781
0, 8, 27, 311.724609375
0, 8, 28, 303.9423522949219
0, 8, 29, 319.7970886230469
0, 8, 30, 315.3733825683594
0, 8, 31, 304.1027221679688
0, 8, 32, 279.740478515625
0, 8, 33, 294.9411315917969
0, 8, 34, 288.0225219726562
0, 8, 35, 283.0584411621094
0, 8, 36, 315.8982238769531
0, 8, 37, 339.4276428222656
0, 8, 38, 331.9351196289062
0, 8, 39, 282.6312866210938
0, 8, 40, 304.7702331542969
0, 8, 41, 292.41064453125
0, 8, 42, 325.4020080566406
