# TOPAS Version: 3.1.p3
# Parameter File: batch_inserts_136.txt
# Results for scorer Readout_Adipose
# Scored in component: MyBox
# X in 1 bin  of 0.75 cm
# Y in 512 bins of 0.0783984 cm
# Z in 128 bins of 0.078125 cm
# EnergyDeposit ( MeV ) : Sum   
0, 0, 0, 6.123305797576904
0, 0, 1, 1.716735124588013
0, 0, 2, 4.026509284973145
0, 0, 3, 2.167021036148071
0, 0, 4, 4.022498607635498
0, 0, 5, 3.221136093139648
0, 0, 6, 7.327510356903076
0, 0, 7, 7.972863674163818
0, 0, 8, 3.447992563247681
0, 0, 9, 7.04057502746582
0, 0, 10, 6.336373805999756
0, 0, 11, 5.093551158905029
0, 0, 12, 5.191070079803467
0, 0, 13, 6.295450210571289
0, 0, 14, 9.208946228027344
0, 0, 15, 8.702909469604492
0, 0, 16, 9.698040008544922
0, 0, 17, 9.852312088012695
0, 0, 18, 17.72675323486328
0, 0, 19, 43.36648941040039
0, 0, 20, 141.862548828125
0, 0, 21, 223.6969909667969
0, 0, 22, 248.4074859619141
0, 0, 23, 255.3792266845703
0, 0, 24, 251.6901550292969
0, 0, 25, 257.6471557617188
0, 0, 26, 234.8951568603516
0, 0, 27, 237.2898406982422
0, 0, 28, 272.4622192382812
0, 0, 29, 252.3172607421875
0, 0, 30, 230.1917114257812
0, 0, 31, 243.3659515380859
0, 0, 32, 263.1026000976562
0, 0, 33, 260.4111328125
0, 0, 34, 287.1045227050781
0, 0, 35, 266.8230590820312
0, 0, 36, 247.0003967285156
0, 0, 37, 253.5824432373047
0, 0, 38, 267.0901794433594
0, 0, 39, 229.4585266113281
0, 0, 40, 242.2138977050781
0, 0, 41, 265.1637878417969
0, 0, 42, 229.1252746582031
0, 0, 43, 259.74267578125
0, 0, 44, 252.6613006591797
0, 0, 45, 252.8105926513672
0, 0, 46, 244.1504669189453
0, 0, 47, 252.5522918701172
0, 0, 48, 266.4946594238281
0, 0, 49, 273.4657287597656
0, 0, 50, 250.8734588623047
0, 0, 51, 255.6329345703125
0, 0, 52, 273.5533752441406
0, 0, 53, 292.2313537597656
0, 0, 54, 241.1953125
0, 0, 55, 239.1083831787109
0, 0, 56, 277.1923522949219
0, 0, 57, 263.330078125
0, 0, 58, 245.2564544677734
0, 0, 59, 269.0689086914062
0, 0, 60, 234.5237884521484
0, 0, 61, 243.9158935546875
0, 0, 62, 256.312255859375
0, 0, 63, 265.7786865234375
0, 0, 64, 254.7850341796875
0, 0, 65, 261.270751953125
0, 0, 66, 276.4377136230469
0, 0, 67, 245.7202606201172
0, 0, 68, 258.8192138671875
0, 0, 69, 261.86962890625
0, 0, 70, 273.1946716308594
0, 0, 71, 239.1826934814453
0, 0, 72, 249.4722290039062
0, 0, 73, 256.7799377441406
0, 0, 74, 251.8807220458984
0, 0, 75, 240.4736633300781
0, 0, 76, 228.5744323730469
0, 0, 77, 260.063720703125
0, 0, 78, 257.2586975097656
0, 0, 79, 279.3925476074219
0, 0, 80, 215.6953887939453
0, 0, 81, 266.6315612792969
0, 0, 82, 256.6690979003906
0, 0, 83, 245.4147033691406
0, 0, 84, 270.2003173828125
0, 0, 85, 231.7472229003906
0, 0, 86, 254.2297210693359
0, 0, 87, 250.2065887451172
0, 0, 88, 259.3945617675781
0, 0, 89, 283.3726501464844
0, 0, 90, 244.1835174560547
0, 0, 91, 282.5915222167969
0, 0, 92, 252.6259155273438
0, 0, 93, 249.3124542236328
0, 0, 94, 251.0423278808594
0, 0, 95, 247.8232116699219
0, 0, 96, 273.9162902832031
0, 0, 97, 272.5030517578125
0, 0, 98, 272.5699157714844
0, 0, 99, 259.9915771484375
0, 0, 100, 258.0784301757812
0, 0, 101, 226.4484252929688
0, 0, 102, 232.35986328125
0, 0, 103, 269.7823791503906
0, 0, 104, 254.8950958251953
0, 0, 105, 252.7021484375
0, 0, 106, 245.1766052246094
0, 0, 107, 152.8524322509766
0, 0, 108, 38.67340469360352
0, 0, 109, 11.29073429107666
0, 0, 110, 12.59995269775391
0, 0, 111, 8.587518692016602
0, 0, 112, 7.523368358612061
0, 0, 113, 5.305507659912109
0, 0, 114, 6.599117279052734
0, 0, 115, 6.196356296539307
0, 0, 116, 5.798261642456055
0, 0, 117, 6.579917430877686
0, 0, 118, 6.270677089691162
0, 0, 119, 3.981997013092041
0, 0, 120, 3.20851993560791
0, 0, 121, 2.861477613449097
0, 0, 122, 5.105415344238281
0, 0, 123, 3.195504426956177
0, 0, 124, 3.995412588119507
0, 0, 125, 4.153767585754395
0, 0, 126, 6.930625438690186
0, 0, 127, 3.295467138290405
0, 1, 0, 8.528572082519531
0, 1, 1, 4.151597499847412
0, 1, 2, 3.854336261749268
0, 1, 3, 3.987695217132568
0, 1, 4, 2.913596391677856
0, 1, 5, 5.332220554351807
0, 1, 6, 6.516391277313232
0, 1, 7, 6.44206714630127
0, 1, 8, 9.274860382080078
0, 1, 9, 4.051108837127686
0, 1, 10, 8.740170478820801
0, 1, 11, 10.66668224334717
0, 1, 12, 7.437154293060303
0, 1, 13, 9.315309524536133
0, 1, 14, 7.919187545776367
0, 1, 15, 6.629001140594482
0, 1, 16, 11.59573936462402
0, 1, 17, 9.368075370788574
0, 1, 18, 21.2242603302002
0, 1, 19, 66.48291015625
0, 1, 20, 199.0476226806641
0, 1, 21, 255.8022003173828
0, 1, 22, 297.8064270019531
0, 1, 23, 283.2318725585938
0, 1, 24, 275.1966857910156
0, 1, 25, 291.958740234375
0, 1, 26, 267.6543884277344
0, 1, 27, 306.5187072753906
0, 1, 28, 300.2822570800781
0, 1, 29, 294.591796875
0, 1, 30, 281.077392578125
0, 1, 31, 292.05712890625
0, 1, 32, 289.8416442871094
0, 1, 33, 296.9370727539062
0, 1, 34, 294.1275634765625
0, 1, 35, 277.6241149902344
0, 1, 36, 305.8999938964844
0, 1, 37, 294.8625793457031
0, 1, 38, 279.8150939941406
0, 1, 39, 294.464599609375
0, 1, 40, 266.8614501953125
0, 1, 41, 288.5063171386719
0, 1, 42, 290.3810729980469
0, 1, 43, 331.583251953125
0, 1, 44, 277.3396911621094
0, 1, 45, 292.5536804199219
0, 1, 46, 258.8138427734375
0, 1, 47, 310.8295288085938
0, 1, 48, 286.1490173339844
0, 1, 49, 303.0100402832031
0, 1, 50, 264.912841796875
0, 1, 51, 272.9185180664062
0, 1, 52, 297.2762756347656
0, 1, 53, 303.3828735351562
0, 1, 54, 274.8293151855469
0, 1, 55, 294.7844543457031
0, 1, 56, 281.0380859375
0, 1, 57, 299.7737426757812
0, 1, 58, 310.8114318847656
0, 1, 59, 295.8052368164062
0, 1, 60, 297.9508361816406
0, 1, 61, 274.8495483398438
0, 1, 62, 309.9552001953125
0, 1, 63, 285.9418640136719
0, 1, 64, 290.0182800292969
0, 1, 65, 296.2950439453125
0, 1, 66, 293.5386047363281
0, 1, 67, 290.8957214355469
0, 1, 68, 277.4579467773438
0, 1, 69, 279.3082580566406
0, 1, 70, 270.6947021484375
0, 1, 71, 273.0469055175781
0, 1, 72, 285.7332153320312
0, 1, 73, 304.16162109375
0, 1, 74, 305.4535827636719
0, 1, 75, 294.7733764648438
0, 1, 76, 285.72607421875
0, 1, 77, 290.980224609375
0, 1, 78, 298.3785400390625
0, 1, 79, 300.9894104003906
0, 1, 80, 296.1267395019531
0, 1, 81, 299.8117065429688
0, 1, 82, 286.447509765625
0, 1, 83, 333.0596923828125
0, 1, 84, 308.5548706054688
0, 1, 85, 253.1839904785156
0, 1, 86, 293.5048828125
0, 1, 87, 289.2189025878906
0, 1, 88, 299.1559753417969
0, 1, 89, 290.730712890625
0, 1, 90, 272.0808410644531
0, 1, 91, 319.7278137207031
0, 1, 92, 290.4157104492188
0, 1, 93, 288.1841430664062
0, 1, 94, 303.68310546875
0, 1, 95, 283.529296875
0, 1, 96, 282.6257019042969
0, 1, 97, 303.0019226074219
0, 1, 98, 276.5059204101562
0, 1, 99, 267.3026733398438
0, 1, 100, 276.2217712402344
0, 1, 101, 280.1542663574219
0, 1, 102, 276.3200988769531
0, 1, 103, 281.2701110839844
0, 1, 104, 306.7672729492188
0, 1, 105, 297.4323425292969
0, 1, 106, 262.03759765625
0, 1, 107, 191.7429504394531
0, 1, 108, 80.4718017578125
0, 1, 109, 23.45830345153809
0, 1, 110, 11.06317901611328
0, 1, 111, 8.539398193359375
0, 1, 112, 12.04883098602295
0, 1, 113, 6.74057674407959
0, 1, 114, 5.931093692779541
0, 1, 115, 5.212995529174805
0, 1, 116, 10.51939392089844
0, 1, 117, 6.776834964752197
0, 1, 118, 6.996939659118652
0, 1, 119, 4.252878189086914
0, 1, 120, 5.416682243347168
0, 1, 121, 3.62680983543396
0, 1, 122, 3.246806859970093
0, 1, 123, 4.806897640228271
0, 1, 124, 8.858747482299805
0, 1, 125, 4.05291223526001
0, 1, 126, 3.25663948059082
0, 1, 127, 1.468148350715637
0, 2, 0, 2.795454978942871
0, 2, 1, 1.866601228713989
0, 2, 2, 3.836307525634766
0, 2, 3, 5.652473926544189
0, 2, 4, 3.376695871353149
0, 2, 5, 4.161169528961182
0, 2, 6, 2.263396024703979
0, 2, 7, 5.092511177062988
0, 2, 8, 4.869718551635742
0, 2, 9, 5.424689769744873
0, 2, 10, 7.966050148010254
0, 2, 11, 5.082866191864014
0, 2, 12, 7.741415023803711
0, 2, 13, 9.477459907531738
0, 2, 14, 9.080502510070801
0, 2, 15, 6.465437889099121
0, 2, 16, 9.745632171630859
0, 2, 17, 17.11981391906738
0, 2, 18, 31.15775108337402
0, 2, 19, 114.9419174194336
0, 2, 20, 247.3812561035156
0, 2, 21, 270.8991088867188
0, 2, 22, 315.7458801269531
0, 2, 23, 300.9320068359375
0, 2, 24, 285.1739807128906
0, 2, 25, 304.0447387695312
0, 2, 26, 291.8740844726562
0, 2, 27, 275.9117431640625
0, 2, 28, 274.6904296875
0, 2, 29, 275.8265991210938
0, 2, 30, 288.7737426757812
0, 2, 31, 277.361328125
0, 2, 32, 293.3626708984375
0, 2, 33, 280.9704895019531
0, 2, 34, 332.2041931152344
0, 2, 35, 287.8953552246094
0, 2, 36, 305.8480834960938
0, 2, 37, 315.9789428710938
0, 2, 38, 310.6732482910156
0, 2, 39, 267.7501831054688
0, 2, 40, 308.1383972167969
0, 2, 41, 292.8541564941406
0, 2, 42, 303.9520874023438
0, 2, 43, 312.8604431152344
0, 2, 44, 314.1204528808594
0, 2, 45, 324.777099609375
0, 2, 46, 286.8182983398438
0, 2, 47, 302.9034423828125
0, 2, 48, 280.5604553222656
0, 2, 49, 279.8648986816406
0, 2, 50, 294.8226013183594
0, 2, 51, 282.537841796875
0, 2, 52, 273.5394592285156
0, 2, 53, 285.8778686523438
0, 2, 54, 282.7489013671875
0, 2, 55, 277.7308349609375
0, 2, 56, 300.8291015625
0, 2, 57, 292.4561157226562
0, 2, 58, 301.4920349121094
0, 2, 59, 290.8157653808594
0, 2, 60, 317.8709411621094
0, 2, 61, 301.6002502441406
0, 2, 62, 313.7460021972656
0, 2, 63, 303.1849670410156
0, 2, 64, 295.2306213378906
0, 2, 65, 311.255859375
0, 2, 66, 279.037841796875
0, 2, 67, 291.3861083984375
0, 2, 68, 296.6055603027344
0, 2, 69, 310.2162475585938
0, 2, 70, 334.9987487792969
0, 2, 71, 286.2406616210938
0, 2, 72, 302.1504821777344
0, 2, 73, 313.4733276367188
0, 2, 74, 288.5397338867188
0, 2, 75, 305.0724792480469
0, 2, 76, 288.7528381347656
0, 2, 77, 298.7845458984375
0, 2, 78, 315.3236083984375
0, 2, 79, 307.6744079589844
0, 2, 80, 295.5302429199219
0, 2, 81, 282.7819519042969
0, 2, 82, 319.0840759277344
0, 2, 83, 313.7660827636719
0, 2, 84, 287.5748596191406
0, 2, 85, 281.9659729003906
0, 2, 86, 326.4256286621094
0, 2, 87, 286.4667053222656
0, 2, 88, 279.7635192871094
0, 2, 89, 297.0460815429688
0, 2, 90, 294.8155517578125
0, 2, 91, 276.6420593261719
0, 2, 92, 305.1296997070312
0, 2, 93, 315.7114562988281
0, 2, 94, 291.3209228515625
0, 2, 95, 316.1807556152344
0, 2, 96, 314.5750427246094
0, 2, 97, 290.0147705078125
0, 2, 98, 292.0189514160156
0, 2, 99, 272.3025512695312
0, 2, 100, 306.4432678222656
0, 2, 101, 304.0703125
0, 2, 102, 295.9264221191406
0, 2, 103, 293.7301330566406
0, 2, 104, 292.2176818847656
0, 2, 105, 274.0352172851562
0, 2, 106, 294.7666931152344
0, 2, 107, 269.0666809082031
0, 2, 108, 116.023811340332
0, 2, 109, 32.80964279174805
0, 2, 110, 10.68987846374512
0, 2, 111, 10.30959987640381
0, 2, 112, 8.374233245849609
0, 2, 113, 9.847186088562012
0, 2, 114, 9.389776229858398
0, 2, 115, 9.557659149169922
0, 2, 116, 8.119270324707031
0, 2, 117, 7.156556606292725
0, 2, 118, 2.922255516052246
0, 2, 119, 4.085888385772705
0, 2, 120, 7.166488170623779
0, 2, 121, 2.213515996932983
0, 2, 122, 4.141992092132568
0, 2, 123, 3.763472080230713
0, 2, 124, 2.79178261756897
0, 2, 125, 5.606062889099121
0, 2, 126, 3.246446847915649
0, 2, 127, 4.706066131591797
0, 3, 0, 3.887302160263062
0, 3, 1, 2.941364288330078
0, 3, 2, 3.985935926437378
0, 3, 3, 1.299920439720154
0, 3, 4, 3.315837144851685
0, 3, 5, 7.121832847595215
0, 3, 6, 6.317636013031006
0, 3, 7, 6.478001117706299
0, 3, 8, 7.397637844085693
0, 3, 9, 6.149417877197266
0, 3, 10, 8.034056663513184
0, 3, 11, 4.981210708618164
0, 3, 12, 8.745980262756348
0, 3, 13, 14.93044471740723
0, 3, 14, 11.19326591491699
0, 3, 15, 13.92778015136719
0, 3, 16, 12.77376079559326
0, 3, 17, 22.23906326293945
0, 3, 18, 53.98718643188477
0, 3, 19, 175.4668579101562
0, 3, 20, 269.7718505859375
0, 3, 21, 272.6727294921875
0, 3, 22, 283.12744140625
0, 3, 23, 285.8754577636719
0, 3, 24, 286.4942626953125
0, 3, 25, 270.3331298828125
0, 3, 26, 304.6117858886719
0, 3, 27, 292.2998657226562
0, 3, 28, 282.9176025390625
0, 3, 29, 338.6285095214844
0, 3, 30, 316.4071350097656
0, 3, 31, 287.4550476074219
0, 3, 32, 308.2607116699219
0, 3, 33, 314.2497863769531
0, 3, 34, 323.2769470214844
0, 3, 35, 305.4754943847656
0, 3, 36, 267.2914733886719
0, 3, 37, 311.0108032226562
0, 3, 38, 304.1896362304688
0, 3, 39, 290.0816650390625
0, 3, 40, 267.2223510742188
0, 3, 41, 301.126953125
0, 3, 42, 287.1228332519531
0, 3, 43, 307.4326477050781
0, 3, 44, 309.6903076171875
0, 3, 45, 290.1253967285156
0, 3, 46, 328.985595703125
0, 3, 47, 299.1044921875
0, 3, 48, 302.5733032226562
0, 3, 49, 276.8480834960938
0, 3, 50, 291.6673889160156
0, 3, 51, 275.1675415039062
0, 3, 52, 314.2511291503906
0, 3, 53, 286.9880981445312
0, 3, 54, 284.1589660644531
0, 3, 55, 284.1808166503906
0, 3, 56, 298.009765625
0, 3, 57, 288.9801940917969
0, 3, 58, 306.0457458496094
0, 3, 59, 295.7732238769531
0, 3, 60, 297.6777954101562
0, 3, 61, 264.8763427734375
0, 3, 62, 281.8199768066406
0, 3, 63, 308.8153991699219
0, 3, 64, 315.3359069824219
0, 3, 65, 305.5011291503906
0, 3, 66, 314.1908874511719
0, 3, 67, 319.8389282226562
0, 3, 68, 280.8501892089844
0, 3, 69, 283.0867919921875
0, 3, 70, 288.0323486328125
0, 3, 71, 300.5187377929688
0, 3, 72, 269.1918640136719
0, 3, 73, 306.7188415527344
0, 3, 74, 292.3288269042969
0, 3, 75, 289.8191223144531
0, 3, 76, 306.6089172363281
0, 3, 77, 312.8577880859375
0, 3, 78, 304.6468505859375
0, 3, 79, 282.3759765625
0, 3, 80, 290.485107421875
0, 3, 81, 310.3828125
0, 3, 82, 315.156494140625
0, 3, 83, 302.2796630859375
0, 3, 84, 312.4143371582031
0, 3, 85, 294.744873046875
0, 3, 86, 300.7672119140625
0, 3, 87, 298.2485961914062
0, 3, 88, 299.1099243164062
0, 3, 89, 296.5706481933594
0, 3, 90, 277.3329467773438
0, 3, 91, 284.0633544921875
0, 3, 92, 303.0346069335938
0, 3, 93, 314.8832397460938
0, 3, 94, 296.7512817382812
0, 3, 95, 335.1956481933594
0, 3, 96, 292.2155151367188
0, 3, 97, 284.9694519042969
0, 3, 98, 277.1992492675781
0, 3, 99, 264.0409240722656
0, 3, 100, 285.5973815917969
0, 3, 101, 295.1947326660156
0, 3, 102, 273.62109375
0, 3, 103, 320.3804626464844
0, 3, 104, 308.4573364257812
0, 3, 105, 287.1173400878906
0, 3, 106, 302.7380981445312
0, 3, 107, 284.3761901855469
0, 3, 108, 167.1826782226562
0, 3, 109, 55.99980163574219
0, 3, 110, 17.4456672668457
0, 3, 111, 12.43912315368652
0, 3, 112, 16.07482719421387
0, 3, 113, 5.895418167114258
0, 3, 114, 8.635202407836914
0, 3, 115, 6.690531730651855
0, 3, 116, 8.674054145812988
0, 3, 117, 9.057156562805176
0, 3, 118, 9.961812019348145
0, 3, 119, 6.328042030334473
0, 3, 120, 8.322502136230469
0, 3, 121, 4.55382776260376
0, 3, 122, 2.338479995727539
0, 3, 123, 5.081664085388184
0, 3, 124, 4.813642024993896
0, 3, 125, 5.866713523864746
0, 3, 126, 5.632644176483154
0, 3, 127, 3.239693641662598
0, 4, 0, 1.961064100265503
0, 4, 1, 3.945950031280518
0, 4, 2, 3.209324598312378
0, 4, 3, 3.541388750076294
0, 4, 4, 6.041235446929932
0, 4, 5, 8.172550201416016
0, 4, 6, 6.633547782897949
0, 4, 7, 6.818382263183594
0, 4, 8, 4.081583499908447
0, 4, 9, 6.987637996673584
0, 4, 10, 5.231315612792969
0, 4, 11, 7.265261650085449
0, 4, 12, 5.679959297180176
0, 4, 13, 6.920036792755127
0, 4, 14, 11.19692707061768
0, 4, 15, 10.20321655273438
0, 4, 16, 15.03471374511719
0, 4, 17, 19.04033851623535
0, 4, 18, 94.17970275878906
0, 4, 19, 222.4649200439453
0, 4, 20, 285.9651184082031
0, 4, 21, 272.9242248535156
0, 4, 22, 305.3197631835938
0, 4, 23, 267.7487487792969
0, 4, 24, 289.5758361816406
0, 4, 25, 272.469970703125
0, 4, 26, 294.9973449707031
0, 4, 27, 283.4201049804688
0, 4, 28, 305.5574035644531
0, 4, 29, 323.7790832519531
0, 4, 30, 310.4680480957031
0, 4, 31, 303.33251953125
0, 4, 32, 280.3237915039062
0, 4, 33, 297.1876525878906
0, 4, 34, 298.05859375
0, 4, 35, 311.6300964355469
0, 4, 36, 294.2700500488281
0, 4, 37, 288.8931884765625
0, 4, 38, 298.0185241699219
0, 4, 39, 294.5415954589844
0, 4, 40, 302.6276245117188
0, 4, 41, 312.3319396972656
0, 4, 42, 328.1327209472656
0, 4, 43, 297.4868774414062
0, 4, 44, 322.5126953125
0, 4, 45, 324.0120849609375
0, 4, 46, 304.2149047851562
0, 4, 47, 294.1123046875
0, 4, 48, 296.2120056152344
0, 4, 49, 277.9951171875
0, 4, 50, 296.952392578125
0, 4, 51, 315.421630859375
0, 4, 52, 327.5886535644531
0, 4, 53, 304.0558776855469
0, 4, 54, 286.9164733886719
0, 4, 55, 314.2806091308594
0, 4, 56, 288.9559020996094
0, 4, 57, 309.9630737304688
0, 4, 58, 295.41796875
0, 4, 59, 308.2651672363281
0, 4, 60, 302.9705200195312
0, 4, 61, 315.1612243652344
0, 4, 62, 309.5936279296875
0, 4, 63, 302.7218322753906
0, 4, 64, 329.6217346191406
0, 4, 65, 315.563720703125
0, 4, 66, 293.4622802734375
0, 4, 67, 284.3336181640625
0, 4, 68, 312.9481506347656
0, 4, 69, 275.6932678222656
0, 4, 70, 298.7545166015625
0, 4, 71, 320.2205505371094
0, 4, 72, 332.0536193847656
0, 4, 73, 298.6122131347656
0, 4, 74, 291.2830505371094
0, 4, 75, 289.8845520019531
0, 4, 76, 275.4817810058594
0, 4, 77, 278.0206909179688
0, 4, 78, 310.9421081542969
0, 4, 79, 318.09033203125
0, 4, 80, 317.510009765625
0, 4, 81, 312.7633056640625
0, 4, 82, 299.5137634277344
0, 4, 83, 301.5321960449219
0, 4, 84, 292.1549072265625
0, 4, 85, 295.2530212402344
0, 4, 86, 297.6980590820312
0, 4, 87, 283.1153869628906
0, 4, 88, 304.185546875
0, 4, 89, 297.3880310058594
0, 4, 90, 335.6343383789062
0, 4, 91, 301.1521606445312
0, 4, 92, 291.8856506347656
0, 4, 93, 296.9891967773438
0, 4, 94, 291.3747863769531
0, 4, 95, 287.8134155273438
0, 4, 96, 323.9350280761719
0, 4, 97, 274.2295227050781
0, 4, 98, 328.7605285644531
0, 4, 99, 312.4498901367188
0, 4, 100, 301.9944152832031
0, 4, 101, 258.4942932128906
0, 4, 102, 296.6802978515625
0, 4, 103, 316.9754638671875
0, 4, 104, 281.9282531738281
0, 4, 105, 311.5741577148438
0, 4, 106, 286.1636047363281
0, 4, 107, 294.8508911132812
0, 4, 108, 225.0087890625
0, 4, 109, 79.19640350341797
0, 4, 110, 15.46176528930664
0, 4, 111, 13.13753414154053
0, 4, 112, 7.698497295379639
0, 4, 113, 10.28820037841797
0, 4, 114, 10.60499954223633
0, 4, 115, 10.47347450256348
0, 4, 116, 11.51122379302979
0, 4, 117, 6.922997951507568
0, 4, 118, 9.963467597961426
0, 4, 119, 10.56925487518311
0, 4, 120, 6.181790351867676
0, 4, 121, 5.489639759063721
0, 4, 122, 4.040627956390381
0, 4, 123, 5.542295455932617
0, 4, 124, 6.579351425170898
0, 4, 125, 11.35113048553467
0, 4, 126, 7.222282409667969
0, 4, 127, 3.658870935440063
0, 5, 0, 3.831467866897583
0, 5, 1, 3.081177711486816
0, 5, 2, 6.106168746948242
0, 5, 3, 4.004562377929688
0, 5, 4, 4.492772579193115
0, 5, 5, 6.551611423492432
0, 5, 6, 6.209508895874023
0, 5, 7, 4.827854633331299
0, 5, 8, 4.999630928039551
0, 5, 9, 4.698270797729492
0, 5, 10, 7.783635139465332
0, 5, 11, 7.0553297996521
0, 5, 12, 7.334272861480713
0, 5, 13, 4.516842365264893
0, 5, 14, 11.86994457244873
0, 5, 15, 17.04852485656738
0, 5, 16, 15.93933773040771
0, 5, 17, 29.46626091003418
0, 5, 18, 136.3309631347656
0, 5, 19, 286.7324829101562
0, 5, 20, 311.3683471679688
0, 5, 21, 318.8202819824219
0, 5, 22, 275.2252807617188
0, 5, 23, 310.1102600097656
0, 5, 24, 303.4169311523438
0, 5, 25, 288.615478515625
0, 5, 26, 293.9288330078125
0, 5, 27, 320.8369445800781
0, 5, 28, 302.6132202148438
0, 5, 29, 298.6639404296875
0, 5, 30, 323.1798706054688
0, 5, 31, 285.8414916992188
0, 5, 32, 307.64697265625
0, 5, 33, 304.7619018554688
0, 5, 34, 296.2174072265625
0, 5, 35, 310.2596130371094
0, 5, 36, 272.3070678710938
0, 5, 37, 283.9228210449219
0, 5, 38, 292.6907043457031
0, 5, 39, 314.0602722167969
0, 5, 40, 306.7719421386719
0, 5, 41, 271.8804016113281
0, 5, 42, 304.4208374023438
0, 5, 43, 313.1349487304688
0, 5, 44, 291.714111328125
0, 5, 45, 302.6164855957031
0, 5, 46, 264.5826110839844
0, 5, 47, 282.5235595703125
0, 5, 48, 295.8589477539062
0, 5, 49, 286.5653076171875
0, 5, 50, 294.6960754394531
0, 5, 51, 279.1372985839844
0, 5, 52, 269.2764587402344
0, 5, 53, 284.2672729492188
0, 5, 54, 293.0549926757812
0, 5, 55, 342.2828063964844
0, 5, 56, 304.8969116210938
0, 5, 57, 308.8280334472656
0, 5, 58, 312.7509155273438
0, 5, 59, 301.0777893066406
0, 5, 60, 307.5654602050781
0, 5, 61, 282.9821166992188
0, 5, 62, 327.6715087890625
0, 5, 63, 293.5708312988281
0, 5, 64, 324.3466186523438
0, 5, 65, 307.4297485351562
0, 5, 66, 325.314697265625
0, 5, 67, 312.9607849121094
0, 5, 68, 308.5651550292969
0, 5, 69, 310.9390258789062
0, 5, 70, 300.7908935546875
0, 5, 71, 271.8872985839844
0, 5, 72, 311.0153503417969
0, 5, 73, 303.7541809082031
0, 5, 74, 295.0194702148438
0, 5, 75, 292.9830322265625
0, 5, 76, 285.3294372558594
0, 5, 77, 296.7619934082031
0, 5, 78, 316.6161804199219
0, 5, 79, 306.7608642578125
0, 5, 80, 295.0022583007812
0, 5, 81, 324.7771606445312
0, 5, 82, 324.0820007324219
0, 5, 83, 280.1603393554688
0, 5, 84, 301.139892578125
0, 5, 85, 271.2998657226562
0, 5, 86, 326.1953430175781
0, 5, 87, 283.9653625488281
0, 5, 88, 313.4212341308594
0, 5, 89, 305.9420471191406
0, 5, 90, 314.4638061523438
0, 5, 91, 315.0426330566406
0, 5, 92, 295.9566955566406
0, 5, 93, 322.065185546875
0, 5, 94, 307.8329162597656
0, 5, 95, 297.4433288574219
0, 5, 96, 299.0990905761719
0, 5, 97, 295.274658203125
0, 5, 98, 320.0674438476562
0, 5, 99, 300.9669799804688
0, 5, 100, 291.8120727539062
0, 5, 101, 306.4573974609375
0, 5, 102, 291.6346435546875
0, 5, 103, 313.4833984375
0, 5, 104, 302.0918884277344
0, 5, 105, 293.5205078125
0, 5, 106, 281.2341613769531
0, 5, 107, 292.7320251464844
0, 5, 108, 267.4511108398438
0, 5, 109, 159.6540679931641
0, 5, 110, 40.94489288330078
0, 5, 111, 22.27557754516602
0, 5, 112, 16.9876651763916
0, 5, 113, 13.88905906677246
0, 5, 114, 16.13888168334961
0, 5, 115, 6.210439205169678
0, 5, 116, 7.672059059143066
0, 5, 117, 6.667809963226318
0, 5, 118, 10.75959777832031
0, 5, 119, 3.963749885559082
0, 5, 120, 6.517974853515625
0, 5, 121, 6.599470138549805
0, 5, 122, 4.729030609130859
0, 5, 123, 4.929234504699707
0, 5, 124, 5.78388500213623
0, 5, 125, 5.696778297424316
0, 5, 126, 4.385964870452881
0, 5, 127, 3.757073402404785
0, 6, 0, 5.249195098876953
0, 6, 1, 2.967656373977661
0, 6, 2, 3.862957715988159
0, 6, 3, 6.953197002410889
0, 6, 4, 5.340394496917725
0, 6, 5, 6.473677635192871
0, 6, 6, 7.828773498535156
0, 6, 7, 6.273268699645996
0, 6, 8, 6.549617767333984
0, 6, 9, 7.49995231628418
0, 6, 10, 8.320042610168457
0, 6, 11, 7.639696598052979
0, 6, 12, 9.599340438842773
0, 6, 13, 12.56955814361572
0, 6, 14, 8.606339454650879
0, 6, 15, 16.24446678161621
0, 6, 16, 29.18205070495605
0, 6, 17, 52.97362518310547
0, 6, 18, 171.5628967285156
0, 6, 19, 275.3136901855469
0, 6, 20, 290.4843444824219
0, 6, 21, 314.0339660644531
0, 6, 22, 319.6847229003906
0, 6, 23, 308.0813903808594
0, 6, 24, 317.9791259765625
0, 6, 25, 316.7045593261719
0, 6, 26, 321.2966003417969
0, 6, 27, 331.7261962890625
0, 6, 28, 294.2222900390625
0, 6, 29, 328.6166076660156
0, 6, 30, 280.5893249511719
0, 6, 31, 285.957275390625
0, 6, 32, 342.8979797363281
0, 6, 33, 299.621337890625
0, 6, 34, 341.4253234863281
0, 6, 35, 320.6874389648438
0, 6, 36, 274.0084533691406
0, 6, 37, 289.9713745117188
0, 6, 38, 311.1095275878906
0, 6, 39, 299.1541748046875
0, 6, 40, 283.8139038085938
0, 6, 41, 296.2716064453125
0, 6, 42, 306.6591491699219
0, 6, 43, 288.0725402832031
0, 6, 44, 281.7064208984375
0, 6, 45, 319.9996643066406
0, 6, 46, 301.2998352050781
0, 6, 47, 332.4512023925781
0, 6, 48, 291.1762390136719
0, 6, 49, 313.5653076171875
0, 6, 50, 327.7211608886719
0, 6, 51, 311.4116821289062
0, 6, 52, 323.8875427246094
0, 6, 53, 330.7473449707031
0, 6, 54, 304.6002807617188
0, 6, 55, 305.9587097167969
0, 6, 56, 293.7079772949219
0, 6, 57, 312.525146484375
0, 6, 58, 261.8043823242188
0, 6, 59, 301.6613159179688
0, 6, 60, 312.5310974121094
0, 6, 61, 271.6100769042969
0, 6, 62, 333.5715637207031
0, 6, 63, 323.2171936035156
0, 6, 64, 290.6766967773438
0, 6, 65, 283.2544250488281
0, 6, 66, 302.2678833007812
0, 6, 67, 310.2650451660156
0, 6, 68, 296.1142272949219
0, 6, 69, 277.5103454589844
0, 6, 70, 273.7351989746094
0, 6, 71, 289.185791015625
0, 6, 72, 310.909423828125
0, 6, 73, 293.0256042480469
0, 6, 74, 329.9777526855469
0, 6, 75, 344.1698303222656
0, 6, 76, 297.169921875
0, 6, 77, 285.3371887207031
0, 6, 78, 279.2300109863281
0, 6, 79, 293.3838500976562
0, 6, 80, 301.128662109375
0, 6, 81, 315.9924621582031
0, 6, 82, 320.3616943359375
0, 6, 83, 319.2717590332031
0, 6, 84, 295.9030456542969
0, 6, 85, 300.3846130371094
0, 6, 86, 330.3705139160156
0, 6, 87, 290.955078125
0, 6, 88, 305.9139404296875
0, 6, 89, 305.9086303710938
0, 6, 90, 298.8984680175781
0, 6, 91, 311.1784362792969
0, 6, 92, 285.1087341308594
0, 6, 93, 293.7021484375
0, 6, 94, 273.3433532714844
0, 6, 95, 300.7026062011719
0, 6, 96, 347.9947509765625
0, 6, 97, 308.2804565429688
0, 6, 98, 301.0785522460938
0, 6, 99, 272.4755859375
0, 6, 100, 308.8985900878906
0, 6, 101, 292.9937133789062
0, 6, 102, 307.4972534179688
0, 6, 103, 309.5443115234375
0, 6, 104, 291.0157470703125
0, 6, 105, 299.4891052246094
0, 6, 106, 307.2898254394531
0, 6, 107, 306.2529602050781
0, 6, 108, 265.7094116210938
0, 6, 109, 186.8607940673828
0, 6, 110, 53.80982971191406
0, 6, 111, 21.23667526245117
0, 6, 112, 14.06304836273193
0, 6, 113, 11.94478321075439
0, 6, 114, 13.70867919921875
0, 6, 115, 12.32406425476074
0, 6, 116, 6.952534198760986
0, 6, 117, 7.759937763214111
0, 6, 118, 8.950705528259277
0, 6, 119, 12.10261821746826
0, 6, 120, 4.721616268157959
0, 6, 121, 7.165386199951172
0, 6, 122, 7.963809967041016
0, 6, 123, 6.182260036468506
0, 6, 124, 5.451705932617188
0, 6, 125, 5.567268848419189
0, 6, 126, 4.266389846801758
0, 6, 127, 5.640947818756104
0, 7, 0, 7.741488933563232
0, 7, 1, 4.38792085647583
0, 7, 2, 5.123111248016357
0, 7, 3, 7.053471565246582
0, 7, 4, 4.972318172454834
0, 7, 5, 5.220796585083008
0, 7, 6, 6.824560165405273
0, 7, 7, 5.131773948669434
0, 7, 8, 4.950063228607178
0, 7, 9, 10.38084030151367
0, 7, 10, 7.18703556060791
0, 7, 11, 12.14731216430664
0, 7, 12, 10.95708751678467
0, 7, 13, 11.66377544403076
0, 7, 14, 10.29965877532959
0, 7, 15, 15.78323841094971
0, 7, 16, 26.40816497802734
0, 7, 17, 97.03670501708984
0, 7, 18, 220.1953125
0, 7, 19, 289.2334594726562
0, 7, 20, 296.5726318359375
0, 7, 21, 277.2489624023438
0, 7, 22, 298.5517883300781
0, 7, 23, 289.1588745117188
0, 7, 24, 313.7247314453125
0, 7, 25, 325.3854370117188
0, 7, 26, 277.0775451660156
0, 7, 27, 297.866455078125
0, 7, 28, 328.0453491210938
0, 7, 29, 319.9766540527344
0, 7, 30, 300.4137268066406
0, 7, 31, 277.2533874511719
0, 7, 32, 304.5758666992188
0, 7, 33, 263.358154296875
0, 7, 34, 297.7876586914062
0, 7, 35, 319.8067932128906
0, 7, 36, 331.4356079101562
0, 7, 37, 324.7475280761719
0, 7, 38, 296.1473999023438
0, 7, 39, 307.1559143066406
0, 7, 40, 288.0758666992188
0, 7, 41, 271.3781433105469
0, 7, 42, 300.2942199707031
0, 7, 43, 274.7120971679688
0, 7, 44, 304.1869201660156
0, 7, 45, 296.1008605957031
0, 7, 46, 281.472900390625
0, 7, 47, 327.7130126953125
0, 7, 48, 287.4139099121094
0, 7, 49, 301.273193359375
0, 7, 50, 321.7564086914062
0, 7, 51, 298.4032897949219
0, 7, 52, 327.9046020507812
0, 7, 53, 308.798583984375
0, 7, 54, 324.0913696289062
0, 7, 55, 306.3894348144531
0, 7, 56, 281.3839721679688
0, 7, 57, 281.970458984375
0, 7, 58, 295.6272583007812
0, 7, 59, 292.8921508789062
0, 7, 60, 324.055419921875
0, 7, 61, 278.5407409667969
0, 7, 62, 297.6002197265625
0, 7, 63, 294.0393981933594
0, 7, 64, 307.4431457519531
0, 7, 65, 329.43212890625
0, 7, 66, 320.0841064453125
0, 7, 67, 300.7094421386719
0, 7, 68, 279.9388427734375
0, 7, 69, 295.5178527832031
0, 7, 70, 303.9932861328125
0, 7, 71, 310.3511352539062
0, 7, 72, 285.7882080078125
0, 7, 73, 295.0679626464844
0, 7, 74, 345.3084106445312
0, 7, 75, 318.2336120605469
0, 7, 76, 323.4487915039062
0, 7, 77, 279.4591369628906
0, 7, 78, 300.3701171875
0, 7, 79, 297.3046875
0, 7, 80, 310.4085693359375
0, 7, 81, 320.403076171875
0, 7, 82, 331.6947937011719
0, 7, 83, 317.3314514160156
0, 7, 84, 310.7470397949219
0, 7, 85, 272.0247192382812
0, 7, 86, 311.269287109375
0, 7, 87, 308.6438598632812
0, 7, 88, 307.1009521484375
0, 7, 89, 293.8426513671875
0, 7, 90, 308.1821899414062
0, 7, 91, 314.3228149414062
0, 7, 92, 290.973876953125
0, 7, 93, 308.50390625
0, 7, 94, 275.1650695800781
0, 7, 95, 295.2374572753906
0, 7, 96, 330.9008483886719
0, 7, 97, 295.4222717285156
0, 7, 98, 290.0171813964844
0, 7, 99, 310.2734375
0, 7, 100, 280.0417785644531
0, 7, 101, 275.1809387207031
0, 7, 102, 289.8392944335938
0, 7, 103, 291.682861328125
0, 7, 104, 273.9266052246094
0, 7, 105, 306.1912841796875
0, 7, 106, 319.1826171875
0, 7, 107, 296.7003173828125
0, 7, 108, 273.4242248535156
0, 7, 109, 238.4347839355469
0, 7, 110, 98.82318878173828
0, 7, 111, 24.26285934448242
0, 7, 112, 12.98940658569336
0, 7, 113, 15.05664730072021
0, 7, 114, 14.14630031585693
0, 7, 115, 12.73450946807861
0, 7, 116, 11.12243747711182
0, 7, 117, 6.332794189453125
0, 7, 118, 8.425383567810059
0, 7, 119, 6.471628665924072
0, 7, 120, 4.994205474853516
0, 7, 121, 7.102789402008057
0, 7, 122, 6.331946849822998
0, 7, 123, 5.303693294525146
0, 7, 124, 4.740077972412109
0, 7, 125, 6.603870868682861
0, 7, 126, 6.588470935821533
0, 7, 127, 3.013441324234009
0, 8, 0, 6.44398021697998
0, 8, 1, 4.292191028594971
0, 8, 2, 2.586581230163574
0, 8, 3, 3.727477550506592
0, 8, 4, 5.174254417419434
0, 8, 5, 5.607447624206543
0, 8, 6, 4.745593547821045
0, 8, 7, 5.023630142211914
0, 8, 8, 6.950337409973145
0, 8, 9, 4.522140979766846
0, 8, 10, 7.271527290344238
0, 8, 11, 11.2349157333374
0, 8, 12, 14.76814460754395
0, 8, 13, 17.16245269775391
0, 8, 14, 13.76377105712891
0, 8, 15, 18.47123908996582
0, 8, 16, 32.07173919677734
0, 8, 17, 130.988525390625
0, 8, 18, 244.2644805908203
0, 8, 19, 297.3439331054688
0, 8, 20, 288.410888671875
0, 8, 21, 306.1455078125
0, 8, 22, 297.0658569335938
0, 8, 23, 274.2904052734375
0, 8, 24, 268.4535827636719
0, 8, 25, 275.8123474121094
0, 8, 26, 305.7768859863281
0, 8, 27, 307.9854125976562
0, 8, 28, 305.3466491699219
0, 8, 29, 317.8042602539062
0, 8, 30, 314.1302185058594
0, 8, 31, 304.6397094726562
0, 8, 32, 279.5421447753906
0, 8, 33, 295.6811218261719
0, 8, 34, 287.9773864746094
0, 8, 35, 280.3612670898438
0, 8, 36, 316.0442199707031
0, 8, 37, 337.593505859375
0, 8, 38, 331.7433776855469
0, 8, 39, 282.46337890625
0, 8, 40, 306.3469543457031
0, 8, 41, 292.6182556152344
