# TOPAS Version: 3.1.p3
# Parameter File: batch_inserts_186.txt
# Results for scorer Readout_Adipose
# Scored in component: MyBox
# X in 1 bin  of 0.75 cm
# Y in 512 bins of 0.0783984 cm
# Z in 128 bins of 0.078125 cm
# EnergyDeposit ( MeV ) : Sum   
0, 0, 0, 6.860177040100098
0, 0, 1, 1.929912090301514
0, 0, 2, 3.807511568069458
0, 0, 3, 1.936036705970764
0, 0, 4, 2.160314559936523
0, 0, 5, 2.863312721252441
0, 0, 6, 7.663973331451416
0, 0, 7, 8.727521896362305
0, 0, 8, 2.380352973937988
0, 0, 9, 3.825064420700073
0, 0, 10, 6.132281303405762
0, 0, 11, 4.464124202728271
0, 0, 12, 8.003168106079102
0, 0, 13, 8.393872261047363
0, 0, 14, 6.758199214935303
0, 0, 15, 8.869023323059082
0, 0, 16, 8.648404121398926
0, 0, 17, 9.791886329650879
0, 0, 18, 14.22953796386719
0, 0, 19, 43.56896591186523
0, 0, 20, 139.8738098144531
0, 0, 21, 225.9207000732422
0, 0, 22, 249.1152038574219
0, 0, 23, 255.6296081542969
0, 0, 24, 250.21826171875
0, 0, 25, 258.1598510742188
0, 0, 26, 234.0333862304688
0, 0, 27, 238.0403594970703
0, 0, 28, 274.9461975097656
0, 0, 29, 251.4084167480469
0, 0, 30, 229.7191314697266
0, 0, 31, 243.0726165771484
0, 0, 32, 264.2464904785156
0, 0, 33, 261.8355712890625
0, 0, 34, 287.272216796875
0, 0, 35, 266.9700012207031
0, 0, 36, 245.9066314697266
0, 0, 37, 251.5604553222656
0, 0, 38, 267.7498474121094
0, 0, 39, 228.8121185302734
0, 0, 40, 242.7798614501953
0, 0, 41, 265.5287475585938
0, 0, 42, 229.0747985839844
0, 0, 43, 260.544189453125
0, 0, 44, 252.8501129150391
0, 0, 45, 253.2440948486328
0, 0, 46, 243.7462463378906
0, 0, 47, 253.9853210449219
0, 0, 48, 267.8260192871094
0, 0, 49, 273.7903747558594
0, 0, 50, 251.5768737792969
0, 0, 51, 257.3102416992188
0, 0, 52, 273.1988220214844
0, 0, 53, 293.7377319335938
0, 0, 54, 241.1901550292969
0, 0, 55, 239.8259887695312
0, 0, 56, 278.0389709472656
0, 0, 57, 262.5741882324219
0, 0, 58, 246.8582611083984
0, 0, 59, 269.2551574707031
0, 0, 60, 234.9054870605469
0, 0, 61, 245.1610565185547
0, 0, 62, 258.3793640136719
0, 0, 63, 266.7527465820312
0, 0, 64, 254.1819763183594
0, 0, 65, 261.0828552246094
0, 0, 66, 276.4189147949219
0, 0, 67, 247.2930450439453
0, 0, 68, 257.9780883789062
0, 0, 69, 260.6977844238281
0, 0, 70, 272.4664611816406
0, 0, 71, 238.1257781982422
0, 0, 72, 248.8424072265625
0, 0, 73, 257.9576416015625
0, 0, 74, 250.8594970703125
0, 0, 75, 241.3779907226562
0, 0, 76, 229.1033172607422
0, 0, 77, 259.16748046875
0, 0, 78, 258.8575744628906
0, 0, 79, 278.9296264648438
0, 0, 80, 218.072265625
0, 0, 81, 266.8605346679688
0, 0, 82, 255.0464324951172
0, 0, 83, 245.2941131591797
0, 0, 84, 267.2784423828125
0, 0, 85, 232.6409301757812
0, 0, 86, 253.7442474365234
0, 0, 87, 253.9665985107422
0, 0, 88, 262.2271118164062
0, 0, 89, 282.7622680664062
0, 0, 90, 246.3642730712891
0, 0, 91, 280.9472961425781
0, 0, 92, 253.4571838378906
0, 0, 93, 250.0026245117188
0, 0, 94, 250.6977386474609
0, 0, 95, 247.8025360107422
0, 0, 96, 274.9987182617188
0, 0, 97, 272.73095703125
0, 0, 98, 273.588134765625
0, 0, 99, 258.6412963867188
0, 0, 100, 259.2197570800781
0, 0, 101, 227.1529693603516
0, 0, 102, 235.40087890625
0, 0, 103, 269.5637817382812
0, 0, 104, 254.6362915039062
0, 0, 105, 253.3629608154297
0, 0, 106, 245.2411651611328
0, 0, 107, 152.4910430908203
0, 0, 108, 37.36209106445312
0, 0, 109, 11.57828235626221
0, 0, 110, 12.89684295654297
0, 0, 111, 9.795780181884766
0, 0, 112, 6.449429035186768
0, 0, 113, 4.376089572906494
0, 0, 114, 7.776086807250977
0, 0, 115, 5.635164260864258
0, 0, 116, 4.944596290588379
0, 0, 117, 6.258322715759277
0, 0, 118, 9.569212913513184
0, 0, 119, 3.316957950592041
0, 0, 120, 3.97805380821228
0, 0, 121, 3.997469902038574
0, 0, 122, 4.708498001098633
0, 0, 123, 2.636396646499634
0, 0, 124, 5.875365257263184
0, 0, 125, 3.91309928894043
0, 0, 126, 5.741418361663818
0, 0, 127, 3.280495166778564
0, 1, 0, 7.074847221374512
0, 1, 1, 3.308788299560547
0, 1, 2, 3.706061840057373
0, 1, 3, 2.766637802124023
0, 1, 4, 6.365775585174561
0, 1, 5, 4.992161273956299
0, 1, 6, 5.433839321136475
0, 1, 7, 4.924312114715576
0, 1, 8, 7.5568528175354
0, 1, 9, 4.228054046630859
0, 1, 10, 7.200399398803711
0, 1, 11, 12.40667819976807
0, 1, 12, 8.602251052856445
0, 1, 13, 10.2905216217041
0, 1, 14, 8.584717750549316
0, 1, 15, 7.802845478057861
0, 1, 16, 11.3095760345459
0, 1, 17, 10.0418529510498
0, 1, 18, 22.20341491699219
0, 1, 19, 67.29439544677734
0, 1, 20, 200.0942993164062
0, 1, 21, 256.4279479980469
0, 1, 22, 298.4148864746094
0, 1, 23, 283.4841003417969
0, 1, 24, 274.6876525878906
0, 1, 25, 286.5474548339844
0, 1, 26, 271.783203125
0, 1, 27, 307.2526550292969
0, 1, 28, 298.7397766113281
0, 1, 29, 295.9662780761719
0, 1, 30, 279.2958374023438
0, 1, 31, 291.8074035644531
0, 1, 32, 291.4299621582031
0, 1, 33, 296.5175170898438
0, 1, 34, 292.7342834472656
0, 1, 35, 278.6030578613281
0, 1, 36, 306.4451293945312
0, 1, 37, 294.6869201660156
0, 1, 38, 281.7875671386719
0, 1, 39, 295.4143371582031
0, 1, 40, 265.1565246582031
0, 1, 41, 286.04248046875
0, 1, 42, 289.1134338378906
0, 1, 43, 333.2875061035156
0, 1, 44, 278.2714233398438
0, 1, 45, 293.0377502441406
0, 1, 46, 259.4627380371094
0, 1, 47, 309.7303466796875
0, 1, 48, 283.62939453125
0, 1, 49, 303.7572326660156
0, 1, 50, 263.8763732910156
0, 1, 51, 273.4679260253906
0, 1, 52, 295.6211547851562
0, 1, 53, 302.7655029296875
0, 1, 54, 274.7975158691406
0, 1, 55, 293.6297302246094
0, 1, 56, 279.113037109375
0, 1, 57, 298.3399353027344
0, 1, 58, 310.444580078125
0, 1, 59, 291.1578979492188
0, 1, 60, 297.3172912597656
0, 1, 61, 275.5362854003906
0, 1, 62, 309.2222290039062
0, 1, 63, 284.7394104003906
0, 1, 64, 289.34228515625
0, 1, 65, 296.1344299316406
0, 1, 66, 291.6045837402344
0, 1, 67, 292.0314025878906
0, 1, 68, 278.2455139160156
0, 1, 69, 282.7069396972656
0, 1, 70, 271.6603088378906
0, 1, 71, 274.0577087402344
0, 1, 72, 285.873779296875
0, 1, 73, 304.4400329589844
0, 1, 74, 307.8151245117188
0, 1, 75, 295.064208984375
0, 1, 76, 287.4386901855469
0, 1, 77, 290.9442749023438
0, 1, 78, 297.1589965820312
0, 1, 79, 303.7992248535156
0, 1, 80, 295.9434509277344
0, 1, 81, 302.5098571777344
0, 1, 82, 284.8943481445312
0, 1, 83, 332.0285034179688
0, 1, 84, 307.731201171875
0, 1, 85, 254.1701812744141
0, 1, 86, 295.2879333496094
0, 1, 87, 290.2448120117188
0, 1, 88, 297.6482849121094
0, 1, 89, 292.1681518554688
0, 1, 90, 270.3315124511719
0, 1, 91, 316.7252807617188
0, 1, 92, 290.5671691894531
0, 1, 93, 285.2886657714844
0, 1, 94, 304.6031188964844
0, 1, 95, 284.464111328125
0, 1, 96, 283.1915893554688
0, 1, 97, 300.5502624511719
0, 1, 98, 277.8873291015625
0, 1, 99, 267.3681945800781
0, 1, 100, 275.9655456542969
0, 1, 101, 283.0701293945312
0, 1, 102, 277.6302185058594
0, 1, 103, 281.4928588867188
0, 1, 104, 306.2322998046875
0, 1, 105, 297.4258117675781
0, 1, 106, 260.76806640625
0, 1, 107, 192.7368621826172
0, 1, 108, 80.03955078125
0, 1, 109, 23.0926570892334
0, 1, 110, 11.42843055725098
0, 1, 111, 10.98340797424316
0, 1, 112, 11.1539945602417
0, 1, 113, 5.763626098632812
0, 1, 114, 5.864727973937988
0, 1, 115, 6.153377532958984
0, 1, 116, 9.346356391906738
0, 1, 117, 5.111776828765869
0, 1, 118, 6.101080894470215
0, 1, 119, 4.435201644897461
0, 1, 120, 4.187138557434082
0, 1, 121, 2.427294492721558
0, 1, 122, 3.053519010543823
0, 1, 123, 2.725087642669678
0, 1, 124, 5.944747447967529
0, 1, 125, 4.938298225402832
0, 1, 126, 2.885543346405029
0, 1, 127, 2.33689284324646
0, 2, 0, 4.026315689086914
0, 2, 1, 2.01099157333374
0, 2, 2, 3.189775228500366
0, 2, 3, 4.815184116363525
0, 2, 4, 3.423225879669189
0, 2, 5, 2.100709199905396
0, 2, 6, 2.555635690689087
0, 2, 7, 4.285258769989014
0, 2, 8, 4.946554660797119
0, 2, 9, 5.916664600372314
0, 2, 10, 8.09562873840332
0, 2, 11, 5.736339092254639
0, 2, 12, 6.72789192199707
0, 2, 13, 9.157849311828613
0, 2, 14, 10.7451810836792
0, 2, 15, 8.63075065612793
0, 2, 16, 9.577465057373047
0, 2, 17, 16.18808364868164
0, 2, 18, 28.46150016784668
0, 2, 19, 115.5330123901367
0, 2, 20, 246.8079833984375
0, 2, 21, 270.1487731933594
0, 2, 22, 316.6846313476562
0, 2, 23, 299.5222778320312
0, 2, 24, 285.5013732910156
0, 2, 25, 302.940673828125
0, 2, 26, 292.0807495117188
0, 2, 27, 276.5823669433594
0, 2, 28, 271.6620483398438
0, 2, 29, 273.2225952148438
0, 2, 30, 288.3688049316406
0, 2, 31, 276.9876403808594
0, 2, 32, 294.5284423828125
0, 2, 33, 283.1248779296875
0, 2, 34, 331.7414855957031
0, 2, 35, 288.5291137695312
0, 2, 36, 305.6508483886719
0, 2, 37, 315.2272644042969
0, 2, 38, 310.3407592773438
0, 2, 39, 268.5203552246094
0, 2, 40, 308.95849609375
0, 2, 41, 292.5232238769531
0, 2, 42, 304.4319763183594
0, 2, 43, 312.4999389648438
0, 2, 44, 311.1192626953125
0, 2, 45, 325.6275329589844
0, 2, 46, 288.0044250488281
0, 2, 47, 303.6031188964844
0, 2, 48, 279.6146850585938
0, 2, 49, 278.3194580078125
0, 2, 50, 295.8666687011719
0, 2, 51, 284.8838500976562
0, 2, 52, 273.7783508300781
0, 2, 53, 285.7806091308594
0, 2, 54, 278.7396240234375
0, 2, 55, 274.8613586425781
0, 2, 56, 302.155517578125
0, 2, 57, 290.9574890136719
0, 2, 58, 303.4820861816406
0, 2, 59, 293.2693786621094
0, 2, 60, 323.7651672363281
0, 2, 61, 300.9645690917969
0, 2, 62, 313.7760009765625
0, 2, 63, 306.7278747558594
0, 2, 64, 295.7393493652344
0, 2, 65, 313.63671875
0, 2, 66, 279.0073547363281
0, 2, 67, 290.6637573242188
0, 2, 68, 297.0653991699219
0, 2, 69, 312.1685180664062
0, 2, 70, 334.4062194824219
0, 2, 71, 283.4272155761719
0, 2, 72, 302.3146057128906
0, 2, 73, 311.0846862792969
0, 2, 74, 285.3697814941406
0, 2, 75, 304.149658203125
0, 2, 76, 287.1771850585938
0, 2, 77, 300.7274169921875
0, 2, 78, 313.060791015625
0, 2, 79, 307.9655456542969
0, 2, 80, 297.7693786621094
0, 2, 81, 281.4772033691406
0, 2, 82, 319.0226440429688
0, 2, 83, 313.8411560058594
0, 2, 84, 287.6210327148438
0, 2, 85, 283.5776672363281
0, 2, 86, 326.4959411621094
0, 2, 87, 287.2576599121094
0, 2, 88, 278.9673461914062
0, 2, 89, 294.8461608886719
0, 2, 90, 296.1646423339844
0, 2, 91, 276.2716064453125
0, 2, 92, 305.1885375976562
0, 2, 93, 317.4535522460938
0, 2, 94, 291.8344116210938
0, 2, 95, 314.8179626464844
0, 2, 96, 315.9227905273438
0, 2, 97, 292.4062805175781
0, 2, 98, 294.471923828125
0, 2, 99, 273.8206481933594
0, 2, 100, 306.0364685058594
0, 2, 101, 300.9532165527344
0, 2, 102, 297.401123046875
0, 2, 103, 292.6351623535156
0, 2, 104, 292.9114990234375
0, 2, 105, 274.3683776855469
0, 2, 106, 296.890380859375
0, 2, 107, 270.5715026855469
0, 2, 108, 117.3809356689453
0, 2, 109, 32.51988983154297
0, 2, 110, 10.15114879608154
0, 2, 111, 10.97375106811523
0, 2, 112, 8.845718383789062
0, 2, 113, 9.254925727844238
0, 2, 114, 9.187493324279785
0, 2, 115, 9.324578285217285
0, 2, 116, 8.813573837280273
0, 2, 117, 9.551348686218262
0, 2, 118, 3.220850229263306
0, 2, 119, 3.803523063659668
0, 2, 120, 8.379305839538574
0, 2, 121, 3.205137014389038
0, 2, 122, 3.554759740829468
0, 2, 123, 3.382713317871094
0, 2, 124, 4.359317779541016
0, 2, 125, 4.062269687652588
0, 2, 126, 3.997484445571899
0, 2, 127, 4.730625629425049
0, 3, 0, 2.411809206008911
0, 3, 1, 2.887381315231323
0, 3, 2, 5.037160396575928
0, 3, 3, 2.767117023468018
0, 3, 4, 5.336310386657715
0, 3, 5, 6.756136894226074
0, 3, 6, 6.79887580871582
0, 3, 7, 4.447532653808594
0, 3, 8, 7.474543571472168
0, 3, 9, 9.606504440307617
0, 3, 10, 6.266071319580078
0, 3, 11, 5.740191459655762
0, 3, 12, 10.76159477233887
0, 3, 13, 15.26994037628174
0, 3, 14, 10.14946556091309
0, 3, 15, 13.51417446136475
0, 3, 16, 13.75255680084229
0, 3, 17, 19.16695022583008
0, 3, 18, 53.84321975708008
0, 3, 19, 175.1518707275391
0, 3, 20, 268.9059448242188
0, 3, 21, 272.1236267089844
0, 3, 22, 281.1096801757812
0, 3, 23, 285.6131896972656
0, 3, 24, 286.1583251953125
0, 3, 25, 270.5773010253906
0, 3, 26, 303.3890075683594
0, 3, 27, 291.584228515625
0, 3, 28, 282.2451171875
0, 3, 29, 339.5268249511719
0, 3, 30, 315.8325805664062
0, 3, 31, 288.8716125488281
0, 3, 32, 306.8248596191406
0, 3, 33, 315.1708068847656
0, 3, 34, 319.802734375
0, 3, 35, 305.9474792480469
0, 3, 36, 270.4774780273438
0, 3, 37, 314.5271911621094
0, 3, 38, 304.5330810546875
0, 3, 39, 290.8452758789062
0, 3, 40, 267.9085693359375
0, 3, 41, 304.6117553710938
0, 3, 42, 286.5577392578125
0, 3, 43, 306.9739074707031
0, 3, 44, 310.3605346679688
0, 3, 45, 290.7989807128906
0, 3, 46, 329.8666381835938
0, 3, 47, 299.4495849609375
0, 3, 48, 304.5788269042969
0, 3, 49, 275.9202880859375
0, 3, 50, 289.6048583984375
0, 3, 51, 277.0123291015625
0, 3, 52, 314.5424499511719
0, 3, 53, 288.2619323730469
0, 3, 54, 286.9010925292969
0, 3, 55, 283.6459655761719
0, 3, 56, 298.5352478027344
0, 3, 57, 290.9644775390625
0, 3, 58, 305.9773559570312
0, 3, 59, 293.7357788085938
0, 3, 60, 297.3984069824219
0, 3, 61, 265.6432189941406
0, 3, 62, 284.3443908691406
0, 3, 63, 306.4165344238281
0, 3, 64, 315.8225708007812
0, 3, 65, 304.6213989257812
0, 3, 66, 314.8135681152344
0, 3, 67, 318.2503967285156
0, 3, 68, 279.6101989746094
0, 3, 69, 282.612548828125
0, 3, 70, 288.0591430664062
0, 3, 71, 299.8740539550781
0, 3, 72, 269.7721557617188
0, 3, 73, 307.39453125
0, 3, 74, 295.9810485839844
0, 3, 75, 293.8380432128906
0, 3, 76, 304.9381713867188
0, 3, 77, 316.3079223632812
0, 3, 78, 303.6759033203125
0, 3, 79, 282.0971984863281
0, 3, 80, 291.619140625
0, 3, 81, 313.1319274902344
0, 3, 82, 315.3059692382812
0, 3, 83, 301.6162109375
0, 3, 84, 310.5217895507812
0, 3, 85, 291.7782592773438
0, 3, 86, 303.7589721679688
0, 3, 87, 297.5375061035156
0, 3, 88, 298.4827880859375
0, 3, 89, 297.2738037109375
0, 3, 90, 277.3584594726562
0, 3, 91, 284.3320617675781
0, 3, 92, 302.9733276367188
0, 3, 93, 312.2112731933594
0, 3, 94, 299.6580810546875
0, 3, 95, 333.95361328125
0, 3, 96, 291.3338928222656
0, 3, 97, 284.6920776367188
0, 3, 98, 278.4114685058594
0, 3, 99, 260.4916381835938
0, 3, 100, 282.5113220214844
0, 3, 101, 295.767822265625
0, 3, 102, 274.1766967773438
0, 3, 103, 320.2647705078125
0, 3, 104, 308.8323669433594
0, 3, 105, 287.3768920898438
0, 3, 106, 302.4870300292969
0, 3, 107, 282.9230651855469
0, 3, 108, 166.7149810791016
0, 3, 109, 56.0697021484375
0, 3, 110, 17.19424247741699
0, 3, 111, 13.27835559844971
0, 3, 112, 13.28146457672119
0, 3, 113, 5.625780582427979
0, 3, 114, 9.55905818939209
0, 3, 115, 6.300789833068848
0, 3, 116, 7.987991333007812
0, 3, 117, 9.716279029846191
0, 3, 118, 7.561609268188477
0, 3, 119, 5.801373481750488
0, 3, 120, 5.565394878387451
0, 3, 121, 3.279275178909302
0, 3, 122, 3.00363564491272
0, 3, 123, 7.912388324737549
0, 3, 124, 1.805938601493835
0, 3, 125, 4.947564125061035
0, 3, 126, 5.311860084533691
0, 3, 127, 3.71110987663269
0, 4, 0, 2.258163928985596
0, 4, 1, 5.067561149597168
0, 4, 2, 4.586063861846924
0, 4, 3, 1.292128801345825
0, 4, 4, 6.348599910736084
0, 4, 5, 8.612720489501953
0, 4, 6, 6.124857425689697
0, 4, 7, 4.708958148956299
0, 4, 8, 4.946878910064697
0, 4, 9, 5.394173622131348
0, 4, 10, 7.514542102813721
0, 4, 11, 5.954791069030762
0, 4, 12, 5.599746704101562
0, 4, 13, 7.75654125213623
0, 4, 14, 10.80342483520508
0, 4, 15, 9.42491340637207
0, 4, 16, 12.97562408447266
0, 4, 17, 18.74739456176758
0, 4, 18, 92.65168762207031
0, 4, 19, 223.7712097167969
0, 4, 20, 286.4876403808594
0, 4, 21, 271.3690795898438
0, 4, 22, 305.9484252929688
0, 4, 23, 269.0481567382812
0, 4, 24, 288.865234375
0, 4, 25, 271.3157653808594
0, 4, 26, 295.495849609375
0, 4, 27, 282.995849609375
0, 4, 28, 307.2324829101562
0, 4, 29, 322.721923828125
0, 4, 30, 309.5304260253906
0, 4, 31, 306.8687438964844
0, 4, 32, 281.656494140625
0, 4, 33, 297.4200744628906
0, 4, 34, 296.8955688476562
0, 4, 35, 312.7749328613281
0, 4, 36, 292.9653930664062
0, 4, 37, 289.1705627441406
0, 4, 38, 298.1073608398438
0, 4, 39, 294.4573059082031
0, 4, 40, 301.9906311035156
0, 4, 41, 312.9387817382812
0, 4, 42, 329.6952209472656
0, 4, 43, 297.2427673339844
0, 4, 44, 319.8287963867188
0, 4, 45, 323.3499755859375
0, 4, 46, 304.468017578125
0, 4, 47, 292.3555603027344
0, 4, 48, 296.8231811523438
0, 4, 49, 279.3203430175781
0, 4, 50, 297.4245910644531
0, 4, 51, 317.075927734375
0, 4, 52, 327.819091796875
0, 4, 53, 304.4042358398438
0, 4, 54, 287.4956970214844
0, 4, 55, 313.8419189453125
0, 4, 56, 285.47998046875
0, 4, 57, 309.5958557128906
0, 4, 58, 294.564208984375
0, 4, 59, 307.5720825195312
0, 4, 60, 303.6370544433594
0, 4, 61, 315.3707275390625
0, 4, 62, 309.5274963378906
0, 4, 63, 299.6524658203125
0, 4, 64, 331.1592102050781
0, 4, 65, 315.7949523925781
0, 4, 66, 293.6163024902344
0, 4, 67, 284.8395080566406
0, 4, 68, 313.1203308105469
0, 4, 69, 274.9143371582031
0, 4, 70, 300.2464599609375
0, 4, 71, 320.9266052246094
0, 4, 72, 334.2127990722656
0, 4, 73, 300.2058410644531
0, 4, 74, 290.8533325195312
0, 4, 75, 291.0663757324219
0, 4, 76, 274.392578125
0, 4, 77, 278.8219604492188
0, 4, 78, 308.0635681152344
0, 4, 79, 318.4980773925781
0, 4, 80, 316.8871154785156
0, 4, 81, 312.3247375488281
0, 4, 82, 297.1384582519531
0, 4, 83, 300.8958740234375
0, 4, 84, 290.266845703125
0, 4, 85, 295.5189819335938
0, 4, 86, 296.890380859375
0, 4, 87, 285.33447265625
0, 4, 88, 305.9093017578125
0, 4, 89, 294.5640869140625
0, 4, 90, 334.9869689941406
0, 4, 91, 303.8596801757812
0, 4, 92, 289.9599914550781
0, 4, 93, 298.6171569824219
0, 4, 94, 292.596923828125
0, 4, 95, 289.333984375
0, 4, 96, 323.3168029785156
0, 4, 97, 274.8661804199219
0, 4, 98, 328.0874328613281
0, 4, 99, 314.2853698730469
0, 4, 100, 302.8219604492188
0, 4, 101, 256.3888549804688
0, 4, 102, 298.8049621582031
0, 4, 103, 317.49853515625
0, 4, 104, 282.356689453125
0, 4, 105, 309.8299560546875
0, 4, 106, 290.2635192871094
0, 4, 107, 295.4893798828125
0, 4, 108, 226.9572296142578
0, 4, 109, 80.31978607177734
0, 4, 110, 15.96623706817627
0, 4, 111, 13.21614265441895
0, 4, 112, 9.199466705322266
0, 4, 113, 11.78383159637451
0, 4, 114, 9.246896743774414
0, 4, 115, 10.70379257202148
0, 4, 116, 7.615328788757324
0, 4, 117, 8.186039924621582
0, 4, 118, 11.57520389556885
0, 4, 119, 9.677608489990234
0, 4, 120, 7.728909015655518
0, 4, 121, 7.149679660797119
0, 4, 122, 3.912473201751709
0, 4, 123, 6.748839378356934
0, 4, 124, 6.969554424285889
0, 4, 125, 9.873054504394531
0, 4, 126, 3.965598821640015
0, 4, 127, 4.325737476348877
0, 5, 0, 4.735875129699707
0, 5, 1, 3.230849027633667
0, 5, 2, 4.660300254821777
0, 5, 3, 4.467931747436523
0, 5, 4, 5.631322383880615
0, 5, 5, 7.07916259765625
0, 5, 6, 5.773128986358643
0, 5, 7, 6.150016307830811
0, 5, 8, 4.123944282531738
0, 5, 9, 6.469875335693359
0, 5, 10, 7.181228160858154
0, 5, 11, 8.217461585998535
0, 5, 12, 7.475386142730713
0, 5, 13, 4.625645637512207
0, 5, 14, 13.46926593780518
0, 5, 15, 17.5266056060791
0, 5, 16, 14.04787635803223
0, 5, 17, 29.67055511474609
0, 5, 18, 136.5333557128906
0, 5, 19, 286.083251953125
0, 5, 20, 307.5494384765625
0, 5, 21, 317.7660217285156
0, 5, 22, 276.3226318359375
0, 5, 23, 309.6199035644531
0, 5, 24, 301.9637756347656
0, 5, 25, 290.1936950683594
0, 5, 26, 293.6455078125
0, 5, 27, 321.9927673339844
0, 5, 28, 305.6291809082031
0, 5, 29, 298.6886291503906
0, 5, 30, 321.7726745605469
0, 5, 31, 287.4248046875
0, 5, 32, 301.8194580078125
0, 5, 33, 304.0692138671875
0, 5, 34, 294.6430358886719
0, 5, 35, 308.8728637695312
0, 5, 36, 269.0457458496094
0, 5, 37, 282.1400451660156
0, 5, 38, 292.0869445800781
0, 5, 39, 313.8421936035156
0, 5, 40, 309.6585693359375
0, 5, 41, 272.8174438476562
0, 5, 42, 305.9759216308594
0, 5, 43, 312.3806457519531
0, 5, 44, 292.552734375
0, 5, 45, 300.935791015625
0, 5, 46, 266.0827026367188
0, 5, 47, 279.0319213867188
0, 5, 48, 294.782958984375
0, 5, 49, 288.6547241210938
0, 5, 50, 296.1160888671875
0, 5, 51, 279.0097961425781
0, 5, 52, 268.5939636230469
0, 5, 53, 284.4452209472656
0, 5, 54, 291.6830444335938
0, 5, 55, 344.9785461425781
0, 5, 56, 305.537353515625
0, 5, 57, 305.4691467285156
0, 5, 58, 312.71435546875
0, 5, 59, 302.6238403320312
0, 5, 60, 306.4586791992188
0, 5, 61, 280.9140014648438
0, 5, 62, 325.5381164550781
0, 5, 63, 290.4825439453125
0, 5, 64, 323.4908752441406
0, 5, 65, 306.9426879882812
0, 5, 66, 327.934814453125
0, 5, 67, 310.6805725097656
0, 5, 68, 312.7896118164062
0, 5, 69, 310.7948608398438
0, 5, 70, 302.5276489257812
0, 5, 71, 271.3330993652344
0, 5, 72, 311.5331726074219
0, 5, 73, 301.5323486328125
0, 5, 74, 294.7227172851562
0, 5, 75, 293.7544860839844
0, 5, 76, 285.4616394042969
0, 5, 77, 300.0965881347656
0, 5, 78, 317.103759765625
0, 5, 79, 306.6314086914062
0, 5, 80, 294.6817321777344
0, 5, 81, 325.2431030273438
0, 5, 82, 323.8395690917969
0, 5, 83, 280.8479919433594
0, 5, 84, 302.5291442871094
0, 5, 85, 271.6197814941406
0, 5, 86, 326.8156433105469
0, 5, 87, 284.0834350585938
0, 5, 88, 315.594970703125
0, 5, 89, 304.3940124511719
0, 5, 90, 316.0898132324219
0, 5, 91, 314.5037536621094
0, 5, 92, 297.4215698242188
0, 5, 93, 321.7635192871094
0, 5, 94, 306.3150329589844
0, 5, 95, 297.7598571777344
0, 5, 96, 297.0030822753906
0, 5, 97, 295.1346740722656
0, 5, 98, 318.6214904785156
0, 5, 99, 303.7254638671875
0, 5, 100, 290.4106140136719
0, 5, 101, 306.0650939941406
0, 5, 102, 292.7599487304688
0, 5, 103, 313.2453002929688
0, 5, 104, 304.2227478027344
0, 5, 105, 291.427001953125
0, 5, 106, 281.2565002441406
0, 5, 107, 292.1053771972656
0, 5, 108, 268.7667541503906
0, 5, 109, 157.4873046875
0, 5, 110, 40.05870056152344
0, 5, 111, 19.84047889709473
0, 5, 112, 17.63949775695801
0, 5, 113, 13.91200923919678
0, 5, 114, 12.81184005737305
0, 5, 115, 6.591098785400391
0, 5, 116, 6.774136066436768
0, 5, 117, 7.658222198486328
0, 5, 118, 12.23497676849365
0, 5, 119, 2.809570074081421
0, 5, 120, 6.366136074066162
0, 5, 121, 4.921402454376221
0, 5, 122, 4.915672779083252
0, 5, 123, 3.521021842956543
0, 5, 124, 5.100430965423584
0, 5, 125, 4.30453634262085
0, 5, 126, 6.777929306030273
0, 5, 127, 5.070516109466553
0, 6, 0, 5.310738086700439
0, 6, 1, 2.88746452331543
0, 6, 2, 5.457424640655518
0, 6, 3, 5.87353515625
0, 6, 4, 4.074088573455811
0, 6, 5, 5.969729423522949
0, 6, 6, 7.108283996582031
0, 6, 7, 4.727114677429199
0, 6, 8, 5.316793918609619
0, 6, 9, 7.192275047302246
0, 6, 10, 6.867716789245605
0, 6, 11, 9.674633026123047
0, 6, 12, 8.506484985351562
0, 6, 13, 14.02518844604492
0, 6, 14, 9.151841163635254
0, 6, 15, 16.12601852416992
0, 6, 16, 28.73505401611328
0, 6, 17, 54.41083145141602
0, 6, 18, 173.3540344238281
0, 6, 19, 276.2185974121094
0, 6, 20, 290.7456665039062
0, 6, 21, 313.656494140625
0, 6, 22, 320.2598266601562
0, 6, 23, 306.8366394042969
0, 6, 24, 316.9670715332031
0, 6, 25, 315.6069030761719
0, 6, 26, 321.0378112792969
0, 6, 27, 330.5637512207031
0, 6, 28, 294.294921875
0, 6, 29, 329.2938232421875
0, 6, 30, 281.2068176269531
0, 6, 31, 286.3697814941406
0, 6, 32, 340.0760498046875
0, 6, 33, 302.6240539550781
0, 6, 34, 343.14208984375
0, 6, 35, 321.3704833984375
0, 6, 36, 273.8475646972656
0, 6, 37, 289.4465026855469
0, 6, 38, 311.8242492675781
0, 6, 39, 296.9768981933594
0, 6, 40, 284.9951477050781
0, 6, 41, 297.0090942382812
0, 6, 42, 304.1608581542969
0, 6, 43, 287.5181579589844
0, 6, 44, 279.8624572753906
0, 6, 45, 318.4999389648438
0, 6, 46, 300.122802734375
0, 6, 47, 332.3843383789062
0, 6, 48, 293.1686706542969
0, 6, 49, 310.7925720214844
0, 6, 50, 328.7205200195312
0, 6, 51, 310.6073913574219
0, 6, 52, 321.3773498535156
0, 6, 53, 329.4820861816406
0, 6, 54, 304.3590393066406
0, 6, 55, 307.3523864746094
0, 6, 56, 295.0603637695312
0, 6, 57, 311.4976196289062
0, 6, 58, 262.7841491699219
0, 6, 59, 301.48388671875
0, 6, 60, 312.5040283203125
0, 6, 61, 272.1221618652344
0, 6, 62, 335.7521667480469
0, 6, 63, 322.6230163574219
0, 6, 64, 290.2928771972656
0, 6, 65, 284.1491394042969
0, 6, 66, 303.196533203125
0, 6, 67, 310.8807983398438
0, 6, 68, 294.0267028808594
0, 6, 69, 277.9844665527344
0, 6, 70, 275.2643737792969
0, 6, 71, 289.4667663574219
0, 6, 72, 309.8667297363281
0, 6, 73, 293.4198608398438
0, 6, 74, 332.2855834960938
0, 6, 75, 343.2662048339844
0, 6, 76, 297.8526000976562
0, 6, 77, 283.9516906738281
0, 6, 78, 277.7392578125
0, 6, 79, 294.2568969726562
0, 6, 80, 299.5008850097656
0, 6, 81, 315.3690795898438
0, 6, 82, 320.0119323730469
0, 6, 83, 319.8502197265625
0, 6, 84, 296.2622375488281
0, 6, 85, 300.8325500488281
0, 6, 86, 331.8670959472656
0, 6, 87, 293.1327819824219
0, 6, 88, 306.7068786621094
0, 6, 89, 305.7270202636719
0, 6, 90, 300.3803405761719
0, 6, 91, 313.7391052246094
0, 6, 92, 286.1585998535156
0, 6, 93, 295.8302917480469
0, 6, 94, 272.3583374023438
0, 6, 95, 298.5169677734375
0, 6, 96, 348.4137268066406
0, 6, 97, 308.5223083496094
0, 6, 98, 301.4461669921875
0, 6, 99, 271.6210021972656
0, 6, 100, 312.3834228515625
0, 6, 101, 292.1634826660156
0, 6, 102, 306.7622680664062
0, 6, 103, 307.4502563476562
0, 6, 104, 291.2354431152344
0, 6, 105, 301.8067321777344
0, 6, 106, 308.4525451660156
0, 6, 107, 304.4093627929688
0, 6, 108, 266.1543579101562
0, 6, 109, 186.7772369384766
0, 6, 110, 56.04482650756836
0, 6, 111, 21.08134269714355
0, 6, 112, 15.80904865264893
0, 6, 113, 11.16814231872559
0, 6, 114, 12.66247272491455
0, 6, 115, 12.76886367797852
0, 6, 116, 11.55145454406738
0, 6, 117, 6.281363964080811
0, 6, 118, 9.791012763977051
0, 6, 119, 11.73944282531738
0, 6, 120, 8.002324104309082
0, 6, 121, 5.229966163635254
0, 6, 122, 7.459939002990723
0, 6, 123, 5.338685989379883
0, 6, 124, 6.453149795532227
0, 6, 125, 7.606877326965332
0, 6, 126, 4.257593154907227
0, 6, 127, 7.557910919189453
0, 7, 0, 5.967467308044434
0, 7, 1, 3.866540670394897
0, 7, 2, 5.063766956329346
0, 7, 3, 5.379653453826904
0, 7, 4, 4.717655658721924
0, 7, 5, 3.386249780654907
0, 7, 6, 5.776461124420166
0, 7, 7, 6.151180267333984
0, 7, 8, 5.545732498168945
0, 7, 9, 7.993610382080078
0, 7, 10, 9.018172264099121
0, 7, 11, 11.62895393371582
0, 7, 12, 9.280884742736816
0, 7, 13, 11.1190824508667
0, 7, 14, 11.8417501449585
0, 7, 15, 15.09775733947754
0, 7, 16, 26.44325065612793
0, 7, 17, 97.8240966796875
0, 7, 18, 217.9695434570312
0, 7, 19, 289.8607788085938
0, 7, 20, 295.3487243652344
0, 7, 21, 277.3323974609375
0, 7, 22, 299.0743408203125
0, 7, 23, 289.3436889648438
0, 7, 24, 314.3278198242188
0, 7, 25, 325.5799560546875
0, 7, 26, 276.5183410644531
0, 7, 27, 297.1707458496094
0, 7, 28, 326.8306884765625
0, 7, 29, 319.316650390625
0, 7, 30, 306.2993469238281
0, 7, 31, 277.8423767089844
0, 7, 32, 305.7156982421875
0, 7, 33, 262.1283264160156
0, 7, 34, 296.7259216308594
0, 7, 35, 321.0834045410156
0, 7, 36, 330.6045837402344
0, 7, 37, 323.1536560058594
0, 7, 38, 297.6177062988281
0, 7, 39, 307.07373046875
0, 7, 40, 289.4961853027344
0, 7, 41, 271.4356079101562
0, 7, 42, 300.8916320800781
0, 7, 43, 279.6791381835938
0, 7, 44, 304.693603515625
0, 7, 45, 294.4721374511719
0, 7, 46, 283.9725341796875
0, 7, 47, 329.4097595214844
0, 7, 48, 285.5855712890625
0, 7, 49, 303.2080993652344
0, 7, 50, 321.9894409179688
0, 7, 51, 298.1303100585938
0, 7, 52, 327.7291564941406
0, 7, 53, 309.3860473632812
0, 7, 54, 325.1800842285156
0, 7, 55, 306.7420043945312
0, 7, 56, 284.0890197753906
0, 7, 57, 283.2068176269531
0, 7, 58, 297.3743896484375
0, 7, 59, 292.4402160644531
0, 7, 60, 321.9644470214844
0, 7, 61, 279.3055114746094
0, 7, 62, 296.1262512207031
0, 7, 63, 293.0348205566406
0, 7, 64, 308.0923461914062
0, 7, 65, 330.0952453613281
0, 7, 66, 317.8822326660156
0, 7, 67, 301.9265747070312
0, 7, 68, 278.8156127929688
0, 7, 69, 296.595703125
0, 7, 70, 301.5225830078125
0, 7, 71, 309.8182678222656
0, 7, 72, 283.0299987792969
0, 7, 73, 296.184814453125
0, 7, 74, 345.3229370117188
0, 7, 75, 318.74462890625
0, 7, 76, 323.3008728027344
0, 7, 77, 280.6168518066406
0, 7, 78, 298.902099609375
0, 7, 79, 298.925048828125
0, 7, 80, 311.1204223632812
0, 7, 81, 320.0348815917969
0, 7, 82, 330.4425048828125
0, 7, 83, 317.8169555664062
0, 7, 84, 309.8505859375
0, 7, 85, 271.8861999511719
0, 7, 86, 310.3341369628906
0, 7, 87, 310.6412048339844
0, 7, 88, 306.0864562988281
0, 7, 89, 292.628173828125
0, 7, 90, 307.678466796875
0, 7, 91, 313.3370666503906
0, 7, 92, 289.8717956542969
0, 7, 93, 307.664794921875
0, 7, 94, 273.7469787597656
0, 7, 95, 294.6278076171875
0, 7, 96, 329.2093505859375
0, 7, 97, 295.5275268554688
0, 7, 98, 292.5343017578125
0, 7, 99, 311.6960144042969
0, 7, 100, 280.9121704101562
0, 7, 101, 275.8308715820312
0, 7, 102, 290.4755554199219
0, 7, 103, 291.4826049804688
0, 7, 104, 275.3209838867188
0, 7, 105, 306.1701049804688
0, 7, 106, 317.2943115234375
0, 7, 107, 299.0579223632812
0, 7, 108, 273.5140991210938
0, 7, 109, 238.3204040527344
0, 7, 110, 95.21857452392578
0, 7, 111, 23.92819595336914
0, 7, 112, 15.08889865875244
0, 7, 113, 13.89769268035889
0, 7, 114, 14.37903118133545
0, 7, 115, 13.46283149719238
0, 7, 116, 10.24957942962646
0, 7, 117, 6.647695064544678
0, 7, 118, 8.228569030761719
0, 7, 119, 6.932394504547119
0, 7, 120, 4.489512920379639
0, 7, 121, 6.410285472869873
0, 7, 122, 5.663725852966309
0, 7, 123, 4.353597640991211
0, 7, 124, 2.981093168258667
0, 7, 125, 5.585187435150146
0, 7, 126, 9.99105167388916
0, 7, 127, 5.249279022216797
0, 8, 0, 6.964194297790527
0, 8, 1, 3.680401086807251
0, 8, 2, 3.369075536727905
0, 8, 3, 2.888897895812988
0, 8, 4, 4.288239479064941
0, 8, 5, 4.560479164123535
0, 8, 6, 6.380196571350098
0, 8, 7, 4.958629608154297
0, 8, 8, 8.785200119018555
0, 8, 9, 4.406410694122314
0, 8, 10, 9.110494613647461
0, 8, 11, 12.66765594482422
0, 8, 12, 13.01675891876221
0, 8, 13, 17.51840209960938
0, 8, 14, 11.74638652801514
0, 8, 15, 17.09042930603027
0, 8, 16, 32.31388854980469
0, 8, 17, 131.2574157714844
0, 8, 18, 242.7142639160156
0, 8, 19, 295.3659057617188
0, 8, 20, 284.82666015625
0, 8, 21, 306.0267639160156
0, 8, 22, 295.9808654785156
0, 8, 23, 274.95751953125
0, 8, 24, 267.5161437988281
0, 8, 25, 275.9188232421875
0, 8, 26, 305.3287353515625
0, 8, 27, 307.2978820800781
0, 8, 28, 306.3295288085938
0, 8, 29, 322.78515625
0, 8, 30, 312.3707275390625
0, 8, 31, 302.8871459960938
0, 8, 32, 279.4562072753906
0, 8, 33, 295.3004150390625
0, 8, 34, 289.8262023925781
0, 8, 35, 283.3411254882812
0, 8, 36, 316.5564880371094
0, 8, 37, 340.2159423828125
0, 8, 38, 332.7314453125
0, 8, 39, 280.9278869628906
0, 8, 40, 304.8613586425781
