# TOPAS Version: 3.1.p3
# Parameter File: batch_inserts_84.txt
# Results for scorer Readout_Adipose
# Scored in component: MyBox
# X in 1 bin  of 0.75 cm
# Y in 512 bins of 0.0783984 cm
# Z in 128 bins of 0.078125 cm
# EnergyDeposit ( MeV ) : Sum   
0, 0, 0, 2.761389255523682
0, 0, 1, 2.502235651016235
0, 0, 2, 3.896066188812256
0, 0, 3, 1.832749485969543
0, 0, 4, 2.954523324966431
0, 0, 5, 1.971674561500549
0, 0, 6, 5.369734287261963
0, 0, 7, 8.052367210388184
0, 0, 8, 2.738668918609619
0, 0, 9, 6.205587863922119
0, 0, 10, 7.013357162475586
0, 0, 11, 4.575217723846436
0, 0, 12, 4.038808822631836
0, 0, 13, 6.03650426864624
0, 0, 14, 6.982320785522461
0, 0, 15, 9.22303581237793
0, 0, 16, 7.826033592224121
0, 0, 17, 7.450078010559082
0, 0, 18, 11.75455379486084
0, 0, 19, 44.09157562255859
0, 0, 20, 140.1336212158203
0, 0, 21, 222.9172515869141
0, 0, 22, 250.0533905029297
0, 0, 23, 256.1292724609375
0, 0, 24, 250.5481567382812
0, 0, 25, 261.6327209472656
0, 0, 26, 233.5338745117188
0, 0, 27, 238.3223724365234
0, 0, 28, 271.2767028808594
0, 0, 29, 251.5351104736328
0, 0, 30, 230.6877593994141
0, 0, 31, 245.1163024902344
0, 0, 32, 265.9037780761719
0, 0, 33, 263.2869567871094
0, 0, 34, 287.1661376953125
0, 0, 35, 267.3472290039062
0, 0, 36, 245.6043090820312
0, 0, 37, 251.1089630126953
0, 0, 38, 267.4410095214844
0, 0, 39, 229.6812438964844
0, 0, 40, 241.53857421875
0, 0, 41, 266.2322387695312
0, 0, 42, 229.1212310791016
0, 0, 43, 259.8703002929688
0, 0, 44, 251.3238372802734
0, 0, 45, 252.3768768310547
0, 0, 46, 244.4364624023438
0, 0, 47, 252.5834808349609
0, 0, 48, 267.2919311523438
0, 0, 49, 275.0826110839844
0, 0, 50, 252.2400512695312
0, 0, 51, 253.7497711181641
0, 0, 52, 273.5252990722656
0, 0, 53, 290.6002807617188
0, 0, 54, 243.269287109375
0, 0, 55, 239.1422576904297
0, 0, 56, 277.0050964355469
0, 0, 57, 263.4038391113281
0, 0, 58, 245.3993988037109
0, 0, 59, 270.206298828125
0, 0, 60, 234.0079345703125
0, 0, 61, 247.4424743652344
0, 0, 62, 258.4553833007812
0, 0, 63, 268.307861328125
0, 0, 64, 255.0616912841797
0, 0, 65, 261.8458862304688
0, 0, 66, 275.0534362792969
0, 0, 67, 245.8280334472656
0, 0, 68, 259.0461120605469
0, 0, 69, 261.2354125976562
0, 0, 70, 272.0490112304688
0, 0, 71, 237.4287719726562
0, 0, 72, 251.5839233398438
0, 0, 73, 260.2108154296875
0, 0, 74, 250.8217010498047
0, 0, 75, 242.3330688476562
0, 0, 76, 228.4151306152344
0, 0, 77, 260.74658203125
0, 0, 78, 254.8836059570312
0, 0, 79, 280.0389099121094
0, 0, 80, 215.1484680175781
0, 0, 81, 266.744873046875
0, 0, 82, 255.3794860839844
0, 0, 83, 246.0176696777344
0, 0, 84, 271.7897644042969
0, 0, 85, 231.2500152587891
0, 0, 86, 254.0945739746094
0, 0, 87, 252.0439300537109
0, 0, 88, 261.4161376953125
0, 0, 89, 283.2046203613281
0, 0, 90, 244.8977813720703
0, 0, 91, 280.9163513183594
0, 0, 92, 252.2604217529297
0, 0, 93, 249.1468505859375
0, 0, 94, 247.9847717285156
0, 0, 95, 247.0712585449219
0, 0, 96, 275.283935546875
0, 0, 97, 271.732177734375
0, 0, 98, 273.1257019042969
0, 0, 99, 258.740234375
0, 0, 100, 257.60791015625
0, 0, 101, 227.068115234375
0, 0, 102, 230.5977935791016
0, 0, 103, 270.429931640625
0, 0, 104, 253.6262512207031
0, 0, 105, 251.8826904296875
0, 0, 106, 246.9092254638672
0, 0, 107, 152.8294525146484
0, 0, 108, 39.63451385498047
0, 0, 109, 11.24493312835693
0, 0, 110, 13.15874099731445
0, 0, 111, 9.79853343963623
0, 0, 112, 7.808403015136719
0, 0, 113, 4.625971794128418
0, 0, 114, 6.581558227539062
0, 0, 115, 5.098302364349365
0, 0, 116, 4.862394332885742
0, 0, 117, 7.322066307067871
0, 0, 118, 6.376796722412109
0, 0, 119, 4.429875373840332
0, 0, 120, 4.313933372497559
0, 0, 121, 2.920126676559448
0, 0, 122, 4.696993827819824
0, 0, 123, 2.344545602798462
0, 0, 124, 4.598413944244385
0, 0, 125, 4.047348499298096
0, 0, 126, 6.080790519714355
0, 0, 127, 3.699336528778076
0, 1, 0, 6.682748317718506
0, 1, 1, 3.682079315185547
0, 1, 2, 2.635195970535278
0, 1, 3, 2.457421541213989
0, 1, 4, 2.288752555847168
0, 1, 5, 3.176047563552856
0, 1, 6, 3.245154142379761
0, 1, 7, 6.407190799713135
0, 1, 8, 7.952028751373291
0, 1, 9, 4.750661849975586
0, 1, 10, 7.223349571228027
0, 1, 11, 12.34742832183838
0, 1, 12, 10.17686939239502
0, 1, 13, 12.47416400909424
0, 1, 14, 8.223560333251953
0, 1, 15, 7.960232734680176
0, 1, 16, 11.51403331756592
0, 1, 17, 13.31526565551758
0, 1, 18, 20.48056030273438
0, 1, 19, 65.71396636962891
0, 1, 20, 200.3847045898438
0, 1, 21, 254.0103759765625
0, 1, 22, 294.9306030273438
0, 1, 23, 283.602294921875
0, 1, 24, 276.4369506835938
0, 1, 25, 287.1542663574219
0, 1, 26, 268.5206909179688
0, 1, 27, 307.2083435058594
0, 1, 28, 300.8692321777344
0, 1, 29, 297.2739868164062
0, 1, 30, 280.1634826660156
0, 1, 31, 293.185791015625
0, 1, 32, 291.2619934082031
0, 1, 33, 297.6217346191406
0, 1, 34, 293.1369934082031
0, 1, 35, 278.1519775390625
0, 1, 36, 307.3284606933594
0, 1, 37, 296.2494506835938
0, 1, 38, 278.60888671875
0, 1, 39, 296.0514221191406
0, 1, 40, 265.3065795898438
0, 1, 41, 287.8513793945312
0, 1, 42, 290.7816467285156
0, 1, 43, 333.3807678222656
0, 1, 44, 279.9388732910156
0, 1, 45, 291.4853820800781
0, 1, 46, 259.282470703125
0, 1, 47, 312.9228820800781
0, 1, 48, 282.6109924316406
0, 1, 49, 302.1594543457031
0, 1, 50, 263.8086853027344
0, 1, 51, 271.8336181640625
0, 1, 52, 293.858642578125
0, 1, 53, 305.40283203125
0, 1, 54, 274.1327209472656
0, 1, 55, 293.1763305664062
0, 1, 56, 276.8599853515625
0, 1, 57, 299.8022155761719
0, 1, 58, 309.9353942871094
0, 1, 59, 291.5483093261719
0, 1, 60, 297.5107116699219
0, 1, 61, 274.4929504394531
0, 1, 62, 308.3622741699219
0, 1, 63, 288.5434875488281
0, 1, 64, 290.1754760742188
0, 1, 65, 294.6537475585938
0, 1, 66, 293.2547912597656
0, 1, 67, 290.7930908203125
0, 1, 68, 279.3446655273438
0, 1, 69, 281.1355895996094
0, 1, 70, 272.1588745117188
0, 1, 71, 273.015625
0, 1, 72, 285.2640991210938
0, 1, 73, 305.97802734375
0, 1, 74, 305.8308715820312
0, 1, 75, 291.7360534667969
0, 1, 76, 285.4234008789062
0, 1, 77, 291.6120910644531
0, 1, 78, 298.2598876953125
0, 1, 79, 301.9798889160156
0, 1, 80, 297.0402221679688
0, 1, 81, 300.0401916503906
0, 1, 82, 283.2820739746094
0, 1, 83, 331.4276123046875
0, 1, 84, 308.3781127929688
0, 1, 85, 252.849853515625
0, 1, 86, 293.8196716308594
0, 1, 87, 289.3193359375
0, 1, 88, 298.200927734375
0, 1, 89, 290.0523986816406
0, 1, 90, 272.6128540039062
0, 1, 91, 318.0010681152344
0, 1, 92, 289.4190979003906
0, 1, 93, 286.2605895996094
0, 1, 94, 304.4198608398438
0, 1, 95, 284.3215942382812
0, 1, 96, 282.6582641601562
0, 1, 97, 302.1131896972656
0, 1, 98, 279.5086669921875
0, 1, 99, 265.7524108886719
0, 1, 100, 276.86376953125
0, 1, 101, 281.6982727050781
0, 1, 102, 279.820068359375
0, 1, 103, 283.2473449707031
0, 1, 104, 305.9466247558594
0, 1, 105, 296.9232177734375
0, 1, 106, 262.2064208984375
0, 1, 107, 191.8277130126953
0, 1, 108, 80.77950286865234
0, 1, 109, 25.9394645690918
0, 1, 110, 10.66382884979248
0, 1, 111, 7.909638404846191
0, 1, 112, 11.63580417633057
0, 1, 113, 5.853457450866699
0, 1, 114, 5.74632740020752
0, 1, 115, 6.817873477935791
0, 1, 116, 13.6740665435791
0, 1, 117, 10.39782524108887
0, 1, 118, 4.461836338043213
0, 1, 119, 7.357912540435791
0, 1, 120, 7.514101505279541
0, 1, 121, 2.312808990478516
0, 1, 122, 3.836199760437012
0, 1, 123, 8.067419052124023
0, 1, 124, 8.035994529724121
0, 1, 125, 5.418069839477539
0, 1, 126, 2.079864501953125
0, 1, 127, 1.762216329574585
0, 2, 0, 7.34736442565918
0, 2, 1, 2.478797674179077
0, 2, 2, 5.939515113830566
0, 2, 3, 4.775915145874023
0, 2, 4, 4.023162841796875
0, 2, 5, 2.132585287094116
0, 2, 6, 1.982450366020203
0, 2, 7, 3.604721546173096
0, 2, 8, 5.558389186859131
0, 2, 9, 5.5484299659729
0, 2, 10, 7.511558055877686
0, 2, 11, 6.700375556945801
0, 2, 12, 6.913004398345947
0, 2, 13, 8.954381942749023
0, 2, 14, 10.18336296081543
0, 2, 15, 7.094820022583008
0, 2, 16, 8.280796051025391
0, 2, 17, 15.63057136535645
0, 2, 18, 30.26905822753906
0, 2, 19, 116.8179397583008
0, 2, 20, 247.6447906494141
0, 2, 21, 274.8251647949219
0, 2, 22, 317.6891174316406
0, 2, 23, 300.4934692382812
0, 2, 24, 285.5810852050781
0, 2, 25, 303.8285827636719
0, 2, 26, 294.7820129394531
0, 2, 27, 275.2028503417969
0, 2, 28, 273.8553771972656
0, 2, 29, 276.5013427734375
0, 2, 30, 293.6910400390625
0, 2, 31, 278.7904052734375
0, 2, 32, 294.2905883789062
0, 2, 33, 282.1827697753906
0, 2, 34, 334.6079406738281
0, 2, 35, 288.9450073242188
0, 2, 36, 302.7427062988281
0, 2, 37, 315.5862121582031
0, 2, 38, 312.3157043457031
0, 2, 39, 265.4292297363281
0, 2, 40, 307.6252136230469
0, 2, 41, 291.3184814453125
0, 2, 42, 302.9294128417969
0, 2, 43, 312.998046875
0, 2, 44, 310.8044738769531
0, 2, 45, 325.5152893066406
0, 2, 46, 287.8467102050781
0, 2, 47, 303.9892883300781
0, 2, 48, 279.1203308105469
0, 2, 49, 279.0208435058594
0, 2, 50, 295.16162109375
0, 2, 51, 284.7236633300781
0, 2, 52, 273.7718811035156
0, 2, 53, 286.5917053222656
0, 2, 54, 281.2866821289062
0, 2, 55, 273.3721923828125
0, 2, 56, 301.30517578125
0, 2, 57, 294.6420593261719
0, 2, 58, 303.7412109375
0, 2, 59, 287.9364624023438
0, 2, 60, 319.237548828125
0, 2, 61, 301.5971984863281
0, 2, 62, 315.8512268066406
0, 2, 63, 301.3627624511719
0, 2, 64, 296.7246398925781
0, 2, 65, 315.040771484375
0, 2, 66, 278.4335632324219
0, 2, 67, 289.2838439941406
0, 2, 68, 294.9902954101562
0, 2, 69, 312.25927734375
0, 2, 70, 332.9068298339844
0, 2, 71, 284.0339965820312
0, 2, 72, 301.1811828613281
0, 2, 73, 311.0600280761719
0, 2, 74, 284.3330688476562
0, 2, 75, 305.455322265625
0, 2, 76, 287.0612487792969
0, 2, 77, 300.3118896484375
0, 2, 78, 315.4402465820312
0, 2, 79, 311.0009155273438
0, 2, 80, 297.7760009765625
0, 2, 81, 282.0046691894531
0, 2, 82, 318.578857421875
0, 2, 83, 312.1261291503906
0, 2, 84, 288.6333312988281
0, 2, 85, 285.8078308105469
0, 2, 86, 323.1242370605469
0, 2, 87, 286.901123046875
0, 2, 88, 282.4574584960938
0, 2, 89, 294.1456604003906
0, 2, 90, 296.8703308105469
0, 2, 91, 274.9865112304688
0, 2, 92, 306.7063598632812
0, 2, 93, 316.594970703125
0, 2, 94, 290.8498840332031
0, 2, 95, 317.6780700683594
0, 2, 96, 314.4436950683594
0, 2, 97, 289.6776428222656
0, 2, 98, 296.6770935058594
0, 2, 99, 272.8919067382812
0, 2, 100, 304.2043762207031
0, 2, 101, 300.541748046875
0, 2, 102, 297.3550109863281
0, 2, 103, 292.9340515136719
0, 2, 104, 294.0386657714844
0, 2, 105, 273.92578125
0, 2, 106, 296.9219055175781
0, 2, 107, 268.5581665039062
0, 2, 108, 116.7402114868164
0, 2, 109, 30.85114097595215
0, 2, 110, 9.532180786132812
0, 2, 111, 10.71619415283203
0, 2, 112, 7.500655174255371
0, 2, 113, 10.11845874786377
0, 2, 114, 10.14210224151611
0, 2, 115, 7.247313022613525
0, 2, 116, 7.208345413208008
0, 2, 117, 6.582690238952637
0, 2, 118, 3.753692150115967
0, 2, 119, 3.178488492965698
0, 2, 120, 4.753413677215576
0, 2, 121, 2.893940925598145
0, 2, 122, 4.349926948547363
0, 2, 123, 4.928770065307617
0, 2, 124, 5.046085834503174
0, 2, 125, 5.377132892608643
0, 2, 126, 2.402255773544312
0, 2, 127, 4.833027362823486
0, 3, 0, 3.319356918334961
0, 3, 1, 3.223845243453979
0, 3, 2, 2.840903997421265
0, 3, 3, 2.345355033874512
0, 3, 4, 6.810788631439209
0, 3, 5, 8.109038352966309
0, 3, 6, 7.867713928222656
0, 3, 7, 4.672255516052246
0, 3, 8, 5.852878570556641
0, 3, 9, 3.826319217681885
0, 3, 10, 5.439463138580322
0, 3, 11, 5.132645606994629
0, 3, 12, 6.831268310546875
0, 3, 13, 14.39586162567139
0, 3, 14, 10.24736595153809
0, 3, 15, 13.22259521484375
0, 3, 16, 12.68960571289062
0, 3, 17, 17.52681922912598
0, 3, 18, 52.41146087646484
0, 3, 19, 176.3507232666016
0, 3, 20, 269.1632690429688
0, 3, 21, 271.2876281738281
0, 3, 22, 281.3215026855469
0, 3, 23, 288.384033203125
0, 3, 24, 286.9666442871094
0, 3, 25, 270.6864929199219
0, 3, 26, 304.6824035644531
0, 3, 27, 292.7310485839844
0, 3, 28, 283.7021484375
0, 3, 29, 338.7391662597656
0, 3, 30, 319.6986083984375
0, 3, 31, 285.8408508300781
0, 3, 32, 306.1613159179688
0, 3, 33, 314.2521057128906
0, 3, 34, 321.5058898925781
0, 3, 35, 306.3718872070312
0, 3, 36, 271.7280883789062
0, 3, 37, 314.9438171386719
0, 3, 38, 303.39892578125
0, 3, 39, 289.0710144042969
0, 3, 40, 267.1128540039062
0, 3, 41, 301.5960693359375
0, 3, 42, 284.0596313476562
0, 3, 43, 305.672119140625
0, 3, 44, 312.8876037597656
0, 3, 45, 289.8018188476562
0, 3, 46, 328.8937683105469
0, 3, 47, 301.6883850097656
0, 3, 48, 307.0745544433594
0, 3, 49, 276.7588500976562
0, 3, 50, 291.39990234375
0, 3, 51, 276.0087280273438
0, 3, 52, 315.0697326660156
0, 3, 53, 287.4570617675781
0, 3, 54, 283.90966796875
0, 3, 55, 283.8462524414062
0, 3, 56, 298.6554260253906
0, 3, 57, 289.2329711914062
0, 3, 58, 305.4093017578125
0, 3, 59, 296.1876220703125
0, 3, 60, 300.9783020019531
0, 3, 61, 265.7610778808594
0, 3, 62, 283.94482421875
0, 3, 63, 306.3065490722656
0, 3, 64, 315.7471313476562
0, 3, 65, 305.9995727539062
0, 3, 66, 316.6722717285156
0, 3, 67, 317.9485168457031
0, 3, 68, 279.6025390625
0, 3, 69, 283.8211975097656
0, 3, 70, 286.6900634765625
0, 3, 71, 299.9411010742188
0, 3, 72, 269.8895874023438
0, 3, 73, 308.8727416992188
0, 3, 74, 293.1039733886719
0, 3, 75, 290.9405517578125
0, 3, 76, 304.8575134277344
0, 3, 77, 312.3204650878906
0, 3, 78, 302.9078063964844
0, 3, 79, 280.6423950195312
0, 3, 80, 288.8644714355469
0, 3, 81, 310.3266906738281
0, 3, 82, 316.7236633300781
0, 3, 83, 300.2646484375
0, 3, 84, 311.2578430175781
0, 3, 85, 292.6502380371094
0, 3, 86, 302.0661010742188
0, 3, 87, 300.1587219238281
0, 3, 88, 299.8074645996094
0, 3, 89, 295.4521789550781
0, 3, 90, 276.3843688964844
0, 3, 91, 284.62255859375
0, 3, 92, 305.2314453125
0, 3, 93, 313.9541015625
0, 3, 94, 297.8042907714844
0, 3, 95, 333.6449279785156
0, 3, 96, 289.79736328125
0, 3, 97, 283.7221069335938
0, 3, 98, 278.3853759765625
0, 3, 99, 261.0113220214844
0, 3, 100, 285.19287109375
0, 3, 101, 296.8882141113281
0, 3, 102, 273.7554931640625
0, 3, 103, 321.2626953125
0, 3, 104, 309.9434814453125
0, 3, 105, 289.9078674316406
0, 3, 106, 302.1278381347656
0, 3, 107, 284.3885498046875
0, 3, 108, 168.0359039306641
0, 3, 109, 58.92071914672852
0, 3, 110, 18.75136947631836
0, 3, 111, 13.32778072357178
0, 3, 112, 13.29860210418701
0, 3, 113, 7.414144039154053
0, 3, 114, 13.30737972259521
0, 3, 115, 7.65491247177124
0, 3, 116, 6.959210395812988
0, 3, 117, 6.290582656860352
0, 3, 118, 7.029464721679688
0, 3, 119, 5.770444393157959
0, 3, 120, 5.452346324920654
0, 3, 121, 5.423454284667969
0, 3, 122, 3.077408075332642
0, 3, 123, 5.553402900695801
0, 3, 124, 3.813872575759888
0, 3, 125, 5.111091613769531
0, 3, 126, 5.25670862197876
0, 3, 127, 3.356071472167969
0, 4, 0, 1.77796459197998
0, 4, 1, 4.672175407409668
0, 4, 2, 2.980718851089478
0, 4, 3, 2.086610317230225
0, 4, 4, 5.744770526885986
0, 4, 5, 10.27484130859375
0, 4, 6, 6.752417087554932
0, 4, 7, 5.056034088134766
0, 4, 8, 5.409827709197998
0, 4, 9, 6.130635738372803
0, 4, 10, 7.477804183959961
0, 4, 11, 6.499638557434082
0, 4, 12, 5.342248439788818
0, 4, 13, 9.492969512939453
0, 4, 14, 11.82702732086182
0, 4, 15, 9.58336067199707
0, 4, 16, 12.34975624084473
0, 4, 17, 18.99261665344238
0, 4, 18, 92.79909515380859
0, 4, 19, 220.9168090820312
0, 4, 20, 283.8354797363281
0, 4, 21, 272.7437133789062
0, 4, 22, 304.9446105957031
0, 4, 23, 266.5100402832031
0, 4, 24, 288.9670715332031
0, 4, 25, 273.5215759277344
0, 4, 26, 295.3537902832031
0, 4, 27, 283.5469055175781
0, 4, 28, 306.6898193359375
0, 4, 29, 321.5227966308594
0, 4, 30, 308.7694396972656
0, 4, 31, 304.6451110839844
0, 4, 32, 282.1903381347656
0, 4, 33, 298.2467346191406
0, 4, 34, 296.95458984375
0, 4, 35, 311.2141418457031
0, 4, 36, 292.6285095214844
0, 4, 37, 289.1193237304688
0, 4, 38, 300.0793762207031
0, 4, 39, 293.4264221191406
0, 4, 40, 305.3348083496094
0, 4, 41, 311.4872131347656
0, 4, 42, 330.2400207519531
0, 4, 43, 298.7523803710938
0, 4, 44, 319.4049072265625
0, 4, 45, 322.7267150878906
0, 4, 46, 305.9056091308594
0, 4, 47, 292.5260314941406
0, 4, 48, 294.5005798339844
0, 4, 49, 277.4253234863281
0, 4, 50, 296.6736145019531
0, 4, 51, 316.4363403320312
0, 4, 52, 327.5832214355469
0, 4, 53, 304.6218872070312
0, 4, 54, 287.7883911132812
0, 4, 55, 316.4963684082031
0, 4, 56, 285.7204284667969
0, 4, 57, 309.1303405761719
0, 4, 58, 297.8880310058594
0, 4, 59, 308.8290405273438
0, 4, 60, 300.6179809570312
0, 4, 61, 317.1272583007812
0, 4, 62, 308.5809326171875
0, 4, 63, 300.6573791503906
0, 4, 64, 330.0858459472656
0, 4, 65, 315.6836242675781
0, 4, 66, 294.3925170898438
0, 4, 67, 285.515380859375
0, 4, 68, 312.2145690917969
0, 4, 69, 275.7332153320312
0, 4, 70, 298.7997131347656
0, 4, 71, 322.0087890625
0, 4, 72, 334.0527648925781
0, 4, 73, 298.7156982421875
0, 4, 74, 292.1540832519531
0, 4, 75, 289.1098327636719
0, 4, 76, 277.04541015625
0, 4, 77, 280.0335693359375
0, 4, 78, 311.3490600585938
0, 4, 79, 318.0456237792969
0, 4, 80, 314.66748046875
0, 4, 81, 312.8695068359375
0, 4, 82, 297.4593505859375
0, 4, 83, 301.8989562988281
0, 4, 84, 292.0161743164062
0, 4, 85, 295.4808959960938
0, 4, 86, 295.9634399414062
0, 4, 87, 284.8067626953125
0, 4, 88, 304.6955871582031
0, 4, 89, 294.6444091796875
0, 4, 90, 333.3108520507812
0, 4, 91, 301.3981628417969
0, 4, 92, 291.4351806640625
0, 4, 93, 296.9620361328125
0, 4, 94, 294.115478515625
0, 4, 95, 288.522216796875
0, 4, 96, 324.162109375
0, 4, 97, 276.6090393066406
0, 4, 98, 326.1797790527344
0, 4, 99, 313.3066101074219
0, 4, 100, 299.6463317871094
0, 4, 101, 256.3329772949219
0, 4, 102, 295.5359497070312
0, 4, 103, 317.3153381347656
0, 4, 104, 280.2421264648438
0, 4, 105, 309.5197143554688
0, 4, 106, 285.9607849121094
0, 4, 107, 295.6378479003906
0, 4, 108, 225.4959259033203
0, 4, 109, 79.83348846435547
0, 4, 110, 15.93564128875732
0, 4, 111, 13.87650966644287
0, 4, 112, 8.405313491821289
0, 4, 113, 13.45086479187012
0, 4, 114, 9.896187782287598
0, 4, 115, 11.37014198303223
0, 4, 116, 10.29985332489014
0, 4, 117, 8.963509559631348
0, 4, 118, 9.50997257232666
0, 4, 119, 8.200587272644043
0, 4, 120, 5.175802230834961
0, 4, 121, 4.003342628479004
0, 4, 122, 4.496683120727539
0, 4, 123, 6.652890205383301
0, 4, 124, 6.895125865936279
0, 4, 125, 7.568001270294189
0, 4, 126, 3.306694269180298
0, 4, 127, 3.878419399261475
0, 5, 0, 4.29301118850708
0, 5, 1, 3.445281505584717
0, 5, 2, 5.502279281616211
0, 5, 3, 5.21019983291626
0, 5, 4, 4.107351779937744
0, 5, 5, 7.228843212127686
0, 5, 6, 5.278481483459473
0, 5, 7, 6.24869441986084
0, 5, 8, 4.713772773742676
0, 5, 9, 6.029152870178223
0, 5, 10, 8.805498123168945
0, 5, 11, 7.51772403717041
0, 5, 12, 7.778409004211426
0, 5, 13, 6.08897066116333
0, 5, 14, 14.9052038192749
0, 5, 15, 16.70597076416016
0, 5, 16, 15.23964595794678
0, 5, 17, 30.95160102844238
0, 5, 18, 138.8693084716797
0, 5, 19, 288.4967651367188
0, 5, 20, 307.9031066894531
0, 5, 21, 317.6996459960938
0, 5, 22, 275.7478332519531
0, 5, 23, 309.1275329589844
0, 5, 24, 301.2373962402344
0, 5, 25, 289.3893127441406
0, 5, 26, 294.8971862792969
0, 5, 27, 324.7845764160156
0, 5, 28, 301.5965270996094
0, 5, 29, 296.8541259765625
0, 5, 30, 323.0750122070312
0, 5, 31, 286.4092102050781
0, 5, 32, 302.3212280273438
0, 5, 33, 303.149169921875
0, 5, 34, 296.873046875
0, 5, 35, 309.0851135253906
0, 5, 36, 271.6135864257812
0, 5, 37, 281.0398864746094
0, 5, 38, 292.0032043457031
0, 5, 39, 310.71533203125
0, 5, 40, 306.6464233398438
0, 5, 41, 274.7773132324219
0, 5, 42, 306.697021484375
0, 5, 43, 314.0197448730469
0, 5, 44, 291.1802368164062
0, 5, 45, 301.2142333984375
0, 5, 46, 266.4595642089844
0, 5, 47, 281.9384460449219
0, 5, 48, 296.1317749023438
0, 5, 49, 286.4386901855469
0, 5, 50, 295.1354370117188
0, 5, 51, 280.8337707519531
0, 5, 52, 267.8789367675781
0, 5, 53, 284.8993225097656
0, 5, 54, 291.4056701660156
0, 5, 55, 342.9383239746094
0, 5, 56, 304.8843383789062
0, 5, 57, 306.5654602050781
0, 5, 58, 313.9794311523438
0, 5, 59, 304.4737243652344
0, 5, 60, 307.3002624511719
0, 5, 61, 280.56884765625
0, 5, 62, 324.4265441894531
0, 5, 63, 289.7328796386719
0, 5, 64, 322.2867431640625
0, 5, 65, 308.7070617675781
0, 5, 66, 327.4796752929688
0, 5, 67, 312.1390075683594
0, 5, 68, 309.0179138183594
0, 5, 69, 311.3737487792969
0, 5, 70, 300.3467102050781
0, 5, 71, 273.2056579589844
0, 5, 72, 309.1925048828125
0, 5, 73, 303.8951110839844
0, 5, 74, 295.0601806640625
0, 5, 75, 293.2401123046875
0, 5, 76, 287.1040954589844
0, 5, 77, 299.5339965820312
0, 5, 78, 315.6558227539062
0, 5, 79, 308.0843200683594
0, 5, 80, 294.8852233886719
0, 5, 81, 326.9542541503906
0, 5, 82, 323.1400146484375
0, 5, 83, 282.1214599609375
0, 5, 84, 301.1565551757812
0, 5, 85, 270.3647155761719
0, 5, 86, 325.8751831054688
0, 5, 87, 283.7115783691406
0, 5, 88, 313.5600891113281
0, 5, 89, 305.4902648925781
0, 5, 90, 318.26806640625
0, 5, 91, 313.0411682128906
0, 5, 92, 296.2917785644531
0, 5, 93, 321.0059204101562
0, 5, 94, 308.9715270996094
0, 5, 95, 295.3199157714844
0, 5, 96, 301.2839660644531
0, 5, 97, 297.2722473144531
0, 5, 98, 317.7144470214844
0, 5, 99, 304.4255676269531
0, 5, 100, 291.0536499023438
0, 5, 101, 306.0162353515625
0, 5, 102, 291.8435363769531
0, 5, 103, 314.0423583984375
0, 5, 104, 303.3045654296875
0, 5, 105, 291.206787109375
0, 5, 106, 280.9950561523438
0, 5, 107, 292.0279541015625
0, 5, 108, 264.2881469726562
0, 5, 109, 157.8188323974609
0, 5, 110, 40.74939346313477
0, 5, 111, 19.7773380279541
0, 5, 112, 19.5712776184082
0, 5, 113, 12.71833801269531
0, 5, 114, 11.13264656066895
0, 5, 115, 8.714086532592773
0, 5, 116, 7.667489051818848
0, 5, 117, 9.756781578063965
0, 5, 118, 14.07480525970459
0, 5, 119, 6.155566692352295
0, 5, 120, 6.826467990875244
0, 5, 121, 4.732248783111572
0, 5, 122, 5.652683258056641
0, 5, 123, 4.445576667785645
0, 5, 124, 5.148653030395508
0, 5, 125, 4.575161933898926
0, 5, 126, 5.700851440429688
0, 5, 127, 2.384196519851685
0, 6, 0, 3.525413513183594
0, 6, 1, 2.886538982391357
0, 6, 2, 4.330367088317871
0, 6, 3, 6.007167816162109
0, 6, 4, 3.746765851974487
0, 6, 5, 4.994318008422852
0, 6, 6, 7.889050006866455
0, 6, 7, 5.164938449859619
0, 6, 8, 9.025725364685059
0, 6, 9, 5.191157341003418
0, 6, 10, 8.316776275634766
0, 6, 11, 10.57394027709961
0, 6, 12, 8.913175582885742
0, 6, 13, 13.68867588043213
0, 6, 14, 9.486342430114746
0, 6, 15, 16.83586502075195
0, 6, 16, 28.03317451477051
0, 6, 17, 54.34564971923828
0, 6, 18, 171.6581420898438
0, 6, 19, 278.3643798828125
0, 6, 20, 290.8360595703125
0, 6, 21, 314.2131958007812
0, 6, 22, 320.89599609375
0, 6, 23, 307.6903686523438
0, 6, 24, 316.5586242675781
0, 6, 25, 316.7351379394531
0, 6, 26, 319.7962646484375
0, 6, 27, 332.0959167480469
0, 6, 28, 295.9146423339844
0, 6, 29, 330.8147888183594
0, 6, 30, 281.702392578125
0, 6, 31, 286.6705017089844
0, 6, 32, 339.6399230957031
0, 6, 33, 300.8849487304688
0, 6, 34, 340.7036743164062
0, 6, 35, 322.1226196289062
0, 6, 36, 273.6368408203125
0, 6, 37, 288.371826171875
0, 6, 38, 309.7529602050781
0, 6, 39, 298.8895874023438
0, 6, 40, 285.8159790039062
0, 6, 41, 296.1850891113281
0, 6, 42, 302.5246887207031
0, 6, 43, 288.7737731933594
0, 6, 44, 280.0700073242188
0, 6, 45, 317.7989196777344
0, 6, 46, 304.4437561035156
0, 6, 47, 336.2154235839844
0, 6, 48, 295.6262512207031
0, 6, 49, 310.0120849609375
0, 6, 50, 328.7449645996094
0, 6, 51, 313.9476928710938
0, 6, 52, 322.8448791503906
0, 6, 53, 328.1369323730469
0, 6, 54, 300.638427734375
0, 6, 55, 305.6445922851562
0, 6, 56, 295.3009338378906
0, 6, 57, 314.2816772460938
0, 6, 58, 262.1687316894531
0, 6, 59, 302.9073181152344
0, 6, 60, 312.1337585449219
0, 6, 61, 272.3896484375
0, 6, 62, 336.2748718261719
0, 6, 63, 322.9010620117188
0, 6, 64, 291.1280212402344
0, 6, 65, 284.9899291992188
0, 6, 66, 303.4874877929688
0, 6, 67, 309.3804016113281
0, 6, 68, 295.69970703125
0, 6, 69, 280.0855102539062
0, 6, 70, 275.087646484375
0, 6, 71, 289.3858337402344
0, 6, 72, 310.9270324707031
0, 6, 73, 291.7395629882812
0, 6, 74, 330.4055786132812
0, 6, 75, 342.9629516601562
0, 6, 76, 297.3617553710938
0, 6, 77, 286.1250915527344
0, 6, 78, 278.4277648925781
0, 6, 79, 293.4797668457031
0, 6, 80, 300.2964172363281
0, 6, 81, 314.5065612792969
0, 6, 82, 320.2750854492188
0, 6, 83, 319.2885437011719
0, 6, 84, 295.5406494140625
0, 6, 85, 300.5032043457031
0, 6, 86, 328.6407470703125
0, 6, 87, 292.9503784179688
0, 6, 88, 305.6136779785156
0, 6, 89, 304.8838806152344
0, 6, 90, 299.2885131835938
0, 6, 91, 313.2497253417969
0, 6, 92, 284.0874633789062
0, 6, 93, 296.4293823242188
0, 6, 94, 273.6457214355469
0, 6, 95, 301.8977966308594
0, 6, 96, 345.41015625
0, 6, 97, 308.5775756835938
0, 6, 98, 305.3497924804688
0, 6, 99, 271.4929504394531
0, 6, 100, 311.0300903320312
0, 6, 101, 294.5334777832031
0, 6, 102, 306.3542175292969
0, 6, 103, 312.3317565917969
0, 6, 104, 294.2894592285156
0, 6, 105, 301.8401489257812
0, 6, 106, 306.6990661621094
0, 6, 107, 306.5892028808594
0, 6, 108, 264.5990295410156
0, 6, 109, 185.1287384033203
0, 6, 110, 55.08230972290039
0, 6, 111, 22.94690132141113
0, 6, 112, 13.37564373016357
0, 6, 113, 9.793103218078613
0, 6, 114, 12.63815212249756
0, 6, 115, 12.00284862518311
0, 6, 116, 7.956587314605713
0, 6, 117, 6.871562957763672
0, 6, 118, 9.993290901184082
0, 6, 119, 10.94821166992188
0, 6, 120, 5.824149131774902
0, 6, 121, 5.752749443054199
0, 6, 122, 6.733684062957764
0, 6, 123, 4.382462024688721
0, 6, 124, 7.39228343963623
0, 6, 125, 5.229840755462646
0, 6, 126, 3.017898797988892
0, 6, 127, 10.31248378753662
0, 7, 0, 5.489373207092285
0, 7, 1, 3.243582963943481
0, 7, 2, 5.240323543548584
0, 7, 3, 3.69031023979187
0, 7, 4, 4.25505256652832
0, 7, 5, 3.613738059997559
0, 7, 6, 7.817210674285889
0, 7, 7, 6.450699329376221
0, 7, 8, 7.045204639434814
0, 7, 9, 4.741721630096436
0, 7, 10, 9.115412712097168
0, 7, 11, 11.29941940307617
0, 7, 12, 10.31462669372559
0, 7, 13, 11.32773780822754
0, 7, 14, 11.96273136138916
0, 7, 15, 20.75345993041992
0, 7, 16, 25.34902572631836
0, 7, 17, 96.18509674072266
0, 7, 18, 218.3628692626953
0, 7, 19, 289.2055358886719
0, 7, 20, 296.2046203613281
0, 7, 21, 277.3657531738281
0, 7, 22, 298.3403930664062
0, 7, 23, 289.6480407714844
0, 7, 24, 314.1142578125
0, 7, 25, 324.017578125
0, 7, 26, 278.3531799316406
0, 7, 27, 297.525146484375
0, 7, 28, 328.4823913574219
0, 7, 29, 321.6165466308594
0, 7, 30, 299.6437377929688
0, 7, 31, 277.9079895019531
0, 7, 32, 304.9490356445312
0, 7, 33, 260.8247375488281
0, 7, 34, 298.7000732421875
0, 7, 35, 321.5521545410156
0, 7, 36, 330.6011657714844
0, 7, 37, 324.4122009277344
0, 7, 38, 297.7170715332031
0, 7, 39, 306.3575134277344
0, 7, 40, 290.385009765625
0, 7, 41, 271.7559814453125
0, 7, 42, 301.3132019042969
0, 7, 43, 273.4275817871094
0, 7, 44, 302.9012145996094
0, 7, 45, 294.6251220703125
0, 7, 46, 280.6416931152344
0, 7, 47, 330.2525024414062
0, 7, 48, 288.2829284667969
0, 7, 49, 302.6961059570312
0, 7, 50, 321.9685974121094
0, 7, 51, 298.9330444335938
0, 7, 52, 326.3201599121094
0, 7, 53, 311.5380249023438
0, 7, 54, 322.4333801269531
0, 7, 55, 306.0057373046875
0, 7, 56, 279.6952209472656
0, 7, 57, 283.08251953125
0, 7, 58, 295.1275024414062
0, 7, 59, 296.8297119140625
0, 7, 60, 321.8334045410156
0, 7, 61, 277.0585327148438
0, 7, 62, 296.9551391601562
0, 7, 63, 294.2181091308594
0, 7, 64, 305.1419067382812
0, 7, 65, 332.9025268554688
0, 7, 66, 316.6511535644531
0, 7, 67, 302.58154296875
0, 7, 68, 280.1468505859375
0, 7, 69, 293.2677612304688
0, 7, 70, 300.7457580566406
0, 7, 71, 309.6531677246094
0, 7, 72, 284.8221130371094
0, 7, 73, 296.1439819335938
0, 7, 74, 343.6661376953125
0, 7, 75, 320.7575378417969
0, 7, 76, 322.8721618652344
0, 7, 77, 281.2137451171875
0, 7, 78, 299.0848388671875
0, 7, 79, 297.703369140625
0, 7, 80, 312.4633483886719
0, 7, 81, 319.85986328125
0, 7, 82, 329.6788024902344
0, 7, 83, 318.9830932617188
0, 7, 84, 310.5307922363281
0, 7, 85, 272.3033447265625
0, 7, 86, 310.9055786132812
0, 7, 87, 310.0595092773438
0, 7, 88, 307.8374938964844
0, 7, 89, 294.5712585449219
0, 7, 90, 305.6649780273438
0, 7, 91, 314.7447814941406
0, 7, 92, 287.3039855957031
0, 7, 93, 307.3624877929688
0, 7, 94, 273.2615356445312
0, 7, 95, 294.7092895507812
0, 7, 96, 330.7690124511719
0, 7, 97, 293.3590698242188
0, 7, 98, 291.710693359375
0, 7, 99, 313.1370239257812
0, 7, 100, 280.6592712402344
0, 7, 101, 275.0146179199219
0, 7, 102, 288.6499938964844
0, 7, 103, 293.0558776855469
0, 7, 104, 275.8616638183594
0, 7, 105, 305.6678771972656
0, 7, 106, 318.9336853027344
0, 7, 107, 296.3117980957031
0, 7, 108, 274.1848754882812
0, 7, 109, 236.8036804199219
0, 7, 110, 95.51613616943359
0, 7, 111, 23.68560600280762
0, 7, 112, 12.51940059661865
0, 7, 113, 14.91200733184814
0, 7, 114, 15.39775848388672
0, 7, 115, 12.16641902923584
0, 7, 116, 9.268811225891113
0, 7, 117, 6.829887390136719
0, 7, 118, 8.040785789489746
0, 7, 119, 9.326817512512207
0, 7, 120, 5.318830966949463
0, 7, 121, 7.149881362915039
0, 7, 122, 8.523788452148438
0, 7, 123, 5.664486885070801
0, 7, 124, 3.084067583084106
0, 7, 125, 6.721383094787598
0, 7, 126, 9.200657844543457
0, 7, 127, 2.03361964225769
0, 8, 0, 5.940623760223389
0, 8, 1, 3.163680553436279
0, 8, 2, 4.036308288574219
0, 8, 3, 3.229156732559204
0, 8, 4, 3.47357964515686
0, 8, 5, 4.664968490600586
0, 8, 6, 5.993826389312744
0, 8, 7, 6.47402286529541
0, 8, 8, 10.661865234375
0, 8, 9, 5.749509334564209
0, 8, 10, 8.911443710327148
0, 8, 11, 10.13412284851074
0, 8, 12, 11.94229888916016
0, 8, 13, 18.51944732666016
0, 8, 14, 11.66105937957764
0, 8, 15, 19.76186943054199
0, 8, 16, 31.65044212341309
0, 8, 17, 131.1944274902344
0, 8, 18, 242.5562133789062
0, 8, 19, 293.8727111816406
0, 8, 20, 285.2494201660156
0, 8, 21, 306.4903564453125
0, 8, 22, 297.3752136230469
0, 8, 23, 275.1867065429688
0, 8, 24, 270.0653991699219
0, 8, 25, 276.5511779785156
0, 8, 26, 306.2381896972656
0, 8, 27, 308.590576171875
0, 8, 28, 304.1011657714844
0, 8, 29, 322.0225524902344
0, 8, 30, 313.9769287109375
0, 8, 31, 302.8048706054688
0, 8, 32, 280.3475036621094
0, 8, 33, 293.5170593261719
0, 8, 34, 288.4959106445312
0, 8, 35, 280.7260131835938
0, 8, 36, 314.8548583984375
0, 8, 37, 337.9942016601562
0, 8, 38, 332.6235046386719
0, 8, 39, 281.8209533691406
