# TOPAS Version: 3.1.p3
# Parameter File: batch_inserts_30.txt
# Results for scorer Readout_Adipose
# Scored in component: MyBox
# X in 1 bin  of 0.75 cm
# Y in 512 bins of 0.0783984 cm
# Z in 128 bins of 0.078125 cm
# EnergyDeposit ( MeV ) : Sum   
0, 0, 0, 3.815651655197144
0, 0, 1, 1.126854181289673
0, 0, 2, 5.372500419616699
0, 0, 3, 2.356210708618164
0, 0, 4, 3.096504211425781
0, 0, 5, 2.161519527435303
0, 0, 6, 5.866975784301758
0, 0, 7, 9.896512031555176
0, 0, 8, 2.797543048858643
0, 0, 9, 3.359778642654419
0, 0, 10, 6.386104583740234
0, 0, 11, 4.824194431304932
0, 0, 12, 5.033176422119141
0, 0, 13, 6.38990306854248
0, 0, 14, 7.650645732879639
0, 0, 15, 11.42433071136475
0, 0, 16, 9.366947174072266
0, 0, 17, 9.353402137756348
0, 0, 18, 16.07039642333984
0, 0, 19, 42.51966857910156
0, 0, 20, 139.5224914550781
0, 0, 21, 225.3248138427734
0, 0, 22, 249.558349609375
0, 0, 23, 256.2734069824219
0, 0, 24, 251.6580352783203
0, 0, 25, 257.0535583496094
0, 0, 26, 236.4660034179688
0, 0, 27, 236.2943115234375
0, 0, 28, 271.6450805664062
0, 0, 29, 252.0331573486328
0, 0, 30, 229.3385162353516
0, 0, 31, 244.2786407470703
0, 0, 32, 264.4935302734375
0, 0, 33, 261.5073547363281
0, 0, 34, 287.0498046875
0, 0, 35, 267.2939758300781
0, 0, 36, 246.0090942382812
0, 0, 37, 252.0812225341797
0, 0, 38, 269.3148803710938
0, 0, 39, 229.7116851806641
0, 0, 40, 242.2696685791016
0, 0, 41, 267.5184020996094
0, 0, 42, 231.1107482910156
0, 0, 43, 262.5271606445312
0, 0, 44, 250.8701324462891
0, 0, 45, 253.3855438232422
0, 0, 46, 246.1150665283203
0, 0, 47, 252.1558837890625
0, 0, 48, 266.5452270507812
0, 0, 49, 273.4683227539062
0, 0, 50, 251.5062408447266
0, 0, 51, 252.8499298095703
0, 0, 52, 275.9410705566406
0, 0, 53, 291.5284118652344
0, 0, 54, 242.8648529052734
0, 0, 55, 241.2207183837891
0, 0, 56, 277.8963012695312
0, 0, 57, 263.8393859863281
0, 0, 58, 246.0214538574219
0, 0, 59, 273.290771484375
0, 0, 60, 235.7876281738281
0, 0, 61, 245.0934295654297
0, 0, 62, 257.918701171875
0, 0, 63, 266.6555480957031
0, 0, 64, 257.1990356445312
0, 0, 65, 260.1886291503906
0, 0, 66, 277.7361450195312
0, 0, 67, 246.6618194580078
0, 0, 68, 258.6004333496094
0, 0, 69, 262.8529663085938
0, 0, 70, 271.4488830566406
0, 0, 71, 237.5480041503906
0, 0, 72, 250.6317291259766
0, 0, 73, 258.0932006835938
0, 0, 74, 252.6270141601562
0, 0, 75, 240.7460632324219
0, 0, 76, 229.6264801025391
0, 0, 77, 260.7147521972656
0, 0, 78, 257.7008666992188
0, 0, 79, 278.8486633300781
0, 0, 80, 217.9435577392578
0, 0, 81, 266.92236328125
0, 0, 82, 257.4631652832031
0, 0, 83, 244.7538299560547
0, 0, 84, 270.0256652832031
0, 0, 85, 231.2045593261719
0, 0, 86, 252.7426910400391
0, 0, 87, 250.8339538574219
0, 0, 88, 257.8231811523438
0, 0, 89, 283.578369140625
0, 0, 90, 243.0977630615234
0, 0, 91, 280.9135437011719
0, 0, 92, 252.499755859375
0, 0, 93, 251.0316162109375
0, 0, 94, 247.7069549560547
0, 0, 95, 248.9742736816406
0, 0, 96, 277.5566101074219
0, 0, 97, 272.1036376953125
0, 0, 98, 273.6153564453125
0, 0, 99, 258.7101135253906
0, 0, 100, 256.8712158203125
0, 0, 101, 224.5893402099609
0, 0, 102, 233.1468200683594
0, 0, 103, 271.6259460449219
0, 0, 104, 253.2400360107422
0, 0, 105, 251.2423095703125
0, 0, 106, 246.0309295654297
0, 0, 107, 152.684326171875
0, 0, 108, 40.50701904296875
0, 0, 109, 14.05932903289795
0, 0, 110, 12.66246700286865
0, 0, 111, 8.244966506958008
0, 0, 112, 10.28839683532715
0, 0, 113, 7.346061706542969
0, 0, 114, 6.490589618682861
0, 0, 115, 4.328233242034912
0, 0, 116, 9.731533050537109
0, 0, 117, 7.459048748016357
0, 0, 118, 6.649645805358887
0, 0, 119, 3.824991226196289
0, 0, 120, 2.617486476898193
0, 0, 121, 5.502328872680664
0, 0, 122, 4.633551597595215
0, 0, 123, 3.058976650238037
0, 0, 124, 6.075802803039551
0, 0, 125, 3.836931228637695
0, 0, 126, 5.209444522857666
0, 0, 127, 2.182632684707642
0, 1, 0, 6.047796249389648
0, 1, 1, 2.833641529083252
0, 1, 2, 3.594996929168701
0, 1, 3, 0.9685640335083008
0, 1, 4, 3.510848045349121
0, 1, 5, 2.891870260238647
0, 1, 6, 5.961944580078125
0, 1, 7, 4.034768581390381
0, 1, 8, 6.362956523895264
0, 1, 9, 4.633906841278076
0, 1, 10, 7.678157806396484
0, 1, 11, 12.23608779907227
0, 1, 12, 8.825647354125977
0, 1, 13, 11.11643695831299
0, 1, 14, 7.716444492340088
0, 1, 15, 7.203965663909912
0, 1, 16, 11.55994606018066
0, 1, 17, 12.54918956756592
0, 1, 18, 19.27510452270508
0, 1, 19, 66.53793334960938
0, 1, 20, 199.1178588867188
0, 1, 21, 254.2444610595703
0, 1, 22, 296.1159973144531
0, 1, 23, 283.3221435546875
0, 1, 24, 276.1058959960938
0, 1, 25, 287.2337036132812
0, 1, 26, 268.6717224121094
0, 1, 27, 307.176025390625
0, 1, 28, 302.2979736328125
0, 1, 29, 296.4307250976562
0, 1, 30, 280.9439086914062
0, 1, 31, 291.1823425292969
0, 1, 32, 290.0809936523438
0, 1, 33, 296.5140991210938
0, 1, 34, 292.8609619140625
0, 1, 35, 278.3993530273438
0, 1, 36, 307.1470947265625
0, 1, 37, 293.9963073730469
0, 1, 38, 278.9061279296875
0, 1, 39, 294.8345336914062
0, 1, 40, 265.9610595703125
0, 1, 41, 286.4918518066406
0, 1, 42, 288.7578430175781
0, 1, 43, 332.1816711425781
0, 1, 44, 278.516845703125
0, 1, 45, 292.0738220214844
0, 1, 46, 259.0849304199219
0, 1, 47, 311.4359436035156
0, 1, 48, 286.2493591308594
0, 1, 49, 304.6441345214844
0, 1, 50, 263.0889587402344
0, 1, 51, 271.1390380859375
0, 1, 52, 296.9896545410156
0, 1, 53, 303.9447937011719
0, 1, 54, 275.6752014160156
0, 1, 55, 292.9897155761719
0, 1, 56, 279.6597290039062
0, 1, 57, 297.8367614746094
0, 1, 58, 309.0408325195312
0, 1, 59, 294.0475769042969
0, 1, 60, 299.7939758300781
0, 1, 61, 275.8251342773438
0, 1, 62, 309.3359069824219
0, 1, 63, 287.1898498535156
0, 1, 64, 289.7125244140625
0, 1, 65, 293.6036987304688
0, 1, 66, 293.9874267578125
0, 1, 67, 293.0794677734375
0, 1, 68, 277.4778442382812
0, 1, 69, 281.3363037109375
0, 1, 70, 270.8043823242188
0, 1, 71, 276.6956787109375
0, 1, 72, 286.6546325683594
0, 1, 73, 305.6171264648438
0, 1, 74, 307.1251831054688
0, 1, 75, 295.9024963378906
0, 1, 76, 285.3021240234375
0, 1, 77, 288.6801452636719
0, 1, 78, 296.61181640625
0, 1, 79, 299.1428833007812
0, 1, 80, 294.1161193847656
0, 1, 81, 301.6398620605469
0, 1, 82, 285.2810974121094
0, 1, 83, 333.0881958007812
0, 1, 84, 310.9075317382812
0, 1, 85, 254.3819885253906
0, 1, 86, 294.0057067871094
0, 1, 87, 289.7262878417969
0, 1, 88, 300.0632019042969
0, 1, 89, 291.1563110351562
0, 1, 90, 269.2175598144531
0, 1, 91, 318.090087890625
0, 1, 92, 291.5203857421875
0, 1, 93, 285.3653564453125
0, 1, 94, 302.5166931152344
0, 1, 95, 284.1036987304688
0, 1, 96, 282.1997375488281
0, 1, 97, 299.37158203125
0, 1, 98, 276.1300048828125
0, 1, 99, 266.2732238769531
0, 1, 100, 275.6845703125
0, 1, 101, 282.5545043945312
0, 1, 102, 281.4408569335938
0, 1, 103, 281.9821166992188
0, 1, 104, 305.2299194335938
0, 1, 105, 296.9527893066406
0, 1, 106, 259.7798767089844
0, 1, 107, 193.9409027099609
0, 1, 108, 82.89988708496094
0, 1, 109, 23.33030700683594
0, 1, 110, 11.29436016082764
0, 1, 111, 7.856693267822266
0, 1, 112, 13.38240337371826
0, 1, 113, 4.950809478759766
0, 1, 114, 7.070204734802246
0, 1, 115, 6.843888759613037
0, 1, 116, 11.55490303039551
0, 1, 117, 9.092577934265137
0, 1, 118, 5.080255508422852
0, 1, 119, 6.403613090515137
0, 1, 120, 6.542171478271484
0, 1, 121, 7.20900821685791
0, 1, 122, 3.622110366821289
0, 1, 123, 4.345822334289551
0, 1, 124, 8.909342765808105
0, 1, 125, 5.729653358459473
0, 1, 126, 3.898086309432983
0, 1, 127, 1.226892352104187
0, 2, 0, 4.476181507110596
0, 2, 1, 2.787136077880859
0, 2, 2, 2.773560523986816
0, 2, 3, 5.142214775085449
0, 2, 4, 2.612709999084473
0, 2, 5, 2.388605356216431
0, 2, 6, 2.876627683639526
0, 2, 7, 3.253729820251465
0, 2, 8, 5.67491626739502
0, 2, 9, 9.598123550415039
0, 2, 10, 9.415892601013184
0, 2, 11, 6.397873401641846
0, 2, 12, 7.800756931304932
0, 2, 13, 9.635845184326172
0, 2, 14, 9.20623779296875
0, 2, 15, 8.147082328796387
0, 2, 16, 9.035024642944336
0, 2, 17, 16.98983955383301
0, 2, 18, 32.08381652832031
0, 2, 19, 116.7801284790039
0, 2, 20, 247.734130859375
0, 2, 21, 272.7036743164062
0, 2, 22, 315.5103149414062
0, 2, 23, 300.9476013183594
0, 2, 24, 285.8251037597656
0, 2, 25, 302.0516357421875
0, 2, 26, 291.2899475097656
0, 2, 27, 275.4214172363281
0, 2, 28, 274.4605712890625
0, 2, 29, 273.9708862304688
0, 2, 30, 293.3563232421875
0, 2, 31, 278.3621520996094
0, 2, 32, 293.4964599609375
0, 2, 33, 281.4708557128906
0, 2, 34, 336.6412963867188
0, 2, 35, 290.903564453125
0, 2, 36, 302.437744140625
0, 2, 37, 315.210205078125
0, 2, 38, 309.7330932617188
0, 2, 39, 265.7157287597656
0, 2, 40, 305.7001342773438
0, 2, 41, 291.6228332519531
0, 2, 42, 303.7191162109375
0, 2, 43, 312.4208374023438
0, 2, 44, 310.2767333984375
0, 2, 45, 324.1552429199219
0, 2, 46, 286.018798828125
0, 2, 47, 303.7076416015625
0, 2, 48, 280.5157470703125
0, 2, 49, 279.1712646484375
0, 2, 50, 295.54443359375
0, 2, 51, 284.2707824707031
0, 2, 52, 272.3461303710938
0, 2, 53, 287.1385192871094
0, 2, 54, 280.5321350097656
0, 2, 55, 277.3915405273438
0, 2, 56, 301.4935607910156
0, 2, 57, 291.4271850585938
0, 2, 58, 302.3037719726562
0, 2, 59, 289.2087097167969
0, 2, 60, 320.0628356933594
0, 2, 61, 302.8900146484375
0, 2, 62, 314.4863891601562
0, 2, 63, 303.337158203125
0, 2, 64, 295.8134155273438
0, 2, 65, 314.7543029785156
0, 2, 66, 278.6988220214844
0, 2, 67, 290.9504699707031
0, 2, 68, 295.8090209960938
0, 2, 69, 310.819091796875
0, 2, 70, 334.0982360839844
0, 2, 71, 284.5955200195312
0, 2, 72, 301.9087524414062
0, 2, 73, 311.6214599609375
0, 2, 74, 284.7997131347656
0, 2, 75, 306.4849548339844
0, 2, 76, 287.0309753417969
0, 2, 77, 298.5498962402344
0, 2, 78, 314.024169921875
0, 2, 79, 313.0103149414062
0, 2, 80, 299.8013610839844
0, 2, 81, 280.9235229492188
0, 2, 82, 317.2869262695312
0, 2, 83, 312.4075317382812
0, 2, 84, 289.0805969238281
0, 2, 85, 282.2534484863281
0, 2, 86, 323.7621765136719
0, 2, 87, 286.3637390136719
0, 2, 88, 285.4368286132812
0, 2, 89, 295.9276123046875
0, 2, 90, 296.8647766113281
0, 2, 91, 274.8782653808594
0, 2, 92, 304.1261596679688
0, 2, 93, 315.8017883300781
0, 2, 94, 290.3233337402344
0, 2, 95, 314.1874694824219
0, 2, 96, 314.176513671875
0, 2, 97, 292.0833740234375
0, 2, 98, 293.9102783203125
0, 2, 99, 273.2848510742188
0, 2, 100, 306.6431274414062
0, 2, 101, 302.3607482910156
0, 2, 102, 294.8371887207031
0, 2, 103, 292.026611328125
0, 2, 104, 292.2110595703125
0, 2, 105, 274.2194519042969
0, 2, 106, 297.4891662597656
0, 2, 107, 269.0185546875
0, 2, 108, 117.0557098388672
0, 2, 109, 31.88520050048828
0, 2, 110, 9.236553192138672
0, 2, 111, 10.49324226379395
0, 2, 112, 8.118060111999512
0, 2, 113, 12.22119617462158
0, 2, 114, 12.00657749176025
0, 2, 115, 11.31397724151611
0, 2, 116, 11.48293590545654
0, 2, 117, 5.59298038482666
0, 2, 118, 2.677586793899536
0, 2, 119, 4.08204460144043
0, 2, 120, 4.333155155181885
0, 2, 121, 1.477985024452209
0, 2, 122, 3.263310432434082
0, 2, 123, 4.65105676651001
0, 2, 124, 2.881577491760254
0, 2, 125, 4.449246406555176
0, 2, 126, 3.670531749725342
0, 2, 127, 3.59970498085022
0, 3, 0, 3.768248558044434
0, 3, 1, 3.842963218688965
0, 3, 2, 3.191037893295288
0, 3, 3, 2.129583358764648
0, 3, 4, 3.756695508956909
0, 3, 5, 7.36968994140625
0, 3, 6, 6.360029220581055
0, 3, 7, 4.765317440032959
0, 3, 8, 6.096460819244385
0, 3, 9, 5.08277702331543
0, 3, 10, 6.577136516571045
0, 3, 11, 3.717467069625854
0, 3, 12, 6.282722473144531
0, 3, 13, 16.51577377319336
0, 3, 14, 13.15034866333008
0, 3, 15, 14.6204252243042
0, 3, 16, 11.17615127563477
0, 3, 17, 19.75799942016602
0, 3, 18, 52.01422500610352
0, 3, 19, 178.0771331787109
0, 3, 20, 271.1493225097656
0, 3, 21, 269.8568725585938
0, 3, 22, 280.8369445800781
0, 3, 23, 287.1467590332031
0, 3, 24, 286.0585327148438
0, 3, 25, 269.3255004882812
0, 3, 26, 305.0362854003906
0, 3, 27, 293.3201599121094
0, 3, 28, 279.8514709472656
0, 3, 29, 341.5866088867188
0, 3, 30, 316.8547668457031
0, 3, 31, 284.8190002441406
0, 3, 32, 307.4103393554688
0, 3, 33, 315.5574951171875
0, 3, 34, 326.5876159667969
0, 3, 35, 306.8231506347656
0, 3, 36, 268.3408813476562
0, 3, 37, 314.620849609375
0, 3, 38, 304.111083984375
0, 3, 39, 288.7589416503906
0, 3, 40, 266.7677917480469
0, 3, 41, 301.2656555175781
0, 3, 42, 287.8267211914062
0, 3, 43, 304.3566284179688
0, 3, 44, 312.3938903808594
0, 3, 45, 290.20068359375
0, 3, 46, 329.4435119628906
0, 3, 47, 298.9723815917969
0, 3, 48, 303.41943359375
0, 3, 49, 275.5550842285156
0, 3, 50, 290.1161499023438
0, 3, 51, 277.3933410644531
0, 3, 52, 314.9501342773438
0, 3, 53, 287.6039123535156
0, 3, 54, 285.1427307128906
0, 3, 55, 282.6110229492188
0, 3, 56, 298.5362854003906
0, 3, 57, 289.1318359375
0, 3, 58, 306.1173706054688
0, 3, 59, 296.3743591308594
0, 3, 60, 297.0661926269531
0, 3, 61, 266.2843627929688
0, 3, 62, 285.1351318359375
0, 3, 63, 309.8131408691406
0, 3, 64, 319.0658264160156
0, 3, 65, 306.06689453125
0, 3, 66, 315.1585998535156
0, 3, 67, 319.2507629394531
0, 3, 68, 280.4134521484375
0, 3, 69, 282.1987915039062
0, 3, 70, 291.3473205566406
0, 3, 71, 299.9362487792969
0, 3, 72, 270.3837890625
0, 3, 73, 307.7867431640625
0, 3, 74, 291.2243347167969
0, 3, 75, 290.638671875
0, 3, 76, 307.3427734375
0, 3, 77, 312.942626953125
0, 3, 78, 304.6318054199219
0, 3, 79, 282.1852722167969
0, 3, 80, 291.8488464355469
0, 3, 81, 311.0439758300781
0, 3, 82, 316.3312072753906
0, 3, 83, 300.5755615234375
0, 3, 84, 314.4703063964844
0, 3, 85, 294.0953369140625
0, 3, 86, 301.1832275390625
0, 3, 87, 298.6172180175781
0, 3, 88, 300.4550170898438
0, 3, 89, 297.6154174804688
0, 3, 90, 275.210693359375
0, 3, 91, 282.9163818359375
0, 3, 92, 304.991455078125
0, 3, 93, 313.5294189453125
0, 3, 94, 297.7403869628906
0, 3, 95, 335.1419982910156
0, 3, 96, 290.8729553222656
0, 3, 97, 282.6720275878906
0, 3, 98, 280.0740356445312
0, 3, 99, 261.8516845703125
0, 3, 100, 283.7330627441406
0, 3, 101, 298.2743835449219
0, 3, 102, 277.0958251953125
0, 3, 103, 319.0860900878906
0, 3, 104, 308.3509216308594
0, 3, 105, 287.8044738769531
0, 3, 106, 304.168701171875
0, 3, 107, 283.9109497070312
0, 3, 108, 166.0709838867188
0, 3, 109, 57.50024795532227
0, 3, 110, 17.16105079650879
0, 3, 111, 12.12051296234131
0, 3, 112, 12.42667007446289
0, 3, 113, 6.185815811157227
0, 3, 114, 9.435427665710449
0, 3, 115, 8.900631904602051
0, 3, 116, 6.72249698638916
0, 3, 117, 8.141493797302246
0, 3, 118, 6.878753662109375
0, 3, 119, 7.6474289894104
0, 3, 120, 5.860349655151367
0, 3, 121, 4.538718700408936
0, 3, 122, 3.956109285354614
0, 3, 123, 6.334161281585693
0, 3, 124, 2.136723041534424
0, 3, 125, 7.790698528289795
0, 3, 126, 4.867990970611572
0, 3, 127, 3.150114059448242
0, 4, 0, 2.165036201477051
0, 4, 1, 5.889530181884766
0, 4, 2, 2.590589761734009
0, 4, 3, 1.449374318122864
0, 4, 4, 5.492206573486328
0, 4, 5, 7.721671581268311
0, 4, 6, 6.751743793487549
0, 4, 7, 6.181798934936523
0, 4, 8, 4.762343883514404
0, 4, 9, 6.152962207794189
0, 4, 10, 5.812670230865479
0, 4, 11, 7.475450038909912
0, 4, 12, 6.923906803131104
0, 4, 13, 9.517246246337891
0, 4, 14, 10.12920570373535
0, 4, 15, 10.47685813903809
0, 4, 16, 13.38028526306152
0, 4, 17, 17.82287406921387
0, 4, 18, 93.93044281005859
0, 4, 19, 221.0326538085938
0, 4, 20, 282.7640686035156
0, 4, 21, 271.4391479492188
0, 4, 22, 304.6129455566406
0, 4, 23, 267.1947631835938
0, 4, 24, 288.5475158691406
0, 4, 25, 273.2014770507812
0, 4, 26, 294.307373046875
0, 4, 27, 282.8115234375
0, 4, 28, 307.2727966308594
0, 4, 29, 322.6017150878906
0, 4, 30, 309.1565246582031
0, 4, 31, 304.1435852050781
0, 4, 32, 281.7001647949219
0, 4, 33, 296.1334533691406
0, 4, 34, 297.3970336914062
0, 4, 35, 313.029541015625
0, 4, 36, 294.8854370117188
0, 4, 37, 289.0966491699219
0, 4, 38, 298.4529418945312
0, 4, 39, 296.6235046386719
0, 4, 40, 304.3316345214844
0, 4, 41, 311.8779907226562
0, 4, 42, 328.3795471191406
0, 4, 43, 294.9667053222656
0, 4, 44, 325.4309387207031
0, 4, 45, 327.8707885742188
0, 4, 46, 307.6410522460938
0, 4, 47, 292.9327392578125
0, 4, 48, 297.0560302734375
0, 4, 49, 276.7577819824219
0, 4, 50, 295.9713439941406
0, 4, 51, 316.0335693359375
0, 4, 52, 328.8648986816406
0, 4, 53, 303.5212097167969
0, 4, 54, 288.4898376464844
0, 4, 55, 314.306396484375
0, 4, 56, 285.3385314941406
0, 4, 57, 310.4126892089844
0, 4, 58, 296.8735961914062
0, 4, 59, 310.0442810058594
0, 4, 60, 303.1916809082031
0, 4, 61, 315.2720947265625
0, 4, 62, 309.2574157714844
0, 4, 63, 300.6640319824219
0, 4, 64, 328.7979125976562
0, 4, 65, 317.0330810546875
0, 4, 66, 294.5423583984375
0, 4, 67, 284.3480224609375
0, 4, 68, 312.8997802734375
0, 4, 69, 276.6988220214844
0, 4, 70, 299.5812377929688
0, 4, 71, 320.3289489746094
0, 4, 72, 330.7060241699219
0, 4, 73, 298.8578186035156
0, 4, 74, 292.3037109375
0, 4, 75, 288.6458129882812
0, 4, 76, 276.0987854003906
0, 4, 77, 278.5122985839844
0, 4, 78, 312.1662292480469
0, 4, 79, 318.0509338378906
0, 4, 80, 314.7997741699219
0, 4, 81, 312.7984924316406
0, 4, 82, 298.1744995117188
0, 4, 83, 301.6099548339844
0, 4, 84, 289.7191162109375
0, 4, 85, 295.1458435058594
0, 4, 86, 297.4641723632812
0, 4, 87, 285.8069458007812
0, 4, 88, 305.4846801757812
0, 4, 89, 293.9829711914062
0, 4, 90, 332.3274230957031
0, 4, 91, 302.2725524902344
0, 4, 92, 290.5246887207031
0, 4, 93, 299.9571533203125
0, 4, 94, 293.8487243652344
0, 4, 95, 289.4994812011719
0, 4, 96, 324.4540710449219
0, 4, 97, 273.8714904785156
0, 4, 98, 326.5462036132812
0, 4, 99, 313.56005859375
0, 4, 100, 301.1748352050781
0, 4, 101, 257.5647888183594
0, 4, 102, 296.6488952636719
0, 4, 103, 318.0581970214844
0, 4, 104, 282.4186706542969
0, 4, 105, 311.5409240722656
0, 4, 106, 286.9353637695312
0, 4, 107, 294.5420837402344
0, 4, 108, 228.0542602539062
0, 4, 109, 79.94026947021484
0, 4, 110, 16.47900009155273
0, 4, 111, 13.16378116607666
0, 4, 112, 7.537518501281738
0, 4, 113, 9.589201927185059
0, 4, 114, 8.836132049560547
0, 4, 115, 9.400373458862305
0, 4, 116, 9.320901870727539
0, 4, 117, 6.620888233184814
0, 4, 118, 10.91869831085205
0, 4, 119, 9.941566467285156
0, 4, 120, 3.917828559875488
0, 4, 121, 5.219586849212646
0, 4, 122, 5.485840797424316
0, 4, 123, 7.969146728515625
0, 4, 124, 5.201621532440186
0, 4, 125, 11.83856391906738
0, 4, 126, 4.586527347564697
0, 4, 127, 4.065828323364258
0, 5, 0, 4.898880004882812
0, 5, 1, 3.566395044326782
0, 5, 2, 4.731433868408203
0, 5, 3, 4.141105651855469
0, 5, 4, 5.023627281188965
0, 5, 5, 5.748992919921875
0, 5, 6, 7.805129528045654
0, 5, 7, 5.627233982086182
0, 5, 8, 3.700923681259155
0, 5, 9, 4.768421173095703
0, 5, 10, 7.611721992492676
0, 5, 11, 8.083022117614746
0, 5, 12, 8.779899597167969
0, 5, 13, 4.356486320495605
0, 5, 14, 12.98563098907471
0, 5, 15, 19.14716911315918
0, 5, 16, 13.69299411773682
0, 5, 17, 28.71743774414062
0, 5, 18, 138.4182281494141
0, 5, 19, 287.970947265625
0, 5, 20, 306.0116577148438
0, 5, 21, 316.5618591308594
0, 5, 22, 275.3599853515625
0, 5, 23, 310.3517456054688
0, 5, 24, 304.188720703125
0, 5, 25, 290.0032653808594
0, 5, 26, 294.3276062011719
0, 5, 27, 320.4209289550781
0, 5, 28, 302.0552368164062
0, 5, 29, 296.3935241699219
0, 5, 30, 323.0773620605469
0, 5, 31, 291.3172607421875
0, 5, 32, 303.9923095703125
0, 5, 33, 304.5089111328125
0, 5, 34, 295.5322875976562
0, 5, 35, 309.8322448730469
0, 5, 36, 268.6110229492188
0, 5, 37, 282.6097106933594
0, 5, 38, 292.5654602050781
0, 5, 39, 311.2585144042969
0, 5, 40, 306.7662658691406
0, 5, 41, 274.2467346191406
0, 5, 42, 304.9712829589844
0, 5, 43, 314.4648132324219
0, 5, 44, 293.898193359375
0, 5, 45, 301.8962097167969
0, 5, 46, 266.2471923828125
0, 5, 47, 280.6361999511719
0, 5, 48, 291.6661071777344
0, 5, 49, 284.8841857910156
0, 5, 50, 294.3204956054688
0, 5, 51, 278.059814453125
0, 5, 52, 268.9796142578125
0, 5, 53, 284.3893432617188
0, 5, 54, 290.2926635742188
0, 5, 55, 344.46826171875
0, 5, 56, 306.8550415039062
0, 5, 57, 306.5875854492188
0, 5, 58, 313.5061950683594
0, 5, 59, 303.9107055664062
0, 5, 60, 308.0025024414062
0, 5, 61, 281.8522644042969
0, 5, 62, 322.4879760742188
0, 5, 63, 290.1733093261719
0, 5, 64, 322.9664306640625
0, 5, 65, 305.6809387207031
0, 5, 66, 324.6291198730469
0, 5, 67, 310.913330078125
0, 5, 68, 308.0282592773438
0, 5, 69, 312.5357971191406
0, 5, 70, 300.3199157714844
0, 5, 71, 271.7628173828125
0, 5, 72, 310.62890625
0, 5, 73, 305.1717834472656
0, 5, 74, 295.2577514648438
0, 5, 75, 295.2427062988281
0, 5, 76, 286.1712036132812
0, 5, 77, 299.3027648925781
0, 5, 78, 313.3510131835938
0, 5, 79, 308.8974304199219
0, 5, 80, 295.2184448242188
0, 5, 81, 325.552490234375
0, 5, 82, 324.3438415527344
0, 5, 83, 281.029296875
0, 5, 84, 301.3777770996094
0, 5, 85, 271.6224670410156
0, 5, 86, 325.2289123535156
0, 5, 87, 283.3624877929688
0, 5, 88, 313.2371826171875
0, 5, 89, 306.1197814941406
0, 5, 90, 315.3892822265625
0, 5, 91, 312.6691589355469
0, 5, 92, 295.2448425292969
0, 5, 93, 324.5523986816406
0, 5, 94, 312.2701416015625
0, 5, 95, 298.0479125976562
0, 5, 96, 296.4422302246094
0, 5, 97, 297.9125061035156
0, 5, 98, 319.0409851074219
0, 5, 99, 301.8288269042969
0, 5, 100, 290.1036071777344
0, 5, 101, 305.7513122558594
0, 5, 102, 292.9645385742188
0, 5, 103, 313.8684997558594
0, 5, 104, 301.70654296875
0, 5, 105, 294.733154296875
0, 5, 106, 281.2692260742188
0, 5, 107, 293.3585510253906
0, 5, 108, 265.0895080566406
0, 5, 109, 159.2952423095703
0, 5, 110, 39.49139785766602
0, 5, 111, 20.79539108276367
0, 5, 112, 14.33843231201172
0, 5, 113, 13.95546913146973
0, 5, 114, 11.56478023529053
0, 5, 115, 7.798838138580322
0, 5, 116, 7.455491542816162
0, 5, 117, 6.17693567276001
0, 5, 118, 12.65512180328369
0, 5, 119, 4.866850852966309
0, 5, 120, 6.536800384521484
0, 5, 121, 5.142637252807617
0, 5, 122, 5.550093173980713
0, 5, 123, 6.24128246307373
0, 5, 124, 5.14091157913208
0, 5, 125, 2.987050771713257
0, 5, 126, 6.823655128479004
0, 5, 127, 4.195647716522217
0, 6, 0, 3.185652732849121
0, 6, 1, 3.687919139862061
0, 6, 2, 5.1579909324646
0, 6, 3, 6.973855972290039
0, 6, 4, 3.25339937210083
0, 6, 5, 5.61493968963623
0, 6, 6, 7.179036140441895
0, 6, 7, 5.198196411132812
0, 6, 8, 7.781674861907959
0, 6, 9, 6.695028305053711
0, 6, 10, 6.8482346534729
0, 6, 11, 10.05727005004883
0, 6, 12, 8.788576126098633
0, 6, 13, 14.15713882446289
0, 6, 14, 8.938291549682617
0, 6, 15, 16.47287750244141
0, 6, 16, 29.00238227844238
0, 6, 17, 54.25057220458984
0, 6, 18, 173.0392608642578
0, 6, 19, 276.2190856933594
0, 6, 20, 292.7598876953125
0, 6, 21, 315.7225341796875
0, 6, 22, 322.06201171875
0, 6, 23, 305.4297485351562
0, 6, 24, 316.1476440429688
0, 6, 25, 315.5586242675781
0, 6, 26, 321.1869812011719
0, 6, 27, 330.8555297851562
0, 6, 28, 295.4573974609375
0, 6, 29, 330.9044494628906
0, 6, 30, 283.025390625
0, 6, 31, 285.6481018066406
0, 6, 32, 339.0615234375
0, 6, 33, 299.4672546386719
0, 6, 34, 339.2578125
0, 6, 35, 319.9119567871094
0, 6, 36, 273.1646118164062
0, 6, 37, 289.7313842773438
0, 6, 38, 311.1582336425781
0, 6, 39, 298.1037292480469
0, 6, 40, 285.3767700195312
0, 6, 41, 294.7120361328125
0, 6, 42, 304.1807861328125
0, 6, 43, 288.9073181152344
0, 6, 44, 280.7301635742188
0, 6, 45, 319.08154296875
0, 6, 46, 300.9502563476562
0, 6, 47, 333.4108581542969
0, 6, 48, 294.1315002441406
0, 6, 49, 311.9704895019531
0, 6, 50, 328.7410278320312
0, 6, 51, 309.8366088867188
0, 6, 52, 321.3272094726562
0, 6, 53, 328.8154907226562
0, 6, 54, 304.4866943359375
0, 6, 55, 304.5789489746094
0, 6, 56, 293.08642578125
0, 6, 57, 314.4588928222656
0, 6, 58, 261.6171875
0, 6, 59, 304.9894409179688
0, 6, 60, 313.6571960449219
0, 6, 61, 270.9560546875
0, 6, 62, 338.2314147949219
0, 6, 63, 324.4407958984375
0, 6, 64, 293.3421936035156
0, 6, 65, 285.1142272949219
0, 6, 66, 305.5477294921875
0, 6, 67, 309.2548828125
0, 6, 68, 292.6883544921875
0, 6, 69, 278.3685913085938
0, 6, 70, 273.9178466796875
0, 6, 71, 288.2976684570312
0, 6, 72, 311.0744323730469
0, 6, 73, 292.3379211425781
0, 6, 74, 329.8905029296875
0, 6, 75, 343.8126831054688
0, 6, 76, 298.8934936523438
0, 6, 77, 287.7779235839844
0, 6, 78, 277.6781921386719
0, 6, 79, 294.7525329589844
0, 6, 80, 302.1312866210938
0, 6, 81, 313.3446960449219
0, 6, 82, 318.9440002441406
0, 6, 83, 319.315185546875
0, 6, 84, 294.4560852050781
0, 6, 85, 300.093505859375
0, 6, 86, 330.171875
0, 6, 87, 291.6658020019531
0, 6, 88, 306.916015625
0, 6, 89, 304.1270751953125
0, 6, 90, 298.6210021972656
0, 6, 91, 312.5736389160156
0, 6, 92, 283.2471313476562
0, 6, 93, 294.3851623535156
0, 6, 94, 272.9651184082031
0, 6, 95, 300.18505859375
0, 6, 96, 346.7207336425781
0, 6, 97, 308.2909240722656
0, 6, 98, 302.49462890625
0, 6, 99, 273.3330383300781
0, 6, 100, 309.3749084472656
0, 6, 101, 293.1542053222656
0, 6, 102, 306.2509765625
0, 6, 103, 309.5097351074219
0, 6, 104, 290.9010314941406
0, 6, 105, 300.0942077636719
0, 6, 106, 306.5775756835938
0, 6, 107, 307.18115234375
0, 6, 108, 267.3255004882812
0, 6, 109, 188.4900054931641
0, 6, 110, 56.48013687133789
0, 6, 111, 22.30188751220703
0, 6, 112, 12.91048717498779
0, 6, 113, 11.19157218933105
0, 6, 114, 12.90431976318359
0, 6, 115, 13.36509990692139
0, 6, 116, 8.239177703857422
0, 6, 117, 10.13436222076416
0, 6, 118, 11.52883625030518
0, 6, 119, 7.188903331756592
0, 6, 120, 6.640605926513672
0, 6, 121, 6.825025081634521
0, 6, 122, 10.63593006134033
0, 6, 123, 3.482948303222656
0, 6, 124, 6.938788414001465
0, 6, 125, 5.770912170410156
0, 6, 126, 3.979659557342529
0, 6, 127, 6.862043857574463
0, 7, 0, 6.780272960662842
0, 7, 1, 3.671476364135742
0, 7, 2, 4.919867992401123
0, 7, 3, 2.409835815429688
0, 7, 4, 2.535454273223877
0, 7, 5, 8.328526496887207
0, 7, 6, 4.751956939697266
0, 7, 7, 5.962136745452881
0, 7, 8, 6.319258689880371
0, 7, 9, 5.890912055969238
0, 7, 10, 10.10769176483154
0, 7, 11, 10.89801216125488
0, 7, 12, 10.84235572814941
0, 7, 13, 11.05761909484863
0, 7, 14, 10.87252235412598
0, 7, 15, 16.33772087097168
0, 7, 16, 25.89630889892578
0, 7, 17, 98.12930297851562
0, 7, 18, 217.8590393066406
0, 7, 19, 291.8433837890625
0, 7, 20, 298.28271484375
0, 7, 21, 276.86474609375
0, 7, 22, 301.0434875488281
0, 7, 23, 288.0938720703125
0, 7, 24, 314.0221862792969
0, 7, 25, 325.5843811035156
0, 7, 26, 278.2214050292969
0, 7, 27, 297.23779296875
0, 7, 28, 329.2512817382812
0, 7, 29, 316.6710205078125
0, 7, 30, 300.8666076660156
0, 7, 31, 281.6488037109375
0, 7, 32, 304.9813232421875
0, 7, 33, 261.9978332519531
0, 7, 34, 299.1921081542969
0, 7, 35, 320.5452575683594
0, 7, 36, 330.8533935546875
0, 7, 37, 321.5417785644531
0, 7, 38, 293.7960815429688
0, 7, 39, 307.3285827636719
0, 7, 40, 288.0570068359375
0, 7, 41, 271.5167541503906
0, 7, 42, 300.4994506835938
0, 7, 43, 275.0307922363281
0, 7, 44, 305.2915954589844
0, 7, 45, 293.47216796875
0, 7, 46, 280.4952392578125
0, 7, 47, 327.4951171875
0, 7, 48, 285.42919921875
0, 7, 49, 302.8909606933594
0, 7, 50, 321.8092956542969
0, 7, 51, 299.7428588867188
0, 7, 52, 329.7114868164062
0, 7, 53, 313.4954833984375
0, 7, 54, 321.6606750488281
0, 7, 55, 307.5646057128906
0, 7, 56, 280.158447265625
0, 7, 57, 281.8057556152344
0, 7, 58, 294.1866149902344
0, 7, 59, 292.5208435058594
0, 7, 60, 321.9826965332031
0, 7, 61, 276.3526000976562
0, 7, 62, 298.2015686035156
0, 7, 63, 292.597900390625
0, 7, 64, 307.9509887695312
0, 7, 65, 331.416015625
0, 7, 66, 318.8256530761719
0, 7, 67, 304.0052185058594
0, 7, 68, 279.4324951171875
0, 7, 69, 295.0691528320312
0, 7, 70, 301.5872497558594
0, 7, 71, 309.5252380371094
0, 7, 72, 283.7708129882812
0, 7, 73, 294.3477478027344
0, 7, 74, 345.1655883789062
0, 7, 75, 325.6782531738281
0, 7, 76, 323.586669921875
0, 7, 77, 278.7686767578125
0, 7, 78, 299.816650390625
0, 7, 79, 296.7013244628906
0, 7, 80, 312.47705078125
0, 7, 81, 318.4592895507812
0, 7, 82, 330.6742248535156
0, 7, 83, 316.6458435058594
0, 7, 84, 309.9815979003906
0, 7, 85, 272.0496520996094
0, 7, 86, 312.343505859375
0, 7, 87, 311.8024291992188
0, 7, 88, 308.2866821289062
0, 7, 89, 292.0842590332031
0, 7, 90, 307.1504211425781
0, 7, 91, 318.4960632324219
0, 7, 92, 288.3191833496094
0, 7, 93, 307.3148193359375
0, 7, 94, 273.0980834960938
0, 7, 95, 298.0305786132812
0, 7, 96, 333.264892578125
0, 7, 97, 295.0469665527344
0, 7, 98, 290.5647888183594
0, 7, 99, 310.7960510253906
0, 7, 100, 283.0025634765625
0, 7, 101, 274.3442687988281
0, 7, 102, 290.0750427246094
0, 7, 103, 292.456787109375
0, 7, 104, 275.7824401855469
0, 7, 105, 307.3843383789062
0, 7, 106, 316.9980773925781
0, 7, 107, 296.218994140625
0, 7, 108, 275.4154052734375
0, 7, 109, 236.4986724853516
0, 7, 110, 98.16510009765625
0, 7, 111, 24.14301300048828
0, 7, 112, 14.70150947570801
0, 7, 113, 14.53728103637695
0, 7, 114, 11.99151039123535
0, 7, 115, 13.16541004180908
0, 7, 116, 9.937381744384766
0, 7, 117, 8.345285415649414
0, 7, 118, 10.54144859313965
0, 7, 119, 4.255889415740967
0, 7, 120, 4.265830516815186
0, 7, 121, 6.592036724090576
0, 7, 122, 7.260536670684814
0, 7, 123, 6.263206005096436
0, 7, 124, 3.199593305587769
0, 7, 125, 6.482838153839111
0, 7, 126, 8.334807395935059
0, 7, 127, 1.218366265296936
0, 8, 0, 2.506223440170288
0, 8, 1, 4.315803050994873
0, 8, 2, 4.642114639282227
0, 8, 3, 2.909082412719727
0, 8, 4, 4.901213645935059
0, 8, 5, 3.353694438934326
0, 8, 6, 5.024174690246582
0, 8, 7, 5.456804275512695
0, 8, 8, 7.020192623138428
0, 8, 9, 4.534376621246338
0, 8, 10, 6.074188232421875
0, 8, 11, 14.98090744018555
0, 8, 12, 15.26123523712158
0, 8, 13, 17.01938247680664
0, 8, 14, 12.94562721252441
0, 8, 15, 17.14908790588379
0, 8, 16, 31.87409591674805
0, 8, 17, 132.0402069091797
0, 8, 18, 244.1574859619141
0, 8, 19, 294.2476806640625
0, 8, 20, 285.2438049316406
0, 8, 21, 307.8171691894531
0, 8, 22, 295.4181518554688
0, 8, 23, 273.9938049316406
0, 8, 24, 268.2911376953125
0, 8, 25, 274.6717834472656
0, 8, 26, 305.9777221679688
0, 8, 27, 306.9677429199219
0, 8, 28, 305.2464599609375
0, 8, 29, 320.5701599121094
0, 8, 30, 314.4784240722656
0, 8, 31, 304.1575012207031
0, 8, 32, 279.0590515136719
0, 8, 33, 296.5322875976562
0, 8, 34, 288.2303771972656
0, 8, 35, 279.1172180175781
0, 8, 36, 317.5044860839844
0, 8, 37, 341.7962036132812
0, 8, 38, 332.7114562988281
0, 8, 39, 281.2228393554688
