# TOPAS Version: 3.1.p3
# Parameter File: batch_inserts_62.txt
# Results for scorer Readout_Adipose
# Scored in component: MyBox
# X in 1 bin  of 0.75 cm
# Y in 512 bins of 0.0783984 cm
# Z in 128 bins of 0.078125 cm
# EnergyDeposit ( MeV ) : Sum   
0, 0, 0, 3.472147703170776
0, 0, 1, 2.629253149032593
0, 0, 2, 5.124288558959961
0, 0, 3, 2.196386337280273
0, 0, 4, 4.434786796569824
0, 0, 5, 4.233846187591553
0, 0, 6, 8.510433197021484
0, 0, 7, 12.45237636566162
0, 0, 8, 4.393517017364502
0, 0, 9, 3.53717827796936
0, 0, 10, 6.376823425292969
0, 0, 11, 4.112349510192871
0, 0, 12, 4.528402805328369
0, 0, 13, 5.389378547668457
0, 0, 14, 7.410090446472168
0, 0, 15, 9.489192008972168
0, 0, 16, 8.484481811523438
0, 0, 17, 7.79809045791626
0, 0, 18, 14.04882335662842
0, 0, 19, 45.8106689453125
0, 0, 20, 138.7283477783203
0, 0, 21, 223.419189453125
0, 0, 22, 248.8340301513672
0, 0, 23, 255.7033843994141
0, 0, 24, 249.941650390625
0, 0, 25, 258.8469848632812
0, 0, 26, 235.6569976806641
0, 0, 27, 238.7962646484375
0, 0, 28, 270.5938415527344
0, 0, 29, 252.0152893066406
0, 0, 30, 229.832763671875
0, 0, 31, 244.3473358154297
0, 0, 32, 263.1160278320312
0, 0, 33, 260.9063110351562
0, 0, 34, 287.1278381347656
0, 0, 35, 267.2053833007812
0, 0, 36, 246.3652038574219
0, 0, 37, 253.4404754638672
0, 0, 38, 267.3250427246094
0, 0, 39, 228.4002838134766
0, 0, 40, 242.1792144775391
0, 0, 41, 267.691162109375
0, 0, 42, 228.3207092285156
0, 0, 43, 261.3110656738281
0, 0, 44, 250.7692565917969
0, 0, 45, 252.5784606933594
0, 0, 46, 243.5887603759766
0, 0, 47, 253.6712188720703
0, 0, 48, 265.5987548828125
0, 0, 49, 272.5505676269531
0, 0, 50, 249.5940856933594
0, 0, 51, 254.7873229980469
0, 0, 52, 272.9242858886719
0, 0, 53, 289.6212463378906
0, 0, 54, 240.9737243652344
0, 0, 55, 239.9812774658203
0, 0, 56, 277.608642578125
0, 0, 57, 265.1540222167969
0, 0, 58, 246.4151763916016
0, 0, 59, 269.9895935058594
0, 0, 60, 235.0411834716797
0, 0, 61, 247.2444610595703
0, 0, 62, 259.4049987792969
0, 0, 63, 266.5862121582031
0, 0, 64, 256.6767578125
0, 0, 65, 262.9532470703125
0, 0, 66, 275.0572509765625
0, 0, 67, 244.140625
0, 0, 68, 257.0403442382812
0, 0, 69, 260.535888671875
0, 0, 70, 272.4190979003906
0, 0, 71, 238.2186431884766
0, 0, 72, 250.6586151123047
0, 0, 73, 258.9444580078125
0, 0, 74, 253.1490936279297
0, 0, 75, 239.8160247802734
0, 0, 76, 230.2281799316406
0, 0, 77, 263.2093505859375
0, 0, 78, 257.98779296875
0, 0, 79, 278.9948120117188
0, 0, 80, 218.6934967041016
0, 0, 81, 268.8977661132812
0, 0, 82, 255.6369171142578
0, 0, 83, 247.6254730224609
0, 0, 84, 270.9436340332031
0, 0, 85, 232.7369537353516
0, 0, 86, 254.0619049072266
0, 0, 87, 250.1588745117188
0, 0, 88, 259.7480163574219
0, 0, 89, 283.6663818359375
0, 0, 90, 243.3863525390625
0, 0, 91, 279.8414611816406
0, 0, 92, 251.5777740478516
0, 0, 93, 249.8117065429688
0, 0, 94, 249.0027008056641
0, 0, 95, 248.6286773681641
0, 0, 96, 273.7046203613281
0, 0, 97, 273.6924743652344
0, 0, 98, 273.0024719238281
0, 0, 99, 259.891845703125
0, 0, 100, 258.8495788574219
0, 0, 101, 226.8800506591797
0, 0, 102, 232.6303100585938
0, 0, 103, 269.3831481933594
0, 0, 104, 253.9948272705078
0, 0, 105, 252.0546264648438
0, 0, 106, 245.3042755126953
0, 0, 107, 153.4939575195312
0, 0, 108, 38.64300918579102
0, 0, 109, 13.18626976013184
0, 0, 110, 12.56921482086182
0, 0, 111, 9.650123596191406
0, 0, 112, 6.46293306350708
0, 0, 113, 5.103743553161621
0, 0, 114, 8.053630828857422
0, 0, 115, 5.27175235748291
0, 0, 116, 5.379409313201904
0, 0, 117, 6.268246173858643
0, 0, 118, 6.405959129333496
0, 0, 119, 4.590700149536133
0, 0, 120, 3.244497060775757
0, 0, 121, 2.950017213821411
0, 0, 122, 4.53444766998291
0, 0, 123, 5.816791534423828
0, 0, 124, 4.240861415863037
0, 0, 125, 2.67534351348877
0, 0, 126, 6.552855491638184
0, 0, 127, 2.622727870941162
0, 1, 0, 8.041078567504883
0, 1, 1, 3.141515016555786
0, 1, 2, 3.992127418518066
0, 1, 3, 3.275575637817383
0, 1, 4, 2.704467058181763
0, 1, 5, 2.178550004959106
0, 1, 6, 6.420439720153809
0, 1, 7, 2.72527813911438
0, 1, 8, 5.173200130462646
0, 1, 9, 4.121723651885986
0, 1, 10, 7.268683433532715
0, 1, 11, 12.00101852416992
0, 1, 12, 8.8170166015625
0, 1, 13, 8.288191795349121
0, 1, 14, 6.946295738220215
0, 1, 15, 7.174968242645264
0, 1, 16, 11.32046890258789
0, 1, 17, 11.41514301300049
0, 1, 18, 20.7973575592041
0, 1, 19, 67.16380310058594
0, 1, 20, 196.7938079833984
0, 1, 21, 255.3199768066406
0, 1, 22, 297.6438293457031
0, 1, 23, 283.5288696289062
0, 1, 24, 274.6344604492188
0, 1, 25, 290.8460693359375
0, 1, 26, 268.14599609375
0, 1, 27, 307.3612976074219
0, 1, 28, 300.7170715332031
0, 1, 29, 297.5682067871094
0, 1, 30, 282.5599060058594
0, 1, 31, 293.9786376953125
0, 1, 32, 290.1083068847656
0, 1, 33, 297.0406188964844
0, 1, 34, 295.5186462402344
0, 1, 35, 279.9477844238281
0, 1, 36, 306.2427368164062
0, 1, 37, 296.849609375
0, 1, 38, 279.2922668457031
0, 1, 39, 296.9955444335938
0, 1, 40, 265.4728698730469
0, 1, 41, 285.5345764160156
0, 1, 42, 289.9070129394531
0, 1, 43, 332.4962158203125
0, 1, 44, 278.2620849609375
0, 1, 45, 294.0885620117188
0, 1, 46, 262.5530090332031
0, 1, 47, 309.0766906738281
0, 1, 48, 286.0090637207031
0, 1, 49, 301.4279479980469
0, 1, 50, 264.0058898925781
0, 1, 51, 273.1138305664062
0, 1, 52, 297.4897766113281
0, 1, 53, 305.9625549316406
0, 1, 54, 273.1048278808594
0, 1, 55, 293.8746337890625
0, 1, 56, 278.0539855957031
0, 1, 57, 298.2238464355469
0, 1, 58, 310.6307373046875
0, 1, 59, 294.6834411621094
0, 1, 60, 299.4739990234375
0, 1, 61, 275.0377807617188
0, 1, 62, 308.3214111328125
0, 1, 63, 286.5963439941406
0, 1, 64, 290.7265625
0, 1, 65, 293.5870056152344
0, 1, 66, 292.9045104980469
0, 1, 67, 292.6854858398438
0, 1, 68, 277.1194152832031
0, 1, 69, 280.1016235351562
0, 1, 70, 268.999267578125
0, 1, 71, 274.0456848144531
0, 1, 72, 285.212158203125
0, 1, 73, 303.5476379394531
0, 1, 74, 303.6755981445312
0, 1, 75, 293.2613220214844
0, 1, 76, 285.3259887695312
0, 1, 77, 288.9740295410156
0, 1, 78, 297.4139099121094
0, 1, 79, 301.9209594726562
0, 1, 80, 295.3390502929688
0, 1, 81, 299.8565979003906
0, 1, 82, 284.84033203125
0, 1, 83, 332.3519897460938
0, 1, 84, 307.6764221191406
0, 1, 85, 254.1748504638672
0, 1, 86, 293.3933410644531
0, 1, 87, 290.7492980957031
0, 1, 88, 298.268310546875
0, 1, 89, 290.621337890625
0, 1, 90, 271.9849853515625
0, 1, 91, 318.9228210449219
0, 1, 92, 289.3233337402344
0, 1, 93, 286.6054382324219
0, 1, 94, 302.3849792480469
0, 1, 95, 284.5121765136719
0, 1, 96, 282.1879272460938
0, 1, 97, 301.7378234863281
0, 1, 98, 278.8612670898438
0, 1, 99, 268.3527526855469
0, 1, 100, 276.4506530761719
0, 1, 101, 282.052734375
0, 1, 102, 279.8501586914062
0, 1, 103, 281.7257080078125
0, 1, 104, 306.3500061035156
0, 1, 105, 296.2226257324219
0, 1, 106, 260.8451538085938
0, 1, 107, 194.3402862548828
0, 1, 108, 80.09323883056641
0, 1, 109, 22.99695587158203
0, 1, 110, 11.22802352905273
0, 1, 111, 10.1863374710083
0, 1, 112, 13.2907133102417
0, 1, 113, 10.88719940185547
0, 1, 114, 7.27483081817627
0, 1, 115, 6.270516872406006
0, 1, 116, 12.41158390045166
0, 1, 117, 5.087342262268066
0, 1, 118, 4.733436107635498
0, 1, 119, 4.695947170257568
0, 1, 120, 5.184682369232178
0, 1, 121, 3.890576124191284
0, 1, 122, 3.176183700561523
0, 1, 123, 5.914155960083008
0, 1, 124, 10.25483322143555
0, 1, 125, 3.407180547714233
0, 1, 126, 1.923687100410461
0, 1, 127, 2.505926847457886
0, 2, 0, 6.635807037353516
0, 2, 1, 3.752407789230347
0, 2, 2, 5.271885871887207
0, 2, 3, 3.430588483810425
0, 2, 4, 4.105559349060059
0, 2, 5, 3.134561538696289
0, 2, 6, 1.704202651977539
0, 2, 7, 3.712406158447266
0, 2, 8, 5.553597450256348
0, 2, 9, 7.605080604553223
0, 2, 10, 8.620146751403809
0, 2, 11, 5.975730895996094
0, 2, 12, 6.348528385162354
0, 2, 13, 11.48478221893311
0, 2, 14, 9.237550735473633
0, 2, 15, 7.913489818572998
0, 2, 16, 8.538882255554199
0, 2, 17, 15.71637153625488
0, 2, 18, 27.87663841247559
0, 2, 19, 116.0499267578125
0, 2, 20, 248.2213897705078
0, 2, 21, 270.8511352539062
0, 2, 22, 315.5826110839844
0, 2, 23, 299.7301330566406
0, 2, 24, 287.4224548339844
0, 2, 25, 304.4214477539062
0, 2, 26, 292.0602722167969
0, 2, 27, 276.13037109375
0, 2, 28, 272.6789245605469
0, 2, 29, 273.5313720703125
0, 2, 30, 290.2057800292969
0, 2, 31, 277.7904968261719
0, 2, 32, 293.9688720703125
0, 2, 33, 281.1016540527344
0, 2, 34, 333.323974609375
0, 2, 35, 289.8430786132812
0, 2, 36, 303.7388610839844
0, 2, 37, 317.9465026855469
0, 2, 38, 311.9055786132812
0, 2, 39, 267.5
0, 2, 40, 309.5399780273438
0, 2, 41, 291.1256408691406
0, 2, 42, 303.9103698730469
0, 2, 43, 312.3125915527344
0, 2, 44, 310.911376953125
0, 2, 45, 324.0624389648438
0, 2, 46, 287.0899353027344
0, 2, 47, 304.0547485351562
0, 2, 48, 280.1665344238281
0, 2, 49, 277.7410583496094
0, 2, 50, 296.4354553222656
0, 2, 51, 283.6208801269531
0, 2, 52, 272.1693725585938
0, 2, 53, 287.3457641601562
0, 2, 54, 281.9569091796875
0, 2, 55, 273.2215881347656
0, 2, 56, 302.5924987792969
0, 2, 57, 294.7278442382812
0, 2, 58, 301.829833984375
0, 2, 59, 287.2277526855469
0, 2, 60, 317.8083801269531
0, 2, 61, 301.3921813964844
0, 2, 62, 312.3264770507812
0, 2, 63, 303.6478881835938
0, 2, 64, 296.6384887695312
0, 2, 65, 312.99853515625
0, 2, 66, 277.9732971191406
0, 2, 67, 291.8992614746094
0, 2, 68, 295.4039306640625
0, 2, 69, 311.5506286621094
0, 2, 70, 333.7584228515625
0, 2, 71, 283.123046875
0, 2, 72, 304.3929138183594
0, 2, 73, 310.2899780273438
0, 2, 74, 286.3783264160156
0, 2, 75, 306.1312561035156
0, 2, 76, 286.6597290039062
0, 2, 77, 299.8740844726562
0, 2, 78, 313.7590637207031
0, 2, 79, 309.2129516601562
0, 2, 80, 295.9435424804688
0, 2, 81, 283.2210388183594
0, 2, 82, 318.4731140136719
0, 2, 83, 311.7295837402344
0, 2, 84, 287.959716796875
0, 2, 85, 281.001708984375
0, 2, 86, 324.42529296875
0, 2, 87, 286.4093627929688
0, 2, 88, 280.0614624023438
0, 2, 89, 294.9213256835938
0, 2, 90, 295.1709594726562
0, 2, 91, 277.8291320800781
0, 2, 92, 306.4187316894531
0, 2, 93, 319.4058532714844
0, 2, 94, 290.7767944335938
0, 2, 95, 315.0234680175781
0, 2, 96, 314.4866638183594
0, 2, 97, 293.2498168945312
0, 2, 98, 296.0332336425781
0, 2, 99, 272.4257507324219
0, 2, 100, 304.8257751464844
0, 2, 101, 301.3372802734375
0, 2, 102, 297.8311462402344
0, 2, 103, 291.5128479003906
0, 2, 104, 293.1017761230469
0, 2, 105, 273.5782775878906
0, 2, 106, 297.8313903808594
0, 2, 107, 269.4259338378906
0, 2, 108, 117.3255615234375
0, 2, 109, 33.34025955200195
0, 2, 110, 10.90321636199951
0, 2, 111, 11.1071891784668
0, 2, 112, 9.31731128692627
0, 2, 113, 10.82796955108643
0, 2, 114, 9.818159103393555
0, 2, 115, 10.07481098175049
0, 2, 116, 9.247485160827637
0, 2, 117, 6.746822834014893
0, 2, 118, 5.599844455718994
0, 2, 119, 3.492200374603271
0, 2, 120, 5.519066333770752
0, 2, 121, 2.625737428665161
0, 2, 122, 3.465012311935425
0, 2, 123, 1.97656524181366
0, 2, 124, 6.791764736175537
0, 2, 125, 4.708641529083252
0, 2, 126, 2.931448221206665
0, 2, 127, 5.984530925750732
0, 3, 0, 1.861335754394531
0, 3, 1, 4.038238525390625
0, 3, 2, 5.712413787841797
0, 3, 3, 2.618191480636597
0, 3, 4, 3.231352567672729
0, 3, 5, 8.153340339660645
0, 3, 6, 6.32428503036499
0, 3, 7, 6.493002891540527
0, 3, 8, 4.321535587310791
0, 3, 9, 4.726652145385742
0, 3, 10, 6.300933837890625
0, 3, 11, 5.000322818756104
0, 3, 12, 8.805744171142578
0, 3, 13, 14.4111442565918
0, 3, 14, 10.60951995849609
0, 3, 15, 14.18807506561279
0, 3, 16, 11.16761493682861
0, 3, 17, 18.95355415344238
0, 3, 18, 51.62150573730469
0, 3, 19, 174.8030700683594
0, 3, 20, 271.0211486816406
0, 3, 21, 271.8561706542969
0, 3, 22, 280.5267639160156
0, 3, 23, 286.4822998046875
0, 3, 24, 285.4376220703125
0, 3, 25, 275.5939025878906
0, 3, 26, 303.5855102539062
0, 3, 27, 291.0862121582031
0, 3, 28, 282.5012512207031
0, 3, 29, 337.2543334960938
0, 3, 30, 315.708740234375
0, 3, 31, 288.2899475097656
0, 3, 32, 306.7730712890625
0, 3, 33, 314.0464782714844
0, 3, 34, 323.3336486816406
0, 3, 35, 304.7032165527344
0, 3, 36, 270.5038757324219
0, 3, 37, 314.1796264648438
0, 3, 38, 304.1377258300781
0, 3, 39, 289.1076354980469
0, 3, 40, 267.6069641113281
0, 3, 41, 299.939453125
0, 3, 42, 286.8495788574219
0, 3, 43, 306.3382873535156
0, 3, 44, 309.855712890625
0, 3, 45, 289.8241577148438
0, 3, 46, 328.2247619628906
0, 3, 47, 300.150634765625
0, 3, 48, 306.2373657226562
0, 3, 49, 277.3001098632812
0, 3, 50, 290.2828979492188
0, 3, 51, 274.7077026367188
0, 3, 52, 316.7933044433594
0, 3, 53, 290.8872680664062
0, 3, 54, 284.5646667480469
0, 3, 55, 285.1945190429688
0, 3, 56, 298.1769409179688
0, 3, 57, 286.7944030761719
0, 3, 58, 307.3615112304688
0, 3, 59, 294.6144409179688
0, 3, 60, 298.3522338867188
0, 3, 61, 265.7212829589844
0, 3, 62, 282.7825012207031
0, 3, 63, 306.8138427734375
0, 3, 64, 316.41943359375
0, 3, 65, 304.3194885253906
0, 3, 66, 315.0947875976562
0, 3, 67, 318.7073974609375
0, 3, 68, 281.1985473632812
0, 3, 69, 281.8700256347656
0, 3, 70, 287.2991638183594
0, 3, 71, 300.6239624023438
0, 3, 72, 269.0675354003906
0, 3, 73, 309.2934265136719
0, 3, 74, 297.402587890625
0, 3, 75, 289.0701293945312
0, 3, 76, 305.1317138671875
0, 3, 77, 312.6240234375
0, 3, 78, 303.0481872558594
0, 3, 79, 280.5973205566406
0, 3, 80, 293.5686645507812
0, 3, 81, 312.0979309082031
0, 3, 82, 315.6445617675781
0, 3, 83, 302.4031982421875
0, 3, 84, 309.547119140625
0, 3, 85, 293.081298828125
0, 3, 86, 306.2446594238281
0, 3, 87, 298.1338500976562
0, 3, 88, 297.0762634277344
0, 3, 89, 295.83544921875
0, 3, 90, 274.9549560546875
0, 3, 91, 285.0581970214844
0, 3, 92, 307.1468811035156
0, 3, 93, 312.1287536621094
0, 3, 94, 297.6405639648438
0, 3, 95, 335.3029174804688
0, 3, 96, 290.8106384277344
0, 3, 97, 282.1734924316406
0, 3, 98, 276.7563171386719
0, 3, 99, 261.3420104980469
0, 3, 100, 284.2872314453125
0, 3, 101, 296.7579956054688
0, 3, 102, 275.728271484375
0, 3, 103, 321.3242492675781
0, 3, 104, 308.7106323242188
0, 3, 105, 289.3506164550781
0, 3, 106, 302.0088806152344
0, 3, 107, 280.853759765625
0, 3, 108, 165.8206634521484
0, 3, 109, 57.36747741699219
0, 3, 110, 22.49630546569824
0, 3, 111, 12.83193588256836
0, 3, 112, 13.9266471862793
0, 3, 113, 7.460293769836426
0, 3, 114, 10.20410537719727
0, 3, 115, 8.144709587097168
0, 3, 116, 10.32126426696777
0, 3, 117, 5.399990558624268
0, 3, 118, 9.486503601074219
0, 3, 119, 6.112689018249512
0, 3, 120, 6.635615348815918
0, 3, 121, 2.783308982849121
0, 3, 122, 5.385319232940674
0, 3, 123, 7.557577133178711
0, 3, 124, 2.079038381576538
0, 3, 125, 6.101154327392578
0, 3, 126, 5.898620128631592
0, 3, 127, 3.002117395401001
0, 4, 0, 2.38246750831604
0, 4, 1, 5.535410404205322
0, 4, 2, 3.550295114517212
0, 4, 3, 3.919163942337036
0, 4, 4, 6.503541946411133
0, 4, 5, 8.066975593566895
0, 4, 6, 8.787017822265625
0, 4, 7, 3.91328239440918
0, 4, 8, 4.011808395385742
0, 4, 9, 5.212101459503174
0, 4, 10, 10.09677886962891
0, 4, 11, 5.270880699157715
0, 4, 12, 5.447065830230713
0, 4, 13, 9.080722808837891
0, 4, 14, 11.25826644897461
0, 4, 15, 10.04755783081055
0, 4, 16, 12.57141876220703
0, 4, 17, 16.49908828735352
0, 4, 18, 92.25420379638672
0, 4, 19, 223.2428588867188
0, 4, 20, 283.8961181640625
0, 4, 21, 272.7626953125
0, 4, 22, 305.5252380371094
0, 4, 23, 270.8825988769531
0, 4, 24, 289.2335510253906
0, 4, 25, 273.1755981445312
0, 4, 26, 297.066650390625
0, 4, 27, 283.5896911621094
0, 4, 28, 309.7210388183594
0, 4, 29, 321.8657836914062
0, 4, 30, 310.2959594726562
0, 4, 31, 306.1173095703125
0, 4, 32, 280.8399047851562
0, 4, 33, 297.72119140625
0, 4, 34, 297.5406188964844
0, 4, 35, 311.921630859375
0, 4, 36, 292.2980651855469
0, 4, 37, 287.21484375
0, 4, 38, 296.9591064453125
0, 4, 39, 294.1368713378906
0, 4, 40, 300.9196166992188
0, 4, 41, 311.8125
0, 4, 42, 332.0775756835938
0, 4, 43, 294.7811279296875
0, 4, 44, 320.2974243164062
0, 4, 45, 325.5645751953125
0, 4, 46, 307.0812683105469
0, 4, 47, 292.2330627441406
0, 4, 48, 296.1190490722656
0, 4, 49, 276.7359313964844
0, 4, 50, 296.668701171875
0, 4, 51, 315.1548156738281
0, 4, 52, 327.3804931640625
0, 4, 53, 305.61181640625
0, 4, 54, 285.9569091796875
0, 4, 55, 315.6067504882812
0, 4, 56, 286.1298522949219
0, 4, 57, 308.1572265625
0, 4, 58, 296.0586242675781
0, 4, 59, 308.5157775878906
0, 4, 60, 301.7619018554688
0, 4, 61, 314.44384765625
0, 4, 62, 307.5472717285156
0, 4, 63, 301.0698852539062
0, 4, 64, 330.3976745605469
0, 4, 65, 316.7171630859375
0, 4, 66, 292.2802734375
0, 4, 67, 285.3424987792969
0, 4, 68, 313.684326171875
0, 4, 69, 275.9608459472656
0, 4, 70, 300.8404235839844
0, 4, 71, 321.0478515625
0, 4, 72, 333.2979736328125
0, 4, 73, 298.6013488769531
0, 4, 74, 295.1425476074219
0, 4, 75, 292.1134948730469
0, 4, 76, 274.9415588378906
0, 4, 77, 278.089599609375
0, 4, 78, 308.3402099609375
0, 4, 79, 318.5745849609375
0, 4, 80, 317.2330932617188
0, 4, 81, 311.999267578125
0, 4, 82, 297.1758422851562
0, 4, 83, 300.9348449707031
0, 4, 84, 292.8669128417969
0, 4, 85, 294.1178588867188
0, 4, 86, 296.5584106445312
0, 4, 87, 285.3057861328125
0, 4, 88, 308.8235168457031
0, 4, 89, 294.9413757324219
0, 4, 90, 333.7828674316406
0, 4, 91, 303.8328857421875
0, 4, 92, 291.048095703125
0, 4, 93, 296.560302734375
0, 4, 94, 293.7649841308594
0, 4, 95, 288.4961547851562
0, 4, 96, 320.9336547851562
0, 4, 97, 273.8283081054688
0, 4, 98, 326.623046875
0, 4, 99, 315.5875244140625
0, 4, 100, 299.9909973144531
0, 4, 101, 255.9300842285156
0, 4, 102, 297.9704895019531
0, 4, 103, 317.5068054199219
0, 4, 104, 280.516357421875
0, 4, 105, 310.2464294433594
0, 4, 106, 288.0541687011719
0, 4, 107, 296.0168151855469
0, 4, 108, 225.0783996582031
0, 4, 109, 79.92504119873047
0, 4, 110, 17.05399131774902
0, 4, 111, 13.39910125732422
0, 4, 112, 10.19774627685547
0, 4, 113, 10.75151443481445
0, 4, 114, 6.892089366912842
0, 4, 115, 8.033198356628418
0, 4, 116, 9.681197166442871
0, 4, 117, 7.5480637550354
0, 4, 118, 8.72523307800293
0, 4, 119, 8.692230224609375
0, 4, 120, 6.59199333190918
0, 4, 121, 7.337726593017578
0, 4, 122, 3.675948858261108
0, 4, 123, 5.165903568267822
0, 4, 124, 7.602396011352539
0, 4, 125, 7.855722427368164
0, 4, 126, 4.52473258972168
0, 4, 127, 3.982434034347534
0, 5, 0, 5.305208206176758
0, 5, 1, 2.675811052322388
0, 5, 2, 4.134493350982666
0, 5, 3, 5.20989465713501
0, 5, 4, 6.231770992279053
0, 5, 5, 5.001131534576416
0, 5, 6, 6.650650024414062
0, 5, 7, 4.109663009643555
0, 5, 8, 7.260472774505615
0, 5, 9, 5.602080345153809
0, 5, 10, 6.272590160369873
0, 5, 11, 8.923673629760742
0, 5, 12, 9.572855949401855
0, 5, 13, 5.444611072540283
0, 5, 14, 12.36926174163818
0, 5, 15, 15.56062889099121
0, 5, 16, 14.80634880065918
0, 5, 17, 29.40097236633301
0, 5, 18, 137.8380279541016
0, 5, 19, 289.1849060058594
0, 5, 20, 307.6968383789062
0, 5, 21, 316.8315734863281
0, 5, 22, 274.3368225097656
0, 5, 23, 311.6490173339844
0, 5, 24, 301.4376220703125
0, 5, 25, 290.0747375488281
0, 5, 26, 293.8703308105469
0, 5, 27, 320.590576171875
0, 5, 28, 301.6470031738281
0, 5, 29, 298.8236694335938
0, 5, 30, 326.7533264160156
0, 5, 31, 285.9021606445312
0, 5, 32, 303.6962280273438
0, 5, 33, 303.6904602050781
0, 5, 34, 296.7941284179688
0, 5, 35, 308.37451171875
0, 5, 36, 270.3084411621094
0, 5, 37, 281.2088623046875
0, 5, 38, 292.9932556152344
0, 5, 39, 312.0220031738281
0, 5, 40, 306.8967895507812
0, 5, 41, 274.6820373535156
0, 5, 42, 305.1936950683594
0, 5, 43, 315.1930236816406
0, 5, 44, 292.6083374023438
0, 5, 45, 300.8390502929688
0, 5, 46, 265.9253234863281
0, 5, 47, 278.9122009277344
0, 5, 48, 292.7281799316406
0, 5, 49, 285.3117370605469
0, 5, 50, 294.8409729003906
0, 5, 51, 278.3762512207031
0, 5, 52, 270.8761291503906
0, 5, 53, 284.1943969726562
0, 5, 54, 292.5927124023438
0, 5, 55, 343.5527954101562
0, 5, 56, 306.7948608398438
0, 5, 57, 305.5343017578125
0, 5, 58, 309.9563598632812
0, 5, 59, 304.0599670410156
0, 5, 60, 307.1806640625
0, 5, 61, 281.8752746582031
0, 5, 62, 326.5587158203125
0, 5, 63, 289.6808776855469
0, 5, 64, 322.6023864746094
0, 5, 65, 307.3499755859375
0, 5, 66, 327.8035278320312
0, 5, 67, 311.3909606933594
0, 5, 68, 309.3368225097656
0, 5, 69, 311.0159912109375
0, 5, 70, 299.2705688476562
0, 5, 71, 272.0307312011719
0, 5, 72, 313.7865295410156
0, 5, 73, 303.837158203125
0, 5, 74, 295.274169921875
0, 5, 75, 294.9419250488281
0, 5, 76, 285.9446105957031
0, 5, 77, 299.2048950195312
0, 5, 78, 313.1506652832031
0, 5, 79, 308.5826721191406
0, 5, 80, 294.9217529296875
0, 5, 81, 327.14404296875
0, 5, 82, 325.680908203125
0, 5, 83, 285.0804138183594
0, 5, 84, 303.880126953125
0, 5, 85, 269.2377319335938
0, 5, 86, 325.2333984375
0, 5, 87, 283.3212280273438
0, 5, 88, 313.3421020507812
0, 5, 89, 304.4057922363281
0, 5, 90, 316.8023376464844
0, 5, 91, 312.9457702636719
0, 5, 92, 296.4123229980469
0, 5, 93, 323.4482421875
0, 5, 94, 309.521484375
0, 5, 95, 296.1949768066406
0, 5, 96, 298.5148620605469
0, 5, 97, 295.2015075683594
0, 5, 98, 318.5619201660156
0, 5, 99, 304.6230773925781
0, 5, 100, 293.6841430664062
0, 5, 101, 304.9073486328125
0, 5, 102, 290.6011047363281
0, 5, 103, 314.11181640625
0, 5, 104, 301.8364562988281
0, 5, 105, 293.4339294433594
0, 5, 106, 282.8230895996094
0, 5, 107, 295.5567626953125
0, 5, 108, 266.4920349121094
0, 5, 109, 158.8668823242188
0, 5, 110, 41.05340957641602
0, 5, 111, 21.62906074523926
0, 5, 112, 16.99146461486816
0, 5, 113, 16.39381980895996
0, 5, 114, 14.3379430770874
0, 5, 115, 7.963184833526611
0, 5, 116, 9.290462493896484
0, 5, 117, 5.539323329925537
0, 5, 118, 13.10245895385742
0, 5, 119, 4.420372486114502
0, 5, 120, 7.915004253387451
0, 5, 121, 6.170723438262939
0, 5, 122, 5.525195121765137
0, 5, 123, 6.186043262481689
0, 5, 124, 6.784658908843994
0, 5, 125, 4.025386333465576
0, 5, 126, 4.631172180175781
0, 5, 127, 2.916578531265259
0, 6, 0, 4.896457672119141
0, 6, 1, 4.76606273651123
0, 6, 2, 5.709230422973633
0, 6, 3, 4.933691024780273
0, 6, 4, 3.149212837219238
0, 6, 5, 7.415383338928223
0, 6, 6, 6.624315738677979
0, 6, 7, 7.475736618041992
0, 6, 8, 6.642690658569336
0, 6, 9, 4.968922138214111
0, 6, 10, 7.574422359466553
0, 6, 11, 9.746456146240234
0, 6, 12, 11.20264053344727
0, 6, 13, 17.46935653686523
0, 6, 14, 8.834807395935059
0, 6, 15, 16.48318672180176
0, 6, 16, 27.34585762023926
0, 6, 17, 56.43076324462891
0, 6, 18, 172.9225311279297
0, 6, 19, 276.7562561035156
0, 6, 20, 290.9994812011719
0, 6, 21, 313.5461120605469
0, 6, 22, 320.2518005371094
0, 6, 23, 302.5206909179688
0, 6, 24, 316.9102172851562
0, 6, 25, 316.1795654296875
0, 6, 26, 320.3885192871094
0, 6, 27, 329.8524780273438
0, 6, 28, 296.5626831054688
0, 6, 29, 332.395263671875
0, 6, 30, 282.042236328125
0, 6, 31, 285.9265747070312
0, 6, 32, 339.3285522460938
0, 6, 33, 301.0858154296875
0, 6, 34, 340.0146484375
0, 6, 35, 321.4951171875
0, 6, 36, 272.5730895996094
0, 6, 37, 288.8480834960938
0, 6, 38, 311.8983764648438
0, 6, 39, 299.0747680664062
0, 6, 40, 283.988525390625
0, 6, 41, 293.39453125
0, 6, 42, 304.7760620117188
0, 6, 43, 288.0940856933594
0, 6, 44, 279.5155029296875
0, 6, 45, 320.5757751464844
0, 6, 46, 301.5101318359375
0, 6, 47, 334.0811157226562
0, 6, 48, 292.0137329101562
0, 6, 49, 311.6336059570312
0, 6, 50, 329.4006958007812
0, 6, 51, 309.4163818359375
0, 6, 52, 323.8266296386719
0, 6, 53, 329.236572265625
0, 6, 54, 301.6171569824219
0, 6, 55, 306.5126953125
0, 6, 56, 297.4417419433594
0, 6, 57, 314.3998107910156
0, 6, 58, 261.2220153808594
0, 6, 59, 302.6364135742188
0, 6, 60, 313.5535583496094
0, 6, 61, 269.2942810058594
0, 6, 62, 337.9621887207031
0, 6, 63, 324.1431884765625
0, 6, 64, 291.0218811035156
0, 6, 65, 287.0248107910156
0, 6, 66, 303.8060913085938
0, 6, 67, 308.8930969238281
0, 6, 68, 295.3365173339844
0, 6, 69, 277.7843627929688
0, 6, 70, 273.8342895507812
0, 6, 71, 289.7922058105469
0, 6, 72, 309.0268859863281
0, 6, 73, 292.2633056640625
0, 6, 74, 329.5504150390625
0, 6, 75, 342.7204284667969
0, 6, 76, 297.6184387207031
0, 6, 77, 286.1891479492188
0, 6, 78, 277.8077697753906
0, 6, 79, 291.5936584472656
0, 6, 80, 303.3550415039062
0, 6, 81, 314.3935546875
0, 6, 82, 319.6423645019531
0, 6, 83, 318.0655517578125
0, 6, 84, 296.5825500488281
0, 6, 85, 300.4372863769531
0, 6, 86, 329.87158203125
0, 6, 87, 294.3780822753906
0, 6, 88, 304.9361572265625
0, 6, 89, 303.8971252441406
0, 6, 90, 299.3053588867188
0, 6, 91, 311.3992309570312
0, 6, 92, 285.016357421875
0, 6, 93, 293.7778625488281
0, 6, 94, 273.5531921386719
0, 6, 95, 300.3458251953125
0, 6, 96, 346.8101501464844
0, 6, 97, 308.5670776367188
0, 6, 98, 302.5210876464844
0, 6, 99, 273.6475830078125
0, 6, 100, 309.5208740234375
0, 6, 101, 293.1309509277344
0, 6, 102, 307.1768493652344
0, 6, 103, 306.7760620117188
0, 6, 104, 290.9419860839844
0, 6, 105, 300.2890930175781
0, 6, 106, 306.4446716308594
0, 6, 107, 305.6921081542969
0, 6, 108, 266.5196228027344
0, 6, 109, 187.1303863525391
0, 6, 110, 55.78752899169922
0, 6, 111, 22.07229232788086
0, 6, 112, 14.40050601959229
0, 6, 113, 10.21555995941162
0, 6, 114, 12.91018009185791
0, 6, 115, 11.87101078033447
0, 6, 116, 10.84166526794434
0, 6, 117, 9.785120964050293
0, 6, 118, 12.54377555847168
0, 6, 119, 9.00284481048584
0, 6, 120, 5.533266544342041
0, 6, 121, 8.831954002380371
0, 6, 122, 5.609992980957031
0, 6, 123, 3.263368368148804
0, 6, 124, 6.002139568328857
0, 6, 125, 5.853909015655518
0, 6, 126, 4.55978536605835
0, 6, 127, 6.325764656066895
0, 7, 0, 4.202704429626465
0, 7, 1, 3.505215167999268
0, 7, 2, 4.551523685455322
0, 7, 3, 6.5068039894104
0, 7, 4, 6.334733009338379
0, 7, 5, 4.915104866027832
0, 7, 6, 5.772201061248779
0, 7, 7, 5.787731170654297
0, 7, 8, 6.41661548614502
0, 7, 9, 5.781867504119873
0, 7, 10, 10.22996044158936
0, 7, 11, 12.86671257019043
0, 7, 12, 10.29306983947754
0, 7, 13, 12.08446025848389
0, 7, 14, 9.278783798217773
0, 7, 15, 15.54528522491455
0, 7, 16, 25.41310691833496
0, 7, 17, 97.65253448486328
0, 7, 18, 218.6344909667969
0, 7, 19, 288.0101013183594
0, 7, 20, 294.0637512207031
0, 7, 21, 276.9203186035156
0, 7, 22, 300.1408386230469
0, 7, 23, 292.2357482910156
0, 7, 24, 313.5477905273438
0, 7, 25, 324.3357543945312
0, 7, 26, 277.44677734375
0, 7, 27, 296.2433471679688
0, 7, 28, 324.31201171875
0, 7, 29, 317.5868225097656
0, 7, 30, 298.555419921875
0, 7, 31, 278.1464538574219
0, 7, 32, 304.2183227539062
0, 7, 33, 264.8753356933594
0, 7, 34, 296.809814453125
0, 7, 35, 318.1781311035156
0, 7, 36, 329.3163146972656
0, 7, 37, 325.40966796875
0, 7, 38, 295.0587463378906
0, 7, 39, 307.4151306152344
0, 7, 40, 290.2935485839844
0, 7, 41, 272.4337463378906
0, 7, 42, 304.1243896484375
0, 7, 43, 274.337890625
0, 7, 44, 305.1224365234375
0, 7, 45, 294.4484252929688
0, 7, 46, 282.1980285644531
0, 7, 47, 329.167724609375
0, 7, 48, 290.2138061523438
0, 7, 49, 302.501953125
0, 7, 50, 323.0243225097656
0, 7, 51, 298.8651428222656
0, 7, 52, 327.888916015625
0, 7, 53, 310.7042541503906
0, 7, 54, 321.9314575195312
0, 7, 55, 307.9866333007812
0, 7, 56, 279.4068298339844
0, 7, 57, 280.9275207519531
0, 7, 58, 295.2444458007812
0, 7, 59, 292.6741638183594
0, 7, 60, 322.7388000488281
0, 7, 61, 278.2464904785156
0, 7, 62, 298.3860473632812
0, 7, 63, 294.1170654296875
0, 7, 64, 307.2389831542969
0, 7, 65, 332.1893615722656
0, 7, 66, 319.6666870117188
0, 7, 67, 301.0593872070312
0, 7, 68, 281.1484375
0, 7, 69, 294.2677917480469
0, 7, 70, 302.2689514160156
0, 7, 71, 310.134521484375
0, 7, 72, 285.5006103515625
0, 7, 73, 299.6679382324219
0, 7, 74, 343.5227355957031
0, 7, 75, 320.4832458496094
0, 7, 76, 322.0825500488281
0, 7, 77, 280.7158813476562
0, 7, 78, 299.4109802246094
0, 7, 79, 298.8109741210938
0, 7, 80, 313.5751647949219
0, 7, 81, 318.5448303222656
0, 7, 82, 330.1520385742188
0, 7, 83, 317.0037536621094
0, 7, 84, 309.3670959472656
0, 7, 85, 273.5444641113281
0, 7, 86, 310.52880859375
0, 7, 87, 311.4275512695312
0, 7, 88, 307.1275329589844
0, 7, 89, 295.0269165039062
0, 7, 90, 307.1142883300781
0, 7, 91, 313.8085327148438
0, 7, 92, 288.6693725585938
0, 7, 93, 308.7114562988281
0, 7, 94, 272.7744750976562
0, 7, 95, 294.8866577148438
0, 7, 96, 331.2018432617188
0, 7, 97, 295.1369323730469
0, 7, 98, 290.6802062988281
0, 7, 99, 311.5607299804688
0, 7, 100, 280.1546325683594
0, 7, 101, 276.5737915039062
0, 7, 102, 291.308349609375
0, 7, 103, 293.8844299316406
0, 7, 104, 276.3995056152344
0, 7, 105, 304.705322265625
0, 7, 106, 316.6654663085938
0, 7, 107, 296.3651123046875
0, 7, 108, 273.2297973632812
0, 7, 109, 234.5227813720703
0, 7, 110, 97.73499298095703
0, 7, 111, 25.69583511352539
0, 7, 112, 15.28291034698486
0, 7, 113, 13.94190788269043
0, 7, 114, 12.71650695800781
0, 7, 115, 10.14185523986816
0, 7, 116, 10.41256332397461
0, 7, 117, 4.661782741546631
0, 7, 118, 8.28673267364502
0, 7, 119, 7.563235282897949
0, 7, 120, 4.775496482849121
0, 7, 121, 7.22612476348877
0, 7, 122, 11.28060245513916
0, 7, 123, 6.835166931152344
0, 7, 124, 3.149686813354492
0, 7, 125, 6.485058784484863
0, 7, 126, 7.098151683807373
0, 7, 127, 5.13952112197876
0, 8, 0, 3.921982765197754
0, 8, 1, 6.651932239532471
0, 8, 2, 4.001187801361084
0, 8, 3, 2.985631465911865
0, 8, 4, 4.240374088287354
0, 8, 5, 3.547625780105591
0, 8, 6, 6.231735706329346
0, 8, 7, 6.263207912445068
0, 8, 8, 10.89418792724609
0, 8, 9, 4.641395568847656
0, 8, 10, 9.349601745605469
0, 8, 11, 11.78296756744385
0, 8, 12, 12.59968185424805
0, 8, 13, 16.89555931091309
0, 8, 14, 13.12207508087158
0, 8, 15, 18.22865104675293
0, 8, 16, 31.9689998626709
0, 8, 17, 131.1386566162109
0, 8, 18, 242.9331970214844
0, 8, 19, 292.928466796875
0, 8, 20, 285.0774841308594
0, 8, 21, 308.898681640625
0, 8, 22, 294.7506103515625
0, 8, 23, 274.8914489746094
0, 8, 24, 268.8587951660156
0, 8, 25, 274.8679504394531
0, 8, 26, 306.9395141601562
0, 8, 27, 308.095703125
0, 8, 28, 304.4873046875
0, 8, 29, 321.0333557128906
0, 8, 30, 314.5100402832031
0, 8, 31, 305.1805114746094
0, 8, 32, 281.5820617675781
0, 8, 33, 294.4021301269531
0, 8, 34, 290.8023681640625
0, 8, 35, 278.3080444335938
0, 8, 36, 315.080322265625
0, 8, 37, 338.4087219238281
0, 8, 38, 331.3149108886719
0, 8, 39, 280.0792846679688
0, 8, 40, 303.7203369140625
0, 8, 41, 292.4579467773438
