# TOPAS Version: 3.1.p3
# Parameter File: batch_inserts_140.txt
# Results for scorer Readout_Adipose
# Scored in component: MyBox
# X in 1 bin  of 0.75 cm
# Y in 512 bins of 0.0783984 cm
# Z in 128 bins of 0.078125 cm
# EnergyDeposit ( MeV ) : Sum   
0, 0, 0, 4.535612106323242
0, 0, 1, 1.41262948513031
0, 0, 2, 2.572685241699219
0, 0, 3, 1.573899269104004
0, 0, 4, 3.332233428955078
0, 0, 5, 2.537316799163818
0, 0, 6, 7.181532382965088
0, 0, 7, 8.718367576599121
0, 0, 8, 2.474611043930054
0, 0, 9, 4.767780780792236
0, 0, 10, 7.103856086730957
0, 0, 11, 5.366959571838379
0, 0, 12, 4.48142147064209
0, 0, 13, 6.389966487884521
0, 0, 14, 7.540865421295166
0, 0, 15, 9.692706108093262
0, 0, 16, 8.854057312011719
0, 0, 17, 11.15016460418701
0, 0, 18, 13.88827133178711
0, 0, 19, 44.91524887084961
0, 0, 20, 138.1058654785156
0, 0, 21, 222.5355072021484
0, 0, 22, 247.9697723388672
0, 0, 23, 255.5003509521484
0, 0, 24, 251.6925201416016
0, 0, 25, 259.8389282226562
0, 0, 26, 234.3506774902344
0, 0, 27, 237.5012054443359
0, 0, 28, 272.0916442871094
0, 0, 29, 251.3164215087891
0, 0, 30, 229.0434875488281
0, 0, 31, 243.1363220214844
0, 0, 32, 262.9219665527344
0, 0, 33, 264.2430725097656
0, 0, 34, 289.5809936523438
0, 0, 35, 266.8164672851562
0, 0, 36, 247.447265625
0, 0, 37, 253.4397125244141
0, 0, 38, 270.3072204589844
0, 0, 39, 228.9229125976562
0, 0, 40, 242.2366180419922
0, 0, 41, 265.31689453125
0, 0, 42, 229.0923309326172
0, 0, 43, 262.7758178710938
0, 0, 44, 253.2347869873047
0, 0, 45, 253.1590423583984
0, 0, 46, 243.6742095947266
0, 0, 47, 252.4982299804688
0, 0, 48, 265.7974853515625
0, 0, 49, 273.6758117675781
0, 0, 50, 252.5284576416016
0, 0, 51, 255.3101654052734
0, 0, 52, 272.9490966796875
0, 0, 53, 292.5643005371094
0, 0, 54, 242.2969360351562
0, 0, 55, 240.4995880126953
0, 0, 56, 279.4215393066406
0, 0, 57, 262.7973937988281
0, 0, 58, 244.7465057373047
0, 0, 59, 271.2698974609375
0, 0, 60, 234.3292999267578
0, 0, 61, 244.3805084228516
0, 0, 62, 259.5030822753906
0, 0, 63, 266.0487365722656
0, 0, 64, 255.1630096435547
0, 0, 65, 263.358642578125
0, 0, 66, 276.95556640625
0, 0, 67, 247.3594055175781
0, 0, 68, 258.6129455566406
0, 0, 69, 260.9121398925781
0, 0, 70, 272.499267578125
0, 0, 71, 238.0357513427734
0, 0, 72, 251.0041961669922
0, 0, 73, 259.1297912597656
0, 0, 74, 251.3216247558594
0, 0, 75, 241.1861877441406
0, 0, 76, 228.8247222900391
0, 0, 77, 261.109619140625
0, 0, 78, 255.7535095214844
0, 0, 79, 277.0374755859375
0, 0, 80, 215.6763153076172
0, 0, 81, 266.0696716308594
0, 0, 82, 256.8474426269531
0, 0, 83, 245.7026672363281
0, 0, 84, 267.6570434570312
0, 0, 85, 231.7205352783203
0, 0, 86, 254.0624084472656
0, 0, 87, 251.2308502197266
0, 0, 88, 259.8951721191406
0, 0, 89, 283.706298828125
0, 0, 90, 244.1438598632812
0, 0, 91, 280.4627075195312
0, 0, 92, 253.2545623779297
0, 0, 93, 249.7073059082031
0, 0, 94, 247.6327972412109
0, 0, 95, 249.3064727783203
0, 0, 96, 274.0862731933594
0, 0, 97, 272.7398681640625
0, 0, 98, 272.9010925292969
0, 0, 99, 258.6492004394531
0, 0, 100, 257.4272155761719
0, 0, 101, 225.8121643066406
0, 0, 102, 232.2607116699219
0, 0, 103, 269.5453796386719
0, 0, 104, 254.9648590087891
0, 0, 105, 252.48046875
0, 0, 106, 246.2569274902344
0, 0, 107, 151.9006958007812
0, 0, 108, 37.47982788085938
0, 0, 109, 12.62125396728516
0, 0, 110, 13.13503360748291
0, 0, 111, 9.021652221679688
0, 0, 112, 9.106223106384277
0, 0, 113, 5.254860877990723
0, 0, 114, 8.224008560180664
0, 0, 115, 5.561850547790527
0, 0, 116, 4.69227409362793
0, 0, 117, 7.850789546966553
0, 0, 118, 5.83081579208374
0, 0, 119, 4.497696399688721
0, 0, 120, 3.921488285064697
0, 0, 121, 3.112430334091187
0, 0, 122, 3.592176914215088
0, 0, 123, 3.225755929946899
0, 0, 124, 5.301929473876953
0, 0, 125, 5.155807495117188
0, 0, 126, 4.934778213500977
0, 0, 127, 2.169983148574829
0, 1, 0, 8.675524711608887
0, 1, 1, 2.320882558822632
0, 1, 2, 4.210610866546631
0, 1, 3, 3.775733947753906
0, 1, 4, 3.867371559143066
0, 1, 5, 3.320335626602173
0, 1, 6, 6.018208980560303
0, 1, 7, 6.657011032104492
0, 1, 8, 6.907495975494385
0, 1, 9, 4.178501129150391
0, 1, 10, 5.946837425231934
0, 1, 11, 11.51097297668457
0, 1, 12, 8.822694778442383
0, 1, 13, 10.39440441131592
0, 1, 14, 9.041847229003906
0, 1, 15, 6.886697769165039
0, 1, 16, 11.81723499298096
0, 1, 17, 11.23696231842041
0, 1, 18, 20.53985977172852
0, 1, 19, 66.31911468505859
0, 1, 20, 200.5166931152344
0, 1, 21, 256.1088256835938
0, 1, 22, 297.9761657714844
0, 1, 23, 282.8877258300781
0, 1, 24, 276.1926574707031
0, 1, 25, 286.2204895019531
0, 1, 26, 269.2071838378906
0, 1, 27, 306.6985778808594
0, 1, 28, 301.5643310546875
0, 1, 29, 295.8239440917969
0, 1, 30, 279.8970031738281
0, 1, 31, 291.2580261230469
0, 1, 32, 291.3762512207031
0, 1, 33, 296.001220703125
0, 1, 34, 291.2514343261719
0, 1, 35, 278.0970458984375
0, 1, 36, 307.8645629882812
0, 1, 37, 294.2205505371094
0, 1, 38, 278.7185668945312
0, 1, 39, 294.4033508300781
0, 1, 40, 265.2624816894531
0, 1, 41, 287.6392517089844
0, 1, 42, 291.1810913085938
0, 1, 43, 331.2142944335938
0, 1, 44, 278.7785949707031
0, 1, 45, 293.2664794921875
0, 1, 46, 262.6087646484375
0, 1, 47, 309.9326171875
0, 1, 48, 284.5968627929688
0, 1, 49, 303.3991394042969
0, 1, 50, 265.759765625
0, 1, 51, 273.3424377441406
0, 1, 52, 297.8814697265625
0, 1, 53, 302.7448120117188
0, 1, 54, 275.1884460449219
0, 1, 55, 294.9822082519531
0, 1, 56, 279.5230102539062
0, 1, 57, 299.42578125
0, 1, 58, 308.4814147949219
0, 1, 59, 293.3717041015625
0, 1, 60, 297.8885803222656
0, 1, 61, 275.0106506347656
0, 1, 62, 308.3699951171875
0, 1, 63, 286.2422790527344
0, 1, 64, 288.7255859375
0, 1, 65, 294
0, 1, 66, 293.9931945800781
0, 1, 67, 290.3871154785156
0, 1, 68, 278.3048706054688
0, 1, 69, 280.1585083007812
0, 1, 70, 271.2845458984375
0, 1, 71, 275.5345153808594
0, 1, 72, 285.2980041503906
0, 1, 73, 304.5568237304688
0, 1, 74, 304.1776428222656
0, 1, 75, 292.3020324707031
0, 1, 76, 284.7514343261719
0, 1, 77, 288.240234375
0, 1, 78, 298.6039733886719
0, 1, 79, 301.8212890625
0, 1, 80, 296.4369812011719
0, 1, 81, 299.6396179199219
0, 1, 82, 286.8575744628906
0, 1, 83, 333.5120239257812
0, 1, 84, 309.9083862304688
0, 1, 85, 253.8664245605469
0, 1, 86, 293.6394958496094
0, 1, 87, 289.8389282226562
0, 1, 88, 297.7540588378906
0, 1, 89, 291.0593872070312
0, 1, 90, 271.5863037109375
0, 1, 91, 317.4983825683594
0, 1, 92, 290.0374450683594
0, 1, 93, 286.545166015625
0, 1, 94, 302.5566711425781
0, 1, 95, 284.5991821289062
0, 1, 96, 284.8127746582031
0, 1, 97, 304.5355224609375
0, 1, 98, 278.2041625976562
0, 1, 99, 272.4269409179688
0, 1, 100, 276.27294921875
0, 1, 101, 280.4712219238281
0, 1, 102, 277.5244140625
0, 1, 103, 281.6148376464844
0, 1, 104, 306.1909790039062
0, 1, 105, 296.8699645996094
0, 1, 106, 261.7030334472656
0, 1, 107, 191.7638549804688
0, 1, 108, 80.44676971435547
0, 1, 109, 23.45705795288086
0, 1, 110, 12.47320747375488
0, 1, 111, 7.636719703674316
0, 1, 112, 14.03639793395996
0, 1, 113, 7.418153762817383
0, 1, 114, 6.019729614257812
0, 1, 115, 7.616825580596924
0, 1, 116, 10.12447738647461
0, 1, 117, 7.024052143096924
0, 1, 118, 6.671976566314697
0, 1, 119, 5.158207893371582
0, 1, 120, 8.266151428222656
0, 1, 121, 3.059049367904663
0, 1, 122, 3.14167046546936
0, 1, 123, 4.543821811676025
0, 1, 124, 8.599543571472168
0, 1, 125, 4.369571208953857
0, 1, 126, 2.463516712188721
0, 1, 127, 1.007984042167664
0, 2, 0, 2.526746511459351
0, 2, 1, 1.947538375854492
0, 2, 2, 4.110249996185303
0, 2, 3, 5.614032745361328
0, 2, 4, 2.3630211353302
0, 2, 5, 2.672039747238159
0, 2, 6, 2.997110843658447
0, 2, 7, 6.119884490966797
0, 2, 8, 4.595756053924561
0, 2, 9, 9.086230278015137
0, 2, 10, 8.563892364501953
0, 2, 11, 4.490135192871094
0, 2, 12, 6.605731964111328
0, 2, 13, 8.451383590698242
0, 2, 14, 9.874859809875488
0, 2, 15, 6.836355209350586
0, 2, 16, 8.558185577392578
0, 2, 17, 18.36190986633301
0, 2, 18, 31.87295532226562
0, 2, 19, 114.7195510864258
0, 2, 20, 247.7757873535156
0, 2, 21, 271.4351196289062
0, 2, 22, 315.6019592285156
0, 2, 23, 300.3284606933594
0, 2, 24, 286.7066650390625
0, 2, 25, 301.5039672851562
0, 2, 26, 293.1831970214844
0, 2, 27, 275.3501892089844
0, 2, 28, 275.5536193847656
0, 2, 29, 274.7637329101562
0, 2, 30, 290.1443176269531
0, 2, 31, 277.4395446777344
0, 2, 32, 294.2121887207031
0, 2, 33, 280.7760314941406
0, 2, 34, 332.27978515625
0, 2, 35, 288.0782470703125
0, 2, 36, 302.3143920898438
0, 2, 37, 315.4323425292969
0, 2, 38, 310.2610473632812
0, 2, 39, 266.1101989746094
0, 2, 40, 308.6329040527344
0, 2, 41, 294.7109375
0, 2, 42, 305.1387329101562
0, 2, 43, 312.2846984863281
0, 2, 44, 311.4915466308594
0, 2, 45, 324.2799072265625
0, 2, 46, 287.7309875488281
0, 2, 47, 302.6688842773438
0, 2, 48, 282.0969543457031
0, 2, 49, 279.7560119628906
0, 2, 50, 296.3182067871094
0, 2, 51, 282.6304931640625
0, 2, 52, 271.7005920410156
0, 2, 53, 287.0423889160156
0, 2, 54, 281.6186828613281
0, 2, 55, 276.7724609375
0, 2, 56, 302.2896728515625
0, 2, 57, 291.8205871582031
0, 2, 58, 303.5454711914062
0, 2, 59, 289.5879821777344
0, 2, 60, 318.0484313964844
0, 2, 61, 301.2567138671875
0, 2, 62, 318.1099243164062
0, 2, 63, 304.914306640625
0, 2, 64, 295.4380798339844
0, 2, 65, 313.6584167480469
0, 2, 66, 278.482421875
0, 2, 67, 291.3893127441406
0, 2, 68, 295.4972229003906
0, 2, 69, 310.543701171875
0, 2, 70, 334.2955017089844
0, 2, 71, 283.7421569824219
0, 2, 72, 300.8482055664062
0, 2, 73, 311.7919006347656
0, 2, 74, 287.0876159667969
0, 2, 75, 305.4283447265625
0, 2, 76, 288.269775390625
0, 2, 77, 300.5015563964844
0, 2, 78, 315.5608520507812
0, 2, 79, 308.0266418457031
0, 2, 80, 296.7427062988281
0, 2, 81, 284.5579528808594
0, 2, 82, 320.0283813476562
0, 2, 83, 312.6318664550781
0, 2, 84, 288.1566162109375
0, 2, 85, 280.9312438964844
0, 2, 86, 325.2394409179688
0, 2, 87, 287.9841003417969
0, 2, 88, 280.3694763183594
0, 2, 89, 296.8978271484375
0, 2, 90, 295.1681823730469
0, 2, 91, 276.4409484863281
0, 2, 92, 306.1324768066406
0, 2, 93, 316.7356872558594
0, 2, 94, 291.73974609375
0, 2, 95, 316.3901062011719
0, 2, 96, 316.021240234375
0, 2, 97, 290.388427734375
0, 2, 98, 293.2384338378906
0, 2, 99, 273.7188720703125
0, 2, 100, 305.4641418457031
0, 2, 101, 301.8453674316406
0, 2, 102, 296.0350341796875
0, 2, 103, 292.421142578125
0, 2, 104, 292.5411682128906
0, 2, 105, 273.4144897460938
0, 2, 106, 296.0153503417969
0, 2, 107, 269.2729797363281
0, 2, 108, 117.6876983642578
0, 2, 109, 32.64624404907227
0, 2, 110, 10.3433723449707
0, 2, 111, 12.68693065643311
0, 2, 112, 7.419028282165527
0, 2, 113, 9.886876106262207
0, 2, 114, 11.31966781616211
0, 2, 115, 9.17227840423584
0, 2, 116, 8.517332077026367
0, 2, 117, 7.298732757568359
0, 2, 118, 5.324234485626221
0, 2, 119, 4.6285400390625
0, 2, 120, 7.541479110717773
0, 2, 121, 1.796231746673584
0, 2, 122, 3.312923908233643
0, 2, 123, 4.154470443725586
0, 2, 124, 2.407193183898926
0, 2, 125, 5.50368595123291
0, 2, 126, 3.718260765075684
0, 2, 127, 6.119187831878662
0, 3, 0, 3.093804121017456
0, 3, 1, 2.600033283233643
0, 3, 2, 3.943140745162964
0, 3, 3, 1.868523955345154
0, 3, 4, 3.47827935218811
0, 3, 5, 5.876015663146973
0, 3, 6, 6.450338363647461
0, 3, 7, 4.679660797119141
0, 3, 8, 5.945861339569092
0, 3, 9, 7.785209178924561
0, 3, 10, 5.694395065307617
0, 3, 11, 5.811755657196045
0, 3, 12, 8.681537628173828
0, 3, 13, 15.46557140350342
0, 3, 14, 11.82510852813721
0, 3, 15, 14.21424007415771
0, 3, 16, 12.43932819366455
0, 3, 17, 21.97103309631348
0, 3, 18, 52.54165267944336
0, 3, 19, 174.1494903564453
0, 3, 20, 269.5752563476562
0, 3, 21, 270.0162658691406
0, 3, 22, 283.1434326171875
0, 3, 23, 286.9270324707031
0, 3, 24, 286.24365234375
0, 3, 25, 270.9622497558594
0, 3, 26, 303.5631408691406
0, 3, 27, 292.138427734375
0, 3, 28, 279.4056091308594
0, 3, 29, 340.3321533203125
0, 3, 30, 316.6426391601562
0, 3, 31, 285.4558410644531
0, 3, 32, 307.2850952148438
0, 3, 33, 314.182373046875
0, 3, 34, 321.1549682617188
0, 3, 35, 306.0627746582031
0, 3, 36, 268.4326477050781
0, 3, 37, 311.9145812988281
0, 3, 38, 303.7202453613281
0, 3, 39, 290.0707702636719
0, 3, 40, 265.3927612304688
0, 3, 41, 303.8023376464844
0, 3, 42, 284.6794128417969
0, 3, 43, 307.5056457519531
0, 3, 44, 310.2344970703125
0, 3, 45, 289.7239990234375
0, 3, 46, 329.2917175292969
0, 3, 47, 298.7354736328125
0, 3, 48, 303.0090637207031
0, 3, 49, 278.2654113769531
0, 3, 50, 288.8426208496094
0, 3, 51, 275.5075988769531
0, 3, 52, 315.24169921875
0, 3, 53, 286.4125061035156
0, 3, 54, 283.9284362792969
0, 3, 55, 284.2213134765625
0, 3, 56, 298.4768371582031
0, 3, 57, 287.5865173339844
0, 3, 58, 307.9288024902344
0, 3, 59, 295.8257446289062
0, 3, 60, 297.1410522460938
0, 3, 61, 265.0148315429688
0, 3, 62, 282.3061828613281
0, 3, 63, 305.6539611816406
0, 3, 64, 316.1124267578125
0, 3, 65, 307.8977661132812
0, 3, 66, 314.4819641113281
0, 3, 67, 318.4517822265625
0, 3, 68, 281.2974243164062
0, 3, 69, 284.1178894042969
0, 3, 70, 288.8094787597656
0, 3, 71, 299.1108093261719
0, 3, 72, 267.5519409179688
0, 3, 73, 306.0184326171875
0, 3, 74, 294.0919799804688
0, 3, 75, 291.7465209960938
0, 3, 76, 305.3096313476562
0, 3, 77, 317.2991943359375
0, 3, 78, 305.80419921875
0, 3, 79, 281.2431335449219
0, 3, 80, 291.3564758300781
0, 3, 81, 310.3914489746094
0, 3, 82, 314.9981079101562
0, 3, 83, 301.1217651367188
0, 3, 84, 310.8912658691406
0, 3, 85, 293.5975646972656
0, 3, 86, 300.6777954101562
0, 3, 87, 296.8591003417969
0, 3, 88, 301.7589111328125
0, 3, 89, 295.5466613769531
0, 3, 90, 276.5561218261719
0, 3, 91, 283.7911376953125
0, 3, 92, 306.0475769042969
0, 3, 93, 315.4949035644531
0, 3, 94, 296.7771911621094
0, 3, 95, 332.5489807128906
0, 3, 96, 291.0203247070312
0, 3, 97, 286.6849670410156
0, 3, 98, 278.662109375
0, 3, 99, 261.623779296875
0, 3, 100, 284.2890319824219
0, 3, 101, 296.4153442382812
0, 3, 102, 273.7106628417969
0, 3, 103, 320.1971740722656
0, 3, 104, 308.8087158203125
0, 3, 105, 287.2000732421875
0, 3, 106, 301.9882202148438
0, 3, 107, 282.5802307128906
0, 3, 108, 167.2366027832031
0, 3, 109, 55.91256713867188
0, 3, 110, 18.35083198547363
0, 3, 111, 13.12906837463379
0, 3, 112, 12.69129180908203
0, 3, 113, 6.592185974121094
0, 3, 114, 9.133975982666016
0, 3, 115, 7.114537715911865
0, 3, 116, 8.452917098999023
0, 3, 117, 7.073721408843994
0, 3, 118, 9.363654136657715
0, 3, 119, 3.474309921264648
0, 3, 120, 7.462160587310791
0, 3, 121, 3.368942975997925
0, 3, 122, 2.176750183105469
0, 3, 123, 5.216641426086426
0, 3, 124, 4.21054744720459
0, 3, 125, 8.069247245788574
0, 3, 126, 5.723197937011719
0, 3, 127, 2.597407579421997
0, 4, 0, 2.344617366790771
0, 4, 1, 4.599284648895264
0, 4, 2, 2.79428505897522
0, 4, 3, 2.38987135887146
0, 4, 4, 6.923889636993408
0, 4, 5, 8.753528594970703
0, 4, 6, 10.92029094696045
0, 4, 7, 4.907001495361328
0, 4, 8, 6.04311990737915
0, 4, 9, 5.432937145233154
0, 4, 10, 9.015215873718262
0, 4, 11, 5.767093181610107
0, 4, 12, 5.930467128753662
0, 4, 13, 7.929456233978271
0, 4, 14, 11.32172203063965
0, 4, 15, 8.38955020904541
0, 4, 16, 12.7585506439209
0, 4, 17, 21.74346923828125
0, 4, 18, 92.23445129394531
0, 4, 19, 221.8332061767578
0, 4, 20, 285.3937683105469
0, 4, 21, 270.7962951660156
0, 4, 22, 304.9166870117188
0, 4, 23, 266.8799438476562
0, 4, 24, 290.8644104003906
0, 4, 25, 272.7271118164062
0, 4, 26, 295.8484802246094
0, 4, 27, 282.4550476074219
0, 4, 28, 305.7040710449219
0, 4, 29, 322.891845703125
0, 4, 30, 309.655029296875
0, 4, 31, 304.3728637695312
0, 4, 32, 281.7886657714844
0, 4, 33, 298.0998840332031
0, 4, 34, 295.8622131347656
0, 4, 35, 311.658203125
0, 4, 36, 292.4656982421875
0, 4, 37, 287.3778381347656
0, 4, 38, 297.7784729003906
0, 4, 39, 294.6115112304688
0, 4, 40, 301.648193359375
0, 4, 41, 310.481201171875
0, 4, 42, 327.5386352539062
0, 4, 43, 295.3072509765625
0, 4, 44, 319.4617919921875
0, 4, 45, 323.3172607421875
0, 4, 46, 306.6048278808594
0, 4, 47, 293.7250061035156
0, 4, 48, 295.0686950683594
0, 4, 49, 278.4764709472656
0, 4, 50, 296.7105712890625
0, 4, 51, 314.9876098632812
0, 4, 52, 327.3866271972656
0, 4, 53, 304.1757507324219
0, 4, 54, 287.6473388671875
0, 4, 55, 314.7058410644531
0, 4, 56, 288.6807556152344
0, 4, 57, 311.2492370605469
0, 4, 58, 296.914306640625
0, 4, 59, 307.97216796875
0, 4, 60, 301.652587890625
0, 4, 61, 315.9704284667969
0, 4, 62, 311.2000122070312
0, 4, 63, 303.2866821289062
0, 4, 64, 328.9936828613281
0, 4, 65, 315.9394836425781
0, 4, 66, 292.9571533203125
0, 4, 67, 284.3087768554688
0, 4, 68, 312.5362548828125
0, 4, 69, 276.0656127929688
0, 4, 70, 300.07421875
0, 4, 71, 321.14892578125
0, 4, 72, 331.4400024414062
0, 4, 73, 297.3078918457031
0, 4, 74, 293.381103515625
0, 4, 75, 289.3086242675781
0, 4, 76, 276.4780578613281
0, 4, 77, 278.3081970214844
0, 4, 78, 308.0911865234375
0, 4, 79, 319.9040222167969
0, 4, 80, 317.5124206542969
0, 4, 81, 314.5463256835938
0, 4, 82, 297.5492553710938
0, 4, 83, 302.8758239746094
0, 4, 84, 290.4959716796875
0, 4, 85, 295.0251770019531
0, 4, 86, 297.1367492675781
0, 4, 87, 286.0431823730469
0, 4, 88, 306.8706970214844
0, 4, 89, 295.7260437011719
0, 4, 90, 333.9369506835938
0, 4, 91, 306.08447265625
0, 4, 92, 293.0933532714844
0, 4, 93, 297.0459899902344
0, 4, 94, 291.0711669921875
0, 4, 95, 288.7130126953125
0, 4, 96, 323.1204833984375
0, 4, 97, 273.6141662597656
0, 4, 98, 326.4498596191406
0, 4, 99, 312.465087890625
0, 4, 100, 300.0596618652344
0, 4, 101, 257.451416015625
0, 4, 102, 298.0228271484375
0, 4, 103, 317.2138366699219
0, 4, 104, 281.5769958496094
0, 4, 105, 310.1695251464844
0, 4, 106, 288.5261535644531
0, 4, 107, 296.14599609375
0, 4, 108, 224.496826171875
0, 4, 109, 79.21706390380859
0, 4, 110, 15.7049503326416
0, 4, 111, 14.7073278427124
0, 4, 112, 8.873973846435547
0, 4, 113, 8.20057201385498
0, 4, 114, 7.725554466247559
0, 4, 115, 9.448210716247559
0, 4, 116, 9.579288482666016
0, 4, 117, 6.340954780578613
0, 4, 118, 9.369655609130859
0, 4, 119, 11.08523464202881
0, 4, 120, 5.763344287872314
0, 4, 121, 4.831599235534668
0, 4, 122, 3.440568685531616
0, 4, 123, 6.218235969543457
0, 4, 124, 6.636886596679688
0, 4, 125, 11.0737886428833
0, 4, 126, 6.921592712402344
0, 4, 127, 3.92394232749939
0, 5, 0, 2.937686204910278
0, 5, 1, 2.742412090301514
0, 5, 2, 5.72152853012085
0, 5, 3, 6.593552589416504
0, 5, 4, 5.099873065948486
0, 5, 5, 8.702066421508789
0, 5, 6, 10.72983741760254
0, 5, 7, 5.358879089355469
0, 5, 8, 4.116861820220947
0, 5, 9, 4.456294536590576
0, 5, 10, 6.325652599334717
0, 5, 11, 8.84816837310791
0, 5, 12, 7.416815280914307
0, 5, 13, 4.585998058319092
0, 5, 14, 10.45902156829834
0, 5, 15, 17.010009765625
0, 5, 16, 15.70466613769531
0, 5, 17, 29.3551025390625
0, 5, 18, 136.3305969238281
0, 5, 19, 287.2332458496094
0, 5, 20, 307.7804260253906
0, 5, 21, 319.3885498046875
0, 5, 22, 277.6668701171875
0, 5, 23, 313.7078247070312
0, 5, 24, 302.4945068359375
0, 5, 25, 289.1301879882812
0, 5, 26, 293.5787658691406
0, 5, 27, 323.1934204101562
0, 5, 28, 303.0893249511719
0, 5, 29, 299.0749206542969
0, 5, 30, 323.3199768066406
0, 5, 31, 285.8590698242188
0, 5, 32, 309.55810546875
0, 5, 33, 304.7422180175781
0, 5, 34, 297.043212890625
0, 5, 35, 309.4241638183594
0, 5, 36, 270.8849792480469
0, 5, 37, 282.2103576660156
0, 5, 38, 296.6417846679688
0, 5, 39, 314.3523559570312
0, 5, 40, 307.4586791992188
0, 5, 41, 273.6278076171875
0, 5, 42, 304.3998718261719
0, 5, 43, 315.420166015625
0, 5, 44, 292.4950256347656
0, 5, 45, 301.5158996582031
0, 5, 46, 266.0610046386719
0, 5, 47, 283.1747131347656
0, 5, 48, 295.874267578125
0, 5, 49, 285.6238403320312
0, 5, 50, 293.1376647949219
0, 5, 51, 279.6709899902344
0, 5, 52, 268.73583984375
0, 5, 53, 285.6310119628906
0, 5, 54, 293.1289978027344
0, 5, 55, 344.1819763183594
0, 5, 56, 304.6773071289062
0, 5, 57, 305.9490356445312
0, 5, 58, 312.0659484863281
0, 5, 59, 302.6089172363281
0, 5, 60, 306.4176025390625
0, 5, 61, 281.0264282226562
0, 5, 62, 324.4726257324219
0, 5, 63, 291.3140869140625
0, 5, 64, 323.9048767089844
0, 5, 65, 310.14990234375
0, 5, 66, 326.6244506835938
0, 5, 67, 314.3359069824219
0, 5, 68, 307.544677734375
0, 5, 69, 310.5697326660156
0, 5, 70, 302.2645263671875
0, 5, 71, 271.9456481933594
0, 5, 72, 310.6287841796875
0, 5, 73, 302.0863647460938
0, 5, 74, 294.565673828125
0, 5, 75, 293.4726867675781
0, 5, 76, 284.3565673828125
0, 5, 77, 297.7304077148438
0, 5, 78, 322.2529907226562
0, 5, 79, 308.6310729980469
0, 5, 80, 295.1580505371094
0, 5, 81, 325.8392333984375
0, 5, 82, 322.8771362304688
0, 5, 83, 281.7133483886719
0, 5, 84, 301.6710510253906
0, 5, 85, 272.3622436523438
0, 5, 86, 326.2313537597656
0, 5, 87, 285.2626647949219
0, 5, 88, 312.3894653320312
0, 5, 89, 305.5017700195312
0, 5, 90, 315.6988220214844
0, 5, 91, 313.6275939941406
0, 5, 92, 298.4390869140625
0, 5, 93, 322.6437072753906
0, 5, 94, 306.9507141113281
0, 5, 95, 295.4290771484375
0, 5, 96, 295.9728393554688
0, 5, 97, 296.5194091796875
0, 5, 98, 319.2088928222656
0, 5, 99, 302.3937683105469
0, 5, 100, 290.6261901855469
0, 5, 101, 304.6602172851562
0, 5, 102, 292.4754028320312
0, 5, 103, 313.829345703125
0, 5, 104, 302.4882202148438
0, 5, 105, 292.6264343261719
0, 5, 106, 281.8491516113281
0, 5, 107, 291.7702331542969
0, 5, 108, 267.2623291015625
0, 5, 109, 157.0771331787109
0, 5, 110, 40.38392639160156
0, 5, 111, 20.4815731048584
0, 5, 112, 15.29533576965332
0, 5, 113, 13.35112285614014
0, 5, 114, 13.48199844360352
0, 5, 115, 9.211954116821289
0, 5, 116, 7.77141809463501
0, 5, 117, 7.270828723907471
0, 5, 118, 11.42064762115479
0, 5, 119, 4.107034206390381
0, 5, 120, 6.817807674407959
0, 5, 121, 6.620746612548828
0, 5, 122, 4.306922912597656
0, 5, 123, 3.81647515296936
0, 5, 124, 5.849520206451416
0, 5, 125, 5.402281284332275
0, 5, 126, 6.773702621459961
0, 5, 127, 4.565409660339355
0, 6, 0, 4.712991714477539
0, 6, 1, 2.656962871551514
0, 6, 2, 5.544193744659424
0, 6, 3, 5.416704177856445
0, 6, 4, 4.071327209472656
0, 6, 5, 5.436942577362061
0, 6, 6, 8.076474189758301
0, 6, 7, 5.033908367156982
0, 6, 8, 7.56782341003418
0, 6, 9, 8.260333061218262
0, 6, 10, 8.152926445007324
0, 6, 11, 7.837502956390381
0, 6, 12, 7.431748867034912
0, 6, 13, 12.37087249755859
0, 6, 14, 10.29931449890137
0, 6, 15, 16.38323593139648
0, 6, 16, 27.72417259216309
0, 6, 17, 53.62799072265625
0, 6, 18, 172.6772613525391
0, 6, 19, 278.4255676269531
0, 6, 20, 291.3179321289062
0, 6, 21, 314.4145812988281
0, 6, 22, 320.9125366210938
0, 6, 23, 305.7777404785156
0, 6, 24, 315.5350341796875
0, 6, 25, 316.7257690429688
0, 6, 26, 323.1957397460938
0, 6, 27, 331.6104125976562
0, 6, 28, 294.83447265625
0, 6, 29, 329.1382446289062
0, 6, 30, 282.0201110839844
0, 6, 31, 286.6465148925781
0, 6, 32, 340.8130187988281
0, 6, 33, 300.3237609863281
0, 6, 34, 339.4646301269531
0, 6, 35, 319.9492492675781
0, 6, 36, 271.8731384277344
0, 6, 37, 289.0762634277344
0, 6, 38, 312.4448852539062
0, 6, 39, 297.4831237792969
0, 6, 40, 284.2152099609375
0, 6, 41, 297.6045227050781
0, 6, 42, 305.5341491699219
0, 6, 43, 288.2318115234375
0, 6, 44, 282.7842102050781
0, 6, 45, 319.790283203125
0, 6, 46, 300.6329040527344
0, 6, 47, 332.5516357421875
0, 6, 48, 292.8267517089844
0, 6, 49, 311.6328735351562
0, 6, 50, 328.3670043945312
0, 6, 51, 311.3949890136719
0, 6, 52, 320.1711730957031
0, 6, 53, 330.9773559570312
0, 6, 54, 303.8536376953125
0, 6, 55, 305.5989990234375
0, 6, 56, 296.5435180664062
0, 6, 57, 313.5521850585938
0, 6, 58, 261.873046875
0, 6, 59, 302.3601379394531
0, 6, 60, 312.0577392578125
0, 6, 61, 271.8314208984375
0, 6, 62, 334.2854309082031
0, 6, 63, 322.699462890625
0, 6, 64, 292.0461120605469
0, 6, 65, 283.9391479492188
0, 6, 66, 303.2732238769531
0, 6, 67, 310.4429626464844
0, 6, 68, 297.4328308105469
0, 6, 69, 278.8089294433594
0, 6, 70, 274.5127563476562
0, 6, 71, 288.9002685546875
0, 6, 72, 313.4645385742188
0, 6, 73, 291.9155883789062
0, 6, 74, 330.8086242675781
0, 6, 75, 345.5204162597656
0, 6, 76, 297.0390930175781
0, 6, 77, 285.3393249511719
0, 6, 78, 278.4569396972656
0, 6, 79, 292.8750915527344
0, 6, 80, 299.6847839355469
0, 6, 81, 315.3934326171875
0, 6, 82, 318.7547607421875
0, 6, 83, 322.5930786132812
0, 6, 84, 296.7565307617188
0, 6, 85, 301.1279907226562
0, 6, 86, 330.4181213378906
0, 6, 87, 291.9190673828125
0, 6, 88, 305.28125
0, 6, 89, 306.612060546875
0, 6, 90, 300.1061706542969
0, 6, 91, 311.9721984863281
0, 6, 92, 286.1343078613281
0, 6, 93, 293.6942443847656
0, 6, 94, 275.7197875976562
0, 6, 95, 301.0334777832031
0, 6, 96, 349.9295349121094
0, 6, 97, 308.7320251464844
0, 6, 98, 302.9950866699219
0, 6, 99, 271.6812133789062
0, 6, 100, 309.2794189453125
0, 6, 101, 292.1284790039062
0, 6, 102, 306.6463623046875
0, 6, 103, 308.3350524902344
0, 6, 104, 291.5049133300781
0, 6, 105, 299.8397216796875
0, 6, 106, 306.7746276855469
0, 6, 107, 304.5440673828125
0, 6, 108, 266.0252990722656
0, 6, 109, 186.6919097900391
0, 6, 110, 54.83401107788086
0, 6, 111, 21.50069236755371
0, 6, 112, 12.30336856842041
0, 6, 113, 12.5303201675415
0, 6, 114, 12.81746768951416
0, 6, 115, 12.27982234954834
0, 6, 116, 8.701523780822754
0, 6, 117, 7.343400001525879
0, 6, 118, 9.433452606201172
0, 6, 119, 10.69435119628906
0, 6, 120, 4.737973690032959
0, 6, 121, 6.947699546813965
0, 6, 122, 6.744296550750732
0, 6, 123, 4.536457061767578
0, 6, 124, 6.278555393218994
0, 6, 125, 6.61993408203125
0, 6, 126, 6.535628795623779
0, 6, 127, 6.471746444702148
0, 7, 0, 4.076191902160645
0, 7, 1, 3.651732683181763
0, 7, 2, 5.471529006958008
0, 7, 3, 6.119387626647949
0, 7, 4, 5.707501888275146
0, 7, 5, 3.203735113143921
0, 7, 6, 7.001491069793701
0, 7, 7, 4.054548263549805
0, 7, 8, 5.006447315216064
0, 7, 9, 11.07674407958984
0, 7, 10, 7.870959758758545
0, 7, 11, 12.19940280914307
0, 7, 12, 9.209132194519043
0, 7, 13, 10.98242473602295
0, 7, 14, 11.68703079223633
0, 7, 15, 16.23995590209961
0, 7, 16, 25.59904670715332
0, 7, 17, 97.44534301757812
0, 7, 18, 219.4711303710938
0, 7, 19, 292.1367797851562
0, 7, 20, 297.0107116699219
0, 7, 21, 278.2955322265625
0, 7, 22, 299.1283264160156
0, 7, 23, 291.8783874511719
0, 7, 24, 311.8977966308594
0, 7, 25, 328.2571105957031
0, 7, 26, 278.4244384765625
0, 7, 27, 297.8493347167969
0, 7, 28, 326.8229370117188
0, 7, 29, 317.4955444335938
0, 7, 30, 302.1378479003906
0, 7, 31, 278.634521484375
0, 7, 32, 304.1634521484375
0, 7, 33, 264.9654541015625
0, 7, 34, 298.0679321289062
0, 7, 35, 320.6759033203125
0, 7, 36, 333.9686889648438
0, 7, 37, 327.737060546875
0, 7, 38, 296.0887451171875
0, 7, 39, 306.8569641113281
0, 7, 40, 291.2566833496094
0, 7, 41, 270.8046875
0, 7, 42, 300.541259765625
0, 7, 43, 275.3971557617188
0, 7, 44, 304.1793518066406
0, 7, 45, 297.2190856933594
0, 7, 46, 281.9201354980469
0, 7, 47, 326.6907043457031
0, 7, 48, 287.1888427734375
0, 7, 49, 303.1776123046875
0, 7, 50, 321.625244140625
0, 7, 51, 298.79248046875
0, 7, 52, 328.7746276855469
0, 7, 53, 309.2298583984375
0, 7, 54, 323.5073547363281
0, 7, 55, 306.2083435058594
0, 7, 56, 279.5556030273438
0, 7, 57, 284.0943603515625
0, 7, 58, 297.5943298339844
0, 7, 59, 293.0889587402344
0, 7, 60, 321.6885375976562
0, 7, 61, 277.3407897949219
0, 7, 62, 297.3909606933594
0, 7, 63, 292.8829345703125
0, 7, 64, 307.4759521484375
0, 7, 65, 331.0478210449219
0, 7, 66, 318.0779418945312
0, 7, 67, 301.5740661621094
0, 7, 68, 280.0155639648438
0, 7, 69, 296.4104309082031
0, 7, 70, 301.8274536132812
0, 7, 71, 310.212646484375
0, 7, 72, 285.8787536621094
0, 7, 73, 297.1549377441406
0, 7, 74, 344.6571960449219
0, 7, 75, 319.3283386230469
0, 7, 76, 323.6236572265625
0, 7, 77, 282.0182800292969
0, 7, 78, 298.7041015625
0, 7, 79, 297.7157287597656
0, 7, 80, 311.2730102539062
0, 7, 81, 319.4757995605469
0, 7, 82, 328.6144714355469
0, 7, 83, 316.5768127441406
0, 7, 84, 310.7506103515625
0, 7, 85, 272.3499450683594
0, 7, 86, 311.287109375
0, 7, 87, 309.2711486816406
0, 7, 88, 309.3945922851562
0, 7, 89, 293.5498352050781
0, 7, 90, 310.5468139648438
0, 7, 91, 315.3401489257812
0, 7, 92, 288.0286254882812
0, 7, 93, 307.45361328125
0, 7, 94, 272.5352783203125
0, 7, 95, 298.4031982421875
0, 7, 96, 330.7489624023438
0, 7, 97, 294.9795837402344
0, 7, 98, 291.5021667480469
0, 7, 99, 313.3018188476562
0, 7, 100, 281.3245544433594
0, 7, 101, 274.430908203125
0, 7, 102, 291.739990234375
0, 7, 103, 291.59521484375
0, 7, 104, 275.2057800292969
0, 7, 105, 305.9067077636719
0, 7, 106, 317.9211120605469
0, 7, 107, 298.0891418457031
0, 7, 108, 273.0446472167969
0, 7, 109, 237.9295043945312
0, 7, 110, 97.21083831787109
0, 7, 111, 25.69646263122559
0, 7, 112, 12.78538608551025
0, 7, 113, 14.21459102630615
0, 7, 114, 12.7874927520752
0, 7, 115, 11.07235717773438
0, 7, 116, 11.11709880828857
0, 7, 117, 5.913987636566162
0, 7, 118, 7.509787559509277
0, 7, 119, 5.320749759674072
0, 7, 120, 5.620121479034424
0, 7, 121, 5.582195281982422
0, 7, 122, 5.611259937286377
0, 7, 123, 5.237552642822266
0, 7, 124, 2.778315305709839
0, 7, 125, 7.744736671447754
0, 7, 126, 7.342135429382324
0, 7, 127, 3.323438167572021
0, 8, 0, 6.217160701751709
0, 8, 1, 6.445836067199707
0, 8, 2, 3.633350849151611
0, 8, 3, 1.924199342727661
0, 8, 4, 6.198196887969971
0, 8, 5, 4.112468719482422
0, 8, 6, 4.902109622955322
0, 8, 7, 4.2684645652771
0, 8, 8, 10.14382362365723
0, 8, 9, 4.816163539886475
0, 8, 10, 7.524290561676025
0, 8, 11, 12.37103462219238
0, 8, 12, 14.13676166534424
0, 8, 13, 17.34427070617676
0, 8, 14, 13.60345363616943
0, 8, 15, 17.32843399047852
0, 8, 16, 32.7247428894043
0, 8, 17, 131.4856262207031
0, 8, 18, 242.69091796875
0, 8, 19, 296.1338195800781
0, 8, 20, 284.9237060546875
0, 8, 21, 307.0874328613281
0, 8, 22, 296.229736328125
0, 8, 23, 275.9278259277344
0, 8, 24, 268.59033203125
0, 8, 25, 273.8064880371094
0, 8, 26, 305.0530700683594
0, 8, 27, 307.9572143554688
0, 8, 28, 305.3023681640625
0, 8, 29, 320.2882995605469
0, 8, 30, 313.1947631835938
0, 8, 31, 304.89208984375
0, 8, 32, 281.2919006347656
0, 8, 33, 292.8280029296875
0, 8, 34, 287.7867126464844
0, 8, 35, 280.5966491699219
0, 8, 36, 316.3256225585938
0, 8, 37, 339.9282836914062
0, 8, 38, 331.7163696289062
0, 8, 39, 280.7879333496094
0, 8, 40, 306.2895202636719
