# TOPAS Version: 3.1.p3
# Parameter File: batch_inserts_46.txt
# Results for scorer Readout_Adipose
# Scored in component: MyBox
# X in 1 bin  of 0.75 cm
# Y in 512 bins of 0.0783984 cm
# Z in 128 bins of 0.078125 cm
# EnergyDeposit ( MeV ) : Sum   
0, 0, 0, 22.73904800415039
0, 0, 1, 22.85505104064941
0, 0, 2, 24.9459171295166
0, 0, 3, 22.98758506774902
0, 0, 4, 19.35848426818848
0, 0, 5, 22.28538513183594
0, 0, 6, 23.59458541870117
0, 0, 7, 32.54097747802734
0, 0, 8, 23.20844078063965
0, 0, 9, 19.58080673217773
0, 0, 10, 27.03216934204102
0, 0, 11, 26.16754913330078
0, 0, 12, 34.57711029052734
0, 0, 13, 30.83241653442383
0, 0, 14, 35.81922149658203
0, 0, 15, 46.54440307617188
0, 0, 16, 44.09345626831055
0, 0, 17, 48.39079284667969
0, 0, 18, 74.99777984619141
0, 0, 19, 193.2123413085938
0, 0, 20, 700.3568115234375
0, 0, 21, 1190.729370117188
0, 0, 22, 1248.743896484375
0, 0, 23, 1272.517944335938
0, 0, 24, 1279.481323242188
0, 0, 25, 1357.002075195312
0, 0, 26, 1272.497436523438
0, 0, 27, 1278.961181640625
0, 0, 28, 1321.147705078125
0, 0, 29, 1265.993286132812
0, 0, 30, 1263.063354492188
0, 0, 31, 1282.815795898438
0, 0, 32, 1269.64990234375
0, 0, 33, 1240.438110351562
0, 0, 34, 1326.643676757812
0, 0, 35, 1299.518920898438
0, 0, 36, 1245.395751953125
0, 0, 37, 1280.387573242188
0, 0, 38, 1246.590942382812
0, 0, 39, 1244.355590820312
0, 0, 40, 1220.550170898438
0, 0, 41, 1272.782470703125
0, 0, 42, 1252.07177734375
0, 0, 43, 1266.810668945312
0, 0, 44, 1223.939331054688
0, 0, 45, 1293.210083007812
0, 0, 46, 1263.77978515625
0, 0, 47, 1242.749389648438
0, 0, 48, 1278.786987304688
0, 0, 49, 1286.376831054688
0, 0, 50, 1307.119018554688
0, 0, 51, 1259.647216796875
0, 0, 52, 1367.411010742188
0, 0, 53, 1326.713500976562
0, 0, 54, 1293.613037109375
0, 0, 55, 1236.747314453125
0, 0, 56, 1319.300659179688
0, 0, 57, 1295.069213867188
0, 0, 58, 1256.429077148438
0, 0, 59, 1330.977416992188
0, 0, 60, 1325.230346679688
0, 0, 61, 1259.437744140625
0, 0, 62, 1242.784790039062
0, 0, 63, 1281.361328125
0, 0, 64, 1330.6416015625
0, 0, 65, 1283.821411132812
0, 0, 66, 1313.750122070312
0, 0, 67, 1213.864990234375
0, 0, 68, 1310.678344726562
0, 0, 69, 1327.364013671875
0, 0, 70, 1343.97998046875
0, 0, 71, 1284.422729492188
0, 0, 72, 1310.436767578125
0, 0, 73, 1241.382934570312
0, 0, 74, 1291.84375
0, 0, 75, 1301.052734375
0, 0, 76, 1255.295288085938
0, 0, 77, 1286.480590820312
0, 0, 78, 1312.293701171875
0, 0, 79, 1323.187377929688
0, 0, 80, 1260.51220703125
0, 0, 81, 1323.136840820312
0, 0, 82, 1286.274291992188
0, 0, 83, 1291.526611328125
0, 0, 84, 1325.8916015625
0, 0, 85, 1235.929321289062
0, 0, 86, 1264.629272460938
0, 0, 87, 1252.446655273438
0, 0, 88, 1258.002197265625
0, 0, 89, 1337.151611328125
0, 0, 90, 1274.922607421875
0, 0, 91, 1357.325805664062
0, 0, 92, 1300.652587890625
0, 0, 93, 1279.458129882812
0, 0, 94, 1239.654052734375
0, 0, 95, 1326.531494140625
0, 0, 96, 1281.7939453125
0, 0, 97, 1327.411987304688
0, 0, 98, 1255.352661132812
0, 0, 99, 1252.008911132812
0, 0, 100, 1283.683715820312
0, 0, 101, 1314.020874023438
0, 0, 102, 1233.7236328125
0, 0, 103, 1327.026733398438
0, 0, 104, 1265.39892578125
0, 0, 105, 1270.680541992188
0, 0, 106, 1207.311645507812
0, 0, 107, 782.1296997070312
0, 0, 108, 196.7325439453125
0, 0, 109, 69.87562561035156
0, 0, 110, 62.96556854248047
0, 0, 111, 43.94257354736328
0, 0, 112, 34.0601692199707
0, 0, 113, 29.59963989257812
0, 0, 114, 33.88637924194336
0, 0, 115, 30.47456932067871
0, 0, 116, 24.25439071655273
0, 0, 117, 32.35405731201172
0, 0, 118, 21.82774925231934
0, 0, 119, 21.52233123779297
0, 0, 120, 20.80134010314941
0, 0, 121, 24.8675594329834
0, 0, 122, 22.23167991638184
0, 0, 123, 17.96504211425781
0, 0, 124, 18.8195686340332
0, 0, 125, 19.06347274780273
0, 0, 126, 24.39146041870117
0, 0, 127, 16.33291435241699
0, 1, 0, 19.19606018066406
0, 1, 1, 21.20351600646973
0, 1, 2, 22.71676635742188
0, 1, 3, 21.68978309631348
0, 1, 4, 19.5932674407959
0, 1, 5, 21.1265926361084
0, 1, 6, 26.03521156311035
0, 1, 7, 25.50125122070312
0, 1, 8, 31.28009223937988
0, 1, 9, 32.27660369873047
0, 1, 10, 36.13710021972656
0, 1, 11, 41.79074859619141
0, 1, 12, 39.44137954711914
0, 1, 13, 43.37680435180664
0, 1, 14, 42.08647918701172
0, 1, 15, 50.06514739990234
0, 1, 16, 59.35003280639648
0, 1, 17, 63.74680709838867
0, 1, 18, 97.08145904541016
0, 1, 19, 400.4737854003906
0, 1, 20, 1042.161499023438
0, 1, 21, 1372.455932617188
0, 1, 22, 1473.550048828125
0, 1, 23, 1458.160888671875
0, 1, 24, 1446.285766601562
0, 1, 25, 1417.535766601562
0, 1, 26, 1473.062744140625
0, 1, 27, 1467.627197265625
0, 1, 28, 1491.357666015625
0, 1, 29, 1478.093627929688
0, 1, 30, 1508.258422851562
0, 1, 31, 1485.47314453125
0, 1, 32, 1410.528930664062
0, 1, 33, 1499.44580078125
0, 1, 34, 1504.8603515625
0, 1, 35, 1462.2080078125
0, 1, 36, 1487.10302734375
0, 1, 37, 1410.839599609375
0, 1, 38, 1389.236450195312
0, 1, 39, 1523.696166992188
0, 1, 40, 1464.346923828125
0, 1, 41, 1484.668090820312
0, 1, 42, 1496.826293945312
0, 1, 43, 1501.123779296875
0, 1, 44, 1449.168334960938
0, 1, 45, 1488.947143554688
0, 1, 46, 1416.512329101562
0, 1, 47, 1433.773559570312
0, 1, 48, 1431.014526367188
0, 1, 49, 1485.699951171875
0, 1, 50, 1444.339721679688
0, 1, 51, 1479.660278320312
0, 1, 52, 1482.00341796875
0, 1, 53, 1476.020385742188
0, 1, 54, 1499.190551757812
0, 1, 55, 1499.42626953125
0, 1, 56, 1467.289184570312
0, 1, 57, 1456.361694335938
0, 1, 58, 1429.900512695312
0, 1, 59, 1480.288208007812
0, 1, 60, 1467.869873046875
0, 1, 61, 1450.619018554688
0, 1, 62, 1456.944091796875
0, 1, 63, 1419.2587890625
0, 1, 64, 1474.701293945312
0, 1, 65, 1416.342041015625
0, 1, 66, 1436.5546875
0, 1, 67, 1452.503540039062
0, 1, 68, 1384.025512695312
0, 1, 69, 1459.31787109375
0, 1, 70, 1434.987915039062
0, 1, 71, 1500.735229492188
0, 1, 72, 1438.71875
0, 1, 73, 1490.151611328125
0, 1, 74, 1469.463745117188
0, 1, 75, 1480.977783203125
0, 1, 76, 1457.826171875
0, 1, 77, 1468.64013671875
0, 1, 78, 1446.694580078125
0, 1, 79, 1503.875
0, 1, 80, 1445.807250976562
0, 1, 81, 1423.340087890625
0, 1, 82, 1473.679321289062
0, 1, 83, 1461.861938476562
0, 1, 84, 1534.859252929688
0, 1, 85, 1447.754516601562
0, 1, 86, 1407.025756835938
0, 1, 87, 1418.271362304688
0, 1, 88, 1474.669311523438
0, 1, 89, 1473.135009765625
0, 1, 90, 1424.159912109375
0, 1, 91, 1463.60888671875
0, 1, 92, 1417.488647460938
0, 1, 93, 1460.611450195312
0, 1, 94, 1469.505615234375
0, 1, 95, 1417.54833984375
0, 1, 96, 1499.3935546875
0, 1, 97, 1524.117919921875
0, 1, 98, 1481.809448242188
0, 1, 99, 1418.171997070312
0, 1, 100, 1449.666137695312
0, 1, 101, 1413.47412109375
0, 1, 102, 1438.238159179688
0, 1, 103, 1418.173828125
0, 1, 104, 1408.101440429688
0, 1, 105, 1460.231567382812
0, 1, 106, 1363.899536132812
0, 1, 107, 1020.281921386719
0, 1, 108, 408.1163635253906
0, 1, 109, 87.84420776367188
0, 1, 110, 62.4246940612793
0, 1, 111, 58.45869445800781
0, 1, 112, 50.01894378662109
0, 1, 113, 39.76129150390625
0, 1, 114, 33.83510589599609
0, 1, 115, 42.55856704711914
0, 1, 116, 36.01608276367188
0, 1, 117, 38.85059356689453
0, 1, 118, 37.25611877441406
0, 1, 119, 33.09890747070312
0, 1, 120, 27.19212532043457
0, 1, 121, 25.67142868041992
0, 1, 122, 24.26853370666504
0, 1, 123, 25.95038223266602
0, 1, 124, 28.94511032104492
0, 1, 125, 22.51989555358887
0, 1, 126, 15.79536533355713
0, 1, 127, 19.28545951843262
0, 2, 0, 17.99952125549316
0, 2, 1, 19.22138214111328
0, 2, 2, 29.9879093170166
0, 2, 3, 22.70843124389648
0, 2, 4, 26.42375183105469
0, 2, 5, 23.61026382446289
0, 2, 6, 24.48266983032227
0, 2, 7, 19.71063995361328
0, 2, 8, 26.95901107788086
0, 2, 9, 30.17784309387207
0, 2, 10, 28.50713729858398
0, 2, 11, 33.25357437133789
0, 2, 12, 38.30727005004883
0, 2, 13, 43.49557495117188
0, 2, 14, 47.02697372436523
0, 2, 15, 49.62609100341797
0, 2, 16, 64.50514984130859
0, 2, 17, 77.0206298828125
0, 2, 18, 143.0226287841797
0, 2, 19, 605.109130859375
0, 2, 20, 1282.65869140625
0, 2, 21, 1430.898315429688
0, 2, 22, 1454.549438476562
0, 2, 23, 1404.0859375
0, 2, 24, 1444.45263671875
0, 2, 25, 1526.22802734375
0, 2, 26, 1558.582397460938
0, 2, 27, 1453.994140625
0, 2, 28, 1461.321044921875
0, 2, 29, 1466.637329101562
0, 2, 30, 1465.742919921875
0, 2, 31, 1534.824462890625
0, 2, 32, 1505.569702148438
0, 2, 33, 1444.3857421875
0, 2, 34, 1474.093017578125
0, 2, 35, 1470.728759765625
0, 2, 36, 1529.740966796875
0, 2, 37, 1538.22802734375
0, 2, 38, 1509.792724609375
0, 2, 39, 1466.756713867188
0, 2, 40, 1500.156372070312
0, 2, 41, 1516.762084960938
0, 2, 42, 1504.990234375
0, 2, 43, 1548.144897460938
0, 2, 44, 1459.598876953125
0, 2, 45, 1481.076049804688
0, 2, 46, 1428.465087890625
0, 2, 47, 1443.714599609375
0, 2, 48, 1398.571533203125
0, 2, 49, 1460.857543945312
0, 2, 50, 1444.755615234375
0, 2, 51, 1441.48974609375
0, 2, 52, 1488.697265625
0, 2, 53, 1529.179077148438
0, 2, 54, 1533.281982421875
0, 2, 55, 1490.640869140625
0, 2, 56, 1467.206420898438
0, 2, 57, 1416.9267578125
0, 2, 58, 1454.949951171875
0, 2, 59, 1444.520385742188
0, 2, 60, 1476.619140625
0, 2, 61, 1443.265502929688
0, 2, 62, 1469.121215820312
0, 2, 63, 1508.556274414062
0, 2, 64, 1457.715087890625
0, 2, 65, 1423.095336914062
0, 2, 66, 1487.397338867188
0, 2, 67, 1507.196899414062
0, 2, 68, 1547.177978515625
0, 2, 69, 1539.36181640625
0, 2, 70, 1505.500854492188
0, 2, 71, 1460.847534179688
0, 2, 72, 1516.53857421875
0, 2, 73, 1521.964721679688
0, 2, 74, 1488.595336914062
0, 2, 75, 1507.4501953125
0, 2, 76, 1452.084716796875
0, 2, 77, 1508.050415039062
0, 2, 78, 1427.443481445312
0, 2, 79, 1540.5078125
0, 2, 80, 1477.880493164062
0, 2, 81, 1465.767822265625
0, 2, 82, 1558.858764648438
0, 2, 83, 1511.466918945312
0, 2, 84, 1494.630615234375
0, 2, 85, 1516.951293945312
0, 2, 86, 1537.37939453125
0, 2, 87, 1490.367065429688
0, 2, 88, 1540.001586914062
0, 2, 89, 1464.50146484375
0, 2, 90, 1430.7158203125
0, 2, 91, 1405.886474609375
0, 2, 92, 1473.724487304688
0, 2, 93, 1495.209106445312
0, 2, 94, 1453.062866210938
0, 2, 95, 1542.2890625
0, 2, 96, 1514.46630859375
0, 2, 97, 1451.580810546875
0, 2, 98, 1464.897583007812
0, 2, 99, 1406.433349609375
0, 2, 100, 1471.242553710938
0, 2, 101, 1477.057739257812
0, 2, 102, 1460.380615234375
0, 2, 103, 1392.4384765625
0, 2, 104, 1406.190063476562
0, 2, 105, 1394.36181640625
0, 2, 106, 1459.50634765625
0, 2, 107, 1275.780151367188
0, 2, 108, 626.4066162109375
0, 2, 109, 168.0582275390625
0, 2, 110, 62.34586715698242
0, 2, 111, 58.63587951660156
0, 2, 112, 47.01608276367188
0, 2, 113, 39.5463981628418
0, 2, 114, 42.1502571105957
0, 2, 115, 42.57810974121094
0, 2, 116, 35.49042129516602
0, 2, 117, 32.47808074951172
0, 2, 118, 30.96370887756348
0, 2, 119, 32.30832672119141
0, 2, 120, 26.93366241455078
0, 2, 121, 19.25786018371582
0, 2, 122, 26.39855194091797
0, 2, 123, 22.0433177947998
0, 2, 124, 23.97650909423828
0, 2, 125, 29.06804275512695
0, 2, 126, 18.0634593963623
0, 2, 127, 28.57341575622559
0, 3, 0, 19.36545944213867
0, 3, 1, 25.28307723999023
0, 3, 2, 23.13507461547852
0, 3, 3, 18.8658504486084
0, 3, 4, 14.34251022338867
0, 3, 5, 21.54916954040527
0, 3, 6, 35.50546264648438
0, 3, 7, 31.31179618835449
0, 3, 8, 28.6816291809082
0, 3, 9, 26.71291923522949
0, 3, 10, 39.82265472412109
0, 3, 11, 33.10717391967773
0, 3, 12, 44.85243606567383
0, 3, 13, 51.84851455688477
0, 3, 14, 62.89227294921875
0, 3, 15, 52.293701171875
0, 3, 16, 65.73724365234375
0, 3, 17, 90.4986572265625
0, 3, 18, 239.9749755859375
0, 3, 19, 883.3467407226562
0, 3, 20, 1388.923217773438
0, 3, 21, 1507.233520507812
0, 3, 22, 1464.265014648438
0, 3, 23, 1448.517578125
0, 3, 24, 1440.783813476562
0, 3, 25, 1462.33642578125
0, 3, 26, 1497.015991210938
0, 3, 27, 1464.707885742188
0, 3, 28, 1487.1611328125
0, 3, 29, 1542.740966796875
0, 3, 30, 1571.1904296875
0, 3, 31, 1509.042602539062
0, 3, 32, 1547.659912109375
0, 3, 33, 1539.35205078125
0, 3, 34, 1484.424560546875
0, 3, 35, 1465.815795898438
0, 3, 36, 1448.052124023438
0, 3, 37, 1518.60986328125
0, 3, 38, 1513.4970703125
0, 3, 39, 1436.018310546875
0, 3, 40, 1441.788208007812
0, 3, 41, 1561.171630859375
0, 3, 42, 1460.865478515625
0, 3, 43, 1454.359985351562
0, 3, 44, 1455.395874023438
0, 3, 45, 1510.969848632812
0, 3, 46, 1513.153442382812
0, 3, 47, 1441.062744140625
0, 3, 48, 1510.974609375
0, 3, 49, 1450.981201171875
0, 3, 50, 1487.783447265625
0, 3, 51, 1535.9697265625
0, 3, 52, 1539.27978515625
0, 3, 53, 1467.470336914062
0, 3, 54, 1538.335815429688
0, 3, 55, 1504.240966796875
0, 3, 56, 1435.222045898438
0, 3, 57, 1502.26611328125
0, 3, 58, 1514.754150390625
0, 3, 59, 1514.197631835938
0, 3, 60, 1537.889038085938
0, 3, 61, 1483.61083984375
0, 3, 62, 1491.362548828125
0, 3, 63, 1492.12939453125
0, 3, 64, 1504.14306640625
0, 3, 65, 1515.130004882812
0, 3, 66, 1554.686401367188
0, 3, 67, 1545.327514648438
0, 3, 68, 1452.005737304688
0, 3, 69, 1467.022827148438
0, 3, 70, 1386.55517578125
0, 3, 71, 1461.66748046875
0, 3, 72, 1549.247924804688
0, 3, 73, 1502.266479492188
0, 3, 74, 1465.471923828125
0, 3, 75, 1457.111450195312
0, 3, 76, 1574.364868164062
0, 3, 77, 1540.864501953125
0, 3, 78, 1429.156982421875
0, 3, 79, 1489.892578125
0, 3, 80, 1461.168090820312
0, 3, 81, 1473.205444335938
0, 3, 82, 1562.494140625
0, 3, 83, 1512.619506835938
0, 3, 84, 1560.521850585938
0, 3, 85, 1474.76220703125
0, 3, 86, 1525.708374023438
0, 3, 87, 1540.893676757812
0, 3, 88, 1459.686279296875
0, 3, 89, 1447.383911132812
0, 3, 90, 1456.053100585938
0, 3, 91, 1418.47998046875
0, 3, 92, 1515.829345703125
0, 3, 93, 1501.1689453125
0, 3, 94, 1518.328979492188
0, 3, 95, 1543.228637695312
0, 3, 96, 1515.016723632812
0, 3, 97, 1467.139038085938
0, 3, 98, 1431.046508789062
0, 3, 99, 1461.799072265625
0, 3, 100, 1469.013305664062
0, 3, 101, 1473.786254882812
0, 3, 102, 1517.418212890625
0, 3, 103, 1556.688720703125
0, 3, 104, 1500.07958984375
0, 3, 105, 1515.111938476562
0, 3, 106, 1476.372192382812
0, 3, 107, 1336.780395507812
0, 3, 108, 867.8861083984375
0, 3, 109, 264.2250366210938
0, 3, 110, 104.4137802124023
0, 3, 111, 63.16845703125
0, 3, 112, 58.22214508056641
0, 3, 113, 51.84854888916016
0, 3, 114, 55.17021179199219
0, 3, 115, 55.74600982666016
0, 3, 116, 38.65884399414062
0, 3, 117, 40.61882400512695
0, 3, 118, 30.67301940917969
0, 3, 119, 26.64233779907227
0, 3, 120, 32.91747665405273
0, 3, 121, 25.35127258300781
0, 3, 122, 24.73891258239746
0, 3, 123, 24.55697441101074
0, 3, 124, 19.64731407165527
0, 3, 125, 27.11864280700684
0, 3, 126, 27.4487361907959
0, 3, 127, 17.12462043762207
0, 4, 0, 18.85041236877441
0, 4, 1, 24.28267288208008
0, 4, 2, 20.49992752075195
0, 4, 3, 22.99428176879883
0, 4, 4, 28.07807922363281
0, 4, 5, 26.22690391540527
0, 4, 6, 24.27589988708496
0, 4, 7, 27.69458770751953
0, 4, 8, 30.91453742980957
0, 4, 9, 37.77378463745117
0, 4, 10, 29.3398494720459
0, 4, 11, 40.92850112915039
0, 4, 12, 43.18191146850586
0, 4, 13, 54.13082122802734
0, 4, 14, 54.04810333251953
0, 4, 15, 64.47890472412109
0, 4, 16, 77.59308624267578
0, 4, 17, 120.501708984375
0, 4, 18, 438.4706420898438
0, 4, 19, 1181.243530273438
0, 4, 20, 1447.791625976562
0, 4, 21, 1417.279052734375
0, 4, 22, 1438.406494140625
0, 4, 23, 1450.545532226562
0, 4, 24, 1473.39453125
0, 4, 25, 1401.211791992188
0, 4, 26, 1535.47216796875
0, 4, 27, 1538.964233398438
0, 4, 28, 1505.377197265625
0, 4, 29, 1520.660400390625
0, 4, 30, 1523.801513671875
0, 4, 31, 1575.354370117188
0, 4, 32, 1513.362182617188
0, 4, 33, 1492.766845703125
0, 4, 34, 1472.366577148438
0, 4, 35, 1562.06982421875
0, 4, 36, 1507.769897460938
0, 4, 37, 1508.322387695312
0, 4, 38, 1533.214599609375
0, 4, 39, 1467.460693359375
0, 4, 40, 1520.2158203125
0, 4, 41, 1585.946655273438
0, 4, 42, 1565.114990234375
0, 4, 43, 1477.329956054688
0, 4, 44, 1495.170043945312
0, 4, 45, 1516.555419921875
0, 4, 46, 1471.414794921875
0, 4, 47, 1502.566284179688
0, 4, 48, 1523.430419921875
0, 4, 49, 1468.56005859375
0, 4, 50, 1525.88525390625
0, 4, 51, 1490.45263671875
0, 4, 52, 1496.46875
0, 4, 53, 1453.486083984375
0, 4, 54, 1443.293823242188
0, 4, 55, 1524.104248046875
0, 4, 56, 1454.839721679688
0, 4, 57, 1496.888549804688
0, 4, 58, 1464.277709960938
0, 4, 59, 1460.48681640625
0, 4, 60, 1528.109741210938
0, 4, 61, 1499.221313476562
0, 4, 62, 1502.111572265625
0, 4, 63, 1542.29150390625
0, 4, 64, 1588.840576171875
0, 4, 65, 1424.197387695312
0, 4, 66, 1515.996704101562
0, 4, 67, 1521.506713867188
0, 4, 68, 1498.055053710938
0, 4, 69, 1463.8193359375
0, 4, 70, 1543.999877929688
0, 4, 71, 1510.211547851562
0, 4, 72, 1526.058227539062
0, 4, 73, 1495.57373046875
0, 4, 74, 1485.77783203125
0, 4, 75, 1535.5478515625
0, 4, 76, 1480.199096679688
0, 4, 77, 1498.316650390625
0, 4, 78, 1505.775146484375
0, 4, 79, 1482.046752929688
0, 4, 80, 1514.225708007812
0, 4, 81, 1518.75244140625
0, 4, 82, 1565.674072265625
0, 4, 83, 1503.253173828125
0, 4, 84, 1539.732299804688
0, 4, 85, 1551.163940429688
0, 4, 86, 1523.995849609375
0, 4, 87, 1501.831665039062
0, 4, 88, 1511.141479492188
0, 4, 89, 1482.896850585938
0, 4, 90, 1547.418701171875
0, 4, 91, 1552.82275390625
0, 4, 92, 1494.2177734375
0, 4, 93, 1512.110717773438
0, 4, 94, 1481.625
0, 4, 95, 1514.796508789062
0, 4, 96, 1442.432250976562
0, 4, 97, 1407.528564453125
0, 4, 98, 1553.42041015625
0, 4, 99, 1514.540893554688
0, 4, 100, 1490.369140625
0, 4, 101, 1448.60595703125
0, 4, 102, 1451.749755859375
0, 4, 103, 1514.709716796875
0, 4, 104, 1509.194580078125
0, 4, 105, 1556.047485351562
0, 4, 106, 1474.809204101562
0, 4, 107, 1457.618774414062
0, 4, 108, 1119.16357421875
0, 4, 109, 436.6189575195312
0, 4, 110, 100.901481628418
0, 4, 111, 68.54786682128906
0, 4, 112, 62.80879211425781
0, 4, 113, 51.82318878173828
0, 4, 114, 48.69905853271484
0, 4, 115, 43.36968994140625
0, 4, 116, 37.46961975097656
0, 4, 117, 40.91638946533203
0, 4, 118, 36.48455429077148
0, 4, 119, 41.53718948364258
0, 4, 120, 33.64064025878906
0, 4, 121, 30.01052665710449
0, 4, 122, 29.05673980712891
0, 4, 123, 27.2990837097168
0, 4, 124, 28.92550277709961
0, 4, 125, 25.40765190124512
0, 4, 126, 19.0555362701416
0, 4, 127, 15.45715045928955
0, 5, 0, 22.18439292907715
0, 5, 1, 21.98330879211426
0, 5, 2, 26.57427406311035
0, 5, 3, 21.64269828796387
0, 5, 4, 18.55915641784668
0, 5, 5, 37.64593887329102
0, 5, 6, 27.55608558654785
0, 5, 7, 28.98234176635742
0, 5, 8, 30.78056335449219
0, 5, 9, 31.74597549438477
0, 5, 10, 33.79047775268555
0, 5, 11, 38.80095291137695
0, 5, 12, 41.02295684814453
0, 5, 13, 43.82501602172852
0, 5, 14, 64.31043243408203
0, 5, 15, 76.55601501464844
0, 5, 16, 80.29847717285156
0, 5, 17, 154.5246429443359
0, 5, 18, 674.5231323242188
0, 5, 19, 1344.285278320312
0, 5, 20, 1518.65478515625
0, 5, 21, 1494.373046875
0, 5, 22, 1500.01611328125
0, 5, 23, 1534.0869140625
0, 5, 24, 1466.120361328125
0, 5, 25, 1429.095092773438
0, 5, 26, 1523.312744140625
0, 5, 27, 1542.14501953125
0, 5, 28, 1490.201538085938
0, 5, 29, 1524.599243164062
0, 5, 30, 1494.349975585938
0, 5, 31, 1498.511108398438
0, 5, 32, 1597.243896484375
0, 5, 33, 1499.906127929688
0, 5, 34, 1487.446411132812
0, 5, 35, 1510.414306640625
0, 5, 36, 1444.683837890625
0, 5, 37, 1527.327880859375
0, 5, 38, 1550.698486328125
0, 5, 39, 1548.302734375
0, 5, 40, 1504.150024414062
0, 5, 41, 1477.13818359375
0, 5, 42, 1539.775512695312
0, 5, 43, 1529.388793945312
0, 5, 44, 1540.85791015625
0, 5, 45, 1508.796020507812
0, 5, 46, 1492.321166992188
0, 5, 47, 1476.87841796875
0, 5, 48, 1500.096801757812
0, 5, 49, 1521.008422851562
0, 5, 50, 1504.458251953125
0, 5, 51, 1519.74267578125
0, 5, 52, 1436.628051757812
0, 5, 53, 1518.518798828125
0, 5, 54, 1521.13525390625
0, 5, 55, 1527.424560546875
0, 5, 56, 1484.1298828125
0, 5, 57, 1541.20458984375
0, 5, 58, 1502.27587890625
0, 5, 59, 1489.48388671875
0, 5, 60, 1532.21337890625
0, 5, 61, 1446.167846679688
0, 5, 62, 1580.491333007812
0, 5, 63, 1434.931030273438
0, 5, 64, 1486.157836914062
0, 5, 65, 1464.64306640625
0, 5, 66, 1526.386474609375
0, 5, 67, 1559.501708984375
0, 5, 68, 1466.859375
0, 5, 69, 1477.090454101562
0, 5, 70, 1486.743774414062
0, 5, 71, 1472.587524414062
0, 5, 72, 1535.431396484375
0, 5, 73, 1456.783569335938
0, 5, 74, 1492.360717773438
0, 5, 75, 1488.653076171875
0, 5, 76, 1477.042114257812
0, 5, 77, 1519.56103515625
0, 5, 78, 1525.27685546875
0, 5, 79, 1510.225341796875
0, 5, 80, 1516.655029296875
0, 5, 81, 1593.31884765625
0, 5, 82, 1527.99267578125
0, 5, 83, 1490.846557617188
0, 5, 84, 1532.50537109375
0, 5, 85, 1511.387817382812
0, 5, 86, 1554.505249023438
0, 5, 87, 1473.81396484375
0, 5, 88, 1500.149291992188
0, 5, 89, 1484.25830078125
0, 5, 90, 1482.712280273438
0, 5, 91, 1554.228637695312
0, 5, 92, 1483.799438476562
0, 5, 93, 1555.448364257812
0, 5, 94, 1511.612060546875
0, 5, 95, 1564.204223632812
0, 5, 96, 1500.21875
0, 5, 97, 1510.624389648438
0, 5, 98, 1511.712036132812
0, 5, 99, 1536.7041015625
0, 5, 100, 1437.978393554688
0, 5, 101, 1430.447265625
0, 5, 102, 1514.728515625
0, 5, 103, 1473.053344726562
0, 5, 104, 1463.774169921875
0, 5, 105, 1491.833129882812
0, 5, 106, 1458.475708007812
0, 5, 107, 1399.796630859375
0, 5, 108, 1290.148559570312
0, 5, 109, 723.3685302734375
0, 5, 110, 192.5634765625
0, 5, 111, 91.43535614013672
0, 5, 112, 83.68360900878906
0, 5, 113, 65.31269073486328
0, 5, 114, 57.7812614440918
0, 5, 115, 51.29052734375
0, 5, 116, 39.9583854675293
0, 5, 117, 36.70611190795898
0, 5, 118, 43.89054489135742
0, 5, 119, 24.68134498596191
0, 5, 120, 32.1247673034668
0, 5, 121, 25.073486328125
0, 5, 122, 29.9369945526123
0, 5, 123, 23.57607460021973
0, 5, 124, 24.2758846282959
0, 5, 125, 22.22356224060059
0, 5, 126, 21.36727523803711
0, 5, 127, 24.53171348571777
0, 6, 0, 23.81835746765137
0, 6, 1, 29.92350578308105
0, 6, 2, 34.97855758666992
0, 6, 3, 23.23823547363281
0, 6, 4, 25.01064682006836
0, 6, 5, 33.78385543823242
0, 6, 6, 30.92739677429199
0, 6, 7, 30.83004760742188
0, 6, 8, 34.73669052124023
0, 6, 9, 31.93767738342285
0, 6, 10, 37.81877517700195
0, 6, 11, 42.61355972290039
0, 6, 12, 38.15451049804688
0, 6, 13, 56.69379425048828
0, 6, 14, 60.0240478515625
0, 6, 15, 81.91104888916016
0, 6, 16, 109.6540908813477
0, 6, 17, 296.5342712402344
0, 6, 18, 893.9772338867188
0, 6, 19, 1378.2353515625
0, 6, 20, 1434.313354492188
0, 6, 21, 1530.18701171875
0, 6, 22, 1501.826293945312
0, 6, 23, 1530.547485351562
0, 6, 24, 1478.44189453125
0, 6, 25, 1524.7900390625
0, 6, 26, 1513.738037109375
0, 6, 27, 1529.303100585938
0, 6, 28, 1553.399047851562
0, 6, 29, 1568.201293945312
0, 6, 30, 1515.190551757812
0, 6, 31, 1493.472290039062
0, 6, 32, 1524.532958984375
0, 6, 33, 1491.501220703125
0, 6, 34, 1558.673217773438
0, 6, 35, 1499.181030273438
0, 6, 36, 1431.711059570312
0, 6, 37, 1546.244750976562
0, 6, 38, 1521.66015625
0, 6, 39, 1526.014526367188
0, 6, 40, 1456.341918945312
0, 6, 41, 1445.821044921875
0, 6, 42, 1513.222534179688
0, 6, 43, 1488.263793945312
0, 6, 44, 1431.479125976562
0, 6, 45, 1549.080200195312
0, 6, 46, 1550.29638671875
0, 6, 47, 1495.587158203125
0, 6, 48, 1525.267456054688
0, 6, 49, 1512.354614257812
0, 6, 50, 1572.84423828125
0, 6, 51, 1502.85107421875
0, 6, 52, 1563.712646484375
0, 6, 53, 1472.848754882812
0, 6, 54, 1498.824340820312
0, 6, 55, 1570.537353515625
0, 6, 56, 1524.137329101562
0, 6, 57, 1505.5546875
0, 6, 58, 1471.645751953125
0, 6, 59, 1523.535766601562
0, 6, 60, 1472.863647460938
0, 6, 61, 1572.111694335938
0, 6, 62, 1545.818603515625
0, 6, 63, 1496.103759765625
0, 6, 64, 1410.622802734375
0, 6, 65, 1497.0859375
0, 6, 66, 1511.052490234375
0, 6, 67, 1516.171020507812
0, 6, 68, 1544.949829101562
0, 6, 69, 1482.001953125
0, 6, 70, 1525.009887695312
0, 6, 71, 1463.368041992188
0, 6, 72, 1601.0361328125
0, 6, 73, 1488.42578125
0, 6, 74, 1556.041748046875
0, 6, 75, 1537.802734375
0, 6, 76, 1565.637939453125
0, 6, 77, 1505.818969726562
0, 6, 78, 1446.623291015625
0, 6, 79, 1554.663940429688
0, 6, 80, 1486.897094726562
0, 6, 81, 1486.732177734375
0, 6, 82, 1502.135131835938
0, 6, 83, 1529.07666015625
0, 6, 84, 1517.047607421875
0, 6, 85, 1537.74462890625
0, 6, 86, 1543.64306640625
0, 6, 87, 1575.79248046875
0, 6, 88, 1478.862548828125
0, 6, 89, 1560.95947265625
0, 6, 90, 1487.4345703125
0, 6, 91, 1539.685913085938
0, 6, 92, 1485.278442382812
0, 6, 93, 1494.9326171875
0, 6, 94, 1470.872436523438
0, 6, 95, 1513.313354492188
0, 6, 96, 1520.66162109375
0, 6, 97, 1507.646362304688
0, 6, 98, 1500.634155273438
0, 6, 99, 1478.171997070312
0, 6, 100, 1524.325561523438
0, 6, 101, 1521.466064453125
0, 6, 102, 1544.22216796875
0, 6, 103, 1498.134521484375
0, 6, 104, 1463.231567382812
0, 6, 105, 1486.030517578125
0, 6, 106, 1500.842529296875
0, 6, 107, 1508.77294921875
0, 6, 108, 1410.458984375
0, 6, 109, 930.9189453125
0, 6, 110, 283.0580139160156
0, 6, 111, 92.28816223144531
0, 6, 112, 79.25091552734375
0, 6, 113, 55.04719924926758
0, 6, 114, 60.63072967529297
0, 6, 115, 43.61205673217773
0, 6, 116, 45.08202362060547
0, 6, 117, 36.65011978149414
0, 6, 118, 41.41543579101562
0, 6, 119, 35.69708251953125
0, 6, 120, 35.70048522949219
0, 6, 121, 28.72783660888672
0, 6, 122, 33.6956672668457
0, 6, 123, 22.02878570556641
0, 6, 124, 30.08869743347168
0, 6, 125, 30.30625534057617
0, 6, 126, 21.69882202148438
0, 6, 127, 22.19043922424316
0, 7, 0, 24.40686798095703
0, 7, 1, 26.3944263458252
0, 7, 2, 22.37652206420898
0, 7, 3, 22.56628227233887
0, 7, 4, 21.9410285949707
0, 7, 5, 39.51578140258789
0, 7, 6, 33.70245361328125
0, 7, 7, 39.55416488647461
0, 7, 8, 29.66544914245605
0, 7, 9, 30.19760894775391
0, 7, 10, 44.33557891845703
0, 7, 11, 44.25819778442383
0, 7, 12, 53.14236450195312
0, 7, 13, 57.37413024902344
0, 7, 14, 65.00929260253906
0, 7, 15, 72.95870208740234
0, 7, 16, 131.0298156738281
0, 7, 17, 460.7778015136719
0, 7, 18, 1097.657958984375
0, 7, 19, 1510.156005859375
0, 7, 20, 1488.580200195312
0, 7, 21, 1358.975830078125
0, 7, 22, 1485.86279296875
0, 7, 23, 1451.266845703125
0, 7, 24, 1511.2138671875
0, 7, 25, 1593.700317382812
0, 7, 26, 1519.304077148438
0, 7, 27, 1507.779174804688
0, 7, 28, 1548.918823242188
0, 7, 29, 1578.017333984375
0, 7, 30, 1551.448120117188
0, 7, 31, 1437.802612304688
0, 7, 32, 1549.235229492188
0, 7, 33, 1489.026611328125
0, 7, 34, 1479.333129882812
0, 7, 35, 1522.548706054688
0, 7, 36, 1472.099975585938
0, 7, 37, 1598.111450195312
0, 7, 38, 1503.89794921875
0, 7, 39, 1493.793334960938
0, 7, 40, 1544.341674804688
0, 7, 41, 1457.751831054688
0, 7, 42, 1490.792358398438
0, 7, 43, 1440.4169921875
0, 7, 44, 1493.23876953125
0, 7, 45, 1468.1337890625
0, 7, 46, 1509.820556640625
0, 7, 47, 1561.90966796875
0, 7, 48, 1523.0126953125
0, 7, 49, 1540.830810546875
0, 7, 50, 1516.465454101562
0, 7, 51, 1498.6083984375
0, 7, 52, 1518.03466796875
0, 7, 53, 1495.478515625
0, 7, 54, 1586.567138671875
0, 7, 55, 1473.18701171875
0, 7, 56, 1549.391235351562
0, 7, 57, 1508.288208007812
0, 7, 58, 1547.997436523438
0, 7, 59, 1536.514404296875
0, 7, 60, 1548.617309570312
0, 7, 61, 1486.543701171875
0, 7, 62, 1436.9033203125
0, 7, 63, 1511.829345703125
0, 7, 64, 1552.778930664062
0, 7, 65, 1525.289916992188
0, 7, 66, 1539.6787109375
0, 7, 67, 1576.835083007812
0, 7, 68, 1533.687744140625
0, 7, 69, 1514.902221679688
0, 7, 70, 1493.373168945312
0, 7, 71, 1519.177124023438
0, 7, 72, 1519.107543945312
0, 7, 73, 1518.193359375
0, 7, 74, 1570.663940429688
0, 7, 75, 1531.7548828125
0, 7, 76, 1559.1181640625
0, 7, 77, 1512.38232421875
0, 7, 78, 1504.983154296875
0, 7, 79, 1427.8955078125
0, 7, 80, 1489.308349609375
0, 7, 81, 1489.938720703125
0, 7, 82, 1535.207153320312
0, 7, 83, 1543.7587890625
0, 7, 84, 1583.827392578125
0, 7, 85, 1481.078247070312
0, 7, 86, 1504.763793945312
0, 7, 87, 1505.27197265625
0, 7, 88, 1501.838989257812
0, 7, 89, 1551.47900390625
0, 7, 90, 1521.6337890625
0, 7, 91, 1566.703857421875
0, 7, 92, 1531.769653320312
0, 7, 93, 1550.614990234375
0, 7, 94, 1535.077880859375
0, 7, 95, 1506.787963867188
0, 7, 96, 1508.051513671875
0, 7, 97, 1436.154296875
0, 7, 98, 1483.6767578125
0, 7, 99, 1522.360473632812
0, 7, 100, 1419.489135742188
0, 7, 101, 1465.87646484375
0, 7, 102, 1450.333984375
0, 7, 103, 1428.516723632812
0, 7, 104, 1492.769897460938
0, 7, 105, 1520.019897460938
0, 7, 106, 1567.894165039062
0, 7, 107, 1480.462280273438
0, 7, 108, 1409.05224609375
0, 7, 109, 1141.393432617188
0, 7, 110, 473.9173889160156
0, 7, 111, 126.0680236816406
0, 7, 112, 80.67078399658203
0, 7, 113, 68.27679443359375
0, 7, 114, 57.60627746582031
0, 7, 115, 52.24267196655273
0, 7, 116, 52.15844345092773
0, 7, 117, 46.49263000488281
0, 7, 118, 40.41492080688477
0, 7, 119, 37.33146286010742
0, 7, 120, 26.09976959228516
0, 7, 121, 33.38017272949219
0, 7, 122, 32.82397842407227
0, 7, 123, 38.83647537231445
0, 7, 124, 32.34202575683594
0, 7, 125, 23.1002197265625
0, 7, 126, 22.57454872131348
0, 7, 127, 22.28970527648926
0, 8, 0, 19.65975570678711
0, 8, 1, 21.94356346130371
0, 8, 2, 27.04904174804688
0, 8, 3, 24.30833053588867
0, 8, 4, 26.64894104003906
0, 8, 5, 34.31243133544922
0, 8, 6, 28.05859184265137
0, 8, 7, 30.11420059204102
0, 8, 8, 37.88333511352539
0, 8, 9, 49.81484603881836
0, 8, 10, 43.90386962890625
0, 8, 11, 53.05244064331055
0, 8, 12, 58.53563690185547
0, 8, 13, 74.33836364746094
0, 8, 14, 68.52696228027344
0, 8, 15, 84.90908050537109
0, 8, 16, 170.1891937255859
0, 8, 17, 676.1605224609375
0, 8, 18, 1279.105590820312
0, 8, 19, 1445.022094726562
0, 8, 20, 1424.072021484375
0, 8, 21, 1408.634643554688
0, 8, 22, 1486.201171875
0, 8, 23, 1481.129272460938
0, 8, 24, 1437.196411132812
0, 8, 25, 1459.294677734375
0, 8, 26, 1520.42578125
0, 8, 27, 1520.419311523438
0, 8, 28, 1474.684448242188
0, 8, 29, 1506.774536132812
0, 8, 30, 1482.31689453125
0, 8, 31, 1531.412109375
0, 8, 32, 1509.138916015625
0, 8, 33, 1483.024169921875
0, 8, 34, 1541.060424804688
0, 8, 35, 1448.571044921875
0, 8, 36, 1498.709106445312
0, 8, 37, 1550.939453125
0, 8, 38, 1551.833618164062
0, 8, 39, 1493.933959960938
0, 8, 40, 1529.107543945312
0, 8, 41, 1479.30615234375
0, 8, 42, 1537.984252929688
0, 8, 43, 1430.118530273438
0, 8, 44, 1534.561645507812
0, 8, 45, 1512.466796875
0, 8, 46, 1597.318115234375
0, 8, 47, 1591.744262695312
