# TOPAS Version: 3.1.p3
# Parameter File: batch_inserts_138.txt
# Results for scorer Readout_Adipose
# Scored in component: MyBox
# X in 1 bin  of 0.75 cm
# Y in 512 bins of 0.0783984 cm
# Z in 128 bins of 0.078125 cm
# EnergyDeposit ( MeV ) : Sum   
0, 0, 0, 20.99188995361328
0, 0, 1, 17.73727798461914
0, 0, 2, 24.0777416229248
0, 0, 3, 20.54692459106445
0, 0, 4, 17.65169143676758
0, 0, 5, 18.62192344665527
0, 0, 6, 24.32687568664551
0, 0, 7, 35.71200180053711
0, 0, 8, 22.59952163696289
0, 0, 9, 24.84290885925293
0, 0, 10, 24.14573860168457
0, 0, 11, 24.37591934204102
0, 0, 12, 35.84516143798828
0, 0, 13, 32.68881607055664
0, 0, 14, 35.22117614746094
0, 0, 15, 42.7844123840332
0, 0, 16, 42.30059432983398
0, 0, 17, 44.19708633422852
0, 0, 18, 78.830810546875
0, 0, 19, 191.43603515625
0, 0, 20, 698.578857421875
0, 0, 21, 1191.67333984375
0, 0, 22, 1241.614501953125
0, 0, 23, 1278.504028320312
0, 0, 24, 1282.00390625
0, 0, 25, 1354.488525390625
0, 0, 26, 1268.075317382812
0, 0, 27, 1282.601684570312
0, 0, 28, 1322.971923828125
0, 0, 29, 1273.80517578125
0, 0, 30, 1264.992919921875
0, 0, 31, 1278.1171875
0, 0, 32, 1265.156372070312
0, 0, 33, 1246.52734375
0, 0, 34, 1324.786743164062
0, 0, 35, 1303.230102539062
0, 0, 36, 1247.416748046875
0, 0, 37, 1278.555419921875
0, 0, 38, 1246.960083007812
0, 0, 39, 1245.527709960938
0, 0, 40, 1227.500366210938
0, 0, 41, 1266.463012695312
0, 0, 42, 1253.7470703125
0, 0, 43, 1265.1318359375
0, 0, 44, 1225.377807617188
0, 0, 45, 1288.844116210938
0, 0, 46, 1264.727416992188
0, 0, 47, 1240.630126953125
0, 0, 48, 1277.432006835938
0, 0, 49, 1288.627563476562
0, 0, 50, 1313.677856445312
0, 0, 51, 1264.8857421875
0, 0, 52, 1358.21533203125
0, 0, 53, 1326.5869140625
0, 0, 54, 1293.579345703125
0, 0, 55, 1231.91796875
0, 0, 56, 1318.70263671875
0, 0, 57, 1290.684448242188
0, 0, 58, 1255.419555664062
0, 0, 59, 1330.902587890625
0, 0, 60, 1326.554931640625
0, 0, 61, 1263.435302734375
0, 0, 62, 1238.43701171875
0, 0, 63, 1273.683227539062
0, 0, 64, 1329.992919921875
0, 0, 65, 1285.868041992188
0, 0, 66, 1318.189331054688
0, 0, 67, 1214.967651367188
0, 0, 68, 1315.033813476562
0, 0, 69, 1326.7744140625
0, 0, 70, 1345.208740234375
0, 0, 71, 1286.94287109375
0, 0, 72, 1315.070678710938
0, 0, 73, 1239.961791992188
0, 0, 74, 1291.996337890625
0, 0, 75, 1299.47802734375
0, 0, 76, 1255.91943359375
0, 0, 77, 1286.689331054688
0, 0, 78, 1316.287231445312
0, 0, 79, 1326.62841796875
0, 0, 80, 1260.3662109375
0, 0, 81, 1317.79638671875
0, 0, 82, 1283.824951171875
0, 0, 83, 1292.18310546875
0, 0, 84, 1330.285278320312
0, 0, 85, 1235.686889648438
0, 0, 86, 1267.039794921875
0, 0, 87, 1251.481567382812
0, 0, 88, 1253.35888671875
0, 0, 89, 1330.69775390625
0, 0, 90, 1279.086791992188
0, 0, 91, 1354.26025390625
0, 0, 92, 1304.807373046875
0, 0, 93, 1277.343994140625
0, 0, 94, 1245.866577148438
0, 0, 95, 1327.162475585938
0, 0, 96, 1280.478637695312
0, 0, 97, 1324.361206054688
0, 0, 98, 1256.17626953125
0, 0, 99, 1252.957885742188
0, 0, 100, 1286.609130859375
0, 0, 101, 1312.348754882812
0, 0, 102, 1233.101318359375
0, 0, 103, 1322.314331054688
0, 0, 104, 1264.049560546875
0, 0, 105, 1272.240112304688
0, 0, 106, 1212.61767578125
0, 0, 107, 784.3139038085938
0, 0, 108, 188.8594360351562
0, 0, 109, 70.28580474853516
0, 0, 110, 64.16752624511719
0, 0, 111, 42.86985778808594
0, 0, 112, 37.5226936340332
0, 0, 113, 32.58669662475586
0, 0, 114, 31.29427528381348
0, 0, 115, 32.18672943115234
0, 0, 116, 27.52760696411133
0, 0, 117, 30.45193672180176
0, 0, 118, 23.82526397705078
0, 0, 119, 20.63362312316895
0, 0, 120, 27.25179481506348
0, 0, 121, 30.23324394226074
0, 0, 122, 21.30560302734375
0, 0, 123, 21.58923149108887
0, 0, 124, 15.23513698577881
0, 0, 125, 19.88570213317871
0, 0, 126, 26.28903579711914
0, 0, 127, 17.25729370117188
0, 1, 0, 24.91058731079102
0, 1, 1, 23.9792537689209
0, 1, 2, 23.2169189453125
0, 1, 3, 21.35340881347656
0, 1, 4, 24.81697082519531
0, 1, 5, 28.28207397460938
0, 1, 6, 27.07540130615234
0, 1, 7, 28.50546264648438
0, 1, 8, 29.04147720336914
0, 1, 9, 32.10259628295898
0, 1, 10, 35.19773864746094
0, 1, 11, 39.4388542175293
0, 1, 12, 34.63287353515625
0, 1, 13, 37.40526962280273
0, 1, 14, 39.13846969604492
0, 1, 15, 51.29490280151367
0, 1, 16, 60.20158004760742
0, 1, 17, 61.28749084472656
0, 1, 18, 96.63420104980469
0, 1, 19, 401.9623107910156
0, 1, 20, 1041.901489257812
0, 1, 21, 1375.162719726562
0, 1, 22, 1480.891357421875
0, 1, 23, 1460.298583984375
0, 1, 24, 1445.512329101562
0, 1, 25, 1423.267456054688
0, 1, 26, 1472.163940429688
0, 1, 27, 1467.654907226562
0, 1, 28, 1490.343017578125
0, 1, 29, 1478.840698242188
0, 1, 30, 1515.752807617188
0, 1, 31, 1485.333618164062
0, 1, 32, 1410.332153320312
0, 1, 33, 1500.092895507812
0, 1, 34, 1502.915405273438
0, 1, 35, 1460.50244140625
0, 1, 36, 1490.781860351562
0, 1, 37, 1410.655517578125
0, 1, 38, 1388.49609375
0, 1, 39, 1520.360107421875
0, 1, 40, 1460.377685546875
0, 1, 41, 1496.91015625
0, 1, 42, 1493.682006835938
0, 1, 43, 1500.2724609375
0, 1, 44, 1451.035522460938
0, 1, 45, 1490.18212890625
0, 1, 46, 1421.250122070312
0, 1, 47, 1433.415161132812
0, 1, 48, 1430.526611328125
0, 1, 49, 1490.842407226562
0, 1, 50, 1443.352661132812
0, 1, 51, 1474.253784179688
0, 1, 52, 1471.47998046875
0, 1, 53, 1474.273071289062
0, 1, 54, 1505.192626953125
0, 1, 55, 1495.6611328125
0, 1, 56, 1466.580688476562
0, 1, 57, 1457.159912109375
0, 1, 58, 1432.656860351562
0, 1, 59, 1479.3046875
0, 1, 60, 1472.104614257812
0, 1, 61, 1450.499633789062
0, 1, 62, 1455.676391601562
0, 1, 63, 1412.133544921875
0, 1, 64, 1476.69775390625
0, 1, 65, 1419.378662109375
0, 1, 66, 1438.471069335938
0, 1, 67, 1456.453247070312
0, 1, 68, 1383.096313476562
0, 1, 69, 1461.325317382812
0, 1, 70, 1432.431762695312
0, 1, 71, 1494.80419921875
0, 1, 72, 1432.110229492188
0, 1, 73, 1485.154907226562
0, 1, 74, 1471.064575195312
0, 1, 75, 1475.703125
0, 1, 76, 1454.34814453125
0, 1, 77, 1463.172241210938
0, 1, 78, 1456.67578125
0, 1, 79, 1500.79443359375
0, 1, 80, 1451.483154296875
0, 1, 81, 1425.926025390625
0, 1, 82, 1471.584106445312
0, 1, 83, 1466.235473632812
0, 1, 84, 1534.5029296875
0, 1, 85, 1453.096801757812
0, 1, 86, 1405.121948242188
0, 1, 87, 1418.622680664062
0, 1, 88, 1474.071411132812
0, 1, 89, 1472.64697265625
0, 1, 90, 1427.111083984375
0, 1, 91, 1461.418579101562
0, 1, 92, 1410.004516601562
0, 1, 93, 1461.051635742188
0, 1, 94, 1468.29248046875
0, 1, 95, 1422.543334960938
0, 1, 96, 1499.458862304688
0, 1, 97, 1517.701782226562
0, 1, 98, 1475.161254882812
0, 1, 99, 1415.383422851562
0, 1, 100, 1451.374145507812
0, 1, 101, 1417.64892578125
0, 1, 102, 1440.717651367188
0, 1, 103, 1413.449340820312
0, 1, 104, 1410.300170898438
0, 1, 105, 1467.588134765625
0, 1, 106, 1364.764282226562
0, 1, 107, 1016.998840332031
0, 1, 108, 400.7689514160156
0, 1, 109, 91.68830871582031
0, 1, 110, 66.17015838623047
0, 1, 111, 52.01953506469727
0, 1, 112, 46.92807769775391
0, 1, 113, 38.09403610229492
0, 1, 114, 36.43494415283203
0, 1, 115, 35.37750625610352
0, 1, 116, 31.45953941345215
0, 1, 117, 34.57695388793945
0, 1, 118, 35.94100952148438
0, 1, 119, 27.68592071533203
0, 1, 120, 27.88217163085938
0, 1, 121, 24.1589412689209
0, 1, 122, 21.93154335021973
0, 1, 123, 24.06500434875488
0, 1, 124, 27.99209022521973
0, 1, 125, 18.64316940307617
0, 1, 126, 22.68413352966309
0, 1, 127, 19.90998458862305
0, 2, 0, 17.96665573120117
0, 2, 1, 24.93885231018066
0, 2, 2, 23.67352867126465
0, 2, 3, 23.93156433105469
0, 2, 4, 24.64543914794922
0, 2, 5, 29.31582069396973
0, 2, 6, 25.19457626342773
0, 2, 7, 21.75881767272949
0, 2, 8, 28.28432655334473
0, 2, 9, 29.91849327087402
0, 2, 10, 30.10782814025879
0, 2, 11, 35.62733459472656
0, 2, 12, 40.77568054199219
0, 2, 13, 48.11475372314453
0, 2, 14, 50.05634307861328
0, 2, 15, 43.28173065185547
0, 2, 16, 63.9059944152832
0, 2, 17, 81.98141479492188
0, 2, 18, 144.1181793212891
0, 2, 19, 603.4522094726562
0, 2, 20, 1289.924194335938
0, 2, 21, 1435.531860351562
0, 2, 22, 1460.312255859375
0, 2, 23, 1404.248413085938
0, 2, 24, 1436.325073242188
0, 2, 25, 1523.012451171875
0, 2, 26, 1555.689575195312
0, 2, 27, 1456.759155273438
0, 2, 28, 1461.385375976562
0, 2, 29, 1458.579467773438
0, 2, 30, 1459.993041992188
0, 2, 31, 1533.526489257812
0, 2, 32, 1507.835815429688
0, 2, 33, 1440.929077148438
0, 2, 34, 1474.013916015625
0, 2, 35, 1469.66796875
0, 2, 36, 1521.422729492188
0, 2, 37, 1544.901977539062
0, 2, 38, 1507.271606445312
0, 2, 39, 1466.108642578125
0, 2, 40, 1507.136352539062
0, 2, 41, 1520.847412109375
0, 2, 42, 1511.534301757812
0, 2, 43, 1548.49365234375
0, 2, 44, 1456.660278320312
0, 2, 45, 1484.282104492188
0, 2, 46, 1430.730102539062
0, 2, 47, 1443.486206054688
0, 2, 48, 1397.740234375
0, 2, 49, 1462.573486328125
0, 2, 50, 1444.647094726562
0, 2, 51, 1443.969848632812
0, 2, 52, 1497.161499023438
0, 2, 53, 1523.489990234375
0, 2, 54, 1525.483276367188
0, 2, 55, 1497.913208007812
0, 2, 56, 1462.71923828125
0, 2, 57, 1415.968383789062
0, 2, 58, 1450.053100585938
0, 2, 59, 1451.283813476562
0, 2, 60, 1481.629638671875
0, 2, 61, 1446.358276367188
0, 2, 62, 1468.329223632812
0, 2, 63, 1514.446655273438
0, 2, 64, 1459.10009765625
0, 2, 65, 1425.962158203125
0, 2, 66, 1488.109375
0, 2, 67, 1502.70556640625
0, 2, 68, 1545.9580078125
0, 2, 69, 1541.1357421875
0, 2, 70, 1508.299438476562
0, 2, 71, 1463.175048828125
0, 2, 72, 1513.924072265625
0, 2, 73, 1516.1767578125
0, 2, 74, 1493.921142578125
0, 2, 75, 1499.677612304688
0, 2, 76, 1453.1142578125
0, 2, 77, 1502.177978515625
0, 2, 78, 1431.142944335938
0, 2, 79, 1539.753051757812
0, 2, 80, 1479.496337890625
0, 2, 81, 1464.546508789062
0, 2, 82, 1561.482055664062
0, 2, 83, 1515.85302734375
0, 2, 84, 1491.506103515625
0, 2, 85, 1518.456420898438
0, 2, 86, 1541.97900390625
0, 2, 87, 1485.868408203125
0, 2, 88, 1534.63037109375
0, 2, 89, 1461.932861328125
0, 2, 90, 1430.0654296875
0, 2, 91, 1404.44287109375
0, 2, 92, 1476.077514648438
0, 2, 93, 1495.022705078125
0, 2, 94, 1451.619262695312
0, 2, 95, 1546.338745117188
0, 2, 96, 1516.064331054688
0, 2, 97, 1452.284790039062
0, 2, 98, 1461.783325195312
0, 2, 99, 1402.949584960938
0, 2, 100, 1471.47705078125
0, 2, 101, 1481.891357421875
0, 2, 102, 1459.913330078125
0, 2, 103, 1388.910766601562
0, 2, 104, 1410.012451171875
0, 2, 105, 1395.525390625
0, 2, 106, 1455.57861328125
0, 2, 107, 1272.828369140625
0, 2, 108, 621.987548828125
0, 2, 109, 171.4859161376953
0, 2, 110, 70.22203063964844
0, 2, 111, 61.79619979858398
0, 2, 112, 45.92219924926758
0, 2, 113, 47.1366081237793
0, 2, 114, 37.26302337646484
0, 2, 115, 42.84218215942383
0, 2, 116, 30.28879737854004
0, 2, 117, 38.29052734375
0, 2, 118, 39.16756439208984
0, 2, 119, 31.77163505554199
0, 2, 120, 26.84741973876953
0, 2, 121, 18.78998184204102
0, 2, 122, 26.13191223144531
0, 2, 123, 23.07227897644043
0, 2, 124, 25.98025512695312
0, 2, 125, 30.66219139099121
0, 2, 126, 15.81972026824951
0, 2, 127, 20.68044281005859
0, 3, 0, 18.31378555297852
0, 3, 1, 19.93030738830566
0, 3, 2, 24.0688533782959
0, 3, 3, 20.18279647827148
0, 3, 4, 23.80057334899902
0, 3, 5, 22.61001205444336
0, 3, 6, 32.84627151489258
0, 3, 7, 30.32784271240234
0, 3, 8, 32.15960693359375
0, 3, 9, 28.91121482849121
0, 3, 10, 36.29413223266602
0, 3, 11, 39.54841232299805
0, 3, 12, 40.90569305419922
0, 3, 13, 53.66994476318359
0, 3, 14, 59.53900146484375
0, 3, 15, 56.01374435424805
0, 3, 16, 66.98177337646484
0, 3, 17, 86.12130737304688
0, 3, 18, 244.0117340087891
0, 3, 19, 877.4898071289062
0, 3, 20, 1388.972412109375
0, 3, 21, 1503.664184570312
0, 3, 22, 1460.068359375
0, 3, 23, 1450.656372070312
0, 3, 24, 1440.810913085938
0, 3, 25, 1464.8017578125
0, 3, 26, 1493.822509765625
0, 3, 27, 1463.300048828125
0, 3, 28, 1482.440185546875
0, 3, 29, 1540.733764648438
0, 3, 30, 1570.083618164062
0, 3, 31, 1507.894653320312
0, 3, 32, 1547.044555664062
0, 3, 33, 1538.650634765625
0, 3, 34, 1485.92578125
0, 3, 35, 1466.7001953125
0, 3, 36, 1452.801025390625
0, 3, 37, 1514.534790039062
0, 3, 38, 1519.5615234375
0, 3, 39, 1444.842895507812
0, 3, 40, 1440.513671875
0, 3, 41, 1563.468627929688
0, 3, 42, 1461.333740234375
0, 3, 43, 1458.89794921875
0, 3, 44, 1447.228881835938
0, 3, 45, 1506.245849609375
0, 3, 46, 1506.51025390625
0, 3, 47, 1442.416015625
0, 3, 48, 1509.632568359375
0, 3, 49, 1452.633422851562
0, 3, 50, 1492.611572265625
0, 3, 51, 1536.076782226562
0, 3, 52, 1535.004516601562
0, 3, 53, 1464.29931640625
0, 3, 54, 1539.06591796875
0, 3, 55, 1507.6474609375
0, 3, 56, 1433.7861328125
0, 3, 57, 1503.453857421875
0, 3, 58, 1510.425537109375
0, 3, 59, 1507.549072265625
0, 3, 60, 1533.431762695312
0, 3, 61, 1484.323608398438
0, 3, 62, 1499.825927734375
0, 3, 63, 1494.356201171875
0, 3, 64, 1499.654174804688
0, 3, 65, 1513.737182617188
0, 3, 66, 1558.809448242188
0, 3, 67, 1547.614379882812
0, 3, 68, 1448.665283203125
0, 3, 69, 1467.803588867188
0, 3, 70, 1388.420654296875
0, 3, 71, 1464.834106445312
0, 3, 72, 1545.371826171875
0, 3, 73, 1497.662475585938
0, 3, 74, 1465.086181640625
0, 3, 75, 1462.103515625
0, 3, 76, 1577.096923828125
0, 3, 77, 1539.438110351562
0, 3, 78, 1429.6513671875
0, 3, 79, 1490.822387695312
0, 3, 80, 1460.354614257812
0, 3, 81, 1473.82861328125
0, 3, 82, 1552.377807617188
0, 3, 83, 1512.045166015625
0, 3, 84, 1561.234497070312
0, 3, 85, 1478.470336914062
0, 3, 86, 1525.804443359375
0, 3, 87, 1539.260375976562
0, 3, 88, 1462.384399414062
0, 3, 89, 1450.445678710938
0, 3, 90, 1449.522705078125
0, 3, 91, 1419.205200195312
0, 3, 92, 1510.047485351562
0, 3, 93, 1499.73583984375
0, 3, 94, 1515.166137695312
0, 3, 95, 1538.632202148438
0, 3, 96, 1518.119995117188
0, 3, 97, 1464.029907226562
0, 3, 98, 1434.270629882812
0, 3, 99, 1462.672607421875
0, 3, 100, 1465.498046875
0, 3, 101, 1476.637573242188
0, 3, 102, 1519.155639648438
0, 3, 103, 1553.080078125
0, 3, 104, 1496.698608398438
0, 3, 105, 1515.178100585938
0, 3, 106, 1484.343627929688
0, 3, 107, 1342.491577148438
0, 3, 108, 872.069091796875
0, 3, 109, 261.2642211914062
0, 3, 110, 102.4709320068359
0, 3, 111, 65.28514862060547
0, 3, 112, 58.28597259521484
0, 3, 113, 50.63365936279297
0, 3, 114, 43.94596099853516
0, 3, 115, 49.60513305664062
0, 3, 116, 37.41970825195312
0, 3, 117, 38.41779327392578
0, 3, 118, 32.90970230102539
0, 3, 119, 34.94729232788086
0, 3, 120, 34.01947021484375
0, 3, 121, 21.02641296386719
0, 3, 122, 20.77941131591797
0, 3, 123, 23.45395088195801
0, 3, 124, 23.48482131958008
0, 3, 125, 29.64119529724121
0, 3, 126, 24.05627059936523
0, 3, 127, 17.34445953369141
0, 4, 0, 18.56349563598633
0, 4, 1, 22.57488441467285
0, 4, 2, 21.69455528259277
0, 4, 3, 20.69657516479492
0, 4, 4, 23.6089916229248
0, 4, 5, 29.86849784851074
0, 4, 6, 30.22879981994629
0, 4, 7, 28.35039138793945
0, 4, 8, 29.57171630859375
0, 4, 9, 36.50880813598633
0, 4, 10, 33.65577697753906
0, 4, 11, 39.42368698120117
0, 4, 12, 40.16326522827148
0, 4, 13, 54.90855026245117
0, 4, 14, 48.34811782836914
0, 4, 15, 57.09186935424805
0, 4, 16, 75.21839904785156
0, 4, 17, 118.4068450927734
0, 4, 18, 444.3925170898438
0, 4, 19, 1183.270141601562
0, 4, 20, 1444.861206054688
0, 4, 21, 1422.37255859375
0, 4, 22, 1433.051513671875
0, 4, 23, 1463.026489257812
0, 4, 24, 1474.621459960938
0, 4, 25, 1406.72021484375
0, 4, 26, 1538.702270507812
0, 4, 27, 1542.499755859375
0, 4, 28, 1508.45703125
0, 4, 29, 1522.062744140625
0, 4, 30, 1530.774047851562
0, 4, 31, 1572.062133789062
0, 4, 32, 1514.191650390625
0, 4, 33, 1491.831420898438
0, 4, 34, 1471.55908203125
0, 4, 35, 1555.137329101562
0, 4, 36, 1501.585815429688
0, 4, 37, 1514.308349609375
0, 4, 38, 1531.953369140625
0, 4, 39, 1471.620849609375
0, 4, 40, 1514.166748046875
0, 4, 41, 1586.343139648438
0, 4, 42, 1560.37109375
0, 4, 43, 1477.384765625
0, 4, 44, 1497.507934570312
0, 4, 45, 1518.469360351562
0, 4, 46, 1467.539306640625
0, 4, 47, 1505.948852539062
0, 4, 48, 1526.8095703125
0, 4, 49, 1467.33056640625
0, 4, 50, 1518.598754882812
0, 4, 51, 1493.49755859375
0, 4, 52, 1490.922485351562
0, 4, 53, 1457.140258789062
0, 4, 54, 1444.375732421875
0, 4, 55, 1526.60400390625
0, 4, 56, 1457.424926757812
0, 4, 57, 1502.612426757812
0, 4, 58, 1460.474365234375
0, 4, 59, 1461.742431640625
0, 4, 60, 1524.98193359375
0, 4, 61, 1499.071655273438
0, 4, 62, 1511.289184570312
0, 4, 63, 1553.188354492188
0, 4, 64, 1595.109985351562
0, 4, 65, 1425.15283203125
0, 4, 66, 1513.024658203125
0, 4, 67, 1519.632446289062
0, 4, 68, 1504.220825195312
0, 4, 69, 1466.844360351562
0, 4, 70, 1546.467529296875
0, 4, 71, 1512.353515625
0, 4, 72, 1531.114868164062
0, 4, 73, 1492.256469726562
0, 4, 74, 1487.41259765625
0, 4, 75, 1532.736083984375
0, 4, 76, 1483.509643554688
0, 4, 77, 1497.32763671875
0, 4, 78, 1502.251953125
0, 4, 79, 1485.026245117188
0, 4, 80, 1514.080200195312
0, 4, 81, 1518.810791015625
0, 4, 82, 1565.40478515625
0, 4, 83, 1501.1357421875
0, 4, 84, 1534.243286132812
0, 4, 85, 1548.812744140625
0, 4, 86, 1525.369506835938
0, 4, 87, 1501.384155273438
0, 4, 88, 1518.117797851562
0, 4, 89, 1485.428100585938
0, 4, 90, 1547.566162109375
0, 4, 91, 1555.90576171875
0, 4, 92, 1489.986450195312
0, 4, 93, 1512.947021484375
0, 4, 94, 1479.218872070312
0, 4, 95, 1508.786376953125
0, 4, 96, 1443.294677734375
0, 4, 97, 1408.628540039062
0, 4, 98, 1554.223388671875
0, 4, 99, 1510.092895507812
0, 4, 100, 1492.331176757812
0, 4, 101, 1450.904541015625
0, 4, 102, 1440.95947265625
0, 4, 103, 1512.748046875
0, 4, 104, 1510.3857421875
0, 4, 105, 1558.672729492188
0, 4, 106, 1476.270629882812
0, 4, 107, 1454.254150390625
0, 4, 108, 1119.690185546875
0, 4, 109, 435.7864074707031
0, 4, 110, 98.93391418457031
0, 4, 111, 66.95021057128906
0, 4, 112, 55.43712997436523
0, 4, 113, 47.83650207519531
0, 4, 114, 52.55551147460938
0, 4, 115, 42.58882904052734
0, 4, 116, 35.32615661621094
0, 4, 117, 38.70536804199219
0, 4, 118, 42.86173629760742
0, 4, 119, 44.08626556396484
0, 4, 120, 33.87205123901367
0, 4, 121, 26.34387969970703
0, 4, 122, 31.52365684509277
0, 4, 123, 29.30337524414062
0, 4, 124, 28.09018135070801
0, 4, 125, 34.4516716003418
0, 4, 126, 24.68982315063477
0, 4, 127, 20.08084106445312
0, 5, 0, 23.34920501708984
0, 5, 1, 22.50075721740723
0, 5, 2, 28.73491859436035
0, 5, 3, 25.66994285583496
0, 5, 4, 24.1057186126709
0, 5, 5, 38.78952026367188
0, 5, 6, 31.02924346923828
0, 5, 7, 29.1234073638916
0, 5, 8, 29.43991279602051
0, 5, 9, 30.39826202392578
0, 5, 10, 32.42222213745117
0, 5, 11, 39.38096237182617
0, 5, 12, 45.30517959594727
0, 5, 13, 43.85451507568359
0, 5, 14, 61.73442840576172
0, 5, 15, 78.21569061279297
0, 5, 16, 81.69283294677734
0, 5, 17, 158.3471832275391
0, 5, 18, 677.1542358398438
0, 5, 19, 1340.51416015625
0, 5, 20, 1524.730590820312
0, 5, 21, 1494.5361328125
0, 5, 22, 1496.694213867188
0, 5, 23, 1531.875
0, 5, 24, 1471.424194335938
0, 5, 25, 1428.18505859375
0, 5, 26, 1526.68798828125
0, 5, 27, 1535.18701171875
0, 5, 28, 1483.738525390625
0, 5, 29, 1527.85107421875
0, 5, 30, 1489.481689453125
0, 5, 31, 1503.313598632812
0, 5, 32, 1603.441284179688
0, 5, 33, 1502.48779296875
0, 5, 34, 1482.385375976562
0, 5, 35, 1509.825561523438
0, 5, 36, 1442.828979492188
0, 5, 37, 1527.78076171875
0, 5, 38, 1549.4267578125
0, 5, 39, 1544.626098632812
0, 5, 40, 1501.190185546875
0, 5, 41, 1485.762573242188
0, 5, 42, 1540.722900390625
0, 5, 43, 1526.872314453125
0, 5, 44, 1542.140014648438
0, 5, 45, 1511.711059570312
0, 5, 46, 1492.697021484375
0, 5, 47, 1484.135131835938
0, 5, 48, 1507.150756835938
0, 5, 49, 1520.333374023438
0, 5, 50, 1506.75244140625
0, 5, 51, 1518.794921875
0, 5, 52, 1430.7998046875
0, 5, 53, 1526.193481445312
0, 5, 54, 1522.021240234375
0, 5, 55, 1518.971923828125
0, 5, 56, 1485.48583984375
0, 5, 57, 1546.304931640625
0, 5, 58, 1505.509887695312
0, 5, 59, 1483.616455078125
0, 5, 60, 1535.056762695312
0, 5, 61, 1450.984497070312
0, 5, 62, 1581.459838867188
0, 5, 63, 1437.427490234375
0, 5, 64, 1489.042358398438
0, 5, 65, 1468.166015625
0, 5, 66, 1526.752197265625
0, 5, 67, 1559.7587890625
0, 5, 68, 1461.415893554688
0, 5, 69, 1480.299194335938
0, 5, 70, 1486.467041015625
0, 5, 71, 1473.287231445312
0, 5, 72, 1538.257690429688
0, 5, 73, 1463.03173828125
0, 5, 74, 1493.306396484375
0, 5, 75, 1485.29052734375
0, 5, 76, 1473.972778320312
0, 5, 77, 1512.922973632812
0, 5, 78, 1525.349487304688
0, 5, 79, 1510.436279296875
0, 5, 80, 1522.568237304688
0, 5, 81, 1591.65625
0, 5, 82, 1522.770385742188
0, 5, 83, 1488.152709960938
0, 5, 84, 1527.635498046875
0, 5, 85, 1511.728759765625
0, 5, 86, 1558.109252929688
0, 5, 87, 1473.428955078125
0, 5, 88, 1498.726440429688
0, 5, 89, 1478.880737304688
0, 5, 90, 1480.060302734375
0, 5, 91, 1550.087158203125
0, 5, 92, 1483.72509765625
0, 5, 93, 1562.2021484375
0, 5, 94, 1506.7744140625
0, 5, 95, 1562.533935546875
0, 5, 96, 1496.046264648438
0, 5, 97, 1507.73583984375
0, 5, 98, 1502.690063476562
0, 5, 99, 1543.986694335938
0, 5, 100, 1434.138061523438
0, 5, 101, 1427.576904296875
0, 5, 102, 1514.334594726562
0, 5, 103, 1474.407958984375
0, 5, 104, 1459.701782226562
0, 5, 105, 1494.632690429688
0, 5, 106, 1456.248168945312
0, 5, 107, 1397.126098632812
0, 5, 108, 1288.693115234375
0, 5, 109, 722.1766967773438
0, 5, 110, 193.9875335693359
0, 5, 111, 88.048095703125
0, 5, 112, 80.32993316650391
0, 5, 113, 63.40119934082031
0, 5, 114, 60.72964477539062
0, 5, 115, 54.14225387573242
0, 5, 116, 45.48414611816406
0, 5, 117, 32.68382263183594
0, 5, 118, 43.23279571533203
0, 5, 119, 25.14168739318848
0, 5, 120, 25.76858139038086
0, 5, 121, 27.08505821228027
0, 5, 122, 27.65640258789062
0, 5, 123, 24.18459701538086
0, 5, 124, 25.67975616455078
0, 5, 125, 22.02027702331543
0, 5, 126, 19.58003425598145
0, 5, 127, 19.94991302490234
0, 6, 0, 19.13639068603516
0, 6, 1, 24.36100578308105
0, 6, 2, 29.4177074432373
0, 6, 3, 27.93414306640625
0, 6, 4, 24.02188873291016
0, 6, 5, 34.19221115112305
0, 6, 6, 35.23335266113281
0, 6, 7, 29.17524719238281
0, 6, 8, 34.86996078491211
0, 6, 9, 35.85409545898438
0, 6, 10, 34.17422103881836
0, 6, 11, 37.33029556274414
0, 6, 12, 38.74003982543945
0, 6, 13, 57.68594741821289
0, 6, 14, 65.09649658203125
0, 6, 15, 88.1083984375
0, 6, 16, 115.9228744506836
0, 6, 17, 295.2104797363281
0, 6, 18, 899.0388793945312
0, 6, 19, 1370.391967773438
0, 6, 20, 1441.835571289062
0, 6, 21, 1530.395385742188
0, 6, 22, 1504.830444335938
0, 6, 23, 1525.879272460938
0, 6, 24, 1484.360595703125
0, 6, 25, 1532.439575195312
0, 6, 26, 1519.059326171875
0, 6, 27, 1524.814819335938
0, 6, 28, 1547.04931640625
0, 6, 29, 1568.874633789062
0, 6, 30, 1513.288696289062
0, 6, 31, 1495.68408203125
0, 6, 32, 1523.629516601562
0, 6, 33, 1492.811767578125
0, 6, 34, 1558.22216796875
0, 6, 35, 1501.014892578125
0, 6, 36, 1439.607299804688
0, 6, 37, 1551.468505859375
0, 6, 38, 1526.153076171875
0, 6, 39, 1526.771606445312
0, 6, 40, 1457.172607421875
0, 6, 41, 1439.7958984375
0, 6, 42, 1519.521606445312
0, 6, 43, 1488.869018554688
0, 6, 44, 1432.467895507812
0, 6, 45, 1544.111450195312
0, 6, 46, 1549.735107421875
0, 6, 47, 1493.174072265625
0, 6, 48, 1526.88427734375
0, 6, 49, 1509.852416992188
0, 6, 50, 1572.63330078125
0, 6, 51, 1503.660034179688
0, 6, 52, 1564.33935546875
0, 6, 53, 1479.109130859375
0, 6, 54, 1498.798461914062
0, 6, 55, 1573.419677734375
0, 6, 56, 1521.836791992188
0, 6, 57, 1505.365966796875
0, 6, 58, 1468.187866210938
0, 6, 59, 1522.321044921875
0, 6, 60, 1471.419677734375
0, 6, 61, 1578.114868164062
0, 6, 62, 1543.249145507812
0, 6, 63, 1496.6943359375
0, 6, 64, 1412.265380859375
0, 6, 65, 1492.705688476562
0, 6, 66, 1507.316772460938
0, 6, 67, 1511.673950195312
0, 6, 68, 1546.572021484375
0, 6, 69, 1483.08740234375
0, 6, 70, 1522.889404296875
0, 6, 71, 1469.839477539062
0, 6, 72, 1597.45947265625
0, 6, 73, 1488.499633789062
0, 6, 74, 1554.961059570312
0, 6, 75, 1539.109252929688
0, 6, 76, 1562.349609375
0, 6, 77, 1507.994506835938
0, 6, 78, 1447.320556640625
0, 6, 79, 1552.600463867188
0, 6, 80, 1483.269287109375
0, 6, 81, 1482.907470703125
0, 6, 82, 1502.532348632812
0, 6, 83, 1523.314331054688
0, 6, 84, 1518.633544921875
0, 6, 85, 1531.793823242188
0, 6, 86, 1540.64453125
0, 6, 87, 1570.883666992188
0, 6, 88, 1476.379028320312
0, 6, 89, 1560.576416015625
0, 6, 90, 1491.510864257812
0, 6, 91, 1542.666870117188
0, 6, 92, 1486.619384765625
0, 6, 93, 1494.003784179688
0, 6, 94, 1472.682495117188
0, 6, 95, 1510.829223632812
0, 6, 96, 1523.662353515625
0, 6, 97, 1509.29345703125
0, 6, 98, 1497.21484375
0, 6, 99, 1474.281616210938
0, 6, 100, 1517.574340820312
0, 6, 101, 1515.467529296875
0, 6, 102, 1538.265747070312
0, 6, 103, 1498.07421875
0, 6, 104, 1466.551513671875
0, 6, 105, 1488.2626953125
0, 6, 106, 1497.309448242188
0, 6, 107, 1505.098266601562
0, 6, 108, 1408.495483398438
0, 6, 109, 923.7520751953125
0, 6, 110, 283.3485717773438
0, 6, 111, 94.51438140869141
0, 6, 112, 73.72552490234375
0, 6, 113, 62.29149627685547
0, 6, 114, 52.72186279296875
0, 6, 115, 43.12403869628906
0, 6, 116, 40.3837776184082
0, 6, 117, 40.16105270385742
0, 6, 118, 40.96621704101562
0, 6, 119, 36.33468246459961
0, 6, 120, 31.63287162780762
0, 6, 121, 31.82597351074219
0, 6, 122, 23.48299026489258
0, 6, 123, 24.3665828704834
0, 6, 124, 33.1053581237793
0, 6, 125, 33.5803108215332
0, 6, 126, 20.58924865722656
0, 6, 127, 23.73720359802246
0, 7, 0, 21.55449295043945
0, 7, 1, 29.50664138793945
0, 7, 2, 24.62448501586914
0, 7, 3, 23.4045352935791
0, 7, 4, 26.03572463989258
0, 7, 5, 33.19687652587891
0, 7, 6, 31.34961318969727
0, 7, 7, 35.67397689819336
0, 7, 8, 27.65446281433105
0, 7, 9, 38.00019073486328
0, 7, 10, 42.5372428894043
0, 7, 11, 46.43227386474609
0, 7, 12, 46.48733901977539
0, 7, 13, 48.54297637939453
0, 7, 14, 62.85520172119141
0, 7, 15, 78.39710235595703
0, 7, 16, 133.2065887451172
0, 7, 17, 458.0679016113281
0, 7, 18, 1101.70849609375
0, 7, 19, 1501.703735351562
0, 7, 20, 1488.541015625
0, 7, 21, 1369.705322265625
0, 7, 22, 1484.6689453125
0, 7, 23, 1457.890869140625
0, 7, 24, 1512.638549804688
0, 7, 25, 1593.330322265625
0, 7, 26, 1518.9326171875
0, 7, 27, 1509.897216796875
0, 7, 28, 1542.30517578125
0, 7, 29, 1574.343383789062
0, 7, 30, 1545.530395507812
0, 7, 31, 1439.1181640625
0, 7, 32, 1539.762939453125
0, 7, 33, 1495.01708984375
0, 7, 34, 1478.864013671875
0, 7, 35, 1522.431884765625
0, 7, 36, 1475.256591796875
0, 7, 37, 1599.412963867188
0, 7, 38, 1503.258666992188
0, 7, 39, 1493.044067382812
0, 7, 40, 1543.929931640625
0, 7, 41, 1459.9404296875
0, 7, 42, 1486.956665039062
0, 7, 43, 1446.351806640625
0, 7, 44, 1490.542236328125
0, 7, 45, 1472.021240234375
0, 7, 46, 1509.866577148438
0, 7, 47, 1565.802612304688
0, 7, 48, 1521.36962890625
0, 7, 49, 1541.998901367188
0, 7, 50, 1513.222534179688
0, 7, 51, 1499.449584960938
0, 7, 52, 1521.720458984375
0, 7, 53, 1496.272827148438
0, 7, 54, 1590.0751953125
0, 7, 55, 1467.396240234375
0, 7, 56, 1545.367797851562
0, 7, 57, 1515.035278320312
0, 7, 58, 1551.794555664062
0, 7, 59, 1544.565551757812
0, 7, 60, 1548.673706054688
0, 7, 61, 1491.224487304688
0, 7, 62, 1433.284057617188
0, 7, 63, 1515.942138671875
0, 7, 64, 1548.217041015625
0, 7, 65, 1526.6181640625
0, 7, 66, 1534.907836914062
0, 7, 67, 1580.532592773438
0, 7, 68, 1533.716430664062
0, 7, 69, 1512.546508789062
0, 7, 70, 1495.761474609375
0, 7, 71, 1526.643798828125
0, 7, 72, 1525.30029296875
0, 7, 73, 1517.510375976562
0, 7, 74, 1572.82861328125
0, 7, 75, 1537.204711914062
0, 7, 76, 1555.10205078125
0, 7, 77, 1512.842163085938
0, 7, 78, 1509.18603515625
0, 7, 79, 1426.0048828125
0, 7, 80, 1486.142211914062
0, 7, 81, 1494.391845703125
0, 7, 82, 1531.040405273438
0, 7, 83, 1542.635864257812
0, 7, 84, 1587.597900390625
0, 7, 85, 1480.22314453125
0, 7, 86, 1501.053466796875
0, 7, 87, 1507.557739257812
0, 7, 88, 1500.6943359375
0, 7, 89, 1555.341918945312
0, 7, 90, 1522.140625
0, 7, 91, 1561.408203125
0, 7, 92, 1535.578247070312
0, 7, 93, 1555.19921875
0, 7, 94, 1538.841796875
0, 7, 95, 1505.595336914062
0, 7, 96, 1502.654296875
0, 7, 97, 1429.5078125
0, 7, 98, 1483.279907226562
0, 7, 99, 1522.37646484375
0, 7, 100, 1419.200561523438
0, 7, 101, 1470.1669921875
0, 7, 102, 1448.22119140625
0, 7, 103, 1426.999267578125
0, 7, 104, 1496.031982421875
0, 7, 105, 1518.700317382812
0, 7, 106, 1566.344848632812
0, 7, 107, 1484.319213867188
0, 7, 108, 1408.376953125
0, 7, 109, 1147.262817382812
0, 7, 110, 472.7890930175781
0, 7, 111, 123.3381118774414
0, 7, 112, 78.00032806396484
0, 7, 113, 69.51754760742188
0, 7, 114, 54.86897659301758
0, 7, 115, 51.455078125
0, 7, 116, 46.28219985961914
0, 7, 117, 43.37029647827148
0, 7, 118, 37.20724868774414
0, 7, 119, 35.28836441040039
0, 7, 120, 24.01719665527344
0, 7, 121, 27.78726387023926
0, 7, 122, 31.09399223327637
0, 7, 123, 32.41592788696289
0, 7, 124, 26.9588623046875
0, 7, 125, 22.55910301208496
0, 7, 126, 21.6827335357666
0, 7, 127, 22.47569274902344
0, 8, 0, 25.3491039276123
0, 8, 1, 22.44868469238281
0, 8, 2, 23.01938056945801
0, 8, 3, 26.44833564758301
0, 8, 4, 26.65009117126465
0, 8, 5, 32.60559844970703
0, 8, 6, 30.60138130187988
0, 8, 7, 24.48787498474121
0, 8, 8, 36.67972564697266
0, 8, 9, 42.61005783081055
0, 8, 10, 43.20943069458008
0, 8, 11, 42.2971305847168
0, 8, 12, 52.52692031860352
0, 8, 13, 72.71697998046875
0, 8, 14, 67.04043579101562
0, 8, 15, 83.53351593017578
0, 8, 16, 169.2063446044922
0, 8, 17, 675.0216674804688
0, 8, 18, 1277.2626953125
0, 8, 19, 1455.623657226562
0, 8, 20, 1422.297119140625
0, 8, 21, 1404.9443359375
0, 8, 22, 1488.788452148438
0, 8, 23, 1479.294067382812
0, 8, 24, 1434.364013671875
0, 8, 25, 1455.432250976562
0, 8, 26, 1518.312744140625
0, 8, 27, 1523.574462890625
0, 8, 28, 1478.401000976562
0, 8, 29, 1502.537963867188
0, 8, 30, 1489.644775390625
0, 8, 31, 1537.307983398438
0, 8, 32, 1507.132080078125
0, 8, 33, 1482.015991210938
0, 8, 34, 1537.566650390625
0, 8, 35, 1445.076538085938
0, 8, 36, 1497.837524414062
0, 8, 37, 1554.748168945312
0, 8, 38, 1550.379638671875
0, 8, 39, 1488.288940429688
0, 8, 40, 1538.22265625
0, 8, 41, 1476.840209960938
0, 8, 42, 1533.905517578125
0, 8, 43, 1434.470703125
0, 8, 44, 1536.095336914062
0, 8, 45, 1510.07861328125
0, 8, 46, 1596.621826171875
