# TOPAS Version: 3.1.p3
# Parameter File: batch_inserts_110.txt
# Results for scorer Readout_Adipose
# Scored in component: MyBox
# X in 1 bin  of 0.75 cm
# Y in 512 bins of 0.0783984 cm
# Z in 128 bins of 0.078125 cm
# EnergyDeposit ( MeV ) : Sum   
0, 0, 0, 4.042643547058105
0, 0, 1, 2.60296630859375
0, 0, 2, 3.078966856002808
0, 0, 3, 3.099067449569702
0, 0, 4, 3.196918725967407
0, 0, 5, 2.249598503112793
0, 0, 6, 6.255887508392334
0, 0, 7, 9.757472991943359
0, 0, 8, 3.551203012466431
0, 0, 9, 3.089898347854614
0, 0, 10, 6.767489910125732
0, 0, 11, 4.743011474609375
0, 0, 12, 4.361373424530029
0, 0, 13, 6.787250518798828
0, 0, 14, 7.116594314575195
0, 0, 15, 9.582700729370117
0, 0, 16, 9.388795852661133
0, 0, 17, 10.66456031799316
0, 0, 18, 13.13401794433594
0, 0, 19, 42.91707992553711
0, 0, 20, 139.9545440673828
0, 0, 21, 223.2405548095703
0, 0, 22, 248.5926208496094
0, 0, 23, 255.8102111816406
0, 0, 24, 252.3357086181641
0, 0, 25, 259.1656494140625
0, 0, 26, 233.8475036621094
0, 0, 27, 238.7605285644531
0, 0, 28, 273.6155090332031
0, 0, 29, 253.1700592041016
0, 0, 30, 230.9147033691406
0, 0, 31, 244.0164642333984
0, 0, 32, 264.4316101074219
0, 0, 33, 263.8958129882812
0, 0, 34, 289.5157470703125
0, 0, 35, 268.6123352050781
0, 0, 36, 246.4874114990234
0, 0, 37, 251.1049194335938
0, 0, 38, 269.1533508300781
0, 0, 39, 229.7259521484375
0, 0, 40, 241.1087646484375
0, 0, 41, 266.8355102539062
0, 0, 42, 229.0571746826172
0, 0, 43, 258.1936950683594
0, 0, 44, 250.5843658447266
0, 0, 45, 253.74755859375
0, 0, 46, 244.8682403564453
0, 0, 47, 254.0253143310547
0, 0, 48, 266.5610656738281
0, 0, 49, 273.981689453125
0, 0, 50, 252.1658935546875
0, 0, 51, 256.0864562988281
0, 0, 52, 271.9729309082031
0, 0, 53, 294.7664489746094
0, 0, 54, 243.0259094238281
0, 0, 55, 240.5083160400391
0, 0, 56, 279.5026245117188
0, 0, 57, 262.891845703125
0, 0, 58, 247.6119537353516
0, 0, 59, 272.1297607421875
0, 0, 60, 234.4918060302734
0, 0, 61, 244.6667175292969
0, 0, 62, 256.9710083007812
0, 0, 63, 269.1947937011719
0, 0, 64, 255.7316131591797
0, 0, 65, 261.1463928222656
0, 0, 66, 276.9960327148438
0, 0, 67, 246.3150482177734
0, 0, 68, 259.0165710449219
0, 0, 69, 261.1344299316406
0, 0, 70, 271.1839599609375
0, 0, 71, 237.9370574951172
0, 0, 72, 250.1393280029297
0, 0, 73, 259.6226806640625
0, 0, 74, 251.0998992919922
0, 0, 75, 239.8157348632812
0, 0, 76, 229.0398101806641
0, 0, 77, 261.8519592285156
0, 0, 78, 258.3939514160156
0, 0, 79, 278.8554992675781
0, 0, 80, 215.7362823486328
0, 0, 81, 267.3034973144531
0, 0, 82, 256.6538696289062
0, 0, 83, 246.6085510253906
0, 0, 84, 269.6263732910156
0, 0, 85, 231.2740783691406
0, 0, 86, 253.8706817626953
0, 0, 87, 250.4917144775391
0, 0, 88, 260.923095703125
0, 0, 89, 284.9608154296875
0, 0, 90, 243.5547332763672
0, 0, 91, 280.3665466308594
0, 0, 92, 253.4863586425781
0, 0, 93, 249.5156707763672
0, 0, 94, 248.8731689453125
0, 0, 95, 248.4228515625
0, 0, 96, 275.4306640625
0, 0, 97, 271.9073181152344
0, 0, 98, 276.77001953125
0, 0, 99, 259.0207214355469
0, 0, 100, 258.0448913574219
0, 0, 101, 225.9706726074219
0, 0, 102, 233.1574401855469
0, 0, 103, 269.2952880859375
0, 0, 104, 255.9998779296875
0, 0, 105, 251.5081329345703
0, 0, 106, 248.9819030761719
0, 0, 107, 152.7265472412109
0, 0, 108, 38.27693939208984
0, 0, 109, 12.55517482757568
0, 0, 110, 11.73605442047119
0, 0, 111, 10.08009338378906
0, 0, 112, 6.674613475799561
0, 0, 113, 5.054339408874512
0, 0, 114, 5.856555461883545
0, 0, 115, 4.295342922210693
0, 0, 116, 4.657815933227539
0, 0, 117, 5.169407367706299
0, 0, 118, 6.592185020446777
0, 0, 119, 5.590842723846436
0, 0, 120, 5.717353343963623
0, 0, 121, 5.185730934143066
0, 0, 122, 4.393322944641113
0, 0, 123, 5.641330242156982
0, 0, 124, 7.2252516746521
0, 0, 125, 3.114514589309692
0, 0, 126, 2.925911903381348
0, 0, 127, 1.627445220947266
0, 1, 0, 6.883623123168945
0, 1, 1, 2.66666316986084
0, 1, 2, 2.935016870498657
0, 1, 3, 1.589425086975098
0, 1, 4, 2.48721170425415
0, 1, 5, 3.762621164321899
0, 1, 6, 5.790528297424316
0, 1, 7, 4.813619136810303
0, 1, 8, 7.283021926879883
0, 1, 9, 4.622629165649414
0, 1, 10, 8.043203353881836
0, 1, 11, 10.74358940124512
0, 1, 12, 7.367481708526611
0, 1, 13, 8.870189666748047
0, 1, 14, 8.24596118927002
0, 1, 15, 8.630340576171875
0, 1, 16, 11.08035373687744
0, 1, 17, 10.5860071182251
0, 1, 18, 22.27883911132812
0, 1, 19, 65.86414337158203
0, 1, 20, 197.5728149414062
0, 1, 21, 255.3084411621094
0, 1, 22, 294.4268493652344
0, 1, 23, 282.4231872558594
0, 1, 24, 276.5149230957031
0, 1, 25, 288.5317077636719
0, 1, 26, 270.2010192871094
0, 1, 27, 306.0076293945312
0, 1, 28, 299.4925231933594
0, 1, 29, 296.5829772949219
0, 1, 30, 279.6681213378906
0, 1, 31, 290.9909973144531
0, 1, 32, 289.5543212890625
0, 1, 33, 295.9005737304688
0, 1, 34, 292.0244750976562
0, 1, 35, 279.3376770019531
0, 1, 36, 307.3968200683594
0, 1, 37, 293.990234375
0, 1, 38, 281.8833312988281
0, 1, 39, 296.3999328613281
0, 1, 40, 266.2077331542969
0, 1, 41, 286.8319702148438
0, 1, 42, 289.7755432128906
0, 1, 43, 334.0689086914062
0, 1, 44, 278.8432006835938
0, 1, 45, 293.8415832519531
0, 1, 46, 259.2633056640625
0, 1, 47, 310.7022094726562
0, 1, 48, 286.0680847167969
0, 1, 49, 301.3168334960938
0, 1, 50, 262.7422180175781
0, 1, 51, 273.4005432128906
0, 1, 52, 295.4329223632812
0, 1, 53, 302.2684631347656
0, 1, 54, 273.1134033203125
0, 1, 55, 293.13037109375
0, 1, 56, 276.8011779785156
0, 1, 57, 297.0672607421875
0, 1, 58, 309.2054443359375
0, 1, 59, 291.85888671875
0, 1, 60, 298.7023620605469
0, 1, 61, 275.1033935546875
0, 1, 62, 309.5644226074219
0, 1, 63, 288.2552185058594
0, 1, 64, 288.4664001464844
0, 1, 65, 295.5837097167969
0, 1, 66, 294.2701416015625
0, 1, 67, 293.6783447265625
0, 1, 68, 277.8213500976562
0, 1, 69, 281.4859924316406
0, 1, 70, 270.343017578125
0, 1, 71, 274.6001586914062
0, 1, 72, 283.9261779785156
0, 1, 73, 303.1253356933594
0, 1, 74, 307.0741882324219
0, 1, 75, 292.3653869628906
0, 1, 76, 285.48974609375
0, 1, 77, 287.5478210449219
0, 1, 78, 296.6086120605469
0, 1, 79, 304.5940246582031
0, 1, 80, 297.4081726074219
0, 1, 81, 300.8023681640625
0, 1, 82, 283.496337890625
0, 1, 83, 333.9457092285156
0, 1, 84, 310.6634521484375
0, 1, 85, 252.9384613037109
0, 1, 86, 293.5618896484375
0, 1, 87, 290.6967163085938
0, 1, 88, 298.2213439941406
0, 1, 89, 289.93212890625
0, 1, 90, 272.2799682617188
0, 1, 91, 319.2359313964844
0, 1, 92, 293.1014709472656
0, 1, 93, 285.8205871582031
0, 1, 94, 306.0055236816406
0, 1, 95, 284.09033203125
0, 1, 96, 282.1094665527344
0, 1, 97, 304.4375610351562
0, 1, 98, 277.7953491210938
0, 1, 99, 267.1644592285156
0, 1, 100, 276.4302368164062
0, 1, 101, 281.0306396484375
0, 1, 102, 279.677978515625
0, 1, 103, 282.2174072265625
0, 1, 104, 306.120361328125
0, 1, 105, 296.6675415039062
0, 1, 106, 262.3513793945312
0, 1, 107, 191.6206207275391
0, 1, 108, 80.41325378417969
0, 1, 109, 22.98100852966309
0, 1, 110, 11.91115283966064
0, 1, 111, 9.784001350402832
0, 1, 112, 12.28176116943359
0, 1, 113, 7.887982845306396
0, 1, 114, 6.554035663604736
0, 1, 115, 5.203293800354004
0, 1, 116, 10.72444820404053
0, 1, 117, 3.926293611526489
0, 1, 118, 6.65532922744751
0, 1, 119, 4.271582126617432
0, 1, 120, 5.152572631835938
0, 1, 121, 2.359536647796631
0, 1, 122, 3.07855486869812
0, 1, 123, 4.174015998840332
0, 1, 124, 7.946657180786133
0, 1, 125, 3.695361137390137
0, 1, 126, 2.103670358657837
0, 1, 127, 2.587368249893188
0, 2, 0, 4.41707181930542
0, 2, 1, 1.527874708175659
0, 2, 2, 3.77813720703125
0, 2, 3, 6.732730865478516
0, 2, 4, 3.114331007003784
0, 2, 5, 2.355513334274292
0, 2, 6, 2.339328289031982
0, 2, 7, 5.054964065551758
0, 2, 8, 4.950640678405762
0, 2, 9, 5.266704082489014
0, 2, 10, 8.675851821899414
0, 2, 11, 9.981897354125977
0, 2, 12, 7.476455688476562
0, 2, 13, 9.39823055267334
0, 2, 14, 9.148844718933105
0, 2, 15, 10.15564060211182
0, 2, 16, 8.768077850341797
0, 2, 17, 16.81179046630859
0, 2, 18, 30.54628372192383
0, 2, 19, 116.0684127807617
0, 2, 20, 247.8546142578125
0, 2, 21, 270.3879089355469
0, 2, 22, 316.5453796386719
0, 2, 23, 300.3519592285156
0, 2, 24, 286.8116455078125
0, 2, 25, 304.9293823242188
0, 2, 26, 294.4954528808594
0, 2, 27, 275.006103515625
0, 2, 28, 273.3085632324219
0, 2, 29, 274.9216918945312
0, 2, 30, 288.822509765625
0, 2, 31, 275.9987182617188
0, 2, 32, 292.8095703125
0, 2, 33, 282.7751770019531
0, 2, 34, 333.6783447265625
0, 2, 35, 288.7902221679688
0, 2, 36, 302.0718078613281
0, 2, 37, 316.7636413574219
0, 2, 38, 310.3957824707031
0, 2, 39, 266.9276428222656
0, 2, 40, 308.5677795410156
0, 2, 41, 292.1514892578125
0, 2, 42, 304.2613220214844
0, 2, 43, 312.8554992675781
0, 2, 44, 313.3483276367188
0, 2, 45, 325.4772033691406
0, 2, 46, 285.7957153320312
0, 2, 47, 301.9273071289062
0, 2, 48, 281.6228637695312
0, 2, 49, 280.1586303710938
0, 2, 50, 293.6957397460938
0, 2, 51, 283.1340026855469
0, 2, 52, 273.3617858886719
0, 2, 53, 286.7757568359375
0, 2, 54, 279.9690246582031
0, 2, 55, 276.7383422851562
0, 2, 56, 301.8704528808594
0, 2, 57, 292.4663696289062
0, 2, 58, 302.0791625976562
0, 2, 59, 292.8428955078125
0, 2, 60, 320.5698852539062
0, 2, 61, 302.6882019042969
0, 2, 62, 315.2627258300781
0, 2, 63, 300.4325866699219
0, 2, 64, 294.6587219238281
0, 2, 65, 312.8437194824219
0, 2, 66, 281.43408203125
0, 2, 67, 289.9051818847656
0, 2, 68, 296.2881774902344
0, 2, 69, 311.7501220703125
0, 2, 70, 334.4462585449219
0, 2, 71, 284.5767822265625
0, 2, 72, 299.2135925292969
0, 2, 73, 311.7578735351562
0, 2, 74, 286.2946166992188
0, 2, 75, 304.1912536621094
0, 2, 76, 288.7983703613281
0, 2, 77, 301.4380493164062
0, 2, 78, 318.285400390625
0, 2, 79, 307.7217712402344
0, 2, 80, 294.6669616699219
0, 2, 81, 282.5282592773438
0, 2, 82, 318.6319885253906
0, 2, 83, 311.3919067382812
0, 2, 84, 287.0693359375
0, 2, 85, 280.2041931152344
0, 2, 86, 323.7865600585938
0, 2, 87, 286.19873046875
0, 2, 88, 281.2760620117188
0, 2, 89, 295.9024353027344
0, 2, 90, 294.3798217773438
0, 2, 91, 277.3231811523438
0, 2, 92, 305.0075073242188
0, 2, 93, 318.5169067382812
0, 2, 94, 291.4603576660156
0, 2, 95, 316.660400390625
0, 2, 96, 315.3280334472656
0, 2, 97, 290.8177795410156
0, 2, 98, 293.953369140625
0, 2, 99, 272.3389587402344
0, 2, 100, 306.7191467285156
0, 2, 101, 301.1225280761719
0, 2, 102, 296.3060607910156
0, 2, 103, 291.8734436035156
0, 2, 104, 292.6317138671875
0, 2, 105, 274.0231323242188
0, 2, 106, 299.5751953125
0, 2, 107, 267.352783203125
0, 2, 108, 117.4880676269531
0, 2, 109, 32.5776252746582
0, 2, 110, 11.33537292480469
0, 2, 111, 12.39804649353027
0, 2, 112, 7.648589611053467
0, 2, 113, 11.14144992828369
0, 2, 114, 9.985953330993652
0, 2, 115, 9.810532569885254
0, 2, 116, 10.64811611175537
0, 2, 117, 8.603717803955078
0, 2, 118, 4.94797420501709
0, 2, 119, 4.896799564361572
0, 2, 120, 6.415584087371826
0, 2, 121, 3.056918859481812
0, 2, 122, 4.954542636871338
0, 2, 123, 3.235883474349976
0, 2, 124, 2.702541828155518
0, 2, 125, 4.287612438201904
0, 2, 126, 3.414209127426147
0, 2, 127, 4.987841606140137
0, 3, 0, 2.878944873809814
0, 3, 1, 3.7871413230896
0, 3, 2, 5.349166870117188
0, 3, 3, 1.687201261520386
0, 3, 4, 3.854968547821045
0, 3, 5, 7.668701171875
0, 3, 6, 6.355207920074463
0, 3, 7, 6.008703708648682
0, 3, 8, 4.613451480865479
0, 3, 9, 6.962697505950928
0, 3, 10, 6.055231094360352
0, 3, 11, 4.72698974609375
0, 3, 12, 7.078859329223633
0, 3, 13, 14.83000946044922
0, 3, 14, 12.93461418151855
0, 3, 15, 11.90909099578857
0, 3, 16, 12.00124168395996
0, 3, 17, 20.61691474914551
0, 3, 18, 53.99240493774414
0, 3, 19, 176.3182220458984
0, 3, 20, 271.2176513671875
0, 3, 21, 271.0923461914062
0, 3, 22, 282.8630065917969
0, 3, 23, 287.5147705078125
0, 3, 24, 286.2211303710938
0, 3, 25, 269.2799682617188
0, 3, 26, 303.1796264648438
0, 3, 27, 293.63427734375
0, 3, 28, 280.9472351074219
0, 3, 29, 340.4726867675781
0, 3, 30, 322.9863586425781
0, 3, 31, 286.1109313964844
0, 3, 32, 306.716552734375
0, 3, 33, 313.9075927734375
0, 3, 34, 321.6496887207031
0, 3, 35, 304.8124084472656
0, 3, 36, 268.7510986328125
0, 3, 37, 313.49560546875
0, 3, 38, 305.0107421875
0, 3, 39, 292.1394958496094
0, 3, 40, 266.3892211914062
0, 3, 41, 299.6925964355469
0, 3, 42, 287.1937255859375
0, 3, 43, 305.9125061035156
0, 3, 44, 309.5028686523438
0, 3, 45, 289.98095703125
0, 3, 46, 328.2449645996094
0, 3, 47, 298.6893615722656
0, 3, 48, 303.9502563476562
0, 3, 49, 277.6573181152344
0, 3, 50, 289.90869140625
0, 3, 51, 276.4425354003906
0, 3, 52, 316.3896179199219
0, 3, 53, 288.0788269042969
0, 3, 54, 283.6513366699219
0, 3, 55, 284.2467346191406
0, 3, 56, 298.1829223632812
0, 3, 57, 289.4394226074219
0, 3, 58, 308.2337951660156
0, 3, 59, 292.697509765625
0, 3, 60, 298.1008911132812
0, 3, 61, 266.7077941894531
0, 3, 62, 283.9712524414062
0, 3, 63, 308.0314331054688
0, 3, 64, 316.9547119140625
0, 3, 65, 305.4202880859375
0, 3, 66, 313.7750549316406
0, 3, 67, 317.5459899902344
0, 3, 68, 279.1239929199219
0, 3, 69, 282.447021484375
0, 3, 70, 291.5783386230469
0, 3, 71, 298.8887634277344
0, 3, 72, 268.9363403320312
0, 3, 73, 309.1613159179688
0, 3, 74, 292.3052368164062
0, 3, 75, 292.4027404785156
0, 3, 76, 306.9010925292969
0, 3, 77, 312.4036560058594
0, 3, 78, 305.8281860351562
0, 3, 79, 282.0597229003906
0, 3, 80, 289.298095703125
0, 3, 81, 313.0825500488281
0, 3, 82, 315.1081848144531
0, 3, 83, 303.0294494628906
0, 3, 84, 310.6248168945312
0, 3, 85, 294.2674255371094
0, 3, 86, 303.1752624511719
0, 3, 87, 299.6919555664062
0, 3, 88, 296.515380859375
0, 3, 89, 299.5362854003906
0, 3, 90, 275.0159606933594
0, 3, 91, 283.9269104003906
0, 3, 92, 302.4248352050781
0, 3, 93, 312.2271728515625
0, 3, 94, 298.4379577636719
0, 3, 95, 336.9164733886719
0, 3, 96, 290.6538696289062
0, 3, 97, 283.5523681640625
0, 3, 98, 278.251220703125
0, 3, 99, 261.6337585449219
0, 3, 100, 284.7638244628906
0, 3, 101, 299.4024047851562
0, 3, 102, 273.7082824707031
0, 3, 103, 319.3851623535156
0, 3, 104, 307.4358520507812
0, 3, 105, 290.7912292480469
0, 3, 106, 301.0057067871094
0, 3, 107, 282.9559326171875
0, 3, 108, 168.7132263183594
0, 3, 109, 56.673583984375
0, 3, 110, 17.72734451293945
0, 3, 111, 13.61572170257568
0, 3, 112, 11.66714572906494
0, 3, 113, 6.692617416381836
0, 3, 114, 9.968992233276367
0, 3, 115, 6.801204204559326
0, 3, 116, 8.973210334777832
0, 3, 117, 6.469481945037842
0, 3, 118, 6.789666175842285
0, 3, 119, 4.862308025360107
0, 3, 120, 7.166538238525391
0, 3, 121, 2.193666934967041
0, 3, 122, 3.290263652801514
0, 3, 123, 4.377982139587402
0, 3, 124, 3.738190889358521
0, 3, 125, 5.037045478820801
0, 3, 126, 6.12598991394043
0, 3, 127, 3.308876752853394
0, 4, 0, 3.283538103103638
0, 4, 1, 6.05819845199585
0, 4, 2, 4.770020961761475
0, 4, 3, 3.314770698547363
0, 4, 4, 5.798344612121582
0, 4, 5, 7.658102512359619
0, 4, 6, 6.2340087890625
0, 4, 7, 5.132612705230713
0, 4, 8, 4.447652816772461
0, 4, 9, 6.394924640655518
0, 4, 10, 6.351104736328125
0, 4, 11, 6.166656017303467
0, 4, 12, 6.618271827697754
0, 4, 13, 9.179646492004395
0, 4, 14, 12.2763090133667
0, 4, 15, 9.54951000213623
0, 4, 16, 16.58206748962402
0, 4, 17, 17.3136100769043
0, 4, 18, 92.74493408203125
0, 4, 19, 224.8280029296875
0, 4, 20, 286.1037902832031
0, 4, 21, 271.3538513183594
0, 4, 22, 305.8434143066406
0, 4, 23, 266.6146850585938
0, 4, 24, 289.0101318359375
0, 4, 25, 271.5992126464844
0, 4, 26, 294.1616516113281
0, 4, 27, 282.8079223632812
0, 4, 28, 309.6429443359375
0, 4, 29, 323.9858093261719
0, 4, 30, 310.7404479980469
0, 4, 31, 305.712158203125
0, 4, 32, 280.4666442871094
0, 4, 33, 294.3012390136719
0, 4, 34, 296.4837646484375
0, 4, 35, 312.0404968261719
0, 4, 36, 292.8451843261719
0, 4, 37, 288.7414855957031
0, 4, 38, 300.7180480957031
0, 4, 39, 296.0934143066406
0, 4, 40, 303.2497863769531
0, 4, 41, 312.7559509277344
0, 4, 42, 329.2593078613281
0, 4, 43, 296.4038696289062
0, 4, 44, 320.1624755859375
0, 4, 45, 324.4044799804688
0, 4, 46, 305.8510131835938
0, 4, 47, 292.12109375
0, 4, 48, 293.9159851074219
0, 4, 49, 279.5395812988281
0, 4, 50, 296.2597045898438
0, 4, 51, 315.6902465820312
0, 4, 52, 327.6412658691406
0, 4, 53, 303.6560668945312
0, 4, 54, 287.8364868164062
0, 4, 55, 316.8663940429688
0, 4, 56, 288.295166015625
0, 4, 57, 311.100830078125
0, 4, 58, 292.5206909179688
0, 4, 59, 308.2890319824219
0, 4, 60, 301.2529602050781
0, 4, 61, 315.6538391113281
0, 4, 62, 307.1971130371094
0, 4, 63, 297.7151794433594
0, 4, 64, 329.0911560058594
0, 4, 65, 317.22412109375
0, 4, 66, 294.2867431640625
0, 4, 67, 284.278076171875
0, 4, 68, 315.0790405273438
0, 4, 69, 277.8389282226562
0, 4, 70, 300.8070068359375
0, 4, 71, 322.0517883300781
0, 4, 72, 333.7801208496094
0, 4, 73, 298.842041015625
0, 4, 74, 295.952392578125
0, 4, 75, 288.1869506835938
0, 4, 76, 276.34326171875
0, 4, 77, 277.2108459472656
0, 4, 78, 307.1722106933594
0, 4, 79, 319.7081909179688
0, 4, 80, 317.3053588867188
0, 4, 81, 314.52392578125
0, 4, 82, 297.4249267578125
0, 4, 83, 298.794677734375
0, 4, 84, 297.3008422851562
0, 4, 85, 294.3344116210938
0, 4, 86, 297.1906127929688
0, 4, 87, 284.9652099609375
0, 4, 88, 306.8707275390625
0, 4, 89, 295.8599548339844
0, 4, 90, 331.5370483398438
0, 4, 91, 300.4475402832031
0, 4, 92, 290.2371826171875
0, 4, 93, 297.4217834472656
0, 4, 94, 294.1182556152344
0, 4, 95, 288.1935729980469
0, 4, 96, 323.9223327636719
0, 4, 97, 274.4081420898438
0, 4, 98, 326.3712158203125
0, 4, 99, 314.24365234375
0, 4, 100, 300.3007202148438
0, 4, 101, 257.3696594238281
0, 4, 102, 296.6919555664062
0, 4, 103, 316.6692504882812
0, 4, 104, 283.4444885253906
0, 4, 105, 311.1836547851562
0, 4, 106, 287.0892944335938
0, 4, 107, 298.4021301269531
0, 4, 108, 225.6393432617188
0, 4, 109, 81.50469207763672
0, 4, 110, 16.63735198974609
0, 4, 111, 14.67768478393555
0, 4, 112, 9.674537658691406
0, 4, 113, 13.23036575317383
0, 4, 114, 7.53296947479248
0, 4, 115, 9.472712516784668
0, 4, 116, 8.757999420166016
0, 4, 117, 4.747928142547607
0, 4, 118, 8.151605606079102
0, 4, 119, 12.44922161102295
0, 4, 120, 6.495302677154541
0, 4, 121, 5.656885147094727
0, 4, 122, 4.874871730804443
0, 4, 123, 5.818291187286377
0, 4, 124, 6.020094871520996
0, 4, 125, 11.49545478820801
0, 4, 126, 4.393516540527344
0, 4, 127, 4.167760848999023
0, 5, 0, 3.446734189987183
0, 5, 1, 5.714359283447266
0, 5, 2, 5.409071922302246
0, 5, 3, 3.357683181762695
0, 5, 4, 6.432084560394287
0, 5, 5, 6.064755916595459
0, 5, 6, 8.305037498474121
0, 5, 7, 3.807603359222412
0, 5, 8, 4.074319362640381
0, 5, 9, 5.702964305877686
0, 5, 10, 7.825424194335938
0, 5, 11, 9.842972755432129
0, 5, 12, 8.634305953979492
0, 5, 13, 5.249429702758789
0, 5, 14, 11.93507289886475
0, 5, 15, 16.21960258483887
0, 5, 16, 13.97227573394775
0, 5, 17, 30.0562915802002
0, 5, 18, 137.1362915039062
0, 5, 19, 287.5949096679688
0, 5, 20, 307.2515563964844
0, 5, 21, 318.352294921875
0, 5, 22, 276.7389526367188
0, 5, 23, 310.9580688476562
0, 5, 24, 302.0106201171875
0, 5, 25, 289.60205078125
0, 5, 26, 294.2183532714844
0, 5, 27, 321.3074340820312
0, 5, 28, 307.0753479003906
0, 5, 29, 297.9082946777344
0, 5, 30, 325.6468811035156
0, 5, 31, 285.2166748046875
0, 5, 32, 304.8013305664062
0, 5, 33, 302.257080078125
0, 5, 34, 297.8256530761719
0, 5, 35, 310.0613708496094
0, 5, 36, 271.0498962402344
0, 5, 37, 283.2750244140625
0, 5, 38, 292.1642456054688
0, 5, 39, 312.4376525878906
0, 5, 40, 310.2809753417969
0, 5, 41, 272.7410583496094
0, 5, 42, 306.4674072265625
0, 5, 43, 314.8187255859375
0, 5, 44, 293.5694580078125
0, 5, 45, 303.8945007324219
0, 5, 46, 266.4394836425781
0, 5, 47, 282.0579833984375
0, 5, 48, 294.1131286621094
0, 5, 49, 284.9168701171875
0, 5, 50, 294.1427917480469
0, 5, 51, 278.8097839355469
0, 5, 52, 269.5199890136719
0, 5, 53, 285.8843383789062
0, 5, 54, 292.4019470214844
0, 5, 55, 342.7037048339844
0, 5, 56, 306.0291137695312
0, 5, 57, 307.2915344238281
0, 5, 58, 312.0001831054688
0, 5, 59, 301.8242797851562
0, 5, 60, 309.3796081542969
0, 5, 61, 282.2232971191406
0, 5, 62, 324.6105346679688
0, 5, 63, 289.9553527832031
0, 5, 64, 323.7128295898438
0, 5, 65, 308.8305969238281
0, 5, 66, 330.7090454101562
0, 5, 67, 312.2768859863281
0, 5, 68, 308.8020935058594
0, 5, 69, 310.3471069335938
0, 5, 70, 303.5599670410156
0, 5, 71, 272.1650085449219
0, 5, 72, 310.5516662597656
0, 5, 73, 302.7667541503906
0, 5, 74, 295.51220703125
0, 5, 75, 294.513671875
0, 5, 76, 285.7066345214844
0, 5, 77, 297.7530517578125
0, 5, 78, 312.7471923828125
0, 5, 79, 306.0021362304688
0, 5, 80, 295.8302612304688
0, 5, 81, 325.8525695800781
0, 5, 82, 323.7637939453125
0, 5, 83, 279.6339111328125
0, 5, 84, 301.5285034179688
0, 5, 85, 273.0453491210938
0, 5, 86, 323.4958801269531
0, 5, 87, 283.9992370605469
0, 5, 88, 315.3236999511719
0, 5, 89, 306.2059326171875
0, 5, 90, 315.3748779296875
0, 5, 91, 317.4638671875
0, 5, 92, 297.0966491699219
0, 5, 93, 323.89794921875
0, 5, 94, 306.5690307617188
0, 5, 95, 296.3129272460938
0, 5, 96, 297.0615234375
0, 5, 97, 297.4310913085938
0, 5, 98, 317.8339233398438
0, 5, 99, 301.8515319824219
0, 5, 100, 291.0477600097656
0, 5, 101, 305.6321105957031
0, 5, 102, 292.2886352539062
0, 5, 103, 313.9773559570312
0, 5, 104, 304.1126403808594
0, 5, 105, 289.9258422851562
0, 5, 106, 281.597412109375
0, 5, 107, 293.606689453125
0, 5, 108, 264.3858032226562
0, 5, 109, 154.9970397949219
0, 5, 110, 39.85549163818359
0, 5, 111, 21.47379684448242
0, 5, 112, 14.5809211730957
0, 5, 113, 12.71405601501465
0, 5, 114, 13.42514705657959
0, 5, 115, 7.696731090545654
0, 5, 116, 9.54763126373291
0, 5, 117, 8.579635620117188
0, 5, 118, 15.68935966491699
0, 5, 119, 3.141875982284546
0, 5, 120, 5.822047233581543
0, 5, 121, 4.516808032989502
0, 5, 122, 5.551750183105469
0, 5, 123, 4.887245178222656
0, 5, 124, 5.933351993560791
0, 5, 125, 3.538349866867065
0, 5, 126, 5.665350914001465
0, 5, 127, 3.087157726287842
0, 6, 0, 4.972269535064697
0, 6, 1, 2.703094005584717
0, 6, 2, 5.769030094146729
0, 6, 3, 6.372611045837402
0, 6, 4, 3.174381494522095
0, 6, 5, 5.46773099899292
0, 6, 6, 9.214738845825195
0, 6, 7, 6.404623985290527
0, 6, 8, 7.306707859039307
0, 6, 9, 7.839452743530273
0, 6, 10, 11.66580581665039
0, 6, 11, 8.181970596313477
0, 6, 12, 10.19675636291504
0, 6, 13, 15.04029273986816
0, 6, 14, 8.537090301513672
0, 6, 15, 16.52704429626465
0, 6, 16, 29.75349426269531
0, 6, 17, 54.23541259765625
0, 6, 18, 173.1989135742188
0, 6, 19, 277.5695190429688
0, 6, 20, 290.5314636230469
0, 6, 21, 315.3954162597656
0, 6, 22, 318.4371032714844
0, 6, 23, 307.9224548339844
0, 6, 24, 317.6686096191406
0, 6, 25, 317.2820739746094
0, 6, 26, 320.2792663574219
0, 6, 27, 331.3040161132812
0, 6, 28, 296.03857421875
0, 6, 29, 328.4374084472656
0, 6, 30, 279.2315673828125
0, 6, 31, 286.6789855957031
0, 6, 32, 344.7462463378906
0, 6, 33, 303.1170654296875
0, 6, 34, 340.1117553710938
0, 6, 35, 320.6824645996094
0, 6, 36, 273.7839660644531
0, 6, 37, 290.4859313964844
0, 6, 38, 310.2532348632812
0, 6, 39, 298.2298889160156
0, 6, 40, 283.427490234375
0, 6, 41, 296.0918273925781
0, 6, 42, 304.2082214355469
0, 6, 43, 288.7227783203125
0, 6, 44, 281.0052490234375
0, 6, 45, 320.4745483398438
0, 6, 46, 301.650390625
0, 6, 47, 332.7953491210938
0, 6, 48, 293.1242065429688
0, 6, 49, 310.9502258300781
0, 6, 50, 327.7665100097656
0, 6, 51, 311.2175598144531
0, 6, 52, 321.3804016113281
0, 6, 53, 330.8003845214844
0, 6, 54, 303.3984375
0, 6, 55, 306.0017700195312
0, 6, 56, 292.6405639648438
0, 6, 57, 311.8525695800781
0, 6, 58, 260.3234252929688
0, 6, 59, 301.6778869628906
0, 6, 60, 313.1762084960938
0, 6, 61, 270.7402038574219
0, 6, 62, 334.7013244628906
0, 6, 63, 325.1635437011719
0, 6, 64, 292.3180847167969
0, 6, 65, 284.9828491210938
0, 6, 66, 304.0284423828125
0, 6, 67, 311.012451171875
0, 6, 68, 293.8775329589844
0, 6, 69, 279.2567749023438
0, 6, 70, 273.8438110351562
0, 6, 71, 290.8768920898438
0, 6, 72, 310.8144836425781
0, 6, 73, 292.208740234375
0, 6, 74, 330.3359985351562
0, 6, 75, 343.6663818359375
0, 6, 76, 298.5689086914062
0, 6, 77, 285.9776916503906
0, 6, 78, 282.3545837402344
0, 6, 79, 297.0228881835938
0, 6, 80, 300.4854125976562
0, 6, 81, 315.7402954101562
0, 6, 82, 319.3976135253906
0, 6, 83, 321.0807800292969
0, 6, 84, 295.1616821289062
0, 6, 85, 300.3599853515625
0, 6, 86, 330.3769836425781
0, 6, 87, 291.8699951171875
0, 6, 88, 304.8852233886719
0, 6, 89, 304.0607299804688
0, 6, 90, 300.149658203125
0, 6, 91, 312.6953430175781
0, 6, 92, 285.5597839355469
0, 6, 93, 296.3312377929688
0, 6, 94, 274.5287475585938
0, 6, 95, 301.9442749023438
0, 6, 96, 349.174560546875
0, 6, 97, 308.2868347167969
0, 6, 98, 301.155517578125
0, 6, 99, 270.7226867675781
0, 6, 100, 310.0981140136719
0, 6, 101, 292.8775024414062
0, 6, 102, 308.1124267578125
0, 6, 103, 306.5802001953125
0, 6, 104, 292.7676086425781
0, 6, 105, 301.338623046875
0, 6, 106, 305.9896240234375
0, 6, 107, 305.7201232910156
0, 6, 108, 265.8592834472656
0, 6, 109, 186.5120697021484
0, 6, 110, 53.87310791015625
0, 6, 111, 22.89213943481445
0, 6, 112, 12.77871704101562
0, 6, 113, 10.47311973571777
0, 6, 114, 12.25940608978271
0, 6, 115, 11.50758171081543
0, 6, 116, 9.243691444396973
0, 6, 117, 7.239989757537842
0, 6, 118, 7.901121616363525
0, 6, 119, 7.57956075668335
0, 6, 120, 5.148360729217529
0, 6, 121, 6.794459342956543
0, 6, 122, 8.405735015869141
0, 6, 123, 4.647227764129639
0, 6, 124, 5.606270790100098
0, 6, 125, 7.457207202911377
0, 6, 126, 4.150835514068604
0, 6, 127, 5.221046924591064
0, 7, 0, 5.085044860839844
0, 7, 1, 4.111283779144287
0, 7, 2, 5.17532205581665
0, 7, 3, 6.439652442932129
0, 7, 4, 4.801378726959229
0, 7, 5, 4.258409976959229
0, 7, 6, 5.458029747009277
0, 7, 7, 5.001078605651855
0, 7, 8, 5.512983322143555
0, 7, 9, 6.431414604187012
0, 7, 10, 8.730391502380371
0, 7, 11, 11.7186975479126
0, 7, 12, 8.423053741455078
0, 7, 13, 13.14375877380371
0, 7, 14, 12.50101947784424
0, 7, 15, 18.12667465209961
0, 7, 16, 29.50761604309082
0, 7, 17, 97.33893585205078
0, 7, 18, 217.1092681884766
0, 7, 19, 289.3185729980469
0, 7, 20, 299.7037353515625
0, 7, 21, 276.0310668945312
0, 7, 22, 300.0093688964844
0, 7, 23, 288.5523376464844
0, 7, 24, 313.1680908203125
0, 7, 25, 324.3031311035156
0, 7, 26, 276.9831237792969
0, 7, 27, 297.1649475097656
0, 7, 28, 325.9157409667969
0, 7, 29, 317.2415466308594
0, 7, 30, 299.1141052246094
0, 7, 31, 278.470947265625
0, 7, 32, 307.4087524414062
0, 7, 33, 264.5913391113281
0, 7, 34, 297.4596557617188
0, 7, 35, 319.7235717773438
0, 7, 36, 332.8356628417969
0, 7, 37, 324.749755859375
0, 7, 38, 296.7517395019531
0, 7, 39, 306.2777404785156
0, 7, 40, 292.6566467285156
0, 7, 41, 270.2542114257812
0, 7, 42, 301.2223205566406
0, 7, 43, 275.62158203125
0, 7, 44, 304.1560363769531
0, 7, 45, 295.9873046875
0, 7, 46, 280.4333801269531
0, 7, 47, 327.89990234375
0, 7, 48, 288.568603515625
0, 7, 49, 301.9809265136719
0, 7, 50, 320.3522338867188
0, 7, 51, 299.4643859863281
0, 7, 52, 326.7077941894531
0, 7, 53, 308.2125244140625
0, 7, 54, 324.4195861816406
0, 7, 55, 306.9851684570312
0, 7, 56, 278.4039306640625
0, 7, 57, 283.1651000976562
0, 7, 58, 297.0901489257812
0, 7, 59, 292.5337219238281
0, 7, 60, 321.5628356933594
0, 7, 61, 277.58544921875
0, 7, 62, 296.0242004394531
0, 7, 63, 291.978759765625
0, 7, 64, 307.2673950195312
0, 7, 65, 330.1028442382812
0, 7, 66, 321.3218078613281
0, 7, 67, 301.61572265625
0, 7, 68, 278.7529907226562
0, 7, 69, 293.9920349121094
0, 7, 70, 301.6307678222656
0, 7, 71, 309.9801940917969
0, 7, 72, 286.52001953125
0, 7, 73, 296.6110534667969
0, 7, 74, 345.5234069824219
0, 7, 75, 318.9065856933594
0, 7, 76, 323.3177795410156
0, 7, 77, 282.1553344726562
0, 7, 78, 299.4886474609375
0, 7, 79, 297.6120300292969
0, 7, 80, 311.3494262695312
0, 7, 81, 318.25146484375
0, 7, 82, 329.829833984375
0, 7, 83, 316.584716796875
0, 7, 84, 309.0388793945312
0, 7, 85, 272.0303955078125
0, 7, 86, 311.8819274902344
0, 7, 87, 310.7908325195312
0, 7, 88, 312.0100402832031
0, 7, 89, 293.9353637695312
0, 7, 90, 305.74755859375
0, 7, 91, 314.3767395019531
0, 7, 92, 285.685791015625
0, 7, 93, 308.8253173828125
0, 7, 94, 274.3446350097656
0, 7, 95, 296.1623840332031
0, 7, 96, 331.0803833007812
0, 7, 97, 294.2693481445312
0, 7, 98, 290.1615295410156
0, 7, 99, 310.5690612792969
0, 7, 100, 281.0191955566406
0, 7, 101, 276.4916687011719
0, 7, 102, 293.18505859375
0, 7, 103, 291.8619079589844
0, 7, 104, 274.3900451660156
0, 7, 105, 307.1745300292969
0, 7, 106, 319.1674499511719
0, 7, 107, 296.5572204589844
0, 7, 108, 274.1900634765625
0, 7, 109, 233.9228363037109
0, 7, 110, 95.52499389648438
0, 7, 111, 23.96881675720215
0, 7, 112, 14.00100517272949
0, 7, 113, 14.95272064208984
0, 7, 114, 14.59791564941406
0, 7, 115, 12.97415924072266
0, 7, 116, 9.895513534545898
0, 7, 117, 5.417998790740967
0, 7, 118, 7.491458415985107
0, 7, 119, 7.760636806488037
0, 7, 120, 5.45197582244873
0, 7, 121, 6.509880065917969
0, 7, 122, 7.872756004333496
0, 7, 123, 4.258327007293701
0, 7, 124, 5.91092586517334
0, 7, 125, 7.28976583480835
0, 7, 126, 6.535103321075439
0, 7, 127, 4.540441036224365
0, 8, 0, 6.050528049468994
0, 8, 1, 4.651206493377686
0, 8, 2, 2.54697060585022
0, 8, 3, 2.412877559661865
0, 8, 4, 3.698176860809326
0, 8, 5, 3.085041046142578
0, 8, 6, 5.329617023468018
0, 8, 7, 7.55274772644043
0, 8, 8, 6.916211605072021
0, 8, 9, 4.815207481384277
0, 8, 10, 8.677233695983887
0, 8, 11, 14.87815380096436
0, 8, 12, 13.97912216186523
0, 8, 13, 14.41422462463379
0, 8, 14, 14.00112819671631
0, 8, 15, 18.00275611877441
0, 8, 16, 32.70094299316406
0, 8, 17, 129.4362487792969
0, 8, 18, 242.1015930175781
0, 8, 19, 294.4300537109375
0, 8, 20, 287.1430053710938
0, 8, 21, 308.9507446289062
0, 8, 22, 298.1340026855469
0, 8, 23, 275.9588928222656
0, 8, 24, 270.6268310546875
0, 8, 25, 278.9544982910156
0, 8, 26, 308.3388061523438
0, 8, 27, 307.4580078125
0, 8, 28, 304.52392578125
0, 8, 29, 322.7057800292969
0, 8, 30, 315.0438232421875
0, 8, 31, 306.3394470214844
0, 8, 32, 279.5374450683594
0, 8, 33, 293.6512145996094
0, 8, 34, 287.8631591796875
0, 8, 35, 278.8359985351562
0, 8, 36, 316.0552978515625
0, 8, 37, 340.1708374023438
0, 8, 38, 332.6734619140625
0, 8, 39, 282.3890686035156
