# TOPAS Version: 3.1.p3
# Parameter File: batch_inserts_78.txt
# Results for scorer Readout_Adipose
# Scored in component: MyBox
# X in 1 bin  of 0.75 cm
# Y in 512 bins of 0.0783984 cm
# Z in 128 bins of 0.078125 cm
# EnergyDeposit ( MeV ) : Sum   
0, 0, 0, 2.717772960662842
0, 0, 1, 1.500911235809326
0, 0, 2, 5.063854694366455
0, 0, 3, 4.124868869781494
0, 0, 4, 3.256953477859497
0, 0, 5, 2.86898136138916
0, 0, 6, 8.7745361328125
0, 0, 7, 9.831822395324707
0, 0, 8, 4.682994365692139
0, 0, 9, 4.106595993041992
0, 0, 10, 6.182204723358154
0, 0, 11, 4.903923511505127
0, 0, 12, 5.159451484680176
0, 0, 13, 5.101748466491699
0, 0, 14, 6.642285823822021
0, 0, 15, 10.32419681549072
0, 0, 16, 8.549494743347168
0, 0, 17, 8.471769332885742
0, 0, 18, 14.62861442565918
0, 0, 19, 46.55863952636719
0, 0, 20, 139.8194885253906
0, 0, 21, 223.7683410644531
0, 0, 22, 247.8921508789062
0, 0, 23, 256.6121826171875
0, 0, 24, 251.0872192382812
0, 0, 25, 258.0071411132812
0, 0, 26, 234.4402770996094
0, 0, 27, 236.3880920410156
0, 0, 28, 273.0344543457031
0, 0, 29, 252.6444244384766
0, 0, 30, 229.4569396972656
0, 0, 31, 243.8354339599609
0, 0, 32, 263.92138671875
0, 0, 33, 263.8876953125
0, 0, 34, 287.6278076171875
0, 0, 35, 266.4806823730469
0, 0, 36, 246.5295104980469
0, 0, 37, 252.1129608154297
0, 0, 38, 270.849365234375
0, 0, 39, 229.7568817138672
0, 0, 40, 244.4010925292969
0, 0, 41, 265.7103271484375
0, 0, 42, 230.4716491699219
0, 0, 43, 258.7359924316406
0, 0, 44, 251.6667785644531
0, 0, 45, 252.4391479492188
0, 0, 46, 244.6934661865234
0, 0, 47, 252.1046447753906
0, 0, 48, 267.1415405273438
0, 0, 49, 274.4420166015625
0, 0, 50, 251.7633819580078
0, 0, 51, 253.2942962646484
0, 0, 52, 274.3287048339844
0, 0, 53, 291.098388671875
0, 0, 54, 242.4150390625
0, 0, 55, 239.7110443115234
0, 0, 56, 276.8773498535156
0, 0, 57, 263.9830627441406
0, 0, 58, 245.5681610107422
0, 0, 59, 270.3635559082031
0, 0, 60, 235.4127655029297
0, 0, 61, 246.2252197265625
0, 0, 62, 257.0990295410156
0, 0, 63, 266.8479614257812
0, 0, 64, 257.0692749023438
0, 0, 65, 261.9450073242188
0, 0, 66, 275.9944152832031
0, 0, 67, 245.7890167236328
0, 0, 68, 258.532470703125
0, 0, 69, 260.6184692382812
0, 0, 70, 274.0176086425781
0, 0, 71, 237.2011871337891
0, 0, 72, 250.5940093994141
0, 0, 73, 260.2274475097656
0, 0, 74, 250.7452087402344
0, 0, 75, 239.8821258544922
0, 0, 76, 228.5961608886719
0, 0, 77, 259.8876342773438
0, 0, 78, 256.1557922363281
0, 0, 79, 277.7113037109375
0, 0, 80, 216.9703979492188
0, 0, 81, 267.6088562011719
0, 0, 82, 255.4335784912109
0, 0, 83, 247.5935211181641
0, 0, 84, 270.0235290527344
0, 0, 85, 232.8595581054688
0, 0, 86, 252.3981170654297
0, 0, 87, 251.0393218994141
0, 0, 88, 261.4850158691406
0, 0, 89, 283.8190002441406
0, 0, 90, 245.7683410644531
0, 0, 91, 282.3807983398438
0, 0, 92, 255.4932861328125
0, 0, 93, 249.0404205322266
0, 0, 94, 251.5927276611328
0, 0, 95, 247.7482452392578
0, 0, 96, 275.2526550292969
0, 0, 97, 272.4022827148438
0, 0, 98, 272.3263549804688
0, 0, 99, 258.0281982421875
0, 0, 100, 258.7904052734375
0, 0, 101, 225.9684600830078
0, 0, 102, 231.5823822021484
0, 0, 103, 270.2315673828125
0, 0, 104, 253.2918701171875
0, 0, 105, 252.1952667236328
0, 0, 106, 246.6296234130859
0, 0, 107, 152.2800445556641
0, 0, 108, 40.07184982299805
0, 0, 109, 14.99367809295654
0, 0, 110, 13.92338180541992
0, 0, 111, 9.583900451660156
0, 0, 112, 6.299051761627197
0, 0, 113, 5.209455966949463
0, 0, 114, 7.502418041229248
0, 0, 115, 6.879507064819336
0, 0, 116, 5.226877212524414
0, 0, 117, 7.230596542358398
0, 0, 118, 7.338767528533936
0, 0, 119, 5.964565277099609
0, 0, 120, 3.300161600112915
0, 0, 121, 3.070618152618408
0, 0, 122, 3.649107694625854
0, 0, 123, 2.599417686462402
0, 0, 124, 5.826357364654541
0, 0, 125, 2.017238616943359
0, 0, 126, 3.936510562896729
0, 0, 127, 3.902175426483154
0, 1, 0, 9.439977645874023
0, 1, 1, 2.588890075683594
0, 1, 2, 2.657680034637451
0, 1, 3, 2.469834089279175
0, 1, 4, 4.301713943481445
0, 1, 5, 3.452973127365112
0, 1, 6, 5.751055240631104
0, 1, 7, 3.03804349899292
0, 1, 8, 8.169580459594727
0, 1, 9, 3.951432466506958
0, 1, 10, 6.616335868835449
0, 1, 11, 10.80659961700439
0, 1, 12, 10.39988708496094
0, 1, 13, 10.85148620605469
0, 1, 14, 7.569867610931396
0, 1, 15, 7.091455459594727
0, 1, 16, 11.8856143951416
0, 1, 17, 11.98681163787842
0, 1, 18, 19.12925148010254
0, 1, 19, 66.24784088134766
0, 1, 20, 200.150146484375
0, 1, 21, 253.8344116210938
0, 1, 22, 296.1349487304688
0, 1, 23, 282.4365539550781
0, 1, 24, 275.6061096191406
0, 1, 25, 288.9072265625
0, 1, 26, 267.0917053222656
0, 1, 27, 306.7152099609375
0, 1, 28, 301.2939453125
0, 1, 29, 300.5679931640625
0, 1, 30, 280.1278686523438
0, 1, 31, 291.0697326660156
0, 1, 32, 291.5550842285156
0, 1, 33, 295.2744750976562
0, 1, 34, 293.1529541015625
0, 1, 35, 278.353515625
0, 1, 36, 308.4115295410156
0, 1, 37, 293.826416015625
0, 1, 38, 279.799560546875
0, 1, 39, 295.8462829589844
0, 1, 40, 269.2525939941406
0, 1, 41, 286.0594177246094
0, 1, 42, 290.3214721679688
0, 1, 43, 331.3524475097656
0, 1, 44, 277.37060546875
0, 1, 45, 292.7439880371094
0, 1, 46, 262.3129577636719
0, 1, 47, 311.4931945800781
0, 1, 48, 287.7275390625
0, 1, 49, 305.2984924316406
0, 1, 50, 264.5335388183594
0, 1, 51, 272.928466796875
0, 1, 52, 295.7334594726562
0, 1, 53, 305.8091430664062
0, 1, 54, 274.1114807128906
0, 1, 55, 293.3209533691406
0, 1, 56, 277.7011108398438
0, 1, 57, 297.3739624023438
0, 1, 58, 312.2140197753906
0, 1, 59, 291.9839477539062
0, 1, 60, 298.0676574707031
0, 1, 61, 274.1739501953125
0, 1, 62, 306.3121643066406
0, 1, 63, 288.8676147460938
0, 1, 64, 289.83837890625
0, 1, 65, 294.7176208496094
0, 1, 66, 292.9976806640625
0, 1, 67, 291.8783874511719
0, 1, 68, 277.8025207519531
0, 1, 69, 281.4735717773438
0, 1, 70, 269.963623046875
0, 1, 71, 276.4656372070312
0, 1, 72, 287.5024719238281
0, 1, 73, 308.2800598144531
0, 1, 74, 305.5087890625
0, 1, 75, 292.7104187011719
0, 1, 76, 287.3382873535156
0, 1, 77, 289.8130187988281
0, 1, 78, 297.2651062011719
0, 1, 79, 300.8937683105469
0, 1, 80, 294.7284851074219
0, 1, 81, 298.9684448242188
0, 1, 82, 281.8715515136719
0, 1, 83, 332.8374633789062
0, 1, 84, 309.5023498535156
0, 1, 85, 252.9852905273438
0, 1, 86, 292.8800964355469
0, 1, 87, 289.3718566894531
0, 1, 88, 297.0231323242188
0, 1, 89, 289.2189636230469
0, 1, 90, 271.0654602050781
0, 1, 91, 318.9100036621094
0, 1, 92, 289.6986999511719
0, 1, 93, 286.0605163574219
0, 1, 94, 307.2462463378906
0, 1, 95, 284.8226318359375
0, 1, 96, 282.2763366699219
0, 1, 97, 302.2772827148438
0, 1, 98, 278.4520874023438
0, 1, 99, 264.6961059570312
0, 1, 100, 276.701904296875
0, 1, 101, 282.2188110351562
0, 1, 102, 277.8283386230469
0, 1, 103, 280.1924133300781
0, 1, 104, 306.5200500488281
0, 1, 105, 297.5773620605469
0, 1, 106, 260.5295104980469
0, 1, 107, 190.8519744873047
0, 1, 108, 84.24193572998047
0, 1, 109, 22.85707473754883
0, 1, 110, 11.48986148834229
0, 1, 111, 8.602826118469238
0, 1, 112, 13.06157207489014
0, 1, 113, 4.785679817199707
0, 1, 114, 6.48691463470459
0, 1, 115, 7.377199172973633
0, 1, 116, 10.63779067993164
0, 1, 117, 6.163641452789307
0, 1, 118, 3.912027597427368
0, 1, 119, 6.042221069335938
0, 1, 120, 4.530251979827881
0, 1, 121, 3.16399359703064
0, 1, 122, 1.812708854675293
0, 1, 123, 5.749192237854004
0, 1, 124, 7.373330593109131
0, 1, 125, 3.010672092437744
0, 1, 126, 1.826155662536621
0, 1, 127, 0.8947269916534424
0, 2, 0, 5.70313835144043
0, 2, 1, 2.680415153503418
0, 2, 2, 5.911733150482178
0, 2, 3, 3.91963005065918
0, 2, 4, 3.006887435913086
0, 2, 5, 3.838546991348267
0, 2, 6, 2.131377935409546
0, 2, 7, 5.205054759979248
0, 2, 8, 4.219932079315186
0, 2, 9, 6.77824068069458
0, 2, 10, 8.155157089233398
0, 2, 11, 6.73682689666748
0, 2, 12, 8.068649291992188
0, 2, 13, 9.67640209197998
0, 2, 14, 9.68166446685791
0, 2, 15, 8.178787231445312
0, 2, 16, 8.498815536499023
0, 2, 17, 17.00891304016113
0, 2, 18, 29.11032867431641
0, 2, 19, 117.8525619506836
0, 2, 20, 246.1425170898438
0, 2, 21, 272.5733032226562
0, 2, 22, 315.3881225585938
0, 2, 23, 300.9986267089844
0, 2, 24, 286.67333984375
0, 2, 25, 305.939697265625
0, 2, 26, 293.686767578125
0, 2, 27, 275.3355407714844
0, 2, 28, 274.801513671875
0, 2, 29, 272.9471740722656
0, 2, 30, 288.7064514160156
0, 2, 31, 278.7184753417969
0, 2, 32, 294.5471496582031
0, 2, 33, 284.7845458984375
0, 2, 34, 335.3252258300781
0, 2, 35, 288.8919677734375
0, 2, 36, 305.1943969726562
0, 2, 37, 317.2769165039062
0, 2, 38, 314.6399841308594
0, 2, 39, 268.1983642578125
0, 2, 40, 309.0166015625
0, 2, 41, 291.6653747558594
0, 2, 42, 306.7966613769531
0, 2, 43, 314.1565856933594
0, 2, 44, 312.0916748046875
0, 2, 45, 324.9624938964844
0, 2, 46, 288.1997375488281
0, 2, 47, 303.8531494140625
0, 2, 48, 281.0253601074219
0, 2, 49, 278.5541687011719
0, 2, 50, 294.3144836425781
0, 2, 51, 285.1996459960938
0, 2, 52, 271.701171875
0, 2, 53, 288.0151672363281
0, 2, 54, 280.9656066894531
0, 2, 55, 274.3943481445312
0, 2, 56, 303.0489501953125
0, 2, 57, 293.0533447265625
0, 2, 58, 301.9883117675781
0, 2, 59, 288.7144165039062
0, 2, 60, 317.3876037597656
0, 2, 61, 301.1800231933594
0, 2, 62, 313.6019897460938
0, 2, 63, 302.8883361816406
0, 2, 64, 296.3786315917969
0, 2, 65, 311.8948059082031
0, 2, 66, 279.1325073242188
0, 2, 67, 290.4130249023438
0, 2, 68, 295.8723449707031
0, 2, 69, 311.9853210449219
0, 2, 70, 333.6897277832031
0, 2, 71, 282.6123352050781
0, 2, 72, 301.4426574707031
0, 2, 73, 309.6334228515625
0, 2, 74, 285.6604919433594
0, 2, 75, 304.5099487304688
0, 2, 76, 286.4196472167969
0, 2, 77, 298.9709167480469
0, 2, 78, 313.4207458496094
0, 2, 79, 307.8381958007812
0, 2, 80, 297.5815124511719
0, 2, 81, 282.2934875488281
0, 2, 82, 318.8996276855469
0, 2, 83, 312.1883239746094
0, 2, 84, 287.9155883789062
0, 2, 85, 281.5762023925781
0, 2, 86, 325.7820129394531
0, 2, 87, 286.8491821289062
0, 2, 88, 282.4093322753906
0, 2, 89, 294.4262390136719
0, 2, 90, 294.7052307128906
0, 2, 91, 274.5268249511719
0, 2, 92, 306.8339233398438
0, 2, 93, 317.0764465332031
0, 2, 94, 291.0000915527344
0, 2, 95, 314.2252807617188
0, 2, 96, 316.4804077148438
0, 2, 97, 293.7310791015625
0, 2, 98, 296.1533508300781
0, 2, 99, 272.5146789550781
0, 2, 100, 305.7850952148438
0, 2, 101, 302.7274475097656
0, 2, 102, 299.4612426757812
0, 2, 103, 294.8854370117188
0, 2, 104, 295.2510681152344
0, 2, 105, 273.2825317382812
0, 2, 106, 298.1142883300781
0, 2, 107, 267.6841125488281
0, 2, 108, 118.0486145019531
0, 2, 109, 33.86884307861328
0, 2, 110, 10.79029273986816
0, 2, 111, 10.81850337982178
0, 2, 112, 8.311343193054199
0, 2, 113, 13.32710361480713
0, 2, 114, 8.643892288208008
0, 2, 115, 11.79878520965576
0, 2, 116, 9.728985786437988
0, 2, 117, 10.61915683746338
0, 2, 118, 5.311835289001465
0, 2, 119, 5.610620975494385
0, 2, 120, 7.720698356628418
0, 2, 121, 3.83156943321228
0, 2, 122, 3.945745229721069
0, 2, 123, 3.408686637878418
0, 2, 124, 5.343696117401123
0, 2, 125, 5.314689636230469
0, 2, 126, 3.526761054992676
0, 2, 127, 5.953587055206299
0, 3, 0, 3.528499126434326
0, 3, 1, 2.819100856781006
0, 3, 2, 5.492042064666748
0, 3, 3, 0.9936970472335815
0, 3, 4, 3.69103217124939
0, 3, 5, 7.032551288604736
0, 3, 6, 5.949210643768311
0, 3, 7, 6.235317230224609
0, 3, 8, 6.238637447357178
0, 3, 9, 4.913656234741211
0, 3, 10, 5.908922672271729
0, 3, 11, 4.995163917541504
0, 3, 12, 9.500637054443359
0, 3, 13, 14.44925308227539
0, 3, 14, 10.70008087158203
0, 3, 15, 12.51018047332764
0, 3, 16, 10.4135160446167
0, 3, 17, 18.79383277893066
0, 3, 18, 52.09618759155273
0, 3, 19, 178.8099365234375
0, 3, 20, 271.1515197753906
0, 3, 21, 270.4115295410156
0, 3, 22, 280.8340148925781
0, 3, 23, 287.9172668457031
0, 3, 24, 284.6505737304688
0, 3, 25, 272.2660217285156
0, 3, 26, 303.7996520996094
0, 3, 27, 292.2948913574219
0, 3, 28, 280.0323486328125
0, 3, 29, 339.3143005371094
0, 3, 30, 315.8859558105469
0, 3, 31, 289.5896301269531
0, 3, 32, 308.0628662109375
0, 3, 33, 316.5392761230469
0, 3, 34, 320.968017578125
0, 3, 35, 307.8157958984375
0, 3, 36, 271.2997131347656
0, 3, 37, 315.0138854980469
0, 3, 38, 304.3314208984375
0, 3, 39, 289.1658325195312
0, 3, 40, 264.901123046875
0, 3, 41, 300.5888977050781
0, 3, 42, 286.5411987304688
0, 3, 43, 305.1878051757812
0, 3, 44, 310.2728881835938
0, 3, 45, 290.5499877929688
0, 3, 46, 327.9223937988281
0, 3, 47, 298.384521484375
0, 3, 48, 301.9614868164062
0, 3, 49, 275.9092102050781
0, 3, 50, 290.0765991210938
0, 3, 51, 276.3956604003906
0, 3, 52, 314.0533447265625
0, 3, 53, 291.3191833496094
0, 3, 54, 284.744384765625
0, 3, 55, 282.3423767089844
0, 3, 56, 298.4256591796875
0, 3, 57, 289.8762817382812
0, 3, 58, 306.9694519042969
0, 3, 59, 293.27978515625
0, 3, 60, 297.7400817871094
0, 3, 61, 263.5356140136719
0, 3, 62, 285.4871215820312
0, 3, 63, 306.9615173339844
0, 3, 64, 316.5752258300781
0, 3, 65, 304.8636474609375
0, 3, 66, 313.6175842285156
0, 3, 67, 319.2762145996094
0, 3, 68, 278.6985778808594
0, 3, 69, 281.7047424316406
0, 3, 70, 291.1318359375
0, 3, 71, 299.3067016601562
0, 3, 72, 268.1575012207031
0, 3, 73, 311.7757263183594
0, 3, 74, 291.6407775878906
0, 3, 75, 289.541259765625
0, 3, 76, 305.2097778320312
0, 3, 77, 314.6764221191406
0, 3, 78, 303.1670532226562
0, 3, 79, 282.0039367675781
0, 3, 80, 290.6549682617188
0, 3, 81, 311.3539733886719
0, 3, 82, 316.4350280761719
0, 3, 83, 300.6017456054688
0, 3, 84, 313.3819274902344
0, 3, 85, 294.7019653320312
0, 3, 86, 302.4740600585938
0, 3, 87, 297.9249877929688
0, 3, 88, 297.06884765625
0, 3, 89, 295.8251342773438
0, 3, 90, 276.4768676757812
0, 3, 91, 286.3619689941406
0, 3, 92, 304.044189453125
0, 3, 93, 312.6352844238281
0, 3, 94, 298.6236877441406
0, 3, 95, 338.5463256835938
0, 3, 96, 288.9474182128906
0, 3, 97, 282.6797485351562
0, 3, 98, 275.8627624511719
0, 3, 99, 261.0223693847656
0, 3, 100, 283.8802795410156
0, 3, 101, 296.0982055664062
0, 3, 102, 273.8829650878906
0, 3, 103, 322.42578125
0, 3, 104, 308.7579345703125
0, 3, 105, 288.7899169921875
0, 3, 106, 301.607666015625
0, 3, 107, 282.433349609375
0, 3, 108, 167.1421508789062
0, 3, 109, 56.91440582275391
0, 3, 110, 17.69785308837891
0, 3, 111, 13.43853664398193
0, 3, 112, 13.858229637146
0, 3, 113, 6.100810527801514
0, 3, 114, 9.951074600219727
0, 3, 115, 9.068367004394531
0, 3, 116, 10.39302921295166
0, 3, 117, 7.604435443878174
0, 3, 118, 6.221190452575684
0, 3, 119, 6.138768196105957
0, 3, 120, 5.292471885681152
0, 3, 121, 4.903022766113281
0, 3, 122, 5.7965087890625
0, 3, 123, 5.948491096496582
0, 3, 124, 2.42354416847229
0, 3, 125, 4.54172945022583
0, 3, 126, 4.226034164428711
0, 3, 127, 4.118062019348145
0, 4, 0, 2.11292552947998
0, 4, 1, 5.125899314880371
0, 4, 2, 2.512251377105713
0, 4, 3, 1.776155829429626
0, 4, 4, 6.026823043823242
0, 4, 5, 7.798205852508545
0, 4, 6, 7.485954284667969
0, 4, 7, 5.286459922790527
0, 4, 8, 4.021791458129883
0, 4, 9, 4.755810260772705
0, 4, 10, 9.358037948608398
0, 4, 11, 6.58038854598999
0, 4, 12, 5.568807125091553
0, 4, 13, 8.871039390563965
0, 4, 14, 12.43835926055908
0, 4, 15, 9.409186363220215
0, 4, 16, 14.04775810241699
0, 4, 17, 19.86881256103516
0, 4, 18, 94.55806732177734
0, 4, 19, 223.4357147216797
0, 4, 20, 284.9351501464844
0, 4, 21, 273.2794494628906
0, 4, 22, 307.246826171875
0, 4, 23, 266.1016235351562
0, 4, 24, 288.3565368652344
0, 4, 25, 271.9307250976562
0, 4, 26, 294.7883911132812
0, 4, 27, 283.484375
0, 4, 28, 305.7422180175781
0, 4, 29, 320.5198364257812
0, 4, 30, 311.3578796386719
0, 4, 31, 303.5669250488281
0, 4, 32, 280.6799926757812
0, 4, 33, 295.8998413085938
0, 4, 34, 296.4473571777344
0, 4, 35, 311.5574645996094
0, 4, 36, 292.2318725585938
0, 4, 37, 286.4951782226562
0, 4, 38, 296.9047241210938
0, 4, 39, 296.8208618164062
0, 4, 40, 304.0807189941406
0, 4, 41, 312.7460021972656
0, 4, 42, 333.0920104980469
0, 4, 43, 295.3056945800781
0, 4, 44, 320.9656982421875
0, 4, 45, 323.0812683105469
0, 4, 46, 304.4612426757812
0, 4, 47, 292.8442687988281
0, 4, 48, 299.8506469726562
0, 4, 49, 277.0838012695312
0, 4, 50, 296.5585632324219
0, 4, 51, 313.8758239746094
0, 4, 52, 327.3692932128906
0, 4, 53, 306.108154296875
0, 4, 54, 286.2885131835938
0, 4, 55, 315.2745666503906
0, 4, 56, 285.531494140625
0, 4, 57, 308.3122863769531
0, 4, 58, 293.7111511230469
0, 4, 59, 310.8809509277344
0, 4, 60, 301.7438659667969
0, 4, 61, 317.0607299804688
0, 4, 62, 306.7547302246094
0, 4, 63, 298.2305603027344
0, 4, 64, 330.4464416503906
0, 4, 65, 317.7183532714844
0, 4, 66, 294.9912414550781
0, 4, 67, 283.6373596191406
0, 4, 68, 313.05615234375
0, 4, 69, 276.6182861328125
0, 4, 70, 300.5480651855469
0, 4, 71, 321.3382263183594
0, 4, 72, 332.6209411621094
0, 4, 73, 300.6526794433594
0, 4, 74, 294.0129699707031
0, 4, 75, 290.1750793457031
0, 4, 76, 274.2440185546875
0, 4, 77, 280.3468933105469
0, 4, 78, 308.4990539550781
0, 4, 79, 320.3330383300781
0, 4, 80, 316.2756042480469
0, 4, 81, 312.7891845703125
0, 4, 82, 297.4851989746094
0, 4, 83, 302.6734619140625
0, 4, 84, 290.2304992675781
0, 4, 85, 293.1562194824219
0, 4, 86, 297.2625732421875
0, 4, 87, 286.0415344238281
0, 4, 88, 305.2463989257812
0, 4, 89, 293.8191528320312
0, 4, 90, 333.3131103515625
0, 4, 91, 302.5188598632812
0, 4, 92, 289.3495788574219
0, 4, 93, 297.9171142578125
0, 4, 94, 295.6336364746094
0, 4, 95, 287.65673828125
0, 4, 96, 322.3419799804688
0, 4, 97, 274.5036315917969
0, 4, 98, 327.3213195800781
0, 4, 99, 313.2607421875
0, 4, 100, 302.5539855957031
0, 4, 101, 257.2211608886719
0, 4, 102, 295.0573120117188
0, 4, 103, 317.5011901855469
0, 4, 104, 280.5470886230469
0, 4, 105, 309.7782592773438
0, 4, 106, 286.0299987792969
0, 4, 107, 297.3040771484375
0, 4, 108, 225.3323059082031
0, 4, 109, 80.08663940429688
0, 4, 110, 17.26996612548828
0, 4, 111, 12.73705387115479
0, 4, 112, 9.48409366607666
0, 4, 113, 10.03503513336182
0, 4, 114, 9.03364086151123
0, 4, 115, 10.77723121643066
0, 4, 116, 8.611471176147461
0, 4, 117, 4.963823795318604
0, 4, 118, 9.10894775390625
0, 4, 119, 9.710662841796875
0, 4, 120, 6.475620269775391
0, 4, 121, 4.362139701843262
0, 4, 122, 4.374339580535889
0, 4, 123, 5.544073581695557
0, 4, 124, 7.291172027587891
0, 4, 125, 8.818221092224121
0, 4, 126, 4.351829051971436
0, 4, 127, 4.057438850402832
0, 5, 0, 3.630474328994751
0, 5, 1, 3.203500032424927
0, 5, 2, 4.399236679077148
0, 5, 3, 5.777855396270752
0, 5, 4, 5.786522388458252
0, 5, 5, 6.051548957824707
0, 5, 6, 5.183345317840576
0, 5, 7, 4.953210353851318
0, 5, 8, 5.448691844940186
0, 5, 9, 4.912399768829346
0, 5, 10, 4.803853511810303
0, 5, 11, 9.48470401763916
0, 5, 12, 8.085169792175293
0, 5, 13, 5.513833045959473
0, 5, 14, 12.32454109191895
0, 5, 15, 15.62459754943848
0, 5, 16, 14.31067371368408
0, 5, 17, 29.63629150390625
0, 5, 18, 136.20947265625
0, 5, 19, 286.129638671875
0, 5, 20, 307.9794616699219
0, 5, 21, 316.2508544921875
0, 5, 22, 275.1621704101562
0, 5, 23, 311.5453491210938
0, 5, 24, 301.7171020507812
0, 5, 25, 289.92138671875
0, 5, 26, 294.9969482421875
0, 5, 27, 325.0063171386719
0, 5, 28, 303.4556274414062
0, 5, 29, 300.0904846191406
0, 5, 30, 326.6123962402344
0, 5, 31, 286.5538330078125
0, 5, 32, 304.2941589355469
0, 5, 33, 303.2664489746094
0, 5, 34, 295.4268188476562
0, 5, 35, 311.3104858398438
0, 5, 36, 269.6202087402344
0, 5, 37, 281.4322204589844
0, 5, 38, 293.70947265625
0, 5, 39, 309.8888854980469
0, 5, 40, 308.0508728027344
0, 5, 41, 274.0980529785156
0, 5, 42, 304.6879272460938
0, 5, 43, 313.8508605957031
0, 5, 44, 292.4436340332031
0, 5, 45, 302.5226440429688
0, 5, 46, 266.5543518066406
0, 5, 47, 278.7950744628906
0, 5, 48, 293.8067321777344
0, 5, 49, 285.559814453125
0, 5, 50, 294.4709167480469
0, 5, 51, 278.4706726074219
0, 5, 52, 269.5438842773438
0, 5, 53, 283.1714782714844
0, 5, 54, 293.8059692382812
0, 5, 55, 344.0228881835938
0, 5, 56, 306.4500427246094
0, 5, 57, 307.3656005859375
0, 5, 58, 312.3471984863281
0, 5, 59, 308.3615417480469
0, 5, 60, 308.316162109375
0, 5, 61, 282.7556762695312
0, 5, 62, 327.2828369140625
0, 5, 63, 290.4908752441406
0, 5, 64, 321.7445678710938
0, 5, 65, 306.6875610351562
0, 5, 66, 328.6351623535156
0, 5, 67, 313.3227233886719
0, 5, 68, 308.4276123046875
0, 5, 69, 310.9583435058594
0, 5, 70, 300.0772399902344
0, 5, 71, 273.3171081542969
0, 5, 72, 310.3128662109375
0, 5, 73, 301.0945129394531
0, 5, 74, 297.4576416015625
0, 5, 75, 292.8633728027344
0, 5, 76, 286.4506225585938
0, 5, 77, 299.0804443359375
0, 5, 78, 315.3297729492188
0, 5, 79, 305.63037109375
0, 5, 80, 294.2871398925781
0, 5, 81, 326.8817749023438
0, 5, 82, 323.3680419921875
0, 5, 83, 282.9287109375
0, 5, 84, 305.6241455078125
0, 5, 85, 270.5161743164062
0, 5, 86, 325.5071716308594
0, 5, 87, 287.2823181152344
0, 5, 88, 313.4432678222656
0, 5, 89, 305.5853576660156
0, 5, 90, 315.1595153808594
0, 5, 91, 313.3925476074219
0, 5, 92, 297.5065002441406
0, 5, 93, 323.99365234375
0, 5, 94, 308.0811157226562
0, 5, 95, 296.7253112792969
0, 5, 96, 296.9842529296875
0, 5, 97, 296.865966796875
0, 5, 98, 318.3650512695312
0, 5, 99, 303.5226745605469
0, 5, 100, 291.2309265136719
0, 5, 101, 307.282470703125
0, 5, 102, 294.5727233886719
0, 5, 103, 313.5684814453125
0, 5, 104, 302.4179992675781
0, 5, 105, 292.1479797363281
0, 5, 106, 282.1793212890625
0, 5, 107, 292.1027526855469
0, 5, 108, 266.1314392089844
0, 5, 109, 157.6738891601562
0, 5, 110, 40.88852691650391
0, 5, 111, 17.86243057250977
0, 5, 112, 15.54301834106445
0, 5, 113, 15.0061616897583
0, 5, 114, 13.39019775390625
0, 5, 115, 6.000163078308105
0, 5, 116, 8.112476348876953
0, 5, 117, 6.752864837646484
0, 5, 118, 12.5616569519043
0, 5, 119, 4.475047588348389
0, 5, 120, 5.790195465087891
0, 5, 121, 5.092708587646484
0, 5, 122, 4.788050651550293
0, 5, 123, 6.108913898468018
0, 5, 124, 5.352052688598633
0, 5, 125, 2.582075834274292
0, 5, 126, 6.117432117462158
0, 5, 127, 4.885560512542725
0, 6, 0, 4.075029850006104
0, 6, 1, 4.140724658966064
0, 6, 2, 5.020396709442139
0, 6, 3, 5.268333911895752
0, 6, 4, 2.61701512336731
0, 6, 5, 5.97592306137085
0, 6, 6, 7.427042484283447
0, 6, 7, 6.064070224761963
0, 6, 8, 7.146196842193604
0, 6, 9, 5.348978519439697
0, 6, 10, 9.240110397338867
0, 6, 11, 6.791991710662842
0, 6, 12, 11.13466644287109
0, 6, 13, 15.58676052093506
0, 6, 14, 8.608358383178711
0, 6, 15, 16.29119300842285
0, 6, 16, 31.51336669921875
0, 6, 17, 55.1664924621582
0, 6, 18, 171.7957000732422
0, 6, 19, 277.4752807617188
0, 6, 20, 290.5986022949219
0, 6, 21, 313.7377319335938
0, 6, 22, 322.0745544433594
0, 6, 23, 305.9354248046875
0, 6, 24, 316.1606750488281
0, 6, 25, 316.9952392578125
0, 6, 26, 321.0365295410156
0, 6, 27, 333.6050109863281
0, 6, 28, 296.0559997558594
0, 6, 29, 330.0494995117188
0, 6, 30, 283.5339965820312
0, 6, 31, 285.2179565429688
0, 6, 32, 340.1448669433594
0, 6, 33, 301.2618408203125
0, 6, 34, 341.3342590332031
0, 6, 35, 320.2660827636719
0, 6, 36, 274.7539672851562
0, 6, 37, 289.6452941894531
0, 6, 38, 310.5778503417969
0, 6, 39, 300.4744567871094
0, 6, 40, 285.2319030761719
0, 6, 41, 294.0839233398438
0, 6, 42, 301.9233093261719
0, 6, 43, 290.044677734375
0, 6, 44, 280.5130615234375
0, 6, 45, 319.2284240722656
0, 6, 46, 305.2939147949219
0, 6, 47, 333.9174194335938
0, 6, 48, 293.8886108398438
0, 6, 49, 313.4242553710938
0, 6, 50, 328.8559265136719
0, 6, 51, 311.3916015625
0, 6, 52, 324.1375122070312
0, 6, 53, 328.3546752929688
0, 6, 54, 303.0256042480469
0, 6, 55, 306.3487854003906
0, 6, 56, 293.6894226074219
0, 6, 57, 313.8035278320312
0, 6, 58, 262.1537475585938
0, 6, 59, 301.1691589355469
0, 6, 60, 312.7925720214844
0, 6, 61, 269.5836181640625
0, 6, 62, 334.3660583496094
0, 6, 63, 323.621826171875
0, 6, 64, 290.6692504882812
0, 6, 65, 286.6061706542969
0, 6, 66, 304.0445556640625
0, 6, 67, 310.1872253417969
0, 6, 68, 292.8117370605469
0, 6, 69, 279.1924133300781
0, 6, 70, 276.2877197265625
0, 6, 71, 289.2497863769531
0, 6, 72, 315.6486511230469
0, 6, 73, 293.4365539550781
0, 6, 74, 330.1430053710938
0, 6, 75, 344.24169921875
0, 6, 76, 299.1402587890625
0, 6, 77, 288.5562744140625
0, 6, 78, 279.2386169433594
0, 6, 79, 291.7374572753906
0, 6, 80, 302.0067443847656
0, 6, 81, 316.6939392089844
0, 6, 82, 318.6536865234375
0, 6, 83, 317.9783020019531
0, 6, 84, 295.2679138183594
0, 6, 85, 300.2632446289062
0, 6, 86, 329.8141784667969
0, 6, 87, 290.2320556640625
0, 6, 88, 305.868896484375
0, 6, 89, 305.4824829101562
0, 6, 90, 298.5425415039062
0, 6, 91, 312.6892700195312
0, 6, 92, 285.1280212402344
0, 6, 93, 293.6570434570312
0, 6, 94, 272.4813537597656
0, 6, 95, 301.2388000488281
0, 6, 96, 346.9444274902344
0, 6, 97, 307.524169921875
0, 6, 98, 303.2312622070312
0, 6, 99, 269.6715698242188
0, 6, 100, 307.2535400390625
0, 6, 101, 293.3768615722656
0, 6, 102, 305.8937072753906
0, 6, 103, 309.3022155761719
0, 6, 104, 292.4818725585938
0, 6, 105, 300.5577392578125
0, 6, 106, 306.0458679199219
0, 6, 107, 305.1702270507812
0, 6, 108, 266.1711120605469
0, 6, 109, 187.7524719238281
0, 6, 110, 55.78514862060547
0, 6, 111, 24.4970531463623
0, 6, 112, 13.30831909179688
0, 6, 113, 10.24787425994873
0, 6, 114, 13.67431259155273
0, 6, 115, 11.89013862609863
0, 6, 116, 9.935268402099609
0, 6, 117, 8.366497039794922
0, 6, 118, 13.00907421112061
0, 6, 119, 8.503446578979492
0, 6, 120, 4.919623374938965
0, 6, 121, 5.877431392669678
0, 6, 122, 7.027835845947266
0, 6, 123, 4.639673709869385
0, 6, 124, 6.069658756256104
0, 6, 125, 9.018758773803711
0, 6, 126, 3.694381237030029
0, 6, 127, 5.765907287597656
0, 7, 0, 5.616872787475586
0, 7, 1, 4.660684585571289
0, 7, 2, 5.711985111236572
0, 7, 3, 2.884166240692139
0, 7, 4, 5.033900260925293
0, 7, 5, 4.268554210662842
0, 7, 6, 7.911941051483154
0, 7, 7, 5.734026432037354
0, 7, 8, 5.855880260467529
0, 7, 9, 5.139758110046387
0, 7, 10, 9.89185905456543
0, 7, 11, 12.93543529510498
0, 7, 12, 10.16640949249268
0, 7, 13, 12.39482021331787
0, 7, 14, 9.490951538085938
0, 7, 15, 18.13941383361816
0, 7, 16, 26.14496994018555
0, 7, 17, 98.70951843261719
0, 7, 18, 219.3311920166016
0, 7, 19, 291.4161682128906
0, 7, 20, 296.6413879394531
0, 7, 21, 277.4052429199219
0, 7, 22, 298.87451171875
0, 7, 23, 290.35595703125
0, 7, 24, 313.7823181152344
0, 7, 25, 324.1643981933594
0, 7, 26, 277.4034118652344
0, 7, 27, 297.17822265625
0, 7, 28, 325.1984558105469
0, 7, 29, 317.0375061035156
0, 7, 30, 298.0477905273438
0, 7, 31, 278.1636047363281
0, 7, 32, 305.4622802734375
0, 7, 33, 265.2990417480469
0, 7, 34, 299.7781982421875
0, 7, 35, 320.846435546875
0, 7, 36, 330.2704467773438
0, 7, 37, 321.5371704101562
0, 7, 38, 295.3524780273438
0, 7, 39, 306.2289733886719
0, 7, 40, 291.60400390625
0, 7, 41, 271.5061950683594
0, 7, 42, 300.6112670898438
0, 7, 43, 275.9823303222656
0, 7, 44, 302.1753540039062
0, 7, 45, 295.4915161132812
0, 7, 46, 281.2390747070312
0, 7, 47, 326.5079650878906
0, 7, 48, 288.9910278320312
0, 7, 49, 300.5144958496094
0, 7, 50, 322.1582946777344
0, 7, 51, 300.291259765625
0, 7, 52, 326.6261291503906
0, 7, 53, 308.5652465820312
0, 7, 54, 322.2268371582031
0, 7, 55, 306.5890502929688
0, 7, 56, 279.2156677246094
0, 7, 57, 283.6840515136719
0, 7, 58, 296.69091796875
0, 7, 59, 294.7079467773438
0, 7, 60, 324.2117004394531
0, 7, 61, 278.94580078125
0, 7, 62, 297.1424560546875
0, 7, 63, 293.662109375
0, 7, 64, 306.9131469726562
0, 7, 65, 331.5935668945312
0, 7, 66, 320.8735046386719
0, 7, 67, 303.3504943847656
0, 7, 68, 280.3891906738281
0, 7, 69, 292.9684753417969
0, 7, 70, 301.4057006835938
0, 7, 71, 310.2533874511719
0, 7, 72, 285.2259521484375
0, 7, 73, 295.5336303710938
0, 7, 74, 343.5379943847656
0, 7, 75, 319.8563842773438
0, 7, 76, 323.5206298828125
0, 7, 77, 279.2974548339844
0, 7, 78, 301.0688781738281
0, 7, 79, 295.9918823242188
0, 7, 80, 314.4114685058594
0, 7, 81, 319.4392700195312
0, 7, 82, 327.5293273925781
0, 7, 83, 314.7514953613281
0, 7, 84, 309.9702758789062
0, 7, 85, 271.7687683105469
0, 7, 86, 310.8795471191406
0, 7, 87, 312.4939880371094
0, 7, 88, 306.8704223632812
0, 7, 89, 293.7640075683594
0, 7, 90, 307.7187805175781
0, 7, 91, 315.7049255371094
0, 7, 92, 288.2394409179688
0, 7, 93, 306.4860229492188
0, 7, 94, 274.4100952148438
0, 7, 95, 299.4606018066406
0, 7, 96, 331.0437927246094
0, 7, 97, 294.7962341308594
0, 7, 98, 290.7455444335938
0, 7, 99, 312.2940979003906
0, 7, 100, 281.2385864257812
0, 7, 101, 275.4300231933594
0, 7, 102, 291.7674255371094
0, 7, 103, 291.7923278808594
0, 7, 104, 274.5469665527344
0, 7, 105, 306.0765380859375
0, 7, 106, 318.1535339355469
0, 7, 107, 298.8590393066406
0, 7, 108, 275.37744140625
0, 7, 109, 233.9265899658203
0, 7, 110, 94.78822326660156
0, 7, 111, 23.50150871276855
0, 7, 112, 13.59185981750488
0, 7, 113, 14.54325294494629
0, 7, 114, 12.79389476776123
0, 7, 115, 11.63747310638428
0, 7, 116, 10.17847919464111
0, 7, 117, 4.836244106292725
0, 7, 118, 7.259873867034912
0, 7, 119, 6.615732192993164
0, 7, 120, 4.580557346343994
0, 7, 121, 6.45041561126709
0, 7, 122, 7.686493873596191
0, 7, 123, 4.671741962432861
0, 7, 124, 3.459843635559082
0, 7, 125, 6.669973373413086
0, 7, 126, 7.332486629486084
0, 7, 127, 3.877053260803223
0, 8, 0, 4.01567268371582
0, 8, 1, 3.284314870834351
0, 8, 2, 2.874598503112793
0, 8, 3, 1.950332164764404
0, 8, 4, 3.336517333984375
0, 8, 5, 5.647934436798096
0, 8, 6, 4.32199764251709
0, 8, 7, 6.231746673583984
0, 8, 8, 9.682318687438965
0, 8, 9, 5.064261436462402
0, 8, 10, 6.912225246429443
0, 8, 11, 12.10388565063477
0, 8, 12, 11.72223377227783
0, 8, 13, 17.4954662322998
0, 8, 14, 12.09645175933838
0, 8, 15, 18.23215293884277
0, 8, 16, 32.03705978393555
0, 8, 17, 130.3216857910156
0, 8, 18, 243.8023376464844
0, 8, 19, 294.4028930664062
0, 8, 20, 283.5843811035156
0, 8, 21, 306.1300659179688
0, 8, 22, 294.6261901855469
0, 8, 23, 274.9974975585938
0, 8, 24, 268.4297180175781
0, 8, 25, 277.9440612792969
0, 8, 26, 306.5711975097656
0, 8, 27, 307.3824157714844
0, 8, 28, 302.158447265625
0, 8, 29, 318.8123474121094
0, 8, 30, 313.3908996582031
0, 8, 31, 307.0387268066406
0, 8, 32, 282.0833129882812
0, 8, 33, 294.7566223144531
0, 8, 34, 291.7401428222656
0, 8, 35, 279.584228515625
0, 8, 36, 315.2197875976562
0, 8, 37, 338.4967041015625
0, 8, 38, 331.5769348144531
