# TOPAS Version: 3.1.p3
# Parameter File: batch_inserts_202.txt
# Results for scorer Readout_Adipose
# Scored in component: MyBox
# X in 1 bin  of 0.75 cm
# Y in 512 bins of 0.0783984 cm
# Z in 128 bins of 0.078125 cm
# EnergyDeposit ( MeV ) : Sum   
0, 0, 0, 4.304447174072266
0, 0, 1, 1.844228744506836
0, 0, 2, 4.696097850799561
0, 0, 3, 1.62599790096283
0, 0, 4, 3.807655334472656
0, 0, 5, 2.314832210540771
0, 0, 6, 8.838327407836914
0, 0, 7, 8.961894035339355
0, 0, 8, 2.162546157836914
0, 0, 9, 3.376745462417603
0, 0, 10, 6.579230785369873
0, 0, 11, 4.442501544952393
0, 0, 12, 5.406722068786621
0, 0, 13, 5.931787014007568
0, 0, 14, 6.562397956848145
0, 0, 15, 9.313786506652832
0, 0, 16, 10.73320770263672
0, 0, 17, 9.380152702331543
0, 0, 18, 13.69596576690674
0, 0, 19, 42.67152404785156
0, 0, 20, 139.9016418457031
0, 0, 21, 223.9073181152344
0, 0, 22, 247.8381042480469
0, 0, 23, 258.3899230957031
0, 0, 24, 250.3521728515625
0, 0, 25, 258.3465270996094
0, 0, 26, 234.53759765625
0, 0, 27, 236.5334930419922
0, 0, 28, 271.7431640625
0, 0, 29, 252.1396026611328
0, 0, 30, 231.4932556152344
0, 0, 31, 244.9320678710938
0, 0, 32, 264.1973571777344
0, 0, 33, 261.8518371582031
0, 0, 34, 288.2405090332031
0, 0, 35, 268.2367553710938
0, 0, 36, 246.1149291992188
0, 0, 37, 251.6041412353516
0, 0, 38, 269.2587585449219
0, 0, 39, 229.1167297363281
0, 0, 40, 240.5243988037109
0, 0, 41, 264.4440307617188
0, 0, 42, 228.6195220947266
0, 0, 43, 261.5969848632812
0, 0, 44, 252.3731079101562
0, 0, 45, 253.7318420410156
0, 0, 46, 244.4449157714844
0, 0, 47, 254.2477416992188
0, 0, 48, 268.4737548828125
0, 0, 49, 274.884033203125
0, 0, 50, 250.5646057128906
0, 0, 51, 254.0620880126953
0, 0, 52, 272.9508056640625
0, 0, 53, 292.1869201660156
0, 0, 54, 242.9293975830078
0, 0, 55, 240.1005401611328
0, 0, 56, 278.1541137695312
0, 0, 57, 262.6674499511719
0, 0, 58, 245.9810333251953
0, 0, 59, 269.8135986328125
0, 0, 60, 234.9233093261719
0, 0, 61, 246.5978240966797
0, 0, 62, 260.7477111816406
0, 0, 63, 268.2084350585938
0, 0, 64, 257.3072509765625
0, 0, 65, 261.0619506835938
0, 0, 66, 276.7720336914062
0, 0, 67, 247.7759857177734
0, 0, 68, 258.41943359375
0, 0, 69, 261.4934997558594
0, 0, 70, 272.1963500976562
0, 0, 71, 238.9162445068359
0, 0, 72, 252.2098693847656
0, 0, 73, 257.9266357421875
0, 0, 74, 250.8626861572266
0, 0, 75, 241.2814483642578
0, 0, 76, 228.5840148925781
0, 0, 77, 258.8008117675781
0, 0, 78, 256.7327270507812
0, 0, 79, 279.0060729980469
0, 0, 80, 215.6172637939453
0, 0, 81, 267.0027770996094
0, 0, 82, 255.9433898925781
0, 0, 83, 243.755615234375
0, 0, 84, 269.5307922363281
0, 0, 85, 231.8623352050781
0, 0, 86, 255.4077606201172
0, 0, 87, 251.7302398681641
0, 0, 88, 260.2367858886719
0, 0, 89, 282.9039306640625
0, 0, 90, 244.2874298095703
0, 0, 91, 281.4317321777344
0, 0, 92, 252.7986602783203
0, 0, 93, 250.6718139648438
0, 0, 94, 252.3103790283203
0, 0, 95, 247.9190826416016
0, 0, 96, 274.7340393066406
0, 0, 97, 273.3086853027344
0, 0, 98, 274.26220703125
0, 0, 99, 259.7510070800781
0, 0, 100, 258.7371520996094
0, 0, 101, 226.403564453125
0, 0, 102, 231.8526763916016
0, 0, 103, 269.6371459960938
0, 0, 104, 255.0325164794922
0, 0, 105, 252.5294342041016
0, 0, 106, 245.5297393798828
0, 0, 107, 151.5638580322266
0, 0, 108, 37.84625244140625
0, 0, 109, 10.90089988708496
0, 0, 110, 12.62849903106689
0, 0, 111, 7.988967418670654
0, 0, 112, 8.275352478027344
0, 0, 113, 6.621419906616211
0, 0, 114, 7.603184700012207
0, 0, 115, 5.104483604431152
0, 0, 116, 5.082576751708984
0, 0, 117, 7.198872089385986
0, 0, 118, 6.967593193054199
0, 0, 119, 3.365437746047974
0, 0, 120, 2.845770359039307
0, 0, 121, 3.401201725006104
0, 0, 122, 3.179382562637329
0, 0, 123, 2.403801918029785
0, 0, 124, 5.319206714630127
0, 0, 125, 3.105259656906128
0, 0, 126, 3.029960155487061
0, 0, 127, 3.752217292785645
0, 1, 0, 7.174159049987793
0, 1, 1, 2.403010368347168
0, 1, 2, 4.312729358673096
0, 1, 3, 2.698580265045166
0, 1, 4, 2.860496044158936
0, 1, 5, 3.740743637084961
0, 1, 6, 6.480638980865479
0, 1, 7, 6.713465213775635
0, 1, 8, 7.254848957061768
0, 1, 9, 3.440111875534058
0, 1, 10, 7.190907955169678
0, 1, 11, 13.18419361114502
0, 1, 12, 7.842846393585205
0, 1, 13, 10.53107833862305
0, 1, 14, 9.852363586425781
0, 1, 15, 7.259023666381836
0, 1, 16, 10.97675323486328
0, 1, 17, 13.30539894104004
0, 1, 18, 20.62224960327148
0, 1, 19, 65.38777160644531
0, 1, 20, 200.2239685058594
0, 1, 21, 254.7924652099609
0, 1, 22, 297.41015625
0, 1, 23, 282.3247375488281
0, 1, 24, 276.1843566894531
0, 1, 25, 288.1153259277344
0, 1, 26, 270.2991027832031
0, 1, 27, 308.0126647949219
0, 1, 28, 298.232666015625
0, 1, 29, 294.3007202148438
0, 1, 30, 282.015380859375
0, 1, 31, 292.0758361816406
0, 1, 32, 292.1294250488281
0, 1, 33, 296.6006469726562
0, 1, 34, 292.5401611328125
0, 1, 35, 277.8830871582031
0, 1, 36, 305.7092895507812
0, 1, 37, 295.7727355957031
0, 1, 38, 280.0501708984375
0, 1, 39, 298.3893432617188
0, 1, 40, 265.27587890625
0, 1, 41, 289.0630493164062
0, 1, 42, 289.7080688476562
0, 1, 43, 331.0701599121094
0, 1, 44, 279.1439514160156
0, 1, 45, 291.7766723632812
0, 1, 46, 261.1976013183594
0, 1, 47, 308.9387817382812
0, 1, 48, 285.4251098632812
0, 1, 49, 303.4897766113281
0, 1, 50, 263.51611328125
0, 1, 51, 272.8290100097656
0, 1, 52, 293.8606262207031
0, 1, 53, 303.8969421386719
0, 1, 54, 275.9534912109375
0, 1, 55, 293.7825317382812
0, 1, 56, 281.5304870605469
0, 1, 57, 296.8227844238281
0, 1, 58, 311.0076904296875
0, 1, 59, 295.7323303222656
0, 1, 60, 300.9738464355469
0, 1, 61, 276.1705322265625
0, 1, 62, 310.6243896484375
0, 1, 63, 284.8508605957031
0, 1, 64, 287.4634094238281
0, 1, 65, 294.7328186035156
0, 1, 66, 290.7438659667969
0, 1, 67, 291.1628723144531
0, 1, 68, 278.25634765625
0, 1, 69, 281.4666442871094
0, 1, 70, 271.4100952148438
0, 1, 71, 273.7435913085938
0, 1, 72, 283.875732421875
0, 1, 73, 303.7221069335938
0, 1, 74, 305.7327575683594
0, 1, 75, 291.4882507324219
0, 1, 76, 284.4576721191406
0, 1, 77, 292.5252685546875
0, 1, 78, 298.2856140136719
0, 1, 79, 301.62841796875
0, 1, 80, 297.6081848144531
0, 1, 81, 303.4067993164062
0, 1, 82, 285.0448303222656
0, 1, 83, 332.0573425292969
0, 1, 84, 308.0819091796875
0, 1, 85, 253.1280212402344
0, 1, 86, 293.7870483398438
0, 1, 87, 293.0137023925781
0, 1, 88, 297.1883544921875
0, 1, 89, 291.4092102050781
0, 1, 90, 269.8350219726562
0, 1, 91, 317.3966369628906
0, 1, 92, 289.0693969726562
0, 1, 93, 287.19384765625
0, 1, 94, 304.69091796875
0, 1, 95, 283.5422973632812
0, 1, 96, 283.4229431152344
0, 1, 97, 300.9728088378906
0, 1, 98, 278.5940551757812
0, 1, 99, 267.7911071777344
0, 1, 100, 276.1464233398438
0, 1, 101, 281.5444946289062
0, 1, 102, 277.4852294921875
0, 1, 103, 281.8355102539062
0, 1, 104, 307.3005981445312
0, 1, 105, 298.3983764648438
0, 1, 106, 261.1745910644531
0, 1, 107, 192.5436248779297
0, 1, 108, 82.77595520019531
0, 1, 109, 26.29238891601562
0, 1, 110, 12.19853496551514
0, 1, 111, 10.71564197540283
0, 1, 112, 13.00417327880859
0, 1, 113, 5.901908874511719
0, 1, 114, 5.867343902587891
0, 1, 115, 8.428443908691406
0, 1, 116, 10.95784282684326
0, 1, 117, 4.801676273345947
0, 1, 118, 5.028247356414795
0, 1, 119, 4.574231624603271
0, 1, 120, 3.640520334243774
0, 1, 121, 5.435684204101562
0, 1, 122, 2.651153326034546
0, 1, 123, 5.125277996063232
0, 1, 124, 7.592245578765869
0, 1, 125, 4.2804856300354
0, 1, 126, 4.565853118896484
0, 1, 127, 1.635577440261841
0, 2, 0, 4.411706447601318
0, 2, 1, 1.553766489028931
0, 2, 2, 2.759368896484375
0, 2, 3, 5.934028625488281
0, 2, 4, 2.960736036300659
0, 2, 5, 1.661848425865173
0, 2, 6, 2.215926170349121
0, 2, 7, 3.322338819503784
0, 2, 8, 4.155373573303223
0, 2, 9, 7.552549839019775
0, 2, 10, 8.283359527587891
0, 2, 11, 5.942431449890137
0, 2, 12, 7.246012687683105
0, 2, 13, 11.07216930389404
0, 2, 14, 10.66106224060059
0, 2, 15, 7.311239719390869
0, 2, 16, 8.883852005004883
0, 2, 17, 16.17462158203125
0, 2, 18, 28.8812313079834
0, 2, 19, 114.8993682861328
0, 2, 20, 245.8424530029297
0, 2, 21, 272.896240234375
0, 2, 22, 317.8273010253906
0, 2, 23, 300.3301696777344
0, 2, 24, 287.2982177734375
0, 2, 25, 302.2314147949219
0, 2, 26, 293.2652587890625
0, 2, 27, 277.3588256835938
0, 2, 28, 270.8070068359375
0, 2, 29, 274.5907287597656
0, 2, 30, 289.9540710449219
0, 2, 31, 277.6265563964844
0, 2, 32, 295.6560668945312
0, 2, 33, 280.9945068359375
0, 2, 34, 331.5745849609375
0, 2, 35, 288.6646118164062
0, 2, 36, 303.8590087890625
0, 2, 37, 315.4601135253906
0, 2, 38, 312.1368713378906
0, 2, 39, 265.7602233886719
0, 2, 40, 309.0642700195312
0, 2, 41, 291.1165771484375
0, 2, 42, 302.8130798339844
0, 2, 43, 312.6022338867188
0, 2, 44, 309.8069458007812
0, 2, 45, 324.9888305664062
0, 2, 46, 287.207275390625
0, 2, 47, 304.3084106445312
0, 2, 48, 280.9400024414062
0, 2, 49, 278.0935974121094
0, 2, 50, 294.4720153808594
0, 2, 51, 283.994140625
0, 2, 52, 272.5431213378906
0, 2, 53, 285.9778137207031
0, 2, 54, 279.9523620605469
0, 2, 55, 277.654296875
0, 2, 56, 301.4675598144531
0, 2, 57, 291.7800903320312
0, 2, 58, 301.463623046875
0, 2, 59, 289.0263366699219
0, 2, 60, 319.0390014648438
0, 2, 61, 300.9932556152344
0, 2, 62, 312.1013793945312
0, 2, 63, 306.1458129882812
0, 2, 64, 295.1228637695312
0, 2, 65, 312.718505859375
0, 2, 66, 280.1169128417969
0, 2, 67, 291.1270141601562
0, 2, 68, 297.6726684570312
0, 2, 69, 310.319091796875
0, 2, 70, 334.4549560546875
0, 2, 71, 282.9806518554688
0, 2, 72, 301.2351989746094
0, 2, 73, 310.9043884277344
0, 2, 74, 284.629638671875
0, 2, 75, 305.8977966308594
0, 2, 76, 286.8920288085938
0, 2, 77, 301.3155517578125
0, 2, 78, 313.5791320800781
0, 2, 79, 309.5196228027344
0, 2, 80, 297.283935546875
0, 2, 81, 280.7308654785156
0, 2, 82, 318.0668640136719
0, 2, 83, 312.5740051269531
0, 2, 84, 289.3974609375
0, 2, 85, 280.8941040039062
0, 2, 86, 325.2700805664062
0, 2, 87, 286.4296569824219
0, 2, 88, 281.3689575195312
0, 2, 89, 296.9551391601562
0, 2, 90, 296.7017822265625
0, 2, 91, 277.5299072265625
0, 2, 92, 306.0426635742188
0, 2, 93, 318.7098083496094
0, 2, 94, 291.1515502929688
0, 2, 95, 314.0543823242188
0, 2, 96, 315.0967712402344
0, 2, 97, 289.3437805175781
0, 2, 98, 293.3307189941406
0, 2, 99, 273.2521057128906
0, 2, 100, 306.7666625976562
0, 2, 101, 302.0849914550781
0, 2, 102, 297.2627868652344
0, 2, 103, 291.756103515625
0, 2, 104, 291.9348449707031
0, 2, 105, 274.3861083984375
0, 2, 106, 297.4575805664062
0, 2, 107, 269.3729858398438
0, 2, 108, 116.6734390258789
0, 2, 109, 33.14987564086914
0, 2, 110, 10.87796688079834
0, 2, 111, 11.03055858612061
0, 2, 112, 8.747471809387207
0, 2, 113, 10.8562479019165
0, 2, 114, 8.81373119354248
0, 2, 115, 9.046848297119141
0, 2, 116, 10.46331691741943
0, 2, 117, 8.764294624328613
0, 2, 118, 2.322056770324707
0, 2, 119, 6.538002490997314
0, 2, 120, 8.276957511901855
0, 2, 121, 3.822564601898193
0, 2, 122, 5.582294464111328
0, 2, 123, 4.305794715881348
0, 2, 124, 3.541826725006104
0, 2, 125, 5.424561977386475
0, 2, 126, 3.437243700027466
0, 2, 127, 5.591332912445068
0, 3, 0, 3.012629508972168
0, 3, 1, 4.125807285308838
0, 3, 2, 3.81954026222229
0, 3, 3, 0.9911743998527527
0, 3, 4, 3.551088333129883
0, 3, 5, 6.694256782531738
0, 3, 6, 6.054558753967285
0, 3, 7, 4.865523815155029
0, 3, 8, 5.174812316894531
0, 3, 9, 7.351665496826172
0, 3, 10, 6.334222316741943
0, 3, 11, 4.885583400726318
0, 3, 12, 8.465164184570312
0, 3, 13, 14.08410263061523
0, 3, 14, 9.608317375183105
0, 3, 15, 14.49576473236084
0, 3, 16, 11.04290199279785
0, 3, 17, 20.17845726013184
0, 3, 18, 55.27677154541016
0, 3, 19, 175.6963348388672
0, 3, 20, 269.5310363769531
0, 3, 21, 272.0110168457031
0, 3, 22, 282.5387268066406
0, 3, 23, 287.5376281738281
0, 3, 24, 286.2269897460938
0, 3, 25, 270.0453796386719
0, 3, 26, 304.0192260742188
0, 3, 27, 291.9273986816406
0, 3, 28, 282.3422241210938
0, 3, 29, 339.0302124023438
0, 3, 30, 316.9930114746094
0, 3, 31, 285.6923522949219
0, 3, 32, 310.2749633789062
0, 3, 33, 314.8397521972656
0, 3, 34, 321.7698974609375
0, 3, 35, 306.2550048828125
0, 3, 36, 268.7950439453125
0, 3, 37, 313.8862609863281
0, 3, 38, 304.3782958984375
0, 3, 39, 288.2422790527344
0, 3, 40, 266.5701293945312
0, 3, 41, 302.6100158691406
0, 3, 42, 285.7751770019531
0, 3, 43, 309.3279418945312
0, 3, 44, 310.0278930664062
0, 3, 45, 289.3548583984375
0, 3, 46, 328.7529907226562
0, 3, 47, 298.9288024902344
0, 3, 48, 303.67919921875
0, 3, 49, 276.1556396484375
0, 3, 50, 290.3562316894531
0, 3, 51, 276.1111755371094
0, 3, 52, 317.2297668457031
0, 3, 53, 287.0635070800781
0, 3, 54, 284.4724426269531
0, 3, 55, 284.3274230957031
0, 3, 56, 298.6806030273438
0, 3, 57, 289.6438293457031
0, 3, 58, 307.8166198730469
0, 3, 59, 295.0053405761719
0, 3, 60, 297.0826721191406
0, 3, 61, 263.4144592285156
0, 3, 62, 283.3060913085938
0, 3, 63, 307.1156005859375
0, 3, 64, 316.71728515625
0, 3, 65, 308.4596252441406
0, 3, 66, 314.328125
0, 3, 67, 320.66357421875
0, 3, 68, 279.4751892089844
0, 3, 69, 283.097412109375
0, 3, 70, 287.2771911621094
0, 3, 71, 302.3310546875
0, 3, 72, 270.0643005371094
0, 3, 73, 308.0004272460938
0, 3, 74, 293.4270629882812
0, 3, 75, 289.9204711914062
0, 3, 76, 304.6124572753906
0, 3, 77, 315.5375671386719
0, 3, 78, 302.928955078125
0, 3, 79, 282.5005798339844
0, 3, 80, 289.8228149414062
0, 3, 81, 312.5693359375
0, 3, 82, 316.6586608886719
0, 3, 83, 301.2449951171875
0, 3, 84, 310.0848388671875
0, 3, 85, 292.634033203125
0, 3, 86, 302.8532104492188
0, 3, 87, 297.0457153320312
0, 3, 88, 298.0372314453125
0, 3, 89, 297.7349853515625
0, 3, 90, 275.9449768066406
0, 3, 91, 283.904541015625
0, 3, 92, 303.3042907714844
0, 3, 93, 312.57470703125
0, 3, 94, 297.7764587402344
0, 3, 95, 334.7495727539062
0, 3, 96, 289.7560729980469
0, 3, 97, 285.4738159179688
0, 3, 98, 279.1471252441406
0, 3, 99, 261.6121826171875
0, 3, 100, 283.2814331054688
0, 3, 101, 297.8462524414062
0, 3, 102, 276.8009033203125
0, 3, 103, 320.5703125
0, 3, 104, 309.0186157226562
0, 3, 105, 287.9008178710938
0, 3, 106, 304.1732788085938
0, 3, 107, 282.4625854492188
0, 3, 108, 167.2037963867188
0, 3, 109, 55.62991333007812
0, 3, 110, 17.153076171875
0, 3, 111, 11.94329071044922
0, 3, 112, 12.3379430770874
0, 3, 113, 9.093669891357422
0, 3, 114, 11.08730220794678
0, 3, 115, 7.623326778411865
0, 3, 116, 9.732071876525879
0, 3, 117, 8.749842643737793
0, 3, 118, 7.437075138092041
0, 3, 119, 4.54539966583252
0, 3, 120, 8.843132019042969
0, 3, 121, 1.802457690238953
0, 3, 122, 3.0847487449646
0, 3, 123, 5.196503162384033
0, 3, 124, 5.367720127105713
0, 3, 125, 5.815271377563477
0, 3, 126, 4.311764240264893
0, 3, 127, 2.536947965621948
0, 4, 0, 1.668625235557556
0, 4, 1, 6.569671154022217
0, 4, 2, 3.415766477584839
0, 4, 3, 2.970338106155396
0, 4, 4, 6.878445148468018
0, 4, 5, 9.291626930236816
0, 4, 6, 7.611324787139893
0, 4, 7, 4.960454940795898
0, 4, 8, 7.064574241638184
0, 4, 9, 6.924820423126221
0, 4, 10, 5.120693206787109
0, 4, 11, 5.523255348205566
0, 4, 12, 5.34908390045166
0, 4, 13, 7.627405166625977
0, 4, 14, 11.42440032958984
0, 4, 15, 9.432547569274902
0, 4, 16, 13.41164016723633
0, 4, 17, 17.94413185119629
0, 4, 18, 92.55018615722656
0, 4, 19, 222.0846099853516
0, 4, 20, 284.0802612304688
0, 4, 21, 273.9360656738281
0, 4, 22, 305.4912719726562
0, 4, 23, 265.989501953125
0, 4, 24, 288.5166320800781
0, 4, 25, 273.8481140136719
0, 4, 26, 294.7148132324219
0, 4, 27, 283.7630310058594
0, 4, 28, 307.0130310058594
0, 4, 29, 323.6179504394531
0, 4, 30, 310.8869018554688
0, 4, 31, 304.4429931640625
0, 4, 32, 280.6849365234375
0, 4, 33, 296.3576354980469
0, 4, 34, 296.7184448242188
0, 4, 35, 311.7490234375
0, 4, 36, 294.8869018554688
0, 4, 37, 289.2445983886719
0, 4, 38, 298.2395629882812
0, 4, 39, 297.1252746582031
0, 4, 40, 302.5230712890625
0, 4, 41, 315.2508239746094
0, 4, 42, 329.8699951171875
0, 4, 43, 295.5395812988281
0, 4, 44, 320.0134887695312
0, 4, 45, 323.280517578125
0, 4, 46, 305.3450927734375
0, 4, 47, 293.0780944824219
0, 4, 48, 296.251708984375
0, 4, 49, 278.5448913574219
0, 4, 50, 297.6687622070312
0, 4, 51, 316.8211975097656
0, 4, 52, 326.550048828125
0, 4, 53, 304.5135803222656
0, 4, 54, 286.75
0, 4, 55, 320.5010070800781
0, 4, 56, 287.4915466308594
0, 4, 57, 309.8340759277344
0, 4, 58, 294.4298095703125
0, 4, 59, 308.8196716308594
0, 4, 60, 300.8945617675781
0, 4, 61, 315.0232543945312
0, 4, 62, 308.0380554199219
0, 4, 63, 299.8313598632812
0, 4, 64, 332.0772399902344
0, 4, 65, 315.3881530761719
0, 4, 66, 294.7947692871094
0, 4, 67, 284.3268737792969
0, 4, 68, 311.4623413085938
0, 4, 69, 277.4549255371094
0, 4, 70, 299.7927856445312
0, 4, 71, 321.9505920410156
0, 4, 72, 331.640869140625
0, 4, 73, 301.1032409667969
0, 4, 74, 294.0133666992188
0, 4, 75, 288.6315002441406
0, 4, 76, 273.3492736816406
0, 4, 77, 276.4612426757812
0, 4, 78, 308.5469970703125
0, 4, 79, 319.9409790039062
0, 4, 80, 317.6083984375
0, 4, 81, 312.1502380371094
0, 4, 82, 297.1886901855469
0, 4, 83, 300.9582824707031
0, 4, 84, 291.7979431152344
0, 4, 85, 294.4219055175781
0, 4, 86, 297.2998352050781
0, 4, 87, 285.4981384277344
0, 4, 88, 304.3055114746094
0, 4, 89, 296.1558532714844
0, 4, 90, 331.4468688964844
0, 4, 91, 302.8009338378906
0, 4, 92, 290.159423828125
0, 4, 93, 295.3775634765625
0, 4, 94, 291.1473999023438
0, 4, 95, 289.6246643066406
0, 4, 96, 322.8625183105469
0, 4, 97, 274.6634826660156
0, 4, 98, 329.5185241699219
0, 4, 99, 316.0265197753906
0, 4, 100, 301.0222778320312
0, 4, 101, 259.1551513671875
0, 4, 102, 298.78857421875
0, 4, 103, 318.092041015625
0, 4, 104, 281.541015625
0, 4, 105, 309.4476928710938
0, 4, 106, 287.9861755371094
0, 4, 107, 296.12548828125
0, 4, 108, 225.9971313476562
0, 4, 109, 79.30522155761719
0, 4, 110, 16.13896179199219
0, 4, 111, 14.17416763305664
0, 4, 112, 7.646736621856689
0, 4, 113, 9.096927642822266
0, 4, 114, 9.180216789245605
0, 4, 115, 11.4498348236084
0, 4, 116, 7.813444137573242
0, 4, 117, 7.013919353485107
0, 4, 118, 9.45109748840332
0, 4, 119, 8.683393478393555
0, 4, 120, 5.160277843475342
0, 4, 121, 5.890130519866943
0, 4, 122, 4.121892929077148
0, 4, 123, 7.370113849639893
0, 4, 124, 4.861326217651367
0, 4, 125, 8.496993064880371
0, 4, 126, 5.784788608551025
0, 4, 127, 5.472628116607666
0, 5, 0, 4.669023990631104
0, 5, 1, 3.458147048950195
0, 5, 2, 5.196053504943848
0, 5, 3, 5.024485111236572
0, 5, 4, 6.318837642669678
0, 5, 5, 6.909573078155518
0, 5, 6, 6.346085548400879
0, 5, 7, 5.658023834228516
0, 5, 8, 7.490564823150635
0, 5, 9, 5.069394588470459
0, 5, 10, 7.677128314971924
0, 5, 11, 7.003908634185791
0, 5, 12, 7.635129451751709
0, 5, 13, 5.002760410308838
0, 5, 14, 13.01046657562256
0, 5, 15, 17.21767616271973
0, 5, 16, 14.7217845916748
0, 5, 17, 29.15878105163574
0, 5, 18, 136.0055389404297
0, 5, 19, 286.9645690917969
0, 5, 20, 309.9360046386719
0, 5, 21, 316.2665405273438
0, 5, 22, 276.1498107910156
0, 5, 23, 311.8598022460938
0, 5, 24, 302.3553771972656
0, 5, 25, 293.9566955566406
0, 5, 26, 293.579833984375
0, 5, 27, 323.3260803222656
0, 5, 28, 302.4132690429688
0, 5, 29, 298.6051025390625
0, 5, 30, 323.0196533203125
0, 5, 31, 284.7168884277344
0, 5, 32, 300.6993713378906
0, 5, 33, 303.0647583007812
0, 5, 34, 295.2212524414062
0, 5, 35, 310.9248657226562
0, 5, 36, 270.243896484375
0, 5, 37, 282.2163696289062
0, 5, 38, 291.3606872558594
0, 5, 39, 312.9407043457031
0, 5, 40, 309.2793884277344
0, 5, 41, 272.4599609375
0, 5, 42, 305.2944946289062
0, 5, 43, 314.3287963867188
0, 5, 44, 292.6766967773438
0, 5, 45, 300.2731018066406
0, 5, 46, 264.7957458496094
0, 5, 47, 279.1985168457031
0, 5, 48, 293.4929504394531
0, 5, 49, 288.2698059082031
0, 5, 50, 295.1658935546875
0, 5, 51, 279.3681945800781
0, 5, 52, 268.35791015625
0, 5, 53, 284.0277404785156
0, 5, 54, 291.7823181152344
0, 5, 55, 346.5333557128906
0, 5, 56, 304.8246154785156
0, 5, 57, 305.9090881347656
0, 5, 58, 313.2660522460938
0, 5, 59, 302.4652099609375
0, 5, 60, 308.7158813476562
0, 5, 61, 281.5040893554688
0, 5, 62, 325.9188232421875
0, 5, 63, 291.5796203613281
0, 5, 64, 321.7684631347656
0, 5, 65, 307.1212463378906
0, 5, 66, 328.9677734375
0, 5, 67, 312.1904296875
0, 5, 68, 307.8112487792969
0, 5, 69, 313.0499267578125
0, 5, 70, 302.82421875
0, 5, 71, 271.9719848632812
0, 5, 72, 308.3955993652344
0, 5, 73, 302.6167297363281
0, 5, 74, 295.9335327148438
0, 5, 75, 292.2417907714844
0, 5, 76, 284.6607971191406
0, 5, 77, 297.0195007324219
0, 5, 78, 314.9954528808594
0, 5, 79, 307.1069030761719
0, 5, 80, 296.1062622070312
0, 5, 81, 325.9385375976562
0, 5, 82, 322.6820983886719
0, 5, 83, 280.9355773925781
0, 5, 84, 301.7370300292969
0, 5, 85, 272.2041931152344
0, 5, 86, 326.1186828613281
0, 5, 87, 284.7003479003906
0, 5, 88, 314.0995178222656
0, 5, 89, 303.9432678222656
0, 5, 90, 315.0192260742188
0, 5, 91, 313.133544921875
0, 5, 92, 296.2229309082031
0, 5, 93, 321.71337890625
0, 5, 94, 306.5843811035156
0, 5, 95, 297.5617980957031
0, 5, 96, 296.7426452636719
0, 5, 97, 294.6535034179688
0, 5, 98, 318.9214477539062
0, 5, 99, 301.6046447753906
0, 5, 100, 290.5845947265625
0, 5, 101, 306.6615905761719
0, 5, 102, 294.9729309082031
0, 5, 103, 313.2532653808594
0, 5, 104, 303.7913818359375
0, 5, 105, 290.6802062988281
0, 5, 106, 281.9169616699219
0, 5, 107, 293.3022766113281
0, 5, 108, 267.6212768554688
0, 5, 109, 157.1278228759766
0, 5, 110, 39.37096786499023
0, 5, 111, 21.80108070373535
0, 5, 112, 16.25532531738281
0, 5, 113, 15.52703952789307
0, 5, 114, 12.95214748382568
0, 5, 115, 6.672290325164795
0, 5, 116, 7.042971134185791
0, 5, 117, 7.175659656524658
0, 5, 118, 16.16601943969727
0, 5, 119, 4.480095386505127
0, 5, 120, 8.183927536010742
0, 5, 121, 8.248560905456543
0, 5, 122, 5.971506118774414
0, 5, 123, 4.844776630401611
0, 5, 124, 5.399145126342773
0, 5, 125, 3.595087766647339
0, 5, 126, 9.381899833679199
0, 5, 127, 6.087960720062256
0, 6, 0, 8.558819770812988
0, 6, 1, 3.375932455062866
0, 6, 2, 5.178793907165527
0, 6, 3, 6.100822448730469
0, 6, 4, 3.151345014572144
0, 6, 5, 7.284189701080322
0, 6, 6, 5.693018913269043
0, 6, 7, 6.706024169921875
0, 6, 8, 7.749666690826416
0, 6, 9, 5.401554584503174
0, 6, 10, 10.77094078063965
0, 6, 11, 8.847726821899414
0, 6, 12, 9.131059646606445
0, 6, 13, 13.42237567901611
0, 6, 14, 8.363224983215332
0, 6, 15, 15.89391708374023
0, 6, 16, 29.04224967956543
0, 6, 17, 54.93541717529297
0, 6, 18, 174.6325225830078
0, 6, 19, 277.1030578613281
0, 6, 20, 290.5825805664062
0, 6, 21, 313.601318359375
0, 6, 22, 319.8474426269531
0, 6, 23, 305.3887329101562
0, 6, 24, 315.9024047851562
0, 6, 25, 317.8661193847656
0, 6, 26, 320.0559692382812
0, 6, 27, 329.8639221191406
0, 6, 28, 294.6891479492188
0, 6, 29, 329.7677307128906
0, 6, 30, 281.4161682128906
0, 6, 31, 285.7824401855469
0, 6, 32, 341.553466796875
0, 6, 33, 300.6331787109375
0, 6, 34, 340.2070922851562
0, 6, 35, 321.136962890625
0, 6, 36, 274.1137084960938
0, 6, 37, 289.9907531738281
0, 6, 38, 312.4558410644531
0, 6, 39, 298.3244934082031
0, 6, 40, 286.2808532714844
0, 6, 41, 295.3669128417969
0, 6, 42, 304.2254943847656
0, 6, 43, 288.5808410644531
0, 6, 44, 279.8645935058594
0, 6, 45, 318.9275512695312
0, 6, 46, 302.2120056152344
0, 6, 47, 332.3955383300781
0, 6, 48, 293.1017456054688
0, 6, 49, 312.83056640625
0, 6, 50, 327.4716491699219
0, 6, 51, 309.9303283691406
0, 6, 52, 321.54931640625
0, 6, 53, 326.8061218261719
0, 6, 54, 302.812255859375
0, 6, 55, 307.782958984375
0, 6, 56, 293.1988830566406
0, 6, 57, 312.6756286621094
0, 6, 58, 262.70263671875
0, 6, 59, 300.7930297851562
0, 6, 60, 311.9726867675781
0, 6, 61, 270.4115295410156
0, 6, 62, 336.3642578125
0, 6, 63, 324.5014953613281
0, 6, 64, 293.5604553222656
0, 6, 65, 283.0364990234375
0, 6, 66, 303.7010498046875
0, 6, 67, 311.6330261230469
0, 6, 68, 292.7601318359375
0, 6, 69, 280.1135559082031
0, 6, 70, 273.3913269042969
0, 6, 71, 289.1829223632812
0, 6, 72, 311.5296020507812
0, 6, 73, 292.0301818847656
0, 6, 74, 329.9913940429688
0, 6, 75, 342.7012634277344
0, 6, 76, 297.6701965332031
0, 6, 77, 287.5502319335938
0, 6, 78, 279.3797302246094
0, 6, 79, 292.02783203125
0, 6, 80, 299.4456481933594
0, 6, 81, 316.8753967285156
0, 6, 82, 320.3114929199219
0, 6, 83, 320.2550354003906
0, 6, 84, 297.4111938476562
0, 6, 85, 301.6246032714844
0, 6, 86, 330.1502380371094
0, 6, 87, 290.4159240722656
0, 6, 88, 305.9976196289062
0, 6, 89, 305.4420471191406
0, 6, 90, 300.8036193847656
0, 6, 91, 311.3423767089844
0, 6, 92, 285.4564819335938
0, 6, 93, 295.1934204101562
0, 6, 94, 271.0780944824219
0, 6, 95, 298.6345520019531
0, 6, 96, 346.4313354492188
0, 6, 97, 309.9681091308594
0, 6, 98, 300.1254272460938
0, 6, 99, 274.2322692871094
0, 6, 100, 311.0033569335938
0, 6, 101, 295.07421875
0, 6, 102, 308.8367614746094
0, 6, 103, 308.048095703125
0, 6, 104, 294.01318359375
0, 6, 105, 301.9784851074219
0, 6, 106, 307.0897827148438
0, 6, 107, 306.2409362792969
0, 6, 108, 264.8675537109375
0, 6, 109, 186.5902252197266
0, 6, 110, 55.26527786254883
0, 6, 111, 21.2874584197998
0, 6, 112, 12.80807304382324
0, 6, 113, 11.21344566345215
0, 6, 114, 13.82985305786133
0, 6, 115, 13.98250484466553
0, 6, 116, 10.95123672485352
0, 6, 117, 5.309853076934814
0, 6, 118, 10.3351469039917
0, 6, 119, 10.12609577178955
0, 6, 120, 5.765106678009033
0, 6, 121, 6.117230415344238
0, 6, 122, 8.600135803222656
0, 6, 123, 5.830554485321045
0, 6, 124, 5.73089075088501
0, 6, 125, 6.298967361450195
0, 6, 126, 4.853882789611816
0, 6, 127, 6.452549934387207
0, 7, 0, 5.58153247833252
0, 7, 1, 3.982803821563721
0, 7, 2, 6.416747093200684
0, 7, 3, 4.316432476043701
0, 7, 4, 4.067135810852051
0, 7, 5, 4.232819080352783
0, 7, 6, 6.857855319976807
0, 7, 7, 5.881481647491455
0, 7, 8, 7.962120056152344
0, 7, 9, 8.243168830871582
0, 7, 10, 8.914699554443359
0, 7, 11, 10.60138893127441
0, 7, 12, 10.64818000793457
0, 7, 13, 15.26749420166016
0, 7, 14, 10.83249473571777
0, 7, 15, 16.16254806518555
0, 7, 16, 26.53128433227539
0, 7, 17, 98.68982696533203
0, 7, 18, 217.4391632080078
0, 7, 19, 292.9774475097656
0, 7, 20, 298.3643798828125
0, 7, 21, 277.5332946777344
0, 7, 22, 300.6998901367188
0, 7, 23, 289.2621765136719
0, 7, 24, 314.3728332519531
0, 7, 25, 325.3632507324219
0, 7, 26, 276.533203125
0, 7, 27, 297.6812438964844
0, 7, 28, 326.5510559082031
0, 7, 29, 317.3355712890625
0, 7, 30, 300.1151428222656
0, 7, 31, 278.1957092285156
0, 7, 32, 305.379638671875
0, 7, 33, 261.4592590332031
0, 7, 34, 296.6387023925781
0, 7, 35, 319.7299194335938
0, 7, 36, 329.8861389160156
0, 7, 37, 325.6067199707031
0, 7, 38, 295.2377319335938
0, 7, 39, 307.5379333496094
0, 7, 40, 292.381591796875
0, 7, 41, 272.4463195800781
0, 7, 42, 303.7110900878906
0, 7, 43, 276.5946655273438
0, 7, 44, 303.9928588867188
0, 7, 45, 299.3425903320312
0, 7, 46, 284.2269592285156
0, 7, 47, 328.7774963378906
0, 7, 48, 285.0740661621094
0, 7, 49, 302.809814453125
0, 7, 50, 321.0608520507812
0, 7, 51, 298.7914123535156
0, 7, 52, 328.5598754882812
0, 7, 53, 311.8180847167969
0, 7, 54, 323.9388427734375
0, 7, 55, 306.5251159667969
0, 7, 56, 282.3847045898438
0, 7, 57, 281.142578125
0, 7, 58, 297.8936767578125
0, 7, 59, 292.3775024414062
0, 7, 60, 321.6230163574219
0, 7, 61, 277.4619140625
0, 7, 62, 298.7318725585938
0, 7, 63, 293.1618347167969
0, 7, 64, 304.9780883789062
0, 7, 65, 330.5284118652344
0, 7, 66, 318.5142822265625
0, 7, 67, 305.156982421875
0, 7, 68, 279.5701904296875
0, 7, 69, 294.1813354492188
0, 7, 70, 301.3201904296875
0, 7, 71, 309.9761962890625
0, 7, 72, 283.5730285644531
0, 7, 73, 297.0900268554688
0, 7, 74, 344.797119140625
0, 7, 75, 318.2749938964844
0, 7, 76, 322.4936218261719
0, 7, 77, 278.9676818847656
0, 7, 78, 302.3384094238281
0, 7, 79, 299.8742370605469
0, 7, 80, 311.6767272949219
0, 7, 81, 320.1935729980469
0, 7, 82, 328.3886413574219
0, 7, 83, 318.4178466796875
0, 7, 84, 309.2103576660156
0, 7, 85, 272.1260986328125
0, 7, 86, 312.3179626464844
0, 7, 87, 308.5427856445312
0, 7, 88, 306.4990844726562
0, 7, 89, 293.3640747070312
0, 7, 90, 307.7248229980469
0, 7, 91, 314.1896057128906
0, 7, 92, 289.1519165039062
0, 7, 93, 306.0834350585938
0, 7, 94, 277.6600646972656
0, 7, 95, 298.6735534667969
0, 7, 96, 330.7322387695312
0, 7, 97, 295.1448364257812
0, 7, 98, 290.5453186035156
0, 7, 99, 312.1052856445312
0, 7, 100, 282.1392517089844
0, 7, 101, 274.0205078125
0, 7, 102, 291.3478088378906
0, 7, 103, 291.1487121582031
0, 7, 104, 275.3499450683594
0, 7, 105, 305.6965026855469
0, 7, 106, 317.0176391601562
0, 7, 107, 296.6800231933594
0, 7, 108, 274.572265625
0, 7, 109, 237.394775390625
0, 7, 110, 96.95020294189453
0, 7, 111, 23.82322692871094
0, 7, 112, 14.59209823608398
0, 7, 113, 14.38359069824219
0, 7, 114, 11.69125747680664
0, 7, 115, 11.33546733856201
0, 7, 116, 11.35878276824951
0, 7, 117, 7.717216968536377
0, 7, 118, 6.730175971984863
0, 7, 119, 9.481942176818848
0, 7, 120, 5.002259731292725
0, 7, 121, 9.31784725189209
0, 7, 122, 6.901327133178711
0, 7, 123, 5.249117374420166
0, 7, 124, 3.677813053131104
0, 7, 125, 6.55569314956665
0, 7, 126, 8.976725578308105
0, 7, 127, 3.507158994674683
0, 8, 0, 6.608098983764648
0, 8, 1, 4.303393363952637
0, 8, 2, 3.768931865692139
0, 8, 3, 3.948742628097534
0, 8, 4, 3.520229578018188
0, 8, 5, 6.341301441192627
0, 8, 6, 9.352822303771973
0, 8, 7, 6.220881938934326
0, 8, 8, 10.03820133209229
0, 8, 9, 6.255059242248535
0, 8, 10, 7.875018119812012
0, 8, 11, 12.38061237335205
0, 8, 12, 13.38749885559082
0, 8, 13, 16.51914596557617
0, 8, 14, 11.4776725769043
0, 8, 15, 17.60247421264648
0, 8, 16, 32.46580123901367
0, 8, 17, 131.4793243408203
0, 8, 18, 241.7376251220703
0, 8, 19, 294.9554138183594
0, 8, 20, 285.3931884765625
0, 8, 21, 306.7281799316406
0, 8, 22, 294.2626342773438
0, 8, 23, 278.2241516113281
0, 8, 24, 270.6000671386719
0, 8, 25, 275.2680358886719
0, 8, 26, 306.4990234375
0, 8, 27, 310.1273498535156
0, 8, 28, 304.5435791015625
0, 8, 29, 318.4880981445312
0, 8, 30, 315.6246643066406
0, 8, 31, 302.6999206542969
0, 8, 32, 280.0853881835938
0, 8, 33, 293.5010070800781
0, 8, 34, 289.1640014648438
0, 8, 35, 284.3850402832031
0, 8, 36, 315.7373657226562
0, 8, 37, 339.8998413085938
0, 8, 38, 332.7108459472656
0, 8, 39, 282.4179992675781
0, 8, 40, 306.6680297851562
