# TOPAS Version: 3.1.p3
# Parameter File: batch_inserts_70.txt
# Results for scorer Readout_Adipose
# Scored in component: MyBox
# X in 1 bin  of 0.75 cm
# Y in 512 bins of 0.0783984 cm
# Z in 128 bins of 0.078125 cm
# EnergyDeposit ( MeV ) : Sum   
0, 0, 0, 21.37354469299316
0, 0, 1, 21.67935943603516
0, 0, 2, 28.5525951385498
0, 0, 3, 24.80319595336914
0, 0, 4, 20.27764892578125
0, 0, 5, 24.05582618713379
0, 0, 6, 23.58035850524902
0, 0, 7, 31.43904876708984
0, 0, 8, 22.91302680969238
0, 0, 9, 24.01951599121094
0, 0, 10, 25.47629737854004
0, 0, 11, 28.65164375305176
0, 0, 12, 34.07100296020508
0, 0, 13, 30.98139381408691
0, 0, 14, 39.35072326660156
0, 0, 15, 45.36241149902344
0, 0, 16, 40.212646484375
0, 0, 17, 49.26906967163086
0, 0, 18, 75.44429016113281
0, 0, 19, 193.5702972412109
0, 0, 20, 701.9930419921875
0, 0, 21, 1195.096435546875
0, 0, 22, 1244.480102539062
0, 0, 23, 1272.010620117188
0, 0, 24, 1281.173217773438
0, 0, 25, 1352.757202148438
0, 0, 26, 1268.846435546875
0, 0, 27, 1279.327392578125
0, 0, 28, 1321.886962890625
0, 0, 29, 1271.154174804688
0, 0, 30, 1265.116943359375
0, 0, 31, 1280.014526367188
0, 0, 32, 1266.674926757812
0, 0, 33, 1246.052001953125
0, 0, 34, 1320.931274414062
0, 0, 35, 1297.323852539062
0, 0, 36, 1245.56005859375
0, 0, 37, 1279.860107421875
0, 0, 38, 1248.236083984375
0, 0, 39, 1244.980224609375
0, 0, 40, 1222.662109375
0, 0, 41, 1266.988891601562
0, 0, 42, 1253.307495117188
0, 0, 43, 1269.064697265625
0, 0, 44, 1224.20849609375
0, 0, 45, 1290.644653320312
0, 0, 46, 1259.659423828125
0, 0, 47, 1239.798828125
0, 0, 48, 1279.409912109375
0, 0, 49, 1283.417114257812
0, 0, 50, 1309.78173828125
0, 0, 51, 1260.035766601562
0, 0, 52, 1365.0634765625
0, 0, 53, 1324.845825195312
0, 0, 54, 1294.436767578125
0, 0, 55, 1234.732543945312
0, 0, 56, 1316.79052734375
0, 0, 57, 1291.854125976562
0, 0, 58, 1257.334106445312
0, 0, 59, 1333.617065429688
0, 0, 60, 1321.862426757812
0, 0, 61, 1261.44921875
0, 0, 62, 1245.949951171875
0, 0, 63, 1282.2294921875
0, 0, 64, 1329.576904296875
0, 0, 65, 1283.789916992188
0, 0, 66, 1316.825927734375
0, 0, 67, 1216.679321289062
0, 0, 68, 1308.232055664062
0, 0, 69, 1329.58544921875
0, 0, 70, 1341.677124023438
0, 0, 71, 1286.063720703125
0, 0, 72, 1312.14013671875
0, 0, 73, 1234.37060546875
0, 0, 74, 1291.763916015625
0, 0, 75, 1297.02587890625
0, 0, 76, 1261.234619140625
0, 0, 77, 1286.515014648438
0, 0, 78, 1317.701171875
0, 0, 79, 1325.553100585938
0, 0, 80, 1261.40673828125
0, 0, 81, 1320.609252929688
0, 0, 82, 1288.031494140625
0, 0, 83, 1294.271362304688
0, 0, 84, 1327.712158203125
0, 0, 85, 1235.192749023438
0, 0, 86, 1268.648071289062
0, 0, 87, 1251.3486328125
0, 0, 88, 1257.91943359375
0, 0, 89, 1331.817504882812
0, 0, 90, 1278.23486328125
0, 0, 91, 1352.912231445312
0, 0, 92, 1298.940673828125
0, 0, 93, 1276.70361328125
0, 0, 94, 1243.20263671875
0, 0, 95, 1330.979248046875
0, 0, 96, 1281.598754882812
0, 0, 97, 1324.072265625
0, 0, 98, 1258.564208984375
0, 0, 99, 1251.327392578125
0, 0, 100, 1290.122192382812
0, 0, 101, 1314.746826171875
0, 0, 102, 1231.263061523438
0, 0, 103, 1321.880981445312
0, 0, 104, 1264.678955078125
0, 0, 105, 1266.814208984375
0, 0, 106, 1206.089111328125
0, 0, 107, 783.5420532226562
0, 0, 108, 198.2390747070312
0, 0, 109, 69.03004455566406
0, 0, 110, 59.75369262695312
0, 0, 111, 39.05638885498047
0, 0, 112, 39.26786041259766
0, 0, 113, 31.59089469909668
0, 0, 114, 35.67369842529297
0, 0, 115, 29.52769660949707
0, 0, 116, 27.40909194946289
0, 0, 117, 33.34079742431641
0, 0, 118, 23.60837745666504
0, 0, 119, 21.49674224853516
0, 0, 120, 24.07500839233398
0, 0, 121, 27.44768333435059
0, 0, 122, 22.40216445922852
0, 0, 123, 20.27473258972168
0, 0, 124, 24.97203826904297
0, 0, 125, 19.55102920532227
0, 0, 126, 25.31814002990723
0, 0, 127, 16.8759765625
0, 1, 0, 25.83891105651855
0, 1, 1, 18.22494316101074
0, 1, 2, 21.8524112701416
0, 1, 3, 25.36435699462891
0, 1, 4, 25.13178825378418
0, 1, 5, 23.8519287109375
0, 1, 6, 23.90099143981934
0, 1, 7, 25.36231803894043
0, 1, 8, 34.41501235961914
0, 1, 9, 32.71187973022461
0, 1, 10, 33.96120834350586
0, 1, 11, 44.18059158325195
0, 1, 12, 40.63447189331055
0, 1, 13, 45.05692672729492
0, 1, 14, 40.19102096557617
0, 1, 15, 47.77765274047852
0, 1, 16, 57.48638916015625
0, 1, 17, 62.45965576171875
0, 1, 18, 102.5776062011719
0, 1, 19, 397.2149658203125
0, 1, 20, 1040.26513671875
0, 1, 21, 1374.394287109375
0, 1, 22, 1475.713745117188
0, 1, 23, 1465.775756835938
0, 1, 24, 1454.310791015625
0, 1, 25, 1421.7685546875
0, 1, 26, 1469.705444335938
0, 1, 27, 1465.333374023438
0, 1, 28, 1489.476440429688
0, 1, 29, 1478.614868164062
0, 1, 30, 1504.889770507812
0, 1, 31, 1487.246337890625
0, 1, 32, 1408.1591796875
0, 1, 33, 1504.692260742188
0, 1, 34, 1502.370483398438
0, 1, 35, 1466.223999023438
0, 1, 36, 1491.008911132812
0, 1, 37, 1408.36474609375
0, 1, 38, 1394.739868164062
0, 1, 39, 1529.116943359375
0, 1, 40, 1462.747802734375
0, 1, 41, 1489.830810546875
0, 1, 42, 1495.752807617188
0, 1, 43, 1501.02197265625
0, 1, 44, 1449.405395507812
0, 1, 45, 1482.1845703125
0, 1, 46, 1418.963989257812
0, 1, 47, 1438.533325195312
0, 1, 48, 1431.437255859375
0, 1, 49, 1486.302612304688
0, 1, 50, 1447.218139648438
0, 1, 51, 1474.993530273438
0, 1, 52, 1477.69482421875
0, 1, 53, 1473.741577148438
0, 1, 54, 1504.433349609375
0, 1, 55, 1497.032958984375
0, 1, 56, 1473.90478515625
0, 1, 57, 1457.278686523438
0, 1, 58, 1429.826782226562
0, 1, 59, 1479.743774414062
0, 1, 60, 1461.151489257812
0, 1, 61, 1447.985229492188
0, 1, 62, 1455.942749023438
0, 1, 63, 1415.142211914062
0, 1, 64, 1477.2099609375
0, 1, 65, 1412.850952148438
0, 1, 66, 1439.414306640625
0, 1, 67, 1453.735717773438
0, 1, 68, 1390.214233398438
0, 1, 69, 1465.406127929688
0, 1, 70, 1432.730102539062
0, 1, 71, 1498.179443359375
0, 1, 72, 1432.37890625
0, 1, 73, 1488.606689453125
0, 1, 74, 1466.032836914062
0, 1, 75, 1477.533569335938
0, 1, 76, 1447.895629882812
0, 1, 77, 1468.5068359375
0, 1, 78, 1452.607299804688
0, 1, 79, 1503.072875976562
0, 1, 80, 1451.642333984375
0, 1, 81, 1427.670776367188
0, 1, 82, 1473.917236328125
0, 1, 83, 1463.871215820312
0, 1, 84, 1536.56396484375
0, 1, 85, 1446.47412109375
0, 1, 86, 1406.801879882812
0, 1, 87, 1419.2626953125
0, 1, 88, 1469.169189453125
0, 1, 89, 1471.912109375
0, 1, 90, 1424.660766601562
0, 1, 91, 1459.354736328125
0, 1, 92, 1415.406494140625
0, 1, 93, 1460.328491210938
0, 1, 94, 1465.843994140625
0, 1, 95, 1421.0986328125
0, 1, 96, 1496.929931640625
0, 1, 97, 1517.125122070312
0, 1, 98, 1480.557983398438
0, 1, 99, 1413.83203125
0, 1, 100, 1451.141967773438
0, 1, 101, 1417.303588867188
0, 1, 102, 1441.438842773438
0, 1, 103, 1413.848266601562
0, 1, 104, 1405.650756835938
0, 1, 105, 1460.322265625
0, 1, 106, 1366.392456054688
0, 1, 107, 1016.52001953125
0, 1, 108, 402.2767639160156
0, 1, 109, 93.86589813232422
0, 1, 110, 64.80525970458984
0, 1, 111, 54.85398483276367
0, 1, 112, 44.95023345947266
0, 1, 113, 40.1147346496582
0, 1, 114, 36.5325813293457
0, 1, 115, 40.67292404174805
0, 1, 116, 33.38268661499023
0, 1, 117, 32.61029434204102
0, 1, 118, 35.47686386108398
0, 1, 119, 34.75385284423828
0, 1, 120, 26.47030067443848
0, 1, 121, 24.33948135375977
0, 1, 122, 19.54941558837891
0, 1, 123, 27.29457092285156
0, 1, 124, 27.23032188415527
0, 1, 125, 17.78850364685059
0, 1, 126, 17.09814834594727
0, 1, 127, 16.97164535522461
0, 2, 0, 17.72378730773926
0, 2, 1, 20.88612747192383
0, 2, 2, 16.5733699798584
0, 2, 3, 21.03129196166992
0, 2, 4, 19.86734390258789
0, 2, 5, 22.1287956237793
0, 2, 6, 21.41027450561523
0, 2, 7, 20.3749942779541
0, 2, 8, 26.3309268951416
0, 2, 9, 28.55205154418945
0, 2, 10, 27.37045860290527
0, 2, 11, 34.30516052246094
0, 2, 12, 46.12662506103516
0, 2, 13, 45.98954391479492
0, 2, 14, 48.56943511962891
0, 2, 15, 45.38218688964844
0, 2, 16, 62.15284729003906
0, 2, 17, 83.129150390625
0, 2, 18, 142.6886138916016
0, 2, 19, 607.8543090820312
0, 2, 20, 1282.684204101562
0, 2, 21, 1433.525146484375
0, 2, 22, 1456.492919921875
0, 2, 23, 1404.346557617188
0, 2, 24, 1443.051879882812
0, 2, 25, 1524.786010742188
0, 2, 26, 1552.193237304688
0, 2, 27, 1452.773315429688
0, 2, 28, 1456.171630859375
0, 2, 29, 1460.569091796875
0, 2, 30, 1462.221923828125
0, 2, 31, 1532.1982421875
0, 2, 32, 1505.044067382812
0, 2, 33, 1442.812744140625
0, 2, 34, 1470.946533203125
0, 2, 35, 1476.05712890625
0, 2, 36, 1522.648193359375
0, 2, 37, 1543.6962890625
0, 2, 38, 1504.491821289062
0, 2, 39, 1464.78466796875
0, 2, 40, 1508.423095703125
0, 2, 41, 1518.00146484375
0, 2, 42, 1502.018310546875
0, 2, 43, 1551.329956054688
0, 2, 44, 1455.941528320312
0, 2, 45, 1482.310424804688
0, 2, 46, 1427.038818359375
0, 2, 47, 1445.637573242188
0, 2, 48, 1400.0849609375
0, 2, 49, 1465.098876953125
0, 2, 50, 1444.946166992188
0, 2, 51, 1441.634765625
0, 2, 52, 1494.844970703125
0, 2, 53, 1521.167114257812
0, 2, 54, 1524.365356445312
0, 2, 55, 1489.103881835938
0, 2, 56, 1463.514282226562
0, 2, 57, 1415.0966796875
0, 2, 58, 1453.298583984375
0, 2, 59, 1447.470092773438
0, 2, 60, 1473.536376953125
0, 2, 61, 1447.136108398438
0, 2, 62, 1467.788452148438
0, 2, 63, 1504.48779296875
0, 2, 64, 1459.559936523438
0, 2, 65, 1425.853149414062
0, 2, 66, 1485.02880859375
0, 2, 67, 1505.182739257812
0, 2, 68, 1540.577270507812
0, 2, 69, 1529.885986328125
0, 2, 70, 1500.066162109375
0, 2, 71, 1463.024291992188
0, 2, 72, 1516.676391601562
0, 2, 73, 1517.944458007812
0, 2, 74, 1491.146728515625
0, 2, 75, 1505.215576171875
0, 2, 76, 1447.20361328125
0, 2, 77, 1506.652709960938
0, 2, 78, 1428.978149414062
0, 2, 79, 1538.223510742188
0, 2, 80, 1478.554809570312
0, 2, 81, 1468.247680664062
0, 2, 82, 1556.225830078125
0, 2, 83, 1516.586303710938
0, 2, 84, 1490.162719726562
0, 2, 85, 1514.870361328125
0, 2, 86, 1539.680908203125
0, 2, 87, 1487.544921875
0, 2, 88, 1538.006103515625
0, 2, 89, 1461.969848632812
0, 2, 90, 1432.374389648438
0, 2, 91, 1407.215209960938
0, 2, 92, 1476.262084960938
0, 2, 93, 1493.1884765625
0, 2, 94, 1452.27734375
0, 2, 95, 1543.357177734375
0, 2, 96, 1518.855590820312
0, 2, 97, 1454.17431640625
0, 2, 98, 1465.359130859375
0, 2, 99, 1407.1591796875
0, 2, 100, 1472.110473632812
0, 2, 101, 1479.791137695312
0, 2, 102, 1459.384155273438
0, 2, 103, 1392.4267578125
0, 2, 104, 1413.65087890625
0, 2, 105, 1394.782470703125
0, 2, 106, 1456.430297851562
0, 2, 107, 1279.027099609375
0, 2, 108, 620.6707153320312
0, 2, 109, 172.1217498779297
0, 2, 110, 68.49909210205078
0, 2, 111, 62.10818862915039
0, 2, 112, 51.14328765869141
0, 2, 113, 46.38776016235352
0, 2, 114, 44.27475357055664
0, 2, 115, 41.18364715576172
0, 2, 116, 33.00020217895508
0, 2, 117, 29.88592338562012
0, 2, 118, 27.36010932922363
0, 2, 119, 33.3365364074707
0, 2, 120, 26.90037155151367
0, 2, 121, 21.13911819458008
0, 2, 122, 29.25156211853027
0, 2, 123, 24.86890983581543
0, 2, 124, 26.27310943603516
0, 2, 125, 27.27083396911621
0, 2, 126, 14.19243621826172
0, 2, 127, 23.09619331359863
0, 3, 0, 20.81831550598145
0, 3, 1, 24.44651985168457
0, 3, 2, 22.18978118896484
0, 3, 3, 20.92218971252441
0, 3, 4, 17.14484977722168
0, 3, 5, 23.24320793151855
0, 3, 6, 30.64265632629395
0, 3, 7, 34.48709869384766
0, 3, 8, 29.24908638000488
0, 3, 9, 31.16237640380859
0, 3, 10, 30.43385314941406
0, 3, 11, 37.32152557373047
0, 3, 12, 45.42889785766602
0, 3, 13, 50.06906127929688
0, 3, 14, 59.78482437133789
0, 3, 15, 58.31606292724609
0, 3, 16, 74.8428955078125
0, 3, 17, 86.46699523925781
0, 3, 18, 236.3021545410156
0, 3, 19, 878.5655517578125
0, 3, 20, 1386.489013671875
0, 3, 21, 1505.002807617188
0, 3, 22, 1461.738525390625
0, 3, 23, 1451.606689453125
0, 3, 24, 1443.257202148438
0, 3, 25, 1463.752563476562
0, 3, 26, 1497.889892578125
0, 3, 27, 1468.042846679688
0, 3, 28, 1489.760620117188
0, 3, 29, 1540.700561523438
0, 3, 30, 1571.963256835938
0, 3, 31, 1511.642333984375
0, 3, 32, 1541.20751953125
0, 3, 33, 1537.87939453125
0, 3, 34, 1484.83447265625
0, 3, 35, 1463.006469726562
0, 3, 36, 1452.071899414062
0, 3, 37, 1517.192260742188
0, 3, 38, 1517.249145507812
0, 3, 39, 1436.767456054688
0, 3, 40, 1440.273559570312
0, 3, 41, 1558.285400390625
0, 3, 42, 1461.550659179688
0, 3, 43, 1456.049926757812
0, 3, 44, 1453.673828125
0, 3, 45, 1508.794189453125
0, 3, 46, 1510.12939453125
0, 3, 47, 1443.298095703125
0, 3, 48, 1506.941040039062
0, 3, 49, 1453.340087890625
0, 3, 50, 1485.4609375
0, 3, 51, 1538.213256835938
0, 3, 52, 1535.7001953125
0, 3, 53, 1470.55078125
0, 3, 54, 1533.75830078125
0, 3, 55, 1501.414428710938
0, 3, 56, 1434.166259765625
0, 3, 57, 1502.826904296875
0, 3, 58, 1513.3369140625
0, 3, 59, 1509.987915039062
0, 3, 60, 1531.60400390625
0, 3, 61, 1482.326538085938
0, 3, 62, 1492.093017578125
0, 3, 63, 1495.176513671875
0, 3, 64, 1496.2421875
0, 3, 65, 1511.354248046875
0, 3, 66, 1556.021850585938
0, 3, 67, 1544.134521484375
0, 3, 68, 1448.594970703125
0, 3, 69, 1468.096435546875
0, 3, 70, 1388.2041015625
0, 3, 71, 1459.694702148438
0, 3, 72, 1552.489501953125
0, 3, 73, 1501.955810546875
0, 3, 74, 1466.222412109375
0, 3, 75, 1456.696655273438
0, 3, 76, 1573.187255859375
0, 3, 77, 1538.226318359375
0, 3, 78, 1429.533325195312
0, 3, 79, 1492.012329101562
0, 3, 80, 1463.905517578125
0, 3, 81, 1469.235107421875
0, 3, 82, 1556.199584960938
0, 3, 83, 1507.7431640625
0, 3, 84, 1560.028076171875
0, 3, 85, 1474.37060546875
0, 3, 86, 1519.30322265625
0, 3, 87, 1534.576782226562
0, 3, 88, 1460.562133789062
0, 3, 89, 1448.852416992188
0, 3, 90, 1448.296264648438
0, 3, 91, 1424.560424804688
0, 3, 92, 1512.478393554688
0, 3, 93, 1499.922119140625
0, 3, 94, 1517.940185546875
0, 3, 95, 1546.691162109375
0, 3, 96, 1511.21044921875
0, 3, 97, 1460.884033203125
0, 3, 98, 1432.055541992188
0, 3, 99, 1464.833251953125
0, 3, 100, 1472.26123046875
0, 3, 101, 1473.694946289062
0, 3, 102, 1518.19580078125
0, 3, 103, 1551.1435546875
0, 3, 104, 1502.08251953125
0, 3, 105, 1518.171508789062
0, 3, 106, 1476.921264648438
0, 3, 107, 1344.895263671875
0, 3, 108, 876.7076416015625
0, 3, 109, 263.0814819335938
0, 3, 110, 101.3557968139648
0, 3, 111, 67.88772583007812
0, 3, 112, 59.16603088378906
0, 3, 113, 52.21213912963867
0, 3, 114, 49.13711547851562
0, 3, 115, 50.24667739868164
0, 3, 116, 32.72990798950195
0, 3, 117, 40.87530136108398
0, 3, 118, 33.59731674194336
0, 3, 119, 31.68527793884277
0, 3, 120, 32.71817016601562
0, 3, 121, 18.37535285949707
0, 3, 122, 24.78380393981934
0, 3, 123, 25.30043411254883
0, 3, 124, 21.42019081115723
0, 3, 125, 26.10520935058594
0, 3, 126, 24.44302177429199
0, 3, 127, 13.46569156646729
0, 4, 0, 16.91868019104004
0, 4, 1, 22.5052318572998
0, 4, 2, 22.19342994689941
0, 4, 3, 15.92592144012451
0, 4, 4, 29.0897159576416
0, 4, 5, 28.00934028625488
0, 4, 6, 34.47843170166016
0, 4, 7, 39.13753128051758
0, 4, 8, 27.60588455200195
0, 4, 9, 35.05695724487305
0, 4, 10, 32.69598388671875
0, 4, 11, 42.09398651123047
0, 4, 12, 42.36264038085938
0, 4, 13, 49.18086624145508
0, 4, 14, 50.3770866394043
0, 4, 15, 65.81491851806641
0, 4, 16, 71.64285278320312
0, 4, 17, 113.0932693481445
0, 4, 18, 444.5703430175781
0, 4, 19, 1179.768920898438
0, 4, 20, 1445.341796875
0, 4, 21, 1421.5830078125
0, 4, 22, 1432.29443359375
0, 4, 23, 1453.169677734375
0, 4, 24, 1472.1640625
0, 4, 25, 1404.618774414062
0, 4, 26, 1536.096069335938
0, 4, 27, 1542.29833984375
0, 4, 28, 1508.945678710938
0, 4, 29, 1515.50537109375
0, 4, 30, 1523.607421875
0, 4, 31, 1578.663818359375
0, 4, 32, 1515.15576171875
0, 4, 33, 1498.187133789062
0, 4, 34, 1472.886352539062
0, 4, 35, 1560.429565429688
0, 4, 36, 1503.500610351562
0, 4, 37, 1511.880737304688
0, 4, 38, 1536.885131835938
0, 4, 39, 1468.415405273438
0, 4, 40, 1513.719116210938
0, 4, 41, 1584.369384765625
0, 4, 42, 1561.895751953125
0, 4, 43, 1474.096801757812
0, 4, 44, 1498.644165039062
0, 4, 45, 1516.096435546875
0, 4, 46, 1466.0283203125
0, 4, 47, 1502.200805664062
0, 4, 48, 1525.602905273438
0, 4, 49, 1472.332641601562
0, 4, 50, 1524.479125976562
0, 4, 51, 1494.025268554688
0, 4, 52, 1491.663452148438
0, 4, 53, 1453.734741210938
0, 4, 54, 1439.948852539062
0, 4, 55, 1525.02880859375
0, 4, 56, 1456.110473632812
0, 4, 57, 1496.155151367188
0, 4, 58, 1459.015380859375
0, 4, 59, 1462.523315429688
0, 4, 60, 1530.817016601562
0, 4, 61, 1504.270385742188
0, 4, 62, 1509.60888671875
0, 4, 63, 1540.528076171875
0, 4, 64, 1592.953002929688
0, 4, 65, 1427.379638671875
0, 4, 66, 1518.105346679688
0, 4, 67, 1518.805541992188
0, 4, 68, 1494.122314453125
0, 4, 69, 1468.288940429688
0, 4, 70, 1545.382934570312
0, 4, 71, 1517.2314453125
0, 4, 72, 1533.356323242188
0, 4, 73, 1490.827270507812
0, 4, 74, 1486.374877929688
0, 4, 75, 1539.308715820312
0, 4, 76, 1479.425170898438
0, 4, 77, 1498.564697265625
0, 4, 78, 1498.70654296875
0, 4, 79, 1481.6181640625
0, 4, 80, 1513.966552734375
0, 4, 81, 1523.890014648438
0, 4, 82, 1565.676879882812
0, 4, 83, 1512.350830078125
0, 4, 84, 1536.426025390625
0, 4, 85, 1551.992797851562
0, 4, 86, 1527.324340820312
0, 4, 87, 1496.197875976562
0, 4, 88, 1515.21923828125
0, 4, 89, 1481.7529296875
0, 4, 90, 1543.664794921875
0, 4, 91, 1554.442749023438
0, 4, 92, 1488.507690429688
0, 4, 93, 1517.891967773438
0, 4, 94, 1485.21044921875
0, 4, 95, 1511.716186523438
0, 4, 96, 1448.637817382812
0, 4, 97, 1409.921630859375
0, 4, 98, 1549.331665039062
0, 4, 99, 1510.311645507812
0, 4, 100, 1488.998901367188
0, 4, 101, 1446.126098632812
0, 4, 102, 1445.236938476562
0, 4, 103, 1516.432861328125
0, 4, 104, 1506.3544921875
0, 4, 105, 1556.718139648438
0, 4, 106, 1475.396118164062
0, 4, 107, 1456.214965820312
0, 4, 108, 1115.914794921875
0, 4, 109, 436.8272094726562
0, 4, 110, 100.4907455444336
0, 4, 111, 69.27100372314453
0, 4, 112, 63.42018508911133
0, 4, 113, 52.31790542602539
0, 4, 114, 49.56959915161133
0, 4, 115, 48.28646850585938
0, 4, 116, 36.84708786010742
0, 4, 117, 36.86260986328125
0, 4, 118, 37.20399475097656
0, 4, 119, 38.33477020263672
0, 4, 120, 30.62372207641602
0, 4, 121, 28.9850902557373
0, 4, 122, 26.45100402832031
0, 4, 123, 31.6802864074707
0, 4, 124, 23.795654296875
0, 4, 125, 26.1025218963623
0, 4, 126, 20.6357250213623
0, 4, 127, 20.3955078125
0, 5, 0, 18.79863739013672
0, 5, 1, 25.10929298400879
0, 5, 2, 27.61166763305664
0, 5, 3, 21.69131851196289
0, 5, 4, 25.48306465148926
0, 5, 5, 34.03551483154297
0, 5, 6, 32.26716995239258
0, 5, 7, 30.4544620513916
0, 5, 8, 30.27723121643066
0, 5, 9, 34.29809188842773
0, 5, 10, 36.05965423583984
0, 5, 11, 41.54571533203125
0, 5, 12, 37.65872192382812
0, 5, 13, 47.63008499145508
0, 5, 14, 65.57327270507812
0, 5, 15, 78.00546264648438
0, 5, 16, 81.32610321044922
0, 5, 17, 160.2933197021484
0, 5, 18, 671.4558715820312
0, 5, 19, 1347.941162109375
0, 5, 20, 1524.490844726562
0, 5, 21, 1494.892578125
0, 5, 22, 1493.5400390625
0, 5, 23, 1526.858764648438
0, 5, 24, 1464.073120117188
0, 5, 25, 1427.491088867188
0, 5, 26, 1526.341064453125
0, 5, 27, 1542.56689453125
0, 5, 28, 1488.00048828125
0, 5, 29, 1516.5849609375
0, 5, 30, 1497.1826171875
0, 5, 31, 1500.66796875
0, 5, 32, 1592.45556640625
0, 5, 33, 1507.237915039062
0, 5, 34, 1483.3759765625
0, 5, 35, 1511.270874023438
0, 5, 36, 1442.396850585938
0, 5, 37, 1528.638916015625
0, 5, 38, 1543.46923828125
0, 5, 39, 1556.27978515625
0, 5, 40, 1500.694458007812
0, 5, 41, 1481.135375976562
0, 5, 42, 1544.125244140625
0, 5, 43, 1527.353393554688
0, 5, 44, 1542.156127929688
0, 5, 45, 1513.567993164062
0, 5, 46, 1486.003173828125
0, 5, 47, 1481.509643554688
0, 5, 48, 1505.973999023438
0, 5, 49, 1527.776000976562
0, 5, 50, 1503.586059570312
0, 5, 51, 1520.104736328125
0, 5, 52, 1429.373779296875
0, 5, 53, 1523.8818359375
0, 5, 54, 1519.906494140625
0, 5, 55, 1521.916259765625
0, 5, 56, 1485.462768554688
0, 5, 57, 1541.408325195312
0, 5, 58, 1509.813598632812
0, 5, 59, 1485.78759765625
0, 5, 60, 1532.256469726562
0, 5, 61, 1451.534545898438
0, 5, 62, 1587.08935546875
0, 5, 63, 1435.97900390625
0, 5, 64, 1486.159057617188
0, 5, 65, 1460.978393554688
0, 5, 66, 1530.802490234375
0, 5, 67, 1566.95703125
0, 5, 68, 1464.916625976562
0, 5, 69, 1477.521240234375
0, 5, 70, 1489.043701171875
0, 5, 71, 1467.4541015625
0, 5, 72, 1540.95166015625
0, 5, 73, 1463.5537109375
0, 5, 74, 1496.339233398438
0, 5, 75, 1482.364624023438
0, 5, 76, 1477.862182617188
0, 5, 77, 1521.753784179688
0, 5, 78, 1530.01416015625
0, 5, 79, 1512.656372070312
0, 5, 80, 1515.846313476562
0, 5, 81, 1598.128662109375
0, 5, 82, 1527.192504882812
0, 5, 83, 1490.778564453125
0, 5, 84, 1532.4892578125
0, 5, 85, 1509.310913085938
0, 5, 86, 1558.232788085938
0, 5, 87, 1465.53125
0, 5, 88, 1500.849487304688
0, 5, 89, 1481.680786132812
0, 5, 90, 1481.667358398438
0, 5, 91, 1552.704467773438
0, 5, 92, 1484.053955078125
0, 5, 93, 1558.399169921875
0, 5, 94, 1516.669799804688
0, 5, 95, 1563.129272460938
0, 5, 96, 1500.720092773438
0, 5, 97, 1505.032836914062
0, 5, 98, 1512.618041992188
0, 5, 99, 1537.73828125
0, 5, 100, 1434.304565429688
0, 5, 101, 1430.682250976562
0, 5, 102, 1511.873779296875
0, 5, 103, 1473.799072265625
0, 5, 104, 1461.909423828125
0, 5, 105, 1492.926879882812
0, 5, 106, 1458.746337890625
0, 5, 107, 1405.483032226562
0, 5, 108, 1288.912963867188
0, 5, 109, 720.673828125
0, 5, 110, 193.503662109375
0, 5, 111, 86.32677459716797
0, 5, 112, 81.30948638916016
0, 5, 113, 66.98126983642578
0, 5, 114, 55.92623519897461
0, 5, 115, 48.01165771484375
0, 5, 116, 42.11868286132812
0, 5, 117, 31.51407241821289
0, 5, 118, 42.42514419555664
0, 5, 119, 26.47044563293457
0, 5, 120, 30.5994701385498
0, 5, 121, 25.01811408996582
0, 5, 122, 33.47090530395508
0, 5, 123, 29.47082138061523
0, 5, 124, 30.34278869628906
0, 5, 125, 24.85487937927246
0, 5, 126, 22.68788528442383
0, 5, 127, 26.0537166595459
0, 6, 0, 22.67342567443848
0, 6, 1, 27.72947311401367
0, 6, 2, 30.19128036499023
0, 6, 3, 23.4338493347168
0, 6, 4, 25.98199653625488
0, 6, 5, 35.43918228149414
0, 6, 6, 34.51444244384766
0, 6, 7, 32.22998428344727
0, 6, 8, 28.67866897583008
0, 6, 9, 33.78701400756836
0, 6, 10, 36.8309211730957
0, 6, 11, 41.9629020690918
0, 6, 12, 40.658203125
0, 6, 13, 60.38012313842773
0, 6, 14, 59.80116653442383
0, 6, 15, 80.25732421875
0, 6, 16, 112.4717102050781
0, 6, 17, 301.8104858398438
0, 6, 18, 894.4263916015625
0, 6, 19, 1377.658569335938
0, 6, 20, 1439.198852539062
0, 6, 21, 1536.351440429688
0, 6, 22, 1504.684692382812
0, 6, 23, 1530.714111328125
0, 6, 24, 1476.2802734375
0, 6, 25, 1527.353393554688
0, 6, 26, 1517.692993164062
0, 6, 27, 1519.214233398438
0, 6, 28, 1555.727172851562
0, 6, 29, 1580.849975585938
0, 6, 30, 1513.662231445312
0, 6, 31, 1493.125244140625
0, 6, 32, 1521.401000976562
0, 6, 33, 1491.980224609375
0, 6, 34, 1558.552124023438
0, 6, 35, 1503.353271484375
0, 6, 36, 1440.066772460938
0, 6, 37, 1546.1748046875
0, 6, 38, 1520.47509765625
0, 6, 39, 1526.463012695312
0, 6, 40, 1458.40771484375
0, 6, 41, 1440.675903320312
0, 6, 42, 1512.41357421875
0, 6, 43, 1483.37158203125
0, 6, 44, 1434.616943359375
0, 6, 45, 1548.375
0, 6, 46, 1554.744140625
0, 6, 47, 1497.100708007812
0, 6, 48, 1528.326171875
0, 6, 49, 1512.159912109375
0, 6, 50, 1575.599731445312
0, 6, 51, 1502.394775390625
0, 6, 52, 1563.18798828125
0, 6, 53, 1470.339111328125
0, 6, 54, 1497.551025390625
0, 6, 55, 1576.083374023438
0, 6, 56, 1522.168090820312
0, 6, 57, 1503.987548828125
0, 6, 58, 1465.90966796875
0, 6, 59, 1517.542236328125
0, 6, 60, 1465.996337890625
0, 6, 61, 1570.823852539062
0, 6, 62, 1545.338745117188
0, 6, 63, 1493.891845703125
0, 6, 64, 1406.142944335938
0, 6, 65, 1494.028198242188
0, 6, 66, 1510.122802734375
0, 6, 67, 1515.168334960938
0, 6, 68, 1544.43994140625
0, 6, 69, 1487.635009765625
0, 6, 70, 1520.763061523438
0, 6, 71, 1468.26611328125
0, 6, 72, 1601.474243164062
0, 6, 73, 1490.747924804688
0, 6, 74, 1555.2744140625
0, 6, 75, 1534.7802734375
0, 6, 76, 1567.831909179688
0, 6, 77, 1502.347290039062
0, 6, 78, 1446.179565429688
0, 6, 79, 1554.928466796875
0, 6, 80, 1484.726318359375
0, 6, 81, 1484.009399414062
0, 6, 82, 1502.59033203125
0, 6, 83, 1528.477661132812
0, 6, 84, 1518.602172851562
0, 6, 85, 1540.288818359375
0, 6, 86, 1539.235961914062
0, 6, 87, 1574.06640625
0, 6, 88, 1477.728881835938
0, 6, 89, 1566.80615234375
0, 6, 90, 1490.344848632812
0, 6, 91, 1543.573974609375
0, 6, 92, 1489.390258789062
0, 6, 93, 1496.155883789062
0, 6, 94, 1466.022338867188
0, 6, 95, 1506.886840820312
0, 6, 96, 1521.35107421875
0, 6, 97, 1506.375732421875
0, 6, 98, 1496.622314453125
0, 6, 99, 1479.14892578125
0, 6, 100, 1521.9091796875
0, 6, 101, 1522.31201171875
0, 6, 102, 1540.059814453125
0, 6, 103, 1497.533325195312
0, 6, 104, 1464.0439453125
0, 6, 105, 1481.153686523438
0, 6, 106, 1496.110595703125
0, 6, 107, 1501.12939453125
0, 6, 108, 1409.814819335938
0, 6, 109, 922.4786987304688
0, 6, 110, 282.9004516601562
0, 6, 111, 94.82541656494141
0, 6, 112, 80.83522796630859
0, 6, 113, 56.62586975097656
0, 6, 114, 56.12506866455078
0, 6, 115, 44.22929382324219
0, 6, 116, 43.79900741577148
0, 6, 117, 40.45304870605469
0, 6, 118, 39.42213439941406
0, 6, 119, 39.24995422363281
0, 6, 120, 28.32582855224609
0, 6, 121, 25.6539192199707
0, 6, 122, 29.7736644744873
0, 6, 123, 25.41094398498535
0, 6, 124, 32.37764739990234
0, 6, 125, 33.32197952270508
0, 6, 126, 21.09816360473633
0, 6, 127, 18.93968391418457
0, 7, 0, 23.0219841003418
0, 7, 1, 26.85237503051758
0, 7, 2, 20.17532157897949
0, 7, 3, 26.38654327392578
0, 7, 4, 24.12946891784668
0, 7, 5, 35.99420166015625
0, 7, 6, 32.66085433959961
0, 7, 7, 35.06056213378906
0, 7, 8, 26.25508499145508
0, 7, 9, 31.19482231140137
0, 7, 10, 44.46553421020508
0, 7, 11, 47.57035446166992
0, 7, 12, 47.80402755737305
0, 7, 13, 57.90833282470703
0, 7, 14, 63.64761734008789
0, 7, 15, 79.81920623779297
0, 7, 16, 134.3564910888672
0, 7, 17, 456.7442626953125
0, 7, 18, 1100.23779296875
0, 7, 19, 1501.940673828125
0, 7, 20, 1487.062377929688
0, 7, 21, 1361.589721679688
0, 7, 22, 1490.670288085938
0, 7, 23, 1456.93896484375
0, 7, 24, 1511.156127929688
0, 7, 25, 1595.284301757812
0, 7, 26, 1520.116333007812
0, 7, 27, 1512.319213867188
0, 7, 28, 1550.357666015625
0, 7, 29, 1578.541870117188
0, 7, 30, 1547.635986328125
0, 7, 31, 1436.586547851562
0, 7, 32, 1540.49853515625
0, 7, 33, 1492.814208984375
0, 7, 34, 1481.43310546875
0, 7, 35, 1518.862670898438
0, 7, 36, 1473.091064453125
0, 7, 37, 1600.002319335938
0, 7, 38, 1502.93994140625
0, 7, 39, 1501.46728515625
0, 7, 40, 1540.283203125
0, 7, 41, 1465.312744140625
0, 7, 42, 1494.483764648438
0, 7, 43, 1450.21142578125
0, 7, 44, 1488.852172851562
0, 7, 45, 1469.228393554688
0, 7, 46, 1513.634399414062
0, 7, 47, 1565.917602539062
0, 7, 48, 1524.501831054688
0, 7, 49, 1541.687866210938
0, 7, 50, 1514.332397460938
0, 7, 51, 1497.51513671875
0, 7, 52, 1518.828491210938
0, 7, 53, 1498.977905273438
0, 7, 54, 1588.154541015625
0, 7, 55, 1471.796997070312
0, 7, 56, 1550.071899414062
0, 7, 57, 1510.712646484375
0, 7, 58, 1547.267456054688
0, 7, 59, 1542.6943359375
0, 7, 60, 1552.850219726562
0, 7, 61, 1488.174560546875
0, 7, 62, 1435.995849609375
0, 7, 63, 1514.523315429688
0, 7, 64, 1552.921875
0, 7, 65, 1520.509521484375
0, 7, 66, 1539.389282226562
0, 7, 67, 1577.484985351562
0, 7, 68, 1531.66845703125
0, 7, 69, 1512.514282226562
0, 7, 70, 1495.754028320312
0, 7, 71, 1520.705932617188
0, 7, 72, 1523.796997070312
0, 7, 73, 1513.793334960938
0, 7, 74, 1574.252197265625
0, 7, 75, 1542.439208984375
0, 7, 76, 1560.141845703125
0, 7, 77, 1516.383544921875
0, 7, 78, 1506.43359375
0, 7, 79, 1420.87744140625
0, 7, 80, 1484.336791992188
0, 7, 81, 1495.4345703125
0, 7, 82, 1528.014404296875
0, 7, 83, 1544.371948242188
0, 7, 84, 1585.611083984375
0, 7, 85, 1477.809692382812
0, 7, 86, 1499.806762695312
0, 7, 87, 1511.186157226562
0, 7, 88, 1502.222778320312
0, 7, 89, 1558.198974609375
0, 7, 90, 1522.9873046875
0, 7, 91, 1559.678588867188
0, 7, 92, 1533.929931640625
0, 7, 93, 1555.929565429688
0, 7, 94, 1538.6923828125
0, 7, 95, 1508.695556640625
0, 7, 96, 1508.40869140625
0, 7, 97, 1436.4287109375
0, 7, 98, 1489.268310546875
0, 7, 99, 1533.19384765625
0, 7, 100, 1419.577270507812
0, 7, 101, 1471.560424804688
0, 7, 102, 1452.706176757812
0, 7, 103, 1431.081176757812
0, 7, 104, 1491.908569335938
0, 7, 105, 1521.129638671875
0, 7, 106, 1567.0498046875
0, 7, 107, 1475.348388671875
0, 7, 108, 1408.867431640625
0, 7, 109, 1139.34423828125
0, 7, 110, 468.0901489257812
0, 7, 111, 124.2592620849609
0, 7, 112, 79.72049713134766
0, 7, 113, 67.37213134765625
0, 7, 114, 58.80721664428711
0, 7, 115, 54.12903594970703
0, 7, 116, 48.15439987182617
0, 7, 117, 43.9101676940918
0, 7, 118, 35.61310958862305
0, 7, 119, 37.75348663330078
0, 7, 120, 23.5808048248291
0, 7, 121, 31.69532203674316
0, 7, 122, 36.57659149169922
0, 7, 123, 33.50190353393555
0, 7, 124, 33.88514709472656
0, 7, 125, 23.8889217376709
0, 7, 126, 29.1899585723877
0, 7, 127, 18.86146545410156
0, 8, 0, 25.64483833312988
0, 8, 1, 26.31013298034668
0, 8, 2, 28.98819732666016
0, 8, 3, 25.11418533325195
0, 8, 4, 30.99864387512207
0, 8, 5, 33.97931289672852
0, 8, 6, 30.17987060546875
0, 8, 7, 28.24803924560547
0, 8, 8, 33.5018310546875
0, 8, 9, 44.26372909545898
0, 8, 10, 37.45182037353516
0, 8, 11, 41.71413803100586
0, 8, 12, 52.30838012695312
0, 8, 13, 70.41565704345703
0, 8, 14, 69.66177368164062
0, 8, 15, 86.45279693603516
0, 8, 16, 170.3018493652344
0, 8, 17, 679.7931518554688
0, 8, 18, 1274.330322265625
0, 8, 19, 1438.903686523438
0, 8, 20, 1418.53369140625
0, 8, 21, 1407.25830078125
0, 8, 22, 1487.606323242188
0, 8, 23, 1479.585693359375
0, 8, 24, 1435.9482421875
0, 8, 25, 1458.884033203125
0, 8, 26, 1511.935913085938
0, 8, 27, 1524.807739257812
0, 8, 28, 1480.687744140625
0, 8, 29, 1507.560791015625
0, 8, 30, 1485.990600585938
0, 8, 31, 1537.474365234375
0, 8, 32, 1510.216552734375
0, 8, 33, 1484.501586914062
0, 8, 34, 1533.485473632812
0, 8, 35, 1441.541625976562
0, 8, 36, 1500.298706054688
0, 8, 37, 1550.308471679688
0, 8, 38, 1551.291015625
0, 8, 39, 1492.916137695312
0, 8, 40, 1528.050170898438
0, 8, 41, 1484.74951171875
0, 8, 42, 1544.170166015625
0, 8, 43, 1430.36865234375
0, 8, 44, 1535.915893554688
0, 8, 45, 1512.823852539062
0, 8, 46, 1597.5322265625
