# TOPAS Version: 3.1.p3
# Parameter File: batch_inserts_216.txt
# Results for scorer Readout_Adipose
# Scored in component: MyBox
# X in 1 bin  of 0.75 cm
# Y in 512 bins of 0.0783984 cm
# Z in 128 bins of 0.078125 cm
# EnergyDeposit ( MeV ) : Sum   
0, 0, 0, 17.39973831176758
0, 0, 1, 16.3856315612793
0, 0, 2, 26.85826110839844
0, 0, 3, 24.46492385864258
0, 0, 4, 20.96589851379395
0, 0, 5, 24.20203018188477
0, 0, 6, 19.08667182922363
0, 0, 7, 35.63948440551758
0, 0, 8, 22.81378555297852
0, 0, 9, 22.8045825958252
0, 0, 10, 23.71310806274414
0, 0, 11, 33.66030502319336
0, 0, 12, 36.18508148193359
0, 0, 13, 29.84120178222656
0, 0, 14, 37.7315673828125
0, 0, 15, 45.17019653320312
0, 0, 16, 46.48188781738281
0, 0, 17, 46.41056823730469
0, 0, 18, 74.11674499511719
0, 0, 19, 190.5704803466797
0, 0, 20, 701.7522583007812
0, 0, 21, 1190.702392578125
0, 0, 22, 1253.569458007812
0, 0, 23, 1279.273071289062
0, 0, 24, 1279.40380859375
0, 0, 25, 1359.017700195312
0, 0, 26, 1271.7099609375
0, 0, 27, 1281.287231445312
0, 0, 28, 1322.081298828125
0, 0, 29, 1271.726928710938
0, 0, 30, 1263.71875
0, 0, 31, 1276.3447265625
0, 0, 32, 1260.858032226562
0, 0, 33, 1243.174560546875
0, 0, 34, 1323.48291015625
0, 0, 35, 1304.219360351562
0, 0, 36, 1247.662109375
0, 0, 37, 1280.920776367188
0, 0, 38, 1248.228881835938
0, 0, 39, 1243.6005859375
0, 0, 40, 1221.257080078125
0, 0, 41, 1266.193359375
0, 0, 42, 1252.8935546875
0, 0, 43, 1263.37890625
0, 0, 44, 1228.550659179688
0, 0, 45, 1288.833251953125
0, 0, 46, 1262.663208007812
0, 0, 47, 1238.265625
0, 0, 48, 1275.265625
0, 0, 49, 1287.821655273438
0, 0, 50, 1310.807495117188
0, 0, 51, 1268.444091796875
0, 0, 52, 1355.520751953125
0, 0, 53, 1322.342895507812
0, 0, 54, 1298.0478515625
0, 0, 55, 1231.409790039062
0, 0, 56, 1315.395385742188
0, 0, 57, 1285.648681640625
0, 0, 58, 1251.549926757812
0, 0, 59, 1330.760986328125
0, 0, 60, 1326.6708984375
0, 0, 61, 1261.769653320312
0, 0, 62, 1242.092041015625
0, 0, 63, 1276.300903320312
0, 0, 64, 1328.62548828125
0, 0, 65, 1285.339477539062
0, 0, 66, 1319.0537109375
0, 0, 67, 1219.175170898438
0, 0, 68, 1312.567016601562
0, 0, 69, 1331.892211914062
0, 0, 70, 1346.309204101562
0, 0, 71, 1287.123901367188
0, 0, 72, 1313.9873046875
0, 0, 73, 1234.858642578125
0, 0, 74, 1292.030395507812
0, 0, 75, 1294.541381835938
0, 0, 76, 1254.208862304688
0, 0, 77, 1283.899658203125
0, 0, 78, 1315.201782226562
0, 0, 79, 1324.728881835938
0, 0, 80, 1261.367431640625
0, 0, 81, 1321.72998046875
0, 0, 82, 1286.368530273438
0, 0, 83, 1290.987182617188
0, 0, 84, 1326.8564453125
0, 0, 85, 1232.038452148438
0, 0, 86, 1266.764404296875
0, 0, 87, 1251.572021484375
0, 0, 88, 1251.949829101562
0, 0, 89, 1339.122924804688
0, 0, 90, 1274.702392578125
0, 0, 91, 1358.332397460938
0, 0, 92, 1300.242919921875
0, 0, 93, 1272.34521484375
0, 0, 94, 1245.427124023438
0, 0, 95, 1326.252807617188
0, 0, 96, 1287.5595703125
0, 0, 97, 1325.956787109375
0, 0, 98, 1258.2333984375
0, 0, 99, 1251.231323242188
0, 0, 100, 1286.919677734375
0, 0, 101, 1316.430786132812
0, 0, 102, 1233.087158203125
0, 0, 103, 1321.263549804688
0, 0, 104, 1265.931640625
0, 0, 105, 1266.083740234375
0, 0, 106, 1210.787353515625
0, 0, 107, 781.1942138671875
0, 0, 108, 195.1566162109375
0, 0, 109, 68.57020568847656
0, 0, 110, 65.41254425048828
0, 0, 111, 44.57121658325195
0, 0, 112, 36.9862060546875
0, 0, 113, 33.00490570068359
0, 0, 114, 31.93415451049805
0, 0, 115, 34.41688537597656
0, 0, 116, 27.30076789855957
0, 0, 117, 31.87556838989258
0, 0, 118, 28.28059196472168
0, 0, 119, 20.50982475280762
0, 0, 120, 24.15749931335449
0, 0, 121, 28.14116668701172
0, 0, 122, 21.42663383483887
0, 0, 123, 19.46605491638184
0, 0, 124, 21.27547645568848
0, 0, 125, 19.68327140808105
0, 0, 126, 24.1160774230957
0, 0, 127, 19.58450508117676
0, 1, 0, 24.98099708557129
0, 1, 1, 19.61457443237305
0, 1, 2, 24.57513618469238
0, 1, 3, 22.2098217010498
0, 1, 4, 25.48261260986328
0, 1, 5, 27.23492813110352
0, 1, 6, 21.82833671569824
0, 1, 7, 29.41213989257812
0, 1, 8, 33.20237350463867
0, 1, 9, 33.00843048095703
0, 1, 10, 33.28885269165039
0, 1, 11, 39.57883834838867
0, 1, 12, 40.19244003295898
0, 1, 13, 38.84154891967773
0, 1, 14, 45.3892822265625
0, 1, 15, 47.14488220214844
0, 1, 16, 59.71366500854492
0, 1, 17, 58.22589111328125
0, 1, 18, 99.93527221679688
0, 1, 19, 400.2731628417969
0, 1, 20, 1038.3291015625
0, 1, 21, 1371.971923828125
0, 1, 22, 1482.453735351562
0, 1, 23, 1463.417724609375
0, 1, 24, 1447.239868164062
0, 1, 25, 1422.050659179688
0, 1, 26, 1472.188842773438
0, 1, 27, 1463.444580078125
0, 1, 28, 1486.521484375
0, 1, 29, 1476.453735351562
0, 1, 30, 1505.228149414062
0, 1, 31, 1486.710815429688
0, 1, 32, 1410.28271484375
0, 1, 33, 1497.445556640625
0, 1, 34, 1499.39990234375
0, 1, 35, 1459.742065429688
0, 1, 36, 1489.5029296875
0, 1, 37, 1409.036743164062
0, 1, 38, 1394.67626953125
0, 1, 39, 1527.9208984375
0, 1, 40, 1464.80908203125
0, 1, 41, 1489.226318359375
0, 1, 42, 1494.517456054688
0, 1, 43, 1500.6826171875
0, 1, 44, 1449.240112304688
0, 1, 45, 1482.850708007812
0, 1, 46, 1423.166625976562
0, 1, 47, 1435.250366210938
0, 1, 48, 1430.050903320312
0, 1, 49, 1488.422119140625
0, 1, 50, 1439.834106445312
0, 1, 51, 1473.799682617188
0, 1, 52, 1473.183715820312
0, 1, 53, 1477.113647460938
0, 1, 54, 1505.702880859375
0, 1, 55, 1496.246459960938
0, 1, 56, 1470.220336914062
0, 1, 57, 1454.994873046875
0, 1, 58, 1430.699096679688
0, 1, 59, 1477.177368164062
0, 1, 60, 1465.496215820312
0, 1, 61, 1451.055541992188
0, 1, 62, 1455.487670898438
0, 1, 63, 1415.758544921875
0, 1, 64, 1471.891357421875
0, 1, 65, 1419.995849609375
0, 1, 66, 1438.485473632812
0, 1, 67, 1453.129028320312
0, 1, 68, 1390.995361328125
0, 1, 69, 1464.326538085938
0, 1, 70, 1430.864990234375
0, 1, 71, 1496.015380859375
0, 1, 72, 1431.11328125
0, 1, 73, 1488.039672851562
0, 1, 74, 1467.359741210938
0, 1, 75, 1480.870727539062
0, 1, 76, 1460.925415039062
0, 1, 77, 1462.128784179688
0, 1, 78, 1452.238403320312
0, 1, 79, 1499.025756835938
0, 1, 80, 1449.04443359375
0, 1, 81, 1424.582153320312
0, 1, 82, 1473.787719726562
0, 1, 83, 1464.172241210938
0, 1, 84, 1535.755004882812
0, 1, 85, 1447.197631835938
0, 1, 86, 1406.530029296875
0, 1, 87, 1420.768676757812
0, 1, 88, 1472.997680664062
0, 1, 89, 1466.830932617188
0, 1, 90, 1423.050170898438
0, 1, 91, 1468.038940429688
0, 1, 92, 1410.756469726562
0, 1, 93, 1462.005004882812
0, 1, 94, 1464.097290039062
0, 1, 95, 1421.553344726562
0, 1, 96, 1494.173095703125
0, 1, 97, 1513.43701171875
0, 1, 98, 1478.093994140625
0, 1, 99, 1421.883666992188
0, 1, 100, 1447.634643554688
0, 1, 101, 1418.908935546875
0, 1, 102, 1448.478393554688
0, 1, 103, 1411.621826171875
0, 1, 104, 1405.979858398438
0, 1, 105, 1463.8720703125
0, 1, 106, 1364.385498046875
0, 1, 107, 1021.508422851562
0, 1, 108, 400.4777526855469
0, 1, 109, 88.83315277099609
0, 1, 110, 61.8338623046875
0, 1, 111, 56.93867874145508
0, 1, 112, 45.19368743896484
0, 1, 113, 38.1649169921875
0, 1, 114, 38.95080184936523
0, 1, 115, 37.90612030029297
0, 1, 116, 33.40691757202148
0, 1, 117, 35.91265106201172
0, 1, 118, 36.92487335205078
0, 1, 119, 28.78167152404785
0, 1, 120, 28.46685218811035
0, 1, 121, 34.73373031616211
0, 1, 122, 18.57644844055176
0, 1, 123, 24.71769523620605
0, 1, 124, 31.53036308288574
0, 1, 125, 21.38145637512207
0, 1, 126, 20.0220775604248
0, 1, 127, 18.95767211914062
0, 2, 0, 25.75763893127441
0, 2, 1, 21.57708358764648
0, 2, 2, 25.43135070800781
0, 2, 3, 21.70776176452637
0, 2, 4, 24.79693412780762
0, 2, 5, 29.66269111633301
0, 2, 6, 27.58764266967773
0, 2, 7, 19.28070068359375
0, 2, 8, 27.72088050842285
0, 2, 9, 30.43001937866211
0, 2, 10, 34.12563705444336
0, 2, 11, 37.48532867431641
0, 2, 12, 40.80620574951172
0, 2, 13, 47.70494079589844
0, 2, 14, 48.53466415405273
0, 2, 15, 49.4080924987793
0, 2, 16, 64.83591461181641
0, 2, 17, 81.50608825683594
0, 2, 18, 140.4272613525391
0, 2, 19, 600.8140869140625
0, 2, 20, 1284.6123046875
0, 2, 21, 1433.450439453125
0, 2, 22, 1460.59423828125
0, 2, 23, 1404.214233398438
0, 2, 24, 1447.50341796875
0, 2, 25, 1521.846557617188
0, 2, 26, 1555.439819335938
0, 2, 27, 1453.322998046875
0, 2, 28, 1455.79833984375
0, 2, 29, 1460.6162109375
0, 2, 30, 1464.939086914062
0, 2, 31, 1537.826538085938
0, 2, 32, 1505.730102539062
0, 2, 33, 1440.753051757812
0, 2, 34, 1471.5283203125
0, 2, 35, 1471.957763671875
0, 2, 36, 1523.66455078125
0, 2, 37, 1543.232788085938
0, 2, 38, 1505.753540039062
0, 2, 39, 1467.331665039062
0, 2, 40, 1503.172607421875
0, 2, 41, 1521.01806640625
0, 2, 42, 1509.766235351562
0, 2, 43, 1546.654541015625
0, 2, 44, 1457.65478515625
0, 2, 45, 1482.502563476562
0, 2, 46, 1423.199340820312
0, 2, 47, 1446.844604492188
0, 2, 48, 1396.672485351562
0, 2, 49, 1463.277221679688
0, 2, 50, 1445.872680664062
0, 2, 51, 1443.383911132812
0, 2, 52, 1491.706176757812
0, 2, 53, 1521.341064453125
0, 2, 54, 1530.43115234375
0, 2, 55, 1495.1484375
0, 2, 56, 1464.15966796875
0, 2, 57, 1414.616455078125
0, 2, 58, 1450.740966796875
0, 2, 59, 1453.218383789062
0, 2, 60, 1474.033081054688
0, 2, 61, 1448.904907226562
0, 2, 62, 1469.469848632812
0, 2, 63, 1510.927612304688
0, 2, 64, 1461.662475585938
0, 2, 65, 1425.680053710938
0, 2, 66, 1487.675170898438
0, 2, 67, 1502.128662109375
0, 2, 68, 1538.939575195312
0, 2, 69, 1537.046264648438
0, 2, 70, 1502.933471679688
0, 2, 71, 1462.828491210938
0, 2, 72, 1512.479248046875
0, 2, 73, 1522.6884765625
0, 2, 74, 1489.918823242188
0, 2, 75, 1507.329223632812
0, 2, 76, 1444.6923828125
0, 2, 77, 1510.308837890625
0, 2, 78, 1432.506713867188
0, 2, 79, 1543.2734375
0, 2, 80, 1479.2529296875
0, 2, 81, 1464.195068359375
0, 2, 82, 1555.52978515625
0, 2, 83, 1515.460205078125
0, 2, 84, 1497.756469726562
0, 2, 85, 1514.911499023438
0, 2, 86, 1536.473876953125
0, 2, 87, 1490.033081054688
0, 2, 88, 1536.387817382812
0, 2, 89, 1466.801635742188
0, 2, 90, 1433.421508789062
0, 2, 91, 1403.812866210938
0, 2, 92, 1480.8095703125
0, 2, 93, 1497.057495117188
0, 2, 94, 1454.02587890625
0, 2, 95, 1545.591064453125
0, 2, 96, 1514.21044921875
0, 2, 97, 1456.158935546875
0, 2, 98, 1463.806396484375
0, 2, 99, 1401.72509765625
0, 2, 100, 1469.511108398438
0, 2, 101, 1482.700317382812
0, 2, 102, 1460.253540039062
0, 2, 103, 1387.357666015625
0, 2, 104, 1408.091674804688
0, 2, 105, 1393.176879882812
0, 2, 106, 1457.017700195312
0, 2, 107, 1277.223876953125
0, 2, 108, 619.6253051757812
0, 2, 109, 170.5115814208984
0, 2, 110, 67.31681823730469
0, 2, 111, 66.22154998779297
0, 2, 112, 48.64035415649414
0, 2, 113, 49.02142333984375
0, 2, 114, 36.19858932495117
0, 2, 115, 41.11397933959961
0, 2, 116, 35.90764236450195
0, 2, 117, 38.81370162963867
0, 2, 118, 31.94735908508301
0, 2, 119, 36.59169006347656
0, 2, 120, 31.09958076477051
0, 2, 121, 18.51273155212402
0, 2, 122, 28.38012313842773
0, 2, 123, 23.25763320922852
0, 2, 124, 25.47896003723145
0, 2, 125, 31.15704345703125
0, 2, 126, 22.09979438781738
0, 2, 127, 21.2513256072998
0, 3, 0, 16.29738616943359
0, 3, 1, 20.98244667053223
0, 3, 2, 27.34706687927246
0, 3, 3, 24.35198974609375
0, 3, 4, 20.77613830566406
0, 3, 5, 22.90695953369141
0, 3, 6, 27.7927360534668
0, 3, 7, 33.40816497802734
0, 3, 8, 31.46917152404785
0, 3, 9, 28.04834938049316
0, 3, 10, 36.11269760131836
0, 3, 11, 34.60722351074219
0, 3, 12, 42.64388656616211
0, 3, 13, 51.63183975219727
0, 3, 14, 59.52156829833984
0, 3, 15, 54.92628860473633
0, 3, 16, 69.80175018310547
0, 3, 17, 89.96869659423828
0, 3, 18, 239.9576263427734
0, 3, 19, 878.7238159179688
0, 3, 20, 1385.309326171875
0, 3, 21, 1506.870849609375
0, 3, 22, 1461.150024414062
0, 3, 23, 1453.058959960938
0, 3, 24, 1438.044311523438
0, 3, 25, 1462.500610351562
0, 3, 26, 1496.423828125
0, 3, 27, 1468.437133789062
0, 3, 28, 1491.237182617188
0, 3, 29, 1542.045532226562
0, 3, 30, 1572.16064453125
0, 3, 31, 1511.520385742188
0, 3, 32, 1544.249145507812
0, 3, 33, 1539.926635742188
0, 3, 34, 1495.97607421875
0, 3, 35, 1460.072875976562
0, 3, 36, 1452.775390625
0, 3, 37, 1516.296752929688
0, 3, 38, 1517.03515625
0, 3, 39, 1435.374877929688
0, 3, 40, 1442.704833984375
0, 3, 41, 1560.713989257812
0, 3, 42, 1456.723510742188
0, 3, 43, 1454.84912109375
0, 3, 44, 1452.77734375
0, 3, 45, 1504.90869140625
0, 3, 46, 1505.391723632812
0, 3, 47, 1442.012817382812
0, 3, 48, 1508.35009765625
0, 3, 49, 1450.0556640625
0, 3, 50, 1490.923217773438
0, 3, 51, 1536.958251953125
0, 3, 52, 1535.998168945312
0, 3, 53, 1467.42919921875
0, 3, 54, 1537.16845703125
0, 3, 55, 1505.106811523438
0, 3, 56, 1434.627563476562
0, 3, 57, 1503.084594726562
0, 3, 58, 1510.636474609375
0, 3, 59, 1510.4599609375
0, 3, 60, 1533.080322265625
0, 3, 61, 1482.281860351562
0, 3, 62, 1491.950561523438
0, 3, 63, 1492.17578125
0, 3, 64, 1503.076293945312
0, 3, 65, 1513.927001953125
0, 3, 66, 1557.341186523438
0, 3, 67, 1546.607788085938
0, 3, 68, 1450.09716796875
0, 3, 69, 1468.250366210938
0, 3, 70, 1388.094848632812
0, 3, 71, 1459.9765625
0, 3, 72, 1544.419311523438
0, 3, 73, 1501.38720703125
0, 3, 74, 1464.37109375
0, 3, 75, 1460.953979492188
0, 3, 76, 1574.336669921875
0, 3, 77, 1539.399536132812
0, 3, 78, 1429.534423828125
0, 3, 79, 1491.651000976562
0, 3, 80, 1467.024291992188
0, 3, 81, 1477.182983398438
0, 3, 82, 1556.641235351562
0, 3, 83, 1511.692626953125
0, 3, 84, 1558.628295898438
0, 3, 85, 1475.395141601562
0, 3, 86, 1525.67041015625
0, 3, 87, 1537.103149414062
0, 3, 88, 1462.847290039062
0, 3, 89, 1446.645629882812
0, 3, 90, 1452.12109375
0, 3, 91, 1418.61669921875
0, 3, 92, 1513.68212890625
0, 3, 93, 1501.481079101562
0, 3, 94, 1513.461181640625
0, 3, 95, 1543.304809570312
0, 3, 96, 1511.090087890625
0, 3, 97, 1463.080200195312
0, 3, 98, 1433.815795898438
0, 3, 99, 1465.490112304688
0, 3, 100, 1462.473266601562
0, 3, 101, 1477.7197265625
0, 3, 102, 1523.184204101562
0, 3, 103, 1558.697998046875
0, 3, 104, 1501.838623046875
0, 3, 105, 1513.68798828125
0, 3, 106, 1477.9345703125
0, 3, 107, 1345.20068359375
0, 3, 108, 869.4830932617188
0, 3, 109, 261.1163940429688
0, 3, 110, 103.7059936523438
0, 3, 111, 61.59794235229492
0, 3, 112, 59.79526138305664
0, 3, 113, 51.53522872924805
0, 3, 114, 47.4471549987793
0, 3, 115, 54.83333587646484
0, 3, 116, 39.80472183227539
0, 3, 117, 37.33671951293945
0, 3, 118, 35.75468826293945
0, 3, 119, 30.52671432495117
0, 3, 120, 28.19004058837891
0, 3, 121, 19.90462875366211
0, 3, 122, 24.00809669494629
0, 3, 123, 27.19368553161621
0, 3, 124, 25.78032875061035
0, 3, 125, 29.91827392578125
0, 3, 126, 23.10429573059082
0, 3, 127, 17.38234329223633
0, 4, 0, 19.69081878662109
0, 4, 1, 26.62538909912109
0, 4, 2, 22.19953727722168
0, 4, 3, 25.04755973815918
0, 4, 4, 22.78445053100586
0, 4, 5, 29.02249908447266
0, 4, 6, 27.65543556213379
0, 4, 7, 30.14537811279297
0, 4, 8, 29.29889106750488
0, 4, 9, 34.75824737548828
0, 4, 10, 29.38131713867188
0, 4, 11, 36.98074340820312
0, 4, 12, 45.26546096801758
0, 4, 13, 55.68631744384766
0, 4, 14, 52.23513412475586
0, 4, 15, 61.34526062011719
0, 4, 16, 72.39202117919922
0, 4, 17, 115.3105392456055
0, 4, 18, 449.828857421875
0, 4, 19, 1181.396484375
0, 4, 20, 1444.181640625
0, 4, 21, 1422.870849609375
0, 4, 22, 1434.931030273438
0, 4, 23, 1451.043334960938
0, 4, 24, 1476.694213867188
0, 4, 25, 1404.876831054688
0, 4, 26, 1533.573364257812
0, 4, 27, 1542.917846679688
0, 4, 28, 1509.764892578125
0, 4, 29, 1516.151611328125
0, 4, 30, 1527.414428710938
0, 4, 31, 1574.728149414062
0, 4, 32, 1518.704956054688
0, 4, 33, 1497.031372070312
0, 4, 34, 1470.256591796875
0, 4, 35, 1558.516967773438
0, 4, 36, 1502.14990234375
0, 4, 37, 1510.628540039062
0, 4, 38, 1530.4541015625
0, 4, 39, 1473.061767578125
0, 4, 40, 1515.698486328125
0, 4, 41, 1585.226684570312
0, 4, 42, 1564.998779296875
0, 4, 43, 1470.143676757812
0, 4, 44, 1499.344848632812
0, 4, 45, 1518.718627929688
0, 4, 46, 1465.652954101562
0, 4, 47, 1502.0068359375
0, 4, 48, 1527.907104492188
0, 4, 49, 1477.567504882812
0, 4, 50, 1515.7626953125
0, 4, 51, 1495.907836914062
0, 4, 52, 1490.516235351562
0, 4, 53, 1454.343994140625
0, 4, 54, 1442.90380859375
0, 4, 55, 1526.938720703125
0, 4, 56, 1452.252075195312
0, 4, 57, 1496.403930664062
0, 4, 58, 1467.423583984375
0, 4, 59, 1462.77783203125
0, 4, 60, 1523.86669921875
0, 4, 61, 1498.94287109375
0, 4, 62, 1501.344360351562
0, 4, 63, 1550.348022460938
0, 4, 64, 1595.633056640625
0, 4, 65, 1421.815673828125
0, 4, 66, 1519.2216796875
0, 4, 67, 1518.745849609375
0, 4, 68, 1497.09033203125
0, 4, 69, 1465.590454101562
0, 4, 70, 1543.4560546875
0, 4, 71, 1517.840576171875
0, 4, 72, 1531.173095703125
0, 4, 73, 1497.631591796875
0, 4, 74, 1485.629760742188
0, 4, 75, 1537.178466796875
0, 4, 76, 1477.394165039062
0, 4, 77, 1499.193237304688
0, 4, 78, 1499.950561523438
0, 4, 79, 1483.968627929688
0, 4, 80, 1512.559814453125
0, 4, 81, 1526.126586914062
0, 4, 82, 1568.797485351562
0, 4, 83, 1499.89990234375
0, 4, 84, 1538.417846679688
0, 4, 85, 1559.487915039062
0, 4, 86, 1524.601318359375
0, 4, 87, 1500.151245117188
0, 4, 88, 1513.36083984375
0, 4, 89, 1481.703979492188
0, 4, 90, 1543.265502929688
0, 4, 91, 1552.2978515625
0, 4, 92, 1491.15771484375
0, 4, 93, 1514.955688476562
0, 4, 94, 1484.344482421875
0, 4, 95, 1512.18212890625
0, 4, 96, 1441.295166015625
0, 4, 97, 1408.4658203125
0, 4, 98, 1555.824584960938
0, 4, 99, 1511.363159179688
0, 4, 100, 1491.3359375
0, 4, 101, 1447.036499023438
0, 4, 102, 1447.126586914062
0, 4, 103, 1514.368041992188
0, 4, 104, 1511.038330078125
0, 4, 105, 1556.521728515625
0, 4, 106, 1481.57763671875
0, 4, 107, 1457.02587890625
0, 4, 108, 1123.29296875
0, 4, 109, 435.717041015625
0, 4, 110, 99.47496032714844
0, 4, 111, 68.87646484375
0, 4, 112, 58.71686172485352
0, 4, 113, 52.38984680175781
0, 4, 114, 54.44901657104492
0, 4, 115, 43.82126998901367
0, 4, 116, 32.00657272338867
0, 4, 117, 43.79256057739258
0, 4, 118, 40.81249618530273
0, 4, 119, 38.68886184692383
0, 4, 120, 33.61163330078125
0, 4, 121, 27.83724594116211
0, 4, 122, 31.39167022705078
0, 4, 123, 31.58904457092285
0, 4, 124, 22.49613571166992
0, 4, 125, 33.14477920532227
0, 4, 126, 24.72481155395508
0, 4, 127, 21.51944160461426
0, 5, 0, 22.74663162231445
0, 5, 1, 26.86305236816406
0, 5, 2, 31.24238014221191
0, 5, 3, 23.14381408691406
0, 5, 4, 21.40108871459961
0, 5, 5, 36.40155792236328
0, 5, 6, 35.06124877929688
0, 5, 7, 29.676513671875
0, 5, 8, 31.04310989379883
0, 5, 9, 31.07594871520996
0, 5, 10, 35.69965744018555
0, 5, 11, 38.04160308837891
0, 5, 12, 38.42009353637695
0, 5, 13, 49.34287261962891
0, 5, 14, 59.95679473876953
0, 5, 15, 79.28688812255859
0, 5, 16, 80.60132598876953
0, 5, 17, 159.0110931396484
0, 5, 18, 676.5556030273438
0, 5, 19, 1352.213745117188
0, 5, 20, 1528.26220703125
0, 5, 21, 1495.369995117188
0, 5, 22, 1492.77880859375
0, 5, 23, 1524.302001953125
0, 5, 24, 1465.438354492188
0, 5, 25, 1423.715576171875
0, 5, 26, 1527.141723632812
0, 5, 27, 1538.14306640625
0, 5, 28, 1486.622436523438
0, 5, 29, 1522.701293945312
0, 5, 30, 1492.561645507812
0, 5, 31, 1498.58203125
0, 5, 32, 1594.17041015625
0, 5, 33, 1505.407470703125
0, 5, 34, 1485.40771484375
0, 5, 35, 1512.12109375
0, 5, 36, 1442.11474609375
0, 5, 37, 1532.095458984375
0, 5, 38, 1547.897338867188
0, 5, 39, 1547.913208007812
0, 5, 40, 1501.406127929688
0, 5, 41, 1475.88916015625
0, 5, 42, 1542.472290039062
0, 5, 43, 1528.696899414062
0, 5, 44, 1542.901733398438
0, 5, 45, 1505.44921875
0, 5, 46, 1489.0498046875
0, 5, 47, 1481.247314453125
0, 5, 48, 1503.05078125
0, 5, 49, 1521.477172851562
0, 5, 50, 1503.401245117188
0, 5, 51, 1512.007568359375
0, 5, 52, 1431.659790039062
0, 5, 53, 1520.236694335938
0, 5, 54, 1516.503173828125
0, 5, 55, 1525.668823242188
0, 5, 56, 1489.717407226562
0, 5, 57, 1540.870239257812
0, 5, 58, 1506.5224609375
0, 5, 59, 1488.633178710938
0, 5, 60, 1533.153442382812
0, 5, 61, 1451.768798828125
0, 5, 62, 1591.936401367188
0, 5, 63, 1439.25439453125
0, 5, 64, 1491.262817382812
0, 5, 65, 1466.40576171875
0, 5, 66, 1534.078002929688
0, 5, 67, 1562.322631835938
0, 5, 68, 1462.304077148438
0, 5, 69, 1483.422973632812
0, 5, 70, 1491.062377929688
0, 5, 71, 1475.341186523438
0, 5, 72, 1539.03076171875
0, 5, 73, 1459.380615234375
0, 5, 74, 1493.811401367188
0, 5, 75, 1491.359985351562
0, 5, 76, 1479.0830078125
0, 5, 77, 1516.101806640625
0, 5, 78, 1528.15380859375
0, 5, 79, 1512.047485351562
0, 5, 80, 1521.79443359375
0, 5, 81, 1597.727294921875
0, 5, 82, 1525.073852539062
0, 5, 83, 1485.038452148438
0, 5, 84, 1532.775756835938
0, 5, 85, 1517.39990234375
0, 5, 86, 1562.835327148438
0, 5, 87, 1473.516479492188
0, 5, 88, 1494.941162109375
0, 5, 89, 1482.677978515625
0, 5, 90, 1481.696533203125
0, 5, 91, 1550.597045898438
0, 5, 92, 1479.227172851562
0, 5, 93, 1562.93212890625
0, 5, 94, 1510.296875
0, 5, 95, 1560.170166015625
0, 5, 96, 1498.855346679688
0, 5, 97, 1506.507080078125
0, 5, 98, 1509.44873046875
0, 5, 99, 1536.262573242188
0, 5, 100, 1431.11767578125
0, 5, 101, 1431.157958984375
0, 5, 102, 1515.974731445312
0, 5, 103, 1472.883666992188
0, 5, 104, 1457.6533203125
0, 5, 105, 1490.416381835938
0, 5, 106, 1455.153076171875
0, 5, 107, 1398.448852539062
0, 5, 108, 1288.833129882812
0, 5, 109, 718.7808227539062
0, 5, 110, 193.0501708984375
0, 5, 111, 87.87606811523438
0, 5, 112, 79.45351409912109
0, 5, 113, 67.10000610351562
0, 5, 114, 60.84634017944336
0, 5, 115, 51.19552612304688
0, 5, 116, 41.58193588256836
0, 5, 117, 37.61716079711914
0, 5, 118, 37.70124816894531
0, 5, 119, 28.96679306030273
0, 5, 120, 34.25809860229492
0, 5, 121, 27.82246208190918
0, 5, 122, 27.35382843017578
0, 5, 123, 29.41497230529785
0, 5, 124, 22.70102500915527
0, 5, 125, 24.52652931213379
0, 5, 126, 19.30840301513672
0, 5, 127, 24.60984992980957
0, 6, 0, 18.96547508239746
0, 6, 1, 28.06407165527344
0, 6, 2, 33.80911254882812
0, 6, 3, 27.18108367919922
0, 6, 4, 25.54543495178223
0, 6, 5, 35.0569953918457
0, 6, 6, 35.41511154174805
0, 6, 7, 30.95748138427734
0, 6, 8, 42.3677864074707
0, 6, 9, 36.04453659057617
0, 6, 10, 37.24063491821289
0, 6, 11, 38.4863166809082
0, 6, 12, 39.80930709838867
0, 6, 13, 55.81364822387695
0, 6, 14, 67.86277770996094
0, 6, 15, 78.63802337646484
0, 6, 16, 109.0486373901367
0, 6, 17, 299.0364074707031
0, 6, 18, 905.0667114257812
0, 6, 19, 1372.00830078125
0, 6, 20, 1439.543823242188
0, 6, 21, 1531.364135742188
0, 6, 22, 1500.579467773438
0, 6, 23, 1532.609619140625
0, 6, 24, 1479.56982421875
0, 6, 25, 1533.116577148438
0, 6, 26, 1521.550048828125
0, 6, 27, 1520.666870117188
0, 6, 28, 1554.494384765625
0, 6, 29, 1575.820556640625
0, 6, 30, 1520.767700195312
0, 6, 31, 1489.916870117188
0, 6, 32, 1521.702880859375
0, 6, 33, 1491.230712890625
0, 6, 34, 1559.719116210938
0, 6, 35, 1500.640380859375
0, 6, 36, 1439.3291015625
0, 6, 37, 1543.89453125
0, 6, 38, 1523.437377929688
0, 6, 39, 1521.920654296875
0, 6, 40, 1458.852661132812
0, 6, 41, 1443.672607421875
0, 6, 42, 1516.065795898438
0, 6, 43, 1487.333618164062
0, 6, 44, 1431.40283203125
0, 6, 45, 1547.470092773438
0, 6, 46, 1555.91015625
0, 6, 47, 1491.5966796875
0, 6, 48, 1524.697998046875
0, 6, 49, 1508.559936523438
0, 6, 50, 1572.516235351562
0, 6, 51, 1501.3916015625
0, 6, 52, 1561.89453125
0, 6, 53, 1469.584106445312
0, 6, 54, 1496.94677734375
0, 6, 55, 1572.810180664062
0, 6, 56, 1516.078125
0, 6, 57, 1505.284790039062
0, 6, 58, 1471.416870117188
0, 6, 59, 1523.439086914062
0, 6, 60, 1470.494384765625
0, 6, 61, 1569.619873046875
0, 6, 62, 1545.37744140625
0, 6, 63, 1500.236328125
0, 6, 64, 1413.470947265625
0, 6, 65, 1493.397094726562
0, 6, 66, 1511.060424804688
0, 6, 67, 1511.4375
0, 6, 68, 1545.680419921875
0, 6, 69, 1491.613159179688
0, 6, 70, 1523.19384765625
0, 6, 71, 1470.819702148438
0, 6, 72, 1594.945678710938
0, 6, 73, 1489.79541015625
0, 6, 74, 1557.700073242188
0, 6, 75, 1538.105712890625
0, 6, 76, 1564.718872070312
0, 6, 77, 1509.925415039062
0, 6, 78, 1447.526733398438
0, 6, 79, 1556.889892578125
0, 6, 80, 1483.2373046875
0, 6, 81, 1482.741333007812
0, 6, 82, 1505.5703125
0, 6, 83, 1525.384033203125
0, 6, 84, 1520.990112304688
0, 6, 85, 1544.943115234375
0, 6, 86, 1540.990356445312
0, 6, 87, 1570.78076171875
0, 6, 88, 1485.1552734375
0, 6, 89, 1570.63525390625
0, 6, 90, 1493.543701171875
0, 6, 91, 1544.223388671875
0, 6, 92, 1487.1943359375
0, 6, 93, 1498.5830078125
0, 6, 94, 1474.6298828125
0, 6, 95, 1508.814208984375
0, 6, 96, 1525.090209960938
0, 6, 97, 1506.0498046875
0, 6, 98, 1492.713500976562
0, 6, 99, 1482.459350585938
0, 6, 100, 1519.884643554688
0, 6, 101, 1515.595703125
0, 6, 102, 1539.309814453125
0, 6, 103, 1496.221313476562
0, 6, 104, 1466.506103515625
0, 6, 105, 1486.811401367188
0, 6, 106, 1501.90673828125
0, 6, 107, 1500.901245117188
0, 6, 108, 1412.404296875
0, 6, 109, 925.3638916015625
0, 6, 110, 283.5133972167969
0, 6, 111, 95.24468994140625
0, 6, 112, 77.13622283935547
0, 6, 113, 56.87602996826172
0, 6, 114, 53.58534622192383
0, 6, 115, 45.00929260253906
0, 6, 116, 45.65999984741211
0, 6, 117, 41.30696868896484
0, 6, 118, 44.57573699951172
0, 6, 119, 34.75885391235352
0, 6, 120, 30.29128456115723
0, 6, 121, 28.19065856933594
0, 6, 122, 29.32280540466309
0, 6, 123, 23.40744972229004
0, 6, 124, 25.65509986877441
0, 6, 125, 31.12753868103027
0, 6, 126, 18.50279235839844
0, 6, 127, 25.98233985900879
0, 7, 0, 22.17861747741699
0, 7, 1, 27.80117988586426
0, 7, 2, 17.43792152404785
0, 7, 3, 23.89892387390137
0, 7, 4, 20.92206573486328
0, 7, 5, 34.0494499206543
0, 7, 6, 33.05841827392578
0, 7, 7, 38.21095275878906
0, 7, 8, 31.22296142578125
0, 7, 9, 35.56068801879883
0, 7, 10, 42.25293350219727
0, 7, 11, 45.12393188476562
0, 7, 12, 49.88957595825195
0, 7, 13, 50.26276016235352
0, 7, 14, 62.08515930175781
0, 7, 15, 74.958984375
0, 7, 16, 130.4261016845703
0, 7, 17, 462.8718872070312
0, 7, 18, 1098.538940429688
0, 7, 19, 1500.283569335938
0, 7, 20, 1489.77197265625
0, 7, 21, 1365.35498046875
0, 7, 22, 1485.22021484375
0, 7, 23, 1454.618041992188
0, 7, 24, 1509.525390625
0, 7, 25, 1593.857299804688
0, 7, 26, 1522.780639648438
0, 7, 27, 1513.310546875
0, 7, 28, 1545.627563476562
0, 7, 29, 1572.885009765625
0, 7, 30, 1552.588012695312
0, 7, 31, 1436.420532226562
0, 7, 32, 1545.820556640625
0, 7, 33, 1491.469604492188
0, 7, 34, 1475.630249023438
0, 7, 35, 1522.828247070312
0, 7, 36, 1467.852416992188
0, 7, 37, 1599.730102539062
0, 7, 38, 1504.715454101562
0, 7, 39, 1489.491088867188
0, 7, 40, 1541.661743164062
0, 7, 41, 1466.588500976562
0, 7, 42, 1490.677978515625
0, 7, 43, 1448.119873046875
0, 7, 44, 1489.14404296875
0, 7, 45, 1467.65966796875
0, 7, 46, 1510.557495117188
0, 7, 47, 1567.268798828125
0, 7, 48, 1524.330688476562
0, 7, 49, 1539.349487304688
0, 7, 50, 1518.523315429688
0, 7, 51, 1497.4736328125
0, 7, 52, 1518.382080078125
0, 7, 53, 1496.604736328125
0, 7, 54, 1592.605712890625
0, 7, 55, 1470.919189453125
0, 7, 56, 1549.715698242188
0, 7, 57, 1511.111328125
0, 7, 58, 1551.8134765625
0, 7, 59, 1543.241821289062
0, 7, 60, 1556.037719726562
0, 7, 61, 1489.164916992188
0, 7, 62, 1436.491333007812
0, 7, 63, 1513.425903320312
0, 7, 64, 1547.122314453125
0, 7, 65, 1526.209106445312
0, 7, 66, 1536.961181640625
0, 7, 67, 1576.815673828125
0, 7, 68, 1531.010864257812
0, 7, 69, 1517.79345703125
0, 7, 70, 1493.864868164062
0, 7, 71, 1520.78173828125
0, 7, 72, 1521.272216796875
0, 7, 73, 1517.35888671875
0, 7, 74, 1574.778198242188
0, 7, 75, 1536.901733398438
0, 7, 76, 1560.821533203125
0, 7, 77, 1509.27587890625
0, 7, 78, 1506.196166992188
0, 7, 79, 1428.85986328125
0, 7, 80, 1489.296020507812
0, 7, 81, 1495.990356445312
0, 7, 82, 1535.351196289062
0, 7, 83, 1542.997436523438
0, 7, 84, 1586.069580078125
0, 7, 85, 1478.177368164062
0, 7, 86, 1504.6328125
0, 7, 87, 1507.059692382812
0, 7, 88, 1501.171997070312
0, 7, 89, 1558.459838867188
0, 7, 90, 1524.8134765625
0, 7, 91, 1562.491943359375
0, 7, 92, 1525.031982421875
0, 7, 93, 1552.910522460938
0, 7, 94, 1532.35205078125
0, 7, 95, 1509.15087890625
0, 7, 96, 1508.334350585938
0, 7, 97, 1431.601196289062
0, 7, 98, 1484.142456054688
0, 7, 99, 1523.985961914062
0, 7, 100, 1417.206787109375
0, 7, 101, 1463.590209960938
0, 7, 102, 1448.03955078125
0, 7, 103, 1429.441772460938
0, 7, 104, 1495.626586914062
0, 7, 105, 1525.308715820312
0, 7, 106, 1567.86865234375
0, 7, 107, 1483.610107421875
0, 7, 108, 1414.71826171875
0, 7, 109, 1146.495727539062
0, 7, 110, 471.8953247070312
0, 7, 111, 127.6243286132812
0, 7, 112, 80.60216522216797
0, 7, 113, 67.42639923095703
0, 7, 114, 55.74201965332031
0, 7, 115, 57.18671417236328
0, 7, 116, 46.62897872924805
0, 7, 117, 43.41096496582031
0, 7, 118, 31.96022605895996
0, 7, 119, 37.34064483642578
0, 7, 120, 23.31522941589355
0, 7, 121, 29.73033142089844
0, 7, 122, 32.44382476806641
0, 7, 123, 36.71132659912109
0, 7, 124, 28.53322219848633
0, 7, 125, 28.20453643798828
0, 7, 126, 30.86781311035156
0, 7, 127, 24.43633460998535
0, 8, 0, 20.55642127990723
0, 8, 1, 19.84137344360352
0, 8, 2, 26.35534477233887
0, 8, 3, 27.87416458129883
0, 8, 4, 25.17329597473145
0, 8, 5, 35.59038162231445
0, 8, 6, 32.26628494262695
0, 8, 7, 29.62135887145996
0, 8, 8, 34.74121475219727
0, 8, 9, 42.87357330322266
0, 8, 10, 42.61888885498047
0, 8, 11, 41.91108703613281
0, 8, 12, 54.33287811279297
0, 8, 13, 73.14836120605469
0, 8, 14, 70.62644195556641
0, 8, 15, 86.11461639404297
0, 8, 16, 172.8890991210938
0, 8, 17, 678.8604125976562
0, 8, 18, 1277.369995117188
0, 8, 19, 1447.937377929688
0, 8, 20, 1417.902465820312
0, 8, 21, 1409.96240234375
0, 8, 22, 1487.617065429688
0, 8, 23, 1478.371704101562
0, 8, 24, 1436.7412109375
0, 8, 25, 1455.546997070312
0, 8, 26, 1511.499633789062
0, 8, 27, 1525.488647460938
0, 8, 28, 1478.779296875
0, 8, 29, 1505.051025390625
0, 8, 30, 1485.666625976562
0, 8, 31, 1537.665283203125
0, 8, 32, 1508.249389648438
0, 8, 33, 1478.213256835938
0, 8, 34, 1537.42333984375
0, 8, 35, 1445.407958984375
0, 8, 36, 1496.226196289062
0, 8, 37, 1554.757568359375
0, 8, 38, 1551.817749023438
0, 8, 39, 1494.297973632812
0, 8, 40, 1531.221313476562
0, 8, 41, 1485.232421875
0, 8, 42, 1538.707275390625
0, 8, 43, 1431.266723632812
0, 8, 44, 1541.112060546875
0, 8, 45, 1511.500122070312
0, 8, 46, 1601.195434570312
0, 8, 47, 1585.492309570312
