# TOPAS Version: 3.1.p3
# Parameter File: batch_inserts_344.txt
# Results for scorer Readout_Adipose
# Scored in component: MyBox
# X in 1 bin  of 0.75 cm
# Y in 512 bins of 0.0783984 cm
# Z in 128 bins of 0.078125 cm
# EnergyDeposit ( MeV ) : Sum   
0, 0, 0, 3.326250553131104
0, 0, 1, 2.707731485366821
0, 0, 2, 4.540878295898438
0, 0, 3, 1.796912550926208
0, 0, 4, 2.612409353256226
0, 0, 5, 3.563811063766479
0, 0, 6, 4.753931045532227
0, 0, 7, 9.06092357635498
0, 0, 8, 2.925046682357788
0, 0, 9, 3.57734203338623
0, 0, 10, 6.858061790466309
0, 0, 11, 3.984138488769531
0, 0, 12, 4.807989597320557
0, 0, 13, 4.81552791595459
0, 0, 14, 8.825427055358887
0, 0, 15, 8.684867858886719
0, 0, 16, 7.756569385528564
0, 0, 17, 9.126400947570801
0, 0, 18, 13.81530284881592
0, 0, 19, 43.71693801879883
0, 0, 20, 139.887939453125
0, 0, 21, 222.6672058105469
0, 0, 22, 250.3560333251953
0, 0, 23, 257.4541625976562
0, 0, 24, 250.8336486816406
0, 0, 25, 258.2572937011719
0, 0, 26, 233.7304534912109
0, 0, 27, 236.0453033447266
0, 0, 28, 273.32763671875
0, 0, 29, 253.8558349609375
0, 0, 30, 229.1514434814453
0, 0, 31, 243.6768646240234
0, 0, 32, 263.3734130859375
0, 0, 33, 261.1741027832031
0, 0, 34, 289.2100830078125
0, 0, 35, 266.471923828125
0, 0, 36, 248.4086456298828
0, 0, 37, 252.4288787841797
0, 0, 38, 268.59326171875
0, 0, 39, 231.73046875
0, 0, 40, 243.6488952636719
0, 0, 41, 266.3445434570312
0, 0, 42, 228.9176177978516
0, 0, 43, 261.5567626953125
0, 0, 44, 251.4789581298828
0, 0, 45, 253.4244689941406
0, 0, 46, 243.4288787841797
0, 0, 47, 252.5874633789062
0, 0, 48, 267.4579772949219
0, 0, 49, 274.8167724609375
0, 0, 50, 251.2012939453125
0, 0, 51, 254.7975158691406
0, 0, 52, 272.6594543457031
0, 0, 53, 291.026123046875
0, 0, 54, 243.0388488769531
0, 0, 55, 239.8799133300781
0, 0, 56, 278.2160034179688
0, 0, 57, 265.6406555175781
0, 0, 58, 247.8223266601562
0, 0, 59, 271.8013000488281
0, 0, 60, 235.1729736328125
0, 0, 61, 245.5912322998047
0, 0, 62, 255.9593048095703
0, 0, 63, 267.1077880859375
0, 0, 64, 256.9939575195312
0, 0, 65, 261.7924194335938
0, 0, 66, 276.4414367675781
0, 0, 67, 246.2366638183594
0, 0, 68, 258.0715026855469
0, 0, 69, 262.9806823730469
0, 0, 70, 273.5827026367188
0, 0, 71, 237.5672302246094
0, 0, 72, 251.6033477783203
0, 0, 73, 259.1402893066406
0, 0, 74, 253.3509979248047
0, 0, 75, 239.7003021240234
0, 0, 76, 228.0159301757812
0, 0, 77, 260.7585144042969
0, 0, 78, 257.3440856933594
0, 0, 79, 278.3771667480469
0, 0, 80, 218.2693176269531
0, 0, 81, 267.4901428222656
0, 0, 82, 257.1645812988281
0, 0, 83, 245.0706634521484
0, 0, 84, 271.1233215332031
0, 0, 85, 232.1576232910156
0, 0, 86, 253.4962921142578
0, 0, 87, 249.9945068359375
0, 0, 88, 260.72216796875
0, 0, 89, 282.942138671875
0, 0, 90, 242.9795989990234
0, 0, 91, 279.991943359375
0, 0, 92, 255.3724975585938
0, 0, 93, 249.2521362304688
0, 0, 94, 248.8580932617188
0, 0, 95, 248.6140747070312
0, 0, 96, 273.7195129394531
0, 0, 97, 272.0773010253906
0, 0, 98, 274.9859924316406
0, 0, 99, 257.8879699707031
0, 0, 100, 259.8207397460938
0, 0, 101, 226.1815032958984
0, 0, 102, 231.9488067626953
0, 0, 103, 270.6422119140625
0, 0, 104, 252.9265747070312
0, 0, 105, 250.7904052734375
0, 0, 106, 247.3031158447266
0, 0, 107, 152.6447448730469
0, 0, 108, 40.06695175170898
0, 0, 109, 12.14656257629395
0, 0, 110, 12.52094078063965
0, 0, 111, 8.906095504760742
0, 0, 112, 7.269537448883057
0, 0, 113, 4.751215934753418
0, 0, 114, 7.500912666320801
0, 0, 115, 5.399605751037598
0, 0, 116, 6.493078231811523
0, 0, 117, 7.193535327911377
0, 0, 118, 6.965073108673096
0, 0, 119, 4.926353454589844
0, 0, 120, 6.235134124755859
0, 0, 121, 2.312010765075684
0, 0, 122, 5.742165565490723
0, 0, 123, 4.364518165588379
0, 0, 124, 3.826927661895752
0, 0, 125, 1.626504302024841
0, 0, 126, 4.976291179656982
0, 0, 127, 3.753458499908447
0, 1, 0, 7.060171127319336
0, 1, 1, 2.813302755355835
0, 1, 2, 3.69223952293396
0, 1, 3, 2.539051294326782
0, 1, 4, 2.090677738189697
0, 1, 5, 2.560861110687256
0, 1, 6, 3.24968695640564
0, 1, 7, 2.21436071395874
0, 1, 8, 8.35854434967041
0, 1, 9, 3.151253223419189
0, 1, 10, 9.059914588928223
0, 1, 11, 10.94839000701904
0, 1, 12, 7.286723613739014
0, 1, 13, 10.00605487823486
0, 1, 14, 8.601541519165039
0, 1, 15, 7.38886833190918
0, 1, 16, 12.07183933258057
0, 1, 17, 12.29154682159424
0, 1, 18, 21.51850891113281
0, 1, 19, 65.95397186279297
0, 1, 20, 197.7300262451172
0, 1, 21, 254.0452575683594
0, 1, 22, 297.2388000488281
0, 1, 23, 281.8757934570312
0, 1, 24, 278.4395446777344
0, 1, 25, 290.1133117675781
0, 1, 26, 267.0399169921875
0, 1, 27, 308.1059265136719
0, 1, 28, 299.4717407226562
0, 1, 29, 295.7705383300781
0, 1, 30, 281.6347961425781
0, 1, 31, 292.3068542480469
0, 1, 32, 290.5375061035156
0, 1, 33, 296.7129516601562
0, 1, 34, 291.9895935058594
0, 1, 35, 279.0872192382812
0, 1, 36, 306.4664306640625
0, 1, 37, 295.6966857910156
0, 1, 38, 281.716796875
0, 1, 39, 295.1585693359375
0, 1, 40, 267.6083679199219
0, 1, 41, 286.29296875
0, 1, 42, 289.2436218261719
0, 1, 43, 331.7198791503906
0, 1, 44, 279.2024230957031
0, 1, 45, 291.5069580078125
0, 1, 46, 258.9181823730469
0, 1, 47, 311.2679748535156
0, 1, 48, 284.3940124511719
0, 1, 49, 303.0233764648438
0, 1, 50, 262.6520080566406
0, 1, 51, 272.4300231933594
0, 1, 52, 298.591796875
0, 1, 53, 305.9998168945312
0, 1, 54, 273.4021911621094
0, 1, 55, 292.5476989746094
0, 1, 56, 278.4098510742188
0, 1, 57, 298.6402587890625
0, 1, 58, 310.6584167480469
0, 1, 59, 293.1007080078125
0, 1, 60, 298.8236694335938
0, 1, 61, 274.7818908691406
0, 1, 62, 307.79052734375
0, 1, 63, 285.6882629394531
0, 1, 64, 289.1771545410156
0, 1, 65, 295.9574584960938
0, 1, 66, 293.34765625
0, 1, 67, 290.7483520507812
0, 1, 68, 278.7763366699219
0, 1, 69, 280.1451416015625
0, 1, 70, 270.47119140625
0, 1, 71, 274.8469543457031
0, 1, 72, 284.5552978515625
0, 1, 73, 303.4582214355469
0, 1, 74, 302.9928588867188
0, 1, 75, 291.5930480957031
0, 1, 76, 284.3560485839844
0, 1, 77, 287.9369812011719
0, 1, 78, 295.4651184082031
0, 1, 79, 305.2213745117188
0, 1, 80, 294.2315979003906
0, 1, 81, 300.1248474121094
0, 1, 82, 283.4428100585938
0, 1, 83, 333.0492553710938
0, 1, 84, 308.6133117675781
0, 1, 85, 254.2253265380859
0, 1, 86, 294.4979553222656
0, 1, 87, 292.1424865722656
0, 1, 88, 297.4291076660156
0, 1, 89, 289.2105407714844
0, 1, 90, 270.0551147460938
0, 1, 91, 317.7691650390625
0, 1, 92, 291.4443664550781
0, 1, 93, 285.8380737304688
0, 1, 94, 302.404541015625
0, 1, 95, 285.2388305664062
0, 1, 96, 282.984619140625
0, 1, 97, 301.340576171875
0, 1, 98, 278.2448425292969
0, 1, 99, 264.6398620605469
0, 1, 100, 276.5674133300781
0, 1, 101, 281.4431762695312
0, 1, 102, 277.3680114746094
0, 1, 103, 280.5357360839844
0, 1, 104, 310.2199096679688
0, 1, 105, 296.6832885742188
0, 1, 106, 261.7721862792969
0, 1, 107, 192.3433532714844
0, 1, 108, 80.56373596191406
0, 1, 109, 23.62391662597656
0, 1, 110, 13.46316623687744
0, 1, 111, 9.99537467956543
0, 1, 112, 11.03148651123047
0, 1, 113, 4.550012111663818
0, 1, 114, 5.78092622756958
0, 1, 115, 6.337159156799316
0, 1, 116, 11.39859294891357
0, 1, 117, 6.759476661682129
0, 1, 118, 5.52220630645752
0, 1, 119, 8.381482124328613
0, 1, 120, 6.085841655731201
0, 1, 121, 4.89921236038208
0, 1, 122, 4.418222427368164
0, 1, 123, 3.850078105926514
0, 1, 124, 8.703220367431641
0, 1, 125, 4.069173336029053
0, 1, 126, 3.184768915176392
0, 1, 127, 2.606652975082397
0, 2, 0, 4.419046878814697
0, 2, 1, 2.603636980056763
0, 2, 2, 3.140735149383545
0, 2, 3, 3.4493408203125
0, 2, 4, 3.547078847885132
0, 2, 5, 1.341731905937195
0, 2, 6, 1.767551183700562
0, 2, 7, 3.434537172317505
0, 2, 8, 5.211106300354004
0, 2, 9, 7.107383251190186
0, 2, 10, 10.22319412231445
0, 2, 11, 7.246360301971436
0, 2, 12, 7.31190299987793
0, 2, 13, 10.08368873596191
0, 2, 14, 12.73870277404785
0, 2, 15, 7.634350776672363
0, 2, 16, 10.34176063537598
0, 2, 17, 15.52876853942871
0, 2, 18, 31.99699783325195
0, 2, 19, 115.7732772827148
0, 2, 20, 247.8691101074219
0, 2, 21, 270.58984375
0, 2, 22, 316.2178649902344
0, 2, 23, 300.2738037109375
0, 2, 24, 285.8651733398438
0, 2, 25, 301.8421630859375
0, 2, 26, 291.5504455566406
0, 2, 27, 275.9281005859375
0, 2, 28, 274.3921203613281
0, 2, 29, 273.1310424804688
0, 2, 30, 290.0157165527344
0, 2, 31, 277.1942138671875
0, 2, 32, 293.6649169921875
0, 2, 33, 281.98193359375
0, 2, 34, 330.9379272460938
0, 2, 35, 288.627197265625
0, 2, 36, 304.571044921875
0, 2, 37, 315.7522583007812
0, 2, 38, 311.5602111816406
0, 2, 39, 267.8653869628906
0, 2, 40, 307.1468200683594
0, 2, 41, 293.566162109375
0, 2, 42, 304.1532897949219
0, 2, 43, 312.6820983886719
0, 2, 44, 310.6316528320312
0, 2, 45, 324.5656433105469
0, 2, 46, 287.4584350585938
0, 2, 47, 301.8932495117188
0, 2, 48, 283.8505554199219
0, 2, 49, 279.2995300292969
0, 2, 50, 293.89306640625
0, 2, 51, 284.0574340820312
0, 2, 52, 271.6134643554688
0, 2, 53, 286.2261047363281
0, 2, 54, 279.3986511230469
0, 2, 55, 276.9970092773438
0, 2, 56, 301.556396484375
0, 2, 57, 291.9084777832031
0, 2, 58, 302.0902404785156
0, 2, 59, 286.6077270507812
0, 2, 60, 317.3622741699219
0, 2, 61, 302.1491394042969
0, 2, 62, 314.0975952148438
0, 2, 63, 300.2097473144531
0, 2, 64, 296.3627319335938
0, 2, 65, 312.832763671875
0, 2, 66, 282.400390625
0, 2, 67, 290.814453125
0, 2, 68, 296.6582946777344
0, 2, 69, 311.5055541992188
0, 2, 70, 334.9190673828125
0, 2, 71, 283.6972045898438
0, 2, 72, 302.2726745605469
0, 2, 73, 312.4158935546875
0, 2, 74, 285.7073364257812
0, 2, 75, 305.158203125
0, 2, 76, 286.1800842285156
0, 2, 77, 300.2623596191406
0, 2, 78, 315.8755798339844
0, 2, 79, 307.7859802246094
0, 2, 80, 293.8681640625
0, 2, 81, 281.0803527832031
0, 2, 82, 321.0867919921875
0, 2, 83, 311.2515869140625
0, 2, 84, 290.4266357421875
0, 2, 85, 281.716064453125
0, 2, 86, 326.5381774902344
0, 2, 87, 287.3286743164062
0, 2, 88, 279.4226989746094
0, 2, 89, 296.5852355957031
0, 2, 90, 296.1930541992188
0, 2, 91, 276.0870666503906
0, 2, 92, 305.5760803222656
0, 2, 93, 315.6236267089844
0, 2, 94, 292.03173828125
0, 2, 95, 314.0235900878906
0, 2, 96, 315.0149536132812
0, 2, 97, 291.0305786132812
0, 2, 98, 293.3877563476562
0, 2, 99, 273.1721801757812
0, 2, 100, 307.6983032226562
0, 2, 101, 302.0562133789062
0, 2, 102, 295.5277404785156
0, 2, 103, 291.4043273925781
0, 2, 104, 292.4698181152344
0, 2, 105, 274.20361328125
0, 2, 106, 296.3291931152344
0, 2, 107, 270.0025634765625
0, 2, 108, 117.3057174682617
0, 2, 109, 33.42436599731445
0, 2, 110, 9.574256896972656
0, 2, 111, 11.10517501831055
0, 2, 112, 7.245338916778564
0, 2, 113, 9.294140815734863
0, 2, 114, 9.024023056030273
0, 2, 115, 10.85867309570312
0, 2, 116, 8.120524406433105
0, 2, 117, 8.029794692993164
0, 2, 118, 2.388141870498657
0, 2, 119, 1.38530957698822
0, 2, 120, 5.535786151885986
0, 2, 121, 1.814108848571777
0, 2, 122, 3.482203006744385
0, 2, 123, 5.785265922546387
0, 2, 124, 4.577741622924805
0, 2, 125, 4.647170066833496
0, 2, 126, 5.730246067047119
0, 2, 127, 4.735446453094482
0, 3, 0, 2.786103487014771
0, 3, 1, 4.059896945953369
0, 3, 2, 3.919424057006836
0, 3, 3, 1.834481835365295
0, 3, 4, 2.915248394012451
0, 3, 5, 7.394634246826172
0, 3, 6, 6.434928417205811
0, 3, 7, 5.080694675445557
0, 3, 8, 4.56122350692749
0, 3, 9, 5.87168025970459
0, 3, 10, 5.362791538238525
0, 3, 11, 2.985707521438599
0, 3, 12, 8.264127731323242
0, 3, 13, 14.2605562210083
0, 3, 14, 11.73627376556396
0, 3, 15, 15.4753303527832
0, 3, 16, 11.15370559692383
0, 3, 17, 20.00979614257812
0, 3, 18, 52.38146209716797
0, 3, 19, 175.8651580810547
0, 3, 20, 270.906982421875
0, 3, 21, 271.5344543457031
0, 3, 22, 282.0471496582031
0, 3, 23, 286.6867980957031
0, 3, 24, 286.1610107421875
0, 3, 25, 270.24609375
0, 3, 26, 303.8472595214844
0, 3, 27, 293.7028198242188
0, 3, 28, 280.4195556640625
0, 3, 29, 338.4811401367188
0, 3, 30, 317.1220397949219
0, 3, 31, 285.2815551757812
0, 3, 32, 306.3680419921875
0, 3, 33, 314.3350219726562
0, 3, 34, 323.3591613769531
0, 3, 35, 304.2994689941406
0, 3, 36, 269.4664306640625
0, 3, 37, 311.6644592285156
0, 3, 38, 302.9571533203125
0, 3, 39, 292.2857360839844
0, 3, 40, 268.1937561035156
0, 3, 41, 299.860595703125
0, 3, 42, 285.1500854492188
0, 3, 43, 306.2564392089844
0, 3, 44, 312.0338745117188
0, 3, 45, 291.4447326660156
0, 3, 46, 329.8294067382812
0, 3, 47, 299.0527038574219
0, 3, 48, 303.3689270019531
0, 3, 49, 276.5416259765625
0, 3, 50, 290.2044067382812
0, 3, 51, 276.3743286132812
0, 3, 52, 315.7006530761719
0, 3, 53, 288.4856567382812
0, 3, 54, 283.9164733886719
0, 3, 55, 283.3123168945312
0, 3, 56, 298.0263977050781
0, 3, 57, 287.5376892089844
0, 3, 58, 306.2190246582031
0, 3, 59, 295.9292907714844
0, 3, 60, 297.3664245605469
0, 3, 61, 263.5938415527344
0, 3, 62, 284.4346313476562
0, 3, 63, 307.7346801757812
0, 3, 64, 317.7865905761719
0, 3, 65, 305.1958312988281
0, 3, 66, 314.1640319824219
0, 3, 67, 318.5576171875
0, 3, 68, 279.4427490234375
0, 3, 69, 282.0670166015625
0, 3, 70, 289.7451171875
0, 3, 71, 298.2312316894531
0, 3, 72, 269.4506530761719
0, 3, 73, 308.8929443359375
0, 3, 74, 293.94287109375
0, 3, 75, 290.1957397460938
0, 3, 76, 306.4912109375
0, 3, 77, 313.5885009765625
0, 3, 78, 305.5677795410156
0, 3, 79, 283.9645385742188
0, 3, 80, 290.5146484375
0, 3, 81, 310.6803894042969
0, 3, 82, 315.7203979492188
0, 3, 83, 300.1633911132812
0, 3, 84, 312.5624084472656
0, 3, 85, 293.6127014160156
0, 3, 86, 303.1345520019531
0, 3, 87, 298.5687866210938
0, 3, 88, 297.6346740722656
0, 3, 89, 295.6292419433594
0, 3, 90, 278.1874694824219
0, 3, 91, 285.7690124511719
0, 3, 92, 307.05810546875
0, 3, 93, 313.0181274414062
0, 3, 94, 299.4663696289062
0, 3, 95, 334.5365295410156
0, 3, 96, 292.3902587890625
0, 3, 97, 283.2978210449219
0, 3, 98, 278.2050170898438
0, 3, 99, 263.1178283691406
0, 3, 100, 284.8134765625
0, 3, 101, 298.5598754882812
0, 3, 102, 275.6761169433594
0, 3, 103, 320.1342163085938
0, 3, 104, 307.6236572265625
0, 3, 105, 289.5459899902344
0, 3, 106, 302.2137451171875
0, 3, 107, 284.0632629394531
0, 3, 108, 168.9680938720703
0, 3, 109, 57.59231185913086
0, 3, 110, 19.08170127868652
0, 3, 111, 11.9335412979126
0, 3, 112, 11.62181091308594
0, 3, 113, 9.088854789733887
0, 3, 114, 11.85843467712402
0, 3, 115, 7.001369476318359
0, 3, 116, 6.17844820022583
0, 3, 117, 5.707326412200928
0, 3, 118, 8.559779167175293
0, 3, 119, 7.787694931030273
0, 3, 120, 3.30291748046875
0, 3, 121, 3.305092334747314
0, 3, 122, 4.772441864013672
0, 3, 123, 5.865728855133057
0, 3, 124, 4.693643093109131
0, 3, 125, 6.085481643676758
0, 3, 126, 4.334896087646484
0, 3, 127, 3.790733337402344
0, 4, 0, 2.416287183761597
0, 4, 1, 4.516320705413818
0, 4, 2, 3.38701057434082
0, 4, 3, 3.771119356155396
0, 4, 4, 7.375624179840088
0, 4, 5, 8.712411880493164
0, 4, 6, 6.898073196411133
0, 4, 7, 5.045074939727783
0, 4, 8, 3.184192419052124
0, 4, 9, 6.797824859619141
0, 4, 10, 6.224533081054688
0, 4, 11, 6.276523590087891
0, 4, 12, 6.983874797821045
0, 4, 13, 7.652926445007324
0, 4, 14, 12.74418830871582
0, 4, 15, 9.888192176818848
0, 4, 16, 15.08791542053223
0, 4, 17, 17.38119506835938
0, 4, 18, 93.64432525634766
0, 4, 19, 223.2129974365234
0, 4, 20, 283.3560485839844
0, 4, 21, 272.095947265625
0, 4, 22, 304.1845397949219
0, 4, 23, 267.240234375
0, 4, 24, 289.0890502929688
0, 4, 25, 275.6138305664062
0, 4, 26, 294.9127807617188
0, 4, 27, 281.679443359375
0, 4, 28, 309.0238647460938
0, 4, 29, 322.2906799316406
0, 4, 30, 308.839599609375
0, 4, 31, 304.7210998535156
0, 4, 32, 280.8687744140625
0, 4, 33, 296.151611328125
0, 4, 34, 297.0234069824219
0, 4, 35, 313.0260314941406
0, 4, 36, 291.7907104492188
0, 4, 37, 287.4568176269531
0, 4, 38, 299.2748413085938
0, 4, 39, 296.7005615234375
0, 4, 40, 303.0347900390625
0, 4, 41, 311.4679260253906
0, 4, 42, 328.0439758300781
0, 4, 43, 295.5946350097656
0, 4, 44, 320.4705200195312
0, 4, 45, 323.394287109375
0, 4, 46, 305.0146789550781
0, 4, 47, 293.1650695800781
0, 4, 48, 295.2120666503906
0, 4, 49, 278.374267578125
0, 4, 50, 297.4700317382812
0, 4, 51, 315.1632690429688
0, 4, 52, 326.886962890625
0, 4, 53, 304.1815795898438
0, 4, 54, 287.0802612304688
0, 4, 55, 316.2451477050781
0, 4, 56, 289.5423889160156
0, 4, 57, 308.22900390625
0, 4, 58, 297.4557800292969
0, 4, 59, 308.1473388671875
0, 4, 60, 302.2708740234375
0, 4, 61, 316.29443359375
0, 4, 62, 308.2913818359375
0, 4, 63, 298.773681640625
0, 4, 64, 329.3532409667969
0, 4, 65, 315.6613159179688
0, 4, 66, 292.2508544921875
0, 4, 67, 285.3602294921875
0, 4, 68, 312.2296142578125
0, 4, 69, 276.7646789550781
0, 4, 70, 299.2415161132812
0, 4, 71, 322.2369689941406
0, 4, 72, 331.8470458984375
0, 4, 73, 298.6954650878906
0, 4, 74, 291.8882141113281
0, 4, 75, 289.0845642089844
0, 4, 76, 275.2966613769531
0, 4, 77, 281.0348510742188
0, 4, 78, 310.6369018554688
0, 4, 79, 319.1831665039062
0, 4, 80, 314.91259765625
0, 4, 81, 313.2194519042969
0, 4, 82, 298.6309509277344
0, 4, 83, 302.6468200683594
0, 4, 84, 290.8236389160156
0, 4, 85, 295.2234802246094
0, 4, 86, 296.9981079101562
0, 4, 87, 285.6575622558594
0, 4, 88, 305.2564697265625
0, 4, 89, 296.3317260742188
0, 4, 90, 332.2135009765625
0, 4, 91, 303.3161926269531
0, 4, 92, 289.1617126464844
0, 4, 93, 300.82568359375
0, 4, 94, 291.89794921875
0, 4, 95, 290.9932861328125
0, 4, 96, 324.4552307128906
0, 4, 97, 273.5006713867188
0, 4, 98, 326.3686218261719
0, 4, 99, 313.4705810546875
0, 4, 100, 301.6584167480469
0, 4, 101, 258.284912109375
0, 4, 102, 297.70068359375
0, 4, 103, 320.2199096679688
0, 4, 104, 282.6244506835938
0, 4, 105, 312.9679870605469
0, 4, 106, 287.9419860839844
0, 4, 107, 297.2236938476562
0, 4, 108, 225.8561553955078
0, 4, 109, 82.35720062255859
0, 4, 110, 16.00793075561523
0, 4, 111, 14.7015438079834
0, 4, 112, 11.45198535919189
0, 4, 113, 11.03565883636475
0, 4, 114, 6.906522750854492
0, 4, 115, 10.02834129333496
0, 4, 116, 9.184601783752441
0, 4, 117, 5.698513984680176
0, 4, 118, 8.648117065429688
0, 4, 119, 8.762493133544922
0, 4, 120, 5.428761959075928
0, 4, 121, 5.7013258934021
0, 4, 122, 3.218598604202271
0, 4, 123, 6.246720790863037
0, 4, 124, 4.095842838287354
0, 4, 125, 11.21817779541016
0, 4, 126, 5.684735298156738
0, 4, 127, 3.113810300827026
0, 5, 0, 3.678550243377686
0, 5, 1, 3.932891368865967
0, 5, 2, 4.783436298370361
0, 5, 3, 4.442432880401611
0, 5, 4, 5.133942604064941
0, 5, 5, 7.171395301818848
0, 5, 6, 8.962599754333496
0, 5, 7, 4.702936172485352
0, 5, 8, 4.655580043792725
0, 5, 9, 6.273538112640381
0, 5, 10, 7.472941875457764
0, 5, 11, 8.50804328918457
0, 5, 12, 9.587143898010254
0, 5, 13, 5.54470157623291
0, 5, 14, 12.82242393493652
0, 5, 15, 16.8017635345459
0, 5, 16, 14.34178447723389
0, 5, 17, 28.90928840637207
0, 5, 18, 136.5303192138672
0, 5, 19, 289.6426391601562
0, 5, 20, 306.4165344238281
0, 5, 21, 315.6029663085938
0, 5, 22, 274.7037048339844
0, 5, 23, 311.9242553710938
0, 5, 24, 302.2012023925781
0, 5, 25, 290.0807495117188
0, 5, 26, 294.8554382324219
0, 5, 27, 321.3904113769531
0, 5, 28, 301.5129699707031
0, 5, 29, 297.0623168945312
0, 5, 30, 322.4549865722656
0, 5, 31, 287.8112487792969
0, 5, 32, 302.6143798828125
0, 5, 33, 305.5843811035156
0, 5, 34, 298.3639831542969
0, 5, 35, 310.1837768554688
0, 5, 36, 271.8861083984375
0, 5, 37, 281.94677734375
0, 5, 38, 291.9608459472656
0, 5, 39, 310.3736572265625
0, 5, 40, 308.8928527832031
0, 5, 41, 273.9849243164062
0, 5, 42, 307.99609375
0, 5, 43, 314.5005187988281
0, 5, 44, 291.0205078125
0, 5, 45, 302.4063415527344
0, 5, 46, 266.7280578613281
0, 5, 47, 282.2291870117188
0, 5, 48, 292.9442138671875
0, 5, 49, 285.4418029785156
0, 5, 50, 293.591796875
0, 5, 51, 283.2993469238281
0, 5, 52, 267.3667602539062
0, 5, 53, 287.6597290039062
0, 5, 54, 295.5463562011719
0, 5, 55, 346.7443542480469
0, 5, 56, 305.1308898925781
0, 5, 57, 310.8019409179688
0, 5, 58, 311.9117431640625
0, 5, 59, 301.6394348144531
0, 5, 60, 305.7754821777344
0, 5, 61, 282.2316284179688
0, 5, 62, 323.9653930664062
0, 5, 63, 289.7607727050781
0, 5, 64, 322.7475891113281
0, 5, 65, 308.8172607421875
0, 5, 66, 325.7766723632812
0, 5, 67, 313.3665771484375
0, 5, 68, 308.5200500488281
0, 5, 69, 311.5525512695312
0, 5, 70, 301.9524841308594
0, 5, 71, 271.4654846191406
0, 5, 72, 308.5575866699219
0, 5, 73, 306.4405212402344
0, 5, 74, 294.8958740234375
0, 5, 75, 295.1846008300781
0, 5, 76, 285.3775939941406
0, 5, 77, 300.1393737792969
0, 5, 78, 315.2825317382812
0, 5, 79, 307.756591796875
0, 5, 80, 294.9456787109375
0, 5, 81, 325.9471740722656
0, 5, 82, 323.9612121582031
0, 5, 83, 283.5576477050781
0, 5, 84, 301.7278747558594
0, 5, 85, 269.8760681152344
0, 5, 86, 325.0960083007812
0, 5, 87, 282.5081787109375
0, 5, 88, 317.7405700683594
0, 5, 89, 304.3858642578125
0, 5, 90, 315.4639587402344
0, 5, 91, 313.1462097167969
0, 5, 92, 299.9171447753906
0, 5, 93, 323.2667541503906
0, 5, 94, 308.5938415527344
0, 5, 95, 294.6757202148438
0, 5, 96, 296.9933776855469
0, 5, 97, 298.225830078125
0, 5, 98, 318.4250793457031
0, 5, 99, 301.4651184082031
0, 5, 100, 291.0358276367188
0, 5, 101, 305.1047058105469
0, 5, 102, 291.7326354980469
0, 5, 103, 313.9090576171875
0, 5, 104, 303.0398559570312
0, 5, 105, 291.904296875
0, 5, 106, 281.2944030761719
0, 5, 107, 293.5233764648438
0, 5, 108, 263.7226867675781
0, 5, 109, 157.9756164550781
0, 5, 110, 40.88416290283203
0, 5, 111, 22.81525802612305
0, 5, 112, 16.70620155334473
0, 5, 113, 13.83344554901123
0, 5, 114, 12.58315563201904
0, 5, 115, 10.96303653717041
0, 5, 116, 7.695401191711426
0, 5, 117, 8.567159652709961
0, 5, 118, 13.67502593994141
0, 5, 119, 5.206539630889893
0, 5, 120, 5.542255878448486
0, 5, 121, 5.013833045959473
0, 5, 122, 5.366024494171143
0, 5, 123, 5.588250637054443
0, 5, 124, 7.797954082489014
0, 5, 125, 4.365257740020752
0, 5, 126, 5.310654640197754
0, 5, 127, 2.641230344772339
0, 6, 0, 3.496969938278198
0, 6, 1, 2.6345055103302
0, 6, 2, 4.250741004943848
0, 6, 3, 4.98397159576416
0, 6, 4, 2.94092059135437
0, 6, 5, 6.744964599609375
0, 6, 6, 6.965774059295654
0, 6, 7, 5.211217403411865
0, 6, 8, 9.536544799804688
0, 6, 9, 8.718136787414551
0, 6, 10, 8.362946510314941
0, 6, 11, 7.670181751251221
0, 6, 12, 8.991363525390625
0, 6, 13, 10.95859336853027
0, 6, 14, 12.13187026977539
0, 6, 15, 16.17235946655273
0, 6, 16, 27.82747077941895
0, 6, 17, 54.80613708496094
0, 6, 18, 177.7062530517578
0, 6, 19, 277.2772216796875
0, 6, 20, 289.6077270507812
0, 6, 21, 314.757080078125
0, 6, 22, 320.0519409179688
0, 6, 23, 305.616943359375
0, 6, 24, 316.7282409667969
0, 6, 25, 315.8301391601562
0, 6, 26, 318.7929992675781
0, 6, 27, 331.8011779785156
0, 6, 28, 298.4589538574219
0, 6, 29, 332.5138244628906
0, 6, 30, 280.7765502929688
0, 6, 31, 286.4349670410156
0, 6, 32, 341.0114135742188
0, 6, 33, 300.0637817382812
0, 6, 34, 340.4408569335938
0, 6, 35, 320.4800720214844
0, 6, 36, 273.0675659179688
0, 6, 37, 290.9107055664062
0, 6, 38, 312.15966796875
0, 6, 39, 297.9615783691406
0, 6, 40, 283.8730773925781
0, 6, 41, 294.5684204101562
0, 6, 42, 304.0428161621094
0, 6, 43, 290.1355590820312
0, 6, 44, 280.2375183105469
0, 6, 45, 320.3483581542969
0, 6, 46, 303.6818237304688
0, 6, 47, 334.4326171875
0, 6, 48, 292.2481689453125
0, 6, 49, 312.0657348632812
0, 6, 50, 328.5751037597656
0, 6, 51, 313.30322265625
0, 6, 52, 322.1313171386719
0, 6, 53, 326.7633361816406
0, 6, 54, 302.7936401367188
0, 6, 55, 305.1603698730469
0, 6, 56, 293.9871215820312
0, 6, 57, 312.6556396484375
0, 6, 58, 261.947265625
0, 6, 59, 300.3631286621094
0, 6, 60, 316.7364196777344
0, 6, 61, 272.5090637207031
0, 6, 62, 335.1686706542969
0, 6, 63, 326.0960998535156
0, 6, 64, 291.2597351074219
0, 6, 65, 286.4403076171875
0, 6, 66, 306.3277587890625
0, 6, 67, 309.4835205078125
0, 6, 68, 294.6491088867188
0, 6, 69, 278.1482543945312
0, 6, 70, 273.7444763183594
0, 6, 71, 289.9582824707031
0, 6, 72, 309.7527770996094
0, 6, 73, 291.2078247070312
0, 6, 74, 330.9988098144531
0, 6, 75, 343.4547729492188
0, 6, 76, 298.0846557617188
0, 6, 77, 285.3040771484375
0, 6, 78, 277.4573364257812
0, 6, 79, 295.9241943359375
0, 6, 80, 303.1049499511719
0, 6, 81, 314.9073181152344
0, 6, 82, 317.3475341796875
0, 6, 83, 318.6978454589844
0, 6, 84, 296.5713195800781
0, 6, 85, 301.8102722167969
0, 6, 86, 329.8283081054688
0, 6, 87, 292.772705078125
0, 6, 88, 305.7726135253906
0, 6, 89, 304.9821166992188
0, 6, 90, 301.1940002441406
0, 6, 91, 313.2076721191406
0, 6, 92, 286.1907043457031
0, 6, 93, 297.4255676269531
0, 6, 94, 273.260986328125
0, 6, 95, 299.0064392089844
0, 6, 96, 348.2310791015625
0, 6, 97, 308.8797912597656
0, 6, 98, 301.319091796875
0, 6, 99, 271.4165954589844
0, 6, 100, 309.2964477539062
0, 6, 101, 293.5871887207031
0, 6, 102, 309.1676025390625
0, 6, 103, 309.2247924804688
0, 6, 104, 292.541748046875
0, 6, 105, 300.8440856933594
0, 6, 106, 307.0641784667969
0, 6, 107, 305.14306640625
0, 6, 108, 265.5302124023438
0, 6, 109, 186.7850341796875
0, 6, 110, 57.49409866333008
0, 6, 111, 21.83382987976074
0, 6, 112, 13.46630096435547
0, 6, 113, 10.94223499298096
0, 6, 114, 13.38190078735352
0, 6, 115, 13.06316566467285
0, 6, 116, 8.934457778930664
0, 6, 117, 7.33791446685791
0, 6, 118, 9.994214057922363
0, 6, 119, 8.494895935058594
0, 6, 120, 6.269155502319336
0, 6, 121, 5.510529041290283
0, 6, 122, 5.845349788665771
0, 6, 123, 3.869080781936646
0, 6, 124, 6.373010635375977
0, 6, 125, 7.221718788146973
0, 6, 126, 3.755034685134888
0, 6, 127, 6.855940818786621
0, 7, 0, 9.888659477233887
0, 7, 1, 3.054489374160767
0, 7, 2, 6.702865123748779
0, 7, 3, 3.098536729812622
0, 7, 4, 3.107712507247925
0, 7, 5, 4.504604816436768
0, 7, 6, 8.586942672729492
0, 7, 7, 6.659628391265869
0, 7, 8, 4.839889526367188
0, 7, 9, 5.249587535858154
0, 7, 10, 8.849656105041504
0, 7, 11, 12.63660430908203
0, 7, 12, 8.805446624755859
0, 7, 13, 11.00539588928223
0, 7, 14, 10.84973049163818
0, 7, 15, 18.27472496032715
0, 7, 16, 27.02059555053711
0, 7, 17, 95.97840118408203
0, 7, 18, 217.7723236083984
0, 7, 19, 289.0505065917969
0, 7, 20, 297.4130249023438
0, 7, 21, 276.8127746582031
0, 7, 22, 299.086181640625
0, 7, 23, 289.6260375976562
0, 7, 24, 312.7811889648438
0, 7, 25, 323.5609741210938
0, 7, 26, 277.5893859863281
0, 7, 27, 297.1060791015625
0, 7, 28, 324.7357788085938
0, 7, 29, 317.9554138183594
0, 7, 30, 305.8058166503906
0, 7, 31, 277.6972961425781
0, 7, 32, 305.4946899414062
0, 7, 33, 263.7104187011719
0, 7, 34, 298.6448364257812
0, 7, 35, 321.2356872558594
0, 7, 36, 330.4813232421875
0, 7, 37, 321.3598937988281
0, 7, 38, 295.3813781738281
0, 7, 39, 306.4124755859375
0, 7, 40, 289.6172485351562
0, 7, 41, 270.4919738769531
0, 7, 42, 300.8673706054688
0, 7, 43, 275.4919738769531
0, 7, 44, 306.6032409667969
0, 7, 45, 294.0406188964844
0, 7, 46, 282.6508483886719
0, 7, 47, 329.9569396972656
0, 7, 48, 284.4053955078125
0, 7, 49, 303.6937561035156
0, 7, 50, 320.5287475585938
0, 7, 51, 298.9910583496094
0, 7, 52, 327.0990905761719
0, 7, 53, 308.60546875
0, 7, 54, 322.950439453125
0, 7, 55, 309.1306457519531
0, 7, 56, 279.7968444824219
0, 7, 57, 281.6638793945312
0, 7, 58, 295.6408996582031
0, 7, 59, 295.3504028320312
0, 7, 60, 323.6303405761719
0, 7, 61, 277.5305786132812
0, 7, 62, 300.3359375
0, 7, 63, 293.4913940429688
0, 7, 64, 305.9486694335938
0, 7, 65, 329.8358154296875
0, 7, 66, 317.9225769042969
0, 7, 67, 301.2571105957031
0, 7, 68, 280.2028198242188
0, 7, 69, 294.0943603515625
0, 7, 70, 301.7335510253906
0, 7, 71, 309.8028564453125
0, 7, 72, 285.9678649902344
0, 7, 73, 297.0826721191406
0, 7, 74, 344.6993103027344
0, 7, 75, 318.4827575683594
0, 7, 76, 323.2616577148438
0, 7, 77, 281.6603088378906
0, 7, 78, 302.4599609375
0, 7, 79, 299.0939025878906
0, 7, 80, 312.4883728027344
0, 7, 81, 318.289306640625
0, 7, 82, 327.9083251953125
0, 7, 83, 318.59033203125
0, 7, 84, 310.0492248535156
0, 7, 85, 271.5679016113281
0, 7, 86, 309.5888977050781
0, 7, 87, 308.3290100097656
0, 7, 88, 306.4242858886719
0, 7, 89, 292.9947509765625
0, 7, 90, 306.2694396972656
0, 7, 91, 313.5524597167969
0, 7, 92, 289.7057189941406
0, 7, 93, 307.8101501464844
0, 7, 94, 275.517578125
0, 7, 95, 296.1411437988281
0, 7, 96, 330.1214294433594
0, 7, 97, 295.5713806152344
0, 7, 98, 290.0577087402344
0, 7, 99, 312.9505615234375
0, 7, 100, 281.5064392089844
0, 7, 101, 275.1827697753906
0, 7, 102, 291.258544921875
0, 7, 103, 291.78759765625
0, 7, 104, 277.2028198242188
0, 7, 105, 309.1230163574219
0, 7, 106, 316.5734252929688
0, 7, 107, 298.9673461914062
0, 7, 108, 273.8539733886719
0, 7, 109, 233.5622863769531
0, 7, 110, 95.73672485351562
0, 7, 111, 25.15335464477539
0, 7, 112, 12.75926685333252
0, 7, 113, 15.23580741882324
0, 7, 114, 12.75090980529785
0, 7, 115, 12.77800464630127
0, 7, 116, 9.194279670715332
0, 7, 117, 5.561458110809326
0, 7, 118, 7.873350620269775
0, 7, 119, 4.952469825744629
0, 7, 120, 4.245683670043945
0, 7, 121, 5.599183082580566
0, 7, 122, 8.686223030090332
0, 7, 123, 5.548972606658936
0, 7, 124, 4.337665557861328
0, 7, 125, 5.172595024108887
0, 7, 126, 8.537753105163574
0, 7, 127, 2.310193538665771
0, 8, 0, 5.867319107055664
0, 8, 1, 6.318530559539795
0, 8, 2, 5.050601959228516
0, 8, 3, 3.665367603302002
0, 8, 4, 5.936763286590576
0, 8, 5, 2.94970178604126
0, 8, 6, 6.732104778289795
0, 8, 7, 6.323544979095459
0, 8, 8, 6.943869113922119
0, 8, 9, 5.729455471038818
0, 8, 10, 9.464856147766113
0, 8, 11, 11.42097759246826
0, 8, 12, 13.92734241485596
0, 8, 13, 15.03841781616211
0, 8, 14, 13.35975360870361
0, 8, 15, 16.89799308776855
0, 8, 16, 32.2523078918457
0, 8, 17, 130.9976654052734
0, 8, 18, 242.8395385742188
0, 8, 19, 294.6697998046875
0, 8, 20, 286.3230895996094
0, 8, 21, 306.1773681640625
0, 8, 22, 296.6212768554688
0, 8, 23, 273.9804077148438
0, 8, 24, 268.89306640625
0, 8, 25, 274.9964904785156
0, 8, 26, 305.5367126464844
0, 8, 27, 307.9568176269531
0, 8, 28, 303.8514404296875
0, 8, 29, 320.0367126464844
0, 8, 30, 314.8030090332031
0, 8, 31, 304.1018371582031
0, 8, 32, 280.5672912597656
0, 8, 33, 293.856689453125
0, 8, 34, 287.3303527832031
0, 8, 35, 284.3078918457031
0, 8, 36, 314.4176025390625
0, 8, 37, 342.9803161621094
0, 8, 38, 333.0530700683594
0, 8, 39, 280.2398986816406
0, 8, 40, 304.0300903320312
