# TOPAS Version: 3.1.p3
# Parameter File: batch_inserts_14.txt
# Results for scorer Readout_Adipose
# Scored in component: MyBox
# X in 1 bin  of 0.75 cm
# Y in 512 bins of 0.0783984 cm
# Z in 128 bins of 0.078125 cm
# EnergyDeposit ( MeV ) : Sum   
0, 0, 0, 3.463366270065308
0, 0, 1, 1.526485562324524
0, 0, 2, 5.992076396942139
0, 0, 3, 1.480748772621155
0, 0, 4, 4.186877727508545
0, 0, 5, 3.396381616592407
0, 0, 6, 5.128559112548828
0, 0, 7, 8.66530704498291
0, 0, 8, 2.945107221603394
0, 0, 9, 3.314796209335327
0, 0, 10, 6.139984130859375
0, 0, 11, 3.596303224563599
0, 0, 12, 4.168378829956055
0, 0, 13, 5.708755970001221
0, 0, 14, 10.88528728485107
0, 0, 15, 9.466461181640625
0, 0, 16, 7.881501197814941
0, 0, 17, 9.741793632507324
0, 0, 18, 15.45476531982422
0, 0, 19, 44.9465446472168
0, 0, 20, 138.3196105957031
0, 0, 21, 223.2797241210938
0, 0, 22, 249.4026336669922
0, 0, 23, 256.5215148925781
0, 0, 24, 251.9339447021484
0, 0, 25, 261.5316162109375
0, 0, 26, 235.8858337402344
0, 0, 27, 236.2418823242188
0, 0, 28, 274.0806884765625
0, 0, 29, 252.8132934570312
0, 0, 30, 228.8736724853516
0, 0, 31, 244.3181610107422
0, 0, 32, 264.0211791992188
0, 0, 33, 260.0015869140625
0, 0, 34, 287.5506896972656
0, 0, 35, 266.3956298828125
0, 0, 36, 246.1087036132812
0, 0, 37, 252.1471405029297
0, 0, 38, 268.8226928710938
0, 0, 39, 230.9465484619141
0, 0, 40, 243.3755798339844
0, 0, 41, 266.4079284667969
0, 0, 42, 230.3180389404297
0, 0, 43, 260.0275268554688
0, 0, 44, 252.2055053710938
0, 0, 45, 252.1046905517578
0, 0, 46, 243.8482360839844
0, 0, 47, 255.5637969970703
0, 0, 48, 268.1635437011719
0, 0, 49, 274.4806213378906
0, 0, 50, 252.0200042724609
0, 0, 51, 253.3113555908203
0, 0, 52, 272.4070434570312
0, 0, 53, 291.7876281738281
0, 0, 54, 242.9926300048828
0, 0, 55, 239.2565612792969
0, 0, 56, 277.7519836425781
0, 0, 57, 264.917236328125
0, 0, 58, 246.0686492919922
0, 0, 59, 271.0915832519531
0, 0, 60, 237.3188781738281
0, 0, 61, 245.7662200927734
0, 0, 62, 258.7994689941406
0, 0, 63, 268.3135070800781
0, 0, 64, 255.2462463378906
0, 0, 65, 262.9165344238281
0, 0, 66, 278.8105163574219
0, 0, 67, 246.9576568603516
0, 0, 68, 258.8256530761719
0, 0, 69, 264.0938110351562
0, 0, 70, 273.0840759277344
0, 0, 71, 238.7241821289062
0, 0, 72, 251.2393188476562
0, 0, 73, 257.560791015625
0, 0, 74, 251.1779174804688
0, 0, 75, 242.0701751708984
0, 0, 76, 229.0358123779297
0, 0, 77, 261.3426818847656
0, 0, 78, 257.7341613769531
0, 0, 79, 277.4618530273438
0, 0, 80, 218.3173828125
0, 0, 81, 267.494384765625
0, 0, 82, 257.3595886230469
0, 0, 83, 245.6116943359375
0, 0, 84, 270.1238708496094
0, 0, 85, 231.8852081298828
0, 0, 86, 253.6920166015625
0, 0, 87, 249.2255249023438
0, 0, 88, 259.9084777832031
0, 0, 89, 284.1666564941406
0, 0, 90, 244.9628295898438
0, 0, 91, 281.4812316894531
0, 0, 92, 252.2713470458984
0, 0, 93, 250.4479064941406
0, 0, 94, 247.3048248291016
0, 0, 95, 251.9124908447266
0, 0, 96, 274.6301879882812
0, 0, 97, 272.000732421875
0, 0, 98, 273.749267578125
0, 0, 99, 257.9257507324219
0, 0, 100, 260.3587646484375
0, 0, 101, 225.14013671875
0, 0, 102, 233.0879821777344
0, 0, 103, 270.011474609375
0, 0, 104, 253.6380157470703
0, 0, 105, 251.2619323730469
0, 0, 106, 245.6206970214844
0, 0, 107, 152.1956176757812
0, 0, 108, 38.20402526855469
0, 0, 109, 11.86196517944336
0, 0, 110, 12.18522262573242
0, 0, 111, 8.059008598327637
0, 0, 112, 6.513331890106201
0, 0, 113, 4.825723648071289
0, 0, 114, 7.016381740570068
0, 0, 115, 5.260009288787842
0, 0, 116, 7.217000961303711
0, 0, 117, 4.927183628082275
0, 0, 118, 6.118808269500732
0, 0, 119, 5.079014778137207
0, 0, 120, 3.502079963684082
0, 0, 121, 4.581440448760986
0, 0, 122, 6.824422359466553
0, 0, 123, 3.310182571411133
0, 0, 124, 5.128374099731445
0, 0, 125, 2.212347745895386
0, 0, 126, 6.722992420196533
0, 0, 127, 4.52711296081543
0, 1, 0, 6.077500820159912
0, 1, 1, 4.440576553344727
0, 1, 2, 4.006629467010498
0, 1, 3, 2.259675264358521
0, 1, 4, 3.462138175964355
0, 1, 5, 2.866618633270264
0, 1, 6, 5.612318992614746
0, 1, 7, 6.048524379730225
0, 1, 8, 6.72404670715332
0, 1, 9, 5.080775260925293
0, 1, 10, 8.887264251708984
0, 1, 11, 11.0385799407959
0, 1, 12, 7.799648284912109
0, 1, 13, 9.922956466674805
0, 1, 14, 7.578609943389893
0, 1, 15, 8.019363403320312
0, 1, 16, 11.52986526489258
0, 1, 17, 11.44104957580566
0, 1, 18, 19.44681358337402
0, 1, 19, 67.13086700439453
0, 1, 20, 199.0500793457031
0, 1, 21, 255.384765625
0, 1, 22, 297.7541198730469
0, 1, 23, 283.4078063964844
0, 1, 24, 275.0028381347656
0, 1, 25, 289.3602294921875
0, 1, 26, 268.080322265625
0, 1, 27, 306.1817321777344
0, 1, 28, 300.5182495117188
0, 1, 29, 296.5977783203125
0, 1, 30, 280.9355163574219
0, 1, 31, 293.8362121582031
0, 1, 32, 291.2119445800781
0, 1, 33, 294.8350524902344
0, 1, 34, 292.1160278320312
0, 1, 35, 277.77587890625
0, 1, 36, 306.0591125488281
0, 1, 37, 294.656005859375
0, 1, 38, 281.3640441894531
0, 1, 39, 295.8624267578125
0, 1, 40, 268.8946838378906
0, 1, 41, 286.76025390625
0, 1, 42, 290.3338623046875
0, 1, 43, 333.9619140625
0, 1, 44, 278.651123046875
0, 1, 45, 293.334228515625
0, 1, 46, 258.9331970214844
0, 1, 47, 311.328369140625
0, 1, 48, 286.8039245605469
0, 1, 49, 304.7977905273438
0, 1, 50, 263.5474548339844
0, 1, 51, 271.955078125
0, 1, 52, 298.7862854003906
0, 1, 53, 304.589599609375
0, 1, 54, 274.7350463867188
0, 1, 55, 292.5398864746094
0, 1, 56, 278.9674682617188
0, 1, 57, 298.6884765625
0, 1, 58, 309.7304992675781
0, 1, 59, 291.5837707519531
0, 1, 60, 297.4861755371094
0, 1, 61, 274.9447021484375
0, 1, 62, 307.6687622070312
0, 1, 63, 290.4527893066406
0, 1, 64, 288.7382507324219
0, 1, 65, 294.332275390625
0, 1, 66, 291.3880004882812
0, 1, 67, 295.58642578125
0, 1, 68, 276.8380737304688
0, 1, 69, 279.2145690917969
0, 1, 70, 270.1835632324219
0, 1, 71, 272.8604736328125
0, 1, 72, 287.0504760742188
0, 1, 73, 304.4161376953125
0, 1, 74, 304.9227905273438
0, 1, 75, 294.1865539550781
0, 1, 76, 286.212890625
0, 1, 77, 290.3637390136719
0, 1, 78, 300.6293334960938
0, 1, 79, 301.9979858398438
0, 1, 80, 297.6227111816406
0, 1, 81, 299.9602661132812
0, 1, 82, 285.7614440917969
0, 1, 83, 333.7785339355469
0, 1, 84, 309.1241149902344
0, 1, 85, 253.5276336669922
0, 1, 86, 293.0439758300781
0, 1, 87, 289.6519470214844
0, 1, 88, 299.7739868164062
0, 1, 89, 289.1991271972656
0, 1, 90, 269.5831298828125
0, 1, 91, 319.9373168945312
0, 1, 92, 292.7389221191406
0, 1, 93, 286.6384887695312
0, 1, 94, 303.597900390625
0, 1, 95, 283.0975646972656
0, 1, 96, 283.1445007324219
0, 1, 97, 299.5919799804688
0, 1, 98, 276.1839294433594
0, 1, 99, 266.5391235351562
0, 1, 100, 278.8055419921875
0, 1, 101, 282.132080078125
0, 1, 102, 276.1987915039062
0, 1, 103, 280.9075622558594
0, 1, 104, 305.8542175292969
0, 1, 105, 295.724853515625
0, 1, 106, 260.6101379394531
0, 1, 107, 191.4701538085938
0, 1, 108, 80.43039703369141
0, 1, 109, 23.40791893005371
0, 1, 110, 10.69007015228271
0, 1, 111, 7.731991291046143
0, 1, 112, 11.10581016540527
0, 1, 113, 6.010217189788818
0, 1, 114, 8.575546264648438
0, 1, 115, 5.403261661529541
0, 1, 116, 12.45366859436035
0, 1, 117, 5.06357479095459
0, 1, 118, 3.881329774856567
0, 1, 119, 5.015951633453369
0, 1, 120, 7.374245643615723
0, 1, 121, 4.592299461364746
0, 1, 122, 3.18026876449585
0, 1, 123, 4.207293033599854
0, 1, 124, 8.981142997741699
0, 1, 125, 2.231821537017822
0, 1, 126, 1.186390995979309
0, 1, 127, 1.305434226989746
0, 2, 0, 4.733657360076904
0, 2, 1, 2.66275954246521
0, 2, 2, 2.56831169128418
0, 2, 3, 6.321846961975098
0, 2, 4, 3.550852298736572
0, 2, 5, 1.66677463054657
0, 2, 6, 1.784331917762756
0, 2, 7, 3.478343963623047
0, 2, 8, 4.0153489112854
0, 2, 9, 5.93846321105957
0, 2, 10, 8.112466812133789
0, 2, 11, 6.007936954498291
0, 2, 12, 6.964461803436279
0, 2, 13, 9.171306610107422
0, 2, 14, 8.924155235290527
0, 2, 15, 7.336472988128662
0, 2, 16, 8.565787315368652
0, 2, 17, 16.25787162780762
0, 2, 18, 30.81169891357422
0, 2, 19, 115.9467544555664
0, 2, 20, 248.3918609619141
0, 2, 21, 270.8537292480469
0, 2, 22, 315.6295776367188
0, 2, 23, 300.1291809082031
0, 2, 24, 285.0609741210938
0, 2, 25, 303.8537292480469
0, 2, 26, 291.6162109375
0, 2, 27, 277.6033325195312
0, 2, 28, 273.1923522949219
0, 2, 29, 275.8500061035156
0, 2, 30, 290.5224914550781
0, 2, 31, 280.41455078125
0, 2, 32, 293.2739868164062
0, 2, 33, 281.4376220703125
0, 2, 34, 331.0477294921875
0, 2, 35, 289.6675109863281
0, 2, 36, 304.2571716308594
0, 2, 37, 315.2332153320312
0, 2, 38, 309.9580078125
0, 2, 39, 267.8392028808594
0, 2, 40, 307.3486328125
0, 2, 41, 292.229248046875
0, 2, 42, 304.3522033691406
0, 2, 43, 311.4100952148438
0, 2, 44, 310.47900390625
0, 2, 45, 325.3539123535156
0, 2, 46, 287.196533203125
0, 2, 47, 303.2304077148438
0, 2, 48, 281.5280151367188
0, 2, 49, 279.355712890625
0, 2, 50, 293.5220031738281
0, 2, 51, 284.5769653320312
0, 2, 52, 274.5690612792969
0, 2, 53, 287.8819580078125
0, 2, 54, 281.0355529785156
0, 2, 55, 278.2899169921875
0, 2, 56, 301.1860046386719
0, 2, 57, 293.2739562988281
0, 2, 58, 302.6182861328125
0, 2, 59, 289.9742126464844
0, 2, 60, 319.9037170410156
0, 2, 61, 301.0781860351562
0, 2, 62, 314.1200256347656
0, 2, 63, 303.5059814453125
0, 2, 64, 296.31298828125
0, 2, 65, 311.4844665527344
0, 2, 66, 280.0813903808594
0, 2, 67, 291.2792358398438
0, 2, 68, 296.421142578125
0, 2, 69, 310.0614013671875
0, 2, 70, 333.7159423828125
0, 2, 71, 284.5900573730469
0, 2, 72, 301.7760314941406
0, 2, 73, 311.3152160644531
0, 2, 74, 285.7093200683594
0, 2, 75, 305.2256469726562
0, 2, 76, 285.5457153320312
0, 2, 77, 298.8748168945312
0, 2, 78, 315.2400817871094
0, 2, 79, 311.4881896972656
0, 2, 80, 293.8367614746094
0, 2, 81, 281.5277099609375
0, 2, 82, 319.9286804199219
0, 2, 83, 312.7784729003906
0, 2, 84, 289.813232421875
0, 2, 85, 281.2126770019531
0, 2, 86, 325.0365905761719
0, 2, 87, 286.3301391601562
0, 2, 88, 279.7479248046875
0, 2, 89, 295.6372985839844
0, 2, 90, 296.4446105957031
0, 2, 91, 276.0789489746094
0, 2, 92, 305.6385498046875
0, 2, 93, 315.5705871582031
0, 2, 94, 293.5927734375
0, 2, 95, 314.3821716308594
0, 2, 96, 317.2667541503906
0, 2, 97, 290.9037475585938
0, 2, 98, 294.0517272949219
0, 2, 99, 274.8707275390625
0, 2, 100, 309.0737609863281
0, 2, 101, 300.7993469238281
0, 2, 102, 296.4517822265625
0, 2, 103, 292.4855651855469
0, 2, 104, 291.1689758300781
0, 2, 105, 274.0370483398438
0, 2, 106, 297.2793884277344
0, 2, 107, 272.6559753417969
0, 2, 108, 115.8587188720703
0, 2, 109, 32.74887084960938
0, 2, 110, 11.16703033447266
0, 2, 111, 10.74653816223145
0, 2, 112, 8.725154876708984
0, 2, 113, 10.2731990814209
0, 2, 114, 9.527401924133301
0, 2, 115, 9.883326530456543
0, 2, 116, 10.27096939086914
0, 2, 117, 5.837798595428467
0, 2, 118, 2.340774297714233
0, 2, 119, 5.891078948974609
0, 2, 120, 3.575641393661499
0, 2, 121, 1.087729454040527
0, 2, 122, 4.456007957458496
0, 2, 123, 5.230417251586914
0, 2, 124, 5.818985462188721
0, 2, 125, 6.164553165435791
0, 2, 126, 3.747692346572876
0, 2, 127, 4.074499130249023
0, 3, 0, 3.022135019302368
0, 3, 1, 2.976258277893066
0, 3, 2, 4.088339328765869
0, 3, 3, 1.901607036590576
0, 3, 4, 5.167666435241699
0, 3, 5, 8.12161922454834
0, 3, 6, 6.771058082580566
0, 3, 7, 4.478054523468018
0, 3, 8, 5.05465030670166
0, 3, 9, 6.249886512756348
0, 3, 10, 5.453906536102295
0, 3, 11, 3.642202854156494
0, 3, 12, 5.840357303619385
0, 3, 13, 14.94480228424072
0, 3, 14, 12.58613586425781
0, 3, 15, 15.65280723571777
0, 3, 16, 11.5949068069458
0, 3, 17, 20.31348419189453
0, 3, 18, 56.68300247192383
0, 3, 19, 177.7533111572266
0, 3, 20, 271.1705322265625
0, 3, 21, 271.1864318847656
0, 3, 22, 280.6547546386719
0, 3, 23, 285.7410888671875
0, 3, 24, 286.47998046875
0, 3, 25, 268.5187377929688
0, 3, 26, 303.0500793457031
0, 3, 27, 292.2229919433594
0, 3, 28, 281.9138793945312
0, 3, 29, 338.1570739746094
0, 3, 30, 317.5290832519531
0, 3, 31, 286.2032470703125
0, 3, 32, 308.8451843261719
0, 3, 33, 314.0928344726562
0, 3, 34, 324.7137145996094
0, 3, 35, 307.3087463378906
0, 3, 36, 269.132080078125
0, 3, 37, 315.7406616210938
0, 3, 38, 303.2226257324219
0, 3, 39, 288.7711181640625
0, 3, 40, 266.6200561523438
0, 3, 41, 298.3604736328125
0, 3, 42, 287.1319274902344
0, 3, 43, 309.6689453125
0, 3, 44, 313.6280822753906
0, 3, 45, 290.4615173339844
0, 3, 46, 329.816162109375
0, 3, 47, 299.4223327636719
0, 3, 48, 303.8901672363281
0, 3, 49, 277.1595153808594
0, 3, 50, 289.755859375
0, 3, 51, 275.1204528808594
0, 3, 52, 315.2899169921875
0, 3, 53, 287.7990417480469
0, 3, 54, 283.8650207519531
0, 3, 55, 282.1744689941406
0, 3, 56, 297.4773559570312
0, 3, 57, 288.4738159179688
0, 3, 58, 309.0452880859375
0, 3, 59, 295.8126525878906
0, 3, 60, 298.2306518554688
0, 3, 61, 264.1672668457031
0, 3, 62, 286.6705932617188
0, 3, 63, 306.0704345703125
0, 3, 64, 318.0951232910156
0, 3, 65, 305.5047302246094
0, 3, 66, 314.1761474609375
0, 3, 67, 317.3771362304688
0, 3, 68, 278.9523315429688
0, 3, 69, 281.4199829101562
0, 3, 70, 288.7341003417969
0, 3, 71, 297.1660461425781
0, 3, 72, 269.8553161621094
0, 3, 73, 306.2779846191406
0, 3, 74, 291.9599304199219
0, 3, 75, 288.7144165039062
0, 3, 76, 305.440185546875
0, 3, 77, 313.27294921875
0, 3, 78, 307.0494384765625
0, 3, 79, 283.384521484375
0, 3, 80, 292.9565734863281
0, 3, 81, 313.1619873046875
0, 3, 82, 314.4044799804688
0, 3, 83, 301.5125732421875
0, 3, 84, 313.6903076171875
0, 3, 85, 295.0901184082031
0, 3, 86, 301.7955322265625
0, 3, 87, 298.8224792480469
0, 3, 88, 302.4872436523438
0, 3, 89, 297.1121215820312
0, 3, 90, 276.0052185058594
0, 3, 91, 284.7767639160156
0, 3, 92, 303.6319885253906
0, 3, 93, 313.2567138671875
0, 3, 94, 297.6909484863281
0, 3, 95, 333.3546142578125
0, 3, 96, 289.3455810546875
0, 3, 97, 282.4735412597656
0, 3, 98, 278.9431457519531
0, 3, 99, 261.1489868164062
0, 3, 100, 284.0999145507812
0, 3, 101, 297.0445556640625
0, 3, 102, 275.0072326660156
0, 3, 103, 320.1526794433594
0, 3, 104, 308.7495727539062
0, 3, 105, 290.0882873535156
0, 3, 106, 301.1139221191406
0, 3, 107, 284.4049682617188
0, 3, 108, 168.9561614990234
0, 3, 109, 58.16400146484375
0, 3, 110, 17.25439262390137
0, 3, 111, 12.44276905059814
0, 3, 112, 12.83113956451416
0, 3, 113, 7.471478462219238
0, 3, 114, 10.39023399353027
0, 3, 115, 9.399765014648438
0, 3, 116, 7.903101921081543
0, 3, 117, 12.37520408630371
0, 3, 118, 8.084338188171387
0, 3, 119, 6.200838088989258
0, 3, 120, 4.493209838867188
0, 3, 121, 2.437047481536865
0, 3, 122, 2.190128803253174
0, 3, 123, 6.410927772521973
0, 3, 124, 1.807807803153992
0, 3, 125, 8.103407859802246
0, 3, 126, 5.073819637298584
0, 3, 127, 2.947410345077515
0, 4, 0, 2.379681587219238
0, 4, 1, 6.758896350860596
0, 4, 2, 3.252384662628174
0, 4, 3, 2.402052164077759
0, 4, 4, 5.944805145263672
0, 4, 5, 8.357706069946289
0, 4, 6, 8.442133903503418
0, 4, 7, 5.200175285339355
0, 4, 8, 5.647610664367676
0, 4, 9, 6.496301174163818
0, 4, 10, 6.77232551574707
0, 4, 11, 7.459134578704834
0, 4, 12, 6.045927047729492
0, 4, 13, 8.622233390808105
0, 4, 14, 11.27851104736328
0, 4, 15, 11.35512256622314
0, 4, 16, 15.14902973175049
0, 4, 17, 18.2557201385498
0, 4, 18, 92.75602722167969
0, 4, 19, 224.0291595458984
0, 4, 20, 283.2742919921875
0, 4, 21, 273.0091857910156
0, 4, 22, 304.9248352050781
0, 4, 23, 267.4410400390625
0, 4, 24, 289.2221069335938
0, 4, 25, 271.819091796875
0, 4, 26, 295.4716186523438
0, 4, 27, 283.8301391601562
0, 4, 28, 307.3737487792969
0, 4, 29, 322.5004577636719
0, 4, 30, 311.3961486816406
0, 4, 31, 307.1143188476562
0, 4, 32, 279.7698364257812
0, 4, 33, 296.8088073730469
0, 4, 34, 296.7951049804688
0, 4, 35, 311.93310546875
0, 4, 36, 293.4454650878906
0, 4, 37, 288.8231506347656
0, 4, 38, 297.6784057617188
0, 4, 39, 293.5692443847656
0, 4, 40, 301.7760620117188
0, 4, 41, 312.9976196289062
0, 4, 42, 331.2925720214844
0, 4, 43, 300.1480712890625
0, 4, 44, 320.2217102050781
0, 4, 45, 323.657470703125
0, 4, 46, 306.7898864746094
0, 4, 47, 292.7354125976562
0, 4, 48, 297.7821044921875
0, 4, 49, 278.1608581542969
0, 4, 50, 296.5688171386719
0, 4, 51, 316.1526794433594
0, 4, 52, 326.8055725097656
0, 4, 53, 304.1441955566406
0, 4, 54, 288.5983581542969
0, 4, 55, 314.6336669921875
0, 4, 56, 289.6793518066406
0, 4, 57, 308.8690795898438
0, 4, 58, 296.5013732910156
0, 4, 59, 310.3669738769531
0, 4, 60, 302.0482482910156
0, 4, 61, 317.1210632324219
0, 4, 62, 308.4325561523438
0, 4, 63, 298.4889221191406
0, 4, 64, 331.2009582519531
0, 4, 65, 315.6964721679688
0, 4, 66, 293.9290466308594
0, 4, 67, 287.383056640625
0, 4, 68, 315.4086608886719
0, 4, 69, 277.100341796875
0, 4, 70, 299.7947692871094
0, 4, 71, 321.32568359375
0, 4, 72, 331.3704528808594
0, 4, 73, 300.5530395507812
0, 4, 74, 292.5518188476562
0, 4, 75, 289.3016357421875
0, 4, 76, 275.072021484375
0, 4, 77, 276.888427734375
0, 4, 78, 308.8976440429688
0, 4, 79, 318.3378295898438
0, 4, 80, 316.0762634277344
0, 4, 81, 313.4097900390625
0, 4, 82, 298.2400512695312
0, 4, 83, 302.1675720214844
0, 4, 84, 293.6409912109375
0, 4, 85, 295.1373901367188
0, 4, 86, 298.4160461425781
0, 4, 87, 283.97802734375
0, 4, 88, 305.7176513671875
0, 4, 89, 294.6204833984375
0, 4, 90, 334.0540771484375
0, 4, 91, 300.9679565429688
0, 4, 92, 292.2038269042969
0, 4, 93, 298.6332702636719
0, 4, 94, 294.748291015625
0, 4, 95, 289.2598266601562
0, 4, 96, 325.7493286132812
0, 4, 97, 273.6485595703125
0, 4, 98, 326.3805541992188
0, 4, 99, 313.3927917480469
0, 4, 100, 300.5285949707031
0, 4, 101, 256.3239135742188
0, 4, 102, 299.2724914550781
0, 4, 103, 317.164306640625
0, 4, 104, 282.1512145996094
0, 4, 105, 310.318603515625
0, 4, 106, 285.8312072753906
0, 4, 107, 293.9360656738281
0, 4, 108, 226.6221771240234
0, 4, 109, 79.50691223144531
0, 4, 110, 16.24696922302246
0, 4, 111, 12.88334846496582
0, 4, 112, 8.671202659606934
0, 4, 113, 13.16465759277344
0, 4, 114, 8.221940994262695
0, 4, 115, 10.16907501220703
0, 4, 116, 8.376359939575195
0, 4, 117, 7.770180225372314
0, 4, 118, 13.26288890838623
0, 4, 119, 11.32957363128662
0, 4, 120, 7.701980590820312
0, 4, 121, 9.17206859588623
0, 4, 122, 3.700458765029907
0, 4, 123, 6.552670478820801
0, 4, 124, 3.825846433639526
0, 4, 125, 9.014797210693359
0, 4, 126, 3.103724002838135
0, 4, 127, 3.419216394424438
0, 5, 0, 3.364486932754517
0, 5, 1, 3.529394149780273
0, 5, 2, 2.90376091003418
0, 5, 3, 4.084538459777832
0, 5, 4, 4.219689846038818
0, 5, 5, 6.835492134094238
0, 5, 6, 7.196196556091309
0, 5, 7, 5.380209922790527
0, 5, 8, 4.065630912780762
0, 5, 9, 5.644506931304932
0, 5, 10, 5.578444480895996
0, 5, 11, 6.725778579711914
0, 5, 12, 9.233512878417969
0, 5, 13, 9.161252975463867
0, 5, 14, 11.75603675842285
0, 5, 15, 16.84476470947266
0, 5, 16, 13.46221256256104
0, 5, 17, 27.55974769592285
0, 5, 18, 137.6496429443359
0, 5, 19, 287.8394775390625
0, 5, 20, 306.1522521972656
0, 5, 21, 317.1533813476562
0, 5, 22, 274.881591796875
0, 5, 23, 310.3562622070312
0, 5, 24, 303.0511474609375
0, 5, 25, 288.0083923339844
0, 5, 26, 296.7953491210938
0, 5, 27, 322.0449829101562
0, 5, 28, 301.6121826171875
0, 5, 29, 297.6881103515625
0, 5, 30, 324.8871459960938
0, 5, 31, 286.8739624023438
0, 5, 32, 302.1622619628906
0, 5, 33, 304.6968994140625
0, 5, 34, 298.4736022949219
0, 5, 35, 311.0849914550781
0, 5, 36, 269.7615661621094
0, 5, 37, 282.6864929199219
0, 5, 38, 291.835205078125
0, 5, 39, 311.0625
0, 5, 40, 307.7864379882812
0, 5, 41, 272.7018127441406
0, 5, 42, 306.6100158691406
0, 5, 43, 312.9211120605469
0, 5, 44, 291.9631652832031
0, 5, 45, 305.1396484375
0, 5, 46, 264.8605346679688
0, 5, 47, 281.5418701171875
0, 5, 48, 294.1593933105469
0, 5, 49, 285.8998413085938
0, 5, 50, 294.8923645019531
0, 5, 51, 278.2432250976562
0, 5, 52, 268.8518981933594
0, 5, 53, 285.190185546875
0, 5, 54, 292.1279602050781
0, 5, 55, 347.3081665039062
0, 5, 56, 305.4735717773438
0, 5, 57, 307.8309326171875
0, 5, 58, 313.7397766113281
0, 5, 59, 302.98486328125
0, 5, 60, 308.7780456542969
0, 5, 61, 281.3347778320312
0, 5, 62, 328.0887145996094
0, 5, 63, 292.3904418945312
0, 5, 64, 324.0977172851562
0, 5, 65, 307.3414001464844
0, 5, 66, 325.2896118164062
0, 5, 67, 314.0302124023438
0, 5, 68, 308.8266906738281
0, 5, 69, 311.6343078613281
0, 5, 70, 298.8212585449219
0, 5, 71, 272.8846740722656
0, 5, 72, 312.7105102539062
0, 5, 73, 304.5748291015625
0, 5, 74, 295.2604064941406
0, 5, 75, 295.4883117675781
0, 5, 76, 289.4037170410156
0, 5, 77, 297.7857666015625
0, 5, 78, 313.9760437011719
0, 5, 79, 306.1654052734375
0, 5, 80, 294.8546142578125
0, 5, 81, 325.8875122070312
0, 5, 82, 324.0320434570312
0, 5, 83, 280.4070129394531
0, 5, 84, 303.3092041015625
0, 5, 85, 270.8735046386719
0, 5, 86, 325.3002319335938
0, 5, 87, 284.3174438476562
0, 5, 88, 312.6577453613281
0, 5, 89, 303.9500122070312
0, 5, 90, 315.1315002441406
0, 5, 91, 314.1347961425781
0, 5, 92, 295.1956787109375
0, 5, 93, 323.0107116699219
0, 5, 94, 312.5829467773438
0, 5, 95, 296.7496337890625
0, 5, 96, 296.9059448242188
0, 5, 97, 295.4000244140625
0, 5, 98, 319.2856140136719
0, 5, 99, 302.173828125
0, 5, 100, 289.3993530273438
0, 5, 101, 306.7246398925781
0, 5, 102, 294.2222290039062
0, 5, 103, 313.7808532714844
0, 5, 104, 303.7705993652344
0, 5, 105, 292.8193359375
0, 5, 106, 281.0529174804688
0, 5, 107, 293.0354309082031
0, 5, 108, 263.4336853027344
0, 5, 109, 157.1000213623047
0, 5, 110, 41.57600021362305
0, 5, 111, 20.97833251953125
0, 5, 112, 18.29367065429688
0, 5, 113, 14.32974720001221
0, 5, 114, 13.24770164489746
0, 5, 115, 6.719735622406006
0, 5, 116, 7.453635215759277
0, 5, 117, 6.610165596008301
0, 5, 118, 13.8294038772583
0, 5, 119, 4.131335735321045
0, 5, 120, 6.558271884918213
0, 5, 121, 6.08753776550293
0, 5, 122, 6.473631381988525
0, 5, 123, 6.424710750579834
0, 5, 124, 7.224486351013184
0, 5, 125, 4.796310424804688
0, 5, 126, 5.732085704803467
0, 5, 127, 4.386816501617432
0, 6, 0, 3.372136116027832
0, 6, 1, 2.289375066757202
0, 6, 2, 4.927618503570557
0, 6, 3, 5.697103500366211
0, 6, 4, 3.890950918197632
0, 6, 5, 4.920101165771484
0, 6, 6, 8.860541343688965
0, 6, 7, 7.761416912078857
0, 6, 8, 8.300105094909668
0, 6, 9, 7.101958274841309
0, 6, 10, 8.848957061767578
0, 6, 11, 7.427801609039307
0, 6, 12, 7.491184711456299
0, 6, 13, 13.25424766540527
0, 6, 14, 10.08998680114746
0, 6, 15, 18.01085090637207
0, 6, 16, 30.14698600769043
0, 6, 17, 54.86042022705078
0, 6, 18, 172.9058380126953
0, 6, 19, 275.73486328125
0, 6, 20, 290.4464111328125
0, 6, 21, 314.129638671875
0, 6, 22, 319.6828918457031
0, 6, 23, 308.5953674316406
0, 6, 24, 316.0190734863281
0, 6, 25, 317.010498046875
0, 6, 26, 318.3888549804688
0, 6, 27, 332.764892578125
0, 6, 28, 293.4411315917969
0, 6, 29, 331.9981689453125
0, 6, 30, 283.281494140625
0, 6, 31, 284.9810791015625
0, 6, 32, 340.4087219238281
0, 6, 33, 299.3748779296875
0, 6, 34, 343.5654907226562
0, 6, 35, 320.9526672363281
0, 6, 36, 273.2448425292969
0, 6, 37, 288.1965637207031
0, 6, 38, 311.0178527832031
0, 6, 39, 298.5333862304688
0, 6, 40, 284.0349426269531
0, 6, 41, 296.5064392089844
0, 6, 42, 303.640380859375
0, 6, 43, 289.5258483886719
0, 6, 44, 280.6729431152344
0, 6, 45, 321.0150451660156
0, 6, 46, 301.6543273925781
0, 6, 47, 334.1295776367188
0, 6, 48, 293.8181762695312
0, 6, 49, 310.6991271972656
0, 6, 50, 327.7230224609375
0, 6, 51, 310.3989562988281
0, 6, 52, 325.9402770996094
0, 6, 53, 330.6790771484375
0, 6, 54, 302.93505859375
0, 6, 55, 306.9908752441406
0, 6, 56, 293.0004272460938
0, 6, 57, 313.2257385253906
0, 6, 58, 262.5845947265625
0, 6, 59, 301.832763671875
0, 6, 60, 315.5437316894531
0, 6, 61, 273.5506591796875
0, 6, 62, 339.8158874511719
0, 6, 63, 325.6886291503906
0, 6, 64, 292.5362548828125
0, 6, 65, 284.7399291992188
0, 6, 66, 302.4513854980469
0, 6, 67, 308.812744140625
0, 6, 68, 292.9108276367188
0, 6, 69, 277.8948059082031
0, 6, 70, 274.6860961914062
0, 6, 71, 289.63525390625
0, 6, 72, 310.8330993652344
0, 6, 73, 293.641845703125
0, 6, 74, 329.9033508300781
0, 6, 75, 345.9184265136719
0, 6, 76, 295.8812255859375
0, 6, 77, 286.8297729492188
0, 6, 78, 278.3778686523438
0, 6, 79, 291.6208801269531
0, 6, 80, 299.564697265625
0, 6, 81, 315.0059814453125
0, 6, 82, 320.9873046875
0, 6, 83, 317.4541320800781
0, 6, 84, 297.7903747558594
0, 6, 85, 301.0479736328125
0, 6, 86, 329.7596435546875
0, 6, 87, 292.0498962402344
0, 6, 88, 307.7116394042969
0, 6, 89, 304.9884033203125
0, 6, 90, 301.395751953125
0, 6, 91, 312.1305847167969
0, 6, 92, 285.0986328125
0, 6, 93, 293.1120910644531
0, 6, 94, 272.57861328125
0, 6, 95, 299.4475402832031
0, 6, 96, 349.5420532226562
0, 6, 97, 309.0475769042969
0, 6, 98, 300.7415771484375
0, 6, 99, 272.3067321777344
0, 6, 100, 309.1060485839844
0, 6, 101, 291.8506469726562
0, 6, 102, 307.2334289550781
0, 6, 103, 307.339111328125
0, 6, 104, 293.0487670898438
0, 6, 105, 302.2497253417969
0, 6, 106, 308.8825988769531
0, 6, 107, 308.25244140625
0, 6, 108, 266.6552734375
0, 6, 109, 186.8147277832031
0, 6, 110, 54.64236068725586
0, 6, 111, 22.93851852416992
0, 6, 112, 13.90320587158203
0, 6, 113, 10.89319324493408
0, 6, 114, 12.68894863128662
0, 6, 115, 12.30995559692383
0, 6, 116, 8.340629577636719
0, 6, 117, 5.933878421783447
0, 6, 118, 9.750846862792969
0, 6, 119, 8.768465042114258
0, 6, 120, 5.285778999328613
0, 6, 121, 6.173591613769531
0, 6, 122, 9.534314155578613
0, 6, 123, 6.044739246368408
0, 6, 124, 8.107521057128906
0, 6, 125, 5.861583709716797
0, 6, 126, 4.752522945404053
0, 6, 127, 4.912032604217529
0, 7, 0, 7.503782749176025
0, 7, 1, 4.043537616729736
0, 7, 2, 5.13762903213501
0, 7, 3, 3.626076459884644
0, 7, 4, 3.004677295684814
0, 7, 5, 4.632481575012207
0, 7, 6, 7.18058967590332
0, 7, 7, 4.484114646911621
0, 7, 8, 4.490819454193115
0, 7, 9, 5.363881587982178
0, 7, 10, 8.806245803833008
0, 7, 11, 9.647805213928223
0, 7, 12, 11.32114315032959
0, 7, 13, 12.13545513153076
0, 7, 14, 10.35757923126221
0, 7, 15, 17.41340827941895
0, 7, 16, 26.09632873535156
0, 7, 17, 98.95347595214844
0, 7, 18, 218.7385101318359
0, 7, 19, 287.9854125976562
0, 7, 20, 296.6216125488281
0, 7, 21, 276.0330200195312
0, 7, 22, 297.7747192382812
0, 7, 23, 289.5712585449219
0, 7, 24, 316.403076171875
0, 7, 25, 325.0726928710938
0, 7, 26, 280.27392578125
0, 7, 27, 297.3799743652344
0, 7, 28, 325.7573852539062
0, 7, 29, 318.6805725097656
0, 7, 30, 301.7598571777344
0, 7, 31, 277.4176025390625
0, 7, 32, 305.3052062988281
0, 7, 33, 265.7001342773438
0, 7, 34, 298.2481079101562
0, 7, 35, 319.5815734863281
0, 7, 36, 331.156982421875
0, 7, 37, 324.9024658203125
0, 7, 38, 295.2534790039062
0, 7, 39, 305.8385314941406
0, 7, 40, 289.1554870605469
0, 7, 41, 273.5007934570312
0, 7, 42, 299.3375244140625
0, 7, 43, 272.3392333984375
0, 7, 44, 303.0340576171875
0, 7, 45, 293.9085998535156
0, 7, 46, 281.4037780761719
0, 7, 47, 329.5135192871094
0, 7, 48, 284.94482421875
0, 7, 49, 301.1932678222656
0, 7, 50, 321.12353515625
0, 7, 51, 299.2019958496094
0, 7, 52, 327.0103149414062
0, 7, 53, 312.1571960449219
0, 7, 54, 322.8952331542969
0, 7, 55, 308.8585510253906
0, 7, 56, 279.5738525390625
0, 7, 57, 281.2394714355469
0, 7, 58, 296.8465881347656
0, 7, 59, 294.2190551757812
0, 7, 60, 324.5662536621094
0, 7, 61, 279.0000305175781
0, 7, 62, 296.6624755859375
0, 7, 63, 293.2244873046875
0, 7, 64, 305.78857421875
0, 7, 65, 330.3924255371094
0, 7, 66, 318.3786926269531
0, 7, 67, 302.0926818847656
0, 7, 68, 282.0355834960938
0, 7, 69, 294.9551086425781
0, 7, 70, 302.2018737792969
0, 7, 71, 310.7526245117188
0, 7, 72, 286.6963500976562
0, 7, 73, 296.3837890625
0, 7, 74, 345.9701232910156
0, 7, 75, 319.9952087402344
0, 7, 76, 322.4871215820312
0, 7, 77, 279.5577697753906
0, 7, 78, 298.8461608886719
0, 7, 79, 297.5386962890625
0, 7, 80, 312.1290893554688
0, 7, 81, 318.4483337402344
0, 7, 82, 328.3409729003906
0, 7, 83, 315.8182067871094
0, 7, 84, 309.04443359375
0, 7, 85, 271.5819396972656
0, 7, 86, 311.5199584960938
0, 7, 87, 308.0890808105469
0, 7, 88, 309.308349609375
0, 7, 89, 295.0234985351562
0, 7, 90, 307.2921142578125
0, 7, 91, 316.1190795898438
0, 7, 92, 285.4375305175781
0, 7, 93, 309.0614929199219
0, 7, 94, 273.0544738769531
0, 7, 95, 297.6868286132812
0, 7, 96, 332.1336975097656
0, 7, 97, 295.1791076660156
0, 7, 98, 291.9874572753906
0, 7, 99, 310.1487731933594
0, 7, 100, 281.3830871582031
0, 7, 101, 276.3388977050781
0, 7, 102, 291.9635925292969
0, 7, 103, 293.48974609375
0, 7, 104, 275.5063781738281
0, 7, 105, 306.603759765625
0, 7, 106, 317.4530639648438
0, 7, 107, 296.331787109375
0, 7, 108, 272.5903015136719
0, 7, 109, 234.7757720947266
0, 7, 110, 98.76895141601562
0, 7, 111, 23.68281173706055
0, 7, 112, 14.05149745941162
0, 7, 113, 13.48815631866455
0, 7, 114, 14.53827953338623
0, 7, 115, 13.23583984375
0, 7, 116, 7.423986911773682
0, 7, 117, 8.556624412536621
0, 7, 118, 6.828835964202881
0, 7, 119, 5.191946506500244
0, 7, 120, 4.450382232666016
0, 7, 121, 9.245449066162109
0, 7, 122, 7.885634899139404
0, 7, 123, 5.630178928375244
0, 7, 124, 4.657488346099854
0, 7, 125, 7.494581699371338
0, 7, 126, 7.748867988586426
0, 7, 127, 2.703227758407593
0, 8, 0, 5.146965980529785
0, 8, 1, 3.176493883132935
0, 8, 2, 5.100094318389893
0, 8, 3, 3.445168018341064
0, 8, 4, 4.443556785583496
0, 8, 5, 7.309632778167725
0, 8, 6, 4.780074596405029
0, 8, 7, 5.534491539001465
0, 8, 8, 7.915074825286865
0, 8, 9, 6.178431034088135
0, 8, 10, 8.640954971313477
0, 8, 11, 10.91186618804932
0, 8, 12, 14.47239685058594
0, 8, 13, 17.46749687194824
0, 8, 14, 15.03240871429443
0, 8, 15, 17.35592269897461
0, 8, 16, 32.29695892333984
0, 8, 17, 130.5161590576172
0, 8, 18, 245.5487060546875
0, 8, 19, 295.1328735351562
0, 8, 20, 284.2496337890625
0, 8, 21, 307.6370239257812
0, 8, 22, 295.8534240722656
0, 8, 23, 274.5569763183594
0, 8, 24, 267.5089416503906
0, 8, 25, 277.4412231445312
0, 8, 26, 306.5480346679688
0, 8, 27, 307.9519348144531
0, 8, 28, 304.1515502929688
0, 8, 29, 318.7791137695312
0, 8, 30, 314.2184753417969
0, 8, 31, 304.0109252929688
0, 8, 32, 279.8151245117188
0, 8, 33, 294.928466796875
0, 8, 34, 289.6007690429688
0, 8, 35, 280.0902099609375
0, 8, 36, 317.2216186523438
0, 8, 37, 340.0380554199219
0, 8, 38, 333.5284729003906
0, 8, 39, 281.2225952148438
