# TOPAS Version: 3.1.p3
# Parameter File: batch_inserts_74.txt
# Results for scorer Readout_Adipose
# Scored in component: MyBox
# X in 1 bin  of 0.75 cm
# Y in 512 bins of 0.0783984 cm
# Z in 128 bins of 0.078125 cm
# EnergyDeposit ( MeV ) : Sum   
0, 0, 0, 3.249075889587402
0, 0, 1, 3.221031427383423
0, 0, 2, 5.04913854598999
0, 0, 3, 3.840321779251099
0, 0, 4, 4.496517658233643
0, 0, 5, 2.779945135116577
0, 0, 6, 6.052761554718018
0, 0, 7, 10.58772754669189
0, 0, 8, 2.699281454086304
0, 0, 9, 4.355086803436279
0, 0, 10, 6.313064575195312
0, 0, 11, 4.046676635742188
0, 0, 12, 4.697414875030518
0, 0, 13, 7.246013641357422
0, 0, 14, 6.290911674499512
0, 0, 15, 10.17379283905029
0, 0, 16, 8.317096710205078
0, 0, 17, 8.310298919677734
0, 0, 18, 13.54838466644287
0, 0, 19, 45.02877807617188
0, 0, 20, 139.4550476074219
0, 0, 21, 222.9522399902344
0, 0, 22, 249.8186645507812
0, 0, 23, 255.2030029296875
0, 0, 24, 253.2366485595703
0, 0, 25, 257.8211059570312
0, 0, 26, 233.8559112548828
0, 0, 27, 237.0622253417969
0, 0, 28, 272.9122924804688
0, 0, 29, 253.1459197998047
0, 0, 30, 229.1812286376953
0, 0, 31, 243.9365692138672
0, 0, 32, 263.4898071289062
0, 0, 33, 261.2233581542969
0, 0, 34, 288.84619140625
0, 0, 35, 269.1730346679688
0, 0, 36, 246.3839569091797
0, 0, 37, 252.1488037109375
0, 0, 38, 268.8773193359375
0, 0, 39, 228.8723907470703
0, 0, 40, 243.9715881347656
0, 0, 41, 267.2029418945312
0, 0, 42, 229.5888671875
0, 0, 43, 258.9674987792969
0, 0, 44, 250.8627319335938
0, 0, 45, 253.3533935546875
0, 0, 46, 243.2182159423828
0, 0, 47, 251.2450866699219
0, 0, 48, 265.69921875
0, 0, 49, 273.0004272460938
0, 0, 50, 252.0373687744141
0, 0, 51, 254.1351928710938
0, 0, 52, 274.2959289550781
0, 0, 53, 291.3045349121094
0, 0, 54, 241.8858947753906
0, 0, 55, 239.9262237548828
0, 0, 56, 278.88916015625
0, 0, 57, 262.4804992675781
0, 0, 58, 246.6175994873047
0, 0, 59, 271.2091064453125
0, 0, 60, 235.3892059326172
0, 0, 61, 246.5462036132812
0, 0, 62, 257.2276306152344
0, 0, 63, 266.4691772460938
0, 0, 64, 255.3516540527344
0, 0, 65, 263.1130981445312
0, 0, 66, 277.5899353027344
0, 0, 67, 248.1019287109375
0, 0, 68, 257.9801330566406
0, 0, 69, 260.8931579589844
0, 0, 70, 273.06103515625
0, 0, 71, 236.7745666503906
0, 0, 72, 251.5996856689453
0, 0, 73, 258.7882690429688
0, 0, 74, 252.09716796875
0, 0, 75, 239.1616973876953
0, 0, 76, 228.8861694335938
0, 0, 77, 262.2254638671875
0, 0, 78, 255.2523651123047
0, 0, 79, 277.9293823242188
0, 0, 80, 218.3004150390625
0, 0, 81, 268.6939086914062
0, 0, 82, 255.5134429931641
0, 0, 83, 246.9317932128906
0, 0, 84, 269.1826477050781
0, 0, 85, 230.84326171875
0, 0, 86, 253.6408386230469
0, 0, 87, 251.9613494873047
0, 0, 88, 260.1689147949219
0, 0, 89, 284.1267700195312
0, 0, 90, 244.0858917236328
0, 0, 91, 281.851806640625
0, 0, 92, 253.8984527587891
0, 0, 93, 250.0638275146484
0, 0, 94, 249.5688323974609
0, 0, 95, 247.8740539550781
0, 0, 96, 274.4979858398438
0, 0, 97, 272.1769104003906
0, 0, 98, 273.2025451660156
0, 0, 99, 260.1322021484375
0, 0, 100, 257.56884765625
0, 0, 101, 224.6025085449219
0, 0, 102, 230.9562530517578
0, 0, 103, 271.0688171386719
0, 0, 104, 253.4352874755859
0, 0, 105, 251.3554077148438
0, 0, 106, 246.96630859375
0, 0, 107, 151.7564849853516
0, 0, 108, 38.14035797119141
0, 0, 109, 11.73720264434814
0, 0, 110, 11.52301597595215
0, 0, 111, 9.110116004943848
0, 0, 112, 7.786223411560059
0, 0, 113, 7.029569625854492
0, 0, 114, 7.693272590637207
0, 0, 115, 3.752163171768188
0, 0, 116, 6.783727645874023
0, 0, 117, 7.240201473236084
0, 0, 118, 6.728829860687256
0, 0, 119, 3.737950325012207
0, 0, 120, 4.540578842163086
0, 0, 121, 3.110336065292358
0, 0, 122, 5.332799434661865
0, 0, 123, 2.406968593597412
0, 0, 124, 4.371939659118652
0, 0, 125, 4.055251598358154
0, 0, 126, 4.799468517303467
0, 0, 127, 3.607220888137817
0, 1, 0, 9.856212615966797
0, 1, 1, 3.834793090820312
0, 1, 2, 5.252961158752441
0, 1, 3, 2.053879022598267
0, 1, 4, 3.289467811584473
0, 1, 5, 4.005226612091064
0, 1, 6, 4.263814449310303
0, 1, 7, 6.451395034790039
0, 1, 8, 8.278693199157715
0, 1, 9, 3.997909307479858
0, 1, 10, 6.892224311828613
0, 1, 11, 12.59581089019775
0, 1, 12, 11.39703273773193
0, 1, 13, 10.76725578308105
0, 1, 14, 7.361319065093994
0, 1, 15, 7.337451457977295
0, 1, 16, 11.84935855865479
0, 1, 17, 12.60521697998047
0, 1, 18, 20.48883438110352
0, 1, 19, 66.81751251220703
0, 1, 20, 199.9774780273438
0, 1, 21, 254.1309051513672
0, 1, 22, 294.7249450683594
0, 1, 23, 283.9871215820312
0, 1, 24, 275.5779418945312
0, 1, 25, 285.7424621582031
0, 1, 26, 267.4599304199219
0, 1, 27, 305.6615600585938
0, 1, 28, 301.3609008789062
0, 1, 29, 297.6689147949219
0, 1, 30, 278.9933166503906
0, 1, 31, 292.2276306152344
0, 1, 32, 289.8622131347656
0, 1, 33, 295.1830139160156
0, 1, 34, 293.1339721679688
0, 1, 35, 281.0582885742188
0, 1, 36, 306.6710510253906
0, 1, 37, 295.3548278808594
0, 1, 38, 278.2322692871094
0, 1, 39, 296.0947265625
0, 1, 40, 265.2550964355469
0, 1, 41, 285.521728515625
0, 1, 42, 291.7041320800781
0, 1, 43, 331.9732971191406
0, 1, 44, 279.3383178710938
0, 1, 45, 292.1537170410156
0, 1, 46, 260.7356262207031
0, 1, 47, 315.9835205078125
0, 1, 48, 285.8194885253906
0, 1, 49, 300.2171325683594
0, 1, 50, 265.3924865722656
0, 1, 51, 271.4976196289062
0, 1, 52, 298.9462280273438
0, 1, 53, 306.0019836425781
0, 1, 54, 273.9618835449219
0, 1, 55, 294.7022705078125
0, 1, 56, 278.808837890625
0, 1, 57, 298.8839111328125
0, 1, 58, 311.4233703613281
0, 1, 59, 291.4089660644531
0, 1, 60, 298.6628112792969
0, 1, 61, 274.2696533203125
0, 1, 62, 307.9602355957031
0, 1, 63, 285.3469848632812
0, 1, 64, 289.294189453125
0, 1, 65, 296.2096557617188
0, 1, 66, 292.2369995117188
0, 1, 67, 291.9266052246094
0, 1, 68, 278.0661010742188
0, 1, 69, 281.9355163574219
0, 1, 70, 271.8405151367188
0, 1, 71, 273.6533508300781
0, 1, 72, 284.9536437988281
0, 1, 73, 306.3447570800781
0, 1, 74, 305.1271057128906
0, 1, 75, 291.7403564453125
0, 1, 76, 284.9237976074219
0, 1, 77, 290.3691711425781
0, 1, 78, 296.5495300292969
0, 1, 79, 301.9782409667969
0, 1, 80, 295.6283264160156
0, 1, 81, 300.5529479980469
0, 1, 82, 283.5216369628906
0, 1, 83, 331.6822814941406
0, 1, 84, 306.7449645996094
0, 1, 85, 254.0090026855469
0, 1, 86, 294.3729553222656
0, 1, 87, 289.9976501464844
0, 1, 88, 297.2933654785156
0, 1, 89, 289.5494995117188
0, 1, 90, 270.7842102050781
0, 1, 91, 317.1026306152344
0, 1, 92, 289.5360412597656
0, 1, 93, 286.7252807617188
0, 1, 94, 302.8367004394531
0, 1, 95, 284.3023071289062
0, 1, 96, 283.0917053222656
0, 1, 97, 300.7655944824219
0, 1, 98, 276.8119812011719
0, 1, 99, 264.5929565429688
0, 1, 100, 276.8262329101562
0, 1, 101, 281.8024597167969
0, 1, 102, 278.9266052246094
0, 1, 103, 281.4879150390625
0, 1, 104, 307.265869140625
0, 1, 105, 297.0910949707031
0, 1, 106, 261.9486694335938
0, 1, 107, 195.5839233398438
0, 1, 108, 81.19454956054688
0, 1, 109, 24.04464721679688
0, 1, 110, 11.22543907165527
0, 1, 111, 7.873580932617188
0, 1, 112, 11.77332401275635
0, 1, 113, 7.313652038574219
0, 1, 114, 6.372535228729248
0, 1, 115, 6.501594066619873
0, 1, 116, 11.41487693786621
0, 1, 117, 5.586866855621338
0, 1, 118, 4.80061149597168
0, 1, 119, 6.80577278137207
0, 1, 120, 3.529412746429443
0, 1, 121, 3.955031156539917
0, 1, 122, 2.261306762695312
0, 1, 123, 8.121628761291504
0, 1, 124, 8.840619087219238
0, 1, 125, 3.944652318954468
0, 1, 126, 3.166539430618286
0, 1, 127, 0.8431233763694763
0, 2, 0, 2.892258644104004
0, 2, 1, 6.040188312530518
0, 2, 2, 3.517608165740967
0, 2, 3, 5.864391803741455
0, 2, 4, 2.800223827362061
0, 2, 5, 3.916780471801758
0, 2, 6, 2.73487114906311
0, 2, 7, 4.048303127288818
0, 2, 8, 5.12352991104126
0, 2, 9, 6.261791706085205
0, 2, 10, 6.576134204864502
0, 2, 11, 5.353156566619873
0, 2, 12, 7.434349536895752
0, 2, 13, 9.189914703369141
0, 2, 14, 10.92780780792236
0, 2, 15, 6.848889350891113
0, 2, 16, 9.458826065063477
0, 2, 17, 17.34385871887207
0, 2, 18, 30.86076164245605
0, 2, 19, 115.9245910644531
0, 2, 20, 246.3616943359375
0, 2, 21, 270.9947814941406
0, 2, 22, 316.1708068847656
0, 2, 23, 301.7078857421875
0, 2, 24, 287.5877075195312
0, 2, 25, 305.1499328613281
0, 2, 26, 294.0126342773438
0, 2, 27, 275.5447082519531
0, 2, 28, 280.0441589355469
0, 2, 29, 273.7033996582031
0, 2, 30, 289.2813110351562
0, 2, 31, 278.9023132324219
0, 2, 32, 294.3853149414062
0, 2, 33, 282.3140258789062
0, 2, 34, 333.3135070800781
0, 2, 35, 291.4460754394531
0, 2, 36, 301.8052673339844
0, 2, 37, 317.9997253417969
0, 2, 38, 313.3617248535156
0, 2, 39, 266.7460632324219
0, 2, 40, 307.3913269042969
0, 2, 41, 291.7342529296875
0, 2, 42, 303.3528442382812
0, 2, 43, 313.3045043945312
0, 2, 44, 311.1061096191406
0, 2, 45, 324.59375
0, 2, 46, 287.7006530761719
0, 2, 47, 304.4854736328125
0, 2, 48, 279.7078857421875
0, 2, 49, 278.9223937988281
0, 2, 50, 293.8661804199219
0, 2, 51, 282.0542297363281
0, 2, 52, 274.8583984375
0, 2, 53, 286.7080993652344
0, 2, 54, 280.6300659179688
0, 2, 55, 272.8483276367188
0, 2, 56, 302.9186706542969
0, 2, 57, 291.057861328125
0, 2, 58, 300.7648315429688
0, 2, 59, 288.0968322753906
0, 2, 60, 318.9259948730469
0, 2, 61, 300.8016357421875
0, 2, 62, 312.3567504882812
0, 2, 63, 303.7275085449219
0, 2, 64, 295.9024353027344
0, 2, 65, 313.11572265625
0, 2, 66, 279.3416137695312
0, 2, 67, 291.7180786132812
0, 2, 68, 295.41455078125
0, 2, 69, 310.7796325683594
0, 2, 70, 333.9652709960938
0, 2, 71, 282.725341796875
0, 2, 72, 299.9924926757812
0, 2, 73, 312.3407287597656
0, 2, 74, 284.992919921875
0, 2, 75, 306.1556396484375
0, 2, 76, 286.0602722167969
0, 2, 77, 301.4879150390625
0, 2, 78, 314.8135375976562
0, 2, 79, 311.2078247070312
0, 2, 80, 296.928955078125
0, 2, 81, 281.5154418945312
0, 2, 82, 318.5922241210938
0, 2, 83, 311.6641540527344
0, 2, 84, 290.3736267089844
0, 2, 85, 281.3251953125
0, 2, 86, 325.1393127441406
0, 2, 87, 286.443359375
0, 2, 88, 280.0808410644531
0, 2, 89, 295.1203308105469
0, 2, 90, 295.5404968261719
0, 2, 91, 278.3394470214844
0, 2, 92, 304.7725524902344
0, 2, 93, 316.6313171386719
0, 2, 94, 291.9650268554688
0, 2, 95, 316.9458618164062
0, 2, 96, 316.4380798339844
0, 2, 97, 291.3012084960938
0, 2, 98, 296.8952026367188
0, 2, 99, 273.8806762695312
0, 2, 100, 308.0138854980469
0, 2, 101, 301.34033203125
0, 2, 102, 296.2331237792969
0, 2, 103, 293.3333129882812
0, 2, 104, 293.7819213867188
0, 2, 105, 274.256103515625
0, 2, 106, 297.6756286621094
0, 2, 107, 267.7173767089844
0, 2, 108, 115.9408187866211
0, 2, 109, 33.28409194946289
0, 2, 110, 11.19048881530762
0, 2, 111, 11.22301006317139
0, 2, 112, 10.49906826019287
0, 2, 113, 10.19049072265625
0, 2, 114, 10.59447193145752
0, 2, 115, 9.336431503295898
0, 2, 116, 10.34008693695068
0, 2, 117, 5.321521282196045
0, 2, 118, 3.323663234710693
0, 2, 119, 5.605942249298096
0, 2, 120, 4.3282790184021
0, 2, 121, 1.598053097724915
0, 2, 122, 4.489313125610352
0, 2, 123, 3.815808296203613
0, 2, 124, 3.756344556808472
0, 2, 125, 4.502952098846436
0, 2, 126, 4.447196960449219
0, 2, 127, 6.194268703460693
0, 3, 0, 2.336303234100342
0, 3, 1, 3.002309560775757
0, 3, 2, 3.191023111343384
0, 3, 3, 1.636900305747986
0, 3, 4, 4.593403339385986
0, 3, 5, 8.112404823303223
0, 3, 6, 6.711128234863281
0, 3, 7, 4.986919403076172
0, 3, 8, 5.160998344421387
0, 3, 9, 5.792476654052734
0, 3, 10, 7.015762329101562
0, 3, 11, 6.16801118850708
0, 3, 12, 5.755228042602539
0, 3, 13, 14.52090167999268
0, 3, 14, 12.48286914825439
0, 3, 15, 13.80138397216797
0, 3, 16, 9.460782051086426
0, 3, 17, 20.5053596496582
0, 3, 18, 53.56752395629883
0, 3, 19, 176.1224212646484
0, 3, 20, 269.2822875976562
0, 3, 21, 274.1026916503906
0, 3, 22, 282.6817626953125
0, 3, 23, 286.4145812988281
0, 3, 24, 286.1184387207031
0, 3, 25, 272.2919311523438
0, 3, 26, 304.2376098632812
0, 3, 27, 291.5586547851562
0, 3, 28, 282.24609375
0, 3, 29, 339.32080078125
0, 3, 30, 316.4920654296875
0, 3, 31, 286.7948303222656
0, 3, 32, 306.4900207519531
0, 3, 33, 314.8837585449219
0, 3, 34, 321.3612060546875
0, 3, 35, 305.0230712890625
0, 3, 36, 269.833984375
0, 3, 37, 315.0478820800781
0, 3, 38, 303.8764953613281
0, 3, 39, 287.9835510253906
0, 3, 40, 264.9290771484375
0, 3, 41, 299.9390258789062
0, 3, 42, 284.5447387695312
0, 3, 43, 305.1392822265625
0, 3, 44, 310.3106689453125
0, 3, 45, 292.6308288574219
0, 3, 46, 328.8126831054688
0, 3, 47, 298.5350646972656
0, 3, 48, 306.3504638671875
0, 3, 49, 276.6507873535156
0, 3, 50, 292.1860656738281
0, 3, 51, 276.0765380859375
0, 3, 52, 316.2953491210938
0, 3, 53, 290.9875183105469
0, 3, 54, 284.1131591796875
0, 3, 55, 283.8429260253906
0, 3, 56, 298.7138366699219
0, 3, 57, 286.7430419921875
0, 3, 58, 306.5581970214844
0, 3, 59, 295.0851135253906
0, 3, 60, 299.4028930664062
0, 3, 61, 266.1883239746094
0, 3, 62, 284.8976135253906
0, 3, 63, 307.9680786132812
0, 3, 64, 316.1318664550781
0, 3, 65, 304.497314453125
0, 3, 66, 315.2000427246094
0, 3, 67, 318.8848571777344
0, 3, 68, 278.8221740722656
0, 3, 69, 281.7933349609375
0, 3, 70, 288.7745971679688
0, 3, 71, 301.6115112304688
0, 3, 72, 269.5372619628906
0, 3, 73, 308.6115112304688
0, 3, 74, 293.5729370117188
0, 3, 75, 290.2739562988281
0, 3, 76, 305.3064575195312
0, 3, 77, 312.5763854980469
0, 3, 78, 302.2669372558594
0, 3, 79, 281.31201171875
0, 3, 80, 291.4866027832031
0, 3, 81, 310.9964599609375
0, 3, 82, 316.7881164550781
0, 3, 83, 301.9411315917969
0, 3, 84, 311.5102844238281
0, 3, 85, 293.4955749511719
0, 3, 86, 304.0847778320312
0, 3, 87, 297.6760559082031
0, 3, 88, 296.3712463378906
0, 3, 89, 296.7431945800781
0, 3, 90, 276.4814453125
0, 3, 91, 285.4432983398438
0, 3, 92, 303.0357360839844
0, 3, 93, 312.2940979003906
0, 3, 94, 298.0863952636719
0, 3, 95, 334.0757141113281
0, 3, 96, 290.9216613769531
0, 3, 97, 284.6369018554688
0, 3, 98, 276.3018493652344
0, 3, 99, 262.4766845703125
0, 3, 100, 283.1923217773438
0, 3, 101, 295.5747680664062
0, 3, 102, 273.6953430175781
0, 3, 103, 322.3161010742188
0, 3, 104, 307.4928283691406
0, 3, 105, 287.7603149414062
0, 3, 106, 302.4446411132812
0, 3, 107, 282.0502319335938
0, 3, 108, 168.5924377441406
0, 3, 109, 57.29647445678711
0, 3, 110, 19.58429145812988
0, 3, 111, 12.56451320648193
0, 3, 112, 16.54209136962891
0, 3, 113, 6.875682353973389
0, 3, 114, 9.781498908996582
0, 3, 115, 7.632132530212402
0, 3, 116, 9.017616271972656
0, 3, 117, 6.095533847808838
0, 3, 118, 8.945701599121094
0, 3, 119, 4.969398021697998
0, 3, 120, 4.648367881774902
0, 3, 121, 3.777869939804077
0, 3, 122, 4.200594902038574
0, 3, 123, 7.28880500793457
0, 3, 124, 5.684863567352295
0, 3, 125, 5.151219844818115
0, 3, 126, 4.751983642578125
0, 3, 127, 2.124675989151001
0, 4, 0, 2.123092889785767
0, 4, 1, 6.192901611328125
0, 4, 2, 2.685122728347778
0, 4, 3, 1.772781133651733
0, 4, 4, 5.455372333526611
0, 4, 5, 8.432966232299805
0, 4, 6, 6.042226791381836
0, 4, 7, 4.703979015350342
0, 4, 8, 3.83517599105835
0, 4, 9, 4.29226016998291
0, 4, 10, 6.25843334197998
0, 4, 11, 7.77266263961792
0, 4, 12, 6.179462432861328
0, 4, 13, 7.506973266601562
0, 4, 14, 10.2463207244873
0, 4, 15, 10.42921447753906
0, 4, 16, 13.89350509643555
0, 4, 17, 20.20577430725098
0, 4, 18, 93.75657653808594
0, 4, 19, 221.19970703125
0, 4, 20, 284.3827819824219
0, 4, 21, 272.8821105957031
0, 4, 22, 304.2665100097656
0, 4, 23, 266.88623046875
0, 4, 24, 288.711181640625
0, 4, 25, 271.7958068847656
0, 4, 26, 295.1225280761719
0, 4, 27, 282.5429992675781
0, 4, 28, 306.6988525390625
0, 4, 29, 320.7809143066406
0, 4, 30, 309.3757934570312
0, 4, 31, 305.7463073730469
0, 4, 32, 280.9270324707031
0, 4, 33, 296.4942932128906
0, 4, 34, 296.1042785644531
0, 4, 35, 311.2967529296875
0, 4, 36, 293.3251953125
0, 4, 37, 288.4709167480469
0, 4, 38, 297.4866027832031
0, 4, 39, 298.105712890625
0, 4, 40, 304.3038024902344
0, 4, 41, 311.8830871582031
0, 4, 42, 330.4317016601562
0, 4, 43, 296.8508911132812
0, 4, 44, 319.8519592285156
0, 4, 45, 322.9800109863281
0, 4, 46, 306.1262817382812
0, 4, 47, 292.50732421875
0, 4, 48, 293.4539489746094
0, 4, 49, 277.2077941894531
0, 4, 50, 295.3988037109375
0, 4, 51, 315.9294128417969
0, 4, 52, 327.8175964355469
0, 4, 53, 303.3383178710938
0, 4, 54, 285.8401184082031
0, 4, 55, 315.5401306152344
0, 4, 56, 285.2977905273438
0, 4, 57, 307.9466552734375
0, 4, 58, 295.9068298339844
0, 4, 59, 308.4535827636719
0, 4, 60, 302.7915649414062
0, 4, 61, 315.486083984375
0, 4, 62, 309.4977416992188
0, 4, 63, 297.6159973144531
0, 4, 64, 330.3644409179688
0, 4, 65, 316.7587890625
0, 4, 66, 294.2483825683594
0, 4, 67, 283.9011840820312
0, 4, 68, 314.2544860839844
0, 4, 69, 277.3685302734375
0, 4, 70, 301.1612243652344
0, 4, 71, 321.461181640625
0, 4, 72, 330.9508972167969
0, 4, 73, 299.5090026855469
0, 4, 74, 292.5310668945312
0, 4, 75, 289.2807006835938
0, 4, 76, 275.0989379882812
0, 4, 77, 279.4479064941406
0, 4, 78, 308.7701416015625
0, 4, 79, 318.8457641601562
0, 4, 80, 315.3589782714844
0, 4, 81, 313.7840270996094
0, 4, 82, 298.4451293945312
0, 4, 83, 302.312744140625
0, 4, 84, 291.8275451660156
0, 4, 85, 293.4382934570312
0, 4, 86, 296.6543884277344
0, 4, 87, 286.833740234375
0, 4, 88, 306.6984252929688
0, 4, 89, 295.9570617675781
0, 4, 90, 334.2117919921875
0, 4, 91, 301.5628356933594
0, 4, 92, 291.6363525390625
0, 4, 93, 296.5597229003906
0, 4, 94, 293.0664367675781
0, 4, 95, 288.0776062011719
0, 4, 96, 320.474853515625
0, 4, 97, 273.3825378417969
0, 4, 98, 326.7291259765625
0, 4, 99, 313.0032958984375
0, 4, 100, 302.5391845703125
0, 4, 101, 257.9351196289062
0, 4, 102, 296.5272521972656
0, 4, 103, 317.9647827148438
0, 4, 104, 281.5105590820312
0, 4, 105, 310.3890380859375
0, 4, 106, 286.3949279785156
0, 4, 107, 296.798583984375
0, 4, 108, 225.0877380371094
0, 4, 109, 80.801513671875
0, 4, 110, 18.22806930541992
0, 4, 111, 13.39686965942383
0, 4, 112, 8.955994606018066
0, 4, 113, 12.00194263458252
0, 4, 114, 10.21919345855713
0, 4, 115, 12.22058296203613
0, 4, 116, 9.8697509765625
0, 4, 117, 6.049084663391113
0, 4, 118, 9.088470458984375
0, 4, 119, 8.711056709289551
0, 4, 120, 8.238329887390137
0, 4, 121, 5.142833709716797
0, 4, 122, 5.108091831207275
0, 4, 123, 5.99610710144043
0, 4, 124, 5.9481201171875
0, 4, 125, 9.20841121673584
0, 4, 126, 5.777533054351807
0, 4, 127, 5.280244827270508
0, 5, 0, 3.97765040397644
0, 5, 1, 3.831981420516968
0, 5, 2, 4.532371997833252
0, 5, 3, 4.32502555847168
0, 5, 4, 6.1815505027771
0, 5, 5, 5.391845226287842
0, 5, 6, 6.038249492645264
0, 5, 7, 6.300662517547607
0, 5, 8, 6.932259559631348
0, 5, 9, 5.338399887084961
0, 5, 10, 8.002534866333008
0, 5, 11, 8.483281135559082
0, 5, 12, 7.308049201965332
0, 5, 13, 5.073401927947998
0, 5, 14, 13.42734336853027
0, 5, 15, 17.47389793395996
0, 5, 16, 13.41658496856689
0, 5, 17, 28.80112075805664
0, 5, 18, 137.5284881591797
0, 5, 19, 288.1363830566406
0, 5, 20, 307.2194519042969
0, 5, 21, 316.389404296875
0, 5, 22, 275.4152526855469
0, 5, 23, 312.2948608398438
0, 5, 24, 302.4982604980469
0, 5, 25, 289.1219482421875
0, 5, 26, 295.6735229492188
0, 5, 27, 323.4347839355469
0, 5, 28, 301.5234069824219
0, 5, 29, 298.0380249023438
0, 5, 30, 325.7458801269531
0, 5, 31, 287.0589904785156
0, 5, 32, 304.8782653808594
0, 5, 33, 305.532958984375
0, 5, 34, 294.0348510742188
0, 5, 35, 308.6080322265625
0, 5, 36, 269.3956604003906
0, 5, 37, 282.0775146484375
0, 5, 38, 291.9426574707031
0, 5, 39, 312.0184020996094
0, 5, 40, 308.9860229492188
0, 5, 41, 274.8953552246094
0, 5, 42, 303.6981506347656
0, 5, 43, 314.359130859375
0, 5, 44, 293.6875305175781
0, 5, 45, 302.0141906738281
0, 5, 46, 266.79638671875
0, 5, 47, 278.3671569824219
0, 5, 48, 295.4497375488281
0, 5, 49, 287.1961059570312
0, 5, 50, 295.2848205566406
0, 5, 51, 279.3402709960938
0, 5, 52, 269.1151428222656
0, 5, 53, 285.459228515625
0, 5, 54, 290.9578552246094
0, 5, 55, 344.9531555175781
0, 5, 56, 304.7710266113281
0, 5, 57, 307.8029479980469
0, 5, 58, 311.514892578125
0, 5, 59, 303.3367004394531
0, 5, 60, 305.7428283691406
0, 5, 61, 280.365234375
0, 5, 62, 327.1262512207031
0, 5, 63, 290.4922485351562
0, 5, 64, 323.520263671875
0, 5, 65, 304.7195434570312
0, 5, 66, 327.3792114257812
0, 5, 67, 310.9340209960938
0, 5, 68, 307.7520751953125
0, 5, 69, 310.6187438964844
0, 5, 70, 300.176513671875
0, 5, 71, 272.6553344726562
0, 5, 72, 312.2583312988281
0, 5, 73, 301.1329956054688
0, 5, 74, 296.4985656738281
0, 5, 75, 297.4819946289062
0, 5, 76, 285.8688659667969
0, 5, 77, 297.3609008789062
0, 5, 78, 318.5869140625
0, 5, 79, 306.439453125
0, 5, 80, 294.2276000976562
0, 5, 81, 325.9026794433594
0, 5, 82, 324.1627197265625
0, 5, 83, 280.4689025878906
0, 5, 84, 304.2312622070312
0, 5, 85, 270.5587768554688
0, 5, 86, 325.9580078125
0, 5, 87, 283.7488098144531
0, 5, 88, 314.7960510253906
0, 5, 89, 303.4994201660156
0, 5, 90, 316.4905395507812
0, 5, 91, 314.0819091796875
0, 5, 92, 296.5670471191406
0, 5, 93, 321.8906860351562
0, 5, 94, 308.9981079101562
0, 5, 95, 297.9033203125
0, 5, 96, 298.5078125
0, 5, 97, 296.042724609375
0, 5, 98, 318.8272705078125
0, 5, 99, 303.1488342285156
0, 5, 100, 290.0827331542969
0, 5, 101, 306.5545959472656
0, 5, 102, 292.4050903320312
0, 5, 103, 313.8172912597656
0, 5, 104, 303.3291015625
0, 5, 105, 294.2293701171875
0, 5, 106, 281.417724609375
0, 5, 107, 294.0980529785156
0, 5, 108, 263.530029296875
0, 5, 109, 156.7410125732422
0, 5, 110, 39.53019714355469
0, 5, 111, 19.14739227294922
0, 5, 112, 16.71713638305664
0, 5, 113, 12.44311046600342
0, 5, 114, 12.59491729736328
0, 5, 115, 6.447304248809814
0, 5, 116, 8.876935958862305
0, 5, 117, 8.414170265197754
0, 5, 118, 13.52237606048584
0, 5, 119, 3.276482582092285
0, 5, 120, 8.369420051574707
0, 5, 121, 5.447085380554199
0, 5, 122, 4.534139156341553
0, 5, 123, 4.519800662994385
0, 5, 124, 5.062256813049316
0, 5, 125, 2.776293516159058
0, 5, 126, 4.615567684173584
0, 5, 127, 3.048225164413452
0, 6, 0, 4.126047134399414
0, 6, 1, 6.660271167755127
0, 6, 2, 3.729936838150024
0, 6, 3, 5.716022491455078
0, 6, 4, 2.972383737564087
0, 6, 5, 4.546766757965088
0, 6, 6, 9.430614471435547
0, 6, 7, 4.651052474975586
0, 6, 8, 6.955790519714355
0, 6, 9, 5.384910106658936
0, 6, 10, 6.650362968444824
0, 6, 11, 9.536133766174316
0, 6, 12, 10.71855449676514
0, 6, 13, 13.68803405761719
0, 6, 14, 9.308906555175781
0, 6, 15, 16.55424499511719
0, 6, 16, 27.37258529663086
0, 6, 17, 56.64717864990234
0, 6, 18, 172.3844604492188
0, 6, 19, 277.1635131835938
0, 6, 20, 293.6273803710938
0, 6, 21, 314.5031433105469
0, 6, 22, 320.1890563964844
0, 6, 23, 304.6860961914062
0, 6, 24, 317.7559814453125
0, 6, 25, 315.8189697265625
0, 6, 26, 322.1087341308594
0, 6, 27, 331.1777954101562
0, 6, 28, 294.5416564941406
0, 6, 29, 328.5693359375
0, 6, 30, 282.3036193847656
0, 6, 31, 285.2685852050781
0, 6, 32, 340.3245239257812
0, 6, 33, 301.5174255371094
0, 6, 34, 340.5358581542969
0, 6, 35, 323.1688842773438
0, 6, 36, 273.7066345214844
0, 6, 37, 290.5390625
0, 6, 38, 312.2178039550781
0, 6, 39, 299.4441528320312
0, 6, 40, 284.8292541503906
0, 6, 41, 295.3378601074219
0, 6, 42, 302.9790344238281
0, 6, 43, 289.1689147949219
0, 6, 44, 280.36279296875
0, 6, 45, 322.9477233886719
0, 6, 46, 306.1214294433594
0, 6, 47, 336.0987854003906
0, 6, 48, 294.0922546386719
0, 6, 49, 311.8240051269531
0, 6, 50, 329.6465454101562
0, 6, 51, 312.8528442382812
0, 6, 52, 321.254638671875
0, 6, 53, 326.18603515625
0, 6, 54, 301.064208984375
0, 6, 55, 306.38232421875
0, 6, 56, 293.1421508789062
0, 6, 57, 312.8656921386719
0, 6, 58, 262.2513732910156
0, 6, 59, 300.0473022460938
0, 6, 60, 312.4289855957031
0, 6, 61, 269.9717712402344
0, 6, 62, 335.2120056152344
0, 6, 63, 325.2825012207031
0, 6, 64, 290.7273864746094
0, 6, 65, 285.8388366699219
0, 6, 66, 306.6982116699219
0, 6, 67, 312.7192687988281
0, 6, 68, 292.8333129882812
0, 6, 69, 279.9384765625
0, 6, 70, 276.9668579101562
0, 6, 71, 290.0116271972656
0, 6, 72, 312.0429077148438
0, 6, 73, 295.414306640625
0, 6, 74, 330.5020141601562
0, 6, 75, 342.4579772949219
0, 6, 76, 298.0028381347656
0, 6, 77, 287.189208984375
0, 6, 78, 276.9395446777344
0, 6, 79, 293.1705932617188
0, 6, 80, 302.2920532226562
0, 6, 81, 315.4082336425781
0, 6, 82, 318.877685546875
0, 6, 83, 321.0381774902344
0, 6, 84, 294.8497314453125
0, 6, 85, 300.0064086914062
0, 6, 86, 329.0364685058594
0, 6, 87, 291.2148132324219
0, 6, 88, 305.7160949707031
0, 6, 89, 305.2009887695312
0, 6, 90, 298.9943237304688
0, 6, 91, 313.7899475097656
0, 6, 92, 283.3097229003906
0, 6, 93, 295.3506774902344
0, 6, 94, 271.9375305175781
0, 6, 95, 301.7285461425781
0, 6, 96, 346.8191528320312
0, 6, 97, 310.470947265625
0, 6, 98, 302.4627685546875
0, 6, 99, 273.16650390625
0, 6, 100, 308.63330078125
0, 6, 101, 293.3885192871094
0, 6, 102, 305.8442993164062
0, 6, 103, 307.4846496582031
0, 6, 104, 290.2046508789062
0, 6, 105, 300.5441589355469
0, 6, 106, 307.0266723632812
0, 6, 107, 306.2205505371094
0, 6, 108, 265.25
0, 6, 109, 186.7254486083984
0, 6, 110, 56.4944953918457
0, 6, 111, 21.34651374816895
0, 6, 112, 14.50724697113037
0, 6, 113, 10.55058288574219
0, 6, 114, 11.30844497680664
0, 6, 115, 13.6424388885498
0, 6, 116, 10.10795307159424
0, 6, 117, 6.109526634216309
0, 6, 118, 8.55781078338623
0, 6, 119, 9.417275428771973
0, 6, 120, 5.986716747283936
0, 6, 121, 5.441099166870117
0, 6, 122, 5.925067901611328
0, 6, 123, 5.473153114318848
0, 6, 124, 6.661959648132324
0, 6, 125, 8.985202789306641
0, 6, 126, 3.517596960067749
0, 6, 127, 7.846087455749512
0, 7, 0, 4.699358940124512
0, 7, 1, 5.854696273803711
0, 7, 2, 4.988852500915527
0, 7, 3, 3.302464246749878
0, 7, 4, 4.827981472015381
0, 7, 5, 6.27573823928833
0, 7, 6, 6.623929500579834
0, 7, 7, 6.171613693237305
0, 7, 8, 5.956204891204834
0, 7, 9, 5.842697620391846
0, 7, 10, 9.549744606018066
0, 7, 11, 11.86279201507568
0, 7, 12, 11.88303852081299
0, 7, 13, 13.04037761688232
0, 7, 14, 11.37341117858887
0, 7, 15, 18.71045875549316
0, 7, 16, 27.12879371643066
0, 7, 17, 96.52108764648438
0, 7, 18, 218.2284088134766
0, 7, 19, 288.99951171875
0, 7, 20, 296.9659729003906
0, 7, 21, 275.6080932617188
0, 7, 22, 298.2897033691406
0, 7, 23, 289.8827209472656
0, 7, 24, 312.3887023925781
0, 7, 25, 324.9767456054688
0, 7, 26, 277.4071044921875
0, 7, 27, 296.4960021972656
0, 7, 28, 324.9549255371094
0, 7, 29, 317.7787170410156
0, 7, 30, 298.0449829101562
0, 7, 31, 276.5096740722656
0, 7, 32, 303.9912719726562
0, 7, 33, 262.1199645996094
0, 7, 34, 298.6516418457031
0, 7, 35, 319.8335876464844
0, 7, 36, 329.3419189453125
0, 7, 37, 322.8673400878906
0, 7, 38, 296.2514953613281
0, 7, 39, 306.3429565429688
0, 7, 40, 289.4470825195312
0, 7, 41, 272.4288330078125
0, 7, 42, 301.8600158691406
0, 7, 43, 274.8077392578125
0, 7, 44, 304.163330078125
0, 7, 45, 293.0278930664062
0, 7, 46, 282.2069091796875
0, 7, 47, 326.3370361328125
0, 7, 48, 286.9530944824219
0, 7, 49, 305.4845275878906
0, 7, 50, 320.8782958984375
0, 7, 51, 298.9099731445312
0, 7, 52, 327.20654296875
0, 7, 53, 309.006103515625
0, 7, 54, 322.3477783203125
0, 7, 55, 308.8845520019531
0, 7, 56, 282.911865234375
0, 7, 57, 283.7551574707031
0, 7, 58, 297.3006286621094
0, 7, 59, 295.9145202636719
0, 7, 60, 322.0151672363281
0, 7, 61, 279.3932800292969
0, 7, 62, 296.6102905273438
0, 7, 63, 293.1275939941406
0, 7, 64, 306.4784240722656
0, 7, 65, 331.6990356445312
0, 7, 66, 317.3748779296875
0, 7, 67, 302.9995422363281
0, 7, 68, 281.1846923828125
0, 7, 69, 293.3681335449219
0, 7, 70, 302.6731262207031
0, 7, 71, 309.5940856933594
0, 7, 72, 284.9036865234375
0, 7, 73, 298.5774536132812
0, 7, 74, 343.5888061523438
0, 7, 75, 319.376953125
0, 7, 76, 323.2196960449219
0, 7, 77, 279.7110290527344
0, 7, 78, 299.3395690917969
0, 7, 79, 297.0421752929688
0, 7, 80, 313.7512512207031
0, 7, 81, 321.0105285644531
0, 7, 82, 330.3855590820312
0, 7, 83, 318.0620422363281
0, 7, 84, 313.1134338378906
0, 7, 85, 272.5106506347656
0, 7, 86, 310.5734252929688
0, 7, 87, 312.7107238769531
0, 7, 88, 309.0617065429688
0, 7, 89, 292.2754516601562
0, 7, 90, 305.9306945800781
0, 7, 91, 315.7000427246094
0, 7, 92, 288.4531860351562
0, 7, 93, 307.3338317871094
0, 7, 94, 276.5021667480469
0, 7, 95, 296.1005554199219
0, 7, 96, 334.922119140625
0, 7, 97, 294.330078125
0, 7, 98, 290.3730773925781
0, 7, 99, 312.0036315917969
0, 7, 100, 279.5195922851562
0, 7, 101, 275.7292175292969
0, 7, 102, 289.3767395019531
0, 7, 103, 292.3766784667969
0, 7, 104, 275.65185546875
0, 7, 105, 304.8809509277344
0, 7, 106, 318.0921020507812
0, 7, 107, 296.9736633300781
0, 7, 108, 273.2967529296875
0, 7, 109, 237.02978515625
0, 7, 110, 96.02310943603516
0, 7, 111, 23.0419979095459
0, 7, 112, 12.81063938140869
0, 7, 113, 14.02948665618896
0, 7, 114, 13.74989414215088
0, 7, 115, 10.63942432403564
0, 7, 116, 12.57124805450439
0, 7, 117, 8.98643970489502
0, 7, 118, 8.490629196166992
0, 7, 119, 6.703861236572266
0, 7, 120, 5.306721210479736
0, 7, 121, 8.648557662963867
0, 7, 122, 8.516653060913086
0, 7, 123, 4.044106006622314
0, 7, 124, 2.887582778930664
0, 7, 125, 6.739834308624268
0, 7, 126, 6.746260643005371
0, 7, 127, 3.913612127304077
0, 8, 0, 3.708718776702881
0, 8, 1, 3.358783721923828
0, 8, 2, 2.801146507263184
0, 8, 3, 4.765532493591309
0, 8, 4, 4.32219409942627
0, 8, 5, 4.175501823425293
0, 8, 6, 5.738046646118164
0, 8, 7, 7.674236297607422
0, 8, 8, 10.02673053741455
0, 8, 9, 5.266234874725342
0, 8, 10, 8.611828804016113
0, 8, 11, 12.77456092834473
0, 8, 12, 11.56092071533203
0, 8, 13, 15.39669322967529
0, 8, 14, 11.82874965667725
0, 8, 15, 17.24422454833984
0, 8, 16, 32.70705032348633
0, 8, 17, 129.9746704101562
0, 8, 18, 243.8727722167969
0, 8, 19, 293.7770080566406
0, 8, 20, 284.588623046875
0, 8, 21, 306.7669067382812
0, 8, 22, 297.4010314941406
0, 8, 23, 274.634765625
0, 8, 24, 267.5910949707031
0, 8, 25, 275.625
0, 8, 26, 308.7045288085938
0, 8, 27, 307.1401062011719
0, 8, 28, 306.565185546875
0, 8, 29, 318.6236877441406
0, 8, 30, 315.058837890625
0, 8, 31, 305.7199096679688
0, 8, 32, 281.4820861816406
0, 8, 33, 293.7338256835938
0, 8, 34, 288.2198486328125
0, 8, 35, 280.1935729980469
0, 8, 36, 315.0116882324219
0, 8, 37, 338.9089965820312
0, 8, 38, 331.3278503417969
0, 8, 39, 280.4782409667969
0, 8, 40, 303.0065307617188
0, 8, 41, 291.4255676269531
