# TOPAS Version: 3.1.p3
# Parameter File: batch_inserts_278.txt
# Results for scorer Readout_Adipose
# Scored in component: MyBox
# X in 1 bin  of 0.75 cm
# Y in 512 bins of 0.0783984 cm
# Z in 128 bins of 0.078125 cm
# EnergyDeposit ( MeV ) : Sum   
0, 0, 0, 3.948195695877075
0, 0, 1, 2.505914688110352
0, 0, 2, 3.016722917556763
0, 0, 3, 1.403392910957336
0, 0, 4, 4.511860370635986
0, 0, 5, 2.258005380630493
0, 0, 6, 6.72789192199707
0, 0, 7, 7.953382968902588
0, 0, 8, 2.767203330993652
0, 0, 9, 4.075640678405762
0, 0, 10, 6.580940723419189
0, 0, 11, 4.174304485321045
0, 0, 12, 4.542640209197998
0, 0, 13, 7.135373115539551
0, 0, 14, 6.964430809020996
0, 0, 15, 8.290009498596191
0, 0, 16, 10.4518928527832
0, 0, 17, 12.48497104644775
0, 0, 18, 13.99615001678467
0, 0, 19, 46.24196624755859
0, 0, 20, 142.1031341552734
0, 0, 21, 223.9967193603516
0, 0, 22, 249.3803405761719
0, 0, 23, 256.302978515625
0, 0, 24, 253.4249114990234
0, 0, 25, 257.9524841308594
0, 0, 26, 233.7858123779297
0, 0, 27, 240.0378723144531
0, 0, 28, 271.418701171875
0, 0, 29, 252.4080963134766
0, 0, 30, 230.630859375
0, 0, 31, 244.572021484375
0, 0, 32, 263.40625
0, 0, 33, 262.1925964355469
0, 0, 34, 288.106689453125
0, 0, 35, 267.1403198242188
0, 0, 36, 246.7212677001953
0, 0, 37, 253.2012481689453
0, 0, 38, 269.4824829101562
0, 0, 39, 230.7872161865234
0, 0, 40, 241.6820678710938
0, 0, 41, 266.2308959960938
0, 0, 42, 228.8304290771484
0, 0, 43, 260.6531982421875
0, 0, 44, 251.1460418701172
0, 0, 45, 253.4556427001953
0, 0, 46, 244.5631408691406
0, 0, 47, 253.1400299072266
0, 0, 48, 267.7135620117188
0, 0, 49, 274.5270690917969
0, 0, 50, 251.0668640136719
0, 0, 51, 252.6468963623047
0, 0, 52, 271.9827575683594
0, 0, 53, 292.1689758300781
0, 0, 54, 242.9749450683594
0, 0, 55, 240.4974365234375
0, 0, 56, 278.5616760253906
0, 0, 57, 262.083984375
0, 0, 58, 247.2915344238281
0, 0, 59, 271.7626342773438
0, 0, 60, 236.3122406005859
0, 0, 61, 245.11669921875
0, 0, 62, 257.5321350097656
0, 0, 63, 266.4993896484375
0, 0, 64, 255.2914428710938
0, 0, 65, 260.4981994628906
0, 0, 66, 276.6072998046875
0, 0, 67, 248.9192810058594
0, 0, 68, 258.5558776855469
0, 0, 69, 261.15966796875
0, 0, 70, 271.8311157226562
0, 0, 71, 237.7321624755859
0, 0, 72, 250.8535003662109
0, 0, 73, 261.2637634277344
0, 0, 74, 252.6400146484375
0, 0, 75, 240.3550109863281
0, 0, 76, 228.89892578125
0, 0, 77, 260.669921875
0, 0, 78, 256.6512145996094
0, 0, 79, 277.3840026855469
0, 0, 80, 215.4596099853516
0, 0, 81, 267.5761108398438
0, 0, 82, 256.2597351074219
0, 0, 83, 247.4878997802734
0, 0, 84, 269.8984069824219
0, 0, 85, 231.5294952392578
0, 0, 86, 254.4306640625
0, 0, 87, 251.6804504394531
0, 0, 88, 259.8617553710938
0, 0, 89, 281.3504943847656
0, 0, 90, 244.1152648925781
0, 0, 91, 280.8296813964844
0, 0, 92, 252.9445648193359
0, 0, 93, 250.0485229492188
0, 0, 94, 247.4358978271484
0, 0, 95, 247.312744140625
0, 0, 96, 275.9860229492188
0, 0, 97, 272.0384216308594
0, 0, 98, 272.7674865722656
0, 0, 99, 257.5167236328125
0, 0, 100, 259.4768371582031
0, 0, 101, 225.9072723388672
0, 0, 102, 232.023193359375
0, 0, 103, 268.9793701171875
0, 0, 104, 255.4591369628906
0, 0, 105, 251.8839874267578
0, 0, 106, 247.3094482421875
0, 0, 107, 152.3602752685547
0, 0, 108, 37.60835647583008
0, 0, 109, 12.87951278686523
0, 0, 110, 12.838303565979
0, 0, 111, 8.160322189331055
0, 0, 112, 7.654671192169189
0, 0, 113, 5.9820876121521
0, 0, 114, 5.888669490814209
0, 0, 115, 5.039888858795166
0, 0, 116, 6.067547798156738
0, 0, 117, 5.301599502563477
0, 0, 118, 6.209548473358154
0, 0, 119, 4.726494789123535
0, 0, 120, 2.949084281921387
0, 0, 121, 3.872348308563232
0, 0, 122, 3.972433090209961
0, 0, 123, 2.384902238845825
0, 0, 124, 4.902677536010742
0, 0, 125, 2.159201622009277
0, 0, 126, 5.064748764038086
0, 0, 127, 3.937893390655518
0, 1, 0, 5.957620143890381
0, 1, 1, 3.761683702468872
0, 1, 2, 4.497718334197998
0, 1, 3, 1.783452868461609
0, 1, 4, 3.501816511154175
0, 1, 5, 2.644619703292847
0, 1, 6, 3.404877185821533
0, 1, 7, 5.991123199462891
0, 1, 8, 7.568682193756104
0, 1, 9, 3.730556964874268
0, 1, 10, 6.856430530548096
0, 1, 11, 10.94494724273682
0, 1, 12, 8.388875007629395
0, 1, 13, 10.9242115020752
0, 1, 14, 7.771806240081787
0, 1, 15, 7.814698696136475
0, 1, 16, 10.74148368835449
0, 1, 17, 9.376110076904297
0, 1, 18, 19.37577247619629
0, 1, 19, 67.20037841796875
0, 1, 20, 197.8795776367188
0, 1, 21, 256.087890625
0, 1, 22, 295.9938049316406
0, 1, 23, 283.3997802734375
0, 1, 24, 276.1273498535156
0, 1, 25, 290.6285705566406
0, 1, 26, 268.4221496582031
0, 1, 27, 305.693359375
0, 1, 28, 298.0325317382812
0, 1, 29, 297.55810546875
0, 1, 30, 281.3439331054688
0, 1, 31, 291.2626037597656
0, 1, 32, 290.0367736816406
0, 1, 33, 294.7013244628906
0, 1, 34, 293.8787841796875
0, 1, 35, 280.9873352050781
0, 1, 36, 306.13623046875
0, 1, 37, 294.6300048828125
0, 1, 38, 278.6014404296875
0, 1, 39, 294.9951782226562
0, 1, 40, 266.0708312988281
0, 1, 41, 285.8295288085938
0, 1, 42, 288.7642517089844
0, 1, 43, 331.1763916015625
0, 1, 44, 278.799560546875
0, 1, 45, 292.5303955078125
0, 1, 46, 258.9364318847656
0, 1, 47, 311.6564025878906
0, 1, 48, 284.9284973144531
0, 1, 49, 302.7354736328125
0, 1, 50, 265.5731201171875
0, 1, 51, 274.4659729003906
0, 1, 52, 297.0188903808594
0, 1, 53, 306.01806640625
0, 1, 54, 274.1519165039062
0, 1, 55, 291.8566284179688
0, 1, 56, 278.6435241699219
0, 1, 57, 298.4670715332031
0, 1, 58, 309.7452392578125
0, 1, 59, 294.1963195800781
0, 1, 60, 297.2099914550781
0, 1, 61, 274.3724670410156
0, 1, 62, 307.1641540527344
0, 1, 63, 287.5897521972656
0, 1, 64, 288.8470458984375
0, 1, 65, 295.3744201660156
0, 1, 66, 292.5338745117188
0, 1, 67, 291.4657592773438
0, 1, 68, 277.3847961425781
0, 1, 69, 282.7848510742188
0, 1, 70, 271.5751037597656
0, 1, 71, 272.3256530761719
0, 1, 72, 287.0346069335938
0, 1, 73, 304.0870056152344
0, 1, 74, 303.0484619140625
0, 1, 75, 291.0775451660156
0, 1, 76, 284.7138671875
0, 1, 77, 290.9956359863281
0, 1, 78, 296.2809143066406
0, 1, 79, 303.9027709960938
0, 1, 80, 295.2875366210938
0, 1, 81, 298.8526611328125
0, 1, 82, 285.3927917480469
0, 1, 83, 331.0424194335938
0, 1, 84, 309.8755187988281
0, 1, 85, 254.3139801025391
0, 1, 86, 295.7006530761719
0, 1, 87, 291.0666198730469
0, 1, 88, 296.7057495117188
0, 1, 89, 293.5137023925781
0, 1, 90, 270.0645446777344
0, 1, 91, 317.4185485839844
0, 1, 92, 292.2717590332031
0, 1, 93, 287.1017761230469
0, 1, 94, 303.3470153808594
0, 1, 95, 283.2662963867188
0, 1, 96, 282.8306274414062
0, 1, 97, 299.7990417480469
0, 1, 98, 276.4496459960938
0, 1, 99, 265.8507080078125
0, 1, 100, 277.4215698242188
0, 1, 101, 282.3187561035156
0, 1, 102, 278.79052734375
0, 1, 103, 280.2727355957031
0, 1, 104, 306.8540954589844
0, 1, 105, 297.9078979492188
0, 1, 106, 261.3997802734375
0, 1, 107, 192.6179351806641
0, 1, 108, 81.18326568603516
0, 1, 109, 23.24482727050781
0, 1, 110, 11.04448413848877
0, 1, 111, 10.55109977722168
0, 1, 112, 10.94644737243652
0, 1, 113, 4.539466857910156
0, 1, 114, 5.354425430297852
0, 1, 115, 5.768946170806885
0, 1, 116, 11.47755146026611
0, 1, 117, 6.332869052886963
0, 1, 118, 4.437755584716797
0, 1, 119, 5.649008750915527
0, 1, 120, 4.145280361175537
0, 1, 121, 4.927986621856689
0, 1, 122, 5.269781112670898
0, 1, 123, 4.662098407745361
0, 1, 124, 7.097498416900635
0, 1, 125, 5.658385753631592
0, 1, 126, 3.715367078781128
0, 1, 127, 3.338362455368042
0, 2, 0, 7.111546516418457
0, 2, 1, 2.125564336776733
0, 2, 2, 4.687860488891602
0, 2, 3, 3.639156579971313
0, 2, 4, 3.258458852767944
0, 2, 5, 1.604199051856995
0, 2, 6, 1.8784419298172
0, 2, 7, 3.66684889793396
0, 2, 8, 4.519142627716064
0, 2, 9, 8.195625305175781
0, 2, 10, 9.083563804626465
0, 2, 11, 7.262173175811768
0, 2, 12, 6.928752899169922
0, 2, 13, 10.03413963317871
0, 2, 14, 10.91353130340576
0, 2, 15, 9.316409111022949
0, 2, 16, 8.564709663391113
0, 2, 17, 15.91345024108887
0, 2, 18, 30.91658592224121
0, 2, 19, 118.1949081420898
0, 2, 20, 246.64697265625
0, 2, 21, 271.1292724609375
0, 2, 22, 314.9450988769531
0, 2, 23, 302.2495727539062
0, 2, 24, 287.3624267578125
0, 2, 25, 302.0076599121094
0, 2, 26, 293.8178405761719
0, 2, 27, 275.2414245605469
0, 2, 28, 272.6198425292969
0, 2, 29, 277.4830017089844
0, 2, 30, 291.0715026855469
0, 2, 31, 278.6290893554688
0, 2, 32, 294.5050354003906
0, 2, 33, 282.9902954101562
0, 2, 34, 331.0494384765625
0, 2, 35, 288.8380737304688
0, 2, 36, 303.6196899414062
0, 2, 37, 314.2471008300781
0, 2, 38, 310.5104064941406
0, 2, 39, 268.3634643554688
0, 2, 40, 306.4405822753906
0, 2, 41, 291.5800170898438
0, 2, 42, 303.4607543945312
0, 2, 43, 312.8402709960938
0, 2, 44, 314.462646484375
0, 2, 45, 324.3345031738281
0, 2, 46, 287.3590698242188
0, 2, 47, 304.8639831542969
0, 2, 48, 280.9512939453125
0, 2, 49, 279.7618408203125
0, 2, 50, 294.0253601074219
0, 2, 51, 284.5795593261719
0, 2, 52, 270.9434814453125
0, 2, 53, 288.4326782226562
0, 2, 54, 280.889892578125
0, 2, 55, 274.9539794921875
0, 2, 56, 301.1809997558594
0, 2, 57, 291.6833190917969
0, 2, 58, 302.390869140625
0, 2, 59, 287.8090209960938
0, 2, 60, 317.9842224121094
0, 2, 61, 302.8187561035156
0, 2, 62, 312.6047058105469
0, 2, 63, 300.3273315429688
0, 2, 64, 296.1980590820312
0, 2, 65, 315.1141967773438
0, 2, 66, 279.2886657714844
0, 2, 67, 290.9017639160156
0, 2, 68, 295.7387084960938
0, 2, 69, 311.7880554199219
0, 2, 70, 336.3279113769531
0, 2, 71, 284.1002502441406
0, 2, 72, 302.2425231933594
0, 2, 73, 310.7786560058594
0, 2, 74, 286.8999938964844
0, 2, 75, 304.9757995605469
0, 2, 76, 285.8243713378906
0, 2, 77, 302.1652526855469
0, 2, 78, 314.1091003417969
0, 2, 79, 308.7394714355469
0, 2, 80, 295.80517578125
0, 2, 81, 280.7638854980469
0, 2, 82, 317.9422607421875
0, 2, 83, 312.9817504882812
0, 2, 84, 288.1707763671875
0, 2, 85, 281.7781677246094
0, 2, 86, 323.6900024414062
0, 2, 87, 286.4547119140625
0, 2, 88, 279.9075927734375
0, 2, 89, 294.9936828613281
0, 2, 90, 295.1622619628906
0, 2, 91, 276.9366760253906
0, 2, 92, 304.0472412109375
0, 2, 93, 315.9060974121094
0, 2, 94, 291.5888671875
0, 2, 95, 313.6260070800781
0, 2, 96, 316.0871887207031
0, 2, 97, 290.1827697753906
0, 2, 98, 295.5462646484375
0, 2, 99, 274.9119567871094
0, 2, 100, 304.2245788574219
0, 2, 101, 300.4462585449219
0, 2, 102, 298.9833068847656
0, 2, 103, 291.7391052246094
0, 2, 104, 291.4099731445312
0, 2, 105, 274.0665893554688
0, 2, 106, 298.0264892578125
0, 2, 107, 271.4339294433594
0, 2, 108, 117.242561340332
0, 2, 109, 31.43631744384766
0, 2, 110, 9.744827270507812
0, 2, 111, 11.70890235900879
0, 2, 112, 8.641870498657227
0, 2, 113, 9.452913284301758
0, 2, 114, 8.876676559448242
0, 2, 115, 9.247379302978516
0, 2, 116, 11.34505462646484
0, 2, 117, 5.967119216918945
0, 2, 118, 2.299226760864258
0, 2, 119, 8.588283538818359
0, 2, 120, 6.11343240737915
0, 2, 121, 3.179947853088379
0, 2, 122, 4.969529628753662
0, 2, 123, 4.307707786560059
0, 2, 124, 4.883252143859863
0, 2, 125, 5.071558475494385
0, 2, 126, 5.175463676452637
0, 2, 127, 4.317719459533691
0, 3, 0, 5.080122947692871
0, 3, 1, 2.50041389465332
0, 3, 2, 7.179603576660156
0, 3, 3, 3.05205249786377
0, 3, 4, 5.121620655059814
0, 3, 5, 7.217804908752441
0, 3, 6, 6.029687404632568
0, 3, 7, 4.392349720001221
0, 3, 8, 5.096083164215088
0, 3, 9, 4.822059154510498
0, 3, 10, 5.374652862548828
0, 3, 11, 5.424856185913086
0, 3, 12, 7.842020034790039
0, 3, 13, 15.34372615814209
0, 3, 14, 12.28974914550781
0, 3, 15, 14.96596336364746
0, 3, 16, 12.1871509552002
0, 3, 17, 19.69658279418945
0, 3, 18, 51.0429573059082
0, 3, 19, 176.9190979003906
0, 3, 20, 271.2059936523438
0, 3, 21, 271.7700500488281
0, 3, 22, 281.6062927246094
0, 3, 23, 287.4448547363281
0, 3, 24, 287.8706970214844
0, 3, 25, 272.0383911132812
0, 3, 26, 304.4801330566406
0, 3, 27, 291.3940124511719
0, 3, 28, 281.5501708984375
0, 3, 29, 337.2590026855469
0, 3, 30, 316.7234191894531
0, 3, 31, 286.9302062988281
0, 3, 32, 304.9327697753906
0, 3, 33, 315.0653381347656
0, 3, 34, 323.3870239257812
0, 3, 35, 305.0570068359375
0, 3, 36, 268.8536376953125
0, 3, 37, 316.9332275390625
0, 3, 38, 302.1939086914062
0, 3, 39, 286.6637573242188
0, 3, 40, 266.1544494628906
0, 3, 41, 299.65234375
0, 3, 42, 285.0523986816406
0, 3, 43, 305.6478576660156
0, 3, 44, 310.6104736328125
0, 3, 45, 290.014892578125
0, 3, 46, 326.3277587890625
0, 3, 47, 300.7686462402344
0, 3, 48, 303.2425231933594
0, 3, 49, 276.3036193847656
0, 3, 50, 290.0233764648438
0, 3, 51, 276.987548828125
0, 3, 52, 316.1039428710938
0, 3, 53, 288.7342529296875
0, 3, 54, 284.6271362304688
0, 3, 55, 283.4342041015625
0, 3, 56, 298.3580322265625
0, 3, 57, 289.2552490234375
0, 3, 58, 309.7432861328125
0, 3, 59, 297.0517578125
0, 3, 60, 297.7568664550781
0, 3, 61, 264.3862609863281
0, 3, 62, 285.5056457519531
0, 3, 63, 307.3419799804688
0, 3, 64, 317.0191345214844
0, 3, 65, 306.0192260742188
0, 3, 66, 314.1799926757812
0, 3, 67, 317.5310668945312
0, 3, 68, 278.6248168945312
0, 3, 69, 283.1935119628906
0, 3, 70, 287.4770202636719
0, 3, 71, 300.1699829101562
0, 3, 72, 269.7870178222656
0, 3, 73, 307.4940795898438
0, 3, 74, 292.7339477539062
0, 3, 75, 293.1178283691406
0, 3, 76, 309.6117553710938
0, 3, 77, 313.6150512695312
0, 3, 78, 301.6736145019531
0, 3, 79, 282.1740112304688
0, 3, 80, 291.2593078613281
0, 3, 81, 309.6101989746094
0, 3, 82, 317.5415954589844
0, 3, 83, 299.9903869628906
0, 3, 84, 312.4605102539062
0, 3, 85, 294.0741577148438
0, 3, 86, 301.40185546875
0, 3, 87, 298.5711669921875
0, 3, 88, 298.1781311035156
0, 3, 89, 295.6777648925781
0, 3, 90, 276.2681884765625
0, 3, 91, 284.4059753417969
0, 3, 92, 305.4168090820312
0, 3, 93, 312.4778137207031
0, 3, 94, 296.6803894042969
0, 3, 95, 336.7217102050781
0, 3, 96, 290.7730407714844
0, 3, 97, 285.9209594726562
0, 3, 98, 278.6763610839844
0, 3, 99, 262.6875610351562
0, 3, 100, 287.1357727050781
0, 3, 101, 297.5786437988281
0, 3, 102, 276.0202941894531
0, 3, 103, 320.1296997070312
0, 3, 104, 308.1691284179688
0, 3, 105, 289.0206909179688
0, 3, 106, 303.5090942382812
0, 3, 107, 282.1947326660156
0, 3, 108, 170.4304504394531
0, 3, 109, 58.87457275390625
0, 3, 110, 17.69471549987793
0, 3, 111, 13.50009059906006
0, 3, 112, 11.16732692718506
0, 3, 113, 8.515303611755371
0, 3, 114, 10.77381801605225
0, 3, 115, 8.533117294311523
0, 3, 116, 9.221096992492676
0, 3, 117, 10.29837989807129
0, 3, 118, 5.594168663024902
0, 3, 119, 3.546373605728149
0, 3, 120, 3.289382457733154
0, 3, 121, 2.615066766738892
0, 3, 122, 2.69581151008606
0, 3, 123, 8.997978210449219
0, 3, 124, 2.781518220901489
0, 3, 125, 5.473353862762451
0, 3, 126, 4.336911678314209
0, 3, 127, 2.372452974319458
0, 4, 0, 3.628192186355591
0, 4, 1, 6.556075572967529
0, 4, 2, 4.178623676300049
0, 4, 3, 4.665914058685303
0, 4, 4, 5.664182662963867
0, 4, 5, 8.603923797607422
0, 4, 6, 5.811711311340332
0, 4, 7, 7.881576061248779
0, 4, 8, 3.374763250350952
0, 4, 9, 4.931859016418457
0, 4, 10, 5.625875473022461
0, 4, 11, 6.764927387237549
0, 4, 12, 7.357977867126465
0, 4, 13, 10.47761154174805
0, 4, 14, 12.1585750579834
0, 4, 15, 9.85371208190918
0, 4, 16, 14.64493179321289
0, 4, 17, 18.44934844970703
0, 4, 18, 91.79705047607422
0, 4, 19, 222.5330200195312
0, 4, 20, 284.1454772949219
0, 4, 21, 272.0271606445312
0, 4, 22, 304.3693237304688
0, 4, 23, 266.3573608398438
0, 4, 24, 288.8471069335938
0, 4, 25, 273.6057739257812
0, 4, 26, 293.1898193359375
0, 4, 27, 282.0480041503906
0, 4, 28, 305.8298034667969
0, 4, 29, 323.0202026367188
0, 4, 30, 308.7050170898438
0, 4, 31, 304.2823791503906
0, 4, 32, 280.3860168457031
0, 4, 33, 295.2703247070312
0, 4, 34, 295.5382995605469
0, 4, 35, 312.3021240234375
0, 4, 36, 291.706787109375
0, 4, 37, 287.5302734375
0, 4, 38, 299.6660766601562
0, 4, 39, 293.1310119628906
0, 4, 40, 301.8901672363281
0, 4, 41, 313.7395324707031
0, 4, 42, 330.4210510253906
0, 4, 43, 297.1589965820312
0, 4, 44, 321.4243774414062
0, 4, 45, 323.2292785644531
0, 4, 46, 307.509765625
0, 4, 47, 295.6072387695312
0, 4, 48, 295.8121948242188
0, 4, 49, 280.6102905273438
0, 4, 50, 297.9235534667969
0, 4, 51, 315.1529541015625
0, 4, 52, 327.4439697265625
0, 4, 53, 303.1884155273438
0, 4, 54, 286.4472351074219
0, 4, 55, 316.3489685058594
0, 4, 56, 285.4566650390625
0, 4, 57, 309.9195556640625
0, 4, 58, 294.9414367675781
0, 4, 59, 308.3036804199219
0, 4, 60, 301.6264953613281
0, 4, 61, 315.0321350097656
0, 4, 62, 307.6791687011719
0, 4, 63, 297.1702880859375
0, 4, 64, 329.6902770996094
0, 4, 65, 314.4324951171875
0, 4, 66, 294.5679016113281
0, 4, 67, 285.1837768554688
0, 4, 68, 312.3275146484375
0, 4, 69, 275.5343322753906
0, 4, 70, 299.6280212402344
0, 4, 71, 322.6677856445312
0, 4, 72, 334.4985656738281
0, 4, 73, 297.4854431152344
0, 4, 74, 292.6223449707031
0, 4, 75, 288.2494812011719
0, 4, 76, 275.8806762695312
0, 4, 77, 280.3292236328125
0, 4, 78, 307.1716918945312
0, 4, 79, 319.6108703613281
0, 4, 80, 316.2691955566406
0, 4, 81, 313.7514038085938
0, 4, 82, 297.56982421875
0, 4, 83, 300.9034423828125
0, 4, 84, 291.2469787597656
0, 4, 85, 294.0978698730469
0, 4, 86, 298.9386291503906
0, 4, 87, 286.0083923339844
0, 4, 88, 306.7261962890625
0, 4, 89, 296.3346557617188
0, 4, 90, 332.0157470703125
0, 4, 91, 301.9147338867188
0, 4, 92, 288.3206481933594
0, 4, 93, 295.8243103027344
0, 4, 94, 292.5532836914062
0, 4, 95, 289.1820373535156
0, 4, 96, 323.8789978027344
0, 4, 97, 275.0820922851562
0, 4, 98, 328.3064575195312
0, 4, 99, 312.8804321289062
0, 4, 100, 299.9312744140625
0, 4, 101, 257.4250183105469
0, 4, 102, 297.4539794921875
0, 4, 103, 317.1251525878906
0, 4, 104, 282.845947265625
0, 4, 105, 311.2161560058594
0, 4, 106, 286.3372192382812
0, 4, 107, 294.8528442382812
0, 4, 108, 226.4074554443359
0, 4, 109, 79.31449890136719
0, 4, 110, 17.14344596862793
0, 4, 111, 13.38104057312012
0, 4, 112, 8.234145164489746
0, 4, 113, 10.29043292999268
0, 4, 114, 10.14936447143555
0, 4, 115, 8.755319595336914
0, 4, 116, 9.692815780639648
0, 4, 117, 7.475407123565674
0, 4, 118, 10.44568634033203
0, 4, 119, 9.998359680175781
0, 4, 120, 5.238231658935547
0, 4, 121, 4.361425399780273
0, 4, 122, 4.898597240447998
0, 4, 123, 6.259550094604492
0, 4, 124, 5.631388187408447
0, 4, 125, 8.876470565795898
0, 4, 126, 5.183830261230469
0, 4, 127, 3.934295892715454
0, 5, 0, 5.027315139770508
0, 5, 1, 3.771169424057007
0, 5, 2, 4.07895565032959
0, 5, 3, 2.711097955703735
0, 5, 4, 4.842288017272949
0, 5, 5, 6.278043270111084
0, 5, 6, 7.238358497619629
0, 5, 7, 5.585802555084229
0, 5, 8, 5.546952724456787
0, 5, 9, 4.83817195892334
0, 5, 10, 8.796613693237305
0, 5, 11, 7.869363307952881
0, 5, 12, 7.32069206237793
0, 5, 13, 5.052217483520508
0, 5, 14, 12.37111759185791
0, 5, 15, 17.43860816955566
0, 5, 16, 14.18517780303955
0, 5, 17, 29.50253677368164
0, 5, 18, 137.81396484375
0, 5, 19, 285.9263610839844
0, 5, 20, 306.257080078125
0, 5, 21, 317.5476379394531
0, 5, 22, 275.9453125
0, 5, 23, 310.1874084472656
0, 5, 24, 301.4562072753906
0, 5, 25, 288.9028015136719
0, 5, 26, 294.1565856933594
0, 5, 27, 321.9936218261719
0, 5, 28, 306.0321655273438
0, 5, 29, 299.9051513671875
0, 5, 30, 324.9770202636719
0, 5, 31, 287.0813598632812
0, 5, 32, 301.6939697265625
0, 5, 33, 303.4991760253906
0, 5, 34, 297.553955078125
0, 5, 35, 311.891845703125
0, 5, 36, 268.7562866210938
0, 5, 37, 283.700927734375
0, 5, 38, 295.093017578125
0, 5, 39, 314.97607421875
0, 5, 40, 310.4678649902344
0, 5, 41, 273.7373657226562
0, 5, 42, 305.3790893554688
0, 5, 43, 315.8534545898438
0, 5, 44, 292.2716064453125
0, 5, 45, 300.0238342285156
0, 5, 46, 266.4517211914062
0, 5, 47, 281.1324462890625
0, 5, 48, 292.5074462890625
0, 5, 49, 287.3889465332031
0, 5, 50, 293.8284301757812
0, 5, 51, 282.7468872070312
0, 5, 52, 268.3225402832031
0, 5, 53, 283.5712280273438
0, 5, 54, 291.8458557128906
0, 5, 55, 345.6245422363281
0, 5, 56, 307.5927429199219
0, 5, 57, 307.9749145507812
0, 5, 58, 313.2086486816406
0, 5, 59, 301.3489685058594
0, 5, 60, 309.2742309570312
0, 5, 61, 281.4600830078125
0, 5, 62, 325.9511413574219
0, 5, 63, 292.787841796875
0, 5, 64, 323.5796813964844
0, 5, 65, 307.910888671875
0, 5, 66, 329.3369750976562
0, 5, 67, 313.2605285644531
0, 5, 68, 307.0544738769531
0, 5, 69, 310.9698181152344
0, 5, 70, 300.6661071777344
0, 5, 71, 272.05126953125
0, 5, 72, 311.8694458007812
0, 5, 73, 302.7167358398438
0, 5, 74, 295.6047668457031
0, 5, 75, 294.2886962890625
0, 5, 76, 286.1622924804688
0, 5, 77, 299.8055419921875
0, 5, 78, 314.4368896484375
0, 5, 79, 306.8355712890625
0, 5, 80, 294.5056457519531
0, 5, 81, 325.1728210449219
0, 5, 82, 323.3258972167969
0, 5, 83, 280.2890930175781
0, 5, 84, 301.795166015625
0, 5, 85, 269.849853515625
0, 5, 86, 328.1156005859375
0, 5, 87, 284.0241394042969
0, 5, 88, 316.3957214355469
0, 5, 89, 304.7378234863281
0, 5, 90, 315.6741638183594
0, 5, 91, 313.6028137207031
0, 5, 92, 295.5812072753906
0, 5, 93, 322.5588684082031
0, 5, 94, 309.913818359375
0, 5, 95, 298.547607421875
0, 5, 96, 297.6639709472656
0, 5, 97, 295.9296875
0, 5, 98, 318.0246887207031
0, 5, 99, 302.2630310058594
0, 5, 100, 290.6731262207031
0, 5, 101, 305.093994140625
0, 5, 102, 291.40869140625
0, 5, 103, 314.4178771972656
0, 5, 104, 304.3414001464844
0, 5, 105, 293.4398193359375
0, 5, 106, 281.4454956054688
0, 5, 107, 293.4676208496094
0, 5, 108, 263.5354309082031
0, 5, 109, 160.1510620117188
0, 5, 110, 40.06552505493164
0, 5, 111, 22.30721855163574
0, 5, 112, 20.58397674560547
0, 5, 113, 16.27504539489746
0, 5, 114, 11.50104236602783
0, 5, 115, 7.559658050537109
0, 5, 116, 7.156336307525635
0, 5, 117, 7.295703411102295
0, 5, 118, 17.30088233947754
0, 5, 119, 3.696727752685547
0, 5, 120, 6.336448192596436
0, 5, 121, 6.100302219390869
0, 5, 122, 7.147668361663818
0, 5, 123, 6.102280616760254
0, 5, 124, 6.590021133422852
0, 5, 125, 4.019687652587891
0, 5, 126, 5.438920021057129
0, 5, 127, 4.976395606994629
0, 6, 0, 4.486819744110107
0, 6, 1, 2.423275470733643
0, 6, 2, 6.577414989471436
0, 6, 3, 5.865757942199707
0, 6, 4, 3.71989369392395
0, 6, 5, 5.501235961914062
0, 6, 6, 6.702635288238525
0, 6, 7, 6.323531627655029
0, 6, 8, 8.879621505737305
0, 6, 9, 4.950307369232178
0, 6, 10, 7.665356159210205
0, 6, 11, 6.723958969116211
0, 6, 12, 9.524116516113281
0, 6, 13, 14.85361099243164
0, 6, 14, 9.086719512939453
0, 6, 15, 16.13243103027344
0, 6, 16, 28.54011535644531
0, 6, 17, 56.13518905639648
0, 6, 18, 175.7950744628906
0, 6, 19, 275.5960083007812
0, 6, 20, 291.3076477050781
0, 6, 21, 313.3132629394531
0, 6, 22, 322.8032836914062
0, 6, 23, 305.0128173828125
0, 6, 24, 317.1387329101562
0, 6, 25, 315.9017639160156
0, 6, 26, 319.1033630371094
0, 6, 27, 331.1435852050781
0, 6, 28, 295.1361694335938
0, 6, 29, 330.7029724121094
0, 6, 30, 282.3159790039062
0, 6, 31, 284.9878845214844
0, 6, 32, 340.8096008300781
0, 6, 33, 302.0185241699219
0, 6, 34, 338.915283203125
0, 6, 35, 319.4641723632812
0, 6, 36, 272.5080871582031
0, 6, 37, 291.6439208984375
0, 6, 38, 311.0188598632812
0, 6, 39, 299.4237976074219
0, 6, 40, 283.2653503417969
0, 6, 41, 297.3440551757812
0, 6, 42, 302.7076721191406
0, 6, 43, 289.3058471679688
0, 6, 44, 281.3584289550781
0, 6, 45, 318.7367553710938
0, 6, 46, 300.2751159667969
0, 6, 47, 332.8194885253906
0, 6, 48, 292.1573791503906
0, 6, 49, 310.8143615722656
0, 6, 50, 329.4490356445312
0, 6, 51, 310.17236328125
0, 6, 52, 322.0617980957031
0, 6, 53, 328.6754150390625
0, 6, 54, 303.2115783691406
0, 6, 55, 306.4713745117188
0, 6, 56, 292.4679565429688
0, 6, 57, 314.2211608886719
0, 6, 58, 262.4014587402344
0, 6, 59, 304.762939453125
0, 6, 60, 314.1953430175781
0, 6, 61, 271.8691101074219
0, 6, 62, 338.7090148925781
0, 6, 63, 323.5579223632812
0, 6, 64, 292.5162658691406
0, 6, 65, 284.1981201171875
0, 6, 66, 303.52001953125
0, 6, 67, 309.556640625
0, 6, 68, 294.8939819335938
0, 6, 69, 278.0787658691406
0, 6, 70, 274.4329528808594
0, 6, 71, 289.7782287597656
0, 6, 72, 309.9238586425781
0, 6, 73, 293.2229919433594
0, 6, 74, 331.0862426757812
0, 6, 75, 341.7925415039062
0, 6, 76, 296.493408203125
0, 6, 77, 287.3237609863281
0, 6, 78, 281.7728576660156
0, 6, 79, 292.4323120117188
0, 6, 80, 300.159912109375
0, 6, 81, 317.4438171386719
0, 6, 82, 319.7694091796875
0, 6, 83, 322.1016235351562
0, 6, 84, 298.1571960449219
0, 6, 85, 300.7407836914062
0, 6, 86, 331.1830139160156
0, 6, 87, 296.13720703125
0, 6, 88, 306.1432189941406
0, 6, 89, 303.5620727539062
0, 6, 90, 298.3130798339844
0, 6, 91, 310.7390747070312
0, 6, 92, 284.8408203125
0, 6, 93, 294.9493103027344
0, 6, 94, 272.866943359375
0, 6, 95, 299.8176879882812
0, 6, 96, 347.1094970703125
0, 6, 97, 310.5106811523438
0, 6, 98, 301.3054809570312
0, 6, 99, 273.7239379882812
0, 6, 100, 309.2017822265625
0, 6, 101, 291.7539367675781
0, 6, 102, 305.7153015136719
0, 6, 103, 308.8339233398438
0, 6, 104, 291.6069030761719
0, 6, 105, 301.3235778808594
0, 6, 106, 308.3203125
0, 6, 107, 306.8587646484375
0, 6, 108, 265.5542907714844
0, 6, 109, 187.8440856933594
0, 6, 110, 55.74538421630859
0, 6, 111, 23.14751052856445
0, 6, 112, 15.01345539093018
0, 6, 113, 10.99771785736084
0, 6, 114, 13.69199752807617
0, 6, 115, 12.00362205505371
0, 6, 116, 9.03653621673584
0, 6, 117, 7.187039852142334
0, 6, 118, 9.439249038696289
0, 6, 119, 9.319015502929688
0, 6, 120, 5.688952445983887
0, 6, 121, 7.435624122619629
0, 6, 122, 8.536880493164062
0, 6, 123, 6.177548408508301
0, 6, 124, 6.023476600646973
0, 6, 125, 5.885905742645264
0, 6, 126, 4.049614906311035
0, 6, 127, 5.644195079803467
0, 7, 0, 7.60011625289917
0, 7, 1, 4.234660625457764
0, 7, 2, 5.465450763702393
0, 7, 3, 3.935934543609619
0, 7, 4, 4.709929943084717
0, 7, 5, 6.166934490203857
0, 7, 6, 9.165040969848633
0, 7, 7, 5.942874908447266
0, 7, 8, 4.848834037780762
0, 7, 9, 6.959226131439209
0, 7, 10, 9.814923286437988
0, 7, 11, 13.45545101165771
0, 7, 12, 11.74934196472168
0, 7, 13, 10.89030838012695
0, 7, 14, 11.69036293029785
0, 7, 15, 15.0932092666626
0, 7, 16, 24.91539764404297
0, 7, 17, 98.26413726806641
0, 7, 18, 218.9221954345703
0, 7, 19, 288.954345703125
0, 7, 20, 297.240966796875
0, 7, 21, 276.2218322753906
0, 7, 22, 300.5181884765625
0, 7, 23, 289.5119018554688
0, 7, 24, 312.0612182617188
0, 7, 25, 323.4750366210938
0, 7, 26, 279.1571960449219
0, 7, 27, 298.5299682617188
0, 7, 28, 328.199951171875
0, 7, 29, 320.2512512207031
0, 7, 30, 302.2873229980469
0, 7, 31, 278.9380798339844
0, 7, 32, 305.6484069824219
0, 7, 33, 262.6256713867188
0, 7, 34, 296.9390563964844
0, 7, 35, 319.9687194824219
0, 7, 36, 330.9800415039062
0, 7, 37, 322.7810363769531
0, 7, 38, 295.6391296386719
0, 7, 39, 305.6341247558594
0, 7, 40, 291.457763671875
0, 7, 41, 274.8284606933594
0, 7, 42, 306.6216125488281
0, 7, 43, 274.80908203125
0, 7, 44, 304.2975769042969
0, 7, 45, 295.6053161621094
0, 7, 46, 283.6585083007812
0, 7, 47, 330.3685302734375
0, 7, 48, 286.7245483398438
0, 7, 49, 301.8226623535156
0, 7, 50, 320.9697265625
0, 7, 51, 298.6534423828125
0, 7, 52, 324.9889221191406
0, 7, 53, 310.7902526855469
0, 7, 54, 322.9704895019531
0, 7, 55, 307.2137756347656
0, 7, 56, 279.4006042480469
0, 7, 57, 283.3601989746094
0, 7, 58, 295.7081604003906
0, 7, 59, 294.7814636230469
0, 7, 60, 323.0354309082031
0, 7, 61, 276.9679870605469
0, 7, 62, 295.7505798339844
0, 7, 63, 293.0828552246094
0, 7, 64, 308.4563598632812
0, 7, 65, 331.0761413574219
0, 7, 66, 318.9747619628906
0, 7, 67, 300.74658203125
0, 7, 68, 279.3837890625
0, 7, 69, 293.6505432128906
0, 7, 70, 301.3167724609375
0, 7, 71, 308.4939575195312
0, 7, 72, 283.41015625
0, 7, 73, 294.3197021484375
0, 7, 74, 345.2613525390625
0, 7, 75, 318.0332336425781
0, 7, 76, 324.3831176757812
0, 7, 77, 279.9759216308594
0, 7, 78, 299.5723571777344
0, 7, 79, 296.7225036621094
0, 7, 80, 311.2883605957031
0, 7, 81, 318.7803649902344
0, 7, 82, 327.7686767578125
0, 7, 83, 320.2270202636719
0, 7, 84, 309.339111328125
0, 7, 85, 271.6847229003906
0, 7, 86, 310.2911987304688
0, 7, 87, 311.54833984375
0, 7, 88, 308.2289428710938
0, 7, 89, 293.1112670898438
0, 7, 90, 306.0504760742188
0, 7, 91, 316.7716674804688
0, 7, 92, 291.5638427734375
0, 7, 93, 306.9024658203125
0, 7, 94, 276.50830078125
0, 7, 95, 295.9988403320312
0, 7, 96, 331.1441650390625
0, 7, 97, 295.1654052734375
0, 7, 98, 290.9522399902344
0, 7, 99, 311.5007629394531
0, 7, 100, 282.3750610351562
0, 7, 101, 274.9146423339844
0, 7, 102, 291.1087646484375
0, 7, 103, 291.6455993652344
0, 7, 104, 274.7011413574219
0, 7, 105, 306.7753295898438
0, 7, 106, 317.917724609375
0, 7, 107, 295.6952514648438
0, 7, 108, 273.3664855957031
0, 7, 109, 235.7045440673828
0, 7, 110, 96.4049072265625
0, 7, 111, 23.27168846130371
0, 7, 112, 13.40084362030029
0, 7, 113, 15.12454128265381
0, 7, 114, 15.51721096038818
0, 7, 115, 11.46916198730469
0, 7, 116, 9.467776298522949
0, 7, 117, 5.654207229614258
0, 7, 118, 8.531500816345215
0, 7, 119, 6.554497241973877
0, 7, 120, 4.865653038024902
0, 7, 121, 7.145585060119629
0, 7, 122, 6.938847064971924
0, 7, 123, 3.831062316894531
0, 7, 124, 3.967679023742676
0, 7, 125, 7.467524528503418
0, 7, 126, 9.04257869720459
0, 7, 127, 4.228492736816406
0, 8, 0, 4.291769027709961
0, 8, 1, 7.873204708099365
0, 8, 2, 5.431381225585938
0, 8, 3, 2.789902925491333
0, 8, 4, 4.005717754364014
0, 8, 5, 7.116823196411133
0, 8, 6, 4.754876136779785
0, 8, 7, 9.202189445495605
0, 8, 8, 7.833137035369873
0, 8, 9, 4.656010627746582
0, 8, 10, 6.585296630859375
0, 8, 11, 11.19719696044922
0, 8, 12, 12.08151817321777
0, 8, 13, 14.84979820251465
0, 8, 14, 14.72741985321045
0, 8, 15, 17.58659362792969
0, 8, 16, 34.88943862915039
0, 8, 17, 128.7779998779297
0, 8, 18, 243.2153472900391
0, 8, 19, 294.7488098144531
0, 8, 20, 285.1983947753906
0, 8, 21, 308.5045471191406
0, 8, 22, 296.7086791992188
0, 8, 23, 275.0204467773438
0, 8, 24, 270.0040283203125
0, 8, 25, 278.4845275878906
0, 8, 26, 306.824462890625
0, 8, 27, 308.3338623046875
0, 8, 28, 302.4248962402344
0, 8, 29, 319.4130554199219
0, 8, 30, 313.7569885253906
0, 8, 31, 304.0783081054688
0, 8, 32, 279.5321044921875
0, 8, 33, 292.5301208496094
0, 8, 34, 291.6318359375
0, 8, 35, 279.5038452148438
0, 8, 36, 317.0840454101562
0, 8, 37, 340.52783203125
0, 8, 38, 331.8459167480469
0, 8, 39, 280.4308471679688
