# TOPAS Version: 3.1.p3
# Parameter File: batch_inserts_312.txt
# Results for scorer Readout_Adipose
# Scored in component: MyBox
# X in 1 bin  of 0.75 cm
# Y in 512 bins of 0.0783984 cm
# Z in 128 bins of 0.078125 cm
# EnergyDeposit ( MeV ) : Sum   
0, 0, 0, 3.107473611831665
0, 0, 1, 2.813902139663696
0, 0, 2, 4.476809501647949
0, 0, 3, 2.550823211669922
0, 0, 4, 2.974531888961792
0, 0, 5, 2.450266122817993
0, 0, 6, 6.023522853851318
0, 0, 7, 9.395824432373047
0, 0, 8, 4.902890205383301
0, 0, 9, 4.985132694244385
0, 0, 10, 8.817769050598145
0, 0, 11, 3.92464017868042
0, 0, 12, 4.684988975524902
0, 0, 13, 7.47240161895752
0, 0, 14, 7.00369119644165
0, 0, 15, 9.580506324768066
0, 0, 16, 9.281830787658691
0, 0, 17, 8.305663108825684
0, 0, 18, 12.34179019927979
0, 0, 19, 42.34541320800781
0, 0, 20, 138.9735870361328
0, 0, 21, 224.6808471679688
0, 0, 22, 252.1554565429688
0, 0, 23, 256.3163452148438
0, 0, 24, 252.0922546386719
0, 0, 25, 260.6826782226562
0, 0, 26, 234.1946563720703
0, 0, 27, 236.8705139160156
0, 0, 28, 273.1049194335938
0, 0, 29, 253.5238647460938
0, 0, 30, 231.1777038574219
0, 0, 31, 243.2497100830078
0, 0, 32, 263.9967346191406
0, 0, 33, 259.3665161132812
0, 0, 34, 286.9274291992188
0, 0, 35, 268.3892517089844
0, 0, 36, 246.5135192871094
0, 0, 37, 252.9844207763672
0, 0, 38, 267.0819702148438
0, 0, 39, 229.0230407714844
0, 0, 40, 241.8473052978516
0, 0, 41, 268.3511352539062
0, 0, 42, 229.8554229736328
0, 0, 43, 258.005615234375
0, 0, 44, 251.1069641113281
0, 0, 45, 254.1820068359375
0, 0, 46, 244.0495910644531
0, 0, 47, 250.6805114746094
0, 0, 48, 267.3868713378906
0, 0, 49, 273.4398803710938
0, 0, 50, 252.6570739746094
0, 0, 51, 254.7850646972656
0, 0, 52, 272.0146179199219
0, 0, 53, 291.0924072265625
0, 0, 54, 242.0751647949219
0, 0, 55, 239.3766021728516
0, 0, 56, 276.8861694335938
0, 0, 57, 263.8609924316406
0, 0, 58, 245.7492980957031
0, 0, 59, 269.9156494140625
0, 0, 60, 234.0577545166016
0, 0, 61, 244.0897216796875
0, 0, 62, 258.4575500488281
0, 0, 63, 267.7619323730469
0, 0, 64, 255.4403381347656
0, 0, 65, 261.2885131835938
0, 0, 66, 276.3013000488281
0, 0, 67, 245.8181457519531
0, 0, 68, 258.4881286621094
0, 0, 69, 262.4926147460938
0, 0, 70, 274.3317565917969
0, 0, 71, 236.4273834228516
0, 0, 72, 250.2365264892578
0, 0, 73, 258.1688537597656
0, 0, 74, 252.8468170166016
0, 0, 75, 239.8811187744141
0, 0, 76, 228.7337188720703
0, 0, 77, 259.9760131835938
0, 0, 78, 256.8115234375
0, 0, 79, 278.5298156738281
0, 0, 80, 217.3791809082031
0, 0, 81, 267.0688781738281
0, 0, 82, 256.4419555664062
0, 0, 83, 245.0899200439453
0, 0, 84, 270.1367492675781
0, 0, 85, 233.2361450195312
0, 0, 86, 253.4826965332031
0, 0, 87, 251.4475402832031
0, 0, 88, 258.6575012207031
0, 0, 89, 283.4393005371094
0, 0, 90, 243.1241607666016
0, 0, 91, 280.7846984863281
0, 0, 92, 251.8236999511719
0, 0, 93, 249.4369964599609
0, 0, 94, 246.7618713378906
0, 0, 95, 247.3930816650391
0, 0, 96, 274.0901184082031
0, 0, 97, 272.3558654785156
0, 0, 98, 272.6067810058594
0, 0, 99, 258.2626342773438
0, 0, 100, 259.9440307617188
0, 0, 101, 227.2677764892578
0, 0, 102, 231.2752990722656
0, 0, 103, 269.2462158203125
0, 0, 104, 255.9712829589844
0, 0, 105, 250.3807373046875
0, 0, 106, 245.8293762207031
0, 0, 107, 152.0743560791016
0, 0, 108, 38.18032073974609
0, 0, 109, 12.38592529296875
0, 0, 110, 14.44268703460693
0, 0, 111, 9.100577354431152
0, 0, 112, 7.061497688293457
0, 0, 113, 4.617215633392334
0, 0, 114, 6.193502426147461
0, 0, 115, 3.994259357452393
0, 0, 116, 4.868363380432129
0, 0, 117, 7.322653770446777
0, 0, 118, 7.62406063079834
0, 0, 119, 3.33701491355896
0, 0, 120, 4.660620212554932
0, 0, 121, 3.135362386703491
0, 0, 122, 7.04083251953125
0, 0, 123, 2.618436336517334
0, 0, 124, 5.3018798828125
0, 0, 125, 2.873482465744019
0, 0, 126, 3.771351337432861
0, 0, 127, 3.816018342971802
0, 1, 0, 10.58545589447021
0, 1, 1, 5.086236000061035
0, 1, 2, 3.76289439201355
0, 1, 3, 2.448011159896851
0, 1, 4, 3.244611740112305
0, 1, 5, 3.604925632476807
0, 1, 6, 2.999981880187988
0, 1, 7, 4.776365280151367
0, 1, 8, 6.110988616943359
0, 1, 9, 4.014031410217285
0, 1, 10, 8.901272773742676
0, 1, 11, 12.48448753356934
0, 1, 12, 7.599983692169189
0, 1, 13, 7.832833766937256
0, 1, 14, 8.704145431518555
0, 1, 15, 7.169381618499756
0, 1, 16, 10.80170345306396
0, 1, 17, 12.52678966522217
0, 1, 18, 20.43029403686523
0, 1, 19, 65.07744598388672
0, 1, 20, 199.9876708984375
0, 1, 21, 254.1804504394531
0, 1, 22, 294.6088562011719
0, 1, 23, 284.330810546875
0, 1, 24, 278.9049072265625
0, 1, 25, 288.4975891113281
0, 1, 26, 267.5340270996094
0, 1, 27, 305.5257568359375
0, 1, 28, 300.0986328125
0, 1, 29, 296.3926696777344
0, 1, 30, 283.6441040039062
0, 1, 31, 291.9254455566406
0, 1, 32, 289.9457397460938
0, 1, 33, 296.5794982910156
0, 1, 34, 291.1070556640625
0, 1, 35, 281.2107543945312
0, 1, 36, 305.4180297851562
0, 1, 37, 295.0638122558594
0, 1, 38, 278.5263061523438
0, 1, 39, 295.4158325195312
0, 1, 40, 265.6519470214844
0, 1, 41, 286.5601196289062
0, 1, 42, 289.7369689941406
0, 1, 43, 331.5342102050781
0, 1, 44, 279.2010803222656
0, 1, 45, 292.7595825195312
0, 1, 46, 260.3392944335938
0, 1, 47, 312.15625
0, 1, 48, 284.2403259277344
0, 1, 49, 299.9741821289062
0, 1, 50, 260.8714599609375
0, 1, 51, 271.4017944335938
0, 1, 52, 296.0469360351562
0, 1, 53, 306.2933654785156
0, 1, 54, 274.0749816894531
0, 1, 55, 293.8576965332031
0, 1, 56, 275.6280517578125
0, 1, 57, 297.3868713378906
0, 1, 58, 309.5716552734375
0, 1, 59, 292.2431335449219
0, 1, 60, 297.4011535644531
0, 1, 61, 274.2610168457031
0, 1, 62, 306.3191528320312
0, 1, 63, 285.7592468261719
0, 1, 64, 288.2174072265625
0, 1, 65, 295.00732421875
0, 1, 66, 291.1760559082031
0, 1, 67, 292.9098510742188
0, 1, 68, 277.0403137207031
0, 1, 69, 281.8605346679688
0, 1, 70, 269.9521789550781
0, 1, 71, 273.5421752929688
0, 1, 72, 285.0974731445312
0, 1, 73, 305.1683959960938
0, 1, 74, 304.3298034667969
0, 1, 75, 291.780029296875
0, 1, 76, 284.2654724121094
0, 1, 77, 291.2720947265625
0, 1, 78, 297.0259399414062
0, 1, 79, 302.7313232421875
0, 1, 80, 295.8505554199219
0, 1, 81, 301.6156921386719
0, 1, 82, 283.3033752441406
0, 1, 83, 331.9955139160156
0, 1, 84, 307.7784729003906
0, 1, 85, 253.7438201904297
0, 1, 86, 294.0552978515625
0, 1, 87, 291.7843933105469
0, 1, 88, 299.7571105957031
0, 1, 89, 289.5361022949219
0, 1, 90, 268.8352966308594
0, 1, 91, 317.7354125976562
0, 1, 92, 291.315185546875
0, 1, 93, 287.1435852050781
0, 1, 94, 303.9909973144531
0, 1, 95, 283.9832458496094
0, 1, 96, 282.7596435546875
0, 1, 97, 300.7909851074219
0, 1, 98, 277.5978698730469
0, 1, 99, 267.0508728027344
0, 1, 100, 277.6358337402344
0, 1, 101, 283.327392578125
0, 1, 102, 278.627197265625
0, 1, 103, 280.7817993164062
0, 1, 104, 305.9208984375
0, 1, 105, 296.1613464355469
0, 1, 106, 260.3906860351562
0, 1, 107, 190.9104919433594
0, 1, 108, 80.79640960693359
0, 1, 109, 24.56062316894531
0, 1, 110, 10.85698795318604
0, 1, 111, 9.570145606994629
0, 1, 112, 12.4287805557251
0, 1, 113, 6.503012180328369
0, 1, 114, 6.384737491607666
0, 1, 115, 8.052425384521484
0, 1, 116, 11.40193271636963
0, 1, 117, 5.806007862091064
0, 1, 118, 5.501965045928955
0, 1, 119, 6.648471832275391
0, 1, 120, 4.42621898651123
0, 1, 121, 4.077554225921631
0, 1, 122, 4.467243671417236
0, 1, 123, 2.236442565917969
0, 1, 124, 8.087248802185059
0, 1, 125, 4.478667259216309
0, 1, 126, 2.942771911621094
0, 1, 127, 2.307725667953491
0, 2, 0, 4.697988986968994
0, 2, 1, 2.398838758468628
0, 2, 2, 4.047184944152832
0, 2, 3, 3.858193874359131
0, 2, 4, 2.963592052459717
0, 2, 5, 4.359578609466553
0, 2, 6, 2.994571208953857
0, 2, 7, 4.052866458892822
0, 2, 8, 4.587238311767578
0, 2, 9, 6.355784893035889
0, 2, 10, 7.425970077514648
0, 2, 11, 5.426849365234375
0, 2, 12, 7.378579139709473
0, 2, 13, 10.68718719482422
0, 2, 14, 11.26179504394531
0, 2, 15, 7.328037738800049
0, 2, 16, 10.78908348083496
0, 2, 17, 15.60844326019287
0, 2, 18, 28.28632545471191
0, 2, 19, 119.8478317260742
0, 2, 20, 247.0440521240234
0, 2, 21, 270.1356811523438
0, 2, 22, 315.0661315917969
0, 2, 23, 300.32666015625
0, 2, 24, 288.6006164550781
0, 2, 25, 304.4510498046875
0, 2, 26, 294.0226135253906
0, 2, 27, 275.0321655273438
0, 2, 28, 272.7727661132812
0, 2, 29, 273.296875
0, 2, 30, 289.7876892089844
0, 2, 31, 278.4353942871094
0, 2, 32, 294.3658752441406
0, 2, 33, 283.9372863769531
0, 2, 34, 333.8911437988281
0, 2, 35, 291.0883483886719
0, 2, 36, 303.4446105957031
0, 2, 37, 317.6015319824219
0, 2, 38, 312.0724182128906
0, 2, 39, 268.3005676269531
0, 2, 40, 309.1244812011719
0, 2, 41, 292.9668579101562
0, 2, 42, 302.8047180175781
0, 2, 43, 313.2951049804688
0, 2, 44, 311.6714782714844
0, 2, 45, 324.2455749511719
0, 2, 46, 289.0935974121094
0, 2, 47, 302.4660034179688
0, 2, 48, 281.2424011230469
0, 2, 49, 279.6732482910156
0, 2, 50, 294.9166564941406
0, 2, 51, 283.9994506835938
0, 2, 52, 273.9322509765625
0, 2, 53, 289.8428344726562
0, 2, 54, 279.537109375
0, 2, 55, 273.9170227050781
0, 2, 56, 301.2647399902344
0, 2, 57, 291.1887512207031
0, 2, 58, 302.1109924316406
0, 2, 59, 287.4913940429688
0, 2, 60, 320.5577392578125
0, 2, 61, 301.18359375
0, 2, 62, 315.7210388183594
0, 2, 63, 302.0569458007812
0, 2, 64, 296.9373168945312
0, 2, 65, 314.6583251953125
0, 2, 66, 279.6536254882812
0, 2, 67, 290.3251647949219
0, 2, 68, 295.4538879394531
0, 2, 69, 309.67236328125
0, 2, 70, 333.8682556152344
0, 2, 71, 284.806640625
0, 2, 72, 303.10498046875
0, 2, 73, 309.838134765625
0, 2, 74, 285.4906616210938
0, 2, 75, 304.2759399414062
0, 2, 76, 285.3616638183594
0, 2, 77, 299.6203918457031
0, 2, 78, 315.7867431640625
0, 2, 79, 307.3796997070312
0, 2, 80, 294.7255249023438
0, 2, 81, 283.725341796875
0, 2, 82, 318.2047729492188
0, 2, 83, 313.0038452148438
0, 2, 84, 291.9980773925781
0, 2, 85, 281.9436950683594
0, 2, 86, 324.6967468261719
0, 2, 87, 287.76416015625
0, 2, 88, 280.4653015136719
0, 2, 89, 296.8164978027344
0, 2, 90, 295.1854858398438
0, 2, 91, 276.2588806152344
0, 2, 92, 307.5082397460938
0, 2, 93, 319.0820922851562
0, 2, 94, 292.3123779296875
0, 2, 95, 314.0460815429688
0, 2, 96, 314.77880859375
0, 2, 97, 292.8494567871094
0, 2, 98, 292.6539611816406
0, 2, 99, 274.2652893066406
0, 2, 100, 306.486083984375
0, 2, 101, 301.3746032714844
0, 2, 102, 296.1670837402344
0, 2, 103, 291.8214721679688
0, 2, 104, 294.4902648925781
0, 2, 105, 273.6112060546875
0, 2, 106, 298.3334655761719
0, 2, 107, 275.5608215332031
0, 2, 108, 117.612678527832
0, 2, 109, 33.06959915161133
0, 2, 110, 9.182072639465332
0, 2, 111, 12.24770069122314
0, 2, 112, 6.555720329284668
0, 2, 113, 10.07334995269775
0, 2, 114, 9.963302612304688
0, 2, 115, 10.17464065551758
0, 2, 116, 9.371030807495117
0, 2, 117, 5.64764928817749
0, 2, 118, 1.880987167358398
0, 2, 119, 4.811048030853271
0, 2, 120, 6.144574165344238
0, 2, 121, 1.088979721069336
0, 2, 122, 3.231051206588745
0, 2, 123, 6.514257431030273
0, 2, 124, 2.263161420822144
0, 2, 125, 5.179341316223145
0, 2, 126, 4.434042930603027
0, 2, 127, 6.5906982421875
0, 3, 0, 5.351720809936523
0, 3, 1, 3.380178451538086
0, 3, 2, 2.965744018554688
0, 3, 3, 3.804003715515137
0, 3, 4, 3.182030200958252
0, 3, 5, 6.39921236038208
0, 3, 6, 7.238566875457764
0, 3, 7, 5.732521057128906
0, 3, 8, 6.379764556884766
0, 3, 9, 4.687554836273193
0, 3, 10, 6.206207275390625
0, 3, 11, 4.857961654663086
0, 3, 12, 7.768181800842285
0, 3, 13, 15.42488384246826
0, 3, 14, 11.38433647155762
0, 3, 15, 13.8150463104248
0, 3, 16, 13.09640979766846
0, 3, 17, 18.80546569824219
0, 3, 18, 50.28718185424805
0, 3, 19, 175.3630981445312
0, 3, 20, 269.18359375
0, 3, 21, 271.6230163574219
0, 3, 22, 281.8016052246094
0, 3, 23, 286.2455444335938
0, 3, 24, 285.0763244628906
0, 3, 25, 271.9821472167969
0, 3, 26, 303.7133483886719
0, 3, 27, 291.6109619140625
0, 3, 28, 284.2655029296875
0, 3, 29, 337.8529052734375
0, 3, 30, 315.8611755371094
0, 3, 31, 287.6325988769531
0, 3, 32, 305.9520263671875
0, 3, 33, 313.4857177734375
0, 3, 34, 322.3473205566406
0, 3, 35, 306.1671142578125
0, 3, 36, 269.39111328125
0, 3, 37, 315.2883911132812
0, 3, 38, 302.7745361328125
0, 3, 39, 290.2953491210938
0, 3, 40, 266.4407348632812
0, 3, 41, 301.0672302246094
0, 3, 42, 285.0404968261719
0, 3, 43, 304.6634826660156
0, 3, 44, 310.1644897460938
0, 3, 45, 291.4510192871094
0, 3, 46, 329.2294921875
0, 3, 47, 298.7781982421875
0, 3, 48, 304.0857849121094
0, 3, 49, 277.2192993164062
0, 3, 50, 291.6571044921875
0, 3, 51, 274.9048767089844
0, 3, 52, 316.3265991210938
0, 3, 53, 290.0201110839844
0, 3, 54, 284.4012145996094
0, 3, 55, 285.7779235839844
0, 3, 56, 298.04443359375
0, 3, 57, 288.5180358886719
0, 3, 58, 307.4573974609375
0, 3, 59, 300.7229614257812
0, 3, 60, 297.9279174804688
0, 3, 61, 264.3648681640625
0, 3, 62, 285.3816528320312
0, 3, 63, 308.455810546875
0, 3, 64, 315.7496948242188
0, 3, 65, 306.4576721191406
0, 3, 66, 314.1953125
0, 3, 67, 318.2460327148438
0, 3, 68, 279.6852111816406
0, 3, 69, 283.8296508789062
0, 3, 70, 288.3876342773438
0, 3, 71, 303.6150817871094
0, 3, 72, 273.0638732910156
0, 3, 73, 308.6868591308594
0, 3, 74, 293.2836303710938
0, 3, 75, 289.5327453613281
0, 3, 76, 305.3635864257812
0, 3, 77, 312.37451171875
0, 3, 78, 305.0330200195312
0, 3, 79, 281.8478088378906
0, 3, 80, 293.4971618652344
0, 3, 81, 311.5388488769531
0, 3, 82, 314.5542602539062
0, 3, 83, 301.5367126464844
0, 3, 84, 311.4444274902344
0, 3, 85, 291.0979309082031
0, 3, 86, 303.906982421875
0, 3, 87, 296.4259948730469
0, 3, 88, 298.5418395996094
0, 3, 89, 295.2693176269531
0, 3, 90, 276.9599914550781
0, 3, 91, 284.0735473632812
0, 3, 92, 303.1404724121094
0, 3, 93, 314.7183227539062
0, 3, 94, 299.8953552246094
0, 3, 95, 334.367431640625
0, 3, 96, 290.2668151855469
0, 3, 97, 284.1081848144531
0, 3, 98, 280.4828186035156
0, 3, 99, 261.2904663085938
0, 3, 100, 284.8552856445312
0, 3, 101, 297.2001037597656
0, 3, 102, 276.5364685058594
0, 3, 103, 322.2514953613281
0, 3, 104, 308.7999267578125
0, 3, 105, 288.1769104003906
0, 3, 106, 304.5872802734375
0, 3, 107, 281.1707763671875
0, 3, 108, 171.3000640869141
0, 3, 109, 56.5842170715332
0, 3, 110, 20.03470993041992
0, 3, 111, 13.07124328613281
0, 3, 112, 13.64511013031006
0, 3, 113, 6.195323944091797
0, 3, 114, 11.07980632781982
0, 3, 115, 10.07765102386475
0, 3, 116, 6.69556713104248
0, 3, 117, 7.349533557891846
0, 3, 118, 8.47169303894043
0, 3, 119, 6.690344333648682
0, 3, 120, 5.203711032867432
0, 3, 121, 2.225113391876221
0, 3, 122, 4.621049880981445
0, 3, 123, 6.00419282913208
0, 3, 124, 2.952428340911865
0, 3, 125, 6.401243209838867
0, 3, 126, 4.785860061645508
0, 3, 127, 3.797701835632324
0, 4, 0, 4.99018669128418
0, 4, 1, 4.574052333831787
0, 4, 2, 3.539634943008423
0, 4, 3, 1.695375323295593
0, 4, 4, 7.717445373535156
0, 4, 5, 8.210179328918457
0, 4, 6, 5.562159538269043
0, 4, 7, 6.273845195770264
0, 4, 8, 2.77930760383606
0, 4, 9, 6.773615837097168
0, 4, 10, 6.468114376068115
0, 4, 11, 6.405561447143555
0, 4, 12, 5.723814010620117
0, 4, 13, 7.933127880096436
0, 4, 14, 9.890976905822754
0, 4, 15, 10.3924388885498
0, 4, 16, 14.64675140380859
0, 4, 17, 19.90237045288086
0, 4, 18, 94.48323059082031
0, 4, 19, 222.7131500244141
0, 4, 20, 285.798583984375
0, 4, 21, 272.9909362792969
0, 4, 22, 304.4301452636719
0, 4, 23, 266.9689636230469
0, 4, 24, 288.8514709472656
0, 4, 25, 273.8573913574219
0, 4, 26, 296.3259887695312
0, 4, 27, 282.3861083984375
0, 4, 28, 305.2820434570312
0, 4, 29, 323.2398986816406
0, 4, 30, 308.8124084472656
0, 4, 31, 305.0015869140625
0, 4, 32, 280.6493530273438
0, 4, 33, 295.3734436035156
0, 4, 34, 295.9765625
0, 4, 35, 312.1176452636719
0, 4, 36, 293.6441650390625
0, 4, 37, 289.0078735351562
0, 4, 38, 298.5642395019531
0, 4, 39, 294.9898376464844
0, 4, 40, 302.427490234375
0, 4, 41, 310.7229919433594
0, 4, 42, 328.3930969238281
0, 4, 43, 296.3522338867188
0, 4, 44, 321.01318359375
0, 4, 45, 326.4306640625
0, 4, 46, 306.5363159179688
0, 4, 47, 292.3581848144531
0, 4, 48, 295.1309814453125
0, 4, 49, 278.468994140625
0, 4, 50, 295.6343994140625
0, 4, 51, 315.5647583007812
0, 4, 52, 326.2684936523438
0, 4, 53, 303.8659973144531
0, 4, 54, 287.1224060058594
0, 4, 55, 315.892578125
0, 4, 56, 286.2673950195312
0, 4, 57, 314.8148193359375
0, 4, 58, 296.7933044433594
0, 4, 59, 309.5781860351562
0, 4, 60, 301.2655334472656
0, 4, 61, 314.965576171875
0, 4, 62, 309.5019836425781
0, 4, 63, 299.3285217285156
0, 4, 64, 330.1306762695312
0, 4, 65, 315.8534851074219
0, 4, 66, 294.3396911621094
0, 4, 67, 285.1720886230469
0, 4, 68, 314.511474609375
0, 4, 69, 277.9997863769531
0, 4, 70, 300.5139465332031
0, 4, 71, 321.1386108398438
0, 4, 72, 332.0041809082031
0, 4, 73, 298.14404296875
0, 4, 74, 292.5309448242188
0, 4, 75, 291.3491516113281
0, 4, 76, 276.0399169921875
0, 4, 77, 277.7413024902344
0, 4, 78, 310.8181762695312
0, 4, 79, 319.0516357421875
0, 4, 80, 314.4444274902344
0, 4, 81, 313.54052734375
0, 4, 82, 297.2453308105469
0, 4, 83, 301.2054748535156
0, 4, 84, 290.117919921875
0, 4, 85, 295.1582336425781
0, 4, 86, 299.0586242675781
0, 4, 87, 286.4716186523438
0, 4, 88, 308.0096740722656
0, 4, 89, 295.1707153320312
0, 4, 90, 333.032470703125
0, 4, 91, 305.5687561035156
0, 4, 92, 288.4460144042969
0, 4, 93, 295.2038879394531
0, 4, 94, 295.229248046875
0, 4, 95, 287.8098449707031
0, 4, 96, 325.4974365234375
0, 4, 97, 274.2174377441406
0, 4, 98, 326.7046203613281
0, 4, 99, 314.7781066894531
0, 4, 100, 299.7842102050781
0, 4, 101, 256.4783325195312
0, 4, 102, 296.1768188476562
0, 4, 103, 316.919189453125
0, 4, 104, 281.468505859375
0, 4, 105, 310.0852355957031
0, 4, 106, 285.4951171875
0, 4, 107, 295.6251525878906
0, 4, 108, 225.7349243164062
0, 4, 109, 80.63565826416016
0, 4, 110, 17.83345031738281
0, 4, 111, 12.872971534729
0, 4, 112, 8.813521385192871
0, 4, 113, 10.88058757781982
0, 4, 114, 8.096736907958984
0, 4, 115, 9.939167976379395
0, 4, 116, 12.5217227935791
0, 4, 117, 5.920036315917969
0, 4, 118, 8.141780853271484
0, 4, 119, 10.74469470977783
0, 4, 120, 7.117316722869873
0, 4, 121, 4.253067493438721
0, 4, 122, 4.763228416442871
0, 4, 123, 6.957423686981201
0, 4, 124, 6.610811233520508
0, 4, 125, 10.11336421966553
0, 4, 126, 3.634645223617554
0, 4, 127, 3.098650217056274
0, 5, 0, 5.376925468444824
0, 5, 1, 4.085525512695312
0, 5, 2, 3.157243013381958
0, 5, 3, 4.761527538299561
0, 5, 4, 5.930671215057373
0, 5, 5, 6.221293449401855
0, 5, 6, 10.59938716888428
0, 5, 7, 6.304620265960693
0, 5, 8, 6.01606559753418
0, 5, 9, 5.066657066345215
0, 5, 10, 7.586751461029053
0, 5, 11, 8.418437004089355
0, 5, 12, 10.5248851776123
0, 5, 13, 7.166444778442383
0, 5, 14, 13.6339111328125
0, 5, 15, 16.16473770141602
0, 5, 16, 13.73915195465088
0, 5, 17, 28.69073104858398
0, 5, 18, 136.4922637939453
0, 5, 19, 287.0566101074219
0, 5, 20, 307.8207702636719
0, 5, 21, 315.8204345703125
0, 5, 22, 274.7038879394531
0, 5, 23, 310.3047180175781
0, 5, 24, 300.481201171875
0, 5, 25, 288.4708557128906
0, 5, 26, 293.7531433105469
0, 5, 27, 322.1734008789062
0, 5, 28, 301.2455139160156
0, 5, 29, 299.5346069335938
0, 5, 30, 325.985595703125
0, 5, 31, 286.8139343261719
0, 5, 32, 301.3998718261719
0, 5, 33, 306.8125915527344
0, 5, 34, 298.3907775878906
0, 5, 35, 308.7148742675781
0, 5, 36, 270.7806396484375
0, 5, 37, 282.8481750488281
0, 5, 38, 292.82763671875
0, 5, 39, 315.5564270019531
0, 5, 40, 309.1483764648438
0, 5, 41, 272.0967407226562
0, 5, 42, 305.8079833984375
0, 5, 43, 314.7395629882812
0, 5, 44, 291.9142761230469
0, 5, 45, 301.5104370117188
0, 5, 46, 263.8852233886719
0, 5, 47, 280.0977478027344
0, 5, 48, 292.478759765625
0, 5, 49, 284.5848999023438
0, 5, 50, 293.5890502929688
0, 5, 51, 279.6524047851562
0, 5, 52, 270.9896850585938
0, 5, 53, 283.537109375
0, 5, 54, 292.6927795410156
0, 5, 55, 344.7309265136719
0, 5, 56, 305.9955139160156
0, 5, 57, 307.9299926757812
0, 5, 58, 311.1473999023438
0, 5, 59, 302.061279296875
0, 5, 60, 307.5260009765625
0, 5, 61, 282.1489868164062
0, 5, 62, 325.8583068847656
0, 5, 63, 289.6697082519531
0, 5, 64, 321.8606262207031
0, 5, 65, 307.5331420898438
0, 5, 66, 326.3684997558594
0, 5, 67, 313.1225280761719
0, 5, 68, 308.71337890625
0, 5, 69, 313.2161865234375
0, 5, 70, 303.49951171875
0, 5, 71, 273.0818481445312
0, 5, 72, 309.6452331542969
0, 5, 73, 302.9436950683594
0, 5, 74, 296.8916625976562
0, 5, 75, 293.0838623046875
0, 5, 76, 285.9050903320312
0, 5, 77, 298.9080810546875
0, 5, 78, 315.3453674316406
0, 5, 79, 309.7189025878906
0, 5, 80, 295.1692199707031
0, 5, 81, 325.3529357910156
0, 5, 82, 324.3585815429688
0, 5, 83, 283.0152282714844
0, 5, 84, 301.2813110351562
0, 5, 85, 269.9930419921875
0, 5, 86, 324.498779296875
0, 5, 87, 282.7546081542969
0, 5, 88, 315.9090881347656
0, 5, 89, 305.7844848632812
0, 5, 90, 315.1563720703125
0, 5, 91, 315.2362365722656
0, 5, 92, 296.2256774902344
0, 5, 93, 324.4597473144531
0, 5, 94, 310.8311462402344
0, 5, 95, 296.8354187011719
0, 5, 96, 297.9948425292969
0, 5, 97, 296.0827026367188
0, 5, 98, 318.3217163085938
0, 5, 99, 302.5657653808594
0, 5, 100, 290.591796875
0, 5, 101, 306.5580444335938
0, 5, 102, 291.4378356933594
0, 5, 103, 312.9616394042969
0, 5, 104, 304.5372314453125
0, 5, 105, 292.8959350585938
0, 5, 106, 280.8855895996094
0, 5, 107, 294.1096801757812
0, 5, 108, 263.1988525390625
0, 5, 109, 155.1365356445312
0, 5, 110, 40.73015594482422
0, 5, 111, 18.63508033752441
0, 5, 112, 18.25065040588379
0, 5, 113, 12.1800537109375
0, 5, 114, 12.30003833770752
0, 5, 115, 10.29190349578857
0, 5, 116, 10.10185718536377
0, 5, 117, 9.603860855102539
0, 5, 118, 12.96150588989258
0, 5, 119, 4.211889266967773
0, 5, 120, 5.426368236541748
0, 5, 121, 6.153448104858398
0, 5, 122, 4.591738700866699
0, 5, 123, 5.423009395599365
0, 5, 124, 5.492588996887207
0, 5, 125, 4.318254947662354
0, 5, 126, 5.597191333770752
0, 5, 127, 4.898329734802246
0, 6, 0, 2.775791645050049
0, 6, 1, 2.160362243652344
0, 6, 2, 3.902679920196533
0, 6, 3, 8.005349159240723
0, 6, 4, 3.663497686386108
0, 6, 5, 5.018039226531982
0, 6, 6, 9.227166175842285
0, 6, 7, 5.467277526855469
0, 6, 8, 7.610897541046143
0, 6, 9, 6.887802124023438
0, 6, 10, 7.200910568237305
0, 6, 11, 8.331374168395996
0, 6, 12, 9.381671905517578
0, 6, 13, 15.87036800384521
0, 6, 14, 8.090405464172363
0, 6, 15, 16.64531135559082
0, 6, 16, 27.1455078125
0, 6, 17, 54.95932006835938
0, 6, 18, 175.0734252929688
0, 6, 19, 276.5320739746094
0, 6, 20, 292.7987365722656
0, 6, 21, 313.8475646972656
0, 6, 22, 320.203125
0, 6, 23, 304.422119140625
0, 6, 24, 318.6259460449219
0, 6, 25, 315.8192443847656
0, 6, 26, 319.1707153320312
0, 6, 27, 331.9897155761719
0, 6, 28, 296.037353515625
0, 6, 29, 330.0523681640625
0, 6, 30, 280.8414916992188
0, 6, 31, 284.7895812988281
0, 6, 32, 340.2023010253906
0, 6, 33, 300.1685791015625
0, 6, 34, 339.6394348144531
0, 6, 35, 320.3811340332031
0, 6, 36, 274.1939086914062
0, 6, 37, 289.2966613769531
0, 6, 38, 310.6318054199219
0, 6, 39, 298.7772827148438
0, 6, 40, 286.2904052734375
0, 6, 41, 295.4743347167969
0, 6, 42, 302.1325378417969
0, 6, 43, 288.6032409667969
0, 6, 44, 280.527587890625
0, 6, 45, 321.3664855957031
0, 6, 46, 304.9511413574219
0, 6, 47, 333.3045654296875
0, 6, 48, 294.321533203125
0, 6, 49, 310.0012512207031
0, 6, 50, 329.415283203125
0, 6, 51, 310.7267456054688
0, 6, 52, 321.1219177246094
0, 6, 53, 330.7425537109375
0, 6, 54, 303.1490478515625
0, 6, 55, 306.5826721191406
0, 6, 56, 295.5958557128906
0, 6, 57, 313.4672546386719
0, 6, 58, 262.1030883789062
0, 6, 59, 303.5525207519531
0, 6, 60, 312.8789672851562
0, 6, 61, 270.2894897460938
0, 6, 62, 338.4515991210938
0, 6, 63, 323.9606628417969
0, 6, 64, 292.3501281738281
0, 6, 65, 283.3948669433594
0, 6, 66, 303.4615783691406
0, 6, 67, 310.2886962890625
0, 6, 68, 293.9937133789062
0, 6, 69, 277.189697265625
0, 6, 70, 273.6412658691406
0, 6, 71, 289.0298156738281
0, 6, 72, 310.0517272949219
0, 6, 73, 293.8735656738281
0, 6, 74, 329.3665466308594
0, 6, 75, 343.0247497558594
0, 6, 76, 295.7954406738281
0, 6, 77, 288.35546875
0, 6, 78, 279.1560974121094
0, 6, 79, 293.4862670898438
0, 6, 80, 301.1348876953125
0, 6, 81, 314.2072143554688
0, 6, 82, 319.2602233886719
0, 6, 83, 322.5998229980469
0, 6, 84, 298.0650024414062
0, 6, 85, 301.9930725097656
0, 6, 86, 331.0356750488281
0, 6, 87, 296.5959167480469
0, 6, 88, 305.8957214355469
0, 6, 89, 303.6792602539062
0, 6, 90, 299.3743591308594
0, 6, 91, 318.1953735351562
0, 6, 92, 286.2080383300781
0, 6, 93, 296.2447814941406
0, 6, 94, 273.6485900878906
0, 6, 95, 300.3983154296875
0, 6, 96, 347.5542602539062
0, 6, 97, 309.0570373535156
0, 6, 98, 301.1255493164062
0, 6, 99, 271.9988403320312
0, 6, 100, 309.7219848632812
0, 6, 101, 295.0227355957031
0, 6, 102, 309.4303283691406
0, 6, 103, 307.8276062011719
0, 6, 104, 290.5572204589844
0, 6, 105, 301.8684997558594
0, 6, 106, 307.15234375
0, 6, 107, 303.9448547363281
0, 6, 108, 265.6007995605469
0, 6, 109, 189.4125366210938
0, 6, 110, 57.21659088134766
0, 6, 111, 21.62454605102539
0, 6, 112, 13.92522144317627
0, 6, 113, 11.82705307006836
0, 6, 114, 12.66068077087402
0, 6, 115, 12.80198001861572
0, 6, 116, 11.48382949829102
0, 6, 117, 7.804385185241699
0, 6, 118, 10.06158924102783
0, 6, 119, 8.22711181640625
0, 6, 120, 5.377432346343994
0, 6, 121, 8.250450134277344
0, 6, 122, 5.861145973205566
0, 6, 123, 5.629271507263184
0, 6, 124, 9.993997573852539
0, 6, 125, 7.314298152923584
0, 6, 126, 4.291451930999756
0, 6, 127, 7.736062049865723
0, 7, 0, 4.82124662399292
0, 7, 1, 3.32157301902771
0, 7, 2, 6.960566520690918
0, 7, 3, 3.355672597885132
0, 7, 4, 4.54149866104126
0, 7, 5, 5.676975250244141
0, 7, 6, 5.310391902923584
0, 7, 7, 7.262079238891602
0, 7, 8, 5.017418384552002
0, 7, 9, 8.708192825317383
0, 7, 10, 7.829479217529297
0, 7, 11, 14.74284934997559
0, 7, 12, 9.643296241760254
0, 7, 13, 14.75952053070068
0, 7, 14, 10.58571815490723
0, 7, 15, 15.28679275512695
0, 7, 16, 27.79371070861816
0, 7, 17, 96.39493560791016
0, 7, 18, 220.3522796630859
0, 7, 19, 288.6566772460938
0, 7, 20, 297.8922729492188
0, 7, 21, 275.8117065429688
0, 7, 22, 300.694091796875
0, 7, 23, 291.3154907226562
0, 7, 24, 312.2898559570312
0, 7, 25, 325.6242980957031
0, 7, 26, 276.9007568359375
0, 7, 27, 299.2680969238281
0, 7, 28, 325.0917663574219
0, 7, 29, 318.6214599609375
0, 7, 30, 299.072509765625
0, 7, 31, 277.129150390625
0, 7, 32, 308.0158996582031
0, 7, 33, 262.0363464355469
0, 7, 34, 298.7741088867188
0, 7, 35, 320.3139038085938
0, 7, 36, 329.7043762207031
0, 7, 37, 325.4996948242188
0, 7, 38, 300.6337890625
0, 7, 39, 307.0589904785156
0, 7, 40, 289.9067993164062
0, 7, 41, 271.8044128417969
0, 7, 42, 303.5007629394531
0, 7, 43, 273.0362243652344
0, 7, 44, 303.1189575195312
0, 7, 45, 293.9571228027344
0, 7, 46, 280.7811889648438
0, 7, 47, 330.0482177734375
0, 7, 48, 286.7276000976562
0, 7, 49, 301.7921447753906
0, 7, 50, 321.2578430175781
0, 7, 51, 298.2587585449219
0, 7, 52, 326.0420837402344
0, 7, 53, 309.3140258789062
0, 7, 54, 323.4879760742188
0, 7, 55, 307.8658752441406
0, 7, 56, 279.2687072753906
0, 7, 57, 280.2521667480469
0, 7, 58, 296.3442077636719
0, 7, 59, 293.5004272460938
0, 7, 60, 322.4779968261719
0, 7, 61, 278.2760314941406
0, 7, 62, 300.4332275390625
0, 7, 63, 294.2389831542969
0, 7, 64, 307.6594543457031
0, 7, 65, 329.9653930664062
0, 7, 66, 317.1316528320312
0, 7, 67, 302.1546936035156
0, 7, 68, 283.0920715332031
0, 7, 69, 292.9362487792969
0, 7, 70, 300.6008605957031
0, 7, 71, 309.3001403808594
0, 7, 72, 286.5594787597656
0, 7, 73, 294.451904296875
0, 7, 74, 344.1749572753906
0, 7, 75, 320.5027465820312
0, 7, 76, 324.4757080078125
0, 7, 77, 281.4677429199219
0, 7, 78, 299.6470031738281
0, 7, 79, 297.6353454589844
0, 7, 80, 310.4192810058594
0, 7, 81, 318.4863586425781
0, 7, 82, 328.6634216308594
0, 7, 83, 316.352294921875
0, 7, 84, 311.4978942871094
0, 7, 85, 274.8248901367188
0, 7, 86, 311.8926696777344
0, 7, 87, 308.9970703125
0, 7, 88, 309.5957946777344
0, 7, 89, 293.6123657226562
0, 7, 90, 306.047119140625
0, 7, 91, 315.5087280273438
0, 7, 92, 289.0075378417969
0, 7, 93, 307.8447570800781
0, 7, 94, 274.0575561523438
0, 7, 95, 295.4209594726562
0, 7, 96, 330.6853332519531
0, 7, 97, 295.5674133300781
0, 7, 98, 292.1511535644531
0, 7, 99, 314.4579162597656
0, 7, 100, 282.8262634277344
0, 7, 101, 276.1357727050781
0, 7, 102, 291.2974853515625
0, 7, 103, 293.8269958496094
0, 7, 104, 274.3464965820312
0, 7, 105, 306.6995544433594
0, 7, 106, 318.801513671875
0, 7, 107, 296.0580139160156
0, 7, 108, 273.1184997558594
0, 7, 109, 235.1996002197266
0, 7, 110, 97.31186676025391
0, 7, 111, 23.99171829223633
0, 7, 112, 12.56304836273193
0, 7, 113, 13.94176959991455
0, 7, 114, 13.82585334777832
0, 7, 115, 9.955259323120117
0, 7, 116, 8.563912391662598
0, 7, 117, 5.209466934204102
0, 7, 118, 9.418766021728516
0, 7, 119, 7.389583110809326
0, 7, 120, 4.474030494689941
0, 7, 121, 7.693300724029541
0, 7, 122, 9.579320907592773
0, 7, 123, 4.450655937194824
0, 7, 124, 5.151175498962402
0, 7, 125, 8.620265960693359
0, 7, 126, 8.370305061340332
0, 7, 127, 1.483935117721558
0, 8, 0, 3.304038524627686
0, 8, 1, 4.345148086547852
0, 8, 2, 4.010539054870605
0, 8, 3, 4.49290943145752
0, 8, 4, 6.072806835174561
0, 8, 5, 3.719174861907959
0, 8, 6, 3.447640419006348
0, 8, 7, 6.884800434112549
0, 8, 8, 8.935583114624023
0, 8, 9, 5.832646369934082
0, 8, 10, 10.28450393676758
0, 8, 11, 11.20906257629395
0, 8, 12, 13.58681297302246
0, 8, 13, 15.41231155395508
0, 8, 14, 12.37116241455078
0, 8, 15, 21.51869583129883
0, 8, 16, 33.00030136108398
0, 8, 17, 131.202392578125
0, 8, 18, 242.1939086914062
0, 8, 19, 294.2304077148438
0, 8, 20, 286.2348937988281
0, 8, 21, 307.7127075195312
0, 8, 22, 296.7308654785156
0, 8, 23, 274.5115051269531
0, 8, 24, 269.5282592773438
0, 8, 25, 275.3605041503906
0, 8, 26, 305.4454345703125
0, 8, 27, 307.1519775390625
0, 8, 28, 303.771484375
0, 8, 29, 321.2268371582031
0, 8, 30, 315.5387268066406
0, 8, 31, 303.9267578125
0, 8, 32, 282.4609985351562
0, 8, 33, 294.4020080566406
0, 8, 34, 288.0543518066406
0, 8, 35, 279.7197265625
0, 8, 36, 315.2245483398438
0, 8, 37, 338.0309143066406
0, 8, 38, 332.6606140136719
0, 8, 39, 279.3586120605469
0, 8, 40, 306.6993408203125
