# TOPAS Version: 3.1.p3
# Parameter File: batch_inserts_78.txt
# Results for scorer Readout_Adipose
# Scored in component: MyBox
# X in 1 bin  of 0.75 cm
# Y in 512 bins of 0.0783984 cm
# Z in 128 bins of 0.078125 cm
# EnergyDeposit ( MeV ) : Sum   
0, 0, 0, 18.87495040893555
0, 0, 1, 15.74232196807861
0, 0, 2, 27.60598754882812
0, 0, 3, 27.66422843933105
0, 0, 4, 20.18377304077148
0, 0, 5, 18.99779891967773
0, 0, 6, 24.6572265625
0, 0, 7, 33.61623382568359
0, 0, 8, 19.75134086608887
0, 0, 9, 24.52248001098633
0, 0, 10, 25.8791446685791
0, 0, 11, 26.72495651245117
0, 0, 12, 34.50222015380859
0, 0, 13, 31.19044494628906
0, 0, 14, 37.95598220825195
0, 0, 15, 46.52424240112305
0, 0, 16, 43.9349250793457
0, 0, 17, 48.32798385620117
0, 0, 18, 77.91683197021484
0, 0, 19, 193.5987548828125
0, 0, 20, 700.3411865234375
0, 0, 21, 1191.070556640625
0, 0, 22, 1245.669799804688
0, 0, 23, 1272.844604492188
0, 0, 24, 1283.082153320312
0, 0, 25, 1357.690673828125
0, 0, 26, 1274.440063476562
0, 0, 27, 1277.68505859375
0, 0, 28, 1324.026000976562
0, 0, 29, 1276.079711914062
0, 0, 30, 1263.208740234375
0, 0, 31, 1280.630859375
0, 0, 32, 1263.661865234375
0, 0, 33, 1246.23291015625
0, 0, 34, 1321.867065429688
0, 0, 35, 1298.3564453125
0, 0, 36, 1248.350463867188
0, 0, 37, 1282.0224609375
0, 0, 38, 1248.252563476562
0, 0, 39, 1243.93994140625
0, 0, 40, 1225.477172851562
0, 0, 41, 1270.33056640625
0, 0, 42, 1259.427368164062
0, 0, 43, 1266.88720703125
0, 0, 44, 1222.35400390625
0, 0, 45, 1285.569458007812
0, 0, 46, 1262.890014648438
0, 0, 47, 1242.832763671875
0, 0, 48, 1279.557983398438
0, 0, 49, 1288.506958007812
0, 0, 50, 1314.925170898438
0, 0, 51, 1260.119262695312
0, 0, 52, 1359.183837890625
0, 0, 53, 1326.56103515625
0, 0, 54, 1295.979125976562
0, 0, 55, 1236.35595703125
0, 0, 56, 1317.191040039062
0, 0, 57, 1291.781494140625
0, 0, 58, 1255.384033203125
0, 0, 59, 1330.021606445312
0, 0, 60, 1327.722900390625
0, 0, 61, 1260.7646484375
0, 0, 62, 1243.290161132812
0, 0, 63, 1278.063720703125
0, 0, 64, 1328.207397460938
0, 0, 65, 1285.234252929688
0, 0, 66, 1318.870361328125
0, 0, 67, 1214.483764648438
0, 0, 68, 1313.106201171875
0, 0, 69, 1322.461059570312
0, 0, 70, 1345.391235351562
0, 0, 71, 1288.722045898438
0, 0, 72, 1314.362426757812
0, 0, 73, 1243.396850585938
0, 0, 74, 1287.023071289062
0, 0, 75, 1298.969116210938
0, 0, 76, 1254.413818359375
0, 0, 77, 1288.169799804688
0, 0, 78, 1315.520751953125
0, 0, 79, 1324.936889648438
0, 0, 80, 1262.326538085938
0, 0, 81, 1321.878051757812
0, 0, 82, 1287.467407226562
0, 0, 83, 1293.600708007812
0, 0, 84, 1325.063720703125
0, 0, 85, 1238.489990234375
0, 0, 86, 1272.022216796875
0, 0, 87, 1246.494140625
0, 0, 88, 1258.327758789062
0, 0, 89, 1332.745483398438
0, 0, 90, 1279.0556640625
0, 0, 91, 1356.846435546875
0, 0, 92, 1312.040283203125
0, 0, 93, 1273.735107421875
0, 0, 94, 1247.54150390625
0, 0, 95, 1327.940551757812
0, 0, 96, 1283.919311523438
0, 0, 97, 1325.267944335938
0, 0, 98, 1257.696044921875
0, 0, 99, 1251.947387695312
0, 0, 100, 1286.910400390625
0, 0, 101, 1312.645385742188
0, 0, 102, 1231.890625
0, 0, 103, 1322.552612304688
0, 0, 104, 1264.541381835938
0, 0, 105, 1267.993530273438
0, 0, 106, 1210.181396484375
0, 0, 107, 779.9393310546875
0, 0, 108, 196.1222839355469
0, 0, 109, 72.67925262451172
0, 0, 110, 62.25969314575195
0, 0, 111, 44.4664306640625
0, 0, 112, 39.46430587768555
0, 0, 113, 34.65031433105469
0, 0, 114, 35.85486221313477
0, 0, 115, 32.30181503295898
0, 0, 116, 29.11363410949707
0, 0, 117, 30.46550941467285
0, 0, 118, 25.21949005126953
0, 0, 119, 21.28492546081543
0, 0, 120, 26.13935852050781
0, 0, 121, 25.73862648010254
0, 0, 122, 21.86480140686035
0, 0, 123, 17.29306411743164
0, 0, 124, 18.06132125854492
0, 0, 125, 21.83693885803223
0, 0, 126, 23.29140281677246
0, 0, 127, 17.79043006896973
0, 1, 0, 28.99439239501953
0, 1, 1, 21.69526100158691
0, 1, 2, 24.60701560974121
0, 1, 3, 20.61098670959473
0, 1, 4, 23.17471313476562
0, 1, 5, 23.52283477783203
0, 1, 6, 23.27980041503906
0, 1, 7, 33.60988235473633
0, 1, 8, 33.06268692016602
0, 1, 9, 27.20649909973145
0, 1, 10, 31.91786003112793
0, 1, 11, 40.67250442504883
0, 1, 12, 38.62656021118164
0, 1, 13, 48.48661422729492
0, 1, 14, 40.13278198242188
0, 1, 15, 46.6907958984375
0, 1, 16, 63.62628936767578
0, 1, 17, 59.4237174987793
0, 1, 18, 97.55092620849609
0, 1, 19, 397.8836364746094
0, 1, 20, 1042.91943359375
0, 1, 21, 1368.712524414062
0, 1, 22, 1478.341186523438
0, 1, 23, 1461.437377929688
0, 1, 24, 1449.591552734375
0, 1, 25, 1423.582641601562
0, 1, 26, 1470.08154296875
0, 1, 27, 1466.319946289062
0, 1, 28, 1492.791015625
0, 1, 29, 1482.614013671875
0, 1, 30, 1508.082275390625
0, 1, 31, 1483.988647460938
0, 1, 32, 1409.5224609375
0, 1, 33, 1498.7685546875
0, 1, 34, 1502.531860351562
0, 1, 35, 1460.975219726562
0, 1, 36, 1492.31982421875
0, 1, 37, 1408.1728515625
0, 1, 38, 1390.4013671875
0, 1, 39, 1524.916748046875
0, 1, 40, 1462.854370117188
0, 1, 41, 1488.442016601562
0, 1, 42, 1496.012329101562
0, 1, 43, 1504.030883789062
0, 1, 44, 1449.224609375
0, 1, 45, 1483.134765625
0, 1, 46, 1424.528564453125
0, 1, 47, 1435.489501953125
0, 1, 48, 1435.692260742188
0, 1, 49, 1487.926879882812
0, 1, 50, 1444.992431640625
0, 1, 51, 1470.727294921875
0, 1, 52, 1475.0205078125
0, 1, 53, 1475.648193359375
0, 1, 54, 1502.448852539062
0, 1, 55, 1497.279174804688
0, 1, 56, 1473.943725585938
0, 1, 57, 1453.781982421875
0, 1, 58, 1430.54443359375
0, 1, 59, 1479.717651367188
0, 1, 60, 1462.383544921875
0, 1, 61, 1453.7265625
0, 1, 62, 1451.950317382812
0, 1, 63, 1414.71923828125
0, 1, 64, 1477.211669921875
0, 1, 65, 1413.018676757812
0, 1, 66, 1441.7451171875
0, 1, 67, 1456.967041015625
0, 1, 68, 1389.735107421875
0, 1, 69, 1464.750610351562
0, 1, 70, 1431.240112304688
0, 1, 71, 1500.918212890625
0, 1, 72, 1434.272094726562
0, 1, 73, 1490.307739257812
0, 1, 74, 1469.990966796875
0, 1, 75, 1475.173095703125
0, 1, 76, 1455.849487304688
0, 1, 77, 1469.403686523438
0, 1, 78, 1451.574951171875
0, 1, 79, 1499.849487304688
0, 1, 80, 1448.539184570312
0, 1, 81, 1424.825927734375
0, 1, 82, 1467.950927734375
0, 1, 83, 1461.01953125
0, 1, 84, 1537.001098632812
0, 1, 85, 1448.793090820312
0, 1, 86, 1402.0732421875
0, 1, 87, 1418.277221679688
0, 1, 88, 1471.217529296875
0, 1, 89, 1473.72802734375
0, 1, 90, 1426.942626953125
0, 1, 91, 1462.922119140625
0, 1, 92, 1411.861083984375
0, 1, 93, 1461.951293945312
0, 1, 94, 1471.747314453125
0, 1, 95, 1421.829467773438
0, 1, 96, 1495.440307617188
0, 1, 97, 1518.529418945312
0, 1, 98, 1475.577392578125
0, 1, 99, 1424.326904296875
0, 1, 100, 1449.820556640625
0, 1, 101, 1414.888793945312
0, 1, 102, 1442.101928710938
0, 1, 103, 1409.415283203125
0, 1, 104, 1405.42626953125
0, 1, 105, 1460.012573242188
0, 1, 106, 1367.78271484375
0, 1, 107, 1020.221374511719
0, 1, 108, 412.5096740722656
0, 1, 109, 90.35420227050781
0, 1, 110, 61.69914627075195
0, 1, 111, 54.08079528808594
0, 1, 112, 48.08634567260742
0, 1, 113, 40.03059387207031
0, 1, 114, 39.04964828491211
0, 1, 115, 40.62714767456055
0, 1, 116, 31.39961624145508
0, 1, 117, 38.45703125
0, 1, 118, 32.68695068359375
0, 1, 119, 33.91389083862305
0, 1, 120, 26.06120109558105
0, 1, 121, 23.11976051330566
0, 1, 122, 20.47612953186035
0, 1, 123, 26.58633995056152
0, 1, 124, 32.88958740234375
0, 1, 125, 21.93762016296387
0, 1, 126, 24.68549537658691
0, 1, 127, 23.03650283813477
0, 2, 0, 17.49505805969238
0, 2, 1, 22.79105377197266
0, 2, 2, 24.34867668151855
0, 2, 3, 19.6794376373291
0, 2, 4, 22.0112133026123
0, 2, 5, 23.23463439941406
0, 2, 6, 24.2900333404541
0, 2, 7, 24.66746711730957
0, 2, 8, 25.17051696777344
0, 2, 9, 32.01382446289062
0, 2, 10, 28.65872764587402
0, 2, 11, 35.15416717529297
0, 2, 12, 43.71728134155273
0, 2, 13, 42.27787780761719
0, 2, 14, 46.61767196655273
0, 2, 15, 44.45734024047852
0, 2, 16, 58.43654251098633
0, 2, 17, 79.74257659912109
0, 2, 18, 141.6575775146484
0, 2, 19, 609.8301391601562
0, 2, 20, 1284.916870117188
0, 2, 21, 1433.916870117188
0, 2, 22, 1454.521484375
0, 2, 23, 1407.84228515625
0, 2, 24, 1438.902954101562
0, 2, 25, 1524.544311523438
0, 2, 26, 1554.826049804688
0, 2, 27, 1454.159545898438
0, 2, 28, 1458.7470703125
0, 2, 29, 1461.134033203125
0, 2, 30, 1464.3486328125
0, 2, 31, 1538.37060546875
0, 2, 32, 1505.868774414062
0, 2, 33, 1450.372924804688
0, 2, 34, 1474.369018554688
0, 2, 35, 1470.774658203125
0, 2, 36, 1524.203857421875
0, 2, 37, 1540.366821289062
0, 2, 38, 1507.357055664062
0, 2, 39, 1469.229370117188
0, 2, 40, 1503.17333984375
0, 2, 41, 1515.256958007812
0, 2, 42, 1509.185302734375
0, 2, 43, 1548.92431640625
0, 2, 44, 1463.373168945312
0, 2, 45, 1482.461547851562
0, 2, 46, 1428.991088867188
0, 2, 47, 1443.755004882812
0, 2, 48, 1399.019897460938
0, 2, 49, 1463.336059570312
0, 2, 50, 1445.8447265625
0, 2, 51, 1447.134033203125
0, 2, 52, 1491.867065429688
0, 2, 53, 1522.45556640625
0, 2, 54, 1522.783569335938
0, 2, 55, 1488.44580078125
0, 2, 56, 1462.190795898438
0, 2, 57, 1418.348876953125
0, 2, 58, 1458.500366210938
0, 2, 59, 1446.31689453125
0, 2, 60, 1475.770751953125
0, 2, 61, 1449.151000976562
0, 2, 62, 1473.937622070312
0, 2, 63, 1506.852783203125
0, 2, 64, 1457.382568359375
0, 2, 65, 1422.792846679688
0, 2, 66, 1488.134887695312
0, 2, 67, 1504.857543945312
0, 2, 68, 1540.00634765625
0, 2, 69, 1538.237670898438
0, 2, 70, 1507.917358398438
0, 2, 71, 1458.826538085938
0, 2, 72, 1515.824462890625
0, 2, 73, 1517.088500976562
0, 2, 74, 1484.313232421875
0, 2, 75, 1505.166381835938
0, 2, 76, 1449.80419921875
0, 2, 77, 1506.33984375
0, 2, 78, 1422.933959960938
0, 2, 79, 1536.824951171875
0, 2, 80, 1483.309448242188
0, 2, 81, 1464.597900390625
0, 2, 82, 1566.117431640625
0, 2, 83, 1522.9345703125
0, 2, 84, 1491.223754882812
0, 2, 85, 1516.620239257812
0, 2, 86, 1539.835815429688
0, 2, 87, 1483.947021484375
0, 2, 88, 1540.192993164062
0, 2, 89, 1458.073364257812
0, 2, 90, 1428.756958007812
0, 2, 91, 1406.09716796875
0, 2, 92, 1473.206176757812
0, 2, 93, 1494.263427734375
0, 2, 94, 1451.502319335938
0, 2, 95, 1545.4716796875
0, 2, 96, 1524.455078125
0, 2, 97, 1454.442260742188
0, 2, 98, 1467.2158203125
0, 2, 99, 1400.753540039062
0, 2, 100, 1471.674926757812
0, 2, 101, 1480.919067382812
0, 2, 102, 1462.4033203125
0, 2, 103, 1390.16552734375
0, 2, 104, 1411.125
0, 2, 105, 1395.29248046875
0, 2, 106, 1456.272094726562
0, 2, 107, 1271.418579101562
0, 2, 108, 623.0791625976562
0, 2, 109, 174.7093963623047
0, 2, 110, 65.63179016113281
0, 2, 111, 58.19212341308594
0, 2, 112, 47.62020492553711
0, 2, 113, 46.36196136474609
0, 2, 114, 39.71324920654297
0, 2, 115, 43.67559432983398
0, 2, 116, 36.5236930847168
0, 2, 117, 34.66513442993164
0, 2, 118, 25.20192718505859
0, 2, 119, 32.45321273803711
0, 2, 120, 32.51745223999023
0, 2, 121, 19.55229568481445
0, 2, 122, 27.61336517333984
0, 2, 123, 24.61845397949219
0, 2, 124, 29.32979965209961
0, 2, 125, 30.32375526428223
0, 2, 126, 14.95691394805908
0, 2, 127, 20.5085277557373
0, 3, 0, 15.96911811828613
0, 3, 1, 22.47585296630859
0, 3, 2, 20.96751594543457
0, 3, 3, 20.48620796203613
0, 3, 4, 22.08612823486328
0, 3, 5, 23.24792289733887
0, 3, 6, 30.09148979187012
0, 3, 7, 29.64401626586914
0, 3, 8, 26.68193626403809
0, 3, 9, 26.25539970397949
0, 3, 10, 31.96892356872559
0, 3, 11, 37.20313262939453
0, 3, 12, 44.19092559814453
0, 3, 13, 49.42920303344727
0, 3, 14, 54.55288314819336
0, 3, 15, 52.74508666992188
0, 3, 16, 70.12689971923828
0, 3, 17, 94.07788848876953
0, 3, 18, 240.6841735839844
0, 3, 19, 881.3045654296875
0, 3, 20, 1387.33154296875
0, 3, 21, 1506.433349609375
0, 3, 22, 1462.91015625
0, 3, 23, 1454.386352539062
0, 3, 24, 1435.3701171875
0, 3, 25, 1463.807373046875
0, 3, 26, 1496.776489257812
0, 3, 27, 1464.492797851562
0, 3, 28, 1488.483276367188
0, 3, 29, 1539.47998046875
0, 3, 30, 1569.2548828125
0, 3, 31, 1511.922729492188
0, 3, 32, 1550.372192382812
0, 3, 33, 1543.30224609375
0, 3, 34, 1486.139770507812
0, 3, 35, 1465.9287109375
0, 3, 36, 1455.078247070312
0, 3, 37, 1513.17236328125
0, 3, 38, 1516.930908203125
0, 3, 39, 1438.891845703125
0, 3, 40, 1439.781860351562
0, 3, 41, 1567.609375
0, 3, 42, 1461.634155273438
0, 3, 43, 1453.797241210938
0, 3, 44, 1449.609741210938
0, 3, 45, 1506.582641601562
0, 3, 46, 1508.589965820312
0, 3, 47, 1439.137817382812
0, 3, 48, 1506.492309570312
0, 3, 49, 1457.574829101562
0, 3, 50, 1488.44140625
0, 3, 51, 1537.5224609375
0, 3, 52, 1538.412841796875
0, 3, 53, 1471.49462890625
0, 3, 54, 1535.185180664062
0, 3, 55, 1505.628295898438
0, 3, 56, 1435.157470703125
0, 3, 57, 1505.028564453125
0, 3, 58, 1513.74951171875
0, 3, 59, 1507.149169921875
0, 3, 60, 1539.001708984375
0, 3, 61, 1480.573852539062
0, 3, 62, 1492.783447265625
0, 3, 63, 1490.191162109375
0, 3, 64, 1498.478759765625
0, 3, 65, 1511.072509765625
0, 3, 66, 1555.082275390625
0, 3, 67, 1549.646728515625
0, 3, 68, 1450.703491210938
0, 3, 69, 1467.554077148438
0, 3, 70, 1388.385620117188
0, 3, 71, 1462.564331054688
0, 3, 72, 1541.4306640625
0, 3, 73, 1503.663940429688
0, 3, 74, 1463.171508789062
0, 3, 75, 1463.435668945312
0, 3, 76, 1569.5576171875
0, 3, 77, 1537.632934570312
0, 3, 78, 1424.593505859375
0, 3, 79, 1491.058349609375
0, 3, 80, 1463.656005859375
0, 3, 81, 1476.345703125
0, 3, 82, 1552.414794921875
0, 3, 83, 1508.0859375
0, 3, 84, 1564.237426757812
0, 3, 85, 1480.226318359375
0, 3, 86, 1524.22314453125
0, 3, 87, 1540.173583984375
0, 3, 88, 1455.743774414062
0, 3, 89, 1450.428955078125
0, 3, 90, 1448.5439453125
0, 3, 91, 1421.757446289062
0, 3, 92, 1511.4306640625
0, 3, 93, 1498.280639648438
0, 3, 94, 1515.614868164062
0, 3, 95, 1551.329711914062
0, 3, 96, 1510.384643554688
0, 3, 97, 1458.609008789062
0, 3, 98, 1429.061767578125
0, 3, 99, 1460.375
0, 3, 100, 1470.24658203125
0, 3, 101, 1471.10595703125
0, 3, 102, 1517.074951171875
0, 3, 103, 1552.432739257812
0, 3, 104, 1500.760375976562
0, 3, 105, 1517.681640625
0, 3, 106, 1475.666748046875
0, 3, 107, 1341.835815429688
0, 3, 108, 868.2379150390625
0, 3, 109, 262.9226684570312
0, 3, 110, 101.1647567749023
0, 3, 111, 62.9922981262207
0, 3, 112, 63.51560211181641
0, 3, 113, 51.91732788085938
0, 3, 114, 48.99087905883789
0, 3, 115, 49.97321701049805
0, 3, 116, 33.37169647216797
0, 3, 117, 37.72418212890625
0, 3, 118, 36.91660690307617
0, 3, 119, 28.56957817077637
0, 3, 120, 30.58991432189941
0, 3, 121, 21.18223571777344
0, 3, 122, 29.66555786132812
0, 3, 123, 24.2560920715332
0, 3, 124, 21.46442985534668
0, 3, 125, 27.18564987182617
0, 3, 126, 22.68849945068359
0, 3, 127, 15.8664083480835
0, 4, 0, 20.98633766174316
0, 4, 1, 29.74967002868652
0, 4, 2, 20.66159439086914
0, 4, 3, 22.15091705322266
0, 4, 4, 27.16783905029297
0, 4, 5, 26.24468803405762
0, 4, 6, 31.76487350463867
0, 4, 7, 32.912353515625
0, 4, 8, 23.97287750244141
0, 4, 9, 34.20225143432617
0, 4, 10, 36.99177551269531
0, 4, 11, 39.67349624633789
0, 4, 12, 43.67861938476562
0, 4, 13, 57.00688934326172
0, 4, 14, 48.53605651855469
0, 4, 15, 61.33294296264648
0, 4, 16, 72.23804473876953
0, 4, 17, 118.8937454223633
0, 4, 18, 445.0281372070312
0, 4, 19, 1181.401733398438
0, 4, 20, 1444.798706054688
0, 4, 21, 1420.104614257812
0, 4, 22, 1438.269897460938
0, 4, 23, 1451.4423828125
0, 4, 24, 1473.359008789062
0, 4, 25, 1406.192260742188
0, 4, 26, 1539.061279296875
0, 4, 27, 1544.8818359375
0, 4, 28, 1505.296142578125
0, 4, 29, 1512.303344726562
0, 4, 30, 1525.039184570312
0, 4, 31, 1568.065185546875
0, 4, 32, 1516.25634765625
0, 4, 33, 1491.0146484375
0, 4, 34, 1467.675415039062
0, 4, 35, 1559.553588867188
0, 4, 36, 1502.33544921875
0, 4, 37, 1511.14990234375
0, 4, 38, 1532.713623046875
0, 4, 39, 1474.633666992188
0, 4, 40, 1518.106689453125
0, 4, 41, 1579.139526367188
0, 4, 42, 1567.566162109375
0, 4, 43, 1473.401489257812
0, 4, 44, 1498.860107421875
0, 4, 45, 1516.484741210938
0, 4, 46, 1470.8818359375
0, 4, 47, 1500.723388671875
0, 4, 48, 1529.009643554688
0, 4, 49, 1470.155639648438
0, 4, 50, 1516.858032226562
0, 4, 51, 1488.228515625
0, 4, 52, 1493.377685546875
0, 4, 53, 1459.14501953125
0, 4, 54, 1440.976806640625
0, 4, 55, 1523.268920898438
0, 4, 56, 1451.213256835938
0, 4, 57, 1493.006713867188
0, 4, 58, 1459.879760742188
0, 4, 59, 1467.954345703125
0, 4, 60, 1524.337768554688
0, 4, 61, 1502.955688476562
0, 4, 62, 1505.827514648438
0, 4, 63, 1539.442993164062
0, 4, 64, 1590.503784179688
0, 4, 65, 1422.32373046875
0, 4, 66, 1514.256225585938
0, 4, 67, 1517.588623046875
0, 4, 68, 1495.169677734375
0, 4, 69, 1467.79443359375
0, 4, 70, 1543.429443359375
0, 4, 71, 1520.08154296875
0, 4, 72, 1535.968872070312
0, 4, 73, 1496.390625
0, 4, 74, 1489.765258789062
0, 4, 75, 1533.154418945312
0, 4, 76, 1478.00390625
0, 4, 77, 1502.931274414062
0, 4, 78, 1501.888305664062
0, 4, 79, 1482.587646484375
0, 4, 80, 1511.282592773438
0, 4, 81, 1520.33544921875
0, 4, 82, 1564.869140625
0, 4, 83, 1511.10009765625
0, 4, 84, 1541.184448242188
0, 4, 85, 1552.546142578125
0, 4, 86, 1523.176025390625
0, 4, 87, 1504.720336914062
0, 4, 88, 1513.401245117188
0, 4, 89, 1484.233520507812
0, 4, 90, 1544.158569335938
0, 4, 91, 1549.802124023438
0, 4, 92, 1491.78759765625
0, 4, 93, 1516.279174804688
0, 4, 94, 1484.486328125
0, 4, 95, 1508.208129882812
0, 4, 96, 1440.600219726562
0, 4, 97, 1412.3798828125
0, 4, 98, 1555.2275390625
0, 4, 99, 1511.676513671875
0, 4, 100, 1493.005126953125
0, 4, 101, 1450.203857421875
0, 4, 102, 1445.109375
0, 4, 103, 1515.739501953125
0, 4, 104, 1505.03759765625
0, 4, 105, 1553.041137695312
0, 4, 106, 1479.455078125
0, 4, 107, 1457.325439453125
0, 4, 108, 1121.53564453125
0, 4, 109, 433.4579772949219
0, 4, 110, 100.7829132080078
0, 4, 111, 65.19150543212891
0, 4, 112, 56.09122085571289
0, 4, 113, 50.59394836425781
0, 4, 114, 53.21183013916016
0, 4, 115, 43.22829055786133
0, 4, 116, 37.28513336181641
0, 4, 117, 43.33627700805664
0, 4, 118, 40.94307327270508
0, 4, 119, 38.90663146972656
0, 4, 120, 31.73295402526855
0, 4, 121, 26.48749542236328
0, 4, 122, 28.82267761230469
0, 4, 123, 26.48627281188965
0, 4, 124, 22.18000030517578
0, 4, 125, 30.22734260559082
0, 4, 126, 19.91288375854492
0, 4, 127, 16.53549575805664
0, 5, 0, 20.79744529724121
0, 5, 1, 22.27430725097656
0, 5, 2, 27.47958755493164
0, 5, 3, 25.12209701538086
0, 5, 4, 19.05393981933594
0, 5, 5, 31.67659187316895
0, 5, 6, 27.80856132507324
0, 5, 7, 31.43675231933594
0, 5, 8, 36.4884147644043
0, 5, 9, 30.67411041259766
0, 5, 10, 30.04075622558594
0, 5, 11, 39.59456634521484
0, 5, 12, 38.29680633544922
0, 5, 13, 48.03920745849609
0, 5, 14, 59.609130859375
0, 5, 15, 80.06459808349609
0, 5, 16, 79.44122314453125
0, 5, 17, 156.0386505126953
0, 5, 18, 672.4232788085938
0, 5, 19, 1346.438110351562
0, 5, 20, 1524.996215820312
0, 5, 21, 1489.769653320312
0, 5, 22, 1492.363891601562
0, 5, 23, 1530.802490234375
0, 5, 24, 1462.503051757812
0, 5, 25, 1428.02099609375
0, 5, 26, 1523.936401367188
0, 5, 27, 1543.298217773438
0, 5, 28, 1488.001098632812
0, 5, 29, 1523.949951171875
0, 5, 30, 1494.880249023438
0, 5, 31, 1499.405029296875
0, 5, 32, 1596.1865234375
0, 5, 33, 1503.59228515625
0, 5, 34, 1482.864501953125
0, 5, 35, 1515.96142578125
0, 5, 36, 1445.390014648438
0, 5, 37, 1530.3642578125
0, 5, 38, 1548.496704101562
0, 5, 39, 1549.119995117188
0, 5, 40, 1499.917846679688
0, 5, 41, 1482.584716796875
0, 5, 42, 1541.14453125
0, 5, 43, 1532.18212890625
0, 5, 44, 1545.947509765625
0, 5, 45, 1507.04150390625
0, 5, 46, 1488.382690429688
0, 5, 47, 1482.693725585938
0, 5, 48, 1507.078979492188
0, 5, 49, 1523.142333984375
0, 5, 50, 1502.3662109375
0, 5, 51, 1519.09033203125
0, 5, 52, 1431.410400390625
0, 5, 53, 1522.124267578125
0, 5, 54, 1523.485473632812
0, 5, 55, 1525.337036132812
0, 5, 56, 1486.168701171875
0, 5, 57, 1538.884399414062
0, 5, 58, 1505.599365234375
0, 5, 59, 1491.52392578125
0, 5, 60, 1542.650756835938
0, 5, 61, 1453.097412109375
0, 5, 62, 1587.14501953125
0, 5, 63, 1435.525146484375
0, 5, 64, 1484.655517578125
0, 5, 65, 1461.665405273438
0, 5, 66, 1528.640869140625
0, 5, 67, 1562.037109375
0, 5, 68, 1463.596923828125
0, 5, 69, 1480.7412109375
0, 5, 70, 1484.606689453125
0, 5, 71, 1469.688232421875
0, 5, 72, 1538.652465820312
0, 5, 73, 1458.788330078125
0, 5, 74, 1495.73974609375
0, 5, 75, 1485.943603515625
0, 5, 76, 1478.146606445312
0, 5, 77, 1518.86474609375
0, 5, 78, 1526.966064453125
0, 5, 79, 1506.482421875
0, 5, 80, 1514.087890625
0, 5, 81, 1591.950805664062
0, 5, 82, 1523.947631835938
0, 5, 83, 1496.462646484375
0, 5, 84, 1533.117431640625
0, 5, 85, 1511.406005859375
0, 5, 86, 1555.4130859375
0, 5, 87, 1476.769165039062
0, 5, 88, 1500.184814453125
0, 5, 89, 1483.420776367188
0, 5, 90, 1478.170776367188
0, 5, 91, 1550.848388671875
0, 5, 92, 1485.105590820312
0, 5, 93, 1560.106811523438
0, 5, 94, 1510.251342773438
0, 5, 95, 1561.210693359375
0, 5, 96, 1499.53564453125
0, 5, 97, 1511.969482421875
0, 5, 98, 1508.067993164062
0, 5, 99, 1542.915771484375
0, 5, 100, 1438.399047851562
0, 5, 101, 1432.075927734375
0, 5, 102, 1520.607421875
0, 5, 103, 1476.025268554688
0, 5, 104, 1457.572509765625
0, 5, 105, 1496.122436523438
0, 5, 106, 1454.88427734375
0, 5, 107, 1398.558349609375
0, 5, 108, 1291.77880859375
0, 5, 109, 722.5422973632812
0, 5, 110, 194.9832763671875
0, 5, 111, 85.77913665771484
0, 5, 112, 78.30936431884766
0, 5, 113, 64.78665161132812
0, 5, 114, 58.20110702514648
0, 5, 115, 52.52054977416992
0, 5, 116, 42.07707595825195
0, 5, 117, 32.27083206176758
0, 5, 118, 42.41803359985352
0, 5, 119, 27.03755760192871
0, 5, 120, 28.5977783203125
0, 5, 121, 25.79574966430664
0, 5, 122, 27.7390193939209
0, 5, 123, 26.7802677154541
0, 5, 124, 29.48207473754883
0, 5, 125, 20.74039840698242
0, 5, 126, 22.87978553771973
0, 5, 127, 27.87404632568359
0, 6, 0, 20.78522109985352
0, 6, 1, 28.98304557800293
0, 6, 2, 31.97357177734375
0, 6, 3, 27.37578773498535
0, 6, 4, 21.26991271972656
0, 6, 5, 31.49517631530762
0, 6, 6, 41.10909652709961
0, 6, 7, 30.88541221618652
0, 6, 8, 37.54678726196289
0, 6, 9, 33.93256378173828
0, 6, 10, 37.9525032043457
0, 6, 11, 41.36570358276367
0, 6, 12, 41.21857070922852
0, 6, 13, 54.70359420776367
0, 6, 14, 63.23487091064453
0, 6, 15, 85.70670318603516
0, 6, 16, 109.1152114868164
0, 6, 17, 295.2716369628906
0, 6, 18, 896.8961181640625
0, 6, 19, 1376.683837890625
0, 6, 20, 1437.954956054688
0, 6, 21, 1528.915405273438
0, 6, 22, 1505.131958007812
0, 6, 23, 1526.728881835938
0, 6, 24, 1478.235473632812
0, 6, 25, 1527.240112304688
0, 6, 26, 1517.555786132812
0, 6, 27, 1525.48779296875
0, 6, 28, 1553.282348632812
0, 6, 29, 1576.228515625
0, 6, 30, 1514.07861328125
0, 6, 31, 1491.518310546875
0, 6, 32, 1524.470825195312
0, 6, 33, 1489.425415039062
0, 6, 34, 1561.83056640625
0, 6, 35, 1502.216918945312
0, 6, 36, 1438.705200195312
0, 6, 37, 1548.0244140625
0, 6, 38, 1521.318359375
0, 6, 39, 1525.87744140625
0, 6, 40, 1460.630981445312
0, 6, 41, 1442.331787109375
0, 6, 42, 1510.851684570312
0, 6, 43, 1491.429565429688
0, 6, 44, 1429.935302734375
0, 6, 45, 1544.462646484375
0, 6, 46, 1555.644409179688
0, 6, 47, 1496.996826171875
0, 6, 48, 1525.145141601562
0, 6, 49, 1510.960083007812
0, 6, 50, 1579.29931640625
0, 6, 51, 1501.20751953125
0, 6, 52, 1565.735961914062
0, 6, 53, 1474.212158203125
0, 6, 54, 1503.669677734375
0, 6, 55, 1574.18408203125
0, 6, 56, 1527.4970703125
0, 6, 57, 1505.009521484375
0, 6, 58, 1466.085205078125
0, 6, 59, 1526.487182617188
0, 6, 60, 1471.860717773438
0, 6, 61, 1567.821166992188
0, 6, 62, 1539.764404296875
0, 6, 63, 1493.4658203125
0, 6, 64, 1407.45166015625
0, 6, 65, 1495.495239257812
0, 6, 66, 1508.633544921875
0, 6, 67, 1512.29931640625
0, 6, 68, 1545.915161132812
0, 6, 69, 1483.293701171875
0, 6, 70, 1526.40869140625
0, 6, 71, 1472.3408203125
0, 6, 72, 1597.697143554688
0, 6, 73, 1491.447021484375
0, 6, 74, 1559.186157226562
0, 6, 75, 1537.564086914062
0, 6, 76, 1568.626586914062
0, 6, 77, 1503.488525390625
0, 6, 78, 1443.8486328125
0, 6, 79, 1553.082397460938
0, 6, 80, 1487.67431640625
0, 6, 81, 1486.091674804688
0, 6, 82, 1504.82421875
0, 6, 83, 1524.867797851562
0, 6, 84, 1523.86865234375
0, 6, 85, 1534.391845703125
0, 6, 86, 1541.3408203125
0, 6, 87, 1571.094604492188
0, 6, 88, 1473.3349609375
0, 6, 89, 1567.551147460938
0, 6, 90, 1493.247680664062
0, 6, 91, 1546.269653320312
0, 6, 92, 1486.903442382812
0, 6, 93, 1494.951171875
0, 6, 94, 1468.978637695312
0, 6, 95, 1515.027709960938
0, 6, 96, 1519.19580078125
0, 6, 97, 1505.527465820312
0, 6, 98, 1502.545776367188
0, 6, 99, 1474.221923828125
0, 6, 100, 1515.644165039062
0, 6, 101, 1514.553955078125
0, 6, 102, 1535.898681640625
0, 6, 103, 1498.5693359375
0, 6, 104, 1467.563232421875
0, 6, 105, 1484.069091796875
0, 6, 106, 1495.666748046875
0, 6, 107, 1501.9521484375
0, 6, 108, 1408.581787109375
0, 6, 109, 926.2698974609375
0, 6, 110, 283.7843017578125
0, 6, 111, 100.7983016967773
0, 6, 112, 78.53672027587891
0, 6, 113, 55.29108810424805
0, 6, 114, 56.54656219482422
0, 6, 115, 42.0853385925293
0, 6, 116, 43.75681686401367
0, 6, 117, 44.05448913574219
0, 6, 118, 40.4356575012207
0, 6, 119, 31.01577758789062
0, 6, 120, 35.44382095336914
0, 6, 121, 29.92573165893555
0, 6, 122, 27.10923767089844
0, 6, 123, 21.60614204406738
0, 6, 124, 27.68009567260742
0, 6, 125, 34.6359977722168
0, 6, 126, 19.17510414123535
0, 6, 127, 25.16698455810547
0, 7, 0, 21.64756202697754
0, 7, 1, 31.41114044189453
0, 7, 2, 27.12981414794922
0, 7, 3, 20.4582462310791
0, 7, 4, 25.12605094909668
0, 7, 5, 35.65754699707031
0, 7, 6, 33.0410041809082
0, 7, 7, 40.95639801025391
0, 7, 8, 32.81491470336914
0, 7, 9, 30.5517406463623
0, 7, 10, 46.17205810546875
0, 7, 11, 41.79039001464844
0, 7, 12, 46.16512298583984
0, 7, 13, 54.68419647216797
0, 7, 14, 66.23412322998047
0, 7, 15, 74.70652770996094
0, 7, 16, 139.0360717773438
0, 7, 17, 462.7618408203125
0, 7, 18, 1094.31396484375
0, 7, 19, 1507.806274414062
0, 7, 20, 1486.929809570312
0, 7, 21, 1364.045654296875
0, 7, 22, 1485.89306640625
0, 7, 23, 1457.281127929688
0, 7, 24, 1510.484741210938
0, 7, 25, 1592.006591796875
0, 7, 26, 1519.790161132812
0, 7, 27, 1506.990112304688
0, 7, 28, 1542.652099609375
0, 7, 29, 1569.478881835938
0, 7, 30, 1543.339721679688
0, 7, 31, 1439.517333984375
0, 7, 32, 1542.861938476562
0, 7, 33, 1493.109375
0, 7, 34, 1483.285888671875
0, 7, 35, 1523.253662109375
0, 7, 36, 1471.841796875
0, 7, 37, 1596.819213867188
0, 7, 38, 1505.8759765625
0, 7, 39, 1494.501586914062
0, 7, 40, 1546.244018554688
0, 7, 41, 1466.405395507812
0, 7, 42, 1486.28369140625
0, 7, 43, 1445.270385742188
0, 7, 44, 1487.02490234375
0, 7, 45, 1473.344116210938
0, 7, 46, 1509.160888671875
0, 7, 47, 1558.153930664062
0, 7, 48, 1524.467651367188
0, 7, 49, 1534.237670898438
0, 7, 50, 1514.222534179688
0, 7, 51, 1499.82861328125
0, 7, 52, 1520.77294921875
0, 7, 53, 1491.290405273438
0, 7, 54, 1588.304931640625
0, 7, 55, 1470.25732421875
0, 7, 56, 1555.410278320312
0, 7, 57, 1510.520385742188
0, 7, 58, 1550.818359375
0, 7, 59, 1540.842651367188
0, 7, 60, 1554.080200195312
0, 7, 61, 1491.923706054688
0, 7, 62, 1436.547973632812
0, 7, 63, 1512.0830078125
0, 7, 64, 1548.689697265625
0, 7, 65, 1532.880249023438
0, 7, 66, 1539.439697265625
0, 7, 67, 1576.54296875
0, 7, 68, 1534.311889648438
0, 7, 69, 1512.7822265625
0, 7, 70, 1498.881713867188
0, 7, 71, 1520.51025390625
0, 7, 72, 1520.349609375
0, 7, 73, 1513.616088867188
0, 7, 74, 1568.817138671875
0, 7, 75, 1540.332397460938
0, 7, 76, 1556.171508789062
0, 7, 77, 1508.789916992188
0, 7, 78, 1510.65673828125
0, 7, 79, 1422.11279296875
0, 7, 80, 1490.659057617188
0, 7, 81, 1493.300415039062
0, 7, 82, 1530.10595703125
0, 7, 83, 1542.4775390625
0, 7, 84, 1585.287231445312
0, 7, 85, 1477.37109375
0, 7, 86, 1499.503540039062
0, 7, 87, 1507.673706054688
0, 7, 88, 1499.53759765625
0, 7, 89, 1552.720825195312
0, 7, 90, 1521.305053710938
0, 7, 91, 1560.059326171875
0, 7, 92, 1531.611938476562
0, 7, 93, 1555.604736328125
0, 7, 94, 1539.521484375
0, 7, 95, 1507.571899414062
0, 7, 96, 1506.317504882812
0, 7, 97, 1433.143432617188
0, 7, 98, 1483.460815429688
0, 7, 99, 1525.45751953125
0, 7, 100, 1417.730102539062
0, 7, 101, 1463.829833984375
0, 7, 102, 1455.29541015625
0, 7, 103, 1431.709350585938
0, 7, 104, 1492.691040039062
0, 7, 105, 1523.8662109375
0, 7, 106, 1567.785766601562
0, 7, 107, 1479.646240234375
0, 7, 108, 1409.680908203125
0, 7, 109, 1148.592041015625
0, 7, 110, 469.2088012695312
0, 7, 111, 126.879768371582
0, 7, 112, 77.93742370605469
0, 7, 113, 63.46577072143555
0, 7, 114, 54.65470886230469
0, 7, 115, 51.42587661743164
0, 7, 116, 51.41814041137695
0, 7, 117, 45.02161026000977
0, 7, 118, 34.63911056518555
0, 7, 119, 37.69873809814453
0, 7, 120, 21.41742706298828
0, 7, 121, 30.91253852844238
0, 7, 122, 37.37685012817383
0, 7, 123, 35.09574508666992
0, 7, 124, 28.25691032409668
0, 7, 125, 21.17299652099609
0, 7, 126, 24.46998977661133
0, 7, 127, 18.75689125061035
0, 8, 0, 18.48971748352051
0, 8, 1, 23.4420108795166
0, 8, 2, 24.79716682434082
0, 8, 3, 26.72089195251465
0, 8, 4, 30.06544494628906
0, 8, 5, 38.03473281860352
0, 8, 6, 29.46196556091309
0, 8, 7, 31.51926422119141
0, 8, 8, 33.58458709716797
0, 8, 9, 43.66572189331055
0, 8, 10, 39.86381912231445
0, 8, 11, 36.44147491455078
0, 8, 12, 49.43227005004883
0, 8, 13, 75.5311279296875
0, 8, 14, 70.13517761230469
0, 8, 15, 84.02796173095703
0, 8, 16, 176.5367889404297
0, 8, 17, 673.5693359375
0, 8, 18, 1281.585571289062
0, 8, 19, 1442.4140625
0, 8, 20, 1417.5146484375
0, 8, 21, 1414.603759765625
0, 8, 22, 1485.242553710938
0, 8, 23, 1479.186645507812
0, 8, 24, 1437.419799804688
0, 8, 25, 1460.947387695312
0, 8, 26, 1513.022583007812
0, 8, 27, 1522.599365234375
0, 8, 28, 1474.931518554688
0, 8, 29, 1507.55078125
0, 8, 30, 1486.408813476562
0, 8, 31, 1537.5947265625
0, 8, 32, 1510.178955078125
0, 8, 33, 1481.443115234375
0, 8, 34, 1535.581909179688
0, 8, 35, 1438.4169921875
0, 8, 36, 1502.816284179688
0, 8, 37, 1556.222778320312
0, 8, 38, 1548.197387695312
0, 8, 39, 1493.206665039062
0, 8, 40, 1530.685668945312
0, 8, 41, 1482.2841796875
0, 8, 42, 1540.124389648438
0, 8, 43, 1430.763793945312
0, 8, 44, 1537.24755859375
0, 8, 45, 1515.859619140625
0, 8, 46, 1594.42822265625
0, 8, 47, 1591.117797851562
