# TOPAS Version: 3.1.p3
# Parameter File: batch_inserts_48.txt
# Results for scorer Readout_Adipose
# Scored in component: MyBox
# X in 1 bin  of 0.75 cm
# Y in 512 bins of 0.0783984 cm
# Z in 128 bins of 0.078125 cm
# EnergyDeposit ( MeV ) : Sum   
0, 0, 0, 24.4620189666748
0, 0, 1, 22.86505699157715
0, 0, 2, 23.23401069641113
0, 0, 3, 22.06474113464355
0, 0, 4, 23.37829208374023
0, 0, 5, 21.84639167785645
0, 0, 6, 27.26445770263672
0, 0, 7, 32.62250518798828
0, 0, 8, 20.95803451538086
0, 0, 9, 22.0966682434082
0, 0, 10, 25.95897674560547
0, 0, 11, 26.89010810852051
0, 0, 12, 34.59682083129883
0, 0, 13, 32.04326248168945
0, 0, 14, 38.75739288330078
0, 0, 15, 45.79003143310547
0, 0, 16, 45.6668815612793
0, 0, 17, 48.83917617797852
0, 0, 18, 75.79360198974609
0, 0, 19, 194.7608184814453
0, 0, 20, 699.6113891601562
0, 0, 21, 1191.090087890625
0, 0, 22, 1245.087646484375
0, 0, 23, 1273.716918945312
0, 0, 24, 1281.036499023438
0, 0, 25, 1352.46435546875
0, 0, 26, 1276.349853515625
0, 0, 27, 1278.614135742188
0, 0, 28, 1319.859619140625
0, 0, 29, 1266.904296875
0, 0, 30, 1260.668334960938
0, 0, 31, 1282.3544921875
0, 0, 32, 1266.660888671875
0, 0, 33, 1242.49609375
0, 0, 34, 1324.224609375
0, 0, 35, 1299.68017578125
0, 0, 36, 1243.776489257812
0, 0, 37, 1284.186401367188
0, 0, 38, 1246.368041992188
0, 0, 39, 1245.625854492188
0, 0, 40, 1221.735229492188
0, 0, 41, 1269.279418945312
0, 0, 42, 1254.166381835938
0, 0, 43, 1268.149780273438
0, 0, 44, 1223.927368164062
0, 0, 45, 1290.760498046875
0, 0, 46, 1259.677368164062
0, 0, 47, 1240.525634765625
0, 0, 48, 1278.710205078125
0, 0, 49, 1287.484375
0, 0, 50, 1306.842041015625
0, 0, 51, 1262.102905273438
0, 0, 52, 1358.603637695312
0, 0, 53, 1326.643798828125
0, 0, 54, 1292.644165039062
0, 0, 55, 1229.861938476562
0, 0, 56, 1315.004638671875
0, 0, 57, 1290.066650390625
0, 0, 58, 1251.769897460938
0, 0, 59, 1334.632446289062
0, 0, 60, 1327.31591796875
0, 0, 61, 1259.531372070312
0, 0, 62, 1245.263793945312
0, 0, 63, 1279.474487304688
0, 0, 64, 1325.86962890625
0, 0, 65, 1287.898315429688
0, 0, 66, 1312.492431640625
0, 0, 67, 1216.213256835938
0, 0, 68, 1309.019897460938
0, 0, 69, 1330.480346679688
0, 0, 70, 1343.086059570312
0, 0, 71, 1289.315063476562
0, 0, 72, 1312.6103515625
0, 0, 73, 1238.167602539062
0, 0, 74, 1289.2978515625
0, 0, 75, 1294.873657226562
0, 0, 76, 1253.57763671875
0, 0, 77, 1285.499145507812
0, 0, 78, 1311.838500976562
0, 0, 79, 1325.5234375
0, 0, 80, 1260.287231445312
0, 0, 81, 1324.62109375
0, 0, 82, 1287.544921875
0, 0, 83, 1292.201416015625
0, 0, 84, 1326.564453125
0, 0, 85, 1238.411987304688
0, 0, 86, 1266.755249023438
0, 0, 87, 1250.0810546875
0, 0, 88, 1258.210327148438
0, 0, 89, 1333.145141601562
0, 0, 90, 1274.3974609375
0, 0, 91, 1352.798583984375
0, 0, 92, 1299.421752929688
0, 0, 93, 1274.2744140625
0, 0, 94, 1241.311279296875
0, 0, 95, 1325.725341796875
0, 0, 96, 1281.3759765625
0, 0, 97, 1329.359497070312
0, 0, 98, 1258.6904296875
0, 0, 99, 1250.701416015625
0, 0, 100, 1285.931274414062
0, 0, 101, 1315.630004882812
0, 0, 102, 1234.8115234375
0, 0, 103, 1324.17578125
0, 0, 104, 1266.886962890625
0, 0, 105, 1266.726318359375
0, 0, 106, 1209.032958984375
0, 0, 107, 784.2868041992188
0, 0, 108, 196.5702972412109
0, 0, 109, 67.71785736083984
0, 0, 110, 58.36315155029297
0, 0, 111, 40.40632629394531
0, 0, 112, 36.69393539428711
0, 0, 113, 31.71208000183105
0, 0, 114, 31.63514518737793
0, 0, 115, 26.22920417785645
0, 0, 116, 25.68132209777832
0, 0, 117, 27.89300155639648
0, 0, 118, 25.47188377380371
0, 0, 119, 22.56649589538574
0, 0, 120, 21.07307243347168
0, 0, 121, 26.97703170776367
0, 0, 122, 23.67432403564453
0, 0, 123, 17.33030891418457
0, 0, 124, 23.85547828674316
0, 0, 125, 21.00908851623535
0, 0, 126, 22.05404472351074
0, 0, 127, 18.58571434020996
0, 1, 0, 21.47889709472656
0, 1, 1, 23.33250045776367
0, 1, 2, 23.46116065979004
0, 1, 3, 21.91091537475586
0, 1, 4, 24.75721740722656
0, 1, 5, 20.95398139953613
0, 1, 6, 23.18513679504395
0, 1, 7, 23.58041763305664
0, 1, 8, 37.21072769165039
0, 1, 9, 29.65894889831543
0, 1, 10, 34.27705001831055
0, 1, 11, 41.95330047607422
0, 1, 12, 38.67668533325195
0, 1, 13, 46.08200073242188
0, 1, 14, 38.78836059570312
0, 1, 15, 48.40976715087891
0, 1, 16, 60.74968338012695
0, 1, 17, 59.02460098266602
0, 1, 18, 100.0109481811523
0, 1, 19, 402.4950256347656
0, 1, 20, 1042.472045898438
0, 1, 21, 1375.724853515625
0, 1, 22, 1478.14697265625
0, 1, 23, 1459.651977539062
0, 1, 24, 1448.505859375
0, 1, 25, 1419.662109375
0, 1, 26, 1475.671752929688
0, 1, 27, 1469.578247070312
0, 1, 28, 1493.151000976562
0, 1, 29, 1482.241088867188
0, 1, 30, 1507.231689453125
0, 1, 31, 1484.949462890625
0, 1, 32, 1408.8583984375
0, 1, 33, 1500.475830078125
0, 1, 34, 1496.69775390625
0, 1, 35, 1461.564575195312
0, 1, 36, 1491.35791015625
0, 1, 37, 1412.334838867188
0, 1, 38, 1391.615844726562
0, 1, 39, 1521.900024414062
0, 1, 40, 1459.7099609375
0, 1, 41, 1487.64599609375
0, 1, 42, 1499.87890625
0, 1, 43, 1506.93017578125
0, 1, 44, 1451.066528320312
0, 1, 45, 1487.039916992188
0, 1, 46, 1417.40625
0, 1, 47, 1428.55517578125
0, 1, 48, 1427.891967773438
0, 1, 49, 1483.308349609375
0, 1, 50, 1444.951416015625
0, 1, 51, 1478.86474609375
0, 1, 52, 1480.658569335938
0, 1, 53, 1472.900756835938
0, 1, 54, 1506.029418945312
0, 1, 55, 1496.420654296875
0, 1, 56, 1471.733642578125
0, 1, 57, 1458.847534179688
0, 1, 58, 1433.055297851562
0, 1, 59, 1480.768920898438
0, 1, 60, 1465.841552734375
0, 1, 61, 1449.947998046875
0, 1, 62, 1460.771240234375
0, 1, 63, 1413.118408203125
0, 1, 64, 1473.629028320312
0, 1, 65, 1414.37353515625
0, 1, 66, 1434.959838867188
0, 1, 67, 1455.023071289062
0, 1, 68, 1390.507202148438
0, 1, 69, 1462.37353515625
0, 1, 70, 1434.63037109375
0, 1, 71, 1499.498413085938
0, 1, 72, 1434.299194335938
0, 1, 73, 1493.38671875
0, 1, 74, 1470.510620117188
0, 1, 75, 1476.45263671875
0, 1, 76, 1454.868530273438
0, 1, 77, 1464.294067382812
0, 1, 78, 1447.256225585938
0, 1, 79, 1501.970581054688
0, 1, 80, 1447.8515625
0, 1, 81, 1422.416748046875
0, 1, 82, 1474.935668945312
0, 1, 83, 1465.421752929688
0, 1, 84, 1533.72314453125
0, 1, 85, 1446.264892578125
0, 1, 86, 1405.478637695312
0, 1, 87, 1421.954956054688
0, 1, 88, 1476.536499023438
0, 1, 89, 1479.116821289062
0, 1, 90, 1424.87548828125
0, 1, 91, 1463.371704101562
0, 1, 92, 1411.968872070312
0, 1, 93, 1463.7080078125
0, 1, 94, 1465.6376953125
0, 1, 95, 1422.101196289062
0, 1, 96, 1497.382080078125
0, 1, 97, 1515.862060546875
0, 1, 98, 1481.310791015625
0, 1, 99, 1423.105346679688
0, 1, 100, 1451.099243164062
0, 1, 101, 1414.651733398438
0, 1, 102, 1440.352661132812
0, 1, 103, 1419.98291015625
0, 1, 104, 1407.215576171875
0, 1, 105, 1459.919189453125
0, 1, 106, 1367.548950195312
0, 1, 107, 1017.287292480469
0, 1, 108, 408.0730285644531
0, 1, 109, 89.88114929199219
0, 1, 110, 61.70396423339844
0, 1, 111, 59.47565078735352
0, 1, 112, 45.10143280029297
0, 1, 113, 42.38405609130859
0, 1, 114, 38.24660491943359
0, 1, 115, 39.24746704101562
0, 1, 116, 37.27130126953125
0, 1, 117, 36.83798217773438
0, 1, 118, 34.34263229370117
0, 1, 119, 30.90818023681641
0, 1, 120, 28.40141105651855
0, 1, 121, 23.90658187866211
0, 1, 122, 24.95099067687988
0, 1, 123, 25.92345809936523
0, 1, 124, 30.79817962646484
0, 1, 125, 19.77145385742188
0, 1, 126, 16.55916786193848
0, 1, 127, 23.88617515563965
0, 2, 0, 15.99654102325439
0, 2, 1, 18.17228317260742
0, 2, 2, 25.98883247375488
0, 2, 3, 22.28581809997559
0, 2, 4, 28.70028305053711
0, 2, 5, 21.7628002166748
0, 2, 6, 20.29544448852539
0, 2, 7, 23.67634010314941
0, 2, 8, 27.22849273681641
0, 2, 9, 29.09112739562988
0, 2, 10, 32.07557678222656
0, 2, 11, 32.20087432861328
0, 2, 12, 41.21421432495117
0, 2, 13, 41.05949783325195
0, 2, 14, 50.58070373535156
0, 2, 15, 49.27984237670898
0, 2, 16, 62.65113067626953
0, 2, 17, 75.89899444580078
0, 2, 18, 147.8565521240234
0, 2, 19, 605.13037109375
0, 2, 20, 1283.8701171875
0, 2, 21, 1430.943359375
0, 2, 22, 1455.034545898438
0, 2, 23, 1402.923828125
0, 2, 24, 1437.41357421875
0, 2, 25, 1520.547485351562
0, 2, 26, 1552.64501953125
0, 2, 27, 1452.321533203125
0, 2, 28, 1460.876831054688
0, 2, 29, 1461.415405273438
0, 2, 30, 1464.318725585938
0, 2, 31, 1533.26708984375
0, 2, 32, 1508.580688476562
0, 2, 33, 1440.139404296875
0, 2, 34, 1480.35498046875
0, 2, 35, 1474.766235351562
0, 2, 36, 1524.59765625
0, 2, 37, 1541.52392578125
0, 2, 38, 1509.257934570312
0, 2, 39, 1467.150146484375
0, 2, 40, 1503.104736328125
0, 2, 41, 1517.886962890625
0, 2, 42, 1502.9912109375
0, 2, 43, 1548.151611328125
0, 2, 44, 1458.079345703125
0, 2, 45, 1481.455444335938
0, 2, 46, 1433.025146484375
0, 2, 47, 1449.095703125
0, 2, 48, 1401.314575195312
0, 2, 49, 1464.704956054688
0, 2, 50, 1446.760986328125
0, 2, 51, 1443.232788085938
0, 2, 52, 1493.257202148438
0, 2, 53, 1528.299560546875
0, 2, 54, 1523.411499023438
0, 2, 55, 1491.157470703125
0, 2, 56, 1462.729370117188
0, 2, 57, 1414.06884765625
0, 2, 58, 1455.15869140625
0, 2, 59, 1447.816528320312
0, 2, 60, 1473.707641601562
0, 2, 61, 1443.343627929688
0, 2, 62, 1467.248168945312
0, 2, 63, 1511.687744140625
0, 2, 64, 1461.563110351562
0, 2, 65, 1427.024536132812
0, 2, 66, 1486.122436523438
0, 2, 67, 1506.514282226562
0, 2, 68, 1540.61865234375
0, 2, 69, 1534.76025390625
0, 2, 70, 1508.113403320312
0, 2, 71, 1461.606689453125
0, 2, 72, 1522.22900390625
0, 2, 73, 1517.265747070312
0, 2, 74, 1491.895385742188
0, 2, 75, 1505.499145507812
0, 2, 76, 1454.027099609375
0, 2, 77, 1507.986206054688
0, 2, 78, 1431.962280273438
0, 2, 79, 1542.961181640625
0, 2, 80, 1481.02783203125
0, 2, 81, 1461.716918945312
0, 2, 82, 1560.979248046875
0, 2, 83, 1515.87158203125
0, 2, 84, 1497.52978515625
0, 2, 85, 1509.216186523438
0, 2, 86, 1536.516357421875
0, 2, 87, 1489.517944335938
0, 2, 88, 1534.668212890625
0, 2, 89, 1467.846069335938
0, 2, 90, 1433.13427734375
0, 2, 91, 1410.143432617188
0, 2, 92, 1478.776489257812
0, 2, 93, 1494.103393554688
0, 2, 94, 1450.661743164062
0, 2, 95, 1542.878784179688
0, 2, 96, 1519.245727539062
0, 2, 97, 1456.7744140625
0, 2, 98, 1459.936401367188
0, 2, 99, 1405.905029296875
0, 2, 100, 1469.103637695312
0, 2, 101, 1478.661010742188
0, 2, 102, 1463.71435546875
0, 2, 103, 1391.932373046875
0, 2, 104, 1405.393798828125
0, 2, 105, 1391.592529296875
0, 2, 106, 1454.021484375
0, 2, 107, 1274.959350585938
0, 2, 108, 623.9720458984375
0, 2, 109, 167.6086883544922
0, 2, 110, 69.73466491699219
0, 2, 111, 60.879638671875
0, 2, 112, 48.14482116699219
0, 2, 113, 48.15739059448242
0, 2, 114, 39.45558166503906
0, 2, 115, 43.62776947021484
0, 2, 116, 34.11198043823242
0, 2, 117, 31.07535552978516
0, 2, 118, 26.89857292175293
0, 2, 119, 33.7459716796875
0, 2, 120, 25.25873756408691
0, 2, 121, 25.41789054870605
0, 2, 122, 36.12314987182617
0, 2, 123, 21.96772766113281
0, 2, 124, 23.71871376037598
0, 2, 125, 26.40179061889648
0, 2, 126, 19.67694664001465
0, 2, 127, 23.26271057128906
0, 3, 0, 19.4869499206543
0, 3, 1, 22.7714900970459
0, 3, 2, 21.15168190002441
0, 3, 3, 19.15521049499512
0, 3, 4, 15.38655185699463
0, 3, 5, 23.97239303588867
0, 3, 6, 32.28767013549805
0, 3, 7, 27.77935409545898
0, 3, 8, 28.84749031066895
0, 3, 9, 25.27231597900391
0, 3, 10, 39.19872665405273
0, 3, 11, 32.2711067199707
0, 3, 12, 46.00664138793945
0, 3, 13, 51.95602416992188
0, 3, 14, 58.42630004882812
0, 3, 15, 55.48715972900391
0, 3, 16, 67.99620056152344
0, 3, 17, 90.86624145507812
0, 3, 18, 240.8089904785156
0, 3, 19, 884.4393920898438
0, 3, 20, 1382.803588867188
0, 3, 21, 1509.098754882812
0, 3, 22, 1467.996948242188
0, 3, 23, 1450.502563476562
0, 3, 24, 1442.825805664062
0, 3, 25, 1467.965209960938
0, 3, 26, 1494.1552734375
0, 3, 27, 1462.108642578125
0, 3, 28, 1486.554443359375
0, 3, 29, 1541.375366210938
0, 3, 30, 1570.44287109375
0, 3, 31, 1511.591674804688
0, 3, 32, 1543.238037109375
0, 3, 33, 1540.814086914062
0, 3, 34, 1485.6474609375
0, 3, 35, 1460.787963867188
0, 3, 36, 1449.693481445312
0, 3, 37, 1514.07666015625
0, 3, 38, 1517.9404296875
0, 3, 39, 1435.18994140625
0, 3, 40, 1443.567016601562
0, 3, 41, 1562.818237304688
0, 3, 42, 1463.927124023438
0, 3, 43, 1452.552612304688
0, 3, 44, 1455.276123046875
0, 3, 45, 1507.109375
0, 3, 46, 1507.440673828125
0, 3, 47, 1442.57470703125
0, 3, 48, 1513.798828125
0, 3, 49, 1448.35888671875
0, 3, 50, 1490.762817382812
0, 3, 51, 1532.623901367188
0, 3, 52, 1535.729370117188
0, 3, 53, 1470.050903320312
0, 3, 54, 1540.816162109375
0, 3, 55, 1502.455200195312
0, 3, 56, 1433.090698242188
0, 3, 57, 1504.780639648438
0, 3, 58, 1512.29248046875
0, 3, 59, 1510.947143554688
0, 3, 60, 1528.363403320312
0, 3, 61, 1490.523315429688
0, 3, 62, 1492.145874023438
0, 3, 63, 1492.513061523438
0, 3, 64, 1499.828735351562
0, 3, 65, 1512.155029296875
0, 3, 66, 1557.145874023438
0, 3, 67, 1546.094848632812
0, 3, 68, 1450.31591796875
0, 3, 69, 1466.276245117188
0, 3, 70, 1390.20556640625
0, 3, 71, 1462.901123046875
0, 3, 72, 1548.220092773438
0, 3, 73, 1499.072265625
0, 3, 74, 1470.320190429688
0, 3, 75, 1456.901489257812
0, 3, 76, 1570.485107421875
0, 3, 77, 1541.83740234375
0, 3, 78, 1427.2431640625
0, 3, 79, 1489.769409179688
0, 3, 80, 1461.809936523438
0, 3, 81, 1470.595947265625
0, 3, 82, 1552.62451171875
0, 3, 83, 1507.40771484375
0, 3, 84, 1565.686645507812
0, 3, 85, 1479.554809570312
0, 3, 86, 1522.969970703125
0, 3, 87, 1539.290405273438
0, 3, 88, 1453.237060546875
0, 3, 89, 1449.536376953125
0, 3, 90, 1447.05224609375
0, 3, 91, 1414.372924804688
0, 3, 92, 1513.988403320312
0, 3, 93, 1504.442993164062
0, 3, 94, 1519.38916015625
0, 3, 95, 1542.663452148438
0, 3, 96, 1513.230102539062
0, 3, 97, 1467.468017578125
0, 3, 98, 1432.114624023438
0, 3, 99, 1462.13623046875
0, 3, 100, 1473.445190429688
0, 3, 101, 1476.802490234375
0, 3, 102, 1518.79052734375
0, 3, 103, 1554.519775390625
0, 3, 104, 1498.592041015625
0, 3, 105, 1518.098022460938
0, 3, 106, 1476.571655273438
0, 3, 107, 1334.490234375
0, 3, 108, 869.1757202148438
0, 3, 109, 263.4187316894531
0, 3, 110, 101.4179458618164
0, 3, 111, 64.82667541503906
0, 3, 112, 60.63371276855469
0, 3, 113, 58.25974273681641
0, 3, 114, 55.53281784057617
0, 3, 115, 51.61773300170898
0, 3, 116, 38.00648880004883
0, 3, 117, 38.8837776184082
0, 3, 118, 35.79928970336914
0, 3, 119, 26.99429512023926
0, 3, 120, 33.48614501953125
0, 3, 121, 27.83180809020996
0, 3, 122, 20.63422966003418
0, 3, 123, 26.84266090393066
0, 3, 124, 21.84732627868652
0, 3, 125, 23.95399475097656
0, 3, 126, 30.70439910888672
0, 3, 127, 16.23113441467285
0, 4, 0, 17.36888122558594
0, 4, 1, 19.88627624511719
0, 4, 2, 18.16422653198242
0, 4, 3, 23.67145729064941
0, 4, 4, 31.29474830627441
0, 4, 5, 32.99652481079102
0, 4, 6, 32.53134536743164
0, 4, 7, 29.56493949890137
0, 4, 8, 28.83746337890625
0, 4, 9, 33.15279388427734
0, 4, 10, 27.31605339050293
0, 4, 11, 40.11144638061523
0, 4, 12, 43.12774658203125
0, 4, 13, 57.38421630859375
0, 4, 14, 52.04540252685547
0, 4, 15, 58.53864669799805
0, 4, 16, 74.87480926513672
0, 4, 17, 116.6611709594727
0, 4, 18, 440.6692810058594
0, 4, 19, 1182.519165039062
0, 4, 20, 1444.889038085938
0, 4, 21, 1421.657348632812
0, 4, 22, 1436.568237304688
0, 4, 23, 1454.581176757812
0, 4, 24, 1476.384887695312
0, 4, 25, 1402.446533203125
0, 4, 26, 1536.302124023438
0, 4, 27, 1542.250122070312
0, 4, 28, 1505.860473632812
0, 4, 29, 1516.974243164062
0, 4, 30, 1523.613647460938
0, 4, 31, 1574.055297851562
0, 4, 32, 1516.453369140625
0, 4, 33, 1494.916748046875
0, 4, 34, 1466.705810546875
0, 4, 35, 1556.441284179688
0, 4, 36, 1505.094482421875
0, 4, 37, 1507.5888671875
0, 4, 38, 1533.925537109375
0, 4, 39, 1469.04345703125
0, 4, 40, 1521.489135742188
0, 4, 41, 1585.512817382812
0, 4, 42, 1565.560791015625
0, 4, 43, 1472.579467773438
0, 4, 44, 1499.597290039062
0, 4, 45, 1516.671630859375
0, 4, 46, 1468.842651367188
0, 4, 47, 1502.337280273438
0, 4, 48, 1526.077270507812
0, 4, 49, 1468.5615234375
0, 4, 50, 1521.216064453125
0, 4, 51, 1489.129516601562
0, 4, 52, 1500.484497070312
0, 4, 53, 1451.848999023438
0, 4, 54, 1450.479125976562
0, 4, 55, 1525.836547851562
0, 4, 56, 1455.060302734375
0, 4, 57, 1498.101806640625
0, 4, 58, 1462.635864257812
0, 4, 59, 1461.490844726562
0, 4, 60, 1523.678955078125
0, 4, 61, 1496.754028320312
0, 4, 62, 1503.88818359375
0, 4, 63, 1543.664916992188
0, 4, 64, 1590.272583007812
0, 4, 65, 1425.771362304688
0, 4, 66, 1517.127685546875
0, 4, 67, 1520.837524414062
0, 4, 68, 1497.937133789062
0, 4, 69, 1465.072021484375
0, 4, 70, 1543.514404296875
0, 4, 71, 1510.83349609375
0, 4, 72, 1525.306396484375
0, 4, 73, 1493.143920898438
0, 4, 74, 1484.611206054688
0, 4, 75, 1538.26513671875
0, 4, 76, 1480.2880859375
0, 4, 77, 1497.564575195312
0, 4, 78, 1506.233642578125
0, 4, 79, 1485.590942382812
0, 4, 80, 1513.245849609375
0, 4, 81, 1524.534790039062
0, 4, 82, 1564.31103515625
0, 4, 83, 1505.472534179688
0, 4, 84, 1535.534912109375
0, 4, 85, 1551.6982421875
0, 4, 86, 1524.9345703125
0, 4, 87, 1497.153442382812
0, 4, 88, 1516.559936523438
0, 4, 89, 1481.065063476562
0, 4, 90, 1545.774169921875
0, 4, 91, 1551.195556640625
0, 4, 92, 1489.464233398438
0, 4, 93, 1515.666625976562
0, 4, 94, 1485.841430664062
0, 4, 95, 1515.772705078125
0, 4, 96, 1440.8603515625
0, 4, 97, 1406.41552734375
0, 4, 98, 1550.265258789062
0, 4, 99, 1514.34912109375
0, 4, 100, 1491.086059570312
0, 4, 101, 1451.327392578125
0, 4, 102, 1451.0458984375
0, 4, 103, 1512.295166015625
0, 4, 104, 1509.866821289062
0, 4, 105, 1558.387573242188
0, 4, 106, 1477.97509765625
0, 4, 107, 1454.672973632812
0, 4, 108, 1122.986694335938
0, 4, 109, 437.3724975585938
0, 4, 110, 100.6346740722656
0, 4, 111, 65.80617523193359
0, 4, 112, 63.7501106262207
0, 4, 113, 52.69919204711914
0, 4, 114, 53.69330596923828
0, 4, 115, 45.12767791748047
0, 4, 116, 35.67525863647461
0, 4, 117, 41.77565002441406
0, 4, 118, 38.60032653808594
0, 4, 119, 38.27328491210938
0, 4, 120, 32.1788330078125
0, 4, 121, 31.72078132629395
0, 4, 122, 30.67510414123535
0, 4, 123, 27.6794319152832
0, 4, 124, 23.30824851989746
0, 4, 125, 28.68387222290039
0, 4, 126, 19.42105865478516
0, 4, 127, 15.49118232727051
0, 5, 0, 23.29603576660156
0, 5, 1, 28.18617057800293
0, 5, 2, 27.28418922424316
0, 5, 3, 23.74651908874512
0, 5, 4, 17.42368316650391
0, 5, 5, 37.42485046386719
0, 5, 6, 23.27104568481445
0, 5, 7, 28.70600509643555
0, 5, 8, 31.57888412475586
0, 5, 9, 31.68678665161133
0, 5, 10, 35.56440353393555
0, 5, 11, 35.62607192993164
0, 5, 12, 42.59614562988281
0, 5, 13, 41.5626106262207
0, 5, 14, 63.53301239013672
0, 5, 15, 79.91524505615234
0, 5, 16, 84.93682861328125
0, 5, 17, 154.0047454833984
0, 5, 18, 670.326171875
0, 5, 19, 1346.952392578125
0, 5, 20, 1524.156372070312
0, 5, 21, 1496.066284179688
0, 5, 22, 1498.231079101562
0, 5, 23, 1531.061157226562
0, 5, 24, 1465.17041015625
0, 5, 25, 1425.804931640625
0, 5, 26, 1523.747436523438
0, 5, 27, 1538.952514648438
0, 5, 28, 1486.524780273438
0, 5, 29, 1521.572143554688
0, 5, 30, 1494.617431640625
0, 5, 31, 1500.804077148438
0, 5, 32, 1591.862670898438
0, 5, 33, 1503.093139648438
0, 5, 34, 1484.344116210938
0, 5, 35, 1514.766479492188
0, 5, 36, 1445.572265625
0, 5, 37, 1529.103149414062
0, 5, 38, 1552.057983398438
0, 5, 39, 1547.462524414062
0, 5, 40, 1499.170776367188
0, 5, 41, 1486.883666992188
0, 5, 42, 1536.517333984375
0, 5, 43, 1531.453369140625
0, 5, 44, 1543.48193359375
0, 5, 45, 1514.909545898438
0, 5, 46, 1491.41845703125
0, 5, 47, 1480.421508789062
0, 5, 48, 1496.163818359375
0, 5, 49, 1526.278076171875
0, 5, 50, 1501.465454101562
0, 5, 51, 1516.118774414062
0, 5, 52, 1428.964477539062
0, 5, 53, 1518.634155273438
0, 5, 54, 1517.494018554688
0, 5, 55, 1528.568481445312
0, 5, 56, 1481.723876953125
0, 5, 57, 1537.543579101562
0, 5, 58, 1504.72265625
0, 5, 59, 1484.820434570312
0, 5, 60, 1535.677368164062
0, 5, 61, 1448.060180664062
0, 5, 62, 1584.51416015625
0, 5, 63, 1429.852172851562
0, 5, 64, 1491.997314453125
0, 5, 65, 1461.95947265625
0, 5, 66, 1528.645141601562
0, 5, 67, 1566.026000976562
0, 5, 68, 1466.40869140625
0, 5, 69, 1478.564208984375
0, 5, 70, 1486.52734375
0, 5, 71, 1471.821411132812
0, 5, 72, 1538.125
0, 5, 73, 1456.688842773438
0, 5, 74, 1492.4052734375
0, 5, 75, 1488.872314453125
0, 5, 76, 1478.644653320312
0, 5, 77, 1522.850219726562
0, 5, 78, 1524.6494140625
0, 5, 79, 1508.997192382812
0, 5, 80, 1518.419677734375
0, 5, 81, 1592.081787109375
0, 5, 82, 1533.392944335938
0, 5, 83, 1491.292602539062
0, 5, 84, 1531.73681640625
0, 5, 85, 1511.606689453125
0, 5, 86, 1552.074829101562
0, 5, 87, 1470.506713867188
0, 5, 88, 1501.658203125
0, 5, 89, 1480.7978515625
0, 5, 90, 1480.21826171875
0, 5, 91, 1549.481811523438
0, 5, 92, 1483.01416015625
0, 5, 93, 1565.842895507812
0, 5, 94, 1511.265747070312
0, 5, 95, 1555.972778320312
0, 5, 96, 1501.040649414062
0, 5, 97, 1512.576171875
0, 5, 98, 1515.687255859375
0, 5, 99, 1544.357299804688
0, 5, 100, 1433.812255859375
0, 5, 101, 1428.745971679688
0, 5, 102, 1517.175170898438
0, 5, 103, 1471.765502929688
0, 5, 104, 1461.005615234375
0, 5, 105, 1494.193969726562
0, 5, 106, 1460.54931640625
0, 5, 107, 1398.450317382812
0, 5, 108, 1286.747680664062
0, 5, 109, 722.582763671875
0, 5, 110, 191.7039642333984
0, 5, 111, 89.41509246826172
0, 5, 112, 80.05545043945312
0, 5, 113, 64.40855407714844
0, 5, 114, 56.60679626464844
0, 5, 115, 49.2762336730957
0, 5, 116, 37.71349716186523
0, 5, 117, 31.54936408996582
0, 5, 118, 48.32246398925781
0, 5, 119, 22.18753242492676
0, 5, 120, 27.79673385620117
0, 5, 121, 22.44977951049805
0, 5, 122, 33.12424850463867
0, 5, 123, 24.37784576416016
0, 5, 124, 26.19963455200195
0, 5, 125, 22.19636726379395
0, 5, 126, 20.7593994140625
0, 5, 127, 23.91140747070312
0, 6, 0, 23.11456680297852
0, 6, 1, 29.92276763916016
0, 6, 2, 31.81041526794434
0, 6, 3, 25.92620086669922
0, 6, 4, 25.3112621307373
0, 6, 5, 35.69609069824219
0, 6, 6, 31.54365348815918
0, 6, 7, 31.74634170532227
0, 6, 8, 31.57991409301758
0, 6, 9, 32.2963752746582
0, 6, 10, 35.56156539916992
0, 6, 11, 39.74253845214844
0, 6, 12, 38.4803466796875
0, 6, 13, 57.6115608215332
0, 6, 14, 57.94217300415039
0, 6, 15, 80.30097198486328
0, 6, 16, 113.220588684082
0, 6, 17, 296.7541809082031
0, 6, 18, 894.65966796875
0, 6, 19, 1375.902221679688
0, 6, 20, 1440.188842773438
0, 6, 21, 1530.886596679688
0, 6, 22, 1507.524047851562
0, 6, 23, 1528.456176757812
0, 6, 24, 1483.3857421875
0, 6, 25, 1526.266845703125
0, 6, 26, 1515.278564453125
0, 6, 27, 1525.807983398438
0, 6, 28, 1550.68994140625
0, 6, 29, 1577.019897460938
0, 6, 30, 1520.014892578125
0, 6, 31, 1493.955932617188
0, 6, 32, 1530.306274414062
0, 6, 33, 1495.521240234375
0, 6, 34, 1560.620727539062
0, 6, 35, 1507.3125
0, 6, 36, 1436.3193359375
0, 6, 37, 1545.486450195312
0, 6, 38, 1524.614990234375
0, 6, 39, 1528.158813476562
0, 6, 40, 1460.030029296875
0, 6, 41, 1445.194702148438
0, 6, 42, 1516.398193359375
0, 6, 43, 1488.6787109375
0, 6, 44, 1429.709838867188
0, 6, 45, 1543.057739257812
0, 6, 46, 1548.874389648438
0, 6, 47, 1497.879272460938
0, 6, 48, 1524.69189453125
0, 6, 49, 1511.467651367188
0, 6, 50, 1575.90625
0, 6, 51, 1503.975708007812
0, 6, 52, 1562.889282226562
0, 6, 53, 1473.315673828125
0, 6, 54, 1498.50341796875
0, 6, 55, 1573.785522460938
0, 6, 56, 1522.046875
0, 6, 57, 1503.903076171875
0, 6, 58, 1469.3134765625
0, 6, 59, 1526.644653320312
0, 6, 60, 1471.61474609375
0, 6, 61, 1568.216918945312
0, 6, 62, 1545.71337890625
0, 6, 63, 1495.720703125
0, 6, 64, 1410.963012695312
0, 6, 65, 1495.934936523438
0, 6, 66, 1507.367553710938
0, 6, 67, 1513.6865234375
0, 6, 68, 1543.782104492188
0, 6, 69, 1484.65380859375
0, 6, 70, 1521.194946289062
0, 6, 71, 1468.21484375
0, 6, 72, 1594.151611328125
0, 6, 73, 1491.084594726562
0, 6, 74, 1559.1728515625
0, 6, 75, 1534.191650390625
0, 6, 76, 1563.986572265625
0, 6, 77, 1502.80908203125
0, 6, 78, 1447.124755859375
0, 6, 79, 1555.212646484375
0, 6, 80, 1485.263305664062
0, 6, 81, 1486.075561523438
0, 6, 82, 1503.10986328125
0, 6, 83, 1527.59765625
0, 6, 84, 1520.322265625
0, 6, 85, 1539.875854492188
0, 6, 86, 1544.299194335938
0, 6, 87, 1578.72607421875
0, 6, 88, 1478.107055664062
0, 6, 89, 1560.940063476562
0, 6, 90, 1488.466064453125
0, 6, 91, 1538.249877929688
0, 6, 92, 1483.951293945312
0, 6, 93, 1494.495971679688
0, 6, 94, 1468.080200195312
0, 6, 95, 1511.60205078125
0, 6, 96, 1521.661010742188
0, 6, 97, 1506.916870117188
0, 6, 98, 1504.890014648438
0, 6, 99, 1478.309692382812
0, 6, 100, 1519.87255859375
0, 6, 101, 1516.230224609375
0, 6, 102, 1545.758056640625
0, 6, 103, 1495.015625
0, 6, 104, 1458.923095703125
0, 6, 105, 1484.4658203125
0, 6, 106, 1501.107177734375
0, 6, 107, 1502.660766601562
0, 6, 108, 1408.40283203125
0, 6, 109, 926.47314453125
0, 6, 110, 279.5372314453125
0, 6, 111, 99.28343200683594
0, 6, 112, 77.61487579345703
0, 6, 113, 56.08503723144531
0, 6, 114, 58.6270637512207
0, 6, 115, 42.78796005249023
0, 6, 116, 40.28114700317383
0, 6, 117, 43.44629669189453
0, 6, 118, 39.22306823730469
0, 6, 119, 34.72544860839844
0, 6, 120, 38.76970672607422
0, 6, 121, 31.0784854888916
0, 6, 122, 24.3918285369873
0, 6, 123, 27.16813850402832
0, 6, 124, 28.88933372497559
0, 6, 125, 31.28056716918945
0, 6, 126, 22.45895957946777
0, 6, 127, 22.46274948120117
0, 7, 0, 23.04999732971191
0, 7, 1, 23.01901054382324
0, 7, 2, 23.3039608001709
0, 7, 3, 21.96162033081055
0, 7, 4, 25.52339744567871
0, 7, 5, 34.33794021606445
0, 7, 6, 33.85581970214844
0, 7, 7, 35.37934112548828
0, 7, 8, 29.34972190856934
0, 7, 9, 34.58014297485352
0, 7, 10, 43.14035034179688
0, 7, 11, 49.67074966430664
0, 7, 12, 49.56180191040039
0, 7, 13, 54.29137420654297
0, 7, 14, 61.65544509887695
0, 7, 15, 75.38298797607422
0, 7, 16, 128.9585876464844
0, 7, 17, 458.9422912597656
0, 7, 18, 1098.137817382812
0, 7, 19, 1499.6455078125
0, 7, 20, 1489.162475585938
0, 7, 21, 1366.576416015625
0, 7, 22, 1488.960815429688
0, 7, 23, 1451.955078125
0, 7, 24, 1511.118774414062
0, 7, 25, 1592.728271484375
0, 7, 26, 1517.049072265625
0, 7, 27, 1516.741088867188
0, 7, 28, 1549.030883789062
0, 7, 29, 1576.536499023438
0, 7, 30, 1546.98828125
0, 7, 31, 1440.160888671875
0, 7, 32, 1542.972900390625
0, 7, 33, 1485.603149414062
0, 7, 34, 1481.2197265625
0, 7, 35, 1520.320556640625
0, 7, 36, 1469.860595703125
0, 7, 37, 1599.619018554688
0, 7, 38, 1504.449584960938
0, 7, 39, 1491.20068359375
0, 7, 40, 1541.772216796875
0, 7, 41, 1461.431884765625
0, 7, 42, 1486.9814453125
0, 7, 43, 1444.781494140625
0, 7, 44, 1491.138427734375
0, 7, 45, 1474.465087890625
0, 7, 46, 1512.350463867188
0, 7, 47, 1564.474975585938
0, 7, 48, 1526.851196289062
0, 7, 49, 1542.098388671875
0, 7, 50, 1515.60595703125
0, 7, 51, 1499.618774414062
0, 7, 52, 1517.037109375
0, 7, 53, 1494.95458984375
0, 7, 54, 1585.3720703125
0, 7, 55, 1469.249389648438
0, 7, 56, 1555.000244140625
0, 7, 57, 1508.822509765625
0, 7, 58, 1551.586669921875
0, 7, 59, 1541.329833984375
0, 7, 60, 1551.681762695312
0, 7, 61, 1489.326538085938
0, 7, 62, 1437.018676757812
0, 7, 63, 1516.923706054688
0, 7, 64, 1546.630493164062
0, 7, 65, 1527.04443359375
0, 7, 66, 1537.043823242188
0, 7, 67, 1574.994506835938
0, 7, 68, 1531.359985351562
0, 7, 69, 1511.15625
0, 7, 70, 1491.974365234375
0, 7, 71, 1518.7392578125
0, 7, 72, 1521.093872070312
0, 7, 73, 1517.540161132812
0, 7, 74, 1573.656616210938
0, 7, 75, 1537.833374023438
0, 7, 76, 1557.925903320312
0, 7, 77, 1512.0751953125
0, 7, 78, 1507.46630859375
0, 7, 79, 1424.43017578125
0, 7, 80, 1484.562622070312
0, 7, 81, 1489.483154296875
0, 7, 82, 1532.134765625
0, 7, 83, 1547.7734375
0, 7, 84, 1584.4228515625
0, 7, 85, 1481.134155273438
0, 7, 86, 1504.151123046875
0, 7, 87, 1504.838134765625
0, 7, 88, 1497.609741210938
0, 7, 89, 1553.081665039062
0, 7, 90, 1522.291625976562
0, 7, 91, 1564.62744140625
0, 7, 92, 1528.0732421875
0, 7, 93, 1555.657104492188
0, 7, 94, 1537.2666015625
0, 7, 95, 1505.55810546875
0, 7, 96, 1504.789428710938
0, 7, 97, 1434.99609375
0, 7, 98, 1483.348388671875
0, 7, 99, 1526.209228515625
0, 7, 100, 1419.181396484375
0, 7, 101, 1466.676147460938
0, 7, 102, 1447.192749023438
0, 7, 103, 1436.769653320312
0, 7, 104, 1492.519165039062
0, 7, 105, 1522.76220703125
0, 7, 106, 1566.403564453125
0, 7, 107, 1479.472045898438
0, 7, 108, 1411.719970703125
0, 7, 109, 1146.437255859375
0, 7, 110, 476.0206909179688
0, 7, 111, 127.8818435668945
0, 7, 112, 81.42257690429688
0, 7, 113, 69.68620300292969
0, 7, 114, 55.47654724121094
0, 7, 115, 50.77001190185547
0, 7, 116, 51.4974479675293
0, 7, 117, 45.30466842651367
0, 7, 118, 35.82950592041016
0, 7, 119, 36.16941833496094
0, 7, 120, 26.31581687927246
0, 7, 121, 30.79681968688965
0, 7, 122, 32.44705963134766
0, 7, 123, 37.3002815246582
0, 7, 124, 32.19408798217773
0, 7, 125, 24.70090293884277
0, 7, 126, 26.30441665649414
0, 7, 127, 22.40157508850098
0, 8, 0, 20.2001838684082
0, 8, 1, 20.68989562988281
0, 8, 2, 24.21509552001953
0, 8, 3, 26.13220405578613
0, 8, 4, 29.66494750976562
0, 8, 5, 27.61523628234863
0, 8, 6, 26.5115852355957
0, 8, 7, 26.49064445495605
0, 8, 8, 35.54891204833984
0, 8, 9, 46.85744094848633
0, 8, 10, 41.05451965332031
0, 8, 11, 47.22413635253906
0, 8, 12, 53.73907089233398
0, 8, 13, 67.16511535644531
0, 8, 14, 70.90601348876953
0, 8, 15, 84.48689270019531
0, 8, 16, 174.8053741455078
0, 8, 17, 673.8414916992188
0, 8, 18, 1279.204223632812
0, 8, 19, 1446.61572265625
0, 8, 20, 1426.592407226562
0, 8, 21, 1407.023193359375
0, 8, 22, 1489.47216796875
0, 8, 23, 1480.7041015625
0, 8, 24, 1441.595336914062
0, 8, 25, 1456.453125
0, 8, 26, 1512.862426757812
0, 8, 27, 1520.365844726562
0, 8, 28, 1473.230102539062
0, 8, 29, 1508.146606445312
0, 8, 30, 1487.000244140625
0, 8, 31, 1534.939453125
0, 8, 32, 1510.7666015625
0, 8, 33, 1483.80126953125
0, 8, 34, 1535.920166015625
0, 8, 35, 1441.011352539062
0, 8, 36, 1500.615112304688
0, 8, 37, 1552.859741210938
0, 8, 38, 1554.778442382812
0, 8, 39, 1494.753295898438
0, 8, 40, 1526.931274414062
0, 8, 41, 1474.998168945312
0, 8, 42, 1544.578735351562
0, 8, 43, 1437.028198242188
0, 8, 44, 1535.010864257812
0, 8, 45, 1518.529418945312
0, 8, 46, 1594.941528320312
0, 8, 47, 1586.489135742188
