# TOPAS Version: 3.1.p3
# Parameter File: batch_inserts_182.txt
# Results for scorer Readout_Adipose
# Scored in component: MyBox
# X in 1 bin  of 0.75 cm
# Y in 512 bins of 0.0783984 cm
# Z in 128 bins of 0.078125 cm
# EnergyDeposit ( MeV ) : Sum   
0, 0, 0, 23.68509674072266
0, 0, 1, 19.8192138671875
0, 0, 2, 26.36866569519043
0, 0, 3, 22.55673789978027
0, 0, 4, 21.46993255615234
0, 0, 5, 23.74014472961426
0, 0, 6, 24.0084400177002
0, 0, 7, 33.587158203125
0, 0, 8, 22.04810523986816
0, 0, 9, 25.75531768798828
0, 0, 10, 20.94606590270996
0, 0, 11, 23.60990142822266
0, 0, 12, 34.00568771362305
0, 0, 13, 33.64835739135742
0, 0, 14, 37.72177886962891
0, 0, 15, 47.40242385864258
0, 0, 16, 48.69639205932617
0, 0, 17, 48.99853515625
0, 0, 18, 75.71690368652344
0, 0, 19, 191.6082305908203
0, 0, 20, 699.8394775390625
0, 0, 21, 1193.611938476562
0, 0, 22, 1248.304565429688
0, 0, 23, 1280.171997070312
0, 0, 24, 1279.587036132812
0, 0, 25, 1353.183959960938
0, 0, 26, 1271.811767578125
0, 0, 27, 1280.200317382812
0, 0, 28, 1320.982055664062
0, 0, 29, 1269.290161132812
0, 0, 30, 1267.218627929688
0, 0, 31, 1279.334228515625
0, 0, 32, 1263.150512695312
0, 0, 33, 1236.956420898438
0, 0, 34, 1322.667114257812
0, 0, 35, 1301.648315429688
0, 0, 36, 1246.793090820312
0, 0, 37, 1278.9375
0, 0, 38, 1243.202880859375
0, 0, 39, 1247.208618164062
0, 0, 40, 1220.496459960938
0, 0, 41, 1269.010986328125
0, 0, 42, 1254.88671875
0, 0, 43, 1268.638793945312
0, 0, 44, 1226.138549804688
0, 0, 45, 1289.0146484375
0, 0, 46, 1259.16455078125
0, 0, 47, 1242.300170898438
0, 0, 48, 1276.22900390625
0, 0, 49, 1286.494140625
0, 0, 50, 1307.886962890625
0, 0, 51, 1269.651123046875
0, 0, 52, 1354.248901367188
0, 0, 53, 1324.302001953125
0, 0, 54, 1290.158935546875
0, 0, 55, 1234.30517578125
0, 0, 56, 1319.1484375
0, 0, 57, 1286.583129882812
0, 0, 58, 1253.71875
0, 0, 59, 1336.350341796875
0, 0, 60, 1325.839721679688
0, 0, 61, 1261.682495117188
0, 0, 62, 1244.464721679688
0, 0, 63, 1279.27001953125
0, 0, 64, 1330.61474609375
0, 0, 65, 1284.944580078125
0, 0, 66, 1321.638061523438
0, 0, 67, 1215.727661132812
0, 0, 68, 1314.722900390625
0, 0, 69, 1324.024536132812
0, 0, 70, 1342.617797851562
0, 0, 71, 1287.096435546875
0, 0, 72, 1314.713623046875
0, 0, 73, 1239.692504882812
0, 0, 74, 1289.40771484375
0, 0, 75, 1298.029052734375
0, 0, 76, 1252.190551757812
0, 0, 77, 1284.184448242188
0, 0, 78, 1315.088745117188
0, 0, 79, 1326.957153320312
0, 0, 80, 1264.6572265625
0, 0, 81, 1323.568115234375
0, 0, 82, 1285.449829101562
0, 0, 83, 1292.328735351562
0, 0, 84, 1325.995361328125
0, 0, 85, 1233.998291015625
0, 0, 86, 1270.316040039062
0, 0, 87, 1250.089965820312
0, 0, 88, 1254.805297851562
0, 0, 89, 1334.113525390625
0, 0, 90, 1279.0537109375
0, 0, 91, 1352.133056640625
0, 0, 92, 1297.618286132812
0, 0, 93, 1268.684692382812
0, 0, 94, 1246.885375976562
0, 0, 95, 1326.48486328125
0, 0, 96, 1284.919799804688
0, 0, 97, 1327.400024414062
0, 0, 98, 1256.963623046875
0, 0, 99, 1252.186767578125
0, 0, 100, 1287.6787109375
0, 0, 101, 1314.246948242188
0, 0, 102, 1232.837036132812
0, 0, 103, 1323.262573242188
0, 0, 104, 1263.317504882812
0, 0, 105, 1270.724365234375
0, 0, 106, 1208.910278320312
0, 0, 107, 781.0872802734375
0, 0, 108, 195.072509765625
0, 0, 109, 70.95709991455078
0, 0, 110, 64.78268432617188
0, 0, 111, 41.80844497680664
0, 0, 112, 34.55538177490234
0, 0, 113, 33.24836349487305
0, 0, 114, 35.24861526489258
0, 0, 115, 33.18566513061523
0, 0, 116, 27.13900375366211
0, 0, 117, 31.85187149047852
0, 0, 118, 24.63908576965332
0, 0, 119, 21.2043571472168
0, 0, 120, 26.96658515930176
0, 0, 121, 27.25467109680176
0, 0, 122, 26.36367225646973
0, 0, 123, 18.77860450744629
0, 0, 124, 21.98251152038574
0, 0, 125, 20.67082595825195
0, 0, 126, 25.50640678405762
0, 0, 127, 13.86253261566162
0, 1, 0, 23.93319320678711
0, 1, 1, 19.09002113342285
0, 1, 2, 23.30336761474609
0, 1, 3, 27.35896682739258
0, 1, 4, 23.3851432800293
0, 1, 5, 28.85956192016602
0, 1, 6, 23.44935607910156
0, 1, 7, 27.99845886230469
0, 1, 8, 31.74409103393555
0, 1, 9, 33.99089431762695
0, 1, 10, 34.6272087097168
0, 1, 11, 43.22324752807617
0, 1, 12, 38.71163558959961
0, 1, 13, 40.55406951904297
0, 1, 14, 41.23142242431641
0, 1, 15, 47.02365875244141
0, 1, 16, 57.70008850097656
0, 1, 17, 59.73596572875977
0, 1, 18, 97.66239166259766
0, 1, 19, 395.46533203125
0, 1, 20, 1043.355346679688
0, 1, 21, 1376.959838867188
0, 1, 22, 1482.590698242188
0, 1, 23, 1462.228515625
0, 1, 24, 1449.209106445312
0, 1, 25, 1417.33935546875
0, 1, 26, 1476.348266601562
0, 1, 27, 1464.212158203125
0, 1, 28, 1490.483154296875
0, 1, 29, 1477.241943359375
0, 1, 30, 1506.945434570312
0, 1, 31, 1490.230590820312
0, 1, 32, 1415.285766601562
0, 1, 33, 1497.684204101562
0, 1, 34, 1498.033447265625
0, 1, 35, 1459.626831054688
0, 1, 36, 1489.024536132812
0, 1, 37, 1409.540161132812
0, 1, 38, 1394.75244140625
0, 1, 39, 1523.209350585938
0, 1, 40, 1461.7978515625
0, 1, 41, 1488.776489257812
0, 1, 42, 1492.150634765625
0, 1, 43, 1501.799926757812
0, 1, 44, 1452.45166015625
0, 1, 45, 1487.9736328125
0, 1, 46, 1417.355712890625
0, 1, 47, 1430.916381835938
0, 1, 48, 1426.993408203125
0, 1, 49, 1486.45458984375
0, 1, 50, 1438.654174804688
0, 1, 51, 1474.909790039062
0, 1, 52, 1477.215087890625
0, 1, 53, 1477.707641601562
0, 1, 54, 1506.250732421875
0, 1, 55, 1495.445678710938
0, 1, 56, 1469.427978515625
0, 1, 57, 1457.17236328125
0, 1, 58, 1429.702392578125
0, 1, 59, 1481.821166992188
0, 1, 60, 1465.891723632812
0, 1, 61, 1454.446411132812
0, 1, 62, 1453.450317382812
0, 1, 63, 1414.754150390625
0, 1, 64, 1476.047119140625
0, 1, 65, 1425.08642578125
0, 1, 66, 1436.395874023438
0, 1, 67, 1459.456909179688
0, 1, 68, 1386.713989257812
0, 1, 69, 1462.136962890625
0, 1, 70, 1435.207397460938
0, 1, 71, 1494.599853515625
0, 1, 72, 1435.826049804688
0, 1, 73, 1487.78759765625
0, 1, 74, 1470.011352539062
0, 1, 75, 1481.643432617188
0, 1, 76, 1454.385009765625
0, 1, 77, 1462.27392578125
0, 1, 78, 1450.353515625
0, 1, 79, 1499.732666015625
0, 1, 80, 1451.766479492188
0, 1, 81, 1432.365966796875
0, 1, 82, 1475.964721679688
0, 1, 83, 1462.084716796875
0, 1, 84, 1531.486206054688
0, 1, 85, 1447.013916015625
0, 1, 86, 1406.191772460938
0, 1, 87, 1415.842895507812
0, 1, 88, 1472.80078125
0, 1, 89, 1476.598266601562
0, 1, 90, 1424.809326171875
0, 1, 91, 1466.404174804688
0, 1, 92, 1410.908325195312
0, 1, 93, 1464.485229492188
0, 1, 94, 1464.56005859375
0, 1, 95, 1422.952758789062
0, 1, 96, 1501.93359375
0, 1, 97, 1518.046508789062
0, 1, 98, 1480.184204101562
0, 1, 99, 1422.397583007812
0, 1, 100, 1446.228515625
0, 1, 101, 1414.886352539062
0, 1, 102, 1444.068603515625
0, 1, 103, 1411.449096679688
0, 1, 104, 1405.969116210938
0, 1, 105, 1467.093872070312
0, 1, 106, 1364.289306640625
0, 1, 107, 1019.079345703125
0, 1, 108, 405.0370483398438
0, 1, 109, 93.74214935302734
0, 1, 110, 63.21046447753906
0, 1, 111, 55.10106658935547
0, 1, 112, 47.12596130371094
0, 1, 113, 36.97853469848633
0, 1, 114, 39.02122116088867
0, 1, 115, 37.31567764282227
0, 1, 116, 38.34358978271484
0, 1, 117, 32.85196304321289
0, 1, 118, 36.25247573852539
0, 1, 119, 26.711181640625
0, 1, 120, 25.24274253845215
0, 1, 121, 23.99013900756836
0, 1, 122, 23.40089988708496
0, 1, 123, 25.18192291259766
0, 1, 124, 30.3278865814209
0, 1, 125, 23.63705253601074
0, 1, 126, 22.63809013366699
0, 1, 127, 23.40668869018555
0, 2, 0, 19.00863838195801
0, 2, 1, 18.16320610046387
0, 2, 2, 26.07211875915527
0, 2, 3, 22.57373428344727
0, 2, 4, 24.02284240722656
0, 2, 5, 27.18154716491699
0, 2, 6, 21.6136589050293
0, 2, 7, 23.77895355224609
0, 2, 8, 32.14955902099609
0, 2, 9, 32.27059173583984
0, 2, 10, 32.4349250793457
0, 2, 11, 34.08240509033203
0, 2, 12, 37.64515686035156
0, 2, 13, 44.50297927856445
0, 2, 14, 47.74723052978516
0, 2, 15, 50.52785491943359
0, 2, 16, 65.71026611328125
0, 2, 17, 79.87632751464844
0, 2, 18, 142.2427520751953
0, 2, 19, 602.7206420898438
0, 2, 20, 1286.203491210938
0, 2, 21, 1437.579223632812
0, 2, 22, 1457.600830078125
0, 2, 23, 1399.658081054688
0, 2, 24, 1441.305786132812
0, 2, 25, 1522.55908203125
0, 2, 26, 1555.337158203125
0, 2, 27, 1453.468627929688
0, 2, 28, 1459.1298828125
0, 2, 29, 1465.354248046875
0, 2, 30, 1460.5029296875
0, 2, 31, 1537.984741210938
0, 2, 32, 1508.611694335938
0, 2, 33, 1443.3408203125
0, 2, 34, 1471.968994140625
0, 2, 35, 1467.213012695312
0, 2, 36, 1525.5361328125
0, 2, 37, 1543.5615234375
0, 2, 38, 1508.325561523438
0, 2, 39, 1462.668701171875
0, 2, 40, 1501.105346679688
0, 2, 41, 1517.913452148438
0, 2, 42, 1511.7294921875
0, 2, 43, 1548.02880859375
0, 2, 44, 1455.969970703125
0, 2, 45, 1484.663818359375
0, 2, 46, 1427.62109375
0, 2, 47, 1448.634765625
0, 2, 48, 1396.88525390625
0, 2, 49, 1460.97021484375
0, 2, 50, 1443.96142578125
0, 2, 51, 1443.478393554688
0, 2, 52, 1491.824462890625
0, 2, 53, 1523.96240234375
0, 2, 54, 1529.71484375
0, 2, 55, 1491.08984375
0, 2, 56, 1464.783325195312
0, 2, 57, 1418.447021484375
0, 2, 58, 1458.087890625
0, 2, 59, 1457.912475585938
0, 2, 60, 1471.934204101562
0, 2, 61, 1445.56396484375
0, 2, 62, 1470.785400390625
0, 2, 63, 1509.314575195312
0, 2, 64, 1459.09814453125
0, 2, 65, 1428.566284179688
0, 2, 66, 1485.234497070312
0, 2, 67, 1503.193969726562
0, 2, 68, 1544.424926757812
0, 2, 69, 1537.077880859375
0, 2, 70, 1508.979248046875
0, 2, 71, 1463.731201171875
0, 2, 72, 1515.8681640625
0, 2, 73, 1517.767700195312
0, 2, 74, 1486.829956054688
0, 2, 75, 1505.5166015625
0, 2, 76, 1455.037353515625
0, 2, 77, 1505.5634765625
0, 2, 78, 1434.9169921875
0, 2, 79, 1540.414184570312
0, 2, 80, 1479.243286132812
0, 2, 81, 1467.820190429688
0, 2, 82, 1555.82421875
0, 2, 83, 1516.741455078125
0, 2, 84, 1493.115356445312
0, 2, 85, 1518.954833984375
0, 2, 86, 1542.600830078125
0, 2, 87, 1486.029907226562
0, 2, 88, 1535.635131835938
0, 2, 89, 1462.208374023438
0, 2, 90, 1430.516967773438
0, 2, 91, 1405.340454101562
0, 2, 92, 1477.311401367188
0, 2, 93, 1493.762329101562
0, 2, 94, 1452.705078125
0, 2, 95, 1545.877319335938
0, 2, 96, 1518.041259765625
0, 2, 97, 1451.85888671875
0, 2, 98, 1466.04052734375
0, 2, 99, 1403.879028320312
0, 2, 100, 1469.579223632812
0, 2, 101, 1480.76904296875
0, 2, 102, 1463.492309570312
0, 2, 103, 1387.719360351562
0, 2, 104, 1406.772705078125
0, 2, 105, 1394.3369140625
0, 2, 106, 1460.746826171875
0, 2, 107, 1272.747680664062
0, 2, 108, 619.7136840820312
0, 2, 109, 170.4897155761719
0, 2, 110, 69.85977172851562
0, 2, 111, 64.43683624267578
0, 2, 112, 44.25258255004883
0, 2, 113, 44.45272064208984
0, 2, 114, 35.27511978149414
0, 2, 115, 43.48964691162109
0, 2, 116, 33.26580429077148
0, 2, 117, 37.1749267578125
0, 2, 118, 35.03311920166016
0, 2, 119, 29.86662292480469
0, 2, 120, 25.79008102416992
0, 2, 121, 18.55585670471191
0, 2, 122, 26.62681770324707
0, 2, 123, 24.31559753417969
0, 2, 124, 24.76889419555664
0, 2, 125, 28.73954391479492
0, 2, 126, 15.78805732727051
0, 2, 127, 20.38677787780762
0, 3, 0, 16.35249328613281
0, 3, 1, 21.02021598815918
0, 3, 2, 22.98163032531738
0, 3, 3, 19.25439643859863
0, 3, 4, 21.28683471679688
0, 3, 5, 21.99706268310547
0, 3, 6, 30.25870704650879
0, 3, 7, 28.74944877624512
0, 3, 8, 30.70888710021973
0, 3, 9, 30.7905101776123
0, 3, 10, 32.1052360534668
0, 3, 11, 39.9300537109375
0, 3, 12, 44.11700439453125
0, 3, 13, 50.37310791015625
0, 3, 14, 56.85166931152344
0, 3, 15, 54.10153961181641
0, 3, 16, 70.9820556640625
0, 3, 17, 89.12051391601562
0, 3, 18, 240.8776550292969
0, 3, 19, 874.5625610351562
0, 3, 20, 1386.631713867188
0, 3, 21, 1503.08203125
0, 3, 22, 1461.250610351562
0, 3, 23, 1452.378295898438
0, 3, 24, 1438.1572265625
0, 3, 25, 1470.754638671875
0, 3, 26, 1497.867553710938
0, 3, 27, 1465.215942382812
0, 3, 28, 1487.517333984375
0, 3, 29, 1540.22216796875
0, 3, 30, 1570.200073242188
0, 3, 31, 1511.115478515625
0, 3, 32, 1542.723266601562
0, 3, 33, 1542.191040039062
0, 3, 34, 1493.187133789062
0, 3, 35, 1465.136108398438
0, 3, 36, 1446.955688476562
0, 3, 37, 1512.62109375
0, 3, 38, 1521.091918945312
0, 3, 39, 1442.302001953125
0, 3, 40, 1443.517578125
0, 3, 41, 1563.068115234375
0, 3, 42, 1460.329223632812
0, 3, 43, 1457.9697265625
0, 3, 44, 1449.131225585938
0, 3, 45, 1506.3349609375
0, 3, 46, 1506.231567382812
0, 3, 47, 1442.744140625
0, 3, 48, 1510.328125
0, 3, 49, 1450.447998046875
0, 3, 50, 1491.877807617188
0, 3, 51, 1536.630493164062
0, 3, 52, 1538.939819335938
0, 3, 53, 1467.027587890625
0, 3, 54, 1537.573974609375
0, 3, 55, 1508.069091796875
0, 3, 56, 1434.797485351562
0, 3, 57, 1505.9423828125
0, 3, 58, 1510.683715820312
0, 3, 59, 1508.760131835938
0, 3, 60, 1532.066040039062
0, 3, 61, 1481.2783203125
0, 3, 62, 1489.228393554688
0, 3, 63, 1493.257690429688
0, 3, 64, 1501.866821289062
0, 3, 65, 1513.051879882812
0, 3, 66, 1554.809448242188
0, 3, 67, 1550.369018554688
0, 3, 68, 1449.881958007812
0, 3, 69, 1466.832885742188
0, 3, 70, 1388.913696289062
0, 3, 71, 1463.095825195312
0, 3, 72, 1546.764770507812
0, 3, 73, 1499.542358398438
0, 3, 74, 1464.646850585938
0, 3, 75, 1461.103149414062
0, 3, 76, 1575.151733398438
0, 3, 77, 1541.424072265625
0, 3, 78, 1430.463134765625
0, 3, 79, 1494.498657226562
0, 3, 80, 1461.371826171875
0, 3, 81, 1474.404296875
0, 3, 82, 1553.158203125
0, 3, 83, 1516.775390625
0, 3, 84, 1566.192260742188
0, 3, 85, 1477.419189453125
0, 3, 86, 1524.894409179688
0, 3, 87, 1537.3056640625
0, 3, 88, 1462.435668945312
0, 3, 89, 1449.047607421875
0, 3, 90, 1450.791625976562
0, 3, 91, 1419.68701171875
0, 3, 92, 1513.85546875
0, 3, 93, 1498.13427734375
0, 3, 94, 1512.812622070312
0, 3, 95, 1544.329956054688
0, 3, 96, 1516.144775390625
0, 3, 97, 1464.418701171875
0, 3, 98, 1430.901977539062
0, 3, 99, 1467.8291015625
0, 3, 100, 1474.293212890625
0, 3, 101, 1475.992553710938
0, 3, 102, 1522.3828125
0, 3, 103, 1557.048095703125
0, 3, 104, 1495.945678710938
0, 3, 105, 1514.399536132812
0, 3, 106, 1482.446655273438
0, 3, 107, 1337.673095703125
0, 3, 108, 874.6829833984375
0, 3, 109, 260.6743774414062
0, 3, 110, 101.1978149414062
0, 3, 111, 67.32170104980469
0, 3, 112, 58.88106155395508
0, 3, 113, 52.83809661865234
0, 3, 114, 46.86026763916016
0, 3, 115, 51.30365753173828
0, 3, 116, 37.91814041137695
0, 3, 117, 40.59915924072266
0, 3, 118, 35.02982330322266
0, 3, 119, 34.35332107543945
0, 3, 120, 34.78958892822266
0, 3, 121, 22.32661247253418
0, 3, 122, 27.34554100036621
0, 3, 123, 27.96624565124512
0, 3, 124, 26.43305397033691
0, 3, 125, 23.53306579589844
0, 3, 126, 27.72432518005371
0, 3, 127, 19.05021286010742
0, 4, 0, 19.75834274291992
0, 4, 1, 22.43482398986816
0, 4, 2, 21.33205604553223
0, 4, 3, 24.48469543457031
0, 4, 4, 25.83068656921387
0, 4, 5, 28.33638763427734
0, 4, 6, 26.20337295532227
0, 4, 7, 27.62509346008301
0, 4, 8, 28.91202926635742
0, 4, 9, 32.53696823120117
0, 4, 10, 32.79267501831055
0, 4, 11, 34.75383758544922
0, 4, 12, 43.95270538330078
0, 4, 13, 49.08965682983398
0, 4, 14, 46.76327133178711
0, 4, 15, 59.907470703125
0, 4, 16, 71.76699829101562
0, 4, 17, 112.9041748046875
0, 4, 18, 443.3917846679688
0, 4, 19, 1176.47607421875
0, 4, 20, 1446.001831054688
0, 4, 21, 1416.885620117188
0, 4, 22, 1430.229858398438
0, 4, 23, 1447.521728515625
0, 4, 24, 1474.1923828125
0, 4, 25, 1406.962890625
0, 4, 26, 1538.273681640625
0, 4, 27, 1549.244262695312
0, 4, 28, 1504.471923828125
0, 4, 29, 1514.097534179688
0, 4, 30, 1528.495727539062
0, 4, 31, 1574.537475585938
0, 4, 32, 1514.613159179688
0, 4, 33, 1490.905517578125
0, 4, 34, 1470.918823242188
0, 4, 35, 1559.743896484375
0, 4, 36, 1504.415283203125
0, 4, 37, 1514.557495117188
0, 4, 38, 1533.673828125
0, 4, 39, 1466.485473632812
0, 4, 40, 1514.530883789062
0, 4, 41, 1586.257080078125
0, 4, 42, 1562.064453125
0, 4, 43, 1477.052490234375
0, 4, 44, 1496.499877929688
0, 4, 45, 1518.221801757812
0, 4, 46, 1466.28515625
0, 4, 47, 1504.265258789062
0, 4, 48, 1526.925048828125
0, 4, 49, 1471.42822265625
0, 4, 50, 1516.35400390625
0, 4, 51, 1496.959716796875
0, 4, 52, 1500.604736328125
0, 4, 53, 1451.435546875
0, 4, 54, 1440.519287109375
0, 4, 55, 1524.150268554688
0, 4, 56, 1458.12255859375
0, 4, 57, 1495.178955078125
0, 4, 58, 1462.717895507812
0, 4, 59, 1465.062622070312
0, 4, 60, 1525.074829101562
0, 4, 61, 1499.953491210938
0, 4, 62, 1507.309814453125
0, 4, 63, 1543.072021484375
0, 4, 64, 1591.988525390625
0, 4, 65, 1423.716064453125
0, 4, 66, 1513.193725585938
0, 4, 67, 1519.089233398438
0, 4, 68, 1498.417724609375
0, 4, 69, 1470.144897460938
0, 4, 70, 1544.535888671875
0, 4, 71, 1518.13525390625
0, 4, 72, 1525.277587890625
0, 4, 73, 1490.357788085938
0, 4, 74, 1489.275390625
0, 4, 75, 1536.622314453125
0, 4, 76, 1482.8671875
0, 4, 77, 1497.138916015625
0, 4, 78, 1502.548828125
0, 4, 79, 1482.962280273438
0, 4, 80, 1515.897705078125
0, 4, 81, 1530.8134765625
0, 4, 82, 1567.7548828125
0, 4, 83, 1504.583374023438
0, 4, 84, 1532.2216796875
0, 4, 85, 1550.864501953125
0, 4, 86, 1521.6591796875
0, 4, 87, 1501.270263671875
0, 4, 88, 1515.548583984375
0, 4, 89, 1484.171997070312
0, 4, 90, 1546.27099609375
0, 4, 91, 1555.56005859375
0, 4, 92, 1497.967529296875
0, 4, 93, 1512.431762695312
0, 4, 94, 1482.859497070312
0, 4, 95, 1508.479248046875
0, 4, 96, 1443.254272460938
0, 4, 97, 1403.595581054688
0, 4, 98, 1553.996459960938
0, 4, 99, 1508.816528320312
0, 4, 100, 1491.289184570312
0, 4, 101, 1450.301879882812
0, 4, 102, 1446.532958984375
0, 4, 103, 1513.539306640625
0, 4, 104, 1511.954345703125
0, 4, 105, 1555.530029296875
0, 4, 106, 1477.877685546875
0, 4, 107, 1457.930786132812
0, 4, 108, 1122.823364257812
0, 4, 109, 434.5989379882812
0, 4, 110, 93.42279815673828
0, 4, 111, 73.04698944091797
0, 4, 112, 56.44117736816406
0, 4, 113, 51.5217170715332
0, 4, 114, 51.97812652587891
0, 4, 115, 47.22002410888672
0, 4, 116, 36.71310424804688
0, 4, 117, 45.47690582275391
0, 4, 118, 44.03419494628906
0, 4, 119, 36.10785675048828
0, 4, 120, 38.02145385742188
0, 4, 121, 28.19560623168945
0, 4, 122, 34.43482971191406
0, 4, 123, 30.18233871459961
0, 4, 124, 21.86227989196777
0, 4, 125, 31.3080997467041
0, 4, 126, 20.13615608215332
0, 4, 127, 18.95620536804199
0, 5, 0, 20.79829788208008
0, 5, 1, 24.57934379577637
0, 5, 2, 34.75673294067383
0, 5, 3, 21.72342300415039
0, 5, 4, 20.5822925567627
0, 5, 5, 35.62295913696289
0, 5, 6, 27.72724914550781
0, 5, 7, 35.09102249145508
0, 5, 8, 31.10375022888184
0, 5, 9, 29.49675559997559
0, 5, 10, 32.02173614501953
0, 5, 11, 40.84962463378906
0, 5, 12, 39.11310958862305
0, 5, 13, 48.07330703735352
0, 5, 14, 62.83570861816406
0, 5, 15, 78.98521423339844
0, 5, 16, 78.52587890625
0, 5, 17, 158.3678894042969
0, 5, 18, 675.2550659179688
0, 5, 19, 1348.772338867188
0, 5, 20, 1523.854370117188
0, 5, 21, 1494.67431640625
0, 5, 22, 1500.443603515625
0, 5, 23, 1531.952880859375
0, 5, 24, 1466.056640625
0, 5, 25, 1424.04736328125
0, 5, 26, 1524.722290039062
0, 5, 27, 1536.6396484375
0, 5, 28, 1486.51416015625
0, 5, 29, 1522.543823242188
0, 5, 30, 1492.614624023438
0, 5, 31, 1500.924560546875
0, 5, 32, 1596.465087890625
0, 5, 33, 1504.51904296875
0, 5, 34, 1478.45361328125
0, 5, 35, 1509.608520507812
0, 5, 36, 1449.1982421875
0, 5, 37, 1530.443481445312
0, 5, 38, 1548.115966796875
0, 5, 39, 1552.023559570312
0, 5, 40, 1500.745849609375
0, 5, 41, 1478.049194335938
0, 5, 42, 1545.708618164062
0, 5, 43, 1532.778076171875
0, 5, 44, 1541.590576171875
0, 5, 45, 1510.530395507812
0, 5, 46, 1493.417846679688
0, 5, 47, 1482.832275390625
0, 5, 48, 1502.94482421875
0, 5, 49, 1522.967163085938
0, 5, 50, 1506.005493164062
0, 5, 51, 1518.245971679688
0, 5, 52, 1430.059692382812
0, 5, 53, 1527.375
0, 5, 54, 1516.446655273438
0, 5, 55, 1525.000610351562
0, 5, 56, 1481.212036132812
0, 5, 57, 1539.577514648438
0, 5, 58, 1507.177124023438
0, 5, 59, 1485.652587890625
0, 5, 60, 1536.499145507812
0, 5, 61, 1450.775634765625
0, 5, 62, 1586.894287109375
0, 5, 63, 1431.083862304688
0, 5, 64, 1491.419067382812
0, 5, 65, 1469.17138671875
0, 5, 66, 1529.087036132812
0, 5, 67, 1559.27734375
0, 5, 68, 1469.453002929688
0, 5, 69, 1484.398803710938
0, 5, 70, 1485.38623046875
0, 5, 71, 1469.8564453125
0, 5, 72, 1536.891479492188
0, 5, 73, 1464.380981445312
0, 5, 74, 1489.745727539062
0, 5, 75, 1487.059448242188
0, 5, 76, 1476.929443359375
0, 5, 77, 1517.77587890625
0, 5, 78, 1521.60888671875
0, 5, 79, 1511.928833007812
0, 5, 80, 1523.443359375
0, 5, 81, 1593.431396484375
0, 5, 82, 1523.552734375
0, 5, 83, 1487.5966796875
0, 5, 84, 1533.716796875
0, 5, 85, 1512.01416015625
0, 5, 86, 1560.918212890625
0, 5, 87, 1473.982543945312
0, 5, 88, 1495.8291015625
0, 5, 89, 1483.95654296875
0, 5, 90, 1477.384765625
0, 5, 91, 1550.284301757812
0, 5, 92, 1482.65869140625
0, 5, 93, 1560.205932617188
0, 5, 94, 1507.847534179688
0, 5, 95, 1563.654174804688
0, 5, 96, 1498.688842773438
0, 5, 97, 1509.412841796875
0, 5, 98, 1509.645141601562
0, 5, 99, 1538.373657226562
0, 5, 100, 1434.876342773438
0, 5, 101, 1427.369750976562
0, 5, 102, 1509.298950195312
0, 5, 103, 1473.190551757812
0, 5, 104, 1460.249145507812
0, 5, 105, 1494.832153320312
0, 5, 106, 1458.368286132812
0, 5, 107, 1398.385131835938
0, 5, 108, 1290.060424804688
0, 5, 109, 719.346923828125
0, 5, 110, 193.1287841796875
0, 5, 111, 88.91621398925781
0, 5, 112, 84.15058135986328
0, 5, 113, 65.46101379394531
0, 5, 114, 65.76306915283203
0, 5, 115, 51.39680862426758
0, 5, 116, 39.29387283325195
0, 5, 117, 33.78929901123047
0, 5, 118, 40.51079940795898
0, 5, 119, 27.83288955688477
0, 5, 120, 30.75946426391602
0, 5, 121, 24.70569610595703
0, 5, 122, 24.77590751647949
0, 5, 123, 26.30820083618164
0, 5, 124, 26.13880157470703
0, 5, 125, 21.54932403564453
0, 5, 126, 20.57583999633789
0, 5, 127, 19.48771858215332
0, 6, 0, 21.73344230651855
0, 6, 1, 30.72907447814941
0, 6, 2, 29.83818626403809
0, 6, 3, 24.20182228088379
0, 6, 4, 22.82260322570801
0, 6, 5, 33.56246185302734
0, 6, 6, 40.28125762939453
0, 6, 7, 29.20861625671387
0, 6, 8, 33.88237762451172
0, 6, 9, 31.13500022888184
0, 6, 10, 40.84684371948242
0, 6, 11, 42.24225997924805
0, 6, 12, 36.8960075378418
0, 6, 13, 58.42288208007812
0, 6, 14, 62.85897445678711
0, 6, 15, 81.82137298583984
0, 6, 16, 108.2041549682617
0, 6, 17, 297.5792541503906
0, 6, 18, 902.253662109375
0, 6, 19, 1374.841186523438
0, 6, 20, 1442.131958007812
0, 6, 21, 1527.77587890625
0, 6, 22, 1499.037841796875
0, 6, 23, 1528.132934570312
0, 6, 24, 1476.535278320312
0, 6, 25, 1526.744262695312
0, 6, 26, 1522.052734375
0, 6, 27, 1521.1865234375
0, 6, 28, 1554.19580078125
0, 6, 29, 1570.075439453125
0, 6, 30, 1517.593505859375
0, 6, 31, 1488.99365234375
0, 6, 32, 1523.876708984375
0, 6, 33, 1494.718017578125
0, 6, 34, 1558.964233398438
0, 6, 35, 1498.353271484375
0, 6, 36, 1437.414428710938
0, 6, 37, 1546.010498046875
0, 6, 38, 1523.182495117188
0, 6, 39, 1526.110473632812
0, 6, 40, 1459.79638671875
0, 6, 41, 1440.262451171875
0, 6, 42, 1511.285766601562
0, 6, 43, 1489.935424804688
0, 6, 44, 1432.420043945312
0, 6, 45, 1543.326538085938
0, 6, 46, 1550.961669921875
0, 6, 47, 1495.654296875
0, 6, 48, 1522.174560546875
0, 6, 49, 1511.867919921875
0, 6, 50, 1572.037841796875
0, 6, 51, 1502.284301757812
0, 6, 52, 1561.773681640625
0, 6, 53, 1479.406005859375
0, 6, 54, 1499.664794921875
0, 6, 55, 1577.332641601562
0, 6, 56, 1523.285034179688
0, 6, 57, 1503.844848632812
0, 6, 58, 1465.311767578125
0, 6, 59, 1519.129760742188
0, 6, 60, 1467.13330078125
0, 6, 61, 1571.777465820312
0, 6, 62, 1548.402587890625
0, 6, 63, 1495.557861328125
0, 6, 64, 1415.369750976562
0, 6, 65, 1494.970947265625
0, 6, 66, 1511.802734375
0, 6, 67, 1515.50732421875
0, 6, 68, 1545.610107421875
0, 6, 69, 1483.38427734375
0, 6, 70, 1525.084106445312
0, 6, 71, 1468.119750976562
0, 6, 72, 1592.7861328125
0, 6, 73, 1491.899291992188
0, 6, 74, 1555.143188476562
0, 6, 75, 1536.2080078125
0, 6, 76, 1562.350708007812
0, 6, 77, 1507.106689453125
0, 6, 78, 1448.874389648438
0, 6, 79, 1555.206176757812
0, 6, 80, 1477.427856445312
0, 6, 81, 1485.16015625
0, 6, 82, 1500.800659179688
0, 6, 83, 1523.987915039062
0, 6, 84, 1519.737182617188
0, 6, 85, 1537.681274414062
0, 6, 86, 1542.574462890625
0, 6, 87, 1576.804321289062
0, 6, 88, 1478.328735351562
0, 6, 89, 1563.5595703125
0, 6, 90, 1495.757934570312
0, 6, 91, 1541.634887695312
0, 6, 92, 1490.396850585938
0, 6, 93, 1499.503662109375
0, 6, 94, 1468.260864257812
0, 6, 95, 1510.2783203125
0, 6, 96, 1522.646118164062
0, 6, 97, 1508.475952148438
0, 6, 98, 1496.015014648438
0, 6, 99, 1476.842895507812
0, 6, 100, 1526.242553710938
0, 6, 101, 1516.71435546875
0, 6, 102, 1542.211669921875
0, 6, 103, 1499.248779296875
0, 6, 104, 1464.943603515625
0, 6, 105, 1487.048095703125
0, 6, 106, 1499.422119140625
0, 6, 107, 1502.4287109375
0, 6, 108, 1407.665161132812
0, 6, 109, 921.3591918945312
0, 6, 110, 280.0723266601562
0, 6, 111, 96.11678314208984
0, 6, 112, 74.76166534423828
0, 6, 113, 58.99481964111328
0, 6, 114, 55.79186248779297
0, 6, 115, 45.52177429199219
0, 6, 116, 40.89242553710938
0, 6, 117, 38.6561164855957
0, 6, 118, 43.87658309936523
0, 6, 119, 37.54133605957031
0, 6, 120, 32.7679557800293
0, 6, 121, 27.91604614257812
0, 6, 122, 31.40097618103027
0, 6, 123, 25.03488540649414
0, 6, 124, 27.22987747192383
0, 6, 125, 30.31836128234863
0, 6, 126, 23.24229621887207
0, 6, 127, 24.09322929382324
0, 7, 0, 19.07814407348633
0, 7, 1, 25.93304443359375
0, 7, 2, 20.68218803405762
0, 7, 3, 28.79242897033691
0, 7, 4, 25.79043388366699
0, 7, 5, 41.36191177368164
0, 7, 6, 32.58739471435547
0, 7, 7, 32.39101409912109
0, 7, 8, 30.9173698425293
0, 7, 9, 39.08538055419922
0, 7, 10, 53.47573471069336
0, 7, 11, 46.19837188720703
0, 7, 12, 45.96904754638672
0, 7, 13, 48.35990142822266
0, 7, 14, 61.39553451538086
0, 7, 15, 75.84320068359375
0, 7, 16, 130.6562042236328
0, 7, 17, 459.5464782714844
0, 7, 18, 1105.30126953125
0, 7, 19, 1504.14599609375
0, 7, 20, 1485.187255859375
0, 7, 21, 1364.220947265625
0, 7, 22, 1484.964477539062
0, 7, 23, 1451.058227539062
0, 7, 24, 1512.96533203125
0, 7, 25, 1594.629516601562
0, 7, 26, 1516.321655273438
0, 7, 27, 1515.587890625
0, 7, 28, 1545.726806640625
0, 7, 29, 1577.55517578125
0, 7, 30, 1549.5556640625
0, 7, 31, 1436.992919921875
0, 7, 32, 1542.8173828125
0, 7, 33, 1490.870727539062
0, 7, 34, 1478.332763671875
0, 7, 35, 1528.6064453125
0, 7, 36, 1476.751831054688
0, 7, 37, 1600.306396484375
0, 7, 38, 1503.837280273438
0, 7, 39, 1491.278076171875
0, 7, 40, 1543.105834960938
0, 7, 41, 1462.61962890625
0, 7, 42, 1487.923095703125
0, 7, 43, 1449.219482421875
0, 7, 44, 1494.142211914062
0, 7, 45, 1471.500732421875
0, 7, 46, 1513.918334960938
0, 7, 47, 1568.545043945312
0, 7, 48, 1523.957641601562
0, 7, 49, 1541.82080078125
0, 7, 50, 1512.981811523438
0, 7, 51, 1505.589233398438
0, 7, 52, 1521.348022460938
0, 7, 53, 1493.07568359375
0, 7, 54, 1590.147583007812
0, 7, 55, 1469.528198242188
0, 7, 56, 1550.738159179688
0, 7, 57, 1520.601318359375
0, 7, 58, 1551.075439453125
0, 7, 59, 1539.821044921875
0, 7, 60, 1547.032958984375
0, 7, 61, 1488.623046875
0, 7, 62, 1433.154174804688
0, 7, 63, 1515.673706054688
0, 7, 64, 1545.715209960938
0, 7, 65, 1529.643432617188
0, 7, 66, 1534.885620117188
0, 7, 67, 1575.35546875
0, 7, 68, 1534.046264648438
0, 7, 69, 1518.26220703125
0, 7, 70, 1498.475219726562
0, 7, 71, 1526.0869140625
0, 7, 72, 1522.978393554688
0, 7, 73, 1515.685913085938
0, 7, 74, 1574.702514648438
0, 7, 75, 1536.094482421875
0, 7, 76, 1558.74755859375
0, 7, 77, 1512.971069335938
0, 7, 78, 1502.2529296875
0, 7, 79, 1422.301147460938
0, 7, 80, 1485.369995117188
0, 7, 81, 1496.187255859375
0, 7, 82, 1543.125
0, 7, 83, 1543.479248046875
0, 7, 84, 1579.127197265625
0, 7, 85, 1476.221435546875
0, 7, 86, 1501.354858398438
0, 7, 87, 1509.332275390625
0, 7, 88, 1502.458740234375
0, 7, 89, 1556.750610351562
0, 7, 90, 1521.560180664062
0, 7, 91, 1558.7099609375
0, 7, 92, 1527.128173828125
0, 7, 93, 1555.119018554688
0, 7, 94, 1540.19384765625
0, 7, 95, 1509.184448242188
0, 7, 96, 1503.482788085938
0, 7, 97, 1431.4501953125
0, 7, 98, 1480.944213867188
0, 7, 99, 1525.206298828125
0, 7, 100, 1417.276000976562
0, 7, 101, 1462.852905273438
0, 7, 102, 1449.577392578125
0, 7, 103, 1431.987670898438
0, 7, 104, 1491.504516601562
0, 7, 105, 1521.940551757812
0, 7, 106, 1571.504760742188
0, 7, 107, 1483.145385742188
0, 7, 108, 1410.287719726562
0, 7, 109, 1149.379638671875
0, 7, 110, 466.649658203125
0, 7, 111, 125.7770919799805
0, 7, 112, 78.7935791015625
0, 7, 113, 65.64077758789062
0, 7, 114, 57.25584411621094
0, 7, 115, 49.4764404296875
0, 7, 116, 48.72492980957031
0, 7, 117, 44.33298110961914
0, 7, 118, 33.03418350219727
0, 7, 119, 35.86425018310547
0, 7, 120, 24.57995796203613
0, 7, 121, 34.41631317138672
0, 7, 122, 36.39240646362305
0, 7, 123, 33.69351577758789
0, 7, 124, 31.44147872924805
0, 7, 125, 23.30867004394531
0, 7, 126, 26.50946998596191
0, 7, 127, 21.00627708435059
0, 8, 0, 22.86331176757812
0, 8, 1, 20.14207077026367
0, 8, 2, 22.4053955078125
0, 8, 3, 25.21198081970215
0, 8, 4, 29.3782787322998
0, 8, 5, 32.325439453125
0, 8, 6, 33.79861068725586
0, 8, 7, 32.32468795776367
0, 8, 8, 32.40570068359375
0, 8, 9, 52.23579025268555
0, 8, 10, 44.73976516723633
0, 8, 11, 42.62882232666016
0, 8, 12, 53.98530960083008
0, 8, 13, 69.00635528564453
0, 8, 14, 68.21614074707031
0, 8, 15, 89.62082672119141
0, 8, 16, 160.577392578125
0, 8, 17, 672.9100952148438
0, 8, 18, 1280.25634765625
0, 8, 19, 1453.654052734375
0, 8, 20, 1422.49658203125
0, 8, 21, 1409.858276367188
0, 8, 22, 1491.580200195312
0, 8, 23, 1478.11181640625
0, 8, 24, 1435.42578125
0, 8, 25, 1453.774047851562
0, 8, 26, 1515.784423828125
0, 8, 27, 1521.9560546875
0, 8, 28, 1472.714721679688
0, 8, 29, 1506.609497070312
0, 8, 30, 1489.68212890625
0, 8, 31, 1532.494262695312
0, 8, 32, 1507.476318359375
0, 8, 33, 1484.831665039062
0, 8, 34, 1530.343505859375
0, 8, 35, 1443.602172851562
0, 8, 36, 1496.895751953125
0, 8, 37, 1552.616333007812
0, 8, 38, 1554.467529296875
0, 8, 39, 1497.007934570312
0, 8, 40, 1529.691772460938
0, 8, 41, 1480.155517578125
0, 8, 42, 1538.763549804688
0, 8, 43, 1433.1328125
0, 8, 44, 1536.89697265625
0, 8, 45, 1508.796630859375
0, 8, 46, 1597.671264648438
0, 8, 47, 1585.838256835938
