# TOPAS Version: 3.1.p3
# Parameter File: batch_inserts_200.txt
# Results for scorer Readout_Adipose
# Scored in component: MyBox
# X in 1 bin  of 0.75 cm
# Y in 512 bins of 0.0783984 cm
# Z in 128 bins of 0.078125 cm
# EnergyDeposit ( MeV ) : Sum   
0, 0, 0, 4.304447174072266
0, 0, 1, 1.972519516944885
0, 0, 2, 4.70805835723877
0, 0, 3, 3.859722137451172
0, 0, 4, 3.715946435928345
0, 0, 5, 3.710776090621948
0, 0, 6, 7.589358806610107
0, 0, 7, 9.442837715148926
0, 0, 8, 2.837303161621094
0, 0, 9, 3.429206848144531
0, 0, 10, 7.334228038787842
0, 0, 11, 4.470710754394531
0, 0, 12, 3.989818572998047
0, 0, 13, 6.209259033203125
0, 0, 14, 7.637382984161377
0, 0, 15, 9.68095588684082
0, 0, 16, 8.206061363220215
0, 0, 17, 9.281869888305664
0, 0, 18, 14.0138635635376
0, 0, 19, 42.67842102050781
0, 0, 20, 139.5281829833984
0, 0, 21, 223.5648956298828
0, 0, 22, 247.6300811767578
0, 0, 23, 256.8155517578125
0, 0, 24, 250.3127593994141
0, 0, 25, 257.8111267089844
0, 0, 26, 234.7740478515625
0, 0, 27, 238.0119476318359
0, 0, 28, 271.7979736328125
0, 0, 29, 252.5865478515625
0, 0, 30, 229.8522796630859
0, 0, 31, 242.7984924316406
0, 0, 32, 263.4458312988281
0, 0, 33, 262.3888549804688
0, 0, 34, 288.410400390625
0, 0, 35, 267.0877990722656
0, 0, 36, 245.6613616943359
0, 0, 37, 251.495361328125
0, 0, 38, 267.3938598632812
0, 0, 39, 229.0468902587891
0, 0, 40, 240.8011474609375
0, 0, 41, 264.5463562011719
0, 0, 42, 229.5122375488281
0, 0, 43, 260.5121765136719
0, 0, 44, 252.5559539794922
0, 0, 45, 253.0787963867188
0, 0, 46, 243.3522644042969
0, 0, 47, 254.4331512451172
0, 0, 48, 269.5963134765625
0, 0, 49, 273.9031677246094
0, 0, 50, 249.8374328613281
0, 0, 51, 255.6895599365234
0, 0, 52, 272.3790283203125
0, 0, 53, 291.4776916503906
0, 0, 54, 242.0097351074219
0, 0, 55, 240.0697631835938
0, 0, 56, 277.174560546875
0, 0, 57, 262.8328247070312
0, 0, 58, 245.6123504638672
0, 0, 59, 269.6671447753906
0, 0, 60, 234.6757507324219
0, 0, 61, 245.2910461425781
0, 0, 62, 259.4674682617188
0, 0, 63, 266.471435546875
0, 0, 64, 256.3936462402344
0, 0, 65, 262.9248657226562
0, 0, 66, 276.0456237792969
0, 0, 67, 247.4530334472656
0, 0, 68, 258.0986022949219
0, 0, 69, 260.5362548828125
0, 0, 70, 271.9594421386719
0, 0, 71, 237.7779998779297
0, 0, 72, 250.8731231689453
0, 0, 73, 258.4327087402344
0, 0, 74, 249.8579254150391
0, 0, 75, 241.0259399414062
0, 0, 76, 228.1633453369141
0, 0, 77, 259.3573913574219
0, 0, 78, 258.1398315429688
0, 0, 79, 278.6119689941406
0, 0, 80, 216.7766723632812
0, 0, 81, 268.6790466308594
0, 0, 82, 256.8480529785156
0, 0, 83, 244.2847442626953
0, 0, 84, 270.0774230957031
0, 0, 85, 231.9708862304688
0, 0, 86, 253.9867553710938
0, 0, 87, 252.6094818115234
0, 0, 88, 260.2478637695312
0, 0, 89, 282.0947570800781
0, 0, 90, 247.589111328125
0, 0, 91, 281.5770874023438
0, 0, 92, 252.5498962402344
0, 0, 93, 250.2830047607422
0, 0, 94, 253.6345977783203
0, 0, 95, 248.6885070800781
0, 0, 96, 275.3370666503906
0, 0, 97, 272.5667419433594
0, 0, 98, 274.1627807617188
0, 0, 99, 258.6992797851562
0, 0, 100, 258.5621643066406
0, 0, 101, 227.728515625
0, 0, 102, 232.5135192871094
0, 0, 103, 269.8119812011719
0, 0, 104, 254.0569763183594
0, 0, 105, 251.1832580566406
0, 0, 106, 245.8370513916016
0, 0, 107, 152.9516143798828
0, 0, 108, 37.58052825927734
0, 0, 109, 11.95231914520264
0, 0, 110, 13.43771839141846
0, 0, 111, 8.03455924987793
0, 0, 112, 6.212875843048096
0, 0, 113, 5.226791858673096
0, 0, 114, 7.408788681030273
0, 0, 115, 4.794572353363037
0, 0, 116, 4.362747192382812
0, 0, 117, 5.23095703125
0, 0, 118, 8.465706825256348
0, 0, 119, 3.771184682846069
0, 0, 120, 3.589648246765137
0, 0, 121, 3.125539779663086
0, 0, 122, 3.897480964660645
0, 0, 123, 2.870261907577515
0, 0, 124, 6.54095983505249
0, 0, 125, 3.555483818054199
0, 0, 126, 2.957732915878296
0, 0, 127, 4.148331642150879
0, 1, 0, 7.117319583892822
0, 1, 1, 2.414529323577881
0, 1, 2, 3.76508355140686
0, 1, 3, 2.450044870376587
0, 1, 4, 2.761101245880127
0, 1, 5, 2.523835420608521
0, 1, 6, 6.508316993713379
0, 1, 7, 3.98829460144043
0, 1, 8, 9.59540843963623
0, 1, 9, 4.783243656158447
0, 1, 10, 7.997931480407715
0, 1, 11, 11.23941421508789
0, 1, 12, 12.8643045425415
0, 1, 13, 8.968358993530273
0, 1, 14, 9.401566505432129
0, 1, 15, 7.251842975616455
0, 1, 16, 11.61053848266602
0, 1, 17, 11.79550743103027
0, 1, 18, 19.57602310180664
0, 1, 19, 65.52595520019531
0, 1, 20, 201.2538604736328
0, 1, 21, 254.3307495117188
0, 1, 22, 298.3418273925781
0, 1, 23, 283.708984375
0, 1, 24, 274.3298034667969
0, 1, 25, 288.6460266113281
0, 1, 26, 272.5006408691406
0, 1, 27, 307.605712890625
0, 1, 28, 299.9786682128906
0, 1, 29, 296.4317321777344
0, 1, 30, 279.7404479980469
0, 1, 31, 291.9585571289062
0, 1, 32, 290.8794860839844
0, 1, 33, 294.9218444824219
0, 1, 34, 292.2660522460938
0, 1, 35, 279.2519226074219
0, 1, 36, 305.8087768554688
0, 1, 37, 296.3224487304688
0, 1, 38, 280.7226257324219
0, 1, 39, 297.609130859375
0, 1, 40, 265.4084167480469
0, 1, 41, 287.8396301269531
0, 1, 42, 289.7941589355469
0, 1, 43, 330.9274597167969
0, 1, 44, 278.1851806640625
0, 1, 45, 292.1896057128906
0, 1, 46, 261.6425476074219
0, 1, 47, 309.8078918457031
0, 1, 48, 284.2684020996094
0, 1, 49, 303.8699340820312
0, 1, 50, 263.4130249023438
0, 1, 51, 273.8009338378906
0, 1, 52, 294.5014343261719
0, 1, 53, 304.5350341796875
0, 1, 54, 273.9324951171875
0, 1, 55, 292.7671203613281
0, 1, 56, 281.7133178710938
0, 1, 57, 299.0055847167969
0, 1, 58, 310.1779174804688
0, 1, 59, 293.4108276367188
0, 1, 60, 298.76953125
0, 1, 61, 277.4179382324219
0, 1, 62, 306.7431030273438
0, 1, 63, 287.8845825195312
0, 1, 64, 287.9345092773438
0, 1, 65, 294.0611267089844
0, 1, 66, 291.2420654296875
0, 1, 67, 291.92041015625
0, 1, 68, 277.7750244140625
0, 1, 69, 280.179931640625
0, 1, 70, 270.6685180664062
0, 1, 71, 272.9467163085938
0, 1, 72, 285.7372741699219
0, 1, 73, 304.5400390625
0, 1, 74, 307.200927734375
0, 1, 75, 291.5174255371094
0, 1, 76, 287.0098876953125
0, 1, 77, 290.24853515625
0, 1, 78, 297.056396484375
0, 1, 79, 301.6945495605469
0, 1, 80, 295.9556274414062
0, 1, 81, 299.8072814941406
0, 1, 82, 285.3262329101562
0, 1, 83, 331.3936157226562
0, 1, 84, 307.97265625
0, 1, 85, 252.3664093017578
0, 1, 86, 293.9549865722656
0, 1, 87, 290.1178894042969
0, 1, 88, 297.18359375
0, 1, 89, 291.3225402832031
0, 1, 90, 270.1940612792969
0, 1, 91, 316.7051391601562
0, 1, 92, 290.1598815917969
0, 1, 93, 287.7261657714844
0, 1, 94, 303.5010986328125
0, 1, 95, 284.0070495605469
0, 1, 96, 283.8166809082031
0, 1, 97, 300.1247253417969
0, 1, 98, 278.8483276367188
0, 1, 99, 267.8645324707031
0, 1, 100, 276.3575439453125
0, 1, 101, 283.1200256347656
0, 1, 102, 280.2621154785156
0, 1, 103, 282.2887573242188
0, 1, 104, 308.2548522949219
0, 1, 105, 297.1272888183594
0, 1, 106, 261.5747375488281
0, 1, 107, 194.5780487060547
0, 1, 108, 82.24898529052734
0, 1, 109, 23.36777687072754
0, 1, 110, 11.89167881011963
0, 1, 111, 12.55899429321289
0, 1, 112, 13.43905735015869
0, 1, 113, 6.721715450286865
0, 1, 114, 6.237321376800537
0, 1, 115, 7.398799896240234
0, 1, 116, 10.94254016876221
0, 1, 117, 9.527277946472168
0, 1, 118, 4.280787944793701
0, 1, 119, 4.203555583953857
0, 1, 120, 3.753814458847046
0, 1, 121, 3.674673557281494
0, 1, 122, 1.827319622039795
0, 1, 123, 4.095099449157715
0, 1, 124, 8.161077499389648
0, 1, 125, 3.617982864379883
0, 1, 126, 3.204183340072632
0, 1, 127, 1.704724669456482
0, 2, 0, 4.396904945373535
0, 2, 1, 1.696474075317383
0, 2, 2, 3.526378631591797
0, 2, 3, 6.017270565032959
0, 2, 4, 2.766144752502441
0, 2, 5, 1.269667625427246
0, 2, 6, 3.438854694366455
0, 2, 7, 4.420148372650146
0, 2, 8, 4.562655925750732
0, 2, 9, 6.051873207092285
0, 2, 10, 7.784624576568604
0, 2, 11, 5.936698436737061
0, 2, 12, 7.510812759399414
0, 2, 13, 9.675333023071289
0, 2, 14, 11.92051601409912
0, 2, 15, 8.343786239624023
0, 2, 16, 9.136399269104004
0, 2, 17, 16.96996879577637
0, 2, 18, 28.35810089111328
0, 2, 19, 114.6659622192383
0, 2, 20, 247.3679046630859
0, 2, 21, 270.3301086425781
0, 2, 22, 317.5022888183594
0, 2, 23, 300.5171203613281
0, 2, 24, 286.7923889160156
0, 2, 25, 303.0216674804688
0, 2, 26, 293.2539978027344
0, 2, 27, 275.8395690917969
0, 2, 28, 271.2297058105469
0, 2, 29, 272.8453063964844
0, 2, 30, 289.7193603515625
0, 2, 31, 278.449951171875
0, 2, 32, 294.1242065429688
0, 2, 33, 282.8753051757812
0, 2, 34, 331.5318298339844
0, 2, 35, 289.2611999511719
0, 2, 36, 304.7879028320312
0, 2, 37, 317.1493225097656
0, 2, 38, 312.23095703125
0, 2, 39, 265.1309814453125
0, 2, 40, 309.984375
0, 2, 41, 293.9596862792969
0, 2, 42, 303.3053894042969
0, 2, 43, 312.9999694824219
0, 2, 44, 310.8210144042969
0, 2, 45, 325.3945007324219
0, 2, 46, 288.8761291503906
0, 2, 47, 304.1622924804688
0, 2, 48, 278.9419555664062
0, 2, 49, 280.4914855957031
0, 2, 50, 294.8064270019531
0, 2, 51, 283.7098083496094
0, 2, 52, 273.7044982910156
0, 2, 53, 287.2696228027344
0, 2, 54, 279.8238220214844
0, 2, 55, 274.7852783203125
0, 2, 56, 300.7711791992188
0, 2, 57, 290.5733337402344
0, 2, 58, 300.7200622558594
0, 2, 59, 291.8256530761719
0, 2, 60, 319.1081848144531
0, 2, 61, 300.8739013671875
0, 2, 62, 313.0140075683594
0, 2, 63, 302.6392822265625
0, 2, 64, 295.3415832519531
0, 2, 65, 314.3657836914062
0, 2, 66, 281.2934265136719
0, 2, 67, 291.8100280761719
0, 2, 68, 296.2636108398438
0, 2, 69, 310.9246520996094
0, 2, 70, 334.1116333007812
0, 2, 71, 284.0870056152344
0, 2, 72, 300.8695068359375
0, 2, 73, 311.8272399902344
0, 2, 74, 284.6922912597656
0, 2, 75, 305.2618103027344
0, 2, 76, 285.8147583007812
0, 2, 77, 298.3695983886719
0, 2, 78, 313.2548217773438
0, 2, 79, 308.8995971679688
0, 2, 80, 297.2754211425781
0, 2, 81, 281.691650390625
0, 2, 82, 318.2821960449219
0, 2, 83, 313.9219055175781
0, 2, 84, 288.3549499511719
0, 2, 85, 282.9400024414062
0, 2, 86, 323.8616027832031
0, 2, 87, 286.9080505371094
0, 2, 88, 280.5646667480469
0, 2, 89, 297.8079528808594
0, 2, 90, 297.4193115234375
0, 2, 91, 275.99365234375
0, 2, 92, 305.5845947265625
0, 2, 93, 317.4990234375
0, 2, 94, 291.2102966308594
0, 2, 95, 314.5082092285156
0, 2, 96, 315.6335144042969
0, 2, 97, 289.2495422363281
0, 2, 98, 294.3418579101562
0, 2, 99, 274.8766174316406
0, 2, 100, 305.7810668945312
0, 2, 101, 300.7940673828125
0, 2, 102, 296.8099975585938
0, 2, 103, 291.7528686523438
0, 2, 104, 293.3077087402344
0, 2, 105, 275.1800537109375
0, 2, 106, 296.9845275878906
0, 2, 107, 268.8064575195312
0, 2, 108, 117.5415496826172
0, 2, 109, 32.32253265380859
0, 2, 110, 10.04276752471924
0, 2, 111, 13.01034164428711
0, 2, 112, 10.27584362030029
0, 2, 113, 10.10214042663574
0, 2, 114, 10.16921710968018
0, 2, 115, 9.585558891296387
0, 2, 116, 8.392773628234863
0, 2, 117, 8.020479202270508
0, 2, 118, 4.325710773468018
0, 2, 119, 4.38140869140625
0, 2, 120, 8.22736930847168
0, 2, 121, 1.755801558494568
0, 2, 122, 3.612641096115112
0, 2, 123, 3.187122344970703
0, 2, 124, 1.900418519973755
0, 2, 125, 4.954299449920654
0, 2, 126, 4.165590286254883
0, 2, 127, 4.953368663787842
0, 3, 0, 3.169600248336792
0, 3, 1, 2.831732988357544
0, 3, 2, 3.848735332489014
0, 3, 3, 1.376516342163086
0, 3, 4, 4.494832992553711
0, 3, 5, 6.595008373260498
0, 3, 6, 6.917259693145752
0, 3, 7, 4.922548770904541
0, 3, 8, 5.479161739349365
0, 3, 9, 8.600629806518555
0, 3, 10, 6.627769947052002
0, 3, 11, 7.012799739837646
0, 3, 12, 9.257534027099609
0, 3, 13, 14.69812488555908
0, 3, 14, 9.970926284790039
0, 3, 15, 13.62148189544678
0, 3, 16, 11.71174812316895
0, 3, 17, 19.69620323181152
0, 3, 18, 55.49533081054688
0, 3, 19, 176.6326141357422
0, 3, 20, 268.3701171875
0, 3, 21, 270.77685546875
0, 3, 22, 281.4740600585938
0, 3, 23, 286.6649475097656
0, 3, 24, 286.8390502929688
0, 3, 25, 269.4404907226562
0, 3, 26, 303.7087097167969
0, 3, 27, 292.2711181640625
0, 3, 28, 283.1156005859375
0, 3, 29, 338.1879272460938
0, 3, 30, 316.8711242675781
0, 3, 31, 287.336181640625
0, 3, 32, 308.4607543945312
0, 3, 33, 315.6280822753906
0, 3, 34, 320.4131164550781
0, 3, 35, 307.0087280273438
0, 3, 36, 267.2333374023438
0, 3, 37, 314.6442565917969
0, 3, 38, 305.39501953125
0, 3, 39, 291.6465759277344
0, 3, 40, 265.6306762695312
0, 3, 41, 301.2010192871094
0, 3, 42, 283.9036865234375
0, 3, 43, 309.5368041992188
0, 3, 44, 309.8420715332031
0, 3, 45, 291.2851867675781
0, 3, 46, 329.5309753417969
0, 3, 47, 299.5478515625
0, 3, 48, 302.7635192871094
0, 3, 49, 276.6763305664062
0, 3, 50, 289.1742858886719
0, 3, 51, 275.5111694335938
0, 3, 52, 315.6800231933594
0, 3, 53, 288.4693908691406
0, 3, 54, 284.9987487792969
0, 3, 55, 285.0893859863281
0, 3, 56, 297.4141845703125
0, 3, 57, 289.6770324707031
0, 3, 58, 307.0208435058594
0, 3, 59, 295.6513671875
0, 3, 60, 297.3179626464844
0, 3, 61, 263.7662658691406
0, 3, 62, 283.5173645019531
0, 3, 63, 305.3675231933594
0, 3, 64, 316.9249267578125
0, 3, 65, 307.64208984375
0, 3, 66, 315.6504516601562
0, 3, 67, 319.9824523925781
0, 3, 68, 279.4639282226562
0, 3, 69, 282.2255554199219
0, 3, 70, 287.8912963867188
0, 3, 71, 298.2409362792969
0, 3, 72, 269.3625183105469
0, 3, 73, 308.2987976074219
0, 3, 74, 292.6236572265625
0, 3, 75, 290.0254516601562
0, 3, 76, 304.8818359375
0, 3, 77, 315.26318359375
0, 3, 78, 303.4589233398438
0, 3, 79, 282.3906555175781
0, 3, 80, 290.5340881347656
0, 3, 81, 312.0243835449219
0, 3, 82, 317.1990356445312
0, 3, 83, 301.5989990234375
0, 3, 84, 311.4712524414062
0, 3, 85, 291.4925537109375
0, 3, 86, 302.4517211914062
0, 3, 87, 297.0045166015625
0, 3, 88, 298.4331665039062
0, 3, 89, 298.5651245117188
0, 3, 90, 275.3704223632812
0, 3, 91, 284.0523376464844
0, 3, 92, 303.8468322753906
0, 3, 93, 312.8707275390625
0, 3, 94, 297.7417297363281
0, 3, 95, 334.5964050292969
0, 3, 96, 291.2091064453125
0, 3, 97, 285.2474060058594
0, 3, 98, 279.4726867675781
0, 3, 99, 262.0194091796875
0, 3, 100, 283.9917907714844
0, 3, 101, 295.39794921875
0, 3, 102, 275.3674926757812
0, 3, 103, 321.3576965332031
0, 3, 104, 309.1553344726562
0, 3, 105, 288.9614562988281
0, 3, 106, 301.4448852539062
0, 3, 107, 285.0814819335938
0, 3, 108, 167.5177917480469
0, 3, 109, 55.8892936706543
0, 3, 110, 16.77845001220703
0, 3, 111, 12.28332233428955
0, 3, 112, 13.05947589874268
0, 3, 113, 6.15587043762207
0, 3, 114, 9.311027526855469
0, 3, 115, 9.780072212219238
0, 3, 116, 9.137505531311035
0, 3, 117, 7.561698436737061
0, 3, 118, 8.602089881896973
0, 3, 119, 4.302708148956299
0, 3, 120, 7.791650772094727
0, 3, 121, 1.968400716781616
0, 3, 122, 3.092814683914185
0, 3, 123, 4.765916347503662
0, 3, 124, 8.794127464294434
0, 3, 125, 5.494292736053467
0, 3, 126, 4.911379814147949
0, 3, 127, 2.791566371917725
0, 4, 0, 2.226348638534546
0, 4, 1, 4.618722438812256
0, 4, 2, 2.548277378082275
0, 4, 3, 1.603968858718872
0, 4, 4, 6.242094993591309
0, 4, 5, 7.727700233459473
0, 4, 6, 6.179077625274658
0, 4, 7, 5.499365329742432
0, 4, 8, 4.323387145996094
0, 4, 9, 5.664191722869873
0, 4, 10, 7.782260894775391
0, 4, 11, 7.418644905090332
0, 4, 12, 6.010520458221436
0, 4, 13, 7.710034847259521
0, 4, 14, 11.5373592376709
0, 4, 15, 10.41901111602783
0, 4, 16, 13.97512054443359
0, 4, 17, 18.2391414642334
0, 4, 18, 93.21094512939453
0, 4, 19, 223.3107452392578
0, 4, 20, 284.6863403320312
0, 4, 21, 273.139404296875
0, 4, 22, 304.3359375
0, 4, 23, 268.5347595214844
0, 4, 24, 288.557861328125
0, 4, 25, 272.9728698730469
0, 4, 26, 294.438720703125
0, 4, 27, 283.421142578125
0, 4, 28, 306.2436828613281
0, 4, 29, 323.0621948242188
0, 4, 30, 311.0053100585938
0, 4, 31, 306.3747863769531
0, 4, 32, 279.937744140625
0, 4, 33, 295.4747009277344
0, 4, 34, 296.9483032226562
0, 4, 35, 310.92431640625
0, 4, 36, 295.6764221191406
0, 4, 37, 289.5317077636719
0, 4, 38, 297.078857421875
0, 4, 39, 294.9975891113281
0, 4, 40, 303.1844177246094
0, 4, 41, 310.6136169433594
0, 4, 42, 331.4057006835938
0, 4, 43, 295.2643432617188
0, 4, 44, 320.2944946289062
0, 4, 45, 323.0551147460938
0, 4, 46, 304.998291015625
0, 4, 47, 292.8041076660156
0, 4, 48, 295.8416137695312
0, 4, 49, 276.4509887695312
0, 4, 50, 297.0796508789062
0, 4, 51, 319.3197326660156
0, 4, 52, 327.6965942382812
0, 4, 53, 306.8703002929688
0, 4, 54, 287.9244079589844
0, 4, 55, 314.8952941894531
0, 4, 56, 286.6526794433594
0, 4, 57, 309.6261901855469
0, 4, 58, 295.5617370605469
0, 4, 59, 309.7645568847656
0, 4, 60, 300.8382873535156
0, 4, 61, 316.1165161132812
0, 4, 62, 308.7699279785156
0, 4, 63, 298.7940063476562
0, 4, 64, 331.11767578125
0, 4, 65, 314.0702209472656
0, 4, 66, 293.3590698242188
0, 4, 67, 284.8263854980469
0, 4, 68, 311.7038269042969
0, 4, 69, 277.2483215332031
0, 4, 70, 299.5112915039062
0, 4, 71, 322.1113586425781
0, 4, 72, 333.4959716796875
0, 4, 73, 299.8700256347656
0, 4, 74, 292.6051940917969
0, 4, 75, 287.73486328125
0, 4, 76, 273.9178771972656
0, 4, 77, 279.0410766601562
0, 4, 78, 307.0727844238281
0, 4, 79, 321.5284423828125
0, 4, 80, 316.5703735351562
0, 4, 81, 312.5920715332031
0, 4, 82, 299.3396301269531
0, 4, 83, 301.2931518554688
0, 4, 84, 290.0557556152344
0, 4, 85, 295.854736328125
0, 4, 86, 297.2977294921875
0, 4, 87, 285.2897644042969
0, 4, 88, 304.6336975097656
0, 4, 89, 296.3835144042969
0, 4, 90, 331.8102416992188
0, 4, 91, 302.8620910644531
0, 4, 92, 291.0343627929688
0, 4, 93, 296.2201232910156
0, 4, 94, 291.8420104980469
0, 4, 95, 289.1865844726562
0, 4, 96, 322.18212890625
0, 4, 97, 274.3687438964844
0, 4, 98, 328.7194213867188
0, 4, 99, 315.4345703125
0, 4, 100, 300.6457824707031
0, 4, 101, 259.7577819824219
0, 4, 102, 296.76416015625
0, 4, 103, 318.6898803710938
0, 4, 104, 281.5209350585938
0, 4, 105, 309.8982238769531
0, 4, 106, 287.9491577148438
0, 4, 107, 297.7030639648438
0, 4, 108, 227.8057556152344
0, 4, 109, 79.05128479003906
0, 4, 110, 15.58491325378418
0, 4, 111, 13.84730052947998
0, 4, 112, 7.933237552642822
0, 4, 113, 9.476400375366211
0, 4, 114, 12.21604251861572
0, 4, 115, 11.12507724761963
0, 4, 116, 6.789379119873047
0, 4, 117, 6.761021614074707
0, 4, 118, 9.318855285644531
0, 4, 119, 8.04786205291748
0, 4, 120, 9.578509330749512
0, 4, 121, 5.137399673461914
0, 4, 122, 3.525392055511475
0, 4, 123, 6.147226810455322
0, 4, 124, 5.434170246124268
0, 4, 125, 8.754672050476074
0, 4, 126, 5.616558074951172
0, 4, 127, 5.589951038360596
0, 5, 0, 3.214997529983521
0, 5, 1, 3.036321878433228
0, 5, 2, 5.237016677856445
0, 5, 3, 4.042707443237305
0, 5, 4, 5.667272090911865
0, 5, 5, 5.797144412994385
0, 5, 6, 5.533220767974854
0, 5, 7, 5.473330974578857
0, 5, 8, 4.412897109985352
0, 5, 9, 4.865288734436035
0, 5, 10, 5.379359245300293
0, 5, 11, 8.479751586914062
0, 5, 12, 8.538347244262695
0, 5, 13, 4.302951812744141
0, 5, 14, 13.6678352355957
0, 5, 15, 17.9762077331543
0, 5, 16, 14.07359313964844
0, 5, 17, 29.3885498046875
0, 5, 18, 135.8784484863281
0, 5, 19, 285.4588012695312
0, 5, 20, 307.297607421875
0, 5, 21, 316.0747680664062
0, 5, 22, 275.6033630371094
0, 5, 23, 310.8634948730469
0, 5, 24, 301.6428833007812
0, 5, 25, 289.944091796875
0, 5, 26, 296.984619140625
0, 5, 27, 322.2350769042969
0, 5, 28, 302.6965026855469
0, 5, 29, 297.290771484375
0, 5, 30, 324.0122680664062
0, 5, 31, 286.3143920898438
0, 5, 32, 301.4817504882812
0, 5, 33, 303.6908569335938
0, 5, 34, 295.457763671875
0, 5, 35, 309.5657653808594
0, 5, 36, 269.951416015625
0, 5, 37, 280.3849487304688
0, 5, 38, 292.3643188476562
0, 5, 39, 311.1295166015625
0, 5, 40, 307.0840759277344
0, 5, 41, 274.9005126953125
0, 5, 42, 304.3832397460938
0, 5, 43, 312.6966247558594
0, 5, 44, 292.6658935546875
0, 5, 45, 301.0965270996094
0, 5, 46, 265.6851196289062
0, 5, 47, 279.380615234375
0, 5, 48, 295.4486999511719
0, 5, 49, 286.9765319824219
0, 5, 50, 294.6775817871094
0, 5, 51, 278.8298645019531
0, 5, 52, 269.5027770996094
0, 5, 53, 285.1499328613281
0, 5, 54, 291.6160888671875
0, 5, 55, 345.6115417480469
0, 5, 56, 305.4679260253906
0, 5, 57, 308.3538513183594
0, 5, 58, 313.3608703613281
0, 5, 59, 302.2506408691406
0, 5, 60, 308.4500122070312
0, 5, 61, 281.8440246582031
0, 5, 62, 324.6941223144531
0, 5, 63, 290.0151672363281
0, 5, 64, 321.9435729980469
0, 5, 65, 307.9176635742188
0, 5, 66, 328.68310546875
0, 5, 67, 311.7095642089844
0, 5, 68, 308.3990478515625
0, 5, 69, 311.4148864746094
0, 5, 70, 304.1875915527344
0, 5, 71, 272.3277893066406
0, 5, 72, 310.3688659667969
0, 5, 73, 302.1515808105469
0, 5, 74, 295.6371154785156
0, 5, 75, 292.7394714355469
0, 5, 76, 284.7404174804688
0, 5, 77, 299.6025695800781
0, 5, 78, 314.3876342773438
0, 5, 79, 308.2252807617188
0, 5, 80, 294.5945434570312
0, 5, 81, 325.8323669433594
0, 5, 82, 323.1867065429688
0, 5, 83, 280.7984008789062
0, 5, 84, 303.1256103515625
0, 5, 85, 271.1210632324219
0, 5, 86, 327.050537109375
0, 5, 87, 284.4163818359375
0, 5, 88, 314.47412109375
0, 5, 89, 305.6521606445312
0, 5, 90, 317.6675415039062
0, 5, 91, 313.8162536621094
0, 5, 92, 296.6004028320312
0, 5, 93, 322.9495849609375
0, 5, 94, 306.51953125
0, 5, 95, 298.0740356445312
0, 5, 96, 297.0777282714844
0, 5, 97, 294.6527099609375
0, 5, 98, 318.8456420898438
0, 5, 99, 302.4729309082031
0, 5, 100, 290.7448120117188
0, 5, 101, 306.6405029296875
0, 5, 102, 293.8507995605469
0, 5, 103, 314.2093505859375
0, 5, 104, 303.2189025878906
0, 5, 105, 290.8537292480469
0, 5, 106, 281.6081848144531
0, 5, 107, 291.4330749511719
0, 5, 108, 267.6868591308594
0, 5, 109, 157.2292175292969
0, 5, 110, 39.16227340698242
0, 5, 111, 22.6693058013916
0, 5, 112, 16.98324775695801
0, 5, 113, 15.48133182525635
0, 5, 114, 12.33614349365234
0, 5, 115, 6.104509353637695
0, 5, 116, 6.368954658508301
0, 5, 117, 6.345916748046875
0, 5, 118, 11.93746948242188
0, 5, 119, 4.689064979553223
0, 5, 120, 6.36442756652832
0, 5, 121, 4.410343170166016
0, 5, 122, 6.545125007629395
0, 5, 123, 6.124309539794922
0, 5, 124, 4.56735372543335
0, 5, 125, 3.565894603729248
0, 5, 126, 9.775592803955078
0, 5, 127, 3.157438039779663
0, 6, 0, 6.399871826171875
0, 6, 1, 2.889764308929443
0, 6, 2, 5.465855598449707
0, 6, 3, 5.86834716796875
0, 6, 4, 2.909770727157593
0, 6, 5, 6.242192268371582
0, 6, 6, 8.689900398254395
0, 6, 7, 5.465453624725342
0, 6, 8, 7.225094795227051
0, 6, 9, 5.547672271728516
0, 6, 10, 9.89864444732666
0, 6, 11, 8.124829292297363
0, 6, 12, 8.564435958862305
0, 6, 13, 14.87820243835449
0, 6, 14, 9.057787895202637
0, 6, 15, 16.29506683349609
0, 6, 16, 28.02623748779297
0, 6, 17, 55.47330856323242
0, 6, 18, 175.796875
0, 6, 19, 277.5464477539062
0, 6, 20, 290.9235229492188
0, 6, 21, 313.4291381835938
0, 6, 22, 319.5005798339844
0, 6, 23, 305.8493957519531
0, 6, 24, 315.3053283691406
0, 6, 25, 316.3445739746094
0, 6, 26, 321.3575744628906
0, 6, 27, 330.8120422363281
0, 6, 28, 295.1256103515625
0, 6, 29, 331.4845581054688
0, 6, 30, 281.2152709960938
0, 6, 31, 286.0875549316406
0, 6, 32, 339.9112243652344
0, 6, 33, 300.4551391601562
0, 6, 34, 340.8652038574219
0, 6, 35, 320.2321472167969
0, 6, 36, 273.1746826171875
0, 6, 37, 290.0900573730469
0, 6, 38, 312.9017028808594
0, 6, 39, 300.1340026855469
0, 6, 40, 284.3437805175781
0, 6, 41, 294.5745544433594
0, 6, 42, 304.0919494628906
0, 6, 43, 288.1961669921875
0, 6, 44, 280.6709899902344
0, 6, 45, 318.4904174804688
0, 6, 46, 300.7442626953125
0, 6, 47, 334.3617553710938
0, 6, 48, 292.1969604492188
0, 6, 49, 312.1504821777344
0, 6, 50, 328.0477294921875
0, 6, 51, 310.5065612792969
0, 6, 52, 320.9295959472656
0, 6, 53, 328.259765625
0, 6, 54, 302.5831298828125
0, 6, 55, 306.7315673828125
0, 6, 56, 294.1733703613281
0, 6, 57, 313.1087036132812
0, 6, 58, 263.3354797363281
0, 6, 59, 300.1092529296875
0, 6, 60, 313.1219482421875
0, 6, 61, 270.8663635253906
0, 6, 62, 337.5719909667969
0, 6, 63, 323.4591064453125
0, 6, 64, 292.3193054199219
0, 6, 65, 282.8693237304688
0, 6, 66, 302.5543518066406
0, 6, 67, 310.3114624023438
0, 6, 68, 292.9167785644531
0, 6, 69, 279.0533447265625
0, 6, 70, 274.1802368164062
0, 6, 71, 290.2138366699219
0, 6, 72, 310.1220703125
0, 6, 73, 292.4127502441406
0, 6, 74, 332.0188903808594
0, 6, 75, 342.9540100097656
0, 6, 76, 296.6584777832031
0, 6, 77, 285.9065856933594
0, 6, 78, 278.568603515625
0, 6, 79, 292.0932312011719
0, 6, 80, 298.8289184570312
0, 6, 81, 314.791259765625
0, 6, 82, 320.3502197265625
0, 6, 83, 319.8401489257812
0, 6, 84, 296.8179626464844
0, 6, 85, 300.9983215332031
0, 6, 86, 330.1673583984375
0, 6, 87, 291.668212890625
0, 6, 88, 306.0100402832031
0, 6, 89, 303.8634338378906
0, 6, 90, 300.1486511230469
0, 6, 91, 311.0674438476562
0, 6, 92, 287.0212707519531
0, 6, 93, 297.6978759765625
0, 6, 94, 271.5485229492188
0, 6, 95, 299.9762878417969
0, 6, 96, 349.34423828125
0, 6, 97, 309.7791137695312
0, 6, 98, 300.0882568359375
0, 6, 99, 272.5528869628906
0, 6, 100, 310.281005859375
0, 6, 101, 294.3310241699219
0, 6, 102, 307.2289428710938
0, 6, 103, 308.1365356445312
0, 6, 104, 292.8164672851562
0, 6, 105, 302.1652221679688
0, 6, 106, 307.3570556640625
0, 6, 107, 307.0565490722656
0, 6, 108, 265.0157775878906
0, 6, 109, 186.5989685058594
0, 6, 110, 56.03242874145508
0, 6, 111, 20.70062255859375
0, 6, 112, 12.06912422180176
0, 6, 113, 11.12540435791016
0, 6, 114, 12.26611709594727
0, 6, 115, 13.66349983215332
0, 6, 116, 11.49224948883057
0, 6, 117, 5.524278163909912
0, 6, 118, 8.739101409912109
0, 6, 119, 6.91281270980835
0, 6, 120, 7.757286071777344
0, 6, 121, 5.8288254737854
0, 6, 122, 7.296822547912598
0, 6, 123, 6.429994583129883
0, 6, 124, 7.123446464538574
0, 6, 125, 7.939830303192139
0, 6, 126, 4.510881900787354
0, 6, 127, 10.61667919158936
0, 7, 0, 5.863821506500244
0, 7, 1, 4.707221984863281
0, 7, 2, 6.917963981628418
0, 7, 3, 4.098611354827881
0, 7, 4, 4.166077136993408
0, 7, 5, 4.586827278137207
0, 7, 6, 4.996071815490723
0, 7, 7, 5.778402805328369
0, 7, 8, 7.649410724639893
0, 7, 9, 7.5702805519104
0, 7, 10, 9.152133941650391
0, 7, 11, 9.376136779785156
0, 7, 12, 10.77451992034912
0, 7, 13, 10.11818313598633
0, 7, 14, 11.97029304504395
0, 7, 15, 17.47286224365234
0, 7, 16, 26.59984588623047
0, 7, 17, 98.37490081787109
0, 7, 18, 218.7223968505859
0, 7, 19, 289.7172241210938
0, 7, 20, 298.5144653320312
0, 7, 21, 277.3544616699219
0, 7, 22, 298.2021179199219
0, 7, 23, 289.9318542480469
0, 7, 24, 314.4906311035156
0, 7, 25, 324.9139099121094
0, 7, 26, 278.1879577636719
0, 7, 27, 298.8514099121094
0, 7, 28, 326.6865844726562
0, 7, 29, 318.4367065429688
0, 7, 30, 299.03759765625
0, 7, 31, 277.3023986816406
0, 7, 32, 304.1782531738281
0, 7, 33, 262.2115478515625
0, 7, 34, 297.931396484375
0, 7, 35, 320.5113830566406
0, 7, 36, 332.7929077148438
0, 7, 37, 324.0277404785156
0, 7, 38, 295.5075988769531
0, 7, 39, 306.6913757324219
0, 7, 40, 289.2114868164062
0, 7, 41, 271.6952514648438
0, 7, 42, 300.9971008300781
0, 7, 43, 277.570556640625
0, 7, 44, 303.5653991699219
0, 7, 45, 296.7537841796875
0, 7, 46, 283.8233032226562
0, 7, 47, 328.9405517578125
0, 7, 48, 285.3915100097656
0, 7, 49, 301.7056579589844
0, 7, 50, 320.9656066894531
0, 7, 51, 299.2367248535156
0, 7, 52, 327.3547058105469
0, 7, 53, 308.7195129394531
0, 7, 54, 323.2715454101562
0, 7, 55, 308.3088684082031
0, 7, 56, 280.3462829589844
0, 7, 57, 281.4010009765625
0, 7, 58, 298.3760986328125
0, 7, 59, 293.7983703613281
0, 7, 60, 322.55810546875
0, 7, 61, 277.0660400390625
0, 7, 62, 299.6014404296875
0, 7, 63, 293.1876831054688
0, 7, 64, 308.2745971679688
0, 7, 65, 333.6167907714844
0, 7, 66, 319.3548889160156
0, 7, 67, 304.3530883789062
0, 7, 68, 279.0601806640625
0, 7, 69, 295.2226867675781
0, 7, 70, 301.0431823730469
0, 7, 71, 311.2438049316406
0, 7, 72, 285.0782470703125
0, 7, 73, 296.0388793945312
0, 7, 74, 345.9241638183594
0, 7, 75, 317.7199401855469
0, 7, 76, 324.0996398925781
0, 7, 77, 278.8304748535156
0, 7, 78, 303.170654296875
0, 7, 79, 298.40283203125
0, 7, 80, 310.3385314941406
0, 7, 81, 321.9664001464844
0, 7, 82, 328.5806274414062
0, 7, 83, 317.7520751953125
0, 7, 84, 309.329833984375
0, 7, 85, 273.4773864746094
0, 7, 86, 311.9638671875
0, 7, 87, 309.0003662109375
0, 7, 88, 305.8699035644531
0, 7, 89, 294.6653442382812
0, 7, 90, 306.8008117675781
0, 7, 91, 314.0635070800781
0, 7, 92, 287.0767517089844
0, 7, 93, 306.01416015625
0, 7, 94, 275.6870727539062
0, 7, 95, 296.8923645019531
0, 7, 96, 330.9109191894531
0, 7, 97, 295.3964233398438
0, 7, 98, 290.6045227050781
0, 7, 99, 311.1512145996094
0, 7, 100, 282.7256774902344
0, 7, 101, 273.9093627929688
0, 7, 102, 289.5462646484375
0, 7, 103, 291.4685668945312
0, 7, 104, 275.5366516113281
0, 7, 105, 305.6461791992188
0, 7, 106, 319.8376159667969
0, 7, 107, 296.3751525878906
0, 7, 108, 273.9432067871094
0, 7, 109, 242.3568420410156
0, 7, 110, 96.83993530273438
0, 7, 111, 23.71278190612793
0, 7, 112, 15.31911849975586
0, 7, 113, 14.21213531494141
0, 7, 114, 15.76775932312012
0, 7, 115, 13.35123348236084
0, 7, 116, 10.20659351348877
0, 7, 117, 8.908093452453613
0, 7, 118, 7.169936656951904
0, 7, 119, 8.298091888427734
0, 7, 120, 5.161614894866943
0, 7, 121, 9.003018379211426
0, 7, 122, 5.57778263092041
0, 7, 123, 4.949616432189941
0, 7, 124, 4.670228481292725
0, 7, 125, 7.323610305786133
0, 7, 126, 11.40067100524902
0, 7, 127, 4.555430889129639
0, 8, 0, 5.098981380462646
0, 8, 1, 5.023029327392578
0, 8, 2, 2.654323816299438
0, 8, 3, 2.708472728729248
0, 8, 4, 4.05131721496582
0, 8, 5, 5.568345069885254
0, 8, 6, 7.319116592407227
0, 8, 7, 5.947900295257568
0, 8, 8, 11.2167444229126
0, 8, 9, 5.574760437011719
0, 8, 10, 6.270787239074707
0, 8, 11, 13.35934829711914
0, 8, 12, 13.91948318481445
0, 8, 13, 17.76899147033691
0, 8, 14, 14.28939437866211
0, 8, 15, 18.31402587890625
0, 8, 16, 32.13983917236328
0, 8, 17, 131.7034149169922
0, 8, 18, 241.5879669189453
0, 8, 19, 296.14697265625
0, 8, 20, 285.7666931152344
0, 8, 21, 306.6832885742188
0, 8, 22, 294.2915344238281
0, 8, 23, 275.3242492675781
0, 8, 24, 268.9480895996094
0, 8, 25, 275.6928405761719
0, 8, 26, 305.6331176757812
0, 8, 27, 307.6302795410156
0, 8, 28, 304.4230041503906
0, 8, 29, 319.1884460449219
0, 8, 30, 314.1773071289062
0, 8, 31, 303.0933227539062
0, 8, 32, 281.0087890625
0, 8, 33, 295.7884216308594
0, 8, 34, 288.496337890625
0, 8, 35, 282.5200805664062
0, 8, 36, 316.6199035644531
0, 8, 37, 338.96435546875
0, 8, 38, 332.9249267578125
0, 8, 39, 279.3971557617188
