# TOPAS Version: 3.1.p3
# Parameter File: batch_inserts_4.txt
# Results for scorer Readout_Adipose
# Scored in component: MyBox
# X in 1 bin  of 0.75 cm
# Y in 512 bins of 0.0783984 cm
# Z in 128 bins of 0.078125 cm
# EnergyDeposit ( MeV ) : Sum   
0, 0, 0, 5.461282730102539
0, 0, 1, 2.296498537063599
0, 0, 2, 4.08228063583374
0, 0, 3, 1.241053819656372
0, 0, 4, 3.009910106658936
0, 0, 5, 3.714480876922607
0, 0, 6, 6.162979125976562
0, 0, 7, 8.657683372497559
0, 0, 8, 3.432557344436646
0, 0, 9, 3.887761831283569
0, 0, 10, 7.030181407928467
0, 0, 11, 6.571485996246338
0, 0, 12, 5.218683242797852
0, 0, 13, 6.46356725692749
0, 0, 14, 8.86034107208252
0, 0, 15, 10.59211540222168
0, 0, 16, 9.413370132446289
0, 0, 17, 9.045493125915527
0, 0, 18, 13.47772312164307
0, 0, 19, 43.5336799621582
0, 0, 20, 142.4291839599609
0, 0, 21, 222.1465911865234
0, 0, 22, 250.3883819580078
0, 0, 23, 255.6844482421875
0, 0, 24, 251.1468963623047
0, 0, 25, 257.8513488769531
0, 0, 26, 233.9446411132812
0, 0, 27, 236.8735656738281
0, 0, 28, 271.3969116210938
0, 0, 29, 251.900146484375
0, 0, 30, 229.5698089599609
0, 0, 31, 243.5945587158203
0, 0, 32, 263.7959289550781
0, 0, 33, 262.2081298828125
0, 0, 34, 288.1812438964844
0, 0, 35, 266.486328125
0, 0, 36, 245.6778411865234
0, 0, 37, 253.7063751220703
0, 0, 38, 271.5166931152344
0, 0, 39, 230.4334716796875
0, 0, 40, 241.3266143798828
0, 0, 41, 265.4927673339844
0, 0, 42, 229.2760925292969
0, 0, 43, 260.09228515625
0, 0, 44, 251.45849609375
0, 0, 45, 253.4336090087891
0, 0, 46, 244.0888977050781
0, 0, 47, 254.0086669921875
0, 0, 48, 269.6659851074219
0, 0, 49, 273.8592224121094
0, 0, 50, 252.2680206298828
0, 0, 51, 253.2615203857422
0, 0, 52, 274.1920166015625
0, 0, 53, 290.9715270996094
0, 0, 54, 243.5557403564453
0, 0, 55, 239.2196197509766
0, 0, 56, 276.7056274414062
0, 0, 57, 261.62548828125
0, 0, 58, 245.7644500732422
0, 0, 59, 274.6262817382812
0, 0, 60, 236.2734832763672
0, 0, 61, 244.7383270263672
0, 0, 62, 258.13818359375
0, 0, 63, 267.1782836914062
0, 0, 64, 255.4544982910156
0, 0, 65, 260.6657409667969
0, 0, 66, 275.84033203125
0, 0, 67, 245.2726135253906
0, 0, 68, 260.5522766113281
0, 0, 69, 261.418212890625
0, 0, 70, 271.218505859375
0, 0, 71, 237.1005706787109
0, 0, 72, 251.8711395263672
0, 0, 73, 258.5255432128906
0, 0, 74, 252.9250640869141
0, 0, 75, 240.2641296386719
0, 0, 76, 228.5503997802734
0, 0, 77, 262.2248840332031
0, 0, 78, 255.8553924560547
0, 0, 79, 277.0878295898438
0, 0, 80, 215.6616516113281
0, 0, 81, 268.8268737792969
0, 0, 82, 258.2938842773438
0, 0, 83, 246.4555206298828
0, 0, 84, 268.4019775390625
0, 0, 85, 231.0656890869141
0, 0, 86, 253.0081939697266
0, 0, 87, 249.7780456542969
0, 0, 88, 260.2262573242188
0, 0, 89, 284.2648620605469
0, 0, 90, 243.7009887695312
0, 0, 91, 279.7418212890625
0, 0, 92, 253.1805114746094
0, 0, 93, 249.3559112548828
0, 0, 94, 248.8256683349609
0, 0, 95, 248.5020904541016
0, 0, 96, 275.4102172851562
0, 0, 97, 273.8861389160156
0, 0, 98, 273.3385009765625
0, 0, 99, 258.6646728515625
0, 0, 100, 258.7083129882812
0, 0, 101, 226.1246948242188
0, 0, 102, 232.6141357421875
0, 0, 103, 269.5694885253906
0, 0, 104, 253.6591339111328
0, 0, 105, 251.1291351318359
0, 0, 106, 246.4880523681641
0, 0, 107, 152.1022644042969
0, 0, 108, 39.74293899536133
0, 0, 109, 12.93696880340576
0, 0, 110, 12.97479152679443
0, 0, 111, 10.13907909393311
0, 0, 112, 6.559670448303223
0, 0, 113, 5.18400764465332
0, 0, 114, 5.920166015625
0, 0, 115, 7.943056583404541
0, 0, 116, 5.653027057647705
0, 0, 117, 5.484190940856934
0, 0, 118, 5.372097969055176
0, 0, 119, 4.607730388641357
0, 0, 120, 3.744471311569214
0, 0, 121, 5.089345932006836
0, 0, 122, 5.250742435455322
0, 0, 123, 2.898283720016479
0, 0, 124, 3.976647138595581
0, 0, 125, 1.522268533706665
0, 0, 126, 4.447307586669922
0, 0, 127, 2.622743844985962
0, 1, 0, 6.740074157714844
0, 1, 1, 2.006509304046631
0, 1, 2, 4.730799198150635
0, 1, 3, 2.614059448242188
0, 1, 4, 2.894478321075439
0, 1, 5, 3.157964706420898
0, 1, 6, 5.123590469360352
0, 1, 7, 4.165734767913818
0, 1, 8, 7.109520435333252
0, 1, 9, 4.107627868652344
0, 1, 10, 7.505005836486816
0, 1, 11, 11.36705017089844
0, 1, 12, 10.47260189056396
0, 1, 13, 8.137168884277344
0, 1, 14, 7.395108222961426
0, 1, 15, 6.241436004638672
0, 1, 16, 11.6129322052002
0, 1, 17, 12.02898216247559
0, 1, 18, 22.11523628234863
0, 1, 19, 66.18110656738281
0, 1, 20, 200.5272979736328
0, 1, 21, 254.3892211914062
0, 1, 22, 296.9979553222656
0, 1, 23, 283.0161743164062
0, 1, 24, 275.1774597167969
0, 1, 25, 292.6300659179688
0, 1, 26, 266.5317993164062
0, 1, 27, 308.3095397949219
0, 1, 28, 298.2218017578125
0, 1, 29, 295.7897644042969
0, 1, 30, 279.9411926269531
0, 1, 31, 290.8831481933594
0, 1, 32, 290.0957641601562
0, 1, 33, 299.0804748535156
0, 1, 34, 292.6185302734375
0, 1, 35, 281.5415954589844
0, 1, 36, 307.6401062011719
0, 1, 37, 294.7591552734375
0, 1, 38, 279.7286682128906
0, 1, 39, 296.3232116699219
0, 1, 40, 265.8873291015625
0, 1, 41, 285.068359375
0, 1, 42, 291.0469665527344
0, 1, 43, 332.9088439941406
0, 1, 44, 279.0702514648438
0, 1, 45, 295.7772216796875
0, 1, 46, 260.5203552246094
0, 1, 47, 310.855224609375
0, 1, 48, 284.479248046875
0, 1, 49, 301.8802185058594
0, 1, 50, 263.0049133300781
0, 1, 51, 273.9500427246094
0, 1, 52, 296.5220336914062
0, 1, 53, 304.8514404296875
0, 1, 54, 273.9783325195312
0, 1, 55, 293.0140991210938
0, 1, 56, 277.8628540039062
0, 1, 57, 297.1346740722656
0, 1, 58, 310.9913635253906
0, 1, 59, 290.7374877929688
0, 1, 60, 297.9320983886719
0, 1, 61, 275.6387939453125
0, 1, 62, 309.6932983398438
0, 1, 63, 284.8833923339844
0, 1, 64, 289.6492004394531
0, 1, 65, 294.3758239746094
0, 1, 66, 292.3355407714844
0, 1, 67, 292.9399719238281
0, 1, 68, 277.2057800292969
0, 1, 69, 279.8977355957031
0, 1, 70, 269.6527404785156
0, 1, 71, 274.0504455566406
0, 1, 72, 285.6629638671875
0, 1, 73, 302.9138793945312
0, 1, 74, 301.9716491699219
0, 1, 75, 294.2926330566406
0, 1, 76, 284.8013000488281
0, 1, 77, 288.9509582519531
0, 1, 78, 295.0728149414062
0, 1, 79, 300.2478637695312
0, 1, 80, 297.5797119140625
0, 1, 81, 299.29736328125
0, 1, 82, 288.5294189453125
0, 1, 83, 330.7185363769531
0, 1, 84, 309.0185852050781
0, 1, 85, 252.2447967529297
0, 1, 86, 294.7104797363281
0, 1, 87, 290.1190795898438
0, 1, 88, 299.4144592285156
0, 1, 89, 292.3414001464844
0, 1, 90, 271.1362609863281
0, 1, 91, 316.7299499511719
0, 1, 92, 291.4659118652344
0, 1, 93, 287.0656433105469
0, 1, 94, 303.480712890625
0, 1, 95, 284.0193786621094
0, 1, 96, 282.0907287597656
0, 1, 97, 301.7540893554688
0, 1, 98, 277.4456481933594
0, 1, 99, 268.2752075195312
0, 1, 100, 276.8198852539062
0, 1, 101, 281.5977478027344
0, 1, 102, 279.7136535644531
0, 1, 103, 280.1136169433594
0, 1, 104, 305.7246398925781
0, 1, 105, 300.4642333984375
0, 1, 106, 262.8646850585938
0, 1, 107, 191.9305267333984
0, 1, 108, 83.16747283935547
0, 1, 109, 23.18181037902832
0, 1, 110, 11.28314781188965
0, 1, 111, 9.882771492004395
0, 1, 112, 11.92438125610352
0, 1, 113, 4.903472423553467
0, 1, 114, 7.55236291885376
0, 1, 115, 6.409538269042969
0, 1, 116, 11.44884014129639
0, 1, 117, 6.137808322906494
0, 1, 118, 5.537862300872803
0, 1, 119, 7.341412544250488
0, 1, 120, 5.2753005027771
0, 1, 121, 6.364022254943848
0, 1, 122, 2.368321418762207
0, 1, 123, 5.082735061645508
0, 1, 124, 10.51835632324219
0, 1, 125, 4.862473964691162
0, 1, 126, 1.120496869087219
0, 1, 127, 2.767888784408569
0, 2, 0, 3.120666980743408
0, 2, 1, 2.145900726318359
0, 2, 2, 3.052200794219971
0, 2, 3, 3.336016893386841
0, 2, 4, 4.784451007843018
0, 2, 5, 1.299938321113586
0, 2, 6, 2.380814075469971
0, 2, 7, 3.915591478347778
0, 2, 8, 6.995536327362061
0, 2, 9, 7.312702655792236
0, 2, 10, 6.731348514556885
0, 2, 11, 7.545366764068604
0, 2, 12, 6.178779125213623
0, 2, 13, 12.42418956756592
0, 2, 14, 9.299521446228027
0, 2, 15, 7.844959259033203
0, 2, 16, 8.448844909667969
0, 2, 17, 16.33403396606445
0, 2, 18, 33.13418197631836
0, 2, 19, 117.2454528808594
0, 2, 20, 244.5336151123047
0, 2, 21, 272.164794921875
0, 2, 22, 315.8724060058594
0, 2, 23, 301.4967956542969
0, 2, 24, 286.1629333496094
0, 2, 25, 302.5165405273438
0, 2, 26, 294.5015869140625
0, 2, 27, 278.9594116210938
0, 2, 28, 273.7281188964844
0, 2, 29, 273.4023742675781
0, 2, 30, 288.5528869628906
0, 2, 31, 278.2166748046875
0, 2, 32, 292.9843139648438
0, 2, 33, 281.3295593261719
0, 2, 34, 332.7268676757812
0, 2, 35, 289.6324768066406
0, 2, 36, 303.7258605957031
0, 2, 37, 317.8984375
0, 2, 38, 311.92724609375
0, 2, 39, 265.8118896484375
0, 2, 40, 309.301513671875
0, 2, 41, 291.7652587890625
0, 2, 42, 304.4536743164062
0, 2, 43, 312.4089965820312
0, 2, 44, 311.2931213378906
0, 2, 45, 324.9787902832031
0, 2, 46, 286.6438598632812
0, 2, 47, 302.654541015625
0, 2, 48, 280.0286865234375
0, 2, 49, 277.1985168457031
0, 2, 50, 294.2961730957031
0, 2, 51, 285.0469055175781
0, 2, 52, 271.1510620117188
0, 2, 53, 286.9004821777344
0, 2, 54, 280.1765747070312
0, 2, 55, 276.2527770996094
0, 2, 56, 302.4075317382812
0, 2, 57, 292.0785827636719
0, 2, 58, 303.7377319335938
0, 2, 59, 289.2598571777344
0, 2, 60, 317.5490417480469
0, 2, 61, 301.201171875
0, 2, 62, 312.0048828125
0, 2, 63, 303.8443603515625
0, 2, 64, 296.7841796875
0, 2, 65, 313.4850463867188
0, 2, 66, 279.4888916015625
0, 2, 67, 291.0897521972656
0, 2, 68, 295.8844604492188
0, 2, 69, 309.8074951171875
0, 2, 70, 336.0977478027344
0, 2, 71, 283.9496765136719
0, 2, 72, 300.7232971191406
0, 2, 73, 310.6539916992188
0, 2, 74, 289.4590454101562
0, 2, 75, 304.8378601074219
0, 2, 76, 286.3225708007812
0, 2, 77, 301.0881042480469
0, 2, 78, 315.9936218261719
0, 2, 79, 308.6800842285156
0, 2, 80, 294.7781982421875
0, 2, 81, 283.14404296875
0, 2, 82, 319.5080261230469
0, 2, 83, 312.5773315429688
0, 2, 84, 288.1076049804688
0, 2, 85, 281.0513916015625
0, 2, 86, 325.319091796875
0, 2, 87, 286.3266296386719
0, 2, 88, 278.9229431152344
0, 2, 89, 296.6084899902344
0, 2, 90, 295.5021667480469
0, 2, 91, 277.9526672363281
0, 2, 92, 306.4210815429688
0, 2, 93, 316.6637573242188
0, 2, 94, 293.2455444335938
0, 2, 95, 316.4124450683594
0, 2, 96, 314.347900390625
0, 2, 97, 291.99365234375
0, 2, 98, 293.240234375
0, 2, 99, 274.6425170898438
0, 2, 100, 308.7705383300781
0, 2, 101, 301.6609802246094
0, 2, 102, 296.79443359375
0, 2, 103, 292.0819091796875
0, 2, 104, 294.6948547363281
0, 2, 105, 273.2700805664062
0, 2, 106, 297.0410766601562
0, 2, 107, 270.8562927246094
0, 2, 108, 116.6578063964844
0, 2, 109, 33.47802352905273
0, 2, 110, 9.905933380126953
0, 2, 111, 10.57444190979004
0, 2, 112, 9.878463745117188
0, 2, 113, 11.54756450653076
0, 2, 114, 11.5569896697998
0, 2, 115, 8.628900527954102
0, 2, 116, 11.60771179199219
0, 2, 117, 6.419641494750977
0, 2, 118, 3.37883472442627
0, 2, 119, 6.646725654602051
0, 2, 120, 6.065489768981934
0, 2, 121, 2.671332597732544
0, 2, 122, 5.139258861541748
0, 2, 123, 5.056722164154053
0, 2, 124, 4.679483413696289
0, 2, 125, 7.815268516540527
0, 2, 126, 3.237799882888794
0, 2, 127, 3.808207273483276
0, 3, 0, 2.5013427734375
0, 3, 1, 3.383261203765869
0, 3, 2, 4.485221385955811
0, 3, 3, 1.139744400978088
0, 3, 4, 2.926161766052246
0, 3, 5, 8.260088920593262
0, 3, 6, 6.072403430938721
0, 3, 7, 4.557152271270752
0, 3, 8, 5.59664249420166
0, 3, 9, 6.09940242767334
0, 3, 10, 7.082180023193359
0, 3, 11, 3.879871129989624
0, 3, 12, 8.404816627502441
0, 3, 13, 15.34393310546875
0, 3, 14, 12.8382625579834
0, 3, 15, 14.49303817749023
0, 3, 16, 11.64724540710449
0, 3, 17, 19.56449890136719
0, 3, 18, 51.61370849609375
0, 3, 19, 174.0124206542969
0, 3, 20, 269.3325500488281
0, 3, 21, 269.5992431640625
0, 3, 22, 282.0083312988281
0, 3, 23, 286.59521484375
0, 3, 24, 286.1699523925781
0, 3, 25, 270.2160034179688
0, 3, 26, 303.1144104003906
0, 3, 27, 293.8988342285156
0, 3, 28, 279.7405700683594
0, 3, 29, 339.9222412109375
0, 3, 30, 317.8255004882812
0, 3, 31, 291.0777893066406
0, 3, 32, 306.9705810546875
0, 3, 33, 313.3567810058594
0, 3, 34, 320.697998046875
0, 3, 35, 308.7354736328125
0, 3, 36, 269.7677001953125
0, 3, 37, 310.9242248535156
0, 3, 38, 304.2140197753906
0, 3, 39, 288.8465881347656
0, 3, 40, 266.3445739746094
0, 3, 41, 298.7063293457031
0, 3, 42, 285.3553771972656
0, 3, 43, 306.3875122070312
0, 3, 44, 309.4107971191406
0, 3, 45, 290.4098205566406
0, 3, 46, 333.0014953613281
0, 3, 47, 301.1728820800781
0, 3, 48, 305.0478210449219
0, 3, 49, 279.4778747558594
0, 3, 50, 289.5487670898438
0, 3, 51, 274.8781433105469
0, 3, 52, 315.0418395996094
0, 3, 53, 289.9330444335938
0, 3, 54, 285.4713134765625
0, 3, 55, 283.4624633789062
0, 3, 56, 298.7717895507812
0, 3, 57, 291.7345581054688
0, 3, 58, 305.8522644042969
0, 3, 59, 295.615234375
0, 3, 60, 299.1370849609375
0, 3, 61, 264.8086547851562
0, 3, 62, 285.427734375
0, 3, 63, 307.6710815429688
0, 3, 64, 315.0358276367188
0, 3, 65, 306.9931030273438
0, 3, 66, 314.2438049316406
0, 3, 67, 320.3905944824219
0, 3, 68, 280.1763000488281
0, 3, 69, 279.0237731933594
0, 3, 70, 288.9552917480469
0, 3, 71, 298.5929870605469
0, 3, 72, 270.2389526367188
0, 3, 73, 305.8226318359375
0, 3, 74, 291.54345703125
0, 3, 75, 288.7384948730469
0, 3, 76, 306.0445861816406
0, 3, 77, 315.2904052734375
0, 3, 78, 304.7878112792969
0, 3, 79, 280.94970703125
0, 3, 80, 291.9766235351562
0, 3, 81, 312.0165100097656
0, 3, 82, 315.6373596191406
0, 3, 83, 300.38671875
0, 3, 84, 313.7054138183594
0, 3, 85, 293.6784057617188
0, 3, 86, 302.4643249511719
0, 3, 87, 296.943359375
0, 3, 88, 299.1454772949219
0, 3, 89, 296.6380615234375
0, 3, 90, 275.9070129394531
0, 3, 91, 284.6553039550781
0, 3, 92, 303.8585205078125
0, 3, 93, 312.5203247070312
0, 3, 94, 297.4375915527344
0, 3, 95, 335.3573303222656
0, 3, 96, 292.2080383300781
0, 3, 97, 282.8100891113281
0, 3, 98, 277.5882263183594
0, 3, 99, 261.0056762695312
0, 3, 100, 283.9992980957031
0, 3, 101, 297.6853332519531
0, 3, 102, 275.4686279296875
0, 3, 103, 321.8538513183594
0, 3, 104, 308.96533203125
0, 3, 105, 287.3542785644531
0, 3, 106, 302.576171875
0, 3, 107, 280.5157165527344
0, 3, 108, 169.7314147949219
0, 3, 109, 57.21497344970703
0, 3, 110, 18.09344482421875
0, 3, 111, 12.1761589050293
0, 3, 112, 12.27434253692627
0, 3, 113, 7.045444965362549
0, 3, 114, 10.6682071685791
0, 3, 115, 8.563543319702148
0, 3, 116, 8.273639678955078
0, 3, 117, 8.428149223327637
0, 3, 118, 5.697762966156006
0, 3, 119, 7.152828693389893
0, 3, 120, 3.822735071182251
0, 3, 121, 3.280741214752197
0, 3, 122, 4.452908992767334
0, 3, 123, 6.523454666137695
0, 3, 124, 3.438456773757935
0, 3, 125, 5.72132682800293
0, 3, 126, 6.032402992248535
0, 3, 127, 3.585269451141357
0, 4, 0, 2.186906337738037
0, 4, 1, 5.108719825744629
0, 4, 2, 3.617488384246826
0, 4, 3, 4.538129329681396
0, 4, 4, 5.131819725036621
0, 4, 5, 8.072940826416016
0, 4, 6, 6.690536022186279
0, 4, 7, 4.090837955474854
0, 4, 8, 3.791272878646851
0, 4, 9, 8.27912712097168
0, 4, 10, 7.84504222869873
0, 4, 11, 7.300485134124756
0, 4, 12, 5.293595790863037
0, 4, 13, 9.170292854309082
0, 4, 14, 11.32718753814697
0, 4, 15, 10.09370517730713
0, 4, 16, 14.23419284820557
0, 4, 17, 19.15541458129883
0, 4, 18, 94.80901336669922
0, 4, 19, 222.1839599609375
0, 4, 20, 284.7002563476562
0, 4, 21, 272.3183288574219
0, 4, 22, 305.021240234375
0, 4, 23, 268.8428039550781
0, 4, 24, 288.3285827636719
0, 4, 25, 271.6466674804688
0, 4, 26, 295.4908142089844
0, 4, 27, 282.8330993652344
0, 4, 28, 307.5861206054688
0, 4, 29, 322.3266906738281
0, 4, 30, 309.4663391113281
0, 4, 31, 303.657958984375
0, 4, 32, 281.2265625
0, 4, 33, 295.8813171386719
0, 4, 34, 296.5063781738281
0, 4, 35, 312.0104064941406
0, 4, 36, 292.3688354492188
0, 4, 37, 287.8155517578125
0, 4, 38, 297.4368286132812
0, 4, 39, 294.6881713867188
0, 4, 40, 304.6741027832031
0, 4, 41, 310.1898803710938
0, 4, 42, 331.6029663085938
0, 4, 43, 295.6843872070312
0, 4, 44, 319.5068664550781
0, 4, 45, 328.55126953125
0, 4, 46, 307.9588623046875
0, 4, 47, 293.0710754394531
0, 4, 48, 297.8643798828125
0, 4, 49, 279.3728942871094
0, 4, 50, 295.4439086914062
0, 4, 51, 316.8258972167969
0, 4, 52, 326.3705444335938
0, 4, 53, 302.8475341796875
0, 4, 54, 288.0614013671875
0, 4, 55, 314.1770935058594
0, 4, 56, 288.5956420898438
0, 4, 57, 309.9241027832031
0, 4, 58, 295.0145263671875
0, 4, 59, 307.8189086914062
0, 4, 60, 301.3455505371094
0, 4, 61, 319.3160095214844
0, 4, 62, 307.1968383789062
0, 4, 63, 301.4187927246094
0, 4, 64, 331.4970092773438
0, 4, 65, 315.5564880371094
0, 4, 66, 296.5901489257812
0, 4, 67, 285.258056640625
0, 4, 68, 315.1989135742188
0, 4, 69, 276.3387451171875
0, 4, 70, 300.3313903808594
0, 4, 71, 322.3912658691406
0, 4, 72, 335.9783020019531
0, 4, 73, 298.356689453125
0, 4, 74, 294.9595947265625
0, 4, 75, 289.3076171875
0, 4, 76, 276.0006103515625
0, 4, 77, 277.6164245605469
0, 4, 78, 310.3643493652344
0, 4, 79, 320.0005187988281
0, 4, 80, 315.7514343261719
0, 4, 81, 312.9264526367188
0, 4, 82, 298.8699340820312
0, 4, 83, 298.8943176269531
0, 4, 84, 294.5656127929688
0, 4, 85, 294.7385559082031
0, 4, 86, 300.3568420410156
0, 4, 87, 285.1423645019531
0, 4, 88, 303.6614074707031
0, 4, 89, 293.02880859375
0, 4, 90, 333.0844421386719
0, 4, 91, 302.6373596191406
0, 4, 92, 288.7058715820312
0, 4, 93, 296.6597595214844
0, 4, 94, 291.2505493164062
0, 4, 95, 287.7892150878906
0, 4, 96, 321.5081176757812
0, 4, 97, 275.0882263183594
0, 4, 98, 326.8543395996094
0, 4, 99, 313.6748657226562
0, 4, 100, 301.7563171386719
0, 4, 101, 258.4465637207031
0, 4, 102, 294.8292236328125
0, 4, 103, 316.9687805175781
0, 4, 104, 282.3414306640625
0, 4, 105, 313.0492553710938
0, 4, 106, 286.8926086425781
0, 4, 107, 296.8014831542969
0, 4, 108, 225.4261169433594
0, 4, 109, 78.940185546875
0, 4, 110, 16.72033882141113
0, 4, 111, 13.63851451873779
0, 4, 112, 8.288602828979492
0, 4, 113, 11.03456974029541
0, 4, 114, 9.871918678283691
0, 4, 115, 11.31071472167969
0, 4, 116, 10.89468765258789
0, 4, 117, 7.861361980438232
0, 4, 118, 9.792497634887695
0, 4, 119, 8.609869003295898
0, 4, 120, 4.137302398681641
0, 4, 121, 4.778696537017822
0, 4, 122, 3.030354976654053
0, 4, 123, 6.249306678771973
0, 4, 124, 7.546328067779541
0, 4, 125, 8.989678382873535
0, 4, 126, 5.945493698120117
0, 4, 127, 3.515833377838135
0, 5, 0, 3.174736976623535
0, 5, 1, 3.374654054641724
0, 5, 2, 4.219595432281494
0, 5, 3, 4.03326416015625
0, 5, 4, 5.4354567527771
0, 5, 5, 5.017554759979248
0, 5, 6, 5.357789516448975
0, 5, 7, 4.195278167724609
0, 5, 8, 5.770635604858398
0, 5, 9, 4.875979900360107
0, 5, 10, 7.1288743019104
0, 5, 11, 9.457597732543945
0, 5, 12, 8.368579864501953
0, 5, 13, 7.409898281097412
0, 5, 14, 13.98646640777588
0, 5, 15, 17.53608894348145
0, 5, 16, 14.86738014221191
0, 5, 17, 28.75596237182617
0, 5, 18, 138.3859405517578
0, 5, 19, 289.084228515625
0, 5, 20, 307.4072875976562
0, 5, 21, 315.6033935546875
0, 5, 22, 275.9374389648438
0, 5, 23, 310.6948547363281
0, 5, 24, 303.8802490234375
0, 5, 25, 288.3037109375
0, 5, 26, 296.2129821777344
0, 5, 27, 321.9968872070312
0, 5, 28, 300.9219055175781
0, 5, 29, 297.073486328125
0, 5, 30, 324.6697082519531
0, 5, 31, 290.250732421875
0, 5, 32, 301.929931640625
0, 5, 33, 303.1632080078125
0, 5, 34, 295.6342468261719
0, 5, 35, 308.6398620605469
0, 5, 36, 271.4256591796875
0, 5, 37, 282.1306762695312
0, 5, 38, 294.1635131835938
0, 5, 39, 312.4881591796875
0, 5, 40, 308.5135498046875
0, 5, 41, 273.654296875
0, 5, 42, 307.200927734375
0, 5, 43, 315.6101379394531
0, 5, 44, 292.51416015625
0, 5, 45, 301.3300170898438
0, 5, 46, 266.1350402832031
0, 5, 47, 282.1650085449219
0, 5, 48, 294.8390502929688
0, 5, 49, 286.5578002929688
0, 5, 50, 293.0793151855469
0, 5, 51, 279.30224609375
0, 5, 52, 269.5673217773438
0, 5, 53, 284.9944152832031
0, 5, 54, 292.7201843261719
0, 5, 55, 344.3079223632812
0, 5, 56, 305.3443908691406
0, 5, 57, 307.42529296875
0, 5, 58, 314.0576477050781
0, 5, 59, 302.8275146484375
0, 5, 60, 308.1791687011719
0, 5, 61, 283.2960815429688
0, 5, 62, 325.4394226074219
0, 5, 63, 293.0146179199219
0, 5, 64, 321.6358032226562
0, 5, 65, 306.4569396972656
0, 5, 66, 327.0520935058594
0, 5, 67, 312.4041137695312
0, 5, 68, 306.982666015625
0, 5, 69, 309.8504333496094
0, 5, 70, 301.2408447265625
0, 5, 71, 272.0267028808594
0, 5, 72, 309.2147216796875
0, 5, 73, 301.7781677246094
0, 5, 74, 296.1773681640625
0, 5, 75, 294.6792907714844
0, 5, 76, 286.2763366699219
0, 5, 77, 297.8707275390625
0, 5, 78, 314.1884155273438
0, 5, 79, 307.600830078125
0, 5, 80, 295.1087036132812
0, 5, 81, 327.6983642578125
0, 5, 82, 323.8827819824219
0, 5, 83, 280.950927734375
0, 5, 84, 302.9434814453125
0, 5, 85, 271.3638916015625
0, 5, 86, 323.3470153808594
0, 5, 87, 284.0451354980469
0, 5, 88, 312.3427734375
0, 5, 89, 304.8842163085938
0, 5, 90, 314.9521789550781
0, 5, 91, 314.92431640625
0, 5, 92, 296.7542419433594
0, 5, 93, 325.2851867675781
0, 5, 94, 308.9675903320312
0, 5, 95, 296.3768310546875
0, 5, 96, 298.5991516113281
0, 5, 97, 295.1626892089844
0, 5, 98, 318.2680358886719
0, 5, 99, 302.7299194335938
0, 5, 100, 290.174072265625
0, 5, 101, 307.2511901855469
0, 5, 102, 297.6807861328125
0, 5, 103, 313.4555358886719
0, 5, 104, 300.1721801757812
0, 5, 105, 292.3970947265625
0, 5, 106, 281.1459655761719
0, 5, 107, 293.1171264648438
0, 5, 108, 265.6007995605469
0, 5, 109, 159.5654907226562
0, 5, 110, 40.1011848449707
0, 5, 111, 21.36783027648926
0, 5, 112, 14.7241096496582
0, 5, 113, 15.04650402069092
0, 5, 114, 13.18622970581055
0, 5, 115, 7.105704784393311
0, 5, 116, 6.830188751220703
0, 5, 117, 7.826267242431641
0, 5, 118, 13.53396987915039
0, 5, 119, 3.025948762893677
0, 5, 120, 5.529751300811768
0, 5, 121, 5.398317337036133
0, 5, 122, 5.560783863067627
0, 5, 123, 5.637606620788574
0, 5, 124, 5.608793258666992
0, 5, 125, 3.602252244949341
0, 5, 126, 4.495322227478027
0, 5, 127, 2.922671794891357
0, 6, 0, 5.253707408905029
0, 6, 1, 5.473791599273682
0, 6, 2, 5.275166034698486
0, 6, 3, 5.314575672149658
0, 6, 4, 3.569360256195068
0, 6, 5, 5.636582374572754
0, 6, 6, 9.113530158996582
0, 6, 7, 5.621800422668457
0, 6, 8, 9.126265525817871
0, 6, 9, 7.140388488769531
0, 6, 10, 9.740887641906738
0, 6, 11, 7.195416927337646
0, 6, 12, 8.790495872497559
0, 6, 13, 13.12476921081543
0, 6, 14, 8.502307891845703
0, 6, 15, 16.60294532775879
0, 6, 16, 28.5629940032959
0, 6, 17, 55.88034439086914
0, 6, 18, 174.3217163085938
0, 6, 19, 277.0900268554688
0, 6, 20, 292.9594116210938
0, 6, 21, 313.7657470703125
0, 6, 22, 321.2135314941406
0, 6, 23, 305.8797912597656
0, 6, 24, 315.56787109375
0, 6, 25, 317.1366577148438
0, 6, 26, 320.5573425292969
0, 6, 27, 330.6000366210938
0, 6, 28, 296.0164794921875
0, 6, 29, 329.5755310058594
0, 6, 30, 282.0633239746094
0, 6, 31, 287.62255859375
0, 6, 32, 339.8350219726562
0, 6, 33, 299.1157836914062
0, 6, 34, 343.9604187011719
0, 6, 35, 322.4551391601562
0, 6, 36, 274.1245727539062
0, 6, 37, 288.1134948730469
0, 6, 38, 312.0284423828125
0, 6, 39, 300.2029418945312
0, 6, 40, 284.3389282226562
0, 6, 41, 295.3698425292969
0, 6, 42, 306.4837951660156
0, 6, 43, 288.4117126464844
0, 6, 44, 280.5213012695312
0, 6, 45, 319.9619750976562
0, 6, 46, 305.096923828125
0, 6, 47, 333.7265014648438
0, 6, 48, 291.6224365234375
0, 6, 49, 310.9683532714844
0, 6, 50, 327.8699951171875
0, 6, 51, 311.4095458984375
0, 6, 52, 322.6739807128906
0, 6, 53, 326.8517150878906
0, 6, 54, 304.2203369140625
0, 6, 55, 304.8466186523438
0, 6, 56, 294.6176452636719
0, 6, 57, 312.1542358398438
0, 6, 58, 263.4075317382812
0, 6, 59, 301.4342346191406
0, 6, 60, 312.9920043945312
0, 6, 61, 270.4150085449219
0, 6, 62, 337.1556396484375
0, 6, 63, 323.1029052734375
0, 6, 64, 290.6253967285156
0, 6, 65, 285.283447265625
0, 6, 66, 304.5863647460938
0, 6, 67, 311.2332458496094
0, 6, 68, 293.4610900878906
0, 6, 69, 277.825927734375
0, 6, 70, 274.6544494628906
0, 6, 71, 289.6312255859375
0, 6, 72, 311.122314453125
0, 6, 73, 292.2500610351562
0, 6, 74, 329.7845458984375
0, 6, 75, 342.9328308105469
0, 6, 76, 298.0101928710938
0, 6, 77, 288.611083984375
0, 6, 78, 279.7016906738281
0, 6, 79, 291.9964904785156
0, 6, 80, 298.9377136230469
0, 6, 81, 313.7760925292969
0, 6, 82, 319.7376403808594
0, 6, 83, 320.2531127929688
0, 6, 84, 295.283447265625
0, 6, 85, 301.1843566894531
0, 6, 86, 330.8190002441406
0, 6, 87, 292.6154479980469
0, 6, 88, 307.2897033691406
0, 6, 89, 302.935546875
0, 6, 90, 299.0399475097656
0, 6, 91, 311.8267822265625
0, 6, 92, 283.7546691894531
0, 6, 93, 296.5969543457031
0, 6, 94, 274.5047607421875
0, 6, 95, 298.9073791503906
0, 6, 96, 349.5223999023438
0, 6, 97, 308.8073425292969
0, 6, 98, 300.5012512207031
0, 6, 99, 271.6434326171875
0, 6, 100, 307.638916015625
0, 6, 101, 292.6556396484375
0, 6, 102, 306.7539672851562
0, 6, 103, 307.3758850097656
0, 6, 104, 293.2399597167969
0, 6, 105, 303.0515747070312
0, 6, 106, 306.1590881347656
0, 6, 107, 306.7672729492188
0, 6, 108, 265.5458374023438
0, 6, 109, 185.4234771728516
0, 6, 110, 54.63507843017578
0, 6, 111, 22.5145378112793
0, 6, 112, 12.66828060150146
0, 6, 113, 13.14566230773926
0, 6, 114, 11.67290496826172
0, 6, 115, 11.73715877532959
0, 6, 116, 9.874908447265625
0, 6, 117, 6.863218784332275
0, 6, 118, 8.304949760437012
0, 6, 119, 10.10543537139893
0, 6, 120, 5.881218433380127
0, 6, 121, 5.728904724121094
0, 6, 122, 7.784270763397217
0, 6, 123, 9.021406173706055
0, 6, 124, 7.357683658599854
0, 6, 125, 7.132669448852539
0, 6, 126, 4.165046691894531
0, 6, 127, 9.623311042785645
0, 7, 0, 5.604405403137207
0, 7, 1, 6.321053504943848
0, 7, 2, 6.587293148040771
0, 7, 3, 3.792364120483398
0, 7, 4, 3.596188545227051
0, 7, 5, 3.962453842163086
0, 7, 6, 4.722116470336914
0, 7, 7, 5.009708881378174
0, 7, 8, 5.442313194274902
0, 7, 9, 6.062005996704102
0, 7, 10, 7.016626358032227
0, 7, 11, 10.06169033050537
0, 7, 12, 8.842284202575684
0, 7, 13, 10.97477245330811
0, 7, 14, 10.9186954498291
0, 7, 15, 17.73287582397461
0, 7, 16, 25.36137008666992
0, 7, 17, 98.02742767333984
0, 7, 18, 217.214599609375
0, 7, 19, 289.9170532226562
0, 7, 20, 299.0151062011719
0, 7, 21, 277.8317565917969
0, 7, 22, 301.6209411621094
0, 7, 23, 289.3384094238281
0, 7, 24, 314.2084045410156
0, 7, 25, 326.1982421875
0, 7, 26, 276.8072204589844
0, 7, 27, 297.7826843261719
0, 7, 28, 324.8095703125
0, 7, 29, 316.0726928710938
0, 7, 30, 300.1828308105469
0, 7, 31, 276.9623107910156
0, 7, 32, 305.9106750488281
0, 7, 33, 263.1022644042969
0, 7, 34, 298.4573669433594
0, 7, 35, 320.927978515625
0, 7, 36, 330.4721069335938
0, 7, 37, 323.5440979003906
0, 7, 38, 296.3003845214844
0, 7, 39, 305.4765930175781
0, 7, 40, 288.4420471191406
0, 7, 41, 272.2923889160156
0, 7, 42, 300.0555419921875
0, 7, 43, 278.4808044433594
0, 7, 44, 304.53125
0, 7, 45, 295.204833984375
0, 7, 46, 280.3863220214844
0, 7, 47, 327.6171569824219
0, 7, 48, 285.2633666992188
0, 7, 49, 300.9912719726562
0, 7, 50, 321.5564575195312
0, 7, 51, 298.9710083007812
0, 7, 52, 325.7489013671875
0, 7, 53, 311.1897888183594
0, 7, 54, 324.2616271972656
0, 7, 55, 306.8130187988281
0, 7, 56, 279.6011962890625
0, 7, 57, 281.8639831542969
0, 7, 58, 295.0419311523438
0, 7, 59, 296.2688293457031
0, 7, 60, 322.8309326171875
0, 7, 61, 277.6136474609375
0, 7, 62, 297.1239624023438
0, 7, 63, 293.4561767578125
0, 7, 64, 305.7757568359375
0, 7, 65, 330.6782531738281
0, 7, 66, 319.8082885742188
0, 7, 67, 300.7159729003906
0, 7, 68, 279.6874389648438
0, 7, 69, 294.1132507324219
0, 7, 70, 301.48974609375
0, 7, 71, 309.1963806152344
0, 7, 72, 287.3465576171875
0, 7, 73, 297.9324951171875
0, 7, 74, 343.6607666015625
0, 7, 75, 319.1806640625
0, 7, 76, 320.9960632324219
0, 7, 77, 279.9854736328125
0, 7, 78, 301.8576049804688
0, 7, 79, 297.5752563476562
0, 7, 80, 312.9412841796875
0, 7, 81, 318.8159790039062
0, 7, 82, 330.4814147949219
0, 7, 83, 317.6297302246094
0, 7, 84, 308.3337707519531
0, 7, 85, 271.5494384765625
0, 7, 86, 312.7675170898438
0, 7, 87, 309.4860534667969
0, 7, 88, 306.5569458007812
0, 7, 89, 295.4042053222656
0, 7, 90, 304.8119506835938
0, 7, 91, 314.3388671875
0, 7, 92, 286.807373046875
0, 7, 93, 307.4547729492188
0, 7, 94, 272.9229431152344
0, 7, 95, 297.9290466308594
0, 7, 96, 332.7984924316406
0, 7, 97, 294.6945190429688
0, 7, 98, 291.2566528320312
0, 7, 99, 310.3614807128906
0, 7, 100, 286.5802612304688
0, 7, 101, 276.1263732910156
0, 7, 102, 289.9364013671875
0, 7, 103, 291.5140075683594
0, 7, 104, 275.8749084472656
0, 7, 105, 306.7179565429688
0, 7, 106, 317.4012451171875
0, 7, 107, 296.8209533691406
0, 7, 108, 272.4174194335938
0, 7, 109, 238.6451721191406
0, 7, 110, 97.33084869384766
0, 7, 111, 22.57183265686035
0, 7, 112, 13.45963001251221
0, 7, 113, 14.29228591918945
0, 7, 114, 10.86925220489502
0, 7, 115, 12.42247867584229
0, 7, 116, 6.566555976867676
0, 7, 117, 5.49305248260498
0, 7, 118, 7.557996273040771
0, 7, 119, 5.769657135009766
0, 7, 120, 3.637594223022461
0, 7, 121, 7.124702930450439
0, 7, 122, 7.590271472930908
0, 7, 123, 7.406801700592041
0, 7, 124, 4.093945503234863
0, 7, 125, 5.928981304168701
0, 7, 126, 6.407234668731689
0, 7, 127, 3.317916870117188
0, 8, 0, 3.023071050643921
0, 8, 1, 4.81398344039917
0, 8, 2, 5.069119930267334
0, 8, 3, 3.588322877883911
0, 8, 4, 3.621825218200684
0, 8, 5, 4.574460029602051
0, 8, 6, 5.016604423522949
0, 8, 7, 4.940533638000488
0, 8, 8, 8.219570159912109
0, 8, 9, 5.019184589385986
0, 8, 10, 6.178637981414795
0, 8, 11, 12.31161022186279
0, 8, 12, 16.72744941711426
0, 8, 13, 16.69483375549316
0, 8, 14, 15.51380729675293
0, 8, 15, 18.1239070892334
0, 8, 16, 32.54926681518555
0, 8, 17, 130.2212066650391
0, 8, 18, 242.3316345214844
0, 8, 19, 295.6439514160156
0, 8, 20, 285.3932189941406
0, 8, 21, 309.21337890625
0, 8, 22, 295.3724975585938
0, 8, 23, 274.0579528808594
0, 8, 24, 267.8647766113281
0, 8, 25, 275.2605590820312
0, 8, 26, 306.6377258300781
0, 8, 27, 307.5280151367188
0, 8, 28, 304.0814208984375
0, 8, 29, 320.1161193847656
0, 8, 30, 314.6398620605469
0, 8, 31, 302.6510009765625
0, 8, 32, 281.6561889648438
0, 8, 33, 293.4365234375
0, 8, 34, 288.09326171875
0, 8, 35, 277.8187255859375
0, 8, 36, 314.7360229492188
0, 8, 37, 338.38671875
0, 8, 38, 332.2035522460938
0, 8, 39, 281.0726623535156
0, 8, 40, 304.4125366210938
