# TOPAS Version: 3.1.p3
# Parameter File: batch_inserts_326.txt
# Results for scorer Readout_Adipose
# Scored in component: MyBox
# X in 1 bin  of 0.75 cm
# Y in 512 bins of 0.0783984 cm
# Z in 128 bins of 0.078125 cm
# EnergyDeposit ( MeV ) : Sum   
0, 0, 0, 17.40127372741699
0, 0, 1, 16.6543140411377
0, 0, 2, 24.15469360351562
0, 0, 3, 27.20211410522461
0, 0, 4, 18.2822208404541
0, 0, 5, 20.9149227142334
0, 0, 6, 22.23466682434082
0, 0, 7, 28.85691833496094
0, 0, 8, 25.07493591308594
0, 0, 9, 22.93388748168945
0, 0, 10, 28.33327102661133
0, 0, 11, 32.33077239990234
0, 0, 12, 31.11013984680176
0, 0, 13, 27.75653076171875
0, 0, 14, 40.40556716918945
0, 0, 15, 43.45259857177734
0, 0, 16, 46.12939834594727
0, 0, 17, 44.31951522827148
0, 0, 18, 75.41419219970703
0, 0, 19, 192.4729766845703
0, 0, 20, 698.2647094726562
0, 0, 21, 1195.678955078125
0, 0, 22, 1243.363891601562
0, 0, 23, 1275.355346679688
0, 0, 24, 1283.377563476562
0, 0, 25, 1358.953125
0, 0, 26, 1268.297607421875
0, 0, 27, 1277.206909179688
0, 0, 28, 1320.677978515625
0, 0, 29, 1267.471313476562
0, 0, 30, 1265.654052734375
0, 0, 31, 1283.21533203125
0, 0, 32, 1264.218872070312
0, 0, 33, 1245.67626953125
0, 0, 34, 1326.586181640625
0, 0, 35, 1301.521484375
0, 0, 36, 1243.062377929688
0, 0, 37, 1279.87646484375
0, 0, 38, 1248.29833984375
0, 0, 39, 1243.14404296875
0, 0, 40, 1218.977172851562
0, 0, 41, 1272.260375976562
0, 0, 42, 1254.001831054688
0, 0, 43, 1271.896728515625
0, 0, 44, 1223.05712890625
0, 0, 45, 1285.37841796875
0, 0, 46, 1264.813598632812
0, 0, 47, 1243.475830078125
0, 0, 48, 1279.126831054688
0, 0, 49, 1288.84228515625
0, 0, 50, 1314.037353515625
0, 0, 51, 1260.57275390625
0, 0, 52, 1359.85009765625
0, 0, 53, 1327.724731445312
0, 0, 54, 1294.67138671875
0, 0, 55, 1234.481567382812
0, 0, 56, 1316.63623046875
0, 0, 57, 1291.08447265625
0, 0, 58, 1259.37890625
0, 0, 59, 1330.485229492188
0, 0, 60, 1321.631469726562
0, 0, 61, 1261.747802734375
0, 0, 62, 1239.966186523438
0, 0, 63, 1280.716918945312
0, 0, 64, 1335.60302734375
0, 0, 65, 1285.81005859375
0, 0, 66, 1316.09619140625
0, 0, 67, 1215.546020507812
0, 0, 68, 1306.1259765625
0, 0, 69, 1323.334594726562
0, 0, 70, 1345.598510742188
0, 0, 71, 1285.038330078125
0, 0, 72, 1310.7978515625
0, 0, 73, 1237.158447265625
0, 0, 74, 1289.608764648438
0, 0, 75, 1294.606567382812
0, 0, 76, 1257.421508789062
0, 0, 77, 1290.765625
0, 0, 78, 1313.366943359375
0, 0, 79, 1326.926879882812
0, 0, 80, 1256.882690429688
0, 0, 81, 1322.0107421875
0, 0, 82, 1290.7646484375
0, 0, 83, 1293.90576171875
0, 0, 84, 1334.77783203125
0, 0, 85, 1236.7607421875
0, 0, 86, 1261.338134765625
0, 0, 87, 1248.176879882812
0, 0, 88, 1255.365478515625
0, 0, 89, 1332.997192382812
0, 0, 90, 1278.329345703125
0, 0, 91, 1353.66357421875
0, 0, 92, 1301.205078125
0, 0, 93, 1267.866455078125
0, 0, 94, 1242.811401367188
0, 0, 95, 1328.789306640625
0, 0, 96, 1280.747802734375
0, 0, 97, 1329.790771484375
0, 0, 98, 1255.380126953125
0, 0, 99, 1250.862548828125
0, 0, 100, 1287.76806640625
0, 0, 101, 1316.966430664062
0, 0, 102, 1233.032348632812
0, 0, 103, 1320.433715820312
0, 0, 104, 1260.178344726562
0, 0, 105, 1264.9111328125
0, 0, 106, 1210.45703125
0, 0, 107, 779.4423828125
0, 0, 108, 198.5600433349609
0, 0, 109, 73.152099609375
0, 0, 110, 61.90333938598633
0, 0, 111, 36.31772994995117
0, 0, 112, 34.52834701538086
0, 0, 113, 37.58674621582031
0, 0, 114, 35.17394638061523
0, 0, 115, 30.0749568939209
0, 0, 116, 27.51886940002441
0, 0, 117, 36.04388809204102
0, 0, 118, 28.5951099395752
0, 0, 119, 23.22614288330078
0, 0, 120, 27.50729751586914
0, 0, 121, 31.26138305664062
0, 0, 122, 26.65410614013672
0, 0, 123, 16.44066429138184
0, 0, 124, 21.81900024414062
0, 0, 125, 20.15352630615234
0, 0, 126, 23.64264488220215
0, 0, 127, 20.39456367492676
0, 1, 0, 24.27941703796387
0, 1, 1, 20.21394538879395
0, 1, 2, 26.64136695861816
0, 1, 3, 27.14475059509277
0, 1, 4, 19.34876823425293
0, 1, 5, 22.27689170837402
0, 1, 6, 25.84643363952637
0, 1, 7, 25.93444061279297
0, 1, 8, 32.63496398925781
0, 1, 9, 36.30468368530273
0, 1, 10, 34.69388580322266
0, 1, 11, 39.0638542175293
0, 1, 12, 37.17075729370117
0, 1, 13, 45.7859001159668
0, 1, 14, 40.67336654663086
0, 1, 15, 48.22980499267578
0, 1, 16, 58.65381622314453
0, 1, 17, 66.69685363769531
0, 1, 18, 99.52295684814453
0, 1, 19, 392.93603515625
0, 1, 20, 1038.212036132812
0, 1, 21, 1376.010864257812
0, 1, 22, 1482.4111328125
0, 1, 23, 1463.869873046875
0, 1, 24, 1447.771362304688
0, 1, 25, 1421.930297851562
0, 1, 26, 1474.020751953125
0, 1, 27, 1470.792846679688
0, 1, 28, 1490.62451171875
0, 1, 29, 1478.337280273438
0, 1, 30, 1510.520629882812
0, 1, 31, 1483.982666015625
0, 1, 32, 1414.035766601562
0, 1, 33, 1500.666748046875
0, 1, 34, 1501.0068359375
0, 1, 35, 1460.267700195312
0, 1, 36, 1491.30615234375
0, 1, 37, 1414.155517578125
0, 1, 38, 1394.0166015625
0, 1, 39, 1523.28955078125
0, 1, 40, 1461.278076171875
0, 1, 41, 1488.969482421875
0, 1, 42, 1498.142333984375
0, 1, 43, 1499.7646484375
0, 1, 44, 1449.969970703125
0, 1, 45, 1482.326538085938
0, 1, 46, 1415.961303710938
0, 1, 47, 1437.689575195312
0, 1, 48, 1431.63427734375
0, 1, 49, 1486.58349609375
0, 1, 50, 1446.197509765625
0, 1, 51, 1471.241455078125
0, 1, 52, 1476.812255859375
0, 1, 53, 1475.00390625
0, 1, 54, 1509.884521484375
0, 1, 55, 1493.556884765625
0, 1, 56, 1470.98876953125
0, 1, 57, 1457.511474609375
0, 1, 58, 1429.961303710938
0, 1, 59, 1481.757202148438
0, 1, 60, 1465.466552734375
0, 1, 61, 1448.990356445312
0, 1, 62, 1453.603515625
0, 1, 63, 1413.4765625
0, 1, 64, 1474.953247070312
0, 1, 65, 1421.098754882812
0, 1, 66, 1436.360717773438
0, 1, 67, 1458.701904296875
0, 1, 68, 1387.774291992188
0, 1, 69, 1463.388671875
0, 1, 70, 1433.627685546875
0, 1, 71, 1498.416748046875
0, 1, 72, 1440.2412109375
0, 1, 73, 1491.28271484375
0, 1, 74, 1472.308227539062
0, 1, 75, 1476.833740234375
0, 1, 76, 1450.97509765625
0, 1, 77, 1463.10498046875
0, 1, 78, 1450.350463867188
0, 1, 79, 1499.536865234375
0, 1, 80, 1450.536743164062
0, 1, 81, 1423.763793945312
0, 1, 82, 1468.068237304688
0, 1, 83, 1459.199829101562
0, 1, 84, 1530.469848632812
0, 1, 85, 1453.907470703125
0, 1, 86, 1405.6640625
0, 1, 87, 1426.048950195312
0, 1, 88, 1475.554077148438
0, 1, 89, 1473.75390625
0, 1, 90, 1423.373046875
0, 1, 91, 1456.67578125
0, 1, 92, 1412.139038085938
0, 1, 93, 1459.185302734375
0, 1, 94, 1466.287963867188
0, 1, 95, 1427.073364257812
0, 1, 96, 1497.980224609375
0, 1, 97, 1515.835083007812
0, 1, 98, 1473.042114257812
0, 1, 99, 1420.014770507812
0, 1, 100, 1445.922607421875
0, 1, 101, 1415.254028320312
0, 1, 102, 1443.647338867188
0, 1, 103, 1415.932250976562
0, 1, 104, 1407.083618164062
0, 1, 105, 1464.545166015625
0, 1, 106, 1367.547729492188
0, 1, 107, 1029.791015625
0, 1, 108, 402.8247985839844
0, 1, 109, 93.87651824951172
0, 1, 110, 61.92094802856445
0, 1, 111, 56.92070007324219
0, 1, 112, 43.84969329833984
0, 1, 113, 34.55242156982422
0, 1, 114, 35.99649429321289
0, 1, 115, 39.56696701049805
0, 1, 116, 35.58136367797852
0, 1, 117, 37.44600296020508
0, 1, 118, 34.7437629699707
0, 1, 119, 32.96907424926758
0, 1, 120, 23.97873497009277
0, 1, 121, 22.87852478027344
0, 1, 122, 23.03578948974609
0, 1, 123, 23.96438217163086
0, 1, 124, 34.37782287597656
0, 1, 125, 21.71049499511719
0, 1, 126, 14.52798175811768
0, 1, 127, 19.6062126159668
0, 2, 0, 20.8637752532959
0, 2, 1, 20.0339412689209
0, 2, 2, 19.19839286804199
0, 2, 3, 20.46780586242676
0, 2, 4, 21.56854438781738
0, 2, 5, 20.09357833862305
0, 2, 6, 23.57028770446777
0, 2, 7, 24.26263999938965
0, 2, 8, 26.6820011138916
0, 2, 9, 31.79000282287598
0, 2, 10, 30.74955368041992
0, 2, 11, 28.2156982421875
0, 2, 12, 46.03578948974609
0, 2, 13, 48.64041519165039
0, 2, 14, 47.78647232055664
0, 2, 15, 47.48841094970703
0, 2, 16, 67.79340362548828
0, 2, 17, 81.79625701904297
0, 2, 18, 148.8757171630859
0, 2, 19, 613.822509765625
0, 2, 20, 1284.563842773438
0, 2, 21, 1432.949462890625
0, 2, 22, 1454.066528320312
0, 2, 23, 1410.370239257812
0, 2, 24, 1440.908569335938
0, 2, 25, 1519.730102539062
0, 2, 26, 1549.91259765625
0, 2, 27, 1454.944091796875
0, 2, 28, 1454.029663085938
0, 2, 29, 1466.683349609375
0, 2, 30, 1464.8466796875
0, 2, 31, 1540.0595703125
0, 2, 32, 1506.396484375
0, 2, 33, 1446.171997070312
0, 2, 34, 1469.392456054688
0, 2, 35, 1471.238037109375
0, 2, 36, 1525.329223632812
0, 2, 37, 1537.47998046875
0, 2, 38, 1505.333862304688
0, 2, 39, 1460.75146484375
0, 2, 40, 1509.581909179688
0, 2, 41, 1514.100341796875
0, 2, 42, 1502.649536132812
0, 2, 43, 1550.935302734375
0, 2, 44, 1454.407958984375
0, 2, 45, 1482.916748046875
0, 2, 46, 1430.905517578125
0, 2, 47, 1443.4873046875
0, 2, 48, 1397.908447265625
0, 2, 49, 1466.91650390625
0, 2, 50, 1441.521240234375
0, 2, 51, 1447.595703125
0, 2, 52, 1490.355590820312
0, 2, 53, 1522.829345703125
0, 2, 54, 1527.002319335938
0, 2, 55, 1489.468627929688
0, 2, 56, 1462.494506835938
0, 2, 57, 1416.735961914062
0, 2, 58, 1454.632446289062
0, 2, 59, 1446.2919921875
0, 2, 60, 1477.985473632812
0, 2, 61, 1445.267578125
0, 2, 62, 1470.120849609375
0, 2, 63, 1499.490234375
0, 2, 64, 1456.13623046875
0, 2, 65, 1427.408935546875
0, 2, 66, 1488.819091796875
0, 2, 67, 1501.00634765625
0, 2, 68, 1544.060424804688
0, 2, 69, 1539.116577148438
0, 2, 70, 1503.140869140625
0, 2, 71, 1462.982055664062
0, 2, 72, 1518.207641601562
0, 2, 73, 1520.508544921875
0, 2, 74, 1484.45263671875
0, 2, 75, 1503.848266601562
0, 2, 76, 1445.250122070312
0, 2, 77, 1509.272216796875
0, 2, 78, 1425.968383789062
0, 2, 79, 1540.538452148438
0, 2, 80, 1479.971313476562
0, 2, 81, 1465.90771484375
0, 2, 82, 1555.580322265625
0, 2, 83, 1513.8828125
0, 2, 84, 1493.155517578125
0, 2, 85, 1509.999877929688
0, 2, 86, 1543.875122070312
0, 2, 87, 1488.424560546875
0, 2, 88, 1538.826049804688
0, 2, 89, 1465.004760742188
0, 2, 90, 1432.558227539062
0, 2, 91, 1404.002685546875
0, 2, 92, 1481.436767578125
0, 2, 93, 1497.348266601562
0, 2, 94, 1450.011840820312
0, 2, 95, 1544.205078125
0, 2, 96, 1520.92822265625
0, 2, 97, 1451.02978515625
0, 2, 98, 1472.130126953125
0, 2, 99, 1404.246337890625
0, 2, 100, 1473.2021484375
0, 2, 101, 1481.166137695312
0, 2, 102, 1464.0693359375
0, 2, 103, 1391.930419921875
0, 2, 104, 1412.689086914062
0, 2, 105, 1394.4501953125
0, 2, 106, 1455.964233398438
0, 2, 107, 1275.557006835938
0, 2, 108, 621.6246948242188
0, 2, 109, 172.4147338867188
0, 2, 110, 68.69342041015625
0, 2, 111, 61.41782760620117
0, 2, 112, 44.69961166381836
0, 2, 113, 49.8994026184082
0, 2, 114, 37.86495971679688
0, 2, 115, 39.9094123840332
0, 2, 116, 32.71563720703125
0, 2, 117, 33.85879135131836
0, 2, 118, 32.61619186401367
0, 2, 119, 32.04706192016602
0, 2, 120, 30.35398864746094
0, 2, 121, 21.45765495300293
0, 2, 122, 26.51605987548828
0, 2, 123, 22.33973693847656
0, 2, 124, 22.34162139892578
0, 2, 125, 27.0172004699707
0, 2, 126, 16.94541549682617
0, 2, 127, 18.41484451293945
0, 3, 0, 20.58318519592285
0, 3, 1, 20.20798873901367
0, 3, 2, 20.14092254638672
0, 3, 3, 24.64898681640625
0, 3, 4, 18.58566284179688
0, 3, 5, 23.3914680480957
0, 3, 6, 32.3262939453125
0, 3, 7, 25.79208946228027
0, 3, 8, 29.74896240234375
0, 3, 9, 26.78865051269531
0, 3, 10, 35.29034805297852
0, 3, 11, 30.99485015869141
0, 3, 12, 41.66879272460938
0, 3, 13, 55.42886734008789
0, 3, 14, 57.9811897277832
0, 3, 15, 50.65016555786133
0, 3, 16, 63.53878784179688
0, 3, 17, 89.81697082519531
0, 3, 18, 237.9185485839844
0, 3, 19, 875.2530517578125
0, 3, 20, 1384.189208984375
0, 3, 21, 1504.941162109375
0, 3, 22, 1460.89892578125
0, 3, 23, 1445.58740234375
0, 3, 24, 1443.672729492188
0, 3, 25, 1471.276977539062
0, 3, 26, 1494.24365234375
0, 3, 27, 1467.848754882812
0, 3, 28, 1488.533325195312
0, 3, 29, 1543.8955078125
0, 3, 30, 1570.355834960938
0, 3, 31, 1513.281494140625
0, 3, 32, 1549.05517578125
0, 3, 33, 1540.554443359375
0, 3, 34, 1483.904663085938
0, 3, 35, 1464.73583984375
0, 3, 36, 1453.588012695312
0, 3, 37, 1512.355346679688
0, 3, 38, 1516.10107421875
0, 3, 39, 1442.405883789062
0, 3, 40, 1444.438232421875
0, 3, 41, 1562.499389648438
0, 3, 42, 1468.540283203125
0, 3, 43, 1453.145263671875
0, 3, 44, 1455.067749023438
0, 3, 45, 1511.850708007812
0, 3, 46, 1506.925170898438
0, 3, 47, 1439.493896484375
0, 3, 48, 1504.991821289062
0, 3, 49, 1451.398193359375
0, 3, 50, 1484.128173828125
0, 3, 51, 1537.737060546875
0, 3, 52, 1536.154541015625
0, 3, 53, 1466.130249023438
0, 3, 54, 1533.42529296875
0, 3, 55, 1500.826538085938
0, 3, 56, 1438.76806640625
0, 3, 57, 1503.82666015625
0, 3, 58, 1513.14453125
0, 3, 59, 1509.746215820312
0, 3, 60, 1538.403076171875
0, 3, 61, 1486.102661132812
0, 3, 62, 1494.053833007812
0, 3, 63, 1495.31787109375
0, 3, 64, 1497.625122070312
0, 3, 65, 1514.015502929688
0, 3, 66, 1554.415771484375
0, 3, 67, 1549.38671875
0, 3, 68, 1451.537231445312
0, 3, 69, 1464.4873046875
0, 3, 70, 1387.843505859375
0, 3, 71, 1465.380004882812
0, 3, 72, 1547.058349609375
0, 3, 73, 1496.862426757812
0, 3, 74, 1462.740112304688
0, 3, 75, 1462.90869140625
0, 3, 76, 1576.524658203125
0, 3, 77, 1538.053344726562
0, 3, 78, 1430.293090820312
0, 3, 79, 1492.969604492188
0, 3, 80, 1463.926147460938
0, 3, 81, 1471.751953125
0, 3, 82, 1559.998413085938
0, 3, 83, 1514.102661132812
0, 3, 84, 1563.400268554688
0, 3, 85, 1478.851928710938
0, 3, 86, 1522.186401367188
0, 3, 87, 1536.769409179688
0, 3, 88, 1460.350952148438
0, 3, 89, 1447.225952148438
0, 3, 90, 1447.460205078125
0, 3, 91, 1423.927978515625
0, 3, 92, 1509.84130859375
0, 3, 93, 1501.267211914062
0, 3, 94, 1513.553588867188
0, 3, 95, 1541.5595703125
0, 3, 96, 1512.890258789062
0, 3, 97, 1463.19189453125
0, 3, 98, 1435.170043945312
0, 3, 99, 1470.685668945312
0, 3, 100, 1465.059692382812
0, 3, 101, 1475.293334960938
0, 3, 102, 1517.367919921875
0, 3, 103, 1553.13916015625
0, 3, 104, 1500.757202148438
0, 3, 105, 1514.569213867188
0, 3, 106, 1476.809204101562
0, 3, 107, 1339.669677734375
0, 3, 108, 877.4545288085938
0, 3, 109, 265.5301818847656
0, 3, 110, 99.32509613037109
0, 3, 111, 60.96965789794922
0, 3, 112, 55.0632438659668
0, 3, 113, 53.82397842407227
0, 3, 114, 52.4748420715332
0, 3, 115, 55.73827362060547
0, 3, 116, 35.59871673583984
0, 3, 117, 39.50996780395508
0, 3, 118, 31.78717803955078
0, 3, 119, 31.68444633483887
0, 3, 120, 30.36176109313965
0, 3, 121, 24.84803009033203
0, 3, 122, 25.6058406829834
0, 3, 123, 23.53456878662109
0, 3, 124, 26.06648445129395
0, 3, 125, 24.00669860839844
0, 3, 126, 24.68012046813965
0, 3, 127, 20.49089431762695
0, 4, 0, 19.16738891601562
0, 4, 1, 24.49194145202637
0, 4, 2, 18.45490455627441
0, 4, 3, 20.51225852966309
0, 4, 4, 26.88438415527344
0, 4, 5, 33.87378311157227
0, 4, 6, 32.7574348449707
0, 4, 7, 35.88700866699219
0, 4, 8, 27.74348449707031
0, 4, 9, 29.09850311279297
0, 4, 10, 29.1633472442627
0, 4, 11, 43.58769226074219
0, 4, 12, 52.23799514770508
0, 4, 13, 56.98543548583984
0, 4, 14, 52.30414581298828
0, 4, 15, 58.50126647949219
0, 4, 16, 76.53815460205078
0, 4, 17, 112.7558975219727
0, 4, 18, 438.8090515136719
0, 4, 19, 1175.9052734375
0, 4, 20, 1447.412719726562
0, 4, 21, 1424.782348632812
0, 4, 22, 1432.564208984375
0, 4, 23, 1449.539916992188
0, 4, 24, 1469.736450195312
0, 4, 25, 1402.434326171875
0, 4, 26, 1544.69970703125
0, 4, 27, 1547.041748046875
0, 4, 28, 1514.70703125
0, 4, 29, 1514.89794921875
0, 4, 30, 1521.679321289062
0, 4, 31, 1572.076416015625
0, 4, 32, 1517.405517578125
0, 4, 33, 1495.394775390625
0, 4, 34, 1471.626220703125
0, 4, 35, 1566.154907226562
0, 4, 36, 1499.28564453125
0, 4, 37, 1505.435791015625
0, 4, 38, 1531.654052734375
0, 4, 39, 1468.774047851562
0, 4, 40, 1511.42138671875
0, 4, 41, 1587.430786132812
0, 4, 42, 1562.744995117188
0, 4, 43, 1470.384887695312
0, 4, 44, 1494.65625
0, 4, 45, 1518.753540039062
0, 4, 46, 1467.92919921875
0, 4, 47, 1504.349853515625
0, 4, 48, 1525.918090820312
0, 4, 49, 1465.8115234375
0, 4, 50, 1516.796264648438
0, 4, 51, 1496.798583984375
0, 4, 52, 1494.0244140625
0, 4, 53, 1457.185546875
0, 4, 54, 1444.340942382812
0, 4, 55, 1529.986694335938
0, 4, 56, 1453.291381835938
0, 4, 57, 1495.301025390625
0, 4, 58, 1459.509155273438
0, 4, 59, 1461.475830078125
0, 4, 60, 1527.759399414062
0, 4, 61, 1503.312866210938
0, 4, 62, 1507.86181640625
0, 4, 63, 1544.346313476562
0, 4, 64, 1590.131225585938
0, 4, 65, 1428.81982421875
0, 4, 66, 1511.1259765625
0, 4, 67, 1525.955688476562
0, 4, 68, 1493.5361328125
0, 4, 69, 1472.0244140625
0, 4, 70, 1544.371215820312
0, 4, 71, 1522.73388671875
0, 4, 72, 1531.290649414062
0, 4, 73, 1490.830444335938
0, 4, 74, 1487.510131835938
0, 4, 75, 1535.3037109375
0, 4, 76, 1483.369750976562
0, 4, 77, 1504.009033203125
0, 4, 78, 1509.54150390625
0, 4, 79, 1484.458251953125
0, 4, 80, 1513.302978515625
0, 4, 81, 1525.3173828125
0, 4, 82, 1565.504516601562
0, 4, 83, 1504.49755859375
0, 4, 84, 1540.590454101562
0, 4, 85, 1550.95849609375
0, 4, 86, 1526.092651367188
0, 4, 87, 1496.00341796875
0, 4, 88, 1514.3203125
0, 4, 89, 1482.802734375
0, 4, 90, 1546.281372070312
0, 4, 91, 1552.930786132812
0, 4, 92, 1485.399536132812
0, 4, 93, 1514.71435546875
0, 4, 94, 1485.499755859375
0, 4, 95, 1515.233764648438
0, 4, 96, 1454.822387695312
0, 4, 97, 1409.731689453125
0, 4, 98, 1551.951904296875
0, 4, 99, 1510.3388671875
0, 4, 100, 1484.203125
0, 4, 101, 1451.7607421875
0, 4, 102, 1444.8466796875
0, 4, 103, 1515.876586914062
0, 4, 104, 1508.436767578125
0, 4, 105, 1558.657470703125
0, 4, 106, 1473.307739257812
0, 4, 107, 1455.282958984375
0, 4, 108, 1117.378662109375
0, 4, 109, 429.3839721679688
0, 4, 110, 93.57796478271484
0, 4, 111, 75.6038818359375
0, 4, 112, 64.20132446289062
0, 4, 113, 45.14111328125
0, 4, 114, 46.33058547973633
0, 4, 115, 46.2873420715332
0, 4, 116, 38.70105361938477
0, 4, 117, 38.67498397827148
0, 4, 118, 43.91945266723633
0, 4, 119, 40.16840362548828
0, 4, 120, 34.28860855102539
0, 4, 121, 29.04454612731934
0, 4, 122, 29.03315734863281
0, 4, 123, 28.78189468383789
0, 4, 124, 20.79504013061523
0, 4, 125, 30.29013442993164
0, 4, 126, 26.47345733642578
0, 4, 127, 20.11207962036133
0, 5, 0, 20.17052459716797
0, 5, 1, 22.0663890838623
0, 5, 2, 30.80329513549805
0, 5, 3, 29.02074241638184
0, 5, 4, 20.0305290222168
0, 5, 5, 36.87875366210938
0, 5, 6, 36.09534454345703
0, 5, 7, 36.06391525268555
0, 5, 8, 31.11947250366211
0, 5, 9, 36.45278549194336
0, 5, 10, 39.88185882568359
0, 5, 11, 41.26113510131836
0, 5, 12, 42.74260711669922
0, 5, 13, 48.08351516723633
0, 5, 14, 62.69146728515625
0, 5, 15, 77.40336608886719
0, 5, 16, 79.51749420166016
0, 5, 17, 156.6475067138672
0, 5, 18, 675.6146240234375
0, 5, 19, 1350.129638671875
0, 5, 20, 1526.400634765625
0, 5, 21, 1490.215454101562
0, 5, 22, 1497.675537109375
0, 5, 23, 1530.705444335938
0, 5, 24, 1463.97802734375
0, 5, 25, 1428.8037109375
0, 5, 26, 1527.370239257812
0, 5, 27, 1539.4853515625
0, 5, 28, 1486.345825195312
0, 5, 29, 1521.898559570312
0, 5, 30, 1495.447021484375
0, 5, 31, 1499.799926757812
0, 5, 32, 1596.031982421875
0, 5, 33, 1502.246704101562
0, 5, 34, 1486.316650390625
0, 5, 35, 1515.364135742188
0, 5, 36, 1443.469116210938
0, 5, 37, 1530.351318359375
0, 5, 38, 1549.377319335938
0, 5, 39, 1550.68212890625
0, 5, 40, 1499.392456054688
0, 5, 41, 1477.597412109375
0, 5, 42, 1540.627197265625
0, 5, 43, 1533.988647460938
0, 5, 44, 1544.219970703125
0, 5, 45, 1506.175903320312
0, 5, 46, 1487.818969726562
0, 5, 47, 1484.263549804688
0, 5, 48, 1502.38623046875
0, 5, 49, 1522.570068359375
0, 5, 50, 1502.146728515625
0, 5, 51, 1517.697143554688
0, 5, 52, 1428.322387695312
0, 5, 53, 1524.767822265625
0, 5, 54, 1520.19775390625
0, 5, 55, 1524.207641601562
0, 5, 56, 1488.587280273438
0, 5, 57, 1544.218139648438
0, 5, 58, 1504.824096679688
0, 5, 59, 1486.60400390625
0, 5, 60, 1535.51611328125
0, 5, 61, 1455.925048828125
0, 5, 62, 1592.57421875
0, 5, 63, 1434.188720703125
0, 5, 64, 1486.937133789062
0, 5, 65, 1474.067138671875
0, 5, 66, 1524.754150390625
0, 5, 67, 1568.1484375
0, 5, 68, 1461.908813476562
0, 5, 69, 1477.282470703125
0, 5, 70, 1491.758422851562
0, 5, 71, 1472.059692382812
0, 5, 72, 1538.599853515625
0, 5, 73, 1461.77783203125
0, 5, 74, 1490.239501953125
0, 5, 75, 1487.304931640625
0, 5, 76, 1481.43896484375
0, 5, 77, 1519.944091796875
0, 5, 78, 1527.343994140625
0, 5, 79, 1506.626708984375
0, 5, 80, 1522.888427734375
0, 5, 81, 1597.452270507812
0, 5, 82, 1530.103515625
0, 5, 83, 1491.625610351562
0, 5, 84, 1533.138671875
0, 5, 85, 1513.401245117188
0, 5, 86, 1550.297241210938
0, 5, 87, 1472.439697265625
0, 5, 88, 1497.004272460938
0, 5, 89, 1480.274536132812
0, 5, 90, 1479.837890625
0, 5, 91, 1557.203369140625
0, 5, 92, 1482.249145507812
0, 5, 93, 1560.494384765625
0, 5, 94, 1511.260864257812
0, 5, 95, 1563.292236328125
0, 5, 96, 1500.225341796875
0, 5, 97, 1507.511596679688
0, 5, 98, 1507.91162109375
0, 5, 99, 1539.011840820312
0, 5, 100, 1431.484130859375
0, 5, 101, 1433.101684570312
0, 5, 102, 1512.939086914062
0, 5, 103, 1476.34521484375
0, 5, 104, 1457.087768554688
0, 5, 105, 1492.898193359375
0, 5, 106, 1456.748657226562
0, 5, 107, 1400.614135742188
0, 5, 108, 1289.671020507812
0, 5, 109, 721.0958862304688
0, 5, 110, 196.3823394775391
0, 5, 111, 88.73657989501953
0, 5, 112, 82.62432861328125
0, 5, 113, 58.28456115722656
0, 5, 114, 58.07337951660156
0, 5, 115, 54.70164108276367
0, 5, 116, 45.60229110717773
0, 5, 117, 33.13655471801758
0, 5, 118, 41.39719390869141
0, 5, 119, 28.59467506408691
0, 5, 120, 23.0412654876709
0, 5, 121, 27.38477897644043
0, 5, 122, 28.03608512878418
0, 5, 123, 26.57460403442383
0, 5, 124, 32.84981155395508
0, 5, 125, 29.60958862304688
0, 5, 126, 27.1799201965332
0, 5, 127, 26.85305404663086
0, 6, 0, 22.51694107055664
0, 6, 1, 23.71354293823242
0, 6, 2, 28.10188102722168
0, 6, 3, 31.3750114440918
0, 6, 4, 29.24842643737793
0, 6, 5, 31.41574287414551
0, 6, 6, 33.45587158203125
0, 6, 7, 30.87123107910156
0, 6, 8, 29.512939453125
0, 6, 9, 33.73645401000977
0, 6, 10, 35.2482795715332
0, 6, 11, 35.62732696533203
0, 6, 12, 41.91165924072266
0, 6, 13, 52.7865104675293
0, 6, 14, 64.87668609619141
0, 6, 15, 87.68574523925781
0, 6, 16, 116.7458572387695
0, 6, 17, 300.5238342285156
0, 6, 18, 900.458984375
0, 6, 19, 1376.492431640625
0, 6, 20, 1443.052001953125
0, 6, 21, 1527.356689453125
0, 6, 22, 1505.428100585938
0, 6, 23, 1527.333984375
0, 6, 24, 1478.761352539062
0, 6, 25, 1527.874633789062
0, 6, 26, 1513.191772460938
0, 6, 27, 1518.009521484375
0, 6, 28, 1553.772338867188
0, 6, 29, 1573.08935546875
0, 6, 30, 1513.701416015625
0, 6, 31, 1494.705688476562
0, 6, 32, 1530.784545898438
0, 6, 33, 1494.052978515625
0, 6, 34, 1560.646240234375
0, 6, 35, 1503.218017578125
0, 6, 36, 1440.46142578125
0, 6, 37, 1546.897094726562
0, 6, 38, 1525.391357421875
0, 6, 39, 1531.149169921875
0, 6, 40, 1456.0908203125
0, 6, 41, 1442.203979492188
0, 6, 42, 1517.779296875
0, 6, 43, 1486.160400390625
0, 6, 44, 1434.263671875
0, 6, 45, 1551.465576171875
0, 6, 46, 1557.780029296875
0, 6, 47, 1498.46337890625
0, 6, 48, 1525.757568359375
0, 6, 49, 1509.520629882812
0, 6, 50, 1578.914794921875
0, 6, 51, 1500.778198242188
0, 6, 52, 1564.8623046875
0, 6, 53, 1475.878662109375
0, 6, 54, 1499.744750976562
0, 6, 55, 1568.005493164062
0, 6, 56, 1527.283203125
0, 6, 57, 1511.454956054688
0, 6, 58, 1468.370849609375
0, 6, 59, 1521.977416992188
0, 6, 60, 1471.655029296875
0, 6, 61, 1568.002807617188
0, 6, 62, 1548.840942382812
0, 6, 63, 1496.149536132812
0, 6, 64, 1407.94580078125
0, 6, 65, 1493.122314453125
0, 6, 66, 1507.046752929688
0, 6, 67, 1513.709716796875
0, 6, 68, 1546.797729492188
0, 6, 69, 1483.734375
0, 6, 70, 1522.774169921875
0, 6, 71, 1464.888305664062
0, 6, 72, 1598.13818359375
0, 6, 73, 1491.176513671875
0, 6, 74, 1560.781982421875
0, 6, 75, 1540.187744140625
0, 6, 76, 1564.467895507812
0, 6, 77, 1503.056518554688
0, 6, 78, 1447.932983398438
0, 6, 79, 1552.116088867188
0, 6, 80, 1482.807250976562
0, 6, 81, 1481.651977539062
0, 6, 82, 1503.871215820312
0, 6, 83, 1526.294921875
0, 6, 84, 1521.962524414062
0, 6, 85, 1535.044189453125
0, 6, 86, 1542.014892578125
0, 6, 87, 1573.345092773438
0, 6, 88, 1476.532470703125
0, 6, 89, 1562.878540039062
0, 6, 90, 1497.268920898438
0, 6, 91, 1546.106689453125
0, 6, 92, 1486.920532226562
0, 6, 93, 1496.42626953125
0, 6, 94, 1467.505737304688
0, 6, 95, 1505.200317382812
0, 6, 96, 1519.708129882812
0, 6, 97, 1504.928833007812
0, 6, 98, 1491.984619140625
0, 6, 99, 1487.022216796875
0, 6, 100, 1518.131469726562
0, 6, 101, 1515.736694335938
0, 6, 102, 1541.394775390625
0, 6, 103, 1498.581420898438
0, 6, 104, 1463.488159179688
0, 6, 105, 1485.572509765625
0, 6, 106, 1498.711791992188
0, 6, 107, 1500.6298828125
0, 6, 108, 1407.94580078125
0, 6, 109, 925.9254760742188
0, 6, 110, 287.1345825195312
0, 6, 111, 95.39761352539062
0, 6, 112, 76.83132934570312
0, 6, 113, 54.91928863525391
0, 6, 114, 52.51399993896484
0, 6, 115, 39.39279174804688
0, 6, 116, 43.30986404418945
0, 6, 117, 40.7646369934082
0, 6, 118, 39.18677139282227
0, 6, 119, 34.0046501159668
0, 6, 120, 32.07669448852539
0, 6, 121, 26.78366470336914
0, 6, 122, 31.61153411865234
0, 6, 123, 25.57792282104492
0, 6, 124, 35.19868087768555
0, 6, 125, 31.54764747619629
0, 6, 126, 21.04125785827637
0, 6, 127, 23.48522186279297
0, 7, 0, 23.00335121154785
0, 7, 1, 25.90509796142578
0, 7, 2, 18.16485977172852
0, 7, 3, 26.93365859985352
0, 7, 4, 22.13702964782715
0, 7, 5, 46.39712142944336
0, 7, 6, 34.6495361328125
0, 7, 7, 35.50130844116211
0, 7, 8, 31.23358345031738
0, 7, 9, 29.6846981048584
0, 7, 10, 47.7950325012207
0, 7, 11, 44.77000427246094
0, 7, 12, 44.76827621459961
0, 7, 13, 53.20417022705078
0, 7, 14, 68.31961822509766
0, 7, 15, 82.47200012207031
0, 7, 16, 132.7879791259766
0, 7, 17, 456.5192565917969
0, 7, 18, 1098.396728515625
0, 7, 19, 1504.989013671875
0, 7, 20, 1482.95751953125
0, 7, 21, 1364.13134765625
0, 7, 22, 1483.37109375
0, 7, 23, 1454.560424804688
0, 7, 24, 1505.879272460938
0, 7, 25, 1590.229736328125
0, 7, 26, 1512.41748046875
0, 7, 27, 1511.5654296875
0, 7, 28, 1547.131958007812
0, 7, 29, 1576.094482421875
0, 7, 30, 1547.162719726562
0, 7, 31, 1437.129760742188
0, 7, 32, 1539.959716796875
0, 7, 33, 1483.823120117188
0, 7, 34, 1480.320068359375
0, 7, 35, 1517.854125976562
0, 7, 36, 1473.3203125
0, 7, 37, 1604.198974609375
0, 7, 38, 1501.18701171875
0, 7, 39, 1491.280029296875
0, 7, 40, 1541.184204101562
0, 7, 41, 1466.125854492188
0, 7, 42, 1485.526245117188
0, 7, 43, 1441.233154296875
0, 7, 44, 1491.586303710938
0, 7, 45, 1467.714477539062
0, 7, 46, 1512.328369140625
0, 7, 47, 1567.994995117188
0, 7, 48, 1526.24755859375
0, 7, 49, 1533.396850585938
0, 7, 50, 1511.334228515625
0, 7, 51, 1494.71044921875
0, 7, 52, 1514.23828125
0, 7, 53, 1498.050659179688
0, 7, 54, 1586.671630859375
0, 7, 55, 1474.938354492188
0, 7, 56, 1551.655639648438
0, 7, 57, 1513.834350585938
0, 7, 58, 1546.680908203125
0, 7, 59, 1540.707397460938
0, 7, 60, 1551.610595703125
0, 7, 61, 1487.468994140625
0, 7, 62, 1434.928588867188
0, 7, 63, 1514.665771484375
0, 7, 64, 1543.106811523438
0, 7, 65, 1526.136108398438
0, 7, 66, 1540.139526367188
0, 7, 67, 1581.575439453125
0, 7, 68, 1531.8291015625
0, 7, 69, 1512.578857421875
0, 7, 70, 1493.584350585938
0, 7, 71, 1526.466186523438
0, 7, 72, 1523.467651367188
0, 7, 73, 1512.381469726562
0, 7, 74, 1572.175537109375
0, 7, 75, 1540.595703125
0, 7, 76, 1560.260009765625
0, 7, 77, 1515.366577148438
0, 7, 78, 1509.45068359375
0, 7, 79, 1428.552368164062
0, 7, 80, 1491.523803710938
0, 7, 81, 1490.990478515625
0, 7, 82, 1530.87060546875
0, 7, 83, 1542.068115234375
0, 7, 84, 1582.533325195312
0, 7, 85, 1477.3798828125
0, 7, 86, 1506.525146484375
0, 7, 87, 1506.799072265625
0, 7, 88, 1507.443237304688
0, 7, 89, 1556.388427734375
0, 7, 90, 1517.348388671875
0, 7, 91, 1562.216674804688
0, 7, 92, 1529.08642578125
0, 7, 93, 1552.682250976562
0, 7, 94, 1533.4443359375
0, 7, 95, 1506.230590820312
0, 7, 96, 1508.033935546875
0, 7, 97, 1440.102661132812
0, 7, 98, 1486.410278320312
0, 7, 99, 1524.427612304688
0, 7, 100, 1424.265747070312
0, 7, 101, 1467.703735351562
0, 7, 102, 1449.263916015625
0, 7, 103, 1429.158569335938
0, 7, 104, 1494.46142578125
0, 7, 105, 1524.810546875
0, 7, 106, 1569.130615234375
0, 7, 107, 1482.94775390625
0, 7, 108, 1410.83447265625
0, 7, 109, 1146.886840820312
0, 7, 110, 469.9187622070312
0, 7, 111, 129.7051086425781
0, 7, 112, 84.06941223144531
0, 7, 113, 68.95790100097656
0, 7, 114, 55.74490356445312
0, 7, 115, 45.80444717407227
0, 7, 116, 46.11211776733398
0, 7, 117, 46.12355804443359
0, 7, 118, 35.41633605957031
0, 7, 119, 34.52877426147461
0, 7, 120, 21.20684242248535
0, 7, 121, 32.04191970825195
0, 7, 122, 36.13512420654297
0, 7, 123, 28.67576599121094
0, 7, 124, 30.53042793273926
0, 7, 125, 21.37587356567383
0, 7, 126, 32.5586051940918
0, 7, 127, 19.46133422851562
0, 8, 0, 20.38607025146484
0, 8, 1, 21.79789924621582
0, 8, 2, 27.99378395080566
0, 8, 3, 27.85421752929688
0, 8, 4, 23.16264533996582
0, 8, 5, 30.20551872253418
0, 8, 6, 31.50054168701172
0, 8, 7, 31.39301872253418
0, 8, 8, 33.52910614013672
0, 8, 9, 48.74108123779297
0, 8, 10, 41.12649536132812
0, 8, 11, 44.34769821166992
0, 8, 12, 55.81152725219727
0, 8, 13, 79.36764526367188
0, 8, 14, 65.36515808105469
0, 8, 15, 88.11443328857422
0, 8, 16, 171.0606384277344
0, 8, 17, 676.267333984375
0, 8, 18, 1276.602661132812
0, 8, 19, 1440.465942382812
0, 8, 20, 1427.032592773438
0, 8, 21, 1408.174560546875
0, 8, 22, 1491.375244140625
0, 8, 23, 1484.008422851562
0, 8, 24, 1440.663452148438
0, 8, 25, 1461.719116210938
0, 8, 26, 1517.2958984375
0, 8, 27, 1518.705078125
0, 8, 28, 1476.246215820312
0, 8, 29, 1510.711669921875
0, 8, 30, 1490.674194335938
0, 8, 31, 1530.828491210938
0, 8, 32, 1512.747314453125
0, 8, 33, 1484.22998046875
0, 8, 34, 1535.642578125
0, 8, 35, 1438.984741210938
0, 8, 36, 1501.229736328125
0, 8, 37, 1555.568603515625
0, 8, 38, 1559.236328125
0, 8, 39, 1490.537841796875
0, 8, 40, 1530.540283203125
0, 8, 41, 1484.405395507812
0, 8, 42, 1538.842651367188
0, 8, 43, 1434.900512695312
0, 8, 44, 1535.684692382812
0, 8, 45, 1519.543334960938
0, 8, 46, 1597.130859375
0, 8, 47, 1585.225708007812
