# TOPAS Version: 3.1.p3
# Parameter File: batch_inserts_292.txt
# Results for scorer Readout_Adipose
# Scored in component: MyBox
# X in 1 bin  of 0.75 cm
# Y in 512 bins of 0.0783984 cm
# Z in 128 bins of 0.078125 cm
# EnergyDeposit ( MeV ) : Sum   
0, 0, 0, 23.71806335449219
0, 0, 1, 21.17302322387695
0, 0, 2, 23.47171401977539
0, 0, 3, 24.51559829711914
0, 0, 4, 19.03466987609863
0, 0, 5, 21.20331764221191
0, 0, 6, 26.31639099121094
0, 0, 7, 33.10121536254883
0, 0, 8, 25.72867584228516
0, 0, 9, 23.58039283752441
0, 0, 10, 27.60591697692871
0, 0, 11, 28.44734954833984
0, 0, 12, 33.66313934326172
0, 0, 13, 31.28142738342285
0, 0, 14, 35.63789749145508
0, 0, 15, 49.26160430908203
0, 0, 16, 44.82099914550781
0, 0, 17, 47.32643890380859
0, 0, 18, 73.53299713134766
0, 0, 19, 188.3486785888672
0, 0, 20, 703.327392578125
0, 0, 21, 1189.313842773438
0, 0, 22, 1248.330322265625
0, 0, 23, 1276.611572265625
0, 0, 24, 1280.581176757812
0, 0, 25, 1358.6591796875
0, 0, 26, 1270.517822265625
0, 0, 27, 1279.329467773438
0, 0, 28, 1319.621948242188
0, 0, 29, 1268.318725585938
0, 0, 30, 1263.921264648438
0, 0, 31, 1279.34912109375
0, 0, 32, 1266.970092773438
0, 0, 33, 1243.123168945312
0, 0, 34, 1325.481567382812
0, 0, 35, 1303.440063476562
0, 0, 36, 1246.863891601562
0, 0, 37, 1282.204345703125
0, 0, 38, 1250.844604492188
0, 0, 39, 1241.99853515625
0, 0, 40, 1222.033325195312
0, 0, 41, 1271.332641601562
0, 0, 42, 1250.890502929688
0, 0, 43, 1268.819091796875
0, 0, 44, 1224.67431640625
0, 0, 45, 1291.200927734375
0, 0, 46, 1261.494262695312
0, 0, 47, 1239.439453125
0, 0, 48, 1277.92724609375
0, 0, 49, 1289.453491210938
0, 0, 50, 1308.031372070312
0, 0, 51, 1261.0625
0, 0, 52, 1357.126342773438
0, 0, 53, 1324.478271484375
0, 0, 54, 1300.3779296875
0, 0, 55, 1228.271118164062
0, 0, 56, 1316.681640625
0, 0, 57, 1291.971557617188
0, 0, 58, 1255.179931640625
0, 0, 59, 1330.876953125
0, 0, 60, 1326.502197265625
0, 0, 61, 1262.28759765625
0, 0, 62, 1242.328002929688
0, 0, 63, 1276.199584960938
0, 0, 64, 1328.620361328125
0, 0, 65, 1287.448486328125
0, 0, 66, 1318.98583984375
0, 0, 67, 1216.566040039062
0, 0, 68, 1308.7236328125
0, 0, 69, 1325.29052734375
0, 0, 70, 1342.542602539062
0, 0, 71, 1284.137451171875
0, 0, 72, 1315.06787109375
0, 0, 73, 1240.291259765625
0, 0, 74, 1290.904663085938
0, 0, 75, 1293.41845703125
0, 0, 76, 1256.839111328125
0, 0, 77, 1286.930908203125
0, 0, 78, 1317.522827148438
0, 0, 79, 1327.980712890625
0, 0, 80, 1260.12451171875
0, 0, 81, 1321.863525390625
0, 0, 82, 1291.478759765625
0, 0, 83, 1293.386596679688
0, 0, 84, 1330.638305664062
0, 0, 85, 1232.403686523438
0, 0, 86, 1265.4892578125
0, 0, 87, 1251.055908203125
0, 0, 88, 1258.295043945312
0, 0, 89, 1333.747192382812
0, 0, 90, 1281.235961914062
0, 0, 91, 1353.470458984375
0, 0, 92, 1308.23486328125
0, 0, 93, 1277.617553710938
0, 0, 94, 1246.575073242188
0, 0, 95, 1329.300170898438
0, 0, 96, 1283.103881835938
0, 0, 97, 1324.416625976562
0, 0, 98, 1262.847534179688
0, 0, 99, 1249.562377929688
0, 0, 100, 1291.35498046875
0, 0, 101, 1314.295654296875
0, 0, 102, 1236.113403320312
0, 0, 103, 1321.70947265625
0, 0, 104, 1261.5458984375
0, 0, 105, 1267.763916015625
0, 0, 106, 1207.815185546875
0, 0, 107, 782.4121704101562
0, 0, 108, 194.1442565917969
0, 0, 109, 68.92609405517578
0, 0, 110, 62.26484298706055
0, 0, 111, 38.67253494262695
0, 0, 112, 35.46186065673828
0, 0, 113, 34.80007171630859
0, 0, 114, 35.45528411865234
0, 0, 115, 36.17485046386719
0, 0, 116, 27.7731990814209
0, 0, 117, 32.45956420898438
0, 0, 118, 25.03063774108887
0, 0, 119, 21.17824554443359
0, 0, 120, 24.93823623657227
0, 0, 121, 27.83049964904785
0, 0, 122, 21.54971122741699
0, 0, 123, 20.54568481445312
0, 0, 124, 18.33535385131836
0, 0, 125, 17.60404014587402
0, 0, 126, 26.59054183959961
0, 0, 127, 13.53938865661621
0, 1, 0, 21.96867942810059
0, 1, 1, 22.81047821044922
0, 1, 2, 23.7361011505127
0, 1, 3, 22.69355964660645
0, 1, 4, 19.68401336669922
0, 1, 5, 23.47367858886719
0, 1, 6, 20.79217338562012
0, 1, 7, 27.74336051940918
0, 1, 8, 39.06350326538086
0, 1, 9, 33.5916748046875
0, 1, 10, 33.12099075317383
0, 1, 11, 41.27163696289062
0, 1, 12, 37.91749572753906
0, 1, 13, 44.29071807861328
0, 1, 14, 42.96602249145508
0, 1, 15, 45.81021881103516
0, 1, 16, 57.63332366943359
0, 1, 17, 58.82800674438477
0, 1, 18, 99.37388610839844
0, 1, 19, 404.3813171386719
0, 1, 20, 1043.682983398438
0, 1, 21, 1370.32470703125
0, 1, 22, 1478.020629882812
0, 1, 23, 1465.056884765625
0, 1, 24, 1449.881225585938
0, 1, 25, 1421.515747070312
0, 1, 26, 1476.874633789062
0, 1, 27, 1465.95947265625
0, 1, 28, 1493.241333007812
0, 1, 29, 1478.598388671875
0, 1, 30, 1511.977416992188
0, 1, 31, 1486.558471679688
0, 1, 32, 1410.151123046875
0, 1, 33, 1496.923828125
0, 1, 34, 1499.165405273438
0, 1, 35, 1461.278686523438
0, 1, 36, 1490.321166992188
0, 1, 37, 1409.017578125
0, 1, 38, 1391.021728515625
0, 1, 39, 1528.976684570312
0, 1, 40, 1459.883178710938
0, 1, 41, 1489.725219726562
0, 1, 42, 1494.24462890625
0, 1, 43, 1499.491821289062
0, 1, 44, 1451.299438476562
0, 1, 45, 1484.495849609375
0, 1, 46, 1420.771240234375
0, 1, 47, 1436.606201171875
0, 1, 48, 1428.986938476562
0, 1, 49, 1483.463134765625
0, 1, 50, 1440.718383789062
0, 1, 51, 1468.027221679688
0, 1, 52, 1478.691772460938
0, 1, 53, 1473.257446289062
0, 1, 54, 1504.332885742188
0, 1, 55, 1500.439575195312
0, 1, 56, 1475.23828125
0, 1, 57, 1456.60009765625
0, 1, 58, 1433.132568359375
0, 1, 59, 1480.186889648438
0, 1, 60, 1464.0107421875
0, 1, 61, 1451.418579101562
0, 1, 62, 1454.473388671875
0, 1, 63, 1420.709228515625
0, 1, 64, 1475.207763671875
0, 1, 65, 1416.434814453125
0, 1, 66, 1440.354858398438
0, 1, 67, 1457.384765625
0, 1, 68, 1389.245483398438
0, 1, 69, 1464.435424804688
0, 1, 70, 1429.527587890625
0, 1, 71, 1499.684814453125
0, 1, 72, 1431.123413085938
0, 1, 73, 1492.754638671875
0, 1, 74, 1465.510375976562
0, 1, 75, 1474.048461914062
0, 1, 76, 1457.09326171875
0, 1, 77, 1462.052978515625
0, 1, 78, 1451.745727539062
0, 1, 79, 1501.269409179688
0, 1, 80, 1445.943115234375
0, 1, 81, 1425.209838867188
0, 1, 82, 1472.19873046875
0, 1, 83, 1460.484130859375
0, 1, 84, 1536.650756835938
0, 1, 85, 1447.13134765625
0, 1, 86, 1404.4169921875
0, 1, 87, 1421.11474609375
0, 1, 88, 1471.106201171875
0, 1, 89, 1475.024169921875
0, 1, 90, 1428.081420898438
0, 1, 91, 1459.678588867188
0, 1, 92, 1414.573974609375
0, 1, 93, 1465.422973632812
0, 1, 94, 1466.960815429688
0, 1, 95, 1420.224365234375
0, 1, 96, 1492.247436523438
0, 1, 97, 1512.786987304688
0, 1, 98, 1479.00390625
0, 1, 99, 1420.972778320312
0, 1, 100, 1445.47314453125
0, 1, 101, 1415.288696289062
0, 1, 102, 1438.679443359375
0, 1, 103, 1416.40625
0, 1, 104, 1405.242431640625
0, 1, 105, 1462.860595703125
0, 1, 106, 1364.8779296875
0, 1, 107, 1020.678283691406
0, 1, 108, 405.9459533691406
0, 1, 109, 93.79832458496094
0, 1, 110, 62.55426788330078
0, 1, 111, 55.58083343505859
0, 1, 112, 47.99649429321289
0, 1, 113, 37.27447128295898
0, 1, 114, 36.93314361572266
0, 1, 115, 38.48211669921875
0, 1, 116, 34.55842590332031
0, 1, 117, 37.95095443725586
0, 1, 118, 39.51234817504883
0, 1, 119, 36.10775756835938
0, 1, 120, 29.87081909179688
0, 1, 121, 23.16946411132812
0, 1, 122, 22.21916961669922
0, 1, 123, 21.67098617553711
0, 1, 124, 30.99945259094238
0, 1, 125, 15.77002048492432
0, 1, 126, 14.8679895401001
0, 1, 127, 21.69852256774902
0, 2, 0, 24.20530700683594
0, 2, 1, 20.11004447937012
0, 2, 2, 27.81816291809082
0, 2, 3, 20.84417724609375
0, 2, 4, 23.09495735168457
0, 2, 5, 21.03648376464844
0, 2, 6, 21.71710777282715
0, 2, 7, 21.50149536132812
0, 2, 8, 24.88230514526367
0, 2, 9, 27.91629981994629
0, 2, 10, 29.74255561828613
0, 2, 11, 33.77039337158203
0, 2, 12, 40.15705871582031
0, 2, 13, 45.07442474365234
0, 2, 14, 49.5455436706543
0, 2, 15, 44.69887161254883
0, 2, 16, 60.79522323608398
0, 2, 17, 75.30551147460938
0, 2, 18, 148.3470764160156
0, 2, 19, 608.0211181640625
0, 2, 20, 1280.607543945312
0, 2, 21, 1436.264404296875
0, 2, 22, 1450.27392578125
0, 2, 23, 1405.064208984375
0, 2, 24, 1442.565063476562
0, 2, 25, 1519.884765625
0, 2, 26, 1556.008422851562
0, 2, 27, 1453.559204101562
0, 2, 28, 1457.772338867188
0, 2, 29, 1461.388305664062
0, 2, 30, 1464.95751953125
0, 2, 31, 1539.4775390625
0, 2, 32, 1508.634887695312
0, 2, 33, 1443.571166992188
0, 2, 34, 1470.32861328125
0, 2, 35, 1469.887329101562
0, 2, 36, 1527.073852539062
0, 2, 37, 1540.599365234375
0, 2, 38, 1503.05224609375
0, 2, 39, 1462.392822265625
0, 2, 40, 1499.748779296875
0, 2, 41, 1515.203002929688
0, 2, 42, 1506.119873046875
0, 2, 43, 1545.728393554688
0, 2, 44, 1455.358764648438
0, 2, 45, 1482.0029296875
0, 2, 46, 1429.420654296875
0, 2, 47, 1450.3623046875
0, 2, 48, 1398.821044921875
0, 2, 49, 1466.07177734375
0, 2, 50, 1445.46240234375
0, 2, 51, 1448.688842773438
0, 2, 52, 1494.395263671875
0, 2, 53, 1521.952514648438
0, 2, 54, 1524.505737304688
0, 2, 55, 1490.339599609375
0, 2, 56, 1467.835327148438
0, 2, 57, 1415.383422851562
0, 2, 58, 1457.558715820312
0, 2, 59, 1448.69873046875
0, 2, 60, 1472.591674804688
0, 2, 61, 1450.743530273438
0, 2, 62, 1470.543701171875
0, 2, 63, 1502.284423828125
0, 2, 64, 1455.462768554688
0, 2, 65, 1427.710693359375
0, 2, 66, 1485.346923828125
0, 2, 67, 1503.281616210938
0, 2, 68, 1536.918090820312
0, 2, 69, 1541.713745117188
0, 2, 70, 1509.994384765625
0, 2, 71, 1458.982421875
0, 2, 72, 1517.546997070312
0, 2, 73, 1522.609375
0, 2, 74, 1491.581420898438
0, 2, 75, 1505.371826171875
0, 2, 76, 1449.610961914062
0, 2, 77, 1506.468505859375
0, 2, 78, 1428.462768554688
0, 2, 79, 1537.516845703125
0, 2, 80, 1477.40087890625
0, 2, 81, 1463.813720703125
0, 2, 82, 1561.547119140625
0, 2, 83, 1517.646606445312
0, 2, 84, 1492.776489257812
0, 2, 85, 1515.133911132812
0, 2, 86, 1544.359375
0, 2, 87, 1483.797485351562
0, 2, 88, 1538.109741210938
0, 2, 89, 1461.138305664062
0, 2, 90, 1430.2939453125
0, 2, 91, 1402.59326171875
0, 2, 92, 1477.685791015625
0, 2, 93, 1497.476440429688
0, 2, 94, 1449.338012695312
0, 2, 95, 1542.861083984375
0, 2, 96, 1514.357055664062
0, 2, 97, 1458.738159179688
0, 2, 98, 1466.443603515625
0, 2, 99, 1409.263549804688
0, 2, 100, 1468.578369140625
0, 2, 101, 1479.690307617188
0, 2, 102, 1465.489990234375
0, 2, 103, 1391.169677734375
0, 2, 104, 1410.491577148438
0, 2, 105, 1395.432006835938
0, 2, 106, 1458.090087890625
0, 2, 107, 1272.197143554688
0, 2, 108, 620.0721435546875
0, 2, 109, 173.1248321533203
0, 2, 110, 70.28165435791016
0, 2, 111, 61.82719802856445
0, 2, 112, 41.1287727355957
0, 2, 113, 48.98995971679688
0, 2, 114, 37.39138793945312
0, 2, 115, 41.00780487060547
0, 2, 116, 37.10292816162109
0, 2, 117, 34.90651702880859
0, 2, 118, 25.97274017333984
0, 2, 119, 28.79709243774414
0, 2, 120, 30.66572570800781
0, 2, 121, 21.29878997802734
0, 2, 122, 28.69669342041016
0, 2, 123, 24.9963436126709
0, 2, 124, 23.59746932983398
0, 2, 125, 30.61398506164551
0, 2, 126, 18.60634422302246
0, 2, 127, 24.85873031616211
0, 3, 0, 15.18977165222168
0, 3, 1, 22.92193603515625
0, 3, 2, 16.13044166564941
0, 3, 3, 21.51956558227539
0, 3, 4, 15.88862800598145
0, 3, 5, 20.48365592956543
0, 3, 6, 31.63124656677246
0, 3, 7, 27.60878753662109
0, 3, 8, 27.12445449829102
0, 3, 9, 28.32219123840332
0, 3, 10, 35.60276412963867
0, 3, 11, 38.90531158447266
0, 3, 12, 38.92107772827148
0, 3, 13, 50.34923553466797
0, 3, 14, 58.18156814575195
0, 3, 15, 61.79689788818359
0, 3, 16, 67.79550933837891
0, 3, 17, 92.80393981933594
0, 3, 18, 239.8675079345703
0, 3, 19, 880.8924560546875
0, 3, 20, 1385.75732421875
0, 3, 21, 1512.256591796875
0, 3, 22, 1458.21728515625
0, 3, 23, 1455.189697265625
0, 3, 24, 1441.641235351562
0, 3, 25, 1463.383056640625
0, 3, 26, 1494.334228515625
0, 3, 27, 1471.32666015625
0, 3, 28, 1493.343627929688
0, 3, 29, 1546.078857421875
0, 3, 30, 1569.763916015625
0, 3, 31, 1511.85400390625
0, 3, 32, 1547.4375
0, 3, 33, 1542.865112304688
0, 3, 34, 1490.543334960938
0, 3, 35, 1462.8623046875
0, 3, 36, 1448.615478515625
0, 3, 37, 1517.118041992188
0, 3, 38, 1514.718627929688
0, 3, 39, 1433.746337890625
0, 3, 40, 1442.2919921875
0, 3, 41, 1563.989990234375
0, 3, 42, 1459.4658203125
0, 3, 43, 1454.944213867188
0, 3, 44, 1455.088256835938
0, 3, 45, 1510.22265625
0, 3, 46, 1506.669555664062
0, 3, 47, 1440.007080078125
0, 3, 48, 1510.076904296875
0, 3, 49, 1450.624755859375
0, 3, 50, 1493.482421875
0, 3, 51, 1543.959716796875
0, 3, 52, 1541.013671875
0, 3, 53, 1471.682983398438
0, 3, 54, 1534.765014648438
0, 3, 55, 1509.049682617188
0, 3, 56, 1434.035522460938
0, 3, 57, 1499.835205078125
0, 3, 58, 1519.172241210938
0, 3, 59, 1511.49609375
0, 3, 60, 1536.806640625
0, 3, 61, 1482.222045898438
0, 3, 62, 1492.920776367188
0, 3, 63, 1492.011108398438
0, 3, 64, 1500.5517578125
0, 3, 65, 1514.460571289062
0, 3, 66, 1553.821411132812
0, 3, 67, 1543.114624023438
0, 3, 68, 1447.582275390625
0, 3, 69, 1469.65185546875
0, 3, 70, 1387.693115234375
0, 3, 71, 1463.511352539062
0, 3, 72, 1545.441650390625
0, 3, 73, 1502.579467773438
0, 3, 74, 1470.374389648438
0, 3, 75, 1463.975341796875
0, 3, 76, 1574.472290039062
0, 3, 77, 1544.022827148438
0, 3, 78, 1426.531982421875
0, 3, 79, 1493.1064453125
0, 3, 80, 1470.061645507812
0, 3, 81, 1472.232299804688
0, 3, 82, 1551.403442382812
0, 3, 83, 1511.886108398438
0, 3, 84, 1566.214965820312
0, 3, 85, 1480.9970703125
0, 3, 86, 1524.745361328125
0, 3, 87, 1540.699829101562
0, 3, 88, 1457.66455078125
0, 3, 89, 1454.1015625
0, 3, 90, 1451.465454101562
0, 3, 91, 1417.821044921875
0, 3, 92, 1511.4814453125
0, 3, 93, 1502.412963867188
0, 3, 94, 1516.525146484375
0, 3, 95, 1542.017700195312
0, 3, 96, 1512.366088867188
0, 3, 97, 1465.094848632812
0, 3, 98, 1429.4462890625
0, 3, 99, 1468.673583984375
0, 3, 100, 1469.053466796875
0, 3, 101, 1472.126953125
0, 3, 102, 1520.694580078125
0, 3, 103, 1554.0673828125
0, 3, 104, 1501.870483398438
0, 3, 105, 1517.0634765625
0, 3, 106, 1480.909790039062
0, 3, 107, 1338.795166015625
0, 3, 108, 872.0545043945312
0, 3, 109, 264.9263610839844
0, 3, 110, 102.0164566040039
0, 3, 111, 68.18132019042969
0, 3, 112, 54.83393096923828
0, 3, 113, 55.45493316650391
0, 3, 114, 52.68399810791016
0, 3, 115, 46.45406723022461
0, 3, 116, 37.65798568725586
0, 3, 117, 36.99528121948242
0, 3, 118, 40.88623809814453
0, 3, 119, 25.27656173706055
0, 3, 120, 32.39544677734375
0, 3, 121, 23.0469970703125
0, 3, 122, 26.19503021240234
0, 3, 123, 23.41788482666016
0, 3, 124, 19.7773494720459
0, 3, 125, 26.16237831115723
0, 3, 126, 24.62914848327637
0, 3, 127, 20.04696655273438
0, 4, 0, 20.8634204864502
0, 4, 1, 24.40397644042969
0, 4, 2, 19.34622383117676
0, 4, 3, 19.88427352905273
0, 4, 4, 28.19915771484375
0, 4, 5, 31.85927772521973
0, 4, 6, 32.66268920898438
0, 4, 7, 29.36917114257812
0, 4, 8, 25.64078712463379
0, 4, 9, 34.39109802246094
0, 4, 10, 30.36750221252441
0, 4, 11, 40.25685501098633
0, 4, 12, 47.15255355834961
0, 4, 13, 51.46481704711914
0, 4, 14, 48.31886291503906
0, 4, 15, 62.80061721801758
0, 4, 16, 77.00032043457031
0, 4, 17, 111.4687423706055
0, 4, 18, 445.0109252929688
0, 4, 19, 1177.3134765625
0, 4, 20, 1445.348999023438
0, 4, 21, 1425.61669921875
0, 4, 22, 1437.676025390625
0, 4, 23, 1449.407592773438
0, 4, 24, 1478.109741210938
0, 4, 25, 1399.28076171875
0, 4, 26, 1538.474243164062
0, 4, 27, 1542.95361328125
0, 4, 28, 1511.502075195312
0, 4, 29, 1511.862548828125
0, 4, 30, 1520.747802734375
0, 4, 31, 1576.140380859375
0, 4, 32, 1518.37109375
0, 4, 33, 1493.883178710938
0, 4, 34, 1468.228759765625
0, 4, 35, 1558.691284179688
0, 4, 36, 1506.179809570312
0, 4, 37, 1509.901245117188
0, 4, 38, 1528.2841796875
0, 4, 39, 1470.324462890625
0, 4, 40, 1514.16259765625
0, 4, 41, 1584.594970703125
0, 4, 42, 1563.121215820312
0, 4, 43, 1467.412841796875
0, 4, 44, 1495.262084960938
0, 4, 45, 1518.3525390625
0, 4, 46, 1471.78662109375
0, 4, 47, 1505.114135742188
0, 4, 48, 1531.89111328125
0, 4, 49, 1471.56396484375
0, 4, 50, 1516.998046875
0, 4, 51, 1489.167846679688
0, 4, 52, 1496.818603515625
0, 4, 53, 1457.01708984375
0, 4, 54, 1441.92236328125
0, 4, 55, 1527.956909179688
0, 4, 56, 1450.4130859375
0, 4, 57, 1497.277954101562
0, 4, 58, 1459.085083007812
0, 4, 59, 1462.335571289062
0, 4, 60, 1527.061889648438
0, 4, 61, 1500.530151367188
0, 4, 62, 1506.176391601562
0, 4, 63, 1546.540649414062
0, 4, 64, 1590.293701171875
0, 4, 65, 1423.69140625
0, 4, 66, 1513.9375
0, 4, 67, 1517.701293945312
0, 4, 68, 1494.751953125
0, 4, 69, 1465.290771484375
0, 4, 70, 1545.984497070312
0, 4, 71, 1520.392211914062
0, 4, 72, 1536.691528320312
0, 4, 73, 1497.43115234375
0, 4, 74, 1485.753540039062
0, 4, 75, 1534.051025390625
0, 4, 76, 1478.3564453125
0, 4, 77, 1501.463500976562
0, 4, 78, 1500.01904296875
0, 4, 79, 1481.606323242188
0, 4, 80, 1518.72607421875
0, 4, 81, 1524.5986328125
0, 4, 82, 1569.261474609375
0, 4, 83, 1504.285766601562
0, 4, 84, 1540.9462890625
0, 4, 85, 1553.26953125
0, 4, 86, 1526.89404296875
0, 4, 87, 1496.420776367188
0, 4, 88, 1516.71630859375
0, 4, 89, 1481.48486328125
0, 4, 90, 1548.245239257812
0, 4, 91, 1550.611328125
0, 4, 92, 1491.874145507812
0, 4, 93, 1520.408569335938
0, 4, 94, 1480.807250976562
0, 4, 95, 1513.708618164062
0, 4, 96, 1442.796264648438
0, 4, 97, 1410.102905273438
0, 4, 98, 1552.256958007812
0, 4, 99, 1511.857666015625
0, 4, 100, 1491.489013671875
0, 4, 101, 1451.215698242188
0, 4, 102, 1450.742309570312
0, 4, 103, 1513.453247070312
0, 4, 104, 1512.281616210938
0, 4, 105, 1557.230346679688
0, 4, 106, 1474.447387695312
0, 4, 107, 1458.178955078125
0, 4, 108, 1118.799560546875
0, 4, 109, 439.8476867675781
0, 4, 110, 100.9592056274414
0, 4, 111, 67.57078552246094
0, 4, 112, 61.61930847167969
0, 4, 113, 52.21796035766602
0, 4, 114, 58.15411376953125
0, 4, 115, 42.97212982177734
0, 4, 116, 37.28294372558594
0, 4, 117, 38.00819778442383
0, 4, 118, 46.34170532226562
0, 4, 119, 41.73662948608398
0, 4, 120, 32.60475158691406
0, 4, 121, 25.06140327453613
0, 4, 122, 33.0833854675293
0, 4, 123, 25.76786613464355
0, 4, 124, 20.97227668762207
0, 4, 125, 29.5690803527832
0, 4, 126, 23.84539604187012
0, 4, 127, 22.10421943664551
0, 5, 0, 21.03783798217773
0, 5, 1, 22.88663482666016
0, 5, 2, 33.27865600585938
0, 5, 3, 24.67091751098633
0, 5, 4, 21.4303092956543
0, 5, 5, 36.20918655395508
0, 5, 6, 32.3150749206543
0, 5, 7, 28.6977710723877
0, 5, 8, 30.41368865966797
0, 5, 9, 33.10038757324219
0, 5, 10, 34.59625244140625
0, 5, 11, 36.68680191040039
0, 5, 12, 41.24448776245117
0, 5, 13, 43.62458419799805
0, 5, 14, 64.17503356933594
0, 5, 15, 76.70881652832031
0, 5, 16, 82.04259490966797
0, 5, 17, 156.7372741699219
0, 5, 18, 672.8465576171875
0, 5, 19, 1349.526733398438
0, 5, 20, 1525.742431640625
0, 5, 21, 1495.859008789062
0, 5, 22, 1495.40576171875
0, 5, 23, 1529.320434570312
0, 5, 24, 1465.755004882812
0, 5, 25, 1429.23779296875
0, 5, 26, 1534.45849609375
0, 5, 27, 1542.587890625
0, 5, 28, 1490.754516601562
0, 5, 29, 1524.672485351562
0, 5, 30, 1495.19921875
0, 5, 31, 1497.013793945312
0, 5, 32, 1594.822998046875
0, 5, 33, 1504.49169921875
0, 5, 34, 1490.550048828125
0, 5, 35, 1510.914794921875
0, 5, 36, 1441.9609375
0, 5, 37, 1529.4345703125
0, 5, 38, 1549.775024414062
0, 5, 39, 1553.036254882812
0, 5, 40, 1499.832885742188
0, 5, 41, 1478.658813476562
0, 5, 42, 1543.907470703125
0, 5, 43, 1535.439086914062
0, 5, 44, 1541.465209960938
0, 5, 45, 1511.610595703125
0, 5, 46, 1492.047973632812
0, 5, 47, 1480.6591796875
0, 5, 48, 1498.658325195312
0, 5, 49, 1526.57080078125
0, 5, 50, 1500.030517578125
0, 5, 51, 1516.10107421875
0, 5, 52, 1426.776489257812
0, 5, 53, 1523.705688476562
0, 5, 54, 1518.87451171875
0, 5, 55, 1522.703369140625
0, 5, 56, 1488.359375
0, 5, 57, 1544.327514648438
0, 5, 58, 1505.160034179688
0, 5, 59, 1487.820434570312
0, 5, 60, 1540.785034179688
0, 5, 61, 1450.961791992188
0, 5, 62, 1584.783325195312
0, 5, 63, 1438.234375
0, 5, 64, 1488.140502929688
0, 5, 65, 1467.961303710938
0, 5, 66, 1526.672485351562
0, 5, 67, 1560.948120117188
0, 5, 68, 1466.224731445312
0, 5, 69, 1479.876708984375
0, 5, 70, 1489.4658203125
0, 5, 71, 1475.165771484375
0, 5, 72, 1537.148315429688
0, 5, 73, 1463.234619140625
0, 5, 74, 1492.162109375
0, 5, 75, 1487.136352539062
0, 5, 76, 1482.582641601562
0, 5, 77, 1523.363525390625
0, 5, 78, 1526.231567382812
0, 5, 79, 1511.50244140625
0, 5, 80, 1513.288940429688
0, 5, 81, 1598.331665039062
0, 5, 82, 1526.819458007812
0, 5, 83, 1489.635620117188
0, 5, 84, 1531.54443359375
0, 5, 85, 1511.518432617188
0, 5, 86, 1554.492797851562
0, 5, 87, 1471.10888671875
0, 5, 88, 1499.487915039062
0, 5, 89, 1486.498779296875
0, 5, 90, 1479.92041015625
0, 5, 91, 1548.938232421875
0, 5, 92, 1484.121459960938
0, 5, 93, 1560.22509765625
0, 5, 94, 1509.685668945312
0, 5, 95, 1563.7490234375
0, 5, 96, 1503.29833984375
0, 5, 97, 1510.38916015625
0, 5, 98, 1514.272827148438
0, 5, 99, 1546.084594726562
0, 5, 100, 1435.625244140625
0, 5, 101, 1433.654418945312
0, 5, 102, 1511.505004882812
0, 5, 103, 1473.37060546875
0, 5, 104, 1456.08642578125
0, 5, 105, 1496.803833007812
0, 5, 106, 1458.57275390625
0, 5, 107, 1400.416748046875
0, 5, 108, 1292.3828125
0, 5, 109, 722.7219848632812
0, 5, 110, 193.1023254394531
0, 5, 111, 85.26911926269531
0, 5, 112, 85.72411346435547
0, 5, 113, 64.00710296630859
0, 5, 114, 57.20112991333008
0, 5, 115, 56.17219161987305
0, 5, 116, 40.57877349853516
0, 5, 117, 36.93343734741211
0, 5, 118, 34.66371917724609
0, 5, 119, 27.75869178771973
0, 5, 120, 28.64480781555176
0, 5, 121, 27.91748046875
0, 5, 122, 30.71501159667969
0, 5, 123, 29.41965484619141
0, 5, 124, 24.80150985717773
0, 5, 125, 27.70572471618652
0, 5, 126, 23.01485252380371
0, 5, 127, 24.20506858825684
0, 6, 0, 24.98372077941895
0, 6, 1, 31.11785125732422
0, 6, 2, 28.22222709655762
0, 6, 3, 27.22244834899902
0, 6, 4, 22.28114891052246
0, 6, 5, 36.60874176025391
0, 6, 6, 31.42590713500977
0, 6, 7, 38.06702041625977
0, 6, 8, 34.05217361450195
0, 6, 9, 33.87739562988281
0, 6, 10, 36.63700866699219
0, 6, 11, 36.62157821655273
0, 6, 12, 39.41658782958984
0, 6, 13, 57.61344146728516
0, 6, 14, 66.21612548828125
0, 6, 15, 83.23269653320312
0, 6, 16, 116.6529846191406
0, 6, 17, 301.3912658691406
0, 6, 18, 904.0947875976562
0, 6, 19, 1377.016357421875
0, 6, 20, 1442.807861328125
0, 6, 21, 1532.410278320312
0, 6, 22, 1505.249633789062
0, 6, 23, 1525.175537109375
0, 6, 24, 1480.067016601562
0, 6, 25, 1527.922119140625
0, 6, 26, 1516.063354492188
0, 6, 27, 1520.685180664062
0, 6, 28, 1555.010009765625
0, 6, 29, 1580.116577148438
0, 6, 30, 1514.30517578125
0, 6, 31, 1494.990234375
0, 6, 32, 1525.971435546875
0, 6, 33, 1488.81982421875
0, 6, 34, 1560.381225585938
0, 6, 35, 1499.435791015625
0, 6, 36, 1438.1474609375
0, 6, 37, 1542.801147460938
0, 6, 38, 1521.810302734375
0, 6, 39, 1523.070678710938
0, 6, 40, 1461.284301757812
0, 6, 41, 1449.401977539062
0, 6, 42, 1510.72021484375
0, 6, 43, 1487.673706054688
0, 6, 44, 1429.114624023438
0, 6, 45, 1545.094848632812
0, 6, 46, 1549.885864257812
0, 6, 47, 1496.721069335938
0, 6, 48, 1526.168579101562
0, 6, 49, 1512.676025390625
0, 6, 50, 1579.84521484375
0, 6, 51, 1505.072998046875
0, 6, 52, 1567.208374023438
0, 6, 53, 1472.271484375
0, 6, 54, 1495.21337890625
0, 6, 55, 1574.6533203125
0, 6, 56, 1520.608520507812
0, 6, 57, 1502.161376953125
0, 6, 58, 1467.312866210938
0, 6, 59, 1522.765991210938
0, 6, 60, 1472.956665039062
0, 6, 61, 1571.518676757812
0, 6, 62, 1549.42724609375
0, 6, 63, 1498.50830078125
0, 6, 64, 1412.365600585938
0, 6, 65, 1493.644897460938
0, 6, 66, 1507.6689453125
0, 6, 67, 1511.962280273438
0, 6, 68, 1545.8974609375
0, 6, 69, 1483.851318359375
0, 6, 70, 1527.796142578125
0, 6, 71, 1473.307861328125
0, 6, 72, 1590.717407226562
0, 6, 73, 1488.874877929688
0, 6, 74, 1556.800048828125
0, 6, 75, 1537.713745117188
0, 6, 76, 1566.3095703125
0, 6, 77, 1507.893432617188
0, 6, 78, 1449.404174804688
0, 6, 79, 1555.497192382812
0, 6, 80, 1484.817993164062
0, 6, 81, 1483.634399414062
0, 6, 82, 1508.483032226562
0, 6, 83, 1525.876098632812
0, 6, 84, 1522.173095703125
0, 6, 85, 1538.030517578125
0, 6, 86, 1540.582275390625
0, 6, 87, 1569.471801757812
0, 6, 88, 1475.856079101562
0, 6, 89, 1568.349609375
0, 6, 90, 1492.941162109375
0, 6, 91, 1539.130615234375
0, 6, 92, 1482.602294921875
0, 6, 93, 1497.480346679688
0, 6, 94, 1469.337524414062
0, 6, 95, 1508.573852539062
0, 6, 96, 1520.811157226562
0, 6, 97, 1504.330322265625
0, 6, 98, 1494.944213867188
0, 6, 99, 1477.526000976562
0, 6, 100, 1522.0693359375
0, 6, 101, 1514.140869140625
0, 6, 102, 1541.624389648438
0, 6, 103, 1502.175048828125
0, 6, 104, 1458.072021484375
0, 6, 105, 1485.089965820312
0, 6, 106, 1498.558715820312
0, 6, 107, 1508.029541015625
0, 6, 108, 1407.452880859375
0, 6, 109, 929.8187866210938
0, 6, 110, 283.9796142578125
0, 6, 111, 97.53208923339844
0, 6, 112, 80.14580535888672
0, 6, 113, 59.3845329284668
0, 6, 114, 57.95293045043945
0, 6, 115, 44.5124397277832
0, 6, 116, 43.55719757080078
0, 6, 117, 37.82765579223633
0, 6, 118, 37.72109222412109
0, 6, 119, 32.64888381958008
0, 6, 120, 32.28337097167969
0, 6, 121, 28.23044776916504
0, 6, 122, 24.99432373046875
0, 6, 123, 24.16611671447754
0, 6, 124, 34.04397583007812
0, 6, 125, 28.44754600524902
0, 6, 126, 21.61098098754883
0, 6, 127, 23.75419616699219
0, 7, 0, 23.48396110534668
0, 7, 1, 27.11364364624023
0, 7, 2, 22.53823471069336
0, 7, 3, 27.13407325744629
0, 7, 4, 26.16632652282715
0, 7, 5, 36.77194595336914
0, 7, 6, 30.09386825561523
0, 7, 7, 36.37400817871094
0, 7, 8, 28.14288330078125
0, 7, 9, 35.1783561706543
0, 7, 10, 44.94595336914062
0, 7, 11, 46.29983520507812
0, 7, 12, 46.53068161010742
0, 7, 13, 55.08341979980469
0, 7, 14, 65.85601806640625
0, 7, 15, 86.13742065429688
0, 7, 16, 132.0695648193359
0, 7, 17, 461.1643371582031
0, 7, 18, 1103.60107421875
0, 7, 19, 1503.7685546875
0, 7, 20, 1487.338134765625
0, 7, 21, 1366.624755859375
0, 7, 22, 1483.80859375
0, 7, 23, 1456.228393554688
0, 7, 24, 1507.603759765625
0, 7, 25, 1597.03955078125
0, 7, 26, 1516.317016601562
0, 7, 27, 1505.3134765625
0, 7, 28, 1544.5693359375
0, 7, 29, 1579.44091796875
0, 7, 30, 1544.699340820312
0, 7, 31, 1433.234252929688
0, 7, 32, 1539.884521484375
0, 7, 33, 1489.767333984375
0, 7, 34, 1484.417358398438
0, 7, 35, 1524.012084960938
0, 7, 36, 1473.80908203125
0, 7, 37, 1601.452392578125
0, 7, 38, 1508.627319335938
0, 7, 39, 1493.40869140625
0, 7, 40, 1539.617919921875
0, 7, 41, 1473.263061523438
0, 7, 42, 1489.255249023438
0, 7, 43, 1442.361694335938
0, 7, 44, 1485.306640625
0, 7, 45, 1471.837280273438
0, 7, 46, 1512.673950195312
0, 7, 47, 1564.531005859375
0, 7, 48, 1523.044921875
0, 7, 49, 1538.672973632812
0, 7, 50, 1513.887817382812
0, 7, 51, 1496.723022460938
0, 7, 52, 1517.249389648438
0, 7, 53, 1496.284545898438
0, 7, 54, 1583.409545898438
0, 7, 55, 1473.620239257812
0, 7, 56, 1545.439697265625
0, 7, 57, 1516.135864257812
0, 7, 58, 1545.131469726562
0, 7, 59, 1543.15478515625
0, 7, 60, 1548.878295898438
0, 7, 61, 1487.417236328125
0, 7, 62, 1431.073974609375
0, 7, 63, 1516.783203125
0, 7, 64, 1547.313354492188
0, 7, 65, 1528.299194335938
0, 7, 66, 1536.168579101562
0, 7, 67, 1578.43212890625
0, 7, 68, 1528.671997070312
0, 7, 69, 1514.716186523438
0, 7, 70, 1492.88134765625
0, 7, 71, 1520.442138671875
0, 7, 72, 1524.164916992188
0, 7, 73, 1518.925903320312
0, 7, 74, 1569.57666015625
0, 7, 75, 1537.360717773438
0, 7, 76, 1557.836669921875
0, 7, 77, 1509.237060546875
0, 7, 78, 1511.964477539062
0, 7, 79, 1423.305419921875
0, 7, 80, 1488.71240234375
0, 7, 81, 1497.661254882812
0, 7, 82, 1529.430786132812
0, 7, 83, 1539.5703125
0, 7, 84, 1585.214965820312
0, 7, 85, 1475.63330078125
0, 7, 86, 1498.594848632812
0, 7, 87, 1503.9755859375
0, 7, 88, 1500.961547851562
0, 7, 89, 1555.905639648438
0, 7, 90, 1521.502563476562
0, 7, 91, 1567.39306640625
0, 7, 92, 1531.10693359375
0, 7, 93, 1551.792114257812
0, 7, 94, 1536.668579101562
0, 7, 95, 1500.60302734375
0, 7, 96, 1507.880859375
0, 7, 97, 1433.160766601562
0, 7, 98, 1484.086181640625
0, 7, 99, 1525.994140625
0, 7, 100, 1422.089965820312
0, 7, 101, 1462.843505859375
0, 7, 102, 1448.434326171875
0, 7, 103, 1435.134765625
0, 7, 104, 1492.834228515625
0, 7, 105, 1520.711669921875
0, 7, 106, 1566.604370117188
0, 7, 107, 1481.600219726562
0, 7, 108, 1409.5126953125
0, 7, 109, 1142.42138671875
0, 7, 110, 471.9023742675781
0, 7, 111, 128.4490509033203
0, 7, 112, 78.26731872558594
0, 7, 113, 67.75719451904297
0, 7, 114, 56.90242004394531
0, 7, 115, 51.05337524414062
0, 7, 116, 49.72119903564453
0, 7, 117, 45.39126205444336
0, 7, 118, 35.16982650756836
0, 7, 119, 38.72662353515625
0, 7, 120, 23.93436813354492
0, 7, 121, 31.93350982666016
0, 7, 122, 32.45322799682617
0, 7, 123, 33.67036437988281
0, 7, 124, 30.02419662475586
0, 7, 125, 19.84655570983887
0, 7, 126, 32.19681930541992
0, 7, 127, 23.6041316986084
0, 8, 0, 17.8000659942627
0, 8, 1, 27.76601982116699
0, 8, 2, 27.9714298248291
0, 8, 3, 26.7410774230957
0, 8, 4, 28.95686340332031
0, 8, 5, 31.66964149475098
0, 8, 6, 30.77786254882812
0, 8, 7, 30.46808242797852
0, 8, 8, 36.12849044799805
0, 8, 9, 46.35283279418945
0, 8, 10, 38.70225143432617
0, 8, 11, 46.14140701293945
0, 8, 12, 53.33658599853516
0, 8, 13, 65.95518493652344
0, 8, 14, 69.12274932861328
0, 8, 15, 82.41873931884766
0, 8, 16, 172.5932922363281
0, 8, 17, 678.488525390625
0, 8, 18, 1276.112060546875
0, 8, 19, 1451.1201171875
0, 8, 20, 1420.947875976562
0, 8, 21, 1404.575317382812
0, 8, 22, 1486.5869140625
0, 8, 23, 1481.454711914062
0, 8, 24, 1436.272216796875
0, 8, 25, 1453.016845703125
0, 8, 26, 1514.029296875
0, 8, 27, 1519.69921875
0, 8, 28, 1473.619262695312
0, 8, 29, 1505.385864257812
0, 8, 30, 1482.435791015625
0, 8, 31, 1536.477783203125
0, 8, 32, 1508.389404296875
0, 8, 33, 1482.828125
0, 8, 34, 1536.469116210938
0, 8, 35, 1439.846923828125
0, 8, 36, 1504.169067382812
0, 8, 37, 1560.24658203125
0, 8, 38, 1556.406494140625
0, 8, 39, 1492.321899414062
0, 8, 40, 1526.302856445312
0, 8, 41, 1482.234741210938
0, 8, 42, 1537.300170898438
0, 8, 43, 1435.086181640625
0, 8, 44, 1536.319213867188
0, 8, 45, 1511.179321289062
0, 8, 46, 1596.892944335938
0, 8, 47, 1591.067260742188
