# TOPAS Version: 3.1.p3
# Parameter File: batch_inserts_224.txt
# Results for scorer Readout_Adipose
# Scored in component: MyBox
# X in 1 bin  of 0.75 cm
# Y in 512 bins of 0.0783984 cm
# Z in 128 bins of 0.078125 cm
# EnergyDeposit ( MeV ) : Sum   
0, 0, 0, 3.08516263961792
0, 0, 1, 1.864376902580261
0, 0, 2, 4.182442665100098
0, 0, 3, 1.537449479103088
0, 0, 4, 5.100528240203857
0, 0, 5, 1.779012322425842
0, 0, 6, 5.846754550933838
0, 0, 7, 7.462339878082275
0, 0, 8, 3.783140897750854
0, 0, 9, 4.852983951568604
0, 0, 10, 7.363735198974609
0, 0, 11, 4.718511581420898
0, 0, 12, 7.98190975189209
0, 0, 13, 6.433277130126953
0, 0, 14, 7.661079406738281
0, 0, 15, 9.588963508605957
0, 0, 16, 9.355923652648926
0, 0, 17, 9.364209175109863
0, 0, 18, 14.47515106201172
0, 0, 19, 43.52816009521484
0, 0, 20, 140.1291656494141
0, 0, 21, 224.237060546875
0, 0, 22, 248.4583435058594
0, 0, 23, 258.1435546875
0, 0, 24, 250.478515625
0, 0, 25, 258.5516662597656
0, 0, 26, 234.6914825439453
0, 0, 27, 237.6234588623047
0, 0, 28, 271.7011413574219
0, 0, 29, 252.0336303710938
0, 0, 30, 231.7432556152344
0, 0, 31, 246.9984283447266
0, 0, 32, 263.0271911621094
0, 0, 33, 260.7335510253906
0, 0, 34, 287.880126953125
0, 0, 35, 268.4135437011719
0, 0, 36, 249.6109924316406
0, 0, 37, 252.0551452636719
0, 0, 38, 268.9955749511719
0, 0, 39, 229.6331176757812
0, 0, 40, 242.44970703125
0, 0, 41, 266.4505920410156
0, 0, 42, 230.6669464111328
0, 0, 43, 258.7122192382812
0, 0, 44, 252.8666839599609
0, 0, 45, 252.5363006591797
0, 0, 46, 244.3919219970703
0, 0, 47, 254.0495147705078
0, 0, 48, 265.9345397949219
0, 0, 49, 274.6827087402344
0, 0, 50, 250.3402252197266
0, 0, 51, 254.0010375976562
0, 0, 52, 272.7888488769531
0, 0, 53, 291.4980163574219
0, 0, 54, 241.2807769775391
0, 0, 55, 239.6604919433594
0, 0, 56, 276.6881713867188
0, 0, 57, 262.7705078125
0, 0, 58, 245.3522491455078
0, 0, 59, 270.7113952636719
0, 0, 60, 236.640869140625
0, 0, 61, 245.7415924072266
0, 0, 62, 257.8308410644531
0, 0, 63, 267.0438232421875
0, 0, 64, 254.9498443603516
0, 0, 65, 261.349365234375
0, 0, 66, 278.0706787109375
0, 0, 67, 247.9269256591797
0, 0, 68, 258.4339294433594
0, 0, 69, 262.2503967285156
0, 0, 70, 271.2216491699219
0, 0, 71, 238.1852874755859
0, 0, 72, 250.9279327392578
0, 0, 73, 258.1721801757812
0, 0, 74, 251.7762908935547
0, 0, 75, 241.8617706298828
0, 0, 76, 227.6546783447266
0, 0, 77, 259.4629821777344
0, 0, 78, 256.6947631835938
0, 0, 79, 279.7682495117188
0, 0, 80, 217.0254211425781
0, 0, 81, 266.9981384277344
0, 0, 82, 255.0536346435547
0, 0, 83, 244.6366882324219
0, 0, 84, 269.9700012207031
0, 0, 85, 231.3179626464844
0, 0, 86, 254.8668365478516
0, 0, 87, 251.0326995849609
0, 0, 88, 260.5657043457031
0, 0, 89, 282.0220031738281
0, 0, 90, 244.0590362548828
0, 0, 91, 281.9696044921875
0, 0, 92, 253.7583770751953
0, 0, 93, 249.5962677001953
0, 0, 94, 248.2425537109375
0, 0, 95, 250.0874481201172
0, 0, 96, 274.4273986816406
0, 0, 97, 273.4064331054688
0, 0, 98, 274.3551330566406
0, 0, 99, 258.493408203125
0, 0, 100, 258.80517578125
0, 0, 101, 227.1504974365234
0, 0, 102, 232.7629241943359
0, 0, 103, 271.4961242675781
0, 0, 104, 253.6909484863281
0, 0, 105, 250.640869140625
0, 0, 106, 244.950439453125
0, 0, 107, 151.9064483642578
0, 0, 108, 38.14943313598633
0, 0, 109, 12.84185314178467
0, 0, 110, 11.9321870803833
0, 0, 111, 10.93600845336914
0, 0, 112, 6.596653938293457
0, 0, 113, 6.06088399887085
0, 0, 114, 7.380585193634033
0, 0, 115, 5.696616649627686
0, 0, 116, 4.731965065002441
0, 0, 117, 5.668485641479492
0, 0, 118, 6.819496154785156
0, 0, 119, 3.676614761352539
0, 0, 120, 2.830026149749756
0, 0, 121, 2.821374893188477
0, 0, 122, 6.502182960510254
0, 0, 123, 2.163524150848389
0, 0, 124, 4.963170528411865
0, 0, 125, 1.475780129432678
0, 0, 126, 5.535301208496094
0, 0, 127, 4.459053993225098
0, 1, 0, 7.668214321136475
0, 1, 1, 2.533935070037842
0, 1, 2, 4.509305953979492
0, 1, 3, 1.818268537521362
0, 1, 4, 3.920523643493652
0, 1, 5, 6.655659198760986
0, 1, 6, 4.776114940643311
0, 1, 7, 6.394556999206543
0, 1, 8, 8.674678802490234
0, 1, 9, 3.91111421585083
0, 1, 10, 7.27510404586792
0, 1, 11, 11.50040721893311
0, 1, 12, 8.386157989501953
0, 1, 13, 9.998600006103516
0, 1, 14, 7.29006814956665
0, 1, 15, 7.789811134338379
0, 1, 16, 11.81546497344971
0, 1, 17, 11.00114154815674
0, 1, 18, 20.1497688293457
0, 1, 19, 65.74113464355469
0, 1, 20, 201.5875549316406
0, 1, 21, 254.4620208740234
0, 1, 22, 296.3472595214844
0, 1, 23, 282.3086547851562
0, 1, 24, 275.0232849121094
0, 1, 25, 289.0387268066406
0, 1, 26, 269.2970581054688
0, 1, 27, 305.9211120605469
0, 1, 28, 298.0223999023438
0, 1, 29, 294.6051025390625
0, 1, 30, 280.892578125
0, 1, 31, 291.7892761230469
0, 1, 32, 289.7003784179688
0, 1, 33, 296.7616882324219
0, 1, 34, 293.8027648925781
0, 1, 35, 277.7898559570312
0, 1, 36, 306.1031799316406
0, 1, 37, 295.3253784179688
0, 1, 38, 285.2983703613281
0, 1, 39, 296.8298034667969
0, 1, 40, 267.7496337890625
0, 1, 41, 285.9584350585938
0, 1, 42, 289.7164916992188
0, 1, 43, 331.5628051757812
0, 1, 44, 277.9851989746094
0, 1, 45, 292.0487060546875
0, 1, 46, 259.8143310546875
0, 1, 47, 310.4933471679688
0, 1, 48, 283.962646484375
0, 1, 49, 302.8455505371094
0, 1, 50, 263.3192749023438
0, 1, 51, 274.5092163085938
0, 1, 52, 296.785888671875
0, 1, 53, 303.2529296875
0, 1, 54, 275.0535583496094
0, 1, 55, 292.3414916992188
0, 1, 56, 281.0182495117188
0, 1, 57, 297.5780639648438
0, 1, 58, 311.7799377441406
0, 1, 59, 292.0690307617188
0, 1, 60, 298.2560119628906
0, 1, 61, 275.0982666015625
0, 1, 62, 308.4548950195312
0, 1, 63, 287.3935546875
0, 1, 64, 288.7478942871094
0, 1, 65, 295.192626953125
0, 1, 66, 293.6346435546875
0, 1, 67, 292.1908874511719
0, 1, 68, 277.8415832519531
0, 1, 69, 279.0650024414062
0, 1, 70, 274.1329040527344
0, 1, 71, 271.9149475097656
0, 1, 72, 284.6969909667969
0, 1, 73, 304.1736145019531
0, 1, 74, 304.5911865234375
0, 1, 75, 291.8406677246094
0, 1, 76, 284.2801818847656
0, 1, 77, 290.2779846191406
0, 1, 78, 297.1968994140625
0, 1, 79, 300.7740783691406
0, 1, 80, 296.7209777832031
0, 1, 81, 301.7854309082031
0, 1, 82, 282.3224792480469
0, 1, 83, 331.0210571289062
0, 1, 84, 308.6026000976562
0, 1, 85, 252.5038909912109
0, 1, 86, 293.6123046875
0, 1, 87, 291.2130432128906
0, 1, 88, 297.3072814941406
0, 1, 89, 289.1886291503906
0, 1, 90, 270.3299255371094
0, 1, 91, 316.4199829101562
0, 1, 92, 294.219970703125
0, 1, 93, 286.0528869628906
0, 1, 94, 303.5556335449219
0, 1, 95, 285.26953125
0, 1, 96, 282.3456420898438
0, 1, 97, 299.7359619140625
0, 1, 98, 280.5846557617188
0, 1, 99, 267.7207946777344
0, 1, 100, 277.1173095703125
0, 1, 101, 281.6836853027344
0, 1, 102, 278.2273254394531
0, 1, 103, 282.955810546875
0, 1, 104, 307.5985717773438
0, 1, 105, 297.5063171386719
0, 1, 106, 262.9076843261719
0, 1, 107, 193.0199584960938
0, 1, 108, 80.81526184082031
0, 1, 109, 23.45814895629883
0, 1, 110, 11.43607139587402
0, 1, 111, 10.13180160522461
0, 1, 112, 10.82002067565918
0, 1, 113, 5.257429599761963
0, 1, 114, 6.868642330169678
0, 1, 115, 8.059327125549316
0, 1, 116, 10.47961235046387
0, 1, 117, 7.511734485626221
0, 1, 118, 5.389842987060547
0, 1, 119, 4.931992530822754
0, 1, 120, 5.345513343811035
0, 1, 121, 3.671996355056763
0, 1, 122, 2.033031702041626
0, 1, 123, 5.798386096954346
0, 1, 124, 7.247294425964355
0, 1, 125, 3.729949712753296
0, 1, 126, 2.372872829437256
0, 1, 127, 1.740566492080688
0, 2, 0, 6.033597946166992
0, 2, 1, 2.5885169506073
0, 2, 2, 3.950800895690918
0, 2, 3, 4.459185123443604
0, 2, 4, 2.649075508117676
0, 2, 5, 1.111197352409363
0, 2, 6, 1.847877502441406
0, 2, 7, 4.056833267211914
0, 2, 8, 4.102142333984375
0, 2, 9, 6.512026786804199
0, 2, 10, 8.439678192138672
0, 2, 11, 6.796207904815674
0, 2, 12, 6.824889659881592
0, 2, 13, 11.18023014068604
0, 2, 14, 10.57723617553711
0, 2, 15, 7.660895824432373
0, 2, 16, 8.855734825134277
0, 2, 17, 16.3081226348877
0, 2, 18, 31.5930118560791
0, 2, 19, 115.2062911987305
0, 2, 20, 246.8787384033203
0, 2, 21, 270.4796142578125
0, 2, 22, 315.9641418457031
0, 2, 23, 299.7830200195312
0, 2, 24, 285.0809631347656
0, 2, 25, 301.7676391601562
0, 2, 26, 293.2858276367188
0, 2, 27, 280.2109069824219
0, 2, 28, 272.8467102050781
0, 2, 29, 274.0928649902344
0, 2, 30, 288.4094543457031
0, 2, 31, 280.68896484375
0, 2, 32, 293.4778747558594
0, 2, 33, 281.3549499511719
0, 2, 34, 331.9290161132812
0, 2, 35, 289.479736328125
0, 2, 36, 302.9727783203125
0, 2, 37, 314.5042419433594
0, 2, 38, 318.5815734863281
0, 2, 39, 265.2691955566406
0, 2, 40, 308.8135375976562
0, 2, 41, 290.6586608886719
0, 2, 42, 303.0300598144531
0, 2, 43, 311.2740783691406
0, 2, 44, 311.0619506835938
0, 2, 45, 325.2328186035156
0, 2, 46, 286.5887145996094
0, 2, 47, 302.9075927734375
0, 2, 48, 280.6829528808594
0, 2, 49, 278.8833312988281
0, 2, 50, 294.5361328125
0, 2, 51, 284.0457763671875
0, 2, 52, 273.8600158691406
0, 2, 53, 287.4813537597656
0, 2, 54, 278.0989990234375
0, 2, 55, 274.8798522949219
0, 2, 56, 300.9891357421875
0, 2, 57, 291.9431457519531
0, 2, 58, 302.4160766601562
0, 2, 59, 288.2926940917969
0, 2, 60, 320.1243896484375
0, 2, 61, 301.0742492675781
0, 2, 62, 315.0569152832031
0, 2, 63, 303.97607421875
0, 2, 64, 295.2310791015625
0, 2, 65, 313.4533081054688
0, 2, 66, 279.5593566894531
0, 2, 67, 290.3301391601562
0, 2, 68, 296.2541198730469
0, 2, 69, 310.2159729003906
0, 2, 70, 334.0793762207031
0, 2, 71, 282.4430847167969
0, 2, 72, 302.0277099609375
0, 2, 73, 314.5479125976562
0, 2, 74, 286.7709655761719
0, 2, 75, 305.7424926757812
0, 2, 76, 289.0829467773438
0, 2, 77, 300.7110290527344
0, 2, 78, 313.186279296875
0, 2, 79, 308.283935546875
0, 2, 80, 297.1492309570312
0, 2, 81, 281.9161071777344
0, 2, 82, 320.8970336914062
0, 2, 83, 314.3773803710938
0, 2, 84, 288.7152099609375
0, 2, 85, 280.2091979980469
0, 2, 86, 325.2818298339844
0, 2, 87, 286.1686401367188
0, 2, 88, 278.9969787597656
0, 2, 89, 301.2857666015625
0, 2, 90, 294.9444580078125
0, 2, 91, 277.7827453613281
0, 2, 92, 305.1997985839844
0, 2, 93, 318.2776184082031
0, 2, 94, 291.9327392578125
0, 2, 95, 314.0730590820312
0, 2, 96, 314.6513366699219
0, 2, 97, 290.4830322265625
0, 2, 98, 292.6603088378906
0, 2, 99, 273.0767517089844
0, 2, 100, 306.2376708984375
0, 2, 101, 300.7808227539062
0, 2, 102, 296.0846252441406
0, 2, 103, 293.001953125
0, 2, 104, 293.3627319335938
0, 2, 105, 274.4936828613281
0, 2, 106, 295.7830810546875
0, 2, 107, 270.1474914550781
0, 2, 108, 117.1911544799805
0, 2, 109, 31.05465507507324
0, 2, 110, 11.40021896362305
0, 2, 111, 11.62688827514648
0, 2, 112, 9.867500305175781
0, 2, 113, 8.969429969787598
0, 2, 114, 8.669963836669922
0, 2, 115, 10.58480548858643
0, 2, 116, 7.864966869354248
0, 2, 117, 7.252964019775391
0, 2, 118, 2.577842950820923
0, 2, 119, 4.698015689849854
0, 2, 120, 7.688211917877197
0, 2, 121, 1.506112337112427
0, 2, 122, 4.331379890441895
0, 2, 123, 4.821218013763428
0, 2, 124, 5.373761177062988
0, 2, 125, 5.220768928527832
0, 2, 126, 4.034656524658203
0, 2, 127, 5.11346960067749
0, 3, 0, 3.742900133132935
0, 3, 1, 2.931350708007812
0, 3, 2, 5.413276672363281
0, 3, 3, 2.033013820648193
0, 3, 4, 2.70887565612793
0, 3, 5, 7.764568328857422
0, 3, 6, 7.053565979003906
0, 3, 7, 5.277625560760498
0, 3, 8, 5.827100276947021
0, 3, 9, 6.258187770843506
0, 3, 10, 5.96911096572876
0, 3, 11, 3.928997039794922
0, 3, 12, 8.221090316772461
0, 3, 13, 16.17757606506348
0, 3, 14, 9.757568359375
0, 3, 15, 15.93923759460449
0, 3, 16, 10.78048992156982
0, 3, 17, 20.28973388671875
0, 3, 18, 54.03005599975586
0, 3, 19, 176.8509368896484
0, 3, 20, 270.4689636230469
0, 3, 21, 271.6612854003906
0, 3, 22, 282.2606506347656
0, 3, 23, 286.8380432128906
0, 3, 24, 289.3200073242188
0, 3, 25, 269.6291809082031
0, 3, 26, 304.4384460449219
0, 3, 27, 293.8931579589844
0, 3, 28, 280.8692321777344
0, 3, 29, 337.9801940917969
0, 3, 30, 316.3948974609375
0, 3, 31, 285.1134948730469
0, 3, 32, 308.994873046875
0, 3, 33, 314.6541137695312
0, 3, 34, 320.5375366210938
0, 3, 35, 306.4906311035156
0, 3, 36, 274.2944641113281
0, 3, 37, 313.0190124511719
0, 3, 38, 304.4065856933594
0, 3, 39, 289.4600524902344
0, 3, 40, 266.8439025878906
0, 3, 41, 300.6744995117188
0, 3, 42, 286.7182312011719
0, 3, 43, 306.20703125
0, 3, 44, 309.9067077636719
0, 3, 45, 291.4325866699219
0, 3, 46, 329.9668273925781
0, 3, 47, 301.1455688476562
0, 3, 48, 303.7222900390625
0, 3, 49, 275.5757751464844
0, 3, 50, 289.2937927246094
0, 3, 51, 276.4612426757812
0, 3, 52, 316.1705017089844
0, 3, 53, 289.2755737304688
0, 3, 54, 286.6158447265625
0, 3, 55, 282.6864624023438
0, 3, 56, 298.8261413574219
0, 3, 57, 287.9901733398438
0, 3, 58, 307.8507690429688
0, 3, 59, 295.141845703125
0, 3, 60, 298.3839721679688
0, 3, 61, 263.205078125
0, 3, 62, 285.553955078125
0, 3, 63, 305.5861511230469
0, 3, 64, 316.6991577148438
0, 3, 65, 305.9867858886719
0, 3, 66, 316.8093872070312
0, 3, 67, 317.3257751464844
0, 3, 68, 279.0685119628906
0, 3, 69, 284.1351318359375
0, 3, 70, 289.2088012695312
0, 3, 71, 299.6365356445312
0, 3, 72, 271.0571594238281
0, 3, 73, 309.1742858886719
0, 3, 74, 292.6993408203125
0, 3, 75, 289.1708374023438
0, 3, 76, 304.5776977539062
0, 3, 77, 314.7692565917969
0, 3, 78, 305.1919250488281
0, 3, 79, 282.8604736328125
0, 3, 80, 290.3222351074219
0, 3, 81, 310.3978576660156
0, 3, 82, 317.2234802246094
0, 3, 83, 300.8123779296875
0, 3, 84, 310.8009033203125
0, 3, 85, 293.9709167480469
0, 3, 86, 303.0021362304688
0, 3, 87, 298.6763000488281
0, 3, 88, 298.7825622558594
0, 3, 89, 296.5990905761719
0, 3, 90, 276.1534729003906
0, 3, 91, 283.2134094238281
0, 3, 92, 304.0803527832031
0, 3, 93, 312.7931823730469
0, 3, 94, 299.1895141601562
0, 3, 95, 334.8424377441406
0, 3, 96, 290.3885803222656
0, 3, 97, 286.7631530761719
0, 3, 98, 279.1054382324219
0, 3, 99, 261.1659240722656
0, 3, 100, 284.4301147460938
0, 3, 101, 297.2904357910156
0, 3, 102, 274.9735412597656
0, 3, 103, 321.0177001953125
0, 3, 104, 310.5068969726562
0, 3, 105, 287.966796875
0, 3, 106, 303.8419189453125
0, 3, 107, 286.4737243652344
0, 3, 108, 170.0370025634766
0, 3, 109, 57.69710922241211
0, 3, 110, 17.72284507751465
0, 3, 111, 12.09562587738037
0, 3, 112, 12.73937225341797
0, 3, 113, 6.46161937713623
0, 3, 114, 9.469432830810547
0, 3, 115, 7.909669399261475
0, 3, 116, 9.816802024841309
0, 3, 117, 8.599565505981445
0, 3, 118, 8.600176811218262
0, 3, 119, 7.513283729553223
0, 3, 120, 8.222368240356445
0, 3, 121, 3.82140064239502
0, 3, 122, 4.299418926239014
0, 3, 123, 5.795896530151367
0, 3, 124, 2.350039482116699
0, 3, 125, 5.667924880981445
0, 3, 126, 3.926908731460571
0, 3, 127, 2.695690631866455
0, 4, 0, 2.531879425048828
0, 4, 1, 3.797926664352417
0, 4, 2, 3.153379917144775
0, 4, 3, 1.552769899368286
0, 4, 4, 6.699474811553955
0, 4, 5, 8.370392799377441
0, 4, 6, 6.673627853393555
0, 4, 7, 5.402694225311279
0, 4, 8, 3.626922607421875
0, 4, 9, 7.461033344268799
0, 4, 10, 5.641648769378662
0, 4, 11, 6.776393890380859
0, 4, 12, 6.310879230499268
0, 4, 13, 8.273374557495117
0, 4, 14, 14.22805976867676
0, 4, 15, 10.13275909423828
0, 4, 16, 15.03339004516602
0, 4, 17, 18.71730041503906
0, 4, 18, 93.12875366210938
0, 4, 19, 223.2486114501953
0, 4, 20, 285.457275390625
0, 4, 21, 274.0752563476562
0, 4, 22, 304.7414855957031
0, 4, 23, 266.7938537597656
0, 4, 24, 289.0591125488281
0, 4, 25, 273.8786010742188
0, 4, 26, 293.4093933105469
0, 4, 27, 283.1127014160156
0, 4, 28, 310.0910339355469
0, 4, 29, 321.4508666992188
0, 4, 30, 309.8587036132812
0, 4, 31, 306.8250732421875
0, 4, 32, 280.9365844726562
0, 4, 33, 297.21484375
0, 4, 34, 297.5813903808594
0, 4, 35, 312.6314697265625
0, 4, 36, 290.5346069335938
0, 4, 37, 288.4897766113281
0, 4, 38, 298.0600280761719
0, 4, 39, 293.5783386230469
0, 4, 40, 304.0730895996094
0, 4, 41, 311.4245300292969
0, 4, 42, 330.1048278808594
0, 4, 43, 297.3723449707031
0, 4, 44, 320.4581298828125
0, 4, 45, 322.90576171875
0, 4, 46, 307.3523559570312
0, 4, 47, 292.8330993652344
0, 4, 48, 296.6112670898438
0, 4, 49, 278.9515075683594
0, 4, 50, 296.3197937011719
0, 4, 51, 315.9362182617188
0, 4, 52, 326.4124755859375
0, 4, 53, 303.9659423828125
0, 4, 54, 286.060546875
0, 4, 55, 315.6109924316406
0, 4, 56, 286.8192749023438
0, 4, 57, 309.407958984375
0, 4, 58, 295.4426879882812
0, 4, 59, 307.808837890625
0, 4, 60, 302.9913330078125
0, 4, 61, 315.3910827636719
0, 4, 62, 309.3954772949219
0, 4, 63, 298.878173828125
0, 4, 64, 331.2054138183594
0, 4, 65, 313.8558349609375
0, 4, 66, 292.4090881347656
0, 4, 67, 285.3778991699219
0, 4, 68, 311.6362915039062
0, 4, 69, 275.2272338867188
0, 4, 70, 298.3859252929688
0, 4, 71, 321.0973510742188
0, 4, 72, 332.2405395507812
0, 4, 73, 298.7286682128906
0, 4, 74, 292.4215698242188
0, 4, 75, 290.2249145507812
0, 4, 76, 274.6482849121094
0, 4, 77, 277.0888977050781
0, 4, 78, 309.7781677246094
0, 4, 79, 322.951171875
0, 4, 80, 316.3837890625
0, 4, 81, 314.8018188476562
0, 4, 82, 297.7523193359375
0, 4, 83, 302.4745483398438
0, 4, 84, 291.6036682128906
0, 4, 85, 295.3828125
0, 4, 86, 296.6938171386719
0, 4, 87, 283.6597595214844
0, 4, 88, 305.242919921875
0, 4, 89, 294.12841796875
0, 4, 90, 332.6778869628906
0, 4, 91, 303.70849609375
0, 4, 92, 288.5366516113281
0, 4, 93, 296.1565246582031
0, 4, 94, 293.3958435058594
0, 4, 95, 288.5816650390625
0, 4, 96, 323.6395874023438
0, 4, 97, 273.1266479492188
0, 4, 98, 328.0903930664062
0, 4, 99, 313.6866149902344
0, 4, 100, 301.0432434082031
0, 4, 101, 257.4881286621094
0, 4, 102, 297.3666076660156
0, 4, 103, 316.7289123535156
0, 4, 104, 282.3564147949219
0, 4, 105, 310.8273315429688
0, 4, 106, 286.7654113769531
0, 4, 107, 295.9832458496094
0, 4, 108, 226.0701446533203
0, 4, 109, 79.74642181396484
0, 4, 110, 16.38856315612793
0, 4, 111, 14.65298938751221
0, 4, 112, 8.787497520446777
0, 4, 113, 9.716726303100586
0, 4, 114, 11.42745780944824
0, 4, 115, 11.04233455657959
0, 4, 116, 8.592891693115234
0, 4, 117, 5.580039978027344
0, 4, 118, 11.87870693206787
0, 4, 119, 8.859509468078613
0, 4, 120, 4.74941873550415
0, 4, 121, 6.672048091888428
0, 4, 122, 3.517060995101929
0, 4, 123, 6.698912143707275
0, 4, 124, 5.768231391906738
0, 4, 125, 10.02550601959229
0, 4, 126, 8.229142189025879
0, 4, 127, 4.836467266082764
0, 5, 0, 3.941398143768311
0, 5, 1, 5.202197551727295
0, 5, 2, 3.828220367431641
0, 5, 3, 4.124568462371826
0, 5, 4, 6.711089134216309
0, 5, 5, 6.841215133666992
0, 5, 6, 6.34790563583374
0, 5, 7, 5.572575092315674
0, 5, 8, 6.05517053604126
0, 5, 9, 5.460137367248535
0, 5, 10, 7.860866069793701
0, 5, 11, 8.56995677947998
0, 5, 12, 8.450554847717285
0, 5, 13, 7.383881568908691
0, 5, 14, 14.09310340881348
0, 5, 15, 18.15907287597656
0, 5, 16, 14.12367534637451
0, 5, 17, 27.82585906982422
0, 5, 18, 139.0935974121094
0, 5, 19, 287.5978088378906
0, 5, 20, 308.0736999511719
0, 5, 21, 317.1844787597656
0, 5, 22, 277.4533386230469
0, 5, 23, 311.9847717285156
0, 5, 24, 302.1114501953125
0, 5, 25, 289.6189880371094
0, 5, 26, 295.3262939453125
0, 5, 27, 322.4812622070312
0, 5, 28, 303.2637329101562
0, 5, 29, 300.0872497558594
0, 5, 30, 322.9755554199219
0, 5, 31, 286.6003112792969
0, 5, 32, 301.1168212890625
0, 5, 33, 304.9990844726562
0, 5, 34, 296.5649108886719
0, 5, 35, 309.5306396484375
0, 5, 36, 271.3860473632812
0, 5, 37, 282.029296875
0, 5, 38, 291.217041015625
0, 5, 39, 309.9964599609375
0, 5, 40, 307.030029296875
0, 5, 41, 272.4561767578125
0, 5, 42, 307.387939453125
0, 5, 43, 313.6595764160156
0, 5, 44, 292.2101440429688
0, 5, 45, 300.9189453125
0, 5, 46, 265.6762390136719
0, 5, 47, 280.553466796875
0, 5, 48, 293.9997863769531
0, 5, 49, 293.3277282714844
0, 5, 50, 296.6980590820312
0, 5, 51, 279.4967041015625
0, 5, 52, 269.7696838378906
0, 5, 53, 283.7029724121094
0, 5, 54, 291.8364868164062
0, 5, 55, 345.0086975097656
0, 5, 56, 306.5531616210938
0, 5, 57, 309.1089782714844
0, 5, 58, 312.7195434570312
0, 5, 59, 305.3963928222656
0, 5, 60, 305.2872314453125
0, 5, 61, 282.2324829101562
0, 5, 62, 324.8582763671875
0, 5, 63, 294.0835571289062
0, 5, 64, 327.0744018554688
0, 5, 65, 307.6341247558594
0, 5, 66, 327.8430480957031
0, 5, 67, 311.8768920898438
0, 5, 68, 310.7992553710938
0, 5, 69, 313.1112670898438
0, 5, 70, 302.1702880859375
0, 5, 71, 271.6761779785156
0, 5, 72, 308.1648559570312
0, 5, 73, 302.4532775878906
0, 5, 74, 295.0771179199219
0, 5, 75, 296.4255981445312
0, 5, 76, 285.7593688964844
0, 5, 77, 299.6625061035156
0, 5, 78, 316.3568115234375
0, 5, 79, 310.036865234375
0, 5, 80, 294.7504577636719
0, 5, 81, 324.8518676757812
0, 5, 82, 324.0519409179688
0, 5, 83, 279.9441833496094
0, 5, 84, 302.57568359375
0, 5, 85, 270.8231506347656
0, 5, 86, 326.6739501953125
0, 5, 87, 283.6898498535156
0, 5, 88, 315.9036254882812
0, 5, 89, 305.616455078125
0, 5, 90, 317.5736999511719
0, 5, 91, 314.4151916503906
0, 5, 92, 295.6387329101562
0, 5, 93, 322.7510986328125
0, 5, 94, 311.0281982421875
0, 5, 95, 297.5882263183594
0, 5, 96, 297.9343566894531
0, 5, 97, 294.6278686523438
0, 5, 98, 319.6260681152344
0, 5, 99, 301.875732421875
0, 5, 100, 288.9812622070312
0, 5, 101, 305.5613708496094
0, 5, 102, 292.9955444335938
0, 5, 103, 314.9034118652344
0, 5, 104, 302.9679260253906
0, 5, 105, 290.575439453125
0, 5, 106, 281.8655700683594
0, 5, 107, 292.7466125488281
0, 5, 108, 265.2942199707031
0, 5, 109, 158.2766876220703
0, 5, 110, 41.13344955444336
0, 5, 111, 22.22067070007324
0, 5, 112, 18.44414329528809
0, 5, 113, 15.64267253875732
0, 5, 114, 12.15886306762695
0, 5, 115, 7.43002462387085
0, 5, 116, 7.754948139190674
0, 5, 117, 8.746124267578125
0, 5, 118, 13.96093463897705
0, 5, 119, 6.501564502716064
0, 5, 120, 5.746532440185547
0, 5, 121, 6.179380893707275
0, 5, 122, 9.702390670776367
0, 5, 123, 7.598385334014893
0, 5, 124, 6.056687355041504
0, 5, 125, 4.755286693572998
0, 5, 126, 7.198222160339355
0, 5, 127, 3.274127006530762
0, 6, 0, 5.054394245147705
0, 6, 1, 2.345206022262573
0, 6, 2, 5.113208293914795
0, 6, 3, 5.719484329223633
0, 6, 4, 3.415892362594604
0, 6, 5, 6.668887138366699
0, 6, 6, 7.231434345245361
0, 6, 7, 5.446206092834473
0, 6, 8, 8.871892929077148
0, 6, 9, 5.128223419189453
0, 6, 10, 9.869601249694824
0, 6, 11, 9.678325653076172
0, 6, 12, 8.699149131774902
0, 6, 13, 14.54825305938721
0, 6, 14, 10.1811056137085
0, 6, 15, 16.68137168884277
0, 6, 16, 28.27871131896973
0, 6, 17, 55.85905456542969
0, 6, 18, 175.1057281494141
0, 6, 19, 276.8442077636719
0, 6, 20, 290.4166564941406
0, 6, 21, 312.6133422851562
0, 6, 22, 320.3743591308594
0, 6, 23, 306.0296936035156
0, 6, 24, 314.994140625
0, 6, 25, 315.1165771484375
0, 6, 26, 320.8753967285156
0, 6, 27, 330.6170349121094
0, 6, 28, 300.5694580078125
0, 6, 29, 330.5372314453125
0, 6, 30, 280.6347351074219
0, 6, 31, 286.7265625
0, 6, 32, 340.8678588867188
0, 6, 33, 300.876708984375
0, 6, 34, 340.7012939453125
0, 6, 35, 321.0496826171875
0, 6, 36, 273.6138305664062
0, 6, 37, 288.2571411132812
0, 6, 38, 314.7804260253906
0, 6, 39, 300.0523681640625
0, 6, 40, 282.0954284667969
0, 6, 41, 293.9397583007812
0, 6, 42, 302.5175476074219
0, 6, 43, 287.6798400878906
0, 6, 44, 279.158447265625
0, 6, 45, 319.7106323242188
0, 6, 46, 303.6604309082031
0, 6, 47, 332.4577331542969
0, 6, 48, 291.2098693847656
0, 6, 49, 310.9845886230469
0, 6, 50, 328.572998046875
0, 6, 51, 309.5352783203125
0, 6, 52, 320.7816162109375
0, 6, 53, 327.8895263671875
0, 6, 54, 304.5104064941406
0, 6, 55, 306.5545349121094
0, 6, 56, 293.3584594726562
0, 6, 57, 312.1878662109375
0, 6, 58, 262.9371948242188
0, 6, 59, 302.8143615722656
0, 6, 60, 314.9654235839844
0, 6, 61, 271.3559265136719
0, 6, 62, 339.5265808105469
0, 6, 63, 323.1995239257812
0, 6, 64, 290.9047546386719
0, 6, 65, 282.9380493164062
0, 6, 66, 301.8735046386719
0, 6, 67, 309.1077575683594
0, 6, 68, 293.2676086425781
0, 6, 69, 277.7543334960938
0, 6, 70, 273.7793273925781
0, 6, 71, 288.8782348632812
0, 6, 72, 308.4437866210938
0, 6, 73, 295.729736328125
0, 6, 74, 329.7499084472656
0, 6, 75, 342.2117309570312
0, 6, 76, 299.5048217773438
0, 6, 77, 286.3887329101562
0, 6, 78, 277.65869140625
0, 6, 79, 292.4862060546875
0, 6, 80, 297.6790466308594
0, 6, 81, 316.3427734375
0, 6, 82, 318.5066223144531
0, 6, 83, 320.4283752441406
0, 6, 84, 298.3018493652344
0, 6, 85, 302.0889587402344
0, 6, 86, 330.4302368164062
0, 6, 87, 292.7327270507812
0, 6, 88, 305.6325378417969
0, 6, 89, 303.5241088867188
0, 6, 90, 298.9505615234375
0, 6, 91, 311.3287658691406
0, 6, 92, 289.7703552246094
0, 6, 93, 296.0043334960938
0, 6, 94, 271.517578125
0, 6, 95, 298.6398315429688
0, 6, 96, 349.0387573242188
0, 6, 97, 307.7559204101562
0, 6, 98, 300.7953796386719
0, 6, 99, 273.753662109375
0, 6, 100, 311.8432922363281
0, 6, 101, 294.7605590820312
0, 6, 102, 308.0459289550781
0, 6, 103, 308.0330505371094
0, 6, 104, 292.6434020996094
0, 6, 105, 301.3917846679688
0, 6, 106, 308.0884094238281
0, 6, 107, 305.4152526855469
0, 6, 108, 265.6235961914062
0, 6, 109, 186.2063446044922
0, 6, 110, 54.98554229736328
0, 6, 111, 21.11930465698242
0, 6, 112, 12.38928508758545
0, 6, 113, 11.36859512329102
0, 6, 114, 12.8438835144043
0, 6, 115, 12.24997901916504
0, 6, 116, 9.284601211547852
0, 6, 117, 5.878673076629639
0, 6, 118, 11.13971996307373
0, 6, 119, 8.162007331848145
0, 6, 120, 8.338618278503418
0, 6, 121, 6.703024864196777
0, 6, 122, 6.356642246246338
0, 6, 123, 10.559814453125
0, 6, 124, 6.967206478118896
0, 6, 125, 6.979126930236816
0, 6, 126, 5.716806411743164
0, 6, 127, 8.225715637207031
0, 7, 0, 4.447642803192139
0, 7, 1, 3.341475009918213
0, 7, 2, 5.343894481658936
0, 7, 3, 5.167003154754639
0, 7, 4, 7.104860305786133
0, 7, 5, 6.797477245330811
0, 7, 6, 6.946858406066895
0, 7, 7, 6.585646152496338
0, 7, 8, 5.390400409698486
0, 7, 9, 7.179601192474365
0, 7, 10, 7.693652629852295
0, 7, 11, 11.57720375061035
0, 7, 12, 10.54540824890137
0, 7, 13, 10.18166160583496
0, 7, 14, 9.709693908691406
0, 7, 15, 19.16777229309082
0, 7, 16, 27.62005233764648
0, 7, 17, 99.77828216552734
0, 7, 18, 216.9479675292969
0, 7, 19, 289.6063842773438
0, 7, 20, 297.3259582519531
0, 7, 21, 276.7211303710938
0, 7, 22, 300.5119018554688
0, 7, 23, 289.7933044433594
0, 7, 24, 312.6801147460938
0, 7, 25, 324.6886596679688
0, 7, 26, 278.2904052734375
0, 7, 27, 298.4033508300781
0, 7, 28, 327.2188415527344
0, 7, 29, 319.4898376464844
0, 7, 30, 301.9338073730469
0, 7, 31, 277.3143920898438
0, 7, 32, 306.9458923339844
0, 7, 33, 265.7382202148438
0, 7, 34, 296.8849182128906
0, 7, 35, 320.4693603515625
0, 7, 36, 330.8215637207031
0, 7, 37, 322.8524475097656
0, 7, 38, 298.7914428710938
0, 7, 39, 308.1575317382812
0, 7, 40, 288.674072265625
0, 7, 41, 272.9136352539062
0, 7, 42, 302.6005859375
0, 7, 43, 275.7868041992188
0, 7, 44, 303.8811950683594
0, 7, 45, 297.9367065429688
0, 7, 46, 282.9880065917969
0, 7, 47, 330.6598510742188
0, 7, 48, 286.6370849609375
0, 7, 49, 301.7659606933594
0, 7, 50, 321.6692199707031
0, 7, 51, 298.3122863769531
0, 7, 52, 328.3808288574219
0, 7, 53, 309.7528076171875
0, 7, 54, 326.1433410644531
0, 7, 55, 309.9197387695312
0, 7, 56, 280.3764343261719
0, 7, 57, 282.1592102050781
0, 7, 58, 295.5881958007812
0, 7, 59, 296.1067504882812
0, 7, 60, 322.9548950195312
0, 7, 61, 276.4689331054688
0, 7, 62, 300.4143981933594
0, 7, 63, 294.1545104980469
0, 7, 64, 305.8297729492188
0, 7, 65, 333.3919067382812
0, 7, 66, 319.6466369628906
0, 7, 67, 300.9992370605469
0, 7, 68, 280.4795227050781
0, 7, 69, 294.0423583984375
0, 7, 70, 302.99609375
0, 7, 71, 309.6355285644531
0, 7, 72, 284.1307678222656
0, 7, 73, 297.2945861816406
0, 7, 74, 345.2445068359375
0, 7, 75, 319.5119323730469
0, 7, 76, 323.6116943359375
0, 7, 77, 280.2660827636719
0, 7, 78, 301.7115478515625
0, 7, 79, 297.5425415039062
0, 7, 80, 311.0691528320312
0, 7, 81, 320.3821105957031
0, 7, 82, 328.2276916503906
0, 7, 83, 319.3400573730469
0, 7, 84, 308.4664611816406
0, 7, 85, 271.8983154296875
0, 7, 86, 311.780517578125
0, 7, 87, 311.6995239257812
0, 7, 88, 306.63818359375
0, 7, 89, 293.4446716308594
0, 7, 90, 307.251708984375
0, 7, 91, 316.1385192871094
0, 7, 92, 288.5345764160156
0, 7, 93, 309.5873718261719
0, 7, 94, 274.015869140625
0, 7, 95, 296.7073974609375
0, 7, 96, 330.6160888671875
0, 7, 97, 294.0095825195312
0, 7, 98, 290.0426025390625
0, 7, 99, 313.8721923828125
0, 7, 100, 282.5781555175781
0, 7, 101, 274.6679382324219
0, 7, 102, 288.9019165039062
0, 7, 103, 290.9534606933594
0, 7, 104, 273.9924926757812
0, 7, 105, 304.80126953125
0, 7, 106, 317.1662902832031
0, 7, 107, 297.8298034667969
0, 7, 108, 274.2215881347656
0, 7, 109, 235.7965393066406
0, 7, 110, 98.27530670166016
0, 7, 111, 23.75191116333008
0, 7, 112, 13.97260570526123
0, 7, 113, 13.87020111083984
0, 7, 114, 12.27243804931641
0, 7, 115, 12.75541210174561
0, 7, 116, 9.713812828063965
0, 7, 117, 7.262134552001953
0, 7, 118, 7.274540424346924
0, 7, 119, 6.995814800262451
0, 7, 120, 5.53560733795166
0, 7, 121, 5.11204719543457
0, 7, 122, 6.858767509460449
0, 7, 123, 4.044599533081055
0, 7, 124, 4.297750949859619
0, 7, 125, 5.406756401062012
0, 7, 126, 9.775558471679688
0, 7, 127, 4.082276821136475
0, 8, 0, 8.52422046661377
0, 8, 1, 4.673040866851807
0, 8, 2, 3.309252500534058
0, 8, 3, 2.001097679138184
0, 8, 4, 4.308298110961914
0, 8, 5, 7.984519481658936
0, 8, 6, 6.184406280517578
0, 8, 7, 5.743795394897461
0, 8, 8, 8.245914459228516
0, 8, 9, 4.400590896606445
0, 8, 10, 6.694145679473877
0, 8, 11, 13.01543140411377
0, 8, 12, 11.89860248565674
0, 8, 13, 14.20169067382812
0, 8, 14, 13.78203582763672
0, 8, 15, 17.43304061889648
0, 8, 16, 32.12987899780273
0, 8, 17, 130.484375
0, 8, 18, 243.0326690673828
0, 8, 19, 296.1300354003906
0, 8, 20, 285.814453125
0, 8, 21, 306.2529296875
0, 8, 22, 294.9624328613281
0, 8, 23, 273.4833068847656
0, 8, 24, 269.5234069824219
0, 8, 25, 274.0791015625
0, 8, 26, 306.8328857421875
0, 8, 27, 307.4672546386719
0, 8, 28, 303.1101379394531
0, 8, 29, 317.8265686035156
0, 8, 30, 315.0618286132812
0, 8, 31, 304.396728515625
0, 8, 32, 281.0617980957031
0, 8, 33, 293.0924682617188
0, 8, 34, 288.4758911132812
0, 8, 35, 279.2905578613281
0, 8, 36, 316.0037231445312
0, 8, 37, 342.9580078125
0, 8, 38, 334.0311889648438
0, 8, 39, 280.5332641601562
0, 8, 40, 307.2614135742188
