# TOPAS Version: 3.1.p3
# Parameter File: batch_inserts_314.txt
# Results for scorer Readout_Adipose
# Scored in component: MyBox
# X in 1 bin  of 0.75 cm
# Y in 512 bins of 0.0783984 cm
# Z in 128 bins of 0.078125 cm
# EnergyDeposit ( MeV ) : Sum   
0, 0, 0, 5.780494689941406
0, 0, 1, 0.9581472873687744
0, 0, 2, 4.274152755737305
0, 0, 3, 1.446366310119629
0, 0, 4, 3.349292755126953
0, 0, 5, 2.09824538230896
0, 0, 6, 5.781976699829102
0, 0, 7, 10.0290002822876
0, 0, 8, 4.961089134216309
0, 0, 9, 3.999278783798218
0, 0, 10, 6.569766998291016
0, 0, 11, 3.914633274078369
0, 0, 12, 5.391826152801514
0, 0, 13, 6.740381717681885
0, 0, 14, 7.068356990814209
0, 0, 15, 10.32500743865967
0, 0, 16, 8.982839584350586
0, 0, 17, 9.503039360046387
0, 0, 18, 12.31805992126465
0, 0, 19, 43.76313781738281
0, 0, 20, 140.4387054443359
0, 0, 21, 224.1250610351562
0, 0, 22, 250.6665496826172
0, 0, 23, 257.4922790527344
0, 0, 24, 251.4382019042969
0, 0, 25, 257.5428466796875
0, 0, 26, 236.2142181396484
0, 0, 27, 236.553466796875
0, 0, 28, 275.1564331054688
0, 0, 29, 252.4737243652344
0, 0, 30, 231.0118255615234
0, 0, 31, 245.1575469970703
0, 0, 32, 263.1161499023438
0, 0, 33, 260.2116088867188
0, 0, 34, 286.1330261230469
0, 0, 35, 266.4527893066406
0, 0, 36, 245.6739349365234
0, 0, 37, 255.7281646728516
0, 0, 38, 268.7549743652344
0, 0, 39, 229.4922943115234
0, 0, 40, 243.1014556884766
0, 0, 41, 268.5777893066406
0, 0, 42, 229.6202850341797
0, 0, 43, 259.78564453125
0, 0, 44, 250.3071746826172
0, 0, 45, 253.0642242431641
0, 0, 46, 243.6826629638672
0, 0, 47, 253.2305603027344
0, 0, 48, 266.8165588378906
0, 0, 49, 274.0123596191406
0, 0, 50, 251.4288024902344
0, 0, 51, 254.5735473632812
0, 0, 52, 273.6041259765625
0, 0, 53, 291.6504516601562
0, 0, 54, 242.7024536132812
0, 0, 55, 240.4077606201172
0, 0, 56, 277.1307067871094
0, 0, 57, 263.4609375
0, 0, 58, 246.0800018310547
0, 0, 59, 270.9878845214844
0, 0, 60, 234.9068450927734
0, 0, 61, 244.6399841308594
0, 0, 62, 256.9273071289062
0, 0, 63, 266.5278625488281
0, 0, 64, 256.6655883789062
0, 0, 65, 263.2892150878906
0, 0, 66, 276.3818969726562
0, 0, 67, 246.0836639404297
0, 0, 68, 257.4278869628906
0, 0, 69, 261.3924255371094
0, 0, 70, 271.6390075683594
0, 0, 71, 236.5022735595703
0, 0, 72, 250.4209136962891
0, 0, 73, 257.2934875488281
0, 0, 74, 251.2547912597656
0, 0, 75, 240.8692779541016
0, 0, 76, 230.2439727783203
0, 0, 77, 261.4351196289062
0, 0, 78, 255.94970703125
0, 0, 79, 276.4429626464844
0, 0, 80, 217.6201782226562
0, 0, 81, 266.5812072753906
0, 0, 82, 255.9648284912109
0, 0, 83, 244.8981170654297
0, 0, 84, 268.9127502441406
0, 0, 85, 231.0475616455078
0, 0, 86, 254.2677307128906
0, 0, 87, 251.6168212890625
0, 0, 88, 259.6699523925781
0, 0, 89, 284.0775146484375
0, 0, 90, 244.7816925048828
0, 0, 91, 280.6072692871094
0, 0, 92, 253.8504791259766
0, 0, 93, 249.0634002685547
0, 0, 94, 246.3208923339844
0, 0, 95, 247.3875579833984
0, 0, 96, 274.7422180175781
0, 0, 97, 273.3083801269531
0, 0, 98, 273.6827087402344
0, 0, 99, 258.3284606933594
0, 0, 100, 258.5122680664062
0, 0, 101, 224.6509094238281
0, 0, 102, 230.9926452636719
0, 0, 103, 271.2095031738281
0, 0, 104, 253.5765380859375
0, 0, 105, 251.013671875
0, 0, 106, 246.2183532714844
0, 0, 107, 152.0504608154297
0, 0, 108, 39.41646194458008
0, 0, 109, 11.87540817260742
0, 0, 110, 12.00793266296387
0, 0, 111, 9.62828540802002
0, 0, 112, 6.040643692016602
0, 0, 113, 4.84706974029541
0, 0, 114, 8.725613594055176
0, 0, 115, 4.393964290618896
0, 0, 116, 5.939711093902588
0, 0, 117, 8.138214111328125
0, 0, 118, 5.889270782470703
0, 0, 119, 2.814878940582275
0, 0, 120, 5.19428825378418
0, 0, 121, 4.761237621307373
0, 0, 122, 6.757311820983887
0, 0, 123, 5.485647201538086
0, 0, 124, 5.756104946136475
0, 0, 125, 4.47283411026001
0, 0, 126, 3.659933090209961
0, 0, 127, 3.389068841934204
0, 1, 0, 7.162628650665283
0, 1, 1, 3.828637838363647
0, 1, 2, 5.33468770980835
0, 1, 3, 2.314624309539795
0, 1, 4, 2.838464260101318
0, 1, 5, 3.105709791183472
0, 1, 6, 3.291030645370483
0, 1, 7, 2.54205584526062
0, 1, 8, 7.4073166847229
0, 1, 9, 4.810659408569336
0, 1, 10, 7.759154796600342
0, 1, 11, 11.19624900817871
0, 1, 12, 8.3935546875
0, 1, 13, 9.024681091308594
0, 1, 14, 7.480577945709229
0, 1, 15, 6.933123588562012
0, 1, 16, 12.46846103668213
0, 1, 17, 12.18205070495605
0, 1, 18, 20.14111518859863
0, 1, 19, 65.27648162841797
0, 1, 20, 199.8085174560547
0, 1, 21, 254.3256530761719
0, 1, 22, 294.6837158203125
0, 1, 23, 285.2845764160156
0, 1, 24, 277.1808166503906
0, 1, 25, 290.0192565917969
0, 1, 26, 269.2089538574219
0, 1, 27, 306.0476379394531
0, 1, 28, 299.0488586425781
0, 1, 29, 295.6356506347656
0, 1, 30, 280.3155212402344
0, 1, 31, 292.9330444335938
0, 1, 32, 289.7813720703125
0, 1, 33, 296.6181030273438
0, 1, 34, 292.2720947265625
0, 1, 35, 281.2655029296875
0, 1, 36, 307.1937561035156
0, 1, 37, 295.15869140625
0, 1, 38, 279.1666870117188
0, 1, 39, 296.4130249023438
0, 1, 40, 267.3696899414062
0, 1, 41, 285.3512573242188
0, 1, 42, 288.9119567871094
0, 1, 43, 331.1266784667969
0, 1, 44, 277.9842529296875
0, 1, 45, 291.6668090820312
0, 1, 46, 259.5320129394531
0, 1, 47, 311.561279296875
0, 1, 48, 285.6510009765625
0, 1, 49, 300.73193359375
0, 1, 50, 262.2964172363281
0, 1, 51, 272.0441589355469
0, 1, 52, 295.1429443359375
0, 1, 53, 304.4819641113281
0, 1, 54, 274.3683776855469
0, 1, 55, 293.1395568847656
0, 1, 56, 276.3382263183594
0, 1, 57, 298.9558715820312
0, 1, 58, 309.7203063964844
0, 1, 59, 293.4314575195312
0, 1, 60, 297.6460266113281
0, 1, 61, 275.6822204589844
0, 1, 62, 307.581298828125
0, 1, 63, 284.9330749511719
0, 1, 64, 288.1047668457031
0, 1, 65, 293.7003173828125
0, 1, 66, 291.4730224609375
0, 1, 67, 291.5929260253906
0, 1, 68, 276.8403930664062
0, 1, 69, 281.1452941894531
0, 1, 70, 270.6796569824219
0, 1, 71, 272.9602661132812
0, 1, 72, 286.1953735351562
0, 1, 73, 303.4771118164062
0, 1, 74, 305.3399658203125
0, 1, 75, 291.9749145507812
0, 1, 76, 284.4730529785156
0, 1, 77, 290.8851318359375
0, 1, 78, 297.181396484375
0, 1, 79, 300.5009155273438
0, 1, 80, 300.7162780761719
0, 1, 81, 301.6801147460938
0, 1, 82, 282.9979858398438
0, 1, 83, 333.3554382324219
0, 1, 84, 309.9324035644531
0, 1, 85, 254.2217407226562
0, 1, 86, 295.1576843261719
0, 1, 87, 289.8075256347656
0, 1, 88, 299.4403381347656
0, 1, 89, 289.7835998535156
0, 1, 90, 270.0924072265625
0, 1, 91, 317.2459106445312
0, 1, 92, 291.5866088867188
0, 1, 93, 287.701904296875
0, 1, 94, 304.5099487304688
0, 1, 95, 284.1452941894531
0, 1, 96, 283.8979187011719
0, 1, 97, 305.427978515625
0, 1, 98, 276.4608154296875
0, 1, 99, 265.1273498535156
0, 1, 100, 276.3072509765625
0, 1, 101, 283.2717590332031
0, 1, 102, 277.353759765625
0, 1, 103, 282.3177185058594
0, 1, 104, 307.9377136230469
0, 1, 105, 296.9136657714844
0, 1, 106, 259.918212890625
0, 1, 107, 192.6276245117188
0, 1, 108, 81.82021331787109
0, 1, 109, 25.12592697143555
0, 1, 110, 11.36632823944092
0, 1, 111, 8.594359397888184
0, 1, 112, 12.66751480102539
0, 1, 113, 5.957919597625732
0, 1, 114, 5.954987525939941
0, 1, 115, 6.268355369567871
0, 1, 116, 10.41325378417969
0, 1, 117, 4.556053638458252
0, 1, 118, 4.152925491333008
0, 1, 119, 9.298809051513672
0, 1, 120, 5.158531665802002
0, 1, 121, 6.568964004516602
0, 1, 122, 5.977710247039795
0, 1, 123, 3.392048597335815
0, 1, 124, 8.257051467895508
0, 1, 125, 2.714360475540161
0, 1, 126, 4.32851505279541
0, 1, 127, 1.448636293411255
0, 2, 0, 4.34516429901123
0, 2, 1, 3.832239389419556
0, 2, 2, 4.694830894470215
0, 2, 3, 4.406877994537354
0, 2, 4, 2.813005208969116
0, 2, 5, 2.805415630340576
0, 2, 6, 3.144417285919189
0, 2, 7, 4.23110818862915
0, 2, 8, 4.345253944396973
0, 2, 9, 5.627436637878418
0, 2, 10, 7.345764636993408
0, 2, 11, 5.753642559051514
0, 2, 12, 8.015892028808594
0, 2, 13, 12.55443096160889
0, 2, 14, 11.75285816192627
0, 2, 15, 6.631391525268555
0, 2, 16, 9.593506813049316
0, 2, 17, 16.70890045166016
0, 2, 18, 28.71431732177734
0, 2, 19, 118.8180160522461
0, 2, 20, 246.8751373291016
0, 2, 21, 270.6264953613281
0, 2, 22, 315.7007751464844
0, 2, 23, 303.3003234863281
0, 2, 24, 286.9609680175781
0, 2, 25, 304.00244140625
0, 2, 26, 292.6852722167969
0, 2, 27, 274.5733642578125
0, 2, 28, 281.4579162597656
0, 2, 29, 273.3770751953125
0, 2, 30, 288.7899475097656
0, 2, 31, 277.0821838378906
0, 2, 32, 294.9934692382812
0, 2, 33, 284.9371032714844
0, 2, 34, 336.6478576660156
0, 2, 35, 291.5285034179688
0, 2, 36, 302.4722595214844
0, 2, 37, 315.02294921875
0, 2, 38, 311.8163146972656
0, 2, 39, 267.3248596191406
0, 2, 40, 307.6246337890625
0, 2, 41, 292.2793884277344
0, 2, 42, 304.93115234375
0, 2, 43, 310.8577270507812
0, 2, 44, 311.4734802246094
0, 2, 45, 324.4000854492188
0, 2, 46, 287.4256896972656
0, 2, 47, 303.0723571777344
0, 2, 48, 281.0264282226562
0, 2, 49, 280.6134643554688
0, 2, 50, 293.7817077636719
0, 2, 51, 283.5892333984375
0, 2, 52, 273.2135925292969
0, 2, 53, 288.3690490722656
0, 2, 54, 280.5773010253906
0, 2, 55, 273.077880859375
0, 2, 56, 302.2217102050781
0, 2, 57, 294.1647338867188
0, 2, 58, 301.9289855957031
0, 2, 59, 290.6311340332031
0, 2, 60, 320.4550170898438
0, 2, 61, 300.9382934570312
0, 2, 62, 314.1865234375
0, 2, 63, 302.4507446289062
0, 2, 64, 295.1809997558594
0, 2, 65, 317.1138000488281
0, 2, 66, 279.3294067382812
0, 2, 67, 290.1370544433594
0, 2, 68, 295.7395935058594
0, 2, 69, 310.352294921875
0, 2, 70, 334.3370971679688
0, 2, 71, 284.2687683105469
0, 2, 72, 303.3069763183594
0, 2, 73, 311.4043579101562
0, 2, 74, 285.6430358886719
0, 2, 75, 304.2711486816406
0, 2, 76, 286.38916015625
0, 2, 77, 298.9232482910156
0, 2, 78, 315.6953125
0, 2, 79, 308.9005737304688
0, 2, 80, 296.2943725585938
0, 2, 81, 283.1304931640625
0, 2, 82, 316.7332763671875
0, 2, 83, 316.2819519042969
0, 2, 84, 290.2602233886719
0, 2, 85, 280.993408203125
0, 2, 86, 323.1986083984375
0, 2, 87, 286.0018920898438
0, 2, 88, 279.8208923339844
0, 2, 89, 295.7718811035156
0, 2, 90, 295.0369567871094
0, 2, 91, 275.9850769042969
0, 2, 92, 305.45849609375
0, 2, 93, 316.5724182128906
0, 2, 94, 292.7173461914062
0, 2, 95, 314.4747924804688
0, 2, 96, 315.46728515625
0, 2, 97, 292.3959655761719
0, 2, 98, 293.89013671875
0, 2, 99, 273.1715698242188
0, 2, 100, 306.7591857910156
0, 2, 101, 301.0774841308594
0, 2, 102, 296.2734985351562
0, 2, 103, 292.0283508300781
0, 2, 104, 294.2503662109375
0, 2, 105, 273.4771118164062
0, 2, 106, 297.5796813964844
0, 2, 107, 272.0308837890625
0, 2, 108, 117.6814575195312
0, 2, 109, 32.58685302734375
0, 2, 110, 9.807782173156738
0, 2, 111, 10.47230815887451
0, 2, 112, 8.012619018554688
0, 2, 113, 9.645894050598145
0, 2, 114, 10.40849590301514
0, 2, 115, 9.748875617980957
0, 2, 116, 8.240893363952637
0, 2, 117, 6.414103031158447
0, 2, 118, 3.117281913757324
0, 2, 119, 4.358110427856445
0, 2, 120, 5.291491508483887
0, 2, 121, 2.70585823059082
0, 2, 122, 4.560745716094971
0, 2, 123, 7.50413990020752
0, 2, 124, 4.665799140930176
0, 2, 125, 4.963034152984619
0, 2, 126, 2.971939086914062
0, 2, 127, 6.629213333129883
0, 3, 0, 6.242620944976807
0, 3, 1, 4.046463966369629
0, 3, 2, 3.057267904281616
0, 3, 3, 3.20223331451416
0, 3, 4, 4.680089950561523
0, 3, 5, 6.093979358673096
0, 3, 6, 6.802712917327881
0, 3, 7, 4.124160289764404
0, 3, 8, 5.753382205963135
0, 3, 9, 4.821808815002441
0, 3, 10, 6.290925979614258
0, 3, 11, 4.826991081237793
0, 3, 12, 7.017439842224121
0, 3, 13, 16.16063117980957
0, 3, 14, 11.0197811126709
0, 3, 15, 13.99791717529297
0, 3, 16, 11.30167961120605
0, 3, 17, 19.36953544616699
0, 3, 18, 50.92876434326172
0, 3, 19, 175.0370788574219
0, 3, 20, 272.7225036621094
0, 3, 21, 274.0914611816406
0, 3, 22, 282.1278686523438
0, 3, 23, 285.8442077636719
0, 3, 24, 285.9764404296875
0, 3, 25, 270.1243591308594
0, 3, 26, 305.7764892578125
0, 3, 27, 292.2370300292969
0, 3, 28, 278.5596313476562
0, 3, 29, 341.7689819335938
0, 3, 30, 317.2409362792969
0, 3, 31, 285.9645385742188
0, 3, 32, 307.8995056152344
0, 3, 33, 313.1470336914062
0, 3, 34, 320.9739379882812
0, 3, 35, 305.3841247558594
0, 3, 36, 272.42919921875
0, 3, 37, 315.4162902832031
0, 3, 38, 304.7139587402344
0, 3, 39, 292.3944702148438
0, 3, 40, 265.7842407226562
0, 3, 41, 299.7231140136719
0, 3, 42, 286.0689086914062
0, 3, 43, 305.6255798339844
0, 3, 44, 310.3408203125
0, 3, 45, 291.5733642578125
0, 3, 46, 329.6068725585938
0, 3, 47, 299.4292907714844
0, 3, 48, 303.4622192382812
0, 3, 49, 275.3108520507812
0, 3, 50, 290.3301391601562
0, 3, 51, 275.2791442871094
0, 3, 52, 317.6869812011719
0, 3, 53, 292.6404724121094
0, 3, 54, 284.4559020996094
0, 3, 55, 284.167724609375
0, 3, 56, 297.6968994140625
0, 3, 57, 286.9413146972656
0, 3, 58, 309.0509948730469
0, 3, 59, 298.3106079101562
0, 3, 60, 297.7052307128906
0, 3, 61, 265.0243225097656
0, 3, 62, 284.0469360351562
0, 3, 63, 309.2552795410156
0, 3, 64, 316.4836730957031
0, 3, 65, 305.6598205566406
0, 3, 66, 314.3866271972656
0, 3, 67, 319.1782836914062
0, 3, 68, 279.0174865722656
0, 3, 69, 282.461181640625
0, 3, 70, 288.4413757324219
0, 3, 71, 302.3822631835938
0, 3, 72, 269.2110595703125
0, 3, 73, 308.2265014648438
0, 3, 74, 296.3545532226562
0, 3, 75, 288.9797668457031
0, 3, 76, 306.6046447753906
0, 3, 77, 312.2529602050781
0, 3, 78, 304.0752563476562
0, 3, 79, 281.093505859375
0, 3, 80, 291.8010559082031
0, 3, 81, 312.38671875
0, 3, 82, 315.7347412109375
0, 3, 83, 301.2328491210938
0, 3, 84, 313.0400390625
0, 3, 85, 294.113037109375
0, 3, 86, 306.7527465820312
0, 3, 87, 297.4170532226562
0, 3, 88, 297.6858215332031
0, 3, 89, 297.5339965820312
0, 3, 90, 277.1860656738281
0, 3, 91, 283.0661315917969
0, 3, 92, 303.2542114257812
0, 3, 93, 312.4364929199219
0, 3, 94, 299.2803955078125
0, 3, 95, 333.1139221191406
0, 3, 96, 290.4563598632812
0, 3, 97, 285.8561706542969
0, 3, 98, 277.8167724609375
0, 3, 99, 262.9710083007812
0, 3, 100, 286.7788696289062
0, 3, 101, 296.1951904296875
0, 3, 102, 275.5649108886719
0, 3, 103, 321.744384765625
0, 3, 104, 307.8911743164062
0, 3, 105, 287.5641479492188
0, 3, 106, 302.2953796386719
0, 3, 107, 280.5708312988281
0, 3, 108, 169.2117919921875
0, 3, 109, 55.98261260986328
0, 3, 110, 17.99331283569336
0, 3, 111, 12.2903881072998
0, 3, 112, 14.55739593505859
0, 3, 113, 7.856103420257568
0, 3, 114, 9.13958740234375
0, 3, 115, 9.765393257141113
0, 3, 116, 8.120352745056152
0, 3, 117, 6.775461196899414
0, 3, 118, 8.473504066467285
0, 3, 119, 5.487543106079102
0, 3, 120, 6.177206993103027
0, 3, 121, 4.656468391418457
0, 3, 122, 3.897071123123169
0, 3, 123, 6.335556983947754
0, 3, 124, 3.137637853622437
0, 3, 125, 5.742660045623779
0, 3, 126, 4.940559387207031
0, 3, 127, 2.673551559448242
0, 4, 0, 3.401838064193726
0, 4, 1, 5.537056922912598
0, 4, 2, 2.513214826583862
0, 4, 3, 1.388692259788513
0, 4, 4, 7.970951557159424
0, 4, 5, 8.131466865539551
0, 4, 6, 7.024366855621338
0, 4, 7, 6.376931667327881
0, 4, 8, 2.994241237640381
0, 4, 9, 5.620411396026611
0, 4, 10, 5.563490390777588
0, 4, 11, 6.893176555633545
0, 4, 12, 5.239258766174316
0, 4, 13, 7.956222057342529
0, 4, 14, 12.43207454681396
0, 4, 15, 10.90361213684082
0, 4, 16, 15.5923023223877
0, 4, 17, 18.14384841918945
0, 4, 18, 94.33425903320312
0, 4, 19, 223.0668487548828
0, 4, 20, 285.5846557617188
0, 4, 21, 272.6671752929688
0, 4, 22, 303.645751953125
0, 4, 23, 265.8252258300781
0, 4, 24, 289.8353271484375
0, 4, 25, 275.040771484375
0, 4, 26, 295.5590515136719
0, 4, 27, 283.0095520019531
0, 4, 28, 305.8892517089844
0, 4, 29, 321.71533203125
0, 4, 30, 309.6306457519531
0, 4, 31, 308.3259887695312
0, 4, 32, 281.5586853027344
0, 4, 33, 295.4777221679688
0, 4, 34, 295.8316345214844
0, 4, 35, 312.6180419921875
0, 4, 36, 292.4318237304688
0, 4, 37, 287.4916687011719
0, 4, 38, 297.5533142089844
0, 4, 39, 297.2545166015625
0, 4, 40, 302.1563415527344
0, 4, 41, 312.0260314941406
0, 4, 42, 330.0328979492188
0, 4, 43, 297.1272583007812
0, 4, 44, 322.085205078125
0, 4, 45, 323.7912902832031
0, 4, 46, 306.5209350585938
0, 4, 47, 292.5419311523438
0, 4, 48, 293.8203430175781
0, 4, 49, 277.7729187011719
0, 4, 50, 296.4334106445312
0, 4, 51, 315.4260864257812
0, 4, 52, 328.0653076171875
0, 4, 53, 306.0263977050781
0, 4, 54, 286.1506042480469
0, 4, 55, 315.5138549804688
0, 4, 56, 286.8405151367188
0, 4, 57, 310.8048095703125
0, 4, 58, 296.9896850585938
0, 4, 59, 309.09814453125
0, 4, 60, 302.9631652832031
0, 4, 61, 315.0445251464844
0, 4, 62, 308.8260803222656
0, 4, 63, 299.3665466308594
0, 4, 64, 329.1589965820312
0, 4, 65, 315.5394897460938
0, 4, 66, 294.7187805175781
0, 4, 67, 285.1973266601562
0, 4, 68, 314.5342407226562
0, 4, 69, 276.4071044921875
0, 4, 70, 300.5762939453125
0, 4, 71, 321.1130065917969
0, 4, 72, 332.1073913574219
0, 4, 73, 298.039306640625
0, 4, 74, 294.3873901367188
0, 4, 75, 289.8499450683594
0, 4, 76, 275.4031677246094
0, 4, 77, 278.4951171875
0, 4, 78, 310.6063232421875
0, 4, 79, 318.7074584960938
0, 4, 80, 316.7464294433594
0, 4, 81, 312.2982177734375
0, 4, 82, 297.5151977539062
0, 4, 83, 299.6473083496094
0, 4, 84, 294.3582763671875
0, 4, 85, 296.2156372070312
0, 4, 86, 300.3733520507812
0, 4, 87, 284.7197875976562
0, 4, 88, 308.1943664550781
0, 4, 89, 295.4211730957031
0, 4, 90, 331.7438659667969
0, 4, 91, 301.3684387207031
0, 4, 92, 289.7182312011719
0, 4, 93, 296.7065124511719
0, 4, 94, 295.0416870117188
0, 4, 95, 287.829345703125
0, 4, 96, 321.7815246582031
0, 4, 97, 273.8306274414062
0, 4, 98, 325.8576049804688
0, 4, 99, 312.8502197265625
0, 4, 100, 301.0336303710938
0, 4, 101, 257.3330688476562
0, 4, 102, 297.7204284667969
0, 4, 103, 317.0035705566406
0, 4, 104, 281.7599792480469
0, 4, 105, 310.6648559570312
0, 4, 106, 285.8309631347656
0, 4, 107, 296.7235717773438
0, 4, 108, 228.1962280273438
0, 4, 109, 79.76376342773438
0, 4, 110, 18.00378799438477
0, 4, 111, 12.63502979278564
0, 4, 112, 8.160432815551758
0, 4, 113, 11.77907371520996
0, 4, 114, 7.692920207977295
0, 4, 115, 8.843515396118164
0, 4, 116, 9.010345458984375
0, 4, 117, 5.586635589599609
0, 4, 118, 7.787346363067627
0, 4, 119, 8.035381317138672
0, 4, 120, 4.895324230194092
0, 4, 121, 3.805229425430298
0, 4, 122, 4.71641206741333
0, 4, 123, 5.426571369171143
0, 4, 124, 5.428805828094482
0, 4, 125, 9.395594596862793
0, 4, 126, 3.104540109634399
0, 4, 127, 4.014947891235352
0, 5, 0, 5.147886276245117
0, 5, 1, 3.515652179718018
0, 5, 2, 5.217346668243408
0, 5, 3, 4.352816581726074
0, 5, 4, 5.918509006500244
0, 5, 5, 5.252403736114502
0, 5, 6, 9.358858108520508
0, 5, 7, 6.061638355255127
0, 5, 8, 5.668252944946289
0, 5, 9, 4.375700950622559
0, 5, 10, 6.498041152954102
0, 5, 11, 6.964095115661621
0, 5, 12, 8.976556777954102
0, 5, 13, 7.593522071838379
0, 5, 14, 13.1934871673584
0, 5, 15, 17.32893562316895
0, 5, 16, 13.75512981414795
0, 5, 17, 27.93033409118652
0, 5, 18, 135.6252746582031
0, 5, 19, 286.8083801269531
0, 5, 20, 308.0325622558594
0, 5, 21, 317.3114318847656
0, 5, 22, 275.24365234375
0, 5, 23, 312.3208312988281
0, 5, 24, 300.8938598632812
0, 5, 25, 289.4269104003906
0, 5, 26, 297.1492919921875
0, 5, 27, 324.1791687011719
0, 5, 28, 301.4451293945312
0, 5, 29, 302.5115051269531
0, 5, 30, 323.996337890625
0, 5, 31, 287.6799926757812
0, 5, 32, 302.3693542480469
0, 5, 33, 305.2060546875
0, 5, 34, 297.7935791015625
0, 5, 35, 308.5010375976562
0, 5, 36, 272.9412841796875
0, 5, 37, 282.0882873535156
0, 5, 38, 292.0576477050781
0, 5, 39, 311.4552917480469
0, 5, 40, 311.7982482910156
0, 5, 41, 273.8069458007812
0, 5, 42, 303.5580139160156
0, 5, 43, 314.6263732910156
0, 5, 44, 292.6197509765625
0, 5, 45, 304.1494750976562
0, 5, 46, 266.1451416015625
0, 5, 47, 279.7953186035156
0, 5, 48, 293.7928466796875
0, 5, 49, 285.3255310058594
0, 5, 50, 293.8634948730469
0, 5, 51, 281.3124389648438
0, 5, 52, 270.7202453613281
0, 5, 53, 282.4954223632812
0, 5, 54, 291.6977844238281
0, 5, 55, 346.3765258789062
0, 5, 56, 304.8716735839844
0, 5, 57, 306.8478088378906
0, 5, 58, 310.814208984375
0, 5, 59, 303.4130859375
0, 5, 60, 309.5984191894531
0, 5, 61, 282.4158325195312
0, 5, 62, 324.781494140625
0, 5, 63, 291.3477783203125
0, 5, 64, 322.2803955078125
0, 5, 65, 306.927734375
0, 5, 66, 326.7040710449219
0, 5, 67, 312.3778076171875
0, 5, 68, 308.0058898925781
0, 5, 69, 312.8260498046875
0, 5, 70, 300.1350402832031
0, 5, 71, 272.8096008300781
0, 5, 72, 311.2533874511719
0, 5, 73, 300.9858093261719
0, 5, 74, 295.8252258300781
0, 5, 75, 292.9722595214844
0, 5, 76, 285.7822875976562
0, 5, 77, 297.4085693359375
0, 5, 78, 314.3818359375
0, 5, 79, 307.3762512207031
0, 5, 80, 297.6092529296875
0, 5, 81, 326.7735290527344
0, 5, 82, 325.5108642578125
0, 5, 83, 282.6664123535156
0, 5, 84, 302.6562805175781
0, 5, 85, 271.5913696289062
0, 5, 86, 325.0967712402344
0, 5, 87, 282.375732421875
0, 5, 88, 315.0403137207031
0, 5, 89, 304.5000305175781
0, 5, 90, 315.9903869628906
0, 5, 91, 314.3832702636719
0, 5, 92, 295.6784973144531
0, 5, 93, 324.3269653320312
0, 5, 94, 312.3501586914062
0, 5, 95, 296.15234375
0, 5, 96, 296.032470703125
0, 5, 97, 295.1294250488281
0, 5, 98, 319.2408752441406
0, 5, 99, 302.7436218261719
0, 5, 100, 289.5223388671875
0, 5, 101, 305.893798828125
0, 5, 102, 292.370849609375
0, 5, 103, 312.5319519042969
0, 5, 104, 302.6470947265625
0, 5, 105, 293.22265625
0, 5, 106, 280.5967407226562
0, 5, 107, 293.5902709960938
0, 5, 108, 264.8635559082031
0, 5, 109, 157.7806701660156
0, 5, 110, 39.21015930175781
0, 5, 111, 19.39715957641602
0, 5, 112, 16.33332252502441
0, 5, 113, 12.55192756652832
0, 5, 114, 12.91929626464844
0, 5, 115, 7.498466491699219
0, 5, 116, 8.636401176452637
0, 5, 117, 8.161527633666992
0, 5, 118, 12.77460861206055
0, 5, 119, 6.135470867156982
0, 5, 120, 9.10296630859375
0, 5, 121, 4.104278564453125
0, 5, 122, 6.349300384521484
0, 5, 123, 5.961986064910889
0, 5, 124, 5.809686660766602
0, 5, 125, 3.991915941238403
0, 5, 126, 6.793896198272705
0, 5, 127, 5.641647338867188
0, 6, 0, 5.266491889953613
0, 6, 1, 3.570166349411011
0, 6, 2, 4.175099849700928
0, 6, 3, 8.147639274597168
0, 6, 4, 3.148604869842529
0, 6, 5, 6.063892841339111
0, 6, 6, 8.603928565979004
0, 6, 7, 7.6815185546875
0, 6, 8, 10.91302871704102
0, 6, 9, 6.497788906097412
0, 6, 10, 6.864996910095215
0, 6, 11, 9.119536399841309
0, 6, 12, 9.914402008056641
0, 6, 13, 18.04367446899414
0, 6, 14, 9.235149383544922
0, 6, 15, 15.51897716522217
0, 6, 16, 29.82600593566895
0, 6, 17, 54.59929656982422
0, 6, 18, 174.4709777832031
0, 6, 19, 276.7894897460938
0, 6, 20, 292.4650573730469
0, 6, 21, 314.81396484375
0, 6, 22, 320.6006469726562
0, 6, 23, 304.3654479980469
0, 6, 24, 316.4980163574219
0, 6, 25, 316.8584899902344
0, 6, 26, 320.7712707519531
0, 6, 27, 331.0968322753906
0, 6, 28, 296.3192138671875
0, 6, 29, 328.930908203125
0, 6, 30, 280.063232421875
0, 6, 31, 285.766845703125
0, 6, 32, 339.7672424316406
0, 6, 33, 301.5421142578125
0, 6, 34, 343.6464233398438
0, 6, 35, 320.844482421875
0, 6, 36, 274.1592102050781
0, 6, 37, 289.8914184570312
0, 6, 38, 312.9687805175781
0, 6, 39, 298.9015808105469
0, 6, 40, 284.0439147949219
0, 6, 41, 293.6260070800781
0, 6, 42, 305.0390625
0, 6, 43, 289.0170593261719
0, 6, 44, 281.4541625976562
0, 6, 45, 322.2254028320312
0, 6, 46, 305.18212890625
0, 6, 47, 333.0729064941406
0, 6, 48, 293.9301452636719
0, 6, 49, 310.6082153320312
0, 6, 50, 328.4047546386719
0, 6, 51, 310.2903442382812
0, 6, 52, 321.67626953125
0, 6, 53, 328.4128723144531
0, 6, 54, 304.3421325683594
0, 6, 55, 310.5904235839844
0, 6, 56, 296.4010314941406
0, 6, 57, 313.3538513183594
0, 6, 58, 261.4032897949219
0, 6, 59, 301.337890625
0, 6, 60, 312.0999450683594
0, 6, 61, 270.7130737304688
0, 6, 62, 340.2549438476562
0, 6, 63, 323.8106994628906
0, 6, 64, 289.8935241699219
0, 6, 65, 284.908447265625
0, 6, 66, 302.5295104980469
0, 6, 67, 308.5110778808594
0, 6, 68, 293.9359741210938
0, 6, 69, 279.1392822265625
0, 6, 70, 273.050537109375
0, 6, 71, 288.9767761230469
0, 6, 72, 312.0639038085938
0, 6, 73, 293.6695556640625
0, 6, 74, 329.1360168457031
0, 6, 75, 343.5730285644531
0, 6, 76, 296.31982421875
0, 6, 77, 289.1505737304688
0, 6, 78, 278.9995422363281
0, 6, 79, 292.9005737304688
0, 6, 80, 302.5675659179688
0, 6, 81, 314.8174743652344
0, 6, 82, 321.5445861816406
0, 6, 83, 319.5525207519531
0, 6, 84, 296.2216491699219
0, 6, 85, 300.22705078125
0, 6, 86, 329.5641479492188
0, 6, 87, 291.851806640625
0, 6, 88, 306.0360412597656
0, 6, 89, 303.2246704101562
0, 6, 90, 298.8358764648438
0, 6, 91, 312.9775390625
0, 6, 92, 287.6830139160156
0, 6, 93, 295.9829406738281
0, 6, 94, 273.6533508300781
0, 6, 95, 298.7812194824219
0, 6, 96, 350.6965637207031
0, 6, 97, 310.2674865722656
0, 6, 98, 300.6605529785156
0, 6, 99, 271.9699401855469
0, 6, 100, 308.9143371582031
0, 6, 101, 292.3471374511719
0, 6, 102, 306.9984130859375
0, 6, 103, 306.9332275390625
0, 6, 104, 289.5280456542969
0, 6, 105, 301.0949096679688
0, 6, 106, 309.0128479003906
0, 6, 107, 307.0138854980469
0, 6, 108, 265.2162780761719
0, 6, 109, 185.5491790771484
0, 6, 110, 55.83352279663086
0, 6, 111, 22.29951095581055
0, 6, 112, 15.585036277771
0, 6, 113, 11.41580772399902
0, 6, 114, 11.599440574646
0, 6, 115, 11.94600772857666
0, 6, 116, 9.726177215576172
0, 6, 117, 6.62007999420166
0, 6, 118, 10.84388256072998
0, 6, 119, 9.467395782470703
0, 6, 120, 6.760956287384033
0, 6, 121, 4.97196626663208
0, 6, 122, 7.204476356506348
0, 6, 123, 4.487904071807861
0, 6, 124, 6.383144378662109
0, 6, 125, 5.638141632080078
0, 6, 126, 3.701905727386475
0, 6, 127, 7.433160781860352
0, 7, 0, 5.459981441497803
0, 7, 1, 4.048600196838379
0, 7, 2, 7.847017288208008
0, 7, 3, 2.670976638793945
0, 7, 4, 2.841564178466797
0, 7, 5, 6.416018962860107
0, 7, 6, 4.938904285430908
0, 7, 7, 7.944864749908447
0, 7, 8, 6.344103813171387
0, 7, 9, 6.639420509338379
0, 7, 10, 9.905152320861816
0, 7, 11, 9.600519180297852
0, 7, 12, 10.79602336883545
0, 7, 13, 11.27860450744629
0, 7, 14, 10.20565891265869
0, 7, 15, 15.53420162200928
0, 7, 16, 28.05755615234375
0, 7, 17, 96.38876342773438
0, 7, 18, 217.5757293701172
0, 7, 19, 289.6929931640625
0, 7, 20, 297.2869567871094
0, 7, 21, 276.0743103027344
0, 7, 22, 299.8860168457031
0, 7, 23, 291.589111328125
0, 7, 24, 312.3557434082031
0, 7, 25, 325.9371948242188
0, 7, 26, 276.6020202636719
0, 7, 27, 297.8840637207031
0, 7, 28, 324.8654174804688
0, 7, 29, 318.0794372558594
0, 7, 30, 299.4589233398438
0, 7, 31, 278.9432983398438
0, 7, 32, 305.0964050292969
0, 7, 33, 262.2309265136719
0, 7, 34, 299.7393188476562
0, 7, 35, 319.64404296875
0, 7, 36, 329.4501647949219
0, 7, 37, 323.27880859375
0, 7, 38, 295.7797241210938
0, 7, 39, 306.4230041503906
0, 7, 40, 287.5097961425781
0, 7, 41, 272.8834533691406
0, 7, 42, 302.4730529785156
0, 7, 43, 273.3396606445312
0, 7, 44, 302.9853515625
0, 7, 45, 292.126953125
0, 7, 46, 281.2549743652344
0, 7, 47, 328.9511413574219
0, 7, 48, 287.6342468261719
0, 7, 49, 300.8392639160156
0, 7, 50, 320.4859924316406
0, 7, 51, 298.3474426269531
0, 7, 52, 326.1755981445312
0, 7, 53, 308.0543212890625
0, 7, 54, 323.9034729003906
0, 7, 55, 310.4910583496094
0, 7, 56, 280.2415771484375
0, 7, 57, 282.4696350097656
0, 7, 58, 295.5673522949219
0, 7, 59, 295.4026489257812
0, 7, 60, 323.0218200683594
0, 7, 61, 283.2369079589844
0, 7, 62, 296.681396484375
0, 7, 63, 291.8991088867188
0, 7, 64, 307.0590515136719
0, 7, 65, 329.0727844238281
0, 7, 66, 318.1585388183594
0, 7, 67, 301.0376892089844
0, 7, 68, 281.6151123046875
0, 7, 69, 296.3966064453125
0, 7, 70, 303.2381591796875
0, 7, 71, 309.7739562988281
0, 7, 72, 285.3080749511719
0, 7, 73, 295.0980529785156
0, 7, 74, 343.5992126464844
0, 7, 75, 318.1383056640625
0, 7, 76, 322.530517578125
0, 7, 77, 281.1602172851562
0, 7, 78, 301.0167541503906
0, 7, 79, 298.546630859375
0, 7, 80, 314.0833129882812
0, 7, 81, 318.3253173828125
0, 7, 82, 329.5135803222656
0, 7, 83, 316.6528625488281
0, 7, 84, 311.1841735839844
0, 7, 85, 271.6167297363281
0, 7, 86, 308.4894409179688
0, 7, 87, 310.1001281738281
0, 7, 88, 307.7565612792969
0, 7, 89, 293.5874633789062
0, 7, 90, 306.1316223144531
0, 7, 91, 316.7492980957031
0, 7, 92, 288.6248168945312
0, 7, 93, 309.3459167480469
0, 7, 94, 274.515869140625
0, 7, 95, 296.0718078613281
0, 7, 96, 330.9147033691406
0, 7, 97, 294.2861328125
0, 7, 98, 290.3707885742188
0, 7, 99, 311.4014892578125
0, 7, 100, 283.3821411132812
0, 7, 101, 275.6123962402344
0, 7, 102, 290.5720825195312
0, 7, 103, 294.6179809570312
0, 7, 104, 274.6666870117188
0, 7, 105, 306.6470947265625
0, 7, 106, 318.07421875
0, 7, 107, 295.9826965332031
0, 7, 108, 272.9124145507812
0, 7, 109, 237.2114105224609
0, 7, 110, 96.36891937255859
0, 7, 111, 24.43276596069336
0, 7, 112, 13.09422969818115
0, 7, 113, 14.08444404602051
0, 7, 114, 13.55757427215576
0, 7, 115, 10.81969165802002
0, 7, 116, 8.917387962341309
0, 7, 117, 6.245292186737061
0, 7, 118, 9.297399520874023
0, 7, 119, 6.383840560913086
0, 7, 120, 6.374401092529297
0, 7, 121, 8.561321258544922
0, 7, 122, 7.857913970947266
0, 7, 123, 3.921205520629883
0, 7, 124, 3.869307279586792
0, 7, 125, 9.339748382568359
0, 7, 126, 9.535024642944336
0, 7, 127, 2.165131330490112
0, 8, 0, 4.111721038818359
0, 8, 1, 5.564152240753174
0, 8, 2, 3.692314624786377
0, 8, 3, 3.047879934310913
0, 8, 4, 6.107924938201904
0, 8, 5, 3.83307957649231
0, 8, 6, 4.64664363861084
0, 8, 7, 6.915263652801514
0, 8, 8, 11.38308048248291
0, 8, 9, 6.726938724517822
0, 8, 10, 11.17660140991211
0, 8, 11, 13.60059833526611
0, 8, 12, 13.41112613677979
0, 8, 13, 15.27639389038086
0, 8, 14, 11.9959135055542
0, 8, 15, 19.99465560913086
0, 8, 16, 33.62847518920898
0, 8, 17, 130.8223876953125
0, 8, 18, 242.7790069580078
0, 8, 19, 294.5982971191406
0, 8, 20, 285.4630126953125
0, 8, 21, 306.5517883300781
0, 8, 22, 295.4028015136719
0, 8, 23, 274.2059631347656
0, 8, 24, 267.5964660644531
0, 8, 25, 274.9723510742188
0, 8, 26, 306.6345520019531
0, 8, 27, 307.9606323242188
0, 8, 28, 302.3826599121094
0, 8, 29, 320.5933227539062
0, 8, 30, 314.5195922851562
0, 8, 31, 302.9117431640625
0, 8, 32, 281.3266296386719
0, 8, 33, 294.184814453125
0, 8, 34, 288.393798828125
0, 8, 35, 279.0203247070312
0, 8, 36, 315.1038208007812
0, 8, 37, 337.6769714355469
0, 8, 38, 333.2237854003906
0, 8, 39, 281.3616638183594
0, 8, 40, 304.5988464355469
