# TOPAS Version: 3.1.p3
# Parameter File: batch_inserts_206.txt
# Results for scorer Readout_Adipose
# Scored in component: MyBox
# X in 1 bin  of 0.75 cm
# Y in 512 bins of 0.0783984 cm
# Z in 128 bins of 0.078125 cm
# EnergyDeposit ( MeV ) : Sum   
0, 0, 0, 5.214983463287354
0, 0, 1, 2.845406293869019
0, 0, 2, 4.967513084411621
0, 0, 3, 2.213618278503418
0, 0, 4, 4.267606735229492
0, 0, 5, 3.440484046936035
0, 0, 6, 6.955200672149658
0, 0, 7, 7.777206897735596
0, 0, 8, 2.163282632827759
0, 0, 9, 5.429622173309326
0, 0, 10, 6.845312118530273
0, 0, 11, 4.528164386749268
0, 0, 12, 5.003230571746826
0, 0, 13, 5.187655448913574
0, 0, 14, 6.897872924804688
0, 0, 15, 8.329466819763184
0, 0, 16, 8.35472583770752
0, 0, 17, 10.03087711334229
0, 0, 18, 14.61859607696533
0, 0, 19, 42.95171737670898
0, 0, 20, 140.2994689941406
0, 0, 21, 224.5395660400391
0, 0, 22, 249.389892578125
0, 0, 23, 257.2879028320312
0, 0, 24, 251.4115447998047
0, 0, 25, 259.0392761230469
0, 0, 26, 234.5724639892578
0, 0, 27, 236.9545593261719
0, 0, 28, 271.4132080078125
0, 0, 29, 253.4993591308594
0, 0, 30, 229.8360595703125
0, 0, 31, 243.7689819335938
0, 0, 32, 263.6978149414062
0, 0, 33, 261.8097229003906
0, 0, 34, 288.3418579101562
0, 0, 35, 267.7013244628906
0, 0, 36, 246.5805358886719
0, 0, 37, 251.7755889892578
0, 0, 38, 266.778076171875
0, 0, 39, 229.6118774414062
0, 0, 40, 241.1508636474609
0, 0, 41, 264.339599609375
0, 0, 42, 229.7308807373047
0, 0, 43, 258.90869140625
0, 0, 44, 253.2828369140625
0, 0, 45, 253.8425598144531
0, 0, 46, 243.5277557373047
0, 0, 47, 252.7099761962891
0, 0, 48, 266.5673828125
0, 0, 49, 274.5238647460938
0, 0, 50, 251.0603790283203
0, 0, 51, 255.9750518798828
0, 0, 52, 271.6754150390625
0, 0, 53, 291.7284240722656
0, 0, 54, 241.2833862304688
0, 0, 55, 243.7900085449219
0, 0, 56, 277.0231628417969
0, 0, 57, 262.7161865234375
0, 0, 58, 244.8254241943359
0, 0, 59, 270.2357177734375
0, 0, 60, 233.7546234130859
0, 0, 61, 246.3599243164062
0, 0, 62, 259.4856872558594
0, 0, 63, 266.2936706542969
0, 0, 64, 255.3799591064453
0, 0, 65, 259.8532409667969
0, 0, 66, 278.3217163085938
0, 0, 67, 246.8012847900391
0, 0, 68, 258.0219421386719
0, 0, 69, 260.2991027832031
0, 0, 70, 272.6080322265625
0, 0, 71, 237.9873046875
0, 0, 72, 251.4687347412109
0, 0, 73, 259.8576354980469
0, 0, 74, 250.7845153808594
0, 0, 75, 241.3644714355469
0, 0, 76, 227.4545593261719
0, 0, 77, 258.6540832519531
0, 0, 78, 258.7713317871094
0, 0, 79, 279.7817687988281
0, 0, 80, 216.9872131347656
0, 0, 81, 267.7149353027344
0, 0, 82, 255.5213928222656
0, 0, 83, 245.6481323242188
0, 0, 84, 270.7705078125
0, 0, 85, 231.4964904785156
0, 0, 86, 254.5823516845703
0, 0, 87, 250.875732421875
0, 0, 88, 260.3542785644531
0, 0, 89, 283.9799194335938
0, 0, 90, 245.9334869384766
0, 0, 91, 281.5024719238281
0, 0, 92, 253.1803894042969
0, 0, 93, 249.0098114013672
0, 0, 94, 249.4597473144531
0, 0, 95, 247.6646423339844
0, 0, 96, 274.52294921875
0, 0, 97, 272.3475341796875
0, 0, 98, 274.3984680175781
0, 0, 99, 257.9408874511719
0, 0, 100, 259.3385925292969
0, 0, 101, 226.5966796875
0, 0, 102, 232.0093994140625
0, 0, 103, 268.9601745605469
0, 0, 104, 254.2026519775391
0, 0, 105, 251.7434387207031
0, 0, 106, 245.2036285400391
0, 0, 107, 152.8777008056641
0, 0, 108, 37.66103744506836
0, 0, 109, 13.69268798828125
0, 0, 110, 11.66453170776367
0, 0, 111, 7.927073001861572
0, 0, 112, 6.628145217895508
0, 0, 113, 5.100606918334961
0, 0, 114, 6.47529935836792
0, 0, 115, 4.94359016418457
0, 0, 116, 4.412369728088379
0, 0, 117, 5.886458396911621
0, 0, 118, 7.030564308166504
0, 0, 119, 4.339280605316162
0, 0, 120, 2.898725032806396
0, 0, 121, 4.182548046112061
0, 0, 122, 3.911412954330444
0, 0, 123, 3.030991077423096
0, 0, 124, 5.07331657409668
0, 0, 125, 2.815318584442139
0, 0, 126, 7.05458402633667
0, 0, 127, 3.029965400695801
0, 1, 0, 6.858004093170166
0, 1, 1, 3.335825443267822
0, 1, 2, 3.668432474136353
0, 1, 3, 2.098796606063843
0, 1, 4, 4.092136383056641
0, 1, 5, 4.116322040557861
0, 1, 6, 5.567129611968994
0, 1, 7, 7.168442726135254
0, 1, 8, 7.296967506408691
0, 1, 9, 4.728555679321289
0, 1, 10, 7.970431804656982
0, 1, 11, 11.19071865081787
0, 1, 12, 7.509039878845215
0, 1, 13, 10.28821086883545
0, 1, 14, 9.6395263671875
0, 1, 15, 7.600937366485596
0, 1, 16, 11.3894157409668
0, 1, 17, 11.35701656341553
0, 1, 18, 21.19951820373535
0, 1, 19, 65.04506683349609
0, 1, 20, 198.0061187744141
0, 1, 21, 254.4096069335938
0, 1, 22, 297.3951110839844
0, 1, 23, 284.1421508789062
0, 1, 24, 277.6889038085938
0, 1, 25, 288.9927368164062
0, 1, 26, 268.9056701660156
0, 1, 27, 306.8029174804688
0, 1, 28, 298.2324829101562
0, 1, 29, 294.8463745117188
0, 1, 30, 281.4717407226562
0, 1, 31, 292.3539123535156
0, 1, 32, 291.2612609863281
0, 1, 33, 296.2164001464844
0, 1, 34, 292.3674621582031
0, 1, 35, 277.4474182128906
0, 1, 36, 308.5913696289062
0, 1, 37, 294.923583984375
0, 1, 38, 282.9584350585938
0, 1, 39, 295.0145874023438
0, 1, 40, 265.9517822265625
0, 1, 41, 285.6689758300781
0, 1, 42, 289.0423583984375
0, 1, 43, 333.2283630371094
0, 1, 44, 279.0549926757812
0, 1, 45, 293.4633483886719
0, 1, 46, 260.3303833007812
0, 1, 47, 310.6958312988281
0, 1, 48, 284.9193115234375
0, 1, 49, 301.9544067382812
0, 1, 50, 262.6207275390625
0, 1, 51, 272.8899230957031
0, 1, 52, 296.0625915527344
0, 1, 53, 303.2564697265625
0, 1, 54, 274.5010986328125
0, 1, 55, 293.1274108886719
0, 1, 56, 279.9479064941406
0, 1, 57, 298.0361022949219
0, 1, 58, 312.6470031738281
0, 1, 59, 293.0600280761719
0, 1, 60, 296.1785888671875
0, 1, 61, 274.2425842285156
0, 1, 62, 307.2361755371094
0, 1, 63, 288.4361572265625
0, 1, 64, 289.8564758300781
0, 1, 65, 296.3908996582031
0, 1, 66, 291.9194030761719
0, 1, 67, 291.8962097167969
0, 1, 68, 277.9342956542969
0, 1, 69, 279.9070434570312
0, 1, 70, 271.0279846191406
0, 1, 71, 271.8762817382812
0, 1, 72, 285.1231079101562
0, 1, 73, 303.7178039550781
0, 1, 74, 306.7737426757812
0, 1, 75, 291.0628356933594
0, 1, 76, 285.3952331542969
0, 1, 77, 288.1753845214844
0, 1, 78, 295.7116088867188
0, 1, 79, 300.7790222167969
0, 1, 80, 297.0937805175781
0, 1, 81, 300.1694030761719
0, 1, 82, 283.9837646484375
0, 1, 83, 330.06201171875
0, 1, 84, 309.0267028808594
0, 1, 85, 252.0142211914062
0, 1, 86, 293.5938415527344
0, 1, 87, 291.954345703125
0, 1, 88, 297.4205017089844
0, 1, 89, 289.8241271972656
0, 1, 90, 269.4970703125
0, 1, 91, 317.7666320800781
0, 1, 92, 291.5525817871094
0, 1, 93, 287.2648315429688
0, 1, 94, 305.9048461914062
0, 1, 95, 286.4533996582031
0, 1, 96, 282.7975463867188
0, 1, 97, 300.2576904296875
0, 1, 98, 278.5011901855469
0, 1, 99, 267.5807189941406
0, 1, 100, 275.8114318847656
0, 1, 101, 281.9713439941406
0, 1, 102, 278.3360595703125
0, 1, 103, 280.5081481933594
0, 1, 104, 306.3921813964844
0, 1, 105, 296.5617370605469
0, 1, 106, 262.2619934082031
0, 1, 107, 192.1767425537109
0, 1, 108, 80.53608703613281
0, 1, 109, 22.67831611633301
0, 1, 110, 11.46384334564209
0, 1, 111, 9.039496421813965
0, 1, 112, 11.62747955322266
0, 1, 113, 5.477272033691406
0, 1, 114, 5.68150520324707
0, 1, 115, 7.458817481994629
0, 1, 116, 11.4611988067627
0, 1, 117, 6.75968599319458
0, 1, 118, 5.634909152984619
0, 1, 119, 4.155926704406738
0, 1, 120, 4.21684741973877
0, 1, 121, 2.969775438308716
0, 1, 122, 2.263107538223267
0, 1, 123, 5.552777767181396
0, 1, 124, 9.576621055603027
0, 1, 125, 2.96990966796875
0, 1, 126, 3.387227058410645
0, 1, 127, 2.430118560791016
0, 2, 0, 3.738966703414917
0, 2, 1, 1.995559930801392
0, 2, 2, 3.962428331375122
0, 2, 3, 6.461119174957275
0, 2, 4, 2.263468265533447
0, 2, 5, 1.792032957077026
0, 2, 6, 2.756002426147461
0, 2, 7, 3.210865497589111
0, 2, 8, 4.994652271270752
0, 2, 9, 4.862646102905273
0, 2, 10, 9.46397876739502
0, 2, 11, 5.208856582641602
0, 2, 12, 6.612386226654053
0, 2, 13, 13.97825336456299
0, 2, 14, 9.242524147033691
0, 2, 15, 7.745795249938965
0, 2, 16, 9.925549507141113
0, 2, 17, 16.49990463256836
0, 2, 18, 29.49967384338379
0, 2, 19, 116.2605133056641
0, 2, 20, 250.6249542236328
0, 2, 21, 270.5220947265625
0, 2, 22, 316.9585571289062
0, 2, 23, 302.2773742675781
0, 2, 24, 288.1819763183594
0, 2, 25, 302.7614440917969
0, 2, 26, 293.7020263671875
0, 2, 27, 275.3758544921875
0, 2, 28, 272.4727172851562
0, 2, 29, 273.413330078125
0, 2, 30, 288.5450744628906
0, 2, 31, 277.2293701171875
0, 2, 32, 295.6693115234375
0, 2, 33, 283.5188598632812
0, 2, 34, 331.2533874511719
0, 2, 35, 289.4598999023438
0, 2, 36, 304.2356872558594
0, 2, 37, 316.5020446777344
0, 2, 38, 309.9260559082031
0, 2, 39, 266.4601135253906
0, 2, 40, 309.1351928710938
0, 2, 41, 293.4151000976562
0, 2, 42, 302.9080505371094
0, 2, 43, 314.6419677734375
0, 2, 44, 310.5586242675781
0, 2, 45, 324.87548828125
0, 2, 46, 286.6180419921875
0, 2, 47, 305.5593566894531
0, 2, 48, 278.8518371582031
0, 2, 49, 279.6278076171875
0, 2, 50, 293.6552429199219
0, 2, 51, 284.2359008789062
0, 2, 52, 272.7546081542969
0, 2, 53, 286.5167541503906
0, 2, 54, 278.9995422363281
0, 2, 55, 275.2337036132812
0, 2, 56, 304.2271423339844
0, 2, 57, 292.5341186523438
0, 2, 58, 302.9526062011719
0, 2, 59, 288.7167358398438
0, 2, 60, 319.1487121582031
0, 2, 61, 301.0086059570312
0, 2, 62, 314.7271728515625
0, 2, 63, 303.0346984863281
0, 2, 64, 295.7634887695312
0, 2, 65, 312.6746215820312
0, 2, 66, 278.4984436035156
0, 2, 67, 291.7780151367188
0, 2, 68, 296.871826171875
0, 2, 69, 310.1209106445312
0, 2, 70, 333.4570617675781
0, 2, 71, 284.5374145507812
0, 2, 72, 301.7350463867188
0, 2, 73, 310.6137084960938
0, 2, 74, 284.4094543457031
0, 2, 75, 305.2411499023438
0, 2, 76, 287.278076171875
0, 2, 77, 300.1304321289062
0, 2, 78, 314.3062744140625
0, 2, 79, 308.9881591796875
0, 2, 80, 295.9502563476562
0, 2, 81, 283.4334106445312
0, 2, 82, 318.4137878417969
0, 2, 83, 313.4306945800781
0, 2, 84, 288.1947326660156
0, 2, 85, 281.8534545898438
0, 2, 86, 325.0023498535156
0, 2, 87, 286.7802429199219
0, 2, 88, 280.6009826660156
0, 2, 89, 297.245849609375
0, 2, 90, 295.0875549316406
0, 2, 91, 274.94189453125
0, 2, 92, 306.450927734375
0, 2, 93, 318.4967956542969
0, 2, 94, 292.8076782226562
0, 2, 95, 313.8878173828125
0, 2, 96, 316.5848083496094
0, 2, 97, 290.9185791015625
0, 2, 98, 293.4477233886719
0, 2, 99, 273.4537658691406
0, 2, 100, 306.3143005371094
0, 2, 101, 300.6002197265625
0, 2, 102, 297.1031188964844
0, 2, 103, 292.3657836914062
0, 2, 104, 292.4721984863281
0, 2, 105, 274.1602783203125
0, 2, 106, 297.3657836914062
0, 2, 107, 272.6514282226562
0, 2, 108, 116.4431381225586
0, 2, 109, 32.54834365844727
0, 2, 110, 10.57674598693848
0, 2, 111, 11.86741638183594
0, 2, 112, 7.545608043670654
0, 2, 113, 9.684683799743652
0, 2, 114, 9.562282562255859
0, 2, 115, 9.620890617370605
0, 2, 116, 10.19944000244141
0, 2, 117, 9.317373275756836
0, 2, 118, 2.364599704742432
0, 2, 119, 2.914376258850098
0, 2, 120, 6.450511455535889
0, 2, 121, 4.028057098388672
0, 2, 122, 4.343801021575928
0, 2, 123, 3.803782939910889
0, 2, 124, 4.339892387390137
0, 2, 125, 6.341052055358887
0, 2, 126, 3.502295017242432
0, 2, 127, 6.741018295288086
0, 3, 0, 2.79875922203064
0, 3, 1, 3.202001571655273
0, 3, 2, 2.696426868438721
0, 3, 3, 2.548156499862671
0, 3, 4, 4.743850708007812
0, 3, 5, 6.012711524963379
0, 3, 6, 6.108806610107422
0, 3, 7, 4.258202075958252
0, 3, 8, 5.18415355682373
0, 3, 9, 7.17951774597168
0, 3, 10, 6.894770622253418
0, 3, 11, 4.493689060211182
0, 3, 12, 8.11077880859375
0, 3, 13, 14.35632991790771
0, 3, 14, 9.858898162841797
0, 3, 15, 14.84354877471924
0, 3, 16, 12.3690071105957
0, 3, 17, 19.32408142089844
0, 3, 18, 56.94414901733398
0, 3, 19, 175.0663452148438
0, 3, 20, 269.0325317382812
0, 3, 21, 271.7391662597656
0, 3, 22, 282.6295471191406
0, 3, 23, 287.2470703125
0, 3, 24, 288.0686950683594
0, 3, 25, 270.3723449707031
0, 3, 26, 304.6385192871094
0, 3, 27, 292.1361389160156
0, 3, 28, 279.0024719238281
0, 3, 29, 339.7251586914062
0, 3, 30, 315.6802978515625
0, 3, 31, 288.4525146484375
0, 3, 32, 306.8661193847656
0, 3, 33, 313.9310302734375
0, 3, 34, 319.7234497070312
0, 3, 35, 306.8308715820312
0, 3, 36, 270.7227172851562
0, 3, 37, 314.0833435058594
0, 3, 38, 305.0948181152344
0, 3, 39, 290.3923034667969
0, 3, 40, 267.6988220214844
0, 3, 41, 301.2187194824219
0, 3, 42, 284.9174194335938
0, 3, 43, 309.6502075195312
0, 3, 44, 311.4209289550781
0, 3, 45, 289.9715270996094
0, 3, 46, 329.1181640625
0, 3, 47, 299.0657958984375
0, 3, 48, 305.9011840820312
0, 3, 49, 275.4549560546875
0, 3, 50, 289.6872253417969
0, 3, 51, 275.2191162109375
0, 3, 52, 315.5932006835938
0, 3, 53, 287.0186462402344
0, 3, 54, 284.47509765625
0, 3, 55, 285.3418884277344
0, 3, 56, 298.808837890625
0, 3, 57, 288.7229919433594
0, 3, 58, 305.8849182128906
0, 3, 59, 294.1867980957031
0, 3, 60, 297.4647216796875
0, 3, 61, 264.2111511230469
0, 3, 62, 285.499755859375
0, 3, 63, 306.2405090332031
0, 3, 64, 315.9279174804688
0, 3, 65, 307.8656311035156
0, 3, 66, 315.4264526367188
0, 3, 67, 319.2670288085938
0, 3, 68, 280.0068359375
0, 3, 69, 286.6241455078125
0, 3, 70, 288.7434692382812
0, 3, 71, 302.53369140625
0, 3, 72, 270.7753295898438
0, 3, 73, 308.2957153320312
0, 3, 74, 294.0445251464844
0, 3, 75, 290.7355346679688
0, 3, 76, 305.4006958007812
0, 3, 77, 315.590087890625
0, 3, 78, 302.4067993164062
0, 3, 79, 281.3143310546875
0, 3, 80, 289.9112548828125
0, 3, 81, 313.1058959960938
0, 3, 82, 317.3974304199219
0, 3, 83, 301.4320983886719
0, 3, 84, 310.8374328613281
0, 3, 85, 292.4313659667969
0, 3, 86, 302.789306640625
0, 3, 87, 299.2256774902344
0, 3, 88, 298.5172729492188
0, 3, 89, 294.6261596679688
0, 3, 90, 275.4144287109375
0, 3, 91, 285.4779052734375
0, 3, 92, 303.1855773925781
0, 3, 93, 312.7280883789062
0, 3, 94, 297.0195617675781
0, 3, 95, 333.5358276367188
0, 3, 96, 293.5854187011719
0, 3, 97, 285.7873840332031
0, 3, 98, 278.9406127929688
0, 3, 99, 261.4625244140625
0, 3, 100, 283.4968566894531
0, 3, 101, 296.911376953125
0, 3, 102, 274.3802490234375
0, 3, 103, 321.1891479492188
0, 3, 104, 310.7638854980469
0, 3, 105, 288.0450744628906
0, 3, 106, 303.0166625976562
0, 3, 107, 282.9522094726562
0, 3, 108, 167.3805084228516
0, 3, 109, 58.62038040161133
0, 3, 110, 17.14169502258301
0, 3, 111, 13.43612289428711
0, 3, 112, 15.66383361816406
0, 3, 113, 6.977991104125977
0, 3, 114, 9.998931884765625
0, 3, 115, 6.072747230529785
0, 3, 116, 10.49822902679443
0, 3, 117, 8.376274108886719
0, 3, 118, 7.92885684967041
0, 3, 119, 7.475760936737061
0, 3, 120, 8.363603591918945
0, 3, 121, 1.997480750083923
0, 3, 122, 3.838145732879639
0, 3, 123, 4.744494915008545
0, 3, 124, 2.029826879501343
0, 3, 125, 6.894559383392334
0, 3, 126, 4.930615425109863
0, 3, 127, 2.623427629470825
0, 4, 0, 3.083093404769897
0, 4, 1, 5.448590278625488
0, 4, 2, 4.283792495727539
0, 4, 3, 1.731396198272705
0, 4, 4, 6.760510921478271
0, 4, 5, 7.771687507629395
0, 4, 6, 9.665875434875488
0, 4, 7, 5.475895881652832
0, 4, 8, 4.244364738464355
0, 4, 9, 6.418323040008545
0, 4, 10, 4.98362922668457
0, 4, 11, 6.079624652862549
0, 4, 12, 6.913636684417725
0, 4, 13, 8.173101425170898
0, 4, 14, 10.64691734313965
0, 4, 15, 9.034554481506348
0, 4, 16, 14.06604671478271
0, 4, 17, 19.00221824645996
0, 4, 18, 91.7537841796875
0, 4, 19, 222.5850372314453
0, 4, 20, 284.8724975585938
0, 4, 21, 272.6058349609375
0, 4, 22, 305.1965637207031
0, 4, 23, 266.7810974121094
0, 4, 24, 290.056396484375
0, 4, 25, 271.8560180664062
0, 4, 26, 293.6530456542969
0, 4, 27, 281.9856872558594
0, 4, 28, 307.2933959960938
0, 4, 29, 322.9748229980469
0, 4, 30, 310.8924560546875
0, 4, 31, 304.8916931152344
0, 4, 32, 280.6339111328125
0, 4, 33, 296.2702331542969
0, 4, 34, 294.5789184570312
0, 4, 35, 311.5271606445312
0, 4, 36, 294.2535400390625
0, 4, 37, 288.3749694824219
0, 4, 38, 297.8636169433594
0, 4, 39, 295.0304260253906
0, 4, 40, 302.2470397949219
0, 4, 41, 311.7459716796875
0, 4, 42, 332.2585754394531
0, 4, 43, 295.3656921386719
0, 4, 44, 321.481201171875
0, 4, 45, 323.9590148925781
0, 4, 46, 304.6005859375
0, 4, 47, 292.48388671875
0, 4, 48, 296.4049072265625
0, 4, 49, 277.6228637695312
0, 4, 50, 296.3442993164062
0, 4, 51, 316.9126586914062
0, 4, 52, 327.1512451171875
0, 4, 53, 303.2653503417969
0, 4, 54, 288.5612182617188
0, 4, 55, 314.1607055664062
0, 4, 56, 284.6029968261719
0, 4, 57, 310.632080078125
0, 4, 58, 296.7327575683594
0, 4, 59, 309.3848266601562
0, 4, 60, 304.0799865722656
0, 4, 61, 316.2536926269531
0, 4, 62, 308.0234375
0, 4, 63, 297.3817749023438
0, 4, 64, 333.3367919921875
0, 4, 65, 314.607666015625
0, 4, 66, 294.8758544921875
0, 4, 67, 285.1490783691406
0, 4, 68, 311.3037719726562
0, 4, 69, 275.3974609375
0, 4, 70, 298.3595581054688
0, 4, 71, 323.6675720214844
0, 4, 72, 333.9061279296875
0, 4, 73, 299.0105285644531
0, 4, 74, 295.5014953613281
0, 4, 75, 289.0506591796875
0, 4, 76, 273.3754272460938
0, 4, 77, 276.8124084472656
0, 4, 78, 311.3475341796875
0, 4, 79, 319.9231262207031
0, 4, 80, 316.6542358398438
0, 4, 81, 312.1879577636719
0, 4, 82, 296.8470153808594
0, 4, 83, 303.7822875976562
0, 4, 84, 294.1844177246094
0, 4, 85, 295.8271789550781
0, 4, 86, 296.4900817871094
0, 4, 87, 283.9854431152344
0, 4, 88, 303.6522827148438
0, 4, 89, 294.6708374023438
0, 4, 90, 332.3726806640625
0, 4, 91, 302.3043212890625
0, 4, 92, 289.2203979492188
0, 4, 93, 297.1221923828125
0, 4, 94, 290.9917907714844
0, 4, 95, 290.4076538085938
0, 4, 96, 323.7402038574219
0, 4, 97, 273.75341796875
0, 4, 98, 326.6761169433594
0, 4, 99, 313.1872253417969
0, 4, 100, 301.0391540527344
0, 4, 101, 256.946044921875
0, 4, 102, 298.9140319824219
0, 4, 103, 317.3118286132812
0, 4, 104, 280.3102111816406
0, 4, 105, 309.9115295410156
0, 4, 106, 287.372314453125
0, 4, 107, 295.2863464355469
0, 4, 108, 227.3631439208984
0, 4, 109, 79.76609039306641
0, 4, 110, 17.26117324829102
0, 4, 111, 12.92968559265137
0, 4, 112, 8.600646018981934
0, 4, 113, 8.86994743347168
0, 4, 114, 8.645316123962402
0, 4, 115, 9.725949287414551
0, 4, 116, 7.846817016601562
0, 4, 117, 7.11829948425293
0, 4, 118, 9.152661323547363
0, 4, 119, 8.42308235168457
0, 4, 120, 5.410813808441162
0, 4, 121, 5.629741191864014
0, 4, 122, 4.409269332885742
0, 4, 123, 6.045536518096924
0, 4, 124, 4.432926654815674
0, 4, 125, 8.023099899291992
0, 4, 126, 4.533994674682617
0, 4, 127, 4.153374671936035
0, 5, 0, 3.274375438690186
0, 5, 1, 2.943105936050415
0, 5, 2, 4.660132884979248
0, 5, 3, 3.451272010803223
0, 5, 4, 8.40635871887207
0, 5, 5, 7.969556331634521
0, 5, 6, 6.532568454742432
0, 5, 7, 5.140999317169189
0, 5, 8, 6.104883670806885
0, 5, 9, 5.659250736236572
0, 5, 10, 9.09325122833252
0, 5, 11, 6.895519733428955
0, 5, 12, 6.704348087310791
0, 5, 13, 5.827885150909424
0, 5, 14, 12.52058982849121
0, 5, 15, 17.78948402404785
0, 5, 16, 14.77236747741699
0, 5, 17, 28.93354034423828
0, 5, 18, 137.6165008544922
0, 5, 19, 286.3310852050781
0, 5, 20, 308.2941284179688
0, 5, 21, 316.3343200683594
0, 5, 22, 276.308837890625
0, 5, 23, 309.8244934082031
0, 5, 24, 303.4355163574219
0, 5, 25, 290.5370178222656
0, 5, 26, 292.6046752929688
0, 5, 27, 323.1630859375
0, 5, 28, 303.3359985351562
0, 5, 29, 298.5919189453125
0, 5, 30, 323.0337524414062
0, 5, 31, 286.5474243164062
0, 5, 32, 302.7879333496094
0, 5, 33, 304.6790161132812
0, 5, 34, 295.8137512207031
0, 5, 35, 309.6484069824219
0, 5, 36, 269.505859375
0, 5, 37, 281.8683471679688
0, 5, 38, 291.7411499023438
0, 5, 39, 310.6730346679688
0, 5, 40, 307.1080322265625
0, 5, 41, 274.4884033203125
0, 5, 42, 305.0272521972656
0, 5, 43, 315
0, 5, 44, 293.5223693847656
0, 5, 45, 300.1763000488281
0, 5, 46, 264.8680419921875
0, 5, 47, 280.7641906738281
0, 5, 48, 294.0496520996094
0, 5, 49, 286.92919921875
0, 5, 50, 295.1611938476562
0, 5, 51, 278.7594604492188
0, 5, 52, 267.7678527832031
0, 5, 53, 284.8041076660156
0, 5, 54, 291.4578857421875
0, 5, 55, 344.418701171875
0, 5, 56, 304.8632202148438
0, 5, 57, 305.6038513183594
0, 5, 58, 312.9638977050781
0, 5, 59, 306.1885681152344
0, 5, 60, 306.7560424804688
0, 5, 61, 280.7142028808594
0, 5, 62, 325.3408203125
0, 5, 63, 290.4143981933594
0, 5, 64, 325.37451171875
0, 5, 65, 307.71337890625
0, 5, 66, 328.0234985351562
0, 5, 67, 313.0594787597656
0, 5, 68, 309.2934265136719
0, 5, 69, 313.0706481933594
0, 5, 70, 301.5587158203125
0, 5, 71, 271.5743713378906
0, 5, 72, 310.3245239257812
0, 5, 73, 302.2689514160156
0, 5, 74, 296.5353088378906
0, 5, 75, 293.4100341796875
0, 5, 76, 288.1651000976562
0, 5, 77, 298.1502990722656
0, 5, 78, 313.6903686523438
0, 5, 79, 308.3848571777344
0, 5, 80, 295.8092346191406
0, 5, 81, 325.3780822753906
0, 5, 82, 322.4718322753906
0, 5, 83, 282.420166015625
0, 5, 84, 301.2077331542969
0, 5, 85, 272.2788391113281
0, 5, 86, 326.5150451660156
0, 5, 87, 285.8736267089844
0, 5, 88, 315.1720886230469
0, 5, 89, 304.2924499511719
0, 5, 90, 316.6737976074219
0, 5, 91, 315.6393127441406
0, 5, 92, 296.524658203125
0, 5, 93, 324.0048217773438
0, 5, 94, 309.8351745605469
0, 5, 95, 297.0272521972656
0, 5, 96, 300.5339050292969
0, 5, 97, 297.3703308105469
0, 5, 98, 317.4097595214844
0, 5, 99, 303.850341796875
0, 5, 100, 290.8031921386719
0, 5, 101, 305.9426574707031
0, 5, 102, 292.4669494628906
0, 5, 103, 313.22705078125
0, 5, 104, 304.4331665039062
0, 5, 105, 290.9459838867188
0, 5, 106, 281.990478515625
0, 5, 107, 293.4999084472656
0, 5, 108, 266.6995239257812
0, 5, 109, 156.5253448486328
0, 5, 110, 40.07024765014648
0, 5, 111, 21.07129096984863
0, 5, 112, 17.80355262756348
0, 5, 113, 16.92462348937988
0, 5, 114, 12.47528266906738
0, 5, 115, 8.152131080627441
0, 5, 116, 7.110694885253906
0, 5, 117, 6.51629638671875
0, 5, 118, 12.7435302734375
0, 5, 119, 7.939798355102539
0, 5, 120, 7.118983268737793
0, 5, 121, 6.877949714660645
0, 5, 122, 5.818016052246094
0, 5, 123, 5.804007530212402
0, 5, 124, 5.293703556060791
0, 5, 125, 3.976827621459961
0, 5, 126, 9.333476066589355
0, 5, 127, 6.53681468963623
0, 6, 0, 5.077948570251465
0, 6, 1, 2.232842683792114
0, 6, 2, 5.445119380950928
0, 6, 3, 5.802837371826172
0, 6, 4, 3.63637638092041
0, 6, 5, 6.896082401275635
0, 6, 6, 8.128464698791504
0, 6, 7, 4.425140857696533
0, 6, 8, 6.139473915100098
0, 6, 9, 5.333571910858154
0, 6, 10, 11.81558418273926
0, 6, 11, 9.407900810241699
0, 6, 12, 10.06455230712891
0, 6, 13, 14.96611881256104
0, 6, 14, 8.39630126953125
0, 6, 15, 15.70765399932861
0, 6, 16, 28.66190338134766
0, 6, 17, 55.58399200439453
0, 6, 18, 174.0167388916016
0, 6, 19, 276.258544921875
0, 6, 20, 291.0544738769531
0, 6, 21, 313.7978515625
0, 6, 22, 321.5520935058594
0, 6, 23, 306.3439025878906
0, 6, 24, 316.0254821777344
0, 6, 25, 315.4297485351562
0, 6, 26, 321.4849548339844
0, 6, 27, 331.0140075683594
0, 6, 28, 296.1094665527344
0, 6, 29, 329.77197265625
0, 6, 30, 281.5277709960938
0, 6, 31, 285.7217102050781
0, 6, 32, 339.2386474609375
0, 6, 33, 304.1398620605469
0, 6, 34, 340.4469604492188
0, 6, 35, 319.4149780273438
0, 6, 36, 273.454833984375
0, 6, 37, 289.8414001464844
0, 6, 38, 312.4303894042969
0, 6, 39, 299.894775390625
0, 6, 40, 284.453857421875
0, 6, 41, 293.8648071289062
0, 6, 42, 305.3813171386719
0, 6, 43, 288.0774536132812
0, 6, 44, 279.4178161621094
0, 6, 45, 318.2783203125
0, 6, 46, 301.1978149414062
0, 6, 47, 332.4984741210938
0, 6, 48, 292.9213562011719
0, 6, 49, 311.4275512695312
0, 6, 50, 329.99462890625
0, 6, 51, 310.4249877929688
0, 6, 52, 320.9431762695312
0, 6, 53, 327.0945434570312
0, 6, 54, 302.6629943847656
0, 6, 55, 306.7969055175781
0, 6, 56, 293.6169738769531
0, 6, 57, 312.783935546875
0, 6, 58, 264.8341674804688
0, 6, 59, 302.0440673828125
0, 6, 60, 312.1018371582031
0, 6, 61, 272.8301086425781
0, 6, 62, 336.6436767578125
0, 6, 63, 322.7562255859375
0, 6, 64, 289.6347045898438
0, 6, 65, 284.8983459472656
0, 6, 66, 301.6212463378906
0, 6, 67, 309.5079040527344
0, 6, 68, 293.4299926757812
0, 6, 69, 278.9409790039062
0, 6, 70, 275.4580993652344
0, 6, 71, 291.1591491699219
0, 6, 72, 313.3181762695312
0, 6, 73, 293.0504455566406
0, 6, 74, 331.6014404296875
0, 6, 75, 344.0424499511719
0, 6, 76, 298.6592712402344
0, 6, 77, 287.5918273925781
0, 6, 78, 279.7091674804688
0, 6, 79, 293.7655639648438
0, 6, 80, 299.2328186035156
0, 6, 81, 316.2226257324219
0, 6, 82, 319.0568542480469
0, 6, 83, 320.7755126953125
0, 6, 84, 297.367431640625
0, 6, 85, 300.2433471679688
0, 6, 86, 329.6193237304688
0, 6, 87, 293.1156616210938
0, 6, 88, 305.078125
0, 6, 89, 303.6381530761719
0, 6, 90, 299.1816101074219
0, 6, 91, 310.4780883789062
0, 6, 92, 285.041015625
0, 6, 93, 294.6827697753906
0, 6, 94, 273.3286437988281
0, 6, 95, 299.476318359375
0, 6, 96, 347.4398803710938
0, 6, 97, 307.8700561523438
0, 6, 98, 300.9073181152344
0, 6, 99, 274.1592712402344
0, 6, 100, 312.6847839355469
0, 6, 101, 293.1018981933594
0, 6, 102, 307.6750183105469
0, 6, 103, 308.6405639648438
0, 6, 104, 293.2510070800781
0, 6, 105, 301.3639526367188
0, 6, 106, 307.5910339355469
0, 6, 107, 305.7296447753906
0, 6, 108, 265.0661926269531
0, 6, 109, 186.4427490234375
0, 6, 110, 55.10855484008789
0, 6, 111, 22.10383033752441
0, 6, 112, 14.08001613616943
0, 6, 113, 10.51413154602051
0, 6, 114, 13.99909400939941
0, 6, 115, 12.29347038269043
0, 6, 116, 11.63343715667725
0, 6, 117, 9.533310890197754
0, 6, 118, 11.70745754241943
0, 6, 119, 10.28088665008545
0, 6, 120, 5.373538017272949
0, 6, 121, 7.870051383972168
0, 6, 122, 6.924941539764404
0, 6, 123, 7.37035608291626
0, 6, 124, 5.464014530181885
0, 6, 125, 5.470381259918213
0, 6, 126, 3.275471448898315
0, 6, 127, 6.465842723846436
0, 7, 0, 4.532721519470215
0, 7, 1, 3.284281253814697
0, 7, 2, 5.433631896972656
0, 7, 3, 4.601726531982422
0, 7, 4, 5.162501811981201
0, 7, 5, 4.175797462463379
0, 7, 6, 4.901627540588379
0, 7, 7, 9.140076637268066
0, 7, 8, 5.254689693450928
0, 7, 9, 9.86784553527832
0, 7, 10, 9.546355247497559
0, 7, 11, 11.83488655090332
0, 7, 12, 10.37361526489258
0, 7, 13, 9.676708221435547
0, 7, 14, 11.61724090576172
0, 7, 15, 17.5300464630127
0, 7, 16, 27.26012229919434
0, 7, 17, 99.61064910888672
0, 7, 18, 217.5744476318359
0, 7, 19, 289.2998046875
0, 7, 20, 297.7210083007812
0, 7, 21, 277.0213012695312
0, 7, 22, 298.1393737792969
0, 7, 23, 288.9191284179688
0, 7, 24, 313.6018371582031
0, 7, 25, 324.800537109375
0, 7, 26, 276.7056274414062
0, 7, 27, 298.2078247070312
0, 7, 28, 329.8059692382812
0, 7, 29, 318.6295776367188
0, 7, 30, 300.90478515625
0, 7, 31, 279.147705078125
0, 7, 32, 304.3830871582031
0, 7, 33, 261.6317138671875
0, 7, 34, 296.5068054199219
0, 7, 35, 321.3357849121094
0, 7, 36, 329.5736083984375
0, 7, 37, 325.1846313476562
0, 7, 38, 296.0115356445312
0, 7, 39, 307.6607055664062
0, 7, 40, 290.73291015625
0, 7, 41, 272.8416748046875
0, 7, 42, 300.5061645507812
0, 7, 43, 275.1388549804688
0, 7, 44, 303.6958618164062
0, 7, 45, 297.0429992675781
0, 7, 46, 284.208251953125
0, 7, 47, 328.8702697753906
0, 7, 48, 285.7930908203125
0, 7, 49, 301.0233764648438
0, 7, 50, 321.7975463867188
0, 7, 51, 298.0763244628906
0, 7, 52, 326.791748046875
0, 7, 53, 310.8667297363281
0, 7, 54, 323.7429504394531
0, 7, 55, 306.3681335449219
0, 7, 56, 282.9490356445312
0, 7, 57, 281.9143371582031
0, 7, 58, 295.8706970214844
0, 7, 59, 292.3592834472656
0, 7, 60, 321.9211730957031
0, 7, 61, 277.1610107421875
0, 7, 62, 298.734619140625
0, 7, 63, 293.34033203125
0, 7, 64, 304.8705139160156
0, 7, 65, 331.7380981445312
0, 7, 66, 320.9701232910156
0, 7, 67, 301.2995300292969
0, 7, 68, 279.4669799804688
0, 7, 69, 294.0615844726562
0, 7, 70, 301.975830078125
0, 7, 71, 312.9008178710938
0, 7, 72, 284.6893920898438
0, 7, 73, 297.1529235839844
0, 7, 74, 344.1897583007812
0, 7, 75, 318.3763427734375
0, 7, 76, 322.5927734375
0, 7, 77, 280.7533874511719
0, 7, 78, 300.5686340332031
0, 7, 79, 298.2962951660156
0, 7, 80, 309.7193908691406
0, 7, 81, 320.5884094238281
0, 7, 82, 329.4766540527344
0, 7, 83, 317.5819091796875
0, 7, 84, 310.5592041015625
0, 7, 85, 272.5238037109375
0, 7, 86, 311.5059509277344
0, 7, 87, 310.4822692871094
0, 7, 88, 306.6130676269531
0, 7, 89, 295.1098022460938
0, 7, 90, 308.9715270996094
0, 7, 91, 314.0019836425781
0, 7, 92, 289.7019958496094
0, 7, 93, 309.4375915527344
0, 7, 94, 276.0095520019531
0, 7, 95, 294.5229187011719
0, 7, 96, 332.3091735839844
0, 7, 97, 296.58935546875
0, 7, 98, 290.3692321777344
0, 7, 99, 313.6248168945312
0, 7, 100, 283.1700744628906
0, 7, 101, 275.0859680175781
0, 7, 102, 290.4443664550781
0, 7, 103, 293.1873474121094
0, 7, 104, 275.1404113769531
0, 7, 105, 305.034912109375
0, 7, 106, 317.4272155761719
0, 7, 107, 295.8619079589844
0, 7, 108, 275.0502014160156
0, 7, 109, 237.9418487548828
0, 7, 110, 96.64025115966797
0, 7, 111, 23.46451187133789
0, 7, 112, 14.00176334381104
0, 7, 113, 14.02847766876221
0, 7, 114, 14.78964996337891
0, 7, 115, 11.56222915649414
0, 7, 116, 8.471685409545898
0, 7, 117, 6.173325538635254
0, 7, 118, 7.218614101409912
0, 7, 119, 6.139891147613525
0, 7, 120, 5.083478927612305
0, 7, 121, 8.828547477722168
0, 7, 122, 5.663990020751953
0, 7, 123, 4.508745193481445
0, 7, 124, 3.634398698806763
0, 7, 125, 5.41531229019165
0, 7, 126, 7.851290702819824
0, 7, 127, 1.220463871955872
0, 8, 0, 6.435803890228271
0, 8, 1, 4.070718765258789
0, 8, 2, 3.497381448745728
0, 8, 3, 3.052981376647949
0, 8, 4, 2.963283777236938
0, 8, 5, 5.531123638153076
0, 8, 6, 6.069314002990723
0, 8, 7, 7.777405738830566
0, 8, 8, 11.38617706298828
0, 8, 9, 6.095868587493896
0, 8, 10, 10.24241733551025
0, 8, 11, 12.51612949371338
0, 8, 12, 13.4214916229248
0, 8, 13, 15.01376914978027
0, 8, 14, 14.85685348510742
0, 8, 15, 16.83718299865723
0, 8, 16, 31.42123603820801
0, 8, 17, 130.0278472900391
0, 8, 18, 241.6818237304688
0, 8, 19, 294.1675109863281
0, 8, 20, 287.9330139160156
0, 8, 21, 306.8554077148438
0, 8, 22, 294.4551391601562
0, 8, 23, 275.7398376464844
0, 8, 24, 269.2351379394531
0, 8, 25, 275.5695495605469
0, 8, 26, 305.4769592285156
0, 8, 27, 308.6078186035156
0, 8, 28, 307.1951904296875
0, 8, 29, 319.0296325683594
0, 8, 30, 315.5825500488281
0, 8, 31, 302.7998657226562
0, 8, 32, 280.0264892578125
0, 8, 33, 294.5726928710938
0, 8, 34, 289.4803771972656
0, 8, 35, 283.9907531738281
0, 8, 36, 316.3703918457031
0, 8, 37, 341.233154296875
0, 8, 38, 333.1411743164062
0, 8, 39, 284.2677001953125
