# TOPAS Version: 3.1.p3
# Parameter File: batch_inserts_226.txt
# Results for scorer Readout_Adipose
# Scored in component: MyBox
# X in 1 bin  of 0.75 cm
# Y in 512 bins of 0.0783984 cm
# Z in 128 bins of 0.078125 cm
# EnergyDeposit ( MeV ) : Sum   
0, 0, 0, 3.064329147338867
0, 0, 1, 1.857788562774658
0, 0, 2, 5.865808963775635
0, 0, 3, 1.278981804847717
0, 0, 4, 3.32166600227356
0, 0, 5, 3.002737045288086
0, 0, 6, 7.19541072845459
0, 0, 7, 7.65150785446167
0, 0, 8, 2.286868572235107
0, 0, 9, 5.380126476287842
0, 0, 10, 5.896260738372803
0, 0, 11, 7.08370304107666
0, 0, 12, 4.59787130355835
0, 0, 13, 5.808455944061279
0, 0, 14, 7.338079452514648
0, 0, 15, 10.01360416412354
0, 0, 16, 8.474247932434082
0, 0, 17, 9.400636672973633
0, 0, 18, 14.40870666503906
0, 0, 19, 43.86283874511719
0, 0, 20, 138.6007232666016
0, 0, 21, 223.5581512451172
0, 0, 22, 248.2295532226562
0, 0, 23, 257.8333129882812
0, 0, 24, 250.1084747314453
0, 0, 25, 259.1315002441406
0, 0, 26, 234.1932525634766
0, 0, 27, 237.7081298828125
0, 0, 28, 272.6968078613281
0, 0, 29, 251.9918975830078
0, 0, 30, 231.2833557128906
0, 0, 31, 244.2247619628906
0, 0, 32, 263.3241271972656
0, 0, 33, 260.0523681640625
0, 0, 34, 287.2721557617188
0, 0, 35, 267.2258911132812
0, 0, 36, 246.6388702392578
0, 0, 37, 251.9206085205078
0, 0, 38, 268.7521362304688
0, 0, 39, 229.8704986572266
0, 0, 40, 241.3968811035156
0, 0, 41, 264.8113708496094
0, 0, 42, 231.0815887451172
0, 0, 43, 260.2968444824219
0, 0, 44, 253.8788757324219
0, 0, 45, 252.6788482666016
0, 0, 46, 244.2319641113281
0, 0, 47, 254.3928680419922
0, 0, 48, 265.4569396972656
0, 0, 49, 274.3584594726562
0, 0, 50, 250.372314453125
0, 0, 51, 253.8549041748047
0, 0, 52, 272.1787109375
0, 0, 53, 291.5194396972656
0, 0, 54, 241.6272735595703
0, 0, 55, 240.4095001220703
0, 0, 56, 276.5313720703125
0, 0, 57, 264.6515502929688
0, 0, 58, 246.2081146240234
0, 0, 59, 270.3065795898438
0, 0, 60, 234.1619720458984
0, 0, 61, 245.8697662353516
0, 0, 62, 258.0174560546875
0, 0, 63, 266.9033508300781
0, 0, 64, 255.0882720947266
0, 0, 65, 262.1904907226562
0, 0, 66, 278.0003662109375
0, 0, 67, 246.5300445556641
0, 0, 68, 258.4179382324219
0, 0, 69, 261.7271728515625
0, 0, 70, 270.8403625488281
0, 0, 71, 238.8338012695312
0, 0, 72, 250.7762451171875
0, 0, 73, 258.0162658691406
0, 0, 74, 252.0338439941406
0, 0, 75, 240.5592346191406
0, 0, 76, 229.9441833496094
0, 0, 77, 259.4274597167969
0, 0, 78, 256.7835998535156
0, 0, 79, 279.3687438964844
0, 0, 80, 216.5364532470703
0, 0, 81, 267.76171875
0, 0, 82, 255.4791564941406
0, 0, 83, 244.0353851318359
0, 0, 84, 270.0706176757812
0, 0, 85, 231.4572296142578
0, 0, 86, 253.8282470703125
0, 0, 87, 251.8741302490234
0, 0, 88, 259.2228698730469
0, 0, 89, 282.7707214355469
0, 0, 90, 243.40478515625
0, 0, 91, 281.5996398925781
0, 0, 92, 253.2235565185547
0, 0, 93, 249.8191070556641
0, 0, 94, 248.4851226806641
0, 0, 95, 247.8451995849609
0, 0, 96, 275.0000305175781
0, 0, 97, 273.6747741699219
0, 0, 98, 274.8760070800781
0, 0, 99, 258.0505676269531
0, 0, 100, 259.2833251953125
0, 0, 101, 227.0390014648438
0, 0, 102, 232.6971282958984
0, 0, 103, 269.98583984375
0, 0, 104, 255.52197265625
0, 0, 105, 250.4374237060547
0, 0, 106, 246.3816528320312
0, 0, 107, 151.3499450683594
0, 0, 108, 37.54419708251953
0, 0, 109, 12.06389236450195
0, 0, 110, 12.09093475341797
0, 0, 111, 8.271052360534668
0, 0, 112, 6.215601921081543
0, 0, 113, 4.503652572631836
0, 0, 114, 7.276862621307373
0, 0, 115, 3.817484617233276
0, 0, 116, 4.361641883850098
0, 0, 117, 6.611395359039307
0, 0, 118, 6.858528614044189
0, 0, 119, 4.004745006561279
0, 0, 120, 3.08275842666626
0, 0, 121, 4.203326225280762
0, 0, 122, 4.647671222686768
0, 0, 123, 3.255171537399292
0, 0, 124, 4.377392768859863
0, 0, 125, 1.958770871162415
0, 0, 126, 4.867827892303467
0, 0, 127, 3.613837480545044
0, 1, 0, 7.049936771392822
0, 1, 1, 2.31197190284729
0, 1, 2, 4.888641834259033
0, 1, 3, 1.538488626480103
0, 1, 4, 4.166708469390869
0, 1, 5, 3.84594988822937
0, 1, 6, 3.506515741348267
0, 1, 7, 5.362107276916504
0, 1, 8, 8.762468338012695
0, 1, 9, 4.312422275543213
0, 1, 10, 8.492950439453125
0, 1, 11, 11.11350631713867
0, 1, 12, 9.271777153015137
0, 1, 13, 10.09273529052734
0, 1, 14, 7.359888076782227
0, 1, 15, 8.004051208496094
0, 1, 16, 11.89643383026123
0, 1, 17, 13.5823221206665
0, 1, 18, 20.06243133544922
0, 1, 19, 65.426025390625
0, 1, 20, 201.6562652587891
0, 1, 21, 254.2769622802734
0, 1, 22, 296.1066284179688
0, 1, 23, 282.4402160644531
0, 1, 24, 274.7709045410156
0, 1, 25, 287.6738891601562
0, 1, 26, 269.3414001464844
0, 1, 27, 306.0763244628906
0, 1, 28, 298.0828247070312
0, 1, 29, 295.41064453125
0, 1, 30, 280.0936584472656
0, 1, 31, 293.5928649902344
0, 1, 32, 290.9332885742188
0, 1, 33, 296.2104797363281
0, 1, 34, 293.8306579589844
0, 1, 35, 278.0953369140625
0, 1, 36, 306.0975036621094
0, 1, 37, 295.7084350585938
0, 1, 38, 280.1673278808594
0, 1, 39, 298.6245422363281
0, 1, 40, 268.1881103515625
0, 1, 41, 285.7012939453125
0, 1, 42, 288.7024841308594
0, 1, 43, 330.3994445800781
0, 1, 44, 278.1968994140625
0, 1, 45, 291.5730285644531
0, 1, 46, 260.6324157714844
0, 1, 47, 311.5782470703125
0, 1, 48, 285.17236328125
0, 1, 49, 302.0502624511719
0, 1, 50, 265.0917663574219
0, 1, 51, 272.671875
0, 1, 52, 295.8375549316406
0, 1, 53, 304.2280578613281
0, 1, 54, 274.887451171875
0, 1, 55, 293.3203735351562
0, 1, 56, 280.9782104492188
0, 1, 57, 298.9334716796875
0, 1, 58, 311.5942993164062
0, 1, 59, 292.4119873046875
0, 1, 60, 296.5658874511719
0, 1, 61, 273.7574768066406
0, 1, 62, 307.588134765625
0, 1, 63, 286.1344909667969
0, 1, 64, 288.2902221679688
0, 1, 65, 296.6459045410156
0, 1, 66, 292.3321838378906
0, 1, 67, 293.7025756835938
0, 1, 68, 280.7398681640625
0, 1, 69, 280.1388549804688
0, 1, 70, 271.16015625
0, 1, 71, 272.2380981445312
0, 1, 72, 284.037353515625
0, 1, 73, 303.7830200195312
0, 1, 74, 305.0687255859375
0, 1, 75, 293.4349670410156
0, 1, 76, 286.6908569335938
0, 1, 77, 290.9919738769531
0, 1, 78, 297.5199584960938
0, 1, 79, 303.4705505371094
0, 1, 80, 294.8539123535156
0, 1, 81, 300.0914306640625
0, 1, 82, 282.1455993652344
0, 1, 83, 331.5010375976562
0, 1, 84, 308.2179870605469
0, 1, 85, 252.1047668457031
0, 1, 86, 294.590576171875
0, 1, 87, 291.5961608886719
0, 1, 88, 298.083740234375
0, 1, 89, 288.5917053222656
0, 1, 90, 269.8863830566406
0, 1, 91, 316.5077209472656
0, 1, 92, 292.2669982910156
0, 1, 93, 285.7782592773438
0, 1, 94, 304.8265991210938
0, 1, 95, 284.9459228515625
0, 1, 96, 282.7330627441406
0, 1, 97, 300.8224792480469
0, 1, 98, 278.6532897949219
0, 1, 99, 267.1484375
0, 1, 100, 275.8291320800781
0, 1, 101, 282.0704040527344
0, 1, 102, 278.2836608886719
0, 1, 103, 281.9539794921875
0, 1, 104, 306.5040283203125
0, 1, 105, 295.929443359375
0, 1, 106, 260.7381896972656
0, 1, 107, 190.9530334472656
0, 1, 108, 80.55128479003906
0, 1, 109, 23.99131393432617
0, 1, 110, 10.85146903991699
0, 1, 111, 9.850584983825684
0, 1, 112, 10.41693210601807
0, 1, 113, 5.365539073944092
0, 1, 114, 5.633451461791992
0, 1, 115, 5.443063259124756
0, 1, 116, 11.41776371002197
0, 1, 117, 7.305412769317627
0, 1, 118, 5.407630443572998
0, 1, 119, 5.748290061950684
0, 1, 120, 6.362849235534668
0, 1, 121, 4.77129077911377
0, 1, 122, 2.32474684715271
0, 1, 123, 4.274974346160889
0, 1, 124, 7.516075134277344
0, 1, 125, 3.874207973480225
0, 1, 126, 1.486586570739746
0, 1, 127, 2.98365044593811
0, 2, 0, 5.446684837341309
0, 2, 1, 2.846900463104248
0, 2, 2, 4.555444240570068
0, 2, 3, 5.592675685882568
0, 2, 4, 4.211664199829102
0, 2, 5, 2.061971187591553
0, 2, 6, 3.781805038452148
0, 2, 7, 4.925538539886475
0, 2, 8, 4.348290920257568
0, 2, 9, 6.342442512512207
0, 2, 10, 8.721677780151367
0, 2, 11, 5.920688152313232
0, 2, 12, 5.709359169006348
0, 2, 13, 9.951391220092773
0, 2, 14, 11.80334854125977
0, 2, 15, 8.155251502990723
0, 2, 16, 8.76152229309082
0, 2, 17, 18.23023796081543
0, 2, 18, 31.68847274780273
0, 2, 19, 115.5495071411133
0, 2, 20, 247.2251129150391
0, 2, 21, 270.7068481445312
0, 2, 22, 315.8932800292969
0, 2, 23, 300.3339538574219
0, 2, 24, 288.355224609375
0, 2, 25, 301.944091796875
0, 2, 26, 293.558837890625
0, 2, 27, 275.7151489257812
0, 2, 28, 273.0216064453125
0, 2, 29, 274.3629455566406
0, 2, 30, 288.9280395507812
0, 2, 31, 276.3340759277344
0, 2, 32, 292.7720642089844
0, 2, 33, 281.5451354980469
0, 2, 34, 330.3270568847656
0, 2, 35, 287.954833984375
0, 2, 36, 306.9758605957031
0, 2, 37, 314.725830078125
0, 2, 38, 312.234619140625
0, 2, 39, 268.4327697753906
0, 2, 40, 308.04345703125
0, 2, 41, 291.2688903808594
0, 2, 42, 302.6775207519531
0, 2, 43, 311.3247680664062
0, 2, 44, 311.4813842773438
0, 2, 45, 325.344970703125
0, 2, 46, 286.0391845703125
0, 2, 47, 302.9023132324219
0, 2, 48, 282.642822265625
0, 2, 49, 277.9584350585938
0, 2, 50, 294.0458679199219
0, 2, 51, 283.9994812011719
0, 2, 52, 273.9248352050781
0, 2, 53, 286.8506469726562
0, 2, 54, 279.1566467285156
0, 2, 55, 274.8050842285156
0, 2, 56, 300.5680236816406
0, 2, 57, 292.1626586914062
0, 2, 58, 302.7323608398438
0, 2, 59, 288.955322265625
0, 2, 60, 318.8835144042969
0, 2, 61, 300.9553527832031
0, 2, 62, 314.5186462402344
0, 2, 63, 302.6525573730469
0, 2, 64, 296.68310546875
0, 2, 65, 312.2489318847656
0, 2, 66, 279.0361938476562
0, 2, 67, 290.3504638671875
0, 2, 68, 296.8011779785156
0, 2, 69, 310.8919982910156
0, 2, 70, 336.096923828125
0, 2, 71, 282.2586975097656
0, 2, 72, 301.1905517578125
0, 2, 73, 311.5964660644531
0, 2, 74, 287.0480651855469
0, 2, 75, 306.5993957519531
0, 2, 76, 286.6763305664062
0, 2, 77, 299.774658203125
0, 2, 78, 314.9271240234375
0, 2, 79, 308.6748657226562
0, 2, 80, 298.1526794433594
0, 2, 81, 283.2830810546875
0, 2, 82, 319.7924194335938
0, 2, 83, 313.4755859375
0, 2, 84, 288.3661499023438
0, 2, 85, 280.7927551269531
0, 2, 86, 325.1810913085938
0, 2, 87, 288.1019897460938
0, 2, 88, 280.1021423339844
0, 2, 89, 300.1151733398438
0, 2, 90, 294.2563171386719
0, 2, 91, 276.6028747558594
0, 2, 92, 305.6537780761719
0, 2, 93, 316.3515930175781
0, 2, 94, 291.9133605957031
0, 2, 95, 313.47265625
0, 2, 96, 314.6581726074219
0, 2, 97, 290.1332092285156
0, 2, 98, 293.6932067871094
0, 2, 99, 273.3824462890625
0, 2, 100, 306.9928283691406
0, 2, 101, 302.4880065917969
0, 2, 102, 295.8980102539062
0, 2, 103, 291.3458557128906
0, 2, 104, 292.0078430175781
0, 2, 105, 274.6358032226562
0, 2, 106, 295.7602844238281
0, 2, 107, 270.9603881835938
0, 2, 108, 116.3923645019531
0, 2, 109, 32.021484375
0, 2, 110, 9.815040588378906
0, 2, 111, 11.48953056335449
0, 2, 112, 7.484263896942139
0, 2, 113, 10.78744411468506
0, 2, 114, 8.795322418212891
0, 2, 115, 10.72344303131104
0, 2, 116, 7.971639156341553
0, 2, 117, 7.048355102539062
0, 2, 118, 1.694420695304871
0, 2, 119, 6.040678977966309
0, 2, 120, 6.493102073669434
0, 2, 121, 1.574685573577881
0, 2, 122, 4.294417381286621
0, 2, 123, 5.754806518554688
0, 2, 124, 3.787824392318726
0, 2, 125, 7.212481021881104
0, 2, 126, 4.220427989959717
0, 2, 127, 4.80241060256958
0, 3, 0, 3.89750599861145
0, 3, 1, 2.69095253944397
0, 3, 2, 5.142611980438232
0, 3, 3, 3.562213659286499
0, 3, 4, 3.710387229919434
0, 3, 5, 6.140914440155029
0, 3, 6, 7.175905227661133
0, 3, 7, 5.204517841339111
0, 3, 8, 5.235189914703369
0, 3, 9, 5.871067523956299
0, 3, 10, 6.795933246612549
0, 3, 11, 4.277356147766113
0, 3, 12, 8.777957916259766
0, 3, 13, 15.6230354309082
0, 3, 14, 9.607934951782227
0, 3, 15, 15.53637790679932
0, 3, 16, 11.21643352508545
0, 3, 17, 20.94387245178223
0, 3, 18, 51.4300422668457
0, 3, 19, 175.1412811279297
0, 3, 20, 270.0816345214844
0, 3, 21, 270.6081237792969
0, 3, 22, 282.5817260742188
0, 3, 23, 285.9237365722656
0, 3, 24, 288.302490234375
0, 3, 25, 270.7241516113281
0, 3, 26, 305.0231018066406
0, 3, 27, 290.7445983886719
0, 3, 28, 280.7348022460938
0, 3, 29, 340.3045959472656
0, 3, 30, 315.8388366699219
0, 3, 31, 287.8270874023438
0, 3, 32, 308.6575622558594
0, 3, 33, 313.3103942871094
0, 3, 34, 320.2211608886719
0, 3, 35, 305.9437561035156
0, 3, 36, 274.8221740722656
0, 3, 37, 313.3912353515625
0, 3, 38, 305.5465087890625
0, 3, 39, 289.0188903808594
0, 3, 40, 267.2234191894531
0, 3, 41, 299.592041015625
0, 3, 42, 285.0971374511719
0, 3, 43, 306.3889465332031
0, 3, 44, 310.421630859375
0, 3, 45, 290.0660400390625
0, 3, 46, 329.8389587402344
0, 3, 47, 299.41845703125
0, 3, 48, 303.8988647460938
0, 3, 49, 277.6052856445312
0, 3, 50, 289.7118835449219
0, 3, 51, 275.6814880371094
0, 3, 52, 314.3235168457031
0, 3, 53, 287.9761352539062
0, 3, 54, 286.6145324707031
0, 3, 55, 282.454345703125
0, 3, 56, 298.2273864746094
0, 3, 57, 288.2457580566406
0, 3, 58, 304.5883483886719
0, 3, 59, 292.8576049804688
0, 3, 60, 298.2081604003906
0, 3, 61, 263.3186950683594
0, 3, 62, 283.5255432128906
0, 3, 63, 306.9790954589844
0, 3, 64, 317.9371643066406
0, 3, 65, 304.9147033691406
0, 3, 66, 315.3843688964844
0, 3, 67, 317.8988952636719
0, 3, 68, 278.4254455566406
0, 3, 69, 283.4365539550781
0, 3, 70, 288.0879211425781
0, 3, 71, 300.9693298339844
0, 3, 72, 271.7716369628906
0, 3, 73, 310.3404541015625
0, 3, 74, 293.2336730957031
0, 3, 75, 291.6954040527344
0, 3, 76, 305.2909240722656
0, 3, 77, 313.017333984375
0, 3, 78, 305.8600769042969
0, 3, 79, 282.1124877929688
0, 3, 80, 292.64404296875
0, 3, 81, 311.4826354980469
0, 3, 82, 316.9833679199219
0, 3, 83, 300.1166687011719
0, 3, 84, 311.7728881835938
0, 3, 85, 293.4628295898438
0, 3, 86, 303.0899047851562
0, 3, 87, 297.2702026367188
0, 3, 88, 300.1188049316406
0, 3, 89, 298.1855773925781
0, 3, 90, 278.3198547363281
0, 3, 91, 285.0538635253906
0, 3, 92, 305.5167846679688
0, 3, 93, 311.7511901855469
0, 3, 94, 298.4905700683594
0, 3, 95, 333.4086303710938
0, 3, 96, 291.3457336425781
0, 3, 97, 287.417724609375
0, 3, 98, 278.2031860351562
0, 3, 99, 261.0205688476562
0, 3, 100, 285.485595703125
0, 3, 101, 296.9891357421875
0, 3, 102, 274.3323059082031
0, 3, 103, 320.7338256835938
0, 3, 104, 308.7770690917969
0, 3, 105, 288.4731750488281
0, 3, 106, 305.8046264648438
0, 3, 107, 283.3223876953125
0, 3, 108, 168.6787109375
0, 3, 109, 58.44094467163086
0, 3, 110, 17.71303367614746
0, 3, 111, 11.95694255828857
0, 3, 112, 13.43375015258789
0, 3, 113, 7.787626266479492
0, 3, 114, 9.085142135620117
0, 3, 115, 9.686361312866211
0, 3, 116, 11.56053352355957
0, 3, 117, 7.193770408630371
0, 3, 118, 8.456926345825195
0, 3, 119, 7.758526802062988
0, 3, 120, 9.307987213134766
0, 3, 121, 2.833255290985107
0, 3, 122, 2.574359178543091
0, 3, 123, 5.695572853088379
0, 3, 124, 4.129414081573486
0, 3, 125, 6.019073486328125
0, 3, 126, 5.146131992340088
0, 3, 127, 2.625436067581177
0, 4, 0, 2.920354843139648
0, 4, 1, 3.801113605499268
0, 4, 2, 2.926743268966675
0, 4, 3, 3.239399909973145
0, 4, 4, 7.358772277832031
0, 4, 5, 9.47199535369873
0, 4, 6, 7.718452930450439
0, 4, 7, 5.321359157562256
0, 4, 8, 4.331673145294189
0, 4, 9, 7.728982448577881
0, 4, 10, 8.727146148681641
0, 4, 11, 6.390933990478516
0, 4, 12, 5.009670257568359
0, 4, 13, 7.557908058166504
0, 4, 14, 10.87757110595703
0, 4, 15, 10.25794982910156
0, 4, 16, 14.05376815795898
0, 4, 17, 18.52874183654785
0, 4, 18, 93.97543334960938
0, 4, 19, 223.2860107421875
0, 4, 20, 287.1216735839844
0, 4, 21, 273.9989929199219
0, 4, 22, 305.37890625
0, 4, 23, 265.9324645996094
0, 4, 24, 288.4375
0, 4, 25, 273.6578369140625
0, 4, 26, 294.3307495117188
0, 4, 27, 283.6788330078125
0, 4, 28, 308.5243530273438
0, 4, 29, 321.6571044921875
0, 4, 30, 309.8294982910156
0, 4, 31, 305.3723449707031
0, 4, 32, 280.9036560058594
0, 4, 33, 297.9306030273438
0, 4, 34, 299.744384765625
0, 4, 35, 313.4367370605469
0, 4, 36, 292.9660034179688
0, 4, 37, 287.2709655761719
0, 4, 38, 298.0369567871094
0, 4, 39, 292.0408325195312
0, 4, 40, 303.1899108886719
0, 4, 41, 312.1380310058594
0, 4, 42, 331.3414306640625
0, 4, 43, 299.3678894042969
0, 4, 44, 320.7568359375
0, 4, 45, 322.8921508789062
0, 4, 46, 306.1847229003906
0, 4, 47, 293.1900024414062
0, 4, 48, 295.1250305175781
0, 4, 49, 278.3455200195312
0, 4, 50, 296.4013977050781
0, 4, 51, 317.0878601074219
0, 4, 52, 326.3253479003906
0, 4, 53, 305.1140441894531
0, 4, 54, 286.362548828125
0, 4, 55, 315.3738098144531
0, 4, 56, 287.2384643554688
0, 4, 57, 310.2342224121094
0, 4, 58, 296.0323791503906
0, 4, 59, 308.2751770019531
0, 4, 60, 301.1575317382812
0, 4, 61, 315.60107421875
0, 4, 62, 307.87548828125
0, 4, 63, 298.0303955078125
0, 4, 64, 333.6168518066406
0, 4, 65, 314.9678955078125
0, 4, 66, 297.8089904785156
0, 4, 67, 284.7707824707031
0, 4, 68, 313.4346923828125
0, 4, 69, 274.9750671386719
0, 4, 70, 299.9186401367188
0, 4, 71, 321.1883850097656
0, 4, 72, 331.8463134765625
0, 4, 73, 299.152099609375
0, 4, 74, 292.6909790039062
0, 4, 75, 290.2004699707031
0, 4, 76, 275.0536804199219
0, 4, 77, 278.0868835449219
0, 4, 78, 308.4440612792969
0, 4, 79, 321.1729431152344
0, 4, 80, 315.7757873535156
0, 4, 81, 312.2596740722656
0, 4, 82, 297.4528198242188
0, 4, 83, 302.316162109375
0, 4, 84, 291.1827697753906
0, 4, 85, 294.6222534179688
0, 4, 86, 296.9340209960938
0, 4, 87, 285.7815246582031
0, 4, 88, 303.9330749511719
0, 4, 89, 294.0910034179688
0, 4, 90, 331.4898986816406
0, 4, 91, 303.3580932617188
0, 4, 92, 288.4130554199219
0, 4, 93, 296.0633850097656
0, 4, 94, 293.6647338867188
0, 4, 95, 291.354248046875
0, 4, 96, 323.8243103027344
0, 4, 97, 274.0353698730469
0, 4, 98, 327.2191772460938
0, 4, 99, 315.1141357421875
0, 4, 100, 300.8556518554688
0, 4, 101, 256.6584777832031
0, 4, 102, 299.0352783203125
0, 4, 103, 317.1330871582031
0, 4, 104, 283.948486328125
0, 4, 105, 313.0038757324219
0, 4, 106, 287.1241760253906
0, 4, 107, 295.3022155761719
0, 4, 108, 226.9395751953125
0, 4, 109, 81.75299835205078
0, 4, 110, 15.73161888122559
0, 4, 111, 14.55272960662842
0, 4, 112, 7.834022521972656
0, 4, 113, 11.20924758911133
0, 4, 114, 9.435952186584473
0, 4, 115, 8.767595291137695
0, 4, 116, 8.203676223754883
0, 4, 117, 8.051751136779785
0, 4, 118, 10.68702793121338
0, 4, 119, 9.409497261047363
0, 4, 120, 4.865866184234619
0, 4, 121, 7.427594661712646
0, 4, 122, 5.035500526428223
0, 4, 123, 6.765627384185791
0, 4, 124, 5.703363418579102
0, 4, 125, 9.302431106567383
0, 4, 126, 5.810991764068604
0, 4, 127, 6.326493263244629
0, 5, 0, 4.362734317779541
0, 5, 1, 5.072720527648926
0, 5, 2, 4.334567070007324
0, 5, 3, 4.605714321136475
0, 5, 4, 5.368954658508301
0, 5, 5, 7.312564373016357
0, 5, 6, 6.395228862762451
0, 5, 7, 6.283968925476074
0, 5, 8, 5.027288436889648
0, 5, 9, 5.050271511077881
0, 5, 10, 6.107336521148682
0, 5, 11, 7.885948657989502
0, 5, 12, 8.695009231567383
0, 5, 13, 6.451842784881592
0, 5, 14, 15.30481243133545
0, 5, 15, 16.56767463684082
0, 5, 16, 14.07844924926758
0, 5, 17, 28.61850738525391
0, 5, 18, 139.6058044433594
0, 5, 19, 286.4648132324219
0, 5, 20, 306.8414001464844
0, 5, 21, 316.7109985351562
0, 5, 22, 275.6882629394531
0, 5, 23, 311.80615234375
0, 5, 24, 302.115478515625
0, 5, 25, 289.2520141601562
0, 5, 26, 295.4028625488281
0, 5, 27, 322.24267578125
0, 5, 28, 303.0928344726562
0, 5, 29, 298.4707946777344
0, 5, 30, 321.9951171875
0, 5, 31, 284.5934753417969
0, 5, 32, 301.2074890136719
0, 5, 33, 303.9046325683594
0, 5, 34, 296.2325439453125
0, 5, 35, 309.8816833496094
0, 5, 36, 270.6844787597656
0, 5, 37, 284.2149658203125
0, 5, 38, 292.4907531738281
0, 5, 39, 311.2815856933594
0, 5, 40, 306.8960266113281
0, 5, 41, 273.7349243164062
0, 5, 42, 308.044921875
0, 5, 43, 315.9450988769531
0, 5, 44, 292.0267028808594
0, 5, 45, 302.9999694824219
0, 5, 46, 265.8172607421875
0, 5, 47, 279.6099243164062
0, 5, 48, 296.6535949707031
0, 5, 49, 286.2773742675781
0, 5, 50, 296.8624572753906
0, 5, 51, 279.1742553710938
0, 5, 52, 267.9357604980469
0, 5, 53, 281.6198120117188
0, 5, 54, 291.3842468261719
0, 5, 55, 344.6504821777344
0, 5, 56, 306.0202026367188
0, 5, 57, 307.4397277832031
0, 5, 58, 312.4831848144531
0, 5, 59, 303.8454895019531
0, 5, 60, 307.7944946289062
0, 5, 61, 280.7472839355469
0, 5, 62, 324.7349548339844
0, 5, 63, 292.0176086425781
0, 5, 64, 323.4740600585938
0, 5, 65, 308.1199645996094
0, 5, 66, 328.446533203125
0, 5, 67, 311.1411437988281
0, 5, 68, 310.2779235839844
0, 5, 69, 312.60009765625
0, 5, 70, 301.8577270507812
0, 5, 71, 271.8396911621094
0, 5, 72, 311.0469665527344
0, 5, 73, 302.4862060546875
0, 5, 74, 294.9057312011719
0, 5, 75, 295.9016418457031
0, 5, 76, 288.2554931640625
0, 5, 77, 301.5498046875
0, 5, 78, 313.6743469238281
0, 5, 79, 306.0947265625
0, 5, 80, 295.4105529785156
0, 5, 81, 324.9346923828125
0, 5, 82, 324.0779113769531
0, 5, 83, 279.9778747558594
0, 5, 84, 303.0863342285156
0, 5, 85, 271.6441040039062
0, 5, 86, 326.1412658691406
0, 5, 87, 286.6063232421875
0, 5, 88, 313.1719665527344
0, 5, 89, 303.1156921386719
0, 5, 90, 317.210693359375
0, 5, 91, 315.1599426269531
0, 5, 92, 297.0544738769531
0, 5, 93, 321.8715209960938
0, 5, 94, 310.4344787597656
0, 5, 95, 298.6493225097656
0, 5, 96, 297.9299621582031
0, 5, 97, 295.1397705078125
0, 5, 98, 319.0764465332031
0, 5, 99, 299.9796752929688
0, 5, 100, 290.2513122558594
0, 5, 101, 306.385986328125
0, 5, 102, 290.8610229492188
0, 5, 103, 313.6484069824219
0, 5, 104, 303.6989440917969
0, 5, 105, 290.7577209472656
0, 5, 106, 281.1925354003906
0, 5, 107, 291.7477722167969
0, 5, 108, 265.154052734375
0, 5, 109, 157.7670593261719
0, 5, 110, 40.35569000244141
0, 5, 111, 22.01423645019531
0, 5, 112, 17.60615921020508
0, 5, 113, 13.45355129241943
0, 5, 114, 12.94887447357178
0, 5, 115, 6.705704689025879
0, 5, 116, 8.488516807556152
0, 5, 117, 6.004271507263184
0, 5, 118, 14.95671272277832
0, 5, 119, 5.468801498413086
0, 5, 120, 7.050667285919189
0, 5, 121, 6.39702320098877
0, 5, 122, 7.011129856109619
0, 5, 123, 4.499173164367676
0, 5, 124, 6.004662990570068
0, 5, 125, 4.896467685699463
0, 5, 126, 6.728016376495361
0, 5, 127, 5.022132396697998
0, 6, 0, 3.186763286590576
0, 6, 1, 3.488801240921021
0, 6, 2, 5.877265453338623
0, 6, 3, 5.109152793884277
0, 6, 4, 4.83984375
0, 6, 5, 6.121684074401855
0, 6, 6, 7.599109649658203
0, 6, 7, 6.234395027160645
0, 6, 8, 8.320015907287598
0, 6, 9, 5.150197505950928
0, 6, 10, 8.397607803344727
0, 6, 11, 7.168074131011963
0, 6, 12, 11.0587911605835
0, 6, 13, 15.51316928863525
0, 6, 14, 10.2105016708374
0, 6, 15, 18.51609992980957
0, 6, 16, 29.43859100341797
0, 6, 17, 54.11630249023438
0, 6, 18, 173.4229736328125
0, 6, 19, 277.3186950683594
0, 6, 20, 291.6492614746094
0, 6, 21, 313.3484497070312
0, 6, 22, 320.8307800292969
0, 6, 23, 306.64892578125
0, 6, 24, 315.0078430175781
0, 6, 25, 316.4974670410156
0, 6, 26, 321.530517578125
0, 6, 27, 332.3147277832031
0, 6, 28, 298.2599792480469
0, 6, 29, 330.2630615234375
0, 6, 30, 283.24462890625
0, 6, 31, 287.5926513671875
0, 6, 32, 340.4853515625
0, 6, 33, 303.3331298828125
0, 6, 34, 339.5677490234375
0, 6, 35, 321.5947570800781
0, 6, 36, 274.0574035644531
0, 6, 37, 288.6469116210938
0, 6, 38, 313.2548828125
0, 6, 39, 302.0537109375
0, 6, 40, 283.8508605957031
0, 6, 41, 294.861083984375
0, 6, 42, 304.5270690917969
0, 6, 43, 288.0122680664062
0, 6, 44, 279.0293579101562
0, 6, 45, 319.2664489746094
0, 6, 46, 301.0233459472656
0, 6, 47, 332.4753112792969
0, 6, 48, 291.2932434082031
0, 6, 49, 311.803955078125
0, 6, 50, 329.4813842773438
0, 6, 51, 309.8088073730469
0, 6, 52, 323.1976318359375
0, 6, 53, 327.6851501464844
0, 6, 54, 303.9650268554688
0, 6, 55, 307.3555297851562
0, 6, 56, 293.2037658691406
0, 6, 57, 312.3555297851562
0, 6, 58, 263.9672241210938
0, 6, 59, 306.0090942382812
0, 6, 60, 310.826416015625
0, 6, 61, 272.1504516601562
0, 6, 62, 338.960693359375
0, 6, 63, 323.8302001953125
0, 6, 64, 292.1536865234375
0, 6, 65, 282.9167785644531
0, 6, 66, 302.08935546875
0, 6, 67, 309.2431945800781
0, 6, 68, 293.3661193847656
0, 6, 69, 277.9789123535156
0, 6, 70, 273.0294799804688
0, 6, 71, 288.825927734375
0, 6, 72, 309.9898071289062
0, 6, 73, 292.1703796386719
0, 6, 74, 330.7664794921875
0, 6, 75, 342.9106750488281
0, 6, 76, 297.9948120117188
0, 6, 77, 287.3141784667969
0, 6, 78, 278.1623840332031
0, 6, 79, 292.0982360839844
0, 6, 80, 298.5196533203125
0, 6, 81, 316.5310668945312
0, 6, 82, 318.3892517089844
0, 6, 83, 319.2961730957031
0, 6, 84, 296.4209899902344
0, 6, 85, 301.918212890625
0, 6, 86, 330.6643371582031
0, 6, 87, 290.9265747070312
0, 6, 88, 306.0718994140625
0, 6, 89, 306.4700317382812
0, 6, 90, 299.4275512695312
0, 6, 91, 310.8555603027344
0, 6, 92, 284.2276916503906
0, 6, 93, 296.7283325195312
0, 6, 94, 272.0897216796875
0, 6, 95, 299.3328857421875
0, 6, 96, 349.8695983886719
0, 6, 97, 308.1434936523438
0, 6, 98, 301.1638793945312
0, 6, 99, 274.5068359375
0, 6, 100, 315.30029296875
0, 6, 101, 293.7637329101562
0, 6, 102, 307.6360778808594
0, 6, 103, 309.8894348144531
0, 6, 104, 292.0749816894531
0, 6, 105, 304.0602416992188
0, 6, 106, 307.4827575683594
0, 6, 107, 308.6020812988281
0, 6, 108, 266.4591064453125
0, 6, 109, 186.3606872558594
0, 6, 110, 57.77070999145508
0, 6, 111, 21.10647773742676
0, 6, 112, 12.57058906555176
0, 6, 113, 12.88803005218506
0, 6, 114, 12.76417446136475
0, 6, 115, 12.06416797637939
0, 6, 116, 10.07395267486572
0, 6, 117, 5.704759120941162
0, 6, 118, 9.699504852294922
0, 6, 119, 7.855346202850342
0, 6, 120, 6.634220600128174
0, 6, 121, 7.291823863983154
0, 6, 122, 7.922370910644531
0, 6, 123, 9.488847732543945
0, 6, 124, 7.285980224609375
0, 6, 125, 6.321375370025635
0, 6, 126, 2.299687623977661
0, 6, 127, 7.238426685333252
0, 7, 0, 6.059064388275146
0, 7, 1, 3.159483909606934
0, 7, 2, 5.459095001220703
0, 7, 3, 4.529730319976807
0, 7, 4, 4.488967418670654
0, 7, 5, 5.980752468109131
0, 7, 6, 6.424089431762695
0, 7, 7, 4.836803913116455
0, 7, 8, 5.213735103607178
0, 7, 9, 7.093610286712646
0, 7, 10, 8.514180183410645
0, 7, 11, 12.17351150512695
0, 7, 12, 10.45072269439697
0, 7, 13, 10.14011192321777
0, 7, 14, 9.695734024047852
0, 7, 15, 19.10699844360352
0, 7, 16, 26.7609920501709
0, 7, 17, 98.87496948242188
0, 7, 18, 216.8912963867188
0, 7, 19, 289.5495910644531
0, 7, 20, 299.0526428222656
0, 7, 21, 277.8665161132812
0, 7, 22, 299.5843505859375
0, 7, 23, 289.8199768066406
0, 7, 24, 314.3694763183594
0, 7, 25, 324.8607482910156
0, 7, 26, 280.0404052734375
0, 7, 27, 298.61865234375
0, 7, 28, 326.2146301269531
0, 7, 29, 319.0867614746094
0, 7, 30, 300.2716064453125
0, 7, 31, 277.4424743652344
0, 7, 32, 305.94287109375
0, 7, 33, 264.7961730957031
0, 7, 34, 297.4100036621094
0, 7, 35, 320.8374938964844
0, 7, 36, 329.8464050292969
0, 7, 37, 322.5362243652344
0, 7, 38, 295.2785949707031
0, 7, 39, 306.1045532226562
0, 7, 40, 288.2231140136719
0, 7, 41, 275.0746459960938
0, 7, 42, 303.2663879394531
0, 7, 43, 275.9771118164062
0, 7, 44, 304.3279724121094
0, 7, 45, 294.3965759277344
0, 7, 46, 283.9586486816406
0, 7, 47, 329.3747863769531
0, 7, 48, 286.7624816894531
0, 7, 49, 302.7376708984375
0, 7, 50, 323.4232482910156
0, 7, 51, 298.5069274902344
0, 7, 52, 327.0533142089844
0, 7, 53, 308.7042236328125
0, 7, 54, 323.8186340332031
0, 7, 55, 308.6874694824219
0, 7, 56, 281.7732238769531
0, 7, 57, 281.4176330566406
0, 7, 58, 295.1390991210938
0, 7, 59, 292.5427856445312
0, 7, 60, 322.1809692382812
0, 7, 61, 277.160888671875
0, 7, 62, 296.8558654785156
0, 7, 63, 293.2052917480469
0, 7, 64, 308.2070007324219
0, 7, 65, 332.0249938964844
0, 7, 66, 319.5133056640625
0, 7, 67, 300.9802856445312
0, 7, 68, 279.690185546875
0, 7, 69, 292.5068359375
0, 7, 70, 302.8515625
0, 7, 71, 309.2464904785156
0, 7, 72, 284.1869506835938
0, 7, 73, 296.8928527832031
0, 7, 74, 344.5873413085938
0, 7, 75, 318.1244201660156
0, 7, 76, 326.3689575195312
0, 7, 77, 278.6830749511719
0, 7, 78, 304.0348815917969
0, 7, 79, 298.5763244628906
0, 7, 80, 313.3414001464844
0, 7, 81, 320.4335632324219
0, 7, 82, 330.2989196777344
0, 7, 83, 319.9008483886719
0, 7, 84, 308.501953125
0, 7, 85, 271.6392822265625
0, 7, 86, 311.2481079101562
0, 7, 87, 309.5723266601562
0, 7, 88, 306.675537109375
0, 7, 89, 292.6110229492188
0, 7, 90, 307.1166381835938
0, 7, 91, 314.3915405273438
0, 7, 92, 289.7291564941406
0, 7, 93, 308.3708801269531
0, 7, 94, 275.7925109863281
0, 7, 95, 296.693115234375
0, 7, 96, 331.3793640136719
0, 7, 97, 293.4566040039062
0, 7, 98, 291.9288024902344
0, 7, 99, 311.7141418457031
0, 7, 100, 279.8079833984375
0, 7, 101, 276.7484130859375
0, 7, 102, 290.28857421875
0, 7, 103, 291.4810180664062
0, 7, 104, 274.8477478027344
0, 7, 105, 307.2674560546875
0, 7, 106, 317.3697204589844
0, 7, 107, 296.9229431152344
0, 7, 108, 274.2149658203125
0, 7, 109, 236.1418609619141
0, 7, 110, 96.27143096923828
0, 7, 111, 23.79056549072266
0, 7, 112, 13.89710426330566
0, 7, 113, 13.36058235168457
0, 7, 114, 12.59222888946533
0, 7, 115, 13.09958076477051
0, 7, 116, 8.731226921081543
0, 7, 117, 6.17608118057251
0, 7, 118, 9.000760078430176
0, 7, 119, 5.125236034393311
0, 7, 120, 4.122902393341064
0, 7, 121, 5.07898473739624
0, 7, 122, 7.156033515930176
0, 7, 123, 5.309770107269287
0, 7, 124, 4.484373569488525
0, 7, 125, 5.260950088500977
0, 7, 126, 8.618447303771973
0, 7, 127, 3.242473602294922
0, 8, 0, 7.597797393798828
0, 8, 1, 3.016054391860962
0, 8, 2, 3.038774967193604
0, 8, 3, 3.451214075088501
0, 8, 4, 4.11871337890625
0, 8, 5, 6.592029094696045
0, 8, 6, 7.852547645568848
0, 8, 7, 5.765895366668701
0, 8, 8, 7.829540252685547
0, 8, 9, 4.361427307128906
0, 8, 10, 6.993935108184814
0, 8, 11, 11.75505828857422
0, 8, 12, 12.71370410919189
0, 8, 13, 16.23355293273926
0, 8, 14, 13.57175922393799
0, 8, 15, 18.20522689819336
0, 8, 16, 32.85564422607422
0, 8, 17, 130.2941589355469
0, 8, 18, 242.6350708007812
0, 8, 19, 294.9876098632812
0, 8, 20, 284.9076538085938
0, 8, 21, 306.134033203125
0, 8, 22, 295.5053405761719
0, 8, 23, 273.5863037109375
0, 8, 24, 268.8401489257812
0, 8, 25, 274.4563598632812
0, 8, 26, 305.4292602539062
0, 8, 27, 310.0309753417969
0, 8, 28, 304.7894592285156
0, 8, 29, 317.8431396484375
0, 8, 30, 315.9018859863281
0, 8, 31, 304.9624633789062
0, 8, 32, 281.14697265625
0, 8, 33, 293.7310791015625
0, 8, 34, 287.915771484375
0, 8, 35, 280.4436340332031
0, 8, 36, 316.7603149414062
0, 8, 37, 341.4490051269531
0, 8, 38, 332.5143127441406
0, 8, 39, 280.6584777832031
0, 8, 40, 305.4938354492188
