# TOPAS Version: 3.1.p3
# Parameter File: batch_inserts_32.txt
# Results for scorer Readout_Adipose
# Scored in component: MyBox
# X in 1 bin  of 0.75 cm
# Y in 512 bins of 0.0783984 cm
# Z in 128 bins of 0.078125 cm
# EnergyDeposit ( MeV ) : Sum   
0, 0, 0, 4.159813404083252
0, 0, 1, 1.282725930213928
0, 0, 2, 5.021077156066895
0, 0, 3, 2.851102590560913
0, 0, 4, 3.083747625350952
0, 0, 5, 3.161801338195801
0, 0, 6, 6.596136093139648
0, 0, 7, 11.26659488677979
0, 0, 8, 2.996367692947388
0, 0, 9, 3.404746770858765
0, 0, 10, 6.882055759429932
0, 0, 11, 3.979518413543701
0, 0, 12, 4.03773832321167
0, 0, 13, 6.152717590332031
0, 0, 14, 6.546731472015381
0, 0, 15, 10.22101402282715
0, 0, 16, 8.94841480255127
0, 0, 17, 9.915010452270508
0, 0, 18, 15.36959075927734
0, 0, 19, 44.36752319335938
0, 0, 20, 139.2081298828125
0, 0, 21, 224.044677734375
0, 0, 22, 249.0100555419922
0, 0, 23, 255.9387664794922
0, 0, 24, 252.0070190429688
0, 0, 25, 258.532470703125
0, 0, 26, 234.7695465087891
0, 0, 27, 236.915283203125
0, 0, 28, 272.3516845703125
0, 0, 29, 251.3034362792969
0, 0, 30, 229.2244415283203
0, 0, 31, 243.412109375
0, 0, 32, 263.791015625
0, 0, 33, 261.3500671386719
0, 0, 34, 287.0426635742188
0, 0, 35, 267.4908752441406
0, 0, 36, 246.4831848144531
0, 0, 37, 252.0761413574219
0, 0, 38, 267.8009948730469
0, 0, 39, 230.457275390625
0, 0, 40, 243.4383239746094
0, 0, 41, 267.7823791503906
0, 0, 42, 230.3958282470703
0, 0, 43, 260.6527099609375
0, 0, 44, 251.4559631347656
0, 0, 45, 253.2875061035156
0, 0, 46, 245.4101104736328
0, 0, 47, 252.56640625
0, 0, 48, 267.9755859375
0, 0, 49, 274.0228881835938
0, 0, 50, 251.4752960205078
0, 0, 51, 253.0692443847656
0, 0, 52, 274.9300842285156
0, 0, 53, 291.6183776855469
0, 0, 54, 242.9236145019531
0, 0, 55, 240.5565795898438
0, 0, 56, 279.8929748535156
0, 0, 57, 262.9236450195312
0, 0, 58, 247.5081634521484
0, 0, 59, 271.314453125
0, 0, 60, 236.5142974853516
0, 0, 61, 244.319091796875
0, 0, 62, 256.978759765625
0, 0, 63, 265.38330078125
0, 0, 64, 256.568359375
0, 0, 65, 261.740478515625
0, 0, 66, 276.4264526367188
0, 0, 67, 247.3437957763672
0, 0, 68, 258.7707824707031
0, 0, 69, 261.9580383300781
0, 0, 70, 271.6875610351562
0, 0, 71, 237.6517181396484
0, 0, 72, 251.4309387207031
0, 0, 73, 255.9568328857422
0, 0, 74, 251.0528869628906
0, 0, 75, 240.3964080810547
0, 0, 76, 228.3955230712891
0, 0, 77, 259.86962890625
0, 0, 78, 260.3195190429688
0, 0, 79, 276.3592834472656
0, 0, 80, 214.6937103271484
0, 0, 81, 267.0871276855469
0, 0, 82, 256.9470520019531
0, 0, 83, 244.2245941162109
0, 0, 84, 270.2033386230469
0, 0, 85, 230.9127349853516
0, 0, 86, 252.5471496582031
0, 0, 87, 251.1494140625
0, 0, 88, 259.3774108886719
0, 0, 89, 283.1491088867188
0, 0, 90, 243.9480133056641
0, 0, 91, 280.2419738769531
0, 0, 92, 252.3806762695312
0, 0, 93, 250.4358978271484
0, 0, 94, 249.3809051513672
0, 0, 95, 247.17626953125
0, 0, 96, 275.6355285644531
0, 0, 97, 271.5500793457031
0, 0, 98, 274.3404541015625
0, 0, 99, 259.2927551269531
0, 0, 100, 256.8980407714844
0, 0, 101, 224.795654296875
0, 0, 102, 231.7030792236328
0, 0, 103, 269.4252014160156
0, 0, 104, 253.8863525390625
0, 0, 105, 252.7045440673828
0, 0, 106, 247.8203430175781
0, 0, 107, 152.0804290771484
0, 0, 108, 38.07601547241211
0, 0, 109, 11.81320571899414
0, 0, 110, 12.48877334594727
0, 0, 111, 10.66899490356445
0, 0, 112, 8.431925773620605
0, 0, 113, 5.549500465393066
0, 0, 114, 7.326613903045654
0, 0, 115, 5.011096954345703
0, 0, 116, 8.519052505493164
0, 0, 117, 7.408660888671875
0, 0, 118, 7.963705062866211
0, 0, 119, 4.046918392181396
0, 0, 120, 3.420820474624634
0, 0, 121, 3.26968789100647
0, 0, 122, 3.479605674743652
0, 0, 123, 4.156765460968018
0, 0, 124, 6.482297897338867
0, 0, 125, 1.434958696365356
0, 0, 126, 3.683313846588135
0, 0, 127, 6.475001335144043
0, 1, 0, 6.642356395721436
0, 1, 1, 3.40548849105835
0, 1, 2, 3.59495735168457
0, 1, 3, 1.372445702552795
0, 1, 4, 2.517199993133545
0, 1, 5, 3.012309312820435
0, 1, 6, 6.11381721496582
0, 1, 7, 3.523186206817627
0, 1, 8, 5.620235443115234
0, 1, 9, 4.584671020507812
0, 1, 10, 7.168246746063232
0, 1, 11, 11.44828987121582
0, 1, 12, 9.710158348083496
0, 1, 13, 9.292071342468262
0, 1, 14, 8.042157173156738
0, 1, 15, 7.409024238586426
0, 1, 16, 11.24642848968506
0, 1, 17, 12.47493934631348
0, 1, 18, 20.21747589111328
0, 1, 19, 68.97923278808594
0, 1, 20, 200.7825927734375
0, 1, 21, 254.3408203125
0, 1, 22, 295.9329528808594
0, 1, 23, 284.07080078125
0, 1, 24, 275.685546875
0, 1, 25, 288.4114074707031
0, 1, 26, 268.0884094238281
0, 1, 27, 307.0699768066406
0, 1, 28, 300.8164978027344
0, 1, 29, 297.2565002441406
0, 1, 30, 281.503662109375
0, 1, 31, 293.3251953125
0, 1, 32, 290.1909484863281
0, 1, 33, 295.8183898925781
0, 1, 34, 291.4352722167969
0, 1, 35, 278.5090637207031
0, 1, 36, 307.5988159179688
0, 1, 37, 295.8625793457031
0, 1, 38, 280.4908142089844
0, 1, 39, 295.231201171875
0, 1, 40, 264.6059265136719
0, 1, 41, 285.7323608398438
0, 1, 42, 288.5618286132812
0, 1, 43, 330.9540100097656
0, 1, 44, 280.2483215332031
0, 1, 45, 292.4876403808594
0, 1, 46, 258.4656066894531
0, 1, 47, 310.7515563964844
0, 1, 48, 284.6240844726562
0, 1, 49, 304.0693969726562
0, 1, 50, 262.970703125
0, 1, 51, 272.4407958984375
0, 1, 52, 299.41064453125
0, 1, 53, 305.505126953125
0, 1, 54, 276.5621337890625
0, 1, 55, 293.8263549804688
0, 1, 56, 279.6944580078125
0, 1, 57, 298.6111450195312
0, 1, 58, 311.7593078613281
0, 1, 59, 294.1396484375
0, 1, 60, 299.0503540039062
0, 1, 61, 274.8550720214844
0, 1, 62, 307.9496765136719
0, 1, 63, 288.2163696289062
0, 1, 64, 288.059326171875
0, 1, 65, 294.5572204589844
0, 1, 66, 293.6260070800781
0, 1, 67, 293.3252563476562
0, 1, 68, 277.4488220214844
0, 1, 69, 282.273193359375
0, 1, 70, 271.7813415527344
0, 1, 71, 273.4054870605469
0, 1, 72, 285.8379516601562
0, 1, 73, 305.8995361328125
0, 1, 74, 303.6289672851562
0, 1, 75, 294.4979248046875
0, 1, 76, 285.1128540039062
0, 1, 77, 288.9488525390625
0, 1, 78, 296.866455078125
0, 1, 79, 302.1224670410156
0, 1, 80, 297.6528930664062
0, 1, 81, 300.790771484375
0, 1, 82, 284.5146789550781
0, 1, 83, 332.888671875
0, 1, 84, 310.0614013671875
0, 1, 85, 252.4618225097656
0, 1, 86, 294.7094116210938
0, 1, 87, 291.0240783691406
0, 1, 88, 298.9039306640625
0, 1, 89, 290.4574890136719
0, 1, 90, 269.2417907714844
0, 1, 91, 316.5180053710938
0, 1, 92, 289.503173828125
0, 1, 93, 286.0144958496094
0, 1, 94, 303.1506042480469
0, 1, 95, 284.1152038574219
0, 1, 96, 285.0263366699219
0, 1, 97, 299.59765625
0, 1, 98, 276.7607421875
0, 1, 99, 267.0907287597656
0, 1, 100, 276.8062133789062
0, 1, 101, 282.9791259765625
0, 1, 102, 279.1334228515625
0, 1, 103, 282.0810546875
0, 1, 104, 305.4628601074219
0, 1, 105, 296.1406860351562
0, 1, 106, 260.3872680664062
0, 1, 107, 195.3108062744141
0, 1, 108, 81.40887451171875
0, 1, 109, 22.7424373626709
0, 1, 110, 11.17432880401611
0, 1, 111, 7.543195724487305
0, 1, 112, 12.16543102264404
0, 1, 113, 4.69365930557251
0, 1, 114, 6.149184703826904
0, 1, 115, 6.215411186218262
0, 1, 116, 11.94169807434082
0, 1, 117, 5.932259559631348
0, 1, 118, 8.527308464050293
0, 1, 119, 6.072078227996826
0, 1, 120, 6.129223346710205
0, 1, 121, 3.852852582931519
0, 1, 122, 3.159213542938232
0, 1, 123, 7.911595344543457
0, 1, 124, 10.70750713348389
0, 1, 125, 3.790261030197144
0, 1, 126, 3.983057975769043
0, 1, 127, 2.450273752212524
0, 2, 0, 5.22531795501709
0, 2, 1, 1.778243541717529
0, 2, 2, 3.583424806594849
0, 2, 3, 4.342042922973633
0, 2, 4, 3.036091804504395
0, 2, 5, 1.55761706829071
0, 2, 6, 2.737294912338257
0, 2, 7, 3.66006326675415
0, 2, 8, 4.706530094146729
0, 2, 9, 5.881228446960449
0, 2, 10, 7.9583420753479
0, 2, 11, 6.370896339416504
0, 2, 12, 6.93824577331543
0, 2, 13, 9.729825973510742
0, 2, 14, 9.835844039916992
0, 2, 15, 8.565881729125977
0, 2, 16, 8.916793823242188
0, 2, 17, 18.20905113220215
0, 2, 18, 32.08484268188477
0, 2, 19, 116.3811492919922
0, 2, 20, 246.5813903808594
0, 2, 21, 270.73876953125
0, 2, 22, 317.7548217773438
0, 2, 23, 300.7577819824219
0, 2, 24, 286.1936950683594
0, 2, 25, 303.5681762695312
0, 2, 26, 293.3428955078125
0, 2, 27, 275.6223754882812
0, 2, 28, 272.7149353027344
0, 2, 29, 275.6079406738281
0, 2, 30, 291.8574829101562
0, 2, 31, 277.6002807617188
0, 2, 32, 294.19775390625
0, 2, 33, 284.983154296875
0, 2, 34, 332.687255859375
0, 2, 35, 293.0184020996094
0, 2, 36, 304.4339294433594
0, 2, 37, 314.7007751464844
0, 2, 38, 309.7872314453125
0, 2, 39, 266.0874328613281
0, 2, 40, 305.1589965820312
0, 2, 41, 293.9473876953125
0, 2, 42, 305.7349243164062
0, 2, 43, 312.9918212890625
0, 2, 44, 312.1164855957031
0, 2, 45, 323.8795776367188
0, 2, 46, 287.4197998046875
0, 2, 47, 303.1736755371094
0, 2, 48, 282.0513610839844
0, 2, 49, 280.2389221191406
0, 2, 50, 294.0853271484375
0, 2, 51, 286.9064025878906
0, 2, 52, 270.3388671875
0, 2, 53, 287.4290161132812
0, 2, 54, 280.3009643554688
0, 2, 55, 275.7823486328125
0, 2, 56, 301.2459411621094
0, 2, 57, 292.0519409179688
0, 2, 58, 300.7256774902344
0, 2, 59, 291.2328186035156
0, 2, 60, 319.3039855957031
0, 2, 61, 303.4820556640625
0, 2, 62, 312.9658813476562
0, 2, 63, 303.3387756347656
0, 2, 64, 297.6674499511719
0, 2, 65, 312.0546569824219
0, 2, 66, 278.2414855957031
0, 2, 67, 290.0769958496094
0, 2, 68, 296.5042724609375
0, 2, 69, 313.6845397949219
0, 2, 70, 332.6897583007812
0, 2, 71, 284.1435241699219
0, 2, 72, 301.2479248046875
0, 2, 73, 312.0879211425781
0, 2, 74, 285.6061096191406
0, 2, 75, 308.5770874023438
0, 2, 76, 289.3760375976562
0, 2, 77, 300.7346801757812
0, 2, 78, 314.7408752441406
0, 2, 79, 310.7376403808594
0, 2, 80, 296.5130310058594
0, 2, 81, 282.1982116699219
0, 2, 82, 317.4065856933594
0, 2, 83, 312.8415222167969
0, 2, 84, 288.6732177734375
0, 2, 85, 282.607421875
0, 2, 86, 322.974365234375
0, 2, 87, 285.9761657714844
0, 2, 88, 281.1498107910156
0, 2, 89, 299.0400695800781
0, 2, 90, 295.9503479003906
0, 2, 91, 276.2995910644531
0, 2, 92, 305.2071838378906
0, 2, 93, 315.9954528808594
0, 2, 94, 290.0763244628906
0, 2, 95, 314.694091796875
0, 2, 96, 315.6918640136719
0, 2, 97, 293.3677368164062
0, 2, 98, 295.3189392089844
0, 2, 99, 272.9710998535156
0, 2, 100, 306.8704528808594
0, 2, 101, 300.3301391601562
0, 2, 102, 296.8794555664062
0, 2, 103, 291.0870361328125
0, 2, 104, 292.8986206054688
0, 2, 105, 275.3309020996094
0, 2, 106, 296.82568359375
0, 2, 107, 267.8331909179688
0, 2, 108, 116.2870483398438
0, 2, 109, 32.24180603027344
0, 2, 110, 9.227059364318848
0, 2, 111, 10.94476890563965
0, 2, 112, 9.620903968811035
0, 2, 113, 11.44836044311523
0, 2, 114, 10.75154209136963
0, 2, 115, 8.280156135559082
0, 2, 116, 7.895463466644287
0, 2, 117, 6.116262912750244
0, 2, 118, 2.015406608581543
0, 2, 119, 5.441651821136475
0, 2, 120, 7.457330703735352
0, 2, 121, 2.591864824295044
0, 2, 122, 3.745011568069458
0, 2, 123, 6.32916784286499
0, 2, 124, 3.399656057357788
0, 2, 125, 6.625736713409424
0, 2, 126, 5.208107471466064
0, 2, 127, 3.93665337562561
0, 3, 0, 4.039353847503662
0, 3, 1, 2.949673414230347
0, 3, 2, 2.585628509521484
0, 3, 3, 1.851387858390808
0, 3, 4, 3.514947414398193
0, 3, 5, 8.741389274597168
0, 3, 6, 6.147049427032471
0, 3, 7, 5.354596614837646
0, 3, 8, 6.063479900360107
0, 3, 9, 6.644640445709229
0, 3, 10, 5.685002326965332
0, 3, 11, 3.906210899353027
0, 3, 12, 6.430441379547119
0, 3, 13, 16.32369804382324
0, 3, 14, 13.38829326629639
0, 3, 15, 13.99783706665039
0, 3, 16, 12.12794208526611
0, 3, 17, 18.69944953918457
0, 3, 18, 51.39241027832031
0, 3, 19, 176.2631988525391
0, 3, 20, 271.2449645996094
0, 3, 21, 271.659912109375
0, 3, 22, 282.7510070800781
0, 3, 23, 288.2731323242188
0, 3, 24, 287.4113159179688
0, 3, 25, 271.2110595703125
0, 3, 26, 303.7864990234375
0, 3, 27, 292.40966796875
0, 3, 28, 279.1488647460938
0, 3, 29, 338.5991516113281
0, 3, 30, 315.5303039550781
0, 3, 31, 285.2236633300781
0, 3, 32, 306.7848815917969
0, 3, 33, 313.3218688964844
0, 3, 34, 322.0655822753906
0, 3, 35, 306.7951354980469
0, 3, 36, 267.88525390625
0, 3, 37, 311.4808959960938
0, 3, 38, 302.1539001464844
0, 3, 39, 287.1385803222656
0, 3, 40, 264.9557189941406
0, 3, 41, 300.3131408691406
0, 3, 42, 285.5224914550781
0, 3, 43, 304.6174621582031
0, 3, 44, 312.3829040527344
0, 3, 45, 292.2742919921875
0, 3, 46, 329.3910522460938
0, 3, 47, 298.5626525878906
0, 3, 48, 302.4075317382812
0, 3, 49, 276.4197082519531
0, 3, 50, 289.7698059082031
0, 3, 51, 276.8369750976562
0, 3, 52, 314.5438537597656
0, 3, 53, 287.0561828613281
0, 3, 54, 284.3982238769531
0, 3, 55, 285.2420654296875
0, 3, 56, 298.5832214355469
0, 3, 57, 289.894287109375
0, 3, 58, 307.3645324707031
0, 3, 59, 294.4254150390625
0, 3, 60, 296.8974914550781
0, 3, 61, 264.2273559570312
0, 3, 62, 284.1396484375
0, 3, 63, 310.4771728515625
0, 3, 64, 316.1929321289062
0, 3, 65, 305.8246154785156
0, 3, 66, 313.8369445800781
0, 3, 67, 318.5065307617188
0, 3, 68, 280.0134582519531
0, 3, 69, 281.7308349609375
0, 3, 70, 290.8223266601562
0, 3, 71, 299.1070861816406
0, 3, 72, 268.2203674316406
0, 3, 73, 308.9244079589844
0, 3, 74, 292.1455078125
0, 3, 75, 291.2069396972656
0, 3, 76, 304.9496765136719
0, 3, 77, 313.0867919921875
0, 3, 78, 303.9000854492188
0, 3, 79, 281.2216491699219
0, 3, 80, 292.6363830566406
0, 3, 81, 312.3406372070312
0, 3, 82, 317.1253967285156
0, 3, 83, 300.0845947265625
0, 3, 84, 313.1033935546875
0, 3, 85, 295.7449951171875
0, 3, 86, 300.6278686523438
0, 3, 87, 299.3605346679688
0, 3, 88, 297.951171875
0, 3, 89, 294.6086730957031
0, 3, 90, 276.2413635253906
0, 3, 91, 282.8361511230469
0, 3, 92, 304.6601867675781
0, 3, 93, 314.273681640625
0, 3, 94, 297.6766052246094
0, 3, 95, 335.5494384765625
0, 3, 96, 288.961181640625
0, 3, 97, 281.1190185546875
0, 3, 98, 277.8075561523438
0, 3, 99, 261.9250793457031
0, 3, 100, 283.4869689941406
0, 3, 101, 295.7112731933594
0, 3, 102, 275.8055114746094
0, 3, 103, 321.2295837402344
0, 3, 104, 311.0482482910156
0, 3, 105, 287.6386108398438
0, 3, 106, 301.0363159179688
0, 3, 107, 284.8798522949219
0, 3, 108, 166.8267669677734
0, 3, 109, 58.19008636474609
0, 3, 110, 17.21013450622559
0, 3, 111, 12.05068111419678
0, 3, 112, 11.3284740447998
0, 3, 113, 7.208583354949951
0, 3, 114, 10.08008670806885
0, 3, 115, 7.385547637939453
0, 3, 116, 5.794275760650635
0, 3, 117, 7.629327297210693
0, 3, 118, 11.34908103942871
0, 3, 119, 5.15318775177002
0, 3, 120, 3.869791030883789
0, 3, 121, 3.842397928237915
0, 3, 122, 3.242706298828125
0, 3, 123, 8.522601127624512
0, 3, 124, 2.27651834487915
0, 3, 125, 5.322261333465576
0, 3, 126, 4.557665348052979
0, 3, 127, 3.428656816482544
0, 4, 0, 2.237319707870483
0, 4, 1, 6.209612369537354
0, 4, 2, 2.71050238609314
0, 4, 3, 6.413750648498535
0, 4, 4, 5.710720062255859
0, 4, 5, 7.644997596740723
0, 4, 6, 5.668945789337158
0, 4, 7, 6.83509349822998
0, 4, 8, 2.685974597930908
0, 4, 9, 5.181420803070068
0, 4, 10, 6.970648765563965
0, 4, 11, 7.486088275909424
0, 4, 12, 6.542697429656982
0, 4, 13, 9.833850860595703
0, 4, 14, 10.71295547485352
0, 4, 15, 11.22230815887451
0, 4, 16, 13.37542533874512
0, 4, 17, 17.28689765930176
0, 4, 18, 93.20249176025391
0, 4, 19, 223.5809173583984
0, 4, 20, 283.5245971679688
0, 4, 21, 274.0891723632812
0, 4, 22, 305.7810668945312
0, 4, 23, 267.9840393066406
0, 4, 24, 289.4357604980469
0, 4, 25, 272.9832458496094
0, 4, 26, 294.4950866699219
0, 4, 27, 282.71044921875
0, 4, 28, 306.0030822753906
0, 4, 29, 322.1144714355469
0, 4, 30, 309.3052673339844
0, 4, 31, 307.3456420898438
0, 4, 32, 281.8707275390625
0, 4, 33, 295.8110046386719
0, 4, 34, 299.2272033691406
0, 4, 35, 312.4611511230469
0, 4, 36, 293.3277587890625
0, 4, 37, 289.5419311523438
0, 4, 38, 301.3501892089844
0, 4, 39, 293.5711364746094
0, 4, 40, 301.5238647460938
0, 4, 41, 311.6484985351562
0, 4, 42, 329.3803405761719
0, 4, 43, 296.4457092285156
0, 4, 44, 321.62744140625
0, 4, 45, 323.0132446289062
0, 4, 46, 305.9627990722656
0, 4, 47, 294.2455444335938
0, 4, 48, 295.9061279296875
0, 4, 49, 276.7113037109375
0, 4, 50, 296.4684753417969
0, 4, 51, 314.3434753417969
0, 4, 52, 327.9490356445312
0, 4, 53, 304.3309326171875
0, 4, 54, 287.1164855957031
0, 4, 55, 317.3708190917969
0, 4, 56, 289.0789794921875
0, 4, 57, 309.1682739257812
0, 4, 58, 298.9305725097656
0, 4, 59, 308.5910949707031
0, 4, 60, 302.0562438964844
0, 4, 61, 315.9632873535156
0, 4, 62, 309.8400573730469
0, 4, 63, 301.1549987792969
0, 4, 64, 329.4382934570312
0, 4, 65, 317.1716613769531
0, 4, 66, 293.5248718261719
0, 4, 67, 287.1995239257812
0, 4, 68, 312.9946899414062
0, 4, 69, 278.7828979492188
0, 4, 70, 298.70068359375
0, 4, 71, 320.2375793457031
0, 4, 72, 331.0311889648438
0, 4, 73, 299.0704345703125
0, 4, 74, 294.6112670898438
0, 4, 75, 289.3286437988281
0, 4, 76, 274.1290588378906
0, 4, 77, 278.2920837402344
0, 4, 78, 310.2425231933594
0, 4, 79, 318.0476684570312
0, 4, 80, 316.4404907226562
0, 4, 81, 312.4396667480469
0, 4, 82, 298.3039245605469
0, 4, 83, 301.9848022460938
0, 4, 84, 291.3722839355469
0, 4, 85, 296.0709838867188
0, 4, 86, 298.17138671875
0, 4, 87, 284.7229614257812
0, 4, 88, 303.8987426757812
0, 4, 89, 294.1355590820312
0, 4, 90, 332.2778015136719
0, 4, 91, 301.996337890625
0, 4, 92, 290.6550598144531
0, 4, 93, 298.7480773925781
0, 4, 94, 292.803955078125
0, 4, 95, 289.4192504882812
0, 4, 96, 323.2492370605469
0, 4, 97, 274.4574584960938
0, 4, 98, 326.64306640625
0, 4, 99, 313.7327880859375
0, 4, 100, 300.88330078125
0, 4, 101, 260.5159912109375
0, 4, 102, 294.7336120605469
0, 4, 103, 317.8584289550781
0, 4, 104, 281.0213012695312
0, 4, 105, 310.7640991210938
0, 4, 106, 286.3712158203125
0, 4, 107, 294.1095275878906
0, 4, 108, 226.2760314941406
0, 4, 109, 80.34663391113281
0, 4, 110, 16.49986457824707
0, 4, 111, 13.68682670593262
0, 4, 112, 7.999302387237549
0, 4, 113, 8.27214527130127
0, 4, 114, 9.044192314147949
0, 4, 115, 8.499641418457031
0, 4, 116, 9.610966682434082
0, 4, 117, 7.515839099884033
0, 4, 118, 9.499509811401367
0, 4, 119, 9.438371658325195
0, 4, 120, 4.608913421630859
0, 4, 121, 3.746799945831299
0, 4, 122, 5.521044254302979
0, 4, 123, 6.71883487701416
0, 4, 124, 3.738676071166992
0, 4, 125, 10.55177402496338
0, 4, 126, 4.093887329101562
0, 4, 127, 3.167499542236328
0, 5, 0, 4.069554328918457
0, 5, 1, 3.32352614402771
0, 5, 2, 5.948180198669434
0, 5, 3, 6.281167984008789
0, 5, 4, 4.557232856750488
0, 5, 5, 4.436073780059814
0, 5, 6, 8.358364105224609
0, 5, 7, 5.302877426147461
0, 5, 8, 4.171266555786133
0, 5, 9, 4.845190048217773
0, 5, 10, 8.637371063232422
0, 5, 11, 10.03501319885254
0, 5, 12, 10.59245777130127
0, 5, 13, 7.354465484619141
0, 5, 14, 13.82378959655762
0, 5, 15, 18.30275535583496
0, 5, 16, 13.61747455596924
0, 5, 17, 28.59948539733887
0, 5, 18, 135.8849182128906
0, 5, 19, 286.3539428710938
0, 5, 20, 308.0992431640625
0, 5, 21, 316.8295288085938
0, 5, 22, 275.572021484375
0, 5, 23, 312.4912719726562
0, 5, 24, 302.2346801757812
0, 5, 25, 288.9534606933594
0, 5, 26, 294.8646240234375
0, 5, 27, 321.9027099609375
0, 5, 28, 302.9071655273438
0, 5, 29, 296.637939453125
0, 5, 30, 322.887451171875
0, 5, 31, 287.1941528320312
0, 5, 32, 301.9408874511719
0, 5, 33, 303.3009643554688
0, 5, 34, 295.48876953125
0, 5, 35, 310.9723815917969
0, 5, 36, 269.5916442871094
0, 5, 37, 282.073974609375
0, 5, 38, 294.7867126464844
0, 5, 39, 313.0635375976562
0, 5, 40, 308.8074340820312
0, 5, 41, 274.3335266113281
0, 5, 42, 305.5770874023438
0, 5, 43, 314.1867370605469
0, 5, 44, 293.0892639160156
0, 5, 45, 302.3182983398438
0, 5, 46, 266.0804748535156
0, 5, 47, 279.4968872070312
0, 5, 48, 292.8148193359375
0, 5, 49, 286.267822265625
0, 5, 50, 296.6628112792969
0, 5, 51, 278.5558776855469
0, 5, 52, 268.7424926757812
0, 5, 53, 285.0193481445312
0, 5, 54, 290.7547302246094
0, 5, 55, 344.1419982910156
0, 5, 56, 304.748779296875
0, 5, 57, 306.6793212890625
0, 5, 58, 312.1404113769531
0, 5, 59, 303.9705810546875
0, 5, 60, 309.9788208007812
0, 5, 61, 280.5776672363281
0, 5, 62, 323.2930908203125
0, 5, 63, 289.2831115722656
0, 5, 64, 321.8831176757812
0, 5, 65, 304.9571228027344
0, 5, 66, 325.4728393554688
0, 5, 67, 312.9317626953125
0, 5, 68, 306.8908996582031
0, 5, 69, 311.3464660644531
0, 5, 70, 301.1832580566406
0, 5, 71, 272.8638610839844
0, 5, 72, 312.9988708496094
0, 5, 73, 306.1919860839844
0, 5, 74, 295.200439453125
0, 5, 75, 293.6286010742188
0, 5, 76, 288.7669067382812
0, 5, 77, 299.0804443359375
0, 5, 78, 315.1918640136719
0, 5, 79, 305.5462951660156
0, 5, 80, 295.7494506835938
0, 5, 81, 325.5516662597656
0, 5, 82, 325.1448669433594
0, 5, 83, 281.6120300292969
0, 5, 84, 300.1209716796875
0, 5, 85, 270.5194091796875
0, 5, 86, 326.7817993164062
0, 5, 87, 283.59375
0, 5, 88, 313.1580810546875
0, 5, 89, 304.8583984375
0, 5, 90, 316.9534912109375
0, 5, 91, 312.9497680664062
0, 5, 92, 295.3773498535156
0, 5, 93, 323.6804809570312
0, 5, 94, 309.8989868164062
0, 5, 95, 296.4081115722656
0, 5, 96, 300.8230895996094
0, 5, 97, 297.2398681640625
0, 5, 98, 318.307373046875
0, 5, 99, 301.4291687011719
0, 5, 100, 290.2159729003906
0, 5, 101, 308.6617126464844
0, 5, 102, 293.6293640136719
0, 5, 103, 314.4830627441406
0, 5, 104, 301.5156860351562
0, 5, 105, 294.2771606445312
0, 5, 106, 282.9677124023438
0, 5, 107, 295.4793395996094
0, 5, 108, 265.0985412597656
0, 5, 109, 159.2020874023438
0, 5, 110, 39.7294807434082
0, 5, 111, 21.28239822387695
0, 5, 112, 14.85242366790771
0, 5, 113, 16.21568489074707
0, 5, 114, 12.72779941558838
0, 5, 115, 7.918286323547363
0, 5, 116, 6.160721778869629
0, 5, 117, 7.149538040161133
0, 5, 118, 11.30662727355957
0, 5, 119, 4.782958984375
0, 5, 120, 6.404893398284912
0, 5, 121, 5.682642936706543
0, 5, 122, 6.224968433380127
0, 5, 123, 6.426813125610352
0, 5, 124, 5.285571575164795
0, 5, 125, 4.577404022216797
0, 5, 126, 6.77394962310791
0, 5, 127, 3.000547409057617
0, 6, 0, 4.51861047744751
0, 6, 1, 3.676118850708008
0, 6, 2, 3.504225015640259
0, 6, 3, 4.574360847473145
0, 6, 4, 4.581562519073486
0, 6, 5, 6.529038906097412
0, 6, 6, 7.700488090515137
0, 6, 7, 5.663067817687988
0, 6, 8, 7.663276672363281
0, 6, 9, 6.736726760864258
0, 6, 10, 7.115569114685059
0, 6, 11, 9.012130737304688
0, 6, 12, 9.211127281188965
0, 6, 13, 12.11564064025879
0, 6, 14, 8.868860244750977
0, 6, 15, 17.06484603881836
0, 6, 16, 28.72253227233887
0, 6, 17, 54.85720062255859
0, 6, 18, 173.096923828125
0, 6, 19, 276.9150390625
0, 6, 20, 291.0526123046875
0, 6, 21, 313.6583557128906
0, 6, 22, 320.6571655273438
0, 6, 23, 306.152587890625
0, 6, 24, 316.6013488769531
0, 6, 25, 317.3187866210938
0, 6, 26, 319.347900390625
0, 6, 27, 331.250732421875
0, 6, 28, 297.7138366699219
0, 6, 29, 331.2095031738281
0, 6, 30, 282.0126037597656
0, 6, 31, 287.8277893066406
0, 6, 32, 340.0941162109375
0, 6, 33, 299.9484252929688
0, 6, 34, 339.4122009277344
0, 6, 35, 319.8511047363281
0, 6, 36, 272.8869018554688
0, 6, 37, 289.5073547363281
0, 6, 38, 311.1820678710938
0, 6, 39, 300.1936340332031
0, 6, 40, 286.6042785644531
0, 6, 41, 295.619873046875
0, 6, 42, 303.0468444824219
0, 6, 43, 289.3116760253906
0, 6, 44, 279.928955078125
0, 6, 45, 319.6604614257812
0, 6, 46, 300.8019714355469
0, 6, 47, 332.724609375
0, 6, 48, 293.6885681152344
0, 6, 49, 311.2072448730469
0, 6, 50, 329.089111328125
0, 6, 51, 311.008056640625
0, 6, 52, 322.0160522460938
0, 6, 53, 327.3686828613281
0, 6, 54, 304.8990173339844
0, 6, 55, 305.2556457519531
0, 6, 56, 293.4151306152344
0, 6, 57, 311.7447509765625
0, 6, 58, 261.4285583496094
0, 6, 59, 303.7601623535156
0, 6, 60, 313.7855224609375
0, 6, 61, 269.3301391601562
0, 6, 62, 338.0199279785156
0, 6, 63, 323.5318298339844
0, 6, 64, 294.8228149414062
0, 6, 65, 285.5339660644531
0, 6, 66, 308.2797546386719
0, 6, 67, 308.9346618652344
0, 6, 68, 293.9387512207031
0, 6, 69, 280.2391662597656
0, 6, 70, 274.5357971191406
0, 6, 71, 290.0047912597656
0, 6, 72, 310.9359741210938
0, 6, 73, 292.9029541015625
0, 6, 74, 330.68896484375
0, 6, 75, 343.8203430175781
0, 6, 76, 299.9957580566406
0, 6, 77, 289.1580200195312
0, 6, 78, 278.2597045898438
0, 6, 79, 292.0795288085938
0, 6, 80, 302.1431274414062
0, 6, 81, 314.06396484375
0, 6, 82, 319.763427734375
0, 6, 83, 317.6924438476562
0, 6, 84, 296.150146484375
0, 6, 85, 300.6512756347656
0, 6, 86, 329.889892578125
0, 6, 87, 291.0434265136719
0, 6, 88, 305.2396240234375
0, 6, 89, 304.0701293945312
0, 6, 90, 299.6493835449219
0, 6, 91, 312.6063842773438
0, 6, 92, 285.0659484863281
0, 6, 93, 296.2289428710938
0, 6, 94, 273.9164733886719
0, 6, 95, 302.0069580078125
0, 6, 96, 346.4143981933594
0, 6, 97, 308.3905334472656
0, 6, 98, 303.2716979980469
0, 6, 99, 271.2280883789062
0, 6, 100, 309.3443908691406
0, 6, 101, 291.8383178710938
0, 6, 102, 306.5988464355469
0, 6, 103, 307.1442260742188
0, 6, 104, 291.4783020019531
0, 6, 105, 301.6038208007812
0, 6, 106, 306.5221557617188
0, 6, 107, 305.6374206542969
0, 6, 108, 266.4796142578125
0, 6, 109, 186.7660675048828
0, 6, 110, 56.35176849365234
0, 6, 111, 22.1472053527832
0, 6, 112, 12.55685806274414
0, 6, 113, 9.72696590423584
0, 6, 114, 12.04499053955078
0, 6, 115, 12.05683708190918
0, 6, 116, 10.08071899414062
0, 6, 117, 10.03690338134766
0, 6, 118, 10.16094493865967
0, 6, 119, 8.881200790405273
0, 6, 120, 5.640606880187988
0, 6, 121, 6.348353385925293
0, 6, 122, 7.884358882904053
0, 6, 123, 2.666960716247559
0, 6, 124, 7.436877727508545
0, 6, 125, 8.315370559692383
0, 6, 126, 6.292624473571777
0, 6, 127, 5.153900146484375
0, 7, 0, 4.558785915374756
0, 7, 1, 4.822933673858643
0, 7, 2, 6.260253429412842
0, 7, 3, 1.963763475418091
0, 7, 4, 2.627414226531982
0, 7, 5, 5.609603404998779
0, 7, 6, 6.234461784362793
0, 7, 7, 6.03762674331665
0, 7, 8, 6.32575798034668
0, 7, 9, 5.648581504821777
0, 7, 10, 8.633346557617188
0, 7, 11, 10.12452983856201
0, 7, 12, 9.320969581604004
0, 7, 13, 11.92927074432373
0, 7, 14, 9.491167068481445
0, 7, 15, 16.03128814697266
0, 7, 16, 26.44986534118652
0, 7, 17, 98.70792388916016
0, 7, 18, 218.3460693359375
0, 7, 19, 291.5472412109375
0, 7, 20, 296.5768432617188
0, 7, 21, 275.8815612792969
0, 7, 22, 300.4006042480469
0, 7, 23, 288.0021057128906
0, 7, 24, 314.3668212890625
0, 7, 25, 324.9356689453125
0, 7, 26, 281.3992614746094
0, 7, 27, 296.6054382324219
0, 7, 28, 327.3722839355469
0, 7, 29, 318.3410949707031
0, 7, 30, 302.2555847167969
0, 7, 31, 277.8572082519531
0, 7, 32, 302.5223083496094
0, 7, 33, 261.7679443359375
0, 7, 34, 299.574462890625
0, 7, 35, 321.7702026367188
0, 7, 36, 332.3009338378906
0, 7, 37, 322.1058654785156
0, 7, 38, 294.2188110351562
0, 7, 39, 307.4861755371094
0, 7, 40, 289.4209289550781
0, 7, 41, 271.7697448730469
0, 7, 42, 302.6942443847656
0, 7, 43, 274.5296325683594
0, 7, 44, 303.2938537597656
0, 7, 45, 293.6968383789062
0, 7, 46, 283.154296875
0, 7, 47, 327.8585510253906
0, 7, 48, 284.0111083984375
0, 7, 49, 301.0540161132812
0, 7, 50, 322.6939392089844
0, 7, 51, 302.1015319824219
0, 7, 52, 326.9710998535156
0, 7, 53, 313.0702514648438
0, 7, 54, 323.9808044433594
0, 7, 55, 308.5862426757812
0, 7, 56, 282.7546081542969
0, 7, 57, 283.0199890136719
0, 7, 58, 294.4603881835938
0, 7, 59, 294.3445129394531
0, 7, 60, 324.2525329589844
0, 7, 61, 276.3379821777344
0, 7, 62, 297.5553894042969
0, 7, 63, 293.6192016601562
0, 7, 64, 306.1388549804688
0, 7, 65, 331.8813171386719
0, 7, 66, 318.2532958984375
0, 7, 67, 302.6847534179688
0, 7, 68, 280.5520629882812
0, 7, 69, 293.3414611816406
0, 7, 70, 301.5268859863281
0, 7, 71, 308.2620544433594
0, 7, 72, 286.6203918457031
0, 7, 73, 295.3017272949219
0, 7, 74, 344.3139953613281
0, 7, 75, 320.1445922851562
0, 7, 76, 323.7877502441406
0, 7, 77, 279.8972778320312
0, 7, 78, 300.8670959472656
0, 7, 79, 297.8390808105469
0, 7, 80, 311.6593017578125
0, 7, 81, 320.0559997558594
0, 7, 82, 330.3708801269531
0, 7, 83, 318.4365539550781
0, 7, 84, 309.4439392089844
0, 7, 85, 272.5791931152344
0, 7, 86, 311.4378662109375
0, 7, 87, 310.0061645507812
0, 7, 88, 310.2105407714844
0, 7, 89, 293.3536682128906
0, 7, 90, 306.8257141113281
0, 7, 91, 318.5031127929688
0, 7, 92, 287.5851440429688
0, 7, 93, 306.7713317871094
0, 7, 94, 272.6988220214844
0, 7, 95, 297.6432495117188
0, 7, 96, 332.2291564941406
0, 7, 97, 296.4339599609375
0, 7, 98, 290.9825134277344
0, 7, 99, 310.8233642578125
0, 7, 100, 281.9124450683594
0, 7, 101, 274.2984313964844
0, 7, 102, 289.6487426757812
0, 7, 103, 292.6473388671875
0, 7, 104, 273.2669982910156
0, 7, 105, 307.5472106933594
0, 7, 106, 317.7466125488281
0, 7, 107, 297.2432250976562
0, 7, 108, 272.9465637207031
0, 7, 109, 237.6029968261719
0, 7, 110, 97.40407562255859
0, 7, 111, 23.841796875
0, 7, 112, 15.59493541717529
0, 7, 113, 14.0452938079834
0, 7, 114, 13.84797382354736
0, 7, 115, 12.47427177429199
0, 7, 116, 8.666765213012695
0, 7, 117, 9.147124290466309
0, 7, 118, 8.787736892700195
0, 7, 119, 3.26467490196228
0, 7, 120, 3.909042835235596
0, 7, 121, 5.151441097259521
0, 7, 122, 5.713233470916748
0, 7, 123, 8.552950859069824
0, 7, 124, 2.495312452316284
0, 7, 125, 7.731470108032227
0, 7, 126, 6.528364181518555
0, 7, 127, 1.88061797618866
0, 8, 0, 4.798935890197754
0, 8, 1, 5.368110179901123
0, 8, 2, 5.544745922088623
0, 8, 3, 2.86257266998291
0, 8, 4, 4.853155136108398
0, 8, 5, 4.179158210754395
0, 8, 6, 5.544662475585938
0, 8, 7, 7.887377738952637
0, 8, 8, 9.531851768493652
0, 8, 9, 4.625122547149658
0, 8, 10, 8.375797271728516
0, 8, 11, 12.92300605773926
0, 8, 12, 13.42993450164795
0, 8, 13, 17.08298301696777
0, 8, 14, 14.64350986480713
0, 8, 15, 16.43318748474121
0, 8, 16, 32.14506530761719
0, 8, 17, 129.9841156005859
0, 8, 18, 242.5279693603516
0, 8, 19, 295.6730346679688
0, 8, 20, 287.3245544433594
0, 8, 21, 306.5725708007812
0, 8, 22, 295.1422424316406
0, 8, 23, 273.1262512207031
0, 8, 24, 269.5406188964844
0, 8, 25, 274.8591918945312
0, 8, 26, 306.6265258789062
0, 8, 27, 308.1560668945312
0, 8, 28, 305.9519958496094
0, 8, 29, 319.4022827148438
0, 8, 30, 314.4902648925781
0, 8, 31, 304.7412109375
0, 8, 32, 280.8577880859375
0, 8, 33, 294.8453674316406
0, 8, 34, 289.2644958496094
0, 8, 35, 279.1222229003906
0, 8, 36, 318.1274108886719
0, 8, 37, 339.3653869628906
0, 8, 38, 330.8576965332031
0, 8, 39, 280.5333251953125
0, 8, 40, 304.337158203125
