# TOPAS Version: 3.1.p3
# Parameter File: batch_inserts_216.txt
# Results for scorer Readout_Adipose
# Scored in component: MyBox
# X in 1 bin  of 0.75 cm
# Y in 512 bins of 0.0783984 cm
# Z in 128 bins of 0.078125 cm
# EnergyDeposit ( MeV ) : Sum   
0, 0, 0, 3.502987623214722
0, 0, 1, 1.782946825027466
0, 0, 2, 4.474921226501465
0, 0, 3, 3.651615142822266
0, 0, 4, 3.231959819793701
0, 0, 5, 2.276731014251709
0, 0, 6, 6.581418991088867
0, 0, 7, 9.188767433166504
0, 0, 8, 3.290740966796875
0, 0, 9, 4.340368747711182
0, 0, 10, 6.252994060516357
0, 0, 11, 4.166457176208496
0, 0, 12, 5.197286128997803
0, 0, 13, 7.306097030639648
0, 0, 14, 8.120694160461426
0, 0, 15, 8.881156921386719
0, 0, 16, 8.365675926208496
0, 0, 17, 10.34830856323242
0, 0, 18, 13.170241355896
0, 0, 19, 44.43511199951172
0, 0, 20, 140.0350341796875
0, 0, 21, 224.6508331298828
0, 0, 22, 248.5924072265625
0, 0, 23, 257.3168640136719
0, 0, 24, 250.0818176269531
0, 0, 25, 258.2005004882812
0, 0, 26, 234.7457580566406
0, 0, 27, 238.7291564941406
0, 0, 28, 273.4105529785156
0, 0, 29, 254.6234130859375
0, 0, 30, 230.4186706542969
0, 0, 31, 244.5273895263672
0, 0, 32, 263.6212768554688
0, 0, 33, 261.6600341796875
0, 0, 34, 287.4844360351562
0, 0, 35, 267.631591796875
0, 0, 36, 246.2342987060547
0, 0, 37, 251.8381042480469
0, 0, 38, 268.21875
0, 0, 39, 229.6466064453125
0, 0, 40, 240.6139831542969
0, 0, 41, 264.0481262207031
0, 0, 42, 230.9246215820312
0, 0, 43, 259.5025329589844
0, 0, 44, 253.1000671386719
0, 0, 45, 255.1266326904297
0, 0, 46, 243.903076171875
0, 0, 47, 253.3954467773438
0, 0, 48, 266.8155517578125
0, 0, 49, 275.0088195800781
0, 0, 50, 251.3467712402344
0, 0, 51, 254.2835388183594
0, 0, 52, 271.5407104492188
0, 0, 53, 291.0127258300781
0, 0, 54, 243.0463256835938
0, 0, 55, 239.6299285888672
0, 0, 56, 277.8462829589844
0, 0, 57, 262.1976928710938
0, 0, 58, 245.5872192382812
0, 0, 59, 269.645751953125
0, 0, 60, 233.5723571777344
0, 0, 61, 245.7822570800781
0, 0, 62, 257.9352722167969
0, 0, 63, 268.4488830566406
0, 0, 64, 255.3713073730469
0, 0, 65, 260.5107727050781
0, 0, 66, 278.0551452636719
0, 0, 67, 247.5975189208984
0, 0, 68, 259.3417358398438
0, 0, 69, 263.272216796875
0, 0, 70, 272.1805725097656
0, 0, 71, 237.710693359375
0, 0, 72, 250.2300567626953
0, 0, 73, 257.7608642578125
0, 0, 74, 251.3757934570312
0, 0, 75, 241.6796417236328
0, 0, 76, 227.8101806640625
0, 0, 77, 260.6802673339844
0, 0, 78, 256.7666015625
0, 0, 79, 277.4718933105469
0, 0, 80, 217.9736785888672
0, 0, 81, 267.6954040527344
0, 0, 82, 255.7483062744141
0, 0, 83, 245.0578002929688
0, 0, 84, 269.8461303710938
0, 0, 85, 231.3884887695312
0, 0, 86, 253.8121643066406
0, 0, 87, 251.2437744140625
0, 0, 88, 259.0237426757812
0, 0, 89, 282.5631103515625
0, 0, 90, 243.7432708740234
0, 0, 91, 281.2421569824219
0, 0, 92, 252.7313232421875
0, 0, 93, 250.7254333496094
0, 0, 94, 249.029541015625
0, 0, 95, 248.2761535644531
0, 0, 96, 276.1391906738281
0, 0, 97, 272.8747863769531
0, 0, 98, 273.9166259765625
0, 0, 99, 258.469482421875
0, 0, 100, 257.7110290527344
0, 0, 101, 227.1490020751953
0, 0, 102, 231.7351837158203
0, 0, 103, 269.2394714355469
0, 0, 104, 256.0292358398438
0, 0, 105, 250.7218627929688
0, 0, 106, 245.9509124755859
0, 0, 107, 151.7814483642578
0, 0, 108, 38.05995559692383
0, 0, 109, 11.88662624359131
0, 0, 110, 12.62791728973389
0, 0, 111, 7.764547824859619
0, 0, 112, 7.531208515167236
0, 0, 113, 5.893309116363525
0, 0, 114, 6.509929656982422
0, 0, 115, 8.280956268310547
0, 0, 116, 4.474875450134277
0, 0, 117, 5.768413543701172
0, 0, 118, 7.04373836517334
0, 0, 119, 4.463229656219482
0, 0, 120, 2.885231733322144
0, 0, 121, 2.606726169586182
0, 0, 122, 3.063106060028076
0, 0, 123, 4.052817344665527
0, 0, 124, 6.071242332458496
0, 0, 125, 3.037288427352905
0, 0, 126, 5.776200771331787
0, 0, 127, 6.535736560821533
0, 1, 0, 7.44713306427002
0, 1, 1, 1.939465999603271
0, 1, 2, 5.281343460083008
0, 1, 3, 3.759502410888672
0, 1, 4, 3.508685350418091
0, 1, 5, 4.004999160766602
0, 1, 6, 3.888381242752075
0, 1, 7, 4.63657808303833
0, 1, 8, 8.634525299072266
0, 1, 9, 3.912716865539551
0, 1, 10, 8.561781883239746
0, 1, 11, 11.05977535247803
0, 1, 12, 7.844004154205322
0, 1, 13, 8.57402515411377
0, 1, 14, 8.690917015075684
0, 1, 15, 8.810325622558594
0, 1, 16, 10.77148628234863
0, 1, 17, 10.11763763427734
0, 1, 18, 21.48145866394043
0, 1, 19, 66.89347839355469
0, 1, 20, 198.2960052490234
0, 1, 21, 256.4638671875
0, 1, 22, 298.6691589355469
0, 1, 23, 283.4854125976562
0, 1, 24, 275.7109069824219
0, 1, 25, 289.6335144042969
0, 1, 26, 269.320556640625
0, 1, 27, 306.8115234375
0, 1, 28, 298.7629699707031
0, 1, 29, 295.5103149414062
0, 1, 30, 279.7845764160156
0, 1, 31, 292.9037170410156
0, 1, 32, 289.7411804199219
0, 1, 33, 296.0527648925781
0, 1, 34, 292.0855102539062
0, 1, 35, 278.281005859375
0, 1, 36, 306.4339294433594
0, 1, 37, 296.7128601074219
0, 1, 38, 279.6487426757812
0, 1, 39, 296.5838623046875
0, 1, 40, 268.5746765136719
0, 1, 41, 285.72216796875
0, 1, 42, 288.8259887695312
0, 1, 43, 333.2110290527344
0, 1, 44, 280.8046569824219
0, 1, 45, 291.2259826660156
0, 1, 46, 259.3648376464844
0, 1, 47, 311.9637756347656
0, 1, 48, 284.2326049804688
0, 1, 49, 304.2764587402344
0, 1, 50, 261.9451293945312
0, 1, 51, 274.1701965332031
0, 1, 52, 294.5861511230469
0, 1, 53, 303.4349670410156
0, 1, 54, 274.28955078125
0, 1, 55, 293.602294921875
0, 1, 56, 280.2131958007812
0, 1, 57, 297.0245666503906
0, 1, 58, 309.5312194824219
0, 1, 59, 293.10986328125
0, 1, 60, 298.65234375
0, 1, 61, 275.2054748535156
0, 1, 62, 309.7984313964844
0, 1, 63, 285.2447204589844
0, 1, 64, 289.9453430175781
0, 1, 65, 295.3219604492188
0, 1, 66, 293.2470092773438
0, 1, 67, 291.6429138183594
0, 1, 68, 278.0446166992188
0, 1, 69, 280.39990234375
0, 1, 70, 271.6141662597656
0, 1, 71, 273.0738525390625
0, 1, 72, 285.1492004394531
0, 1, 73, 303.9111022949219
0, 1, 74, 304.0911254882812
0, 1, 75, 296.68603515625
0, 1, 76, 284.2841796875
0, 1, 77, 291.8738403320312
0, 1, 78, 299.0233764648438
0, 1, 79, 301.2245178222656
0, 1, 80, 294.6631774902344
0, 1, 81, 300.1994018554688
0, 1, 82, 284.2105102539062
0, 1, 83, 332.9366455078125
0, 1, 84, 307.6904907226562
0, 1, 85, 252.1542510986328
0, 1, 86, 293.2410583496094
0, 1, 87, 290.02294921875
0, 1, 88, 298.5256042480469
0, 1, 89, 288.8529357910156
0, 1, 90, 270.1750793457031
0, 1, 91, 317.6150512695312
0, 1, 92, 290.2902221679688
0, 1, 93, 287.2552795410156
0, 1, 94, 303.4844055175781
0, 1, 95, 283.300048828125
0, 1, 96, 284.1011352539062
0, 1, 97, 299.9844055175781
0, 1, 98, 278.2368774414062
0, 1, 99, 268.3737487792969
0, 1, 100, 277.4992370605469
0, 1, 101, 282.9140014648438
0, 1, 102, 280.9067687988281
0, 1, 103, 281.2369995117188
0, 1, 104, 306.4154357910156
0, 1, 105, 296.3286743164062
0, 1, 106, 260.6226196289062
0, 1, 107, 192.5288696289062
0, 1, 108, 80.05363464355469
0, 1, 109, 23.71710777282715
0, 1, 110, 10.85934638977051
0, 1, 111, 9.245762825012207
0, 1, 112, 11.55038356781006
0, 1, 113, 6.558248519897461
0, 1, 114, 7.940229892730713
0, 1, 115, 8.57652473449707
0, 1, 116, 10.86547565460205
0, 1, 117, 6.288422584533691
0, 1, 118, 6.00190258026123
0, 1, 119, 4.770156860351562
0, 1, 120, 6.683038234710693
0, 1, 121, 9.779553413391113
0, 1, 122, 2.564142227172852
0, 1, 123, 3.765843391418457
0, 1, 124, 6.98060941696167
0, 1, 125, 5.452038288116455
0, 1, 126, 3.667531251907349
0, 1, 127, 1.562256217002869
0, 2, 0, 5.11532735824585
0, 2, 1, 2.954284906387329
0, 2, 2, 4.262869834899902
0, 2, 3, 3.798734903335571
0, 2, 4, 3.504955530166626
0, 2, 5, 3.03906512260437
0, 2, 6, 2.306243658065796
0, 2, 7, 3.971790313720703
0, 2, 8, 5.454201221466064
0, 2, 9, 5.454823017120361
0, 2, 10, 10.16946887969971
0, 2, 11, 8.04939079284668
0, 2, 12, 6.285831928253174
0, 2, 13, 11.53584766387939
0, 2, 14, 10.28822803497314
0, 2, 15, 8.244328498840332
0, 2, 16, 10.26200580596924
0, 2, 17, 16.40049362182617
0, 2, 18, 29.90962028503418
0, 2, 19, 115.1479644775391
0, 2, 20, 245.4218292236328
0, 2, 21, 270.7904968261719
0, 2, 22, 317.7553405761719
0, 2, 23, 299.6677551269531
0, 2, 24, 288.0355529785156
0, 2, 25, 302.1742858886719
0, 2, 26, 293.2937316894531
0, 2, 27, 274.3834838867188
0, 2, 28, 270.9828186035156
0, 2, 29, 273.5245361328125
0, 2, 30, 288.4181213378906
0, 2, 31, 279.6592712402344
0, 2, 32, 296.1554565429688
0, 2, 33, 281.6689147949219
0, 2, 34, 329.9107971191406
0, 2, 35, 288.3783874511719
0, 2, 36, 302.9534606933594
0, 2, 37, 314.2161560058594
0, 2, 38, 311.2579345703125
0, 2, 39, 267.4979248046875
0, 2, 40, 308.7234802246094
0, 2, 41, 292.4049377441406
0, 2, 42, 305.4966125488281
0, 2, 43, 311.1097412109375
0, 2, 44, 311.7762756347656
0, 2, 45, 324.7449645996094
0, 2, 46, 286.6857604980469
0, 2, 47, 303.4688720703125
0, 2, 48, 279.2577514648438
0, 2, 49, 281.8693542480469
0, 2, 50, 294.1782531738281
0, 2, 51, 282.9439392089844
0, 2, 52, 272.0963745117188
0, 2, 53, 285.607666015625
0, 2, 54, 280.0831909179688
0, 2, 55, 273.6111755371094
0, 2, 56, 301.2482604980469
0, 2, 57, 292.0232849121094
0, 2, 58, 302.8653869628906
0, 2, 59, 292.3456726074219
0, 2, 60, 320.3971252441406
0, 2, 61, 301.3175964355469
0, 2, 62, 312.82861328125
0, 2, 63, 303.6868286132812
0, 2, 64, 298.3108215332031
0, 2, 65, 313.629638671875
0, 2, 66, 279.92822265625
0, 2, 67, 291.390625
0, 2, 68, 295.7908020019531
0, 2, 69, 309.6149597167969
0, 2, 70, 334.8955688476562
0, 2, 71, 284.0924377441406
0, 2, 72, 300.2242431640625
0, 2, 73, 312.1709594726562
0, 2, 74, 286.0694274902344
0, 2, 75, 306.0742492675781
0, 2, 76, 287.5603637695312
0, 2, 77, 302.0280151367188
0, 2, 78, 313.9088439941406
0, 2, 79, 307.579833984375
0, 2, 80, 298.552734375
0, 2, 81, 281.6340637207031
0, 2, 82, 318.0699462890625
0, 2, 83, 315.2879028320312
0, 2, 84, 289.4740295410156
0, 2, 85, 283.1741333007812
0, 2, 86, 324.0321960449219
0, 2, 87, 285.5342102050781
0, 2, 88, 280.536865234375
0, 2, 89, 300.8003540039062
0, 2, 90, 298.1833190917969
0, 2, 91, 276.2664489746094
0, 2, 92, 304.600830078125
0, 2, 93, 318.4344482421875
0, 2, 94, 291.9822387695312
0, 2, 95, 315.4794006347656
0, 2, 96, 314.7505187988281
0, 2, 97, 290.9688415527344
0, 2, 98, 293.8987731933594
0, 2, 99, 273.1279296875
0, 2, 100, 305.843017578125
0, 2, 101, 301.102294921875
0, 2, 102, 295.7569274902344
0, 2, 103, 291.0213317871094
0, 2, 104, 291.8731994628906
0, 2, 105, 273.3670043945312
0, 2, 106, 296.6668090820312
0, 2, 107, 270.1406555175781
0, 2, 108, 115.7917098999023
0, 2, 109, 31.79380798339844
0, 2, 110, 11.21901607513428
0, 2, 111, 13.32761764526367
0, 2, 112, 8.543498992919922
0, 2, 113, 11.94978523254395
0, 2, 114, 10.2470760345459
0, 2, 115, 8.516094207763672
0, 2, 116, 8.206874847412109
0, 2, 117, 7.499260425567627
0, 2, 118, 3.762990236282349
0, 2, 119, 4.610876083374023
0, 2, 120, 6.823904991149902
0, 2, 121, 2.319040060043335
0, 2, 122, 5.656799793243408
0, 2, 123, 7.007920742034912
0, 2, 124, 1.785549402236938
0, 2, 125, 5.500857353210449
0, 2, 126, 3.821642637252808
0, 2, 127, 5.005799770355225
0, 3, 0, 3.870865106582642
0, 3, 1, 3.426064252853394
0, 3, 2, 5.803092956542969
0, 3, 3, 2.497254848480225
0, 3, 4, 3.032145023345947
0, 3, 5, 6.500959396362305
0, 3, 6, 6.388716220855713
0, 3, 7, 5.215549468994141
0, 3, 8, 6.242077827453613
0, 3, 9, 5.667499542236328
0, 3, 10, 7.591631889343262
0, 3, 11, 6.348460674285889
0, 3, 12, 8.101567268371582
0, 3, 13, 14.32603740692139
0, 3, 14, 10.81517314910889
0, 3, 15, 14.50874137878418
0, 3, 16, 11.07398414611816
0, 3, 17, 21.28141403198242
0, 3, 18, 53.65191268920898
0, 3, 19, 176.9569244384766
0, 3, 20, 269.6858215332031
0, 3, 21, 271.1330261230469
0, 3, 22, 281.7584228515625
0, 3, 23, 287.4124450683594
0, 3, 24, 286.89111328125
0, 3, 25, 272.50537109375
0, 3, 26, 303.6564331054688
0, 3, 27, 292.4206237792969
0, 3, 28, 282.8730163574219
0, 3, 29, 339.0442504882812
0, 3, 30, 316.0281677246094
0, 3, 31, 286.0214233398438
0, 3, 32, 306.3191833496094
0, 3, 33, 313.317138671875
0, 3, 34, 321.3893127441406
0, 3, 35, 306.074462890625
0, 3, 36, 270.0396728515625
0, 3, 37, 313.4361572265625
0, 3, 38, 304.4091796875
0, 3, 39, 288.8113403320312
0, 3, 40, 266.1710815429688
0, 3, 41, 299.845703125
0, 3, 42, 283.9482421875
0, 3, 43, 305.6943969726562
0, 3, 44, 310.01953125
0, 3, 45, 292.0572509765625
0, 3, 46, 328.5540161132812
0, 3, 47, 298.3539733886719
0, 3, 48, 302.28759765625
0, 3, 49, 275.0955810546875
0, 3, 50, 289.7381896972656
0, 3, 51, 276.6200256347656
0, 3, 52, 315.9454040527344
0, 3, 53, 287.7772216796875
0, 3, 54, 284.9563293457031
0, 3, 55, 283.3021850585938
0, 3, 56, 297.2625732421875
0, 3, 57, 288.6795043945312
0, 3, 58, 304.6267395019531
0, 3, 59, 294.9132080078125
0, 3, 60, 297.22265625
0, 3, 61, 264.4728088378906
0, 3, 62, 283.7039794921875
0, 3, 63, 307.8891906738281
0, 3, 64, 316.70947265625
0, 3, 65, 304.5276489257812
0, 3, 66, 316.130126953125
0, 3, 67, 316.9115295410156
0, 3, 68, 281.3398132324219
0, 3, 69, 285.2218017578125
0, 3, 70, 287.6161499023438
0, 3, 71, 299.4273376464844
0, 3, 72, 270.2488403320312
0, 3, 73, 310.083740234375
0, 3, 74, 294.152099609375
0, 3, 75, 290.5522766113281
0, 3, 76, 304.9575805664062
0, 3, 77, 314.0219421386719
0, 3, 78, 303.7945861816406
0, 3, 79, 281.6051635742188
0, 3, 80, 293.2437744140625
0, 3, 81, 311.2339782714844
0, 3, 82, 316.1422729492188
0, 3, 83, 300.0432434082031
0, 3, 84, 310.4959411621094
0, 3, 85, 294.2760314941406
0, 3, 86, 303.8526306152344
0, 3, 87, 296.88671875
0, 3, 88, 298.2993774414062
0, 3, 89, 296.6172180175781
0, 3, 90, 276.3788146972656
0, 3, 91, 285.1593627929688
0, 3, 92, 305.9705505371094
0, 3, 93, 312.6867980957031
0, 3, 94, 298.68359375
0, 3, 95, 336.3363952636719
0, 3, 96, 290.0854187011719
0, 3, 97, 285.5108642578125
0, 3, 98, 279.2242736816406
0, 3, 99, 261.6134338378906
0, 3, 100, 282.7552795410156
0, 3, 101, 296.5841369628906
0, 3, 102, 274.1528930664062
0, 3, 103, 320.7872619628906
0, 3, 104, 309.4126892089844
0, 3, 105, 287.781005859375
0, 3, 106, 302.5023498535156
0, 3, 107, 286.3361206054688
0, 3, 108, 167.97216796875
0, 3, 109, 56.62605285644531
0, 3, 110, 16.96236228942871
0, 3, 111, 12.64468955993652
0, 3, 112, 11.47698783874512
0, 3, 113, 6.833460330963135
0, 3, 114, 10.48080539703369
0, 3, 115, 7.468110084533691
0, 3, 116, 9.810698509216309
0, 3, 117, 8.570530891418457
0, 3, 118, 8.11064338684082
0, 3, 119, 5.738178730010986
0, 3, 120, 6.821414947509766
0, 3, 121, 4.060784816741943
0, 3, 122, 2.377203702926636
0, 3, 123, 5.568283081054688
0, 3, 124, 6.975348949432373
0, 3, 125, 5.218996524810791
0, 3, 126, 5.339920997619629
0, 3, 127, 4.044876098632812
0, 4, 0, 2.473991632461548
0, 4, 1, 4.655384063720703
0, 4, 2, 3.746798992156982
0, 4, 3, 3.557433843612671
0, 4, 4, 6.110840797424316
0, 4, 5, 9.659760475158691
0, 4, 6, 6.050537586212158
0, 4, 7, 5.277457714080811
0, 4, 8, 5.559065341949463
0, 4, 9, 7.127293109893799
0, 4, 10, 7.724889278411865
0, 4, 11, 5.734188079833984
0, 4, 12, 6.641311645507812
0, 4, 13, 8.05161190032959
0, 4, 14, 12.77643013000488
0, 4, 15, 8.787495613098145
0, 4, 16, 14.77746105194092
0, 4, 17, 17.58541107177734
0, 4, 18, 95.93579864501953
0, 4, 19, 223.173828125
0, 4, 20, 285.9464416503906
0, 4, 21, 273.4964904785156
0, 4, 22, 305.8640441894531
0, 4, 23, 266.4554138183594
0, 4, 24, 290.6891784667969
0, 4, 25, 274.0925903320312
0, 4, 26, 294.2530822753906
0, 4, 27, 282.6188659667969
0, 4, 28, 306.6050415039062
0, 4, 29, 321.843505859375
0, 4, 30, 309.1518859863281
0, 4, 31, 305.9501342773438
0, 4, 32, 282.1040954589844
0, 4, 33, 295.5638732910156
0, 4, 34, 296.9787292480469
0, 4, 35, 312.6641845703125
0, 4, 36, 293.8270874023438
0, 4, 37, 288.2087707519531
0, 4, 38, 298.2460021972656
0, 4, 39, 298.0484313964844
0, 4, 40, 303.3475036621094
0, 4, 41, 311.0745544433594
0, 4, 42, 332.2404174804688
0, 4, 43, 297.5409545898438
0, 4, 44, 321.2612915039062
0, 4, 45, 322.9525451660156
0, 4, 46, 305.2823791503906
0, 4, 47, 292.34912109375
0, 4, 48, 295.4767150878906
0, 4, 49, 275.9638366699219
0, 4, 50, 295.9270324707031
0, 4, 51, 317.9974365234375
0, 4, 52, 325.5723876953125
0, 4, 53, 304.200439453125
0, 4, 54, 288.4188842773438
0, 4, 55, 315.2655639648438
0, 4, 56, 288.6513671875
0, 4, 57, 310.4367980957031
0, 4, 58, 297.1939392089844
0, 4, 59, 307.6550903320312
0, 4, 60, 302.9305419921875
0, 4, 61, 315.2562866210938
0, 4, 62, 309.2637939453125
0, 4, 63, 299.707275390625
0, 4, 64, 333.601806640625
0, 4, 65, 314.4036865234375
0, 4, 66, 291.3374938964844
0, 4, 67, 284.0820007324219
0, 4, 68, 313.225830078125
0, 4, 69, 276.2569274902344
0, 4, 70, 299.943115234375
0, 4, 71, 321.5496826171875
0, 4, 72, 334.8770141601562
0, 4, 73, 298.3512878417969
0, 4, 74, 291.9196472167969
0, 4, 75, 291.610107421875
0, 4, 76, 274.2501525878906
0, 4, 77, 277.5932312011719
0, 4, 78, 309.41943359375
0, 4, 79, 320.4141845703125
0, 4, 80, 315.8497314453125
0, 4, 81, 312.1692810058594
0, 4, 82, 297.0689086914062
0, 4, 83, 300.9618225097656
0, 4, 84, 293.5712280273438
0, 4, 85, 294.3926391601562
0, 4, 86, 297.4136657714844
0, 4, 87, 285.3094482421875
0, 4, 88, 306.3105163574219
0, 4, 89, 294.4231872558594
0, 4, 90, 332.2202453613281
0, 4, 91, 301.3452758789062
0, 4, 92, 289.3556823730469
0, 4, 93, 296.024169921875
0, 4, 94, 291.4801940917969
0, 4, 95, 289.4200134277344
0, 4, 96, 322.7695922851562
0, 4, 97, 273.997314453125
0, 4, 98, 327.2662658691406
0, 4, 99, 315.4103698730469
0, 4, 100, 302.2445373535156
0, 4, 101, 259.5550231933594
0, 4, 102, 298.7769470214844
0, 4, 103, 316.8105163574219
0, 4, 104, 281.7085876464844
0, 4, 105, 310.5874938964844
0, 4, 106, 289.9173889160156
0, 4, 107, 294.3245849609375
0, 4, 108, 226.0487365722656
0, 4, 109, 80.13356781005859
0, 4, 110, 17.39141845703125
0, 4, 111, 14.74649143218994
0, 4, 112, 9.014878273010254
0, 4, 113, 11.45558834075928
0, 4, 114, 8.72584342956543
0, 4, 115, 10.8284215927124
0, 4, 116, 7.84407901763916
0, 4, 117, 6.070863246917725
0, 4, 118, 10.06039905548096
0, 4, 119, 9.01079273223877
0, 4, 120, 5.889302253723145
0, 4, 121, 4.629992008209229
0, 4, 122, 6.068399906158447
0, 4, 123, 6.504650592803955
0, 4, 124, 4.604836463928223
0, 4, 125, 8.652074813842773
0, 4, 126, 6.050353527069092
0, 4, 127, 6.520251750946045
0, 5, 0, 3.824579000473022
0, 5, 1, 3.396358251571655
0, 5, 2, 6.566118240356445
0, 5, 3, 3.539363861083984
0, 5, 4, 5.142945766448975
0, 5, 5, 7.069845199584961
0, 5, 6, 5.546080589294434
0, 5, 7, 5.183506488800049
0, 5, 8, 4.012302875518799
0, 5, 9, 5.345780849456787
0, 5, 10, 8.216631889343262
0, 5, 11, 7.465291023254395
0, 5, 12, 7.592175960540771
0, 5, 13, 6.013167381286621
0, 5, 14, 11.69002151489258
0, 5, 15, 17.46549797058105
0, 5, 16, 15.17680549621582
0, 5, 17, 29.40522956848145
0, 5, 18, 138.7228698730469
0, 5, 19, 288.2133178710938
0, 5, 20, 309.6257934570312
0, 5, 21, 316.3965148925781
0, 5, 22, 274.5626525878906
0, 5, 23, 309.0778198242188
0, 5, 24, 302.2984008789062
0, 5, 25, 288.99365234375
0, 5, 26, 294.4521179199219
0, 5, 27, 322.0371704101562
0, 5, 28, 303.1308288574219
0, 5, 29, 298.0874328613281
0, 5, 30, 323.0079650878906
0, 5, 31, 285.4113464355469
0, 5, 32, 301.3052062988281
0, 5, 33, 304.063720703125
0, 5, 34, 297.2890319824219
0, 5, 35, 311.0606994628906
0, 5, 36, 271.1759643554688
0, 5, 37, 284.2379150390625
0, 5, 38, 294.6822509765625
0, 5, 39, 312.0663452148438
0, 5, 40, 310.6446533203125
0, 5, 41, 272.5830993652344
0, 5, 42, 308.1297912597656
0, 5, 43, 313.9039001464844
0, 5, 44, 293.9883117675781
0, 5, 45, 300.6116333007812
0, 5, 46, 264.4906311035156
0, 5, 47, 279.6741638183594
0, 5, 48, 295.3708801269531
0, 5, 49, 287.219970703125
0, 5, 50, 294.4801635742188
0, 5, 51, 278.9348754882812
0, 5, 52, 269.1394958496094
0, 5, 53, 284.2955017089844
0, 5, 54, 290.0957946777344
0, 5, 55, 345.6266784667969
0, 5, 56, 306.131103515625
0, 5, 57, 308.0479736328125
0, 5, 58, 313.0552368164062
0, 5, 59, 302.790283203125
0, 5, 60, 306.8844604492188
0, 5, 61, 282.3001708984375
0, 5, 62, 325.3644409179688
0, 5, 63, 291.8703308105469
0, 5, 64, 322.6912231445312
0, 5, 65, 306.6608581542969
0, 5, 66, 331.2715759277344
0, 5, 67, 314.5072631835938
0, 5, 68, 307.4977111816406
0, 5, 69, 311.0729370117188
0, 5, 70, 303.077880859375
0, 5, 71, 273.18359375
0, 5, 72, 310.594482421875
0, 5, 73, 301.8915710449219
0, 5, 74, 296.2179565429688
0, 5, 75, 294.4474792480469
0, 5, 76, 286.3667602539062
0, 5, 77, 299.1505737304688
0, 5, 78, 316.5535278320312
0, 5, 79, 307.8714294433594
0, 5, 80, 295.9977111816406
0, 5, 81, 325.6861267089844
0, 5, 82, 323.3030090332031
0, 5, 83, 279.9796752929688
0, 5, 84, 302.2130126953125
0, 5, 85, 271.2444763183594
0, 5, 86, 327.8246765136719
0, 5, 87, 284.3135986328125
0, 5, 88, 312.9068603515625
0, 5, 89, 306.016357421875
0, 5, 90, 315.1271362304688
0, 5, 91, 313.4611206054688
0, 5, 92, 296.2222290039062
0, 5, 93, 321.1528015136719
0, 5, 94, 308.0612487792969
0, 5, 95, 296.61865234375
0, 5, 96, 296.3595581054688
0, 5, 97, 294.2036437988281
0, 5, 98, 318.3746948242188
0, 5, 99, 299.7974243164062
0, 5, 100, 290.0304870605469
0, 5, 101, 306.1466064453125
0, 5, 102, 291.9668273925781
0, 5, 103, 313.4991455078125
0, 5, 104, 303.9285278320312
0, 5, 105, 290.2528991699219
0, 5, 106, 281.1014404296875
0, 5, 107, 292.5691223144531
0, 5, 108, 266.1034545898438
0, 5, 109, 155.6380462646484
0, 5, 110, 40.13505172729492
0, 5, 111, 20.67480659484863
0, 5, 112, 15.25695419311523
0, 5, 113, 13.3773775100708
0, 5, 114, 13.36437225341797
0, 5, 115, 6.387697696685791
0, 5, 116, 9.307291030883789
0, 5, 117, 6.618880748748779
0, 5, 118, 12.98174285888672
0, 5, 119, 4.215348243713379
0, 5, 120, 6.465206623077393
0, 5, 121, 5.514769554138184
0, 5, 122, 5.725400924682617
0, 5, 123, 7.031235694885254
0, 5, 124, 4.060200214385986
0, 5, 125, 5.303835868835449
0, 5, 126, 5.973139762878418
0, 5, 127, 4.483047962188721
0, 6, 0, 4.735335350036621
0, 6, 1, 3.811101675033569
0, 6, 2, 5.818049430847168
0, 6, 3, 5.076766490936279
0, 6, 4, 3.043654441833496
0, 6, 5, 7.215164661407471
0, 6, 6, 6.995085716247559
0, 6, 7, 4.74995231628418
0, 6, 8, 11.19645500183105
0, 6, 9, 5.242986679077148
0, 6, 10, 9.833102226257324
0, 6, 11, 7.93491268157959
0, 6, 12, 8.942625999450684
0, 6, 13, 14.30645561218262
0, 6, 14, 10.51034355163574
0, 6, 15, 15.95917987823486
0, 6, 16, 28.74669456481934
0, 6, 17, 56.06056213378906
0, 6, 18, 171.8516998291016
0, 6, 19, 275.9678955078125
0, 6, 20, 292.0617370605469
0, 6, 21, 313.4646911621094
0, 6, 22, 319.0407409667969
0, 6, 23, 305.6144409179688
0, 6, 24, 315.3428344726562
0, 6, 25, 315.6593322753906
0, 6, 26, 322.7523498535156
0, 6, 27, 331.8478393554688
0, 6, 28, 296.7267150878906
0, 6, 29, 331.6219482421875
0, 6, 30, 285.2443542480469
0, 6, 31, 286.5098876953125
0, 6, 32, 340.4594116210938
0, 6, 33, 300.8023376464844
0, 6, 34, 339.6249694824219
0, 6, 35, 321.0245056152344
0, 6, 36, 272.7212524414062
0, 6, 37, 288.3201293945312
0, 6, 38, 311.8004760742188
0, 6, 39, 300.1055908203125
0, 6, 40, 283.7767028808594
0, 6, 41, 294.9455261230469
0, 6, 42, 303.8651428222656
0, 6, 43, 288.0550231933594
0, 6, 44, 279.9089050292969
0, 6, 45, 319.1873779296875
0, 6, 46, 303.0389099121094
0, 6, 47, 332.9040222167969
0, 6, 48, 292.4403991699219
0, 6, 49, 311.1430358886719
0, 6, 50, 328.4377136230469
0, 6, 51, 310.38427734375
0, 6, 52, 320.8811645507812
0, 6, 53, 326.5027465820312
0, 6, 54, 302.982421875
0, 6, 55, 305.1890563964844
0, 6, 56, 292.4577026367188
0, 6, 57, 312.1904602050781
0, 6, 58, 262.2576599121094
0, 6, 59, 303.2040405273438
0, 6, 60, 312.0773315429688
0, 6, 61, 272.0350952148438
0, 6, 62, 338.2461853027344
0, 6, 63, 323.8677062988281
0, 6, 64, 291.1452026367188
0, 6, 65, 283.2719116210938
0, 6, 66, 303.7556457519531
0, 6, 67, 309.172607421875
0, 6, 68, 292.7980651855469
0, 6, 69, 278.2111511230469
0, 6, 70, 273.2110595703125
0, 6, 71, 289.2593078613281
0, 6, 72, 310.1203308105469
0, 6, 73, 293.571533203125
0, 6, 74, 332.0675354003906
0, 6, 75, 342.3646545410156
0, 6, 76, 297.9262084960938
0, 6, 77, 285.8792724609375
0, 6, 78, 279.5727844238281
0, 6, 79, 293.7633056640625
0, 6, 80, 298.3705139160156
0, 6, 81, 313.4424743652344
0, 6, 82, 318.7289733886719
0, 6, 83, 320.4358215332031
0, 6, 84, 299.9075927734375
0, 6, 85, 302.6922912597656
0, 6, 86, 330.0216369628906
0, 6, 87, 290.3202209472656
0, 6, 88, 308.0433654785156
0, 6, 89, 306.9852905273438
0, 6, 90, 300.8647155761719
0, 6, 91, 312.3802490234375
0, 6, 92, 284.7150268554688
0, 6, 93, 296.542236328125
0, 6, 94, 273.9288330078125
0, 6, 95, 300.3502197265625
0, 6, 96, 349.4124450683594
0, 6, 97, 309.1477355957031
0, 6, 98, 301.0935363769531
0, 6, 99, 273.5050354003906
0, 6, 100, 308.4857788085938
0, 6, 101, 294.7626647949219
0, 6, 102, 307.7568054199219
0, 6, 103, 306.775634765625
0, 6, 104, 291.1432189941406
0, 6, 105, 302.2881164550781
0, 6, 106, 307.3323364257812
0, 6, 107, 305.2680969238281
0, 6, 108, 268.0394897460938
0, 6, 109, 186.9151153564453
0, 6, 110, 55.30411911010742
0, 6, 111, 21.62092971801758
0, 6, 112, 13.88386344909668
0, 6, 113, 11.04748821258545
0, 6, 114, 12.47116661071777
0, 6, 115, 13.07380485534668
0, 6, 116, 10.90647220611572
0, 6, 117, 9.63276195526123
0, 6, 118, 10.01070022583008
0, 6, 119, 8.350231170654297
0, 6, 120, 6.897319316864014
0, 6, 121, 7.008294582366943
0, 6, 122, 7.231472015380859
0, 6, 123, 3.66956901550293
0, 6, 124, 6.342258453369141
0, 6, 125, 5.930273532867432
0, 6, 126, 3.34067964553833
0, 6, 127, 8.331350326538086
0, 7, 0, 6.392459392547607
0, 7, 1, 3.268484115600586
0, 7, 2, 4.961522102355957
0, 7, 3, 3.24066162109375
0, 7, 4, 3.749149560928345
0, 7, 5, 5.965532779693604
0, 7, 6, 6.623868465423584
0, 7, 7, 6.779918670654297
0, 7, 8, 5.163856029510498
0, 7, 9, 7.089056015014648
0, 7, 10, 8.481213569641113
0, 7, 11, 9.459497451782227
0, 7, 12, 11.44936847686768
0, 7, 13, 10.99998378753662
0, 7, 14, 9.605068206787109
0, 7, 15, 15.44811058044434
0, 7, 16, 27.78751564025879
0, 7, 17, 98.50632476806641
0, 7, 18, 217.5157012939453
0, 7, 19, 290.3451843261719
0, 7, 20, 297.8536071777344
0, 7, 21, 277.6419677734375
0, 7, 22, 298.701904296875
0, 7, 23, 289.5105285644531
0, 7, 24, 313.200927734375
0, 7, 25, 325.1741333007812
0, 7, 26, 277.7860717773438
0, 7, 27, 299.6736755371094
0, 7, 28, 326.0891418457031
0, 7, 29, 317.582763671875
0, 7, 30, 302.5814514160156
0, 7, 31, 276.5445251464844
0, 7, 32, 305.9050598144531
0, 7, 33, 262.2726135253906
0, 7, 34, 297.8745422363281
0, 7, 35, 321.191650390625
0, 7, 36, 329.1454772949219
0, 7, 37, 324.7698669433594
0, 7, 38, 295.9972229003906
0, 7, 39, 306.5249328613281
0, 7, 40, 289.607666015625
0, 7, 41, 270.6063537597656
0, 7, 42, 302.7473754882812
0, 7, 43, 278.5776062011719
0, 7, 44, 303.7927856445312
0, 7, 45, 295.6315612792969
0, 7, 46, 282.4951171875
0, 7, 47, 329.1258239746094
0, 7, 48, 285.1439819335938
0, 7, 49, 301.1612854003906
0, 7, 50, 321.1317749023438
0, 7, 51, 298.7064819335938
0, 7, 52, 328.1408996582031
0, 7, 53, 310.8778076171875
0, 7, 54, 324.4625244140625
0, 7, 55, 307.4439697265625
0, 7, 56, 279.11962890625
0, 7, 57, 282.7765502929688
0, 7, 58, 296.9480590820312
0, 7, 59, 296.7696838378906
0, 7, 60, 325.1624450683594
0, 7, 61, 278.4318542480469
0, 7, 62, 297.7781372070312
0, 7, 63, 293.1742553710938
0, 7, 64, 307.2169799804688
0, 7, 65, 330.249267578125
0, 7, 66, 319.482177734375
0, 7, 67, 300.5575561523438
0, 7, 68, 279.1854553222656
0, 7, 69, 294.9884338378906
0, 7, 70, 302.3484191894531
0, 7, 71, 310.6791076660156
0, 7, 72, 284.6702880859375
0, 7, 73, 294.7103271484375
0, 7, 74, 343.5722351074219
0, 7, 75, 319.2019348144531
0, 7, 76, 324.8825378417969
0, 7, 77, 279.784912109375
0, 7, 78, 301.7763671875
0, 7, 79, 296.5233459472656
0, 7, 80, 312.6190490722656
0, 7, 81, 321.6607666015625
0, 7, 82, 330.1825866699219
0, 7, 83, 317.8016052246094
0, 7, 84, 309.055419921875
0, 7, 85, 271.8784484863281
0, 7, 86, 311.69921875
0, 7, 87, 310.965087890625
0, 7, 88, 306.2327575683594
0, 7, 89, 294.3366394042969
0, 7, 90, 309.3751525878906
0, 7, 91, 315.1598205566406
0, 7, 92, 287.8271484375
0, 7, 93, 308.825439453125
0, 7, 94, 273.087158203125
0, 7, 95, 295.3916625976562
0, 7, 96, 330.2466735839844
0, 7, 97, 295.6020812988281
0, 7, 98, 290.7762451171875
0, 7, 99, 311.6170654296875
0, 7, 100, 280.3593139648438
0, 7, 101, 275.6620483398438
0, 7, 102, 292.0892639160156
0, 7, 103, 291.8324279785156
0, 7, 104, 275.6692199707031
0, 7, 105, 305.6824340820312
0, 7, 106, 317.9726867675781
0, 7, 107, 295.918212890625
0, 7, 108, 272.8542175292969
0, 7, 109, 237.3279876708984
0, 7, 110, 96.07600402832031
0, 7, 111, 23.70793342590332
0, 7, 112, 14.60837268829346
0, 7, 113, 13.19667911529541
0, 7, 114, 12.40524387359619
0, 7, 115, 14.8149242401123
0, 7, 116, 9.808080673217773
0, 7, 117, 6.009686470031738
0, 7, 118, 6.371151924133301
0, 7, 119, 9.287127494812012
0, 7, 120, 6.34993839263916
0, 7, 121, 7.429865837097168
0, 7, 122, 5.910854816436768
0, 7, 123, 7.879200458526611
0, 7, 124, 4.379245758056641
0, 7, 125, 5.148048877716064
0, 7, 126, 10.8915843963623
0, 7, 127, 7.538744449615479
0, 8, 0, 6.904757976531982
0, 8, 1, 3.805021286010742
0, 8, 2, 5.626533985137939
0, 8, 3, 3.860867977142334
0, 8, 4, 5.053462028503418
0, 8, 5, 7.879595756530762
0, 8, 6, 6.815839767456055
0, 8, 7, 7.871929168701172
0, 8, 8, 8.943586349487305
0, 8, 9, 6.443796634674072
0, 8, 10, 8.534938812255859
0, 8, 11, 12.60215950012207
0, 8, 12, 13.52982711791992
0, 8, 13, 16.79880332946777
0, 8, 14, 12.96199321746826
0, 8, 15, 19.31972312927246
0, 8, 16, 32.50232315063477
0, 8, 17, 132.4821929931641
0, 8, 18, 241.9396820068359
0, 8, 19, 296.00634765625
0, 8, 20, 285.4607849121094
0, 8, 21, 307.0439147949219
0, 8, 22, 294.0869445800781
0, 8, 23, 275.2136535644531
0, 8, 24, 268.9698791503906
0, 8, 25, 273.7888488769531
0, 8, 26, 305.9355163574219
0, 8, 27, 307.9644165039062
0, 8, 28, 304.3927001953125
0, 8, 29, 319.4686889648438
0, 8, 30, 314.5699462890625
0, 8, 31, 304.7758178710938
0, 8, 32, 279.9528503417969
0, 8, 33, 296.2688293457031
0, 8, 34, 291.1159057617188
0, 8, 35, 281.9925231933594
0, 8, 36, 316.5106201171875
0, 8, 37, 341.7383117675781
0, 8, 38, 331.4757995605469
0, 8, 39, 280.8944702148438
0, 8, 40, 305.8017883300781
