# TOPAS Version: 3.1.p3
# Parameter File: batch_inserts_194.txt
# Results for scorer Readout_Adipose
# Scored in component: MyBox
# X in 1 bin  of 0.75 cm
# Y in 512 bins of 0.0783984 cm
# Z in 128 bins of 0.078125 cm
# EnergyDeposit ( MeV ) : Sum   
0, 0, 0, 6.183434009552002
0, 0, 1, 2.28654956817627
0, 0, 2, 3.991816282272339
0, 0, 3, 1.983685851097107
0, 0, 4, 4.237726211547852
0, 0, 5, 4.068955898284912
0, 0, 6, 10.63666343688965
0, 0, 7, 9.801990509033203
0, 0, 8, 2.842543840408325
0, 0, 9, 3.765691518783569
0, 0, 10, 5.818841934204102
0, 0, 11, 4.302878856658936
0, 0, 12, 4.963114261627197
0, 0, 13, 6.633395671844482
0, 0, 14, 7.76740837097168
0, 0, 15, 8.218605995178223
0, 0, 16, 7.713723182678223
0, 0, 17, 8.702422142028809
0, 0, 18, 12.85011577606201
0, 0, 19, 43.40310668945312
0, 0, 20, 141.3829193115234
0, 0, 21, 225.0845794677734
0, 0, 22, 250.5484313964844
0, 0, 23, 258.0621643066406
0, 0, 24, 251.8368682861328
0, 0, 25, 257.6542663574219
0, 0, 26, 233.3166198730469
0, 0, 27, 238.9613189697266
0, 0, 28, 274.4579772949219
0, 0, 29, 251.6986846923828
0, 0, 30, 230.7350463867188
0, 0, 31, 243.2714996337891
0, 0, 32, 263.8206787109375
0, 0, 33, 261.0461120605469
0, 0, 34, 287.6117858886719
0, 0, 35, 266.3258666992188
0, 0, 36, 247.1994781494141
0, 0, 37, 252.7804870605469
0, 0, 38, 267.5211791992188
0, 0, 39, 228.9011993408203
0, 0, 40, 241.1605987548828
0, 0, 41, 266.8604125976562
0, 0, 42, 230.0722503662109
0, 0, 43, 259.77001953125
0, 0, 44, 252.827392578125
0, 0, 45, 252.6464080810547
0, 0, 46, 243.5284118652344
0, 0, 47, 254.2013244628906
0, 0, 48, 266.9342041015625
0, 0, 49, 273.0710754394531
0, 0, 50, 250.0534362792969
0, 0, 51, 256.7370300292969
0, 0, 52, 274.3821716308594
0, 0, 53, 292.0749206542969
0, 0, 54, 242.0102691650391
0, 0, 55, 239.6040191650391
0, 0, 56, 277.4805297851562
0, 0, 57, 261.7378845214844
0, 0, 58, 245.7039794921875
0, 0, 59, 270.2118530273438
0, 0, 60, 234.2346343994141
0, 0, 61, 244.9001007080078
0, 0, 62, 257.83251953125
0, 0, 63, 270.0983581542969
0, 0, 64, 254.7916412353516
0, 0, 65, 263.7448120117188
0, 0, 66, 276.7002258300781
0, 0, 67, 247.5106201171875
0, 0, 68, 258.5908508300781
0, 0, 69, 260.9561462402344
0, 0, 70, 272.6542053222656
0, 0, 71, 238.7590637207031
0, 0, 72, 251.0442657470703
0, 0, 73, 257.1419677734375
0, 0, 74, 250.8808288574219
0, 0, 75, 241.7727661132812
0, 0, 76, 229.1432037353516
0, 0, 77, 260.0464477539062
0, 0, 78, 259.0329284667969
0, 0, 79, 277.1853637695312
0, 0, 80, 214.7406921386719
0, 0, 81, 267.0618896484375
0, 0, 82, 256.5535583496094
0, 0, 83, 247.0202026367188
0, 0, 84, 270.8394470214844
0, 0, 85, 232.4142761230469
0, 0, 86, 253.0922393798828
0, 0, 87, 251.4717102050781
0, 0, 88, 259.3732299804688
0, 0, 89, 282.9549560546875
0, 0, 90, 243.8699798583984
0, 0, 91, 283.8712768554688
0, 0, 92, 253.3084564208984
0, 0, 93, 248.9405059814453
0, 0, 94, 250.9362640380859
0, 0, 95, 247.9471740722656
0, 0, 96, 275.4209289550781
0, 0, 97, 272.9772644042969
0, 0, 98, 274.0216674804688
0, 0, 99, 257.8030700683594
0, 0, 100, 258.4284057617188
0, 0, 101, 227.4943389892578
0, 0, 102, 232.4366912841797
0, 0, 103, 269.4331970214844
0, 0, 104, 255.8337249755859
0, 0, 105, 250.4271545410156
0, 0, 106, 245.2394104003906
0, 0, 107, 151.3982696533203
0, 0, 108, 37.07260894775391
0, 0, 109, 11.95211791992188
0, 0, 110, 13.39284515380859
0, 0, 111, 9.845152854919434
0, 0, 112, 7.037905693054199
0, 0, 113, 5.331501960754395
0, 0, 114, 7.939177513122559
0, 0, 115, 4.269687652587891
0, 0, 116, 6.83079719543457
0, 0, 117, 5.985143184661865
0, 0, 118, 8.334072113037109
0, 0, 119, 4.708632946014404
0, 0, 120, 2.837321519851685
0, 0, 121, 7.658614158630371
0, 0, 122, 4.391222953796387
0, 0, 123, 3.740836143493652
0, 0, 124, 5.014090061187744
0, 0, 125, 3.990556001663208
0, 0, 126, 5.438775539398193
0, 0, 127, 2.923004150390625
0, 1, 0, 7.096807956695557
0, 1, 1, 2.602651119232178
0, 1, 2, 3.605571269989014
0, 1, 3, 3.843188762664795
0, 1, 4, 2.980743169784546
0, 1, 5, 4.014227390289307
0, 1, 6, 5.071310997009277
0, 1, 7, 3.888886451721191
0, 1, 8, 10.39545059204102
0, 1, 9, 3.332792997360229
0, 1, 10, 6.387216567993164
0, 1, 11, 11.28530025482178
0, 1, 12, 8.594878196716309
0, 1, 13, 9.224898338317871
0, 1, 14, 7.268087863922119
0, 1, 15, 7.759596347808838
0, 1, 16, 13.04932498931885
0, 1, 17, 13.71053791046143
0, 1, 18, 20.84487152099609
0, 1, 19, 66.85224914550781
0, 1, 20, 201.0866851806641
0, 1, 21, 254.2155151367188
0, 1, 22, 298.4020385742188
0, 1, 23, 285.6183166503906
0, 1, 24, 274.6129760742188
0, 1, 25, 287.3372802734375
0, 1, 26, 269.2685241699219
0, 1, 27, 308.3412780761719
0, 1, 28, 301.0104064941406
0, 1, 29, 296.2328491210938
0, 1, 30, 279.9248352050781
0, 1, 31, 293.1578979492188
0, 1, 32, 289.4566040039062
0, 1, 33, 294.7256469726562
0, 1, 34, 293.666015625
0, 1, 35, 278.5733642578125
0, 1, 36, 307.2216491699219
0, 1, 37, 294.7231140136719
0, 1, 38, 280.2983703613281
0, 1, 39, 297.1258544921875
0, 1, 40, 266.1251525878906
0, 1, 41, 284.7568054199219
0, 1, 42, 288.9024963378906
0, 1, 43, 331.599853515625
0, 1, 44, 278.5173034667969
0, 1, 45, 292.5086669921875
0, 1, 46, 262.0682067871094
0, 1, 47, 308.7383728027344
0, 1, 48, 286.1165466308594
0, 1, 49, 303.1201782226562
0, 1, 50, 263.9799194335938
0, 1, 51, 272.0143737792969
0, 1, 52, 295.2921752929688
0, 1, 53, 304.5973815917969
0, 1, 54, 274.7247314453125
0, 1, 55, 292.4047241210938
0, 1, 56, 283.9078979492188
0, 1, 57, 300.9729614257812
0, 1, 58, 310.0258178710938
0, 1, 59, 294.2501525878906
0, 1, 60, 297.1085815429688
0, 1, 61, 274.8892822265625
0, 1, 62, 309.7584838867188
0, 1, 63, 288.8167419433594
0, 1, 64, 287.8731689453125
0, 1, 65, 295.5483093261719
0, 1, 66, 292.3813781738281
0, 1, 67, 294.6297302246094
0, 1, 68, 280.8715209960938
0, 1, 69, 279.9394226074219
0, 1, 70, 270.6948547363281
0, 1, 71, 272.728271484375
0, 1, 72, 286.8146667480469
0, 1, 73, 305.2870178222656
0, 1, 74, 306.920166015625
0, 1, 75, 291.6289978027344
0, 1, 76, 284.5979919433594
0, 1, 77, 290.6416320800781
0, 1, 78, 295.9671630859375
0, 1, 79, 302.6554870605469
0, 1, 80, 297.4497985839844
0, 1, 81, 300.7757568359375
0, 1, 82, 283.3577880859375
0, 1, 83, 330.6815795898438
0, 1, 84, 307.7390747070312
0, 1, 85, 252.7277221679688
0, 1, 86, 293.537841796875
0, 1, 87, 289.3162231445312
0, 1, 88, 299.0525512695312
0, 1, 89, 291.1112060546875
0, 1, 90, 272.5294494628906
0, 1, 91, 316.8295288085938
0, 1, 92, 291.1937561035156
0, 1, 93, 286.730712890625
0, 1, 94, 303.4745483398438
0, 1, 95, 284.0945434570312
0, 1, 96, 284.0541076660156
0, 1, 97, 299.8716735839844
0, 1, 98, 277.9490966796875
0, 1, 99, 267.0859985351562
0, 1, 100, 275.6817321777344
0, 1, 101, 282.0673828125
0, 1, 102, 279.4363098144531
0, 1, 103, 281.1668395996094
0, 1, 104, 307.2517700195312
0, 1, 105, 295.9677734375
0, 1, 106, 260.7157897949219
0, 1, 107, 190.4902496337891
0, 1, 108, 80.81675720214844
0, 1, 109, 26.51888275146484
0, 1, 110, 12.68340301513672
0, 1, 111, 8.576737403869629
0, 1, 112, 12.30482292175293
0, 1, 113, 5.210517406463623
0, 1, 114, 6.074836730957031
0, 1, 115, 5.949759960174561
0, 1, 116, 10.24013805389404
0, 1, 117, 5.319964408874512
0, 1, 118, 4.356054306030273
0, 1, 119, 5.061851024627686
0, 1, 120, 3.5175940990448
0, 1, 121, 2.213005065917969
0, 1, 122, 2.125591993331909
0, 1, 123, 4.549355030059814
0, 1, 124, 7.409823417663574
0, 1, 125, 3.269125938415527
0, 1, 126, 3.792169570922852
0, 1, 127, 2.386041402816772
0, 2, 0, 5.738245010375977
0, 2, 1, 4.952467441558838
0, 2, 2, 5.628377437591553
0, 2, 3, 4.162729263305664
0, 2, 4, 2.740683555603027
0, 2, 5, 1.205945253372192
0, 2, 6, 2.436294078826904
0, 2, 7, 4.380673885345459
0, 2, 8, 5.110788822174072
0, 2, 9, 5.755684852600098
0, 2, 10, 8.664753913879395
0, 2, 11, 5.333165645599365
0, 2, 12, 7.597684860229492
0, 2, 13, 12.0243673324585
0, 2, 14, 12.19302272796631
0, 2, 15, 7.690751075744629
0, 2, 16, 8.993288040161133
0, 2, 17, 17.03883361816406
0, 2, 18, 28.50339698791504
0, 2, 19, 116.7763366699219
0, 2, 20, 246.173583984375
0, 2, 21, 271.0708923339844
0, 2, 22, 318.1175537109375
0, 2, 23, 300.6272583007812
0, 2, 24, 286.8960876464844
0, 2, 25, 301.9552001953125
0, 2, 26, 292.3914184570312
0, 2, 27, 274.8856201171875
0, 2, 28, 273.5626831054688
0, 2, 29, 273.6529541015625
0, 2, 30, 288.5785522460938
0, 2, 31, 278.7274169921875
0, 2, 32, 293.9342651367188
0, 2, 33, 286.8742065429688
0, 2, 34, 331.3771057128906
0, 2, 35, 288.9586181640625
0, 2, 36, 304.0338134765625
0, 2, 37, 316.6392517089844
0, 2, 38, 309.7561340332031
0, 2, 39, 268.0876770019531
0, 2, 40, 307.4655151367188
0, 2, 41, 293.8985290527344
0, 2, 42, 303.1666870117188
0, 2, 43, 313.549072265625
0, 2, 44, 310.3775939941406
0, 2, 45, 327.5802917480469
0, 2, 46, 288.7604675292969
0, 2, 47, 303.2566528320312
0, 2, 48, 279.1148986816406
0, 2, 49, 279.2815856933594
0, 2, 50, 293.6599731445312
0, 2, 51, 284.3454284667969
0, 2, 52, 273.7799072265625
0, 2, 53, 286.5042114257812
0, 2, 54, 279.1472473144531
0, 2, 55, 274.1956787109375
0, 2, 56, 301.059326171875
0, 2, 57, 290.6784362792969
0, 2, 58, 302.0384826660156
0, 2, 59, 292.2677612304688
0, 2, 60, 319.47900390625
0, 2, 61, 301.3303527832031
0, 2, 62, 314.4645385742188
0, 2, 63, 301.4877624511719
0, 2, 64, 295.3919372558594
0, 2, 65, 313.98779296875
0, 2, 66, 281.767333984375
0, 2, 67, 296.3415832519531
0, 2, 68, 295.7349243164062
0, 2, 69, 310.8218383789062
0, 2, 70, 334.1834716796875
0, 2, 71, 282.3435974121094
0, 2, 72, 301.9021911621094
0, 2, 73, 310.0608520507812
0, 2, 74, 285.1583251953125
0, 2, 75, 306.3460693359375
0, 2, 76, 288.1211547851562
0, 2, 77, 299.7077026367188
0, 2, 78, 314.06689453125
0, 2, 79, 307.39453125
0, 2, 80, 298.5194091796875
0, 2, 81, 284.4901428222656
0, 2, 82, 318.5685119628906
0, 2, 83, 315.3982543945312
0, 2, 84, 287.1586608886719
0, 2, 85, 282.8437805175781
0, 2, 86, 323.4492797851562
0, 2, 87, 285.9345397949219
0, 2, 88, 281.0128784179688
0, 2, 89, 296.1908264160156
0, 2, 90, 295.894775390625
0, 2, 91, 277.0956726074219
0, 2, 92, 307.2906799316406
0, 2, 93, 318.2965087890625
0, 2, 94, 292.5519714355469
0, 2, 95, 313.3004150390625
0, 2, 96, 314.2858581542969
0, 2, 97, 293.1357116699219
0, 2, 98, 292.6412048339844
0, 2, 99, 273.5971374511719
0, 2, 100, 306.3918762207031
0, 2, 101, 299.8926086425781
0, 2, 102, 297.5104064941406
0, 2, 103, 294.2332458496094
0, 2, 104, 292.3759765625
0, 2, 105, 274.9952087402344
0, 2, 106, 298.0609741210938
0, 2, 107, 272.6464233398438
0, 2, 108, 116.2150421142578
0, 2, 109, 33.2137451171875
0, 2, 110, 9.525247573852539
0, 2, 111, 12.31903743743896
0, 2, 112, 6.284569263458252
0, 2, 113, 10.46675682067871
0, 2, 114, 9.372617721557617
0, 2, 115, 10.74433612823486
0, 2, 116, 9.811848640441895
0, 2, 117, 7.234434127807617
0, 2, 118, 1.752932071685791
0, 2, 119, 3.843220949172974
0, 2, 120, 8.932470321655273
0, 2, 121, 3.108787298202515
0, 2, 122, 5.426782608032227
0, 2, 123, 4.814322948455811
0, 2, 124, 5.091137409210205
0, 2, 125, 5.681601524353027
0, 2, 126, 3.507631301879883
0, 2, 127, 5.028194427490234
0, 3, 0, 2.862020492553711
0, 3, 1, 4.039070129394531
0, 3, 2, 4.74146842956543
0, 3, 3, 1.769148111343384
0, 3, 4, 3.309133291244507
0, 3, 5, 6.192997932434082
0, 3, 6, 6.519763469696045
0, 3, 7, 6.588651180267334
0, 3, 8, 6.112101078033447
0, 3, 9, 10.37802219390869
0, 3, 10, 6.837868690490723
0, 3, 11, 6.435725688934326
0, 3, 12, 7.783801078796387
0, 3, 13, 14.3045825958252
0, 3, 14, 11.05210781097412
0, 3, 15, 14.60682582855225
0, 3, 16, 12.24031829833984
0, 3, 17, 20.50070571899414
0, 3, 18, 56.51526641845703
0, 3, 19, 174.5673675537109
0, 3, 20, 270.1156311035156
0, 3, 21, 270.8436889648438
0, 3, 22, 281.667236328125
0, 3, 23, 286.6068420410156
0, 3, 24, 286.7178039550781
0, 3, 25, 269.0269470214844
0, 3, 26, 304.6668701171875
0, 3, 27, 291.6744384765625
0, 3, 28, 281.23291015625
0, 3, 29, 338.1380310058594
0, 3, 30, 315.3224792480469
0, 3, 31, 285.1003723144531
0, 3, 32, 308.6735229492188
0, 3, 33, 313.8164672851562
0, 3, 34, 322.7282104492188
0, 3, 35, 306.3657531738281
0, 3, 36, 268.2636413574219
0, 3, 37, 314.7531433105469
0, 3, 38, 303.724853515625
0, 3, 39, 291.3308410644531
0, 3, 40, 267.2972106933594
0, 3, 41, 299.3330078125
0, 3, 42, 285.2849731445312
0, 3, 43, 308.2053527832031
0, 3, 44, 312.8894958496094
0, 3, 45, 292.4393310546875
0, 3, 46, 328.4901428222656
0, 3, 47, 299.5523681640625
0, 3, 48, 301.4920654296875
0, 3, 49, 277.3287658691406
0, 3, 50, 291.428955078125
0, 3, 51, 275.5021057128906
0, 3, 52, 314.5502014160156
0, 3, 53, 285.6863403320312
0, 3, 54, 284.6664428710938
0, 3, 55, 284.1724548339844
0, 3, 56, 299.4887390136719
0, 3, 57, 287.4882507324219
0, 3, 58, 306.850341796875
0, 3, 59, 295.5390930175781
0, 3, 60, 297.3432312011719
0, 3, 61, 263.0787353515625
0, 3, 62, 286.0744934082031
0, 3, 63, 305.9268493652344
0, 3, 64, 317.661865234375
0, 3, 65, 304.9460754394531
0, 3, 66, 315.6535949707031
0, 3, 67, 317.4393310546875
0, 3, 68, 279.1846313476562
0, 3, 69, 283.2443237304688
0, 3, 70, 288.562255859375
0, 3, 71, 298.3261108398438
0, 3, 72, 269.2550354003906
0, 3, 73, 308.7988586425781
0, 3, 74, 293.0166931152344
0, 3, 75, 290.3056335449219
0, 3, 76, 305.1366271972656
0, 3, 77, 312.4642333984375
0, 3, 78, 304.4501342773438
0, 3, 79, 281.983642578125
0, 3, 80, 291.7025451660156
0, 3, 81, 312.5418701171875
0, 3, 82, 315.4886779785156
0, 3, 83, 300.9801025390625
0, 3, 84, 309.8031616210938
0, 3, 85, 292.3896179199219
0, 3, 86, 301.6504821777344
0, 3, 87, 297.6702880859375
0, 3, 88, 298.787841796875
0, 3, 89, 296.1455688476562
0, 3, 90, 276.0409240722656
0, 3, 91, 286.1091613769531
0, 3, 92, 303.0717468261719
0, 3, 93, 312.4009704589844
0, 3, 94, 297.6051330566406
0, 3, 95, 334.4827880859375
0, 3, 96, 289.1195068359375
0, 3, 97, 285.945556640625
0, 3, 98, 278.4774780273438
0, 3, 99, 262.4751281738281
0, 3, 100, 283.1839599609375
0, 3, 101, 297.7054138183594
0, 3, 102, 273.7904357910156
0, 3, 103, 321.7065734863281
0, 3, 104, 309.7922973632812
0, 3, 105, 287.5540466308594
0, 3, 106, 304.9881591796875
0, 3, 107, 281.19775390625
0, 3, 108, 170.4919586181641
0, 3, 109, 56.5230598449707
0, 3, 110, 17.95588111877441
0, 3, 111, 12.62410449981689
0, 3, 112, 14.28976154327393
0, 3, 113, 6.208014965057373
0, 3, 114, 9.199071884155273
0, 3, 115, 7.524468421936035
0, 3, 116, 9.157134056091309
0, 3, 117, 9.061593055725098
0, 3, 118, 9.10183048248291
0, 3, 119, 5.296812057495117
0, 3, 120, 7.085062503814697
0, 3, 121, 2.662249326705933
0, 3, 122, 3.838114261627197
0, 3, 123, 4.925824165344238
0, 3, 124, 5.108369827270508
0, 3, 125, 5.940709590911865
0, 3, 126, 5.162265777587891
0, 3, 127, 3.856941223144531
0, 4, 0, 3.206207990646362
0, 4, 1, 3.821882963180542
0, 4, 2, 3.328094005584717
0, 4, 3, 1.612869501113892
0, 4, 4, 5.55013370513916
0, 4, 5, 7.226743698120117
0, 4, 6, 6.042019367218018
0, 4, 7, 4.504299163818359
0, 4, 8, 7.103062152862549
0, 4, 9, 7.270963191986084
0, 4, 10, 5.532130718231201
0, 4, 11, 6.38706111907959
0, 4, 12, 7.415939807891846
0, 4, 13, 8.039989471435547
0, 4, 14, 11.7973690032959
0, 4, 15, 9.773197174072266
0, 4, 16, 12.53236770629883
0, 4, 17, 19.23793601989746
0, 4, 18, 92.56432342529297
0, 4, 19, 226.6989593505859
0, 4, 20, 284.7819213867188
0, 4, 21, 273.7095336914062
0, 4, 22, 305.140380859375
0, 4, 23, 267.376220703125
0, 4, 24, 288.9279174804688
0, 4, 25, 271.7752990722656
0, 4, 26, 296.6035461425781
0, 4, 27, 282.3385925292969
0, 4, 28, 305.8622741699219
0, 4, 29, 322.6171264648438
0, 4, 30, 309.5796203613281
0, 4, 31, 306.6161193847656
0, 4, 32, 280.9807739257812
0, 4, 33, 298.5105590820312
0, 4, 34, 295.3727416992188
0, 4, 35, 312.0256652832031
0, 4, 36, 292.1739807128906
0, 4, 37, 289.1249084472656
0, 4, 38, 299.5585021972656
0, 4, 39, 296.8944091796875
0, 4, 40, 300.791748046875
0, 4, 41, 311.6861572265625
0, 4, 42, 330.1919555664062
0, 4, 43, 295.846923828125
0, 4, 44, 320.1045227050781
0, 4, 45, 323.5794372558594
0, 4, 46, 305.9149169921875
0, 4, 47, 293.8828735351562
0, 4, 48, 295.6349182128906
0, 4, 49, 277.5841674804688
0, 4, 50, 296.6081237792969
0, 4, 51, 318.1349182128906
0, 4, 52, 327.6468200683594
0, 4, 53, 304.3141174316406
0, 4, 54, 288.9240112304688
0, 4, 55, 314.8646545410156
0, 4, 56, 287.7242736816406
0, 4, 57, 308.3877258300781
0, 4, 58, 296.1528625488281
0, 4, 59, 307.3575744628906
0, 4, 60, 301.0357055664062
0, 4, 61, 314.7666625976562
0, 4, 62, 310.196044921875
0, 4, 63, 298.4139709472656
0, 4, 64, 331.4493408203125
0, 4, 65, 315.5628662109375
0, 4, 66, 292.8172607421875
0, 4, 67, 284.6694641113281
0, 4, 68, 313.4446411132812
0, 4, 69, 276.2550048828125
0, 4, 70, 301.8099975585938
0, 4, 71, 322.1630554199219
0, 4, 72, 332.5666809082031
0, 4, 73, 301.7514953613281
0, 4, 74, 291.7405395507812
0, 4, 75, 288.5188598632812
0, 4, 76, 273.2774353027344
0, 4, 77, 279.0186157226562
0, 4, 78, 307.9928894042969
0, 4, 79, 319.4362487792969
0, 4, 80, 315.3838195800781
0, 4, 81, 312.8113403320312
0, 4, 82, 297.2167053222656
0, 4, 83, 301.1188049316406
0, 4, 84, 290.2828979492188
0, 4, 85, 296.0274047851562
0, 4, 86, 295.9366760253906
0, 4, 87, 284.6292114257812
0, 4, 88, 306.19970703125
0, 4, 89, 295.0180969238281
0, 4, 90, 332.4166564941406
0, 4, 91, 301.2853393554688
0, 4, 92, 289.2763977050781
0, 4, 93, 296.8768310546875
0, 4, 94, 291.2513732910156
0, 4, 95, 289.9794311523438
0, 4, 96, 325.008544921875
0, 4, 97, 273.3398742675781
0, 4, 98, 327.8746643066406
0, 4, 99, 313.0547180175781
0, 4, 100, 300.6656188964844
0, 4, 101, 256.3655090332031
0, 4, 102, 297.4996032714844
0, 4, 103, 316.6963806152344
0, 4, 104, 282.2772827148438
0, 4, 105, 309.8154602050781
0, 4, 106, 287.2209167480469
0, 4, 107, 295.3812561035156
0, 4, 108, 225.3268890380859
0, 4, 109, 79.48065185546875
0, 4, 110, 15.49169254302979
0, 4, 111, 13.86974620819092
0, 4, 112, 8.545564651489258
0, 4, 113, 11.03351974487305
0, 4, 114, 8.599538803100586
0, 4, 115, 10.10062599182129
0, 4, 116, 9.536232948303223
0, 4, 117, 6.126023769378662
0, 4, 118, 8.672272682189941
0, 4, 119, 10.31608295440674
0, 4, 120, 6.859986782073975
0, 4, 121, 4.121396541595459
0, 4, 122, 4.02290153503418
0, 4, 123, 7.169100761413574
0, 4, 124, 7.105578899383545
0, 4, 125, 9.429934501647949
0, 4, 126, 3.848373889923096
0, 4, 127, 5.166232109069824
0, 5, 0, 3.148177623748779
0, 5, 1, 3.425600051879883
0, 5, 2, 4.835695266723633
0, 5, 3, 2.882022857666016
0, 5, 4, 5.372419834136963
0, 5, 5, 7.116127014160156
0, 5, 6, 6.603779792785645
0, 5, 7, 5.595036506652832
0, 5, 8, 5.41916036605835
0, 5, 9, 4.600663185119629
0, 5, 10, 7.409429550170898
0, 5, 11, 7.804685592651367
0, 5, 12, 7.040359973907471
0, 5, 13, 6.760617733001709
0, 5, 14, 12.24371814727783
0, 5, 15, 17.01855659484863
0, 5, 16, 14.08404731750488
0, 5, 17, 27.33202362060547
0, 5, 18, 139.2527160644531
0, 5, 19, 286.4043579101562
0, 5, 20, 308.6027526855469
0, 5, 21, 315.5575561523438
0, 5, 22, 275.3592529296875
0, 5, 23, 309.4921264648438
0, 5, 24, 302.641845703125
0, 5, 25, 290.0304260253906
0, 5, 26, 296.7796020507812
0, 5, 27, 322.5556335449219
0, 5, 28, 302.263671875
0, 5, 29, 299.1561584472656
0, 5, 30, 322.1580505371094
0, 5, 31, 286.1365661621094
0, 5, 32, 302.3760681152344
0, 5, 33, 304.5211181640625
0, 5, 34, 295.3818969726562
0, 5, 35, 310.5208129882812
0, 5, 36, 271.9118957519531
0, 5, 37, 284.90380859375
0, 5, 38, 291.4959411621094
0, 5, 39, 311.9783020019531
0, 5, 40, 307.7759704589844
0, 5, 41, 272.9588623046875
0, 5, 42, 305.0036926269531
0, 5, 43, 311.6414794921875
0, 5, 44, 292.4353637695312
0, 5, 45, 300.9633483886719
0, 5, 46, 264.954833984375
0, 5, 47, 279.6593017578125
0, 5, 48, 292.5208129882812
0, 5, 49, 286.3712463378906
0, 5, 50, 295.8348388671875
0, 5, 51, 279.3696594238281
0, 5, 52, 267.9359741210938
0, 5, 53, 286.4559020996094
0, 5, 54, 291.445068359375
0, 5, 55, 345.5532836914062
0, 5, 56, 304.7785949707031
0, 5, 57, 306.0405578613281
0, 5, 58, 314.0553894042969
0, 5, 59, 302.2079467773438
0, 5, 60, 308.5340270996094
0, 5, 61, 283.0470581054688
0, 5, 62, 326.9813537597656
0, 5, 63, 294.2897033691406
0, 5, 64, 322.2302856445312
0, 5, 65, 306.2450866699219
0, 5, 66, 329.0188903808594
0, 5, 67, 312.1074523925781
0, 5, 68, 309.4746398925781
0, 5, 69, 312.9838562011719
0, 5, 70, 304.1062622070312
0, 5, 71, 273.2481384277344
0, 5, 72, 310.1830749511719
0, 5, 73, 301.0202331542969
0, 5, 74, 295.0999755859375
0, 5, 75, 292.9832763671875
0, 5, 76, 286.3818969726562
0, 5, 77, 299.2087097167969
0, 5, 78, 313.2073669433594
0, 5, 79, 308.0505065917969
0, 5, 80, 294.9351806640625
0, 5, 81, 325.935546875
0, 5, 82, 323.0152893066406
0, 5, 83, 280.703125
0, 5, 84, 304.2415771484375
0, 5, 85, 272.9801635742188
0, 5, 86, 326.6880187988281
0, 5, 87, 284.0300903320312
0, 5, 88, 313.8418579101562
0, 5, 89, 304.8318786621094
0, 5, 90, 315.231201171875
0, 5, 91, 314.7342224121094
0, 5, 92, 297.8590087890625
0, 5, 93, 322.1879577636719
0, 5, 94, 308.6673889160156
0, 5, 95, 296.485107421875
0, 5, 96, 298.499267578125
0, 5, 97, 296.3687133789062
0, 5, 98, 320.2289123535156
0, 5, 99, 301.2784729003906
0, 5, 100, 290.2481994628906
0, 5, 101, 305.3345947265625
0, 5, 102, 291.2326965332031
0, 5, 103, 313.6782836914062
0, 5, 104, 302.615234375
0, 5, 105, 292.2056884765625
0, 5, 106, 281.4219665527344
0, 5, 107, 290.9418640136719
0, 5, 108, 265.7752685546875
0, 5, 109, 157.6939239501953
0, 5, 110, 39.81889343261719
0, 5, 111, 21.42734146118164
0, 5, 112, 21.64083290100098
0, 5, 113, 14.18857860565186
0, 5, 114, 14.96200656890869
0, 5, 115, 7.13621187210083
0, 5, 116, 6.430208683013916
0, 5, 117, 8.220182418823242
0, 5, 118, 12.39173603057861
0, 5, 119, 4.248908519744873
0, 5, 120, 7.094750881195068
0, 5, 121, 5.020351886749268
0, 5, 122, 5.926084518432617
0, 5, 123, 5.418201923370361
0, 5, 124, 10.3499870300293
0, 5, 125, 4.961299419403076
0, 5, 126, 9.25775146484375
0, 5, 127, 3.641912460327148
0, 6, 0, 7.306790828704834
0, 6, 1, 3.70311713218689
0, 6, 2, 4.394679546356201
0, 6, 3, 6.3570876121521
0, 6, 4, 3.165358543395996
0, 6, 5, 5.908914089202881
0, 6, 6, 7.40338659286499
0, 6, 7, 4.929135322570801
0, 6, 8, 6.364161014556885
0, 6, 9, 6.033278942108154
0, 6, 10, 9.230014801025391
0, 6, 11, 9.396428108215332
0, 6, 12, 8.491481781005859
0, 6, 13, 15.6925573348999
0, 6, 14, 9.64986515045166
0, 6, 15, 15.49453735351562
0, 6, 16, 28.00406646728516
0, 6, 17, 53.60027694702148
0, 6, 18, 172.9670257568359
0, 6, 19, 276.818603515625
0, 6, 20, 290.9172058105469
0, 6, 21, 313.0098876953125
0, 6, 22, 318.7933959960938
0, 6, 23, 306.4325866699219
0, 6, 24, 315.8731994628906
0, 6, 25, 317.4246826171875
0, 6, 26, 320.458251953125
0, 6, 27, 332.0534973144531
0, 6, 28, 296.6531372070312
0, 6, 29, 330.1622619628906
0, 6, 30, 281.903564453125
0, 6, 31, 285.9281921386719
0, 6, 32, 339.9763793945312
0, 6, 33, 301.3045654296875
0, 6, 34, 339.2117919921875
0, 6, 35, 319.239013671875
0, 6, 36, 273.1976013183594
0, 6, 37, 290.2963562011719
0, 6, 38, 313.4792175292969
0, 6, 39, 297.0014953613281
0, 6, 40, 284.5342712402344
0, 6, 41, 294.7939453125
0, 6, 42, 305.1177062988281
0, 6, 43, 287.8161010742188
0, 6, 44, 280.7157592773438
0, 6, 45, 318.7997741699219
0, 6, 46, 300.8709411621094
0, 6, 47, 333.4352416992188
0, 6, 48, 291.8434753417969
0, 6, 49, 312.2243347167969
0, 6, 50, 327.5135498046875
0, 6, 51, 309.44677734375
0, 6, 52, 320.3644714355469
0, 6, 53, 330.2254028320312
0, 6, 54, 303.0656433105469
0, 6, 55, 306.3988952636719
0, 6, 56, 294.8035278320312
0, 6, 57, 313.1694946289062
0, 6, 58, 263.9513244628906
0, 6, 59, 305.1752014160156
0, 6, 60, 312.128173828125
0, 6, 61, 270.0238037109375
0, 6, 62, 335.3348083496094
0, 6, 63, 322.8179626464844
0, 6, 64, 291.432861328125
0, 6, 65, 283.0695495605469
0, 6, 66, 302.7676086425781
0, 6, 67, 309.0852966308594
0, 6, 68, 294.0564270019531
0, 6, 69, 278.6434326171875
0, 6, 70, 277.1928405761719
0, 6, 71, 288.6465148925781
0, 6, 72, 310.7945861816406
0, 6, 73, 295.6248474121094
0, 6, 74, 329.6553039550781
0, 6, 75, 344.7433776855469
0, 6, 76, 297.5284423828125
0, 6, 77, 287.2618103027344
0, 6, 78, 278.6977844238281
0, 6, 79, 292.1942749023438
0, 6, 80, 298.0562133789062
0, 6, 81, 313.3912963867188
0, 6, 82, 320.1579284667969
0, 6, 83, 321.4780578613281
0, 6, 84, 296.8720092773438
0, 6, 85, 300.7314147949219
0, 6, 86, 329.8556823730469
0, 6, 87, 295.1646728515625
0, 6, 88, 306.1066589355469
0, 6, 89, 303.48046875
0, 6, 90, 298.87744140625
0, 6, 91, 310.97802734375
0, 6, 92, 286.1802978515625
0, 6, 93, 296.5890197753906
0, 6, 94, 272.1126098632812
0, 6, 95, 300.4581909179688
0, 6, 96, 346.8193054199219
0, 6, 97, 308.2330322265625
0, 6, 98, 300.8883972167969
0, 6, 99, 275.0123596191406
0, 6, 100, 310.6099243164062
0, 6, 101, 292.4329223632812
0, 6, 102, 307.52978515625
0, 6, 103, 308.0770874023438
0, 6, 104, 291.7054748535156
0, 6, 105, 300.4794311523438
0, 6, 106, 308.0347290039062
0, 6, 107, 306.490966796875
0, 6, 108, 266.6156005859375
0, 6, 109, 187.1496734619141
0, 6, 110, 57.05083465576172
0, 6, 111, 21.24941635131836
0, 6, 112, 13.53361225128174
0, 6, 113, 11.68326473236084
0, 6, 114, 12.23799991607666
0, 6, 115, 11.44750308990479
0, 6, 116, 12.20962333679199
0, 6, 117, 7.516766548156738
0, 6, 118, 13.51250457763672
0, 6, 119, 10.30528545379639
0, 6, 120, 4.604315757751465
0, 6, 121, 6.028368473052979
0, 6, 122, 6.347360134124756
0, 6, 123, 5.263391017913818
0, 6, 124, 5.494178771972656
0, 6, 125, 5.926078319549561
0, 6, 126, 4.087269306182861
0, 6, 127, 6.407986164093018
0, 7, 0, 3.697745800018311
0, 7, 1, 4.116108417510986
0, 7, 2, 6.635507106781006
0, 7, 3, 3.084821701049805
0, 7, 4, 3.403790950775146
0, 7, 5, 6.851375102996826
0, 7, 6, 5.420259475708008
0, 7, 7, 5.623187065124512
0, 7, 8, 8.077985763549805
0, 7, 9, 7.498262405395508
0, 7, 10, 9.852746963500977
0, 7, 11, 11.25599098205566
0, 7, 12, 9.996095657348633
0, 7, 13, 10.25968265533447
0, 7, 14, 10.58988189697266
0, 7, 15, 15.58245944976807
0, 7, 16, 26.92171287536621
0, 7, 17, 99.24152374267578
0, 7, 18, 217.9010772705078
0, 7, 19, 290.1061096191406
0, 7, 20, 299.5628967285156
0, 7, 21, 277.9646606445312
0, 7, 22, 299.9109191894531
0, 7, 23, 289.8305969238281
0, 7, 24, 313.0639038085938
0, 7, 25, 325.0145568847656
0, 7, 26, 277.7545471191406
0, 7, 27, 298.0829162597656
0, 7, 28, 327.2740173339844
0, 7, 29, 320.2439880371094
0, 7, 30, 302.2010803222656
0, 7, 31, 279.7239990234375
0, 7, 32, 305.7416381835938
0, 7, 33, 261.3583374023438
0, 7, 34, 297.3742980957031
0, 7, 35, 320.7229614257812
0, 7, 36, 331.1437683105469
0, 7, 37, 323.6211547851562
0, 7, 38, 297.7817993164062
0, 7, 39, 307.488525390625
0, 7, 40, 290.146484375
0, 7, 41, 273.2129821777344
0, 7, 42, 302.7884216308594
0, 7, 43, 276.4590148925781
0, 7, 44, 304.8846130371094
0, 7, 45, 297.0926818847656
0, 7, 46, 284.69384765625
0, 7, 47, 328.7117919921875
0, 7, 48, 287.348388671875
0, 7, 49, 301.4797058105469
0, 7, 50, 321.9574279785156
0, 7, 51, 298.8614196777344
0, 7, 52, 326.8220520019531
0, 7, 53, 308.6390991210938
0, 7, 54, 325.8558044433594
0, 7, 55, 307.0030517578125
0, 7, 56, 282.0696716308594
0, 7, 57, 283.6409301757812
0, 7, 58, 296.1161499023438
0, 7, 59, 295.3146362304688
0, 7, 60, 321.6109924316406
0, 7, 61, 277.5315551757812
0, 7, 62, 299.8699645996094
0, 7, 63, 293.9868774414062
0, 7, 64, 305.9556579589844
0, 7, 65, 330.7921142578125
0, 7, 66, 318.3913879394531
0, 7, 67, 301.70458984375
0, 7, 68, 279.4875183105469
0, 7, 69, 294.8676147460938
0, 7, 70, 301.4371643066406
0, 7, 71, 310.8000793457031
0, 7, 72, 285.8800964355469
0, 7, 73, 294.939453125
0, 7, 74, 343.7717895507812
0, 7, 75, 318.6153259277344
0, 7, 76, 322.1046447753906
0, 7, 77, 281.6893005371094
0, 7, 78, 301.4472045898438
0, 7, 79, 297.9888610839844
0, 7, 80, 310.7999877929688
0, 7, 81, 321.7505798339844
0, 7, 82, 328.6849060058594
0, 7, 83, 317.1650390625
0, 7, 84, 309.4464721679688
0, 7, 85, 271.5253601074219
0, 7, 86, 310.5867919921875
0, 7, 87, 311.2084045410156
0, 7, 88, 306.1271667480469
0, 7, 89, 294.3521423339844
0, 7, 90, 308.1475830078125
0, 7, 91, 314.6157836914062
0, 7, 92, 290.6040344238281
0, 7, 93, 309.9484558105469
0, 7, 94, 277.7882995605469
0, 7, 95, 297.8772277832031
0, 7, 96, 330.355224609375
0, 7, 97, 296.00634765625
0, 7, 98, 291.9537353515625
0, 7, 99, 310.7145385742188
0, 7, 100, 281.6867980957031
0, 7, 101, 274.9764404296875
0, 7, 102, 290.9531555175781
0, 7, 103, 291.4454956054688
0, 7, 104, 275.7516174316406
0, 7, 105, 307.2395629882812
0, 7, 106, 318.0111694335938
0, 7, 107, 296.4350280761719
0, 7, 108, 275.1658020019531
0, 7, 109, 237.2270202636719
0, 7, 110, 97.12017059326172
0, 7, 111, 23.5244255065918
0, 7, 112, 13.59089374542236
0, 7, 113, 13.89104557037354
0, 7, 114, 13.81938743591309
0, 7, 115, 13.70648574829102
0, 7, 116, 8.925991058349609
0, 7, 117, 5.592684268951416
0, 7, 118, 7.069215774536133
0, 7, 119, 5.171551704406738
0, 7, 120, 5.262734889984131
0, 7, 121, 6.597785472869873
0, 7, 122, 5.501392841339111
0, 7, 123, 6.220748424530029
0, 7, 124, 2.69223690032959
0, 7, 125, 6.627377033233643
0, 7, 126, 9.008298873901367
0, 7, 127, 1.767673969268799
0, 8, 0, 4.124719142913818
0, 8, 1, 3.054641962051392
0, 8, 2, 4.30713415145874
0, 8, 3, 3.082727909088135
0, 8, 4, 4.777153015136719
0, 8, 5, 5.852590560913086
0, 8, 6, 5.195598125457764
0, 8, 7, 5.112924098968506
0, 8, 8, 8.417392730712891
0, 8, 9, 6.797656059265137
0, 8, 10, 8.733922004699707
0, 8, 11, 11.82888126373291
0, 8, 12, 12.62972259521484
0, 8, 13, 14.24763584136963
0, 8, 14, 11.08938694000244
0, 8, 15, 18.52985000610352
0, 8, 16, 34.57527542114258
0, 8, 17, 130.3387756347656
0, 8, 18, 241.3126220703125
0, 8, 19, 295.9554748535156
0, 8, 20, 285.4860534667969
0, 8, 21, 306.4129333496094
0, 8, 22, 295.3852844238281
0, 8, 23, 274.6896057128906
0, 8, 24, 267.5743408203125
0, 8, 25, 273.9720153808594
0, 8, 26, 305.4827270507812
0, 8, 27, 307.60205078125
0, 8, 28, 307.4595642089844
0, 8, 29, 320.1443786621094
0, 8, 30, 317.0592956542969
0, 8, 31, 304.401123046875
0, 8, 32, 282.4511413574219
0, 8, 33, 293.9245300292969
0, 8, 34, 288.4384460449219
0, 8, 35, 279.7980041503906
0, 8, 36, 315.5150451660156
0, 8, 37, 340.4681091308594
0, 8, 38, 332.4407653808594
