# TOPAS Version: 3.1.p3
# Parameter File: batch_inserts_154.txt
# Results for scorer Readout_Adipose
# Scored in component: MyBox
# X in 1 bin  of 0.75 cm
# Y in 512 bins of 0.0783984 cm
# Z in 128 bins of 0.078125 cm
# EnergyDeposit ( MeV ) : Sum   
0, 0, 0, 5.028557300567627
0, 0, 1, 4.398103713989258
0, 0, 2, 3.13100004196167
0, 0, 3, 1.237422704696655
0, 0, 4, 3.579031944274902
0, 0, 5, 2.970205307006836
0, 0, 6, 7.896633625030518
0, 0, 7, 10.4046516418457
0, 0, 8, 2.021721601486206
0, 0, 9, 3.998993396759033
0, 0, 10, 6.227364063262939
0, 0, 11, 4.417934894561768
0, 0, 12, 5.468380451202393
0, 0, 13, 7.166130065917969
0, 0, 14, 7.812436580657959
0, 0, 15, 9.74720573425293
0, 0, 16, 10.20821380615234
0, 0, 17, 9.80522632598877
0, 0, 18, 13.72948169708252
0, 0, 19, 41.35578536987305
0, 0, 20, 138.2790832519531
0, 0, 21, 222.0312194824219
0, 0, 22, 247.6961975097656
0, 0, 23, 255.7569274902344
0, 0, 24, 251.05078125
0, 0, 25, 258.1790771484375
0, 0, 26, 234.9678344726562
0, 0, 27, 237.1749877929688
0, 0, 28, 274.1195678710938
0, 0, 29, 252.2729644775391
0, 0, 30, 228.3798675537109
0, 0, 31, 242.8118743896484
0, 0, 32, 262.987548828125
0, 0, 33, 262.2007141113281
0, 0, 34, 286.6896057128906
0, 0, 35, 267.426025390625
0, 0, 36, 248.2327880859375
0, 0, 37, 252.4308624267578
0, 0, 38, 268.8848571777344
0, 0, 39, 231.0955505371094
0, 0, 40, 242.1222686767578
0, 0, 41, 265.9453735351562
0, 0, 42, 228.8643341064453
0, 0, 43, 260.2831420898438
0, 0, 44, 252.8144226074219
0, 0, 45, 252.0610198974609
0, 0, 46, 244.9700927734375
0, 0, 47, 254.8766326904297
0, 0, 48, 267.3488464355469
0, 0, 49, 273.6714477539062
0, 0, 50, 251.6994323730469
0, 0, 51, 255.5126953125
0, 0, 52, 272.1107788085938
0, 0, 53, 292.2346801757812
0, 0, 54, 242.8050079345703
0, 0, 55, 240.2741394042969
0, 0, 56, 277.4147644042969
0, 0, 57, 262.7738647460938
0, 0, 58, 245.4863433837891
0, 0, 59, 271.6364440917969
0, 0, 60, 236.6948699951172
0, 0, 61, 244.4135589599609
0, 0, 62, 257.7449951171875
0, 0, 63, 265.5965270996094
0, 0, 64, 254.4957275390625
0, 0, 65, 260.328857421875
0, 0, 66, 276.4689636230469
0, 0, 67, 245.7173309326172
0, 0, 68, 258.7704162597656
0, 0, 69, 261.0896911621094
0, 0, 70, 274.5813293457031
0, 0, 71, 239.0716552734375
0, 0, 72, 249.6234741210938
0, 0, 73, 259.5824279785156
0, 0, 74, 250.3646545410156
0, 0, 75, 241.6483612060547
0, 0, 76, 230.3280944824219
0, 0, 77, 259.5252685546875
0, 0, 78, 256.6358032226562
0, 0, 79, 277.758056640625
0, 0, 80, 215.8077850341797
0, 0, 81, 266.5343627929688
0, 0, 82, 255.8808135986328
0, 0, 83, 246.8647003173828
0, 0, 84, 270.0545349121094
0, 0, 85, 231.5414886474609
0, 0, 86, 253.1248168945312
0, 0, 87, 251.1934814453125
0, 0, 88, 259.4477844238281
0, 0, 89, 283.3201904296875
0, 0, 90, 243.4815368652344
0, 0, 91, 283.1383666992188
0, 0, 92, 254.0884857177734
0, 0, 93, 249.9287567138672
0, 0, 94, 249.7389526367188
0, 0, 95, 248.1956176757812
0, 0, 96, 273.0740356445312
0, 0, 97, 271.7206726074219
0, 0, 98, 272.4982604980469
0, 0, 99, 258.9075317382812
0, 0, 100, 258.5908508300781
0, 0, 101, 226.519287109375
0, 0, 102, 232.3016510009766
0, 0, 103, 269.3089599609375
0, 0, 104, 254.2765960693359
0, 0, 105, 252.9934234619141
0, 0, 106, 245.7136840820312
0, 0, 107, 152.259033203125
0, 0, 108, 39.6700553894043
0, 0, 109, 10.94148063659668
0, 0, 110, 12.38327312469482
0, 0, 111, 7.892193794250488
0, 0, 112, 6.594136238098145
0, 0, 113, 5.365669727325439
0, 0, 114, 6.512547492980957
0, 0, 115, 3.614219188690186
0, 0, 116, 5.548592090606689
0, 0, 117, 5.615412712097168
0, 0, 118, 6.355870723724365
0, 0, 119, 3.890694141387939
0, 0, 120, 3.436343908309937
0, 0, 121, 3.68649435043335
0, 0, 122, 3.934429883956909
0, 0, 123, 5.022731781005859
0, 0, 124, 7.514888763427734
0, 0, 125, 7.977220058441162
0, 0, 126, 5.910933971405029
0, 0, 127, 4.929688453674316
0, 1, 0, 6.822754383087158
0, 1, 1, 3.689764976501465
0, 1, 2, 4.750435829162598
0, 1, 3, 2.307425498962402
0, 1, 4, 2.288251638412476
0, 1, 5, 4.797532081604004
0, 1, 6, 7.807565689086914
0, 1, 7, 4.722772598266602
0, 1, 8, 6.340346813201904
0, 1, 9, 4.548703193664551
0, 1, 10, 6.567540645599365
0, 1, 11, 12.13368511199951
0, 1, 12, 8.097653388977051
0, 1, 13, 9.284618377685547
0, 1, 14, 7.654470920562744
0, 1, 15, 7.719625473022461
0, 1, 16, 11.04640102386475
0, 1, 17, 10.08259105682373
0, 1, 18, 20.9055004119873
0, 1, 19, 67.52613830566406
0, 1, 20, 199.5723419189453
0, 1, 21, 256.4203186035156
0, 1, 22, 297.9574890136719
0, 1, 23, 282.6980590820312
0, 1, 24, 276.9183349609375
0, 1, 25, 288.9940795898438
0, 1, 26, 269.0622863769531
0, 1, 27, 305.6991271972656
0, 1, 28, 298.8483276367188
0, 1, 29, 295.4164733886719
0, 1, 30, 281.4110717773438
0, 1, 31, 293.4506530761719
0, 1, 32, 291.6984252929688
0, 1, 33, 296.2664184570312
0, 1, 34, 292.2306213378906
0, 1, 35, 278.4735107421875
0, 1, 36, 305.8486022949219
0, 1, 37, 294.9695434570312
0, 1, 38, 279.5976257324219
0, 1, 39, 295.6231384277344
0, 1, 40, 267.4701232910156
0, 1, 41, 288.0974426269531
0, 1, 42, 290.9726257324219
0, 1, 43, 333.8676147460938
0, 1, 44, 280.0120239257812
0, 1, 45, 292.7500915527344
0, 1, 46, 258.8826599121094
0, 1, 47, 309.7570495605469
0, 1, 48, 283.9139099121094
0, 1, 49, 303.8641357421875
0, 1, 50, 263.4301147460938
0, 1, 51, 273.8319396972656
0, 1, 52, 296.344482421875
0, 1, 53, 302.4345703125
0, 1, 54, 274.6090698242188
0, 1, 55, 295.2015991210938
0, 1, 56, 280.4835205078125
0, 1, 57, 301.1877746582031
0, 1, 58, 309.1449584960938
0, 1, 59, 291.5160217285156
0, 1, 60, 297.9696960449219
0, 1, 61, 274.7761840820312
0, 1, 62, 307.5847473144531
0, 1, 63, 286.4854736328125
0, 1, 64, 289.4151000976562
0, 1, 65, 294.2402954101562
0, 1, 66, 292.6260070800781
0, 1, 67, 291.4253845214844
0, 1, 68, 278.0545349121094
0, 1, 69, 280.8467712402344
0, 1, 70, 272.1954956054688
0, 1, 71, 272.41943359375
0, 1, 72, 285.1894226074219
0, 1, 73, 303.7500305175781
0, 1, 74, 306.4534912109375
0, 1, 75, 293.7279357910156
0, 1, 76, 284.7879638671875
0, 1, 77, 288.8046875
0, 1, 78, 301.57861328125
0, 1, 79, 301.8522033691406
0, 1, 80, 295.7626647949219
0, 1, 81, 300.4857482910156
0, 1, 82, 283.4907836914062
0, 1, 83, 332.0552673339844
0, 1, 84, 309.0822143554688
0, 1, 85, 253.6232452392578
0, 1, 86, 296.6646118164062
0, 1, 87, 292.6025085449219
0, 1, 88, 300.5727844238281
0, 1, 89, 293.7826843261719
0, 1, 90, 270.7141723632812
0, 1, 91, 317.0509643554688
0, 1, 92, 290.4364318847656
0, 1, 93, 285.2290344238281
0, 1, 94, 303.4860229492188
0, 1, 95, 285.3409729003906
0, 1, 96, 284.4981384277344
0, 1, 97, 302.2361450195312
0, 1, 98, 276.8072509765625
0, 1, 99, 267.3955688476562
0, 1, 100, 276.48388671875
0, 1, 101, 281.3995971679688
0, 1, 102, 277.76171875
0, 1, 103, 281.1170654296875
0, 1, 104, 304.9759826660156
0, 1, 105, 296.9185791015625
0, 1, 106, 260.7709655761719
0, 1, 107, 192.2207641601562
0, 1, 108, 80.64085388183594
0, 1, 109, 23.93902587890625
0, 1, 110, 11.14498615264893
0, 1, 111, 8.734782218933105
0, 1, 112, 12.18459033966064
0, 1, 113, 7.260729789733887
0, 1, 114, 6.191357135772705
0, 1, 115, 6.834546089172363
0, 1, 116, 11.33643913269043
0, 1, 117, 4.585213184356689
0, 1, 118, 6.94992733001709
0, 1, 119, 3.983822107315063
0, 1, 120, 5.615174770355225
0, 1, 121, 2.917930126190186
0, 1, 122, 4.783402442932129
0, 1, 123, 3.074735879898071
0, 1, 124, 8.140296936035156
0, 1, 125, 3.665615797042847
0, 1, 126, 2.120550394058228
0, 1, 127, 1.110524654388428
0, 2, 0, 5.027853012084961
0, 2, 1, 2.263052940368652
0, 2, 2, 4.606096744537354
0, 2, 3, 5.373247623443604
0, 2, 4, 3.021994590759277
0, 2, 5, 3.210973978042603
0, 2, 6, 4.262369155883789
0, 2, 7, 6.577895641326904
0, 2, 8, 4.727644920349121
0, 2, 9, 7.039114475250244
0, 2, 10, 9.025345802307129
0, 2, 11, 5.710789680480957
0, 2, 12, 7.171951770782471
0, 2, 13, 8.359052658081055
0, 2, 14, 11.43120193481445
0, 2, 15, 9.814940452575684
0, 2, 16, 8.302438735961914
0, 2, 17, 15.66392803192139
0, 2, 18, 30.21783256530762
0, 2, 19, 114.6538925170898
0, 2, 20, 247.0622253417969
0, 2, 21, 270.7854919433594
0, 2, 22, 317.6903076171875
0, 2, 23, 302.0140686035156
0, 2, 24, 287.5512390136719
0, 2, 25, 301.9432983398438
0, 2, 26, 291.70263671875
0, 2, 27, 275.7108154296875
0, 2, 28, 272.0838623046875
0, 2, 29, 274.0211791992188
0, 2, 30, 289.6781616210938
0, 2, 31, 278.8033142089844
0, 2, 32, 295.1627197265625
0, 2, 33, 282.8376770019531
0, 2, 34, 332.4376220703125
0, 2, 35, 289.9183349609375
0, 2, 36, 303.6521606445312
0, 2, 37, 313.962158203125
0, 2, 38, 310.0004272460938
0, 2, 39, 265.4891662597656
0, 2, 40, 308.648193359375
0, 2, 41, 292.9652709960938
0, 2, 42, 302.8083801269531
0, 2, 43, 314.1837463378906
0, 2, 44, 311.7588195800781
0, 2, 45, 325.9554443359375
0, 2, 46, 286.8768615722656
0, 2, 47, 303.4059448242188
0, 2, 48, 279.1362609863281
0, 2, 49, 278.9057922363281
0, 2, 50, 294.0394897460938
0, 2, 51, 285.5612487792969
0, 2, 52, 271.2281188964844
0, 2, 53, 285.7121276855469
0, 2, 54, 280.5748901367188
0, 2, 55, 275.9809875488281
0, 2, 56, 301.536865234375
0, 2, 57, 292.7254333496094
0, 2, 58, 302.8926391601562
0, 2, 59, 296.9115600585938
0, 2, 60, 318.6444091796875
0, 2, 61, 301.9227294921875
0, 2, 62, 312.1797180175781
0, 2, 63, 305.3377990722656
0, 2, 64, 296.3394775390625
0, 2, 65, 312.0677185058594
0, 2, 66, 278.6141357421875
0, 2, 67, 291.2823791503906
0, 2, 68, 296.550537109375
0, 2, 69, 312.487548828125
0, 2, 70, 334.4715270996094
0, 2, 71, 283.6437377929688
0, 2, 72, 300.3167114257812
0, 2, 73, 312.4596557617188
0, 2, 74, 287.8833923339844
0, 2, 75, 304.6416931152344
0, 2, 76, 289.7285461425781
0, 2, 77, 298.59326171875
0, 2, 78, 315.11474609375
0, 2, 79, 309.2626953125
0, 2, 80, 299.3994445800781
0, 2, 81, 285.013427734375
0, 2, 82, 319.11181640625
0, 2, 83, 314.0119018554688
0, 2, 84, 287.4302368164062
0, 2, 85, 284.9959716796875
0, 2, 86, 323.2503051757812
0, 2, 87, 286.7874755859375
0, 2, 88, 279.1540832519531
0, 2, 89, 295.689208984375
0, 2, 90, 295.4923400878906
0, 2, 91, 275.4847106933594
0, 2, 92, 305.78662109375
0, 2, 93, 316.6553344726562
0, 2, 94, 292.0374145507812
0, 2, 95, 317.2944030761719
0, 2, 96, 315.7824401855469
0, 2, 97, 289.8536987304688
0, 2, 98, 294.2391357421875
0, 2, 99, 273.0848083496094
0, 2, 100, 305.9576721191406
0, 2, 101, 301.0589599609375
0, 2, 102, 298.9828491210938
0, 2, 103, 292.2728576660156
0, 2, 104, 291.8038330078125
0, 2, 105, 273.4414367675781
0, 2, 106, 298.3431701660156
0, 2, 107, 269.3178100585938
0, 2, 108, 115.5571823120117
0, 2, 109, 32.02149963378906
0, 2, 110, 10.11434841156006
0, 2, 111, 11.09749412536621
0, 2, 112, 11.07632923126221
0, 2, 113, 10.42291927337646
0, 2, 114, 9.287365913391113
0, 2, 115, 9.97209358215332
0, 2, 116, 8.497907638549805
0, 2, 117, 9.83080005645752
0, 2, 118, 3.694116830825806
0, 2, 119, 4.097506523132324
0, 2, 120, 10.22211360931396
0, 2, 121, 1.345081448554993
0, 2, 122, 4.223649024963379
0, 2, 123, 3.256983280181885
0, 2, 124, 3.596270799636841
0, 2, 125, 6.208311080932617
0, 2, 126, 4.028650760650635
0, 2, 127, 5.640542030334473
0, 3, 0, 2.382840633392334
0, 3, 1, 3.634023666381836
0, 3, 2, 4.598071098327637
0, 3, 3, 0.9113256931304932
0, 3, 4, 3.285426378250122
0, 3, 5, 6.242823123931885
0, 3, 6, 7.423807621002197
0, 3, 7, 5.438918590545654
0, 3, 8, 4.914991855621338
0, 3, 9, 6.328246593475342
0, 3, 10, 5.985470294952393
0, 3, 11, 6.105670928955078
0, 3, 12, 8.631431579589844
0, 3, 13, 15.13022518157959
0, 3, 14, 12.75626850128174
0, 3, 15, 13.31875610351562
0, 3, 16, 12.47860145568848
0, 3, 17, 24.67834281921387
0, 3, 18, 54.32258605957031
0, 3, 19, 175.374755859375
0, 3, 20, 268.19775390625
0, 3, 21, 270.6107788085938
0, 3, 22, 284.6890563964844
0, 3, 23, 288.0857543945312
0, 3, 24, 287.7274780273438
0, 3, 25, 270.0420837402344
0, 3, 26, 303.700927734375
0, 3, 27, 292.9386596679688
0, 3, 28, 281.9044189453125
0, 3, 29, 340.24853515625
0, 3, 30, 317.145263671875
0, 3, 31, 285.1913146972656
0, 3, 32, 305.982177734375
0, 3, 33, 313.5646362304688
0, 3, 34, 320.6766357421875
0, 3, 35, 305.9039306640625
0, 3, 36, 268.9714965820312
0, 3, 37, 312.0752563476562
0, 3, 38, 303.5917663574219
0, 3, 39, 290.2777099609375
0, 3, 40, 265.865478515625
0, 3, 41, 303.1538391113281
0, 3, 42, 284.4860229492188
0, 3, 43, 306.0025329589844
0, 3, 44, 310.5000610351562
0, 3, 45, 292.1116943359375
0, 3, 46, 330.1239013671875
0, 3, 47, 299.3425598144531
0, 3, 48, 302.3974609375
0, 3, 49, 277.7734680175781
0, 3, 50, 291.9111938476562
0, 3, 51, 278.197265625
0, 3, 52, 314.2598876953125
0, 3, 53, 287.3511962890625
0, 3, 54, 284.1665954589844
0, 3, 55, 285.3784484863281
0, 3, 56, 297.8804016113281
0, 3, 57, 290.0902709960938
0, 3, 58, 307.8219604492188
0, 3, 59, 294.4150085449219
0, 3, 60, 299.0951843261719
0, 3, 61, 264.0698547363281
0, 3, 62, 284.7104797363281
0, 3, 63, 307.8076477050781
0, 3, 64, 316.8515625
0, 3, 65, 304.549072265625
0, 3, 66, 314.0829772949219
0, 3, 67, 317.972900390625
0, 3, 68, 279.1651611328125
0, 3, 69, 284.802734375
0, 3, 70, 288.0042114257812
0, 3, 71, 300.5067138671875
0, 3, 72, 270.7082824707031
0, 3, 73, 307.729736328125
0, 3, 74, 291.6207580566406
0, 3, 75, 290.1380310058594
0, 3, 76, 305.9917297363281
0, 3, 77, 314.0064086914062
0, 3, 78, 303.5012817382812
0, 3, 79, 281.0547180175781
0, 3, 80, 291.0975952148438
0, 3, 81, 310.5558166503906
0, 3, 82, 314.9920043945312
0, 3, 83, 299.8145446777344
0, 3, 84, 310.3789367675781
0, 3, 85, 292.4513549804688
0, 3, 86, 303.4932861328125
0, 3, 87, 299.2816467285156
0, 3, 88, 296.9176940917969
0, 3, 89, 298.389404296875
0, 3, 90, 277.2347717285156
0, 3, 91, 283.8444213867188
0, 3, 92, 302.9292907714844
0, 3, 93, 312.2894592285156
0, 3, 94, 296.322265625
0, 3, 95, 335.4055786132812
0, 3, 96, 290.25048828125
0, 3, 97, 284.7888793945312
0, 3, 98, 278.2784423828125
0, 3, 99, 260.7104797363281
0, 3, 100, 283.4516906738281
0, 3, 101, 295.5709533691406
0, 3, 102, 274.75390625
0, 3, 103, 321.2867431640625
0, 3, 104, 309.3770751953125
0, 3, 105, 287.16015625
0, 3, 106, 302.1293334960938
0, 3, 107, 283.891845703125
0, 3, 108, 167.6094207763672
0, 3, 109, 57.1386604309082
0, 3, 110, 17.46290969848633
0, 3, 111, 12.97129058837891
0, 3, 112, 13.54457092285156
0, 3, 113, 9.267876625061035
0, 3, 114, 8.611054420471191
0, 3, 115, 6.772841930389404
0, 3, 116, 8.526248931884766
0, 3, 117, 8.430468559265137
0, 3, 118, 9.28083324432373
0, 3, 119, 4.283187866210938
0, 3, 120, 8.499669075012207
0, 3, 121, 1.625486850738525
0, 3, 122, 3.322804689407349
0, 3, 123, 5.362759113311768
0, 3, 124, 4.374886512756348
0, 3, 125, 6.813969135284424
0, 3, 126, 5.475868225097656
0, 3, 127, 2.198055028915405
0, 4, 0, 4.36142110824585
0, 4, 1, 4.692369937896729
0, 4, 2, 3.024702548980713
0, 4, 3, 1.627519845962524
0, 4, 4, 6.766769409179688
0, 4, 5, 8.433134078979492
0, 4, 6, 6.708891868591309
0, 4, 7, 5.008170127868652
0, 4, 8, 4.190917015075684
0, 4, 9, 6.383062362670898
0, 4, 10, 7.844621181488037
0, 4, 11, 6.93244457244873
0, 4, 12, 6.494238376617432
0, 4, 13, 8.283793449401855
0, 4, 14, 11.27994918823242
0, 4, 15, 9.253078460693359
0, 4, 16, 16.51218605041504
0, 4, 17, 19.99000358581543
0, 4, 18, 93.02831268310547
0, 4, 19, 222.1990203857422
0, 4, 20, 284.1464233398438
0, 4, 21, 272.7808227539062
0, 4, 22, 305.5834655761719
0, 4, 23, 268.6506958007812
0, 4, 24, 288.9845581054688
0, 4, 25, 271.7423706054688
0, 4, 26, 294.8179016113281
0, 4, 27, 284.8887023925781
0, 4, 28, 306.3056640625
0, 4, 29, 322.2384643554688
0, 4, 30, 308.817626953125
0, 4, 31, 304.6361083984375
0, 4, 32, 284.6533508300781
0, 4, 33, 298.4284973144531
0, 4, 34, 295.6546325683594
0, 4, 35, 311.2052917480469
0, 4, 36, 294.3406066894531
0, 4, 37, 289.4630126953125
0, 4, 38, 298.3492736816406
0, 4, 39, 294.6830749511719
0, 4, 40, 301.4207763671875
0, 4, 41, 310.0516967773438
0, 4, 42, 330.8182373046875
0, 4, 43, 294.7177734375
0, 4, 44, 321.7309875488281
0, 4, 45, 322.4598388671875
0, 4, 46, 305.2526550292969
0, 4, 47, 293.5765075683594
0, 4, 48, 296.224853515625
0, 4, 49, 276.3068237304688
0, 4, 50, 298.7483215332031
0, 4, 51, 316.3384399414062
0, 4, 52, 328.4072570800781
0, 4, 53, 302.9217529296875
0, 4, 54, 287.934326171875
0, 4, 55, 314.8311157226562
0, 4, 56, 287.9764099121094
0, 4, 57, 311.19384765625
0, 4, 58, 295.7692260742188
0, 4, 59, 308.7970886230469
0, 4, 60, 302.8642272949219
0, 4, 61, 314.3105163574219
0, 4, 62, 310.1391906738281
0, 4, 63, 299.1895751953125
0, 4, 64, 332.4520263671875
0, 4, 65, 315.3673706054688
0, 4, 66, 292.9444580078125
0, 4, 67, 285.5598449707031
0, 4, 68, 312.5103759765625
0, 4, 69, 275.4582214355469
0, 4, 70, 299.019287109375
0, 4, 71, 321.7560119628906
0, 4, 72, 332.5844421386719
0, 4, 73, 297.6211242675781
0, 4, 74, 294.0491638183594
0, 4, 75, 287.3733520507812
0, 4, 76, 273.4970397949219
0, 4, 77, 277.8087768554688
0, 4, 78, 311.0798645019531
0, 4, 79, 317.7653503417969
0, 4, 80, 316.3112182617188
0, 4, 81, 315.5027160644531
0, 4, 82, 297.9250793457031
0, 4, 83, 302.0195922851562
0, 4, 84, 291.8541564941406
0, 4, 85, 295.5108947753906
0, 4, 86, 296.2569580078125
0, 4, 87, 285.4183654785156
0, 4, 88, 304.3643798828125
0, 4, 89, 294.5499877929688
0, 4, 90, 333.57568359375
0, 4, 91, 301.6074829101562
0, 4, 92, 291.7017517089844
0, 4, 93, 298.2828979492188
0, 4, 94, 292.7851867675781
0, 4, 95, 288.5320434570312
0, 4, 96, 324.9944458007812
0, 4, 97, 274.0057678222656
0, 4, 98, 327.8090209960938
0, 4, 99, 312.4806823730469
0, 4, 100, 300.3613586425781
0, 4, 101, 257.5571899414062
0, 4, 102, 296.3114318847656
0, 4, 103, 317.4003295898438
0, 4, 104, 282.1314697265625
0, 4, 105, 310.0338134765625
0, 4, 106, 287.785888671875
0, 4, 107, 295.8560791015625
0, 4, 108, 224.9433135986328
0, 4, 109, 79.03212738037109
0, 4, 110, 15.80740833282471
0, 4, 111, 13.71877861022949
0, 4, 112, 7.995393753051758
0, 4, 113, 10.24743747711182
0, 4, 114, 8.479654312133789
0, 4, 115, 8.396377563476562
0, 4, 116, 7.130162239074707
0, 4, 117, 6.582908630371094
0, 4, 118, 8.966963768005371
0, 4, 119, 9.77203369140625
0, 4, 120, 5.724433898925781
0, 4, 121, 6.737967491149902
0, 4, 122, 4.112064838409424
0, 4, 123, 5.665766716003418
0, 4, 124, 7.026139736175537
0, 4, 125, 10.45009517669678
0, 4, 126, 4.400248050689697
0, 4, 127, 5.43851375579834
0, 5, 0, 3.152782917022705
0, 5, 1, 2.992621898651123
0, 5, 2, 3.76560115814209
0, 5, 3, 4.686621189117432
0, 5, 4, 6.440507411956787
0, 5, 5, 7.799618244171143
0, 5, 6, 6.463479042053223
0, 5, 7, 4.685014247894287
0, 5, 8, 4.216952323913574
0, 5, 9, 5.004317283630371
0, 5, 10, 7.975893497467041
0, 5, 11, 8.158637046813965
0, 5, 12, 7.480787754058838
0, 5, 13, 6.107303142547607
0, 5, 14, 11.9261589050293
0, 5, 15, 16.65892028808594
0, 5, 16, 14.28374195098877
0, 5, 17, 30.27738189697266
0, 5, 18, 137.8295440673828
0, 5, 19, 286.6754760742188
0, 5, 20, 308.177490234375
0, 5, 21, 317.970458984375
0, 5, 22, 275.5336303710938
0, 5, 23, 310.7054748535156
0, 5, 24, 304.1056213378906
0, 5, 25, 290.0830688476562
0, 5, 26, 295.3706665039062
0, 5, 27, 322.8183898925781
0, 5, 28, 303.6592407226562
0, 5, 29, 297.039306640625
0, 5, 30, 324.6269226074219
0, 5, 31, 287.4291076660156
0, 5, 32, 305.1635437011719
0, 5, 33, 303.1861267089844
0, 5, 34, 295.4573059082031
0, 5, 35, 309.3106994628906
0, 5, 36, 270.8614807128906
0, 5, 37, 284.4425048828125
0, 5, 38, 291.1694030761719
0, 5, 39, 312.8695068359375
0, 5, 40, 308.2159423828125
0, 5, 41, 272.5140991210938
0, 5, 42, 305.3694458007812
0, 5, 43, 314.5403747558594
0, 5, 44, 293.2749938964844
0, 5, 45, 301.6530456542969
0, 5, 46, 267.251220703125
0, 5, 47, 278.9417114257812
0, 5, 48, 297.0108947753906
0, 5, 49, 285.4303588867188
0, 5, 50, 294.3044738769531
0, 5, 51, 278.3212280273438
0, 5, 52, 269.5423889160156
0, 5, 53, 285.361083984375
0, 5, 54, 292.6997375488281
0, 5, 55, 343.5375061035156
0, 5, 56, 304.701904296875
0, 5, 57, 306.6950988769531
0, 5, 58, 311.9859313964844
0, 5, 59, 303.4901733398438
0, 5, 60, 306.3027648925781
0, 5, 61, 280.8615417480469
0, 5, 62, 324.0391845703125
0, 5, 63, 291.1575622558594
0, 5, 64, 324.3316955566406
0, 5, 65, 306.2073364257812
0, 5, 66, 327.7137145996094
0, 5, 67, 312.0206298828125
0, 5, 68, 308.4915771484375
0, 5, 69, 313.1710510253906
0, 5, 70, 302.3547973632812
0, 5, 71, 271.6675109863281
0, 5, 72, 310.1555786132812
0, 5, 73, 303.8600463867188
0, 5, 74, 294.7144775390625
0, 5, 75, 297.196533203125
0, 5, 76, 284.021728515625
0, 5, 77, 298.9569702148438
0, 5, 78, 314.2865600585938
0, 5, 79, 307.273193359375
0, 5, 80, 294.6382751464844
0, 5, 81, 326.0230407714844
0, 5, 82, 324.5769348144531
0, 5, 83, 282.8561096191406
0, 5, 84, 304.7375183105469
0, 5, 85, 271.7027282714844
0, 5, 86, 326.7409362792969
0, 5, 87, 284.968017578125
0, 5, 88, 315.2922973632812
0, 5, 89, 305.4649658203125
0, 5, 90, 315.5188293457031
0, 5, 91, 313.9165344238281
0, 5, 92, 297.4906921386719
0, 5, 93, 323.4378051757812
0, 5, 94, 308.6547241210938
0, 5, 95, 295.8218383789062
0, 5, 96, 296.7994384765625
0, 5, 97, 295.6949462890625
0, 5, 98, 319.8272705078125
0, 5, 99, 301.5811157226562
0, 5, 100, 293.8570251464844
0, 5, 101, 304.5031433105469
0, 5, 102, 291.297607421875
0, 5, 103, 314.2485656738281
0, 5, 104, 300.8164978027344
0, 5, 105, 291.7697143554688
0, 5, 106, 281.6346130371094
0, 5, 107, 291.8495483398438
0, 5, 108, 267.158935546875
0, 5, 109, 158.0021667480469
0, 5, 110, 40.12712478637695
0, 5, 111, 22.09885787963867
0, 5, 112, 15.16381072998047
0, 5, 113, 14.3352746963501
0, 5, 114, 13.66220378875732
0, 5, 115, 8.989561080932617
0, 5, 116, 8.160183906555176
0, 5, 117, 7.127144813537598
0, 5, 118, 13.03925228118896
0, 5, 119, 3.813169717788696
0, 5, 120, 6.649126052856445
0, 5, 121, 4.663228988647461
0, 5, 122, 4.444075107574463
0, 5, 123, 4.923075675964355
0, 5, 124, 7.156380653381348
0, 5, 125, 4.308148384094238
0, 5, 126, 6.33425760269165
0, 5, 127, 4.79179573059082
0, 6, 0, 3.634783983230591
0, 6, 1, 4.403953552246094
0, 6, 2, 4.572405815124512
0, 6, 3, 6.182364940643311
0, 6, 4, 3.590542078018188
0, 6, 5, 5.418443202972412
0, 6, 6, 10.62385368347168
0, 6, 7, 6.877053737640381
0, 6, 8, 6.037360191345215
0, 6, 9, 6.450063705444336
0, 6, 10, 7.502858638763428
0, 6, 11, 9.535696983337402
0, 6, 12, 8.577653884887695
0, 6, 13, 14.57622146606445
0, 6, 14, 10.59217739105225
0, 6, 15, 16.87421798706055
0, 6, 16, 28.22477912902832
0, 6, 17, 55.44977951049805
0, 6, 18, 173.7100982666016
0, 6, 19, 276.3231811523438
0, 6, 20, 291.7420349121094
0, 6, 21, 314.4413452148438
0, 6, 22, 318.8614807128906
0, 6, 23, 304.62451171875
0, 6, 24, 314.7392578125
0, 6, 25, 315.5132141113281
0, 6, 26, 320.9885559082031
0, 6, 27, 331.393310546875
0, 6, 28, 295.3151550292969
0, 6, 29, 329.7952270507812
0, 6, 30, 283.9777526855469
0, 6, 31, 286.3992919921875
0, 6, 32, 340.2510375976562
0, 6, 33, 300.2162475585938
0, 6, 34, 339.9461669921875
0, 6, 35, 320.4476928710938
0, 6, 36, 273.5440368652344
0, 6, 37, 288.9099731445312
0, 6, 38, 314.271484375
0, 6, 39, 299.3699951171875
0, 6, 40, 286.0242919921875
0, 6, 41, 296.2507934570312
0, 6, 42, 305.0212707519531
0, 6, 43, 289.3098754882812
0, 6, 44, 279.5541076660156
0, 6, 45, 322.4049682617188
0, 6, 46, 300.5716247558594
0, 6, 47, 332.1506652832031
0, 6, 48, 291.4566955566406
0, 6, 49, 311.4991760253906
0, 6, 50, 328.1590576171875
0, 6, 51, 311.7686157226562
0, 6, 52, 320.7998962402344
0, 6, 53, 329.8140563964844
0, 6, 54, 305.5394287109375
0, 6, 55, 308.1226806640625
0, 6, 56, 292.9589233398438
0, 6, 57, 312.5899658203125
0, 6, 58, 261.7933654785156
0, 6, 59, 301.9506530761719
0, 6, 60, 312.7244567871094
0, 6, 61, 271.7086486816406
0, 6, 62, 335.5200500488281
0, 6, 63, 320.9029846191406
0, 6, 64, 291.9182434082031
0, 6, 65, 283.8023986816406
0, 6, 66, 302.8778991699219
0, 6, 67, 309.390869140625
0, 6, 68, 295.297119140625
0, 6, 69, 278.1828918457031
0, 6, 70, 275.4428405761719
0, 6, 71, 288.3003234863281
0, 6, 72, 310.3663330078125
0, 6, 73, 292.007080078125
0, 6, 74, 329.7452392578125
0, 6, 75, 346.0870666503906
0, 6, 76, 296.749267578125
0, 6, 77, 287.7450561523438
0, 6, 78, 277.4140319824219
0, 6, 79, 294.2021484375
0, 6, 80, 299.9768981933594
0, 6, 81, 314.2255859375
0, 6, 82, 319.1355590820312
0, 6, 83, 319.5580444335938
0, 6, 84, 296.9507446289062
0, 6, 85, 302.2416381835938
0, 6, 86, 331.2595825195312
0, 6, 87, 290.2376403808594
0, 6, 88, 305.0199890136719
0, 6, 89, 304.6951904296875
0, 6, 90, 300.4145202636719
0, 6, 91, 312.8011474609375
0, 6, 92, 287.4237060546875
0, 6, 93, 294.1789245605469
0, 6, 94, 272.9823303222656
0, 6, 95, 300.899169921875
0, 6, 96, 347.1562194824219
0, 6, 97, 309.0068969726562
0, 6, 98, 301.767822265625
0, 6, 99, 274.8216552734375
0, 6, 100, 313.1124267578125
0, 6, 101, 292.9081420898438
0, 6, 102, 306.5416870117188
0, 6, 103, 307.2034301757812
0, 6, 104, 293.1213989257812
0, 6, 105, 301.4644470214844
0, 6, 106, 307.263916015625
0, 6, 107, 306.0953674316406
0, 6, 108, 265.8619079589844
0, 6, 109, 186.3402099609375
0, 6, 110, 55.87466049194336
0, 6, 111, 22.12365531921387
0, 6, 112, 13.7819242477417
0, 6, 113, 12.07900047302246
0, 6, 114, 12.96556758880615
0, 6, 115, 12.83062934875488
0, 6, 116, 7.639298439025879
0, 6, 117, 6.254874706268311
0, 6, 118, 7.333684921264648
0, 6, 119, 9.574475288391113
0, 6, 120, 4.977817535400391
0, 6, 121, 5.787741184234619
0, 6, 122, 7.346114635467529
0, 6, 123, 3.549983978271484
0, 6, 124, 5.378537178039551
0, 6, 125, 6.835612297058105
0, 6, 126, 3.576130867004395
0, 6, 127, 9.570263862609863
0, 7, 0, 9.444230079650879
0, 7, 1, 4.504401683807373
0, 7, 2, 4.672663688659668
0, 7, 3, 4.6375412940979
0, 7, 4, 3.443007707595825
0, 7, 5, 4.609494686126709
0, 7, 6, 5.44227409362793
0, 7, 7, 4.29995584487915
0, 7, 8, 6.010404109954834
0, 7, 9, 9.102593421936035
0, 7, 10, 9.644305229187012
0, 7, 11, 12.58536815643311
0, 7, 12, 10.91967964172363
0, 7, 13, 11.1168737411499
0, 7, 14, 11.78234958648682
0, 7, 15, 16.42121696472168
0, 7, 16, 25.91960906982422
0, 7, 17, 98.86585998535156
0, 7, 18, 218.9398651123047
0, 7, 19, 289.1075439453125
0, 7, 20, 296.3403625488281
0, 7, 21, 277.5201721191406
0, 7, 22, 298.8732604980469
0, 7, 23, 288.7829895019531
0, 7, 24, 313.1486511230469
0, 7, 25, 324.8524780273438
0, 7, 26, 278.0349731445312
0, 7, 27, 298.5361328125
0, 7, 28, 327.8434753417969
0, 7, 29, 318.8660888671875
0, 7, 30, 303.3716735839844
0, 7, 31, 277.2632141113281
0, 7, 32, 303.8552551269531
0, 7, 33, 260.6462707519531
0, 7, 34, 297.9811706542969
0, 7, 35, 321.3840942382812
0, 7, 36, 331.4013061523438
0, 7, 37, 323.2872009277344
0, 7, 38, 296.1000671386719
0, 7, 39, 305.2027893066406
0, 7, 40, 289.933349609375
0, 7, 41, 270.5393371582031
0, 7, 42, 303.8171081542969
0, 7, 43, 276.0342407226562
0, 7, 44, 304.0565185546875
0, 7, 45, 293.6213684082031
0, 7, 46, 281.8084411621094
0, 7, 47, 326.458251953125
0, 7, 48, 287.1123046875
0, 7, 49, 300.9891052246094
0, 7, 50, 321.9989013671875
0, 7, 51, 298.4314270019531
0, 7, 52, 327.2206420898438
0, 7, 53, 308.226806640625
0, 7, 54, 323.1478881835938
0, 7, 55, 306.4004211425781
0, 7, 56, 279.8105773925781
0, 7, 57, 281.3760375976562
0, 7, 58, 297.8782653808594
0, 7, 59, 293.1653137207031
0, 7, 60, 322.7650756835938
0, 7, 61, 276.6361083984375
0, 7, 62, 297.4075012207031
0, 7, 63, 293.8411254882812
0, 7, 64, 309.260009765625
0, 7, 65, 332.0161437988281
0, 7, 66, 321.7294921875
0, 7, 67, 301.4235534667969
0, 7, 68, 280.8162841796875
0, 7, 69, 294.7561645507812
0, 7, 70, 301.2597045898438
0, 7, 71, 309.5892333984375
0, 7, 72, 284.584716796875
0, 7, 73, 296.9369812011719
0, 7, 74, 345.1115417480469
0, 7, 75, 319.5026245117188
0, 7, 76, 324.4848937988281
0, 7, 77, 282.7094116210938
0, 7, 78, 299.19287109375
0, 7, 79, 295.8059692382812
0, 7, 80, 311.6248168945312
0, 7, 81, 319.17724609375
0, 7, 82, 330.7467651367188
0, 7, 83, 317.1278991699219
0, 7, 84, 310.2480163574219
0, 7, 85, 271.830810546875
0, 7, 86, 310.2854919433594
0, 7, 87, 311.1756591796875
0, 7, 88, 306.1799011230469
0, 7, 89, 294.1534423828125
0, 7, 90, 308.3031616210938
0, 7, 91, 315.0995483398438
0, 7, 92, 287.1188659667969
0, 7, 93, 307.5476684570312
0, 7, 94, 273.6196899414062
0, 7, 95, 297.2342224121094
0, 7, 96, 332.1402893066406
0, 7, 97, 296.419677734375
0, 7, 98, 290.2590942382812
0, 7, 99, 311.0461730957031
0, 7, 100, 282.7773132324219
0, 7, 101, 274.2927856445312
0, 7, 102, 290.1944885253906
0, 7, 103, 291.6719970703125
0, 7, 104, 275.0084838867188
0, 7, 105, 305.5455017089844
0, 7, 106, 318.1541748046875
0, 7, 107, 296.819580078125
0, 7, 108, 273.4122924804688
0, 7, 109, 237.2334442138672
0, 7, 110, 97.01510620117188
0, 7, 111, 24.16476440429688
0, 7, 112, 14.63120651245117
0, 7, 113, 14.33586406707764
0, 7, 114, 12.70012283325195
0, 7, 115, 13.11648368835449
0, 7, 116, 11.76105117797852
0, 7, 117, 6.5948486328125
0, 7, 118, 6.79497241973877
0, 7, 119, 7.983209133148193
0, 7, 120, 4.719695091247559
0, 7, 121, 6.43474006652832
0, 7, 122, 5.503854274749756
0, 7, 123, 6.001720905303955
0, 7, 124, 3.73900842666626
0, 7, 125, 7.870572566986084
0, 7, 126, 6.469926357269287
0, 7, 127, 3.220083713531494
0, 8, 0, 5.048246383666992
0, 8, 1, 3.362523794174194
0, 8, 2, 4.003323554992676
0, 8, 3, 5.526285648345947
0, 8, 4, 5.10188102722168
0, 8, 5, 4.215993404388428
0, 8, 6, 5.027460098266602
0, 8, 7, 4.573682308197021
0, 8, 8, 7.340373039245605
0, 8, 9, 7.900786399841309
0, 8, 10, 8.527527809143066
0, 8, 11, 12.1953763961792
0, 8, 12, 12.62734508514404
0, 8, 13, 17.2365837097168
0, 8, 14, 13.59608173370361
0, 8, 15, 16.51606369018555
0, 8, 16, 33.02605056762695
0, 8, 17, 129.8764343261719
0, 8, 18, 244.6031799316406
0, 8, 19, 295.2832336425781
0, 8, 20, 286.3177490234375
0, 8, 21, 307.2597045898438
0, 8, 22, 297.7822265625
0, 8, 23, 274.6175231933594
0, 8, 24, 267.5145874023438
0, 8, 25, 275.2568969726562
0, 8, 26, 306.4747924804688
0, 8, 27, 307.0859680175781
0, 8, 28, 304.7030334472656
0, 8, 29, 318.9345397949219
0, 8, 30, 313.1669616699219
0, 8, 31, 304.6780700683594
0, 8, 32, 279.2442626953125
0, 8, 33, 296.4855651855469
0, 8, 34, 288.6211242675781
0, 8, 35, 279.2838745117188
0, 8, 36, 315.9098510742188
0, 8, 37, 339.1991271972656
0, 8, 38, 330.8933715820312
0, 8, 39, 280.0818481445312
0, 8, 40, 304.4550476074219
