# TOPAS Version: 3.1.p3
# Parameter File: batch_inserts_152.txt
# Results for scorer Readout_Adipose
# Scored in component: MyBox
# X in 1 bin  of 0.75 cm
# Y in 512 bins of 0.0783984 cm
# Z in 128 bins of 0.078125 cm
# EnergyDeposit ( MeV ) : Sum   
0, 0, 0, 4.54083776473999
0, 0, 1, 2.827678203582764
0, 0, 2, 2.732272624969482
0, 0, 3, 1.02574610710144
0, 0, 4, 2.925508737564087
0, 0, 5, 2.402337312698364
0, 0, 6, 7.701663017272949
0, 0, 7, 10.16155052185059
0, 0, 8, 2.070095539093018
0, 0, 9, 4.943855762481689
0, 0, 10, 6.562594413757324
0, 0, 11, 4.222222328186035
0, 0, 12, 4.438503265380859
0, 0, 13, 6.489145755767822
0, 0, 14, 7.514186859130859
0, 0, 15, 11.83891010284424
0, 0, 16, 9.04210090637207
0, 0, 17, 9.406198501586914
0, 0, 18, 15.39522266387939
0, 0, 19, 43.06090927124023
0, 0, 20, 139.8162231445312
0, 0, 21, 222.0507659912109
0, 0, 22, 247.7732849121094
0, 0, 23, 255.3925018310547
0, 0, 24, 252.1440124511719
0, 0, 25, 259.2977600097656
0, 0, 26, 234.3643035888672
0, 0, 27, 236.8667144775391
0, 0, 28, 272.5841674804688
0, 0, 29, 252.5632019042969
0, 0, 30, 229.5444030761719
0, 0, 31, 243.7927856445312
0, 0, 32, 266.0560607910156
0, 0, 33, 260.4356384277344
0, 0, 34, 286.9309387207031
0, 0, 35, 266.6696166992188
0, 0, 36, 246.8356170654297
0, 0, 37, 252.9875183105469
0, 0, 38, 268.0960998535156
0, 0, 39, 230.0785827636719
0, 0, 40, 243.5274810791016
0, 0, 41, 265.4414978027344
0, 0, 42, 229.9306945800781
0, 0, 43, 259.4983215332031
0, 0, 44, 252.2051696777344
0, 0, 45, 252.9036407470703
0, 0, 46, 244.4611206054688
0, 0, 47, 254.3642730712891
0, 0, 48, 267.6325988769531
0, 0, 49, 273.4078369140625
0, 0, 50, 253.1976776123047
0, 0, 51, 255.2803192138672
0, 0, 52, 271.5721740722656
0, 0, 53, 292.5287170410156
0, 0, 54, 241.8877105712891
0, 0, 55, 240.4490203857422
0, 0, 56, 277.2529296875
0, 0, 57, 265.349609375
0, 0, 58, 245.7252349853516
0, 0, 59, 270.2220764160156
0, 0, 60, 235.5723419189453
0, 0, 61, 244.092529296875
0, 0, 62, 257.3566589355469
0, 0, 63, 265.7027587890625
0, 0, 64, 254.8646087646484
0, 0, 65, 261.6618041992188
0, 0, 66, 275.9089660644531
0, 0, 67, 245.9498291015625
0, 0, 68, 257.9993591308594
0, 0, 69, 260.6576232910156
0, 0, 70, 273.7899475097656
0, 0, 71, 241.1722717285156
0, 0, 72, 248.9021301269531
0, 0, 73, 259.8291931152344
0, 0, 74, 249.4756164550781
0, 0, 75, 241.0950469970703
0, 0, 76, 229.5980987548828
0, 0, 77, 261.2604675292969
0, 0, 78, 257.3709411621094
0, 0, 79, 277.169921875
0, 0, 80, 215.6674957275391
0, 0, 81, 266.833251953125
0, 0, 82, 256.1729125976562
0, 0, 83, 245.5452880859375
0, 0, 84, 270.142578125
0, 0, 85, 231.88916015625
0, 0, 86, 252.7112884521484
0, 0, 87, 251.3629150390625
0, 0, 88, 259.0971374511719
0, 0, 89, 282.8421020507812
0, 0, 90, 244.4262390136719
0, 0, 91, 280.7441711425781
0, 0, 92, 253.3904113769531
0, 0, 93, 249.3032073974609
0, 0, 94, 251.2932586669922
0, 0, 95, 249.0613403320312
0, 0, 96, 274.0140380859375
0, 0, 97, 272.3810729980469
0, 0, 98, 272.5478515625
0, 0, 99, 260.0124206542969
0, 0, 100, 258.6427307128906
0, 0, 101, 226.1676635742188
0, 0, 102, 232.1811828613281
0, 0, 103, 268.9796142578125
0, 0, 104, 254.2834777832031
0, 0, 105, 252.0854644775391
0, 0, 106, 246.0188140869141
0, 0, 107, 151.7059783935547
0, 0, 108, 39.7255859375
0, 0, 109, 11.67442512512207
0, 0, 110, 11.73173999786377
0, 0, 111, 8.478632926940918
0, 0, 112, 7.768848896026611
0, 0, 113, 5.369156360626221
0, 0, 114, 7.321257591247559
0, 0, 115, 3.632303237915039
0, 0, 116, 7.569485664367676
0, 0, 117, 6.59371280670166
0, 0, 118, 7.242222309112549
0, 0, 119, 4.173855781555176
0, 0, 120, 3.22865891456604
0, 0, 121, 3.446778535842896
0, 0, 122, 2.95127010345459
0, 0, 123, 3.558370351791382
0, 0, 124, 5.74376916885376
0, 0, 125, 6.47540283203125
0, 0, 126, 6.11217737197876
0, 0, 127, 4.35078239440918
0, 1, 0, 6.521384716033936
0, 1, 1, 2.402304649353027
0, 1, 2, 4.901917457580566
0, 1, 3, 3.215207576751709
0, 1, 4, 2.094029188156128
0, 1, 5, 6.030029296875
0, 1, 6, 8.475924491882324
0, 1, 7, 5.141794204711914
0, 1, 8, 6.022470474243164
0, 1, 9, 3.692891359329224
0, 1, 10, 6.23484992980957
0, 1, 11, 10.94451904296875
0, 1, 12, 7.480010986328125
0, 1, 13, 11.32727241516113
0, 1, 14, 9.153271675109863
0, 1, 15, 7.303268432617188
0, 1, 16, 11.44469451904297
0, 1, 17, 11.21764183044434
0, 1, 18, 20.95525932312012
0, 1, 19, 65.81388092041016
0, 1, 20, 200.4702606201172
0, 1, 21, 255.3711853027344
0, 1, 22, 296.9497375488281
0, 1, 23, 284.1006164550781
0, 1, 24, 274.296142578125
0, 1, 25, 287.0000305175781
0, 1, 26, 269.10400390625
0, 1, 27, 305.6888732910156
0, 1, 28, 300.8340454101562
0, 1, 29, 296.6360168457031
0, 1, 30, 281.5444030761719
0, 1, 31, 291.051025390625
0, 1, 32, 290.2603759765625
0, 1, 33, 297.4449157714844
0, 1, 34, 291.5972900390625
0, 1, 35, 279.3241882324219
0, 1, 36, 306.3254699707031
0, 1, 37, 294.6622009277344
0, 1, 38, 278.1585693359375
0, 1, 39, 295.4508361816406
0, 1, 40, 267.7126770019531
0, 1, 41, 286.3367919921875
0, 1, 42, 291.0465393066406
0, 1, 43, 333.0320129394531
0, 1, 44, 278.2300720214844
0, 1, 45, 292.5625
0, 1, 46, 259.6149291992188
0, 1, 47, 309.22265625
0, 1, 48, 284.1188354492188
0, 1, 49, 303.6912841796875
0, 1, 50, 263.0628051757812
0, 1, 51, 272.1190795898438
0, 1, 52, 296.2521362304688
0, 1, 53, 302.5982666015625
0, 1, 54, 274.7461242675781
0, 1, 55, 295.5452575683594
0, 1, 56, 281.0169372558594
0, 1, 57, 300.4820556640625
0, 1, 58, 309.4536743164062
0, 1, 59, 291.1693115234375
0, 1, 60, 297.7310791015625
0, 1, 61, 275.2205200195312
0, 1, 62, 307.5791931152344
0, 1, 63, 286.71728515625
0, 1, 64, 288.9344177246094
0, 1, 65, 293.39208984375
0, 1, 66, 291.9828796386719
0, 1, 67, 290.8756103515625
0, 1, 68, 278.5252380371094
0, 1, 69, 279.5760498046875
0, 1, 70, 270.4605102539062
0, 1, 71, 273.5418090820312
0, 1, 72, 285.2966918945312
0, 1, 73, 303.0441589355469
0, 1, 74, 303.0121765136719
0, 1, 75, 295.5082092285156
0, 1, 76, 284.912841796875
0, 1, 77, 288.2232666015625
0, 1, 78, 297.2306823730469
0, 1, 79, 302.8075866699219
0, 1, 80, 299.4465026855469
0, 1, 81, 300.9240417480469
0, 1, 82, 283.2018737792969
0, 1, 83, 333.4261169433594
0, 1, 84, 309.0768432617188
0, 1, 85, 254.1376342773438
0, 1, 86, 295.0441589355469
0, 1, 87, 290.8171691894531
0, 1, 88, 298.4903564453125
0, 1, 89, 292.2040710449219
0, 1, 90, 270.8600463867188
0, 1, 91, 321.2057189941406
0, 1, 92, 290.2608337402344
0, 1, 93, 285.679443359375
0, 1, 94, 304.0781860351562
0, 1, 95, 285.3474426269531
0, 1, 96, 283.8593444824219
0, 1, 97, 302.611572265625
0, 1, 98, 276.4567260742188
0, 1, 99, 269.7286071777344
0, 1, 100, 276.3504638671875
0, 1, 101, 281.324951171875
0, 1, 102, 280.1716613769531
0, 1, 103, 280.7669677734375
0, 1, 104, 305.9807434082031
0, 1, 105, 296.4624328613281
0, 1, 106, 259.5906066894531
0, 1, 107, 192.3005828857422
0, 1, 108, 80.5830078125
0, 1, 109, 24.18417739868164
0, 1, 110, 12.06593894958496
0, 1, 111, 8.581583976745605
0, 1, 112, 11.95041179656982
0, 1, 113, 6.410301685333252
0, 1, 114, 6.387340545654297
0, 1, 115, 6.471693515777588
0, 1, 116, 11.5275411605835
0, 1, 117, 5.504463195800781
0, 1, 118, 5.875812530517578
0, 1, 119, 4.433281898498535
0, 1, 120, 6.775702476501465
0, 1, 121, 3.385512113571167
0, 1, 122, 2.476732730865479
0, 1, 123, 3.019853591918945
0, 1, 124, 8.166625022888184
0, 1, 125, 3.920106410980225
0, 1, 126, 2.793697357177734
0, 1, 127, 1.668259859085083
0, 2, 0, 4.919668197631836
0, 2, 1, 1.926548838615417
0, 2, 2, 4.178907871246338
0, 2, 3, 4.474462509155273
0, 2, 4, 3.021002769470215
0, 2, 5, 2.58263635635376
0, 2, 6, 3.816609859466553
0, 2, 7, 4.54061222076416
0, 2, 8, 4.35352611541748
0, 2, 9, 6.7080979347229
0, 2, 10, 9.694223403930664
0, 2, 11, 5.310181617736816
0, 2, 12, 6.134165287017822
0, 2, 13, 8.311437606811523
0, 2, 14, 9.127616882324219
0, 2, 15, 8.436549186706543
0, 2, 16, 10.60715198516846
0, 2, 17, 15.52886199951172
0, 2, 18, 29.75338172912598
0, 2, 19, 113.8572235107422
0, 2, 20, 246.0910186767578
0, 2, 21, 270.4120788574219
0, 2, 22, 315.7870178222656
0, 2, 23, 302.4975280761719
0, 2, 24, 287.1399230957031
0, 2, 25, 302.916015625
0, 2, 26, 292.4057006835938
0, 2, 27, 277.5928649902344
0, 2, 28, 272.15234375
0, 2, 29, 274.1886291503906
0, 2, 30, 289.6689453125
0, 2, 31, 279.4496765136719
0, 2, 32, 296.2286987304688
0, 2, 33, 283.1942749023438
0, 2, 34, 331.39501953125
0, 2, 35, 288.6141357421875
0, 2, 36, 302.3783874511719
0, 2, 37, 315.7366027832031
0, 2, 38, 309.5125732421875
0, 2, 39, 266.4356384277344
0, 2, 40, 308.0472106933594
0, 2, 41, 292.0221557617188
0, 2, 42, 302.6417541503906
0, 2, 43, 313.6660461425781
0, 2, 44, 311.8019409179688
0, 2, 45, 324.4159240722656
0, 2, 46, 286.6050415039062
0, 2, 47, 303.02392578125
0, 2, 48, 279.5075988769531
0, 2, 49, 279.6116027832031
0, 2, 50, 293.2125244140625
0, 2, 51, 286.4787902832031
0, 2, 52, 272.2461547851562
0, 2, 53, 285.5382385253906
0, 2, 54, 278.3837280273438
0, 2, 55, 276.9914245605469
0, 2, 56, 301.4120178222656
0, 2, 57, 291.4829406738281
0, 2, 58, 301.8352355957031
0, 2, 59, 293.5007629394531
0, 2, 60, 318.5673217773438
0, 2, 61, 300.9786987304688
0, 2, 62, 314.7710876464844
0, 2, 63, 303.8209228515625
0, 2, 64, 297.1126403808594
0, 2, 65, 311.5306091308594
0, 2, 66, 279.2682495117188
0, 2, 67, 290.4463500976562
0, 2, 68, 296.0760498046875
0, 2, 69, 312.5223999023438
0, 2, 70, 333.6765747070312
0, 2, 71, 284.7472534179688
0, 2, 72, 301.3392944335938
0, 2, 73, 310.929443359375
0, 2, 74, 287.2839965820312
0, 2, 75, 305.9107360839844
0, 2, 76, 289.2574768066406
0, 2, 77, 300.3294372558594
0, 2, 78, 314.1894836425781
0, 2, 79, 309.5826721191406
0, 2, 80, 296.3406372070312
0, 2, 81, 284.5991821289062
0, 2, 82, 317.5846252441406
0, 2, 83, 313.3516540527344
0, 2, 84, 288.00341796875
0, 2, 85, 281.1885070800781
0, 2, 86, 323.4647521972656
0, 2, 87, 285.747314453125
0, 2, 88, 279.6613464355469
0, 2, 89, 298.1390075683594
0, 2, 90, 295.0179138183594
0, 2, 91, 276.6559448242188
0, 2, 92, 304.9236755371094
0, 2, 93, 316.6876831054688
0, 2, 94, 290.4474792480469
0, 2, 95, 314.6453247070312
0, 2, 96, 314.697998046875
0, 2, 97, 289.1058654785156
0, 2, 98, 295.2890625
0, 2, 99, 273.5684204101562
0, 2, 100, 307.0714721679688
0, 2, 101, 301.9590759277344
0, 2, 102, 297.2262268066406
0, 2, 103, 292.3798522949219
0, 2, 104, 291.8812255859375
0, 2, 105, 272.908203125
0, 2, 106, 298.3857116699219
0, 2, 107, 268.6944580078125
0, 2, 108, 117.2098846435547
0, 2, 109, 32.585693359375
0, 2, 110, 10.18964862823486
0, 2, 111, 11.55972194671631
0, 2, 112, 10.40175628662109
0, 2, 113, 14.46675777435303
0, 2, 114, 10.5143518447876
0, 2, 115, 11.51919841766357
0, 2, 116, 8.880222320556641
0, 2, 117, 8.370931625366211
0, 2, 118, 3.111502885818481
0, 2, 119, 4.392552852630615
0, 2, 120, 6.926909446716309
0, 2, 121, 3.864629983901978
0, 2, 122, 3.842020750045776
0, 2, 123, 3.586244106292725
0, 2, 124, 3.906360626220703
0, 2, 125, 4.392491817474365
0, 2, 126, 4.053155422210693
0, 2, 127, 5.567558288574219
0, 3, 0, 3.624875783920288
0, 3, 1, 3.47948694229126
0, 3, 2, 4.239513397216797
0, 3, 3, 0.9441404342651367
0, 3, 4, 4.197239398956299
0, 3, 5, 6.253359317779541
0, 3, 6, 7.830347061157227
0, 3, 7, 5.539852142333984
0, 3, 8, 6.782031536102295
0, 3, 9, 7.776793003082275
0, 3, 10, 6.076667785644531
0, 3, 11, 5.066683769226074
0, 3, 12, 9.70899486541748
0, 3, 13, 15.33628845214844
0, 3, 14, 12.1215353012085
0, 3, 15, 13.19271087646484
0, 3, 16, 11.59874725341797
0, 3, 17, 21.68629455566406
0, 3, 18, 53.47175979614258
0, 3, 19, 175.4787139892578
0, 3, 20, 269.1939086914062
0, 3, 21, 271.237060546875
0, 3, 22, 283.7816467285156
0, 3, 23, 286.5130310058594
0, 3, 24, 287.3084106445312
0, 3, 25, 268.5805053710938
0, 3, 26, 303.6732482910156
0, 3, 27, 291.6822509765625
0, 3, 28, 280.8031005859375
0, 3, 29, 338.5042419433594
0, 3, 30, 314.712158203125
0, 3, 31, 284.8896179199219
0, 3, 32, 305.77880859375
0, 3, 33, 314.4513549804688
0, 3, 34, 321.5675048828125
0, 3, 35, 306.81591796875
0, 3, 36, 268.8879699707031
0, 3, 37, 312.940185546875
0, 3, 38, 303.8055114746094
0, 3, 39, 290.0171508789062
0, 3, 40, 265.2611694335938
0, 3, 41, 300.2682800292969
0, 3, 42, 285.4150390625
0, 3, 43, 305.7077026367188
0, 3, 44, 311.7864685058594
0, 3, 45, 291.7545776367188
0, 3, 46, 329.9361267089844
0, 3, 47, 299.2533569335938
0, 3, 48, 302.3229064941406
0, 3, 49, 279.6840515136719
0, 3, 50, 289.2492980957031
0, 3, 51, 276.7597045898438
0, 3, 52, 316.3985900878906
0, 3, 53, 288.9248046875
0, 3, 54, 286.0081787109375
0, 3, 55, 284.5671081542969
0, 3, 56, 297.1064453125
0, 3, 57, 288.6123046875
0, 3, 58, 304.9100952148438
0, 3, 59, 293.9519653320312
0, 3, 60, 297.5871276855469
0, 3, 61, 263.8175964355469
0, 3, 62, 282.5382690429688
0, 3, 63, 307.1425476074219
0, 3, 64, 316.4479370117188
0, 3, 65, 303.8240661621094
0, 3, 66, 314.2308959960938
0, 3, 67, 317.1775207519531
0, 3, 68, 279.1506958007812
0, 3, 69, 282.8285522460938
0, 3, 70, 288.4663391113281
0, 3, 71, 299.8301696777344
0, 3, 72, 268.4620056152344
0, 3, 73, 310.7719421386719
0, 3, 74, 294.2008972167969
0, 3, 75, 290.9675598144531
0, 3, 76, 305.1084899902344
0, 3, 77, 312.981201171875
0, 3, 78, 305.6867370605469
0, 3, 79, 282.6241455078125
0, 3, 80, 292.0265502929688
0, 3, 81, 311.3436889648438
0, 3, 82, 315.3926391601562
0, 3, 83, 300.5811767578125
0, 3, 84, 311.9044189453125
0, 3, 85, 294.3210144042969
0, 3, 86, 302.3664245605469
0, 3, 87, 297.94091796875
0, 3, 88, 297.6697082519531
0, 3, 89, 298.7405395507812
0, 3, 90, 278.4384765625
0, 3, 91, 284.0316772460938
0, 3, 92, 303.1285095214844
0, 3, 93, 313.1807250976562
0, 3, 94, 296.7941284179688
0, 3, 95, 332.3172912597656
0, 3, 96, 290.1113891601562
0, 3, 97, 284.9090881347656
0, 3, 98, 277.1534118652344
0, 3, 99, 261.4046630859375
0, 3, 100, 283.6140441894531
0, 3, 101, 295.6264953613281
0, 3, 102, 273.6727600097656
0, 3, 103, 320.4914855957031
0, 3, 104, 309.0299682617188
0, 3, 105, 287.199462890625
0, 3, 106, 301.6731872558594
0, 3, 107, 284.8710632324219
0, 3, 108, 168.042724609375
0, 3, 109, 55.57278442382812
0, 3, 110, 17.24011611938477
0, 3, 111, 13.91209697723389
0, 3, 112, 13.25470924377441
0, 3, 113, 5.491573810577393
0, 3, 114, 8.93178653717041
0, 3, 115, 6.23706579208374
0, 3, 116, 8.976689338684082
0, 3, 117, 7.081593036651611
0, 3, 118, 8.288512229919434
0, 3, 119, 4.138660430908203
0, 3, 120, 7.287352085113525
0, 3, 121, 2.948002099990845
0, 3, 122, 3.115119695663452
0, 3, 123, 4.920222282409668
0, 3, 124, 3.440841913223267
0, 3, 125, 5.550567626953125
0, 3, 126, 3.477597951889038
0, 3, 127, 2.828687191009521
0, 4, 0, 3.120633840560913
0, 4, 1, 4.953574180603027
0, 4, 2, 4.174187660217285
0, 4, 3, 1.768558979034424
0, 4, 4, 7.74576997756958
0, 4, 5, 8.307783126831055
0, 4, 6, 6.251165866851807
0, 4, 7, 7.888678073883057
0, 4, 8, 4.731232643127441
0, 4, 9, 9.158266067504883
0, 4, 10, 9.528757095336914
0, 4, 11, 7.078652858734131
0, 4, 12, 6.941821098327637
0, 4, 13, 8.618450164794922
0, 4, 14, 10.82744979858398
0, 4, 15, 11.57816886901855
0, 4, 16, 13.67259311676025
0, 4, 17, 19.31754684448242
0, 4, 18, 95.73341369628906
0, 4, 19, 222.9369354248047
0, 4, 20, 287.2669372558594
0, 4, 21, 272.8990173339844
0, 4, 22, 305.1995239257812
0, 4, 23, 266.76416015625
0, 4, 24, 289.9461059570312
0, 4, 25, 272.1860961914062
0, 4, 26, 295.0416259765625
0, 4, 27, 282.7099609375
0, 4, 28, 306.2554931640625
0, 4, 29, 323.334228515625
0, 4, 30, 309.9786376953125
0, 4, 31, 302.8554382324219
0, 4, 32, 283.8425598144531
0, 4, 33, 296.7142028808594
0, 4, 34, 295.0597534179688
0, 4, 35, 311.7165222167969
0, 4, 36, 292.1380310058594
0, 4, 37, 288.1179809570312
0, 4, 38, 298.6593933105469
0, 4, 39, 293.96240234375
0, 4, 40, 301.4185791015625
0, 4, 41, 313.1717529296875
0, 4, 42, 328.8125
0, 4, 43, 294.4412841796875
0, 4, 44, 323.3387451171875
0, 4, 45, 326.2911987304688
0, 4, 46, 304.7453308105469
0, 4, 47, 293.4730224609375
0, 4, 48, 295.5778198242188
0, 4, 49, 277.1698913574219
0, 4, 50, 299.9595947265625
0, 4, 51, 316.276611328125
0, 4, 52, 325.8304443359375
0, 4, 53, 303.4488830566406
0, 4, 54, 287.7143859863281
0, 4, 55, 314.6422119140625
0, 4, 56, 287.9404907226562
0, 4, 57, 312.46240234375
0, 4, 58, 295.4235229492188
0, 4, 59, 310.3882446289062
0, 4, 60, 301.0927124023438
0, 4, 61, 314.3043823242188
0, 4, 62, 310.1002197265625
0, 4, 63, 301.7249450683594
0, 4, 64, 333.8893737792969
0, 4, 65, 316.769775390625
0, 4, 66, 292.1437377929688
0, 4, 67, 284.396484375
0, 4, 68, 311.9048461914062
0, 4, 69, 276.094482421875
0, 4, 70, 300.9871520996094
0, 4, 71, 320.9459228515625
0, 4, 72, 331.6175231933594
0, 4, 73, 296.4749145507812
0, 4, 74, 292.3477478027344
0, 4, 75, 289.1474914550781
0, 4, 76, 273.4682922363281
0, 4, 77, 276.9199523925781
0, 4, 78, 310.31396484375
0, 4, 79, 318.7308044433594
0, 4, 80, 316.7037353515625
0, 4, 81, 314.0544128417969
0, 4, 82, 298.1389770507812
0, 4, 83, 300.7779235839844
0, 4, 84, 291.0986328125
0, 4, 85, 295.4322204589844
0, 4, 86, 297.763427734375
0, 4, 87, 284.2434997558594
0, 4, 88, 305.3369750976562
0, 4, 89, 294.2802124023438
0, 4, 90, 333.553955078125
0, 4, 91, 300.4087219238281
0, 4, 92, 291.27392578125
0, 4, 93, 298.8565673828125
0, 4, 94, 293.0826110839844
0, 4, 95, 290.6639099121094
0, 4, 96, 324.4292907714844
0, 4, 97, 274.7479553222656
0, 4, 98, 326.864990234375
0, 4, 99, 312.5279235839844
0, 4, 100, 300.0452270507812
0, 4, 101, 257.9436340332031
0, 4, 102, 296.5287170410156
0, 4, 103, 317.031982421875
0, 4, 104, 281.613525390625
0, 4, 105, 309.3939514160156
0, 4, 106, 286.9212646484375
0, 4, 107, 295.3236694335938
0, 4, 108, 226.3471984863281
0, 4, 109, 79.34800720214844
0, 4, 110, 16.4216251373291
0, 4, 111, 13.44430637359619
0, 4, 112, 7.668667793273926
0, 4, 113, 9.816417694091797
0, 4, 114, 7.366223812103271
0, 4, 115, 8.985736846923828
0, 4, 116, 7.359967231750488
0, 4, 117, 6.138027191162109
0, 4, 118, 10.00950050354004
0, 4, 119, 8.824359893798828
0, 4, 120, 5.016394138336182
0, 4, 121, 4.646975040435791
0, 4, 122, 7.659492015838623
0, 4, 123, 7.973865509033203
0, 4, 124, 6.181607723236084
0, 4, 125, 12.0300178527832
0, 4, 126, 6.082714080810547
0, 4, 127, 4.266355514526367
0, 5, 0, 3.633047819137573
0, 5, 1, 3.835160732269287
0, 5, 2, 4.742112159729004
0, 5, 3, 3.835827112197876
0, 5, 4, 6.751538753509521
0, 5, 5, 8.089990615844727
0, 5, 6, 5.714218616485596
0, 5, 7, 4.651534557342529
0, 5, 8, 5.202936172485352
0, 5, 9, 4.976892948150635
0, 5, 10, 7.241600036621094
0, 5, 11, 8.790489196777344
0, 5, 12, 9.020806312561035
0, 5, 13, 4.583133697509766
0, 5, 14, 10.9626350402832
0, 5, 15, 18.51847076416016
0, 5, 16, 14.47182750701904
0, 5, 17, 29.70412254333496
0, 5, 18, 139.3897094726562
0, 5, 19, 287.6528625488281
0, 5, 20, 307.5196228027344
0, 5, 21, 316.8938293457031
0, 5, 22, 275.4293518066406
0, 5, 23, 310.5623474121094
0, 5, 24, 302.6341247558594
0, 5, 25, 289.9696960449219
0, 5, 26, 294.8255615234375
0, 5, 27, 320.8907470703125
0, 5, 28, 302.9334716796875
0, 5, 29, 296.7176513671875
0, 5, 30, 322.7198791503906
0, 5, 31, 285.2698059082031
0, 5, 32, 305.6622619628906
0, 5, 33, 303.5663146972656
0, 5, 34, 297.3203125
0, 5, 35, 309.4560852050781
0, 5, 36, 272.1877746582031
0, 5, 37, 283.0205383300781
0, 5, 38, 291.6654052734375
0, 5, 39, 312.3324890136719
0, 5, 40, 308.9918518066406
0, 5, 41, 272.0151672363281
0, 5, 42, 306.0547180175781
0, 5, 43, 316.1161804199219
0, 5, 44, 293.9675903320312
0, 5, 45, 301.5030212402344
0, 5, 46, 266.1875
0, 5, 47, 278.8327941894531
0, 5, 48, 294.5691833496094
0, 5, 49, 286.6673278808594
0, 5, 50, 294.8394470214844
0, 5, 51, 278.7875061035156
0, 5, 52, 270.7084655761719
0, 5, 53, 285.68212890625
0, 5, 54, 291.6215209960938
0, 5, 55, 342.4019165039062
0, 5, 56, 305.1414794921875
0, 5, 57, 309.0624694824219
0, 5, 58, 312.7289123535156
0, 5, 59, 303.5663146972656
0, 5, 60, 308.6304931640625
0, 5, 61, 281.2430725097656
0, 5, 62, 326.1465148925781
0, 5, 63, 290.8252868652344
0, 5, 64, 324.1436462402344
0, 5, 65, 306.0968627929688
0, 5, 66, 328.0045471191406
0, 5, 67, 315.27880859375
0, 5, 68, 307.7550354003906
0, 5, 69, 312.6130981445312
0, 5, 70, 302.8492431640625
0, 5, 71, 271.4892578125
0, 5, 72, 310.0885925292969
0, 5, 73, 304.5733337402344
0, 5, 74, 294.4036560058594
0, 5, 75, 294.312744140625
0, 5, 76, 285.9170837402344
0, 5, 77, 297.9019165039062
0, 5, 78, 314.8782653808594
0, 5, 79, 306.515869140625
0, 5, 80, 295.8321533203125
0, 5, 81, 326.1050109863281
0, 5, 82, 323.6242370605469
0, 5, 83, 284.5855712890625
0, 5, 84, 303.9562072753906
0, 5, 85, 271.6559448242188
0, 5, 86, 327.1080627441406
0, 5, 87, 283.8326416015625
0, 5, 88, 312.4957275390625
0, 5, 89, 304.5634155273438
0, 5, 90, 316.1787414550781
0, 5, 91, 313.734130859375
0, 5, 92, 298.2058715820312
0, 5, 93, 323.2987365722656
0, 5, 94, 305.1879577636719
0, 5, 95, 295.9944152832031
0, 5, 96, 296.1568908691406
0, 5, 97, 297.3495788574219
0, 5, 98, 319.9473266601562
0, 5, 99, 300.9118347167969
0, 5, 100, 291.1444702148438
0, 5, 101, 305.7162475585938
0, 5, 102, 291.5863037109375
0, 5, 103, 314.1017761230469
0, 5, 104, 300.9551086425781
0, 5, 105, 292.1769104003906
0, 5, 106, 282.9203186035156
0, 5, 107, 291.8547973632812
0, 5, 108, 267.8026733398438
0, 5, 109, 157.7333679199219
0, 5, 110, 40.83339691162109
0, 5, 111, 21.43949890136719
0, 5, 112, 14.38130378723145
0, 5, 113, 14.17774486541748
0, 5, 114, 12.90184783935547
0, 5, 115, 7.964459419250488
0, 5, 116, 7.102778911590576
0, 5, 117, 6.190592288970947
0, 5, 118, 13.86795330047607
0, 5, 119, 3.704616785049438
0, 5, 120, 5.283997058868408
0, 5, 121, 3.778320550918579
0, 5, 122, 5.654609203338623
0, 5, 123, 6.904338359832764
0, 5, 124, 6.260767936706543
0, 5, 125, 4.014520168304443
0, 5, 126, 6.380794048309326
0, 5, 127, 3.112210512161255
0, 6, 0, 3.466383218765259
0, 6, 1, 3.83355975151062
0, 6, 2, 4.976853847503662
0, 6, 3, 6.946391105651855
0, 6, 4, 5.886066913604736
0, 6, 5, 5.018428325653076
0, 6, 6, 9.535556793212891
0, 6, 7, 6.00690221786499
0, 6, 8, 5.426405429840088
0, 6, 9, 7.284708976745605
0, 6, 10, 7.891505718231201
0, 6, 11, 9.410588264465332
0, 6, 12, 9.089153289794922
0, 6, 13, 11.71584892272949
0, 6, 14, 10.35772705078125
0, 6, 15, 16.95231628417969
0, 6, 16, 28.32831382751465
0, 6, 17, 54.51653671264648
0, 6, 18, 171.5174255371094
0, 6, 19, 276.449951171875
0, 6, 20, 291.5588684082031
0, 6, 21, 314.2836608886719
0, 6, 22, 320.0904846191406
0, 6, 23, 306.9627380371094
0, 6, 24, 315.5471801757812
0, 6, 25, 317.4356994628906
0, 6, 26, 320.5723266601562
0, 6, 27, 332.5968017578125
0, 6, 28, 295.1823120117188
0, 6, 29, 329.985595703125
0, 6, 30, 280.9421997070312
0, 6, 31, 288.8761596679688
0, 6, 32, 340.9093017578125
0, 6, 33, 303.0472412109375
0, 6, 34, 340.0210571289062
0, 6, 35, 321.7705993652344
0, 6, 36, 274.72314453125
0, 6, 37, 290.4483032226562
0, 6, 38, 312.7311096191406
0, 6, 39, 301.0992126464844
0, 6, 40, 283.7397766113281
0, 6, 41, 297.7860717773438
0, 6, 42, 306.1907653808594
0, 6, 43, 287.9246826171875
0, 6, 44, 279.4655151367188
0, 6, 45, 320.3127136230469
0, 6, 46, 300.283203125
0, 6, 47, 331.4656677246094
0, 6, 48, 291.4679870605469
0, 6, 49, 311.634765625
0, 6, 50, 328.1458435058594
0, 6, 51, 310.5504760742188
0, 6, 52, 320.0825805664062
0, 6, 53, 329.2711791992188
0, 6, 54, 305.6654357910156
0, 6, 55, 306.439453125
0, 6, 56, 293.4116821289062
0, 6, 57, 312.1204528808594
0, 6, 58, 261.2106018066406
0, 6, 59, 302.467529296875
0, 6, 60, 312.3218383789062
0, 6, 61, 271.3382263183594
0, 6, 62, 334.4906311035156
0, 6, 63, 321.7115173339844
0, 6, 64, 290.9483642578125
0, 6, 65, 283.86181640625
0, 6, 66, 302.8999328613281
0, 6, 67, 311.0454406738281
0, 6, 68, 294.8228454589844
0, 6, 69, 278.5151062011719
0, 6, 70, 273.7947692871094
0, 6, 71, 288.8035888671875
0, 6, 72, 311.4251098632812
0, 6, 73, 292.8843383789062
0, 6, 74, 330.8855895996094
0, 6, 75, 344.2627258300781
0, 6, 76, 297.3909606933594
0, 6, 77, 288.1976318359375
0, 6, 78, 277.1615905761719
0, 6, 79, 293.7725219726562
0, 6, 80, 300.4940185546875
0, 6, 81, 313.9697570800781
0, 6, 82, 320.0869445800781
0, 6, 83, 318.5789794921875
0, 6, 84, 298.3389892578125
0, 6, 85, 300.3685913085938
0, 6, 86, 331.4378967285156
0, 6, 87, 292.4754333496094
0, 6, 88, 306.3363342285156
0, 6, 89, 304.9983825683594
0, 6, 90, 301.3847961425781
0, 6, 91, 313.212158203125
0, 6, 92, 286.2657775878906
0, 6, 93, 293.9871520996094
0, 6, 94, 272.0019226074219
0, 6, 95, 302.5573425292969
0, 6, 96, 348.5231018066406
0, 6, 97, 309.5852661132812
0, 6, 98, 301.5069274902344
0, 6, 99, 271.4088134765625
0, 6, 100, 311.2379150390625
0, 6, 101, 292.2142028808594
0, 6, 102, 306.5073852539062
0, 6, 103, 306.6699829101562
0, 6, 104, 293.9828491210938
0, 6, 105, 300.4700012207031
0, 6, 106, 307.4425048828125
0, 6, 107, 306.2494506835938
0, 6, 108, 267.1181945800781
0, 6, 109, 186.6136016845703
0, 6, 110, 54.09305572509766
0, 6, 111, 21.94619750976562
0, 6, 112, 12.49819660186768
0, 6, 113, 11.40985870361328
0, 6, 114, 13.59444141387939
0, 6, 115, 10.65308475494385
0, 6, 116, 7.920251369476318
0, 6, 117, 7.037161350250244
0, 6, 118, 11.08630466461182
0, 6, 119, 11.48161888122559
0, 6, 120, 4.611047744750977
0, 6, 121, 6.155947208404541
0, 6, 122, 8.344555854797363
0, 6, 123, 4.577910423278809
0, 6, 124, 6.008315563201904
0, 6, 125, 6.200655460357666
0, 6, 126, 3.576020002365112
0, 6, 127, 7.358470439910889
0, 7, 0, 6.428511142730713
0, 7, 1, 3.237823963165283
0, 7, 2, 5.13551664352417
0, 7, 3, 3.932330369949341
0, 7, 4, 4.399985313415527
0, 7, 5, 3.979433536529541
0, 7, 6, 6.98607349395752
0, 7, 7, 4.271984100341797
0, 7, 8, 6.754082202911377
0, 7, 9, 7.351308345794678
0, 7, 10, 9.877506256103516
0, 7, 11, 11.30293083190918
0, 7, 12, 11.78156089782715
0, 7, 13, 11.02571582794189
0, 7, 14, 10.39245986938477
0, 7, 15, 15.5157642364502
0, 7, 16, 26.52853775024414
0, 7, 17, 98.60392761230469
0, 7, 18, 219.0471801757812
0, 7, 19, 288.7797546386719
0, 7, 20, 297.9619445800781
0, 7, 21, 277.3002624511719
0, 7, 22, 299.38671875
0, 7, 23, 289.2136535644531
0, 7, 24, 313.8116455078125
0, 7, 25, 327.2027587890625
0, 7, 26, 277.2182006835938
0, 7, 27, 297.7518920898438
0, 7, 28, 328.179931640625
0, 7, 29, 318.2396545410156
0, 7, 30, 303.1854858398438
0, 7, 31, 277.8930053710938
0, 7, 32, 304.2316284179688
0, 7, 33, 262.2259216308594
0, 7, 34, 298.3401184082031
0, 7, 35, 320.8281555175781
0, 7, 36, 332.2417602539062
0, 7, 37, 324.8804626464844
0, 7, 38, 298.679931640625
0, 7, 39, 305.2942810058594
0, 7, 40, 289.8104858398438
0, 7, 41, 272.6301879882812
0, 7, 42, 303.5714416503906
0, 7, 43, 277.0216674804688
0, 7, 44, 303.3365478515625
0, 7, 45, 293.0798645019531
0, 7, 46, 281.5252685546875
0, 7, 47, 328.8362121582031
0, 7, 48, 286.3503723144531
0, 7, 49, 302.7912292480469
0, 7, 50, 323.1421508789062
0, 7, 51, 298.8098754882812
0, 7, 52, 326.0570068359375
0, 7, 53, 308.6732788085938
0, 7, 54, 322.6185607910156
0, 7, 55, 306.4595947265625
0, 7, 56, 280.1123046875
0, 7, 57, 282.3276672363281
0, 7, 58, 297.0367736816406
0, 7, 59, 292.1562194824219
0, 7, 60, 325.0172424316406
0, 7, 61, 276.9002685546875
0, 7, 62, 298.1051635742188
0, 7, 63, 292.7420043945312
0, 7, 64, 306.0504150390625
0, 7, 65, 332.233154296875
0, 7, 66, 322.6046142578125
0, 7, 67, 302.5703125
0, 7, 68, 279.8678588867188
0, 7, 69, 294.8621520996094
0, 7, 70, 300.8756713867188
0, 7, 71, 310.4936828613281
0, 7, 72, 284.1974182128906
0, 7, 73, 294.9966125488281
0, 7, 74, 344.0245056152344
0, 7, 75, 319.0515747070312
0, 7, 76, 325.8216552734375
0, 7, 77, 282.9689331054688
0, 7, 78, 300.8779602050781
0, 7, 79, 297.0224304199219
0, 7, 80, 312.5157470703125
0, 7, 81, 318.3735961914062
0, 7, 82, 328.4570922851562
0, 7, 83, 317.8726196289062
0, 7, 84, 311.2241516113281
0, 7, 85, 272.2772216796875
0, 7, 86, 310.002197265625
0, 7, 87, 312.2655029296875
0, 7, 88, 305.7102355957031
0, 7, 89, 293.317626953125
0, 7, 90, 308.9854736328125
0, 7, 91, 315.0693054199219
0, 7, 92, 286.4154968261719
0, 7, 93, 309.5469970703125
0, 7, 94, 273.6194763183594
0, 7, 95, 295.6130981445312
0, 7, 96, 330.4237060546875
0, 7, 97, 295.8391418457031
0, 7, 98, 291.0589294433594
0, 7, 99, 312.427734375
0, 7, 100, 280.991455078125
0, 7, 101, 274.0470581054688
0, 7, 102, 290.7904968261719
0, 7, 103, 291.9764404296875
0, 7, 104, 274.1109313964844
0, 7, 105, 305.057373046875
0, 7, 106, 317.4832763671875
0, 7, 107, 297.9075317382812
0, 7, 108, 273.7860412597656
0, 7, 109, 236.4983062744141
0, 7, 110, 97.2052001953125
0, 7, 111, 24.3172721862793
0, 7, 112, 14.40806102752686
0, 7, 113, 16.03351211547852
0, 7, 114, 15.56332206726074
0, 7, 115, 13.48425960540771
0, 7, 116, 10.96968841552734
0, 7, 117, 9.990303039550781
0, 7, 118, 8.1201171875
0, 7, 119, 7.9364914894104
0, 7, 120, 4.488082408905029
0, 7, 121, 10.67290019989014
0, 7, 122, 4.582692623138428
0, 7, 123, 6.097648620605469
0, 7, 124, 2.607002258300781
0, 7, 125, 9.460346221923828
0, 7, 126, 7.684614658355713
0, 7, 127, 5.13587474822998
0, 8, 0, 6.779026031494141
0, 8, 1, 4.236437797546387
0, 8, 2, 3.336222171783447
0, 8, 3, 2.477811098098755
0, 8, 4, 4.928300380706787
0, 8, 5, 4.679065227508545
0, 8, 6, 6.169044494628906
0, 8, 7, 5.731446743011475
0, 8, 8, 8.385961532592773
0, 8, 9, 6.529099464416504
0, 8, 10, 10.40855121612549
0, 8, 11, 12.30909729003906
0, 8, 12, 13.55445384979248
0, 8, 13, 16.96695518493652
0, 8, 14, 12.96230506896973
0, 8, 15, 17.04354095458984
0, 8, 16, 32.73118209838867
0, 8, 17, 132.8064117431641
0, 8, 18, 243.5121307373047
0, 8, 19, 298.4501953125
0, 8, 20, 287.4000549316406
0, 8, 21, 305.9443969726562
0, 8, 22, 294.1430053710938
0, 8, 23, 274.2257995605469
0, 8, 24, 267.9756469726562
0, 8, 25, 276.3187561035156
0, 8, 26, 305.6873474121094
0, 8, 27, 306.8129577636719
0, 8, 28, 307.5132751464844
0, 8, 29, 318.5693359375
0, 8, 30, 315.8693542480469
0, 8, 31, 303.2445373535156
0, 8, 32, 282.0010681152344
0, 8, 33, 295.3602294921875
0, 8, 34, 287.5398559570312
0, 8, 35, 279.1707763671875
0, 8, 36, 315.5984497070312
0, 8, 37, 337.9400939941406
0, 8, 38, 330.8483276367188
0, 8, 39, 282.3832092285156
0, 8, 40, 305.9063110351562
0, 8, 41, 290.9855346679688
0, 8, 42, 328.5986938476562
