# TOPAS Version: 3.1.p3
# Parameter File: batch_inserts_210.txt
# Results for scorer Readout_Adipose
# Scored in component: MyBox
# X in 1 bin  of 0.75 cm
# Y in 512 bins of 0.0783984 cm
# Z in 128 bins of 0.078125 cm
# EnergyDeposit ( MeV ) : Sum   
0, 0, 0, 19.82899284362793
0, 0, 1, 23.55785369873047
0, 0, 2, 29.46539688110352
0, 0, 3, 22.58738899230957
0, 0, 4, 17.99856758117676
0, 0, 5, 22.4681224822998
0, 0, 6, 23.74270248413086
0, 0, 7, 32.27200698852539
0, 0, 8, 19.2920970916748
0, 0, 9, 19.81645202636719
0, 0, 10, 27.82040596008301
0, 0, 11, 28.84353637695312
0, 0, 12, 36.54051208496094
0, 0, 13, 32.81408309936523
0, 0, 14, 36.90739822387695
0, 0, 15, 48.5888671875
0, 0, 16, 43.01782989501953
0, 0, 17, 45.46071243286133
0, 0, 18, 73.44374847412109
0, 0, 19, 191.1518402099609
0, 0, 20, 698.8076171875
0, 0, 21, 1191.379638671875
0, 0, 22, 1241.334228515625
0, 0, 23, 1278.6416015625
0, 0, 24, 1278.593505859375
0, 0, 25, 1356.714233398438
0, 0, 26, 1272.364990234375
0, 0, 27, 1280.347290039062
0, 0, 28, 1321.825927734375
0, 0, 29, 1273.022216796875
0, 0, 30, 1260.436767578125
0, 0, 31, 1278.024169921875
0, 0, 32, 1260.328247070312
0, 0, 33, 1239.04248046875
0, 0, 34, 1320.9345703125
0, 0, 35, 1300.8759765625
0, 0, 36, 1248.995971679688
0, 0, 37, 1279.52734375
0, 0, 38, 1248.015991210938
0, 0, 39, 1246.5908203125
0, 0, 40, 1220.421875
0, 0, 41, 1267.2001953125
0, 0, 42, 1254.018798828125
0, 0, 43, 1269.729125976562
0, 0, 44, 1226.485717773438
0, 0, 45, 1288.314575195312
0, 0, 46, 1260.54150390625
0, 0, 47, 1238.177490234375
0, 0, 48, 1277.909912109375
0, 0, 49, 1288.691284179688
0, 0, 50, 1310.427612304688
0, 0, 51, 1265.817016601562
0, 0, 52, 1356.582397460938
0, 0, 53, 1324.42822265625
0, 0, 54, 1295.94580078125
0, 0, 55, 1232.51318359375
0, 0, 56, 1319.476684570312
0, 0, 57, 1289.358276367188
0, 0, 58, 1253.12890625
0, 0, 59, 1332.681884765625
0, 0, 60, 1330.299560546875
0, 0, 61, 1261.051391601562
0, 0, 62, 1237.896362304688
0, 0, 63, 1278.227416992188
0, 0, 64, 1327.76416015625
0, 0, 65, 1284.904052734375
0, 0, 66, 1319.395385742188
0, 0, 67, 1212.974975585938
0, 0, 68, 1309.313110351562
0, 0, 69, 1327.070068359375
0, 0, 70, 1345.190673828125
0, 0, 71, 1290.57763671875
0, 0, 72, 1311.548461914062
0, 0, 73, 1235.055053710938
0, 0, 74, 1291.00146484375
0, 0, 75, 1296.205322265625
0, 0, 76, 1254.948486328125
0, 0, 77, 1286.122436523438
0, 0, 78, 1314.289794921875
0, 0, 79, 1326.130981445312
0, 0, 80, 1260.478393554688
0, 0, 81, 1322.774536132812
0, 0, 82, 1282.696899414062
0, 0, 83, 1293.343139648438
0, 0, 84, 1326.377319335938
0, 0, 85, 1234.669189453125
0, 0, 86, 1265.303588867188
0, 0, 87, 1249.080688476562
0, 0, 88, 1256.1298828125
0, 0, 89, 1338.97900390625
0, 0, 90, 1276.543579101562
0, 0, 91, 1354.69921875
0, 0, 92, 1302.943481445312
0, 0, 93, 1274.957763671875
0, 0, 94, 1244.516845703125
0, 0, 95, 1328.045043945312
0, 0, 96, 1287.6328125
0, 0, 97, 1325.205322265625
0, 0, 98, 1258.089111328125
0, 0, 99, 1251.00439453125
0, 0, 100, 1286.901611328125
0, 0, 101, 1316.400512695312
0, 0, 102, 1236.537109375
0, 0, 103, 1318.995483398438
0, 0, 104, 1263.220703125
0, 0, 105, 1267.40576171875
0, 0, 106, 1208.640625
0, 0, 107, 779.7581787109375
0, 0, 108, 191.5758514404297
0, 0, 109, 69.2314453125
0, 0, 110, 63.86361694335938
0, 0, 111, 39.19070816040039
0, 0, 112, 35.11520004272461
0, 0, 113, 32.68624877929688
0, 0, 114, 38.31307220458984
0, 0, 115, 35.99686431884766
0, 0, 116, 25.22199249267578
0, 0, 117, 30.89244651794434
0, 0, 118, 24.94409561157227
0, 0, 119, 21.64462471008301
0, 0, 120, 26.62836074829102
0, 0, 121, 30.47490501403809
0, 0, 122, 22.04469680786133
0, 0, 123, 20.1878776550293
0, 0, 124, 18.54308700561523
0, 0, 125, 21.19411468505859
0, 0, 126, 25.03646278381348
0, 0, 127, 15.8220682144165
0, 1, 0, 22.62843322753906
0, 1, 1, 19.60863494873047
0, 1, 2, 23.78211784362793
0, 1, 3, 27.1636791229248
0, 1, 4, 30.03238487243652
0, 1, 5, 29.02533721923828
0, 1, 6, 25.35766220092773
0, 1, 7, 30.54853820800781
0, 1, 8, 35.81362915039062
0, 1, 9, 32.95913696289062
0, 1, 10, 34.7481689453125
0, 1, 11, 41.39443206787109
0, 1, 12, 41.25229263305664
0, 1, 13, 43.08535766601562
0, 1, 14, 39.12687301635742
0, 1, 15, 45.05168914794922
0, 1, 16, 57.89220809936523
0, 1, 17, 61.4597053527832
0, 1, 18, 97.40047454833984
0, 1, 19, 395.6343994140625
0, 1, 20, 1045.19873046875
0, 1, 21, 1373.285522460938
0, 1, 22, 1482.454223632812
0, 1, 23, 1460.2314453125
0, 1, 24, 1446.095947265625
0, 1, 25, 1424.804565429688
0, 1, 26, 1474.089721679688
0, 1, 27, 1465.7744140625
0, 1, 28, 1484.561401367188
0, 1, 29, 1482.859741210938
0, 1, 30, 1504.49658203125
0, 1, 31, 1484.13525390625
0, 1, 32, 1410.122924804688
0, 1, 33, 1495.87548828125
0, 1, 34, 1503.179321289062
0, 1, 35, 1461.20263671875
0, 1, 36, 1488.2919921875
0, 1, 37, 1408.658325195312
0, 1, 38, 1392.802124023438
0, 1, 39, 1524.311645507812
0, 1, 40, 1465.113037109375
0, 1, 41, 1485.823608398438
0, 1, 42, 1491.884399414062
0, 1, 43, 1501.741455078125
0, 1, 44, 1450.555541992188
0, 1, 45, 1486.826904296875
0, 1, 46, 1423.660888671875
0, 1, 47, 1430.996704101562
0, 1, 48, 1434.9375
0, 1, 49, 1486.925048828125
0, 1, 50, 1439.224853515625
0, 1, 51, 1476.64111328125
0, 1, 52, 1473.87939453125
0, 1, 53, 1473.853637695312
0, 1, 54, 1505.120727539062
0, 1, 55, 1492.856689453125
0, 1, 56, 1468.74267578125
0, 1, 57, 1454.018676757812
0, 1, 58, 1431.27392578125
0, 1, 59, 1482.719482421875
0, 1, 60, 1461.143920898438
0, 1, 61, 1450.348999023438
0, 1, 62, 1458.682983398438
0, 1, 63, 1420.489990234375
0, 1, 64, 1473.757690429688
0, 1, 65, 1416.725341796875
0, 1, 66, 1440.937744140625
0, 1, 67, 1456.144287109375
0, 1, 68, 1391.311767578125
0, 1, 69, 1464.32177734375
0, 1, 70, 1430.208618164062
0, 1, 71, 1494.297973632812
0, 1, 72, 1434.391357421875
0, 1, 73, 1489.743286132812
0, 1, 74, 1472.7705078125
0, 1, 75, 1477.672607421875
0, 1, 76, 1458.515380859375
0, 1, 77, 1462.832885742188
0, 1, 78, 1451.468383789062
0, 1, 79, 1501.55810546875
0, 1, 80, 1452.003295898438
0, 1, 81, 1422.315063476562
0, 1, 82, 1474.515380859375
0, 1, 83, 1459.143188476562
0, 1, 84, 1534.462280273438
0, 1, 85, 1445.873657226562
0, 1, 86, 1404.66259765625
0, 1, 87, 1416.889038085938
0, 1, 88, 1472.435180664062
0, 1, 89, 1471.506103515625
0, 1, 90, 1421.587280273438
0, 1, 91, 1463.884765625
0, 1, 92, 1409.583740234375
0, 1, 93, 1458.897216796875
0, 1, 94, 1464.643676757812
0, 1, 95, 1421.6015625
0, 1, 96, 1492.47265625
0, 1, 97, 1514.463256835938
0, 1, 98, 1475.29345703125
0, 1, 99, 1420.348510742188
0, 1, 100, 1449.38525390625
0, 1, 101, 1415.541259765625
0, 1, 102, 1438.667724609375
0, 1, 103, 1412.005493164062
0, 1, 104, 1406.354614257812
0, 1, 105, 1462.025634765625
0, 1, 106, 1370.07470703125
0, 1, 107, 1024.164428710938
0, 1, 108, 401.5524291992188
0, 1, 109, 87.70394134521484
0, 1, 110, 60.72724914550781
0, 1, 111, 54.31135940551758
0, 1, 112, 50.48457717895508
0, 1, 113, 35.16867446899414
0, 1, 114, 35.75579452514648
0, 1, 115, 38.06968688964844
0, 1, 116, 33.33310699462891
0, 1, 117, 33.54868698120117
0, 1, 118, 36.74135589599609
0, 1, 119, 29.75136756896973
0, 1, 120, 27.2236328125
0, 1, 121, 28.22543144226074
0, 1, 122, 19.55487442016602
0, 1, 123, 21.96668815612793
0, 1, 124, 29.1849536895752
0, 1, 125, 22.61786842346191
0, 1, 126, 17.2890510559082
0, 1, 127, 23.28422927856445
0, 2, 0, 17.78883743286133
0, 2, 1, 25.20574569702148
0, 2, 2, 25.60196495056152
0, 2, 3, 26.09658432006836
0, 2, 4, 22.0793571472168
0, 2, 5, 27.14877319335938
0, 2, 6, 23.80124282836914
0, 2, 7, 23.63037300109863
0, 2, 8, 25.14408111572266
0, 2, 9, 26.83302116394043
0, 2, 10, 29.30355644226074
0, 2, 11, 32.39040374755859
0, 2, 12, 39.22399139404297
0, 2, 13, 44.31144332885742
0, 2, 14, 44.20671463012695
0, 2, 15, 48.10273742675781
0, 2, 16, 66.40489959716797
0, 2, 17, 76.75646209716797
0, 2, 18, 141.5568084716797
0, 2, 19, 607.5654907226562
0, 2, 20, 1289.390502929688
0, 2, 21, 1437.9501953125
0, 2, 22, 1458.274047851562
0, 2, 23, 1405.617553710938
0, 2, 24, 1442.52392578125
0, 2, 25, 1523.008422851562
0, 2, 26, 1554.546752929688
0, 2, 27, 1456.493774414062
0, 2, 28, 1459.602661132812
0, 2, 29, 1465.24365234375
0, 2, 30, 1466.380615234375
0, 2, 31, 1535.72314453125
0, 2, 32, 1504.071411132812
0, 2, 33, 1444.03173828125
0, 2, 34, 1477.64990234375
0, 2, 35, 1468.193725585938
0, 2, 36, 1526.226928710938
0, 2, 37, 1544.5517578125
0, 2, 38, 1503.078735351562
0, 2, 39, 1465.933837890625
0, 2, 40, 1503.344482421875
0, 2, 41, 1521.91748046875
0, 2, 42, 1504.93603515625
0, 2, 43, 1545.402709960938
0, 2, 44, 1454.326416015625
0, 2, 45, 1486.351684570312
0, 2, 46, 1424.029418945312
0, 2, 47, 1443.300170898438
0, 2, 48, 1392.23583984375
0, 2, 49, 1460.699096679688
0, 2, 50, 1441.794921875
0, 2, 51, 1445.618896484375
0, 2, 52, 1494.744262695312
0, 2, 53, 1521.131225585938
0, 2, 54, 1526.576782226562
0, 2, 55, 1490.16943359375
0, 2, 56, 1462.567260742188
0, 2, 57, 1414.10009765625
0, 2, 58, 1458.597412109375
0, 2, 59, 1450.942626953125
0, 2, 60, 1471.401977539062
0, 2, 61, 1449.12353515625
0, 2, 62, 1470.851684570312
0, 2, 63, 1506.693969726562
0, 2, 64, 1462.741333007812
0, 2, 65, 1424.869140625
0, 2, 66, 1492.205200195312
0, 2, 67, 1504.08642578125
0, 2, 68, 1544.580322265625
0, 2, 69, 1532.530639648438
0, 2, 70, 1508.86669921875
0, 2, 71, 1466.028686523438
0, 2, 72, 1516.259887695312
0, 2, 73, 1521.412231445312
0, 2, 74, 1488.951416015625
0, 2, 75, 1502.068481445312
0, 2, 76, 1446.371215820312
0, 2, 77, 1502.176147460938
0, 2, 78, 1431.550903320312
0, 2, 79, 1540.905395507812
0, 2, 80, 1480.630493164062
0, 2, 81, 1463.50537109375
0, 2, 82, 1559.035278320312
0, 2, 83, 1517.542236328125
0, 2, 84, 1496.2353515625
0, 2, 85, 1516.591064453125
0, 2, 86, 1541.091186523438
0, 2, 87, 1489.822509765625
0, 2, 88, 1541.710327148438
0, 2, 89, 1467.682250976562
0, 2, 90, 1428.062377929688
0, 2, 91, 1404.09521484375
0, 2, 92, 1479.728881835938
0, 2, 93, 1495.9130859375
0, 2, 94, 1452.591186523438
0, 2, 95, 1544.046020507812
0, 2, 96, 1516.482421875
0, 2, 97, 1453.582763671875
0, 2, 98, 1463.199462890625
0, 2, 99, 1399.423217773438
0, 2, 100, 1475.068969726562
0, 2, 101, 1483.208374023438
0, 2, 102, 1459.244262695312
0, 2, 103, 1393.857055664062
0, 2, 104, 1408.105712890625
0, 2, 105, 1401.7822265625
0, 2, 106, 1457.030395507812
0, 2, 107, 1277.511108398438
0, 2, 108, 621.1583862304688
0, 2, 109, 169.7577667236328
0, 2, 110, 66.23971557617188
0, 2, 111, 66.70303344726562
0, 2, 112, 44.57882308959961
0, 2, 113, 42.56259155273438
0, 2, 114, 37.80914306640625
0, 2, 115, 42.94910049438477
0, 2, 116, 35.13800811767578
0, 2, 117, 40.71366119384766
0, 2, 118, 36.27245712280273
0, 2, 119, 32.89251327514648
0, 2, 120, 33.47573089599609
0, 2, 121, 19.28879356384277
0, 2, 122, 25.72945976257324
0, 2, 123, 25.05677604675293
0, 2, 124, 23.82836723327637
0, 2, 125, 29.58447265625
0, 2, 126, 21.10180473327637
0, 2, 127, 22.0042552947998
0, 3, 0, 15.29998302459717
0, 3, 1, 21.90981292724609
0, 3, 2, 24.80488586425781
0, 3, 3, 17.64969444274902
0, 3, 4, 19.6397876739502
0, 3, 5, 24.20767021179199
0, 3, 6, 33.12857437133789
0, 3, 7, 33.06038284301758
0, 3, 8, 28.20453834533691
0, 3, 9, 30.7132568359375
0, 3, 10, 34.4278564453125
0, 3, 11, 39.37289047241211
0, 3, 12, 43.07633590698242
0, 3, 13, 53.39309310913086
0, 3, 14, 57.09316635131836
0, 3, 15, 57.27597045898438
0, 3, 16, 65.67666625976562
0, 3, 17, 88.57380676269531
0, 3, 18, 244.3826751708984
0, 3, 19, 874.506103515625
0, 3, 20, 1382.376831054688
0, 3, 21, 1503.741577148438
0, 3, 22, 1466.588256835938
0, 3, 23, 1449.138793945312
0, 3, 24, 1442.0361328125
0, 3, 25, 1463.857543945312
0, 3, 26, 1496.448364257812
0, 3, 27, 1467.951538085938
0, 3, 28, 1486.730346679688
0, 3, 29, 1544.411376953125
0, 3, 30, 1569.143432617188
0, 3, 31, 1519.256591796875
0, 3, 32, 1546.414672851562
0, 3, 33, 1543.646362304688
0, 3, 34, 1492.467895507812
0, 3, 35, 1464.018798828125
0, 3, 36, 1450.778076171875
0, 3, 37, 1511.483276367188
0, 3, 38, 1515.905029296875
0, 3, 39, 1441.644897460938
0, 3, 40, 1440.790283203125
0, 3, 41, 1560.255615234375
0, 3, 42, 1457.0849609375
0, 3, 43, 1461.483520507812
0, 3, 44, 1452.37646484375
0, 3, 45, 1506.150268554688
0, 3, 46, 1505.991455078125
0, 3, 47, 1444.378295898438
0, 3, 48, 1511.731079101562
0, 3, 49, 1454.022705078125
0, 3, 50, 1488.575073242188
0, 3, 51, 1539.171875
0, 3, 52, 1538.302124023438
0, 3, 53, 1465.663696289062
0, 3, 54, 1541.336547851562
0, 3, 55, 1504.552734375
0, 3, 56, 1435.214599609375
0, 3, 57, 1500.017456054688
0, 3, 58, 1511.901000976562
0, 3, 59, 1507.020141601562
0, 3, 60, 1527.675048828125
0, 3, 61, 1484.21435546875
0, 3, 62, 1491.710083007812
0, 3, 63, 1495.285522460938
0, 3, 64, 1503.619995117188
0, 3, 65, 1516.059814453125
0, 3, 66, 1559.627807617188
0, 3, 67, 1545.980590820312
0, 3, 68, 1447.594482421875
0, 3, 69, 1465.1337890625
0, 3, 70, 1388.323364257812
0, 3, 71, 1462.417846679688
0, 3, 72, 1548.345458984375
0, 3, 73, 1500.656005859375
0, 3, 74, 1471.8017578125
0, 3, 75, 1461.147216796875
0, 3, 76, 1574.367553710938
0, 3, 77, 1540.96044921875
0, 3, 78, 1432.513671875
0, 3, 79, 1491.121459960938
0, 3, 80, 1461.982299804688
0, 3, 81, 1475.17431640625
0, 3, 82, 1554.984619140625
0, 3, 83, 1513.8720703125
0, 3, 84, 1562.556030273438
0, 3, 85, 1480.243041992188
0, 3, 86, 1524.9052734375
0, 3, 87, 1536.823608398438
0, 3, 88, 1455.441162109375
0, 3, 89, 1447.16748046875
0, 3, 90, 1448.410400390625
0, 3, 91, 1418.841430664062
0, 3, 92, 1517.690795898438
0, 3, 93, 1502.383911132812
0, 3, 94, 1514.053344726562
0, 3, 95, 1544.065185546875
0, 3, 96, 1513.015625
0, 3, 97, 1468.820190429688
0, 3, 98, 1435.228637695312
0, 3, 99, 1466.675903320312
0, 3, 100, 1462.217895507812
0, 3, 101, 1471.550415039062
0, 3, 102, 1522.225341796875
0, 3, 103, 1553.970581054688
0, 3, 104, 1498.908203125
0, 3, 105, 1516.042358398438
0, 3, 106, 1481.617309570312
0, 3, 107, 1342.80419921875
0, 3, 108, 870.8644409179688
0, 3, 109, 265.4439392089844
0, 3, 110, 107.9889678955078
0, 3, 111, 63.07436370849609
0, 3, 112, 56.95111846923828
0, 3, 113, 47.81334686279297
0, 3, 114, 47.6753044128418
0, 3, 115, 50.16595077514648
0, 3, 116, 41.90868377685547
0, 3, 117, 37.06673812866211
0, 3, 118, 34.82819366455078
0, 3, 119, 27.79944229125977
0, 3, 120, 30.31887626647949
0, 3, 121, 24.97861480712891
0, 3, 122, 25.05356979370117
0, 3, 123, 23.69262313842773
0, 3, 124, 22.4446849822998
0, 3, 125, 24.9953784942627
0, 3, 126, 27.83003234863281
0, 3, 127, 16.22783088684082
0, 4, 0, 18.48734664916992
0, 4, 1, 21.12735748291016
0, 4, 2, 23.7372989654541
0, 4, 3, 20.92275428771973
0, 4, 4, 23.17719078063965
0, 4, 5, 28.87161445617676
0, 4, 6, 33.44816589355469
0, 4, 7, 31.92189598083496
0, 4, 8, 25.54195022583008
0, 4, 9, 37.28897094726562
0, 4, 10, 28.50316619873047
0, 4, 11, 35.0932731628418
0, 4, 12, 47.14596176147461
0, 4, 13, 52.56621932983398
0, 4, 14, 48.80978012084961
0, 4, 15, 57.29861068725586
0, 4, 16, 73.15653228759766
0, 4, 17, 115.4623947143555
0, 4, 18, 448.3620300292969
0, 4, 19, 1185.158203125
0, 4, 20, 1445.580444335938
0, 4, 21, 1419.777221679688
0, 4, 22, 1431.57080078125
0, 4, 23, 1451.494384765625
0, 4, 24, 1475.671875
0, 4, 25, 1406.455810546875
0, 4, 26, 1536.640625
0, 4, 27, 1545.192138671875
0, 4, 28, 1507.289428710938
0, 4, 29, 1516.200317382812
0, 4, 30, 1527.43115234375
0, 4, 31, 1573.793823242188
0, 4, 32, 1516.138549804688
0, 4, 33, 1493.888671875
0, 4, 34, 1469.579223632812
0, 4, 35, 1554.863647460938
0, 4, 36, 1502.886352539062
0, 4, 37, 1511.927612304688
0, 4, 38, 1529.901489257812
0, 4, 39, 1467.609741210938
0, 4, 40, 1514.22314453125
0, 4, 41, 1588.210205078125
0, 4, 42, 1563.876098632812
0, 4, 43, 1475.724975585938
0, 4, 44, 1495.444580078125
0, 4, 45, 1518.029418945312
0, 4, 46, 1470.105590820312
0, 4, 47, 1503.248168945312
0, 4, 48, 1527.61279296875
0, 4, 49, 1476.953247070312
0, 4, 50, 1517.629760742188
0, 4, 51, 1493.317260742188
0, 4, 52, 1490.552856445312
0, 4, 53, 1459.318969726562
0, 4, 54, 1441.667846679688
0, 4, 55, 1526.411865234375
0, 4, 56, 1458.59814453125
0, 4, 57, 1498.2099609375
0, 4, 58, 1461.58251953125
0, 4, 59, 1462.923950195312
0, 4, 60, 1527.6435546875
0, 4, 61, 1505.2724609375
0, 4, 62, 1501.865112304688
0, 4, 63, 1545.32275390625
0, 4, 64, 1596.113159179688
0, 4, 65, 1422.705078125
0, 4, 66, 1511.754028320312
0, 4, 67, 1521.71484375
0, 4, 68, 1495.39990234375
0, 4, 69, 1468.25927734375
0, 4, 70, 1546.807861328125
0, 4, 71, 1519.289794921875
0, 4, 72, 1528.751953125
0, 4, 73, 1493.353393554688
0, 4, 74, 1489.071411132812
0, 4, 75, 1540.164794921875
0, 4, 76, 1480.60791015625
0, 4, 77, 1501.1767578125
0, 4, 78, 1500.5947265625
0, 4, 79, 1484.649291992188
0, 4, 80, 1515.134643554688
0, 4, 81, 1527.2216796875
0, 4, 82, 1568.794799804688
0, 4, 83, 1500.313110351562
0, 4, 84, 1535.329345703125
0, 4, 85, 1550.649658203125
0, 4, 86, 1523.553344726562
0, 4, 87, 1497.949829101562
0, 4, 88, 1516.774536132812
0, 4, 89, 1479.188720703125
0, 4, 90, 1542.51806640625
0, 4, 91, 1551.464965820312
0, 4, 92, 1488.321411132812
0, 4, 93, 1514.87939453125
0, 4, 94, 1483.904907226562
0, 4, 95, 1511.357177734375
0, 4, 96, 1443.00048828125
0, 4, 97, 1410.922485351562
0, 4, 98, 1553.866577148438
0, 4, 99, 1507.837036132812
0, 4, 100, 1492.32177734375
0, 4, 101, 1446.107666015625
0, 4, 102, 1449.479125976562
0, 4, 103, 1515.156127929688
0, 4, 104, 1510.8505859375
0, 4, 105, 1555.94580078125
0, 4, 106, 1477.227172851562
0, 4, 107, 1455.326416015625
0, 4, 108, 1119.958251953125
0, 4, 109, 435.6112670898438
0, 4, 110, 97.33379364013672
0, 4, 111, 68.71793365478516
0, 4, 112, 61.70219802856445
0, 4, 113, 51.10673522949219
0, 4, 114, 54.82796859741211
0, 4, 115, 47.35456848144531
0, 4, 116, 36.65699005126953
0, 4, 117, 42.92521667480469
0, 4, 118, 39.5783805847168
0, 4, 119, 37.86216735839844
0, 4, 120, 35.72158432006836
0, 4, 121, 26.03433609008789
0, 4, 122, 31.2867259979248
0, 4, 123, 27.23237419128418
0, 4, 124, 26.80576324462891
0, 4, 125, 34.52590560913086
0, 4, 126, 21.72736358642578
0, 4, 127, 21.46805000305176
0, 5, 0, 21.87569236755371
0, 5, 1, 23.73995971679688
0, 5, 2, 32.73846817016602
0, 5, 3, 28.41643714904785
0, 5, 4, 23.28738212585449
0, 5, 5, 31.20162010192871
0, 5, 6, 30.39581871032715
0, 5, 7, 34.05263900756836
0, 5, 8, 31.72610282897949
0, 5, 9, 29.01332855224609
0, 5, 10, 35.10150527954102
0, 5, 11, 38.68672180175781
0, 5, 12, 39.00596237182617
0, 5, 13, 45.78084182739258
0, 5, 14, 64.60083770751953
0, 5, 15, 85.97422790527344
0, 5, 16, 81.85186004638672
0, 5, 17, 158.3562774658203
0, 5, 18, 676.7863159179688
0, 5, 19, 1343.468505859375
0, 5, 20, 1523.921752929688
0, 5, 21, 1493.82470703125
0, 5, 22, 1495.157958984375
0, 5, 23, 1530.086181640625
0, 5, 24, 1465.898681640625
0, 5, 25, 1425.30322265625
0, 5, 26, 1523.570922851562
0, 5, 27, 1540.744384765625
0, 5, 28, 1494.662353515625
0, 5, 29, 1520.261108398438
0, 5, 30, 1491.451049804688
0, 5, 31, 1499.111694335938
0, 5, 32, 1595.972412109375
0, 5, 33, 1502.477294921875
0, 5, 34, 1487.954956054688
0, 5, 35, 1513.551513671875
0, 5, 36, 1440.171020507812
0, 5, 37, 1530.12890625
0, 5, 38, 1548.576538085938
0, 5, 39, 1550.038696289062
0, 5, 40, 1498.614013671875
0, 5, 41, 1477.317016601562
0, 5, 42, 1550.350830078125
0, 5, 43, 1529.841674804688
0, 5, 44, 1542.536376953125
0, 5, 45, 1507.10107421875
0, 5, 46, 1493.4326171875
0, 5, 47, 1483.820922851562
0, 5, 48, 1501.058959960938
0, 5, 49, 1526.752319335938
0, 5, 50, 1509.434692382812
0, 5, 51, 1521.285522460938
0, 5, 52, 1430.5478515625
0, 5, 53, 1521.964111328125
0, 5, 54, 1519.83642578125
0, 5, 55, 1520.096069335938
0, 5, 56, 1487.347900390625
0, 5, 57, 1543.77685546875
0, 5, 58, 1512.076538085938
0, 5, 59, 1489.017578125
0, 5, 60, 1537.819213867188
0, 5, 61, 1453.30615234375
0, 5, 62, 1590.907836914062
0, 5, 63, 1435.221923828125
0, 5, 64, 1485.860229492188
0, 5, 65, 1465.843627929688
0, 5, 66, 1528.725463867188
0, 5, 67, 1558.507080078125
0, 5, 68, 1464.579711914062
0, 5, 69, 1480.765991210938
0, 5, 70, 1486.849731445312
0, 5, 71, 1467.735107421875
0, 5, 72, 1541.053955078125
0, 5, 73, 1458.62841796875
0, 5, 74, 1494.190185546875
0, 5, 75, 1490.470458984375
0, 5, 76, 1481.738647460938
0, 5, 77, 1514.510009765625
0, 5, 78, 1525.777465820312
0, 5, 79, 1510.239501953125
0, 5, 80, 1519.464111328125
0, 5, 81, 1595.395874023438
0, 5, 82, 1521.519775390625
0, 5, 83, 1486.271118164062
0, 5, 84, 1534.2998046875
0, 5, 85, 1514.646484375
0, 5, 86, 1560.578125
0, 5, 87, 1475.197143554688
0, 5, 88, 1496.87939453125
0, 5, 89, 1479.553100585938
0, 5, 90, 1480.3251953125
0, 5, 91, 1553.810913085938
0, 5, 92, 1482.409912109375
0, 5, 93, 1558.215454101562
0, 5, 94, 1514.509887695312
0, 5, 95, 1558.406372070312
0, 5, 96, 1502.5595703125
0, 5, 97, 1506.681274414062
0, 5, 98, 1505.895751953125
0, 5, 99, 1543.5751953125
0, 5, 100, 1433.5888671875
0, 5, 101, 1428.739624023438
0, 5, 102, 1515.75537109375
0, 5, 103, 1474.51123046875
0, 5, 104, 1463.24658203125
0, 5, 105, 1493.884155273438
0, 5, 106, 1457.078979492188
0, 5, 107, 1400.266357421875
0, 5, 108, 1290.502075195312
0, 5, 109, 718.1109008789062
0, 5, 110, 188.5216369628906
0, 5, 111, 87.46086883544922
0, 5, 112, 83.98653411865234
0, 5, 113, 69.97863006591797
0, 5, 114, 62.62907791137695
0, 5, 115, 52.26487350463867
0, 5, 116, 41.62229156494141
0, 5, 117, 37.12043380737305
0, 5, 118, 38.07044982910156
0, 5, 119, 29.75502967834473
0, 5, 120, 29.36423873901367
0, 5, 121, 23.56616973876953
0, 5, 122, 32.55813980102539
0, 5, 123, 27.17667770385742
0, 5, 124, 28.65203094482422
0, 5, 125, 23.1139030456543
0, 5, 126, 20.54716873168945
0, 5, 127, 24.18612480163574
0, 6, 0, 20.62420654296875
0, 6, 1, 32.20147323608398
0, 6, 2, 30.5171070098877
0, 6, 3, 29.6926097869873
0, 6, 4, 22.6380500793457
0, 6, 5, 34.15574264526367
0, 6, 6, 37.7531623840332
0, 6, 7, 34.22057342529297
0, 6, 8, 35.05231857299805
0, 6, 9, 35.69826889038086
0, 6, 10, 39.5468635559082
0, 6, 11, 40.15628433227539
0, 6, 12, 37.03383255004883
0, 6, 13, 56.0208854675293
0, 6, 14, 60.3741569519043
0, 6, 15, 80.06092834472656
0, 6, 16, 112.3494338989258
0, 6, 17, 296.6899719238281
0, 6, 18, 903.0584716796875
0, 6, 19, 1370.767700195312
0, 6, 20, 1439.966552734375
0, 6, 21, 1531.885498046875
0, 6, 22, 1501.801147460938
0, 6, 23, 1528.953735351562
0, 6, 24, 1478.989990234375
0, 6, 25, 1529.193115234375
0, 6, 26, 1521.63525390625
0, 6, 27, 1521.006103515625
0, 6, 28, 1552.371337890625
0, 6, 29, 1572.873901367188
0, 6, 30, 1514.341552734375
0, 6, 31, 1490.917114257812
0, 6, 32, 1526.60302734375
0, 6, 33, 1493.9833984375
0, 6, 34, 1563.15771484375
0, 6, 35, 1504.2099609375
0, 6, 36, 1438.131591796875
0, 6, 37, 1548.537841796875
0, 6, 38, 1526.298828125
0, 6, 39, 1525.484985351562
0, 6, 40, 1460.538818359375
0, 6, 41, 1439.633911132812
0, 6, 42, 1518.702880859375
0, 6, 43, 1483.822265625
0, 6, 44, 1435.31396484375
0, 6, 45, 1546.077270507812
0, 6, 46, 1554.000366210938
0, 6, 47, 1494.3486328125
0, 6, 48, 1520.875732421875
0, 6, 49, 1510.693359375
0, 6, 50, 1574.74853515625
0, 6, 51, 1499.582641601562
0, 6, 52, 1561.008544921875
0, 6, 53, 1475.981567382812
0, 6, 54, 1499.19091796875
0, 6, 55, 1576.879028320312
0, 6, 56, 1520.050903320312
0, 6, 57, 1502.6513671875
0, 6, 58, 1469.719116210938
0, 6, 59, 1529.693481445312
0, 6, 60, 1473.023315429688
0, 6, 61, 1573.36328125
0, 6, 62, 1547.9951171875
0, 6, 63, 1497.801635742188
0, 6, 64, 1409.396362304688
0, 6, 65, 1490.707275390625
0, 6, 66, 1515.265014648438
0, 6, 67, 1508.861206054688
0, 6, 68, 1551.681518554688
0, 6, 69, 1487.282348632812
0, 6, 70, 1521.621215820312
0, 6, 71, 1467.228515625
0, 6, 72, 1596.79638671875
0, 6, 73, 1489.588623046875
0, 6, 74, 1553.928466796875
0, 6, 75, 1534.137817382812
0, 6, 76, 1564.916381835938
0, 6, 77, 1507.512084960938
0, 6, 78, 1444.914916992188
0, 6, 79, 1552.572631835938
0, 6, 80, 1478.471557617188
0, 6, 81, 1486.314208984375
0, 6, 82, 1508.693359375
0, 6, 83, 1525.334228515625
0, 6, 84, 1520.899047851562
0, 6, 85, 1539.638916015625
0, 6, 86, 1542.373291015625
0, 6, 87, 1568.1787109375
0, 6, 88, 1482.030883789062
0, 6, 89, 1557.31494140625
0, 6, 90, 1494.831665039062
0, 6, 91, 1542.536743164062
0, 6, 92, 1490.099365234375
0, 6, 93, 1494.674682617188
0, 6, 94, 1474.606079101562
0, 6, 95, 1509.239135742188
0, 6, 96, 1519.483642578125
0, 6, 97, 1505.92724609375
0, 6, 98, 1496.849853515625
0, 6, 99, 1479.550415039062
0, 6, 100, 1523.251220703125
0, 6, 101, 1515.343627929688
0, 6, 102, 1539.94970703125
0, 6, 103, 1502.080688476562
0, 6, 104, 1468.0302734375
0, 6, 105, 1485.999633789062
0, 6, 106, 1496.752197265625
0, 6, 107, 1502.242797851562
0, 6, 108, 1404.625854492188
0, 6, 109, 921.304931640625
0, 6, 110, 278.7633972167969
0, 6, 111, 98.06699371337891
0, 6, 112, 82.09441375732422
0, 6, 113, 58.78591918945312
0, 6, 114, 53.55397033691406
0, 6, 115, 44.15277099609375
0, 6, 116, 44.02779769897461
0, 6, 117, 42.93469619750977
0, 6, 118, 45.44035339355469
0, 6, 119, 37.56700897216797
0, 6, 120, 30.75811958312988
0, 6, 121, 29.74040031433105
0, 6, 122, 29.51173400878906
0, 6, 123, 25.05649757385254
0, 6, 124, 24.97972679138184
0, 6, 125, 34.34165954589844
0, 6, 126, 25.00535202026367
0, 6, 127, 24.55763816833496
0, 7, 0, 22.62708282470703
0, 7, 1, 27.59545135498047
0, 7, 2, 25.82548332214355
0, 7, 3, 23.8958625793457
0, 7, 4, 23.46791458129883
0, 7, 5, 40.40768051147461
0, 7, 6, 33.38552093505859
0, 7, 7, 31.32721138000488
0, 7, 8, 31.73234748840332
0, 7, 9, 39.60424041748047
0, 7, 10, 42.20061111450195
0, 7, 11, 49.35915374755859
0, 7, 12, 48.02140045166016
0, 7, 13, 54.06143569946289
0, 7, 14, 62.69284057617188
0, 7, 15, 76.63814544677734
0, 7, 16, 132.5481567382812
0, 7, 17, 458.8370056152344
0, 7, 18, 1099.98681640625
0, 7, 19, 1501.666259765625
0, 7, 20, 1487.239013671875
0, 7, 21, 1366.9990234375
0, 7, 22, 1487.692749023438
0, 7, 23, 1456.107788085938
0, 7, 24, 1509.913452148438
0, 7, 25, 1596.013671875
0, 7, 26, 1519.260131835938
0, 7, 27, 1511.100830078125
0, 7, 28, 1542.774047851562
0, 7, 29, 1579.766479492188
0, 7, 30, 1557.027465820312
0, 7, 31, 1433.655395507812
0, 7, 32, 1547.529052734375
0, 7, 33, 1497.533325195312
0, 7, 34, 1479.408203125
0, 7, 35, 1521.61865234375
0, 7, 36, 1472.709106445312
0, 7, 37, 1600.51318359375
0, 7, 38, 1502.394165039062
0, 7, 39, 1487.213623046875
0, 7, 40, 1544.612182617188
0, 7, 41, 1470.04150390625
0, 7, 42, 1490.587280273438
0, 7, 43, 1446.496948242188
0, 7, 44, 1489.006103515625
0, 7, 45, 1465.751342773438
0, 7, 46, 1515.607666015625
0, 7, 47, 1566.2451171875
0, 7, 48, 1523.125244140625
0, 7, 49, 1533.3955078125
0, 7, 50, 1514.007080078125
0, 7, 51, 1496.995849609375
0, 7, 52, 1518.243408203125
0, 7, 53, 1492.412475585938
0, 7, 54, 1585.303466796875
0, 7, 55, 1468.868286132812
0, 7, 56, 1551.597778320312
0, 7, 57, 1515.188720703125
0, 7, 58, 1544.0546875
0, 7, 59, 1537.8779296875
0, 7, 60, 1557.733764648438
0, 7, 61, 1489.917358398438
0, 7, 62, 1439.334350585938
0, 7, 63, 1511.817138671875
0, 7, 64, 1545.85595703125
0, 7, 65, 1530.11376953125
0, 7, 66, 1539.102905273438
0, 7, 67, 1584.258666992188
0, 7, 68, 1529.851318359375
0, 7, 69, 1523.122436523438
0, 7, 70, 1497.103515625
0, 7, 71, 1529.749145507812
0, 7, 72, 1526.96435546875
0, 7, 73, 1522.979736328125
0, 7, 74, 1574.438232421875
0, 7, 75, 1539.000366210938
0, 7, 76, 1561.299926757812
0, 7, 77, 1512.169067382812
0, 7, 78, 1509.697631835938
0, 7, 79, 1424.46044921875
0, 7, 80, 1482.691162109375
0, 7, 81, 1494.843627929688
0, 7, 82, 1532.301147460938
0, 7, 83, 1544.618408203125
0, 7, 84, 1587.096435546875
0, 7, 85, 1475.752563476562
0, 7, 86, 1499.364013671875
0, 7, 87, 1510.857543945312
0, 7, 88, 1498.958129882812
0, 7, 89, 1550.806762695312
0, 7, 90, 1521.36669921875
0, 7, 91, 1562.5107421875
0, 7, 92, 1527.56103515625
0, 7, 93, 1553.6240234375
0, 7, 94, 1536.831176757812
0, 7, 95, 1505.463623046875
0, 7, 96, 1504.623657226562
0, 7, 97, 1434.59033203125
0, 7, 98, 1485.339233398438
0, 7, 99, 1524.94384765625
0, 7, 100, 1417.855102539062
0, 7, 101, 1463.010986328125
0, 7, 102, 1447.937866210938
0, 7, 103, 1432.760498046875
0, 7, 104, 1490.126220703125
0, 7, 105, 1523.066650390625
0, 7, 106, 1569.178344726562
0, 7, 107, 1480.063720703125
0, 7, 108, 1410.975952148438
0, 7, 109, 1153.717651367188
0, 7, 110, 475.3191223144531
0, 7, 111, 126.3077087402344
0, 7, 112, 78.07544708251953
0, 7, 113, 69.30461883544922
0, 7, 114, 59.26269912719727
0, 7, 115, 55.44455718994141
0, 7, 116, 48.11532974243164
0, 7, 117, 43.3995246887207
0, 7, 118, 35.15710067749023
0, 7, 119, 38.61197280883789
0, 7, 120, 22.27108192443848
0, 7, 121, 31.16678428649902
0, 7, 122, 36.43661117553711
0, 7, 123, 36.2266960144043
0, 7, 124, 32.19734573364258
0, 7, 125, 25.51086235046387
0, 7, 126, 26.71371459960938
0, 7, 127, 20.88997459411621
0, 8, 0, 19.59564590454102
0, 8, 1, 24.57550048828125
0, 8, 2, 22.21454048156738
0, 8, 3, 28.5577335357666
0, 8, 4, 21.79757499694824
0, 8, 5, 32.76105499267578
0, 8, 6, 35.69884872436523
0, 8, 7, 26.50849533081055
0, 8, 8, 33.02077865600586
0, 8, 9, 45.11465454101562
0, 8, 10, 41.72196960449219
0, 8, 11, 43.23078155517578
0, 8, 12, 55.55438232421875
0, 8, 13, 76.97801971435547
0, 8, 14, 68.13185119628906
0, 8, 15, 93.11209869384766
0, 8, 16, 167.6235961914062
0, 8, 17, 675.0076904296875
0, 8, 18, 1274.816650390625
0, 8, 19, 1446.617553710938
0, 8, 20, 1423.424072265625
0, 8, 21, 1408.279052734375
0, 8, 22, 1490.114013671875
0, 8, 23, 1475.87548828125
0, 8, 24, 1437.082397460938
0, 8, 25, 1456.378784179688
0, 8, 26, 1513.847900390625
0, 8, 27, 1520.604858398438
0, 8, 28, 1477.171875
0, 8, 29, 1506.645263671875
0, 8, 30, 1483.050170898438
0, 8, 31, 1534.120971679688
0, 8, 32, 1510.914184570312
0, 8, 33, 1484.578247070312
0, 8, 34, 1529.760986328125
0, 8, 35, 1444.153564453125
0, 8, 36, 1496.492919921875
0, 8, 37, 1556.83447265625
0, 8, 38, 1552.716064453125
0, 8, 39, 1492.391723632812
0, 8, 40, 1529.942138671875
0, 8, 41, 1485.778686523438
0, 8, 42, 1541.903686523438
0, 8, 43, 1428.96728515625
0, 8, 44, 1534.996948242188
0, 8, 45, 1512.289184570312
0, 8, 46, 1600.513061523438
0, 8, 47, 1586.896484375
