# TOPAS Version: 3.1.p3
# Parameter File: batch_inserts_98.txt
# Results for scorer Readout_Adipose
# Scored in component: MyBox
# X in 1 bin  of 0.75 cm
# Y in 512 bins of 0.0783984 cm
# Z in 128 bins of 0.078125 cm
# EnergyDeposit ( MeV ) : Sum   
0, 0, 0, 19.67342185974121
0, 0, 1, 20.39067649841309
0, 0, 2, 24.84737968444824
0, 0, 3, 22.63278770446777
0, 0, 4, 17.04452323913574
0, 0, 5, 23.39616203308105
0, 0, 6, 23.09178352355957
0, 0, 7, 31.05719757080078
0, 0, 8, 21.37016868591309
0, 0, 9, 22.61894035339355
0, 0, 10, 24.86762046813965
0, 0, 11, 24.28977584838867
0, 0, 12, 30.85954666137695
0, 0, 13, 28.03312110900879
0, 0, 14, 40.69516372680664
0, 0, 15, 42.56627655029297
0, 0, 16, 41.84020233154297
0, 0, 17, 46.3237419128418
0, 0, 18, 75.10012817382812
0, 0, 19, 189.1029663085938
0, 0, 20, 701.7254028320312
0, 0, 21, 1190.9111328125
0, 0, 22, 1245.0693359375
0, 0, 23, 1277.108032226562
0, 0, 24, 1277.7705078125
0, 0, 25, 1354.742309570312
0, 0, 26, 1265.717041015625
0, 0, 27, 1278.447875976562
0, 0, 28, 1320.241943359375
0, 0, 29, 1272.997802734375
0, 0, 30, 1261.426879882812
0, 0, 31, 1283.374633789062
0, 0, 32, 1262.919189453125
0, 0, 33, 1242.371215820312
0, 0, 34, 1326.303588867188
0, 0, 35, 1296.674560546875
0, 0, 36, 1249.858764648438
0, 0, 37, 1282.015014648438
0, 0, 38, 1250.309326171875
0, 0, 39, 1245.302001953125
0, 0, 40, 1224.956909179688
0, 0, 41, 1266.555419921875
0, 0, 42, 1257.395385742188
0, 0, 43, 1266.86865234375
0, 0, 44, 1222.65771484375
0, 0, 45, 1292.785034179688
0, 0, 46, 1264.633056640625
0, 0, 47, 1238.140258789062
0, 0, 48, 1274.60986328125
0, 0, 49, 1284.49951171875
0, 0, 50, 1308.289794921875
0, 0, 51, 1259.087158203125
0, 0, 52, 1359.664184570312
0, 0, 53, 1326.685668945312
0, 0, 54, 1298.058715820312
0, 0, 55, 1235.340942382812
0, 0, 56, 1318.749877929688
0, 0, 57, 1289.967407226562
0, 0, 58, 1254.961669921875
0, 0, 59, 1334.378295898438
0, 0, 60, 1325.249145507812
0, 0, 61, 1265.850219726562
0, 0, 62, 1239.223388671875
0, 0, 63, 1277.76318359375
0, 0, 64, 1331.821044921875
0, 0, 65, 1283.4228515625
0, 0, 66, 1313.816528320312
0, 0, 67, 1213.402099609375
0, 0, 68, 1310.643432617188
0, 0, 69, 1328.40380859375
0, 0, 70, 1347.092407226562
0, 0, 71, 1285.4267578125
0, 0, 72, 1312.936645507812
0, 0, 73, 1237.561645507812
0, 0, 74, 1285.846313476562
0, 0, 75, 1294.4453125
0, 0, 76, 1256.326538085938
0, 0, 77, 1288.275512695312
0, 0, 78, 1315.749267578125
0, 0, 79, 1327.480346679688
0, 0, 80, 1258.72705078125
0, 0, 81, 1318.602661132812
0, 0, 82, 1286.603759765625
0, 0, 83, 1293.475341796875
0, 0, 84, 1330.790405273438
0, 0, 85, 1232.8251953125
0, 0, 86, 1263.573364257812
0, 0, 87, 1253.043823242188
0, 0, 88, 1256.345825195312
0, 0, 89, 1334.619873046875
0, 0, 90, 1276.208251953125
0, 0, 91, 1353.35546875
0, 0, 92, 1303.975830078125
0, 0, 93, 1274.110229492188
0, 0, 94, 1243.883544921875
0, 0, 95, 1327.967163085938
0, 0, 96, 1283.757080078125
0, 0, 97, 1325.059814453125
0, 0, 98, 1259.395385742188
0, 0, 99, 1253.289428710938
0, 0, 100, 1286.190307617188
0, 0, 101, 1314.634765625
0, 0, 102, 1232.18603515625
0, 0, 103, 1326.07275390625
0, 0, 104, 1261.63525390625
0, 0, 105, 1269.564575195312
0, 0, 106, 1210.322265625
0, 0, 107, 780.3916625976562
0, 0, 108, 197.3675079345703
0, 0, 109, 72.10507202148438
0, 0, 110, 69.19747161865234
0, 0, 111, 38.05810928344727
0, 0, 112, 34.39580154418945
0, 0, 113, 31.72747230529785
0, 0, 114, 39.82218933105469
0, 0, 115, 30.56554222106934
0, 0, 116, 28.87393951416016
0, 0, 117, 36.53261566162109
0, 0, 118, 28.39123153686523
0, 0, 119, 22.52567291259766
0, 0, 120, 25.44044876098633
0, 0, 121, 30.64641761779785
0, 0, 122, 24.63918495178223
0, 0, 123, 23.1293888092041
0, 0, 124, 23.38559532165527
0, 0, 125, 20.62363433837891
0, 0, 126, 24.52942085266113
0, 0, 127, 15.3117618560791
0, 1, 0, 24.07279968261719
0, 1, 1, 19.09994125366211
0, 1, 2, 19.58344841003418
0, 1, 3, 17.4432487487793
0, 1, 4, 28.85214614868164
0, 1, 5, 22.77876472473145
0, 1, 6, 26.2678279876709
0, 1, 7, 23.89562797546387
0, 1, 8, 31.6533374786377
0, 1, 9, 31.72635078430176
0, 1, 10, 31.73135757446289
0, 1, 11, 41.17025756835938
0, 1, 12, 34.32173919677734
0, 1, 13, 43.06722640991211
0, 1, 14, 40.67496490478516
0, 1, 15, 43.66758728027344
0, 1, 16, 58.6209716796875
0, 1, 17, 60.56064224243164
0, 1, 18, 100.6136245727539
0, 1, 19, 397.9453430175781
0, 1, 20, 1038.840454101562
0, 1, 21, 1374.447631835938
0, 1, 22, 1477.430908203125
0, 1, 23, 1464.626098632812
0, 1, 24, 1448.5009765625
0, 1, 25, 1421.182861328125
0, 1, 26, 1470.783203125
0, 1, 27, 1468.867797851562
0, 1, 28, 1487.599365234375
0, 1, 29, 1477.664306640625
0, 1, 30, 1504.902221679688
0, 1, 31, 1485.197387695312
0, 1, 32, 1413.069458007812
0, 1, 33, 1497.230102539062
0, 1, 34, 1505.370483398438
0, 1, 35, 1465.900756835938
0, 1, 36, 1487.485473632812
0, 1, 37, 1412.26318359375
0, 1, 38, 1392.274780273438
0, 1, 39, 1524.011108398438
0, 1, 40, 1464.605834960938
0, 1, 41, 1491.876098632812
0, 1, 42, 1494.534301757812
0, 1, 43, 1506.57666015625
0, 1, 44, 1450.888427734375
0, 1, 45, 1485.317016601562
0, 1, 46, 1418.578857421875
0, 1, 47, 1432.786254882812
0, 1, 48, 1432.157592773438
0, 1, 49, 1485.530395507812
0, 1, 50, 1442.944702148438
0, 1, 51, 1475.21240234375
0, 1, 52, 1475.995483398438
0, 1, 53, 1475.648681640625
0, 1, 54, 1507.457885742188
0, 1, 55, 1495.45703125
0, 1, 56, 1473.317016601562
0, 1, 57, 1455.81201171875
0, 1, 58, 1431.046752929688
0, 1, 59, 1483.953735351562
0, 1, 60, 1463.2890625
0, 1, 61, 1454.008666992188
0, 1, 62, 1457.616577148438
0, 1, 63, 1413.54931640625
0, 1, 64, 1480.11962890625
0, 1, 65, 1415.38623046875
0, 1, 66, 1436.637573242188
0, 1, 67, 1454.16015625
0, 1, 68, 1386.410888671875
0, 1, 69, 1459.61376953125
0, 1, 70, 1434.621459960938
0, 1, 71, 1494.567260742188
0, 1, 72, 1434.840942382812
0, 1, 73, 1493.508178710938
0, 1, 74, 1470.936401367188
0, 1, 75, 1474.863525390625
0, 1, 76, 1451.5068359375
0, 1, 77, 1461.010375976562
0, 1, 78, 1447.355590820312
0, 1, 79, 1501.63671875
0, 1, 80, 1450.101440429688
0, 1, 81, 1425.757568359375
0, 1, 82, 1474.721069335938
0, 1, 83, 1464.387329101562
0, 1, 84, 1537.116821289062
0, 1, 85, 1450.724853515625
0, 1, 86, 1406.110595703125
0, 1, 87, 1417.847900390625
0, 1, 88, 1480.12158203125
0, 1, 89, 1474.264770507812
0, 1, 90, 1418.888549804688
0, 1, 91, 1468.85009765625
0, 1, 92, 1411.106811523438
0, 1, 93, 1462.9765625
0, 1, 94, 1472.027465820312
0, 1, 95, 1421.0078125
0, 1, 96, 1498.135986328125
0, 1, 97, 1520.713134765625
0, 1, 98, 1481.299194335938
0, 1, 99, 1419.628662109375
0, 1, 100, 1445.193115234375
0, 1, 101, 1411.933715820312
0, 1, 102, 1444.109252929688
0, 1, 103, 1412.908813476562
0, 1, 104, 1408.656860351562
0, 1, 105, 1461.148315429688
0, 1, 106, 1363.940307617188
0, 1, 107, 1022.971008300781
0, 1, 108, 403.6034545898438
0, 1, 109, 93.77975463867188
0, 1, 110, 62.18952178955078
0, 1, 111, 56.51649856567383
0, 1, 112, 47.07627487182617
0, 1, 113, 38.71379089355469
0, 1, 114, 37.47850036621094
0, 1, 115, 37.4618034362793
0, 1, 116, 35.66020202636719
0, 1, 117, 39.04986190795898
0, 1, 118, 34.28912353515625
0, 1, 119, 32.96168899536133
0, 1, 120, 27.47988700866699
0, 1, 121, 26.69334602355957
0, 1, 122, 21.41722869873047
0, 1, 123, 23.8766040802002
0, 1, 124, 31.60797882080078
0, 1, 125, 15.61913585662842
0, 1, 126, 17.5679759979248
0, 1, 127, 20.3343448638916
0, 2, 0, 18.29694557189941
0, 2, 1, 19.51421546936035
0, 2, 2, 20.59676933288574
0, 2, 3, 23.41143608093262
0, 2, 4, 21.8206672668457
0, 2, 5, 26.35989189147949
0, 2, 6, 22.84599876403809
0, 2, 7, 25.82875823974609
0, 2, 8, 27.8098316192627
0, 2, 9, 27.31336975097656
0, 2, 10, 28.5402889251709
0, 2, 11, 33.99646377563477
0, 2, 12, 39.46318817138672
0, 2, 13, 44.71994781494141
0, 2, 14, 44.17279815673828
0, 2, 15, 48.79480743408203
0, 2, 16, 60.10752105712891
0, 2, 17, 76.95250701904297
0, 2, 18, 140.6658630371094
0, 2, 19, 605.3467407226562
0, 2, 20, 1284.694580078125
0, 2, 21, 1434.983154296875
0, 2, 22, 1456.23291015625
0, 2, 23, 1404.226928710938
0, 2, 24, 1438.470336914062
0, 2, 25, 1518.724365234375
0, 2, 26, 1554.058837890625
0, 2, 27, 1457.529541015625
0, 2, 28, 1460.956909179688
0, 2, 29, 1459.594360351562
0, 2, 30, 1467.929931640625
0, 2, 31, 1538.820068359375
0, 2, 32, 1504.499755859375
0, 2, 33, 1442.423706054688
0, 2, 34, 1477.220581054688
0, 2, 35, 1469.899169921875
0, 2, 36, 1524.212890625
0, 2, 37, 1543.08837890625
0, 2, 38, 1507.3427734375
0, 2, 39, 1467.504760742188
0, 2, 40, 1505.271484375
0, 2, 41, 1517.654174804688
0, 2, 42, 1506.539306640625
0, 2, 43, 1550.035522460938
0, 2, 44, 1459.872802734375
0, 2, 45, 1485.031494140625
0, 2, 46, 1430.209106445312
0, 2, 47, 1443.996704101562
0, 2, 48, 1398.191528320312
0, 2, 49, 1465.278686523438
0, 2, 50, 1450.185668945312
0, 2, 51, 1445.204711914062
0, 2, 52, 1490.7578125
0, 2, 53, 1521.922729492188
0, 2, 54, 1522.726806640625
0, 2, 55, 1491.784301757812
0, 2, 56, 1460.836547851562
0, 2, 57, 1416.947143554688
0, 2, 58, 1454.042724609375
0, 2, 59, 1448.214599609375
0, 2, 60, 1477.556884765625
0, 2, 61, 1444.72705078125
0, 2, 62, 1469.584838867188
0, 2, 63, 1500.447021484375
0, 2, 64, 1455.887939453125
0, 2, 65, 1426.669799804688
0, 2, 66, 1490.294311523438
0, 2, 67, 1504.714111328125
0, 2, 68, 1541.021484375
0, 2, 69, 1545.158447265625
0, 2, 70, 1506.267700195312
0, 2, 71, 1462.651123046875
0, 2, 72, 1515.910400390625
0, 2, 73, 1520.052978515625
0, 2, 74, 1488.456909179688
0, 2, 75, 1504.806640625
0, 2, 76, 1454.4560546875
0, 2, 77, 1505.763061523438
0, 2, 78, 1435.950805664062
0, 2, 79, 1540.530029296875
0, 2, 80, 1483.545043945312
0, 2, 81, 1469.670166015625
0, 2, 82, 1561.374389648438
0, 2, 83, 1516.670043945312
0, 2, 84, 1496.727416992188
0, 2, 85, 1514.819458007812
0, 2, 86, 1539.09619140625
0, 2, 87, 1488.687622070312
0, 2, 88, 1539.6494140625
0, 2, 89, 1468.527465820312
0, 2, 90, 1432.695068359375
0, 2, 91, 1406.857177734375
0, 2, 92, 1481.5517578125
0, 2, 93, 1497.800415039062
0, 2, 94, 1452.12353515625
0, 2, 95, 1544.335205078125
0, 2, 96, 1516.71044921875
0, 2, 97, 1457.602783203125
0, 2, 98, 1462.179931640625
0, 2, 99, 1405.228515625
0, 2, 100, 1471.770629882812
0, 2, 101, 1485.289672851562
0, 2, 102, 1468.635498046875
0, 2, 103, 1388.259155273438
0, 2, 104, 1413.616088867188
0, 2, 105, 1396.91259765625
0, 2, 106, 1457.639526367188
0, 2, 107, 1274.437255859375
0, 2, 108, 623.686767578125
0, 2, 109, 172.1258544921875
0, 2, 110, 67.65348815917969
0, 2, 111, 59.38250732421875
0, 2, 112, 44.01276779174805
0, 2, 113, 41.94466781616211
0, 2, 114, 37.74122619628906
0, 2, 115, 38.27487564086914
0, 2, 116, 34.10203552246094
0, 2, 117, 36.87266540527344
0, 2, 118, 31.46644592285156
0, 2, 119, 32.89247131347656
0, 2, 120, 28.79866409301758
0, 2, 121, 21.87515640258789
0, 2, 122, 23.21919250488281
0, 2, 123, 18.41773796081543
0, 2, 124, 27.98997497558594
0, 2, 125, 33.72209548950195
0, 2, 126, 17.71937942504883
0, 2, 127, 20.06217956542969
0, 3, 0, 23.75275802612305
0, 3, 1, 23.01765823364258
0, 3, 2, 19.59864807128906
0, 3, 3, 20.3080005645752
0, 3, 4, 21.31214141845703
0, 3, 5, 22.48772048950195
0, 3, 6, 32.28930282592773
0, 3, 7, 29.9121208190918
0, 3, 8, 30.17336845397949
0, 3, 9, 29.5815372467041
0, 3, 10, 36.51955413818359
0, 3, 11, 36.44410705566406
0, 3, 12, 43.73298645019531
0, 3, 13, 49.97609329223633
0, 3, 14, 60.2337646484375
0, 3, 15, 55.39608383178711
0, 3, 16, 65.89366912841797
0, 3, 17, 87.68941497802734
0, 3, 18, 236.7900085449219
0, 3, 19, 875.8302612304688
0, 3, 20, 1386.044067382812
0, 3, 21, 1509.060791015625
0, 3, 22, 1458.8984375
0, 3, 23, 1452.9775390625
0, 3, 24, 1437.673950195312
0, 3, 25, 1457.666259765625
0, 3, 26, 1493.963623046875
0, 3, 27, 1468.526245117188
0, 3, 28, 1493.275390625
0, 3, 29, 1540.77978515625
0, 3, 30, 1571.068725585938
0, 3, 31, 1510.558349609375
0, 3, 32, 1547.533935546875
0, 3, 33, 1539.828735351562
0, 3, 34, 1487.37890625
0, 3, 35, 1461.798095703125
0, 3, 36, 1449.289184570312
0, 3, 37, 1516.388671875
0, 3, 38, 1516.774658203125
0, 3, 39, 1438.107421875
0, 3, 40, 1442.333618164062
0, 3, 41, 1560.682739257812
0, 3, 42, 1466.246948242188
0, 3, 43, 1453.593627929688
0, 3, 44, 1454.117797851562
0, 3, 45, 1506.931396484375
0, 3, 46, 1507.069091796875
0, 3, 47, 1436.135009765625
0, 3, 48, 1508.7919921875
0, 3, 49, 1452.764038085938
0, 3, 50, 1491.019287109375
0, 3, 51, 1534.421997070312
0, 3, 52, 1532.533203125
0, 3, 53, 1465.166748046875
0, 3, 54, 1534.84912109375
0, 3, 55, 1504.257690429688
0, 3, 56, 1438.726318359375
0, 3, 57, 1500.64208984375
0, 3, 58, 1514.987670898438
0, 3, 59, 1508.822875976562
0, 3, 60, 1536.224243164062
0, 3, 61, 1487.371704101562
0, 3, 62, 1491.9775390625
0, 3, 63, 1495.80712890625
0, 3, 64, 1495.030517578125
0, 3, 65, 1522.167236328125
0, 3, 66, 1553.12060546875
0, 3, 67, 1544.195556640625
0, 3, 68, 1448.052001953125
0, 3, 69, 1465.843627929688
0, 3, 70, 1387.298461914062
0, 3, 71, 1462.073486328125
0, 3, 72, 1553.765502929688
0, 3, 73, 1496.612060546875
0, 3, 74, 1461.857543945312
0, 3, 75, 1463.325805664062
0, 3, 76, 1575.125854492188
0, 3, 77, 1539.71142578125
0, 3, 78, 1427.501831054688
0, 3, 79, 1493.931274414062
0, 3, 80, 1457.8798828125
0, 3, 81, 1474.594360351562
0, 3, 82, 1551.265991210938
0, 3, 83, 1514.857421875
0, 3, 84, 1561.036865234375
0, 3, 85, 1474.586059570312
0, 3, 86, 1527.225708007812
0, 3, 87, 1536.20166015625
0, 3, 88, 1457.367797851562
0, 3, 89, 1450.627563476562
0, 3, 90, 1449.971435546875
0, 3, 91, 1417.899047851562
0, 3, 92, 1511.0283203125
0, 3, 93, 1502.21630859375
0, 3, 94, 1516.048706054688
0, 3, 95, 1545.38916015625
0, 3, 96, 1515.111694335938
0, 3, 97, 1464.35302734375
0, 3, 98, 1431.578247070312
0, 3, 99, 1459.2412109375
0, 3, 100, 1462.525390625
0, 3, 101, 1478.767211914062
0, 3, 102, 1521.249267578125
0, 3, 103, 1549.172241210938
0, 3, 104, 1500.857543945312
0, 3, 105, 1514.511474609375
0, 3, 106, 1476.788818359375
0, 3, 107, 1337.691162109375
0, 3, 108, 868.252197265625
0, 3, 109, 263.7742919921875
0, 3, 110, 101.1845397949219
0, 3, 111, 62.16596984863281
0, 3, 112, 61.48518753051758
0, 3, 113, 54.31684494018555
0, 3, 114, 49.4583854675293
0, 3, 115, 50.61760330200195
0, 3, 116, 35.23549652099609
0, 3, 117, 36.14715957641602
0, 3, 118, 39.07798004150391
0, 3, 119, 28.48581504821777
0, 3, 120, 32.94300842285156
0, 3, 121, 19.94327163696289
0, 3, 122, 21.17387962341309
0, 3, 123, 25.02694511413574
0, 3, 124, 20.2630729675293
0, 3, 125, 34.03533554077148
0, 3, 126, 23.76495361328125
0, 3, 127, 17.15413284301758
0, 4, 0, 18.88007354736328
0, 4, 1, 19.55359268188477
0, 4, 2, 25.12727546691895
0, 4, 3, 21.63810157775879
0, 4, 4, 22.87975120544434
0, 4, 5, 30.71770668029785
0, 4, 6, 33.32319641113281
0, 4, 7, 31.8226203918457
0, 4, 8, 27.91827583312988
0, 4, 9, 31.36529922485352
0, 4, 10, 30.08031463623047
0, 4, 11, 40.63539505004883
0, 4, 12, 42.85105133056641
0, 4, 13, 54.29208374023438
0, 4, 14, 46.57141876220703
0, 4, 15, 58.92137145996094
0, 4, 16, 69.95442199707031
0, 4, 17, 115.0685806274414
0, 4, 18, 444.5111694335938
0, 4, 19, 1181.749877929688
0, 4, 20, 1440.337158203125
0, 4, 21, 1419.518310546875
0, 4, 22, 1436.475708007812
0, 4, 23, 1448.482421875
0, 4, 24, 1470.225463867188
0, 4, 25, 1400.348876953125
0, 4, 26, 1536.247802734375
0, 4, 27, 1547.548217773438
0, 4, 28, 1508.996337890625
0, 4, 29, 1512.740966796875
0, 4, 30, 1523.958374023438
0, 4, 31, 1578.607055664062
0, 4, 32, 1518.668090820312
0, 4, 33, 1490.529541015625
0, 4, 34, 1469.155151367188
0, 4, 35, 1566.852172851562
0, 4, 36, 1498.716674804688
0, 4, 37, 1514.916870117188
0, 4, 38, 1532.309692382812
0, 4, 39, 1470.287353515625
0, 4, 40, 1508.8056640625
0, 4, 41, 1582.687377929688
0, 4, 42, 1568.253173828125
0, 4, 43, 1474.212768554688
0, 4, 44, 1492.822998046875
0, 4, 45, 1518.932739257812
0, 4, 46, 1466.61669921875
0, 4, 47, 1500.840698242188
0, 4, 48, 1526.921997070312
0, 4, 49, 1470.56201171875
0, 4, 50, 1520.595092773438
0, 4, 51, 1489.640380859375
0, 4, 52, 1496.6787109375
0, 4, 53, 1456.8720703125
0, 4, 54, 1439.093627929688
0, 4, 55, 1521.6787109375
0, 4, 56, 1457.24951171875
0, 4, 57, 1496.838012695312
0, 4, 58, 1457.343017578125
0, 4, 59, 1467.803955078125
0, 4, 60, 1530.003051757812
0, 4, 61, 1501.104248046875
0, 4, 62, 1510.794677734375
0, 4, 63, 1547.724853515625
0, 4, 64, 1589.2607421875
0, 4, 65, 1425.886474609375
0, 4, 66, 1511.131591796875
0, 4, 67, 1522.582763671875
0, 4, 68, 1491.112182617188
0, 4, 69, 1465.575927734375
0, 4, 70, 1546.691162109375
0, 4, 71, 1519.442016601562
0, 4, 72, 1530.786743164062
0, 4, 73, 1493.385009765625
0, 4, 74, 1487.242309570312
0, 4, 75, 1533.271240234375
0, 4, 76, 1480.795043945312
0, 4, 77, 1498.505493164062
0, 4, 78, 1505.235595703125
0, 4, 79, 1487.623046875
0, 4, 80, 1513.752197265625
0, 4, 81, 1520.605834960938
0, 4, 82, 1564.91796875
0, 4, 83, 1503.914916992188
0, 4, 84, 1539.6142578125
0, 4, 85, 1553.81689453125
0, 4, 86, 1522.593994140625
0, 4, 87, 1497.84130859375
0, 4, 88, 1513.101196289062
0, 4, 89, 1477.38134765625
0, 4, 90, 1541.696655273438
0, 4, 91, 1551.723876953125
0, 4, 92, 1491.524780273438
0, 4, 93, 1513.367431640625
0, 4, 94, 1483.525512695312
0, 4, 95, 1511.56591796875
0, 4, 96, 1442.876831054688
0, 4, 97, 1414.978637695312
0, 4, 98, 1553.285766601562
0, 4, 99, 1509.474853515625
0, 4, 100, 1488.817260742188
0, 4, 101, 1451.427368164062
0, 4, 102, 1442.966918945312
0, 4, 103, 1517.020751953125
0, 4, 104, 1507.878295898438
0, 4, 105, 1552.311767578125
0, 4, 106, 1474.280395507812
0, 4, 107, 1452.322998046875
0, 4, 108, 1120.818603515625
0, 4, 109, 435.8366088867188
0, 4, 110, 100.9431686401367
0, 4, 111, 69.06493377685547
0, 4, 112, 64.93586730957031
0, 4, 113, 47.2009391784668
0, 4, 114, 49.67480087280273
0, 4, 115, 45.64059066772461
0, 4, 116, 38.82036972045898
0, 4, 117, 42.2088737487793
0, 4, 118, 39.84780120849609
0, 4, 119, 39.96582794189453
0, 4, 120, 33.45203018188477
0, 4, 121, 26.75067138671875
0, 4, 122, 35.29428100585938
0, 4, 123, 27.19762802124023
0, 4, 124, 19.16644477844238
0, 4, 125, 32.13788223266602
0, 4, 126, 20.67711067199707
0, 4, 127, 24.66340446472168
0, 5, 0, 23.50580215454102
0, 5, 1, 28.56098175048828
0, 5, 2, 29.77511978149414
0, 5, 3, 22.1995906829834
0, 5, 4, 20.73188018798828
0, 5, 5, 33.86708831787109
0, 5, 6, 31.9954891204834
0, 5, 7, 32.23854446411133
0, 5, 8, 30.01904106140137
0, 5, 9, 30.21543502807617
0, 5, 10, 33.15641021728516
0, 5, 11, 37.84240341186523
0, 5, 12, 37.33380126953125
0, 5, 13, 47.31068801879883
0, 5, 14, 63.3601188659668
0, 5, 15, 79.49543762207031
0, 5, 16, 80.27070617675781
0, 5, 17, 160.1524505615234
0, 5, 18, 677.1250610351562
0, 5, 19, 1343.418334960938
0, 5, 20, 1523.35986328125
0, 5, 21, 1492.255615234375
0, 5, 22, 1497.923828125
0, 5, 23, 1528.482788085938
0, 5, 24, 1464.561767578125
0, 5, 25, 1428.597900390625
0, 5, 26, 1523.677978515625
0, 5, 27, 1538.649536132812
0, 5, 28, 1483.555908203125
0, 5, 29, 1527.921264648438
0, 5, 30, 1490.3095703125
0, 5, 31, 1501.042236328125
0, 5, 32, 1593.941284179688
0, 5, 33, 1498.47412109375
0, 5, 34, 1489.347290039062
0, 5, 35, 1519.669555664062
0, 5, 36, 1443.630859375
0, 5, 37, 1528.57666015625
0, 5, 38, 1543.8232421875
0, 5, 39, 1545.44287109375
0, 5, 40, 1498.557006835938
0, 5, 41, 1485.350830078125
0, 5, 42, 1541.225463867188
0, 5, 43, 1536.614379882812
0, 5, 44, 1539.696533203125
0, 5, 45, 1510.671142578125
0, 5, 46, 1485.2666015625
0, 5, 47, 1483.144775390625
0, 5, 48, 1500.876586914062
0, 5, 49, 1524.537475585938
0, 5, 50, 1504.746948242188
0, 5, 51, 1517.67041015625
0, 5, 52, 1427.787475585938
0, 5, 53, 1523.8193359375
0, 5, 54, 1519.592651367188
0, 5, 55, 1523.068481445312
0, 5, 56, 1487.672485351562
0, 5, 57, 1544.871337890625
0, 5, 58, 1507.487670898438
0, 5, 59, 1490.236328125
0, 5, 60, 1535.845703125
0, 5, 61, 1457.240112304688
0, 5, 62, 1584.981201171875
0, 5, 63, 1433.068481445312
0, 5, 64, 1487.396728515625
0, 5, 65, 1464.213989257812
0, 5, 66, 1528.247802734375
0, 5, 67, 1567.4345703125
0, 5, 68, 1459.578979492188
0, 5, 69, 1476.0986328125
0, 5, 70, 1484.828979492188
0, 5, 71, 1472.153930664062
0, 5, 72, 1537.875244140625
0, 5, 73, 1462.393798828125
0, 5, 74, 1494.046752929688
0, 5, 75, 1486.592895507812
0, 5, 76, 1475.020751953125
0, 5, 77, 1520.457641601562
0, 5, 78, 1530.517456054688
0, 5, 79, 1509.043579101562
0, 5, 80, 1520.279174804688
0, 5, 81, 1597.388793945312
0, 5, 82, 1523.462036132812
0, 5, 83, 1492.026977539062
0, 5, 84, 1535.84033203125
0, 5, 85, 1513.084716796875
0, 5, 86, 1558.147583007812
0, 5, 87, 1471.432250976562
0, 5, 88, 1499.022827148438
0, 5, 89, 1480.369873046875
0, 5, 90, 1485.056884765625
0, 5, 91, 1552.6552734375
0, 5, 92, 1482.23486328125
0, 5, 93, 1559.0498046875
0, 5, 94, 1512.110717773438
0, 5, 95, 1560.606689453125
0, 5, 96, 1500.569946289062
0, 5, 97, 1506.395629882812
0, 5, 98, 1513.147705078125
0, 5, 99, 1540.734130859375
0, 5, 100, 1436.186157226562
0, 5, 101, 1429.661254882812
0, 5, 102, 1515.1240234375
0, 5, 103, 1472.608276367188
0, 5, 104, 1461.835083007812
0, 5, 105, 1488.698852539062
0, 5, 106, 1458.515869140625
0, 5, 107, 1399.368530273438
0, 5, 108, 1291.443603515625
0, 5, 109, 723.2575073242188
0, 5, 110, 191.0492553710938
0, 5, 111, 90.65081024169922
0, 5, 112, 82.37114715576172
0, 5, 113, 66.69612121582031
0, 5, 114, 61.86132431030273
0, 5, 115, 54.8011474609375
0, 5, 116, 41.13911056518555
0, 5, 117, 39.36504745483398
0, 5, 118, 42.46559524536133
0, 5, 119, 27.94805908203125
0, 5, 120, 31.12308311462402
0, 5, 121, 21.8378849029541
0, 5, 122, 27.67271614074707
0, 5, 123, 27.01794624328613
0, 5, 124, 23.5476245880127
0, 5, 125, 20.81342124938965
0, 5, 126, 23.01299476623535
0, 5, 127, 22.07949447631836
0, 6, 0, 21.02273559570312
0, 6, 1, 26.28566360473633
0, 6, 2, 34.77768325805664
0, 6, 3, 27.42883491516113
0, 6, 4, 25.84564018249512
0, 6, 5, 31.93502616882324
0, 6, 6, 32.28399658203125
0, 6, 7, 30.97885322570801
0, 6, 8, 39.02976226806641
0, 6, 9, 35.53267288208008
0, 6, 10, 38.18330764770508
0, 6, 11, 39.56904983520508
0, 6, 12, 42.07925415039062
0, 6, 13, 56.27595901489258
0, 6, 14, 65.32525634765625
0, 6, 15, 84.74966430664062
0, 6, 16, 115.7933120727539
0, 6, 17, 294.5590209960938
0, 6, 18, 897.193603515625
0, 6, 19, 1374.005859375
0, 6, 20, 1437.329833984375
0, 6, 21, 1531.1064453125
0, 6, 22, 1505.68994140625
0, 6, 23, 1528.0634765625
0, 6, 24, 1480.09619140625
0, 6, 25, 1528.2470703125
0, 6, 26, 1524.382446289062
0, 6, 27, 1518.676513671875
0, 6, 28, 1556.373046875
0, 6, 29, 1577.719848632812
0, 6, 30, 1510.064331054688
0, 6, 31, 1493.758178710938
0, 6, 32, 1530.572509765625
0, 6, 33, 1492.4111328125
0, 6, 34, 1561.484497070312
0, 6, 35, 1499.094970703125
0, 6, 36, 1440.886352539062
0, 6, 37, 1549.9072265625
0, 6, 38, 1529.983154296875
0, 6, 39, 1530.29248046875
0, 6, 40, 1461.296020507812
0, 6, 41, 1443.028930664062
0, 6, 42, 1519.87109375
0, 6, 43, 1491.481689453125
0, 6, 44, 1431.332275390625
0, 6, 45, 1545.762573242188
0, 6, 46, 1552.623779296875
0, 6, 47, 1495.082275390625
0, 6, 48, 1528.71240234375
0, 6, 49, 1511.491088867188
0, 6, 50, 1573.625
0, 6, 51, 1501.259399414062
0, 6, 52, 1562.793701171875
0, 6, 53, 1470.128540039062
0, 6, 54, 1501.705444335938
0, 6, 55, 1571.77587890625
0, 6, 56, 1521.224487304688
0, 6, 57, 1505.134033203125
0, 6, 58, 1464.572509765625
0, 6, 59, 1516.494262695312
0, 6, 60, 1468.60400390625
0, 6, 61, 1570.605224609375
0, 6, 62, 1543.015258789062
0, 6, 63, 1496.083618164062
0, 6, 64, 1410.305908203125
0, 6, 65, 1493.683349609375
0, 6, 66, 1509.155883789062
0, 6, 67, 1515.27783203125
0, 6, 68, 1546.827270507812
0, 6, 69, 1487.580810546875
0, 6, 70, 1519.242309570312
0, 6, 71, 1467.769409179688
0, 6, 72, 1598.909301757812
0, 6, 73, 1490.08740234375
0, 6, 74, 1565.366455078125
0, 6, 75, 1537.419799804688
0, 6, 76, 1566.53125
0, 6, 77, 1505.725830078125
0, 6, 78, 1444.660034179688
0, 6, 79, 1556.010498046875
0, 6, 80, 1483.3623046875
0, 6, 81, 1486.079711914062
0, 6, 82, 1510.06787109375
0, 6, 83, 1524.873046875
0, 6, 84, 1513.83544921875
0, 6, 85, 1534.971069335938
0, 6, 86, 1547.411987304688
0, 6, 87, 1575.903198242188
0, 6, 88, 1482.695678710938
0, 6, 89, 1568.479370117188
0, 6, 90, 1493.867309570312
0, 6, 91, 1543.442626953125
0, 6, 92, 1483.150512695312
0, 6, 93, 1500.121337890625
0, 6, 94, 1465.960205078125
0, 6, 95, 1505.793823242188
0, 6, 96, 1524.289428710938
0, 6, 97, 1502.827270507812
0, 6, 98, 1496.101318359375
0, 6, 99, 1480.96923828125
0, 6, 100, 1525.169677734375
0, 6, 101, 1516.3310546875
0, 6, 102, 1541.629638671875
0, 6, 103, 1498.643188476562
0, 6, 104, 1466.52099609375
0, 6, 105, 1487.454467773438
0, 6, 106, 1495.981567382812
0, 6, 107, 1501.361083984375
0, 6, 108, 1407.685180664062
0, 6, 109, 922.9273681640625
0, 6, 110, 280.9048767089844
0, 6, 111, 99.00762939453125
0, 6, 112, 76.11696624755859
0, 6, 113, 58.08168792724609
0, 6, 114, 56.62455368041992
0, 6, 115, 42.38263702392578
0, 6, 116, 43.59462356567383
0, 6, 117, 36.85100936889648
0, 6, 118, 34.04002380371094
0, 6, 119, 36.63877487182617
0, 6, 120, 33.61579513549805
0, 6, 121, 29.81352424621582
0, 6, 122, 26.0071849822998
0, 6, 123, 28.63198280334473
0, 6, 124, 31.46835708618164
0, 6, 125, 38.02361679077148
0, 6, 126, 24.08069229125977
0, 6, 127, 18.48708152770996
0, 7, 0, 22.41075706481934
0, 7, 1, 25.88620758056641
0, 7, 2, 19.69235420227051
0, 7, 3, 23.52703475952148
0, 7, 4, 23.36887359619141
0, 7, 5, 41.80011749267578
0, 7, 6, 32.58898544311523
0, 7, 7, 36.50960922241211
0, 7, 8, 29.13233947753906
0, 7, 9, 31.26363754272461
0, 7, 10, 43.06835174560547
0, 7, 11, 47.15789794921875
0, 7, 12, 49.87726593017578
0, 7, 13, 55.41153335571289
0, 7, 14, 62.99281311035156
0, 7, 15, 81.90686798095703
0, 7, 16, 136.2319946289062
0, 7, 17, 462.1141967773438
0, 7, 18, 1097.8056640625
0, 7, 19, 1496.5126953125
0, 7, 20, 1487.259643554688
0, 7, 21, 1374.50830078125
0, 7, 22, 1489.964721679688
0, 7, 23, 1453.940063476562
0, 7, 24, 1509.085815429688
0, 7, 25, 1590.9296875
0, 7, 26, 1520.849731445312
0, 7, 27, 1510.28515625
0, 7, 28, 1546.066650390625
0, 7, 29, 1575.59375
0, 7, 30, 1549.598754882812
0, 7, 31, 1438.528564453125
0, 7, 32, 1540.716186523438
0, 7, 33, 1495.929809570312
0, 7, 34, 1481.079833984375
0, 7, 35, 1527.638305664062
0, 7, 36, 1469.218994140625
0, 7, 37, 1605.627319335938
0, 7, 38, 1510.928100585938
0, 7, 39, 1492.053344726562
0, 7, 40, 1545.052612304688
0, 7, 41, 1462.314208984375
0, 7, 42, 1487.251586914062
0, 7, 43, 1441.97998046875
0, 7, 44, 1494.369750976562
0, 7, 45, 1469.143432617188
0, 7, 46, 1512.696655273438
0, 7, 47, 1562.766357421875
0, 7, 48, 1518.689208984375
0, 7, 49, 1541.373779296875
0, 7, 50, 1514.0546875
0, 7, 51, 1498.145141601562
0, 7, 52, 1513.65234375
0, 7, 53, 1491.393798828125
0, 7, 54, 1590.374755859375
0, 7, 55, 1469.412841796875
0, 7, 56, 1547.81201171875
0, 7, 57, 1517.054809570312
0, 7, 58, 1547.62451171875
0, 7, 59, 1544.684204101562
0, 7, 60, 1548.034057617188
0, 7, 61, 1488.599487304688
0, 7, 62, 1434.88525390625
0, 7, 63, 1516.489501953125
0, 7, 64, 1549.0029296875
0, 7, 65, 1525.693237304688
0, 7, 66, 1542.064208984375
0, 7, 67, 1577.781860351562
0, 7, 68, 1533.117919921875
0, 7, 69, 1521.391723632812
0, 7, 70, 1499.38623046875
0, 7, 71, 1523.813598632812
0, 7, 72, 1520.36572265625
0, 7, 73, 1515.292846679688
0, 7, 74, 1571.039672851562
0, 7, 75, 1538.970947265625
0, 7, 76, 1562.974975585938
0, 7, 77, 1512.510986328125
0, 7, 78, 1506.147216796875
0, 7, 79, 1422.69970703125
0, 7, 80, 1492.286499023438
0, 7, 81, 1498.59912109375
0, 7, 82, 1531.9453125
0, 7, 83, 1546.938598632812
0, 7, 84, 1583.260498046875
0, 7, 85, 1473.189208984375
0, 7, 86, 1500.438720703125
0, 7, 87, 1503.67822265625
0, 7, 88, 1494.697387695312
0, 7, 89, 1556.115844726562
0, 7, 90, 1519.972290039062
0, 7, 91, 1564.116943359375
0, 7, 92, 1530.084716796875
0, 7, 93, 1552.003295898438
0, 7, 94, 1536.94091796875
0, 7, 95, 1504.701782226562
0, 7, 96, 1505.494262695312
0, 7, 97, 1430.354125976562
0, 7, 98, 1486.9267578125
0, 7, 99, 1526.878784179688
0, 7, 100, 1423.163330078125
0, 7, 101, 1464.172485351562
0, 7, 102, 1449.358032226562
0, 7, 103, 1429.435546875
0, 7, 104, 1501.010620117188
0, 7, 105, 1529.489013671875
0, 7, 106, 1568.068603515625
0, 7, 107, 1478.083984375
0, 7, 108, 1413.446411132812
0, 7, 109, 1145.1044921875
0, 7, 110, 475.6909484863281
0, 7, 111, 125.3613815307617
0, 7, 112, 77.60789489746094
0, 7, 113, 64.41957855224609
0, 7, 114, 57.30289459228516
0, 7, 115, 48.33293151855469
0, 7, 116, 43.52778625488281
0, 7, 117, 42.63602447509766
0, 7, 118, 37.46744918823242
0, 7, 119, 29.33062553405762
0, 7, 120, 25.83749961853027
0, 7, 121, 28.35625267028809
0, 7, 122, 35.17476272583008
0, 7, 123, 34.84989547729492
0, 7, 124, 30.26511383056641
0, 7, 125, 20.80488586425781
0, 7, 126, 26.52373504638672
0, 7, 127, 22.87452507019043
0, 8, 0, 22.35300254821777
0, 8, 1, 19.1026668548584
0, 8, 2, 28.0762882232666
0, 8, 3, 23.63794326782227
0, 8, 4, 24.78405570983887
0, 8, 5, 33.31019592285156
0, 8, 6, 29.84616661071777
0, 8, 7, 25.65829658508301
0, 8, 8, 33.82610702514648
0, 8, 9, 49.53660583496094
0, 8, 10, 41.40623474121094
0, 8, 11, 41.80699157714844
0, 8, 12, 51.39296722412109
0, 8, 13, 66.51144409179688
0, 8, 14, 70.11959838867188
0, 8, 15, 88.33592987060547
0, 8, 16, 170.7038116455078
0, 8, 17, 675.8331298828125
0, 8, 18, 1280.00048828125
0, 8, 19, 1442.892333984375
0, 8, 20, 1420.845825195312
0, 8, 21, 1409.951293945312
0, 8, 22, 1485.850219726562
0, 8, 23, 1478.650390625
0, 8, 24, 1437.750366210938
0, 8, 25, 1456.13330078125
0, 8, 26, 1520.15185546875
0, 8, 27, 1524.39990234375
0, 8, 28, 1476.146484375
0, 8, 29, 1502.132446289062
0, 8, 30, 1493.858276367188
0, 8, 31, 1539.12060546875
0, 8, 32, 1511.731567382812
0, 8, 33, 1481.078247070312
0, 8, 34, 1532.95263671875
0, 8, 35, 1442.451782226562
0, 8, 36, 1500.557250976562
0, 8, 37, 1550.424926757812
0, 8, 38, 1548.993530273438
0, 8, 39, 1492.306640625
0, 8, 40, 1535.420166015625
0, 8, 41, 1486.624389648438
0, 8, 42, 1537.071411132812
0, 8, 43, 1433.516845703125
0, 8, 44, 1533.479858398438
0, 8, 45, 1509.75
0, 8, 46, 1597.883178710938
0, 8, 47, 1585.016967773438
