# TOPAS Version: 3.1.p3
# Parameter File: batch_inserts_262.txt
# Results for scorer Readout_Adipose
# Scored in component: MyBox
# X in 1 bin  of 0.75 cm
# Y in 512 bins of 0.0783984 cm
# Z in 128 bins of 0.078125 cm
# EnergyDeposit ( MeV ) : Sum   
0, 0, 0, 3.692277431488037
0, 0, 1, 1.713987588882446
0, 0, 2, 2.426156282424927
0, 0, 3, 1.423109769821167
0, 0, 4, 2.788750171661377
0, 0, 5, 1.99911093711853
0, 0, 6, 6.711430072784424
0, 0, 7, 8.440456390380859
0, 0, 8, 2.058010101318359
0, 0, 9, 3.076467514038086
0, 0, 10, 6.778421878814697
0, 0, 11, 5.284315586090088
0, 0, 12, 4.551771640777588
0, 0, 13, 7.441878795623779
0, 0, 14, 10.10805320739746
0, 0, 15, 10.85599136352539
0, 0, 16, 8.393351554870605
0, 0, 17, 9.611949920654297
0, 0, 18, 14.00509452819824
0, 0, 19, 47.18009185791016
0, 0, 20, 140.5115356445312
0, 0, 21, 223.47119140625
0, 0, 22, 250.3812255859375
0, 0, 23, 256.490478515625
0, 0, 24, 250.8018341064453
0, 0, 25, 259.0891418457031
0, 0, 26, 233.3209381103516
0, 0, 27, 237.0377502441406
0, 0, 28, 270.649169921875
0, 0, 29, 252.3682403564453
0, 0, 30, 230.0354309082031
0, 0, 31, 243.313720703125
0, 0, 32, 263.9640502929688
0, 0, 33, 261.9635620117188
0, 0, 34, 289.1077270507812
0, 0, 35, 265.9977111816406
0, 0, 36, 246.3064575195312
0, 0, 37, 251.5260620117188
0, 0, 38, 267.6741027832031
0, 0, 39, 229.3022308349609
0, 0, 40, 240.4544219970703
0, 0, 41, 265.6754760742188
0, 0, 42, 229.8426666259766
0, 0, 43, 262.3754272460938
0, 0, 44, 252.9051818847656
0, 0, 45, 253.2581329345703
0, 0, 46, 243.6128540039062
0, 0, 47, 252.4676666259766
0, 0, 48, 267.5941772460938
0, 0, 49, 273.2921142578125
0, 0, 50, 250.7413330078125
0, 0, 51, 253.5562438964844
0, 0, 52, 271.5911560058594
0, 0, 53, 291.1962280273438
0, 0, 54, 242.1207885742188
0, 0, 55, 239.2943572998047
0, 0, 56, 279.7574462890625
0, 0, 57, 264.3643493652344
0, 0, 58, 247.6723480224609
0, 0, 59, 272.9974975585938
0, 0, 60, 234.6958465576172
0, 0, 61, 246.2509307861328
0, 0, 62, 259.1014709472656
0, 0, 63, 266.3675537109375
0, 0, 64, 255.0413970947266
0, 0, 65, 261.2876281738281
0, 0, 66, 277.9339294433594
0, 0, 67, 247.1803436279297
0, 0, 68, 258.7857360839844
0, 0, 69, 261.6065063476562
0, 0, 70, 272.6614990234375
0, 0, 71, 237.5720062255859
0, 0, 72, 250.3526306152344
0, 0, 73, 259.2691345214844
0, 0, 74, 251.734619140625
0, 0, 75, 241.2769317626953
0, 0, 76, 227.9086456298828
0, 0, 77, 259.3300170898438
0, 0, 78, 259.6892700195312
0, 0, 79, 277.7753601074219
0, 0, 80, 217.1460266113281
0, 0, 81, 266.7215576171875
0, 0, 82, 256.8908996582031
0, 0, 83, 244.278564453125
0, 0, 84, 269.4823303222656
0, 0, 85, 231.3698120117188
0, 0, 86, 253.2948760986328
0, 0, 87, 252.8308410644531
0, 0, 88, 260.1796569824219
0, 0, 89, 282.3759155273438
0, 0, 90, 245.8341979980469
0, 0, 91, 280.4476623535156
0, 0, 92, 256.4500732421875
0, 0, 93, 250.3966217041016
0, 0, 94, 247.1250610351562
0, 0, 95, 248.7557830810547
0, 0, 96, 275.7870788574219
0, 0, 97, 272.5374145507812
0, 0, 98, 271.9686584472656
0, 0, 99, 257.53515625
0, 0, 100, 257.8803100585938
0, 0, 101, 225.4547119140625
0, 0, 102, 232.4915924072266
0, 0, 103, 270.3983764648438
0, 0, 104, 254.8338012695312
0, 0, 105, 251.8082580566406
0, 0, 106, 245.7737731933594
0, 0, 107, 151.1941070556641
0, 0, 108, 38.44606399536133
0, 0, 109, 13.93354892730713
0, 0, 110, 13.70905494689941
0, 0, 111, 10.9818000793457
0, 0, 112, 6.259690284729004
0, 0, 113, 5.941840648651123
0, 0, 114, 6.484458923339844
0, 0, 115, 5.690009593963623
0, 0, 116, 6.03094482421875
0, 0, 117, 6.889261722564697
0, 0, 118, 6.231508731842041
0, 0, 119, 8.883164405822754
0, 0, 120, 4.180538177490234
0, 0, 121, 4.612663269042969
0, 0, 122, 4.583876609802246
0, 0, 123, 2.476912498474121
0, 0, 124, 5.744418144226074
0, 0, 125, 4.031256198883057
0, 0, 126, 3.514890670776367
0, 0, 127, 4.857800960540771
0, 1, 0, 7.403840065002441
0, 1, 1, 2.679102897644043
0, 1, 2, 3.479501962661743
0, 1, 3, 1.204291343688965
0, 1, 4, 3.318850040435791
0, 1, 5, 3.823287487030029
0, 1, 6, 6.855905055999756
0, 1, 7, 4.783421039581299
0, 1, 8, 7.772792816162109
0, 1, 9, 4.612905979156494
0, 1, 10, 6.041573524475098
0, 1, 11, 11.35625457763672
0, 1, 12, 9.650686264038086
0, 1, 13, 8.63044548034668
0, 1, 14, 6.998931884765625
0, 1, 15, 9.986801147460938
0, 1, 16, 11.25039958953857
0, 1, 17, 11.64767265319824
0, 1, 18, 19.1661491394043
0, 1, 19, 65.36750793457031
0, 1, 20, 197.8786773681641
0, 1, 21, 255.2166290283203
0, 1, 22, 296.83984375
0, 1, 23, 284.4001159667969
0, 1, 24, 278.7608642578125
0, 1, 25, 287.5213623046875
0, 1, 26, 269.259521484375
0, 1, 27, 306.2695922851562
0, 1, 28, 299.3485717773438
0, 1, 29, 295.0150451660156
0, 1, 30, 280.8113403320312
0, 1, 31, 291.2150268554688
0, 1, 32, 289.5564880371094
0, 1, 33, 294.5639038085938
0, 1, 34, 291.5241394042969
0, 1, 35, 279.5443115234375
0, 1, 36, 307.6878662109375
0, 1, 37, 296.8497009277344
0, 1, 38, 282.0893859863281
0, 1, 39, 296.8741455078125
0, 1, 40, 265.8429565429688
0, 1, 41, 286.2628479003906
0, 1, 42, 288.7890930175781
0, 1, 43, 331.7290344238281
0, 1, 44, 279.095703125
0, 1, 45, 294.0205383300781
0, 1, 46, 258.5028381347656
0, 1, 47, 311.2304992675781
0, 1, 48, 283.7962646484375
0, 1, 49, 302.8500671386719
0, 1, 50, 262.4075927734375
0, 1, 51, 271.7856750488281
0, 1, 52, 296.1146240234375
0, 1, 53, 304.9147338867188
0, 1, 54, 275.680908203125
0, 1, 55, 292.3136596679688
0, 1, 56, 276.1462097167969
0, 1, 57, 297.3160705566406
0, 1, 58, 309.2120056152344
0, 1, 59, 292.5370483398438
0, 1, 60, 298.5265197753906
0, 1, 61, 275.2326049804688
0, 1, 62, 307.0621337890625
0, 1, 63, 285.8392639160156
0, 1, 64, 288.3867797851562
0, 1, 65, 295.5315551757812
0, 1, 66, 291.3419494628906
0, 1, 67, 292.2180480957031
0, 1, 68, 277.349609375
0, 1, 69, 281.0698547363281
0, 1, 70, 269.1183471679688
0, 1, 71, 272.9847717285156
0, 1, 72, 284.9544677734375
0, 1, 73, 305.3759765625
0, 1, 74, 303.1221923828125
0, 1, 75, 292.830078125
0, 1, 76, 286.7020568847656
0, 1, 77, 288.9381408691406
0, 1, 78, 296.6264343261719
0, 1, 79, 304.6990051269531
0, 1, 80, 295.1705627441406
0, 1, 81, 300.2519226074219
0, 1, 82, 287.4515991210938
0, 1, 83, 330.5971984863281
0, 1, 84, 309.0837097167969
0, 1, 85, 251.4092864990234
0, 1, 86, 294.0503234863281
0, 1, 87, 289.8511047363281
0, 1, 88, 296.9817504882812
0, 1, 89, 291.2392883300781
0, 1, 90, 270.3099060058594
0, 1, 91, 318.6773986816406
0, 1, 92, 290.6904907226562
0, 1, 93, 287.9628295898438
0, 1, 94, 306.9254455566406
0, 1, 95, 283.3086853027344
0, 1, 96, 282.9519958496094
0, 1, 97, 300.2124633789062
0, 1, 98, 277.0239868164062
0, 1, 99, 267.0126037597656
0, 1, 100, 277.43896484375
0, 1, 101, 283.2458190917969
0, 1, 102, 278.2576599121094
0, 1, 103, 282.2364196777344
0, 1, 104, 306.7997436523438
0, 1, 105, 297.0217590332031
0, 1, 106, 260.7842102050781
0, 1, 107, 191.8045196533203
0, 1, 108, 80.20877838134766
0, 1, 109, 23.71265983581543
0, 1, 110, 11.33872699737549
0, 1, 111, 7.788663387298584
0, 1, 112, 11.43526554107666
0, 1, 113, 7.039544105529785
0, 1, 114, 5.794645309448242
0, 1, 115, 6.478672027587891
0, 1, 116, 14.35722637176514
0, 1, 117, 5.881725311279297
0, 1, 118, 4.398605823516846
0, 1, 119, 4.736706256866455
0, 1, 120, 5.385030746459961
0, 1, 121, 3.021457433700562
0, 1, 122, 2.453439474105835
0, 1, 123, 2.698145627975464
0, 1, 124, 11.07973480224609
0, 1, 125, 5.159221649169922
0, 1, 126, 5.414682865142822
0, 1, 127, 3.691304683685303
0, 2, 0, 7.063419818878174
0, 2, 1, 3.777532577514648
0, 2, 2, 7.293002128601074
0, 2, 3, 5.133534908294678
0, 2, 4, 6.417762279510498
0, 2, 5, 1.328567981719971
0, 2, 6, 2.554861307144165
0, 2, 7, 2.713993072509766
0, 2, 8, 5.793010234832764
0, 2, 9, 9.590572357177734
0, 2, 10, 8.464369773864746
0, 2, 11, 5.824254512786865
0, 2, 12, 7.439635753631592
0, 2, 13, 9.543605804443359
0, 2, 14, 10.26648044586182
0, 2, 15, 7.844906330108643
0, 2, 16, 9.387974739074707
0, 2, 17, 16.87889671325684
0, 2, 18, 31.71624374389648
0, 2, 19, 114.6277389526367
0, 2, 20, 246.0273895263672
0, 2, 21, 270.1187438964844
0, 2, 22, 315.3688049316406
0, 2, 23, 301.1559143066406
0, 2, 24, 286.2502746582031
0, 2, 25, 303.0447387695312
0, 2, 26, 293.2477111816406
0, 2, 27, 276.0442199707031
0, 2, 28, 278.2274475097656
0, 2, 29, 274.8536987304688
0, 2, 30, 289.9457092285156
0, 2, 31, 280.9943237304688
0, 2, 32, 293.0797424316406
0, 2, 33, 282.8887023925781
0, 2, 34, 332.2723388671875
0, 2, 35, 288.3744812011719
0, 2, 36, 303.0975341796875
0, 2, 37, 315.7807006835938
0, 2, 38, 311.4665222167969
0, 2, 39, 267.5375366210938
0, 2, 40, 309.2908935546875
0, 2, 41, 293.5525817871094
0, 2, 42, 305.8163757324219
0, 2, 43, 312.4974975585938
0, 2, 44, 312.5045166015625
0, 2, 45, 325.4935302734375
0, 2, 46, 288.0789184570312
0, 2, 47, 302.5301208496094
0, 2, 48, 281.3270568847656
0, 2, 49, 278.0884704589844
0, 2, 50, 294.3162841796875
0, 2, 51, 283.0570983886719
0, 2, 52, 273.383544921875
0, 2, 53, 287.2343139648438
0, 2, 54, 281.2428283691406
0, 2, 55, 274.980224609375
0, 2, 56, 304.44091796875
0, 2, 57, 290.9206848144531
0, 2, 58, 301.6896667480469
0, 2, 59, 290.0536499023438
0, 2, 60, 317.887451171875
0, 2, 61, 302.5871276855469
0, 2, 62, 314.9900207519531
0, 2, 63, 302.020751953125
0, 2, 64, 298.5606689453125
0, 2, 65, 312.3185729980469
0, 2, 66, 280.6378784179688
0, 2, 67, 290.8641357421875
0, 2, 68, 296.9985046386719
0, 2, 69, 317.4352416992188
0, 2, 70, 335.9328308105469
0, 2, 71, 284.0046081542969
0, 2, 72, 303.1976013183594
0, 2, 73, 309.7830200195312
0, 2, 74, 286.8504028320312
0, 2, 75, 303.2303771972656
0, 2, 76, 287.1219787597656
0, 2, 77, 298.9989929199219
0, 2, 78, 312.83935546875
0, 2, 79, 308.0534057617188
0, 2, 80, 297.850341796875
0, 2, 81, 282.8593444824219
0, 2, 82, 317.3713684082031
0, 2, 83, 314.9220886230469
0, 2, 84, 289.1903381347656
0, 2, 85, 283.4067687988281
0, 2, 86, 325.7899780273438
0, 2, 87, 286.4861755371094
0, 2, 88, 279.6668701171875
0, 2, 89, 294.8894653320312
0, 2, 90, 296.736572265625
0, 2, 91, 276.2650146484375
0, 2, 92, 306.6783752441406
0, 2, 93, 315.5040283203125
0, 2, 94, 291.0513000488281
0, 2, 95, 313.8008422851562
0, 2, 96, 316.1127319335938
0, 2, 97, 290.5707702636719
0, 2, 98, 293.54931640625
0, 2, 99, 275.5760803222656
0, 2, 100, 304.7328491210938
0, 2, 101, 300.1243896484375
0, 2, 102, 300.8062438964844
0, 2, 103, 291.7661437988281
0, 2, 104, 293.31103515625
0, 2, 105, 274.9901428222656
0, 2, 106, 297.1041870117188
0, 2, 107, 271.2173767089844
0, 2, 108, 115.9425964355469
0, 2, 109, 30.95781135559082
0, 2, 110, 9.561751365661621
0, 2, 111, 11.13705730438232
0, 2, 112, 8.167158126831055
0, 2, 113, 12.12821578979492
0, 2, 114, 9.372605323791504
0, 2, 115, 7.956409931182861
0, 2, 116, 9.10477352142334
0, 2, 117, 8.180859565734863
0, 2, 118, 1.413537740707397
0, 2, 119, 5.483367919921875
0, 2, 120, 6.901374340057373
0, 2, 121, 2.389540195465088
0, 2, 122, 4.135471820831299
0, 2, 123, 4.526211738586426
0, 2, 124, 3.755496501922607
0, 2, 125, 4.778605937957764
0, 2, 126, 2.558012723922729
0, 2, 127, 5.298003673553467
0, 3, 0, 3.895542621612549
0, 3, 1, 3.41107964515686
0, 3, 2, 3.387908697128296
0, 3, 3, 1.384409070014954
0, 3, 4, 4.201714038848877
0, 3, 5, 7.549961566925049
0, 3, 6, 6.395999908447266
0, 3, 7, 5.462318897247314
0, 3, 8, 5.400372505187988
0, 3, 9, 6.36171817779541
0, 3, 10, 5.89840030670166
0, 3, 11, 5.183553695678711
0, 3, 12, 7.761850357055664
0, 3, 13, 14.19760036468506
0, 3, 14, 12.63392734527588
0, 3, 15, 17.39846992492676
0, 3, 16, 11.70760917663574
0, 3, 17, 22.67395210266113
0, 3, 18, 51.31411361694336
0, 3, 19, 178.4760894775391
0, 3, 20, 271.2254028320312
0, 3, 21, 270.7402648925781
0, 3, 22, 281.6349792480469
0, 3, 23, 287.0652465820312
0, 3, 24, 288.591552734375
0, 3, 25, 270.881591796875
0, 3, 26, 303.4151916503906
0, 3, 27, 292.6618041992188
0, 3, 28, 282.0714721679688
0, 3, 29, 338.6241455078125
0, 3, 30, 316.4656372070312
0, 3, 31, 285.7538146972656
0, 3, 32, 306.3109436035156
0, 3, 33, 316.5323181152344
0, 3, 34, 326.1394653320312
0, 3, 35, 308.429931640625
0, 3, 36, 269.9669799804688
0, 3, 37, 315.9407348632812
0, 3, 38, 303.824462890625
0, 3, 39, 291.0053405761719
0, 3, 40, 266.6612854003906
0, 3, 41, 299.3284301757812
0, 3, 42, 285.333740234375
0, 3, 43, 306.7444763183594
0, 3, 44, 311.2636413574219
0, 3, 45, 289.7967224121094
0, 3, 46, 329.1341247558594
0, 3, 47, 299.8528442382812
0, 3, 48, 304.5138854980469
0, 3, 49, 276.7291870117188
0, 3, 50, 289.8323059082031
0, 3, 51, 278.9377136230469
0, 3, 52, 315.5502624511719
0, 3, 53, 288.6345825195312
0, 3, 54, 284.67041015625
0, 3, 55, 282.7044067382812
0, 3, 56, 298.9542846679688
0, 3, 57, 288.0900573730469
0, 3, 58, 308.6697998046875
0, 3, 59, 294.2339172363281
0, 3, 60, 297.8901062011719
0, 3, 61, 264.2277221679688
0, 3, 62, 285.6077880859375
0, 3, 63, 307.7906799316406
0, 3, 64, 316.9681396484375
0, 3, 65, 304.794921875
0, 3, 66, 314.5639343261719
0, 3, 67, 317.8590087890625
0, 3, 68, 278.9122314453125
0, 3, 69, 284.8288269042969
0, 3, 70, 287.6437377929688
0, 3, 71, 300.2108154296875
0, 3, 72, 269.7444763183594
0, 3, 73, 308.5387573242188
0, 3, 74, 293.1055603027344
0, 3, 75, 291.4948425292969
0, 3, 76, 307.1914672851562
0, 3, 77, 313.8676147460938
0, 3, 78, 301.5005798339844
0, 3, 79, 285.4292297363281
0, 3, 80, 292.6692199707031
0, 3, 81, 309.6488037109375
0, 3, 82, 315.7096252441406
0, 3, 83, 299.7424011230469
0, 3, 84, 311.5599670410156
0, 3, 85, 291.6062316894531
0, 3, 86, 302.5161437988281
0, 3, 87, 298.6578979492188
0, 3, 88, 298.5547790527344
0, 3, 89, 295.0587158203125
0, 3, 90, 274.8122253417969
0, 3, 91, 284.3233642578125
0, 3, 92, 304.8309631347656
0, 3, 93, 312.8999328613281
0, 3, 94, 298.8656005859375
0, 3, 95, 336.0514831542969
0, 3, 96, 293.2863464355469
0, 3, 97, 284.7864685058594
0, 3, 98, 278.239990234375
0, 3, 99, 264.8511962890625
0, 3, 100, 284.9330749511719
0, 3, 101, 297.4500122070312
0, 3, 102, 277.4900207519531
0, 3, 103, 322.1779174804688
0, 3, 104, 311.7735900878906
0, 3, 105, 289.0549621582031
0, 3, 106, 301.7373046875
0, 3, 107, 281.7897033691406
0, 3, 108, 168.7464904785156
0, 3, 109, 57.46290588378906
0, 3, 110, 17.24696159362793
0, 3, 111, 12.62020111083984
0, 3, 112, 12.17979049682617
0, 3, 113, 6.155644416809082
0, 3, 114, 10.49285888671875
0, 3, 115, 8.582582473754883
0, 3, 116, 7.173550605773926
0, 3, 117, 7.814992904663086
0, 3, 118, 6.468251705169678
0, 3, 119, 4.727766990661621
0, 3, 120, 6.82452917098999
0, 3, 121, 3.137008905410767
0, 3, 122, 3.485179662704468
0, 3, 123, 7.654608726501465
0, 3, 124, 1.711465835571289
0, 3, 125, 5.662681579589844
0, 3, 126, 5.497812747955322
0, 3, 127, 1.807613611221313
0, 4, 0, 3.873462200164795
0, 4, 1, 4.334817409515381
0, 4, 2, 2.781793355941772
0, 4, 3, 1.988006949424744
0, 4, 4, 5.66605281829834
0, 4, 5, 7.916078567504883
0, 4, 6, 8.524188041687012
0, 4, 7, 6.169374465942383
0, 4, 8, 3.391870021820068
0, 4, 9, 4.608572959899902
0, 4, 10, 7.317780017852783
0, 4, 11, 7.257289886474609
0, 4, 12, 7.141812801361084
0, 4, 13, 8.790707588195801
0, 4, 14, 11.28064727783203
0, 4, 15, 9.464443206787109
0, 4, 16, 14.87811279296875
0, 4, 17, 18.36507987976074
0, 4, 18, 94.20403289794922
0, 4, 19, 221.7975921630859
0, 4, 20, 283.6495666503906
0, 4, 21, 271.8007202148438
0, 4, 22, 304.5887451171875
0, 4, 23, 267.7021179199219
0, 4, 24, 288.2009887695312
0, 4, 25, 274.24755859375
0, 4, 26, 293.9637756347656
0, 4, 27, 282.7824096679688
0, 4, 28, 306.0730590820312
0, 4, 29, 323.0735778808594
0, 4, 30, 309.3152465820312
0, 4, 31, 303.7743530273438
0, 4, 32, 280.2201232910156
0, 4, 33, 296.5835571289062
0, 4, 34, 295.4024353027344
0, 4, 35, 311.3163757324219
0, 4, 36, 292.5372314453125
0, 4, 37, 286.1873779296875
0, 4, 38, 297.4679870605469
0, 4, 39, 292.6116333007812
0, 4, 40, 301.8587951660156
0, 4, 41, 313.0812683105469
0, 4, 42, 330.2299499511719
0, 4, 43, 295.4408874511719
0, 4, 44, 321.5545349121094
0, 4, 45, 324.8069458007812
0, 4, 46, 304.9664611816406
0, 4, 47, 292.8514404296875
0, 4, 48, 296.2831726074219
0, 4, 49, 277.7681274414062
0, 4, 50, 295.9228515625
0, 4, 51, 316.8142700195312
0, 4, 52, 328.9016723632812
0, 4, 53, 304.2204284667969
0, 4, 54, 287.3844909667969
0, 4, 55, 315.5364685058594
0, 4, 56, 284.8218994140625
0, 4, 57, 312.1700744628906
0, 4, 58, 297.3771362304688
0, 4, 59, 308.5295104980469
0, 4, 60, 301.5341796875
0, 4, 61, 315.3611450195312
0, 4, 62, 308.8690185546875
0, 4, 63, 298.5997924804688
0, 4, 64, 329.010498046875
0, 4, 65, 316.2983703613281
0, 4, 66, 293.8658142089844
0, 4, 67, 283.5903930664062
0, 4, 68, 311.2894287109375
0, 4, 69, 275.397705078125
0, 4, 70, 299.4426879882812
0, 4, 71, 321.7037963867188
0, 4, 72, 331.7119750976562
0, 4, 73, 298.6647338867188
0, 4, 74, 293.5243530273438
0, 4, 75, 288.4080505371094
0, 4, 76, 276.5868225097656
0, 4, 77, 279.0489807128906
0, 4, 78, 309.3086853027344
0, 4, 79, 319.9853210449219
0, 4, 80, 316.0050354003906
0, 4, 81, 312.2322998046875
0, 4, 82, 298.2450866699219
0, 4, 83, 300.3919982910156
0, 4, 84, 292.2319641113281
0, 4, 85, 295.69580078125
0, 4, 86, 299.8110656738281
0, 4, 87, 284.2269592285156
0, 4, 88, 306.9727478027344
0, 4, 89, 294.8334045410156
0, 4, 90, 334.6303405761719
0, 4, 91, 302.1427001953125
0, 4, 92, 289.4670104980469
0, 4, 93, 296.9202270507812
0, 4, 94, 293.0626220703125
0, 4, 95, 288.3166198730469
0, 4, 96, 320.96044921875
0, 4, 97, 274.0860290527344
0, 4, 98, 326.3028869628906
0, 4, 99, 312.6814270019531
0, 4, 100, 299.4078674316406
0, 4, 101, 257.8131103515625
0, 4, 102, 298.1183166503906
0, 4, 103, 318.0332336425781
0, 4, 104, 284.941162109375
0, 4, 105, 308.804931640625
0, 4, 106, 286.6949768066406
0, 4, 107, 294.217529296875
0, 4, 108, 226.8014526367188
0, 4, 109, 80.28040313720703
0, 4, 110, 16.95733833312988
0, 4, 111, 13.67833805084229
0, 4, 112, 7.966652393341064
0, 4, 113, 11.19209003448486
0, 4, 114, 8.142428398132324
0, 4, 115, 9.175250053405762
0, 4, 116, 9.644326210021973
0, 4, 117, 7.103178024291992
0, 4, 118, 10.28735256195068
0, 4, 119, 10.3512134552002
0, 4, 120, 6.621639251708984
0, 4, 121, 5.148650169372559
0, 4, 122, 3.930699825286865
0, 4, 123, 6.232907295227051
0, 4, 124, 4.506853580474854
0, 4, 125, 12.13185882568359
0, 4, 126, 5.953957080841064
0, 4, 127, 2.910330057144165
0, 5, 0, 4.194851875305176
0, 5, 1, 3.853970289230347
0, 5, 2, 3.203714370727539
0, 5, 3, 3.904536008834839
0, 5, 4, 4.972699642181396
0, 5, 5, 5.092502117156982
0, 5, 6, 9.248891830444336
0, 5, 7, 5.605788230895996
0, 5, 8, 4.538311958312988
0, 5, 9, 4.874066829681396
0, 5, 10, 8.006917953491211
0, 5, 11, 7.799518585205078
0, 5, 12, 7.525278568267822
0, 5, 13, 6.387539863586426
0, 5, 14, 12.80371475219727
0, 5, 15, 16.94278526306152
0, 5, 16, 13.57616710662842
0, 5, 17, 30.12833786010742
0, 5, 18, 137.2207641601562
0, 5, 19, 285.2437133789062
0, 5, 20, 307.0935668945312
0, 5, 21, 317.3274841308594
0, 5, 22, 274.8520202636719
0, 5, 23, 309.8319091796875
0, 5, 24, 302.1436767578125
0, 5, 25, 289.260009765625
0, 5, 26, 294.7293701171875
0, 5, 27, 320.9488525390625
0, 5, 28, 304.7124328613281
0, 5, 29, 299.3473815917969
0, 5, 30, 326.3218688964844
0, 5, 31, 289.2685546875
0, 5, 32, 301.91015625
0, 5, 33, 303.5774230957031
0, 5, 34, 299.0019226074219
0, 5, 35, 310.3212280273438
0, 5, 36, 268.6758728027344
0, 5, 37, 281.5910339355469
0, 5, 38, 291.5623168945312
0, 5, 39, 312.4154357910156
0, 5, 40, 307.9951171875
0, 5, 41, 273.9956665039062
0, 5, 42, 304.7163391113281
0, 5, 43, 317.0804748535156
0, 5, 44, 291.8644104003906
0, 5, 45, 301.8578186035156
0, 5, 46, 264.183349609375
0, 5, 47, 280.7623596191406
0, 5, 48, 293.0509033203125
0, 5, 49, 286.1452941894531
0, 5, 50, 293.0197143554688
0, 5, 51, 281.3128967285156
0, 5, 52, 269.7997741699219
0, 5, 53, 283.965576171875
0, 5, 54, 292.1959533691406
0, 5, 55, 346.3208618164062
0, 5, 56, 305.5453491210938
0, 5, 57, 306.4082336425781
0, 5, 58, 313.2774353027344
0, 5, 59, 301.3816528320312
0, 5, 60, 308.3880920410156
0, 5, 61, 281.3863525390625
0, 5, 62, 325.715087890625
0, 5, 63, 291.9559020996094
0, 5, 64, 324.8871459960938
0, 5, 65, 308.6901245117188
0, 5, 66, 328.6678771972656
0, 5, 67, 313.0344543457031
0, 5, 68, 307.8482971191406
0, 5, 69, 310.6071166992188
0, 5, 70, 300.4897155761719
0, 5, 71, 273.0620727539062
0, 5, 72, 309.1269836425781
0, 5, 73, 303.7955322265625
0, 5, 74, 296.6437072753906
0, 5, 75, 293.8455200195312
0, 5, 76, 285.1432495117188
0, 5, 77, 300.7731018066406
0, 5, 78, 314.6584167480469
0, 5, 79, 306.5682983398438
0, 5, 80, 293.9225158691406
0, 5, 81, 326.2790222167969
0, 5, 82, 325.0134582519531
0, 5, 83, 283.4043884277344
0, 5, 84, 301.8983459472656
0, 5, 85, 272.0425720214844
0, 5, 86, 325.3605346679688
0, 5, 87, 281.9369201660156
0, 5, 88, 316.3632202148438
0, 5, 89, 307.6788635253906
0, 5, 90, 316.6539001464844
0, 5, 91, 313.2212524414062
0, 5, 92, 296.5761108398438
0, 5, 93, 321.2485961914062
0, 5, 94, 310.9859619140625
0, 5, 95, 298.9389038085938
0, 5, 96, 298.9317016601562
0, 5, 97, 296.617919921875
0, 5, 98, 319.6050720214844
0, 5, 99, 301.3876647949219
0, 5, 100, 290.1476135253906
0, 5, 101, 304.5501708984375
0, 5, 102, 293.8001098632812
0, 5, 103, 312.2225341796875
0, 5, 104, 302.6849670410156
0, 5, 105, 293.830322265625
0, 5, 106, 281.0675659179688
0, 5, 107, 295.4498596191406
0, 5, 108, 263.8916320800781
0, 5, 109, 156.2969360351562
0, 5, 110, 41.53283309936523
0, 5, 111, 20.35300064086914
0, 5, 112, 17.06412124633789
0, 5, 113, 15.79495048522949
0, 5, 114, 11.23034000396729
0, 5, 115, 7.77958869934082
0, 5, 116, 7.731544494628906
0, 5, 117, 7.151151180267334
0, 5, 118, 13.40318298339844
0, 5, 119, 3.415799379348755
0, 5, 120, 5.50811243057251
0, 5, 121, 4.918380260467529
0, 5, 122, 6.334719181060791
0, 5, 123, 5.966176509857178
0, 5, 124, 4.912889957427979
0, 5, 125, 2.854720115661621
0, 5, 126, 6.209029197692871
0, 5, 127, 5.5282301902771
0, 6, 0, 5.638837337493896
0, 6, 1, 1.988799214363098
0, 6, 2, 6.575531005859375
0, 6, 3, 6.591745853424072
0, 6, 4, 2.631079912185669
0, 6, 5, 5.034420490264893
0, 6, 6, 7.546286582946777
0, 6, 7, 7.9268479347229
0, 6, 8, 8.135517120361328
0, 6, 9, 5.738015651702881
0, 6, 10, 6.75199031829834
0, 6, 11, 7.705358028411865
0, 6, 12, 8.913699150085449
0, 6, 13, 14.13316059112549
0, 6, 14, 10.00154399871826
0, 6, 15, 16.12997627258301
0, 6, 16, 30.62557792663574
0, 6, 17, 54.78070831298828
0, 6, 18, 174.5107421875
0, 6, 19, 276.4560241699219
0, 6, 20, 290.5780334472656
0, 6, 21, 315.27099609375
0, 6, 22, 319.2302551269531
0, 6, 23, 305.4316711425781
0, 6, 24, 315.1777954101562
0, 6, 25, 315.1612854003906
0, 6, 26, 319.7156982421875
0, 6, 27, 330.5023498535156
0, 6, 28, 297.7913208007812
0, 6, 29, 329.4075927734375
0, 6, 30, 279.8542785644531
0, 6, 31, 285.6401672363281
0, 6, 32, 339.9605407714844
0, 6, 33, 299.0497741699219
0, 6, 34, 340.0406799316406
0, 6, 35, 319.2768249511719
0, 6, 36, 272.9635925292969
0, 6, 37, 289.1594543457031
0, 6, 38, 313.6094360351562
0, 6, 39, 299.7743225097656
0, 6, 40, 283.2935180664062
0, 6, 41, 296.3166198730469
0, 6, 42, 303.0319519042969
0, 6, 43, 290.3927917480469
0, 6, 44, 280.9572448730469
0, 6, 45, 318.4252319335938
0, 6, 46, 302.0096130371094
0, 6, 47, 332.1780700683594
0, 6, 48, 292.4730224609375
0, 6, 49, 312.2667541503906
0, 6, 50, 328.8444519042969
0, 6, 51, 309.8269348144531
0, 6, 52, 320.5179138183594
0, 6, 53, 326.6559143066406
0, 6, 54, 302.1058959960938
0, 6, 55, 304.1041564941406
0, 6, 56, 293.5350036621094
0, 6, 57, 311.8631286621094
0, 6, 58, 260.5366821289062
0, 6, 59, 304.3387756347656
0, 6, 60, 313.2592163085938
0, 6, 61, 271.6976928710938
0, 6, 62, 337.0776977539062
0, 6, 63, 322.9783325195312
0, 6, 64, 293.3106994628906
0, 6, 65, 283.7960205078125
0, 6, 66, 305.3663940429688
0, 6, 67, 309.1913146972656
0, 6, 68, 293.2112121582031
0, 6, 69, 280.3089294433594
0, 6, 70, 277.52783203125
0, 6, 71, 291.8778076171875
0, 6, 72, 310.406494140625
0, 6, 73, 292.3651428222656
0, 6, 74, 330.4174194335938
0, 6, 75, 342.5147705078125
0, 6, 76, 295.8851318359375
0, 6, 77, 287.4894409179688
0, 6, 78, 279.9630432128906
0, 6, 79, 293.798828125
0, 6, 80, 298.0046081542969
0, 6, 81, 316.3977355957031
0, 6, 82, 319.9542541503906
0, 6, 83, 322.4364013671875
0, 6, 84, 298.1407775878906
0, 6, 85, 301.7868041992188
0, 6, 86, 329.2061462402344
0, 6, 87, 291.4551086425781
0, 6, 88, 308.5494079589844
0, 6, 89, 304.3272094726562
0, 6, 90, 303.472900390625
0, 6, 91, 315.1583251953125
0, 6, 92, 285.5123596191406
0, 6, 93, 296.4349060058594
0, 6, 94, 273.453369140625
0, 6, 95, 299.533935546875
0, 6, 96, 346.6390075683594
0, 6, 97, 308.1731262207031
0, 6, 98, 301.0572814941406
0, 6, 99, 273.4211120605469
0, 6, 100, 311.5439758300781
0, 6, 101, 291.58544921875
0, 6, 102, 307.7727661132812
0, 6, 103, 308.9502258300781
0, 6, 104, 290.8099670410156
0, 6, 105, 300.9943237304688
0, 6, 106, 307.9123840332031
0, 6, 107, 306.1259765625
0, 6, 108, 266.8634948730469
0, 6, 109, 184.6147003173828
0, 6, 110, 53.81121826171875
0, 6, 111, 22.66712188720703
0, 6, 112, 12.81739234924316
0, 6, 113, 10.30060386657715
0, 6, 114, 11.8152961730957
0, 6, 115, 11.44785404205322
0, 6, 116, 10.6478967666626
0, 6, 117, 9.1448974609375
0, 6, 118, 11.43381309509277
0, 6, 119, 8.610300064086914
0, 6, 120, 5.664004325866699
0, 6, 121, 8.493010520935059
0, 6, 122, 8.189741134643555
0, 6, 123, 5.201448440551758
0, 6, 124, 9.578839302062988
0, 6, 125, 7.845163345336914
0, 6, 126, 4.350486278533936
0, 6, 127, 8.420928001403809
0, 7, 0, 7.695265293121338
0, 7, 1, 3.718024969100952
0, 7, 2, 5.1590576171875
0, 7, 3, 4.998042583465576
0, 7, 4, 4.593412399291992
0, 7, 5, 4.475793838500977
0, 7, 6, 7.223694324493408
0, 7, 7, 5.19257116317749
0, 7, 8, 5.47503662109375
0, 7, 9, 5.084317207336426
0, 7, 10, 8.337456703186035
0, 7, 11, 12.16679954528809
0, 7, 12, 12.03691482543945
0, 7, 13, 10.44610691070557
0, 7, 14, 10.02185535430908
0, 7, 15, 18.17871284484863
0, 7, 16, 25.37343215942383
0, 7, 17, 98.41981506347656
0, 7, 18, 218.1168212890625
0, 7, 19, 289.5794067382812
0, 7, 20, 297.8402709960938
0, 7, 21, 276.5515747070312
0, 7, 22, 299.7439880371094
0, 7, 23, 288.2708129882812
0, 7, 24, 313.2637023925781
0, 7, 25, 325.0082702636719
0, 7, 26, 277.9164733886719
0, 7, 27, 297.737548828125
0, 7, 28, 328.9965209960938
0, 7, 29, 319.9186706542969
0, 7, 30, 305.1889038085938
0, 7, 31, 278.8191528320312
0, 7, 32, 303.6883239746094
0, 7, 33, 263.2579650878906
0, 7, 34, 296.8563232421875
0, 7, 35, 321.7262268066406
0, 7, 36, 331.1729736328125
0, 7, 37, 326.2350463867188
0, 7, 38, 295.920166015625
0, 7, 39, 306.2167053222656
0, 7, 40, 291.5774536132812
0, 7, 41, 273.7546997070312
0, 7, 42, 300.2607421875
0, 7, 43, 273.5403442382812
0, 7, 44, 305.7682495117188
0, 7, 45, 297.9505920410156
0, 7, 46, 283.1343688964844
0, 7, 47, 330.2711181640625
0, 7, 48, 285.0936584472656
0, 7, 49, 300.926025390625
0, 7, 50, 320.4505615234375
0, 7, 51, 299.5368041992188
0, 7, 52, 326.8686828613281
0, 7, 53, 310.9675903320312
0, 7, 54, 324.8277282714844
0, 7, 55, 307.1667175292969
0, 7, 56, 279.7870788574219
0, 7, 57, 285.3172302246094
0, 7, 58, 296.1555480957031
0, 7, 59, 297.0096435546875
0, 7, 60, 323.218994140625
0, 7, 61, 277.4860229492188
0, 7, 62, 296.4305114746094
0, 7, 63, 293.6420593261719
0, 7, 64, 305.934814453125
0, 7, 65, 333.6007080078125
0, 7, 66, 318.4613342285156
0, 7, 67, 301.6495971679688
0, 7, 68, 279.9537963867188
0, 7, 69, 293.5215454101562
0, 7, 70, 301.2532043457031
0, 7, 71, 310.3486633300781
0, 7, 72, 286.2900390625
0, 7, 73, 296.4322204589844
0, 7, 74, 348.246337890625
0, 7, 75, 319.3374633789062
0, 7, 76, 324.5147705078125
0, 7, 77, 279.2511596679688
0, 7, 78, 303.3273010253906
0, 7, 79, 297.25830078125
0, 7, 80, 312.4472045898438
0, 7, 81, 320.2649536132812
0, 7, 82, 329.8790893554688
0, 7, 83, 318.2449340820312
0, 7, 84, 309.1689453125
0, 7, 85, 272.4910583496094
0, 7, 86, 311.5870056152344
0, 7, 87, 310.6419982910156
0, 7, 88, 307.4165344238281
0, 7, 89, 293.6832275390625
0, 7, 90, 307.9167175292969
0, 7, 91, 315.7307739257812
0, 7, 92, 287.3153991699219
0, 7, 93, 306.3482360839844
0, 7, 94, 273.1244201660156
0, 7, 95, 296.4491577148438
0, 7, 96, 330.3775939941406
0, 7, 97, 294.5639953613281
0, 7, 98, 291.0766296386719
0, 7, 99, 310.3367004394531
0, 7, 100, 281.9825439453125
0, 7, 101, 275.4154968261719
0, 7, 102, 291.2138977050781
0, 7, 103, 293.4722900390625
0, 7, 104, 274.6876831054688
0, 7, 105, 305.4869995117188
0, 7, 106, 317.8764038085938
0, 7, 107, 295.6600646972656
0, 7, 108, 273.4765930175781
0, 7, 109, 238.3450164794922
0, 7, 110, 97.63018798828125
0, 7, 111, 24.30893325805664
0, 7, 112, 14.59192657470703
0, 7, 113, 13.33930397033691
0, 7, 114, 13.77120304107666
0, 7, 115, 11.42301273345947
0, 7, 116, 8.275395393371582
0, 7, 117, 8.315762519836426
0, 7, 118, 9.612176895141602
0, 7, 119, 4.780422210693359
0, 7, 120, 3.960310697555542
0, 7, 121, 5.291652202606201
0, 7, 122, 6.505087852478027
0, 7, 123, 5.880268573760986
0, 7, 124, 4.511267185211182
0, 7, 125, 6.713716983795166
0, 7, 126, 8.015412330627441
0, 7, 127, 4.517202854156494
0, 8, 0, 2.993562936782837
0, 8, 1, 4.178065299987793
0, 8, 2, 5.555342674255371
0, 8, 3, 2.659295320510864
0, 8, 4, 3.445331811904907
0, 8, 5, 4.698395729064941
0, 8, 6, 4.834485530853271
0, 8, 7, 5.54902982711792
0, 8, 8, 8.95435619354248
0, 8, 9, 4.883959770202637
0, 8, 10, 8.650050163269043
0, 8, 11, 11.94792175292969
0, 8, 12, 12.25257682800293
0, 8, 13, 17.90825462341309
0, 8, 14, 13.24379062652588
0, 8, 15, 18.58767509460449
0, 8, 16, 33.2197265625
0, 8, 17, 130.0464630126953
0, 8, 18, 243.0454254150391
0, 8, 19, 296.5803833007812
0, 8, 20, 287.1156616210938
0, 8, 21, 308.1814880371094
0, 8, 22, 294.9666442871094
0, 8, 23, 274.8836975097656
0, 8, 24, 268.7577819824219
0, 8, 25, 277.7462158203125
0, 8, 26, 307.167724609375
0, 8, 27, 308.5598449707031
0, 8, 28, 304.84716796875
0, 8, 29, 318.6554870605469
0, 8, 30, 314.0641479492188
0, 8, 31, 304.6915283203125
0, 8, 32, 280.0237426757812
0, 8, 33, 293.1319580078125
0, 8, 34, 288.4886779785156
0, 8, 35, 281.6504211425781
0, 8, 36, 315.0558776855469
0, 8, 37, 340.1258239746094
0, 8, 38, 332.7504272460938
