# TOPAS Version: 3.1.p3
# Parameter File: batch_inserts_338.txt
# Results for scorer Readout_Adipose
# Scored in component: MyBox
# X in 1 bin  of 0.75 cm
# Y in 512 bins of 0.0783984 cm
# Z in 128 bins of 0.078125 cm
# EnergyDeposit ( MeV ) : Sum   
0, 0, 0, 17.08347320556641
0, 0, 1, 19.34144973754883
0, 0, 2, 26.47653388977051
0, 0, 3, 23.8532657623291
0, 0, 4, 19.33379936218262
0, 0, 5, 23.52438926696777
0, 0, 6, 25.22107124328613
0, 0, 7, 33.05206680297852
0, 0, 8, 19.78012084960938
0, 0, 9, 21.5744514465332
0, 0, 10, 27.3069896697998
0, 0, 11, 26.48530006408691
0, 0, 12, 30.81286811828613
0, 0, 13, 32.73016357421875
0, 0, 14, 38.60465240478516
0, 0, 15, 48.98604965209961
0, 0, 16, 42.5146369934082
0, 0, 17, 43.21683502197266
0, 0, 18, 75.16306304931641
0, 0, 19, 193.4093170166016
0, 0, 20, 700.9000854492188
0, 0, 21, 1192.050903320312
0, 0, 22, 1249.16552734375
0, 0, 23, 1273.17041015625
0, 0, 24, 1286.270141601562
0, 0, 25, 1353.20751953125
0, 0, 26, 1273.600708007812
0, 0, 27, 1276.925415039062
0, 0, 28, 1322.269409179688
0, 0, 29, 1269.240600585938
0, 0, 30, 1261.350830078125
0, 0, 31, 1280.9267578125
0, 0, 32, 1261.733154296875
0, 0, 33, 1237.612548828125
0, 0, 34, 1324.302124023438
0, 0, 35, 1303.36962890625
0, 0, 36, 1248.063598632812
0, 0, 37, 1281.9921875
0, 0, 38, 1248.64111328125
0, 0, 39, 1246.990356445312
0, 0, 40, 1223.406982421875
0, 0, 41, 1269.394165039062
0, 0, 42, 1251.466430664062
0, 0, 43, 1270.86572265625
0, 0, 44, 1223.9111328125
0, 0, 45, 1289.919189453125
0, 0, 46, 1263.283081054688
0, 0, 47, 1240.793579101562
0, 0, 48, 1275.684326171875
0, 0, 49, 1286.955810546875
0, 0, 50, 1310.037231445312
0, 0, 51, 1262.66259765625
0, 0, 52, 1357.320434570312
0, 0, 53, 1324.528076171875
0, 0, 54, 1296.539672851562
0, 0, 55, 1237.416137695312
0, 0, 56, 1323.4453125
0, 0, 57, 1290.913940429688
0, 0, 58, 1255.042236328125
0, 0, 59, 1331.606201171875
0, 0, 60, 1323.365600585938
0, 0, 61, 1263.121948242188
0, 0, 62, 1240.572143554688
0, 0, 63, 1278.152587890625
0, 0, 64, 1331.332397460938
0, 0, 65, 1285.38037109375
0, 0, 66, 1319.066772460938
0, 0, 67, 1216.84130859375
0, 0, 68, 1312.686401367188
0, 0, 69, 1331.4462890625
0, 0, 70, 1342.484008789062
0, 0, 71, 1285.421508789062
0, 0, 72, 1314.908569335938
0, 0, 73, 1238.910034179688
0, 0, 74, 1286.879028320312
0, 0, 75, 1298.506225585938
0, 0, 76, 1255.671264648438
0, 0, 77, 1289.900634765625
0, 0, 78, 1314.306640625
0, 0, 79, 1323.634887695312
0, 0, 80, 1258.5390625
0, 0, 81, 1320.041137695312
0, 0, 82, 1290.233276367188
0, 0, 83, 1292.3349609375
0, 0, 84, 1334.177978515625
0, 0, 85, 1232.309204101562
0, 0, 86, 1266.470703125
0, 0, 87, 1255.951782226562
0, 0, 88, 1254.7802734375
0, 0, 89, 1336.453979492188
0, 0, 90, 1273.962280273438
0, 0, 91, 1350.912963867188
0, 0, 92, 1303.459716796875
0, 0, 93, 1271.800659179688
0, 0, 94, 1241.256591796875
0, 0, 95, 1325.784301757812
0, 0, 96, 1282.119140625
0, 0, 97, 1326.313598632812
0, 0, 98, 1257.753051757812
0, 0, 99, 1251.460205078125
0, 0, 100, 1288.434204101562
0, 0, 101, 1310.840087890625
0, 0, 102, 1231.13427734375
0, 0, 103, 1328.625732421875
0, 0, 104, 1263.04736328125
0, 0, 105, 1267.193481445312
0, 0, 106, 1208.382080078125
0, 0, 107, 784.0093383789062
0, 0, 108, 196.9099884033203
0, 0, 109, 71.49710845947266
0, 0, 110, 64.16490173339844
0, 0, 111, 41.84482192993164
0, 0, 112, 33.11362838745117
0, 0, 113, 40.10778427124023
0, 0, 114, 41.55333709716797
0, 0, 115, 31.9410514831543
0, 0, 116, 25.29619026184082
0, 0, 117, 34.68986892700195
0, 0, 118, 26.09731101989746
0, 0, 119, 22.45334815979004
0, 0, 120, 27.71141624450684
0, 0, 121, 31.23637390136719
0, 0, 122, 28.77957153320312
0, 0, 123, 18.0734920501709
0, 0, 124, 19.80109214782715
0, 0, 125, 23.16098403930664
0, 0, 126, 21.58203506469727
0, 0, 127, 22.60489082336426
0, 1, 0, 26.34955596923828
0, 1, 1, 18.6693229675293
0, 1, 2, 19.41061592102051
0, 1, 3, 18.8951416015625
0, 1, 4, 20.83281326293945
0, 1, 5, 21.31420516967773
0, 1, 6, 25.54278373718262
0, 1, 7, 23.21167182922363
0, 1, 8, 29.87988662719727
0, 1, 9, 32.0880126953125
0, 1, 10, 32.18448638916016
0, 1, 11, 38.81121444702148
0, 1, 12, 40.24167251586914
0, 1, 13, 39.29067993164062
0, 1, 14, 42.60306549072266
0, 1, 15, 46.1913948059082
0, 1, 16, 59.47271728515625
0, 1, 17, 64.61452484130859
0, 1, 18, 99.28215789794922
0, 1, 19, 400.7548217773438
0, 1, 20, 1040.562866210938
0, 1, 21, 1375.898315429688
0, 1, 22, 1479.894409179688
0, 1, 23, 1463.722045898438
0, 1, 24, 1449.744262695312
0, 1, 25, 1423.060791015625
0, 1, 26, 1475.445068359375
0, 1, 27, 1461.977661132812
0, 1, 28, 1491.379638671875
0, 1, 29, 1480.963256835938
0, 1, 30, 1505.641235351562
0, 1, 31, 1483.572021484375
0, 1, 32, 1414.396606445312
0, 1, 33, 1501.657592773438
0, 1, 34, 1504.115600585938
0, 1, 35, 1460.69482421875
0, 1, 36, 1487.741943359375
0, 1, 37, 1412.702392578125
0, 1, 38, 1396.025756835938
0, 1, 39, 1526.857299804688
0, 1, 40, 1459.974975585938
0, 1, 41, 1490.400390625
0, 1, 42, 1493.862670898438
0, 1, 43, 1503.741455078125
0, 1, 44, 1448.036987304688
0, 1, 45, 1481.989868164062
0, 1, 46, 1418.813110351562
0, 1, 47, 1432.058837890625
0, 1, 48, 1432.51318359375
0, 1, 49, 1486.379516601562
0, 1, 50, 1443.255126953125
0, 1, 51, 1476.881713867188
0, 1, 52, 1473.4970703125
0, 1, 53, 1475.39453125
0, 1, 54, 1503.723266601562
0, 1, 55, 1489.970458984375
0, 1, 56, 1468.315673828125
0, 1, 57, 1459.231201171875
0, 1, 58, 1429.822387695312
0, 1, 59, 1482.447875976562
0, 1, 60, 1470.084350585938
0, 1, 61, 1447.9638671875
0, 1, 62, 1453.194702148438
0, 1, 63, 1415.82421875
0, 1, 64, 1477.539306640625
0, 1, 65, 1417.446899414062
0, 1, 66, 1438.853393554688
0, 1, 67, 1459.996459960938
0, 1, 68, 1387.337158203125
0, 1, 69, 1461.935668945312
0, 1, 70, 1434.564086914062
0, 1, 71, 1500.38037109375
0, 1, 72, 1434.266723632812
0, 1, 73, 1486.58984375
0, 1, 74, 1474.579345703125
0, 1, 75, 1478.737060546875
0, 1, 76, 1457.666748046875
0, 1, 77, 1463.022583007812
0, 1, 78, 1448.927856445312
0, 1, 79, 1499.666259765625
0, 1, 80, 1447.946044921875
0, 1, 81, 1421.853149414062
0, 1, 82, 1471.870727539062
0, 1, 83, 1462.7763671875
0, 1, 84, 1533.617309570312
0, 1, 85, 1453.400756835938
0, 1, 86, 1401.848999023438
0, 1, 87, 1420.081298828125
0, 1, 88, 1471.35205078125
0, 1, 89, 1472.069702148438
0, 1, 90, 1420.176025390625
0, 1, 91, 1464.147338867188
0, 1, 92, 1413.43115234375
0, 1, 93, 1459.079833984375
0, 1, 94, 1471.59326171875
0, 1, 95, 1421.675048828125
0, 1, 96, 1496.649658203125
0, 1, 97, 1517.3740234375
0, 1, 98, 1480.382934570312
0, 1, 99, 1419.099487304688
0, 1, 100, 1450.157348632812
0, 1, 101, 1417.547973632812
0, 1, 102, 1442.485595703125
0, 1, 103, 1414.345336914062
0, 1, 104, 1406.526245117188
0, 1, 105, 1463.626220703125
0, 1, 106, 1369.410400390625
0, 1, 107, 1021.427551269531
0, 1, 108, 404.7810668945312
0, 1, 109, 88.76067352294922
0, 1, 110, 62.57585525512695
0, 1, 111, 54.24533081054688
0, 1, 112, 46.86863708496094
0, 1, 113, 38.19699478149414
0, 1, 114, 36.77223968505859
0, 1, 115, 39.11920166015625
0, 1, 116, 39.44717407226562
0, 1, 117, 36.92087936401367
0, 1, 118, 36.39732360839844
0, 1, 119, 33.45676040649414
0, 1, 120, 33.11396026611328
0, 1, 121, 26.57110404968262
0, 1, 122, 23.77051162719727
0, 1, 123, 26.30356216430664
0, 1, 124, 37.04263687133789
0, 1, 125, 23.87579345703125
0, 1, 126, 21.8935546875
0, 1, 127, 25.21159362792969
0, 2, 0, 18.13507652282715
0, 2, 1, 20.44813537597656
0, 2, 2, 18.71029663085938
0, 2, 3, 21.13351058959961
0, 2, 4, 19.77357482910156
0, 2, 5, 22.61182594299316
0, 2, 6, 27.88518714904785
0, 2, 7, 17.6717700958252
0, 2, 8, 23.76842498779297
0, 2, 9, 27.35032844543457
0, 2, 10, 28.7510871887207
0, 2, 11, 31.60922241210938
0, 2, 12, 33.65566635131836
0, 2, 13, 44.99303817749023
0, 2, 14, 47.76437759399414
0, 2, 15, 45.74477005004883
0, 2, 16, 60.63043975830078
0, 2, 17, 80.86341094970703
0, 2, 18, 145.5572662353516
0, 2, 19, 607.4795532226562
0, 2, 20, 1283.81201171875
0, 2, 21, 1431.110961914062
0, 2, 22, 1454.183837890625
0, 2, 23, 1403.105712890625
0, 2, 24, 1439.748046875
0, 2, 25, 1524.883544921875
0, 2, 26, 1552.726318359375
0, 2, 27, 1459.718994140625
0, 2, 28, 1463.1298828125
0, 2, 29, 1459.21337890625
0, 2, 30, 1466.082763671875
0, 2, 31, 1542.6455078125
0, 2, 32, 1506.759521484375
0, 2, 33, 1442.415649414062
0, 2, 34, 1473.915161132812
0, 2, 35, 1471.595458984375
0, 2, 36, 1528.718139648438
0, 2, 37, 1541.624389648438
0, 2, 38, 1508.275024414062
0, 2, 39, 1461.02783203125
0, 2, 40, 1509.899658203125
0, 2, 41, 1515.074340820312
0, 2, 42, 1503.487060546875
0, 2, 43, 1553.248779296875
0, 2, 44, 1460.467407226562
0, 2, 45, 1481.354736328125
0, 2, 46, 1426.8759765625
0, 2, 47, 1444.428588867188
0, 2, 48, 1396.707153320312
0, 2, 49, 1468.983520507812
0, 2, 50, 1442.148681640625
0, 2, 51, 1451.03515625
0, 2, 52, 1495.147094726562
0, 2, 53, 1527.39208984375
0, 2, 54, 1524.563232421875
0, 2, 55, 1490.13623046875
0, 2, 56, 1459.5126953125
0, 2, 57, 1415.757446289062
0, 2, 58, 1456.120239257812
0, 2, 59, 1448.244262695312
0, 2, 60, 1475.221435546875
0, 2, 61, 1449.450439453125
0, 2, 62, 1467.845458984375
0, 2, 63, 1502.48779296875
0, 2, 64, 1458.58984375
0, 2, 65, 1428.495361328125
0, 2, 66, 1486.115234375
0, 2, 67, 1504.2216796875
0, 2, 68, 1538.885864257812
0, 2, 69, 1537.505126953125
0, 2, 70, 1506.59619140625
0, 2, 71, 1461.722045898438
0, 2, 72, 1517.706665039062
0, 2, 73, 1520.361572265625
0, 2, 74, 1489.45166015625
0, 2, 75, 1511.223266601562
0, 2, 76, 1453.307006835938
0, 2, 77, 1502.725341796875
0, 2, 78, 1432.064086914062
0, 2, 79, 1537.872314453125
0, 2, 80, 1483.110229492188
0, 2, 81, 1466.633666992188
0, 2, 82, 1555.051147460938
0, 2, 83, 1518.71630859375
0, 2, 84, 1490.263427734375
0, 2, 85, 1520.925048828125
0, 2, 86, 1538.968505859375
0, 2, 87, 1487.052001953125
0, 2, 88, 1536.123779296875
0, 2, 89, 1464.122680664062
0, 2, 90, 1429.173950195312
0, 2, 91, 1404.437866210938
0, 2, 92, 1473.4189453125
0, 2, 93, 1496.095458984375
0, 2, 94, 1456.791748046875
0, 2, 95, 1547.891479492188
0, 2, 96, 1517.70458984375
0, 2, 97, 1453.18310546875
0, 2, 98, 1466.875732421875
0, 2, 99, 1405.733154296875
0, 2, 100, 1467.864135742188
0, 2, 101, 1481.822021484375
0, 2, 102, 1462.994750976562
0, 2, 103, 1386.614135742188
0, 2, 104, 1413.490600585938
0, 2, 105, 1397.82568359375
0, 2, 106, 1458.902709960938
0, 2, 107, 1273.192016601562
0, 2, 108, 620.4036865234375
0, 2, 109, 174.5548706054688
0, 2, 110, 68.31007385253906
0, 2, 111, 61.82786178588867
0, 2, 112, 39.56064605712891
0, 2, 113, 46.68071746826172
0, 2, 114, 40.71995162963867
0, 2, 115, 41.06822967529297
0, 2, 116, 34.0168571472168
0, 2, 117, 34.93365859985352
0, 2, 118, 30.61551475524902
0, 2, 119, 32.89927673339844
0, 2, 120, 33.7901496887207
0, 2, 121, 18.33877754211426
0, 2, 122, 26.4227237701416
0, 2, 123, 22.01406860351562
0, 2, 124, 24.0452823638916
0, 2, 125, 28.98350524902344
0, 2, 126, 16.94814109802246
0, 2, 127, 19.31083106994629
0, 3, 0, 17.33136177062988
0, 3, 1, 24.94327735900879
0, 3, 2, 22.2492733001709
0, 3, 3, 26.54747009277344
0, 3, 4, 24.28224182128906
0, 3, 5, 21.94003677368164
0, 3, 6, 33.6554069519043
0, 3, 7, 29.23161888122559
0, 3, 8, 29.79604911804199
0, 3, 9, 29.12719917297363
0, 3, 10, 34.67357635498047
0, 3, 11, 33.48250961303711
0, 3, 12, 45.42087936401367
0, 3, 13, 51.06005859375
0, 3, 14, 57.91325759887695
0, 3, 15, 51.1110725402832
0, 3, 16, 67.87454986572266
0, 3, 17, 87.44598388671875
0, 3, 18, 239.5612487792969
0, 3, 19, 880.7776489257812
0, 3, 20, 1390.744873046875
0, 3, 21, 1504.43115234375
0, 3, 22, 1464.245361328125
0, 3, 23, 1449.079711914062
0, 3, 24, 1439.187255859375
0, 3, 25, 1463.360473632812
0, 3, 26, 1495.050415039062
0, 3, 27, 1467.69482421875
0, 3, 28, 1490.484008789062
0, 3, 29, 1543.875732421875
0, 3, 30, 1571.879028320312
0, 3, 31, 1508.136596679688
0, 3, 32, 1541.59619140625
0, 3, 33, 1535.973754882812
0, 3, 34, 1484.398681640625
0, 3, 35, 1463.113403320312
0, 3, 36, 1446.092651367188
0, 3, 37, 1509.861083984375
0, 3, 38, 1519.52783203125
0, 3, 39, 1442.064086914062
0, 3, 40, 1444.052612304688
0, 3, 41, 1561.543090820312
0, 3, 42, 1467.291748046875
0, 3, 43, 1453.471069335938
0, 3, 44, 1454.9169921875
0, 3, 45, 1507.06396484375
0, 3, 46, 1509.534545898438
0, 3, 47, 1439.973266601562
0, 3, 48, 1509.004272460938
0, 3, 49, 1448.1162109375
0, 3, 50, 1491.364013671875
0, 3, 51, 1538.96875
0, 3, 52, 1536.366821289062
0, 3, 53, 1467.01123046875
0, 3, 54, 1533.881958007812
0, 3, 55, 1500.182250976562
0, 3, 56, 1435.739135742188
0, 3, 57, 1500.371704101562
0, 3, 58, 1509.598754882812
0, 3, 59, 1512.640625
0, 3, 60, 1534.066650390625
0, 3, 61, 1480.09716796875
0, 3, 62, 1493.319946289062
0, 3, 63, 1493.113891601562
0, 3, 64, 1499.261840820312
0, 3, 65, 1517.820190429688
0, 3, 66, 1555.930053710938
0, 3, 67, 1548.070068359375
0, 3, 68, 1448.292114257812
0, 3, 69, 1462.862182617188
0, 3, 70, 1385.5986328125
0, 3, 71, 1460.11474609375
0, 3, 72, 1551.299682617188
0, 3, 73, 1501.568481445312
0, 3, 74, 1468.575561523438
0, 3, 75, 1459.474853515625
0, 3, 76, 1571.534912109375
0, 3, 77, 1538.239501953125
0, 3, 78, 1429.498168945312
0, 3, 79, 1493.203002929688
0, 3, 80, 1458.333984375
0, 3, 81, 1471.6982421875
0, 3, 82, 1549.984619140625
0, 3, 83, 1510.908813476562
0, 3, 84, 1564.166748046875
0, 3, 85, 1474.0244140625
0, 3, 86, 1530.2216796875
0, 3, 87, 1538.557373046875
0, 3, 88, 1460.497192382812
0, 3, 89, 1451.04052734375
0, 3, 90, 1447.265380859375
0, 3, 91, 1422.01806640625
0, 3, 92, 1515.942993164062
0, 3, 93, 1497.424438476562
0, 3, 94, 1517.063110351562
0, 3, 95, 1545.862548828125
0, 3, 96, 1517.681762695312
0, 3, 97, 1460.063110351562
0, 3, 98, 1434.515991210938
0, 3, 99, 1465.021850585938
0, 3, 100, 1467.588500976562
0, 3, 101, 1473.989013671875
0, 3, 102, 1516.92529296875
0, 3, 103, 1554.4140625
0, 3, 104, 1501.158813476562
0, 3, 105, 1519.673950195312
0, 3, 106, 1480.23388671875
0, 3, 107, 1340.384521484375
0, 3, 108, 871.1067504882812
0, 3, 109, 263.7724914550781
0, 3, 110, 101.0999450683594
0, 3, 111, 61.48925018310547
0, 3, 112, 60.30464172363281
0, 3, 113, 55.75637435913086
0, 3, 114, 46.33675384521484
0, 3, 115, 50.93904495239258
0, 3, 116, 39.07380676269531
0, 3, 117, 42.48311996459961
0, 3, 118, 37.85718536376953
0, 3, 119, 30.2837085723877
0, 3, 120, 29.25976181030273
0, 3, 121, 21.60779762268066
0, 3, 122, 23.10956954956055
0, 3, 123, 26.94034576416016
0, 3, 124, 18.84567260742188
0, 3, 125, 28.66325569152832
0, 3, 126, 23.87497138977051
0, 3, 127, 17.76178932189941
0, 4, 0, 21.68654823303223
0, 4, 1, 20.34285736083984
0, 4, 2, 19.36062622070312
0, 4, 3, 20.72241973876953
0, 4, 4, 26.70845794677734
0, 4, 5, 32.41102600097656
0, 4, 6, 30.44135856628418
0, 4, 7, 31.7657642364502
0, 4, 8, 28.59710884094238
0, 4, 9, 35.10086822509766
0, 4, 10, 31.00725364685059
0, 4, 11, 38.74263000488281
0, 4, 12, 44.6269416809082
0, 4, 13, 53.2608642578125
0, 4, 14, 50.20871734619141
0, 4, 15, 61.92111587524414
0, 4, 16, 73.92922973632812
0, 4, 17, 114.5484619140625
0, 4, 18, 444.98193359375
0, 4, 19, 1179.249267578125
0, 4, 20, 1445.313354492188
0, 4, 21, 1420.321411132812
0, 4, 22, 1430.571899414062
0, 4, 23, 1451.799194335938
0, 4, 24, 1470.609375
0, 4, 25, 1402.394165039062
0, 4, 26, 1540.278564453125
0, 4, 27, 1542.296752929688
0, 4, 28, 1504.574829101562
0, 4, 29, 1517.409790039062
0, 4, 30, 1525.068481445312
0, 4, 31, 1573.406860351562
0, 4, 32, 1518.056762695312
0, 4, 33, 1493.50927734375
0, 4, 34, 1468.13134765625
0, 4, 35, 1558.234008789062
0, 4, 36, 1505.32275390625
0, 4, 37, 1512.124267578125
0, 4, 38, 1528.6640625
0, 4, 39, 1469.218627929688
0, 4, 40, 1510.678588867188
0, 4, 41, 1584.895751953125
0, 4, 42, 1568.178466796875
0, 4, 43, 1472.36279296875
0, 4, 44, 1495.938232421875
0, 4, 45, 1516.551391601562
0, 4, 46, 1466.2138671875
0, 4, 47, 1501.500122070312
0, 4, 48, 1523.808959960938
0, 4, 49, 1472.80224609375
0, 4, 50, 1518.844848632812
0, 4, 51, 1491.801635742188
0, 4, 52, 1492.697631835938
0, 4, 53, 1454.633056640625
0, 4, 54, 1448.420654296875
0, 4, 55, 1530.449340820312
0, 4, 56, 1456.503295898438
0, 4, 57, 1492.724731445312
0, 4, 58, 1459.418823242188
0, 4, 59, 1459.69091796875
0, 4, 60, 1525.154052734375
0, 4, 61, 1504.830932617188
0, 4, 62, 1509.051147460938
0, 4, 63, 1547.338745117188
0, 4, 64, 1590.908447265625
0, 4, 65, 1424.107299804688
0, 4, 66, 1513.919189453125
0, 4, 67, 1520.218139648438
0, 4, 68, 1494.939208984375
0, 4, 69, 1466.302368164062
0, 4, 70, 1543.830322265625
0, 4, 71, 1520.012084960938
0, 4, 72, 1532.077758789062
0, 4, 73, 1497.820556640625
0, 4, 74, 1486.373046875
0, 4, 75, 1534.540649414062
0, 4, 76, 1484.8154296875
0, 4, 77, 1501.592651367188
0, 4, 78, 1503.278564453125
0, 4, 79, 1481.199951171875
0, 4, 80, 1514.445190429688
0, 4, 81, 1526.479736328125
0, 4, 82, 1566.471435546875
0, 4, 83, 1503.272094726562
0, 4, 84, 1542.097900390625
0, 4, 85, 1554.5009765625
0, 4, 86, 1524.158203125
0, 4, 87, 1497.9560546875
0, 4, 88, 1515.175537109375
0, 4, 89, 1482.664916992188
0, 4, 90, 1544.771362304688
0, 4, 91, 1550.140014648438
0, 4, 92, 1486.153076171875
0, 4, 93, 1513.657836914062
0, 4, 94, 1486.604370117188
0, 4, 95, 1514.15869140625
0, 4, 96, 1442.74755859375
0, 4, 97, 1412.713623046875
0, 4, 98, 1555.194702148438
0, 4, 99, 1508.137939453125
0, 4, 100, 1487.717651367188
0, 4, 101, 1452.020751953125
0, 4, 102, 1443.648071289062
0, 4, 103, 1519.505249023438
0, 4, 104, 1511.408569335938
0, 4, 105, 1552.20068359375
0, 4, 106, 1476.956787109375
0, 4, 107, 1453.432983398438
0, 4, 108, 1122.989013671875
0, 4, 109, 435.2315063476562
0, 4, 110, 99.83438873291016
0, 4, 111, 65.37644195556641
0, 4, 112, 65.31705474853516
0, 4, 113, 49.35394668579102
0, 4, 114, 47.69964599609375
0, 4, 115, 42.61964797973633
0, 4, 116, 36.21775436401367
0, 4, 117, 33.97282791137695
0, 4, 118, 37.87777709960938
0, 4, 119, 40.4515495300293
0, 4, 120, 36.83491134643555
0, 4, 121, 30.38966941833496
0, 4, 122, 32.99547576904297
0, 4, 123, 32.4853630065918
0, 4, 124, 19.47430229187012
0, 4, 125, 29.60578155517578
0, 4, 126, 20.91303634643555
0, 4, 127, 22.49043655395508
0, 5, 0, 21.23196411132812
0, 5, 1, 24.12098121643066
0, 5, 2, 30.71457481384277
0, 5, 3, 25.83181381225586
0, 5, 4, 20.59983062744141
0, 5, 5, 37.60349273681641
0, 5, 6, 23.25414848327637
0, 5, 7, 30.31255340576172
0, 5, 8, 30.75375747680664
0, 5, 9, 30.46981620788574
0, 5, 10, 32.68500518798828
0, 5, 11, 38.87596893310547
0, 5, 12, 40.16739273071289
0, 5, 13, 51.52349853515625
0, 5, 14, 61.92023849487305
0, 5, 15, 77.11943817138672
0, 5, 16, 83.33935546875
0, 5, 17, 156.4341888427734
0, 5, 18, 677.1930541992188
0, 5, 19, 1347.630737304688
0, 5, 20, 1527.328491210938
0, 5, 21, 1492.450927734375
0, 5, 22, 1499.591674804688
0, 5, 23, 1533.268188476562
0, 5, 24, 1465.345703125
0, 5, 25, 1429.060791015625
0, 5, 26, 1527.385375976562
0, 5, 27, 1542.554443359375
0, 5, 28, 1488.054565429688
0, 5, 29, 1525.667724609375
0, 5, 30, 1497.130615234375
0, 5, 31, 1500.799926757812
0, 5, 32, 1595.023559570312
0, 5, 33, 1503.19921875
0, 5, 34, 1482.47705078125
0, 5, 35, 1505.415283203125
0, 5, 36, 1446.06640625
0, 5, 37, 1530.43408203125
0, 5, 38, 1548.903076171875
0, 5, 39, 1547.238037109375
0, 5, 40, 1499.734619140625
0, 5, 41, 1481.328002929688
0, 5, 42, 1541.247436523438
0, 5, 43, 1532.47900390625
0, 5, 44, 1542.282958984375
0, 5, 45, 1508.345825195312
0, 5, 46, 1493.170166015625
0, 5, 47, 1483.43115234375
0, 5, 48, 1501.499267578125
0, 5, 49, 1525.89599609375
0, 5, 50, 1498.081909179688
0, 5, 51, 1515.559814453125
0, 5, 52, 1428.797729492188
0, 5, 53, 1525.674072265625
0, 5, 54, 1525.728271484375
0, 5, 55, 1526.383666992188
0, 5, 56, 1488.075805664062
0, 5, 57, 1543.710571289062
0, 5, 58, 1507.29052734375
0, 5, 59, 1487.99609375
0, 5, 60, 1536.954833984375
0, 5, 61, 1450.161499023438
0, 5, 62, 1587.230224609375
0, 5, 63, 1432.126953125
0, 5, 64, 1487.775634765625
0, 5, 65, 1468.2421875
0, 5, 66, 1527.748413085938
0, 5, 67, 1565.277954101562
0, 5, 68, 1460.637817382812
0, 5, 69, 1480.452514648438
0, 5, 70, 1492.602661132812
0, 5, 71, 1475.361572265625
0, 5, 72, 1531.727294921875
0, 5, 73, 1461.064697265625
0, 5, 74, 1494.462646484375
0, 5, 75, 1490.757568359375
0, 5, 76, 1481.197998046875
0, 5, 77, 1519.1015625
0, 5, 78, 1528.054809570312
0, 5, 79, 1514.579833984375
0, 5, 80, 1522.091430664062
0, 5, 81, 1598.460693359375
0, 5, 82, 1527.102661132812
0, 5, 83, 1487.692749023438
0, 5, 84, 1538.379760742188
0, 5, 85, 1518.010864257812
0, 5, 86, 1552.52734375
0, 5, 87, 1473.380981445312
0, 5, 88, 1496.963623046875
0, 5, 89, 1480.876098632812
0, 5, 90, 1481.179931640625
0, 5, 91, 1551.62353515625
0, 5, 92, 1478.742553710938
0, 5, 93, 1558.925537109375
0, 5, 94, 1508.10498046875
0, 5, 95, 1563.898559570312
0, 5, 96, 1494.755493164062
0, 5, 97, 1509.181640625
0, 5, 98, 1514.828979492188
0, 5, 99, 1540.538452148438
0, 5, 100, 1433.636352539062
0, 5, 101, 1427.42724609375
0, 5, 102, 1515.715698242188
0, 5, 103, 1474.875244140625
0, 5, 104, 1458.433471679688
0, 5, 105, 1491.56494140625
0, 5, 106, 1458.878784179688
0, 5, 107, 1399.611083984375
0, 5, 108, 1302.9755859375
0, 5, 109, 719.0027465820312
0, 5, 110, 195.0959167480469
0, 5, 111, 93.12683868408203
0, 5, 112, 78.14519500732422
0, 5, 113, 63.68320846557617
0, 5, 114, 59.9352912902832
0, 5, 115, 53.45589828491211
0, 5, 116, 41.99046325683594
0, 5, 117, 37.46413803100586
0, 5, 118, 41.24444198608398
0, 5, 119, 27.84659576416016
0, 5, 120, 30.19048500061035
0, 5, 121, 23.51012229919434
0, 5, 122, 30.63288497924805
0, 5, 123, 24.4121265411377
0, 5, 124, 22.86313819885254
0, 5, 125, 27.13708686828613
0, 5, 126, 19.30206680297852
0, 5, 127, 22.19165229797363
0, 6, 0, 25.63319969177246
0, 6, 1, 31.92865562438965
0, 6, 2, 26.91505432128906
0, 6, 3, 30.03185081481934
0, 6, 4, 25.60344505310059
0, 6, 5, 31.4879093170166
0, 6, 6, 37.80479431152344
0, 6, 7, 30.44296646118164
0, 6, 8, 30.49688339233398
0, 6, 9, 33.12979507446289
0, 6, 10, 36.66186141967773
0, 6, 11, 41.52198791503906
0, 6, 12, 38.95041275024414
0, 6, 13, 54.07658386230469
0, 6, 14, 65.29718017578125
0, 6, 15, 83.12175750732422
0, 6, 16, 112.6706237792969
0, 6, 17, 297.3087463378906
0, 6, 18, 900.003173828125
0, 6, 19, 1372.853759765625
0, 6, 20, 1434.557983398438
0, 6, 21, 1532.07373046875
0, 6, 22, 1507.856567382812
0, 6, 23, 1530.03564453125
0, 6, 24, 1476.525146484375
0, 6, 25, 1526.420532226562
0, 6, 26, 1518.694213867188
0, 6, 27, 1518.636840820312
0, 6, 28, 1558.093872070312
0, 6, 29, 1584.032104492188
0, 6, 30, 1517.446166992188
0, 6, 31, 1489.614990234375
0, 6, 32, 1525.060668945312
0, 6, 33, 1489.733032226562
0, 6, 34, 1565.330200195312
0, 6, 35, 1500.84716796875
0, 6, 36, 1438.736450195312
0, 6, 37, 1547.787231445312
0, 6, 38, 1529.283935546875
0, 6, 39, 1527.5625
0, 6, 40, 1459.272583007812
0, 6, 41, 1441.891479492188
0, 6, 42, 1517.397827148438
0, 6, 43, 1487.182861328125
0, 6, 44, 1435.7548828125
0, 6, 45, 1546.601684570312
0, 6, 46, 1554.317016601562
0, 6, 47, 1498.817504882812
0, 6, 48, 1528.819213867188
0, 6, 49, 1509.857666015625
0, 6, 50, 1579.070190429688
0, 6, 51, 1500.708618164062
0, 6, 52, 1567.291748046875
0, 6, 53, 1466.54638671875
0, 6, 54, 1504.078857421875
0, 6, 55, 1572.757690429688
0, 6, 56, 1519.804565429688
0, 6, 57, 1504.354858398438
0, 6, 58, 1468.358032226562
0, 6, 59, 1521.606689453125
0, 6, 60, 1468.897338867188
0, 6, 61, 1572.224243164062
0, 6, 62, 1556.114624023438
0, 6, 63, 1502.332275390625
0, 6, 64, 1408.16650390625
0, 6, 65, 1494.270874023438
0, 6, 66, 1511.769287109375
0, 6, 67, 1511.036743164062
0, 6, 68, 1545.463623046875
0, 6, 69, 1493.278564453125
0, 6, 70, 1530.342163085938
0, 6, 71, 1473.593872070312
0, 6, 72, 1590.720825195312
0, 6, 73, 1492.642333984375
0, 6, 74, 1559.708129882812
0, 6, 75, 1539.456176757812
0, 6, 76, 1568.818115234375
0, 6, 77, 1504.51318359375
0, 6, 78, 1441.588989257812
0, 6, 79, 1556.947875976562
0, 6, 80, 1485.311279296875
0, 6, 81, 1480.601806640625
0, 6, 82, 1506.206665039062
0, 6, 83, 1526.527587890625
0, 6, 84, 1518.596313476562
0, 6, 85, 1532.800903320312
0, 6, 86, 1539.50927734375
0, 6, 87, 1571.287475585938
0, 6, 88, 1480.366333007812
0, 6, 89, 1562.489135742188
0, 6, 90, 1491.56494140625
0, 6, 91, 1544.447021484375
0, 6, 92, 1482.244506835938
0, 6, 93, 1500.453369140625
0, 6, 94, 1468.93310546875
0, 6, 95, 1503.746826171875
0, 6, 96, 1518.223876953125
0, 6, 97, 1498.975341796875
0, 6, 98, 1493.550170898438
0, 6, 99, 1483.323974609375
0, 6, 100, 1523.604858398438
0, 6, 101, 1518.109985351562
0, 6, 102, 1542.9873046875
0, 6, 103, 1497.24951171875
0, 6, 104, 1469.250610351562
0, 6, 105, 1489.111694335938
0, 6, 106, 1496.159423828125
0, 6, 107, 1500.526733398438
0, 6, 108, 1408.75341796875
0, 6, 109, 925.1917114257812
0, 6, 110, 284.9542846679688
0, 6, 111, 96.07529449462891
0, 6, 112, 75.39267730712891
0, 6, 113, 61.48461532592773
0, 6, 114, 57.07803726196289
0, 6, 115, 44.43595504760742
0, 6, 116, 40.25554275512695
0, 6, 117, 38.98638153076172
0, 6, 118, 34.04641342163086
0, 6, 119, 34.79431533813477
0, 6, 120, 28.97185134887695
0, 6, 121, 28.36013793945312
0, 6, 122, 27.33417320251465
0, 6, 123, 21.78302574157715
0, 6, 124, 29.18119049072266
0, 6, 125, 29.38084602355957
0, 6, 126, 22.35120010375977
0, 6, 127, 21.64097023010254
0, 7, 0, 23.53204154968262
0, 7, 1, 31.47483253479004
0, 7, 2, 21.76464653015137
0, 7, 3, 25.76005363464355
0, 7, 4, 26.71295738220215
0, 7, 5, 36.6649284362793
0, 7, 6, 32.08983993530273
0, 7, 7, 39.80337524414062
0, 7, 8, 26.51237869262695
0, 7, 9, 34.16810989379883
0, 7, 10, 40.84198760986328
0, 7, 11, 47.83584213256836
0, 7, 12, 47.51253509521484
0, 7, 13, 52.53628921508789
0, 7, 14, 63.84718322753906
0, 7, 15, 84.83645629882812
0, 7, 16, 134.3156280517578
0, 7, 17, 460.0585021972656
0, 7, 18, 1100.0986328125
0, 7, 19, 1500.611328125
0, 7, 20, 1489.439453125
0, 7, 21, 1373.621215820312
0, 7, 22, 1489.618408203125
0, 7, 23, 1456.277221679688
0, 7, 24, 1517.447509765625
0, 7, 25, 1590.551513671875
0, 7, 26, 1518.65478515625
0, 7, 27, 1510.39306640625
0, 7, 28, 1544.115356445312
0, 7, 29, 1571.183837890625
0, 7, 30, 1546.52197265625
0, 7, 31, 1437.616088867188
0, 7, 32, 1545.054443359375
0, 7, 33, 1487.218994140625
0, 7, 34, 1477.474365234375
0, 7, 35, 1523.378295898438
0, 7, 36, 1468.811157226562
0, 7, 37, 1601.17724609375
0, 7, 38, 1505.061157226562
0, 7, 39, 1488.292602539062
0, 7, 40, 1545.266479492188
0, 7, 41, 1465.132446289062
0, 7, 42, 1488.75390625
0, 7, 43, 1442.473510742188
0, 7, 44, 1490.591064453125
0, 7, 45, 1467.1533203125
0, 7, 46, 1514.088012695312
0, 7, 47, 1566.955810546875
0, 7, 48, 1525.176635742188
0, 7, 49, 1534.90869140625
0, 7, 50, 1514.798095703125
0, 7, 51, 1496.189697265625
0, 7, 52, 1516.41015625
0, 7, 53, 1494.917358398438
0, 7, 54, 1589.4443359375
0, 7, 55, 1472.969360351562
0, 7, 56, 1550.141235351562
0, 7, 57, 1510.695556640625
0, 7, 58, 1553.428833007812
0, 7, 59, 1542.433715820312
0, 7, 60, 1546.597045898438
0, 7, 61, 1488.486083984375
0, 7, 62, 1437.362426757812
0, 7, 63, 1512.567993164062
0, 7, 64, 1552.078491210938
0, 7, 65, 1531.143920898438
0, 7, 66, 1538.208129882812
0, 7, 67, 1582.265258789062
0, 7, 68, 1530.748901367188
0, 7, 69, 1520.148559570312
0, 7, 70, 1497.573608398438
0, 7, 71, 1522.921020507812
0, 7, 72, 1520.121337890625
0, 7, 73, 1520.927124023438
0, 7, 74, 1576.735595703125
0, 7, 75, 1540.63818359375
0, 7, 76, 1557.217895507812
0, 7, 77, 1512.70361328125
0, 7, 78, 1506.06689453125
0, 7, 79, 1425.72412109375
0, 7, 80, 1489.6103515625
0, 7, 81, 1491.765380859375
0, 7, 82, 1532.843627929688
0, 7, 83, 1547.167724609375
0, 7, 84, 1584.748413085938
0, 7, 85, 1473.425170898438
0, 7, 86, 1505.947265625
0, 7, 87, 1501.453247070312
0, 7, 88, 1502.335083007812
0, 7, 89, 1554.800537109375
0, 7, 90, 1522.554077148438
0, 7, 91, 1564.272338867188
0, 7, 92, 1524.908081054688
0, 7, 93, 1551.252197265625
0, 7, 94, 1533.190063476562
0, 7, 95, 1501.217163085938
0, 7, 96, 1509.994506835938
0, 7, 97, 1434.957275390625
0, 7, 98, 1487.025146484375
0, 7, 99, 1526.789916992188
0, 7, 100, 1422.848266601562
0, 7, 101, 1460.685913085938
0, 7, 102, 1450.40234375
0, 7, 103, 1428.981201171875
0, 7, 104, 1491.398193359375
0, 7, 105, 1528.309448242188
0, 7, 106, 1560.714233398438
0, 7, 107, 1478.278930664062
0, 7, 108, 1409.944091796875
0, 7, 109, 1144.702392578125
0, 7, 110, 474.218505859375
0, 7, 111, 129.4727325439453
0, 7, 112, 79.55466461181641
0, 7, 113, 67.76782989501953
0, 7, 114, 57.63650131225586
0, 7, 115, 51.25735473632812
0, 7, 116, 43.24363708496094
0, 7, 117, 41.08414840698242
0, 7, 118, 35.74352264404297
0, 7, 119, 33.08245468139648
0, 7, 120, 26.1202278137207
0, 7, 121, 29.42837715148926
0, 7, 122, 35.95516204833984
0, 7, 123, 33.13655853271484
0, 7, 124, 28.6567211151123
0, 7, 125, 25.11503410339355
0, 7, 126, 30.8271656036377
0, 7, 127, 17.83072090148926
0, 8, 0, 19.94985389709473
0, 8, 1, 22.49171829223633
0, 8, 2, 26.97014427185059
0, 8, 3, 28.14057350158691
0, 8, 4, 22.63869285583496
0, 8, 5, 32.04691314697266
0, 8, 6, 31.51635551452637
0, 8, 7, 29.58352088928223
0, 8, 8, 35.40546417236328
0, 8, 9, 48.01250839233398
0, 8, 10, 42.7572135925293
0, 8, 11, 43.6426887512207
0, 8, 12, 54.6945915222168
0, 8, 13, 70.76953887939453
0, 8, 14, 71.30774688720703
0, 8, 15, 84.855712890625
0, 8, 16, 172.6657867431641
0, 8, 17, 671.9464721679688
0, 8, 18, 1277.992431640625
0, 8, 19, 1449.76513671875
0, 8, 20, 1422.789306640625
0, 8, 21, 1411.365478515625
0, 8, 22, 1482.793212890625
0, 8, 23, 1479.76416015625
0, 8, 24, 1437.112548828125
0, 8, 25, 1458.8134765625
0, 8, 26, 1516.941162109375
0, 8, 27, 1518.747436523438
0, 8, 28, 1472.151611328125
0, 8, 29, 1507.056030273438
0, 8, 30, 1491.455078125
0, 8, 31, 1538.932250976562
0, 8, 32, 1513.184204101562
0, 8, 33, 1483.917236328125
0, 8, 34, 1533.431640625
0, 8, 35, 1441.092407226562
0, 8, 36, 1503.497924804688
0, 8, 37, 1555.514892578125
0, 8, 38, 1551.00244140625
0, 8, 39, 1490.251708984375
0, 8, 40, 1533.216674804688
0, 8, 41, 1481.860229492188
0, 8, 42, 1536.498046875
0, 8, 43, 1432.786254882812
0, 8, 44, 1535.455200195312
0, 8, 45, 1510.608154296875
