# TOPAS Version: 3.1.p3
# Parameter File: batch_inserts_6.txt
# Results for scorer Readout_Adipose
# Scored in component: MyBox
# X in 1 bin  of 0.75 cm
# Y in 512 bins of 0.0783984 cm
# Z in 128 bins of 0.078125 cm
# EnergyDeposit ( MeV ) : Sum   
0, 0, 0, 4.018408298492432
0, 0, 1, 1.559674501419067
0, 0, 2, 4.05272102355957
0, 0, 3, 1.119254469871521
0, 0, 4, 3.207075119018555
0, 0, 5, 4.516342639923096
0, 0, 6, 6.313575267791748
0, 0, 7, 9.621537208557129
0, 0, 8, 4.027621746063232
0, 0, 9, 2.800711631774902
0, 0, 10, 6.50764274597168
0, 0, 11, 5.312556266784668
0, 0, 12, 4.920620441436768
0, 0, 13, 7.164157867431641
0, 0, 14, 8.835046768188477
0, 0, 15, 12.64405345916748
0, 0, 16, 8.657773017883301
0, 0, 17, 8.040521621704102
0, 0, 18, 13.14151668548584
0, 0, 19, 42.78047180175781
0, 0, 20, 139.6313018798828
0, 0, 21, 225.3060302734375
0, 0, 22, 249.3916015625
0, 0, 23, 255.8102569580078
0, 0, 24, 251.7387847900391
0, 0, 25, 258.80810546875
0, 0, 26, 234.1679534912109
0, 0, 27, 236.4603118896484
0, 0, 28, 271.2342529296875
0, 0, 29, 251.9654846191406
0, 0, 30, 231.4713745117188
0, 0, 31, 243.7454986572266
0, 0, 32, 263.9425354003906
0, 0, 33, 262.9884033203125
0, 0, 34, 288.1729125976562
0, 0, 35, 266.2234191894531
0, 0, 36, 245.8602905273438
0, 0, 37, 254.1644592285156
0, 0, 38, 272.6737060546875
0, 0, 39, 229.9003143310547
0, 0, 40, 242.2465667724609
0, 0, 41, 265.0470886230469
0, 0, 42, 227.9699859619141
0, 0, 43, 260.4132995605469
0, 0, 44, 252.8385162353516
0, 0, 45, 253.0715942382812
0, 0, 46, 244.4894104003906
0, 0, 47, 253.1982727050781
0, 0, 48, 267.7723388671875
0, 0, 49, 274.2397155761719
0, 0, 50, 251.9598693847656
0, 0, 51, 252.4816436767578
0, 0, 52, 272.6651611328125
0, 0, 53, 291.6709594726562
0, 0, 54, 244.6181030273438
0, 0, 55, 239.3963928222656
0, 0, 56, 276.5736083984375
0, 0, 57, 261.4852600097656
0, 0, 58, 245.9606628417969
0, 0, 59, 271.5439453125
0, 0, 60, 236.4927825927734
0, 0, 61, 244.7563323974609
0, 0, 62, 257.2560424804688
0, 0, 63, 266.5518798828125
0, 0, 64, 259.06396484375
0, 0, 65, 262.6818237304688
0, 0, 66, 276.5496826171875
0, 0, 67, 246.8151550292969
0, 0, 68, 260.1820983886719
0, 0, 69, 261.7752380371094
0, 0, 70, 271.4941711425781
0, 0, 71, 237.0909423828125
0, 0, 72, 251.1322021484375
0, 0, 73, 257.946044921875
0, 0, 74, 254.5354461669922
0, 0, 75, 240.66650390625
0, 0, 76, 227.4619598388672
0, 0, 77, 260.5968933105469
0, 0, 78, 255.1771697998047
0, 0, 79, 276.07861328125
0, 0, 80, 216.4866027832031
0, 0, 81, 268.0113525390625
0, 0, 82, 257.0097961425781
0, 0, 83, 243.947509765625
0, 0, 84, 269.484619140625
0, 0, 85, 231.2854309082031
0, 0, 86, 252.8404693603516
0, 0, 87, 250.3778686523438
0, 0, 88, 262.0246276855469
0, 0, 89, 283.4541625976562
0, 0, 90, 243.95654296875
0, 0, 91, 282.7538757324219
0, 0, 92, 252.6866302490234
0, 0, 93, 249.8181304931641
0, 0, 94, 249.0192413330078
0, 0, 95, 247.5123901367188
0, 0, 96, 276.4845275878906
0, 0, 97, 274.8546142578125
0, 0, 98, 273.8128662109375
0, 0, 99, 259.0657043457031
0, 0, 100, 258.6693725585938
0, 0, 101, 226.6597137451172
0, 0, 102, 233.3677520751953
0, 0, 103, 269.7144165039062
0, 0, 104, 253.6783142089844
0, 0, 105, 251.0520172119141
0, 0, 106, 246.0682220458984
0, 0, 107, 151.5613250732422
0, 0, 108, 38.27815246582031
0, 0, 109, 12.76827144622803
0, 0, 110, 13.18362236022949
0, 0, 111, 9.708914756774902
0, 0, 112, 7.039380550384521
0, 0, 113, 4.608562469482422
0, 0, 114, 5.54595947265625
0, 0, 115, 5.312142372131348
0, 0, 116, 4.711040019989014
0, 0, 117, 5.736857414245605
0, 0, 118, 7.262031555175781
0, 0, 119, 5.298540592193604
0, 0, 120, 4.165250301361084
0, 0, 121, 4.523362636566162
0, 0, 122, 5.953761577606201
0, 0, 123, 2.479478120803833
0, 0, 124, 5.164455413818359
0, 0, 125, 1.272074460983276
0, 0, 126, 4.141677856445312
0, 0, 127, 3.00026535987854
0, 1, 0, 6.459639549255371
0, 1, 1, 2.383553504943848
0, 1, 2, 4.249161243438721
0, 1, 3, 2.550675868988037
0, 1, 4, 3.641000509262085
0, 1, 5, 2.448865175247192
0, 1, 6, 6.014699935913086
0, 1, 7, 3.532386779785156
0, 1, 8, 7.26593017578125
0, 1, 9, 3.93299388885498
0, 1, 10, 7.117965698242188
0, 1, 11, 11.90174579620361
0, 1, 12, 8.34840202331543
0, 1, 13, 10.7788257598877
0, 1, 14, 9.303912162780762
0, 1, 15, 7.062191486358643
0, 1, 16, 10.49651908874512
0, 1, 17, 10.12080669403076
0, 1, 18, 21.02989196777344
0, 1, 19, 68.48183441162109
0, 1, 20, 198.9271087646484
0, 1, 21, 254.7809753417969
0, 1, 22, 297.9482421875
0, 1, 23, 282.5940856933594
0, 1, 24, 275.7628784179688
0, 1, 25, 290.7504272460938
0, 1, 26, 266.9251403808594
0, 1, 27, 308.082763671875
0, 1, 28, 298.3636779785156
0, 1, 29, 295.0401916503906
0, 1, 30, 281.4217529296875
0, 1, 31, 292.0269165039062
0, 1, 32, 290.0172119140625
0, 1, 33, 294.9553527832031
0, 1, 34, 291.8972473144531
0, 1, 35, 280.2806701660156
0, 1, 36, 306.3927001953125
0, 1, 37, 294.8365783691406
0, 1, 38, 280.4517211914062
0, 1, 39, 296.11181640625
0, 1, 40, 266.05615234375
0, 1, 41, 286.9288024902344
0, 1, 42, 290.7321472167969
0, 1, 43, 333.4496459960938
0, 1, 44, 277.4564208984375
0, 1, 45, 293.0505676269531
0, 1, 46, 259.9539794921875
0, 1, 47, 309.7282104492188
0, 1, 48, 283.4859008789062
0, 1, 49, 302.73876953125
0, 1, 50, 262.5189819335938
0, 1, 51, 275.8580932617188
0, 1, 52, 296.7054748535156
0, 1, 53, 304.5361022949219
0, 1, 54, 274.3886413574219
0, 1, 55, 292.9063415527344
0, 1, 56, 277.0486450195312
0, 1, 57, 296.8081970214844
0, 1, 58, 310.8158874511719
0, 1, 59, 291.3848571777344
0, 1, 60, 297.1713562011719
0, 1, 61, 276.6417541503906
0, 1, 62, 311.769287109375
0, 1, 63, 285.3238525390625
0, 1, 64, 288.9362487792969
0, 1, 65, 295.6465454101562
0, 1, 66, 291.6206359863281
0, 1, 67, 292.7978820800781
0, 1, 68, 277.5850524902344
0, 1, 69, 280.8531494140625
0, 1, 70, 269.577880859375
0, 1, 71, 273.4677429199219
0, 1, 72, 287.4986267089844
0, 1, 73, 303.4119262695312
0, 1, 74, 304.3838806152344
0, 1, 75, 291.5078430175781
0, 1, 76, 285.1473388671875
0, 1, 77, 288.6507263183594
0, 1, 78, 295.6377258300781
0, 1, 79, 301.0419311523438
0, 1, 80, 296.8238830566406
0, 1, 81, 300.0404663085938
0, 1, 82, 286.5326232910156
0, 1, 83, 331.4510498046875
0, 1, 84, 310.7107238769531
0, 1, 85, 253.0584716796875
0, 1, 86, 293.7940368652344
0, 1, 87, 289.9503784179688
0, 1, 88, 298.0476989746094
0, 1, 89, 290.0858459472656
0, 1, 90, 272.5160522460938
0, 1, 91, 320.0296020507812
0, 1, 92, 290.7857055664062
0, 1, 93, 286.1933898925781
0, 1, 94, 301.9502563476562
0, 1, 95, 284.6611938476562
0, 1, 96, 283.8794860839844
0, 1, 97, 301.0146789550781
0, 1, 98, 277.7907409667969
0, 1, 99, 268.763916015625
0, 1, 100, 278.5122680664062
0, 1, 101, 281.1658020019531
0, 1, 102, 280.7326965332031
0, 1, 103, 281.3812866210938
0, 1, 104, 304.8149108886719
0, 1, 105, 297.8815307617188
0, 1, 106, 260.8144226074219
0, 1, 107, 190.6667938232422
0, 1, 108, 81.854736328125
0, 1, 109, 23.79045486450195
0, 1, 110, 10.91003608703613
0, 1, 111, 8.55488395690918
0, 1, 112, 11.38531303405762
0, 1, 113, 4.966519832611084
0, 1, 114, 6.131838321685791
0, 1, 115, 7.168544292449951
0, 1, 116, 12.01450538635254
0, 1, 117, 5.079928874969482
0, 1, 118, 6.217300891876221
0, 1, 119, 5.756128787994385
0, 1, 120, 5.947709083557129
0, 1, 121, 5.400725841522217
0, 1, 122, 5.08903980255127
0, 1, 123, 3.802284002304077
0, 1, 124, 11.35361003875732
0, 1, 125, 6.338966369628906
0, 1, 126, 1.215293884277344
0, 1, 127, 2.070174217224121
0, 2, 0, 4.563416004180908
0, 2, 1, 2.044355869293213
0, 2, 2, 3.289462566375732
0, 2, 3, 3.536404371261597
0, 2, 4, 2.543198108673096
0, 2, 5, 1.95130980014801
0, 2, 6, 2.219252586364746
0, 2, 7, 4.340734958648682
0, 2, 8, 6.108972549438477
0, 2, 9, 6.505212783813477
0, 2, 10, 7.177788257598877
0, 2, 11, 6.661531925201416
0, 2, 12, 6.008895397186279
0, 2, 13, 10.31301593780518
0, 2, 14, 9.95079231262207
0, 2, 15, 8.995458602905273
0, 2, 16, 9.491787910461426
0, 2, 17, 16.74318885803223
0, 2, 18, 32.37017822265625
0, 2, 19, 116.8902359008789
0, 2, 20, 246.7519073486328
0, 2, 21, 271.5527954101562
0, 2, 22, 317.1415405273438
0, 2, 23, 302.4462280273438
0, 2, 24, 286.2966918945312
0, 2, 25, 301.9313354492188
0, 2, 26, 293.3162841796875
0, 2, 27, 278.9839782714844
0, 2, 28, 273.1127014160156
0, 2, 29, 274.4483032226562
0, 2, 30, 288.7622680664062
0, 2, 31, 277.5983581542969
0, 2, 32, 293.1470947265625
0, 2, 33, 280.6076049804688
0, 2, 34, 335.2297058105469
0, 2, 35, 289.4941101074219
0, 2, 36, 304.9114685058594
0, 2, 37, 315.2754516601562
0, 2, 38, 311.8380737304688
0, 2, 39, 265.8139343261719
0, 2, 40, 305.2005920410156
0, 2, 41, 292.2018432617188
0, 2, 42, 303.5652770996094
0, 2, 43, 312.9888305664062
0, 2, 44, 311.3514099121094
0, 2, 45, 325.4468078613281
0, 2, 46, 287.5191345214844
0, 2, 47, 302.4825134277344
0, 2, 48, 280.3066711425781
0, 2, 49, 279.7456359863281
0, 2, 50, 293.5403137207031
0, 2, 51, 285.991455078125
0, 2, 52, 274.2018737792969
0, 2, 53, 286.4274291992188
0, 2, 54, 279.2774047851562
0, 2, 55, 276.545166015625
0, 2, 56, 300.5824584960938
0, 2, 57, 290.4817504882812
0, 2, 58, 304.6511840820312
0, 2, 59, 287.25048828125
0, 2, 60, 317.8019409179688
0, 2, 61, 302.4304504394531
0, 2, 62, 311.4848022460938
0, 2, 63, 301.1321105957031
0, 2, 64, 298.2086181640625
0, 2, 65, 312.16650390625
0, 2, 66, 279.1791687011719
0, 2, 67, 292.9162902832031
0, 2, 68, 295.8186340332031
0, 2, 69, 310.8362121582031
0, 2, 70, 334.2522277832031
0, 2, 71, 283.5354919433594
0, 2, 72, 299.7140197753906
0, 2, 73, 311.1979675292969
0, 2, 74, 285.9963073730469
0, 2, 75, 304.6944885253906
0, 2, 76, 288.5703430175781
0, 2, 77, 300.390625
0, 2, 78, 315.3965454101562
0, 2, 79, 309.1503295898438
0, 2, 80, 296.5334777832031
0, 2, 81, 282.3506469726562
0, 2, 82, 316.4920043945312
0, 2, 83, 311.724365234375
0, 2, 84, 289.3105163574219
0, 2, 85, 280.3458862304688
0, 2, 86, 323.4555969238281
0, 2, 87, 286.8527526855469
0, 2, 88, 280.6102905273438
0, 2, 89, 298.6850280761719
0, 2, 90, 294.7199401855469
0, 2, 91, 276.5551452636719
0, 2, 92, 305.26171875
0, 2, 93, 316.4526672363281
0, 2, 94, 292.0225219726562
0, 2, 95, 316.436279296875
0, 2, 96, 315.953857421875
0, 2, 97, 291.0314331054688
0, 2, 98, 293.4139099121094
0, 2, 99, 273.492431640625
0, 2, 100, 305.944580078125
0, 2, 101, 301.3618469238281
0, 2, 102, 296.7813110351562
0, 2, 103, 293.0636596679688
0, 2, 104, 291.3551635742188
0, 2, 105, 273.5101013183594
0, 2, 106, 295.1580200195312
0, 2, 107, 271.0048522949219
0, 2, 108, 115.6973571777344
0, 2, 109, 33.60306930541992
0, 2, 110, 9.402447700500488
0, 2, 111, 10.87431621551514
0, 2, 112, 8.714561462402344
0, 2, 113, 10.42081260681152
0, 2, 114, 11.78764820098877
0, 2, 115, 8.444079399108887
0, 2, 116, 11.33299446105957
0, 2, 117, 6.208261966705322
0, 2, 118, 3.517947912216187
0, 2, 119, 8.57432746887207
0, 2, 120, 5.823636054992676
0, 2, 121, 2.433101177215576
0, 2, 122, 4.748064517974854
0, 2, 123, 4.942354202270508
0, 2, 124, 2.807523727416992
0, 2, 125, 6.151788234710693
0, 2, 126, 5.53977108001709
0, 2, 127, 3.757970333099365
0, 3, 0, 3.780475378036499
0, 3, 1, 3.070590972900391
0, 3, 2, 4.38765811920166
0, 3, 3, 1.162814140319824
0, 3, 4, 2.26610541343689
0, 3, 5, 6.27122688293457
0, 3, 6, 7.012622833251953
0, 3, 7, 4.742302894592285
0, 3, 8, 7.059581279754639
0, 3, 9, 7.206133842468262
0, 3, 10, 6.49256706237793
0, 3, 11, 5.396687984466553
0, 3, 12, 8.293079376220703
0, 3, 13, 16.06611061096191
0, 3, 14, 13.07796192169189
0, 3, 15, 14.59296226501465
0, 3, 16, 11.26049709320068
0, 3, 17, 19.91122817993164
0, 3, 18, 51.45990753173828
0, 3, 19, 175.3071746826172
0, 3, 20, 271.4908447265625
0, 3, 21, 271.0001220703125
0, 3, 22, 282.7919921875
0, 3, 23, 286.6843566894531
0, 3, 24, 285.7560119628906
0, 3, 25, 271.2090759277344
0, 3, 26, 303.837646484375
0, 3, 27, 292.1646118164062
0, 3, 28, 278.5862731933594
0, 3, 29, 337.8276062011719
0, 3, 30, 316.7017211914062
0, 3, 31, 285.3268432617188
0, 3, 32, 309.2754211425781
0, 3, 33, 313.3096008300781
0, 3, 34, 321.9784545898438
0, 3, 35, 307.2434387207031
0, 3, 36, 270.0024719238281
0, 3, 37, 315.1763916015625
0, 3, 38, 303.2733764648438
0, 3, 39, 288.8848876953125
0, 3, 40, 267.0948181152344
0, 3, 41, 298.5252075195312
0, 3, 42, 285.0394592285156
0, 3, 43, 305.72265625
0, 3, 44, 309.6037902832031
0, 3, 45, 291.2632751464844
0, 3, 46, 328.5692138671875
0, 3, 47, 304.0168762207031
0, 3, 48, 304.8208312988281
0, 3, 49, 278.667236328125
0, 3, 50, 290.6696166992188
0, 3, 51, 274.4215393066406
0, 3, 52, 315.0737609863281
0, 3, 53, 290.3128662109375
0, 3, 54, 285.27001953125
0, 3, 55, 283.2979736328125
0, 3, 56, 299.6552124023438
0, 3, 57, 288.6280517578125
0, 3, 58, 305.5866394042969
0, 3, 59, 294.2735595703125
0, 3, 60, 299.0661010742188
0, 3, 61, 264.22119140625
0, 3, 62, 289.5810546875
0, 3, 63, 306.3352355957031
0, 3, 64, 317.1777648925781
0, 3, 65, 307.0319213867188
0, 3, 66, 315.1914672851562
0, 3, 67, 320.3718566894531
0, 3, 68, 280.1667785644531
0, 3, 69, 279.8931579589844
0, 3, 70, 291.8572082519531
0, 3, 71, 300.3400573730469
0, 3, 72, 273.7549743652344
0, 3, 73, 306.6640319824219
0, 3, 74, 290.770263671875
0, 3, 75, 290.3665161132812
0, 3, 76, 305.1935729980469
0, 3, 77, 315.7714538574219
0, 3, 78, 302.9281616210938
0, 3, 79, 281.8959045410156
0, 3, 80, 292.6803588867188
0, 3, 81, 312.0540466308594
0, 3, 82, 318.3851013183594
0, 3, 83, 301.0929260253906
0, 3, 84, 315.6011352539062
0, 3, 85, 292.8812561035156
0, 3, 86, 303.8152465820312
0, 3, 87, 297.6686706542969
0, 3, 88, 297.609375
0, 3, 89, 296.8770751953125
0, 3, 90, 274.7859497070312
0, 3, 91, 284.0998840332031
0, 3, 92, 304.9403076171875
0, 3, 93, 314.1437683105469
0, 3, 94, 297.7115783691406
0, 3, 95, 334.7755126953125
0, 3, 96, 292.3550720214844
0, 3, 97, 283.1866760253906
0, 3, 98, 277.8561706542969
0, 3, 99, 260.8538513183594
0, 3, 100, 285.3036193847656
0, 3, 101, 299.2235107421875
0, 3, 102, 276.2066345214844
0, 3, 103, 322.6347961425781
0, 3, 104, 308.6370544433594
0, 3, 105, 287.8861083984375
0, 3, 106, 304.7445068359375
0, 3, 107, 282.175048828125
0, 3, 108, 169.3896179199219
0, 3, 109, 58.09088516235352
0, 3, 110, 18.27929306030273
0, 3, 111, 13.59605598449707
0, 3, 112, 11.31476593017578
0, 3, 113, 8.416695594787598
0, 3, 114, 11.27949905395508
0, 3, 115, 7.903371334075928
0, 3, 116, 7.886695384979248
0, 3, 117, 7.158406257629395
0, 3, 118, 6.815042495727539
0, 3, 119, 4.916701316833496
0, 3, 120, 4.20826530456543
0, 3, 121, 1.891353964805603
0, 3, 122, 3.595609426498413
0, 3, 123, 5.769927978515625
0, 3, 124, 4.697391510009766
0, 3, 125, 4.191152572631836
0, 3, 126, 3.887184381484985
0, 3, 127, 3.329946756362915
0, 4, 0, 3.060312271118164
0, 4, 1, 5.20432186126709
0, 4, 2, 4.868999481201172
0, 4, 3, 2.336239576339722
0, 4, 4, 7.054210186004639
0, 4, 5, 10.00489807128906
0, 4, 6, 5.638426303863525
0, 4, 7, 5.178679943084717
0, 4, 8, 3.062038898468018
0, 4, 9, 8.967538833618164
0, 4, 10, 6.096331119537354
0, 4, 11, 6.943843841552734
0, 4, 12, 7.143256187438965
0, 4, 13, 8.636863708496094
0, 4, 14, 14.23322010040283
0, 4, 15, 9.468884468078613
0, 4, 16, 12.90918445587158
0, 4, 17, 17.76328086853027
0, 4, 18, 95.05848693847656
0, 4, 19, 222.6975860595703
0, 4, 20, 283.6958923339844
0, 4, 21, 271.6441345214844
0, 4, 22, 305.2139282226562
0, 4, 23, 265.2971801757812
0, 4, 24, 290.6554565429688
0, 4, 25, 272.048828125
0, 4, 26, 295.2925720214844
0, 4, 27, 284.533203125
0, 4, 28, 307.6706237792969
0, 4, 29, 322.2650756835938
0, 4, 30, 309.4026184082031
0, 4, 31, 306.7342224121094
0, 4, 32, 280.57177734375
0, 4, 33, 295.8734741210938
0, 4, 34, 297.1387023925781
0, 4, 35, 313.190185546875
0, 4, 36, 293.3846130371094
0, 4, 37, 288.990966796875
0, 4, 38, 298.2404174804688
0, 4, 39, 293.3735961914062
0, 4, 40, 302.9604797363281
0, 4, 41, 311.1504821777344
0, 4, 42, 332.1318054199219
0, 4, 43, 296.3060302734375
0, 4, 44, 320.6508483886719
0, 4, 45, 327.4720458984375
0, 4, 46, 306.8412170410156
0, 4, 47, 291.8643798828125
0, 4, 48, 296.8081665039062
0, 4, 49, 277.187255859375
0, 4, 50, 295.6575927734375
0, 4, 51, 316.5463256835938
0, 4, 52, 325.3689880371094
0, 4, 53, 302.4598083496094
0, 4, 54, 287.421630859375
0, 4, 55, 314.4870300292969
0, 4, 56, 287.5689086914062
0, 4, 57, 312.2416687011719
0, 4, 58, 294.5237121582031
0, 4, 59, 309.0765991210938
0, 4, 60, 305.0054626464844
0, 4, 61, 317.624267578125
0, 4, 62, 307.9574890136719
0, 4, 63, 300.4708251953125
0, 4, 64, 331.541259765625
0, 4, 65, 316.726806640625
0, 4, 66, 294.4602966308594
0, 4, 67, 284.5578308105469
0, 4, 68, 314.3128051757812
0, 4, 69, 276.9434204101562
0, 4, 70, 299.3030090332031
0, 4, 71, 323.7100219726562
0, 4, 72, 331.9392700195312
0, 4, 73, 300.3776550292969
0, 4, 74, 292.2560424804688
0, 4, 75, 288.9829406738281
0, 4, 76, 274.8506164550781
0, 4, 77, 277.8628845214844
0, 4, 78, 309.9137268066406
0, 4, 79, 319.0743408203125
0, 4, 80, 315.7204284667969
0, 4, 81, 314.2433471679688
0, 4, 82, 299.1396179199219
0, 4, 83, 299.6259155273438
0, 4, 84, 289.660888671875
0, 4, 85, 295.3521423339844
0, 4, 86, 298.6915893554688
0, 4, 87, 285.1955871582031
0, 4, 88, 305.5104675292969
0, 4, 89, 294.2037658691406
0, 4, 90, 331.6445922851562
0, 4, 91, 302.6980590820312
0, 4, 92, 288.90478515625
0, 4, 93, 298.8590393066406
0, 4, 94, 292.4111633300781
0, 4, 95, 288.3527221679688
0, 4, 96, 324.45166015625
0, 4, 97, 275.801025390625
0, 4, 98, 326.6709289550781
0, 4, 99, 314.0062561035156
0, 4, 100, 300.2062072753906
0, 4, 101, 257.20751953125
0, 4, 102, 294.3106994628906
0, 4, 103, 317.6849975585938
0, 4, 104, 281.4497985839844
0, 4, 105, 312.6673583984375
0, 4, 106, 287.1995544433594
0, 4, 107, 296.4530639648438
0, 4, 108, 226.7203979492188
0, 4, 109, 79.59269714355469
0, 4, 110, 17.46003341674805
0, 4, 111, 14.56181049346924
0, 4, 112, 8.235748291015625
0, 4, 113, 10.81395721435547
0, 4, 114, 7.812430381774902
0, 4, 115, 9.852778434753418
0, 4, 116, 9.75322151184082
0, 4, 117, 8.837196350097656
0, 4, 118, 11.28017330169678
0, 4, 119, 9.300121307373047
0, 4, 120, 6.464850902557373
0, 4, 121, 5.357138633728027
0, 4, 122, 5.025806903839111
0, 4, 123, 6.83703088760376
0, 4, 124, 7.966075420379639
0, 4, 125, 11.01525974273682
0, 4, 126, 5.671477794647217
0, 4, 127, 3.467130422592163
0, 5, 0, 3.798493146896362
0, 5, 1, 4.142452716827393
0, 5, 2, 5.586189270019531
0, 5, 3, 3.781281709671021
0, 5, 4, 4.592494964599609
0, 5, 5, 6.152661323547363
0, 5, 6, 7.980825424194336
0, 5, 7, 4.832352161407471
0, 5, 8, 5.323448181152344
0, 5, 9, 5.955206394195557
0, 5, 10, 6.067996501922607
0, 5, 11, 8.312446594238281
0, 5, 12, 8.155065536499023
0, 5, 13, 7.500966548919678
0, 5, 14, 13.93210983276367
0, 5, 15, 17.14200401306152
0, 5, 16, 15.64300727844238
0, 5, 17, 27.56786918640137
0, 5, 18, 136.8544158935547
0, 5, 19, 288.9273376464844
0, 5, 20, 307.8494567871094
0, 5, 21, 316.1096801757812
0, 5, 22, 277.1202392578125
0, 5, 23, 311.7916259765625
0, 5, 24, 301.9688415527344
0, 5, 25, 288.4459838867188
0, 5, 26, 295.9922485351562
0, 5, 27, 321.4076843261719
0, 5, 28, 301.0951538085938
0, 5, 29, 297.3357543945312
0, 5, 30, 323.7383422851562
0, 5, 31, 286.9949035644531
0, 5, 32, 301.0648803710938
0, 5, 33, 303.3970642089844
0, 5, 34, 299.4361877441406
0, 5, 35, 310.2805480957031
0, 5, 36, 268.9813232421875
0, 5, 37, 282.3236083984375
0, 5, 38, 292.368896484375
0, 5, 39, 314.0480346679688
0, 5, 40, 309.4010009765625
0, 5, 41, 274.1904602050781
0, 5, 42, 305.7901000976562
0, 5, 43, 317.0782470703125
0, 5, 44, 293.6101684570312
0, 5, 45, 300.9314880371094
0, 5, 46, 263.4502563476562
0, 5, 47, 280.6512756347656
0, 5, 48, 295.9958190917969
0, 5, 49, 285.3662719726562
0, 5, 50, 294.6836853027344
0, 5, 51, 278.5454711914062
0, 5, 52, 271.2235717773438
0, 5, 53, 285.4608154296875
0, 5, 54, 291.8391723632812
0, 5, 55, 346.1078186035156
0, 5, 56, 305.4241027832031
0, 5, 57, 309.6074523925781
0, 5, 58, 314.2022399902344
0, 5, 59, 303.9108276367188
0, 5, 60, 305.7885131835938
0, 5, 61, 281.0008544921875
0, 5, 62, 326.4661865234375
0, 5, 63, 290.7025146484375
0, 5, 64, 322.2227172851562
0, 5, 65, 305.9651489257812
0, 5, 66, 325.2474365234375
0, 5, 67, 312.2200012207031
0, 5, 68, 308.9466247558594
0, 5, 69, 311.8194580078125
0, 5, 70, 300.7010192871094
0, 5, 71, 271.9872131347656
0, 5, 72, 309.7219848632812
0, 5, 73, 302.6087646484375
0, 5, 74, 295.9054565429688
0, 5, 75, 295.1413269042969
0, 5, 76, 285.9231872558594
0, 5, 77, 298.09619140625
0, 5, 78, 313.3622436523438
0, 5, 79, 306.8384094238281
0, 5, 80, 295.1595764160156
0, 5, 81, 324.6793823242188
0, 5, 82, 323.7527465820312
0, 5, 83, 282.2629699707031
0, 5, 84, 303.9130249023438
0, 5, 85, 271.6173095703125
0, 5, 86, 324.0644836425781
0, 5, 87, 286.6827697753906
0, 5, 88, 315.4500732421875
0, 5, 89, 304.5447998046875
0, 5, 90, 315.2033996582031
0, 5, 91, 314.1511535644531
0, 5, 92, 295.1474914550781
0, 5, 93, 321.8504333496094
0, 5, 94, 309.0759582519531
0, 5, 95, 295.4306945800781
0, 5, 96, 298.3518981933594
0, 5, 97, 294.9234008789062
0, 5, 98, 318.0946044921875
0, 5, 99, 304.62744140625
0, 5, 100, 291.0481567382812
0, 5, 101, 309.0574951171875
0, 5, 102, 293.4988098144531
0, 5, 103, 313.1932983398438
0, 5, 104, 301.4084777832031
0, 5, 105, 293.2540588378906
0, 5, 106, 281.8699951171875
0, 5, 107, 293.709228515625
0, 5, 108, 264.3396606445312
0, 5, 109, 159.0912017822266
0, 5, 110, 40.449951171875
0, 5, 111, 21.70182228088379
0, 5, 112, 14.0938720703125
0, 5, 113, 15.28155422210693
0, 5, 114, 17.0122241973877
0, 5, 115, 7.744575023651123
0, 5, 116, 13.26524066925049
0, 5, 117, 7.718110084533691
0, 5, 118, 12.26947021484375
0, 5, 119, 4.036295413970947
0, 5, 120, 6.223136425018311
0, 5, 121, 5.157668590545654
0, 5, 122, 6.399864673614502
0, 5, 123, 7.54104471206665
0, 5, 124, 4.139359474182129
0, 5, 125, 3.777518510818481
0, 5, 126, 5.574528217315674
0, 5, 127, 2.0357825756073
0, 6, 0, 4.211998462677002
0, 6, 1, 6.736465454101562
0, 6, 2, 6.146246910095215
0, 6, 3, 6.057709217071533
0, 6, 4, 2.271677017211914
0, 6, 5, 6.904306888580322
0, 6, 6, 6.874151229858398
0, 6, 7, 5.003111362457275
0, 6, 8, 9.318606376647949
0, 6, 9, 7.445138454437256
0, 6, 10, 7.401711940765381
0, 6, 11, 8.574202537536621
0, 6, 12, 8.363384246826172
0, 6, 13, 12.77585983276367
0, 6, 14, 8.489553451538086
0, 6, 15, 16.69189071655273
0, 6, 16, 28.40970802307129
0, 6, 17, 55.77219009399414
0, 6, 18, 173.3944244384766
0, 6, 19, 275.978759765625
0, 6, 20, 291.4440612792969
0, 6, 21, 314.3907470703125
0, 6, 22, 321.9290466308594
0, 6, 23, 304.983154296875
0, 6, 24, 316.4497375488281
0, 6, 25, 315.5536193847656
0, 6, 26, 319.6413269042969
0, 6, 27, 330.8399047851562
0, 6, 28, 295.7113952636719
0, 6, 29, 329.8670959472656
0, 6, 30, 280.4364318847656
0, 6, 31, 289.4440612792969
0, 6, 32, 341.439208984375
0, 6, 33, 300.2364807128906
0, 6, 34, 342.6265869140625
0, 6, 35, 322.6932678222656
0, 6, 36, 273.0918884277344
0, 6, 37, 287.3504333496094
0, 6, 38, 312.809814453125
0, 6, 39, 298.6670227050781
0, 6, 40, 283.9019165039062
0, 6, 41, 295.4327392578125
0, 6, 42, 304.8670349121094
0, 6, 43, 290.2682800292969
0, 6, 44, 280.3072814941406
0, 6, 45, 320.2137451171875
0, 6, 46, 303.7128295898438
0, 6, 47, 334.2791748046875
0, 6, 48, 291.9124145507812
0, 6, 49, 311.236083984375
0, 6, 50, 327.5237121582031
0, 6, 51, 310.9971313476562
0, 6, 52, 320.6358642578125
0, 6, 53, 328.5775451660156
0, 6, 54, 302.8724975585938
0, 6, 55, 304.6833801269531
0, 6, 56, 294.7727966308594
0, 6, 57, 311.2932739257812
0, 6, 58, 261.0350341796875
0, 6, 59, 302.3055114746094
0, 6, 60, 313.7987365722656
0, 6, 61, 269.3344421386719
0, 6, 62, 336.7313537597656
0, 6, 63, 323.444580078125
0, 6, 64, 291.0285339355469
0, 6, 65, 283.4107055664062
0, 6, 66, 304.0028381347656
0, 6, 67, 309.4678039550781
0, 6, 68, 295.00341796875
0, 6, 69, 278.2148132324219
0, 6, 70, 274.7280883789062
0, 6, 71, 289.9106750488281
0, 6, 72, 311.2740478515625
0, 6, 73, 295.1296691894531
0, 6, 74, 330.541015625
0, 6, 75, 342.4777221679688
0, 6, 76, 295.6509094238281
0, 6, 77, 289.2848815917969
0, 6, 78, 279.7682495117188
0, 6, 79, 291.4822998046875
0, 6, 80, 299.717529296875
0, 6, 81, 313.6571655273438
0, 6, 82, 318.4979858398438
0, 6, 83, 318.5966491699219
0, 6, 84, 296.1045532226562
0, 6, 85, 301.0516967773438
0, 6, 86, 328.9668884277344
0, 6, 87, 290.0368347167969
0, 6, 88, 307.2867126464844
0, 6, 89, 306.0082092285156
0, 6, 90, 299.0173034667969
0, 6, 91, 310.8828125
0, 6, 92, 283.2379455566406
0, 6, 93, 299.1928405761719
0, 6, 94, 275.0194702148438
0, 6, 95, 299.6832580566406
0, 6, 96, 346.9513244628906
0, 6, 97, 308.2792663574219
0, 6, 98, 301.9429931640625
0, 6, 99, 270.4549255371094
0, 6, 100, 308.556884765625
0, 6, 101, 293.0929565429688
0, 6, 102, 307.709716796875
0, 6, 103, 308.4364013671875
0, 6, 104, 292.4114074707031
0, 6, 105, 300.8638610839844
0, 6, 106, 306.2510681152344
0, 6, 107, 308.7149658203125
0, 6, 108, 265.3252868652344
0, 6, 109, 187.2019500732422
0, 6, 110, 54.57974243164062
0, 6, 111, 21.57451248168945
0, 6, 112, 12.50698661804199
0, 6, 113, 10.12930583953857
0, 6, 114, 13.0190486907959
0, 6, 115, 11.13397884368896
0, 6, 116, 8.320772171020508
0, 6, 117, 6.32682466506958
0, 6, 118, 9.096403121948242
0, 6, 119, 7.020140647888184
0, 6, 120, 4.753524303436279
0, 6, 121, 5.934347152709961
0, 6, 122, 7.25311803817749
0, 6, 123, 5.5386643409729
0, 6, 124, 7.330249786376953
0, 6, 125, 5.97193431854248
0, 6, 126, 4.305428028106689
0, 6, 127, 6.795102596282959
0, 7, 0, 4.853873252868652
0, 7, 1, 4.354631900787354
0, 7, 2, 4.433223724365234
0, 7, 3, 4.146314144134521
0, 7, 4, 4.37253475189209
0, 7, 5, 4.59756326675415
0, 7, 6, 5.188262462615967
0, 7, 7, 4.973795413970947
0, 7, 8, 4.970485687255859
0, 7, 9, 6.472527503967285
0, 7, 10, 6.726728439331055
0, 7, 11, 11.84676074981689
0, 7, 12, 7.546910762786865
0, 7, 13, 11.37503528594971
0, 7, 14, 10.95099449157715
0, 7, 15, 16.84355926513672
0, 7, 16, 25.85011100769043
0, 7, 17, 98.12162780761719
0, 7, 18, 217.2917022705078
0, 7, 19, 289.9484252929688
0, 7, 20, 296.17333984375
0, 7, 21, 277.0564270019531
0, 7, 22, 300.2892150878906
0, 7, 23, 288.33447265625
0, 7, 24, 315.6336669921875
0, 7, 25, 324.3585205078125
0, 7, 26, 277.6821899414062
0, 7, 27, 298.7742919921875
0, 7, 28, 326.2328491210938
0, 7, 29, 317.7901916503906
0, 7, 30, 301.00537109375
0, 7, 31, 277.0710754394531
0, 7, 32, 306.4123229980469
0, 7, 33, 264.3305969238281
0, 7, 34, 297.0904235839844
0, 7, 35, 319.562744140625
0, 7, 36, 332.0869140625
0, 7, 37, 324.7222900390625
0, 7, 38, 297.068115234375
0, 7, 39, 303.8500671386719
0, 7, 40, 288.6282043457031
0, 7, 41, 272.5483703613281
0, 7, 42, 301.2809753417969
0, 7, 43, 278.7764282226562
0, 7, 44, 304.4578552246094
0, 7, 45, 293.9941101074219
0, 7, 46, 280.7510681152344
0, 7, 47, 327.6760864257812
0, 7, 48, 286.7647705078125
0, 7, 49, 300.9486694335938
0, 7, 50, 321.3118591308594
0, 7, 51, 299.5754699707031
0, 7, 52, 326.3077087402344
0, 7, 53, 312.1454162597656
0, 7, 54, 324.8875427246094
0, 7, 55, 305.9106750488281
0, 7, 56, 278.2998046875
0, 7, 57, 285.2699584960938
0, 7, 58, 296.1315307617188
0, 7, 59, 294.9448852539062
0, 7, 60, 323.887939453125
0, 7, 61, 279.78515625
0, 7, 62, 298.4762268066406
0, 7, 63, 292.4365234375
0, 7, 64, 305.0929870605469
0, 7, 65, 330.6813049316406
0, 7, 66, 317.9678649902344
0, 7, 67, 301.0556640625
0, 7, 68, 279.294189453125
0, 7, 69, 292.8022155761719
0, 7, 70, 300.6378479003906
0, 7, 71, 309.6676635742188
0, 7, 72, 287.4638671875
0, 7, 73, 294.6441955566406
0, 7, 74, 344.239501953125
0, 7, 75, 319.3613891601562
0, 7, 76, 322.0611267089844
0, 7, 77, 279.0488586425781
0, 7, 78, 300.88037109375
0, 7, 79, 297.5965270996094
0, 7, 80, 309.82666015625
0, 7, 81, 318.3276977539062
0, 7, 82, 328.8874816894531
0, 7, 83, 316.771484375
0, 7, 84, 310.9408569335938
0, 7, 85, 271.9108581542969
0, 7, 86, 313.1573791503906
0, 7, 87, 309.1084899902344
0, 7, 88, 306.9679870605469
0, 7, 89, 294.55517578125
0, 7, 90, 305.4006042480469
0, 7, 91, 315.2696228027344
0, 7, 92, 286.434326171875
0, 7, 93, 306.8957824707031
0, 7, 94, 272.8408203125
0, 7, 95, 296.300537109375
0, 7, 96, 330.7663879394531
0, 7, 97, 294.0361938476562
0, 7, 98, 290.2429809570312
0, 7, 99, 311.7881469726562
0, 7, 100, 285.1693725585938
0, 7, 101, 275.6040649414062
0, 7, 102, 291.892822265625
0, 7, 103, 292.4996948242188
0, 7, 104, 273.9757690429688
0, 7, 105, 305.3807067871094
0, 7, 106, 317.0814208984375
0, 7, 107, 296.0081176757812
0, 7, 108, 272.4109802246094
0, 7, 109, 237.2656402587891
0, 7, 110, 97.55502319335938
0, 7, 111, 23.63323020935059
0, 7, 112, 13.42119789123535
0, 7, 113, 13.62219905853271
0, 7, 114, 11.84939575195312
0, 7, 115, 12.19652843475342
0, 7, 116, 6.605086326599121
0, 7, 117, 5.691651821136475
0, 7, 118, 6.47329044342041
0, 7, 119, 5.333954334259033
0, 7, 120, 5.026266098022461
0, 7, 121, 7.177312850952148
0, 7, 122, 6.205001354217529
0, 7, 123, 5.35123348236084
0, 7, 124, 3.106836080551147
0, 7, 125, 5.749005317687988
0, 7, 126, 5.832297325134277
0, 7, 127, 4.330168724060059
0, 8, 0, 3.130306243896484
0, 8, 1, 5.328534126281738
0, 8, 2, 4.333260536193848
0, 8, 3, 3.600695371627808
0, 8, 4, 3.751864910125732
0, 8, 5, 4.516381740570068
0, 8, 6, 6.971094131469727
0, 8, 7, 4.776580333709717
0, 8, 8, 7.456839561462402
0, 8, 9, 4.741570949554443
0, 8, 10, 6.679779529571533
0, 8, 11, 11.98939609527588
0, 8, 12, 13.01183128356934
0, 8, 13, 15.41317939758301
0, 8, 14, 13.90755653381348
0, 8, 15, 16.72813034057617
0, 8, 16, 32.64604187011719
0, 8, 17, 130.3031616210938
0, 8, 18, 244.2009582519531
0, 8, 19, 296.4336547851562
0, 8, 20, 286.1655883789062
0, 8, 21, 306.6310424804688
0, 8, 22, 296.0615844726562
0, 8, 23, 274.8472595214844
0, 8, 24, 268.7062072753906
0, 8, 25, 274.843017578125
0, 8, 26, 305.4656677246094
0, 8, 27, 307.0764465332031
0, 8, 28, 304.000732421875
0, 8, 29, 320.907470703125
0, 8, 30, 314.5377807617188
0, 8, 31, 303.9836120605469
0, 8, 32, 280.6840209960938
0, 8, 33, 292.8613891601562
0, 8, 34, 290.7326354980469
0, 8, 35, 278.9451293945312
0, 8, 36, 315.13916015625
0, 8, 37, 337.4834594726562
0, 8, 38, 331.8155517578125
0, 8, 39, 281.1176147460938
0, 8, 40, 303.9743347167969
