# TOPAS Version: 3.1.p3
# Parameter File: batch_inserts_128.txt
# Results for scorer Readout_Adipose
# Scored in component: MyBox
# X in 1 bin  of 0.75 cm
# Y in 512 bins of 0.0783984 cm
# Z in 128 bins of 0.078125 cm
# EnergyDeposit ( MeV ) : Sum   
0, 0, 0, 4.742580413818359
0, 0, 1, 1.608549237251282
0, 0, 2, 3.088236093521118
0, 0, 3, 1.747894048690796
0, 0, 4, 3.467919588088989
0, 0, 5, 3.248567581176758
0, 0, 6, 8.70108699798584
0, 0, 7, 9.649560928344727
0, 0, 8, 2.813807249069214
0, 0, 9, 5.142926692962646
0, 0, 10, 6.529327392578125
0, 0, 11, 5.230896472930908
0, 0, 12, 4.440818786621094
0, 0, 13, 5.688357830047607
0, 0, 14, 8.312702178955078
0, 0, 15, 10.72109413146973
0, 0, 16, 8.525473594665527
0, 0, 17, 9.775697708129883
0, 0, 18, 13.31464385986328
0, 0, 19, 42.59051132202148
0, 0, 20, 139.0024719238281
0, 0, 21, 223.3355865478516
0, 0, 22, 248.4923095703125
0, 0, 23, 257.39990234375
0, 0, 24, 250.4513397216797
0, 0, 25, 258.6683959960938
0, 0, 26, 233.4299468994141
0, 0, 27, 237.2877044677734
0, 0, 28, 271.7422485351562
0, 0, 29, 251.7331695556641
0, 0, 30, 231.9069519042969
0, 0, 31, 245.0886993408203
0, 0, 32, 263.4181213378906
0, 0, 33, 260.6900024414062
0, 0, 34, 287.7898559570312
0, 0, 35, 267.4927368164062
0, 0, 36, 246.4464569091797
0, 0, 37, 252.2919158935547
0, 0, 38, 269.2589416503906
0, 0, 39, 231.7890625
0, 0, 40, 240.6262054443359
0, 0, 41, 266.0111083984375
0, 0, 42, 228.771728515625
0, 0, 43, 260.78857421875
0, 0, 44, 253.0526428222656
0, 0, 45, 252.5094146728516
0, 0, 46, 243.5091857910156
0, 0, 47, 253.7881164550781
0, 0, 48, 270.0197143554688
0, 0, 49, 273.4452209472656
0, 0, 50, 250.6996154785156
0, 0, 51, 254.8081665039062
0, 0, 52, 272.8045349121094
0, 0, 53, 292.3139343261719
0, 0, 54, 241.7239227294922
0, 0, 55, 239.9617614746094
0, 0, 56, 278.3078002929688
0, 0, 57, 262.3659057617188
0, 0, 58, 245.1535949707031
0, 0, 59, 273.48046875
0, 0, 60, 234.9252166748047
0, 0, 61, 246.1378479003906
0, 0, 62, 256.2143249511719
0, 0, 63, 266.9200134277344
0, 0, 64, 254.5250396728516
0, 0, 65, 261.1805725097656
0, 0, 66, 277.0787353515625
0, 0, 67, 246.8735504150391
0, 0, 68, 258.1289672851562
0, 0, 69, 262.2383728027344
0, 0, 70, 272.4606323242188
0, 0, 71, 237.4045715332031
0, 0, 72, 250.8240051269531
0, 0, 73, 258.2503967285156
0, 0, 74, 251.6444091796875
0, 0, 75, 241.3426818847656
0, 0, 76, 228.7023468017578
0, 0, 77, 258.8773193359375
0, 0, 78, 256.784423828125
0, 0, 79, 279.2904357910156
0, 0, 80, 214.9327392578125
0, 0, 81, 266.1490173339844
0, 0, 82, 256.9983825683594
0, 0, 83, 246.119140625
0, 0, 84, 269.9733581542969
0, 0, 85, 230.9054107666016
0, 0, 86, 252.7898406982422
0, 0, 87, 252.4470977783203
0, 0, 88, 261.4197998046875
0, 0, 89, 283.111572265625
0, 0, 90, 242.8295288085938
0, 0, 91, 281.2678833007812
0, 0, 92, 253.7606658935547
0, 0, 93, 250.3580474853516
0, 0, 94, 247.7853851318359
0, 0, 95, 248.7328948974609
0, 0, 96, 275.4554748535156
0, 0, 97, 273.0696411132812
0, 0, 98, 272.3694458007812
0, 0, 99, 260.5256042480469
0, 0, 100, 257.3576049804688
0, 0, 101, 227.1712341308594
0, 0, 102, 235.0098724365234
0, 0, 103, 270.9014282226562
0, 0, 104, 255.0286254882812
0, 0, 105, 252.3266754150391
0, 0, 106, 247.0983428955078
0, 0, 107, 151.4809722900391
0, 0, 108, 38.52057266235352
0, 0, 109, 12.00555038452148
0, 0, 110, 12.76537704467773
0, 0, 111, 8.018177032470703
0, 0, 112, 7.686129570007324
0, 0, 113, 4.619845390319824
0, 0, 114, 6.849810123443604
0, 0, 115, 5.176286220550537
0, 0, 116, 5.606847286224365
0, 0, 117, 5.79869270324707
0, 0, 118, 5.803027629852295
0, 0, 119, 3.650515556335449
0, 0, 120, 4.18721342086792
0, 0, 121, 5.035078525543213
0, 0, 122, 3.524889707565308
0, 0, 123, 4.145754814147949
0, 0, 124, 5.493843555450439
0, 0, 125, 2.870858192443848
0, 0, 126, 4.779858589172363
0, 0, 127, 2.411205053329468
0, 1, 0, 7.408936500549316
0, 1, 1, 3.799376249313354
0, 1, 2, 4.732409477233887
0, 1, 3, 1.81495213508606
0, 1, 4, 2.227494478225708
0, 1, 5, 4.817132472991943
0, 1, 6, 7.147495269775391
0, 1, 7, 4.36678409576416
0, 1, 8, 5.648998260498047
0, 1, 9, 3.012627840042114
0, 1, 10, 8.291298866271973
0, 1, 11, 11.24768257141113
0, 1, 12, 7.663078308105469
0, 1, 13, 9.763679504394531
0, 1, 14, 7.444473743438721
0, 1, 15, 7.663759231567383
0, 1, 16, 12.59463977813721
0, 1, 17, 10.36462783813477
0, 1, 18, 21.15880584716797
0, 1, 19, 68.61689758300781
0, 1, 20, 199.7923736572266
0, 1, 21, 254.2241363525391
0, 1, 22, 296.3702697753906
0, 1, 23, 283.6357421875
0, 1, 24, 278.6283264160156
0, 1, 25, 287.7976989746094
0, 1, 26, 269.2774963378906
0, 1, 27, 306.8803100585938
0, 1, 28, 298.5082397460938
0, 1, 29, 295.4462585449219
0, 1, 30, 283.0783996582031
0, 1, 31, 289.7897338867188
0, 1, 32, 290.3106079101562
0, 1, 33, 295.8941955566406
0, 1, 34, 292.2711486816406
0, 1, 35, 278.4620056152344
0, 1, 36, 306.6846313476562
0, 1, 37, 295.6313171386719
0, 1, 38, 281.7020874023438
0, 1, 39, 295.2059936523438
0, 1, 40, 265.708251953125
0, 1, 41, 286.7637329101562
0, 1, 42, 289.5638122558594
0, 1, 43, 333.7154846191406
0, 1, 44, 276.9037475585938
0, 1, 45, 294.2704772949219
0, 1, 46, 258.1601257324219
0, 1, 47, 309.763671875
0, 1, 48, 283.9586486816406
0, 1, 49, 302.0723266601562
0, 1, 50, 264.0523376464844
0, 1, 51, 273.2865905761719
0, 1, 52, 294.2835083007812
0, 1, 53, 303.2854919433594
0, 1, 54, 273.7311706542969
0, 1, 55, 294.0202026367188
0, 1, 56, 277.3379211425781
0, 1, 57, 298.9010314941406
0, 1, 58, 310.7804870605469
0, 1, 59, 290.7910766601562
0, 1, 60, 298.3721923828125
0, 1, 61, 275.5984802246094
0, 1, 62, 311.5697326660156
0, 1, 63, 288.8966064453125
0, 1, 64, 288.4882507324219
0, 1, 65, 294.4716186523438
0, 1, 66, 291.4044494628906
0, 1, 67, 290.7366027832031
0, 1, 68, 277.8760070800781
0, 1, 69, 279.6060791015625
0, 1, 70, 271.120361328125
0, 1, 71, 272.5928955078125
0, 1, 72, 286.567626953125
0, 1, 73, 303.1363830566406
0, 1, 74, 304.7844848632812
0, 1, 75, 292.748291015625
0, 1, 76, 287.582275390625
0, 1, 77, 287.63623046875
0, 1, 78, 297.2862548828125
0, 1, 79, 301.6364440917969
0, 1, 80, 295.9569091796875
0, 1, 81, 300.1347045898438
0, 1, 82, 284.5443725585938
0, 1, 83, 331.1827392578125
0, 1, 84, 308.0789184570312
0, 1, 85, 254.2140655517578
0, 1, 86, 294.0500183105469
0, 1, 87, 289.8841857910156
0, 1, 88, 299.0321655273438
0, 1, 89, 292.6930541992188
0, 1, 90, 271.0595092773438
0, 1, 91, 321.3396911621094
0, 1, 92, 292.8216857910156
0, 1, 93, 285.7410583496094
0, 1, 94, 303.6284790039062
0, 1, 95, 283.6203002929688
0, 1, 96, 282.1920166015625
0, 1, 97, 301.7254333496094
0, 1, 98, 277.7954406738281
0, 1, 99, 267.6703796386719
0, 1, 100, 277.8686218261719
0, 1, 101, 280.283203125
0, 1, 102, 278.2985534667969
0, 1, 103, 281.419189453125
0, 1, 104, 304.6578063964844
0, 1, 105, 297.4925231933594
0, 1, 106, 260.5603942871094
0, 1, 107, 190.2131958007812
0, 1, 108, 82.68218994140625
0, 1, 109, 24.36451530456543
0, 1, 110, 11.77377891540527
0, 1, 111, 10.35260009765625
0, 1, 112, 12.87522315979004
0, 1, 113, 6.501948833465576
0, 1, 114, 5.607100009918213
0, 1, 115, 5.363797187805176
0, 1, 116, 10.24680805206299
0, 1, 117, 7.450874328613281
0, 1, 118, 5.8873291015625
0, 1, 119, 3.901825189590454
0, 1, 120, 5.140640258789062
0, 1, 121, 4.064687252044678
0, 1, 122, 3.090676784515381
0, 1, 123, 2.922335624694824
0, 1, 124, 8.189247131347656
0, 1, 125, 3.054317474365234
0, 1, 126, 2.453912258148193
0, 1, 127, 1.337882041931152
0, 2, 0, 4.8109130859375
0, 2, 1, 3.768639802932739
0, 2, 2, 4.033600807189941
0, 2, 3, 5.614441394805908
0, 2, 4, 3.601536512374878
0, 2, 5, 2.130570650100708
0, 2, 6, 2.188875913619995
0, 2, 7, 5.451795101165771
0, 2, 8, 5.203634262084961
0, 2, 9, 5.251380920410156
0, 2, 10, 6.748291492462158
0, 2, 11, 6.18856954574585
0, 2, 12, 6.40242862701416
0, 2, 13, 10.73643016815186
0, 2, 14, 9.605677604675293
0, 2, 15, 8.662456512451172
0, 2, 16, 8.393607139587402
0, 2, 17, 15.46322822570801
0, 2, 18, 31.67543601989746
0, 2, 19, 114.7192611694336
0, 2, 20, 246.9989929199219
0, 2, 21, 271.1693420410156
0, 2, 22, 318.1105346679688
0, 2, 23, 302.33544921875
0, 2, 24, 286.7192993164062
0, 2, 25, 303.7083129882812
0, 2, 26, 293.4155883789062
0, 2, 27, 275.2556457519531
0, 2, 28, 271.9390869140625
0, 2, 29, 274.3296203613281
0, 2, 30, 289.3798522949219
0, 2, 31, 276.0236206054688
0, 2, 32, 293.8450317382812
0, 2, 33, 282.4765625
0, 2, 34, 332.3793640136719
0, 2, 35, 288.4587707519531
0, 2, 36, 303.5663757324219
0, 2, 37, 315.4153442382812
0, 2, 38, 310.111328125
0, 2, 39, 266.9838256835938
0, 2, 40, 308.8244934082031
0, 2, 41, 294.1034545898438
0, 2, 42, 303.3779296875
0, 2, 43, 314.4894714355469
0, 2, 44, 313.8512268066406
0, 2, 45, 326.0578002929688
0, 2, 46, 287.8147277832031
0, 2, 47, 302.5133361816406
0, 2, 48, 279.687255859375
0, 2, 49, 280.02197265625
0, 2, 50, 293.7430419921875
0, 2, 51, 285.2427673339844
0, 2, 52, 274.7221374511719
0, 2, 53, 286.0894165039062
0, 2, 54, 280.2997436523438
0, 2, 55, 276.5402526855469
0, 2, 56, 300.8446350097656
0, 2, 57, 293.9518127441406
0, 2, 58, 300.4403991699219
0, 2, 59, 289.9032592773438
0, 2, 60, 318.2362670898438
0, 2, 61, 301.9768371582031
0, 2, 62, 312.7029113769531
0, 2, 63, 301.726806640625
0, 2, 64, 300.3828430175781
0, 2, 65, 315.9581298828125
0, 2, 66, 279.6640930175781
0, 2, 67, 291.3211364746094
0, 2, 68, 296.4731140136719
0, 2, 69, 311.7155151367188
0, 2, 70, 335.4285278320312
0, 2, 71, 284.1229553222656
0, 2, 72, 303.3224792480469
0, 2, 73, 311.2141418457031
0, 2, 74, 287.1183471679688
0, 2, 75, 303.1417541503906
0, 2, 76, 290.1558837890625
0, 2, 77, 299.4493103027344
0, 2, 78, 314.151123046875
0, 2, 79, 306.4860229492188
0, 2, 80, 295.683837890625
0, 2, 81, 285.8241271972656
0, 2, 82, 318.7050170898438
0, 2, 83, 311.583251953125
0, 2, 84, 289.1758422851562
0, 2, 85, 280.7016296386719
0, 2, 86, 322.84033203125
0, 2, 87, 288.3275451660156
0, 2, 88, 281.0521545410156
0, 2, 89, 297.1726989746094
0, 2, 90, 296.0868530273438
0, 2, 91, 275.6452026367188
0, 2, 92, 305.6757202148438
0, 2, 93, 317.0821228027344
0, 2, 94, 291.1120300292969
0, 2, 95, 316.5086669921875
0, 2, 96, 317.30615234375
0, 2, 97, 293.0164794921875
0, 2, 98, 293.4805908203125
0, 2, 99, 273.3760681152344
0, 2, 100, 309.1349487304688
0, 2, 101, 300.6738891601562
0, 2, 102, 296.2906188964844
0, 2, 103, 293.3326721191406
0, 2, 104, 291.2328186035156
0, 2, 105, 275.1680297851562
0, 2, 106, 298.9285278320312
0, 2, 107, 267.3731384277344
0, 2, 108, 115.3000869750977
0, 2, 109, 31.26356887817383
0, 2, 110, 9.970446586608887
0, 2, 111, 10.5781831741333
0, 2, 112, 7.283946990966797
0, 2, 113, 10.88726806640625
0, 2, 114, 11.09177398681641
0, 2, 115, 8.459477424621582
0, 2, 116, 9.199044227600098
0, 2, 117, 6.966934204101562
0, 2, 118, 2.989193201065063
0, 2, 119, 2.883347511291504
0, 2, 120, 5.234982490539551
0, 2, 121, 2.432965993881226
0, 2, 122, 6.384879589080811
0, 2, 123, 4.472251415252686
0, 2, 124, 2.164355278015137
0, 2, 125, 5.321064949035645
0, 2, 126, 5.00816011428833
0, 2, 127, 4.698502063751221
0, 3, 0, 2.784482479095459
0, 3, 1, 2.636371850967407
0, 3, 2, 4.982226371765137
0, 3, 3, 1.469371199607849
0, 3, 4, 3.799149513244629
0, 3, 5, 7.4075927734375
0, 3, 6, 5.831664085388184
0, 3, 7, 5.948776721954346
0, 3, 8, 4.290994644165039
0, 3, 9, 6.360877990722656
0, 3, 10, 5.991438865661621
0, 3, 11, 5.961132049560547
0, 3, 12, 8.903326034545898
0, 3, 13, 15.66400051116943
0, 3, 14, 10.7641773223877
0, 3, 15, 15.34263706207275
0, 3, 16, 12.48962116241455
0, 3, 17, 23.01671409606934
0, 3, 18, 54.82587051391602
0, 3, 19, 175.5015563964844
0, 3, 20, 268.6143188476562
0, 3, 21, 269.727294921875
0, 3, 22, 282.9641723632812
0, 3, 23, 286.0827026367188
0, 3, 24, 286.2624816894531
0, 3, 25, 268.5552368164062
0, 3, 26, 305.1221008300781
0, 3, 27, 293.1519470214844
0, 3, 28, 280.4932556152344
0, 3, 29, 338.9141845703125
0, 3, 30, 315.1754760742188
0, 3, 31, 287.7073364257812
0, 3, 32, 308.050537109375
0, 3, 33, 312.8293762207031
0, 3, 34, 322.0884704589844
0, 3, 35, 305.714111328125
0, 3, 36, 268.2196044921875
0, 3, 37, 312.6969299316406
0, 3, 38, 303.5893249511719
0, 3, 39, 290.8690185546875
0, 3, 40, 265.808837890625
0, 3, 41, 303.7799682617188
0, 3, 42, 284.0230407714844
0, 3, 43, 306.4049072265625
0, 3, 44, 311.4737854003906
0, 3, 45, 290.076904296875
0, 3, 46, 327.1265258789062
0, 3, 47, 302.0014038085938
0, 3, 48, 305.4520874023438
0, 3, 49, 277.9574890136719
0, 3, 50, 293.7012634277344
0, 3, 51, 276.2178955078125
0, 3, 52, 316.1755981445312
0, 3, 53, 286.6557006835938
0, 3, 54, 284.5369262695312
0, 3, 55, 283.2252502441406
0, 3, 56, 297.9573364257812
0, 3, 57, 287.47900390625
0, 3, 58, 306.5392150878906
0, 3, 59, 295.4260559082031
0, 3, 60, 298.8648376464844
0, 3, 61, 264.5736389160156
0, 3, 62, 282.2779846191406
0, 3, 63, 306.2594604492188
0, 3, 64, 316.9890441894531
0, 3, 65, 304.6705322265625
0, 3, 66, 315.1991882324219
0, 3, 67, 316.9460754394531
0, 3, 68, 279.435302734375
0, 3, 69, 281.7190856933594
0, 3, 70, 287.2673034667969
0, 3, 71, 299.9616394042969
0, 3, 72, 272.1618957519531
0, 3, 73, 307.33837890625
0, 3, 74, 291.5219421386719
0, 3, 75, 290.813720703125
0, 3, 76, 307.1503295898438
0, 3, 77, 312.9152526855469
0, 3, 78, 306.93017578125
0, 3, 79, 283.1364135742188
0, 3, 80, 290.0498046875
0, 3, 81, 311.0762939453125
0, 3, 82, 315.8894653320312
0, 3, 83, 301.57763671875
0, 3, 84, 314.4644470214844
0, 3, 85, 294.3692932128906
0, 3, 86, 302.6478576660156
0, 3, 87, 297.5307006835938
0, 3, 88, 296.7462158203125
0, 3, 89, 296.5002746582031
0, 3, 90, 276.1791076660156
0, 3, 91, 287.1643981933594
0, 3, 92, 304.7470092773438
0, 3, 93, 313.8540954589844
0, 3, 94, 297.5857849121094
0, 3, 95, 334.5032348632812
0, 3, 96, 290.5563354492188
0, 3, 97, 284.1659851074219
0, 3, 98, 278.6324462890625
0, 3, 99, 261.0531921386719
0, 3, 100, 285.0508728027344
0, 3, 101, 296.9017028808594
0, 3, 102, 275.1778869628906
0, 3, 103, 320.5387268066406
0, 3, 104, 308.1028137207031
0, 3, 105, 287.8719787597656
0, 3, 106, 301.77392578125
0, 3, 107, 284.6235656738281
0, 3, 108, 168.5427703857422
0, 3, 109, 56.98852157592773
0, 3, 110, 17.62480163574219
0, 3, 111, 13.47879600524902
0, 3, 112, 13.34715461730957
0, 3, 113, 9.35452938079834
0, 3, 114, 9.967687606811523
0, 3, 115, 6.30318546295166
0, 3, 116, 12.00826740264893
0, 3, 117, 6.99942684173584
0, 3, 118, 7.228823184967041
0, 3, 119, 5.310617923736572
0, 3, 120, 7.426580429077148
0, 3, 121, 3.59184741973877
0, 3, 122, 3.856329202651978
0, 3, 123, 5.271227836608887
0, 3, 124, 5.036505222320557
0, 3, 125, 4.705483913421631
0, 3, 126, 5.867608070373535
0, 3, 127, 4.315999984741211
0, 4, 0, 4.300600051879883
0, 4, 1, 4.904761791229248
0, 4, 2, 4.011892318725586
0, 4, 3, 2.672829151153564
0, 4, 4, 5.303860664367676
0, 4, 5, 7.510651111602783
0, 4, 6, 5.931591987609863
0, 4, 7, 4.45722770690918
0, 4, 8, 3.65930962562561
0, 4, 9, 6.374788284301758
0, 4, 10, 7.823499202728271
0, 4, 11, 6.00595760345459
0, 4, 12, 6.019299983978271
0, 4, 13, 7.534240245819092
0, 4, 14, 12.36362171173096
0, 4, 15, 8.882990837097168
0, 4, 16, 12.63736534118652
0, 4, 17, 19.19247245788574
0, 4, 18, 92.51387786865234
0, 4, 19, 223.5070190429688
0, 4, 20, 284.7527770996094
0, 4, 21, 273.4934387207031
0, 4, 22, 307.8627014160156
0, 4, 23, 266.33349609375
0, 4, 24, 288.4561462402344
0, 4, 25, 271.7738647460938
0, 4, 26, 293.9676818847656
0, 4, 27, 286.0629577636719
0, 4, 28, 307.0081481933594
0, 4, 29, 324.3849182128906
0, 4, 30, 310.6429443359375
0, 4, 31, 305.5444641113281
0, 4, 32, 281.5864868164062
0, 4, 33, 296.8273315429688
0, 4, 34, 296.1034851074219
0, 4, 35, 312.6292419433594
0, 4, 36, 292.18310546875
0, 4, 37, 288.4580993652344
0, 4, 38, 299.9316101074219
0, 4, 39, 295.4865112304688
0, 4, 40, 302.3612976074219
0, 4, 41, 311.8731689453125
0, 4, 42, 328.2684020996094
0, 4, 43, 297.6787414550781
0, 4, 44, 322.6646423339844
0, 4, 45, 324.326904296875
0, 4, 46, 304.2188720703125
0, 4, 47, 293.7619018554688
0, 4, 48, 293.5858459472656
0, 4, 49, 278.4875183105469
0, 4, 50, 295.7037048339844
0, 4, 51, 316.96826171875
0, 4, 52, 326.7259521484375
0, 4, 53, 303.3210754394531
0, 4, 54, 289.5982666015625
0, 4, 55, 314.7745056152344
0, 4, 56, 288.387939453125
0, 4, 57, 311.6435546875
0, 4, 58, 296.05810546875
0, 4, 59, 309.3611450195312
0, 4, 60, 302.4498901367188
0, 4, 61, 316.9013671875
0, 4, 62, 309.5135192871094
0, 4, 63, 299.7578125
0, 4, 64, 330.6602172851562
0, 4, 65, 318.3242492675781
0, 4, 66, 293.3467102050781
0, 4, 67, 285.4428405761719
0, 4, 68, 312.6307678222656
0, 4, 69, 276.7262573242188
0, 4, 70, 298.4277648925781
0, 4, 71, 321.973388671875
0, 4, 72, 332.7995300292969
0, 4, 73, 300.0165405273438
0, 4, 74, 293.5202331542969
0, 4, 75, 290.0630493164062
0, 4, 76, 273.9227600097656
0, 4, 77, 277.9584045410156
0, 4, 78, 308.1495056152344
0, 4, 79, 317.8389892578125
0, 4, 80, 317.1980285644531
0, 4, 81, 313.4431762695312
0, 4, 82, 298.3869018554688
0, 4, 83, 300.6145324707031
0, 4, 84, 293.8479309082031
0, 4, 85, 295.2389526367188
0, 4, 86, 297.9896850585938
0, 4, 87, 286.6200561523438
0, 4, 88, 303.8899230957031
0, 4, 89, 293.3966064453125
0, 4, 90, 332.1881713867188
0, 4, 91, 302.1842651367188
0, 4, 92, 288.7387084960938
0, 4, 93, 296.4409790039062
0, 4, 94, 293.3599853515625
0, 4, 95, 287.5642395019531
0, 4, 96, 324.6752624511719
0, 4, 97, 276.5404052734375
0, 4, 98, 327.17529296875
0, 4, 99, 314.1189270019531
0, 4, 100, 300.5531921386719
0, 4, 101, 257.5991516113281
0, 4, 102, 294.9854736328125
0, 4, 103, 317.1112060546875
0, 4, 104, 281.7149658203125
0, 4, 105, 309.5539245605469
0, 4, 106, 287.0777587890625
0, 4, 107, 294.2049255371094
0, 4, 108, 225.7046051025391
0, 4, 109, 79.20014953613281
0, 4, 110, 17.50409507751465
0, 4, 111, 13.75905418395996
0, 4, 112, 9.786273956298828
0, 4, 113, 10.07776260375977
0, 4, 114, 9.189689636230469
0, 4, 115, 11.3782958984375
0, 4, 116, 6.535213947296143
0, 4, 117, 6.325198173522949
0, 4, 118, 14.92348957061768
0, 4, 119, 9.807870864868164
0, 4, 120, 4.802139759063721
0, 4, 121, 6.393869876861572
0, 4, 122, 3.748293161392212
0, 4, 123, 6.213228225708008
0, 4, 124, 7.900087833404541
0, 4, 125, 8.913407325744629
0, 4, 126, 4.96328067779541
0, 4, 127, 4.608221530914307
0, 5, 0, 3.606083154678345
0, 5, 1, 2.889847993850708
0, 5, 2, 4.607631683349609
0, 5, 3, 5.084610462188721
0, 5, 4, 5.554530620574951
0, 5, 5, 9.167689323425293
0, 5, 6, 6.828898429870605
0, 5, 7, 4.489806175231934
0, 5, 8, 3.753156423568726
0, 5, 9, 4.825453758239746
0, 5, 10, 7.445170402526855
0, 5, 11, 8.947666168212891
0, 5, 12, 8.863218307495117
0, 5, 13, 4.62993335723877
0, 5, 14, 13.36029529571533
0, 5, 15, 17.70987892150879
0, 5, 16, 16.75291633605957
0, 5, 17, 28.29689407348633
0, 5, 18, 136.8707885742188
0, 5, 19, 288.6754150390625
0, 5, 20, 308.7306823730469
0, 5, 21, 319.8778686523438
0, 5, 22, 277.0908813476562
0, 5, 23, 311.3770141601562
0, 5, 24, 302.6270751953125
0, 5, 25, 289.0801696777344
0, 5, 26, 294.7559814453125
0, 5, 27, 321.95556640625
0, 5, 28, 305.9974365234375
0, 5, 29, 295.7858581542969
0, 5, 30, 321.7351989746094
0, 5, 31, 286.4862670898438
0, 5, 32, 303.9111022949219
0, 5, 33, 305.1693115234375
0, 5, 34, 297.6114501953125
0, 5, 35, 309.3534545898438
0, 5, 36, 271.740966796875
0, 5, 37, 281.4967346191406
0, 5, 38, 292.9866333007812
0, 5, 39, 312.277587890625
0, 5, 40, 307.466796875
0, 5, 41, 273.6458740234375
0, 5, 42, 304.4223327636719
0, 5, 43, 314.1248779296875
0, 5, 44, 292.3709716796875
0, 5, 45, 302.9671325683594
0, 5, 46, 266.2393188476562
0, 5, 47, 278.9984436035156
0, 5, 48, 294.3064270019531
0, 5, 49, 290.3840942382812
0, 5, 50, 295.1744079589844
0, 5, 51, 280.9734191894531
0, 5, 52, 268.5941162109375
0, 5, 53, 287.8024597167969
0, 5, 54, 292.451904296875
0, 5, 55, 343.6976013183594
0, 5, 56, 306.1204528808594
0, 5, 57, 309.8014831542969
0, 5, 58, 313.2060241699219
0, 5, 59, 302.3288269042969
0, 5, 60, 308.4637451171875
0, 5, 61, 282.5042724609375
0, 5, 62, 323.50537109375
0, 5, 63, 291.3702697753906
0, 5, 64, 325.1067810058594
0, 5, 65, 309.9200134277344
0, 5, 66, 327.7020263671875
0, 5, 67, 311.1881103515625
0, 5, 68, 308.5444946289062
0, 5, 69, 311.5748901367188
0, 5, 70, 305.4293518066406
0, 5, 71, 271.551025390625
0, 5, 72, 309.2434997558594
0, 5, 73, 302.6405029296875
0, 5, 74, 295.8564147949219
0, 5, 75, 295.1505432128906
0, 5, 76, 285.3145446777344
0, 5, 77, 301.6734619140625
0, 5, 78, 314.8922424316406
0, 5, 79, 308.4576110839844
0, 5, 80, 294.0894470214844
0, 5, 81, 325.0721435546875
0, 5, 82, 323.3392333984375
0, 5, 83, 279.9259033203125
0, 5, 84, 301.7358703613281
0, 5, 85, 273.9302673339844
0, 5, 86, 325.5596313476562
0, 5, 87, 288.0573120117188
0, 5, 88, 314.6570129394531
0, 5, 89, 306.1953125
0, 5, 90, 316.1510314941406
0, 5, 91, 313.000244140625
0, 5, 92, 296.3929138183594
0, 5, 93, 322.796630859375
0, 5, 94, 306.6405029296875
0, 5, 95, 296.0271606445312
0, 5, 96, 298.7776794433594
0, 5, 97, 296.0238952636719
0, 5, 98, 318.7826538085938
0, 5, 99, 302.6139831542969
0, 5, 100, 290.120849609375
0, 5, 101, 304.4504089355469
0, 5, 102, 292.5966491699219
0, 5, 103, 313.5443725585938
0, 5, 104, 301.4065856933594
0, 5, 105, 291.3316040039062
0, 5, 106, 280.6965942382812
0, 5, 107, 292.1422119140625
0, 5, 108, 263.8121643066406
0, 5, 109, 159.0955810546875
0, 5, 110, 39.10433959960938
0, 5, 111, 22.40629386901855
0, 5, 112, 14.81107616424561
0, 5, 113, 16.70219039916992
0, 5, 114, 13.85387897491455
0, 5, 115, 6.794804573059082
0, 5, 116, 7.567650318145752
0, 5, 117, 7.74960994720459
0, 5, 118, 16.65793228149414
0, 5, 119, 6.447170257568359
0, 5, 120, 6.940013885498047
0, 5, 121, 5.754895210266113
0, 5, 122, 8.790863990783691
0, 5, 123, 4.786640167236328
0, 5, 124, 7.653781890869141
0, 5, 125, 5.003355979919434
0, 5, 126, 4.775161743164062
0, 5, 127, 4.177985668182373
0, 6, 0, 4.346457481384277
0, 6, 1, 3.829265356063843
0, 6, 2, 6.056693077087402
0, 6, 3, 5.303230762481689
0, 6, 4, 3.136132478713989
0, 6, 5, 5.364666938781738
0, 6, 6, 7.14645528793335
0, 6, 7, 6.367167472839355
0, 6, 8, 8.247159957885742
0, 6, 9, 6.728653430938721
0, 6, 10, 7.148913383483887
0, 6, 11, 8.901387214660645
0, 6, 12, 8.308095932006836
0, 6, 13, 14.50102233886719
0, 6, 14, 10.81662750244141
0, 6, 15, 18.07551383972168
0, 6, 16, 28.56601715087891
0, 6, 17, 53.21200942993164
0, 6, 18, 172.2579040527344
0, 6, 19, 275.8727111816406
0, 6, 20, 290.2816772460938
0, 6, 21, 313.5512084960938
0, 6, 22, 321.1002197265625
0, 6, 23, 306.9285888671875
0, 6, 24, 316.8392028808594
0, 6, 25, 315.6888427734375
0, 6, 26, 320.65869140625
0, 6, 27, 330.7975769042969
0, 6, 28, 297.5034790039062
0, 6, 29, 330.4158020019531
0, 6, 30, 282.85888671875
0, 6, 31, 286.2851257324219
0, 6, 32, 340.9595031738281
0, 6, 33, 300.3123474121094
0, 6, 34, 338.6273193359375
0, 6, 35, 323.1265258789062
0, 6, 36, 271.7823181152344
0, 6, 37, 289.7251586914062
0, 6, 38, 311.2471008300781
0, 6, 39, 297.6780090332031
0, 6, 40, 286.5220947265625
0, 6, 41, 297.5902099609375
0, 6, 42, 305.9435424804688
0, 6, 43, 289.5185241699219
0, 6, 44, 281.4330444335938
0, 6, 45, 319.6485290527344
0, 6, 46, 299.8272705078125
0, 6, 47, 332.9981079101562
0, 6, 48, 293.6457824707031
0, 6, 49, 312.9397888183594
0, 6, 50, 326.8816223144531
0, 6, 51, 313.1464233398438
0, 6, 52, 322.0228576660156
0, 6, 53, 328.3603515625
0, 6, 54, 303.5834350585938
0, 6, 55, 306.2380065917969
0, 6, 56, 293.4497680664062
0, 6, 57, 313.2338256835938
0, 6, 58, 263.1348876953125
0, 6, 59, 303.9915466308594
0, 6, 60, 314.2352600097656
0, 6, 61, 269.5999145507812
0, 6, 62, 336.5049133300781
0, 6, 63, 323.780517578125
0, 6, 64, 291.5905151367188
0, 6, 65, 284.4046630859375
0, 6, 66, 306.3065795898438
0, 6, 67, 310.6595764160156
0, 6, 68, 295.2255249023438
0, 6, 69, 279.0317993164062
0, 6, 70, 273.1563720703125
0, 6, 71, 290.1057739257812
0, 6, 72, 309.6217041015625
0, 6, 73, 292.5693969726562
0, 6, 74, 331.0895690917969
0, 6, 75, 343.4022827148438
0, 6, 76, 296.9440002441406
0, 6, 77, 286.0454711914062
0, 6, 78, 277.6632690429688
0, 6, 79, 294.22705078125
0, 6, 80, 298.9135437011719
0, 6, 81, 313.9283447265625
0, 6, 82, 319.4444885253906
0, 6, 83, 322.2769470214844
0, 6, 84, 295.0821533203125
0, 6, 85, 300.1174011230469
0, 6, 86, 331.5264587402344
0, 6, 87, 295.4355163574219
0, 6, 88, 304.9748840332031
0, 6, 89, 307.090087890625
0, 6, 90, 298.7316284179688
0, 6, 91, 312.0559692382812
0, 6, 92, 285.2080993652344
0, 6, 93, 295.5691528320312
0, 6, 94, 271.6787414550781
0, 6, 95, 300.04833984375
0, 6, 96, 346.1875610351562
0, 6, 97, 307.2219848632812
0, 6, 98, 300.5504455566406
0, 6, 99, 272.1381530761719
0, 6, 100, 308.9557495117188
0, 6, 101, 293.6736755371094
0, 6, 102, 308.0845642089844
0, 6, 103, 307.7314758300781
0, 6, 104, 291.9492492675781
0, 6, 105, 302.14697265625
0, 6, 106, 308.2932739257812
0, 6, 107, 306.95263671875
0, 6, 108, 266.876953125
0, 6, 109, 186.2126007080078
0, 6, 110, 53.52388763427734
0, 6, 111, 22.2915096282959
0, 6, 112, 14.18804168701172
0, 6, 113, 10.4164514541626
0, 6, 114, 11.92263317108154
0, 6, 115, 12.7191858291626
0, 6, 116, 9.506711006164551
0, 6, 117, 5.524529933929443
0, 6, 118, 10.29129314422607
0, 6, 119, 9.662339210510254
0, 6, 120, 4.567565441131592
0, 6, 121, 5.474177360534668
0, 6, 122, 8.335457801818848
0, 6, 123, 6.405780792236328
0, 6, 124, 5.517951965332031
0, 6, 125, 7.199141025543213
0, 6, 126, 5.664822101593018
0, 6, 127, 6.470440864562988
0, 7, 0, 4.120397567749023
0, 7, 1, 8.975886344909668
0, 7, 2, 6.17598819732666
0, 7, 3, 5.859642028808594
0, 7, 4, 4.728241920471191
0, 7, 5, 5.168326377868652
0, 7, 6, 6.134011745452881
0, 7, 7, 4.89625883102417
0, 7, 8, 6.365266799926758
0, 7, 9, 7.902211666107178
0, 7, 10, 8.891339302062988
0, 7, 11, 15.82112979888916
0, 7, 12, 10.14145469665527
0, 7, 13, 10.73437118530273
0, 7, 14, 10.15364074707031
0, 7, 15, 17.35950088500977
0, 7, 16, 25.85834121704102
0, 7, 17, 98.58254241943359
0, 7, 18, 220.3583068847656
0, 7, 19, 289.94677734375
0, 7, 20, 296.3811340332031
0, 7, 21, 277.507568359375
0, 7, 22, 299.1853942871094
0, 7, 23, 289.4816589355469
0, 7, 24, 313.6935729980469
0, 7, 25, 325.338623046875
0, 7, 26, 278.4792785644531
0, 7, 27, 298.2848510742188
0, 7, 28, 325.3355102539062
0, 7, 29, 319.8117370605469
0, 7, 30, 300.7135925292969
0, 7, 31, 278.7996520996094
0, 7, 32, 303.975341796875
0, 7, 33, 262.0592651367188
0, 7, 34, 298.5745544433594
0, 7, 35, 319.4044494628906
0, 7, 36, 332.8566589355469
0, 7, 37, 322.6885375976562
0, 7, 38, 295.3145751953125
0, 7, 39, 305.3544311523438
0, 7, 40, 289.304443359375
0, 7, 41, 270.8536071777344
0, 7, 42, 301.9061279296875
0, 7, 43, 278.4901123046875
0, 7, 44, 304.1282043457031
0, 7, 45, 293.1017761230469
0, 7, 46, 281.08837890625
0, 7, 47, 327.3092346191406
0, 7, 48, 285.0975341796875
0, 7, 49, 300.8085021972656
0, 7, 50, 322.0022277832031
0, 7, 51, 300.1816101074219
0, 7, 52, 325.4837036132812
0, 7, 53, 312.5660400390625
0, 7, 54, 323.1712646484375
0, 7, 55, 306.01611328125
0, 7, 56, 280.3717041015625
0, 7, 57, 283.5555114746094
0, 7, 58, 298.1445922851562
0, 7, 59, 294.700927734375
0, 7, 60, 323.3351745605469
0, 7, 61, 277.8230285644531
0, 7, 62, 296.5289001464844
0, 7, 63, 291.7960205078125
0, 7, 64, 304.7572326660156
0, 7, 65, 331.4865417480469
0, 7, 66, 317.790771484375
0, 7, 67, 303.1268920898438
0, 7, 68, 278.7738952636719
0, 7, 69, 294.1669921875
0, 7, 70, 301.3303833007812
0, 7, 71, 310.8603515625
0, 7, 72, 285.5685424804688
0, 7, 73, 295.3206481933594
0, 7, 74, 344.2197570800781
0, 7, 75, 317.8192443847656
0, 7, 76, 322.7655944824219
0, 7, 77, 279.1634826660156
0, 7, 78, 300.6623229980469
0, 7, 79, 296.7423706054688
0, 7, 80, 311.3365478515625
0, 7, 81, 318.5631713867188
0, 7, 82, 331.6956787109375
0, 7, 83, 316.5702514648438
0, 7, 84, 310.5278015136719
0, 7, 85, 272.9958801269531
0, 7, 86, 311.5524597167969
0, 7, 87, 309.3548278808594
0, 7, 88, 306.3505859375
0, 7, 89, 293.3690795898438
0, 7, 90, 308.1064453125
0, 7, 91, 316.4160766601562
0, 7, 92, 289.6719055175781
0, 7, 93, 309.5458068847656
0, 7, 94, 272.9886169433594
0, 7, 95, 295.1461791992188
0, 7, 96, 331.4446411132812
0, 7, 97, 294.0633239746094
0, 7, 98, 290.1247863769531
0, 7, 99, 310.8810729980469
0, 7, 100, 282.1023559570312
0, 7, 101, 275.2308654785156
0, 7, 102, 289.7281494140625
0, 7, 103, 293.6879272460938
0, 7, 104, 277.2289123535156
0, 7, 105, 308.8876037597656
0, 7, 106, 318.1771850585938
0, 7, 107, 297.9891662597656
0, 7, 108, 273.4577026367188
0, 7, 109, 236.9085540771484
0, 7, 110, 95.73518371582031
0, 7, 111, 25.21721076965332
0, 7, 112, 14.01828765869141
0, 7, 113, 13.88815784454346
0, 7, 114, 12.71305656433105
0, 7, 115, 13.83740329742432
0, 7, 116, 6.739082336425781
0, 7, 117, 4.7568039894104
0, 7, 118, 7.077240467071533
0, 7, 119, 7.581910133361816
0, 7, 120, 5.203616619110107
0, 7, 121, 6.985481739044189
0, 7, 122, 6.226859569549561
0, 7, 123, 4.744870185852051
0, 7, 124, 3.520981073379517
0, 7, 125, 6.140064239501953
0, 7, 126, 7.333428382873535
0, 7, 127, 5.384068012237549
0, 8, 0, 4.923349857330322
0, 8, 1, 4.130165100097656
0, 8, 2, 3.054383277893066
0, 8, 3, 4.350916385650635
0, 8, 4, 6.906548023223877
0, 8, 5, 4.370832920074463
0, 8, 6, 4.781643390655518
0, 8, 7, 6.02269458770752
0, 8, 8, 8.726728439331055
0, 8, 9, 4.606170177459717
0, 8, 10, 6.444992542266846
0, 8, 11, 10.77511787414551
0, 8, 12, 13.78139591217041
0, 8, 13, 16.58402252197266
0, 8, 14, 13.65823650360107
0, 8, 15, 18.42482566833496
0, 8, 16, 32.09377288818359
0, 8, 17, 129.3400421142578
0, 8, 18, 242.4285278320312
0, 8, 19, 296.8636779785156
0, 8, 20, 285.8599853515625
0, 8, 21, 307.5534973144531
0, 8, 22, 295.23828125
0, 8, 23, 275.7295532226562
0, 8, 24, 268.8357543945312
0, 8, 25, 275.6739501953125
0, 8, 26, 306.2574462890625
0, 8, 27, 307.5899658203125
0, 8, 28, 304.4771118164062
0, 8, 29, 318.3605041503906
0, 8, 30, 313.1486206054688
0, 8, 31, 304.0807495117188
0, 8, 32, 280.1578369140625
0, 8, 33, 293.1306457519531
0, 8, 34, 288.9054870605469
0, 8, 35, 278.1207580566406
0, 8, 36, 316.0470581054688
0, 8, 37, 338.2084350585938
0, 8, 38, 332.565673828125
0, 8, 39, 281.1327209472656
0, 8, 40, 305.5359497070312
