# TOPAS Version: 3.1.p3
# Parameter File: batch_inserts_104.txt
# Results for scorer Readout_Adipose
# Scored in component: MyBox
# X in 1 bin  of 0.75 cm
# Y in 512 bins of 0.0783984 cm
# Z in 128 bins of 0.078125 cm
# EnergyDeposit ( MeV ) : Sum   
0, 0, 0, 3.141669750213623
0, 0, 1, 3.186275959014893
0, 0, 2, 4.519545555114746
0, 0, 3, 1.453240275382996
0, 0, 4, 5.555220127105713
0, 0, 5, 1.596759796142578
0, 0, 6, 6.299465179443359
0, 0, 7, 7.984210968017578
0, 0, 8, 1.955464243888855
0, 0, 9, 5.183074474334717
0, 0, 10, 7.302886009216309
0, 0, 11, 3.787877798080444
0, 0, 12, 3.738578081130981
0, 0, 13, 5.53813648223877
0, 0, 14, 6.950797080993652
0, 0, 15, 9.309833526611328
0, 0, 16, 9.352569580078125
0, 0, 17, 10.12856292724609
0, 0, 18, 13.29439258575439
0, 0, 19, 44.39352035522461
0, 0, 20, 139.5309753417969
0, 0, 21, 222.8690795898438
0, 0, 22, 247.8755950927734
0, 0, 23, 257.4799194335938
0, 0, 24, 249.9939575195312
0, 0, 25, 257.8391723632812
0, 0, 26, 234.3969421386719
0, 0, 27, 238.2463684082031
0, 0, 28, 270.8772888183594
0, 0, 29, 253.9552307128906
0, 0, 30, 229.1721649169922
0, 0, 31, 244.5882720947266
0, 0, 32, 263.2224731445312
0, 0, 33, 262.2811889648438
0, 0, 34, 289.7550964355469
0, 0, 35, 267.0488586425781
0, 0, 36, 246.9554901123047
0, 0, 37, 252.8615264892578
0, 0, 38, 270.3236389160156
0, 0, 39, 229.6505737304688
0, 0, 40, 241.4510345458984
0, 0, 41, 266.1306457519531
0, 0, 42, 227.9862976074219
0, 0, 43, 258.498291015625
0, 0, 44, 250.3923645019531
0, 0, 45, 253.4815826416016
0, 0, 46, 244.3309173583984
0, 0, 47, 254.5894317626953
0, 0, 48, 264.9805603027344
0, 0, 49, 273.661865234375
0, 0, 50, 251.6042327880859
0, 0, 51, 255.2366180419922
0, 0, 52, 272.8240356445312
0, 0, 53, 291.4172668457031
0, 0, 54, 241.4268341064453
0, 0, 55, 240.8842620849609
0, 0, 56, 277.9745788574219
0, 0, 57, 265.4344482421875
0, 0, 58, 245.9296264648438
0, 0, 59, 269.2311096191406
0, 0, 60, 235.2571868896484
0, 0, 61, 244.6195983886719
0, 0, 62, 257.370361328125
0, 0, 63, 267.7266540527344
0, 0, 64, 255.6298980712891
0, 0, 65, 261.9398803710938
0, 0, 66, 276.1240234375
0, 0, 67, 244.5087738037109
0, 0, 68, 257.2210083007812
0, 0, 69, 260.7493286132812
0, 0, 70, 275.5302734375
0, 0, 71, 237.8202056884766
0, 0, 72, 250.1156921386719
0, 0, 73, 257.7691345214844
0, 0, 74, 253.5353851318359
0, 0, 75, 239.5795135498047
0, 0, 76, 231.3616485595703
0, 0, 77, 262.1235656738281
0, 0, 78, 258.6528015136719
0, 0, 79, 277.2485961914062
0, 0, 80, 215.6597290039062
0, 0, 81, 266.2801818847656
0, 0, 82, 256.3769226074219
0, 0, 83, 243.9539947509766
0, 0, 84, 271.0260314941406
0, 0, 85, 231.2270050048828
0, 0, 86, 253.0929718017578
0, 0, 87, 251.2724456787109
0, 0, 88, 260.4682006835938
0, 0, 89, 282.1201171875
0, 0, 90, 242.7928161621094
0, 0, 91, 280.4745178222656
0, 0, 92, 252.2690277099609
0, 0, 93, 248.9972686767578
0, 0, 94, 247.9287567138672
0, 0, 95, 248.9173278808594
0, 0, 96, 275.2252502441406
0, 0, 97, 273.3711853027344
0, 0, 98, 273.7661743164062
0, 0, 99, 258.9378356933594
0, 0, 100, 259.2151489257812
0, 0, 101, 225.9469146728516
0, 0, 102, 232.9953460693359
0, 0, 103, 270.280029296875
0, 0, 104, 254.3340148925781
0, 0, 105, 250.9627838134766
0, 0, 106, 245.4873352050781
0, 0, 107, 151.7263031005859
0, 0, 108, 41.38191986083984
0, 0, 109, 11.81419277191162
0, 0, 110, 13.79137229919434
0, 0, 111, 9.678616523742676
0, 0, 112, 6.194464206695557
0, 0, 113, 4.065754413604736
0, 0, 114, 5.76463794708252
0, 0, 115, 5.394289493560791
0, 0, 116, 6.781335353851318
0, 0, 117, 5.619641780853271
0, 0, 118, 6.73166036605835
0, 0, 119, 4.774271011352539
0, 0, 120, 4.68442440032959
0, 0, 121, 2.446159839630127
0, 0, 122, 4.136537551879883
0, 0, 123, 3.524282932281494
0, 0, 124, 5.966506481170654
0, 0, 125, 5.101690292358398
0, 0, 126, 4.414108753204346
0, 0, 127, 3.914106845855713
0, 1, 0, 7.968790054321289
0, 1, 1, 2.617984294891357
0, 1, 2, 5.285746097564697
0, 1, 3, 2.469660758972168
0, 1, 4, 2.362309694290161
0, 1, 5, 3.592690944671631
0, 1, 6, 6.039090156555176
0, 1, 7, 3.929925203323364
0, 1, 8, 8.207569122314453
0, 1, 9, 4.096835136413574
0, 1, 10, 8.246456146240234
0, 1, 11, 10.90847778320312
0, 1, 12, 7.357063770294189
0, 1, 13, 8.282281875610352
0, 1, 14, 8.942483901977539
0, 1, 15, 7.575664043426514
0, 1, 16, 12.07382488250732
0, 1, 17, 11.0565710067749
0, 1, 18, 22.3281421661377
0, 1, 19, 65.67655181884766
0, 1, 20, 200.3803253173828
0, 1, 21, 254.5577392578125
0, 1, 22, 295.9544372558594
0, 1, 23, 282.2026977539062
0, 1, 24, 279.2313232421875
0, 1, 25, 288.4136962890625
0, 1, 26, 269.74365234375
0, 1, 27, 309.0453796386719
0, 1, 28, 298.4316711425781
0, 1, 29, 295.7631530761719
0, 1, 30, 282.18310546875
0, 1, 31, 291.3020629882812
0, 1, 32, 289.4507141113281
0, 1, 33, 295.6183776855469
0, 1, 34, 295.5797424316406
0, 1, 35, 279.0202331542969
0, 1, 36, 306.6540832519531
0, 1, 37, 295.6386108398438
0, 1, 38, 281.093505859375
0, 1, 39, 295.0392456054688
0, 1, 40, 265.8983154296875
0, 1, 41, 286.4877319335938
0, 1, 42, 291.54736328125
0, 1, 43, 332.5220947265625
0, 1, 44, 279.4586181640625
0, 1, 45, 292.5431213378906
0, 1, 46, 260.5808410644531
0, 1, 47, 310.7984008789062
0, 1, 48, 285.0666198730469
0, 1, 49, 302.1131896972656
0, 1, 50, 263.0927429199219
0, 1, 51, 271.4825134277344
0, 1, 52, 298.2446594238281
0, 1, 53, 303.0018310546875
0, 1, 54, 274.3252868652344
0, 1, 55, 294.0844421386719
0, 1, 56, 279.7537231445312
0, 1, 57, 297.7019653320312
0, 1, 58, 311.1632995605469
0, 1, 59, 293.1238098144531
0, 1, 60, 298.1576843261719
0, 1, 61, 274.3988647460938
0, 1, 62, 308.2985229492188
0, 1, 63, 285.7378845214844
0, 1, 64, 288.3419799804688
0, 1, 65, 295.779052734375
0, 1, 66, 292.8569641113281
0, 1, 67, 292.8785095214844
0, 1, 68, 277.4862365722656
0, 1, 69, 278.7752685546875
0, 1, 70, 270.8665466308594
0, 1, 71, 273.7016296386719
0, 1, 72, 284.2166137695312
0, 1, 73, 305.4409790039062
0, 1, 74, 304.4304504394531
0, 1, 75, 291.6491088867188
0, 1, 76, 287.6292724609375
0, 1, 77, 290.3080139160156
0, 1, 78, 298.2552795410156
0, 1, 79, 303.6227111816406
0, 1, 80, 295.2894592285156
0, 1, 81, 300.5460510253906
0, 1, 82, 283.0453186035156
0, 1, 83, 330.5167236328125
0, 1, 84, 307.9490966796875
0, 1, 85, 255.0894165039062
0, 1, 86, 293.4079895019531
0, 1, 87, 290.1957092285156
0, 1, 88, 297.1499938964844
0, 1, 89, 291.4708557128906
0, 1, 90, 270.703369140625
0, 1, 91, 317.2762451171875
0, 1, 92, 293.0429077148438
0, 1, 93, 285.5028076171875
0, 1, 94, 302.1904907226562
0, 1, 95, 283.5000915527344
0, 1, 96, 285.2324829101562
0, 1, 97, 301.0989685058594
0, 1, 98, 278.26513671875
0, 1, 99, 264.9574279785156
0, 1, 100, 279.0670776367188
0, 1, 101, 281.2662353515625
0, 1, 102, 277.3193664550781
0, 1, 103, 282.1538696289062
0, 1, 104, 306.5653076171875
0, 1, 105, 298.0941162109375
0, 1, 106, 261.9936218261719
0, 1, 107, 190.8687744140625
0, 1, 108, 79.99851989746094
0, 1, 109, 25.93257904052734
0, 1, 110, 10.87786102294922
0, 1, 111, 9.327351570129395
0, 1, 112, 11.93251419067383
0, 1, 113, 5.47689151763916
0, 1, 114, 5.895877361297607
0, 1, 115, 7.277950763702393
0, 1, 116, 13.08449745178223
0, 1, 117, 4.942766666412354
0, 1, 118, 5.322083950042725
0, 1, 119, 9.565577507019043
0, 1, 120, 7.558470726013184
0, 1, 121, 4.006550312042236
0, 1, 122, 3.844520568847656
0, 1, 123, 3.559186458587646
0, 1, 124, 7.316341876983643
0, 1, 125, 3.224160671234131
0, 1, 126, 3.173118114471436
0, 1, 127, 0.974109411239624
0, 2, 0, 5.497971534729004
0, 2, 1, 3.027385950088501
0, 2, 2, 3.151622533798218
0, 2, 3, 3.579766750335693
0, 2, 4, 3.295161008834839
0, 2, 5, 2.673300981521606
0, 2, 6, 3.526899814605713
0, 2, 7, 5.006637096405029
0, 2, 8, 4.43718433380127
0, 2, 9, 5.316751003265381
0, 2, 10, 6.839081287384033
0, 2, 11, 6.890688419342041
0, 2, 12, 8.443451881408691
0, 2, 13, 10.84172344207764
0, 2, 14, 9.257016181945801
0, 2, 15, 6.530940532684326
0, 2, 16, 11.20598030090332
0, 2, 17, 16.33144187927246
0, 2, 18, 32.16672515869141
0, 2, 19, 114.9431533813477
0, 2, 20, 246.4819488525391
0, 2, 21, 270.5609436035156
0, 2, 22, 315.9351501464844
0, 2, 23, 299.904296875
0, 2, 24, 286.0578918457031
0, 2, 25, 301.9649658203125
0, 2, 26, 291.9314880371094
0, 2, 27, 275.9936828613281
0, 2, 28, 273.4472351074219
0, 2, 29, 272.8780822753906
0, 2, 30, 293.0255737304688
0, 2, 31, 277.6651916503906
0, 2, 32, 294.1133422851562
0, 2, 33, 281.4550170898438
0, 2, 34, 331.3067016601562
0, 2, 35, 289.19189453125
0, 2, 36, 304.0668029785156
0, 2, 37, 316.7452087402344
0, 2, 38, 311.3561096191406
0, 2, 39, 265.1246948242188
0, 2, 40, 307.0541687011719
0, 2, 41, 294.6791381835938
0, 2, 42, 303.6844177246094
0, 2, 43, 312.4383239746094
0, 2, 44, 310.6000061035156
0, 2, 45, 324.0558166503906
0, 2, 46, 286.8193969726562
0, 2, 47, 302.126220703125
0, 2, 48, 281.1311645507812
0, 2, 49, 280.10546875
0, 2, 50, 295.4298400878906
0, 2, 51, 283.0406799316406
0, 2, 52, 273.0456237792969
0, 2, 53, 287.5037536621094
0, 2, 54, 280.6107788085938
0, 2, 55, 277.1069946289062
0, 2, 56, 301.5823974609375
0, 2, 57, 291.96630859375
0, 2, 58, 302.1426086425781
0, 2, 59, 288.8844299316406
0, 2, 60, 319.7636413574219
0, 2, 61, 301.3545837402344
0, 2, 62, 313.0711669921875
0, 2, 63, 302.0747985839844
0, 2, 64, 296.6602478027344
0, 2, 65, 313.7904357910156
0, 2, 66, 279.2759704589844
0, 2, 67, 290.3623657226562
0, 2, 68, 296.8798217773438
0, 2, 69, 311.3541259765625
0, 2, 70, 336.5284118652344
0, 2, 71, 285.6089172363281
0, 2, 72, 302.2825317382812
0, 2, 73, 313.3097534179688
0, 2, 74, 285.6917114257812
0, 2, 75, 302.7073974609375
0, 2, 76, 286.7182312011719
0, 2, 77, 299.3447265625
0, 2, 78, 315.6414184570312
0, 2, 79, 307.5639343261719
0, 2, 80, 294.1969299316406
0, 2, 81, 282.5572204589844
0, 2, 82, 319.6785278320312
0, 2, 83, 311.0059204101562
0, 2, 84, 287.3753662109375
0, 2, 85, 282.7910461425781
0, 2, 86, 327.1882934570312
0, 2, 87, 288.6458435058594
0, 2, 88, 281.0011291503906
0, 2, 89, 296.1165771484375
0, 2, 90, 295.8735656738281
0, 2, 91, 277.1731567382812
0, 2, 92, 306.8153381347656
0, 2, 93, 317.4596252441406
0, 2, 94, 293.1009521484375
0, 2, 95, 314.0702819824219
0, 2, 96, 315.9962463378906
0, 2, 97, 291.2014770507812
0, 2, 98, 294.7698059082031
0, 2, 99, 272.8294067382812
0, 2, 100, 306.4125671386719
0, 2, 101, 301.4032897949219
0, 2, 102, 296.1644287109375
0, 2, 103, 291.5879516601562
0, 2, 104, 292.3713073730469
0, 2, 105, 273.1037292480469
0, 2, 106, 299.0392761230469
0, 2, 107, 272.6882019042969
0, 2, 108, 116.5688247680664
0, 2, 109, 32.32065200805664
0, 2, 110, 10.29538917541504
0, 2, 111, 12.13558292388916
0, 2, 112, 8.808049201965332
0, 2, 113, 11.91493606567383
0, 2, 114, 10.01148319244385
0, 2, 115, 8.245683670043945
0, 2, 116, 8.555323600769043
0, 2, 117, 13.29241943359375
0, 2, 118, 3.367844343185425
0, 2, 119, 2.740106582641602
0, 2, 120, 5.701584339141846
0, 2, 121, 2.870985269546509
0, 2, 122, 5.680070400238037
0, 2, 123, 4.500476837158203
0, 2, 124, 3.463880777359009
0, 2, 125, 6.553801536560059
0, 2, 126, 3.164644479751587
0, 2, 127, 6.656779766082764
0, 3, 0, 2.055731773376465
0, 3, 1, 2.819020748138428
0, 3, 2, 2.952399253845215
0, 3, 3, 2.585140228271484
0, 3, 4, 3.459556818008423
0, 3, 5, 7.405043601989746
0, 3, 6, 7.195433616638184
0, 3, 7, 4.809290409088135
0, 3, 8, 5.096195697784424
0, 3, 9, 9.387030601501465
0, 3, 10, 5.57802677154541
0, 3, 11, 4.197184562683105
0, 3, 12, 6.53911828994751
0, 3, 13, 17.82567024230957
0, 3, 14, 12.47550106048584
0, 3, 15, 15.035080909729
0, 3, 16, 12.09540271759033
0, 3, 17, 18.83173561096191
0, 3, 18, 53.41362762451172
0, 3, 19, 175.8743438720703
0, 3, 20, 269.6109619140625
0, 3, 21, 271.8912963867188
0, 3, 22, 282.8963928222656
0, 3, 23, 286.8843383789062
0, 3, 24, 285.7837524414062
0, 3, 25, 271.3515319824219
0, 3, 26, 303.404541015625
0, 3, 27, 292.1863098144531
0, 3, 28, 283.2000732421875
0, 3, 29, 338.6383666992188
0, 3, 30, 316.6637268066406
0, 3, 31, 285.4066467285156
0, 3, 32, 305.5492858886719
0, 3, 33, 313.8713073730469
0, 3, 34, 320.0106811523438
0, 3, 35, 304.1781311035156
0, 3, 36, 269.9241333007812
0, 3, 37, 311.4985046386719
0, 3, 38, 302.2109985351562
0, 3, 39, 289.1600646972656
0, 3, 40, 269.4747619628906
0, 3, 41, 302.4074401855469
0, 3, 42, 286.5545349121094
0, 3, 43, 305.1463012695312
0, 3, 44, 311.5616760253906
0, 3, 45, 289.4409790039062
0, 3, 46, 329.1028137207031
0, 3, 47, 298.9684143066406
0, 3, 48, 303.5448303222656
0, 3, 49, 277.5400390625
0, 3, 50, 293.2364501953125
0, 3, 51, 274.8588562011719
0, 3, 52, 314.9207153320312
0, 3, 53, 288.146484375
0, 3, 54, 284.337158203125
0, 3, 55, 284.4100952148438
0, 3, 56, 300.9452819824219
0, 3, 57, 287.7050170898438
0, 3, 58, 305.5389099121094
0, 3, 59, 297.3670654296875
0, 3, 60, 297.568603515625
0, 3, 61, 265.6019592285156
0, 3, 62, 284.2539367675781
0, 3, 63, 306.6344604492188
0, 3, 64, 316.2856140136719
0, 3, 65, 304.6110534667969
0, 3, 66, 314.5184020996094
0, 3, 67, 318.5071411132812
0, 3, 68, 281.3493957519531
0, 3, 69, 282.5680236816406
0, 3, 70, 290.53369140625
0, 3, 71, 300.8810424804688
0, 3, 72, 269.9990844726562
0, 3, 73, 308.0722351074219
0, 3, 74, 291.3405151367188
0, 3, 75, 289.7925720214844
0, 3, 76, 305.2465209960938
0, 3, 77, 314.0049743652344
0, 3, 78, 302.1477355957031
0, 3, 79, 281.3734436035156
0, 3, 80, 289.7510681152344
0, 3, 81, 310.8054809570312
0, 3, 82, 318.1520385742188
0, 3, 83, 301.46728515625
0, 3, 84, 313.6360168457031
0, 3, 85, 294.6414184570312
0, 3, 86, 304.0024719238281
0, 3, 87, 299.4598388671875
0, 3, 88, 297.2002563476562
0, 3, 89, 296.6866149902344
0, 3, 90, 276.1864013671875
0, 3, 91, 282.7891540527344
0, 3, 92, 303.6627502441406
0, 3, 93, 313.4265441894531
0, 3, 94, 298.2733154296875
0, 3, 95, 337.0451049804688
0, 3, 96, 289.4986877441406
0, 3, 97, 282.8804016113281
0, 3, 98, 277.1497192382812
0, 3, 99, 261.4696960449219
0, 3, 100, 284.8213500976562
0, 3, 101, 296.3648986816406
0, 3, 102, 275.5717468261719
0, 3, 103, 319.4370422363281
0, 3, 104, 308.7883911132812
0, 3, 105, 289.7267150878906
0, 3, 106, 303.2961730957031
0, 3, 107, 282.1874694824219
0, 3, 108, 167.4000701904297
0, 3, 109, 57.13021087646484
0, 3, 110, 16.95240020751953
0, 3, 111, 12.3999490737915
0, 3, 112, 12.14359092712402
0, 3, 113, 7.641585826873779
0, 3, 114, 9.578078269958496
0, 3, 115, 7.317774295806885
0, 3, 116, 8.088679313659668
0, 3, 117, 5.460504055023193
0, 3, 118, 6.240133762359619
0, 3, 119, 7.08497953414917
0, 3, 120, 7.271746158599854
0, 3, 121, 2.902924776077271
0, 3, 122, 3.123245477676392
0, 3, 123, 6.073026657104492
0, 3, 124, 6.032092094421387
0, 3, 125, 4.886743068695068
0, 3, 126, 5.2139573097229
0, 3, 127, 2.698304414749146
0, 4, 0, 2.808534860610962
0, 4, 1, 4.83404541015625
0, 4, 2, 3.550365686416626
0, 4, 3, 1.556557059288025
0, 4, 4, 6.782456398010254
0, 4, 5, 8.389737129211426
0, 4, 6, 5.842620849609375
0, 4, 7, 4.707268714904785
0, 4, 8, 3.279841661453247
0, 4, 9, 7.032972812652588
0, 4, 10, 5.322907447814941
0, 4, 11, 6.360894680023193
0, 4, 12, 6.95235013961792
0, 4, 13, 8.316635131835938
0, 4, 14, 13.27821159362793
0, 4, 15, 9.877398490905762
0, 4, 16, 16.73614311218262
0, 4, 17, 17.88873481750488
0, 4, 18, 93.77822875976562
0, 4, 19, 224.9317321777344
0, 4, 20, 286.1489562988281
0, 4, 21, 273.1928100585938
0, 4, 22, 304.0706481933594
0, 4, 23, 268.592041015625
0, 4, 24, 289.3518981933594
0, 4, 25, 274.7038269042969
0, 4, 26, 296.2733154296875
0, 4, 27, 282.1834106445312
0, 4, 28, 305.9453430175781
0, 4, 29, 322.4937133789062
0, 4, 30, 309.71728515625
0, 4, 31, 302.8350524902344
0, 4, 32, 281.5858459472656
0, 4, 33, 297.6832885742188
0, 4, 34, 298.4443664550781
0, 4, 35, 311.4695739746094
0, 4, 36, 290.8226928710938
0, 4, 37, 287.6772766113281
0, 4, 38, 298.5487976074219
0, 4, 39, 297.7732543945312
0, 4, 40, 304.2710266113281
0, 4, 41, 312.2769470214844
0, 4, 42, 329.2419128417969
0, 4, 43, 295.7774658203125
0, 4, 44, 320.9713745117188
0, 4, 45, 324.4097290039062
0, 4, 46, 305.4743957519531
0, 4, 47, 293.7779541015625
0, 4, 48, 296.0852661132812
0, 4, 49, 278.0956115722656
0, 4, 50, 297.1005554199219
0, 4, 51, 316.3726806640625
0, 4, 52, 325.9762878417969
0, 4, 53, 303.3693237304688
0, 4, 54, 288.5354919433594
0, 4, 55, 315.3904113769531
0, 4, 56, 287.8913269042969
0, 4, 57, 311.328369140625
0, 4, 58, 296.0391235351562
0, 4, 59, 309.2051086425781
0, 4, 60, 303.4658203125
0, 4, 61, 316.473388671875
0, 4, 62, 308.2814331054688
0, 4, 63, 298.8529663085938
0, 4, 64, 330.79443359375
0, 4, 65, 318.7919921875
0, 4, 66, 294.4841003417969
0, 4, 67, 284.270263671875
0, 4, 68, 311.2322692871094
0, 4, 69, 275.48095703125
0, 4, 70, 299.4154663085938
0, 4, 71, 321.4377746582031
0, 4, 72, 332.1362609863281
0, 4, 73, 300.4965515136719
0, 4, 74, 290.98095703125
0, 4, 75, 289.7384338378906
0, 4, 76, 275.9160766601562
0, 4, 77, 277.7692260742188
0, 4, 78, 312.7976989746094
0, 4, 79, 320.0321044921875
0, 4, 80, 315.6192932128906
0, 4, 81, 311.6171875
0, 4, 82, 298.7809448242188
0, 4, 83, 302.9713745117188
0, 4, 84, 291.0956726074219
0, 4, 85, 293.7744140625
0, 4, 86, 296.7926940917969
0, 4, 87, 285.8809204101562
0, 4, 88, 306.416015625
0, 4, 89, 294.7499694824219
0, 4, 90, 331.8041076660156
0, 4, 91, 301.2143249511719
0, 4, 92, 290.7312622070312
0, 4, 93, 297.1825256347656
0, 4, 94, 293.3675537109375
0, 4, 95, 291.4068298339844
0, 4, 96, 323.3712158203125
0, 4, 97, 275.6247863769531
0, 4, 98, 328.3545227050781
0, 4, 99, 313.1177978515625
0, 4, 100, 300.757568359375
0, 4, 101, 258.8526916503906
0, 4, 102, 295.7429809570312
0, 4, 103, 317.7668151855469
0, 4, 104, 281.8537902832031
0, 4, 105, 312.87255859375
0, 4, 106, 286.3748779296875
0, 4, 107, 295.2856140136719
0, 4, 108, 224.5324401855469
0, 4, 109, 80.70993041992188
0, 4, 110, 16.23691749572754
0, 4, 111, 13.09410667419434
0, 4, 112, 7.566217422485352
0, 4, 113, 11.44276142120361
0, 4, 114, 9.091287612915039
0, 4, 115, 9.147294044494629
0, 4, 116, 8.052158355712891
0, 4, 117, 6.548015117645264
0, 4, 118, 8.754036903381348
0, 4, 119, 8.724869728088379
0, 4, 120, 4.444104194641113
0, 4, 121, 4.183592319488525
0, 4, 122, 3.611121416091919
0, 4, 123, 6.14294958114624
0, 4, 124, 3.941325664520264
0, 4, 125, 10.31081962585449
0, 4, 126, 5.334176063537598
0, 4, 127, 6.400308132171631
0, 5, 0, 4.407145977020264
0, 5, 1, 4.930972099304199
0, 5, 2, 4.802070140838623
0, 5, 3, 5.84349536895752
0, 5, 4, 6.553536891937256
0, 5, 5, 7.724950790405273
0, 5, 6, 5.228456020355225
0, 5, 7, 5.775688171386719
0, 5, 8, 5.562489032745361
0, 5, 9, 5.817198276519775
0, 5, 10, 6.811194896697998
0, 5, 11, 7.5125412940979
0, 5, 12, 8.576298713684082
0, 5, 13, 5.182700634002686
0, 5, 14, 12.59023666381836
0, 5, 15, 17.53483200073242
0, 5, 16, 14.84556674957275
0, 5, 17, 27.95241928100586
0, 5, 18, 136.7657318115234
0, 5, 19, 287.9717712402344
0, 5, 20, 307.1569213867188
0, 5, 21, 316.3428344726562
0, 5, 22, 276.8253173828125
0, 5, 23, 315.0165405273438
0, 5, 24, 302.664306640625
0, 5, 25, 289.0650634765625
0, 5, 26, 293.8574829101562
0, 5, 27, 321.6552124023438
0, 5, 28, 302.5478820800781
0, 5, 29, 298.4060974121094
0, 5, 30, 323.4438171386719
0, 5, 31, 285.8338012695312
0, 5, 32, 303.9200744628906
0, 5, 33, 304.1455078125
0, 5, 34, 297.1511840820312
0, 5, 35, 309.4749450683594
0, 5, 36, 271.3516540527344
0, 5, 37, 282.9957580566406
0, 5, 38, 293.8093566894531
0, 5, 39, 311.9392395019531
0, 5, 40, 308.9695739746094
0, 5, 41, 272.5517578125
0, 5, 42, 302.9971618652344
0, 5, 43, 314.2173767089844
0, 5, 44, 290.7479553222656
0, 5, 45, 300.7027282714844
0, 5, 46, 266.202880859375
0, 5, 47, 279.8472595214844
0, 5, 48, 294.2223205566406
0, 5, 49, 286.2518310546875
0, 5, 50, 294.143798828125
0, 5, 51, 281.6319885253906
0, 5, 52, 269.4384155273438
0, 5, 53, 286.0938110351562
0, 5, 54, 292.1978759765625
0, 5, 55, 345.7736511230469
0, 5, 56, 305.1771545410156
0, 5, 57, 307.9499816894531
0, 5, 58, 313.4382934570312
0, 5, 59, 301.6488342285156
0, 5, 60, 306.9590454101562
0, 5, 61, 282.3340148925781
0, 5, 62, 325.6974792480469
0, 5, 63, 289.614501953125
0, 5, 64, 323.2774047851562
0, 5, 65, 305.864990234375
0, 5, 66, 328.2113037109375
0, 5, 67, 312.1283264160156
0, 5, 68, 309.1283264160156
0, 5, 69, 311.70458984375
0, 5, 70, 299.5325622558594
0, 5, 71, 272.5161437988281
0, 5, 72, 310.5030212402344
0, 5, 73, 303.1141357421875
0, 5, 74, 295.1231384277344
0, 5, 75, 295.9701538085938
0, 5, 76, 286.652099609375
0, 5, 77, 298.0292358398438
0, 5, 78, 317.1945495605469
0, 5, 79, 306.0358581542969
0, 5, 80, 294.6110229492188
0, 5, 81, 326.1048583984375
0, 5, 82, 323.6227111816406
0, 5, 83, 281.1213684082031
0, 5, 84, 300.76513671875
0, 5, 85, 271.07421875
0, 5, 86, 324.3904724121094
0, 5, 87, 283.1305236816406
0, 5, 88, 313.8475952148438
0, 5, 89, 306.8222045898438
0, 5, 90, 316.1959533691406
0, 5, 91, 314.4123840332031
0, 5, 92, 297.1771240234375
0, 5, 93, 323.9350280761719
0, 5, 94, 307.3408203125
0, 5, 95, 296.6285095214844
0, 5, 96, 297.3087158203125
0, 5, 97, 295.1183471679688
0, 5, 98, 322.5534362792969
0, 5, 99, 303.3450622558594
0, 5, 100, 288.94677734375
0, 5, 101, 305.2423400878906
0, 5, 102, 291.2467651367188
0, 5, 103, 312.9953002929688
0, 5, 104, 303.2732238769531
0, 5, 105, 291.4856872558594
0, 5, 106, 281.3360595703125
0, 5, 107, 293.2044982910156
0, 5, 108, 264.1880798339844
0, 5, 109, 156.2777709960938
0, 5, 110, 40.33349990844727
0, 5, 111, 23.4958667755127
0, 5, 112, 16.73425674438477
0, 5, 113, 13.65967464447021
0, 5, 114, 12.78488540649414
0, 5, 115, 8.973667144775391
0, 5, 116, 7.325958251953125
0, 5, 117, 8.060311317443848
0, 5, 118, 13.81247997283936
0, 5, 119, 4.338717460632324
0, 5, 120, 5.741280078887939
0, 5, 121, 5.302224159240723
0, 5, 122, 5.134534358978271
0, 5, 123, 5.087066650390625
0, 5, 124, 7.136483192443848
0, 5, 125, 4.462630271911621
0, 5, 126, 4.466801166534424
0, 5, 127, 3.742481231689453
0, 6, 0, 4.397616386413574
0, 6, 1, 4.518800735473633
0, 6, 2, 4.524864673614502
0, 6, 3, 5.880517959594727
0, 6, 4, 3.265084028244019
0, 6, 5, 7.156263828277588
0, 6, 6, 8.108592987060547
0, 6, 7, 6.09648609161377
0, 6, 8, 8.287862777709961
0, 6, 9, 7.184104442596436
0, 6, 10, 8.70858097076416
0, 6, 11, 8.377140045166016
0, 6, 12, 9.172054290771484
0, 6, 13, 13.24039840698242
0, 6, 14, 8.564751625061035
0, 6, 15, 16.75859069824219
0, 6, 16, 28.05420875549316
0, 6, 17, 56.20035171508789
0, 6, 18, 172.2689514160156
0, 6, 19, 274.7815551757812
0, 6, 20, 289.84814453125
0, 6, 21, 315.0478515625
0, 6, 22, 320.7300720214844
0, 6, 23, 304.8147583007812
0, 6, 24, 317.1047058105469
0, 6, 25, 317.6881103515625
0, 6, 26, 320.2618103027344
0, 6, 27, 330.5705261230469
0, 6, 28, 295.3836364746094
0, 6, 29, 331.8760375976562
0, 6, 30, 282.9739379882812
0, 6, 31, 287.0765380859375
0, 6, 32, 341.5676574707031
0, 6, 33, 303.4971923828125
0, 6, 34, 339.663818359375
0, 6, 35, 319.3676452636719
0, 6, 36, 274.2738647460938
0, 6, 37, 293.1917724609375
0, 6, 38, 311.2623291015625
0, 6, 39, 298.8934326171875
0, 6, 40, 285.74609375
0, 6, 41, 294.0757751464844
0, 6, 42, 306.5805053710938
0, 6, 43, 290.9298400878906
0, 6, 44, 279.8034362792969
0, 6, 45, 319.8170471191406
0, 6, 46, 300.4263610839844
0, 6, 47, 333.0574951171875
0, 6, 48, 293.4789733886719
0, 6, 49, 312.4503784179688
0, 6, 50, 328.0044555664062
0, 6, 51, 310.364990234375
0, 6, 52, 321.1613159179688
0, 6, 53, 328.1168518066406
0, 6, 54, 304.6109619140625
0, 6, 55, 304.9298706054688
0, 6, 56, 294.7374877929688
0, 6, 57, 314.7755432128906
0, 6, 58, 260.7747802734375
0, 6, 59, 300.5170593261719
0, 6, 60, 312.4688415527344
0, 6, 61, 272.2222290039062
0, 6, 62, 336.0742492675781
0, 6, 63, 324.9922180175781
0, 6, 64, 289.8719482421875
0, 6, 65, 285.3957824707031
0, 6, 66, 305.2708740234375
0, 6, 67, 310.3345336914062
0, 6, 68, 292.6184692382812
0, 6, 69, 278.6935729980469
0, 6, 70, 274.6768188476562
0, 6, 71, 289.2105407714844
0, 6, 72, 308.9794006347656
0, 6, 73, 290.8734130859375
0, 6, 74, 329.4250793457031
0, 6, 75, 343.8572082519531
0, 6, 76, 297.6509399414062
0, 6, 77, 286.4669799804688
0, 6, 78, 278.4324035644531
0, 6, 79, 293.5479736328125
0, 6, 80, 298.9511413574219
0, 6, 81, 316.0127868652344
0, 6, 82, 320.4580993652344
0, 6, 83, 321.9148254394531
0, 6, 84, 295.2625122070312
0, 6, 85, 301.5898742675781
0, 6, 86, 329.8843383789062
0, 6, 87, 290.5527038574219
0, 6, 88, 307.091796875
0, 6, 89, 304.4412231445312
0, 6, 90, 299.9622497558594
0, 6, 91, 313.9004211425781
0, 6, 92, 284.670166015625
0, 6, 93, 293.206787109375
0, 6, 94, 273.1184692382812
0, 6, 95, 298.4977722167969
0, 6, 96, 343.7669372558594
0, 6, 97, 309.0220031738281
0, 6, 98, 300.8147583007812
0, 6, 99, 269.4821472167969
0, 6, 100, 309.6331176757812
0, 6, 101, 292.8713684082031
0, 6, 102, 309.1238708496094
0, 6, 103, 307.8930358886719
0, 6, 104, 291.7640991210938
0, 6, 105, 299.6660766601562
0, 6, 106, 306.0027160644531
0, 6, 107, 306.400390625
0, 6, 108, 265.2695007324219
0, 6, 109, 184.6503753662109
0, 6, 110, 54.93422317504883
0, 6, 111, 21.73969841003418
0, 6, 112, 12.51160430908203
0, 6, 113, 10.64670848846436
0, 6, 114, 13.79823112487793
0, 6, 115, 10.63089847564697
0, 6, 116, 9.498320579528809
0, 6, 117, 7.580027103424072
0, 6, 118, 8.894754409790039
0, 6, 119, 10.14291763305664
0, 6, 120, 5.633699893951416
0, 6, 121, 6.73279857635498
0, 6, 122, 7.160009384155273
0, 6, 123, 5.921157360076904
0, 6, 124, 7.083905220031738
0, 6, 125, 6.318336486816406
0, 6, 126, 3.535534143447876
0, 6, 127, 7.102505207061768
0, 7, 0, 6.362761497497559
0, 7, 1, 4.917957305908203
0, 7, 2, 6.034026622772217
0, 7, 3, 2.823278903961182
0, 7, 4, 3.904780864715576
0, 7, 5, 4.417676448822021
0, 7, 6, 5.574175834655762
0, 7, 7, 7.67778491973877
0, 7, 8, 6.56480598449707
0, 7, 9, 6.999813556671143
0, 7, 10, 10.57140445709229
0, 7, 11, 11.61572647094727
0, 7, 12, 8.577714920043945
0, 7, 13, 11.0095386505127
0, 7, 14, 11.56633949279785
0, 7, 15, 16.61778450012207
0, 7, 16, 26.84955787658691
0, 7, 17, 96.29940032958984
0, 7, 18, 219.4139404296875
0, 7, 19, 289.5308837890625
0, 7, 20, 297.594482421875
0, 7, 21, 275.8080444335938
0, 7, 22, 299.136962890625
0, 7, 23, 288.599609375
0, 7, 24, 313.0491333007812
0, 7, 25, 324.4932861328125
0, 7, 26, 279.843017578125
0, 7, 27, 298.8277893066406
0, 7, 28, 327.45654296875
0, 7, 29, 319.00244140625
0, 7, 30, 300.3418273925781
0, 7, 31, 277.5002136230469
0, 7, 32, 306.3967895507812
0, 7, 33, 262.6463012695312
0, 7, 34, 298.2398071289062
0, 7, 35, 320.4472045898438
0, 7, 36, 333.3328857421875
0, 7, 37, 323.5390319824219
0, 7, 38, 295.9404907226562
0, 7, 39, 305.2203979492188
0, 7, 40, 287.0934753417969
0, 7, 41, 272.0387878417969
0, 7, 42, 301.9401245117188
0, 7, 43, 273.1889038085938
0, 7, 44, 305.1208190917969
0, 7, 45, 293.6142272949219
0, 7, 46, 282.5000915527344
0, 7, 47, 328.0026550292969
0, 7, 48, 284.4998168945312
0, 7, 49, 303.7022094726562
0, 7, 50, 320.9583129882812
0, 7, 51, 298.8485107421875
0, 7, 52, 325.9960632324219
0, 7, 53, 311.1279296875
0, 7, 54, 322.6424255371094
0, 7, 55, 306.17578125
0, 7, 56, 278.8333129882812
0, 7, 57, 283.1333312988281
0, 7, 58, 295.2334594726562
0, 7, 59, 292.9063110351562
0, 7, 60, 323.9564208984375
0, 7, 61, 277.2119750976562
0, 7, 62, 298.3884887695312
0, 7, 63, 294.4186401367188
0, 7, 64, 307.4751892089844
0, 7, 65, 328.9157104492188
0, 7, 66, 317.8184509277344
0, 7, 67, 302.4620666503906
0, 7, 68, 279.4535827636719
0, 7, 69, 294.078125
0, 7, 70, 300.23583984375
0, 7, 71, 308.3763122558594
0, 7, 72, 285.197265625
0, 7, 73, 297.5477905273438
0, 7, 74, 346.38671875
0, 7, 75, 319.1095581054688
0, 7, 76, 322.2973327636719
0, 7, 77, 280.7968139648438
0, 7, 78, 300.8373107910156
0, 7, 79, 300.8136596679688
0, 7, 80, 315.0739440917969
0, 7, 81, 318.2301025390625
0, 7, 82, 328.5973205566406
0, 7, 83, 318.3040161132812
0, 7, 84, 308.9972229003906
0, 7, 85, 272.0616455078125
0, 7, 86, 310.8873291015625
0, 7, 87, 309.6316223144531
0, 7, 88, 309.9927368164062
0, 7, 89, 292.241943359375
0, 7, 90, 307.2166442871094
0, 7, 91, 315.7782897949219
0, 7, 92, 286.4662475585938
0, 7, 93, 308.3594970703125
0, 7, 94, 274.0155944824219
0, 7, 95, 296.9409484863281
0, 7, 96, 330.7798156738281
0, 7, 97, 295.4160461425781
0, 7, 98, 291.4627990722656
0, 7, 99, 313.3999328613281
0, 7, 100, 280.0293579101562
0, 7, 101, 276.2404174804688
0, 7, 102, 291.3563842773438
0, 7, 103, 293.1917724609375
0, 7, 104, 275.6237487792969
0, 7, 105, 306.5815734863281
0, 7, 106, 317.7930603027344
0, 7, 107, 296.8352661132812
0, 7, 108, 274.8240051269531
0, 7, 109, 237.6309356689453
0, 7, 110, 97.38196563720703
0, 7, 111, 24.77230834960938
0, 7, 112, 14.82301712036133
0, 7, 113, 14.80304622650146
0, 7, 114, 13.20697212219238
0, 7, 115, 12.73657894134521
0, 7, 116, 9.272943496704102
0, 7, 117, 7.580677032470703
0, 7, 118, 8.003120422363281
0, 7, 119, 7.780158996582031
0, 7, 120, 6.719746589660645
0, 7, 121, 6.137012004852295
0, 7, 122, 7.715696334838867
0, 7, 123, 4.594537734985352
0, 7, 124, 6.398974418640137
0, 7, 125, 6.216648578643799
0, 7, 126, 7.824198246002197
0, 7, 127, 1.746019244194031
0, 8, 0, 8.721157073974609
0, 8, 1, 4.478114128112793
0, 8, 2, 4.398314952850342
0, 8, 3, 3.361541032791138
0, 8, 4, 3.571594476699829
0, 8, 5, 5.410022258758545
0, 8, 6, 5.420728206634521
0, 8, 7, 6.817173957824707
0, 8, 8, 6.858636379241943
0, 8, 9, 4.762874126434326
0, 8, 10, 7.433224678039551
0, 8, 11, 12.08662223815918
0, 8, 12, 12.93907737731934
0, 8, 13, 14.73933124542236
0, 8, 14, 14.31358337402344
0, 8, 15, 19.17767143249512
0, 8, 16, 33.1650390625
0, 8, 17, 131.8343353271484
0, 8, 18, 244.3056335449219
0, 8, 19, 295.5225524902344
0, 8, 20, 285.268798828125
0, 8, 21, 305.9346923828125
0, 8, 22, 295.7831726074219
0, 8, 23, 275.7137756347656
0, 8, 24, 269.0139465332031
0, 8, 25, 275.958740234375
0, 8, 26, 305.8269958496094
0, 8, 27, 308.0290222167969
0, 8, 28, 304.693359375
0, 8, 29, 318.7846374511719
0, 8, 30, 316.7656860351562
0, 8, 31, 304.3896789550781
0, 8, 32, 279.4244079589844
0, 8, 33, 294.9356689453125
0, 8, 34, 287.6904602050781
0, 8, 35, 283.7780151367188
0, 8, 36, 318.3560485839844
0, 8, 37, 338.77783203125
0, 8, 38, 331.2081298828125
0, 8, 39, 281.092529296875
0, 8, 40, 303.68212890625
