# TOPAS Version: 3.1.p3
# Parameter File: batch_inserts_90.txt
# Results for scorer Readout_Adipose
# Scored in component: MyBox
# X in 1 bin  of 0.75 cm
# Y in 512 bins of 0.0783984 cm
# Z in 128 bins of 0.078125 cm
# EnergyDeposit ( MeV ) : Sum   
0, 0, 0, 19.80324172973633
0, 0, 1, 19.8229923248291
0, 0, 2, 25.23984718322754
0, 0, 3, 23.53987121582031
0, 0, 4, 22.86799049377441
0, 0, 5, 22.83568954467773
0, 0, 6, 22.77488327026367
0, 0, 7, 30.4722957611084
0, 0, 8, 21.14248466491699
0, 0, 9, 22.09787750244141
0, 0, 10, 22.40099906921387
0, 0, 11, 28.92539405822754
0, 0, 12, 34.07076644897461
0, 0, 13, 32.35796356201172
0, 0, 14, 36.64743041992188
0, 0, 15, 44.58418655395508
0, 0, 16, 44.20997619628906
0, 0, 17, 47.93646240234375
0, 0, 18, 70.34439849853516
0, 0, 19, 188.1083374023438
0, 0, 20, 701.0919799804688
0, 0, 21, 1192.937866210938
0, 0, 22, 1244.479614257812
0, 0, 23, 1276.463256835938
0, 0, 24, 1277.827514648438
0, 0, 25, 1355.736572265625
0, 0, 26, 1269.659545898438
0, 0, 27, 1279.855712890625
0, 0, 28, 1321.160278320312
0, 0, 29, 1267.518676757812
0, 0, 30, 1263.5224609375
0, 0, 31, 1281.802612304688
0, 0, 32, 1264.19970703125
0, 0, 33, 1240.747436523438
0, 0, 34, 1325.119750976562
0, 0, 35, 1301.866088867188
0, 0, 36, 1248.348876953125
0, 0, 37, 1278.406372070312
0, 0, 38, 1249.329833984375
0, 0, 39, 1247.783813476562
0, 0, 40, 1227.023803710938
0, 0, 41, 1265.608032226562
0, 0, 42, 1249.464233398438
0, 0, 43, 1266.9033203125
0, 0, 44, 1226.3671875
0, 0, 45, 1290.875122070312
0, 0, 46, 1267.091918945312
0, 0, 47, 1241.342529296875
0, 0, 48, 1277.97216796875
0, 0, 49, 1285.083251953125
0, 0, 50, 1309.759887695312
0, 0, 51, 1264.480346679688
0, 0, 52, 1362.628784179688
0, 0, 53, 1325.708129882812
0, 0, 54, 1292.78369140625
0, 0, 55, 1230.4716796875
0, 0, 56, 1320.150146484375
0, 0, 57, 1289.566284179688
0, 0, 58, 1257.02587890625
0, 0, 59, 1327.910034179688
0, 0, 60, 1331.212768554688
0, 0, 61, 1261.384643554688
0, 0, 62, 1241.472534179688
0, 0, 63, 1274.795532226562
0, 0, 64, 1333.7548828125
0, 0, 65, 1291.344970703125
0, 0, 66, 1315.349365234375
0, 0, 67, 1216.181274414062
0, 0, 68, 1309.401123046875
0, 0, 69, 1325.190673828125
0, 0, 70, 1347.232177734375
0, 0, 71, 1288.022705078125
0, 0, 72, 1315.1015625
0, 0, 73, 1232.396118164062
0, 0, 74, 1287.387817382812
0, 0, 75, 1298.081298828125
0, 0, 76, 1259.325561523438
0, 0, 77, 1289.6494140625
0, 0, 78, 1317.416015625
0, 0, 79, 1324.34814453125
0, 0, 80, 1263.1826171875
0, 0, 81, 1321.007934570312
0, 0, 82, 1282.856201171875
0, 0, 83, 1292.22216796875
0, 0, 84, 1327.484497070312
0, 0, 85, 1232.543701171875
0, 0, 86, 1263.910888671875
0, 0, 87, 1257.196533203125
0, 0, 88, 1258.138549804688
0, 0, 89, 1335.245483398438
0, 0, 90, 1274.611694335938
0, 0, 91, 1351.939453125
0, 0, 92, 1299.095947265625
0, 0, 93, 1274.089965820312
0, 0, 94, 1240.209838867188
0, 0, 95, 1325.642211914062
0, 0, 96, 1284.107299804688
0, 0, 97, 1326.645263671875
0, 0, 98, 1256.0732421875
0, 0, 99, 1250.934814453125
0, 0, 100, 1286.031005859375
0, 0, 101, 1313.015380859375
0, 0, 102, 1235.332641601562
0, 0, 103, 1323.950805664062
0, 0, 104, 1262.069213867188
0, 0, 105, 1266.906005859375
0, 0, 106, 1207.51953125
0, 0, 107, 780.149169921875
0, 0, 108, 189.7335205078125
0, 0, 109, 67.51976776123047
0, 0, 110, 64.83077239990234
0, 0, 111, 40.56890487670898
0, 0, 112, 36.13462448120117
0, 0, 113, 29.32510185241699
0, 0, 114, 33.61083984375
0, 0, 115, 27.7424430847168
0, 0, 116, 28.96452331542969
0, 0, 117, 28.89983177185059
0, 0, 118, 21.53111267089844
0, 0, 119, 22.20818710327148
0, 0, 120, 25.2981128692627
0, 0, 121, 29.34654426574707
0, 0, 122, 24.14108848571777
0, 0, 123, 24.59991836547852
0, 0, 124, 18.24986839294434
0, 0, 125, 21.08746337890625
0, 0, 126, 26.34088516235352
0, 0, 127, 16.83282852172852
0, 1, 0, 23.22614669799805
0, 1, 1, 22.98820495605469
0, 1, 2, 24.05158615112305
0, 1, 3, 24.52735900878906
0, 1, 4, 20.09148788452148
0, 1, 5, 25.13251113891602
0, 1, 6, 21.7667350769043
0, 1, 7, 27.62387084960938
0, 1, 8, 34.10608291625977
0, 1, 9, 35.17799758911133
0, 1, 10, 32.85048675537109
0, 1, 11, 42.15836334228516
0, 1, 12, 41.36273956298828
0, 1, 13, 40.69289016723633
0, 1, 14, 41.13533401489258
0, 1, 15, 50.09392166137695
0, 1, 16, 55.64907836914062
0, 1, 17, 60.3104133605957
0, 1, 18, 99.37094879150391
0, 1, 19, 401.2929382324219
0, 1, 20, 1045.757202148438
0, 1, 21, 1368.040405273438
0, 1, 22, 1477.770385742188
0, 1, 23, 1463.476928710938
0, 1, 24, 1447.346313476562
0, 1, 25, 1422.734252929688
0, 1, 26, 1472.671508789062
0, 1, 27, 1466.962646484375
0, 1, 28, 1489.121704101562
0, 1, 29, 1484.256103515625
0, 1, 30, 1505.264770507812
0, 1, 31, 1480.628295898438
0, 1, 32, 1411.759155273438
0, 1, 33, 1500.804077148438
0, 1, 34, 1502.16845703125
0, 1, 35, 1466.167358398438
0, 1, 36, 1495.073852539062
0, 1, 37, 1411.740966796875
0, 1, 38, 1389.978149414062
0, 1, 39, 1527.9619140625
0, 1, 40, 1461.889038085938
0, 1, 41, 1494.13916015625
0, 1, 42, 1497.262329101562
0, 1, 43, 1499.613525390625
0, 1, 44, 1454.091796875
0, 1, 45, 1485.63037109375
0, 1, 46, 1422.267211914062
0, 1, 47, 1438.455688476562
0, 1, 48, 1430.156005859375
0, 1, 49, 1487.328247070312
0, 1, 50, 1447.783813476562
0, 1, 51, 1472.295288085938
0, 1, 52, 1473.756958007812
0, 1, 53, 1474.359497070312
0, 1, 54, 1506.109619140625
0, 1, 55, 1499.14794921875
0, 1, 56, 1467.286376953125
0, 1, 57, 1455.923461914062
0, 1, 58, 1427.01708984375
0, 1, 59, 1479.581909179688
0, 1, 60, 1467.217529296875
0, 1, 61, 1446.031127929688
0, 1, 62, 1452.063842773438
0, 1, 63, 1414.892456054688
0, 1, 64, 1473.193481445312
0, 1, 65, 1411.979125976562
0, 1, 66, 1442.209228515625
0, 1, 67, 1452.95849609375
0, 1, 68, 1386.927734375
0, 1, 69, 1466.88134765625
0, 1, 70, 1433.425659179688
0, 1, 71, 1496.659301757812
0, 1, 72, 1433.748779296875
0, 1, 73, 1488.902954101562
0, 1, 74, 1470.887817382812
0, 1, 75, 1473.477294921875
0, 1, 76, 1461.290405273438
0, 1, 77, 1463.555297851562
0, 1, 78, 1449.282104492188
0, 1, 79, 1504.0908203125
0, 1, 80, 1448.251831054688
0, 1, 81, 1423.59130859375
0, 1, 82, 1478.153686523438
0, 1, 83, 1463.5126953125
0, 1, 84, 1534.821044921875
0, 1, 85, 1451.580322265625
0, 1, 86, 1403.052001953125
0, 1, 87, 1417.748291015625
0, 1, 88, 1475.792846679688
0, 1, 89, 1474.589111328125
0, 1, 90, 1422.987060546875
0, 1, 91, 1468.552368164062
0, 1, 92, 1413.996704101562
0, 1, 93, 1460.288696289062
0, 1, 94, 1467.212036132812
0, 1, 95, 1419.921020507812
0, 1, 96, 1495.4931640625
0, 1, 97, 1517.472778320312
0, 1, 98, 1480.68212890625
0, 1, 99, 1415.45068359375
0, 1, 100, 1445.30224609375
0, 1, 101, 1413.69775390625
0, 1, 102, 1438.72216796875
0, 1, 103, 1413.426879882812
0, 1, 104, 1408.381225585938
0, 1, 105, 1464.494995117188
0, 1, 106, 1368.50048828125
0, 1, 107, 1027.891357421875
0, 1, 108, 405.33154296875
0, 1, 109, 93.18150329589844
0, 1, 110, 57.14743041992188
0, 1, 111, 56.06893157958984
0, 1, 112, 47.66833114624023
0, 1, 113, 38.41831588745117
0, 1, 114, 34.96860885620117
0, 1, 115, 38.64488983154297
0, 1, 116, 34.38427352905273
0, 1, 117, 32.61711883544922
0, 1, 118, 34.82294845581055
0, 1, 119, 34.20553588867188
0, 1, 120, 29.25954818725586
0, 1, 121, 23.23456192016602
0, 1, 122, 23.08324241638184
0, 1, 123, 33.05229949951172
0, 1, 124, 29.16001129150391
0, 1, 125, 19.86429023742676
0, 1, 126, 15.27742767333984
0, 1, 127, 16.32690238952637
0, 2, 0, 22.21256446838379
0, 2, 1, 24.67464256286621
0, 2, 2, 19.05655670166016
0, 2, 3, 24.44321823120117
0, 2, 4, 23.63065719604492
0, 2, 5, 23.42834091186523
0, 2, 6, 21.41767501831055
0, 2, 7, 24.06030654907227
0, 2, 8, 28.19615745544434
0, 2, 9, 27.28329086303711
0, 2, 10, 29.56597328186035
0, 2, 11, 34.08870315551758
0, 2, 12, 46.15964889526367
0, 2, 13, 45.0998420715332
0, 2, 14, 50.07761383056641
0, 2, 15, 43.26473999023438
0, 2, 16, 61.90200424194336
0, 2, 17, 77.31015777587891
0, 2, 18, 144.1117706298828
0, 2, 19, 611.861328125
0, 2, 20, 1286.509399414062
0, 2, 21, 1437.976806640625
0, 2, 22, 1453.816528320312
0, 2, 23, 1407.447509765625
0, 2, 24, 1441.4912109375
0, 2, 25, 1521.436157226562
0, 2, 26, 1550.205200195312
0, 2, 27, 1449.135009765625
0, 2, 28, 1456.657836914062
0, 2, 29, 1460.360473632812
0, 2, 30, 1470.425415039062
0, 2, 31, 1533.01953125
0, 2, 32, 1508.3623046875
0, 2, 33, 1443.736694335938
0, 2, 34, 1471.973754882812
0, 2, 35, 1469.694946289062
0, 2, 36, 1531.93896484375
0, 2, 37, 1539.921020507812
0, 2, 38, 1508.29736328125
0, 2, 39, 1466.154174804688
0, 2, 40, 1502.97802734375
0, 2, 41, 1518.194458007812
0, 2, 42, 1501.427856445312
0, 2, 43, 1551.50830078125
0, 2, 44, 1461.981811523438
0, 2, 45, 1483.451171875
0, 2, 46, 1422.961181640625
0, 2, 47, 1445.20751953125
0, 2, 48, 1397.1494140625
0, 2, 49, 1462.453369140625
0, 2, 50, 1441.64599609375
0, 2, 51, 1441.997314453125
0, 2, 52, 1492.66552734375
0, 2, 53, 1523.179321289062
0, 2, 54, 1523.427368164062
0, 2, 55, 1489.954711914062
0, 2, 56, 1466.150390625
0, 2, 57, 1415.174194335938
0, 2, 58, 1457.05322265625
0, 2, 59, 1445.277709960938
0, 2, 60, 1476.182495117188
0, 2, 61, 1445.220336914062
0, 2, 62, 1470.542602539062
0, 2, 63, 1507.334228515625
0, 2, 64, 1456.827392578125
0, 2, 65, 1425.599609375
0, 2, 66, 1485.44287109375
0, 2, 67, 1504.351196289062
0, 2, 68, 1540.750854492188
0, 2, 69, 1534.96533203125
0, 2, 70, 1504.978515625
0, 2, 71, 1458.22802734375
0, 2, 72, 1515.386474609375
0, 2, 73, 1516.130126953125
0, 2, 74, 1488.400512695312
0, 2, 75, 1506.749267578125
0, 2, 76, 1453.938232421875
0, 2, 77, 1504.246337890625
0, 2, 78, 1429.849609375
0, 2, 79, 1536.463989257812
0, 2, 80, 1476.929809570312
0, 2, 81, 1463.781372070312
0, 2, 82, 1558.722290039062
0, 2, 83, 1514.346435546875
0, 2, 84, 1490.511108398438
0, 2, 85, 1514.352416992188
0, 2, 86, 1536.620971679688
0, 2, 87, 1487.704711914062
0, 2, 88, 1540.87890625
0, 2, 89, 1462.26953125
0, 2, 90, 1433.6728515625
0, 2, 91, 1403.578979492188
0, 2, 92, 1477.17138671875
0, 2, 93, 1494.89990234375
0, 2, 94, 1450.344360351562
0, 2, 95, 1541.888061523438
0, 2, 96, 1516.951904296875
0, 2, 97, 1454.871948242188
0, 2, 98, 1466.885864257812
0, 2, 99, 1403.4970703125
0, 2, 100, 1473.536987304688
0, 2, 101, 1483.721801757812
0, 2, 102, 1463.47265625
0, 2, 103, 1387.687622070312
0, 2, 104, 1408.923217773438
0, 2, 105, 1394.91943359375
0, 2, 106, 1459.8662109375
0, 2, 107, 1273.453369140625
0, 2, 108, 620.9735717773438
0, 2, 109, 173.2345733642578
0, 2, 110, 66.48151397705078
0, 2, 111, 63.86345291137695
0, 2, 112, 44.88385009765625
0, 2, 113, 46.42221069335938
0, 2, 114, 42.00725173950195
0, 2, 115, 41.31000518798828
0, 2, 116, 34.1961555480957
0, 2, 117, 32.82563781738281
0, 2, 118, 26.66932106018066
0, 2, 119, 36.55987930297852
0, 2, 120, 27.58530616760254
0, 2, 121, 17.87310028076172
0, 2, 122, 29.11402702331543
0, 2, 123, 26.38575744628906
0, 2, 124, 24.58698272705078
0, 2, 125, 28.9147834777832
0, 2, 126, 17.24691390991211
0, 2, 127, 20.22983551025391
0, 3, 0, 20.9949836730957
0, 3, 1, 25.62396049499512
0, 3, 2, 17.97323036193848
0, 3, 3, 20.6955509185791
0, 3, 4, 20.54250907897949
0, 3, 5, 22.67028427124023
0, 3, 6, 31.17595100402832
0, 3, 7, 26.66225433349609
0, 3, 8, 26.71147918701172
0, 3, 9, 26.37960624694824
0, 3, 10, 31.42265892028809
0, 3, 11, 38.08159255981445
0, 3, 12, 42.77823638916016
0, 3, 13, 48.88275146484375
0, 3, 14, 54.81485748291016
0, 3, 15, 52.41347885131836
0, 3, 16, 68.71315002441406
0, 3, 17, 90.20185852050781
0, 3, 18, 236.94775390625
0, 3, 19, 875.1556396484375
0, 3, 20, 1383.294555664062
0, 3, 21, 1508.458251953125
0, 3, 22, 1461.51708984375
0, 3, 23, 1451.99658203125
0, 3, 24, 1440.370483398438
0, 3, 25, 1466.47705078125
0, 3, 26, 1493.863647460938
0, 3, 27, 1465.185913085938
0, 3, 28, 1491.71533203125
0, 3, 29, 1544.046264648438
0, 3, 30, 1570.4072265625
0, 3, 31, 1511.84326171875
0, 3, 32, 1544.286376953125
0, 3, 33, 1538.560791015625
0, 3, 34, 1488.366577148438
0, 3, 35, 1468.179931640625
0, 3, 36, 1450.249389648438
0, 3, 37, 1513.340698242188
0, 3, 38, 1519.881225585938
0, 3, 39, 1435.451171875
0, 3, 40, 1446.101684570312
0, 3, 41, 1563.919311523438
0, 3, 42, 1462.282348632812
0, 3, 43, 1454.716918945312
0, 3, 44, 1452.46337890625
0, 3, 45, 1508.662109375
0, 3, 46, 1512.599365234375
0, 3, 47, 1438.89208984375
0, 3, 48, 1509.90380859375
0, 3, 49, 1455.560424804688
0, 3, 50, 1489.486328125
0, 3, 51, 1536.41943359375
0, 3, 52, 1539.943725585938
0, 3, 53, 1466.338745117188
0, 3, 54, 1531.887573242188
0, 3, 55, 1504.818237304688
0, 3, 56, 1435.962280273438
0, 3, 57, 1500.390502929688
0, 3, 58, 1509.815063476562
0, 3, 59, 1509.61474609375
0, 3, 60, 1530.392944335938
0, 3, 61, 1488.998657226562
0, 3, 62, 1488.5859375
0, 3, 63, 1491.744140625
0, 3, 64, 1500.591552734375
0, 3, 65, 1512.201904296875
0, 3, 66, 1558.773193359375
0, 3, 67, 1548.830200195312
0, 3, 68, 1449.312133789062
0, 3, 69, 1461.516845703125
0, 3, 70, 1384.074462890625
0, 3, 71, 1466.996948242188
0, 3, 72, 1552.515869140625
0, 3, 73, 1499.580810546875
0, 3, 74, 1468.727416992188
0, 3, 75, 1458.346069335938
0, 3, 76, 1573.359008789062
0, 3, 77, 1545.01513671875
0, 3, 78, 1430.551513671875
0, 3, 79, 1493.853149414062
0, 3, 80, 1460.906005859375
0, 3, 81, 1471.9580078125
0, 3, 82, 1561.90234375
0, 3, 83, 1513.402709960938
0, 3, 84, 1564.277099609375
0, 3, 85, 1477.926025390625
0, 3, 86, 1523.39306640625
0, 3, 87, 1537.333618164062
0, 3, 88, 1452.073364257812
0, 3, 89, 1450.93212890625
0, 3, 90, 1447.996337890625
0, 3, 91, 1420.620849609375
0, 3, 92, 1509.999755859375
0, 3, 93, 1502.671875
0, 3, 94, 1517.357055664062
0, 3, 95, 1544.266235351562
0, 3, 96, 1513.21484375
0, 3, 97, 1465.948120117188
0, 3, 98, 1433.9833984375
0, 3, 99, 1465.546752929688
0, 3, 100, 1470.046508789062
0, 3, 101, 1475.9306640625
0, 3, 102, 1516.2353515625
0, 3, 103, 1555.57958984375
0, 3, 104, 1502.558349609375
0, 3, 105, 1513.270141601562
0, 3, 106, 1477.792358398438
0, 3, 107, 1339.622192382812
0, 3, 108, 872.0455932617188
0, 3, 109, 262.296142578125
0, 3, 110, 98.31972503662109
0, 3, 111, 61.77496719360352
0, 3, 112, 59.92667770385742
0, 3, 113, 52.23550033569336
0, 3, 114, 50.63214111328125
0, 3, 115, 52.56780624389648
0, 3, 116, 38.38858032226562
0, 3, 117, 42.67209243774414
0, 3, 118, 41.59717178344727
0, 3, 119, 28.9073600769043
0, 3, 120, 30.16032600402832
0, 3, 121, 20.14096450805664
0, 3, 122, 24.42037963867188
0, 3, 123, 21.87792587280273
0, 3, 124, 18.37870979309082
0, 3, 125, 24.78865623474121
0, 3, 126, 23.85573387145996
0, 3, 127, 14.99172401428223
0, 4, 0, 21.05263137817383
0, 4, 1, 24.13423919677734
0, 4, 2, 21.80939865112305
0, 4, 3, 18.3579044342041
0, 4, 4, 26.9571475982666
0, 4, 5, 30.59086608886719
0, 4, 6, 31.86446571350098
0, 4, 7, 33.48006820678711
0, 4, 8, 23.35880088806152
0, 4, 9, 41.31456756591797
0, 4, 10, 28.03457641601562
0, 4, 11, 36.07450485229492
0, 4, 12, 45.61003875732422
0, 4, 13, 51.68721389770508
0, 4, 14, 50.91087341308594
0, 4, 15, 57.50200271606445
0, 4, 16, 70.8326416015625
0, 4, 17, 118.9133377075195
0, 4, 18, 444.57763671875
0, 4, 19, 1183.09912109375
0, 4, 20, 1443.923583984375
0, 4, 21, 1421.487426757812
0, 4, 22, 1434.686279296875
0, 4, 23, 1456.988647460938
0, 4, 24, 1473.14892578125
0, 4, 25, 1405.816650390625
0, 4, 26, 1540.707153320312
0, 4, 27, 1541.71435546875
0, 4, 28, 1505.901733398438
0, 4, 29, 1516.1806640625
0, 4, 30, 1525.783325195312
0, 4, 31, 1572.68408203125
0, 4, 32, 1513.529052734375
0, 4, 33, 1493.316772460938
0, 4, 34, 1470.84130859375
0, 4, 35, 1560.195190429688
0, 4, 36, 1502.87744140625
0, 4, 37, 1511.734252929688
0, 4, 38, 1529.848876953125
0, 4, 39, 1477.0791015625
0, 4, 40, 1515.305053710938
0, 4, 41, 1582.864624023438
0, 4, 42, 1561.286987304688
0, 4, 43, 1471.972045898438
0, 4, 44, 1497.757568359375
0, 4, 45, 1519.23486328125
0, 4, 46, 1469.828735351562
0, 4, 47, 1497.997924804688
0, 4, 48, 1525.904174804688
0, 4, 49, 1467.351318359375
0, 4, 50, 1519.929321289062
0, 4, 51, 1490.262451171875
0, 4, 52, 1493.824829101562
0, 4, 53, 1456.393676757812
0, 4, 54, 1440.155639648438
0, 4, 55, 1528.845825195312
0, 4, 56, 1458.177368164062
0, 4, 57, 1497.316528320312
0, 4, 58, 1459.285034179688
0, 4, 59, 1465.482177734375
0, 4, 60, 1532.154174804688
0, 4, 61, 1501.34619140625
0, 4, 62, 1501.702758789062
0, 4, 63, 1540.037841796875
0, 4, 64, 1595.298828125
0, 4, 65, 1421.029174804688
0, 4, 66, 1513.802124023438
0, 4, 67, 1519.649780273438
0, 4, 68, 1494.49755859375
0, 4, 69, 1470.949584960938
0, 4, 70, 1543.942016601562
0, 4, 71, 1517.246704101562
0, 4, 72, 1531.8251953125
0, 4, 73, 1497.282958984375
0, 4, 74, 1487.53271484375
0, 4, 75, 1529.861938476562
0, 4, 76, 1477.287719726562
0, 4, 77, 1501.61865234375
0, 4, 78, 1502.610229492188
0, 4, 79, 1481.269409179688
0, 4, 80, 1511.605102539062
0, 4, 81, 1524.806518554688
0, 4, 82, 1565.36865234375
0, 4, 83, 1503.823486328125
0, 4, 84, 1541.544799804688
0, 4, 85, 1545.223022460938
0, 4, 86, 1529.162109375
0, 4, 87, 1498.75830078125
0, 4, 88, 1512.558959960938
0, 4, 89, 1486.41259765625
0, 4, 90, 1543.650756835938
0, 4, 91, 1548.948608398438
0, 4, 92, 1488.412353515625
0, 4, 93, 1514.30712890625
0, 4, 94, 1489.519287109375
0, 4, 95, 1509.842529296875
0, 4, 96, 1443.17529296875
0, 4, 97, 1405.270385742188
0, 4, 98, 1552.0126953125
0, 4, 99, 1511.933959960938
0, 4, 100, 1484.90771484375
0, 4, 101, 1450.623046875
0, 4, 102, 1447.764526367188
0, 4, 103, 1514.92724609375
0, 4, 104, 1505.623657226562
0, 4, 105, 1558.30810546875
0, 4, 106, 1475.735595703125
0, 4, 107, 1455.728637695312
0, 4, 108, 1121.183959960938
0, 4, 109, 436.0239868164062
0, 4, 110, 98.42106628417969
0, 4, 111, 68.00768280029297
0, 4, 112, 59.88744735717773
0, 4, 113, 49.2200927734375
0, 4, 114, 50.4177360534668
0, 4, 115, 48.97663879394531
0, 4, 116, 39.03435134887695
0, 4, 117, 34.68863677978516
0, 4, 118, 36.43812561035156
0, 4, 119, 41.27405548095703
0, 4, 120, 37.52952194213867
0, 4, 121, 28.71319007873535
0, 4, 122, 24.98402214050293
0, 4, 123, 30.29006004333496
0, 4, 124, 21.0419807434082
0, 4, 125, 32.11186981201172
0, 4, 126, 22.31348609924316
0, 4, 127, 18.15590286254883
0, 5, 0, 21.08885955810547
0, 5, 1, 22.17883491516113
0, 5, 2, 25.60086631774902
0, 5, 3, 28.84841346740723
0, 5, 4, 19.83267784118652
0, 5, 5, 31.67208862304688
0, 5, 6, 30.5152759552002
0, 5, 7, 30.67741584777832
0, 5, 8, 37.69269561767578
0, 5, 9, 32.23122406005859
0, 5, 10, 33.71291732788086
0, 5, 11, 39.48995971679688
0, 5, 12, 35.84451293945312
0, 5, 13, 44.46014785766602
0, 5, 14, 62.47164154052734
0, 5, 15, 78.65578460693359
0, 5, 16, 77.96353149414062
0, 5, 17, 158.610107421875
0, 5, 18, 675.34521484375
0, 5, 19, 1343.942260742188
0, 5, 20, 1531.352661132812
0, 5, 21, 1491.475219726562
0, 5, 22, 1496.3935546875
0, 5, 23, 1529.269653320312
0, 5, 24, 1462.027099609375
0, 5, 25, 1426.759033203125
0, 5, 26, 1525.60693359375
0, 5, 27, 1544.66845703125
0, 5, 28, 1489.680541992188
0, 5, 29, 1523.144897460938
0, 5, 30, 1492.912231445312
0, 5, 31, 1501.303466796875
0, 5, 32, 1595.0126953125
0, 5, 33, 1499.949340820312
0, 5, 34, 1483.546508789062
0, 5, 35, 1508.073120117188
0, 5, 36, 1442.011108398438
0, 5, 37, 1529.044799804688
0, 5, 38, 1548.954467773438
0, 5, 39, 1550.867797851562
0, 5, 40, 1497.263305664062
0, 5, 41, 1482.609252929688
0, 5, 42, 1543.73291015625
0, 5, 43, 1529.904663085938
0, 5, 44, 1547.32861328125
0, 5, 45, 1511.651977539062
0, 5, 46, 1486.979614257812
0, 5, 47, 1481.204345703125
0, 5, 48, 1499.901611328125
0, 5, 49, 1521.191284179688
0, 5, 50, 1509.112670898438
0, 5, 51, 1520.931884765625
0, 5, 52, 1429.21337890625
0, 5, 53, 1522.4951171875
0, 5, 54, 1521.01611328125
0, 5, 55, 1521.408203125
0, 5, 56, 1489.531616210938
0, 5, 57, 1541.783081054688
0, 5, 58, 1511.013671875
0, 5, 59, 1487.217041015625
0, 5, 60, 1537.908325195312
0, 5, 61, 1451.744873046875
0, 5, 62, 1588.993408203125
0, 5, 63, 1433.716430664062
0, 5, 64, 1485.978637695312
0, 5, 65, 1468.7216796875
0, 5, 66, 1530.967651367188
0, 5, 67, 1560.39892578125
0, 5, 68, 1465.926635742188
0, 5, 69, 1479.127807617188
0, 5, 70, 1491.429321289062
0, 5, 71, 1473.537109375
0, 5, 72, 1537.652587890625
0, 5, 73, 1459.663940429688
0, 5, 74, 1497.333740234375
0, 5, 75, 1486.039916992188
0, 5, 76, 1476.203491210938
0, 5, 77, 1514.755126953125
0, 5, 78, 1530.428344726562
0, 5, 79, 1506.47119140625
0, 5, 80, 1518.373168945312
0, 5, 81, 1592.859497070312
0, 5, 82, 1521.936645507812
0, 5, 83, 1488.948120117188
0, 5, 84, 1538.764404296875
0, 5, 85, 1516.404174804688
0, 5, 86, 1556.748291015625
0, 5, 87, 1474.28515625
0, 5, 88, 1497.593505859375
0, 5, 89, 1478.533081054688
0, 5, 90, 1481.42724609375
0, 5, 91, 1555.155639648438
0, 5, 92, 1483.914306640625
0, 5, 93, 1561.157104492188
0, 5, 94, 1509.3095703125
0, 5, 95, 1559.780517578125
0, 5, 96, 1499.667358398438
0, 5, 97, 1511.68603515625
0, 5, 98, 1510.3408203125
0, 5, 99, 1541.523071289062
0, 5, 100, 1434.222290039062
0, 5, 101, 1429.651000976562
0, 5, 102, 1515.582153320312
0, 5, 103, 1474.61962890625
0, 5, 104, 1459.545166015625
0, 5, 105, 1491.942749023438
0, 5, 106, 1455.389404296875
0, 5, 107, 1400.013549804688
0, 5, 108, 1294.2763671875
0, 5, 109, 721.3285522460938
0, 5, 110, 194.5028381347656
0, 5, 111, 92.52520751953125
0, 5, 112, 80.40673828125
0, 5, 113, 66.96311950683594
0, 5, 114, 58.28292465209961
0, 5, 115, 54.877685546875
0, 5, 116, 46.38041305541992
0, 5, 117, 32.64923858642578
0, 5, 118, 40.05908584594727
0, 5, 119, 25.95990562438965
0, 5, 120, 29.60571670532227
0, 5, 121, 19.19868659973145
0, 5, 122, 26.89994049072266
0, 5, 123, 28.04816627502441
0, 5, 124, 28.60071563720703
0, 5, 125, 20.81428909301758
0, 5, 126, 20.21004104614258
0, 5, 127, 22.82242584228516
0, 6, 0, 18.24832344055176
0, 6, 1, 24.94089698791504
0, 6, 2, 32.02713012695312
0, 6, 3, 29.19885635375977
0, 6, 4, 24.51638412475586
0, 6, 5, 31.67375373840332
0, 6, 6, 34.83880615234375
0, 6, 7, 35.48620223999023
0, 6, 8, 33.01731872558594
0, 6, 9, 36.24448776245117
0, 6, 10, 38.36150741577148
0, 6, 11, 38.63480758666992
0, 6, 12, 38.68072128295898
0, 6, 13, 60.35109710693359
0, 6, 14, 60.62228012084961
0, 6, 15, 81.31424713134766
0, 6, 16, 111.5704727172852
0, 6, 17, 298.0271606445312
0, 6, 18, 898.9852905273438
0, 6, 19, 1377.368530273438
0, 6, 20, 1436.005737304688
0, 6, 21, 1528.1591796875
0, 6, 22, 1501.808959960938
0, 6, 23, 1530.114990234375
0, 6, 24, 1476.368041992188
0, 6, 25, 1528.707885742188
0, 6, 26, 1521.674926757812
0, 6, 27, 1521.494995117188
0, 6, 28, 1552.665405273438
0, 6, 29, 1577.790283203125
0, 6, 30, 1512.131713867188
0, 6, 31, 1493.281494140625
0, 6, 32, 1528.516235351562
0, 6, 33, 1493.382568359375
0, 6, 34, 1558.241088867188
0, 6, 35, 1495.875366210938
0, 6, 36, 1440.51416015625
0, 6, 37, 1548.993896484375
0, 6, 38, 1523.353393554688
0, 6, 39, 1522.874389648438
0, 6, 40, 1455.811645507812
0, 6, 41, 1447.421264648438
0, 6, 42, 1515.568359375
0, 6, 43, 1491.154541015625
0, 6, 44, 1427.50146484375
0, 6, 45, 1546.65771484375
0, 6, 46, 1554.944946289062
0, 6, 47, 1498.0087890625
0, 6, 48, 1524.349365234375
0, 6, 49, 1510.232543945312
0, 6, 50, 1571.351806640625
0, 6, 51, 1501.476440429688
0, 6, 52, 1564.886596679688
0, 6, 53, 1471.28466796875
0, 6, 54, 1499.406127929688
0, 6, 55, 1574.125732421875
0, 6, 56, 1523.376953125
0, 6, 57, 1505.292358398438
0, 6, 58, 1465.172607421875
0, 6, 59, 1520.942993164062
0, 6, 60, 1471.001586914062
0, 6, 61, 1569.710571289062
0, 6, 62, 1546.167846679688
0, 6, 63, 1492.753173828125
0, 6, 64, 1414.336059570312
0, 6, 65, 1492.883056640625
0, 6, 66, 1513.482543945312
0, 6, 67, 1513.410400390625
0, 6, 68, 1547.492919921875
0, 6, 69, 1483.075317382812
0, 6, 70, 1521.192993164062
0, 6, 71, 1466.180541992188
0, 6, 72, 1593.616088867188
0, 6, 73, 1489.380004882812
0, 6, 74, 1557.99951171875
0, 6, 75, 1542.238037109375
0, 6, 76, 1564.741455078125
0, 6, 77, 1504.17236328125
0, 6, 78, 1444.049438476562
0, 6, 79, 1554.802124023438
0, 6, 80, 1482.644287109375
0, 6, 81, 1482.75341796875
0, 6, 82, 1505.800170898438
0, 6, 83, 1527.514770507812
0, 6, 84, 1517.569091796875
0, 6, 85, 1535.620239257812
0, 6, 86, 1546.258178710938
0, 6, 87, 1572.486328125
0, 6, 88, 1483.110107421875
0, 6, 89, 1566.162841796875
0, 6, 90, 1492.882202148438
0, 6, 91, 1543.829956054688
0, 6, 92, 1488.037963867188
0, 6, 93, 1497.471313476562
0, 6, 94, 1473.0478515625
0, 6, 95, 1510.588989257812
0, 6, 96, 1518.5537109375
0, 6, 97, 1503.588989257812
0, 6, 98, 1499.814086914062
0, 6, 99, 1481.05810546875
0, 6, 100, 1522.092529296875
0, 6, 101, 1514.995239257812
0, 6, 102, 1541.0654296875
0, 6, 103, 1499.747436523438
0, 6, 104, 1465.6640625
0, 6, 105, 1484.170776367188
0, 6, 106, 1500.749877929688
0, 6, 107, 1503.219360351562
0, 6, 108, 1411.573852539062
0, 6, 109, 924.285888671875
0, 6, 110, 284.9189147949219
0, 6, 111, 94.39750671386719
0, 6, 112, 73.91702270507812
0, 6, 113, 54.49684906005859
0, 6, 114, 54.89511489868164
0, 6, 115, 44.71697616577148
0, 6, 116, 40.39595794677734
0, 6, 117, 42.00777435302734
0, 6, 118, 40.49226379394531
0, 6, 119, 35.11040496826172
0, 6, 120, 33.94620895385742
0, 6, 121, 30.57456970214844
0, 6, 122, 31.24528503417969
0, 6, 123, 23.02991676330566
0, 6, 124, 33.17381286621094
0, 6, 125, 29.77792739868164
0, 6, 126, 23.72046089172363
0, 6, 127, 21.68611717224121
0, 7, 0, 24.41220664978027
0, 7, 1, 26.22031593322754
0, 7, 2, 20.60247230529785
0, 7, 3, 21.3926944732666
0, 7, 4, 22.37702560424805
0, 7, 5, 31.74459075927734
0, 7, 6, 38.4679069519043
0, 7, 7, 36.67427825927734
0, 7, 8, 27.06246757507324
0, 7, 9, 34.12102508544922
0, 7, 10, 39.64168167114258
0, 7, 11, 45.54936218261719
0, 7, 12, 51.45862579345703
0, 7, 13, 57.9609260559082
0, 7, 14, 68.10196685791016
0, 7, 15, 82.24821472167969
0, 7, 16, 136.8594818115234
0, 7, 17, 459.1480102539062
0, 7, 18, 1095.33740234375
0, 7, 19, 1503.68408203125
0, 7, 20, 1482.56103515625
0, 7, 21, 1364.953002929688
0, 7, 22, 1489.613159179688
0, 7, 23, 1456.905639648438
0, 7, 24, 1507.133911132812
0, 7, 25, 1594.507080078125
0, 7, 26, 1520.174560546875
0, 7, 27, 1515.813110351562
0, 7, 28, 1544.507934570312
0, 7, 29, 1581.994018554688
0, 7, 30, 1547.854125976562
0, 7, 31, 1434.180419921875
0, 7, 32, 1545.741577148438
0, 7, 33, 1491.528930664062
0, 7, 34, 1479.707763671875
0, 7, 35, 1526.20458984375
0, 7, 36, 1472.29052734375
0, 7, 37, 1601.646362304688
0, 7, 38, 1500.78564453125
0, 7, 39, 1493.080810546875
0, 7, 40, 1543.3427734375
0, 7, 41, 1466.81103515625
0, 7, 42, 1487.486938476562
0, 7, 43, 1440.381103515625
0, 7, 44, 1490.787475585938
0, 7, 45, 1467.002197265625
0, 7, 46, 1506.55322265625
0, 7, 47, 1559.4658203125
0, 7, 48, 1522.629272460938
0, 7, 49, 1537.893676757812
0, 7, 50, 1515.963623046875
0, 7, 51, 1496.680786132812
0, 7, 52, 1518.564331054688
0, 7, 53, 1499.4755859375
0, 7, 54, 1587.935913085938
0, 7, 55, 1471.275390625
0, 7, 56, 1549.881591796875
0, 7, 57, 1514.03271484375
0, 7, 58, 1546.894775390625
0, 7, 59, 1539.22705078125
0, 7, 60, 1552.815795898438
0, 7, 61, 1489.849487304688
0, 7, 62, 1438.8740234375
0, 7, 63, 1512.52001953125
0, 7, 64, 1546.693115234375
0, 7, 65, 1527.368896484375
0, 7, 66, 1541.857543945312
0, 7, 67, 1582.62890625
0, 7, 68, 1532.251342773438
0, 7, 69, 1513.523559570312
0, 7, 70, 1496.372436523438
0, 7, 71, 1524.17236328125
0, 7, 72, 1525.132690429688
0, 7, 73, 1517.729248046875
0, 7, 74, 1571.477294921875
0, 7, 75, 1538.078857421875
0, 7, 76, 1556.666381835938
0, 7, 77, 1510.6552734375
0, 7, 78, 1510.083618164062
0, 7, 79, 1420.947875976562
0, 7, 80, 1489.704345703125
0, 7, 81, 1487.5263671875
0, 7, 82, 1532.387817382812
0, 7, 83, 1544.42919921875
0, 7, 84, 1582.603393554688
0, 7, 85, 1480.254638671875
0, 7, 86, 1503.639404296875
0, 7, 87, 1501.811279296875
0, 7, 88, 1497.241943359375
0, 7, 89, 1554.821411132812
0, 7, 90, 1517.096069335938
0, 7, 91, 1560.060913085938
0, 7, 92, 1530.903564453125
0, 7, 93, 1551.059936523438
0, 7, 94, 1536.49609375
0, 7, 95, 1510.2958984375
0, 7, 96, 1511.346435546875
0, 7, 97, 1438.008056640625
0, 7, 98, 1483.94287109375
0, 7, 99, 1523.228759765625
0, 7, 100, 1425.483520507812
0, 7, 101, 1465.557250976562
0, 7, 102, 1450.730590820312
0, 7, 103, 1433.82177734375
0, 7, 104, 1492.917846679688
0, 7, 105, 1526.364868164062
0, 7, 106, 1572.221923828125
0, 7, 107, 1481.187255859375
0, 7, 108, 1411.952270507812
0, 7, 109, 1146.870971679688
0, 7, 110, 470.9333190917969
0, 7, 111, 131.0430297851562
0, 7, 112, 80.07142639160156
0, 7, 113, 68.090576171875
0, 7, 114, 55.15888977050781
0, 7, 115, 50.95811080932617
0, 7, 116, 55.95463562011719
0, 7, 117, 43.64756393432617
0, 7, 118, 37.22158813476562
0, 7, 119, 40.73495864868164
0, 7, 120, 26.77088737487793
0, 7, 121, 32.83628082275391
0, 7, 122, 31.85532569885254
0, 7, 123, 36.36893844604492
0, 7, 124, 30.3843822479248
0, 7, 125, 23.41645240783691
0, 7, 126, 24.02886009216309
0, 7, 127, 25.71910285949707
0, 8, 0, 20.56763076782227
0, 8, 1, 21.56521987915039
0, 8, 2, 23.84257125854492
0, 8, 3, 26.58301734924316
0, 8, 4, 28.68247985839844
0, 8, 5, 32.09933471679688
0, 8, 6, 29.71963500976562
0, 8, 7, 30.20187950134277
0, 8, 8, 33.40171051025391
0, 8, 9, 44.55694198608398
0, 8, 10, 40.12596130371094
0, 8, 11, 41.20524978637695
0, 8, 12, 50.88066482543945
0, 8, 13, 70.22998046875
0, 8, 14, 68.5921630859375
0, 8, 15, 89.59227752685547
0, 8, 16, 167.7890625
0, 8, 17, 672.0932006835938
0, 8, 18, 1279.747924804688
0, 8, 19, 1442.386840820312
0, 8, 20, 1423.91064453125
0, 8, 21, 1410.40771484375
0, 8, 22, 1489.632690429688
0, 8, 23, 1477.537841796875
0, 8, 24, 1439.850341796875
0, 8, 25, 1456.122680664062
0, 8, 26, 1513.915161132812
0, 8, 27, 1520.277221679688
0, 8, 28, 1474.781372070312
0, 8, 29, 1510.116455078125
0, 8, 30, 1489.801025390625
0, 8, 31, 1532.750610351562
0, 8, 32, 1513.628784179688
0, 8, 33, 1480.80810546875
0, 8, 34, 1534.681274414062
0, 8, 35, 1446.65869140625
0, 8, 36, 1499.837646484375
0, 8, 37, 1551.108276367188
0, 8, 38, 1554.188354492188
0, 8, 39, 1494.8642578125
0, 8, 40, 1530.170043945312
0, 8, 41, 1485.825073242188
0, 8, 42, 1543.712646484375
0, 8, 43, 1432.277099609375
0, 8, 44, 1540.009887695312
0, 8, 45, 1516.25244140625
0, 8, 46, 1598.678955078125
