# TOPAS Version: 3.1.p3
# Parameter File: batch_inserts_36.txt
# Results for scorer Readout_Adipose
# Scored in component: MyBox
# X in 1 bin  of 0.75 cm
# Y in 512 bins of 0.0783984 cm
# Z in 128 bins of 0.078125 cm
# EnergyDeposit ( MeV ) : Sum   
0, 0, 0, 2.565664291381836
0, 0, 1, 1.375299572944641
0, 0, 2, 3.68416166305542
0, 0, 3, 2.164616584777832
0, 0, 4, 3.2419273853302
0, 0, 5, 2.648951292037964
0, 0, 6, 8.188053131103516
0, 0, 7, 7.820695400238037
0, 0, 8, 2.76935887336731
0, 0, 9, 2.942668914794922
0, 0, 10, 6.384068965911865
0, 0, 11, 3.471726655960083
0, 0, 12, 5.297962665557861
0, 0, 13, 7.170028209686279
0, 0, 14, 7.799232959747314
0, 0, 15, 9.278908729553223
0, 0, 16, 8.309277534484863
0, 0, 17, 9.789620399475098
0, 0, 18, 12.49933815002441
0, 0, 19, 43.09114456176758
0, 0, 20, 142.2372741699219
0, 0, 21, 223.0751342773438
0, 0, 22, 250.2902984619141
0, 0, 23, 257.1372985839844
0, 0, 24, 250.9892883300781
0, 0, 25, 258.4183959960938
0, 0, 26, 235.1600036621094
0, 0, 27, 237.0406188964844
0, 0, 28, 274.4273681640625
0, 0, 29, 251.9253845214844
0, 0, 30, 230.632568359375
0, 0, 31, 243.8631591796875
0, 0, 32, 263.9024047851562
0, 0, 33, 260.949951171875
0, 0, 34, 286.38427734375
0, 0, 35, 265.8955078125
0, 0, 36, 247.7959289550781
0, 0, 37, 252.7003631591797
0, 0, 38, 267.6378173828125
0, 0, 39, 230.0918579101562
0, 0, 40, 241.9415740966797
0, 0, 41, 266.4364318847656
0, 0, 42, 231.4560241699219
0, 0, 43, 259.3558959960938
0, 0, 44, 253.0178833007812
0, 0, 45, 252.0154266357422
0, 0, 46, 245.6556396484375
0, 0, 47, 252.6658020019531
0, 0, 48, 267.7923278808594
0, 0, 49, 274.1854858398438
0, 0, 50, 251.7254943847656
0, 0, 51, 254.469970703125
0, 0, 52, 273.3213195800781
0, 0, 53, 292.5616760253906
0, 0, 54, 243.7719879150391
0, 0, 55, 240.8412475585938
0, 0, 56, 280.1559448242188
0, 0, 57, 261.4197692871094
0, 0, 58, 247.6955871582031
0, 0, 59, 273.8390808105469
0, 0, 60, 235.3456115722656
0, 0, 61, 244.0282135009766
0, 0, 62, 257.0387573242188
0, 0, 63, 266.5324401855469
0, 0, 64, 256.2833251953125
0, 0, 65, 261.3558654785156
0, 0, 66, 277.2164001464844
0, 0, 67, 246.7833709716797
0, 0, 68, 259.7015686035156
0, 0, 69, 263.1558532714844
0, 0, 70, 271.2966613769531
0, 0, 71, 238.2952270507812
0, 0, 72, 250.1012725830078
0, 0, 73, 257.1115112304688
0, 0, 74, 253.3254699707031
0, 0, 75, 240.9009094238281
0, 0, 76, 229.1478881835938
0, 0, 77, 260.4670104980469
0, 0, 78, 258.4695739746094
0, 0, 79, 277.1927795410156
0, 0, 80, 217.960205078125
0, 0, 81, 266.3670959472656
0, 0, 82, 257.2278747558594
0, 0, 83, 247.3367614746094
0, 0, 84, 268.1346435546875
0, 0, 85, 232.9815826416016
0, 0, 86, 253.2239227294922
0, 0, 87, 250.9056396484375
0, 0, 88, 259.9095153808594
0, 0, 89, 283.5726928710938
0, 0, 90, 243.2232208251953
0, 0, 91, 281.3899230957031
0, 0, 92, 251.7224731445312
0, 0, 93, 250.2987518310547
0, 0, 94, 246.9031372070312
0, 0, 95, 247.6390228271484
0, 0, 96, 273.9034729003906
0, 0, 97, 272.3888549804688
0, 0, 98, 272.4686889648438
0, 0, 99, 257.731689453125
0, 0, 100, 257.5675048828125
0, 0, 101, 227.0982666015625
0, 0, 102, 233.7808990478516
0, 0, 103, 270.4152526855469
0, 0, 104, 253.9416046142578
0, 0, 105, 251.6249694824219
0, 0, 106, 246.7974090576172
0, 0, 107, 151.9276428222656
0, 0, 108, 38.61783599853516
0, 0, 109, 13.41482830047607
0, 0, 110, 13.15755081176758
0, 0, 111, 8.565359115600586
0, 0, 112, 6.805095195770264
0, 0, 113, 5.859301567077637
0, 0, 114, 6.303212642669678
0, 0, 115, 5.111876010894775
0, 0, 116, 5.955300331115723
0, 0, 117, 7.094367980957031
0, 0, 118, 5.550676822662354
0, 0, 119, 7.214967727661133
0, 0, 120, 3.31105375289917
0, 0, 121, 3.899089097976685
0, 0, 122, 5.183312892913818
0, 0, 123, 3.548024654388428
0, 0, 124, 5.625425815582275
0, 0, 125, 3.587770700454712
0, 0, 126, 5.413199901580811
0, 0, 127, 2.750292778015137
0, 1, 0, 6.676396369934082
0, 1, 1, 3.849109888076782
0, 1, 2, 4.18803596496582
0, 1, 3, 3.040192365646362
0, 1, 4, 3.229625463485718
0, 1, 5, 2.755333423614502
0, 1, 6, 6.419128894805908
0, 1, 7, 6.450832843780518
0, 1, 8, 7.251721382141113
0, 1, 9, 5.00452995300293
0, 1, 10, 6.075706481933594
0, 1, 11, 12.07783603668213
0, 1, 12, 9.345332145690918
0, 1, 13, 9.967575073242188
0, 1, 14, 8.738327026367188
0, 1, 15, 7.451672554016113
0, 1, 16, 10.52474021911621
0, 1, 17, 11.06734561920166
0, 1, 18, 21.74764633178711
0, 1, 19, 67.46863555908203
0, 1, 20, 198.0949554443359
0, 1, 21, 254.6592559814453
0, 1, 22, 295.0334777832031
0, 1, 23, 283.7359619140625
0, 1, 24, 276.1188049316406
0, 1, 25, 289.0784301757812
0, 1, 26, 267.970703125
0, 1, 27, 307.3469848632812
0, 1, 28, 299.927001953125
0, 1, 29, 298.4237060546875
0, 1, 30, 283.169921875
0, 1, 31, 291.5342712402344
0, 1, 32, 292.0844421386719
0, 1, 33, 295.0066223144531
0, 1, 34, 291.8548889160156
0, 1, 35, 278.4505310058594
0, 1, 36, 305.3634338378906
0, 1, 37, 294.9693298339844
0, 1, 38, 280.522705078125
0, 1, 39, 295.8514404296875
0, 1, 40, 267.0051879882812
0, 1, 41, 285.1614990234375
0, 1, 42, 289.8818664550781
0, 1, 43, 333.1560974121094
0, 1, 44, 278.6134643554688
0, 1, 45, 292.5648803710938
0, 1, 46, 258.8261413574219
0, 1, 47, 311.0328063964844
0, 1, 48, 283.584228515625
0, 1, 49, 302.9725341796875
0, 1, 50, 263.5335693359375
0, 1, 51, 273.7052307128906
0, 1, 52, 297.7749938964844
0, 1, 53, 305.6949157714844
0, 1, 54, 278.5203857421875
0, 1, 55, 293.8221130371094
0, 1, 56, 274.7774047851562
0, 1, 57, 296.9587707519531
0, 1, 58, 310.6159973144531
0, 1, 59, 292.1531982421875
0, 1, 60, 298.5625
0, 1, 61, 275.0094604492188
0, 1, 62, 308.8065795898438
0, 1, 63, 289.9791259765625
0, 1, 64, 288.7385559082031
0, 1, 65, 294.6037292480469
0, 1, 66, 293.0130004882812
0, 1, 67, 292.8401184082031
0, 1, 68, 279.2616577148438
0, 1, 69, 281.24951171875
0, 1, 70, 273.1568908691406
0, 1, 71, 272.93115234375
0, 1, 72, 289.55517578125
0, 1, 73, 304.8891296386719
0, 1, 74, 302.807373046875
0, 1, 75, 293.078857421875
0, 1, 76, 283.8948364257812
0, 1, 77, 290.5466003417969
0, 1, 78, 296.9379272460938
0, 1, 79, 304.2920532226562
0, 1, 80, 295.991943359375
0, 1, 81, 299.3386535644531
0, 1, 82, 285.1640930175781
0, 1, 83, 330.7086486816406
0, 1, 84, 311.0224609375
0, 1, 85, 254.7100830078125
0, 1, 86, 293.7501220703125
0, 1, 87, 291.6255493164062
0, 1, 88, 298.5226745605469
0, 1, 89, 290.0475769042969
0, 1, 90, 269.8040771484375
0, 1, 91, 316.4278869628906
0, 1, 92, 289.9364624023438
0, 1, 93, 287.8797607421875
0, 1, 94, 301.7489013671875
0, 1, 95, 285.4163513183594
0, 1, 96, 284.77734375
0, 1, 97, 300.2294616699219
0, 1, 98, 277.7044372558594
0, 1, 99, 267.2725830078125
0, 1, 100, 278.9530334472656
0, 1, 101, 281.191650390625
0, 1, 102, 276.588623046875
0, 1, 103, 281.0291137695312
0, 1, 104, 306.2974853515625
0, 1, 105, 298.2691040039062
0, 1, 106, 261.8175048828125
0, 1, 107, 197.1447448730469
0, 1, 108, 81.56638336181641
0, 1, 109, 23.7877311706543
0, 1, 110, 10.92802333831787
0, 1, 111, 7.670698165893555
0, 1, 112, 11.09807300567627
0, 1, 113, 6.716168403625488
0, 1, 114, 6.008181571960449
0, 1, 115, 6.845759391784668
0, 1, 116, 11.72946071624756
0, 1, 117, 7.118727684020996
0, 1, 118, 5.347513198852539
0, 1, 119, 4.434772968292236
0, 1, 120, 6.693547248840332
0, 1, 121, 4.51239013671875
0, 1, 122, 5.019813060760498
0, 1, 123, 3.96914267539978
0, 1, 124, 7.738539695739746
0, 1, 125, 3.672314643859863
0, 1, 126, 5.257487297058105
0, 1, 127, 3.34685754776001
0, 2, 0, 5.120510578155518
0, 2, 1, 1.256533622741699
0, 2, 2, 2.607009172439575
0, 2, 3, 4.359869480133057
0, 2, 4, 4.774860858917236
0, 2, 5, 2.116929054260254
0, 2, 6, 3.296441555023193
0, 2, 7, 4.557253360748291
0, 2, 8, 5.466346263885498
0, 2, 9, 6.48514986038208
0, 2, 10, 8.974034309387207
0, 2, 11, 6.92241096496582
0, 2, 12, 5.665445327758789
0, 2, 13, 9.15416145324707
0, 2, 14, 9.320041656494141
0, 2, 15, 8.096421241760254
0, 2, 16, 11.02562236785889
0, 2, 17, 17.08659172058105
0, 2, 18, 31.41421508789062
0, 2, 19, 117.4045867919922
0, 2, 20, 245.6095581054688
0, 2, 21, 271.2368774414062
0, 2, 22, 315.8301391601562
0, 2, 23, 301.8861083984375
0, 2, 24, 286.0076293945312
0, 2, 25, 303.425048828125
0, 2, 26, 293.24658203125
0, 2, 27, 275.45654296875
0, 2, 28, 272.0607299804688
0, 2, 29, 273.98779296875
0, 2, 30, 289.8113708496094
0, 2, 31, 276.8558044433594
0, 2, 32, 294.0128173828125
0, 2, 33, 282.4414672851562
0, 2, 34, 334.6672058105469
0, 2, 35, 292.9652709960938
0, 2, 36, 302.4010009765625
0, 2, 37, 314.3231201171875
0, 2, 38, 310.0860900878906
0, 2, 39, 268.6358642578125
0, 2, 40, 306.4042358398438
0, 2, 41, 292.7015686035156
0, 2, 42, 303.0712585449219
0, 2, 43, 313.70068359375
0, 2, 44, 313.2770385742188
0, 2, 45, 326.43017578125
0, 2, 46, 292.3166809082031
0, 2, 47, 304.2478332519531
0, 2, 48, 281.6056823730469
0, 2, 49, 282.3401489257812
0, 2, 50, 295.8106994628906
0, 2, 51, 286.2224426269531
0, 2, 52, 270.4535827636719
0, 2, 53, 287.1153564453125
0, 2, 54, 281.5995483398438
0, 2, 55, 279.4600524902344
0, 2, 56, 302.0243530273438
0, 2, 57, 292.0044555664062
0, 2, 58, 304.3175354003906
0, 2, 59, 289.0762023925781
0, 2, 60, 318.9013671875
0, 2, 61, 302.4351806640625
0, 2, 62, 313.4104919433594
0, 2, 63, 302.2881774902344
0, 2, 64, 295.9476928710938
0, 2, 65, 312.6654663085938
0, 2, 66, 280.2315063476562
0, 2, 67, 291.119384765625
0, 2, 68, 295.6629943847656
0, 2, 69, 310.1250610351562
0, 2, 70, 332.6886291503906
0, 2, 71, 286.289306640625
0, 2, 72, 301.1825866699219
0, 2, 73, 313.9204406738281
0, 2, 74, 284.9745788574219
0, 2, 75, 303.5377502441406
0, 2, 76, 287.2207946777344
0, 2, 77, 300.6347045898438
0, 2, 78, 316.04345703125
0, 2, 79, 307.5449523925781
0, 2, 80, 296.7884216308594
0, 2, 81, 283.1922607421875
0, 2, 82, 319.1038208007812
0, 2, 83, 311.7207336425781
0, 2, 84, 288.2155151367188
0, 2, 85, 280.6893005371094
0, 2, 86, 323.3465270996094
0, 2, 87, 286.7368469238281
0, 2, 88, 279.8289489746094
0, 2, 89, 295.3025512695312
0, 2, 90, 294.7526245117188
0, 2, 91, 277.2391357421875
0, 2, 92, 306.6471557617188
0, 2, 93, 316.5052490234375
0, 2, 94, 291.7149047851562
0, 2, 95, 316.1067199707031
0, 2, 96, 314.5080261230469
0, 2, 97, 294.7640380859375
0, 2, 98, 294.1784362792969
0, 2, 99, 272.9090576171875
0, 2, 100, 308.331298828125
0, 2, 101, 301.69921875
0, 2, 102, 296.9039611816406
0, 2, 103, 292.4223937988281
0, 2, 104, 292.2377319335938
0, 2, 105, 274.4443969726562
0, 2, 106, 296.0813903808594
0, 2, 107, 268.92626953125
0, 2, 108, 115.5644912719727
0, 2, 109, 32.31660461425781
0, 2, 110, 11.04481792449951
0, 2, 111, 10.56185150146484
0, 2, 112, 7.773303031921387
0, 2, 113, 9.91425895690918
0, 2, 114, 10.56065559387207
0, 2, 115, 8.346988677978516
0, 2, 116, 8.209726333618164
0, 2, 117, 7.926105499267578
0, 2, 118, 4.417755126953125
0, 2, 119, 4.740927696228027
0, 2, 120, 5.830689907073975
0, 2, 121, 1.625401139259338
0, 2, 122, 4.283899307250977
0, 2, 123, 5.293853282928467
0, 2, 124, 2.030550718307495
0, 2, 125, 5.653885841369629
0, 2, 126, 2.835741996765137
0, 2, 127, 5.53294038772583
0, 3, 0, 3.043896436691284
0, 3, 1, 2.701972961425781
0, 3, 2, 4.405206680297852
0, 3, 3, 3.302460193634033
0, 3, 4, 5.528832912445068
0, 3, 5, 8.450203895568848
0, 3, 6, 6.260761737823486
0, 3, 7, 6.847161769866943
0, 3, 8, 5.818563938140869
0, 3, 9, 5.112785339355469
0, 3, 10, 7.403407096862793
0, 3, 11, 3.663962125778198
0, 3, 12, 8.998721122741699
0, 3, 13, 17.2894458770752
0, 3, 14, 13.03849792480469
0, 3, 15, 13.42974281311035
0, 3, 16, 12.65258312225342
0, 3, 17, 21.00096893310547
0, 3, 18, 52.68655395507812
0, 3, 19, 174.9296569824219
0, 3, 20, 270.0422058105469
0, 3, 21, 271.4925537109375
0, 3, 22, 280.8704833984375
0, 3, 23, 289.4112243652344
0, 3, 24, 287.1520080566406
0, 3, 25, 271.6233520507812
0, 3, 26, 303.2549438476562
0, 3, 27, 292.9839172363281
0, 3, 28, 279.361328125
0, 3, 29, 338.125244140625
0, 3, 30, 315.4451599121094
0, 3, 31, 285.2100830078125
0, 3, 32, 306.2859191894531
0, 3, 33, 315.3443603515625
0, 3, 34, 325.9570007324219
0, 3, 35, 306.6558837890625
0, 3, 36, 271.0302734375
0, 3, 37, 313.7491149902344
0, 3, 38, 305.1160278320312
0, 3, 39, 286.7536010742188
0, 3, 40, 267.9295959472656
0, 3, 41, 299.2538452148438
0, 3, 42, 284.9808044433594
0, 3, 43, 304.6676330566406
0, 3, 44, 310.8116760253906
0, 3, 45, 290.6238403320312
0, 3, 46, 327.2060546875
0, 3, 47, 300.4882202148438
0, 3, 48, 303.8671264648438
0, 3, 49, 275.4442443847656
0, 3, 50, 291.5079345703125
0, 3, 51, 274.389404296875
0, 3, 52, 314.7451477050781
0, 3, 53, 289.0411987304688
0, 3, 54, 284.7174377441406
0, 3, 55, 283.5865783691406
0, 3, 56, 298.4302978515625
0, 3, 57, 289.5182495117188
0, 3, 58, 305.6061706542969
0, 3, 59, 295.5210876464844
0, 3, 60, 298.8269348144531
0, 3, 61, 268.1986083984375
0, 3, 62, 283.0186462402344
0, 3, 63, 308.1807250976562
0, 3, 64, 315.7520141601562
0, 3, 65, 305.0888366699219
0, 3, 66, 314.343505859375
0, 3, 67, 318.0464782714844
0, 3, 68, 280.2056884765625
0, 3, 69, 284.8128356933594
0, 3, 70, 288.6487731933594
0, 3, 71, 297.3297729492188
0, 3, 72, 270.4194030761719
0, 3, 73, 308.2191772460938
0, 3, 74, 291.9830017089844
0, 3, 75, 289.7680969238281
0, 3, 76, 305.7772521972656
0, 3, 77, 313.0397644042969
0, 3, 78, 302.0111389160156
0, 3, 79, 281.9566955566406
0, 3, 80, 290.6800842285156
0, 3, 81, 309.7428588867188
0, 3, 82, 314.9562377929688
0, 3, 83, 301.2323303222656
0, 3, 84, 311.1205139160156
0, 3, 85, 293.5197448730469
0, 3, 86, 300.8817749023438
0, 3, 87, 298.143310546875
0, 3, 88, 299.4749755859375
0, 3, 89, 297.4067993164062
0, 3, 90, 276.1621398925781
0, 3, 91, 285.008056640625
0, 3, 92, 305.09521484375
0, 3, 93, 312.3627319335938
0, 3, 94, 296.7450866699219
0, 3, 95, 336.5895690917969
0, 3, 96, 290.8224487304688
0, 3, 97, 282.7460632324219
0, 3, 98, 277.8515014648438
0, 3, 99, 261.5987854003906
0, 3, 100, 283.1331176757812
0, 3, 101, 295.7044677734375
0, 3, 102, 275.5098266601562
0, 3, 103, 320.4639587402344
0, 3, 104, 311.4671630859375
0, 3, 105, 288.0595703125
0, 3, 106, 302.2566223144531
0, 3, 107, 282.4168090820312
0, 3, 108, 167.1823577880859
0, 3, 109, 57.59227752685547
0, 3, 110, 18.95002937316895
0, 3, 111, 12.91637992858887
0, 3, 112, 13.26673030853271
0, 3, 113, 8.486357688903809
0, 3, 114, 9.058405876159668
0, 3, 115, 7.337414264678955
0, 3, 116, 7.153175830841064
0, 3, 117, 8.053267478942871
0, 3, 118, 5.573631763458252
0, 3, 119, 3.540101528167725
0, 3, 120, 5.41148853302002
0, 3, 121, 2.349163055419922
0, 3, 122, 2.037235498428345
0, 3, 123, 5.512380123138428
0, 3, 124, 4.32339334487915
0, 3, 125, 5.401280879974365
0, 3, 126, 3.641892194747925
0, 3, 127, 3.198777437210083
0, 4, 0, 3.418130397796631
0, 4, 1, 6.303563117980957
0, 4, 2, 3.329918146133423
0, 4, 3, 4.563697338104248
0, 4, 4, 6.089598655700684
0, 4, 5, 8.165764808654785
0, 4, 6, 5.638900279998779
0, 4, 7, 5.62307071685791
0, 4, 8, 3.50420618057251
0, 4, 9, 5.592923164367676
0, 4, 10, 5.938295841217041
0, 4, 11, 7.149286270141602
0, 4, 12, 6.13142204284668
0, 4, 13, 7.953536510467529
0, 4, 14, 11.17642879486084
0, 4, 15, 11.56662654876709
0, 4, 16, 16.62995719909668
0, 4, 17, 17.1754093170166
0, 4, 18, 92.24935913085938
0, 4, 19, 222.4119262695312
0, 4, 20, 284.4369506835938
0, 4, 21, 272.9279479980469
0, 4, 22, 305.277099609375
0, 4, 23, 268.0116577148438
0, 4, 24, 290.0672607421875
0, 4, 25, 273.1470947265625
0, 4, 26, 293.6900024414062
0, 4, 27, 282.4442749023438
0, 4, 28, 307.0734558105469
0, 4, 29, 322.5863342285156
0, 4, 30, 313.4237365722656
0, 4, 31, 304.2547302246094
0, 4, 32, 283.8237915039062
0, 4, 33, 296.1968688964844
0, 4, 34, 298.0060729980469
0, 4, 35, 313.67138671875
0, 4, 36, 295.0489196777344
0, 4, 37, 291.55615234375
0, 4, 38, 297.1573486328125
0, 4, 39, 295.6310729980469
0, 4, 40, 301.0652160644531
0, 4, 41, 312.8320007324219
0, 4, 42, 331.6201477050781
0, 4, 43, 296.5896301269531
0, 4, 44, 322.2092895507812
0, 4, 45, 322.8567810058594
0, 4, 46, 306.2280883789062
0, 4, 47, 293.5482177734375
0, 4, 48, 295.3695373535156
0, 4, 49, 278.8278503417969
0, 4, 50, 294.8965454101562
0, 4, 51, 317.1218872070312
0, 4, 52, 327.0062255859375
0, 4, 53, 303.2019348144531
0, 4, 54, 288.1248779296875
0, 4, 55, 313.6542663574219
0, 4, 56, 286.7713317871094
0, 4, 57, 310.8583374023438
0, 4, 58, 295.083251953125
0, 4, 59, 308.5743103027344
0, 4, 60, 303.9582214355469
0, 4, 61, 316.3350219726562
0, 4, 62, 307.3564453125
0, 4, 63, 299.1877136230469
0, 4, 64, 330.42529296875
0, 4, 65, 315.2468566894531
0, 4, 66, 294.5506591796875
0, 4, 67, 285.8095092773438
0, 4, 68, 314.1087951660156
0, 4, 69, 276.6957397460938
0, 4, 70, 299.2883605957031
0, 4, 71, 321.5431823730469
0, 4, 72, 333.0226440429688
0, 4, 73, 297.8939208984375
0, 4, 74, 292.4645080566406
0, 4, 75, 289.1676330566406
0, 4, 76, 277.6360778808594
0, 4, 77, 282.383056640625
0, 4, 78, 311.0014953613281
0, 4, 79, 318.0471496582031
0, 4, 80, 314.5581970214844
0, 4, 81, 314.0570373535156
0, 4, 82, 299.497314453125
0, 4, 83, 299.2848510742188
0, 4, 84, 290.392822265625
0, 4, 85, 293.589111328125
0, 4, 86, 297.9034423828125
0, 4, 87, 284.4556274414062
0, 4, 88, 304.9299926757812
0, 4, 89, 295.5579223632812
0, 4, 90, 333.0423889160156
0, 4, 91, 302.5476379394531
0, 4, 92, 290.9239196777344
0, 4, 93, 296.6548767089844
0, 4, 94, 292.1121520996094
0, 4, 95, 289.8306274414062
0, 4, 96, 325.5661010742188
0, 4, 97, 273.5832824707031
0, 4, 98, 327.2806701660156
0, 4, 99, 312.6536560058594
0, 4, 100, 300.5481567382812
0, 4, 101, 257.678466796875
0, 4, 102, 296.7169494628906
0, 4, 103, 317.0704040527344
0, 4, 104, 281.4743957519531
0, 4, 105, 310.7519836425781
0, 4, 106, 286.0421447753906
0, 4, 107, 294.6823425292969
0, 4, 108, 227.4149932861328
0, 4, 109, 79.03679656982422
0, 4, 110, 16.39117622375488
0, 4, 111, 13.39797401428223
0, 4, 112, 8.9600830078125
0, 4, 113, 10.20267391204834
0, 4, 114, 8.461384773254395
0, 4, 115, 9.056724548339844
0, 4, 116, 9.202035903930664
0, 4, 117, 11.32191276550293
0, 4, 118, 10.06378078460693
0, 4, 119, 9.611142158508301
0, 4, 120, 6.548898220062256
0, 4, 121, 6.956350326538086
0, 4, 122, 4.906320095062256
0, 4, 123, 8.743355751037598
0, 4, 124, 4.89240026473999
0, 4, 125, 8.371340751647949
0, 4, 126, 5.311584949493408
0, 4, 127, 2.518329858779907
0, 5, 0, 4.150504112243652
0, 5, 1, 3.876082181930542
0, 5, 2, 4.436922550201416
0, 5, 3, 2.327946424484253
0, 5, 4, 4.728434085845947
0, 5, 5, 5.064265727996826
0, 5, 6, 8.225906372070312
0, 5, 7, 6.924336433410645
0, 5, 8, 3.269164085388184
0, 5, 9, 5.398566246032715
0, 5, 10, 6.308363914489746
0, 5, 11, 7.451833248138428
0, 5, 12, 9.169167518615723
0, 5, 13, 7.379493236541748
0, 5, 14, 12.97364902496338
0, 5, 15, 16.99203109741211
0, 5, 16, 13.3247652053833
0, 5, 17, 28.82608985900879
0, 5, 18, 135.7905426025391
0, 5, 19, 288.0239868164062
0, 5, 20, 306.6597595214844
0, 5, 21, 316.3181457519531
0, 5, 22, 275.3885803222656
0, 5, 23, 312.1442565917969
0, 5, 24, 302.1397705078125
0, 5, 25, 289.6552734375
0, 5, 26, 294.0298767089844
0, 5, 27, 322.6640014648438
0, 5, 28, 305.9375305175781
0, 5, 29, 299.0504760742188
0, 5, 30, 324.1180419921875
0, 5, 31, 288.4627990722656
0, 5, 32, 301.9415893554688
0, 5, 33, 302.4617614746094
0, 5, 34, 295.9211120605469
0, 5, 35, 310.1225280761719
0, 5, 36, 268.9422912597656
0, 5, 37, 283.4810485839844
0, 5, 38, 292.3263854980469
0, 5, 39, 311.4369812011719
0, 5, 40, 309.5631713867188
0, 5, 41, 274.7359008789062
0, 5, 42, 307.8336486816406
0, 5, 43, 315.8468322753906
0, 5, 44, 292.7843933105469
0, 5, 45, 302.7507629394531
0, 5, 46, 265.138427734375
0, 5, 47, 280.0903930664062
0, 5, 48, 291.7737731933594
0, 5, 49, 285.1882934570312
0, 5, 50, 293.7741394042969
0, 5, 51, 279.4049987792969
0, 5, 52, 268.0499267578125
0, 5, 53, 282.9853820800781
0, 5, 54, 291.6361999511719
0, 5, 55, 343.3638305664062
0, 5, 56, 306.0214233398438
0, 5, 57, 306.8489074707031
0, 5, 58, 310.4521789550781
0, 5, 59, 303.4451293945312
0, 5, 60, 308.4454040527344
0, 5, 61, 281.2431030273438
0, 5, 62, 323.963134765625
0, 5, 63, 293.5537719726562
0, 5, 64, 323.0768127441406
0, 5, 65, 309.253662109375
0, 5, 66, 327.2981262207031
0, 5, 67, 311.2815551757812
0, 5, 68, 307.9083251953125
0, 5, 69, 311.6046142578125
0, 5, 70, 302.9144287109375
0, 5, 71, 271.969970703125
0, 5, 72, 312.7289428710938
0, 5, 73, 304.8685302734375
0, 5, 74, 295.9380493164062
0, 5, 75, 295.2230224609375
0, 5, 76, 286.01953125
0, 5, 77, 297.4078674316406
0, 5, 78, 313.1773681640625
0, 5, 79, 307.3212585449219
0, 5, 80, 294.6360168457031
0, 5, 81, 325.2992553710938
0, 5, 82, 323.1761474609375
0, 5, 83, 281.8325805664062
0, 5, 84, 305.7018432617188
0, 5, 85, 272.7230529785156
0, 5, 86, 326.2538452148438
0, 5, 87, 282.6512756347656
0, 5, 88, 313.1023559570312
0, 5, 89, 304.621826171875
0, 5, 90, 318.6766052246094
0, 5, 91, 313.9603881835938
0, 5, 92, 295.5830383300781
0, 5, 93, 323.2024536132812
0, 5, 94, 308.7102355957031
0, 5, 95, 297.4026794433594
0, 5, 96, 298.3054809570312
0, 5, 97, 296.4473571777344
0, 5, 98, 318.414306640625
0, 5, 99, 301.90869140625
0, 5, 100, 290.0096435546875
0, 5, 101, 306.7499389648438
0, 5, 102, 292.6032409667969
0, 5, 103, 312.3092041015625
0, 5, 104, 302.7419738769531
0, 5, 105, 291.8343505859375
0, 5, 106, 280.3623352050781
0, 5, 107, 294.9610290527344
0, 5, 108, 263.9962158203125
0, 5, 109, 159.1869506835938
0, 5, 110, 38.70462417602539
0, 5, 111, 20.49774169921875
0, 5, 112, 15.52986240386963
0, 5, 113, 16.05857467651367
0, 5, 114, 13.06546115875244
0, 5, 115, 8.21611499786377
0, 5, 116, 6.091448307037354
0, 5, 117, 7.380385875701904
0, 5, 118, 10.60932350158691
0, 5, 119, 3.572198629379272
0, 5, 120, 7.46626615524292
0, 5, 121, 6.195220470428467
0, 5, 122, 6.084786415100098
0, 5, 123, 6.890449523925781
0, 5, 124, 5.263987064361572
0, 5, 125, 4.143965244293213
0, 5, 126, 5.566912651062012
0, 5, 127, 3.686002969741821
0, 6, 0, 6.982363224029541
0, 6, 1, 3.404706478118896
0, 6, 2, 6.770439624786377
0, 6, 3, 4.642695426940918
0, 6, 4, 4.639019966125488
0, 6, 5, 6.006980895996094
0, 6, 6, 7.730545043945312
0, 6, 7, 5.597836971282959
0, 6, 8, 7.068721771240234
0, 6, 9, 6.228515625
0, 6, 10, 11.170334815979
0, 6, 11, 7.702025413513184
0, 6, 12, 10.58232498168945
0, 6, 13, 11.41405963897705
0, 6, 14, 8.426300048828125
0, 6, 15, 16.24848365783691
0, 6, 16, 29.13047218322754
0, 6, 17, 54.70556259155273
0, 6, 18, 173.4508514404297
0, 6, 19, 275.8545532226562
0, 6, 20, 291.4427185058594
0, 6, 21, 313.3826599121094
0, 6, 22, 321.5425109863281
0, 6, 23, 306.0693664550781
0, 6, 24, 315.7711791992188
0, 6, 25, 316.8621826171875
0, 6, 26, 318.6567993164062
0, 6, 27, 329.8924560546875
0, 6, 28, 297.3172607421875
0, 6, 29, 328.5306091308594
0, 6, 30, 285.7256469726562
0, 6, 31, 287.0307312011719
0, 6, 32, 340.0686645507812
0, 6, 33, 299.4019165039062
0, 6, 34, 338.8705749511719
0, 6, 35, 319.1261291503906
0, 6, 36, 273.1563720703125
0, 6, 37, 289.5278625488281
0, 6, 38, 313.4054565429688
0, 6, 39, 298.3690185546875
0, 6, 40, 284.799560546875
0, 6, 41, 296.6332092285156
0, 6, 42, 301.9488830566406
0, 6, 43, 288.6376342773438
0, 6, 44, 279.7198486328125
0, 6, 45, 321.0399169921875
0, 6, 46, 306.35302734375
0, 6, 47, 331.4768676757812
0, 6, 48, 293.990478515625
0, 6, 49, 312.8347473144531
0, 6, 50, 328.3141174316406
0, 6, 51, 311.5942077636719
0, 6, 52, 320.4434204101562
0, 6, 53, 327.1362915039062
0, 6, 54, 302.8984375
0, 6, 55, 305.0325317382812
0, 6, 56, 293.88037109375
0, 6, 57, 312.6065673828125
0, 6, 58, 264.337158203125
0, 6, 59, 302.1032409667969
0, 6, 60, 313.5648193359375
0, 6, 61, 269.4979858398438
0, 6, 62, 335.6198425292969
0, 6, 63, 323.8167114257812
0, 6, 64, 292.7543640136719
0, 6, 65, 284.8922119140625
0, 6, 66, 306.2774353027344
0, 6, 67, 308.8445434570312
0, 6, 68, 293.8606262207031
0, 6, 69, 278.1838684082031
0, 6, 70, 273.1701049804688
0, 6, 71, 289.0896301269531
0, 6, 72, 312.2854309082031
0, 6, 73, 290.9860534667969
0, 6, 74, 330.4028625488281
0, 6, 75, 343.1285705566406
0, 6, 76, 297.0925903320312
0, 6, 77, 286.6251831054688
0, 6, 78, 278.4478759765625
0, 6, 79, 293.0248413085938
0, 6, 80, 299.994384765625
0, 6, 81, 314.1627807617188
0, 6, 82, 321.0794067382812
0, 6, 83, 320.7719421386719
0, 6, 84, 298.027587890625
0, 6, 85, 302.7975463867188
0, 6, 86, 330.7114868164062
0, 6, 87, 292.9277648925781
0, 6, 88, 307.0470581054688
0, 6, 89, 305.7822265625
0, 6, 90, 298.5061950683594
0, 6, 91, 312.7190856933594
0, 6, 92, 285.7386474609375
0, 6, 93, 298.8475952148438
0, 6, 94, 274.3231506347656
0, 6, 95, 299.690185546875
0, 6, 96, 347.9046936035156
0, 6, 97, 311.672607421875
0, 6, 98, 301.5465087890625
0, 6, 99, 270.971923828125
0, 6, 100, 308.5631713867188
0, 6, 101, 291.3914184570312
0, 6, 102, 305.0174865722656
0, 6, 103, 310.1161499023438
0, 6, 104, 292.5393981933594
0, 6, 105, 300.0341186523438
0, 6, 106, 309.4996337890625
0, 6, 107, 305.3522644042969
0, 6, 108, 265.05078125
0, 6, 109, 187.0612487792969
0, 6, 110, 54.40167999267578
0, 6, 111, 21.86758422851562
0, 6, 112, 15.42555332183838
0, 6, 113, 10.65078353881836
0, 6, 114, 11.70533275604248
0, 6, 115, 13.47879409790039
0, 6, 116, 9.094642639160156
0, 6, 117, 6.321308612823486
0, 6, 118, 8.840676307678223
0, 6, 119, 8.979067802429199
0, 6, 120, 5.840376853942871
0, 6, 121, 5.596206665039062
0, 6, 122, 8.721033096313477
0, 6, 123, 5.443275451660156
0, 6, 124, 7.882139205932617
0, 6, 125, 5.884962558746338
0, 6, 126, 3.620980978012085
0, 6, 127, 6.260384559631348
0, 7, 0, 5.497394561767578
0, 7, 1, 3.894442558288574
0, 7, 2, 7.145368099212646
0, 7, 3, 1.925246834754944
0, 7, 4, 5.517260551452637
0, 7, 5, 5.797781944274902
0, 7, 6, 5.41758918762207
0, 7, 7, 3.956088304519653
0, 7, 8, 5.548346996307373
0, 7, 9, 6.787299156188965
0, 7, 10, 7.355654716491699
0, 7, 11, 12.80288410186768
0, 7, 12, 10.81225204467773
0, 7, 13, 11.72170448303223
0, 7, 14, 13.45263957977295
0, 7, 15, 16.1655101776123
0, 7, 16, 26.06444549560547
0, 7, 17, 98.60179138183594
0, 7, 18, 220.0337677001953
0, 7, 19, 289.9471740722656
0, 7, 20, 298.0544738769531
0, 7, 21, 276.0519409179688
0, 7, 22, 299.1415405273438
0, 7, 23, 287.702880859375
0, 7, 24, 312.4893493652344
0, 7, 25, 323.5669860839844
0, 7, 26, 278.1825256347656
0, 7, 27, 298.21630859375
0, 7, 28, 327.2792358398438
0, 7, 29, 318.7168884277344
0, 7, 30, 303.6563720703125
0, 7, 31, 276.1343383789062
0, 7, 32, 304.4005432128906
0, 7, 33, 261.8871154785156
0, 7, 34, 297.3219909667969
0, 7, 35, 319.3456115722656
0, 7, 36, 330.6049194335938
0, 7, 37, 323.8261108398438
0, 7, 38, 296.3152160644531
0, 7, 39, 306.2279968261719
0, 7, 40, 291.7115173339844
0, 7, 41, 269.7198791503906
0, 7, 42, 302.9165649414062
0, 7, 43, 274.049560546875
0, 7, 44, 304.4682922363281
0, 7, 45, 295.1135559082031
0, 7, 46, 280.5084228515625
0, 7, 47, 327.5350952148438
0, 7, 48, 283.5430908203125
0, 7, 49, 305.2108459472656
0, 7, 50, 321.2040710449219
0, 7, 51, 301.6670837402344
0, 7, 52, 325.7988586425781
0, 7, 53, 312.8363647460938
0, 7, 54, 323.9669799804688
0, 7, 55, 307.1983642578125
0, 7, 56, 279.0434875488281
0, 7, 57, 282.1551208496094
0, 7, 58, 294.2813110351562
0, 7, 59, 294.1307373046875
0, 7, 60, 323.0466613769531
0, 7, 61, 277.0104675292969
0, 7, 62, 299.8526000976562
0, 7, 63, 292.4470520019531
0, 7, 64, 308.8687133789062
0, 7, 65, 333.4437561035156
0, 7, 66, 316.9760131835938
0, 7, 67, 301.3061828613281
0, 7, 68, 280.0034790039062
0, 7, 69, 294.5428771972656
0, 7, 70, 302.8168029785156
0, 7, 71, 310.9788513183594
0, 7, 72, 285.6655578613281
0, 7, 73, 294.5071105957031
0, 7, 74, 345.4732055664062
0, 7, 75, 320.9921875
0, 7, 76, 325.2640075683594
0, 7, 77, 279.1481018066406
0, 7, 78, 301.6520690917969
0, 7, 79, 295.9770812988281
0, 7, 80, 312.9701843261719
0, 7, 81, 321.4721984863281
0, 7, 82, 330.0864562988281
0, 7, 83, 317.2132873535156
0, 7, 84, 309.671630859375
0, 7, 85, 271.5881042480469
0, 7, 86, 310.4754638671875
0, 7, 87, 312.8141479492188
0, 7, 88, 309.0948486328125
0, 7, 89, 292.5060119628906
0, 7, 90, 307.495849609375
0, 7, 91, 316.9146423339844
0, 7, 92, 286.6018981933594
0, 7, 93, 306.0720520019531
0, 7, 94, 273.7993469238281
0, 7, 95, 297.2894287109375
0, 7, 96, 330.9895629882812
0, 7, 97, 293.9719543457031
0, 7, 98, 289.9998168945312
0, 7, 99, 312.3742065429688
0, 7, 100, 284.0879821777344
0, 7, 101, 274.5232849121094
0, 7, 102, 290.6418151855469
0, 7, 103, 293.7570495605469
0, 7, 104, 273.8668823242188
0, 7, 105, 306.8749084472656
0, 7, 106, 316.6746215820312
0, 7, 107, 296.3186950683594
0, 7, 108, 273.3540649414062
0, 7, 109, 235.2542572021484
0, 7, 110, 98.0579833984375
0, 7, 111, 23.08017921447754
0, 7, 112, 14.18954753875732
0, 7, 113, 13.49071502685547
0, 7, 114, 12.47435665130615
0, 7, 115, 11.3405647277832
0, 7, 116, 9.499824523925781
0, 7, 117, 7.692431926727295
0, 7, 118, 6.399899482727051
0, 7, 119, 6.089658260345459
0, 7, 120, 5.295875549316406
0, 7, 121, 5.664141178131104
0, 7, 122, 6.576294898986816
0, 7, 123, 5.088732719421387
0, 7, 124, 3.183481216430664
0, 7, 125, 5.604905128479004
0, 7, 126, 6.296970844268799
0, 7, 127, 4.635274887084961
0, 8, 0, 4.142041206359863
0, 8, 1, 3.374363422393799
0, 8, 2, 3.669652223587036
0, 8, 3, 1.796407699584961
0, 8, 4, 5.03541374206543
0, 8, 5, 3.664723873138428
0, 8, 6, 4.205967426300049
0, 8, 7, 5.337764263153076
0, 8, 8, 8.655118942260742
0, 8, 9, 4.757326602935791
0, 8, 10, 5.752565383911133
0, 8, 11, 10.677170753479
0, 8, 12, 13.30780982971191
0, 8, 13, 15.98303031921387
0, 8, 14, 14.15135383605957
0, 8, 15, 16.22308540344238
0, 8, 16, 32.57216644287109
0, 8, 17, 130.2248382568359
0, 8, 18, 243.3931274414062
0, 8, 19, 294.0498046875
0, 8, 20, 286.0282592773438
0, 8, 21, 306.5075073242188
0, 8, 22, 296.1763610839844
0, 8, 23, 274.5403747558594
0, 8, 24, 268.2570495605469
0, 8, 25, 277.70556640625
0, 8, 26, 305.7173767089844
0, 8, 27, 306.0977172851562
0, 8, 28, 303.9417724609375
0, 8, 29, 321.1479797363281
0, 8, 30, 312.6266174316406
0, 8, 31, 302.6903076171875
0, 8, 32, 282.6618041992188
0, 8, 33, 294.8162841796875
0, 8, 34, 286.9344177246094
0, 8, 35, 279.5364379882812
0, 8, 36, 315.4146423339844
0, 8, 37, 337.9794311523438
0, 8, 38, 330.6121826171875
0, 8, 39, 281.295166015625
0, 8, 40, 302.1283264160156
