# TOPAS Version: 3.1.p3
# Parameter File: batch_inserts_26.txt
# Results for scorer Readout_Adipose
# Scored in component: MyBox
# X in 1 bin  of 0.75 cm
# Y in 512 bins of 0.0783984 cm
# Z in 128 bins of 0.078125 cm
# EnergyDeposit ( MeV ) : Sum   
0, 0, 0, 3.684671401977539
0, 0, 1, 1.36213219165802
0, 0, 2, 6.452476024627686
0, 0, 3, 3.369281053543091
0, 0, 4, 4.506777286529541
0, 0, 5, 2.550318717956543
0, 0, 6, 6.067095279693604
0, 0, 7, 10.69342994689941
0, 0, 8, 3.483298540115356
0, 0, 9, 3.148565769195557
0, 0, 10, 8.508355140686035
0, 0, 11, 4.349045276641846
0, 0, 12, 4.987001895904541
0, 0, 13, 8.279312133789062
0, 0, 14, 7.082918643951416
0, 0, 15, 9.610275268554688
0, 0, 16, 8.024565696716309
0, 0, 17, 10.7626314163208
0, 0, 18, 16.94904518127441
0, 0, 19, 43.29109954833984
0, 0, 20, 140.9582366943359
0, 0, 21, 223.0778198242188
0, 0, 22, 248.3764038085938
0, 0, 23, 257.7829284667969
0, 0, 24, 251.1119689941406
0, 0, 25, 259.8430480957031
0, 0, 26, 235.8675537109375
0, 0, 27, 237.0040130615234
0, 0, 28, 272.6655883789062
0, 0, 29, 251.5372772216797
0, 0, 30, 229.6546783447266
0, 0, 31, 243.724853515625
0, 0, 32, 263.6888122558594
0, 0, 33, 261.7764892578125
0, 0, 34, 290.3442687988281
0, 0, 35, 268.2040710449219
0, 0, 36, 245.5695648193359
0, 0, 37, 252.0711212158203
0, 0, 38, 268.6989440917969
0, 0, 39, 229.3675994873047
0, 0, 40, 240.3226928710938
0, 0, 41, 266.5848999023438
0, 0, 42, 231.5275421142578
0, 0, 43, 260.9135437011719
0, 0, 44, 251.6622467041016
0, 0, 45, 252.7404479980469
0, 0, 46, 243.6141967773438
0, 0, 47, 253.226806640625
0, 0, 48, 266.548583984375
0, 0, 49, 273.5433044433594
0, 0, 50, 250.8585968017578
0, 0, 51, 252.7483215332031
0, 0, 52, 273.351318359375
0, 0, 53, 290.9051208496094
0, 0, 54, 243.5582122802734
0, 0, 55, 240.2070922851562
0, 0, 56, 277.3448486328125
0, 0, 57, 264.1348876953125
0, 0, 58, 245.0161895751953
0, 0, 59, 271.2552490234375
0, 0, 60, 234.2653503417969
0, 0, 61, 246.8843536376953
0, 0, 62, 258.774169921875
0, 0, 63, 266.0323791503906
0, 0, 64, 255.3898773193359
0, 0, 65, 260.3263244628906
0, 0, 66, 275.9736022949219
0, 0, 67, 248.3491058349609
0, 0, 68, 258.410400390625
0, 0, 69, 263.9707336425781
0, 0, 70, 270.8172912597656
0, 0, 71, 236.9227752685547
0, 0, 72, 250.2037658691406
0, 0, 73, 258.1699829101562
0, 0, 74, 252.7630462646484
0, 0, 75, 240.4313812255859
0, 0, 76, 227.5418243408203
0, 0, 77, 259.656005859375
0, 0, 78, 256.3306274414062
0, 0, 79, 277.962646484375
0, 0, 80, 217.525390625
0, 0, 81, 267.6585388183594
0, 0, 82, 258.663818359375
0, 0, 83, 243.4172210693359
0, 0, 84, 270.579833984375
0, 0, 85, 232.1709747314453
0, 0, 86, 253.4950256347656
0, 0, 87, 250.1794891357422
0, 0, 88, 262.7696838378906
0, 0, 89, 283.4782409667969
0, 0, 90, 244.9179992675781
0, 0, 91, 280.9689025878906
0, 0, 92, 254.9793395996094
0, 0, 93, 250.2704315185547
0, 0, 94, 248.9445037841797
0, 0, 95, 247.7297210693359
0, 0, 96, 276.5296325683594
0, 0, 97, 272.1068115234375
0, 0, 98, 273.1978759765625
0, 0, 99, 260.5858154296875
0, 0, 100, 257.2453918457031
0, 0, 101, 225.0283508300781
0, 0, 102, 234.7136993408203
0, 0, 103, 269.1270446777344
0, 0, 104, 253.4841766357422
0, 0, 105, 252.0351257324219
0, 0, 106, 248.6468963623047
0, 0, 107, 155.6730041503906
0, 0, 108, 38.32287216186523
0, 0, 109, 13.51656246185303
0, 0, 110, 13.05274105072021
0, 0, 111, 10.48455142974854
0, 0, 112, 7.811164379119873
0, 0, 113, 6.41349983215332
0, 0, 114, 6.648094177246094
0, 0, 115, 5.702281951904297
0, 0, 116, 5.866106510162354
0, 0, 117, 5.802637100219727
0, 0, 118, 6.394879341125488
0, 0, 119, 4.692920684814453
0, 0, 120, 3.607432126998901
0, 0, 121, 4.462200164794922
0, 0, 122, 3.250792026519775
0, 0, 123, 2.95848822593689
0, 0, 124, 5.661865711212158
0, 0, 125, 4.009584903717041
0, 0, 126, 4.853846073150635
0, 0, 127, 3.551546335220337
0, 1, 0, 7.757188320159912
0, 1, 1, 3.073052406311035
0, 1, 2, 4.114206790924072
0, 1, 3, 2.275319814682007
0, 1, 4, 2.649780035018921
0, 1, 5, 2.323389291763306
0, 1, 6, 3.48630952835083
0, 1, 7, 4.784629344940186
0, 1, 8, 6.200104713439941
0, 1, 9, 4.349750995635986
0, 1, 10, 7.135768890380859
0, 1, 11, 12.99784851074219
0, 1, 12, 7.840070247650146
0, 1, 13, 10.13913822174072
0, 1, 14, 7.624591827392578
0, 1, 15, 7.482899188995361
0, 1, 16, 10.98012638092041
0, 1, 17, 9.958115577697754
0, 1, 18, 20.1732292175293
0, 1, 19, 66.09899139404297
0, 1, 20, 199.5697326660156
0, 1, 21, 254.8111419677734
0, 1, 22, 295.2843017578125
0, 1, 23, 284.9471740722656
0, 1, 24, 276.0769958496094
0, 1, 25, 287.702392578125
0, 1, 26, 270.3558044433594
0, 1, 27, 307.0401916503906
0, 1, 28, 300.8547668457031
0, 1, 29, 295.4698791503906
0, 1, 30, 279.9310913085938
0, 1, 31, 292.7403259277344
0, 1, 32, 290.1921081542969
0, 1, 33, 296.6337280273438
0, 1, 34, 291.4059448242188
0, 1, 35, 279.2460632324219
0, 1, 36, 308.9082641601562
0, 1, 37, 296.9293823242188
0, 1, 38, 278.87060546875
0, 1, 39, 295.537353515625
0, 1, 40, 265.2876892089844
0, 1, 41, 285.072265625
0, 1, 42, 288.8196105957031
0, 1, 43, 333.8533020019531
0, 1, 44, 278.0960083007812
0, 1, 45, 291.8905334472656
0, 1, 46, 260.5975646972656
0, 1, 47, 309.8569946289062
0, 1, 48, 282.9901123046875
0, 1, 49, 305.3354187011719
0, 1, 50, 264.6513061523438
0, 1, 51, 272.5599975585938
0, 1, 52, 299.4616088867188
0, 1, 53, 305.1434936523438
0, 1, 54, 277.15380859375
0, 1, 55, 293.1896057128906
0, 1, 56, 278.2927551269531
0, 1, 57, 297.2685546875
0, 1, 58, 311.7016296386719
0, 1, 59, 295.7829895019531
0, 1, 60, 297.8736877441406
0, 1, 61, 274.84716796875
0, 1, 62, 308.3059692382812
0, 1, 63, 286.1681518554688
0, 1, 64, 292.3095092773438
0, 1, 65, 298.1956176757812
0, 1, 66, 292.9617309570312
0, 1, 67, 291.1152038574219
0, 1, 68, 279.1704711914062
0, 1, 69, 279.8065795898438
0, 1, 70, 270.5602722167969
0, 1, 71, 275.4989013671875
0, 1, 72, 285.82666015625
0, 1, 73, 307.1280212402344
0, 1, 74, 303.1383972167969
0, 1, 75, 294.3066711425781
0, 1, 76, 287.6038818359375
0, 1, 77, 290.1764831542969
0, 1, 78, 299.5094604492188
0, 1, 79, 300.3536987304688
0, 1, 80, 298.0624389648438
0, 1, 81, 299.8654479980469
0, 1, 82, 285.8956604003906
0, 1, 83, 332.8557434082031
0, 1, 84, 308.4500122070312
0, 1, 85, 252.8438568115234
0, 1, 86, 294.0232849121094
0, 1, 87, 289.5531005859375
0, 1, 88, 298.9032592773438
0, 1, 89, 290.2705688476562
0, 1, 90, 269.3819885253906
0, 1, 91, 318.8959350585938
0, 1, 92, 290.25927734375
0, 1, 93, 286.2975158691406
0, 1, 94, 302.6766052246094
0, 1, 95, 285.3058166503906
0, 1, 96, 282.8479614257812
0, 1, 97, 301.0723266601562
0, 1, 98, 276.4381103515625
0, 1, 99, 264.7662048339844
0, 1, 100, 277.1246032714844
0, 1, 101, 282.399658203125
0, 1, 102, 278.56982421875
0, 1, 103, 280.9807434082031
0, 1, 104, 304.9979248046875
0, 1, 105, 296.8714599609375
0, 1, 106, 260.7789306640625
0, 1, 107, 191.5158386230469
0, 1, 108, 82.18328857421875
0, 1, 109, 23.45215797424316
0, 1, 110, 11.26436710357666
0, 1, 111, 8.836429595947266
0, 1, 112, 12.24344444274902
0, 1, 113, 5.074801921844482
0, 1, 114, 7.450924396514893
0, 1, 115, 7.309296131134033
0, 1, 116, 13.22967720031738
0, 1, 117, 6.587653636932373
0, 1, 118, 4.6446852684021
0, 1, 119, 6.730602264404297
0, 1, 120, 5.666685581207275
0, 1, 121, 4.324042320251465
0, 1, 122, 3.246842622756958
0, 1, 123, 3.921306848526001
0, 1, 124, 7.578551769256592
0, 1, 125, 5.232203483581543
0, 1, 126, 4.161230087280273
0, 1, 127, 3.248528003692627
0, 2, 0, 4.542446136474609
0, 2, 1, 3.277640104293823
0, 2, 2, 4.47280740737915
0, 2, 3, 4.180721759796143
0, 2, 4, 2.689001560211182
0, 2, 5, 1.389920353889465
0, 2, 6, 2.663788318634033
0, 2, 7, 4.168632507324219
0, 2, 8, 4.64387035369873
0, 2, 9, 8.884879112243652
0, 2, 10, 7.938281536102295
0, 2, 11, 8.357133865356445
0, 2, 12, 6.425239086151123
0, 2, 13, 11.24431133270264
0, 2, 14, 8.880552291870117
0, 2, 15, 9.893410682678223
0, 2, 16, 9.497232437133789
0, 2, 17, 17.2138671875
0, 2, 18, 32.95194244384766
0, 2, 19, 116.8003921508789
0, 2, 20, 244.5888519287109
0, 2, 21, 273.9586486816406
0, 2, 22, 315.5883483886719
0, 2, 23, 300.39599609375
0, 2, 24, 288.6437683105469
0, 2, 25, 301.3607177734375
0, 2, 26, 292.1934204101562
0, 2, 27, 275.8808288574219
0, 2, 28, 272.6278686523438
0, 2, 29, 275.6734008789062
0, 2, 30, 291.44921875
0, 2, 31, 277.9830627441406
0, 2, 32, 294.173095703125
0, 2, 33, 281.2285461425781
0, 2, 34, 334.6111145019531
0, 2, 35, 289.4346008300781
0, 2, 36, 301.0184631347656
0, 2, 37, 315.3034973144531
0, 2, 38, 309.2352294921875
0, 2, 39, 268.1118469238281
0, 2, 40, 308.2464599609375
0, 2, 41, 293.3558654785156
0, 2, 42, 303.0694274902344
0, 2, 43, 310.027099609375
0, 2, 44, 310.2549133300781
0, 2, 45, 325.0567626953125
0, 2, 46, 288.2958068847656
0, 2, 47, 303.5600891113281
0, 2, 48, 282.073486328125
0, 2, 49, 279.4624938964844
0, 2, 50, 298.1279602050781
0, 2, 51, 284.8551635742188
0, 2, 52, 272.9243469238281
0, 2, 53, 290.8952331542969
0, 2, 54, 280.2257690429688
0, 2, 55, 276.140625
0, 2, 56, 302.4568481445312
0, 2, 57, 292.0755615234375
0, 2, 58, 300.6385192871094
0, 2, 59, 290.4144592285156
0, 2, 60, 319.6944885253906
0, 2, 61, 301.4028625488281
0, 2, 62, 315.6624145507812
0, 2, 63, 303.9968566894531
0, 2, 64, 297.1287841796875
0, 2, 65, 312.8631896972656
0, 2, 66, 278.7652587890625
0, 2, 67, 290.8363037109375
0, 2, 68, 295.7145690917969
0, 2, 69, 312.5310363769531
0, 2, 70, 333.1233520507812
0, 2, 71, 284.5496826171875
0, 2, 72, 304.0892944335938
0, 2, 73, 310.6824951171875
0, 2, 74, 286.2977294921875
0, 2, 75, 306.105224609375
0, 2, 76, 286.2307434082031
0, 2, 77, 299.717529296875
0, 2, 78, 315.7028503417969
0, 2, 79, 308.7474365234375
0, 2, 80, 296.4541320800781
0, 2, 81, 283.6009521484375
0, 2, 82, 317.9967956542969
0, 2, 83, 312.5960388183594
0, 2, 84, 289.9680480957031
0, 2, 85, 282.3906555175781
0, 2, 86, 325.3978576660156
0, 2, 87, 287.9651184082031
0, 2, 88, 280.322021484375
0, 2, 89, 297.3056335449219
0, 2, 90, 295.4164123535156
0, 2, 91, 274.9019470214844
0, 2, 92, 303.9546813964844
0, 2, 93, 315.5651245117188
0, 2, 94, 291.5531921386719
0, 2, 95, 316.3482360839844
0, 2, 96, 317.2100830078125
0, 2, 97, 290.9891357421875
0, 2, 98, 294.8859252929688
0, 2, 99, 272.955322265625
0, 2, 100, 305.4527893066406
0, 2, 101, 300.1054077148438
0, 2, 102, 295.8645629882812
0, 2, 103, 291.2450256347656
0, 2, 104, 292.1697387695312
0, 2, 105, 276.0919494628906
0, 2, 106, 298.2122802734375
0, 2, 107, 271.755859375
0, 2, 108, 116.6391448974609
0, 2, 109, 31.94606018066406
0, 2, 110, 10.29085350036621
0, 2, 111, 11.37397480010986
0, 2, 112, 7.970241069793701
0, 2, 113, 9.593827247619629
0, 2, 114, 11.07961177825928
0, 2, 115, 10.38918590545654
0, 2, 116, 10.04393291473389
0, 2, 117, 6.227800369262695
0, 2, 118, 1.633334398269653
0, 2, 119, 5.377867221832275
0, 2, 120, 3.657907485961914
0, 2, 121, 1.694148540496826
0, 2, 122, 4.429770946502686
0, 2, 123, 3.416864395141602
0, 2, 124, 2.562384128570557
0, 2, 125, 5.495262145996094
0, 2, 126, 5.247820377349854
0, 2, 127, 3.70223331451416
0, 3, 0, 3.496301412582397
0, 3, 1, 3.603900194168091
0, 3, 2, 3.087215185165405
0, 3, 3, 2.416535377502441
0, 3, 4, 3.684284210205078
0, 3, 5, 5.896725654602051
0, 3, 6, 6.379816055297852
0, 3, 7, 4.615907669067383
0, 3, 8, 9.032004356384277
0, 3, 9, 6.271601676940918
0, 3, 10, 6.474443435668945
0, 3, 11, 3.374878883361816
0, 3, 12, 5.970273971557617
0, 3, 13, 16.27335548400879
0, 3, 14, 12.06762504577637
0, 3, 15, 16.13681983947754
0, 3, 16, 11.30609893798828
0, 3, 17, 19.81538009643555
0, 3, 18, 51.1729621887207
0, 3, 19, 180.4690551757812
0, 3, 20, 270.8802185058594
0, 3, 21, 271.9106140136719
0, 3, 22, 280.7415466308594
0, 3, 23, 287.1454162597656
0, 3, 24, 286.49267578125
0, 3, 25, 269.9302978515625
0, 3, 26, 303.2781066894531
0, 3, 27, 291.3095397949219
0, 3, 28, 280.4170227050781
0, 3, 29, 338.1784362792969
0, 3, 30, 320.6486511230469
0, 3, 31, 285.2741088867188
0, 3, 32, 306.4672546386719
0, 3, 33, 314.7897338867188
0, 3, 34, 326.1133728027344
0, 3, 35, 307.5976867675781
0, 3, 36, 267.325439453125
0, 3, 37, 314.6150817871094
0, 3, 38, 304.1617736816406
0, 3, 39, 289.686279296875
0, 3, 40, 267.0076599121094
0, 3, 41, 299.2611389160156
0, 3, 42, 286.2407836914062
0, 3, 43, 305.4341125488281
0, 3, 44, 311.3721313476562
0, 3, 45, 289.8758850097656
0, 3, 46, 331.4064636230469
0, 3, 47, 301.7376098632812
0, 3, 48, 302.8866882324219
0, 3, 49, 277.407470703125
0, 3, 50, 290.6859436035156
0, 3, 51, 278.1802062988281
0, 3, 52, 315.5104675292969
0, 3, 53, 287.9485778808594
0, 3, 54, 286.8948974609375
0, 3, 55, 283.513671875
0, 3, 56, 296.9855346679688
0, 3, 57, 287.9706115722656
0, 3, 58, 306.1232299804688
0, 3, 59, 295.5942077636719
0, 3, 60, 297.2352905273438
0, 3, 61, 263.8230285644531
0, 3, 62, 282.2125549316406
0, 3, 63, 310.01708984375
0, 3, 64, 315.92578125
0, 3, 65, 308.2640380859375
0, 3, 66, 314.2667846679688
0, 3, 67, 317.8187255859375
0, 3, 68, 278.8947143554688
0, 3, 69, 282.3662109375
0, 3, 70, 291.4573059082031
0, 3, 71, 299.0194396972656
0, 3, 72, 268.7200927734375
0, 3, 73, 309.2268676757812
0, 3, 74, 291.91357421875
0, 3, 75, 289.3974304199219
0, 3, 76, 306.0159606933594
0, 3, 77, 312.605224609375
0, 3, 78, 303.7353210449219
0, 3, 79, 283.457763671875
0, 3, 80, 290.5333557128906
0, 3, 81, 308.4978942871094
0, 3, 82, 317.0667114257812
0, 3, 83, 299.9761047363281
0, 3, 84, 313.2844848632812
0, 3, 85, 294.0843200683594
0, 3, 86, 301.482666015625
0, 3, 87, 299.8444519042969
0, 3, 88, 299.2453002929688
0, 3, 89, 297.3157348632812
0, 3, 90, 277.1172485351562
0, 3, 91, 282.8997497558594
0, 3, 92, 307.9443054199219
0, 3, 93, 312.4012756347656
0, 3, 94, 297.9111938476562
0, 3, 95, 334.6941833496094
0, 3, 96, 290.8936462402344
0, 3, 97, 283.490478515625
0, 3, 98, 277.2919006347656
0, 3, 99, 261.7740783691406
0, 3, 100, 283.7693786621094
0, 3, 101, 297.9564208984375
0, 3, 102, 276.1151733398438
0, 3, 103, 323.1229248046875
0, 3, 104, 307.7238464355469
0, 3, 105, 288.9168090820312
0, 3, 106, 300.9430541992188
0, 3, 107, 281.3464965820312
0, 3, 108, 166.9002532958984
0, 3, 109, 57.33544540405273
0, 3, 110, 17.64854049682617
0, 3, 111, 13.0758752822876
0, 3, 112, 11.42294120788574
0, 3, 113, 6.34757137298584
0, 3, 114, 9.735034942626953
0, 3, 115, 8.01870059967041
0, 3, 116, 8.323975563049316
0, 3, 117, 6.835265159606934
0, 3, 118, 5.727612495422363
0, 3, 119, 5.262005805969238
0, 3, 120, 7.075328350067139
0, 3, 121, 2.408370494842529
0, 3, 122, 3.541112661361694
0, 3, 123, 8.52299690246582
0, 3, 124, 3.476011276245117
0, 3, 125, 5.698623657226562
0, 3, 126, 3.22870945930481
0, 3, 127, 2.980307817459106
0, 4, 0, 3.00802755355835
0, 4, 1, 4.652119159698486
0, 4, 2, 2.417901039123535
0, 4, 3, 2.765168190002441
0, 4, 4, 4.919201374053955
0, 4, 5, 8.855327606201172
0, 4, 6, 6.480834484100342
0, 4, 7, 5.68487548828125
0, 4, 8, 2.902599573135376
0, 4, 9, 6.087215900421143
0, 4, 10, 7.044697284698486
0, 4, 11, 6.002644062042236
0, 4, 12, 6.276799201965332
0, 4, 13, 7.407899856567383
0, 4, 14, 11.56821632385254
0, 4, 15, 10.5799674987793
0, 4, 16, 12.77293586730957
0, 4, 17, 18.92228889465332
0, 4, 18, 96.21074676513672
0, 4, 19, 222.8756866455078
0, 4, 20, 282.929443359375
0, 4, 21, 272.8501281738281
0, 4, 22, 304.5325012207031
0, 4, 23, 265.9234313964844
0, 4, 24, 291.9165344238281
0, 4, 25, 275.3230285644531
0, 4, 26, 295.266357421875
0, 4, 27, 282.4453430175781
0, 4, 28, 304.8625183105469
0, 4, 29, 322.3159790039062
0, 4, 30, 309.8079223632812
0, 4, 31, 304.4436950683594
0, 4, 32, 282.5662841796875
0, 4, 33, 295.0146484375
0, 4, 34, 299.1013793945312
0, 4, 35, 313.5753173828125
0, 4, 36, 296.63232421875
0, 4, 37, 287.1915283203125
0, 4, 38, 298.5318603515625
0, 4, 39, 293.6443786621094
0, 4, 40, 305.07080078125
0, 4, 41, 312.9860229492188
0, 4, 42, 331.4263610839844
0, 4, 43, 296.4578552246094
0, 4, 44, 322.555908203125
0, 4, 45, 329.99853515625
0, 4, 46, 305.1604614257812
0, 4, 47, 291.6006469726562
0, 4, 48, 296.3669128417969
0, 4, 49, 278.7019348144531
0, 4, 50, 296.449462890625
0, 4, 51, 318.5422973632812
0, 4, 52, 326.1583251953125
0, 4, 53, 303.3272705078125
0, 4, 54, 288.1990051269531
0, 4, 55, 315.2077331542969
0, 4, 56, 285.36181640625
0, 4, 57, 309.1669311523438
0, 4, 58, 296.6627807617188
0, 4, 59, 307.3973693847656
0, 4, 60, 302.0638122558594
0, 4, 61, 315.3832092285156
0, 4, 62, 310.7939758300781
0, 4, 63, 301.6431274414062
0, 4, 64, 329.5069580078125
0, 4, 65, 315.8712463378906
0, 4, 66, 293.7203674316406
0, 4, 67, 284.3089294433594
0, 4, 68, 313.2159423828125
0, 4, 69, 275.7441101074219
0, 4, 70, 302.0296325683594
0, 4, 71, 319.6879577636719
0, 4, 72, 331.181640625
0, 4, 73, 297.831787109375
0, 4, 74, 292.2189331054688
0, 4, 75, 288.6176452636719
0, 4, 76, 274.1766662597656
0, 4, 77, 279.4324951171875
0, 4, 78, 306.7666931152344
0, 4, 79, 318.4588928222656
0, 4, 80, 317.0755920410156
0, 4, 81, 313.1926879882812
0, 4, 82, 298.5829162597656
0, 4, 83, 299.3296203613281
0, 4, 84, 291.2018432617188
0, 4, 85, 296.0437927246094
0, 4, 86, 300.1099853515625
0, 4, 87, 284.8784790039062
0, 4, 88, 305.2507019042969
0, 4, 89, 294.2400817871094
0, 4, 90, 332.194091796875
0, 4, 91, 300.5534973144531
0, 4, 92, 289.6384582519531
0, 4, 93, 299.9446411132812
0, 4, 94, 291.0990600585938
0, 4, 95, 289.6083068847656
0, 4, 96, 323.8431396484375
0, 4, 97, 273.4461669921875
0, 4, 98, 326.0326538085938
0, 4, 99, 312.8775939941406
0, 4, 100, 300.2064514160156
0, 4, 101, 257.8924865722656
0, 4, 102, 297.1459350585938
0, 4, 103, 316.3783569335938
0, 4, 104, 280.3949279785156
0, 4, 105, 310.7998657226562
0, 4, 106, 289.3482055664062
0, 4, 107, 294.172607421875
0, 4, 108, 225.9034729003906
0, 4, 109, 79.78340148925781
0, 4, 110, 17.76134300231934
0, 4, 111, 13.75789165496826
0, 4, 112, 10.53189849853516
0, 4, 113, 9.812639236450195
0, 4, 114, 8.527058601379395
0, 4, 115, 9.798669815063477
0, 4, 116, 8.838189125061035
0, 4, 117, 8.783944129943848
0, 4, 118, 9.547859191894531
0, 4, 119, 7.995827674865723
0, 4, 120, 6.217998504638672
0, 4, 121, 3.836247444152832
0, 4, 122, 4.60451602935791
0, 4, 123, 7.841460227966309
0, 4, 124, 4.144278526306152
0, 4, 125, 11.05991554260254
0, 4, 126, 6.425190925598145
0, 4, 127, 3.080926179885864
0, 5, 0, 3.079335689544678
0, 5, 1, 4.558802127838135
0, 5, 2, 3.110328435897827
0, 5, 3, 4.146100044250488
0, 5, 4, 5.440099716186523
0, 5, 5, 6.822257041931152
0, 5, 6, 9.289052963256836
0, 5, 7, 6.846292495727539
0, 5, 8, 6.749548435211182
0, 5, 9, 8.537138938903809
0, 5, 10, 7.111166954040527
0, 5, 11, 8.872598648071289
0, 5, 12, 8.719032287597656
0, 5, 13, 9.192074775695801
0, 5, 14, 12.31246757507324
0, 5, 15, 17.04227256774902
0, 5, 16, 13.7764368057251
0, 5, 17, 28.28996849060059
0, 5, 18, 138.0626525878906
0, 5, 19, 286.897705078125
0, 5, 20, 306.1170959472656
0, 5, 21, 317.8947448730469
0, 5, 22, 274.4007568359375
0, 5, 23, 311.0758056640625
0, 5, 24, 301.5862121582031
0, 5, 25, 289.5025939941406
0, 5, 26, 296.0504150390625
0, 5, 27, 321.6708679199219
0, 5, 28, 301.8256530761719
0, 5, 29, 297.8431396484375
0, 5, 30, 323.0333557128906
0, 5, 31, 288.1697998046875
0, 5, 32, 302.0191955566406
0, 5, 33, 303.3653869628906
0, 5, 34, 294.5538330078125
0, 5, 35, 312.2705688476562
0, 5, 36, 271.7223510742188
0, 5, 37, 282.3190002441406
0, 5, 38, 292.3391723632812
0, 5, 39, 309.4127502441406
0, 5, 40, 307.7581176757812
0, 5, 41, 274.4660949707031
0, 5, 42, 305.0284118652344
0, 5, 43, 313.2991027832031
0, 5, 44, 292.3842468261719
0, 5, 45, 301.9432373046875
0, 5, 46, 264.2457885742188
0, 5, 47, 281.5206909179688
0, 5, 48, 291.7791748046875
0, 5, 49, 284.9537963867188
0, 5, 50, 294.6860961914062
0, 5, 51, 279.5648193359375
0, 5, 52, 268.7413940429688
0, 5, 53, 283.9490051269531
0, 5, 54, 291.7973937988281
0, 5, 55, 345.3026733398438
0, 5, 56, 305.6482238769531
0, 5, 57, 307.3464660644531
0, 5, 58, 313.0557556152344
0, 5, 59, 304.4470520019531
0, 5, 60, 306.8896484375
0, 5, 61, 281.2282104492188
0, 5, 62, 327.9149475097656
0, 5, 63, 290.5652770996094
0, 5, 64, 322.3755798339844
0, 5, 65, 308.0749206542969
0, 5, 66, 327.0817260742188
0, 5, 67, 312.500244140625
0, 5, 68, 306.6410827636719
0, 5, 69, 311.7292785644531
0, 5, 70, 300.1072082519531
0, 5, 71, 273.4718933105469
0, 5, 72, 314.7223510742188
0, 5, 73, 301.8529052734375
0, 5, 74, 297.0459289550781
0, 5, 75, 294.7778625488281
0, 5, 76, 285.6194458007812
0, 5, 77, 298.3031005859375
0, 5, 78, 316.5001220703125
0, 5, 79, 309.2022094726562
0, 5, 80, 295.5444030761719
0, 5, 81, 324.6778564453125
0, 5, 82, 323.410400390625
0, 5, 83, 281.4731750488281
0, 5, 84, 299.3283081054688
0, 5, 85, 270.1813354492188
0, 5, 86, 324.2931518554688
0, 5, 87, 284.431640625
0, 5, 88, 313.6616516113281
0, 5, 89, 304.1396789550781
0, 5, 90, 316.5208435058594
0, 5, 91, 312.3939208984375
0, 5, 92, 295.0850830078125
0, 5, 93, 323.95458984375
0, 5, 94, 308.4268188476562
0, 5, 95, 297.3572082519531
0, 5, 96, 299.5644836425781
0, 5, 97, 298.3128051757812
0, 5, 98, 318.4609985351562
0, 5, 99, 303.2389831542969
0, 5, 100, 289.7712707519531
0, 5, 101, 305.3588562011719
0, 5, 102, 296.0032653808594
0, 5, 103, 314.6732788085938
0, 5, 104, 304.2009887695312
0, 5, 105, 291.8379821777344
0, 5, 106, 282.0818481445312
0, 5, 107, 295.5101013183594
0, 5, 108, 265.8320922851562
0, 5, 109, 155.8323364257812
0, 5, 110, 39.73056793212891
0, 5, 111, 19.88386726379395
0, 5, 112, 13.93950176239014
0, 5, 113, 13.69048404693604
0, 5, 114, 11.19249629974365
0, 5, 115, 8.338718414306641
0, 5, 116, 10.1870813369751
0, 5, 117, 6.611300945281982
0, 5, 118, 14.27634429931641
0, 5, 119, 5.163130760192871
0, 5, 120, 9.164298057556152
0, 5, 121, 7.029297828674316
0, 5, 122, 5.833899021148682
0, 5, 123, 8.300456047058105
0, 5, 124, 5.025937557220459
0, 5, 125, 4.012382030487061
0, 5, 126, 5.587100982666016
0, 5, 127, 5.405279159545898
0, 6, 0, 3.512983083724976
0, 6, 1, 3.814160823822021
0, 6, 2, 4.969398975372314
0, 6, 3, 4.613090991973877
0, 6, 4, 2.479151964187622
0, 6, 5, 5.608141422271729
0, 6, 6, 7.83800220489502
0, 6, 7, 6.257818698883057
0, 6, 8, 8.076663017272949
0, 6, 9, 4.907745838165283
0, 6, 10, 7.100470542907715
0, 6, 11, 7.817551136016846
0, 6, 12, 8.866275787353516
0, 6, 13, 13.1441707611084
0, 6, 14, 11.53823757171631
0, 6, 15, 15.73615169525146
0, 6, 16, 28.41195297241211
0, 6, 17, 53.33742904663086
0, 6, 18, 174.4765319824219
0, 6, 19, 275.9166564941406
0, 6, 20, 291.6694946289062
0, 6, 21, 314.9328002929688
0, 6, 22, 322.5050964355469
0, 6, 23, 305.088623046875
0, 6, 24, 315.8326110839844
0, 6, 25, 317.0614624023438
0, 6, 26, 319.1903991699219
0, 6, 27, 331.7733459472656
0, 6, 28, 295.191650390625
0, 6, 29, 332.3927917480469
0, 6, 30, 281.3215942382812
0, 6, 31, 287.3607177734375
0, 6, 32, 339.2364501953125
0, 6, 33, 298.7987670898438
0, 6, 34, 340.29638671875
0, 6, 35, 320.1751098632812
0, 6, 36, 274.8087158203125
0, 6, 37, 288.3670654296875
0, 6, 38, 310.57958984375
0, 6, 39, 298.9646911621094
0, 6, 40, 284.3164672851562
0, 6, 41, 297.12890625
0, 6, 42, 303.1468200683594
0, 6, 43, 290.1388244628906
0, 6, 44, 280.9248352050781
0, 6, 45, 319.4623718261719
0, 6, 46, 301.8681945800781
0, 6, 47, 337.5404968261719
0, 6, 48, 293.3556518554688
0, 6, 49, 312.2836608886719
0, 6, 50, 329.0018615722656
0, 6, 51, 309.1609191894531
0, 6, 52, 319.914306640625
0, 6, 53, 329.9714050292969
0, 6, 54, 307.0750732421875
0, 6, 55, 303.6628723144531
0, 6, 56, 295.1990356445312
0, 6, 57, 312.8007202148438
0, 6, 58, 260.5061645507812
0, 6, 59, 303.2605285644531
0, 6, 60, 312.8636474609375
0, 6, 61, 271.2585754394531
0, 6, 62, 336.236328125
0, 6, 63, 324.4877624511719
0, 6, 64, 293.820068359375
0, 6, 65, 283.0903625488281
0, 6, 66, 302.8689270019531
0, 6, 67, 309.6189575195312
0, 6, 68, 292.32861328125
0, 6, 69, 280.0995178222656
0, 6, 70, 274.979248046875
0, 6, 71, 290.12109375
0, 6, 72, 309.5919494628906
0, 6, 73, 291.8164367675781
0, 6, 74, 330.1910095214844
0, 6, 75, 343.2510681152344
0, 6, 76, 295.9833679199219
0, 6, 77, 287.3543090820312
0, 6, 78, 279.7590026855469
0, 6, 79, 292.2323608398438
0, 6, 80, 298.311767578125
0, 6, 81, 313.4690246582031
0, 6, 82, 320.2266235351562
0, 6, 83, 318.768798828125
0, 6, 84, 296.3111572265625
0, 6, 85, 300.8143005371094
0, 6, 86, 330.6995849609375
0, 6, 87, 290.4685668945312
0, 6, 88, 306.0952453613281
0, 6, 89, 306.254150390625
0, 6, 90, 300.8287658691406
0, 6, 91, 312.3040161132812
0, 6, 92, 284.4171447753906
0, 6, 93, 296.7741088867188
0, 6, 94, 273.1208190917969
0, 6, 95, 300.0721740722656
0, 6, 96, 347.7983703613281
0, 6, 97, 307.3124389648438
0, 6, 98, 301.7180480957031
0, 6, 99, 273.2001342773438
0, 6, 100, 308.0326232910156
0, 6, 101, 292.7381286621094
0, 6, 102, 308.7225341796875
0, 6, 103, 309.7162475585938
0, 6, 104, 292.6820983886719
0, 6, 105, 301.56201171875
0, 6, 106, 305.9495544433594
0, 6, 107, 306.3408508300781
0, 6, 108, 265.5138549804688
0, 6, 109, 189.6630401611328
0, 6, 110, 55.53597640991211
0, 6, 111, 20.92229461669922
0, 6, 112, 13.92913341522217
0, 6, 113, 12.15785121917725
0, 6, 114, 11.28547668457031
0, 6, 115, 10.54343414306641
0, 6, 116, 10.38029766082764
0, 6, 117, 8.873188018798828
0, 6, 118, 8.46978759765625
0, 6, 119, 7.964506149291992
0, 6, 120, 7.102697849273682
0, 6, 121, 6.965771198272705
0, 6, 122, 7.020440101623535
0, 6, 123, 4.988068580627441
0, 6, 124, 7.082262516021729
0, 6, 125, 7.941647052764893
0, 6, 126, 4.737401962280273
0, 6, 127, 5.843902111053467
0, 7, 0, 6.430733680725098
0, 7, 1, 3.898629426956177
0, 7, 2, 7.504279136657715
0, 7, 3, 4.824368476867676
0, 7, 4, 3.73975658416748
0, 7, 5, 7.866264820098877
0, 7, 6, 6.114242553710938
0, 7, 7, 5.965080261230469
0, 7, 8, 4.400936126708984
0, 7, 9, 4.870981216430664
0, 7, 10, 8.359268188476562
0, 7, 11, 11.12950420379639
0, 7, 12, 8.757657051086426
0, 7, 13, 11.07108497619629
0, 7, 14, 10.43256187438965
0, 7, 15, 15.16238975524902
0, 7, 16, 26.78557395935059
0, 7, 17, 96.31413269042969
0, 7, 18, 218.8750762939453
0, 7, 19, 289.2798461914062
0, 7, 20, 297.8095092773438
0, 7, 21, 276.1444702148438
0, 7, 22, 299.6864318847656
0, 7, 23, 288.5645141601562
0, 7, 24, 316.34423828125
0, 7, 25, 325.8094177246094
0, 7, 26, 278.0955200195312
0, 7, 27, 298.8603820800781
0, 7, 28, 327.899169921875
0, 7, 29, 318.1227416992188
0, 7, 30, 301.293212890625
0, 7, 31, 277.6240234375
0, 7, 32, 305.0340576171875
0, 7, 33, 263.169677734375
0, 7, 34, 296.6060791015625
0, 7, 35, 320.0428161621094
0, 7, 36, 331.3033752441406
0, 7, 37, 324.6448059082031
0, 7, 38, 296.3119506835938
0, 7, 39, 305.84130859375
0, 7, 40, 289.0635070800781
0, 7, 41, 273.593505859375
0, 7, 42, 299.9171142578125
0, 7, 43, 274.6103820800781
0, 7, 44, 304.8145446777344
0, 7, 45, 294.810302734375
0, 7, 46, 281.025634765625
0, 7, 47, 326.9502868652344
0, 7, 48, 285.5982055664062
0, 7, 49, 302.6727905273438
0, 7, 50, 321.3393859863281
0, 7, 51, 298.4136352539062
0, 7, 52, 326.7543334960938
0, 7, 53, 312.0508728027344
0, 7, 54, 322.7090759277344
0, 7, 55, 307.1289978027344
0, 7, 56, 279.8879699707031
0, 7, 57, 281.9410095214844
0, 7, 58, 294.2037658691406
0, 7, 59, 293.3413391113281
0, 7, 60, 322.048828125
0, 7, 61, 277.4708557128906
0, 7, 62, 297.8428955078125
0, 7, 63, 292.7267761230469
0, 7, 64, 305.6725769042969
0, 7, 65, 329.0039978027344
0, 7, 66, 318.9414672851562
0, 7, 67, 302.1508483886719
0, 7, 68, 281.6095886230469
0, 7, 69, 294.1921691894531
0, 7, 70, 302.7307739257812
0, 7, 71, 311.3874816894531
0, 7, 72, 285.6348876953125
0, 7, 73, 294.7168884277344
0, 7, 74, 344.8933410644531
0, 7, 75, 321.7588806152344
0, 7, 76, 322.4512939453125
0, 7, 77, 280.1817321777344
0, 7, 78, 301.1155090332031
0, 7, 79, 298.166259765625
0, 7, 80, 312.488037109375
0, 7, 81, 317.8114929199219
0, 7, 82, 329.3164367675781
0, 7, 83, 317.5697631835938
0, 7, 84, 310.84326171875
0, 7, 85, 271.5685119628906
0, 7, 86, 313.7306823730469
0, 7, 87, 309.9065551757812
0, 7, 88, 307.7812194824219
0, 7, 89, 291.8934631347656
0, 7, 90, 305.2325134277344
0, 7, 91, 315.6033325195312
0, 7, 92, 288.0069885253906
0, 7, 93, 308.5779113769531
0, 7, 94, 273.8013000488281
0, 7, 95, 297.2108154296875
0, 7, 96, 332.1282348632812
0, 7, 97, 294.7564086914062
0, 7, 98, 290.5186767578125
0, 7, 99, 312.6002502441406
0, 7, 100, 285.4360046386719
0, 7, 101, 276.7156372070312
0, 7, 102, 290.6633605957031
0, 7, 103, 291.1354064941406
0, 7, 104, 273.3171081542969
0, 7, 105, 305.4706115722656
0, 7, 106, 318.3098449707031
0, 7, 107, 297.4088439941406
0, 7, 108, 273.7835693359375
0, 7, 109, 236.3505096435547
0, 7, 110, 96.50812530517578
0, 7, 111, 23.72951507568359
0, 7, 112, 14.53026580810547
0, 7, 113, 13.77956295013428
0, 7, 114, 10.963454246521
0, 7, 115, 14.58649826049805
0, 7, 116, 6.533429145812988
0, 7, 117, 7.517628192901611
0, 7, 118, 9.839968681335449
0, 7, 119, 4.084625244140625
0, 7, 120, 4.227760791778564
0, 7, 121, 7.186023235321045
0, 7, 122, 8.466362953186035
0, 7, 123, 4.905315399169922
0, 7, 124, 4.00572395324707
0, 7, 125, 6.360351085662842
0, 7, 126, 8.244793891906738
0, 7, 127, 1.832022905349731
0, 8, 0, 3.129116535186768
0, 8, 1, 5.17018461227417
0, 8, 2, 4.967749118804932
0, 8, 3, 4.16023063659668
0, 8, 4, 4.682431697845459
0, 8, 5, 3.841797590255737
0, 8, 6, 6.624678611755371
0, 8, 7, 5.049710750579834
0, 8, 8, 7.922056674957275
0, 8, 9, 6.006247520446777
0, 8, 10, 7.850099563598633
0, 8, 11, 13.9721508026123
0, 8, 12, 12.56291484832764
0, 8, 13, 16.06282997131348
0, 8, 14, 13.02295398712158
0, 8, 15, 17.34388732910156
0, 8, 16, 32.42867660522461
0, 8, 17, 130.1079254150391
0, 8, 18, 243.2494049072266
0, 8, 19, 294.7402648925781
0, 8, 20, 287.1011047363281
0, 8, 21, 306.8357543945312
0, 8, 22, 296.4520568847656
0, 8, 23, 274.1246948242188
0, 8, 24, 267.4768676757812
0, 8, 25, 276.5711669921875
0, 8, 26, 306.1281127929688
0, 8, 27, 308.2818603515625
0, 8, 28, 308.7229614257812
0, 8, 29, 320.1968383789062
0, 8, 30, 315.5308837890625
0, 8, 31, 307.0065612792969
0, 8, 32, 280.6455383300781
0, 8, 33, 294.5236206054688
0, 8, 34, 290.2373046875
0, 8, 35, 277.0445251464844
0, 8, 36, 314.6871337890625
0, 8, 37, 338.4229431152344
0, 8, 38, 330.9941101074219
0, 8, 39, 281.96337890625
0, 8, 40, 303.8751220703125
