# TOPAS Version: 3.1.p3
# Parameter File: batch_inserts_180.txt
# Results for scorer Readout_Adipose
# Scored in component: MyBox
# X in 1 bin  of 0.75 cm
# Y in 512 bins of 0.0783984 cm
# Z in 128 bins of 0.078125 cm
# EnergyDeposit ( MeV ) : Sum   
0, 0, 0, 7.167227268218994
0, 0, 1, 3.161281824111938
0, 0, 2, 5.8020920753479
0, 0, 3, 2.579608917236328
0, 0, 4, 3.122743844985962
0, 0, 5, 4.076799869537354
0, 0, 6, 7.678175449371338
0, 0, 7, 8.567214965820312
0, 0, 8, 2.56240701675415
0, 0, 9, 4.612293720245361
0, 0, 10, 7.751834392547607
0, 0, 11, 4.778890609741211
0, 0, 12, 4.141413688659668
0, 0, 13, 5.5996994972229
0, 0, 14, 7.244939804077148
0, 0, 15, 10.33824253082275
0, 0, 16, 10.27401542663574
0, 0, 17, 8.440369606018066
0, 0, 18, 13.00947284698486
0, 0, 19, 43.23200225830078
0, 0, 20, 139.2160034179688
0, 0, 21, 223.1911010742188
0, 0, 22, 248.2363586425781
0, 0, 23, 256.1455383300781
0, 0, 24, 250.8499298095703
0, 0, 25, 257.8481140136719
0, 0, 26, 234.4275512695312
0, 0, 27, 237.1692657470703
0, 0, 28, 273.3960266113281
0, 0, 29, 251.3578338623047
0, 0, 30, 229.9132232666016
0, 0, 31, 243.4446716308594
0, 0, 32, 263.7035522460938
0, 0, 33, 261.7677001953125
0, 0, 34, 287.4026794433594
0, 0, 35, 266.5966491699219
0, 0, 36, 247.3129577636719
0, 0, 37, 252.3390197753906
0, 0, 38, 268.68408203125
0, 0, 39, 229.3559265136719
0, 0, 40, 241.9928436279297
0, 0, 41, 266.4314575195312
0, 0, 42, 230.2412719726562
0, 0, 43, 261.2271118164062
0, 0, 44, 254.2961578369141
0, 0, 45, 252.7523651123047
0, 0, 46, 243.3894500732422
0, 0, 47, 253.6762084960938
0, 0, 48, 265.7890930175781
0, 0, 49, 274.43701171875
0, 0, 50, 249.740966796875
0, 0, 51, 256.0294189453125
0, 0, 52, 273.2022399902344
0, 0, 53, 291.6500854492188
0, 0, 54, 241.6287078857422
0, 0, 55, 239.5674896240234
0, 0, 56, 276.5842895507812
0, 0, 57, 263.7599792480469
0, 0, 58, 246.0833892822266
0, 0, 59, 269.7627258300781
0, 0, 60, 234.6358184814453
0, 0, 61, 245.1925201416016
0, 0, 62, 261.6007385253906
0, 0, 63, 267.2469482421875
0, 0, 64, 255.8245697021484
0, 0, 65, 263.8130187988281
0, 0, 66, 277.1066589355469
0, 0, 67, 247.4487152099609
0, 0, 68, 259.1498718261719
0, 0, 69, 260.56884765625
0, 0, 70, 271.3717041015625
0, 0, 71, 238.2797698974609
0, 0, 72, 249.3816986083984
0, 0, 73, 257.6429138183594
0, 0, 74, 250.0799407958984
0, 0, 75, 242.7049407958984
0, 0, 76, 228.6746826171875
0, 0, 77, 259.6213073730469
0, 0, 78, 260.7757568359375
0, 0, 79, 277.6063537597656
0, 0, 80, 215.19189453125
0, 0, 81, 267.9335632324219
0, 0, 82, 255.9289703369141
0, 0, 83, 244.5615692138672
0, 0, 84, 268.2688903808594
0, 0, 85, 230.7598724365234
0, 0, 86, 253.3902435302734
0, 0, 87, 251.6512908935547
0, 0, 88, 261.0176696777344
0, 0, 89, 283.9924621582031
0, 0, 90, 243.9554901123047
0, 0, 91, 282.2177429199219
0, 0, 92, 253.2223510742188
0, 0, 93, 249.0855102539062
0, 0, 94, 248.3513946533203
0, 0, 95, 249.0360717773438
0, 0, 96, 276.3521728515625
0, 0, 97, 272.810302734375
0, 0, 98, 273.5696411132812
0, 0, 99, 257.9458618164062
0, 0, 100, 257.5780944824219
0, 0, 101, 227.1969146728516
0, 0, 102, 234.339111328125
0, 0, 103, 268.7501831054688
0, 0, 104, 254.3850402832031
0, 0, 105, 251.6807098388672
0, 0, 106, 245.5048065185547
0, 0, 107, 151.8568572998047
0, 0, 108, 37.36983871459961
0, 0, 109, 12.45991611480713
0, 0, 110, 11.8649959564209
0, 0, 111, 8.326779365539551
0, 0, 112, 5.898818492889404
0, 0, 113, 5.961733341217041
0, 0, 114, 8.775517463684082
0, 0, 115, 4.751857757568359
0, 0, 116, 6.950149059295654
0, 0, 117, 5.972726821899414
0, 0, 118, 7.690332889556885
0, 0, 119, 4.389980792999268
0, 0, 120, 3.611724853515625
0, 0, 121, 5.936610221862793
0, 0, 122, 3.109386205673218
0, 0, 123, 3.079200983047485
0, 0, 124, 5.146241664886475
0, 0, 125, 3.013691425323486
0, 0, 126, 5.013951301574707
0, 0, 127, 4.354043483734131
0, 1, 0, 7.401133060455322
0, 1, 1, 1.946442604064941
0, 1, 2, 4.058170318603516
0, 1, 3, 2.681432485580444
0, 1, 4, 4.398975372314453
0, 1, 5, 3.487360715866089
0, 1, 6, 6.234817981719971
0, 1, 7, 3.945665597915649
0, 1, 8, 7.073166847229004
0, 1, 9, 2.942307710647583
0, 1, 10, 7.190789699554443
0, 1, 11, 10.65520572662354
0, 1, 12, 7.438874244689941
0, 1, 13, 7.810741901397705
0, 1, 14, 8.571718215942383
0, 1, 15, 8.696015357971191
0, 1, 16, 10.74183559417725
0, 1, 17, 10.12637042999268
0, 1, 18, 20.48850059509277
0, 1, 19, 65.22154235839844
0, 1, 20, 202.155029296875
0, 1, 21, 256.0760498046875
0, 1, 22, 298.3079223632812
0, 1, 23, 284.4930114746094
0, 1, 24, 275.5384521484375
0, 1, 25, 286.7760620117188
0, 1, 26, 269.8388671875
0, 1, 27, 306.4613037109375
0, 1, 28, 297.9269409179688
0, 1, 29, 295.2232360839844
0, 1, 30, 280.2148742675781
0, 1, 31, 292.0269165039062
0, 1, 32, 291.260498046875
0, 1, 33, 297.7726745605469
0, 1, 34, 295.1257934570312
0, 1, 35, 278.1991577148438
0, 1, 36, 306.8568420410156
0, 1, 37, 296.0884094238281
0, 1, 38, 281.2787170410156
0, 1, 39, 295.5330505371094
0, 1, 40, 266.2068481445312
0, 1, 41, 287.0979309082031
0, 1, 42, 290.1680297851562
0, 1, 43, 332.38818359375
0, 1, 44, 279.4969177246094
0, 1, 45, 293.3397216796875
0, 1, 46, 261.4968872070312
0, 1, 47, 309.0202941894531
0, 1, 48, 285.1869812011719
0, 1, 49, 302.8464050292969
0, 1, 50, 262.8588256835938
0, 1, 51, 272.875732421875
0, 1, 52, 297.2873229980469
0, 1, 53, 303.7425842285156
0, 1, 54, 274.6765441894531
0, 1, 55, 295.0322265625
0, 1, 56, 281.0134582519531
0, 1, 57, 299.716064453125
0, 1, 58, 310.8759460449219
0, 1, 59, 291.1953430175781
0, 1, 60, 299.6282958984375
0, 1, 61, 274.5655822753906
0, 1, 62, 307.6766662597656
0, 1, 63, 285.32763671875
0, 1, 64, 288.3630065917969
0, 1, 65, 296.96533203125
0, 1, 66, 291.6041564941406
0, 1, 67, 292.6948852539062
0, 1, 68, 277.2008666992188
0, 1, 69, 280.6849670410156
0, 1, 70, 270.4736328125
0, 1, 71, 272.4181213378906
0, 1, 72, 286.7012329101562
0, 1, 73, 303.8271789550781
0, 1, 74, 306.3354187011719
0, 1, 75, 294.4423522949219
0, 1, 76, 286.9085693359375
0, 1, 77, 291.1551208496094
0, 1, 78, 297.1464233398438
0, 1, 79, 302.2193908691406
0, 1, 80, 296.2126159667969
0, 1, 81, 301.1732788085938
0, 1, 82, 282.8348083496094
0, 1, 83, 332.749755859375
0, 1, 84, 306.9208984375
0, 1, 85, 252.8509521484375
0, 1, 86, 293.8704833984375
0, 1, 87, 290.4148864746094
0, 1, 88, 296.6573486328125
0, 1, 89, 290.8028869628906
0, 1, 90, 270.7445373535156
0, 1, 91, 320.3790893554688
0, 1, 92, 289.2167053222656
0, 1, 93, 286.6181335449219
0, 1, 94, 303.6290283203125
0, 1, 95, 283.5831604003906
0, 1, 96, 283.0580444335938
0, 1, 97, 301.3599243164062
0, 1, 98, 279.8241271972656
0, 1, 99, 267.3779907226562
0, 1, 100, 277.31689453125
0, 1, 101, 280.6769104003906
0, 1, 102, 278.6011657714844
0, 1, 103, 281.2640991210938
0, 1, 104, 306.0234375
0, 1, 105, 296.3301391601562
0, 1, 106, 260.3276062011719
0, 1, 107, 191.2048187255859
0, 1, 108, 82.36895751953125
0, 1, 109, 24.20624732971191
0, 1, 110, 11.05471134185791
0, 1, 111, 8.525053977966309
0, 1, 112, 12.4672155380249
0, 1, 113, 5.877479076385498
0, 1, 114, 6.694218635559082
0, 1, 115, 6.406849384307861
0, 1, 116, 12.23938846588135
0, 1, 117, 4.861770629882812
0, 1, 118, 5.576022148132324
0, 1, 119, 3.855600118637085
0, 1, 120, 4.027336120605469
0, 1, 121, 3.258054256439209
0, 1, 122, 3.308848142623901
0, 1, 123, 3.897592306137085
0, 1, 124, 7.830727100372314
0, 1, 125, 4.584074020385742
0, 1, 126, 2.586269617080688
0, 1, 127, 2.568846464157104
0, 2, 0, 4.020442008972168
0, 2, 1, 1.95720899105072
0, 2, 2, 4.066941261291504
0, 2, 3, 4.300409317016602
0, 2, 4, 5.021376132965088
0, 2, 5, 2.241109132766724
0, 2, 6, 3.269749641418457
0, 2, 7, 4.15907096862793
0, 2, 8, 5.138810634613037
0, 2, 9, 4.871572017669678
0, 2, 10, 8.089055061340332
0, 2, 11, 4.606624126434326
0, 2, 12, 7.147706985473633
0, 2, 13, 10.24757385253906
0, 2, 14, 9.314183235168457
0, 2, 15, 8.646100044250488
0, 2, 16, 10.24196529388428
0, 2, 17, 16.34536170959473
0, 2, 18, 28.8625545501709
0, 2, 19, 114.9881744384766
0, 2, 20, 248.2200469970703
0, 2, 21, 270.2125244140625
0, 2, 22, 316.6450500488281
0, 2, 23, 300.9702453613281
0, 2, 24, 285.8807983398438
0, 2, 25, 301.8959350585938
0, 2, 26, 292.5320129394531
0, 2, 27, 274.7133178710938
0, 2, 28, 272.7428588867188
0, 2, 29, 274.4640502929688
0, 2, 30, 288.6455993652344
0, 2, 31, 276.6634826660156
0, 2, 32, 293.6665649414062
0, 2, 33, 283.5624084472656
0, 2, 34, 330.9470825195312
0, 2, 35, 288.8837585449219
0, 2, 36, 303.3699645996094
0, 2, 37, 313.9368896484375
0, 2, 38, 309.984130859375
0, 2, 39, 267.1441955566406
0, 2, 40, 308.7513732910156
0, 2, 41, 291.564208984375
0, 2, 42, 303.5065002441406
0, 2, 43, 312.0367431640625
0, 2, 44, 310.9063720703125
0, 2, 45, 324.5029907226562
0, 2, 46, 286.891845703125
0, 2, 47, 304.1358642578125
0, 2, 48, 280.5846252441406
0, 2, 49, 278.7254638671875
0, 2, 50, 294.03466796875
0, 2, 51, 284.940673828125
0, 2, 52, 271.4027404785156
0, 2, 53, 286.7885437011719
0, 2, 54, 280.7790832519531
0, 2, 55, 275.4515686035156
0, 2, 56, 303.2080383300781
0, 2, 57, 291.4207763671875
0, 2, 58, 301.9242553710938
0, 2, 59, 292.525390625
0, 2, 60, 318.0704650878906
0, 2, 61, 301.9984436035156
0, 2, 62, 313.2841796875
0, 2, 63, 303.5968017578125
0, 2, 64, 294.7318725585938
0, 2, 65, 313.4087829589844
0, 2, 66, 279.8410949707031
0, 2, 67, 292.1543273925781
0, 2, 68, 295.2914733886719
0, 2, 69, 310.7683715820312
0, 2, 70, 335.3160400390625
0, 2, 71, 283.8401794433594
0, 2, 72, 302.5519104003906
0, 2, 73, 311.7550048828125
0, 2, 74, 286.9398803710938
0, 2, 75, 306.5678405761719
0, 2, 76, 288.3664245605469
0, 2, 77, 298.9510192871094
0, 2, 78, 313.5155029296875
0, 2, 79, 307.5025024414062
0, 2, 80, 300.0528564453125
0, 2, 81, 283.0945739746094
0, 2, 82, 319.1942749023438
0, 2, 83, 314.9618835449219
0, 2, 84, 287.8260192871094
0, 2, 85, 283.2861633300781
0, 2, 86, 323.2398986816406
0, 2, 87, 285.631103515625
0, 2, 88, 279.7394714355469
0, 2, 89, 298.2334594726562
0, 2, 90, 295.1544799804688
0, 2, 91, 274.6193237304688
0, 2, 92, 306.4132995605469
0, 2, 93, 316.94140625
0, 2, 94, 293.1332702636719
0, 2, 95, 314.8348388671875
0, 2, 96, 315.0763854980469
0, 2, 97, 291.9004516601562
0, 2, 98, 295.1287841796875
0, 2, 99, 274.4615173339844
0, 2, 100, 306.1378479003906
0, 2, 101, 300.2464599609375
0, 2, 102, 297.6190185546875
0, 2, 103, 292.3958740234375
0, 2, 104, 291.7890930175781
0, 2, 105, 273.8148498535156
0, 2, 106, 300.7098388671875
0, 2, 107, 271.2971496582031
0, 2, 108, 116.3131942749023
0, 2, 109, 32.94758224487305
0, 2, 110, 9.839371681213379
0, 2, 111, 12.58923149108887
0, 2, 112, 8.241337776184082
0, 2, 113, 9.385982513427734
0, 2, 114, 8.643307685852051
0, 2, 115, 9.14378833770752
0, 2, 116, 8.618863105773926
0, 2, 117, 9.151752471923828
0, 2, 118, 2.579468250274658
0, 2, 119, 2.254882335662842
0, 2, 120, 6.070103645324707
0, 2, 121, 1.806258320808411
0, 2, 122, 5.83306360244751
0, 2, 123, 4.479595184326172
0, 2, 124, 5.358700275421143
0, 2, 125, 5.657371997833252
0, 2, 126, 4.968266487121582
0, 2, 127, 4.461384773254395
0, 3, 0, 3.897263050079346
0, 3, 1, 2.733087778091431
0, 3, 2, 5.739465236663818
0, 3, 3, 2.212594032287598
0, 3, 4, 6.748993873596191
0, 3, 5, 7.082170963287354
0, 3, 6, 8.29105281829834
0, 3, 7, 4.684641361236572
0, 3, 8, 6.990953922271729
0, 3, 9, 11.22991466522217
0, 3, 10, 6.231383323669434
0, 3, 11, 5.020291805267334
0, 3, 12, 8.127762794494629
0, 3, 13, 16.48856925964355
0, 3, 14, 11.48737335205078
0, 3, 15, 12.79699516296387
0, 3, 16, 12.59876823425293
0, 3, 17, 20.88955497741699
0, 3, 18, 54.53022384643555
0, 3, 19, 177.2347564697266
0, 3, 20, 268.9370727539062
0, 3, 21, 271.334716796875
0, 3, 22, 283.3936157226562
0, 3, 23, 285.4090881347656
0, 3, 24, 290.4461059570312
0, 3, 25, 269.8027954101562
0, 3, 26, 303.7625427246094
0, 3, 27, 292.1460571289062
0, 3, 28, 284.4545288085938
0, 3, 29, 338.7029113769531
0, 3, 30, 315.6794738769531
0, 3, 31, 286.9969482421875
0, 3, 32, 306.0763854980469
0, 3, 33, 313.4433898925781
0, 3, 34, 323.8440551757812
0, 3, 35, 306.2334899902344
0, 3, 36, 271.9306640625
0, 3, 37, 312.1969299316406
0, 3, 38, 306.5872497558594
0, 3, 39, 289.4256896972656
0, 3, 40, 266.108642578125
0, 3, 41, 301.4902648925781
0, 3, 42, 284.9462280273438
0, 3, 43, 306.7810363769531
0, 3, 44, 310.1694030761719
0, 3, 45, 290.3152160644531
0, 3, 46, 331.9010925292969
0, 3, 47, 298.8914794921875
0, 3, 48, 304.02294921875
0, 3, 49, 276.9289245605469
0, 3, 50, 291.3612670898438
0, 3, 51, 276.7797546386719
0, 3, 52, 314.0687255859375
0, 3, 53, 286.4178466796875
0, 3, 54, 283.1266784667969
0, 3, 55, 284.3477478027344
0, 3, 56, 299.1941223144531
0, 3, 57, 289.2121887207031
0, 3, 58, 306.4493103027344
0, 3, 59, 294.1657104492188
0, 3, 60, 298.3636474609375
0, 3, 61, 264.6317749023438
0, 3, 62, 283.0649108886719
0, 3, 63, 307.8726806640625
0, 3, 64, 317.0368041992188
0, 3, 65, 306.7645263671875
0, 3, 66, 315.0180969238281
0, 3, 67, 318.0872802734375
0, 3, 68, 281.1372375488281
0, 3, 69, 285.4275207519531
0, 3, 70, 289.326416015625
0, 3, 71, 301.2706298828125
0, 3, 72, 268.4885559082031
0, 3, 73, 308.6795654296875
0, 3, 74, 292.9187622070312
0, 3, 75, 289.4610900878906
0, 3, 76, 304.7216796875
0, 3, 77, 313.149169921875
0, 3, 78, 304.872802734375
0, 3, 79, 282.343017578125
0, 3, 80, 290.7079162597656
0, 3, 81, 313.1098022460938
0, 3, 82, 315.1000671386719
0, 3, 83, 301.0543518066406
0, 3, 84, 309.7215270996094
0, 3, 85, 294.50732421875
0, 3, 86, 303.5779113769531
0, 3, 87, 297.9996337890625
0, 3, 88, 298.0963745117188
0, 3, 89, 296.7957763671875
0, 3, 90, 277.0385131835938
0, 3, 91, 286.1133422851562
0, 3, 92, 305.248291015625
0, 3, 93, 312.1712341308594
0, 3, 94, 297.3285217285156
0, 3, 95, 335.408447265625
0, 3, 96, 290.5981140136719
0, 3, 97, 284.1136779785156
0, 3, 98, 278.050048828125
0, 3, 99, 261.0148620605469
0, 3, 100, 285.8552856445312
0, 3, 101, 297.0068054199219
0, 3, 102, 274.468994140625
0, 3, 103, 322.3437194824219
0, 3, 104, 309.8239440917969
0, 3, 105, 287.7989807128906
0, 3, 106, 303.510009765625
0, 3, 107, 282.7261352539062
0, 3, 108, 167.529541015625
0, 3, 109, 55.36496353149414
0, 3, 110, 18.11838722229004
0, 3, 111, 12.83972454071045
0, 3, 112, 13.51554679870605
0, 3, 113, 7.986698150634766
0, 3, 114, 9.771060943603516
0, 3, 115, 6.557199001312256
0, 3, 116, 9.681100845336914
0, 3, 117, 9.124248504638672
0, 3, 118, 7.514193534851074
0, 3, 119, 6.68612003326416
0, 3, 120, 8.359379768371582
0, 3, 121, 3.215744018554688
0, 3, 122, 3.713073015213013
0, 3, 123, 4.553670883178711
0, 3, 124, 5.574922561645508
0, 3, 125, 4.470062732696533
0, 3, 126, 6.001133918762207
0, 3, 127, 4.368752479553223
0, 4, 0, 2.197881937026978
0, 4, 1, 5.790088176727295
0, 4, 2, 4.303112506866455
0, 4, 3, 2.13246488571167
0, 4, 4, 6.034762859344482
0, 4, 5, 7.588302135467529
0, 4, 6, 5.845915794372559
0, 4, 7, 5.222141265869141
0, 4, 8, 3.903690576553345
0, 4, 9, 5.763760566711426
0, 4, 10, 6.048290729522705
0, 4, 11, 6.645452976226807
0, 4, 12, 7.737724304199219
0, 4, 13, 7.937427043914795
0, 4, 14, 14.0670862197876
0, 4, 15, 11.84517765045166
0, 4, 16, 13.22263813018799
0, 4, 17, 18.00602340698242
0, 4, 18, 92.96382904052734
0, 4, 19, 222.8273010253906
0, 4, 20, 284.8553771972656
0, 4, 21, 271.56982421875
0, 4, 22, 303.4035034179688
0, 4, 23, 267.2224426269531
0, 4, 24, 288.8077087402344
0, 4, 25, 271.7877197265625
0, 4, 26, 294.7626037597656
0, 4, 27, 282.6851196289062
0, 4, 28, 306.9620056152344
0, 4, 29, 324.051025390625
0, 4, 30, 309.1651611328125
0, 4, 31, 306.6628112792969
0, 4, 32, 280.2299499511719
0, 4, 33, 295.6387023925781
0, 4, 34, 299.5263366699219
0, 4, 35, 311.3044128417969
0, 4, 36, 291.82763671875
0, 4, 37, 288.902587890625
0, 4, 38, 298.4955749511719
0, 4, 39, 292.8192138671875
0, 4, 40, 302.50634765625
0, 4, 41, 312.3796691894531
0, 4, 42, 330.4223022460938
0, 4, 43, 295.8208923339844
0, 4, 44, 321.3250732421875
0, 4, 45, 323.5868530273438
0, 4, 46, 305.1809997558594
0, 4, 47, 292.5626831054688
0, 4, 48, 298.2721252441406
0, 4, 49, 276.8568115234375
0, 4, 50, 296.6532287597656
0, 4, 51, 315.3746337890625
0, 4, 52, 328.4692077636719
0, 4, 53, 303.8684997558594
0, 4, 54, 288.2272033691406
0, 4, 55, 315.6108093261719
0, 4, 56, 285.9371337890625
0, 4, 57, 309.7134399414062
0, 4, 58, 295.5094299316406
0, 4, 59, 308.0574645996094
0, 4, 60, 303.3733215332031
0, 4, 61, 316.02197265625
0, 4, 62, 309.6668395996094
0, 4, 63, 298.7266845703125
0, 4, 64, 332.0232849121094
0, 4, 65, 314.8866577148438
0, 4, 66, 293.5881652832031
0, 4, 67, 283.9182434082031
0, 4, 68, 312.6437377929688
0, 4, 69, 275.1249389648438
0, 4, 70, 299.2394104003906
0, 4, 71, 321.1451721191406
0, 4, 72, 333.1315307617188
0, 4, 73, 298.2662353515625
0, 4, 74, 291.3344116210938
0, 4, 75, 290.6419067382812
0, 4, 76, 277.0806274414062
0, 4, 77, 277.9577026367188
0, 4, 78, 309.1843872070312
0, 4, 79, 319.2355651855469
0, 4, 80, 316.47802734375
0, 4, 81, 312.9978332519531
0, 4, 82, 297.9127807617188
0, 4, 83, 300.4566040039062
0, 4, 84, 294.3292236328125
0, 4, 85, 295.3212280273438
0, 4, 86, 296.5270385742188
0, 4, 87, 284.7255554199219
0, 4, 88, 305.5536499023438
0, 4, 89, 297.2522277832031
0, 4, 90, 332.7277526855469
0, 4, 91, 303.9305725097656
0, 4, 92, 289.7325439453125
0, 4, 93, 296.4646911621094
0, 4, 94, 291.410400390625
0, 4, 95, 287.2410278320312
0, 4, 96, 322.8520202636719
0, 4, 97, 273.2410583496094
0, 4, 98, 328.8257751464844
0, 4, 99, 315.3023986816406
0, 4, 100, 300.2577209472656
0, 4, 101, 258.1058654785156
0, 4, 102, 297.8719787597656
0, 4, 103, 316.78515625
0, 4, 104, 284.8703002929688
0, 4, 105, 311.2116088867188
0, 4, 106, 287.6953735351562
0, 4, 107, 297.3467102050781
0, 4, 108, 225.3316497802734
0, 4, 109, 79.24696350097656
0, 4, 110, 15.41116142272949
0, 4, 111, 13.88421535491943
0, 4, 112, 7.809200286865234
0, 4, 113, 9.751608848571777
0, 4, 114, 9.114640235900879
0, 4, 115, 11.62212657928467
0, 4, 116, 11.41477203369141
0, 4, 117, 8.7314453125
0, 4, 118, 10.9830961227417
0, 4, 119, 8.998327255249023
0, 4, 120, 8.926212310791016
0, 4, 121, 6.152974128723145
0, 4, 122, 5.305124282836914
0, 4, 123, 6.937990665435791
0, 4, 124, 5.275008201599121
0, 4, 125, 8.947546005249023
0, 4, 126, 3.713697910308838
0, 4, 127, 3.50803279876709
0, 5, 0, 3.936394929885864
0, 5, 1, 4.173385620117188
0, 5, 2, 5.529761791229248
0, 5, 3, 3.502879619598389
0, 5, 4, 5.415519714355469
0, 5, 5, 10.35671138763428
0, 5, 6, 5.5701904296875
0, 5, 7, 4.558192253112793
0, 5, 8, 4.799131870269775
0, 5, 9, 5.112268447875977
0, 5, 10, 8.889145851135254
0, 5, 11, 7.707594871520996
0, 5, 12, 7.368382930755615
0, 5, 13, 6.146973609924316
0, 5, 14, 11.57268238067627
0, 5, 15, 18.09990119934082
0, 5, 16, 14.39788246154785
0, 5, 17, 29.96154022216797
0, 5, 18, 135.2693328857422
0, 5, 19, 287.1006164550781
0, 5, 20, 308.1473083496094
0, 5, 21, 317.3136596679688
0, 5, 22, 276.59326171875
0, 5, 23, 311.3900451660156
0, 5, 24, 301.6708984375
0, 5, 25, 291.0332641601562
0, 5, 26, 293.8828430175781
0, 5, 27, 320.4751586914062
0, 5, 28, 302.7024841308594
0, 5, 29, 301.0305786132812
0, 5, 30, 322.551025390625
0, 5, 31, 286.4680786132812
0, 5, 32, 303.1399841308594
0, 5, 33, 303.8094177246094
0, 5, 34, 295.6643981933594
0, 5, 35, 309.5284729003906
0, 5, 36, 271.5986633300781
0, 5, 37, 281.7420043945312
0, 5, 38, 293.9314575195312
0, 5, 39, 312.41015625
0, 5, 40, 307.0115966796875
0, 5, 41, 272.579345703125
0, 5, 42, 305.8617248535156
0, 5, 43, 313.0801391601562
0, 5, 44, 293.8649291992188
0, 5, 45, 301.6680603027344
0, 5, 46, 264.8953552246094
0, 5, 47, 278.5595703125
0, 5, 48, 294.0646667480469
0, 5, 49, 288.1404724121094
0, 5, 50, 295.1154479980469
0, 5, 51, 278.4398193359375
0, 5, 52, 270.7545776367188
0, 5, 53, 284.7245178222656
0, 5, 54, 290.0809936523438
0, 5, 55, 345.5751647949219
0, 5, 56, 306.1080322265625
0, 5, 57, 305.5743103027344
0, 5, 58, 312.8682250976562
0, 5, 59, 304.0303344726562
0, 5, 60, 305.9290161132812
0, 5, 61, 281.2361145019531
0, 5, 62, 325.4734497070312
0, 5, 63, 292.9483337402344
0, 5, 64, 324.8929748535156
0, 5, 65, 306.1807250976562
0, 5, 66, 327.9214477539062
0, 5, 67, 312.2986450195312
0, 5, 68, 312.131591796875
0, 5, 69, 312.3947448730469
0, 5, 70, 302.1748352050781
0, 5, 71, 272.9985656738281
0, 5, 72, 309.6717224121094
0, 5, 73, 301.118408203125
0, 5, 74, 295.3085327148438
0, 5, 75, 293.7848815917969
0, 5, 76, 285.47021484375
0, 5, 77, 297.2076416015625
0, 5, 78, 314.2991943359375
0, 5, 79, 308.6327514648438
0, 5, 80, 294.323974609375
0, 5, 81, 325.23046875
0, 5, 82, 325.3856201171875
0, 5, 83, 282.7550659179688
0, 5, 84, 302.0649108886719
0, 5, 85, 270.9702453613281
0, 5, 86, 327.4900817871094
0, 5, 87, 286.4266357421875
0, 5, 88, 313.2979431152344
0, 5, 89, 304.2720336914062
0, 5, 90, 317.3596801757812
0, 5, 91, 315.4391479492188
0, 5, 92, 297.980712890625
0, 5, 93, 322.4861450195312
0, 5, 94, 307.9432678222656
0, 5, 95, 296.3422546386719
0, 5, 96, 297.8578491210938
0, 5, 97, 296.2117919921875
0, 5, 98, 317.9837036132812
0, 5, 99, 302.0298461914062
0, 5, 100, 292.2327575683594
0, 5, 101, 305.1704406738281
0, 5, 102, 291.5942077636719
0, 5, 103, 313.4841003417969
0, 5, 104, 302.1515808105469
0, 5, 105, 292.0416259765625
0, 5, 106, 282.0392456054688
0, 5, 107, 295.8104858398438
0, 5, 108, 268.8544006347656
0, 5, 109, 156.6971130371094
0, 5, 110, 40.60731887817383
0, 5, 111, 19.39842414855957
0, 5, 112, 17.34758567810059
0, 5, 113, 15.25841331481934
0, 5, 114, 13.51183032989502
0, 5, 115, 5.593141078948975
0, 5, 116, 6.880380630493164
0, 5, 117, 6.999294281005859
0, 5, 118, 11.44268894195557
0, 5, 119, 3.936178684234619
0, 5, 120, 6.480384826660156
0, 5, 121, 4.577784538269043
0, 5, 122, 4.947228908538818
0, 5, 123, 5.166300296783447
0, 5, 124, 5.385866165161133
0, 5, 125, 4.147961139678955
0, 5, 126, 6.549772262573242
0, 5, 127, 3.275771856307983
0, 6, 0, 7.923366069793701
0, 6, 1, 4.202342987060547
0, 6, 2, 4.106310367584229
0, 6, 3, 4.989306926727295
0, 6, 4, 5.183500289916992
0, 6, 5, 4.778016567230225
0, 6, 6, 10.57177829742432
0, 6, 7, 5.200558185577393
0, 6, 8, 7.442502975463867
0, 6, 9, 6.135488510131836
0, 6, 10, 8.258724212646484
0, 6, 11, 8.523299217224121
0, 6, 12, 8.048347473144531
0, 6, 13, 12.84867858886719
0, 6, 14, 9.551746368408203
0, 6, 15, 15.86094188690186
0, 6, 16, 27.62393951416016
0, 6, 17, 55.57327651977539
0, 6, 18, 172.4372863769531
0, 6, 19, 278.3555603027344
0, 6, 20, 292.219970703125
0, 6, 21, 313.1898803710938
0, 6, 22, 318.6058654785156
0, 6, 23, 305.2603454589844
0, 6, 24, 315.735595703125
0, 6, 25, 315.1054382324219
0, 6, 26, 321.5262756347656
0, 6, 27, 330.3941040039062
0, 6, 28, 296.3050537109375
0, 6, 29, 330.2080688476562
0, 6, 30, 282.6571044921875
0, 6, 31, 286.2577514648438
0, 6, 32, 341.2674560546875
0, 6, 33, 302.9536437988281
0, 6, 34, 340.75634765625
0, 6, 35, 319.9391784667969
0, 6, 36, 273.6491088867188
0, 6, 37, 290.6212463378906
0, 6, 38, 311.5800476074219
0, 6, 39, 299.0812072753906
0, 6, 40, 284.4619750976562
0, 6, 41, 296.0615539550781
0, 6, 42, 305.9144897460938
0, 6, 43, 290.0675354003906
0, 6, 44, 279.5609436035156
0, 6, 45, 318.7302856445312
0, 6, 46, 300.2721862792969
0, 6, 47, 333.5766906738281
0, 6, 48, 291.5272216796875
0, 6, 49, 311.9255676269531
0, 6, 50, 328.2057189941406
0, 6, 51, 309.4847412109375
0, 6, 52, 321.80810546875
0, 6, 53, 327.341552734375
0, 6, 54, 303.3156433105469
0, 6, 55, 306.2637939453125
0, 6, 56, 293.5487976074219
0, 6, 57, 313.9832458496094
0, 6, 58, 261.6646118164062
0, 6, 59, 302.4296264648438
0, 6, 60, 312.2392578125
0, 6, 61, 270.5556030273438
0, 6, 62, 337.5196838378906
0, 6, 63, 322.9690551757812
0, 6, 64, 290.719482421875
0, 6, 65, 285.2828369140625
0, 6, 66, 302.6875610351562
0, 6, 67, 308.7029724121094
0, 6, 68, 294.0941162109375
0, 6, 69, 278.35595703125
0, 6, 70, 273.4461059570312
0, 6, 71, 289.2872924804688
0, 6, 72, 313.2230529785156
0, 6, 73, 292.1080627441406
0, 6, 74, 329.4580688476562
0, 6, 75, 343.3515014648438
0, 6, 76, 296.5230407714844
0, 6, 77, 287.3659362792969
0, 6, 78, 278.837158203125
0, 6, 79, 293.8628540039062
0, 6, 80, 298.6511535644531
0, 6, 81, 313.7564697265625
0, 6, 82, 320.9417419433594
0, 6, 83, 321.5296630859375
0, 6, 84, 295.8105773925781
0, 6, 85, 301.5490112304688
0, 6, 86, 330.7889099121094
0, 6, 87, 294.6199035644531
0, 6, 88, 305.1488342285156
0, 6, 89, 304.3200073242188
0, 6, 90, 298.8129577636719
0, 6, 91, 310.9769897460938
0, 6, 92, 284.9476623535156
0, 6, 93, 297.9778442382812
0, 6, 94, 271.2631530761719
0, 6, 95, 299.0311279296875
0, 6, 96, 346.6486206054688
0, 6, 97, 309.3689270019531
0, 6, 98, 300.7655029296875
0, 6, 99, 271.5782775878906
0, 6, 100, 311.0594482421875
0, 6, 101, 292.1167602539062
0, 6, 102, 307.9939270019531
0, 6, 103, 307.5065307617188
0, 6, 104, 291.7703247070312
0, 6, 105, 300.3374633789062
0, 6, 106, 308.4615173339844
0, 6, 107, 305.5507507324219
0, 6, 108, 266.9963989257812
0, 6, 109, 187.6028137207031
0, 6, 110, 55.11875915527344
0, 6, 111, 21.57027626037598
0, 6, 112, 12.27164745330811
0, 6, 113, 11.20750331878662
0, 6, 114, 13.37381076812744
0, 6, 115, 13.72799491882324
0, 6, 116, 8.423112869262695
0, 6, 117, 8.329068183898926
0, 6, 118, 11.03657341003418
0, 6, 119, 9.321758270263672
0, 6, 120, 7.883419036865234
0, 6, 121, 5.86014986038208
0, 6, 122, 8.379287719726562
0, 6, 123, 5.115914821624756
0, 6, 124, 7.788496494293213
0, 6, 125, 5.93185567855835
0, 6, 126, 2.797189950942993
0, 6, 127, 6.653567314147949
0, 7, 0, 5.252174377441406
0, 7, 1, 3.931298494338989
0, 7, 2, 5.773695945739746
0, 7, 3, 3.750983238220215
0, 7, 4, 5.441737174987793
0, 7, 5, 4.70404052734375
0, 7, 6, 5.926698207855225
0, 7, 7, 4.646317005157471
0, 7, 8, 5.155010223388672
0, 7, 9, 8.618412017822266
0, 7, 10, 9.68382453918457
0, 7, 11, 12.00246429443359
0, 7, 12, 11.48258304595947
0, 7, 13, 11.882493019104
0, 7, 14, 12.11840534210205
0, 7, 15, 15.73164463043213
0, 7, 16, 26.74986839294434
0, 7, 17, 98.39169311523438
0, 7, 18, 217.9567565917969
0, 7, 19, 290.4927673339844
0, 7, 20, 298.0528259277344
0, 7, 21, 277.2134094238281
0, 7, 22, 298.2656860351562
0, 7, 23, 288.8472900390625
0, 7, 24, 314.1671752929688
0, 7, 25, 324.9793701171875
0, 7, 26, 277.5817565917969
0, 7, 27, 299.7226867675781
0, 7, 28, 327.0618896484375
0, 7, 29, 317.94970703125
0, 7, 30, 302.9774475097656
0, 7, 31, 278.0314331054688
0, 7, 32, 305.2243041992188
0, 7, 33, 261.2431945800781
0, 7, 34, 297.7411804199219
0, 7, 35, 320.302978515625
0, 7, 36, 332.72705078125
0, 7, 37, 323.4801635742188
0, 7, 38, 295.4104309082031
0, 7, 39, 305.72705078125
0, 7, 40, 289.8600463867188
0, 7, 41, 272.5444030761719
0, 7, 42, 304.4138488769531
0, 7, 43, 275.4230651855469
0, 7, 44, 304.4461669921875
0, 7, 45, 296.5408935546875
0, 7, 46, 283.4767456054688
0, 7, 47, 329.463623046875
0, 7, 48, 286.4263000488281
0, 7, 49, 300.1485900878906
0, 7, 50, 323.134521484375
0, 7, 51, 299.6318969726562
0, 7, 52, 326.4813842773438
0, 7, 53, 308.7236022949219
0, 7, 54, 322.6635131835938
0, 7, 55, 306.1958312988281
0, 7, 56, 284.1278076171875
0, 7, 57, 284.4241943359375
0, 7, 58, 298.006103515625
0, 7, 59, 293.8129577636719
0, 7, 60, 323.3214416503906
0, 7, 61, 278.248046875
0, 7, 62, 296.8110656738281
0, 7, 63, 292.796875
0, 7, 64, 304.732421875
0, 7, 65, 329.6961975097656
0, 7, 66, 318.939453125
0, 7, 67, 300.8981323242188
0, 7, 68, 280.1769714355469
0, 7, 69, 293.8704528808594
0, 7, 70, 302.2666625976562
0, 7, 71, 311.8161926269531
0, 7, 72, 283.3079223632812
0, 7, 73, 294.2449951171875
0, 7, 74, 343.6337585449219
0, 7, 75, 318.5375061035156
0, 7, 76, 324.05126953125
0, 7, 77, 281.6105651855469
0, 7, 78, 298.5315246582031
0, 7, 79, 296.6085205078125
0, 7, 80, 311.5700378417969
0, 7, 81, 321.6068115234375
0, 7, 82, 332.3349914550781
0, 7, 83, 317.5378112792969
0, 7, 84, 310.3440246582031
0, 7, 85, 273.2282104492188
0, 7, 86, 310.9023132324219
0, 7, 87, 311.5902404785156
0, 7, 88, 307.8831481933594
0, 7, 89, 294.7623901367188
0, 7, 90, 306.6887817382812
0, 7, 91, 313.7703247070312
0, 7, 92, 287.4442749023438
0, 7, 93, 308.5629272460938
0, 7, 94, 275.3600769042969
0, 7, 95, 299.0572204589844
0, 7, 96, 330.5906066894531
0, 7, 97, 294.3616333007812
0, 7, 98, 291.1727600097656
0, 7, 99, 312.6461791992188
0, 7, 100, 283.2369995117188
0, 7, 101, 275.5640869140625
0, 7, 102, 291.5617065429688
0, 7, 103, 291.1576538085938
0, 7, 104, 274.3560180664062
0, 7, 105, 305.8365173339844
0, 7, 106, 321.3889465332031
0, 7, 107, 297.9172973632812
0, 7, 108, 275.1598815917969
0, 7, 109, 238.1806488037109
0, 7, 110, 96.08147430419922
0, 7, 111, 24.63518714904785
0, 7, 112, 13.91455268859863
0, 7, 113, 14.56258487701416
0, 7, 114, 12.41216278076172
0, 7, 115, 12.65602207183838
0, 7, 116, 10.69454288482666
0, 7, 117, 6.734832763671875
0, 7, 118, 7.335622310638428
0, 7, 119, 6.106904029846191
0, 7, 120, 5.805855274200439
0, 7, 121, 10.44429969787598
0, 7, 122, 5.880675315856934
0, 7, 123, 8.802690505981445
0, 7, 124, 3.626195907592773
0, 7, 125, 6.837427139282227
0, 7, 126, 9.37727165222168
0, 7, 127, 4.943378925323486
0, 8, 0, 6.266195297241211
0, 8, 1, 5.686573505401611
0, 8, 2, 2.418159008026123
0, 8, 3, 2.977600574493408
0, 8, 4, 4.555673122406006
0, 8, 5, 4.872588157653809
0, 8, 6, 6.511028289794922
0, 8, 7, 5.400736331939697
0, 8, 8, 9.510756492614746
0, 8, 9, 5.141802310943604
0, 8, 10, 6.58670711517334
0, 8, 11, 11.55033493041992
0, 8, 12, 15.1883659362793
0, 8, 13, 14.50841236114502
0, 8, 14, 13.61078453063965
0, 8, 15, 19.6030101776123
0, 8, 16, 32.5770378112793
0, 8, 17, 131.2383270263672
0, 8, 18, 242.1811828613281
0, 8, 19, 300.1616516113281
0, 8, 20, 285.9305725097656
0, 8, 21, 307.7308959960938
0, 8, 22, 294.4119262695312
0, 8, 23, 275.2839965820312
0, 8, 24, 269.3286743164062
0, 8, 25, 274.7432556152344
0, 8, 26, 306.1963195800781
0, 8, 27, 306.8037109375
0, 8, 28, 305.7357788085938
0, 8, 29, 320.1076354980469
0, 8, 30, 315.1824645996094
0, 8, 31, 304.3655090332031
0, 8, 32, 279.6917419433594
0, 8, 33, 293.22412109375
0, 8, 34, 288.8635864257812
0, 8, 35, 280.9563903808594
0, 8, 36, 316.6829223632812
0, 8, 37, 339.4256591796875
0, 8, 38, 332.0576477050781
0, 8, 39, 281.4089660644531
0, 8, 40, 304.7137451171875
