# TOPAS Version: 3.1.p3
# Parameter File: batch_inserts_122.txt
# Results for scorer Readout_Adipose
# Scored in component: MyBox
# X in 1 bin  of 0.75 cm
# Y in 512 bins of 0.0783984 cm
# Z in 128 bins of 0.078125 cm
# EnergyDeposit ( MeV ) : Sum   
0, 0, 0, 4.437563896179199
0, 0, 1, 2.478230237960815
0, 0, 2, 4.460171222686768
0, 0, 3, 3.662697076797485
0, 0, 4, 3.876309394836426
0, 0, 5, 2.285413265228271
0, 0, 6, 6.006670951843262
0, 0, 7, 9.505989074707031
0, 0, 8, 2.262165546417236
0, 0, 9, 4.503970146179199
0, 0, 10, 6.054641723632812
0, 0, 11, 4.690054416656494
0, 0, 12, 3.850699186325073
0, 0, 13, 7.109965801239014
0, 0, 14, 7.646454811096191
0, 0, 15, 9.501204490661621
0, 0, 16, 10.04481410980225
0, 0, 17, 8.514801979064941
0, 0, 18, 12.91622638702393
0, 0, 19, 43.4250373840332
0, 0, 20, 139.7157135009766
0, 0, 21, 223.0812072753906
0, 0, 22, 248.6978149414062
0, 0, 23, 255.7212066650391
0, 0, 24, 251.2294311523438
0, 0, 25, 259.9783020019531
0, 0, 26, 234.0455474853516
0, 0, 27, 236.9835052490234
0, 0, 28, 270.9127502441406
0, 0, 29, 252.6679382324219
0, 0, 30, 229.39794921875
0, 0, 31, 242.8275451660156
0, 0, 32, 263.2372131347656
0, 0, 33, 262.9609985351562
0, 0, 34, 290.6697082519531
0, 0, 35, 269.2287902832031
0, 0, 36, 247.41748046875
0, 0, 37, 254.9647369384766
0, 0, 38, 271.767822265625
0, 0, 39, 228.9640045166016
0, 0, 40, 241.5416412353516
0, 0, 41, 265.2786254882812
0, 0, 42, 227.9547424316406
0, 0, 43, 259.568115234375
0, 0, 44, 251.0580902099609
0, 0, 45, 251.9702606201172
0, 0, 46, 244.7919616699219
0, 0, 47, 254.8072662353516
0, 0, 48, 267.6572570800781
0, 0, 49, 273.4461364746094
0, 0, 50, 252.3890991210938
0, 0, 51, 255.7809753417969
0, 0, 52, 272.3471069335938
0, 0, 53, 291.8865356445312
0, 0, 54, 240.9700164794922
0, 0, 55, 241.5998840332031
0, 0, 56, 278.4933166503906
0, 0, 57, 261.7920227050781
0, 0, 58, 246.3500823974609
0, 0, 59, 271.0137939453125
0, 0, 60, 234.7252349853516
0, 0, 61, 245.6019287109375
0, 0, 62, 255.8748168945312
0, 0, 63, 265.9467163085938
0, 0, 64, 254.4340057373047
0, 0, 65, 262.6572570800781
0, 0, 66, 276.2767639160156
0, 0, 67, 246.0001373291016
0, 0, 68, 257.9091796875
0, 0, 69, 261.9172058105469
0, 0, 70, 273.9466552734375
0, 0, 71, 239.4656829833984
0, 0, 72, 251.5963439941406
0, 0, 73, 259.191650390625
0, 0, 74, 253.1375885009766
0, 0, 75, 241.7553863525391
0, 0, 76, 229.8375244140625
0, 0, 77, 262.1978759765625
0, 0, 78, 258.4291381835938
0, 0, 79, 277.271728515625
0, 0, 80, 215.1822204589844
0, 0, 81, 267.67236328125
0, 0, 82, 257.2596130371094
0, 0, 83, 245.346435546875
0, 0, 84, 269.7124328613281
0, 0, 85, 231.6538696289062
0, 0, 86, 252.2257995605469
0, 0, 87, 252.1502990722656
0, 0, 88, 259.6226806640625
0, 0, 89, 282.120361328125
0, 0, 90, 243.5177764892578
0, 0, 91, 283.3988952636719
0, 0, 92, 254.3048553466797
0, 0, 93, 249.0323791503906
0, 0, 94, 248.93310546875
0, 0, 95, 249.5535583496094
0, 0, 96, 274.3158264160156
0, 0, 97, 274.5519409179688
0, 0, 98, 275.0230407714844
0, 0, 99, 259.096435546875
0, 0, 100, 257.1226501464844
0, 0, 101, 227.2057647705078
0, 0, 102, 233.4226684570312
0, 0, 103, 267.8249816894531
0, 0, 104, 253.9821472167969
0, 0, 105, 254.5954284667969
0, 0, 106, 245.9196929931641
0, 0, 107, 153.3821716308594
0, 0, 108, 39.74353790283203
0, 0, 109, 11.49744606018066
0, 0, 110, 11.73552131652832
0, 0, 111, 10.7928991317749
0, 0, 112, 7.190701484680176
0, 0, 113, 5.928557395935059
0, 0, 114, 5.879173278808594
0, 0, 115, 6.46543025970459
0, 0, 116, 5.995965957641602
0, 0, 117, 6.925488471984863
0, 0, 118, 5.733859062194824
0, 0, 119, 4.900860786437988
0, 0, 120, 3.802177667617798
0, 0, 121, 2.548201560974121
0, 0, 122, 2.814927816390991
0, 0, 123, 2.567017078399658
0, 0, 124, 6.138500690460205
0, 0, 125, 4.723406314849854
0, 0, 126, 4.608744144439697
0, 0, 127, 2.492680072784424
0, 1, 0, 7.36546516418457
0, 1, 1, 2.366972684860229
0, 1, 2, 3.647849559783936
0, 1, 3, 1.411069869995117
0, 1, 4, 2.834624290466309
0, 1, 5, 5.141469478607178
0, 1, 6, 4.829765319824219
0, 1, 7, 4.384240627288818
0, 1, 8, 8.139586448669434
0, 1, 9, 4.533454418182373
0, 1, 10, 7.986980438232422
0, 1, 11, 12.75858688354492
0, 1, 12, 8.006931304931641
0, 1, 13, 8.652603149414062
0, 1, 14, 8.995882987976074
0, 1, 15, 7.869680404663086
0, 1, 16, 10.15197467803955
0, 1, 17, 11.07272720336914
0, 1, 18, 21.22031211853027
0, 1, 19, 66.57020568847656
0, 1, 20, 199.3180847167969
0, 1, 21, 254.3113098144531
0, 1, 22, 296.9815063476562
0, 1, 23, 282.3713684082031
0, 1, 24, 276.0226745605469
0, 1, 25, 287.1784362792969
0, 1, 26, 269.8556518554688
0, 1, 27, 305.4713439941406
0, 1, 28, 297.9048461914062
0, 1, 29, 294.7563781738281
0, 1, 30, 280.0643615722656
0, 1, 31, 290.6113586425781
0, 1, 32, 289.4458923339844
0, 1, 33, 296.6339416503906
0, 1, 34, 292.175537109375
0, 1, 35, 278.8551940917969
0, 1, 36, 308.490234375
0, 1, 37, 296.5223999023438
0, 1, 38, 280.4872436523438
0, 1, 39, 294.7835388183594
0, 1, 40, 265.7315368652344
0, 1, 41, 286.2500610351562
0, 1, 42, 289.7408142089844
0, 1, 43, 334.8607482910156
0, 1, 44, 277.8419189453125
0, 1, 45, 293.0625915527344
0, 1, 46, 259.4130859375
0, 1, 47, 309.1448364257812
0, 1, 48, 283.4055480957031
0, 1, 49, 303.370361328125
0, 1, 50, 261.6218872070312
0, 1, 51, 273.8539733886719
0, 1, 52, 294.7549438476562
0, 1, 53, 303.760986328125
0, 1, 54, 275.0921325683594
0, 1, 55, 295.8439025878906
0, 1, 56, 277.4476318359375
0, 1, 57, 297.6853942871094
0, 1, 58, 308.5155639648438
0, 1, 59, 293.138671875
0, 1, 60, 298.1118774414062
0, 1, 61, 275.4465942382812
0, 1, 62, 308.7033081054688
0, 1, 63, 285.5203247070312
0, 1, 64, 287.9378051757812
0, 1, 65, 294.3182373046875
0, 1, 66, 293.4997863769531
0, 1, 67, 291.7742309570312
0, 1, 68, 277.7467651367188
0, 1, 69, 278.6753234863281
0, 1, 70, 271.8373413085938
0, 1, 71, 275.5703430175781
0, 1, 72, 285.0204467773438
0, 1, 73, 304.2574462890625
0, 1, 74, 306.0365905761719
0, 1, 75, 293.2854614257812
0, 1, 76, 283.676025390625
0, 1, 77, 289.634765625
0, 1, 78, 296.3225402832031
0, 1, 79, 301.7545471191406
0, 1, 80, 296.4104919433594
0, 1, 81, 298.8793029785156
0, 1, 82, 282.1188354492188
0, 1, 83, 330.3703002929688
0, 1, 84, 307.8800964355469
0, 1, 85, 254.5408782958984
0, 1, 86, 293.580078125
0, 1, 87, 292.9246520996094
0, 1, 88, 300.1861877441406
0, 1, 89, 291.0969848632812
0, 1, 90, 271.1688537597656
0, 1, 91, 317.6430969238281
0, 1, 92, 291.08642578125
0, 1, 93, 286.955078125
0, 1, 94, 303.0033569335938
0, 1, 95, 284.6217956542969
0, 1, 96, 284.5542907714844
0, 1, 97, 304.2291259765625
0, 1, 98, 276.3822326660156
0, 1, 99, 267.6997985839844
0, 1, 100, 277.7080993652344
0, 1, 101, 281.2339477539062
0, 1, 102, 277.6415710449219
0, 1, 103, 280.6596069335938
0, 1, 104, 305.2208862304688
0, 1, 105, 296.8123474121094
0, 1, 106, 261.7073974609375
0, 1, 107, 190.0029296875
0, 1, 108, 80.53816986083984
0, 1, 109, 26.0782470703125
0, 1, 110, 10.88725280761719
0, 1, 111, 9.598458290100098
0, 1, 112, 12.90011405944824
0, 1, 113, 5.77881908416748
0, 1, 114, 6.757174015045166
0, 1, 115, 7.108104705810547
0, 1, 116, 10.51218318939209
0, 1, 117, 4.730282306671143
0, 1, 118, 4.554534435272217
0, 1, 119, 4.349108695983887
0, 1, 120, 6.994928359985352
0, 1, 121, 4.84562349319458
0, 1, 122, 4.476801872253418
0, 1, 123, 3.150036334991455
0, 1, 124, 9.308811187744141
0, 1, 125, 2.772959232330322
0, 1, 126, 1.52801525592804
0, 1, 127, 1.184622049331665
0, 2, 0, 4.783704280853271
0, 2, 1, 1.273262858390808
0, 2, 2, 4.418459892272949
0, 2, 3, 9.798971176147461
0, 2, 4, 2.462284564971924
0, 2, 5, 1.912747502326965
0, 2, 6, 2.746617078781128
0, 2, 7, 6.127714157104492
0, 2, 8, 5.137456893920898
0, 2, 9, 5.745933532714844
0, 2, 10, 7.281296730041504
0, 2, 11, 5.975168228149414
0, 2, 12, 6.234392642974854
0, 2, 13, 8.863046646118164
0, 2, 14, 10.49600887298584
0, 2, 15, 6.778612613677979
0, 2, 16, 8.316085815429688
0, 2, 17, 17.79039573669434
0, 2, 18, 30.99321174621582
0, 2, 19, 115.5609283447266
0, 2, 20, 248.0007781982422
0, 2, 21, 271.0990905761719
0, 2, 22, 316.0987854003906
0, 2, 23, 299.1968383789062
0, 2, 24, 288.5242919921875
0, 2, 25, 303.8201599121094
0, 2, 26, 295.7398986816406
0, 2, 27, 275.5199279785156
0, 2, 28, 275.9971313476562
0, 2, 29, 274.2771301269531
0, 2, 30, 289.1003723144531
0, 2, 31, 278.6097106933594
0, 2, 32, 294.4215393066406
0, 2, 33, 281.1435546875
0, 2, 34, 331.3151245117188
0, 2, 35, 289.4722595214844
0, 2, 36, 304.5600280761719
0, 2, 37, 315.4383544921875
0, 2, 38, 311.9131469726562
0, 2, 39, 264.6397705078125
0, 2, 40, 308.83251953125
0, 2, 41, 293.89990234375
0, 2, 42, 304.089599609375
0, 2, 43, 315.37841796875
0, 2, 44, 312.4487609863281
0, 2, 45, 324.598876953125
0, 2, 46, 287.2482604980469
0, 2, 47, 302.5059814453125
0, 2, 48, 280.0117797851562
0, 2, 49, 281.6548461914062
0, 2, 50, 295.0585327148438
0, 2, 51, 281.7604675292969
0, 2, 52, 271.8226013183594
0, 2, 53, 286.6916809082031
0, 2, 54, 281.126953125
0, 2, 55, 277.4117431640625
0, 2, 56, 300.9311218261719
0, 2, 57, 291.2952575683594
0, 2, 58, 300.4822387695312
0, 2, 59, 288.77490234375
0, 2, 60, 319.5091552734375
0, 2, 61, 301.8016967773438
0, 2, 62, 312.4986572265625
0, 2, 63, 302.4467468261719
0, 2, 64, 296.1521301269531
0, 2, 65, 314.0451354980469
0, 2, 66, 279.8932800292969
0, 2, 67, 291.1454772949219
0, 2, 68, 295.3841857910156
0, 2, 69, 311.8206176757812
0, 2, 70, 335.5045166015625
0, 2, 71, 286.353515625
0, 2, 72, 303.5439147949219
0, 2, 73, 311.6060791015625
0, 2, 74, 288.0699768066406
0, 2, 75, 305.41162109375
0, 2, 76, 288.5854797363281
0, 2, 77, 300.7982788085938
0, 2, 78, 315.2345886230469
0, 2, 79, 308.8930969238281
0, 2, 80, 297.5831298828125
0, 2, 81, 284.0124206542969
0, 2, 82, 319.8884887695312
0, 2, 83, 312.7088928222656
0, 2, 84, 287.9016418457031
0, 2, 85, 280.3885803222656
0, 2, 86, 325.4440002441406
0, 2, 87, 288.19140625
0, 2, 88, 280.2078552246094
0, 2, 89, 297.4617309570312
0, 2, 90, 295.1279602050781
0, 2, 91, 274.7796020507812
0, 2, 92, 305.5523681640625
0, 2, 93, 317.4967346191406
0, 2, 94, 291.7966918945312
0, 2, 95, 317.8873901367188
0, 2, 96, 314.8176879882812
0, 2, 97, 290.8311462402344
0, 2, 98, 292.0499572753906
0, 2, 99, 272.8602905273438
0, 2, 100, 306.3937377929688
0, 2, 101, 301.3620910644531
0, 2, 102, 298.2591247558594
0, 2, 103, 292.08349609375
0, 2, 104, 295.6136169433594
0, 2, 105, 274.110595703125
0, 2, 106, 297.4000549316406
0, 2, 107, 268.443603515625
0, 2, 108, 115.5135498046875
0, 2, 109, 34.37067794799805
0, 2, 110, 10.11854553222656
0, 2, 111, 13.3010368347168
0, 2, 112, 8.143780708312988
0, 2, 113, 13.24297904968262
0, 2, 114, 11.76622009277344
0, 2, 115, 9.382267951965332
0, 2, 116, 9.263784408569336
0, 2, 117, 8.290380477905273
0, 2, 118, 4.900485515594482
0, 2, 119, 4.031140804290771
0, 2, 120, 8.556192398071289
0, 2, 121, 3.794790506362915
0, 2, 122, 5.148122310638428
0, 2, 123, 5.801054954528809
0, 2, 124, 4.460378170013428
0, 2, 125, 6.334400177001953
0, 2, 126, 4.719954013824463
0, 2, 127, 6.007436752319336
0, 3, 0, 2.994982242584229
0, 3, 1, 3.319326400756836
0, 3, 2, 4.010085582733154
0, 3, 3, 1.791646242141724
0, 3, 4, 2.764348030090332
0, 3, 5, 7.644401073455811
0, 3, 6, 6.301215648651123
0, 3, 7, 4.682803153991699
0, 3, 8, 4.526367664337158
0, 3, 9, 6.322845935821533
0, 3, 10, 7.647738933563232
0, 3, 11, 4.751718521118164
0, 3, 12, 8.423642158508301
0, 3, 13, 14.80589008331299
0, 3, 14, 11.30203723907471
0, 3, 15, 15.42483806610107
0, 3, 16, 12.37808704376221
0, 3, 17, 21.42796325683594
0, 3, 18, 52.00791931152344
0, 3, 19, 175.3422241210938
0, 3, 20, 269.3022155761719
0, 3, 21, 271.064697265625
0, 3, 22, 282.2470703125
0, 3, 23, 286.341796875
0, 3, 24, 287.1815795898438
0, 3, 25, 271.5776977539062
0, 3, 26, 307.5226135253906
0, 3, 27, 292.6551818847656
0, 3, 28, 280.5904846191406
0, 3, 29, 339.1637268066406
0, 3, 30, 316.7332153320312
0, 3, 31, 285.9510803222656
0, 3, 32, 306.1565551757812
0, 3, 33, 314.9715576171875
0, 3, 34, 325.9688110351562
0, 3, 35, 306.5663146972656
0, 3, 36, 268.6866760253906
0, 3, 37, 315.4075317382812
0, 3, 38, 304.4478149414062
0, 3, 39, 290.5308532714844
0, 3, 40, 266.4617309570312
0, 3, 41, 299.7157592773438
0, 3, 42, 285.0258178710938
0, 3, 43, 307.9219665527344
0, 3, 44, 310.2910461425781
0, 3, 45, 292.3534851074219
0, 3, 46, 328.5994873046875
0, 3, 47, 300.5129699707031
0, 3, 48, 305.114990234375
0, 3, 49, 279.2516479492188
0, 3, 50, 290.0068969726562
0, 3, 51, 274.8636169433594
0, 3, 52, 316.6544494628906
0, 3, 53, 288.5365905761719
0, 3, 54, 286.3556823730469
0, 3, 55, 284.6676025390625
0, 3, 56, 298.8040771484375
0, 3, 57, 290.1179504394531
0, 3, 58, 306.0588684082031
0, 3, 59, 295.569091796875
0, 3, 60, 297.0106201171875
0, 3, 61, 265.4627075195312
0, 3, 62, 287.4434814453125
0, 3, 63, 308.716796875
0, 3, 64, 315.9932861328125
0, 3, 65, 306.0934143066406
0, 3, 66, 316.411865234375
0, 3, 67, 319.9901428222656
0, 3, 68, 279.7384948730469
0, 3, 69, 282.3519592285156
0, 3, 70, 288.1453857421875
0, 3, 71, 300.0401916503906
0, 3, 72, 269.8588562011719
0, 3, 73, 307.8374633789062
0, 3, 74, 293.3804321289062
0, 3, 75, 289.0586547851562
0, 3, 76, 307.3234252929688
0, 3, 77, 313.5293884277344
0, 3, 78, 303.251220703125
0, 3, 79, 281.440185546875
0, 3, 80, 290.7812805175781
0, 3, 81, 311.0153198242188
0, 3, 82, 318.4820861816406
0, 3, 83, 301.2052917480469
0, 3, 84, 311.8457336425781
0, 3, 85, 294.5692443847656
0, 3, 86, 302.1878356933594
0, 3, 87, 297.4180908203125
0, 3, 88, 303.7092895507812
0, 3, 89, 296.3605041503906
0, 3, 90, 276.9280700683594
0, 3, 91, 284.7634582519531
0, 3, 92, 304.0565490722656
0, 3, 93, 314.2887573242188
0, 3, 94, 297.6055908203125
0, 3, 95, 336.6845397949219
0, 3, 96, 290.1063537597656
0, 3, 97, 283.6752624511719
0, 3, 98, 277.3896484375
0, 3, 99, 261.1627807617188
0, 3, 100, 285.5483093261719
0, 3, 101, 296.7485046386719
0, 3, 102, 274.7557373046875
0, 3, 103, 320.9644470214844
0, 3, 104, 309.9075927734375
0, 3, 105, 287.0778198242188
0, 3, 106, 302.3331909179688
0, 3, 107, 282.8017578125
0, 3, 108, 167.1107330322266
0, 3, 109, 58.30179595947266
0, 3, 110, 17.4196605682373
0, 3, 111, 13.09610652923584
0, 3, 112, 11.53896141052246
0, 3, 113, 8.081656455993652
0, 3, 114, 10.60471248626709
0, 3, 115, 8.442873954772949
0, 3, 116, 10.92569828033447
0, 3, 117, 7.716440677642822
0, 3, 118, 8.262417793273926
0, 3, 119, 5.98570728302002
0, 3, 120, 8.789583206176758
0, 3, 121, 2.330050706863403
0, 3, 122, 2.180435657501221
0, 3, 123, 5.066786766052246
0, 3, 124, 3.701112508773804
0, 3, 125, 5.847784996032715
0, 3, 126, 5.209969997406006
0, 3, 127, 3.054712057113647
0, 4, 0, 3.897272825241089
0, 4, 1, 4.917840957641602
0, 4, 2, 2.805239915847778
0, 4, 3, 2.23651123046875
0, 4, 4, 5.619158267974854
0, 4, 5, 7.831957340240479
0, 4, 6, 6.139501094818115
0, 4, 7, 5.199950695037842
0, 4, 8, 3.783326148986816
0, 4, 9, 7.051371574401855
0, 4, 10, 5.700445175170898
0, 4, 11, 6.155050277709961
0, 4, 12, 5.350180625915527
0, 4, 13, 8.919224739074707
0, 4, 14, 10.5387487411499
0, 4, 15, 8.723027229309082
0, 4, 16, 13.41378307342529
0, 4, 17, 18.68024635314941
0, 4, 18, 93.25057983398438
0, 4, 19, 222.9188690185547
0, 4, 20, 283.9358520507812
0, 4, 21, 272.2550354003906
0, 4, 22, 304.42724609375
0, 4, 23, 267.7492065429688
0, 4, 24, 291.009765625
0, 4, 25, 271.5697631835938
0, 4, 26, 296.4706115722656
0, 4, 27, 284.6089172363281
0, 4, 28, 306.6842346191406
0, 4, 29, 323.7900085449219
0, 4, 30, 311.025634765625
0, 4, 31, 305.3772583007812
0, 4, 32, 280.6932373046875
0, 4, 33, 295.4978637695312
0, 4, 34, 296.0285034179688
0, 4, 35, 312.0657958984375
0, 4, 36, 292.6147766113281
0, 4, 37, 288.9123229980469
0, 4, 38, 305.4175720214844
0, 4, 39, 296.6541748046875
0, 4, 40, 301.7806396484375
0, 4, 41, 311.3492736816406
0, 4, 42, 328.5098266601562
0, 4, 43, 294.6104125976562
0, 4, 44, 318.6770935058594
0, 4, 45, 323.8405456542969
0, 4, 46, 306.4352722167969
0, 4, 47, 292.3084716796875
0, 4, 48, 294.8747253417969
0, 4, 49, 276.5258178710938
0, 4, 50, 295.3668823242188
0, 4, 51, 317.403076171875
0, 4, 52, 326.6589965820312
0, 4, 53, 304.4472351074219
0, 4, 54, 287.0388488769531
0, 4, 55, 314.4214782714844
0, 4, 56, 288.7741088867188
0, 4, 57, 310.9046936035156
0, 4, 58, 295.9685974121094
0, 4, 59, 308.4853210449219
0, 4, 60, 300.8947448730469
0, 4, 61, 317.7074890136719
0, 4, 62, 307.8446960449219
0, 4, 63, 298.3193359375
0, 4, 64, 330.3984069824219
0, 4, 65, 317.900390625
0, 4, 66, 293.3056030273438
0, 4, 67, 286.6664123535156
0, 4, 68, 311.5943298339844
0, 4, 69, 276.8677062988281
0, 4, 70, 299.8998107910156
0, 4, 71, 320.6618957519531
0, 4, 72, 332.418212890625
0, 4, 73, 299.9329833984375
0, 4, 74, 293.1512451171875
0, 4, 75, 288.4478759765625
0, 4, 76, 276.0027160644531
0, 4, 77, 276.475341796875
0, 4, 78, 309.7265930175781
0, 4, 79, 320.0492553710938
0, 4, 80, 316.5662841796875
0, 4, 81, 312.5912170410156
0, 4, 82, 297.6651000976562
0, 4, 83, 300.7226867675781
0, 4, 84, 290.17578125
0, 4, 85, 294.4256286621094
0, 4, 86, 297.0108947753906
0, 4, 87, 285.5812377929688
0, 4, 88, 306.376220703125
0, 4, 89, 294.3882446289062
0, 4, 90, 334.5136413574219
0, 4, 91, 302.4856872558594
0, 4, 92, 289.1658020019531
0, 4, 93, 296.7770385742188
0, 4, 94, 291.9864196777344
0, 4, 95, 288.9778747558594
0, 4, 96, 323.5859375
0, 4, 97, 274.3940734863281
0, 4, 98, 330.4223022460938
0, 4, 99, 313.1172180175781
0, 4, 100, 301.0643005371094
0, 4, 101, 258.6184692382812
0, 4, 102, 294.7566833496094
0, 4, 103, 316.4153747558594
0, 4, 104, 280.7461853027344
0, 4, 105, 313.962890625
0, 4, 106, 286.5992736816406
0, 4, 107, 295.4373779296875
0, 4, 108, 226.1500396728516
0, 4, 109, 79.65657806396484
0, 4, 110, 15.77985382080078
0, 4, 111, 13.74461460113525
0, 4, 112, 7.692300796508789
0, 4, 113, 9.521747589111328
0, 4, 114, 9.542428970336914
0, 4, 115, 10.20073795318604
0, 4, 116, 8.449767112731934
0, 4, 117, 5.556069850921631
0, 4, 118, 11.7645206451416
0, 4, 119, 8.455830574035645
0, 4, 120, 6.644659519195557
0, 4, 121, 6.492884635925293
0, 4, 122, 3.715363025665283
0, 4, 123, 5.208438873291016
0, 4, 124, 5.585357189178467
0, 4, 125, 10.22128963470459
0, 4, 126, 5.664815902709961
0, 4, 127, 3.72321343421936
0, 5, 0, 4.469930171966553
0, 5, 1, 4.90709924697876
0, 5, 2, 5.503213882446289
0, 5, 3, 3.437448501586914
0, 5, 4, 6.043068885803223
0, 5, 5, 7.159504413604736
0, 5, 6, 7.68301248550415
0, 5, 7, 3.86096715927124
0, 5, 8, 4.358215808868408
0, 5, 9, 5.576303958892822
0, 5, 10, 8.350922584533691
0, 5, 11, 9.739490509033203
0, 5, 12, 7.952379703521729
0, 5, 13, 4.841475963592529
0, 5, 14, 12.24627685546875
0, 5, 15, 16.89945220947266
0, 5, 16, 14.36184692382812
0, 5, 17, 29.93296051025391
0, 5, 18, 135.704345703125
0, 5, 19, 287.0475463867188
0, 5, 20, 309.8026428222656
0, 5, 21, 319.5726623535156
0, 5, 22, 275.2417907714844
0, 5, 23, 309.8683776855469
0, 5, 24, 302.6720581054688
0, 5, 25, 289.9488220214844
0, 5, 26, 298.2727966308594
0, 5, 27, 321.7706298828125
0, 5, 28, 303.5490112304688
0, 5, 29, 297.2117004394531
0, 5, 30, 323.5961608886719
0, 5, 31, 285.8345947265625
0, 5, 32, 304.2123718261719
0, 5, 33, 304.649658203125
0, 5, 34, 296.5286254882812
0, 5, 35, 308.4810485839844
0, 5, 36, 270.9580688476562
0, 5, 37, 282.3624877929688
0, 5, 38, 293.6396789550781
0, 5, 39, 311.5400390625
0, 5, 40, 308.4920654296875
0, 5, 41, 272.5255126953125
0, 5, 42, 308.6086120605469
0, 5, 43, 315.7069091796875
0, 5, 44, 291.7759399414062
0, 5, 45, 300.1280517578125
0, 5, 46, 265.863037109375
0, 5, 47, 279.9714965820312
0, 5, 48, 295.0809020996094
0, 5, 49, 285.8082885742188
0, 5, 50, 294.5332336425781
0, 5, 51, 280.4389953613281
0, 5, 52, 269.0911865234375
0, 5, 53, 284.3521118164062
0, 5, 54, 294.2290954589844
0, 5, 55, 344.9106750488281
0, 5, 56, 305.2875061035156
0, 5, 57, 307.1917114257812
0, 5, 58, 311.5800170898438
0, 5, 59, 302.5374755859375
0, 5, 60, 306.5010070800781
0, 5, 61, 281.2474060058594
0, 5, 62, 324.4812316894531
0, 5, 63, 291.0715026855469
0, 5, 64, 325.8628845214844
0, 5, 65, 307.7026977539062
0, 5, 66, 328.1381530761719
0, 5, 67, 315.5245666503906
0, 5, 68, 309.5091247558594
0, 5, 69, 311.6885070800781
0, 5, 70, 301.011962890625
0, 5, 71, 272.2257080078125
0, 5, 72, 309.5611877441406
0, 5, 73, 301.658935546875
0, 5, 74, 294.5956420898438
0, 5, 75, 294.6341247558594
0, 5, 76, 288.5421752929688
0, 5, 77, 297.2214660644531
0, 5, 78, 312.6110229492188
0, 5, 79, 308.415771484375
0, 5, 80, 294.9660339355469
0, 5, 81, 325.0504455566406
0, 5, 82, 323.4179077148438
0, 5, 83, 281.841552734375
0, 5, 84, 303.8402099609375
0, 5, 85, 272.5110473632812
0, 5, 86, 325.8453369140625
0, 5, 87, 286.7170715332031
0, 5, 88, 312.6916198730469
0, 5, 89, 304.0640563964844
0, 5, 90, 318.0516967773438
0, 5, 91, 314.3847961425781
0, 5, 92, 296.0669250488281
0, 5, 93, 322.2388305664062
0, 5, 94, 305.4768981933594
0, 5, 95, 296.3508911132812
0, 5, 96, 298.1069641113281
0, 5, 97, 295.8687438964844
0, 5, 98, 318.8527221679688
0, 5, 99, 302.4153137207031
0, 5, 100, 291.7433166503906
0, 5, 101, 304.1712341308594
0, 5, 102, 292.3414001464844
0, 5, 103, 312.4190368652344
0, 5, 104, 300.3240051269531
0, 5, 105, 290.8997192382812
0, 5, 106, 281.0758666992188
0, 5, 107, 292.8819885253906
0, 5, 108, 263.7285766601562
0, 5, 109, 158.5960388183594
0, 5, 110, 39.25373077392578
0, 5, 111, 20.9834041595459
0, 5, 112, 17.31268692016602
0, 5, 113, 13.56004047393799
0, 5, 114, 13.65711688995361
0, 5, 115, 6.709889888763428
0, 5, 116, 10.55180263519287
0, 5, 117, 8.173460006713867
0, 5, 118, 13.42778491973877
0, 5, 119, 3.228927135467529
0, 5, 120, 5.941760540008545
0, 5, 121, 3.257291555404663
0, 5, 122, 3.895719051361084
0, 5, 123, 4.796494007110596
0, 5, 124, 7.671995639801025
0, 5, 125, 5.464768409729004
0, 5, 126, 5.369322776794434
0, 5, 127, 5.241343021392822
0, 6, 0, 4.384349822998047
0, 6, 1, 2.45218563079834
0, 6, 2, 6.530400276184082
0, 6, 3, 4.14220142364502
0, 6, 4, 3.752915143966675
0, 6, 5, 5.067049503326416
0, 6, 6, 6.482447624206543
0, 6, 7, 5.505661964416504
0, 6, 8, 7.994644641876221
0, 6, 9, 7.422314643859863
0, 6, 10, 7.650431156158447
0, 6, 11, 9.731444358825684
0, 6, 12, 7.67056131362915
0, 6, 13, 13.34750556945801
0, 6, 14, 10.4563512802124
0, 6, 15, 17.26419639587402
0, 6, 16, 27.57600212097168
0, 6, 17, 56.1511116027832
0, 6, 18, 172.9259338378906
0, 6, 19, 276.0955505371094
0, 6, 20, 290.7507019042969
0, 6, 21, 315.6011962890625
0, 6, 22, 319.9855346679688
0, 6, 23, 308.2550048828125
0, 6, 24, 316.9918823242188
0, 6, 25, 316.1313171386719
0, 6, 26, 321.3776550292969
0, 6, 27, 330.7316284179688
0, 6, 28, 295.7929077148438
0, 6, 29, 330.3604431152344
0, 6, 30, 279.5719604492188
0, 6, 31, 286.3869018554688
0, 6, 32, 343.8133544921875
0, 6, 33, 300.9043579101562
0, 6, 34, 339.02197265625
0, 6, 35, 321.9529724121094
0, 6, 36, 272.6702270507812
0, 6, 37, 291.9485168457031
0, 6, 38, 311.9791870117188
0, 6, 39, 297.8226623535156
0, 6, 40, 286.357421875
0, 6, 41, 296.3851013183594
0, 6, 42, 304.5775756835938
0, 6, 43, 288.7615051269531
0, 6, 44, 280.67919921875
0, 6, 45, 320.7996826171875
0, 6, 46, 301.0723571777344
0, 6, 47, 333.1441955566406
0, 6, 48, 293.0075378417969
0, 6, 49, 313.4609985351562
0, 6, 50, 328.7098083496094
0, 6, 51, 313.2890014648438
0, 6, 52, 321.0257263183594
0, 6, 53, 331.0107727050781
0, 6, 54, 304.5758361816406
0, 6, 55, 306.1904907226562
0, 6, 56, 292.8439025878906
0, 6, 57, 312.4054260253906
0, 6, 58, 262.2395324707031
0, 6, 59, 300.3110656738281
0, 6, 60, 313.1483154296875
0, 6, 61, 270.7202453613281
0, 6, 62, 337.9283447265625
0, 6, 63, 323.2841491699219
0, 6, 64, 292.4808044433594
0, 6, 65, 283.8239135742188
0, 6, 66, 303.8614196777344
0, 6, 67, 309.9416809082031
0, 6, 68, 295.1965026855469
0, 6, 69, 277.9635009765625
0, 6, 70, 274.3587036132812
0, 6, 71, 289.7905578613281
0, 6, 72, 311.3151245117188
0, 6, 73, 291.0359497070312
0, 6, 74, 330.2135009765625
0, 6, 75, 343.0645751953125
0, 6, 76, 299.328857421875
0, 6, 77, 288.0626831054688
0, 6, 78, 280.9458923339844
0, 6, 79, 292.9246215820312
0, 6, 80, 298.6299438476562
0, 6, 81, 317.1952514648438
0, 6, 82, 320.4120178222656
0, 6, 83, 321.9081115722656
0, 6, 84, 296.1959533691406
0, 6, 85, 300.2188110351562
0, 6, 86, 331.0192260742188
0, 6, 87, 290.4251708984375
0, 6, 88, 306.0078735351562
0, 6, 89, 304.777587890625
0, 6, 90, 298.8471069335938
0, 6, 91, 312.5072937011719
0, 6, 92, 285.1912231445312
0, 6, 93, 296.4718627929688
0, 6, 94, 272.0169067382812
0, 6, 95, 300.5360412597656
0, 6, 96, 345.6815185546875
0, 6, 97, 307.7027282714844
0, 6, 98, 300.1247253417969
0, 6, 99, 271.7826538085938
0, 6, 100, 309.1289672851562
0, 6, 101, 292.832763671875
0, 6, 102, 307.4521789550781
0, 6, 103, 306.7890930175781
0, 6, 104, 292.73486328125
0, 6, 105, 303.4222717285156
0, 6, 106, 306.5527648925781
0, 6, 107, 306.5350341796875
0, 6, 108, 266.2417297363281
0, 6, 109, 185.3472442626953
0, 6, 110, 56.62815475463867
0, 6, 111, 22.63064765930176
0, 6, 112, 12.9072732925415
0, 6, 113, 9.673468589782715
0, 6, 114, 11.63182258605957
0, 6, 115, 11.25395202636719
0, 6, 116, 10.43205738067627
0, 6, 117, 6.796151638031006
0, 6, 118, 9.404191017150879
0, 6, 119, 8.464912414550781
0, 6, 120, 5.311816215515137
0, 6, 121, 6.934389591217041
0, 6, 122, 7.353136539459229
0, 6, 123, 4.612582683563232
0, 6, 124, 6.00449275970459
0, 6, 125, 5.372963428497314
0, 6, 126, 4.22116756439209
0, 6, 127, 6.820115089416504
0, 7, 0, 3.598831176757812
0, 7, 1, 3.497937202453613
0, 7, 2, 4.43231725692749
0, 7, 3, 5.255517482757568
0, 7, 4, 5.765831470489502
0, 7, 5, 4.64935827255249
0, 7, 6, 7.830100059509277
0, 7, 7, 4.806751728057861
0, 7, 8, 5.385809421539307
0, 7, 9, 8.778736114501953
0, 7, 10, 9.634021759033203
0, 7, 11, 11.71459197998047
0, 7, 12, 11.74014663696289
0, 7, 13, 11.20203018188477
0, 7, 14, 9.424463272094727
0, 7, 15, 15.30934238433838
0, 7, 16, 26.58877754211426
0, 7, 17, 96.91752624511719
0, 7, 18, 219.4175567626953
0, 7, 19, 290.1033935546875
0, 7, 20, 296.9459228515625
0, 7, 21, 281.47705078125
0, 7, 22, 301.4792175292969
0, 7, 23, 288.9862670898438
0, 7, 24, 313.5469970703125
0, 7, 25, 324.6868591308594
0, 7, 26, 280.2781677246094
0, 7, 27, 296.9712219238281
0, 7, 28, 327.6322326660156
0, 7, 29, 317.6656494140625
0, 7, 30, 299.35791015625
0, 7, 31, 279.3547973632812
0, 7, 32, 305.8474731445312
0, 7, 33, 264.9992980957031
0, 7, 34, 297.8160095214844
0, 7, 35, 320.1129760742188
0, 7, 36, 333.9645080566406
0, 7, 37, 322.3493347167969
0, 7, 38, 295.8989868164062
0, 7, 39, 306.5565490722656
0, 7, 40, 288.989501953125
0, 7, 41, 271.7957458496094
0, 7, 42, 304.2659912109375
0, 7, 43, 273.6947021484375
0, 7, 44, 303.5115051269531
0, 7, 45, 296.4146118164062
0, 7, 46, 281.4647521972656
0, 7, 47, 327.3114624023438
0, 7, 48, 287.8662414550781
0, 7, 49, 301.7945251464844
0, 7, 50, 322.0172424316406
0, 7, 51, 299.0360107421875
0, 7, 52, 326.8154602050781
0, 7, 53, 310.77587890625
0, 7, 54, 323.8375244140625
0, 7, 55, 307.7484436035156
0, 7, 56, 282.9754028320312
0, 7, 57, 280.9747619628906
0, 7, 58, 295.9997253417969
0, 7, 59, 292.7356872558594
0, 7, 60, 323.2689819335938
0, 7, 61, 277.7967834472656
0, 7, 62, 296.4991760253906
0, 7, 63, 295.4330749511719
0, 7, 64, 306.7137145996094
0, 7, 65, 329.9648742675781
0, 7, 66, 320.0375061035156
0, 7, 67, 300.4360656738281
0, 7, 68, 278.536376953125
0, 7, 69, 293.9493713378906
0, 7, 70, 302.0470275878906
0, 7, 71, 311.1040344238281
0, 7, 72, 286.1630249023438
0, 7, 73, 296.02880859375
0, 7, 74, 344.7253112792969
0, 7, 75, 319.8157348632812
0, 7, 76, 324.4608154296875
0, 7, 77, 283.8188781738281
0, 7, 78, 300.2663879394531
0, 7, 79, 295.8299255371094
0, 7, 80, 311.5640563964844
0, 7, 81, 319.7684326171875
0, 7, 82, 330.2360229492188
0, 7, 83, 317.0368957519531
0, 7, 84, 309.8805847167969
0, 7, 85, 272.9757690429688
0, 7, 86, 311.1009216308594
0, 7, 87, 308.8778991699219
0, 7, 88, 307.4291076660156
0, 7, 89, 291.1564636230469
0, 7, 90, 310.041748046875
0, 7, 91, 313.9149169921875
0, 7, 92, 287.9869689941406
0, 7, 93, 309.9901428222656
0, 7, 94, 272.1624145507812
0, 7, 95, 295.1644287109375
0, 7, 96, 332.0514526367188
0, 7, 97, 296.1980590820312
0, 7, 98, 290.5135192871094
0, 7, 99, 312.4739685058594
0, 7, 100, 279.6766357421875
0, 7, 101, 276.0711059570312
0, 7, 102, 289.3345947265625
0, 7, 103, 291.0564270019531
0, 7, 104, 274.3526306152344
0, 7, 105, 306.6036376953125
0, 7, 106, 318.7958068847656
0, 7, 107, 297.6899108886719
0, 7, 108, 274.5325927734375
0, 7, 109, 237.8042755126953
0, 7, 110, 96.74645233154297
0, 7, 111, 23.83525085449219
0, 7, 112, 13.44076156616211
0, 7, 113, 15.17229175567627
0, 7, 114, 12.2720947265625
0, 7, 115, 13.13533306121826
0, 7, 116, 8.694746017456055
0, 7, 117, 6.825540065765381
0, 7, 118, 7.544436454772949
0, 7, 119, 6.064261913299561
0, 7, 120, 4.301528453826904
0, 7, 121, 7.695378303527832
0, 7, 122, 6.139176368713379
0, 7, 123, 5.412245750427246
0, 7, 124, 5.904336929321289
0, 7, 125, 6.13328218460083
0, 7, 126, 10.16550540924072
0, 7, 127, 5.765329837799072
0, 8, 0, 3.4544997215271
0, 8, 1, 3.305861949920654
0, 8, 2, 2.957725286483765
0, 8, 3, 2.765042781829834
0, 8, 4, 2.594925165176392
0, 8, 5, 4.529969692230225
0, 8, 6, 6.255561351776123
0, 8, 7, 5.247287750244141
0, 8, 8, 6.567572593688965
0, 8, 9, 5.423136711120605
0, 8, 10, 8.028827667236328
0, 8, 11, 13.52042198181152
0, 8, 12, 14.98809051513672
0, 8, 13, 17.61568260192871
0, 8, 14, 14.04867458343506
0, 8, 15, 18.4884090423584
0, 8, 16, 34.69456481933594
0, 8, 17, 131.6004486083984
0, 8, 18, 243.7115783691406
0, 8, 19, 296.1708374023438
0, 8, 20, 285.5902709960938
0, 8, 21, 306.3017272949219
0, 8, 22, 295.8984985351562
0, 8, 23, 274.3192443847656
0, 8, 24, 268.2173767089844
0, 8, 25, 275.7032470703125
0, 8, 26, 308.1563110351562
0, 8, 27, 307.95263671875
0, 8, 28, 303.78076171875
0, 8, 29, 319.6761169433594
0, 8, 30, 316.382080078125
0, 8, 31, 303.2463989257812
0, 8, 32, 279.5663452148438
0, 8, 33, 295.2497253417969
0, 8, 34, 287.3788452148438
0, 8, 35, 280.3088073730469
0, 8, 36, 315.8894348144531
0, 8, 37, 337.6715087890625
0, 8, 38, 331.1270751953125
0, 8, 39, 281.3619689941406
0, 8, 40, 304.3439025878906
