# TOPAS Version: 3.1.p3
# Parameter File: batch_inserts_340.txt
# Results for scorer Readout_Adipose
# Scored in component: MyBox
# X in 1 bin  of 0.75 cm
# Y in 512 bins of 0.0783984 cm
# Z in 128 bins of 0.078125 cm
# EnergyDeposit ( MeV ) : Sum   
0, 0, 0, 16.11352348327637
0, 0, 1, 21.25027084350586
0, 0, 2, 26.99812698364258
0, 0, 3, 24.14830207824707
0, 0, 4, 19.6392650604248
0, 0, 5, 26.26008605957031
0, 0, 6, 25.70222091674805
0, 0, 7, 31.13497543334961
0, 0, 8, 23.97219657897949
0, 0, 9, 21.30259895324707
0, 0, 10, 24.95346450805664
0, 0, 11, 25.49889183044434
0, 0, 12, 33.91397476196289
0, 0, 13, 33.42808151245117
0, 0, 14, 40.816162109375
0, 0, 15, 44.93730926513672
0, 0, 16, 46.42954635620117
0, 0, 17, 49.17339706420898
0, 0, 18, 76.41095733642578
0, 0, 19, 191.6974487304688
0, 0, 20, 699.5985107421875
0, 0, 21, 1193.823364257812
0, 0, 22, 1248.05029296875
0, 0, 23, 1274.504516601562
0, 0, 24, 1278.715087890625
0, 0, 25, 1352.716918945312
0, 0, 26, 1269.470581054688
0, 0, 27, 1277.028076171875
0, 0, 28, 1321.692138671875
0, 0, 29, 1270.091064453125
0, 0, 30, 1261.69677734375
0, 0, 31, 1275.315185546875
0, 0, 32, 1265.30712890625
0, 0, 33, 1241.164184570312
0, 0, 34, 1322.743530273438
0, 0, 35, 1300.3134765625
0, 0, 36, 1245.943359375
0, 0, 37, 1279.499877929688
0, 0, 38, 1248.6611328125
0, 0, 39, 1244.385375976562
0, 0, 40, 1222.112182617188
0, 0, 41, 1268.512084960938
0, 0, 42, 1251.0341796875
0, 0, 43, 1269.968505859375
0, 0, 44, 1225.354248046875
0, 0, 45, 1289.661743164062
0, 0, 46, 1259.344360351562
0, 0, 47, 1241.703491210938
0, 0, 48, 1283.25341796875
0, 0, 49, 1288.061157226562
0, 0, 50, 1315.764282226562
0, 0, 51, 1260.456909179688
0, 0, 52, 1361.785400390625
0, 0, 53, 1322.08251953125
0, 0, 54, 1295.682373046875
0, 0, 55, 1235.1396484375
0, 0, 56, 1321.55859375
0, 0, 57, 1287.878295898438
0, 0, 58, 1252.576416015625
0, 0, 59, 1331.564208984375
0, 0, 60, 1322.584594726562
0, 0, 61, 1262.152465820312
0, 0, 62, 1234.005737304688
0, 0, 63, 1278.62841796875
0, 0, 64, 1332.43212890625
0, 0, 65, 1286.07958984375
0, 0, 66, 1319.689086914062
0, 0, 67, 1220.43115234375
0, 0, 68, 1308.935668945312
0, 0, 69, 1327.81640625
0, 0, 70, 1341.29931640625
0, 0, 71, 1286.021118164062
0, 0, 72, 1313.207763671875
0, 0, 73, 1237.571166992188
0, 0, 74, 1287.841552734375
0, 0, 75, 1295.161987304688
0, 0, 76, 1258.421020507812
0, 0, 77, 1289.807373046875
0, 0, 78, 1312.133178710938
0, 0, 79, 1322.640502929688
0, 0, 80, 1258.985107421875
0, 0, 81, 1321.414428710938
0, 0, 82, 1286.966796875
0, 0, 83, 1292.183959960938
0, 0, 84, 1334.62353515625
0, 0, 85, 1232.969116210938
0, 0, 86, 1264.272583007812
0, 0, 87, 1252.094604492188
0, 0, 88, 1254.730834960938
0, 0, 89, 1335.048706054688
0, 0, 90, 1275.216674804688
0, 0, 91, 1354.398681640625
0, 0, 92, 1305.987060546875
0, 0, 93, 1273.2373046875
0, 0, 94, 1241.714965820312
0, 0, 95, 1325.787719726562
0, 0, 96, 1281.4345703125
0, 0, 97, 1324.559448242188
0, 0, 98, 1258.015869140625
0, 0, 99, 1247.641845703125
0, 0, 100, 1289.916870117188
0, 0, 101, 1314.297973632812
0, 0, 102, 1236.59375
0, 0, 103, 1328.302978515625
0, 0, 104, 1260.657958984375
0, 0, 105, 1268.474731445312
0, 0, 106, 1212.9443359375
0, 0, 107, 783.2510375976562
0, 0, 108, 196.1239471435547
0, 0, 109, 70.70711517333984
0, 0, 110, 65.72161102294922
0, 0, 111, 41.1245002746582
0, 0, 112, 35.41583633422852
0, 0, 113, 33.48968505859375
0, 0, 114, 34.9256706237793
0, 0, 115, 27.52133750915527
0, 0, 116, 25.12199020385742
0, 0, 117, 37.59768295288086
0, 0, 118, 21.30095291137695
0, 0, 119, 21.90727806091309
0, 0, 120, 23.75127029418945
0, 0, 121, 29.61386108398438
0, 0, 122, 25.9278736114502
0, 0, 123, 20.13260841369629
0, 0, 124, 20.9984130859375
0, 0, 125, 19.8232307434082
0, 0, 126, 23.79730606079102
0, 0, 127, 17.859619140625
0, 1, 0, 24.10074043273926
0, 1, 1, 20.15721893310547
0, 1, 2, 25.28468894958496
0, 1, 3, 19.24014854431152
0, 1, 4, 24.22634506225586
0, 1, 5, 25.71196556091309
0, 1, 6, 24.7084789276123
0, 1, 7, 27.30120277404785
0, 1, 8, 29.08149909973145
0, 1, 9, 32.73208999633789
0, 1, 10, 32.92190551757812
0, 1, 11, 39.35371398925781
0, 1, 12, 37.60932159423828
0, 1, 13, 42.92908096313477
0, 1, 14, 42.87527084350586
0, 1, 15, 47.85577392578125
0, 1, 16, 54.91067886352539
0, 1, 17, 61.18147277832031
0, 1, 18, 99.15262603759766
0, 1, 19, 398.144287109375
0, 1, 20, 1034.492065429688
0, 1, 21, 1374.308349609375
0, 1, 22, 1481.935546875
0, 1, 23, 1466.45849609375
0, 1, 24, 1449.983276367188
0, 1, 25, 1417.629272460938
0, 1, 26, 1470.774291992188
0, 1, 27, 1463.754516601562
0, 1, 28, 1488.22705078125
0, 1, 29, 1481.204467773438
0, 1, 30, 1504.3408203125
0, 1, 31, 1482.62158203125
0, 1, 32, 1412.124267578125
0, 1, 33, 1502.004150390625
0, 1, 34, 1504.953369140625
0, 1, 35, 1461.438232421875
0, 1, 36, 1489.398193359375
0, 1, 37, 1412.402587890625
0, 1, 38, 1400.356811523438
0, 1, 39, 1527.591796875
0, 1, 40, 1457.377807617188
0, 1, 41, 1488.43408203125
0, 1, 42, 1502.267333984375
0, 1, 43, 1502.47314453125
0, 1, 44, 1449.080078125
0, 1, 45, 1482.886596679688
0, 1, 46, 1416.181030273438
0, 1, 47, 1434.71435546875
0, 1, 48, 1428.6806640625
0, 1, 49, 1487.00048828125
0, 1, 50, 1444.746704101562
0, 1, 51, 1480.349853515625
0, 1, 52, 1475.74658203125
0, 1, 53, 1472.499877929688
0, 1, 54, 1505.738403320312
0, 1, 55, 1493.18603515625
0, 1, 56, 1472.821655273438
0, 1, 57, 1456.841918945312
0, 1, 58, 1430.625732421875
0, 1, 59, 1483.48583984375
0, 1, 60, 1468.166381835938
0, 1, 61, 1452.933227539062
0, 1, 62, 1460.153198242188
0, 1, 63, 1418.595703125
0, 1, 64, 1475.509521484375
0, 1, 65, 1416.436157226562
0, 1, 66, 1440.0498046875
0, 1, 67, 1452.50048828125
0, 1, 68, 1390.281127929688
0, 1, 69, 1460.503173828125
0, 1, 70, 1438.586303710938
0, 1, 71, 1497.362060546875
0, 1, 72, 1436.272827148438
0, 1, 73, 1490.069213867188
0, 1, 74, 1475.4228515625
0, 1, 75, 1476.903198242188
0, 1, 76, 1457.375732421875
0, 1, 77, 1463.05712890625
0, 1, 78, 1447.04638671875
0, 1, 79, 1501.037231445312
0, 1, 80, 1448.575927734375
0, 1, 81, 1427.199584960938
0, 1, 82, 1472.847778320312
0, 1, 83, 1461.89404296875
0, 1, 84, 1530.863159179688
0, 1, 85, 1451.881225585938
0, 1, 86, 1403.325927734375
0, 1, 87, 1420.878540039062
0, 1, 88, 1470.68896484375
0, 1, 89, 1471.841186523438
0, 1, 90, 1419.751831054688
0, 1, 91, 1461.01318359375
0, 1, 92, 1413.19140625
0, 1, 93, 1460.047119140625
0, 1, 94, 1466.690185546875
0, 1, 95, 1422.075073242188
0, 1, 96, 1494.048095703125
0, 1, 97, 1512.083129882812
0, 1, 98, 1478.636474609375
0, 1, 99, 1416.856201171875
0, 1, 100, 1449.171020507812
0, 1, 101, 1416.474487304688
0, 1, 102, 1441.300415039062
0, 1, 103, 1415.319458007812
0, 1, 104, 1406.298706054688
0, 1, 105, 1466.234741210938
0, 1, 106, 1367.369140625
0, 1, 107, 1024.688842773438
0, 1, 108, 405.8502197265625
0, 1, 109, 89.45368957519531
0, 1, 110, 61.67257690429688
0, 1, 111, 53.65742492675781
0, 1, 112, 43.64997482299805
0, 1, 113, 35.36524200439453
0, 1, 114, 36.95375061035156
0, 1, 115, 41.05541610717773
0, 1, 116, 35.59332656860352
0, 1, 117, 37.75824737548828
0, 1, 118, 36.16555404663086
0, 1, 119, 32.12528228759766
0, 1, 120, 28.79261207580566
0, 1, 121, 28.30505180358887
0, 1, 122, 22.36008262634277
0, 1, 123, 27.53411102294922
0, 1, 124, 35.41199111938477
0, 1, 125, 20.8658390045166
0, 1, 126, 18.46977424621582
0, 1, 127, 19.41133689880371
0, 2, 0, 21.17097473144531
0, 2, 1, 22.05091857910156
0, 2, 2, 17.87918472290039
0, 2, 3, 21.42141532897949
0, 2, 4, 20.51777839660645
0, 2, 5, 23.43206024169922
0, 2, 6, 26.90243148803711
0, 2, 7, 18.85972595214844
0, 2, 8, 25.91741943359375
0, 2, 9, 32.37622833251953
0, 2, 10, 30.41915130615234
0, 2, 11, 30.1711311340332
0, 2, 12, 40.31846237182617
0, 2, 13, 44.78124618530273
0, 2, 14, 44.89113616943359
0, 2, 15, 47.52276229858398
0, 2, 16, 58.4669189453125
0, 2, 17, 78.73055267333984
0, 2, 18, 145.9300537109375
0, 2, 19, 606.8001708984375
0, 2, 20, 1286.993896484375
0, 2, 21, 1434.0322265625
0, 2, 22, 1456.028442382812
0, 2, 23, 1404.342895507812
0, 2, 24, 1442.027465820312
0, 2, 25, 1521.365234375
0, 2, 26, 1552.287231445312
0, 2, 27, 1455.04833984375
0, 2, 28, 1461.078125
0, 2, 29, 1463.350830078125
0, 2, 30, 1467.0673828125
0, 2, 31, 1534.106811523438
0, 2, 32, 1508.648803710938
0, 2, 33, 1439.388427734375
0, 2, 34, 1475.15625
0, 2, 35, 1472.678833007812
0, 2, 36, 1525.758422851562
0, 2, 37, 1543.153686523438
0, 2, 38, 1509.594970703125
0, 2, 39, 1467.295654296875
0, 2, 40, 1513.669189453125
0, 2, 41, 1517.248046875
0, 2, 42, 1508.0498046875
0, 2, 43, 1546.15869140625
0, 2, 44, 1458.124267578125
0, 2, 45, 1479.796752929688
0, 2, 46, 1427.996704101562
0, 2, 47, 1445.330444335938
0, 2, 48, 1399.343139648438
0, 2, 49, 1470.348388671875
0, 2, 50, 1442.814819335938
0, 2, 51, 1449.457641601562
0, 2, 52, 1493.316162109375
0, 2, 53, 1523.591796875
0, 2, 54, 1526.832397460938
0, 2, 55, 1492.807006835938
0, 2, 56, 1460.389038085938
0, 2, 57, 1417.171875
0, 2, 58, 1456.871459960938
0, 2, 59, 1450.359497070312
0, 2, 60, 1479.14306640625
0, 2, 61, 1449.615966796875
0, 2, 62, 1474.308959960938
0, 2, 63, 1502.047973632812
0, 2, 64, 1459.200561523438
0, 2, 65, 1425.806640625
0, 2, 66, 1488.74365234375
0, 2, 67, 1506.817016601562
0, 2, 68, 1541.8369140625
0, 2, 69, 1536.646728515625
0, 2, 70, 1506.891479492188
0, 2, 71, 1462.386108398438
0, 2, 72, 1514.538696289062
0, 2, 73, 1519.84521484375
0, 2, 74, 1488.666748046875
0, 2, 75, 1502.39599609375
0, 2, 76, 1452.355102539062
0, 2, 77, 1507.739624023438
0, 2, 78, 1439.021362304688
0, 2, 79, 1538.449096679688
0, 2, 80, 1482.412353515625
0, 2, 81, 1460.486938476562
0, 2, 82, 1554.933837890625
0, 2, 83, 1520.156005859375
0, 2, 84, 1495.237426757812
0, 2, 85, 1518.4794921875
0, 2, 86, 1539.809204101562
0, 2, 87, 1486.470825195312
0, 2, 88, 1536.248168945312
0, 2, 89, 1462.789916992188
0, 2, 90, 1432.122192382812
0, 2, 91, 1404.26953125
0, 2, 92, 1479.384887695312
0, 2, 93, 1495.993774414062
0, 2, 94, 1455.24462890625
0, 2, 95, 1545.62353515625
0, 2, 96, 1517.89404296875
0, 2, 97, 1454.416137695312
0, 2, 98, 1469.097045898438
0, 2, 99, 1402.416870117188
0, 2, 100, 1472.628051757812
0, 2, 101, 1482.557250976562
0, 2, 102, 1466.52734375
0, 2, 103, 1385.281616210938
0, 2, 104, 1410.947509765625
0, 2, 105, 1397.46728515625
0, 2, 106, 1456.809204101562
0, 2, 107, 1274.90185546875
0, 2, 108, 619.2838134765625
0, 2, 109, 174.8204803466797
0, 2, 110, 67.30687713623047
0, 2, 111, 61.28988265991211
0, 2, 112, 41.51853179931641
0, 2, 113, 46.2808952331543
0, 2, 114, 36.37556457519531
0, 2, 115, 46.35744857788086
0, 2, 116, 33.84622955322266
0, 2, 117, 35.21271896362305
0, 2, 118, 31.83485412597656
0, 2, 119, 31.75679397583008
0, 2, 120, 29.80068778991699
0, 2, 121, 19.89068031311035
0, 2, 122, 27.69163513183594
0, 2, 123, 18.74287796020508
0, 2, 124, 22.38373947143555
0, 2, 125, 27.50166320800781
0, 2, 126, 19.32976722717285
0, 2, 127, 20.08666038513184
0, 3, 0, 16.01475715637207
0, 3, 1, 20.89008140563965
0, 3, 2, 16.97543334960938
0, 3, 3, 21.99624252319336
0, 3, 4, 16.36121559143066
0, 3, 5, 20.47195625305176
0, 3, 6, 30.15707206726074
0, 3, 7, 24.67901992797852
0, 3, 8, 26.78329849243164
0, 3, 9, 24.76451301574707
0, 3, 10, 33.22740936279297
0, 3, 11, 35.21846771240234
0, 3, 12, 45.8358154296875
0, 3, 13, 56.66766738891602
0, 3, 14, 57.65546035766602
0, 3, 15, 55.96755981445312
0, 3, 16, 68.34832000732422
0, 3, 17, 88.04393768310547
0, 3, 18, 238.4168853759766
0, 3, 19, 878.80224609375
0, 3, 20, 1391.764404296875
0, 3, 21, 1504.041137695312
0, 3, 22, 1459.756591796875
0, 3, 23, 1446.449096679688
0, 3, 24, 1439.998413085938
0, 3, 25, 1462.397338867188
0, 3, 26, 1496.860229492188
0, 3, 27, 1467.27783203125
0, 3, 28, 1488.866821289062
0, 3, 29, 1539.526245117188
0, 3, 30, 1574.38330078125
0, 3, 31, 1512.184448242188
0, 3, 32, 1549.666381835938
0, 3, 33, 1539.231079101562
0, 3, 34, 1486.399047851562
0, 3, 35, 1466.05029296875
0, 3, 36, 1449.059692382812
0, 3, 37, 1511.761596679688
0, 3, 38, 1515.013793945312
0, 3, 39, 1438.518188476562
0, 3, 40, 1441.981323242188
0, 3, 41, 1562.951293945312
0, 3, 42, 1460.747680664062
0, 3, 43, 1452.932373046875
0, 3, 44, 1452.901977539062
0, 3, 45, 1510.892944335938
0, 3, 46, 1509.24267578125
0, 3, 47, 1442.605834960938
0, 3, 48, 1501.936401367188
0, 3, 49, 1451.000122070312
0, 3, 50, 1491.350830078125
0, 3, 51, 1536.874877929688
0, 3, 52, 1534.654541015625
0, 3, 53, 1463.194091796875
0, 3, 54, 1533.541015625
0, 3, 55, 1501.408935546875
0, 3, 56, 1437.184814453125
0, 3, 57, 1502.151123046875
0, 3, 58, 1512.6904296875
0, 3, 59, 1510.546630859375
0, 3, 60, 1533.567260742188
0, 3, 61, 1483.147705078125
0, 3, 62, 1495.171875
0, 3, 63, 1498.646484375
0, 3, 64, 1502.0146484375
0, 3, 65, 1521.505859375
0, 3, 66, 1554.521484375
0, 3, 67, 1544.81689453125
0, 3, 68, 1449.353881835938
0, 3, 69, 1461.0869140625
0, 3, 70, 1384.39013671875
0, 3, 71, 1465.920043945312
0, 3, 72, 1548.41650390625
0, 3, 73, 1499.214721679688
0, 3, 74, 1468.628784179688
0, 3, 75, 1461.799682617188
0, 3, 76, 1569.612182617188
0, 3, 77, 1539.944946289062
0, 3, 78, 1430.017944335938
0, 3, 79, 1488.426025390625
0, 3, 80, 1461.179443359375
0, 3, 81, 1469.452392578125
0, 3, 82, 1555.648803710938
0, 3, 83, 1509.328369140625
0, 3, 84, 1560.68505859375
0, 3, 85, 1474.082885742188
0, 3, 86, 1521.796264648438
0, 3, 87, 1538.675415039062
0, 3, 88, 1459.684936523438
0, 3, 89, 1451.1494140625
0, 3, 90, 1447.49072265625
0, 3, 91, 1418.898193359375
0, 3, 92, 1512.915649414062
0, 3, 93, 1498.335205078125
0, 3, 94, 1513.630249023438
0, 3, 95, 1543.728637695312
0, 3, 96, 1518.251708984375
0, 3, 97, 1460.871337890625
0, 3, 98, 1434.572265625
0, 3, 99, 1467.322265625
0, 3, 100, 1464.987426757812
0, 3, 101, 1476.8369140625
0, 3, 102, 1518.802978515625
0, 3, 103, 1554.805297851562
0, 3, 104, 1492.352905273438
0, 3, 105, 1512.979125976562
0, 3, 106, 1475.859619140625
0, 3, 107, 1337.6171875
0, 3, 108, 873.01953125
0, 3, 109, 267.1177062988281
0, 3, 110, 98.22752380371094
0, 3, 111, 60.07037353515625
0, 3, 112, 57.24829483032227
0, 3, 113, 51.11093902587891
0, 3, 114, 48.17372131347656
0, 3, 115, 49.27624130249023
0, 3, 116, 34.66344451904297
0, 3, 117, 37.62282562255859
0, 3, 118, 40.03161239624023
0, 3, 119, 29.67850875854492
0, 3, 120, 27.30616569519043
0, 3, 121, 20.8232593536377
0, 3, 122, 22.35253143310547
0, 3, 123, 25.11180114746094
0, 3, 124, 24.07413673400879
0, 3, 125, 32.64835357666016
0, 3, 126, 24.01409339904785
0, 3, 127, 20.73124504089355
0, 4, 0, 21.05843353271484
0, 4, 1, 22.26723098754883
0, 4, 2, 23.83013725280762
0, 4, 3, 22.85903739929199
0, 4, 4, 28.35256576538086
0, 4, 5, 29.57668495178223
0, 4, 6, 28.16440773010254
0, 4, 7, 34.35314559936523
0, 4, 8, 28.01325988769531
0, 4, 9, 33.32280731201172
0, 4, 10, 30.18231964111328
0, 4, 11, 39.74263763427734
0, 4, 12, 47.27156448364258
0, 4, 13, 49.69028854370117
0, 4, 14, 51.43070602416992
0, 4, 15, 63.2225456237793
0, 4, 16, 74.86280059814453
0, 4, 17, 115.6880340576172
0, 4, 18, 442.8385314941406
0, 4, 19, 1181.6162109375
0, 4, 20, 1447.560424804688
0, 4, 21, 1421.710693359375
0, 4, 22, 1432.139892578125
0, 4, 23, 1454.638671875
0, 4, 24, 1474.168823242188
0, 4, 25, 1399.982788085938
0, 4, 26, 1537.400146484375
0, 4, 27, 1549.060424804688
0, 4, 28, 1510.876220703125
0, 4, 29, 1516.832153320312
0, 4, 30, 1523.760131835938
0, 4, 31, 1571.357299804688
0, 4, 32, 1519.8251953125
0, 4, 33, 1492.915893554688
0, 4, 34, 1467.5078125
0, 4, 35, 1556.235473632812
0, 4, 36, 1503.608154296875
0, 4, 37, 1508.868286132812
0, 4, 38, 1528.829956054688
0, 4, 39, 1470.837890625
0, 4, 40, 1517.734497070312
0, 4, 41, 1582.855224609375
0, 4, 42, 1567.44970703125
0, 4, 43, 1473.169677734375
0, 4, 44, 1493.158569335938
0, 4, 45, 1517.401489257812
0, 4, 46, 1468.068115234375
0, 4, 47, 1505.095092773438
0, 4, 48, 1529.710571289062
0, 4, 49, 1474.004638671875
0, 4, 50, 1515.398071289062
0, 4, 51, 1492.950073242188
0, 4, 52, 1493.321166992188
0, 4, 53, 1458.526733398438
0, 4, 54, 1444.9638671875
0, 4, 55, 1527.26318359375
0, 4, 56, 1451.994140625
0, 4, 57, 1492.614501953125
0, 4, 58, 1459.750366210938
0, 4, 59, 1461.66943359375
0, 4, 60, 1531.867309570312
0, 4, 61, 1498.67529296875
0, 4, 62, 1507.873046875
0, 4, 63, 1548.055786132812
0, 4, 64, 1587.243774414062
0, 4, 65, 1427.152221679688
0, 4, 66, 1509.806396484375
0, 4, 67, 1519.45947265625
0, 4, 68, 1494.45166015625
0, 4, 69, 1467.574340820312
0, 4, 70, 1543.31005859375
0, 4, 71, 1522.881591796875
0, 4, 72, 1533.647216796875
0, 4, 73, 1500.074951171875
0, 4, 74, 1484.143798828125
0, 4, 75, 1535.627685546875
0, 4, 76, 1483.837280273438
0, 4, 77, 1502.621459960938
0, 4, 78, 1503.764282226562
0, 4, 79, 1488.750122070312
0, 4, 80, 1516.9306640625
0, 4, 81, 1527.799682617188
0, 4, 82, 1566.61083984375
0, 4, 83, 1503.005004882812
0, 4, 84, 1538.7685546875
0, 4, 85, 1556.30517578125
0, 4, 86, 1525.857666015625
0, 4, 87, 1493.8818359375
0, 4, 88, 1508.007690429688
0, 4, 89, 1482.946655273438
0, 4, 90, 1546.952270507812
0, 4, 91, 1552.835205078125
0, 4, 92, 1491.5888671875
0, 4, 93, 1519.901733398438
0, 4, 94, 1486.868774414062
0, 4, 95, 1512.729736328125
0, 4, 96, 1441.92626953125
0, 4, 97, 1411.120971679688
0, 4, 98, 1549.703979492188
0, 4, 99, 1508.057983398438
0, 4, 100, 1487.495727539062
0, 4, 101, 1448.127563476562
0, 4, 102, 1442.88525390625
0, 4, 103, 1516.162719726562
0, 4, 104, 1511.725219726562
0, 4, 105, 1552.946166992188
0, 4, 106, 1477.363647460938
0, 4, 107, 1456.27490234375
0, 4, 108, 1121.813232421875
0, 4, 109, 438.6491088867188
0, 4, 110, 98.24093627929688
0, 4, 111, 73.09019470214844
0, 4, 112, 64.91868591308594
0, 4, 113, 45.67127227783203
0, 4, 114, 51.02447891235352
0, 4, 115, 47.61149978637695
0, 4, 116, 38.72505187988281
0, 4, 117, 34.77116012573242
0, 4, 118, 38.44197463989258
0, 4, 119, 41.51838684082031
0, 4, 120, 34.62427139282227
0, 4, 121, 33.38068008422852
0, 4, 122, 31.87251091003418
0, 4, 123, 32.02827072143555
0, 4, 124, 21.39836502075195
0, 4, 125, 25.72153663635254
0, 4, 126, 23.19227409362793
0, 4, 127, 20.04331016540527
0, 5, 0, 19.98521041870117
0, 5, 1, 23.42682456970215
0, 5, 2, 30.27565765380859
0, 5, 3, 28.50439453125
0, 5, 4, 21.23066711425781
0, 5, 5, 38.36953735351562
0, 5, 6, 30.90199279785156
0, 5, 7, 30.27462768554688
0, 5, 8, 30.4593391418457
0, 5, 9, 29.86250305175781
0, 5, 10, 31.96015930175781
0, 5, 11, 37.91384887695312
0, 5, 12, 38.41464233398438
0, 5, 13, 45.64314270019531
0, 5, 14, 64.48117828369141
0, 5, 15, 73.12638854980469
0, 5, 16, 80.67392730712891
0, 5, 17, 156.1503143310547
0, 5, 18, 677.268798828125
0, 5, 19, 1348.269287109375
0, 5, 20, 1529.228515625
0, 5, 21, 1491.310424804688
0, 5, 22, 1495.816284179688
0, 5, 23, 1535.169677734375
0, 5, 24, 1465.815185546875
0, 5, 25, 1425.958251953125
0, 5, 26, 1526.947875976562
0, 5, 27, 1542.14306640625
0, 5, 28, 1485.931518554688
0, 5, 29, 1523.981811523438
0, 5, 30, 1494.730834960938
0, 5, 31, 1501.24853515625
0, 5, 32, 1595.86181640625
0, 5, 33, 1499.81201171875
0, 5, 34, 1487.003540039062
0, 5, 35, 1511.443725585938
0, 5, 36, 1441.682739257812
0, 5, 37, 1529.282836914062
0, 5, 38, 1547.334228515625
0, 5, 39, 1549.276977539062
0, 5, 40, 1496.819580078125
0, 5, 41, 1481.729370117188
0, 5, 42, 1540.771728515625
0, 5, 43, 1532.662231445312
0, 5, 44, 1540.64111328125
0, 5, 45, 1514.339111328125
0, 5, 46, 1493.4365234375
0, 5, 47, 1482.196899414062
0, 5, 48, 1503.081176757812
0, 5, 49, 1526.3173828125
0, 5, 50, 1502.813110351562
0, 5, 51, 1521.020385742188
0, 5, 52, 1430.671264648438
0, 5, 53, 1523.161254882812
0, 5, 54, 1517.08837890625
0, 5, 55, 1523.108154296875
0, 5, 56, 1487.81787109375
0, 5, 57, 1542.668090820312
0, 5, 58, 1506.080200195312
0, 5, 59, 1487.732421875
0, 5, 60, 1539.171508789062
0, 5, 61, 1451.454956054688
0, 5, 62, 1586.121948242188
0, 5, 63, 1441.726928710938
0, 5, 64, 1488.124633789062
0, 5, 65, 1470.697021484375
0, 5, 66, 1522.01318359375
0, 5, 67, 1571.984252929688
0, 5, 68, 1458.3427734375
0, 5, 69, 1480.021362304688
0, 5, 70, 1492.725463867188
0, 5, 71, 1475.277587890625
0, 5, 72, 1537.91064453125
0, 5, 73, 1463.873413085938
0, 5, 74, 1494.776489257812
0, 5, 75, 1489.687622070312
0, 5, 76, 1478.127807617188
0, 5, 77, 1520.212036132812
0, 5, 78, 1524.372924804688
0, 5, 79, 1510.349975585938
0, 5, 80, 1518.072143554688
0, 5, 81, 1598.05908203125
0, 5, 82, 1525.142944335938
0, 5, 83, 1492.312377929688
0, 5, 84, 1531.220458984375
0, 5, 85, 1512.43359375
0, 5, 86, 1552.060302734375
0, 5, 87, 1477.936157226562
0, 5, 88, 1502.482421875
0, 5, 89, 1481.567504882812
0, 5, 90, 1484.1025390625
0, 5, 91, 1549.327270507812
0, 5, 92, 1477.74169921875
0, 5, 93, 1562.070556640625
0, 5, 94, 1508.160888671875
0, 5, 95, 1563.714721679688
0, 5, 96, 1500.86474609375
0, 5, 97, 1507.876220703125
0, 5, 98, 1511.924926757812
0, 5, 99, 1540.137573242188
0, 5, 100, 1433.998046875
0, 5, 101, 1429.202880859375
0, 5, 102, 1511.514526367188
0, 5, 103, 1476.20654296875
0, 5, 104, 1458.958862304688
0, 5, 105, 1490.847778320312
0, 5, 106, 1457.118896484375
0, 5, 107, 1398.334716796875
0, 5, 108, 1289.833251953125
0, 5, 109, 718.0978393554688
0, 5, 110, 195.31494140625
0, 5, 111, 90.62679290771484
0, 5, 112, 77.47524261474609
0, 5, 113, 66.30095672607422
0, 5, 114, 61.74036407470703
0, 5, 115, 54.00682830810547
0, 5, 116, 44.28456878662109
0, 5, 117, 37.58028793334961
0, 5, 118, 40.9367790222168
0, 5, 119, 30.07151794433594
0, 5, 120, 31.9453067779541
0, 5, 121, 25.13915252685547
0, 5, 122, 30.22221755981445
0, 5, 123, 25.13835716247559
0, 5, 124, 21.03361701965332
0, 5, 125, 23.10905456542969
0, 5, 126, 24.73604011535645
0, 5, 127, 22.04499435424805
0, 6, 0, 23.55106544494629
0, 6, 1, 28.19758796691895
0, 6, 2, 27.35776329040527
0, 6, 3, 26.7048282623291
0, 6, 4, 24.1958179473877
0, 6, 5, 33.03203201293945
0, 6, 6, 35.03898620605469
0, 6, 7, 29.80915832519531
0, 6, 8, 36.94309616088867
0, 6, 9, 32.0528450012207
0, 6, 10, 33.27937698364258
0, 6, 11, 40.16050720214844
0, 6, 12, 40.00616455078125
0, 6, 13, 54.89507293701172
0, 6, 14, 66.06909942626953
0, 6, 15, 94.09467315673828
0, 6, 16, 119.7316741943359
0, 6, 17, 299.1023559570312
0, 6, 18, 904.2333984375
0, 6, 19, 1381.12744140625
0, 6, 20, 1435.691772460938
0, 6, 21, 1533.055786132812
0, 6, 22, 1508.54638671875
0, 6, 23, 1531.641967773438
0, 6, 24, 1484.863403320312
0, 6, 25, 1528.53662109375
0, 6, 26, 1518.308349609375
0, 6, 27, 1519.192749023438
0, 6, 28, 1555.15234375
0, 6, 29, 1576.329467773438
0, 6, 30, 1515.322875976562
0, 6, 31, 1488.43359375
0, 6, 32, 1526.919311523438
0, 6, 33, 1490.904541015625
0, 6, 34, 1561.647338867188
0, 6, 35, 1497.404174804688
0, 6, 36, 1441.172241210938
0, 6, 37, 1553.578491210938
0, 6, 38, 1528.77685546875
0, 6, 39, 1523.548583984375
0, 6, 40, 1457.204833984375
0, 6, 41, 1441.195068359375
0, 6, 42, 1511.727905273438
0, 6, 43, 1488.06494140625
0, 6, 44, 1433.653076171875
0, 6, 45, 1548.862670898438
0, 6, 46, 1554.111328125
0, 6, 47, 1494.433959960938
0, 6, 48, 1526.345703125
0, 6, 49, 1509.171752929688
0, 6, 50, 1574.863403320312
0, 6, 51, 1497.45703125
0, 6, 52, 1565.492919921875
0, 6, 53, 1467.987060546875
0, 6, 54, 1501.197265625
0, 6, 55, 1572.87451171875
0, 6, 56, 1521.198974609375
0, 6, 57, 1506.831665039062
0, 6, 58, 1474.30908203125
0, 6, 59, 1522.611694335938
0, 6, 60, 1469.75
0, 6, 61, 1572.033081054688
0, 6, 62, 1552.07958984375
0, 6, 63, 1499.26025390625
0, 6, 64, 1411.163940429688
0, 6, 65, 1491.219116210938
0, 6, 66, 1513.728515625
0, 6, 67, 1507.891845703125
0, 6, 68, 1546.404663085938
0, 6, 69, 1488.196899414062
0, 6, 70, 1525.033081054688
0, 6, 71, 1471.015991210938
0, 6, 72, 1595.470092773438
0, 6, 73, 1491.055419921875
0, 6, 74, 1556.8076171875
0, 6, 75, 1539.163208007812
0, 6, 76, 1565.957397460938
0, 6, 77, 1502.08203125
0, 6, 78, 1442.616577148438
0, 6, 79, 1556.419067382812
0, 6, 80, 1481.852783203125
0, 6, 81, 1476.90869140625
0, 6, 82, 1503.613891601562
0, 6, 83, 1523.6982421875
0, 6, 84, 1521.474731445312
0, 6, 85, 1536.289306640625
0, 6, 86, 1540.284301757812
0, 6, 87, 1574.929809570312
0, 6, 88, 1481.662231445312
0, 6, 89, 1561.880249023438
0, 6, 90, 1487.890258789062
0, 6, 91, 1541.082153320312
0, 6, 92, 1484.799072265625
0, 6, 93, 1499.421264648438
0, 6, 94, 1464.38818359375
0, 6, 95, 1507.758911132812
0, 6, 96, 1525.19140625
0, 6, 97, 1503.166870117188
0, 6, 98, 1494.71630859375
0, 6, 99, 1487.146484375
0, 6, 100, 1521.796630859375
0, 6, 101, 1515.1923828125
0, 6, 102, 1544.946411132812
0, 6, 103, 1497.361572265625
0, 6, 104, 1468.514282226562
0, 6, 105, 1489.502685546875
0, 6, 106, 1496.3447265625
0, 6, 107, 1502.598876953125
0, 6, 108, 1413.093383789062
0, 6, 109, 926.3174438476562
0, 6, 110, 294.3363037109375
0, 6, 111, 97.41499328613281
0, 6, 112, 72.02649688720703
0, 6, 113, 58.59999465942383
0, 6, 114, 56.60136413574219
0, 6, 115, 41.42669296264648
0, 6, 116, 43.58002853393555
0, 6, 117, 36.83171463012695
0, 6, 118, 36.54981994628906
0, 6, 119, 33.30729293823242
0, 6, 120, 30.65196800231934
0, 6, 121, 28.90363693237305
0, 6, 122, 25.28052711486816
0, 6, 123, 21.59502601623535
0, 6, 124, 30.37714958190918
0, 6, 125, 29.33968353271484
0, 6, 126, 23.85354995727539
0, 6, 127, 21.66275215148926
0, 7, 0, 22.18775367736816
0, 7, 1, 28.94253349304199
0, 7, 2, 21.62997436523438
0, 7, 3, 24.61500930786133
0, 7, 4, 22.91195869445801
0, 7, 5, 36.04825973510742
0, 7, 6, 33.20886611938477
0, 7, 7, 38.35170364379883
0, 7, 8, 28.15076446533203
0, 7, 9, 32.79609298706055
0, 7, 10, 43.61922454833984
0, 7, 11, 47.39933395385742
0, 7, 12, 45.56806182861328
0, 7, 13, 52.61833953857422
0, 7, 14, 64.68914794921875
0, 7, 15, 79.7847900390625
0, 7, 16, 136.1193084716797
0, 7, 17, 457.1405944824219
0, 7, 18, 1097.286010742188
0, 7, 19, 1497.310913085938
0, 7, 20, 1487.180419921875
0, 7, 21, 1367.467895507812
0, 7, 22, 1482.79638671875
0, 7, 23, 1451.590942382812
0, 7, 24, 1510.410400390625
0, 7, 25, 1593.191772460938
0, 7, 26, 1515.029174804688
0, 7, 27, 1509.50244140625
0, 7, 28, 1543.271118164062
0, 7, 29, 1576.971557617188
0, 7, 30, 1546.45361328125
0, 7, 31, 1435.084228515625
0, 7, 32, 1543.164306640625
0, 7, 33, 1489.009887695312
0, 7, 34, 1476.242797851562
0, 7, 35, 1522.838134765625
0, 7, 36, 1470.87939453125
0, 7, 37, 1599.708618164062
0, 7, 38, 1507.425659179688
0, 7, 39, 1487.042114257812
0, 7, 40, 1544.041259765625
0, 7, 41, 1469.988037109375
0, 7, 42, 1497.128051757812
0, 7, 43, 1443.987670898438
0, 7, 44, 1491.632690429688
0, 7, 45, 1468.713134765625
0, 7, 46, 1514.3828125
0, 7, 47, 1567.396118164062
0, 7, 48, 1520.6904296875
0, 7, 49, 1541.118896484375
0, 7, 50, 1514.3486328125
0, 7, 51, 1494.77197265625
0, 7, 52, 1520.946655273438
0, 7, 53, 1494.55615234375
0, 7, 54, 1587.623046875
0, 7, 55, 1471.358520507812
0, 7, 56, 1551.421142578125
0, 7, 57, 1509.327880859375
0, 7, 58, 1554.300903320312
0, 7, 59, 1545.429077148438
0, 7, 60, 1553.042846679688
0, 7, 61, 1491.7783203125
0, 7, 62, 1429.956909179688
0, 7, 63, 1511.40576171875
0, 7, 64, 1548.9287109375
0, 7, 65, 1525.34619140625
0, 7, 66, 1533.720703125
0, 7, 67, 1580.744384765625
0, 7, 68, 1533.083251953125
0, 7, 69, 1517.96142578125
0, 7, 70, 1497.077392578125
0, 7, 71, 1527.563842773438
0, 7, 72, 1517.4287109375
0, 7, 73, 1518.9404296875
0, 7, 74, 1579.93994140625
0, 7, 75, 1535.834350585938
0, 7, 76, 1558.043212890625
0, 7, 77, 1514.23876953125
0, 7, 78, 1510.217407226562
0, 7, 79, 1428.01416015625
0, 7, 80, 1486.834594726562
0, 7, 81, 1491.781127929688
0, 7, 82, 1531.546264648438
0, 7, 83, 1551.7421875
0, 7, 84, 1585.549194335938
0, 7, 85, 1471.665161132812
0, 7, 86, 1500.447021484375
0, 7, 87, 1501.224243164062
0, 7, 88, 1505.3955078125
0, 7, 89, 1553.62060546875
0, 7, 90, 1521.032836914062
0, 7, 91, 1559.979125976562
0, 7, 92, 1527.455200195312
0, 7, 93, 1555.011962890625
0, 7, 94, 1534.08837890625
0, 7, 95, 1506.847900390625
0, 7, 96, 1506.037719726562
0, 7, 97, 1432.409301757812
0, 7, 98, 1487.295532226562
0, 7, 99, 1525.3330078125
0, 7, 100, 1420.501220703125
0, 7, 101, 1467.822387695312
0, 7, 102, 1450.686889648438
0, 7, 103, 1428.5390625
0, 7, 104, 1497.443969726562
0, 7, 105, 1526.973266601562
0, 7, 106, 1565.234741210938
0, 7, 107, 1480.703247070312
0, 7, 108, 1404.402465820312
0, 7, 109, 1140.658203125
0, 7, 110, 470.476806640625
0, 7, 111, 130.0630798339844
0, 7, 112, 82.83983612060547
0, 7, 113, 68.70340728759766
0, 7, 114, 53.94422149658203
0, 7, 115, 48.04729080200195
0, 7, 116, 43.79099273681641
0, 7, 117, 38.30931854248047
0, 7, 118, 35.12844848632812
0, 7, 119, 35.59226989746094
0, 7, 120, 23.79913520812988
0, 7, 121, 30.4448299407959
0, 7, 122, 37.55998992919922
0, 7, 123, 34.15658187866211
0, 7, 124, 28.30752182006836
0, 7, 125, 23.53987312316895
0, 7, 126, 37.32140350341797
0, 7, 127, 22.7209587097168
0, 8, 0, 17.10900115966797
0, 8, 1, 20.80992889404297
0, 8, 2, 26.13441276550293
0, 8, 3, 25.7174186706543
0, 8, 4, 22.24941444396973
0, 8, 5, 31.51648902893066
0, 8, 6, 30.87414169311523
0, 8, 7, 28.92030334472656
0, 8, 8, 36.6839485168457
0, 8, 9, 48.48906326293945
0, 8, 10, 40.27595901489258
0, 8, 11, 44.27171325683594
0, 8, 12, 53.12564849853516
0, 8, 13, 73.8487548828125
0, 8, 14, 70.73466491699219
0, 8, 15, 95.06623840332031
0, 8, 16, 172.3056030273438
0, 8, 17, 673.0806884765625
0, 8, 18, 1279.522338867188
0, 8, 19, 1449.532958984375
0, 8, 20, 1422.581420898438
0, 8, 21, 1410.955200195312
0, 8, 22, 1481.635498046875
0, 8, 23, 1477.893676757812
0, 8, 24, 1439.198120117188
0, 8, 25, 1459.13232421875
0, 8, 26, 1514.653442382812
0, 8, 27, 1525.26220703125
0, 8, 28, 1476.851928710938
0, 8, 29, 1499.790893554688
0, 8, 30, 1490.231201171875
0, 8, 31, 1538.041015625
0, 8, 32, 1510.250366210938
0, 8, 33, 1486.58349609375
0, 8, 34, 1530.952026367188
0, 8, 35, 1442.015991210938
0, 8, 36, 1499.247924804688
0, 8, 37, 1554.605834960938
0, 8, 38, 1554.493896484375
0, 8, 39, 1495.817749023438
0, 8, 40, 1536.2666015625
0, 8, 41, 1479.616088867188
0, 8, 42, 1536.11474609375
0, 8, 43, 1434.696655273438
0, 8, 44, 1537.602661132812
0, 8, 45, 1514.440307617188
0, 8, 46, 1594.997802734375
0, 8, 47, 1581.126831054688
0, 8, 48, 1543.762939453125
