# TOPAS Version: 3.1.p3
# Parameter File: batch_inserts_54.txt
# Results for scorer Readout_Adipose
# Scored in component: MyBox
# X in 1 bin  of 0.75 cm
# Y in 512 bins of 0.0783984 cm
# Z in 128 bins of 0.078125 cm
# EnergyDeposit ( MeV ) : Sum   
0, 0, 0, 4.613507747650146
0, 0, 1, 2.660492181777954
0, 0, 2, 3.452441692352295
0, 0, 3, 1.931439995765686
0, 0, 4, 2.553000688552856
0, 0, 5, 4.35488224029541
0, 0, 6, 7.226008892059326
0, 0, 7, 10.2998743057251
0, 0, 8, 5.981541633605957
0, 0, 9, 6.160155296325684
0, 0, 10, 7.003403663635254
0, 0, 11, 6.873475074768066
0, 0, 12, 7.034365653991699
0, 0, 13, 6.342883110046387
0, 0, 14, 6.631144046783447
0, 0, 15, 9.706342697143555
0, 0, 16, 9.414774894714355
0, 0, 17, 8.755748748779297
0, 0, 18, 12.80237102508545
0, 0, 19, 43.03028106689453
0, 0, 20, 140.0697631835938
0, 0, 21, 224.1705932617188
0, 0, 22, 248.310302734375
0, 0, 23, 255.2043304443359
0, 0, 24, 250.2034606933594
0, 0, 25, 258.9910888671875
0, 0, 26, 238.7120361328125
0, 0, 27, 238.2037506103516
0, 0, 28, 272.1252136230469
0, 0, 29, 251.7704772949219
0, 0, 30, 229.3090667724609
0, 0, 31, 243.5803070068359
0, 0, 32, 262.8937683105469
0, 0, 33, 260.153564453125
0, 0, 34, 287.5481872558594
0, 0, 35, 268.33203125
0, 0, 36, 246.3581085205078
0, 0, 37, 253.3805236816406
0, 0, 38, 267.95703125
0, 0, 39, 228.4344787597656
0, 0, 40, 242.2237091064453
0, 0, 41, 268.327392578125
0, 0, 42, 228.896240234375
0, 0, 43, 259.3876953125
0, 0, 44, 250.6039123535156
0, 0, 45, 252.2069854736328
0, 0, 46, 244.3224487304688
0, 0, 47, 254.6241302490234
0, 0, 48, 266.1638793945312
0, 0, 49, 273.9815368652344
0, 0, 50, 250.4944610595703
0, 0, 51, 254.8506622314453
0, 0, 52, 272.3504943847656
0, 0, 53, 290.694091796875
0, 0, 54, 242.1011505126953
0, 0, 55, 241.9462738037109
0, 0, 56, 279.29248046875
0, 0, 57, 264.2752990722656
0, 0, 58, 245.5669097900391
0, 0, 59, 270.0201110839844
0, 0, 60, 234.3077850341797
0, 0, 61, 246.8166351318359
0, 0, 62, 259.2605590820312
0, 0, 63, 269.2619934082031
0, 0, 64, 254.7679748535156
0, 0, 65, 260.2503662109375
0, 0, 66, 276.9461364746094
0, 0, 67, 246.9922180175781
0, 0, 68, 258.0705871582031
0, 0, 69, 262.3172302246094
0, 0, 70, 275.254638671875
0, 0, 71, 238.2450561523438
0, 0, 72, 251.6247253417969
0, 0, 73, 257.7563171386719
0, 0, 74, 251.5414886474609
0, 0, 75, 240.798828125
0, 0, 76, 227.8856964111328
0, 0, 77, 259.0697631835938
0, 0, 78, 257.0096435546875
0, 0, 79, 277.8896179199219
0, 0, 80, 214.7100524902344
0, 0, 81, 266.5588073730469
0, 0, 82, 256.0879516601562
0, 0, 83, 248.9405059814453
0, 0, 84, 268.3098754882812
0, 0, 85, 232.6622467041016
0, 0, 86, 252.8152160644531
0, 0, 87, 251.7683715820312
0, 0, 88, 258.7445678710938
0, 0, 89, 284.6470336914062
0, 0, 90, 245.1079864501953
0, 0, 91, 280.1520080566406
0, 0, 92, 252.1425933837891
0, 0, 93, 249.0962219238281
0, 0, 94, 248.6608428955078
0, 0, 95, 246.8662261962891
0, 0, 96, 275.6262817382812
0, 0, 97, 271.309814453125
0, 0, 98, 272.3769836425781
0, 0, 99, 259.6075744628906
0, 0, 100, 258.01806640625
0, 0, 101, 227.3170471191406
0, 0, 102, 232.7789001464844
0, 0, 103, 268.1951904296875
0, 0, 104, 252.7545013427734
0, 0, 105, 250.7158813476562
0, 0, 106, 245.7899017333984
0, 0, 107, 154.0302734375
0, 0, 108, 38.95041275024414
0, 0, 109, 11.93498611450195
0, 0, 110, 14.06116485595703
0, 0, 111, 11.04740619659424
0, 0, 112, 8.249262809753418
0, 0, 113, 5.515859127044678
0, 0, 114, 6.146674633026123
0, 0, 115, 5.505178451538086
0, 0, 116, 6.412996768951416
0, 0, 117, 5.344836711883545
0, 0, 118, 5.686563968658447
0, 0, 119, 3.839777231216431
0, 0, 120, 5.50201940536499
0, 0, 121, 3.017742872238159
0, 0, 122, 3.916101694107056
0, 0, 123, 2.846049070358276
0, 0, 124, 4.565610408782959
0, 0, 125, 4.740447044372559
0, 0, 126, 5.20034122467041
0, 0, 127, 2.369758367538452
0, 1, 0, 9.525873184204102
0, 1, 1, 2.021821260452271
0, 1, 2, 4.28592586517334
0, 1, 3, 1.667399406433105
0, 1, 4, 3.642820835113525
0, 1, 5, 3.546250581741333
0, 1, 6, 5.135583400726318
0, 1, 7, 5.502301216125488
0, 1, 8, 7.502761363983154
0, 1, 9, 3.558836698532104
0, 1, 10, 7.054882049560547
0, 1, 11, 12.89924716949463
0, 1, 12, 9.57878303527832
0, 1, 13, 10.94913959503174
0, 1, 14, 7.430672168731689
0, 1, 15, 7.365602493286133
0, 1, 16, 11.92397785186768
0, 1, 17, 11.84019470214844
0, 1, 18, 20.8437442779541
0, 1, 19, 66.13764953613281
0, 1, 20, 198.6808624267578
0, 1, 21, 255.4453582763672
0, 1, 22, 294.3199768066406
0, 1, 23, 283.6365051269531
0, 1, 24, 274.5239868164062
0, 1, 25, 288.8860168457031
0, 1, 26, 268.217529296875
0, 1, 27, 306.5920104980469
0, 1, 28, 298.0520935058594
0, 1, 29, 294.9806213378906
0, 1, 30, 280.6924438476562
0, 1, 31, 294.5316467285156
0, 1, 32, 291.8185424804688
0, 1, 33, 295.2582702636719
0, 1, 34, 294.1421508789062
0, 1, 35, 279.1578674316406
0, 1, 36, 308.6467590332031
0, 1, 37, 294.7096862792969
0, 1, 38, 279.5534973144531
0, 1, 39, 294.0299987792969
0, 1, 40, 267.3728637695312
0, 1, 41, 288.2026062011719
0, 1, 42, 291.163818359375
0, 1, 43, 335.5999450683594
0, 1, 44, 280.0838623046875
0, 1, 45, 293.031494140625
0, 1, 46, 259.0268249511719
0, 1, 47, 309.857421875
0, 1, 48, 284.8988647460938
0, 1, 49, 301.0742492675781
0, 1, 50, 262.5009155273438
0, 1, 51, 272.275146484375
0, 1, 52, 297.5116271972656
0, 1, 53, 306.3722839355469
0, 1, 54, 273.8299560546875
0, 1, 55, 294.343505859375
0, 1, 56, 275.2373962402344
0, 1, 57, 298.8717651367188
0, 1, 58, 310.5646362304688
0, 1, 59, 293.045654296875
0, 1, 60, 297.0883178710938
0, 1, 61, 275.189208984375
0, 1, 62, 309.0154418945312
0, 1, 63, 289.0147399902344
0, 1, 64, 289.0918579101562
0, 1, 65, 294.7578125
0, 1, 66, 294.0932922363281
0, 1, 67, 292.2483520507812
0, 1, 68, 278.503662109375
0, 1, 69, 280.2755432128906
0, 1, 70, 271.3581848144531
0, 1, 71, 273.1247253417969
0, 1, 72, 285.7610473632812
0, 1, 73, 303.4197998046875
0, 1, 74, 301.1195373535156
0, 1, 75, 294.8559875488281
0, 1, 76, 284.031005859375
0, 1, 77, 291.7587585449219
0, 1, 78, 296.8485412597656
0, 1, 79, 301.5714721679688
0, 1, 80, 295.9320678710938
0, 1, 81, 301.8728637695312
0, 1, 82, 282.2074584960938
0, 1, 83, 330.8017272949219
0, 1, 84, 308.7999267578125
0, 1, 85, 252.0469818115234
0, 1, 86, 296.5375671386719
0, 1, 87, 288.7861022949219
0, 1, 88, 299.2275390625
0, 1, 89, 292.1612243652344
0, 1, 90, 269.5501708984375
0, 1, 91, 318.2406311035156
0, 1, 92, 290.72900390625
0, 1, 93, 286.9906921386719
0, 1, 94, 303.0673217773438
0, 1, 95, 283.7712707519531
0, 1, 96, 282.43212890625
0, 1, 97, 301.2923889160156
0, 1, 98, 276.93994140625
0, 1, 99, 264.7510986328125
0, 1, 100, 276.6603088378906
0, 1, 101, 281.974365234375
0, 1, 102, 278.3494873046875
0, 1, 103, 281.9577331542969
0, 1, 104, 307.1014709472656
0, 1, 105, 296.3023071289062
0, 1, 106, 260.704833984375
0, 1, 107, 191.9820709228516
0, 1, 108, 80.59574890136719
0, 1, 109, 23.93757820129395
0, 1, 110, 11.48487377166748
0, 1, 111, 8.83643913269043
0, 1, 112, 12.80105304718018
0, 1, 113, 4.692113399505615
0, 1, 114, 7.128193855285645
0, 1, 115, 6.398746013641357
0, 1, 116, 10.34472179412842
0, 1, 117, 5.403907299041748
0, 1, 118, 3.888583421707153
0, 1, 119, 6.005231857299805
0, 1, 120, 5.105791091918945
0, 1, 121, 2.373635768890381
0, 1, 122, 4.333786487579346
0, 1, 123, 4.995288848876953
0, 1, 124, 9.541736602783203
0, 1, 125, 3.414975881576538
0, 1, 126, 3.354949712753296
0, 1, 127, 2.431128263473511
0, 2, 0, 3.689261436462402
0, 2, 1, 2.439970731735229
0, 2, 2, 4.058784484863281
0, 2, 3, 3.497589826583862
0, 2, 4, 3.444437503814697
0, 2, 5, 2.985066652297974
0, 2, 6, 2.141167163848877
0, 2, 7, 3.101653814315796
0, 2, 8, 4.194778919219971
0, 2, 9, 7.103532791137695
0, 2, 10, 7.750071048736572
0, 2, 11, 5.294350624084473
0, 2, 12, 6.016162395477295
0, 2, 13, 11.55642318725586
0, 2, 14, 10.16264915466309
0, 2, 15, 8.523475646972656
0, 2, 16, 8.618304252624512
0, 2, 17, 15.73384571075439
0, 2, 18, 31.77957534790039
0, 2, 19, 115.7118530273438
0, 2, 20, 247.3758392333984
0, 2, 21, 272.8558044433594
0, 2, 22, 314.6271057128906
0, 2, 23, 301.4790954589844
0, 2, 24, 286.4458923339844
0, 2, 25, 303.0382385253906
0, 2, 26, 293.5884094238281
0, 2, 27, 274.6756286621094
0, 2, 28, 275.1288452148438
0, 2, 29, 274.4421997070312
0, 2, 30, 290.0266418457031
0, 2, 31, 277.6069030761719
0, 2, 32, 294.5525207519531
0, 2, 33, 282.8196105957031
0, 2, 34, 330.8825988769531
0, 2, 35, 291.1339111328125
0, 2, 36, 301.5263671875
0, 2, 37, 317.3700256347656
0, 2, 38, 312.4387512207031
0, 2, 39, 270.0299377441406
0, 2, 40, 308.1603698730469
0, 2, 41, 291.2400817871094
0, 2, 42, 304.0967712402344
0, 2, 43, 313.3501892089844
0, 2, 44, 311.2810974121094
0, 2, 45, 325.9859008789062
0, 2, 46, 290.69140625
0, 2, 47, 302.8156127929688
0, 2, 48, 284.2958068847656
0, 2, 49, 279.3430786132812
0, 2, 50, 294.1448669433594
0, 2, 51, 288.1420288085938
0, 2, 52, 272.7247924804688
0, 2, 53, 285.3086853027344
0, 2, 54, 280.5116271972656
0, 2, 55, 275.5451049804688
0, 2, 56, 302.3728332519531
0, 2, 57, 291.5039978027344
0, 2, 58, 302.7450561523438
0, 2, 59, 288.9457702636719
0, 2, 60, 317.60888671875
0, 2, 61, 301.9518127441406
0, 2, 62, 313.1587829589844
0, 2, 63, 300.791748046875
0, 2, 64, 296.0234680175781
0, 2, 65, 316.7454223632812
0, 2, 66, 279.2379150390625
0, 2, 67, 290.1717529296875
0, 2, 68, 298.9233703613281
0, 2, 69, 310.7697143554688
0, 2, 70, 335.9572143554688
0, 2, 71, 282.5895690917969
0, 2, 72, 304.3678588867188
0, 2, 73, 310.562744140625
0, 2, 74, 285.8656616210938
0, 2, 75, 304.9297180175781
0, 2, 76, 288.6784362792969
0, 2, 77, 297.7185974121094
0, 2, 78, 315.9922790527344
0, 2, 79, 309.1412963867188
0, 2, 80, 296.6658325195312
0, 2, 81, 281.2281188964844
0, 2, 82, 318.9981994628906
0, 2, 83, 311.9877014160156
0, 2, 84, 287.1874389648438
0, 2, 85, 280.6170959472656
0, 2, 86, 323.4238891601562
0, 2, 87, 285.8314208984375
0, 2, 88, 282.598388671875
0, 2, 89, 297.0115356445312
0, 2, 90, 296.0434265136719
0, 2, 91, 278.444091796875
0, 2, 92, 306.5177001953125
0, 2, 93, 315.5254211425781
0, 2, 94, 290.1216430664062
0, 2, 95, 315.9987487792969
0, 2, 96, 314.1844787597656
0, 2, 97, 290.9898376464844
0, 2, 98, 296.8499145507812
0, 2, 99, 273.7120971679688
0, 2, 100, 305.6394958496094
0, 2, 101, 300.2357788085938
0, 2, 102, 296.5644226074219
0, 2, 103, 294.0763854980469
0, 2, 104, 294.3177185058594
0, 2, 105, 274.3963928222656
0, 2, 106, 296.7146301269531
0, 2, 107, 268.4340209960938
0, 2, 108, 116.1511306762695
0, 2, 109, 30.94137001037598
0, 2, 110, 9.240536689758301
0, 2, 111, 10.57062149047852
0, 2, 112, 6.470968723297119
0, 2, 113, 10.46555042266846
0, 2, 114, 7.939380645751953
0, 2, 115, 8.728647232055664
0, 2, 116, 8.904829978942871
0, 2, 117, 8.284519195556641
0, 2, 118, 3.726670503616333
0, 2, 119, 3.798946619033813
0, 2, 120, 7.365550518035889
0, 2, 121, 2.888373136520386
0, 2, 122, 3.879676580429077
0, 2, 123, 2.979595184326172
0, 2, 124, 5.293685436248779
0, 2, 125, 6.536404132843018
0, 2, 126, 3.790805339813232
0, 2, 127, 3.816928625106812
0, 3, 0, 2.81116795539856
0, 3, 1, 3.139879465103149
0, 3, 2, 5.34963846206665
0, 3, 3, 3.749621152877808
0, 3, 4, 5.429815292358398
0, 3, 5, 7.250222206115723
0, 3, 6, 7.269761085510254
0, 3, 7, 5.101867198944092
0, 3, 8, 5.600422859191895
0, 3, 9, 5.427162647247314
0, 3, 10, 5.431907176971436
0, 3, 11, 4.38962459564209
0, 3, 12, 7.990323066711426
0, 3, 13, 14.57236766815186
0, 3, 14, 12.27447032928467
0, 3, 15, 14.24648380279541
0, 3, 16, 11.85654354095459
0, 3, 17, 18.71096611022949
0, 3, 18, 53.00584411621094
0, 3, 19, 176.7960968017578
0, 3, 20, 269.6988220214844
0, 3, 21, 270.3958740234375
0, 3, 22, 283.3084716796875
0, 3, 23, 286.5735168457031
0, 3, 24, 284.8392333984375
0, 3, 25, 268.7846374511719
0, 3, 26, 303.7093811035156
0, 3, 27, 292.0228576660156
0, 3, 28, 280.8201904296875
0, 3, 29, 337.2702331542969
0, 3, 30, 321.2066040039062
0, 3, 31, 287.1509704589844
0, 3, 32, 305.8424377441406
0, 3, 33, 313.5711059570312
0, 3, 34, 322.226318359375
0, 3, 35, 305.5499267578125
0, 3, 36, 270.7646179199219
0, 3, 37, 312.0513916015625
0, 3, 38, 303.8319091796875
0, 3, 39, 287.5394897460938
0, 3, 40, 266.609619140625
0, 3, 41, 298.8656921386719
0, 3, 42, 285.2533264160156
0, 3, 43, 305.6063537597656
0, 3, 44, 311.211669921875
0, 3, 45, 290.1849365234375
0, 3, 46, 329.8937377929688
0, 3, 47, 299.927001953125
0, 3, 48, 305.0639343261719
0, 3, 49, 275.5386047363281
0, 3, 50, 289.5394592285156
0, 3, 51, 274.7939453125
0, 3, 52, 315.9537658691406
0, 3, 53, 289.5079956054688
0, 3, 54, 284.5982055664062
0, 3, 55, 281.7151184082031
0, 3, 56, 297.2683715820312
0, 3, 57, 289.390869140625
0, 3, 58, 307.1909484863281
0, 3, 59, 295.6036376953125
0, 3, 60, 297.1209106445312
0, 3, 61, 264.9429016113281
0, 3, 62, 283.4677734375
0, 3, 63, 308.4932861328125
0, 3, 64, 317.0331420898438
0, 3, 65, 307.4449157714844
0, 3, 66, 314.4776916503906
0, 3, 67, 318.3639526367188
0, 3, 68, 279.1520690917969
0, 3, 69, 283.4814147949219
0, 3, 70, 290.5072937011719
0, 3, 71, 301.9118347167969
0, 3, 72, 271.3258056640625
0, 3, 73, 307.4531555175781
0, 3, 74, 293.0561218261719
0, 3, 75, 290.9297180175781
0, 3, 76, 305.1096496582031
0, 3, 77, 316.2821960449219
0, 3, 78, 303.7093200683594
0, 3, 79, 281.4261169433594
0, 3, 80, 290.3485412597656
0, 3, 81, 312.0776977539062
0, 3, 82, 316.1198120117188
0, 3, 83, 301.5626220703125
0, 3, 84, 309.6236877441406
0, 3, 85, 292.8334045410156
0, 3, 86, 302.6885681152344
0, 3, 87, 299.1885070800781
0, 3, 88, 299.4831237792969
0, 3, 89, 294.77685546875
0, 3, 90, 275.8438110351562
0, 3, 91, 284.637939453125
0, 3, 92, 304.2096252441406
0, 3, 93, 311.9967346191406
0, 3, 94, 298.879638671875
0, 3, 95, 335.9716796875
0, 3, 96, 290.7200622558594
0, 3, 97, 281.8780517578125
0, 3, 98, 276.7224731445312
0, 3, 99, 262.3117980957031
0, 3, 100, 284.5735168457031
0, 3, 101, 296.1492919921875
0, 3, 102, 275.3483276367188
0, 3, 103, 320.0125122070312
0, 3, 104, 308.0973510742188
0, 3, 105, 287.8734741210938
0, 3, 106, 303.0914306640625
0, 3, 107, 285.2998657226562
0, 3, 108, 169.4093017578125
0, 3, 109, 57.18039321899414
0, 3, 110, 19.30043411254883
0, 3, 111, 15.61061668395996
0, 3, 112, 15.04391860961914
0, 3, 113, 6.477944850921631
0, 3, 114, 13.13391494750977
0, 3, 115, 9.365718841552734
0, 3, 116, 7.978870868682861
0, 3, 117, 7.168260097503662
0, 3, 118, 6.165406227111816
0, 3, 119, 5.170723915100098
0, 3, 120, 4.870279788970947
0, 3, 121, 2.463936567306519
0, 3, 122, 4.768659591674805
0, 3, 123, 7.89685583114624
0, 3, 124, 2.495051622390747
0, 3, 125, 6.900959491729736
0, 3, 126, 4.948093414306641
0, 3, 127, 4.140400886535645
0, 4, 0, 2.416495800018311
0, 4, 1, 3.952128648757935
0, 4, 2, 4.134780883789062
0, 4, 3, 2.72272801399231
0, 4, 4, 5.909837245941162
0, 4, 5, 8.228348731994629
0, 4, 6, 6.981252193450928
0, 4, 7, 3.634567975997925
0, 4, 8, 3.078026533126831
0, 4, 9, 5.948578357696533
0, 4, 10, 7.445942878723145
0, 4, 11, 7.617576122283936
0, 4, 12, 8.578489303588867
0, 4, 13, 7.92579460144043
0, 4, 14, 10.44462394714355
0, 4, 15, 10.58797931671143
0, 4, 16, 14.83723545074463
0, 4, 17, 18.27808380126953
0, 4, 18, 90.65557098388672
0, 4, 19, 221.8330078125
0, 4, 20, 285.1094665527344
0, 4, 21, 273.0037841796875
0, 4, 22, 306.6484375
0, 4, 23, 267.0397033691406
0, 4, 24, 288.9555053710938
0, 4, 25, 275.6414184570312
0, 4, 26, 297.08935546875
0, 4, 27, 282.0096740722656
0, 4, 28, 310.0363464355469
0, 4, 29, 321.7180480957031
0, 4, 30, 311.4201049804688
0, 4, 31, 304.2138061523438
0, 4, 32, 280.1812744140625
0, 4, 33, 296.5727233886719
0, 4, 34, 297.3190002441406
0, 4, 35, 312.6152648925781
0, 4, 36, 295.1302185058594
0, 4, 37, 288.784912109375
0, 4, 38, 296.6645812988281
0, 4, 39, 293.4224548339844
0, 4, 40, 302.4031066894531
0, 4, 41, 314.0787963867188
0, 4, 42, 331.5915222167969
0, 4, 43, 296.7153930664062
0, 4, 44, 320.5226135253906
0, 4, 45, 325.4511413574219
0, 4, 46, 306.6973571777344
0, 4, 47, 292.2357482910156
0, 4, 48, 296.5280456542969
0, 4, 49, 277.6032104492188
0, 4, 50, 297.4835205078125
0, 4, 51, 315.8311767578125
0, 4, 52, 326.1732788085938
0, 4, 53, 304.154052734375
0, 4, 54, 286.0640563964844
0, 4, 55, 315.510009765625
0, 4, 56, 286.2879638671875
0, 4, 57, 312.8517150878906
0, 4, 58, 296.6875610351562
0, 4, 59, 308.6189270019531
0, 4, 60, 303.1352844238281
0, 4, 61, 315.4006652832031
0, 4, 62, 307.6121215820312
0, 4, 63, 300.4273071289062
0, 4, 64, 331.2642517089844
0, 4, 65, 317.1543884277344
0, 4, 66, 294.2554931640625
0, 4, 67, 286.55078125
0, 4, 68, 313.2344665527344
0, 4, 69, 276.1678771972656
0, 4, 70, 300.4015197753906
0, 4, 71, 321.2434692382812
0, 4, 72, 335.7197265625
0, 4, 73, 299.9332275390625
0, 4, 74, 293.5604553222656
0, 4, 75, 290.1564331054688
0, 4, 76, 274.2800903320312
0, 4, 77, 278.3454895019531
0, 4, 78, 310.1328125
0, 4, 79, 318.8314819335938
0, 4, 80, 316.5641784667969
0, 4, 81, 311.3836364746094
0, 4, 82, 298.0494079589844
0, 4, 83, 300.265625
0, 4, 84, 293.7320251464844
0, 4, 85, 297.1670227050781
0, 4, 86, 298.8579406738281
0, 4, 87, 284.519775390625
0, 4, 88, 305.4287719726562
0, 4, 89, 293.7368774414062
0, 4, 90, 331.2453002929688
0, 4, 91, 301.048828125
0, 4, 92, 290.2848815917969
0, 4, 93, 297.2794494628906
0, 4, 94, 292.3388977050781
0, 4, 95, 287.9139709472656
0, 4, 96, 324.2640991210938
0, 4, 97, 273.5497131347656
0, 4, 98, 326.5113220214844
0, 4, 99, 312.2438354492188
0, 4, 100, 300.2895812988281
0, 4, 101, 257.3779602050781
0, 4, 102, 296.1177062988281
0, 4, 103, 319.2838439941406
0, 4, 104, 281.8807983398438
0, 4, 105, 312.1427307128906
0, 4, 106, 286.6278381347656
0, 4, 107, 295.9778747558594
0, 4, 108, 227.6393280029297
0, 4, 109, 79.03237915039062
0, 4, 110, 17.84414482116699
0, 4, 111, 13.47138690948486
0, 4, 112, 10.68652629852295
0, 4, 113, 12.38925552368164
0, 4, 114, 8.662485122680664
0, 4, 115, 9.971196174621582
0, 4, 116, 10.6055908203125
0, 4, 117, 5.652353286743164
0, 4, 118, 11.12988567352295
0, 4, 119, 10.54966831207275
0, 4, 120, 6.188209056854248
0, 4, 121, 6.001796722412109
0, 4, 122, 5.718831062316895
0, 4, 123, 5.972048759460449
0, 4, 124, 4.397037029266357
0, 4, 125, 8.340470314025879
0, 4, 126, 5.845312595367432
0, 4, 127, 5.302217960357666
0, 5, 0, 4.563496112823486
0, 5, 1, 5.078032493591309
0, 5, 2, 5.589394092559814
0, 5, 3, 5.100722789764404
0, 5, 4, 6.776031970977783
0, 5, 5, 6.257506370544434
0, 5, 6, 7.294369220733643
0, 5, 7, 4.230167865753174
0, 5, 8, 4.581877708435059
0, 5, 9, 5.075652599334717
0, 5, 10, 8.257516860961914
0, 5, 11, 7.614741325378418
0, 5, 12, 7.494277000427246
0, 5, 13, 4.771827697753906
0, 5, 14, 14.64770126342773
0, 5, 15, 16.26474380493164
0, 5, 16, 13.89716148376465
0, 5, 17, 28.14961814880371
0, 5, 18, 137.703369140625
0, 5, 19, 289.8889770507812
0, 5, 20, 310.6424255371094
0, 5, 21, 316.8270568847656
0, 5, 22, 273.5882568359375
0, 5, 23, 311.94091796875
0, 5, 24, 300.7691650390625
0, 5, 25, 290.0364685058594
0, 5, 26, 294.2449035644531
0, 5, 27, 321.9202880859375
0, 5, 28, 303.7174682617188
0, 5, 29, 298.3296203613281
0, 5, 30, 324.4680786132812
0, 5, 31, 286.1634521484375
0, 5, 32, 300.6652221679688
0, 5, 33, 306.3260498046875
0, 5, 34, 300.6355285644531
0, 5, 35, 312.1764526367188
0, 5, 36, 270.2138366699219
0, 5, 37, 282.6737670898438
0, 5, 38, 293.3173828125
0, 5, 39, 313.5295104980469
0, 5, 40, 307.2454223632812
0, 5, 41, 274.787109375
0, 5, 42, 305.1213989257812
0, 5, 43, 313.3582763671875
0, 5, 44, 291.6999816894531
0, 5, 45, 299.8357238769531
0, 5, 46, 265.0999755859375
0, 5, 47, 278.8596496582031
0, 5, 48, 293.5094604492188
0, 5, 49, 286.1683349609375
0, 5, 50, 294.9055480957031
0, 5, 51, 278.5946960449219
0, 5, 52, 269.3251953125
0, 5, 53, 283.7468566894531
0, 5, 54, 291.0070190429688
0, 5, 55, 345.9472961425781
0, 5, 56, 307.2305603027344
0, 5, 57, 305.4815063476562
0, 5, 58, 310.8244018554688
0, 5, 59, 304.7750854492188
0, 5, 60, 308.9373168945312
0, 5, 61, 280.9347534179688
0, 5, 62, 327.1766052246094
0, 5, 63, 290.4175415039062
0, 5, 64, 322.2842712402344
0, 5, 65, 304.0959777832031
0, 5, 66, 326.1067504882812
0, 5, 67, 312.1590881347656
0, 5, 68, 311.7872619628906
0, 5, 69, 311.8501892089844
0, 5, 70, 299.6019592285156
0, 5, 71, 273.2158203125
0, 5, 72, 309.0145568847656
0, 5, 73, 301.8744812011719
0, 5, 74, 295.1311950683594
0, 5, 75, 294.1452026367188
0, 5, 76, 286.622802734375
0, 5, 77, 296.012451171875
0, 5, 78, 314.7396240234375
0, 5, 79, 308.6940612792969
0, 5, 80, 294.1629028320312
0, 5, 81, 327.9515380859375
0, 5, 82, 325.1940002441406
0, 5, 83, 284.0024108886719
0, 5, 84, 300.4633483886719
0, 5, 85, 271.9898986816406
0, 5, 86, 324.9943542480469
0, 5, 87, 284.4997253417969
0, 5, 88, 314.1687316894531
0, 5, 89, 304.3451538085938
0, 5, 90, 316.5120849609375
0, 5, 91, 313.3186340332031
0, 5, 92, 295.8818054199219
0, 5, 93, 321.8175048828125
0, 5, 94, 308.0873107910156
0, 5, 95, 296.5225219726562
0, 5, 96, 298.0392456054688
0, 5, 97, 296.5237121582031
0, 5, 98, 317.8624267578125
0, 5, 99, 303.2362365722656
0, 5, 100, 290.5851135253906
0, 5, 101, 305.5948791503906
0, 5, 102, 290.3541870117188
0, 5, 103, 312.9495849609375
0, 5, 104, 300.6842041015625
0, 5, 105, 294.0375366210938
0, 5, 106, 286.1640014648438
0, 5, 107, 292.346923828125
0, 5, 108, 265.8390502929688
0, 5, 109, 158.8685302734375
0, 5, 110, 40.33232498168945
0, 5, 111, 21.05988883972168
0, 5, 112, 15.49107646942139
0, 5, 113, 13.89649486541748
0, 5, 114, 11.87752437591553
0, 5, 115, 9.243154525756836
0, 5, 116, 8.282724380493164
0, 5, 117, 10.15005207061768
0, 5, 118, 13.6384105682373
0, 5, 119, 3.326603412628174
0, 5, 120, 4.995508670806885
0, 5, 121, 5.365597248077393
0, 5, 122, 5.601480960845947
0, 5, 123, 4.310015201568604
0, 5, 124, 5.433285236358643
0, 5, 125, 3.774077177047729
0, 5, 126, 5.317002296447754
0, 5, 127, 3.9512939453125
0, 6, 0, 3.864833354949951
0, 6, 1, 6.79487943649292
0, 6, 2, 7.656711578369141
0, 6, 3, 7.352156639099121
0, 6, 4, 4.55714750289917
0, 6, 5, 6.767364978790283
0, 6, 6, 7.28492259979248
0, 6, 7, 5.655370235443115
0, 6, 8, 7.646681308746338
0, 6, 9, 5.287090301513672
0, 6, 10, 8.435198783874512
0, 6, 11, 8.758543014526367
0, 6, 12, 9.247611045837402
0, 6, 13, 14.62499237060547
0, 6, 14, 9.763046264648438
0, 6, 15, 16.10265350341797
0, 6, 16, 30.47058486938477
0, 6, 17, 55.00399398803711
0, 6, 18, 172.5707244873047
0, 6, 19, 278.2865600585938
0, 6, 20, 291.455810546875
0, 6, 21, 313.0831298828125
0, 6, 22, 322.5974731445312
0, 6, 23, 305.4456481933594
0, 6, 24, 317.0648803710938
0, 6, 25, 316.8374633789062
0, 6, 26, 318.3525695800781
0, 6, 27, 330.4968566894531
0, 6, 28, 295.5230102539062
0, 6, 29, 328.750244140625
0, 6, 30, 285.1291198730469
0, 6, 31, 286.9824829101562
0, 6, 32, 340.2087707519531
0, 6, 33, 299.341064453125
0, 6, 34, 339.8468322753906
0, 6, 35, 320.2254028320312
0, 6, 36, 273.8062438964844
0, 6, 37, 288.7849731445312
0, 6, 38, 309.8722839355469
0, 6, 39, 300.6665954589844
0, 6, 40, 286.8082580566406
0, 6, 41, 296.2861633300781
0, 6, 42, 303.9635925292969
0, 6, 43, 286.8739013671875
0, 6, 44, 281.1723937988281
0, 6, 45, 318.6999816894531
0, 6, 46, 302.1157531738281
0, 6, 47, 332.466796875
0, 6, 48, 293.8912658691406
0, 6, 49, 311.6223449707031
0, 6, 50, 329.186279296875
0, 6, 51, 309.7695922851562
0, 6, 52, 320.2619018554688
0, 6, 53, 329.8135070800781
0, 6, 54, 301.1094055175781
0, 6, 55, 306.5581665039062
0, 6, 56, 292.9000854492188
0, 6, 57, 315.7021789550781
0, 6, 58, 260.3710327148438
0, 6, 59, 300.6787414550781
0, 6, 60, 312.4096984863281
0, 6, 61, 269.4561767578125
0, 6, 62, 336.8613586425781
0, 6, 63, 325.1662902832031
0, 6, 64, 291.9613647460938
0, 6, 65, 286.9224853515625
0, 6, 66, 303.119384765625
0, 6, 67, 310.39599609375
0, 6, 68, 292.8462829589844
0, 6, 69, 279.1390380859375
0, 6, 70, 275.3073120117188
0, 6, 71, 289.0401000976562
0, 6, 72, 311.9043579101562
0, 6, 73, 294.0996704101562
0, 6, 74, 330.1139831542969
0, 6, 75, 343.6373901367188
0, 6, 76, 296.1020812988281
0, 6, 77, 286.951904296875
0, 6, 78, 279.4145812988281
0, 6, 79, 292.0125427246094
0, 6, 80, 301.0763854980469
0, 6, 81, 313.5026550292969
0, 6, 82, 319.2552795410156
0, 6, 83, 319.2167358398438
0, 6, 84, 296.5743713378906
0, 6, 85, 300.2227783203125
0, 6, 86, 328.70556640625
0, 6, 87, 292.5391540527344
0, 6, 88, 307.417236328125
0, 6, 89, 304.6349182128906
0, 6, 90, 299.2594909667969
0, 6, 91, 311.2095031738281
0, 6, 92, 285.8529052734375
0, 6, 93, 297.4262390136719
0, 6, 94, 272.0418395996094
0, 6, 95, 301.36669921875
0, 6, 96, 347.4430236816406
0, 6, 97, 308.3160400390625
0, 6, 98, 301.8252258300781
0, 6, 99, 272.6321716308594
0, 6, 100, 308.078125
0, 6, 101, 293.1731262207031
0, 6, 102, 308.0579223632812
0, 6, 103, 307.5148620605469
0, 6, 104, 290.6731262207031
0, 6, 105, 301.4285583496094
0, 6, 106, 306.8999328613281
0, 6, 107, 307.3927307128906
0, 6, 108, 264.7764587402344
0, 6, 109, 189.0964965820312
0, 6, 110, 56.39188766479492
0, 6, 111, 21.1236743927002
0, 6, 112, 13.78618717193604
0, 6, 113, 10.23489665985107
0, 6, 114, 13.29145336151123
0, 6, 115, 12.23005104064941
0, 6, 116, 9.330644607543945
0, 6, 117, 7.872256278991699
0, 6, 118, 10.34656143188477
0, 6, 119, 10.5611572265625
0, 6, 120, 6.554372787475586
0, 6, 121, 4.932133197784424
0, 6, 122, 6.59129524230957
0, 6, 123, 4.930140495300293
0, 6, 124, 6.788216590881348
0, 6, 125, 7.606972694396973
0, 6, 126, 5.363771915435791
0, 6, 127, 7.262060165405273
0, 7, 0, 6.713961124420166
0, 7, 1, 4.384982109069824
0, 7, 2, 4.630386352539062
0, 7, 3, 5.007913112640381
0, 7, 4, 2.630248308181763
0, 7, 5, 4.335978984832764
0, 7, 6, 6.883959293365479
0, 7, 7, 5.274507999420166
0, 7, 8, 5.72686767578125
0, 7, 9, 6.295774936676025
0, 7, 10, 8.710381507873535
0, 7, 11, 11.31284809112549
0, 7, 12, 9.625269889831543
0, 7, 13, 11.98039531707764
0, 7, 14, 11.98493576049805
0, 7, 15, 14.82724761962891
0, 7, 16, 25.77236175537109
0, 7, 17, 96.91831970214844
0, 7, 18, 219.0403900146484
0, 7, 19, 290.0344848632812
0, 7, 20, 297.5343933105469
0, 7, 21, 276.6638488769531
0, 7, 22, 298.5990600585938
0, 7, 23, 288.0301818847656
0, 7, 24, 314.5028381347656
0, 7, 25, 323.4575805664062
0, 7, 26, 277.5618286132812
0, 7, 27, 298.8486328125
0, 7, 28, 325.6715393066406
0, 7, 29, 318.8257446289062
0, 7, 30, 301.8770446777344
0, 7, 31, 276.9288330078125
0, 7, 32, 304.189453125
0, 7, 33, 259.9371948242188
0, 7, 34, 296.8200378417969
0, 7, 35, 319.3335876464844
0, 7, 36, 331.7656860351562
0, 7, 37, 323.4819946289062
0, 7, 38, 296.0269165039062
0, 7, 39, 306.9147033691406
0, 7, 40, 289.0159912109375
0, 7, 41, 272.0079650878906
0, 7, 42, 301.4309692382812
0, 7, 43, 276.9249267578125
0, 7, 44, 302.519287109375
0, 7, 45, 293.4710693359375
0, 7, 46, 280.8134765625
0, 7, 47, 326.2641906738281
0, 7, 48, 285.2622680664062
0, 7, 49, 302.1163024902344
0, 7, 50, 321.2930297851562
0, 7, 51, 299.3565368652344
0, 7, 52, 325.6882019042969
0, 7, 53, 310.448486328125
0, 7, 54, 322.0177917480469
0, 7, 55, 307.4986572265625
0, 7, 56, 278.2659301757812
0, 7, 57, 283.9172973632812
0, 7, 58, 294.7924194335938
0, 7, 59, 295.7551574707031
0, 7, 60, 322.9168395996094
0, 7, 61, 279.3103942871094
0, 7, 62, 298.1581726074219
0, 7, 63, 293.7672729492188
0, 7, 64, 304.8439636230469
0, 7, 65, 333.9217529296875
0, 7, 66, 323.2655029296875
0, 7, 67, 301.2672424316406
0, 7, 68, 280.7054138183594
0, 7, 69, 294.2629699707031
0, 7, 70, 302.2156982421875
0, 7, 71, 309.091064453125
0, 7, 72, 286.7808532714844
0, 7, 73, 294.0400390625
0, 7, 74, 344.1604919433594
0, 7, 75, 318.7068481445312
0, 7, 76, 323.0346984863281
0, 7, 77, 282.2908630371094
0, 7, 78, 299.9704895019531
0, 7, 79, 299.2015991210938
0, 7, 80, 312.2717895507812
0, 7, 81, 319.3645324707031
0, 7, 82, 330.574951171875
0, 7, 83, 315.8965454101562
0, 7, 84, 310.0373840332031
0, 7, 85, 271.3272094726562
0, 7, 86, 310.1955261230469
0, 7, 87, 312.6831970214844
0, 7, 88, 308.6099548339844
0, 7, 89, 295.166259765625
0, 7, 90, 305.8366394042969
0, 7, 91, 316.2405700683594
0, 7, 92, 288.6455688476562
0, 7, 93, 306.5365295410156
0, 7, 94, 273.5578308105469
0, 7, 95, 297.892333984375
0, 7, 96, 331.7057495117188
0, 7, 97, 298.7711486816406
0, 7, 98, 291.0665283203125
0, 7, 99, 312.11669921875
0, 7, 100, 283.0818176269531
0, 7, 101, 276.0950317382812
0, 7, 102, 289.0691833496094
0, 7, 103, 293.5418090820312
0, 7, 104, 274.7094116210938
0, 7, 105, 305.1510925292969
0, 7, 106, 316.6620483398438
0, 7, 107, 297.815673828125
0, 7, 108, 272.8995971679688
0, 7, 109, 234.1361083984375
0, 7, 110, 95.63114166259766
0, 7, 111, 23.5451717376709
0, 7, 112, 13.28767204284668
0, 7, 113, 14.34395217895508
0, 7, 114, 12.57278633117676
0, 7, 115, 10.91842555999756
0, 7, 116, 7.761717319488525
0, 7, 117, 7.897791862487793
0, 7, 118, 11.13772678375244
0, 7, 119, 8.319003105163574
0, 7, 120, 4.413205623626709
0, 7, 121, 7.626756191253662
0, 7, 122, 7.737202167510986
0, 7, 123, 7.827085018157959
0, 7, 124, 2.543931007385254
0, 7, 125, 7.543497562408447
0, 7, 126, 6.378204822540283
0, 7, 127, 3.010937929153442
0, 8, 0, 7.806862831115723
0, 8, 1, 4.408711910247803
0, 8, 2, 5.936972141265869
0, 8, 3, 1.916572213172913
0, 8, 4, 5.258262634277344
0, 8, 5, 3.67088770866394
0, 8, 6, 5.459543704986572
0, 8, 7, 4.946433067321777
0, 8, 8, 8.882688522338867
0, 8, 9, 5.726417541503906
0, 8, 10, 6.165857791900635
0, 8, 11, 11.3069486618042
0, 8, 12, 12.36116409301758
0, 8, 13, 13.45272254943848
0, 8, 14, 14.0202751159668
0, 8, 15, 19.11013031005859
0, 8, 16, 32.35605621337891
0, 8, 17, 131.4819946289062
0, 8, 18, 243.63134765625
0, 8, 19, 292.8291931152344
0, 8, 20, 284.0458679199219
0, 8, 21, 308.463623046875
0, 8, 22, 294.6688232421875
0, 8, 23, 275.6911926269531
0, 8, 24, 267.8010864257812
0, 8, 25, 275.0323791503906
0, 8, 26, 305.7806091308594
0, 8, 27, 306.75244140625
0, 8, 28, 308.0676879882812
0, 8, 29, 318.8373107910156
0, 8, 30, 313.3186950683594
0, 8, 31, 303.6304626464844
0, 8, 32, 278.8931274414062
0, 8, 33, 294.3330078125
0, 8, 34, 291.8385314941406
0, 8, 35, 279.5740661621094
0, 8, 36, 315.8258666992188
0, 8, 37, 338.762939453125
0, 8, 38, 330.78173828125
0, 8, 39, 279.39599609375
0, 8, 40, 304.5016174316406
0, 8, 41, 292.282470703125
