# TOPAS Version: 3.1.p3
# Parameter File: batch_inserts_156.txt
# Results for scorer Readout_Adipose
# Scored in component: MyBox
# X in 1 bin  of 0.75 cm
# Y in 512 bins of 0.0783984 cm
# Z in 128 bins of 0.078125 cm
# EnergyDeposit ( MeV ) : Sum   
0, 0, 0, 21.97093391418457
0, 0, 1, 21.45619583129883
0, 0, 2, 27.27266502380371
0, 0, 3, 19.84940910339355
0, 0, 4, 14.8916482925415
0, 0, 5, 21.00306701660156
0, 0, 6, 23.18307113647461
0, 0, 7, 33.95889663696289
0, 0, 8, 25.03023719787598
0, 0, 9, 23.91529083251953
0, 0, 10, 23.19940948486328
0, 0, 11, 26.65580177307129
0, 0, 12, 35.55727386474609
0, 0, 13, 36.38198089599609
0, 0, 14, 35.7191162109375
0, 0, 15, 42.57331466674805
0, 0, 16, 43.22296905517578
0, 0, 17, 47.37678909301758
0, 0, 18, 73.77755737304688
0, 0, 19, 187.2991027832031
0, 0, 20, 698.2067260742188
0, 0, 21, 1187.201904296875
0, 0, 22, 1243.913208007812
0, 0, 23, 1277.217163085938
0, 0, 24, 1285.18310546875
0, 0, 25, 1356.0439453125
0, 0, 26, 1272.14306640625
0, 0, 27, 1282.791870117188
0, 0, 28, 1320.123168945312
0, 0, 29, 1274.7001953125
0, 0, 30, 1260.303833007812
0, 0, 31, 1277.161254882812
0, 0, 32, 1264.694213867188
0, 0, 33, 1242.341796875
0, 0, 34, 1325.558471679688
0, 0, 35, 1306.251586914062
0, 0, 36, 1249.475463867188
0, 0, 37, 1278.894653320312
0, 0, 38, 1245.72607421875
0, 0, 39, 1244.231323242188
0, 0, 40, 1228.052001953125
0, 0, 41, 1270.016235351562
0, 0, 42, 1254.82080078125
0, 0, 43, 1266.312133789062
0, 0, 44, 1225.694702148438
0, 0, 45, 1289.374389648438
0, 0, 46, 1263.320556640625
0, 0, 47, 1241.835571289062
0, 0, 48, 1277.982177734375
0, 0, 49, 1286.772216796875
0, 0, 50, 1313.267578125
0, 0, 51, 1265.2373046875
0, 0, 52, 1361.621704101562
0, 0, 53, 1323.994750976562
0, 0, 54, 1296.0810546875
0, 0, 55, 1232.651611328125
0, 0, 56, 1318.18701171875
0, 0, 57, 1290.555786132812
0, 0, 58, 1255.914794921875
0, 0, 59, 1330.566040039062
0, 0, 60, 1330.618286132812
0, 0, 61, 1259.2236328125
0, 0, 62, 1242.035400390625
0, 0, 63, 1272.523803710938
0, 0, 64, 1331.132080078125
0, 0, 65, 1285.495239257812
0, 0, 66, 1317.537719726562
0, 0, 67, 1214.6806640625
0, 0, 68, 1309
0, 0, 69, 1327.623291015625
0, 0, 70, 1344.462524414062
0, 0, 71, 1286.333984375
0, 0, 72, 1316.271118164062
0, 0, 73, 1239.284790039062
0, 0, 74, 1288.4521484375
0, 0, 75, 1296.635498046875
0, 0, 76, 1255.828002929688
0, 0, 77, 1287.113037109375
0, 0, 78, 1313.988891601562
0, 0, 79, 1327.778442382812
0, 0, 80, 1263.610717773438
0, 0, 81, 1330.614379882812
0, 0, 82, 1285.854125976562
0, 0, 83, 1291.501098632812
0, 0, 84, 1325.984497070312
0, 0, 85, 1235.711547851562
0, 0, 86, 1269.854858398438
0, 0, 87, 1251.885620117188
0, 0, 88, 1256.484497070312
0, 0, 89, 1331.838989257812
0, 0, 90, 1279.583374023438
0, 0, 91, 1358.457397460938
0, 0, 92, 1299.230102539062
0, 0, 93, 1275.119873046875
0, 0, 94, 1246.27294921875
0, 0, 95, 1329.737182617188
0, 0, 96, 1285.91796875
0, 0, 97, 1324.829833984375
0, 0, 98, 1258.599243164062
0, 0, 99, 1249.648559570312
0, 0, 100, 1290.057373046875
0, 0, 101, 1320.744384765625
0, 0, 102, 1232.205078125
0, 0, 103, 1321.01220703125
0, 0, 104, 1259.73291015625
0, 0, 105, 1267.176879882812
0, 0, 106, 1208.312866210938
0, 0, 107, 783.4013671875
0, 0, 108, 192.4557037353516
0, 0, 109, 66.29946899414062
0, 0, 110, 66.16490936279297
0, 0, 111, 42.72673797607422
0, 0, 112, 36.38702774047852
0, 0, 113, 30.65380668640137
0, 0, 114, 33.93873977661133
0, 0, 115, 33.25114822387695
0, 0, 116, 31.4862003326416
0, 0, 117, 33.38371658325195
0, 0, 118, 27.42949867248535
0, 0, 119, 19.46284484863281
0, 0, 120, 25.23692893981934
0, 0, 121, 27.80674743652344
0, 0, 122, 26.10405731201172
0, 0, 123, 20.46104431152344
0, 0, 124, 20.36979675292969
0, 0, 125, 19.19956207275391
0, 0, 126, 27.56745529174805
0, 0, 127, 14.66659832000732
0, 1, 0, 22.53704643249512
0, 1, 1, 23.40280342102051
0, 1, 2, 22.20279312133789
0, 1, 3, 28.28008270263672
0, 1, 4, 24.57656097412109
0, 1, 5, 30.94929313659668
0, 1, 6, 22.59677886962891
0, 1, 7, 28.7872428894043
0, 1, 8, 32.30819320678711
0, 1, 9, 29.66946220397949
0, 1, 10, 34.96361541748047
0, 1, 11, 42.17114639282227
0, 1, 12, 38.45090484619141
0, 1, 13, 42.83870315551758
0, 1, 14, 41.21765518188477
0, 1, 15, 48.66416549682617
0, 1, 16, 64.60192108154297
0, 1, 17, 62.69723129272461
0, 1, 18, 98.75927734375
0, 1, 19, 401.0492248535156
0, 1, 20, 1045.25048828125
0, 1, 21, 1374.888793945312
0, 1, 22, 1481.418579101562
0, 1, 23, 1461.948486328125
0, 1, 24, 1450.300903320312
0, 1, 25, 1422.125854492188
0, 1, 26, 1474.5166015625
0, 1, 27, 1469.555908203125
0, 1, 28, 1487.950805664062
0, 1, 29, 1476.526611328125
0, 1, 30, 1504.390869140625
0, 1, 31, 1485.536499023438
0, 1, 32, 1410.82666015625
0, 1, 33, 1497.355102539062
0, 1, 34, 1497.431396484375
0, 1, 35, 1462.14599609375
0, 1, 36, 1487.1748046875
0, 1, 37, 1412.285278320312
0, 1, 38, 1388.977416992188
0, 1, 39, 1519.658447265625
0, 1, 40, 1460.3955078125
0, 1, 41, 1497.327514648438
0, 1, 42, 1497.078735351562
0, 1, 43, 1501.833862304688
0, 1, 44, 1450.11962890625
0, 1, 45, 1490.771118164062
0, 1, 46, 1417.267822265625
0, 1, 47, 1433.124389648438
0, 1, 48, 1427.639404296875
0, 1, 49, 1489.271362304688
0, 1, 50, 1441.058837890625
0, 1, 51, 1477.568237304688
0, 1, 52, 1478.891479492188
0, 1, 53, 1476.911254882812
0, 1, 54, 1504.687255859375
0, 1, 55, 1496.109375
0, 1, 56, 1470.633056640625
0, 1, 57, 1455.32666015625
0, 1, 58, 1429.893188476562
0, 1, 59, 1487.9013671875
0, 1, 60, 1465.257690429688
0, 1, 61, 1452.624633789062
0, 1, 62, 1455.5595703125
0, 1, 63, 1413.8076171875
0, 1, 64, 1475.664184570312
0, 1, 65, 1418.0546875
0, 1, 66, 1438.7431640625
0, 1, 67, 1455.0927734375
0, 1, 68, 1384.983642578125
0, 1, 69, 1461.689575195312
0, 1, 70, 1431.8740234375
0, 1, 71, 1497.341674804688
0, 1, 72, 1434.333984375
0, 1, 73, 1488.3017578125
0, 1, 74, 1468.69287109375
0, 1, 75, 1475.3505859375
0, 1, 76, 1456.9833984375
0, 1, 77, 1463.913208007812
0, 1, 78, 1454.176513671875
0, 1, 79, 1497.964477539062
0, 1, 80, 1453.161743164062
0, 1, 81, 1423.9736328125
0, 1, 82, 1471.056884765625
0, 1, 83, 1468.021850585938
0, 1, 84, 1537.2900390625
0, 1, 85, 1451.920776367188
0, 1, 86, 1406.783569335938
0, 1, 87, 1418.158325195312
0, 1, 88, 1476.851684570312
0, 1, 89, 1474.987060546875
0, 1, 90, 1425.048706054688
0, 1, 91, 1465.292724609375
0, 1, 92, 1409.082885742188
0, 1, 93, 1460.214721679688
0, 1, 94, 1464.635131835938
0, 1, 95, 1424.073608398438
0, 1, 96, 1493.736450195312
0, 1, 97, 1523.915771484375
0, 1, 98, 1474.182739257812
0, 1, 99, 1422.30859375
0, 1, 100, 1452.481079101562
0, 1, 101, 1415.398559570312
0, 1, 102, 1440.485717773438
0, 1, 103, 1411.611206054688
0, 1, 104, 1411.025146484375
0, 1, 105, 1465.213134765625
0, 1, 106, 1366.021240234375
0, 1, 107, 1018.624816894531
0, 1, 108, 402.8705749511719
0, 1, 109, 89.11460113525391
0, 1, 110, 67.38270568847656
0, 1, 111, 54.63851547241211
0, 1, 112, 47.58440399169922
0, 1, 113, 34.64656448364258
0, 1, 114, 37.57420349121094
0, 1, 115, 36.37285232543945
0, 1, 116, 35.43734359741211
0, 1, 117, 33.80689239501953
0, 1, 118, 39.52930068969727
0, 1, 119, 26.51976585388184
0, 1, 120, 29.46114540100098
0, 1, 121, 29.35177230834961
0, 1, 122, 19.35391998291016
0, 1, 123, 23.68161964416504
0, 1, 124, 29.27774238586426
0, 1, 125, 19.24830627441406
0, 1, 126, 26.06551170349121
0, 1, 127, 21.83365249633789
0, 2, 0, 19.20770835876465
0, 2, 1, 23.47079086303711
0, 2, 2, 22.27650260925293
0, 2, 3, 20.75551986694336
0, 2, 4, 20.083740234375
0, 2, 5, 31.83284568786621
0, 2, 6, 20.70193481445312
0, 2, 7, 23.45904922485352
0, 2, 8, 33.14444732666016
0, 2, 9, 32.45671081542969
0, 2, 10, 30.45000076293945
0, 2, 11, 34.21918869018555
0, 2, 12, 38.31327819824219
0, 2, 13, 46.4565544128418
0, 2, 14, 44.67728805541992
0, 2, 15, 46.64293670654297
0, 2, 16, 62.78644180297852
0, 2, 17, 79.39639282226562
0, 2, 18, 143.5664978027344
0, 2, 19, 602.3857421875
0, 2, 20, 1289.120849609375
0, 2, 21, 1436.608764648438
0, 2, 22, 1462.9306640625
0, 2, 23, 1404.198486328125
0, 2, 24, 1435.892456054688
0, 2, 25, 1523.142456054688
0, 2, 26, 1559.446899414062
0, 2, 27, 1454.502563476562
0, 2, 28, 1458.0126953125
0, 2, 29, 1465.8076171875
0, 2, 30, 1460.653442382812
0, 2, 31, 1533.286376953125
0, 2, 32, 1507.330810546875
0, 2, 33, 1444.126220703125
0, 2, 34, 1472.22021484375
0, 2, 35, 1470.518310546875
0, 2, 36, 1523.653198242188
0, 2, 37, 1543.2158203125
0, 2, 38, 1507.97607421875
0, 2, 39, 1464.432983398438
0, 2, 40, 1503.466430664062
0, 2, 41, 1518.400756835938
0, 2, 42, 1507.202758789062
0, 2, 43, 1556.888671875
0, 2, 44, 1456.782104492188
0, 2, 45, 1482.690673828125
0, 2, 46, 1431.922729492188
0, 2, 47, 1441.582397460938
0, 2, 48, 1392.22216796875
0, 2, 49, 1458.865112304688
0, 2, 50, 1442.9736328125
0, 2, 51, 1442.1162109375
0, 2, 52, 1493.26318359375
0, 2, 53, 1525.186279296875
0, 2, 54, 1527.12548828125
0, 2, 55, 1495.144897460938
0, 2, 56, 1465.752807617188
0, 2, 57, 1412.63427734375
0, 2, 58, 1454.633422851562
0, 2, 59, 1452.868530273438
0, 2, 60, 1470.576904296875
0, 2, 61, 1445.391845703125
0, 2, 62, 1470.421508789062
0, 2, 63, 1508.463256835938
0, 2, 64, 1462.759887695312
0, 2, 65, 1427.264282226562
0, 2, 66, 1487.397827148438
0, 2, 67, 1507.181762695312
0, 2, 68, 1542.964477539062
0, 2, 69, 1538.26025390625
0, 2, 70, 1508.133056640625
0, 2, 71, 1464.981811523438
0, 2, 72, 1517.5166015625
0, 2, 73, 1521.899291992188
0, 2, 74, 1489.75146484375
0, 2, 75, 1508.218505859375
0, 2, 76, 1449.179809570312
0, 2, 77, 1497.843505859375
0, 2, 78, 1440.364379882812
0, 2, 79, 1541.976318359375
0, 2, 80, 1479.050903320312
0, 2, 81, 1467.275146484375
0, 2, 82, 1555.6630859375
0, 2, 83, 1515.847778320312
0, 2, 84, 1490.114868164062
0, 2, 85, 1515.349365234375
0, 2, 86, 1538.514892578125
0, 2, 87, 1486.549682617188
0, 2, 88, 1540.442626953125
0, 2, 89, 1463.148315429688
0, 2, 90, 1432.746948242188
0, 2, 91, 1407.525390625
0, 2, 92, 1476.533447265625
0, 2, 93, 1492.418701171875
0, 2, 94, 1452.895629882812
0, 2, 95, 1546.491088867188
0, 2, 96, 1516.3994140625
0, 2, 97, 1450.857543945312
0, 2, 98, 1461.112426757812
0, 2, 99, 1402.513305664062
0, 2, 100, 1472.7431640625
0, 2, 101, 1483.122314453125
0, 2, 102, 1461.089477539062
0, 2, 103, 1387.366455078125
0, 2, 104, 1409.031860351562
0, 2, 105, 1397.758422851562
0, 2, 106, 1458.204956054688
0, 2, 107, 1275.021606445312
0, 2, 108, 625.2254638671875
0, 2, 109, 172.7954559326172
0, 2, 110, 72.60269165039062
0, 2, 111, 62.75458526611328
0, 2, 112, 48.62478637695312
0, 2, 113, 48.12437057495117
0, 2, 114, 35.87527465820312
0, 2, 115, 42.04646682739258
0, 2, 116, 35.9843635559082
0, 2, 117, 39.62039947509766
0, 2, 118, 36.98361968994141
0, 2, 119, 32.26383590698242
0, 2, 120, 27.80997276306152
0, 2, 121, 18.4422607421875
0, 2, 122, 26.22201347351074
0, 2, 123, 18.00910377502441
0, 2, 124, 23.46787643432617
0, 2, 125, 30.11055564880371
0, 2, 126, 17.53150749206543
0, 2, 127, 25.72178840637207
0, 3, 0, 15.57502841949463
0, 3, 1, 21.14555931091309
0, 3, 2, 31.88701820373535
0, 3, 3, 20.0898380279541
0, 3, 4, 23.43305587768555
0, 3, 5, 27.4250431060791
0, 3, 6, 33.22627258300781
0, 3, 7, 27.4957447052002
0, 3, 8, 33.06977844238281
0, 3, 9, 29.48312568664551
0, 3, 10, 33.93542098999023
0, 3, 11, 36.68894958496094
0, 3, 12, 42.36238479614258
0, 3, 13, 55.63365936279297
0, 3, 14, 54.55550003051758
0, 3, 15, 53.08488082885742
0, 3, 16, 67.37628936767578
0, 3, 17, 88.39089202880859
0, 3, 18, 242.4873657226562
0, 3, 19, 876.8685302734375
0, 3, 20, 1388.8623046875
0, 3, 21, 1507.92333984375
0, 3, 22, 1462.90185546875
0, 3, 23, 1453.050415039062
0, 3, 24, 1437.294921875
0, 3, 25, 1466.308959960938
0, 3, 26, 1495.004272460938
0, 3, 27, 1462.796752929688
0, 3, 28, 1489.532836914062
0, 3, 29, 1546.15283203125
0, 3, 30, 1565.3359375
0, 3, 31, 1513.07568359375
0, 3, 32, 1546.01318359375
0, 3, 33, 1538.504516601562
0, 3, 34, 1492.521728515625
0, 3, 35, 1465.489379882812
0, 3, 36, 1448.741943359375
0, 3, 37, 1517.682861328125
0, 3, 38, 1514.02685546875
0, 3, 39, 1439.176025390625
0, 3, 40, 1437.921752929688
0, 3, 41, 1562.016357421875
0, 3, 42, 1463.533325195312
0, 3, 43, 1454.430908203125
0, 3, 44, 1449.715942382812
0, 3, 45, 1507.87744140625
0, 3, 46, 1513.73388671875
0, 3, 47, 1441.367309570312
0, 3, 48, 1512.660522460938
0, 3, 49, 1452.154418945312
0, 3, 50, 1499.156005859375
0, 3, 51, 1538.002807617188
0, 3, 52, 1535.758911132812
0, 3, 53, 1469.791259765625
0, 3, 54, 1536.429809570312
0, 3, 55, 1503.826293945312
0, 3, 56, 1434.285278320312
0, 3, 57, 1503.475219726562
0, 3, 58, 1508.900756835938
0, 3, 59, 1508.021606445312
0, 3, 60, 1533.927856445312
0, 3, 61, 1483.3291015625
0, 3, 62, 1492.60498046875
0, 3, 63, 1487.774658203125
0, 3, 64, 1500.733276367188
0, 3, 65, 1511.52978515625
0, 3, 66, 1555.239868164062
0, 3, 67, 1549.048583984375
0, 3, 68, 1448.508911132812
0, 3, 69, 1461.881103515625
0, 3, 70, 1389.513549804688
0, 3, 71, 1463.45458984375
0, 3, 72, 1545.419189453125
0, 3, 73, 1503.149780273438
0, 3, 74, 1466.816284179688
0, 3, 75, 1457.525390625
0, 3, 76, 1576.654418945312
0, 3, 77, 1539.921508789062
0, 3, 78, 1435.43115234375
0, 3, 79, 1490.628540039062
0, 3, 80, 1460.7001953125
0, 3, 81, 1472.499267578125
0, 3, 82, 1556.169921875
0, 3, 83, 1515.579467773438
0, 3, 84, 1560.518310546875
0, 3, 85, 1481.89111328125
0, 3, 86, 1524.396484375
0, 3, 87, 1537.406005859375
0, 3, 88, 1453.377197265625
0, 3, 89, 1450.895874023438
0, 3, 90, 1453.530395507812
0, 3, 91, 1419.07421875
0, 3, 92, 1511.518798828125
0, 3, 93, 1497.848876953125
0, 3, 94, 1513.44482421875
0, 3, 95, 1540.736694335938
0, 3, 96, 1518.246459960938
0, 3, 97, 1462.939086914062
0, 3, 98, 1436.676635742188
0, 3, 99, 1470.667358398438
0, 3, 100, 1469.423461914062
0, 3, 101, 1478.873413085938
0, 3, 102, 1523.570190429688
0, 3, 103, 1550.53955078125
0, 3, 104, 1503.774047851562
0, 3, 105, 1513.640869140625
0, 3, 106, 1479.9345703125
0, 3, 107, 1340.168090820312
0, 3, 108, 871.5023803710938
0, 3, 109, 261.5006103515625
0, 3, 110, 102.0583953857422
0, 3, 111, 62.78254318237305
0, 3, 112, 57.71505737304688
0, 3, 113, 48.00009155273438
0, 3, 114, 47.38828277587891
0, 3, 115, 48.78815078735352
0, 3, 116, 35.36026000976562
0, 3, 117, 39.25372314453125
0, 3, 118, 40.91242599487305
0, 3, 119, 28.91172218322754
0, 3, 120, 31.91288566589355
0, 3, 121, 19.67252922058105
0, 3, 122, 28.53700065612793
0, 3, 123, 25.71181488037109
0, 3, 124, 29.82248306274414
0, 3, 125, 31.36131286621094
0, 3, 126, 24.47211074829102
0, 3, 127, 13.78028583526611
0, 4, 0, 24.84592247009277
0, 4, 1, 23.28142738342285
0, 4, 2, 22.25083541870117
0, 4, 3, 19.45078659057617
0, 4, 4, 25.17573165893555
0, 4, 5, 29.25193023681641
0, 4, 6, 31.21647262573242
0, 4, 7, 27.7868824005127
0, 4, 8, 27.65510177612305
0, 4, 9, 34.70362091064453
0, 4, 10, 32.08140182495117
0, 4, 11, 39.5187873840332
0, 4, 12, 49.30204772949219
0, 4, 13, 53.28761672973633
0, 4, 14, 50.78224182128906
0, 4, 15, 58.91141510009766
0, 4, 16, 77.32341766357422
0, 4, 17, 113.7585144042969
0, 4, 18, 446.4396057128906
0, 4, 19, 1180.879150390625
0, 4, 20, 1443.337524414062
0, 4, 21, 1422.005249023438
0, 4, 22, 1432.234497070312
0, 4, 23, 1454.511108398438
0, 4, 24, 1477.372680664062
0, 4, 25, 1403.395385742188
0, 4, 26, 1540.803100585938
0, 4, 27, 1547.507568359375
0, 4, 28, 1506.871948242188
0, 4, 29, 1513.980224609375
0, 4, 30, 1526.727661132812
0, 4, 31, 1575.503784179688
0, 4, 32, 1521.908081054688
0, 4, 33, 1502.434814453125
0, 4, 34, 1469.573974609375
0, 4, 35, 1556.7734375
0, 4, 36, 1505.474975585938
0, 4, 37, 1512.867797851562
0, 4, 38, 1534.391723632812
0, 4, 39, 1467.362182617188
0, 4, 40, 1514.400390625
0, 4, 41, 1589.761962890625
0, 4, 42, 1566.576416015625
0, 4, 43, 1474.581909179688
0, 4, 44, 1496.285034179688
0, 4, 45, 1523.612426757812
0, 4, 46, 1469.80419921875
0, 4, 47, 1506.765014648438
0, 4, 48, 1528.5078125
0, 4, 49, 1470.101440429688
0, 4, 50, 1518.68603515625
0, 4, 51, 1496.014770507812
0, 4, 52, 1494.311889648438
0, 4, 53, 1454.391723632812
0, 4, 54, 1440.152099609375
0, 4, 55, 1525.166381835938
0, 4, 56, 1456.690551757812
0, 4, 57, 1495.249389648438
0, 4, 58, 1465.067016601562
0, 4, 59, 1467.025390625
0, 4, 60, 1522.88818359375
0, 4, 61, 1499.609741210938
0, 4, 62, 1505.316650390625
0, 4, 63, 1547.57958984375
0, 4, 64, 1594.71923828125
0, 4, 65, 1422.942749023438
0, 4, 66, 1514.05712890625
0, 4, 67, 1515.624145507812
0, 4, 68, 1495.52685546875
0, 4, 69, 1464.668212890625
0, 4, 70, 1548.268432617188
0, 4, 71, 1514.785278320312
0, 4, 72, 1527.256591796875
0, 4, 73, 1488.465576171875
0, 4, 74, 1486.21630859375
0, 4, 75, 1535.668334960938
0, 4, 76, 1481.44677734375
0, 4, 77, 1499.649780273438
0, 4, 78, 1498.825805664062
0, 4, 79, 1482.099243164062
0, 4, 80, 1515.404418945312
0, 4, 81, 1525.04443359375
0, 4, 82, 1568.26171875
0, 4, 83, 1503.895385742188
0, 4, 84, 1538.126586914062
0, 4, 85, 1554.599487304688
0, 4, 86, 1521.76220703125
0, 4, 87, 1499.890747070312
0, 4, 88, 1517.476318359375
0, 4, 89, 1482.509521484375
0, 4, 90, 1543.982543945312
0, 4, 91, 1553.261962890625
0, 4, 92, 1494.55859375
0, 4, 93, 1512.651245117188
0, 4, 94, 1484.868896484375
0, 4, 95, 1510.005493164062
0, 4, 96, 1448.536499023438
0, 4, 97, 1404.259521484375
0, 4, 98, 1555.610473632812
0, 4, 99, 1511.076904296875
0, 4, 100, 1489.529296875
0, 4, 101, 1454.812133789062
0, 4, 102, 1443.384643554688
0, 4, 103, 1514.494262695312
0, 4, 104, 1507.61669921875
0, 4, 105, 1555.51806640625
0, 4, 106, 1478.499633789062
0, 4, 107, 1461.280517578125
0, 4, 108, 1121.13671875
0, 4, 109, 430.7617492675781
0, 4, 110, 94.37033081054688
0, 4, 111, 69.16441345214844
0, 4, 112, 65.68552398681641
0, 4, 113, 54.25688552856445
0, 4, 114, 51.16838836669922
0, 4, 115, 41.02642059326172
0, 4, 116, 35.49635314941406
0, 4, 117, 41.56653213500977
0, 4, 118, 39.10947036743164
0, 4, 119, 42.50116348266602
0, 4, 120, 35.49287414550781
0, 4, 121, 27.8859806060791
0, 4, 122, 30.75672340393066
0, 4, 123, 28.91380882263184
0, 4, 124, 26.42978858947754
0, 4, 125, 36.5721435546875
0, 4, 126, 26.56610298156738
0, 4, 127, 18.17631912231445
0, 5, 0, 23.94343376159668
0, 5, 1, 23.05315971374512
0, 5, 2, 31.29335021972656
0, 5, 3, 26.87867546081543
0, 5, 4, 22.00998306274414
0, 5, 5, 35.95246124267578
0, 5, 6, 25.76596641540527
0, 5, 7, 30.97760391235352
0, 5, 8, 30.70407676696777
0, 5, 9, 30.04106140136719
0, 5, 10, 32.56333160400391
0, 5, 11, 39.41886138916016
0, 5, 12, 37.92912292480469
0, 5, 13, 45.43967056274414
0, 5, 14, 60.15703582763672
0, 5, 15, 75.35682678222656
0, 5, 16, 84.80870056152344
0, 5, 17, 158.2417144775391
0, 5, 18, 678.107177734375
0, 5, 19, 1343.9169921875
0, 5, 20, 1524.354370117188
0, 5, 21, 1493.301391601562
0, 5, 22, 1503.380981445312
0, 5, 23, 1532.714477539062
0, 5, 24, 1465.635009765625
0, 5, 25, 1426.32958984375
0, 5, 26, 1521.294189453125
0, 5, 27, 1537.407836914062
0, 5, 28, 1483.951293945312
0, 5, 29, 1521.553100585938
0, 5, 30, 1494.087036132812
0, 5, 31, 1501.860717773438
0, 5, 32, 1605.511352539062
0, 5, 33, 1498.646362304688
0, 5, 34, 1483.941284179688
0, 5, 35, 1511.359497070312
0, 5, 36, 1444.30029296875
0, 5, 37, 1530.018432617188
0, 5, 38, 1552.048583984375
0, 5, 39, 1545.982543945312
0, 5, 40, 1503.649291992188
0, 5, 41, 1478.5986328125
0, 5, 42, 1538.7734375
0, 5, 43, 1531.521606445312
0, 5, 44, 1543.895751953125
0, 5, 45, 1509.379516601562
0, 5, 46, 1491.487426757812
0, 5, 47, 1480.06640625
0, 5, 48, 1503.962158203125
0, 5, 49, 1526.067749023438
0, 5, 50, 1509.839233398438
0, 5, 51, 1518.590698242188
0, 5, 52, 1428.42529296875
0, 5, 53, 1523.308959960938
0, 5, 54, 1519.5771484375
0, 5, 55, 1519.517944335938
0, 5, 56, 1481.406005859375
0, 5, 57, 1542.503784179688
0, 5, 58, 1506.53564453125
0, 5, 59, 1483.69580078125
0, 5, 60, 1535.681030273438
0, 5, 61, 1452.613525390625
0, 5, 62, 1584.7958984375
0, 5, 63, 1431.538452148438
0, 5, 64, 1490.5107421875
0, 5, 65, 1464.982177734375
0, 5, 66, 1527.760620117188
0, 5, 67, 1563.416870117188
0, 5, 68, 1460.439697265625
0, 5, 69, 1481.771118164062
0, 5, 70, 1488.736083984375
0, 5, 71, 1468.831420898438
0, 5, 72, 1537.4638671875
0, 5, 73, 1460.146118164062
0, 5, 74, 1494.30029296875
0, 5, 75, 1491.182861328125
0, 5, 76, 1479.666625976562
0, 5, 77, 1519.916137695312
0, 5, 78, 1525.003540039062
0, 5, 79, 1512.623901367188
0, 5, 80, 1520.78759765625
0, 5, 81, 1592.435546875
0, 5, 82, 1528.628051757812
0, 5, 83, 1488.625366210938
0, 5, 84, 1535.89111328125
0, 5, 85, 1512.948364257812
0, 5, 86, 1558.6142578125
0, 5, 87, 1473.160522460938
0, 5, 88, 1497.64599609375
0, 5, 89, 1486.689819335938
0, 5, 90, 1479.690307617188
0, 5, 91, 1554.846557617188
0, 5, 92, 1484.075439453125
0, 5, 93, 1561.625610351562
0, 5, 94, 1509.399658203125
0, 5, 95, 1559.5986328125
0, 5, 96, 1494.768798828125
0, 5, 97, 1507.008544921875
0, 5, 98, 1512.842041015625
0, 5, 99, 1542.246459960938
0, 5, 100, 1438.486206054688
0, 5, 101, 1426.088012695312
0, 5, 102, 1513.058837890625
0, 5, 103, 1470.470581054688
0, 5, 104, 1461.507568359375
0, 5, 105, 1492.77001953125
0, 5, 106, 1454.928588867188
0, 5, 107, 1399.234741210938
0, 5, 108, 1287.993408203125
0, 5, 109, 720.533935546875
0, 5, 110, 193.7318115234375
0, 5, 111, 88.76100921630859
0, 5, 112, 80.79918670654297
0, 5, 113, 65.26575469970703
0, 5, 114, 60.87531661987305
0, 5, 115, 52.28999328613281
0, 5, 116, 34.66386413574219
0, 5, 117, 35.5048713684082
0, 5, 118, 39.35524749755859
0, 5, 119, 22.59555625915527
0, 5, 120, 30.27284812927246
0, 5, 121, 26.5152530670166
0, 5, 122, 27.22087669372559
0, 5, 123, 25.6583366394043
0, 5, 124, 23.16326522827148
0, 5, 125, 27.07692909240723
0, 5, 126, 20.30150032043457
0, 5, 127, 21.09495544433594
0, 6, 0, 17.71540832519531
0, 6, 1, 29.83608245849609
0, 6, 2, 30.4666748046875
0, 6, 3, 26.41031455993652
0, 6, 4, 24.31384468078613
0, 6, 5, 33.3800048828125
0, 6, 6, 32.40081024169922
0, 6, 7, 30.71988105773926
0, 6, 8, 31.1313304901123
0, 6, 9, 32.48305511474609
0, 6, 10, 40.14093399047852
0, 6, 11, 36.96123123168945
0, 6, 12, 36.26968383789062
0, 6, 13, 58.24684906005859
0, 6, 14, 61.78655624389648
0, 6, 15, 82.22395324707031
0, 6, 16, 116.6519165039062
0, 6, 17, 297.9861755371094
0, 6, 18, 895.6854248046875
0, 6, 19, 1370.702514648438
0, 6, 20, 1436.756469726562
0, 6, 21, 1528.081787109375
0, 6, 22, 1497.616943359375
0, 6, 23, 1530.77978515625
0, 6, 24, 1482.659057617188
0, 6, 25, 1533.141235351562
0, 6, 26, 1516.862670898438
0, 6, 27, 1520.350708007812
0, 6, 28, 1549.944702148438
0, 6, 29, 1567.0732421875
0, 6, 30, 1518.802490234375
0, 6, 31, 1487.514404296875
0, 6, 32, 1523.440307617188
0, 6, 33, 1493.546508789062
0, 6, 34, 1557.466430664062
0, 6, 35, 1500.973876953125
0, 6, 36, 1440.660888671875
0, 6, 37, 1550.414672851562
0, 6, 38, 1527.398559570312
0, 6, 39, 1522.510986328125
0, 6, 40, 1461.133056640625
0, 6, 41, 1444.456665039062
0, 6, 42, 1514.785034179688
0, 6, 43, 1490.007568359375
0, 6, 44, 1432.597900390625
0, 6, 45, 1545.610961914062
0, 6, 46, 1554.925170898438
0, 6, 47, 1498.70556640625
0, 6, 48, 1521.369018554688
0, 6, 49, 1512.900146484375
0, 6, 50, 1571.415161132812
0, 6, 51, 1500.334838867188
0, 6, 52, 1564.14453125
0, 6, 53, 1476.978881835938
0, 6, 54, 1500.285766601562
0, 6, 55, 1575.657836914062
0, 6, 56, 1525.967163085938
0, 6, 57, 1505.5048828125
0, 6, 58, 1468.636962890625
0, 6, 59, 1522.613037109375
0, 6, 60, 1469.431274414062
0, 6, 61, 1575.13818359375
0, 6, 62, 1545.322631835938
0, 6, 63, 1491.503540039062
0, 6, 64, 1414.92333984375
0, 6, 65, 1489.995239257812
0, 6, 66, 1512.946533203125
0, 6, 67, 1511.83740234375
0, 6, 68, 1551.586791992188
0, 6, 69, 1486.060668945312
0, 6, 70, 1525.917358398438
0, 6, 71, 1471.038696289062
0, 6, 72, 1597.265869140625
0, 6, 73, 1483.230834960938
0, 6, 74, 1554.502807617188
0, 6, 75, 1536.21923828125
0, 6, 76, 1565.905883789062
0, 6, 77, 1505.512329101562
0, 6, 78, 1448.147216796875
0, 6, 79, 1554.557983398438
0, 6, 80, 1484.385864257812
0, 6, 81, 1483.689575195312
0, 6, 82, 1501.057495117188
0, 6, 83, 1524.165893554688
0, 6, 84, 1517.495727539062
0, 6, 85, 1536.090942382812
0, 6, 86, 1539.71728515625
0, 6, 87, 1570.07373046875
0, 6, 88, 1480.222290039062
0, 6, 89, 1562.477661132812
0, 6, 90, 1494.334716796875
0, 6, 91, 1542.38623046875
0, 6, 92, 1493.074096679688
0, 6, 93, 1498.757446289062
0, 6, 94, 1469.504516601562
0, 6, 95, 1505.681274414062
0, 6, 96, 1523.270263671875
0, 6, 97, 1505.697387695312
0, 6, 98, 1492.345336914062
0, 6, 99, 1477.078369140625
0, 6, 100, 1522.790283203125
0, 6, 101, 1517.83154296875
0, 6, 102, 1539.161743164062
0, 6, 103, 1495.108520507812
0, 6, 104, 1472.436279296875
0, 6, 105, 1485.164794921875
0, 6, 106, 1496.591552734375
0, 6, 107, 1504.207397460938
0, 6, 108, 1404.417846679688
0, 6, 109, 923.1721801757812
0, 6, 110, 281.6893920898438
0, 6, 111, 94.80813598632812
0, 6, 112, 76.65708923339844
0, 6, 113, 60.15550994873047
0, 6, 114, 53.37637329101562
0, 6, 115, 44.77635192871094
0, 6, 116, 39.84280014038086
0, 6, 117, 40.17509460449219
0, 6, 118, 42.44490051269531
0, 6, 119, 37.20144271850586
0, 6, 120, 32.45662689208984
0, 6, 121, 26.55094909667969
0, 6, 122, 25.05009460449219
0, 6, 123, 27.31504249572754
0, 6, 124, 30.95594215393066
0, 6, 125, 32.65272903442383
0, 6, 126, 18.45879173278809
0, 6, 127, 27.63504600524902
0, 7, 0, 20.26906967163086
0, 7, 1, 29.80424690246582
0, 7, 2, 22.66893196105957
0, 7, 3, 25.82684707641602
0, 7, 4, 27.41861915588379
0, 7, 5, 35.45009994506836
0, 7, 6, 30.92167282104492
0, 7, 7, 34.84442901611328
0, 7, 8, 31.87856864929199
0, 7, 9, 35.51809692382812
0, 7, 10, 42.81856918334961
0, 7, 11, 49.96633148193359
0, 7, 12, 51.10947418212891
0, 7, 13, 46.37125396728516
0, 7, 14, 56.64531326293945
0, 7, 15, 79.42941284179688
0, 7, 16, 130.0127868652344
0, 7, 17, 461.2312927246094
0, 7, 18, 1098.82177734375
0, 7, 19, 1502.108642578125
0, 7, 20, 1484.449951171875
0, 7, 21, 1366.537475585938
0, 7, 22, 1489.935668945312
0, 7, 23, 1455.809936523438
0, 7, 24, 1510.819702148438
0, 7, 25, 1598.256713867188
0, 7, 26, 1519.715576171875
0, 7, 27, 1507.033447265625
0, 7, 28, 1545.131591796875
0, 7, 29, 1569.543212890625
0, 7, 30, 1549.200927734375
0, 7, 31, 1432.312622070312
0, 7, 32, 1545.7197265625
0, 7, 33, 1492.14794921875
0, 7, 34, 1475.499145507812
0, 7, 35, 1521.546752929688
0, 7, 36, 1475.990112304688
0, 7, 37, 1601.43017578125
0, 7, 38, 1502.265869140625
0, 7, 39, 1487.751708984375
0, 7, 40, 1546.973999023438
0, 7, 41, 1463.278930664062
0, 7, 42, 1485.641479492188
0, 7, 43, 1443.7099609375
0, 7, 44, 1493.775268554688
0, 7, 45, 1469.269775390625
0, 7, 46, 1515.783447265625
0, 7, 47, 1565.045776367188
0, 7, 48, 1522.862060546875
0, 7, 49, 1537.724853515625
0, 7, 50, 1515.88232421875
0, 7, 51, 1496.841186523438
0, 7, 52, 1518.175170898438
0, 7, 53, 1489.920654296875
0, 7, 54, 1587.2646484375
0, 7, 55, 1471.1708984375
0, 7, 56, 1548.614868164062
0, 7, 57, 1515.167236328125
0, 7, 58, 1553.3359375
0, 7, 59, 1542.15185546875
0, 7, 60, 1549.181396484375
0, 7, 61, 1488.440307617188
0, 7, 62, 1441.822387695312
0, 7, 63, 1512.19873046875
0, 7, 64, 1550.47021484375
0, 7, 65, 1528.594970703125
0, 7, 66, 1537.666015625
0, 7, 67, 1579.671875
0, 7, 68, 1535.833374023438
0, 7, 69, 1513.9287109375
0, 7, 70, 1495.039306640625
0, 7, 71, 1519.920166015625
0, 7, 72, 1528.14306640625
0, 7, 73, 1518.278686523438
0, 7, 74, 1577.180786132812
0, 7, 75, 1537.347045898438
0, 7, 76, 1555.651489257812
0, 7, 77, 1511.6689453125
0, 7, 78, 1505.99267578125
0, 7, 79, 1430.962158203125
0, 7, 80, 1487.08544921875
0, 7, 81, 1492.73974609375
0, 7, 82, 1534.220947265625
0, 7, 83, 1542.255493164062
0, 7, 84, 1587.777221679688
0, 7, 85, 1480.015014648438
0, 7, 86, 1501.176513671875
0, 7, 87, 1502.590576171875
0, 7, 88, 1500.391357421875
0, 7, 89, 1552.397583007812
0, 7, 90, 1523.870971679688
0, 7, 91, 1563.598999023438
0, 7, 92, 1530.4091796875
0, 7, 93, 1554.845581054688
0, 7, 94, 1539.75732421875
0, 7, 95, 1503.875854492188
0, 7, 96, 1504.829833984375
0, 7, 97, 1432.19189453125
0, 7, 98, 1484.619140625
0, 7, 99, 1525.387573242188
0, 7, 100, 1418.931396484375
0, 7, 101, 1467.11083984375
0, 7, 102, 1449.123901367188
0, 7, 103, 1432.433837890625
0, 7, 104, 1492.02490234375
0, 7, 105, 1519.9873046875
0, 7, 106, 1568.18505859375
0, 7, 107, 1484.222290039062
0, 7, 108, 1410.906494140625
0, 7, 109, 1144.017456054688
0, 7, 110, 467.7539672851562
0, 7, 111, 124.8871002197266
0, 7, 112, 82.62279510498047
0, 7, 113, 70.90483856201172
0, 7, 114, 59.04257965087891
0, 7, 115, 49.18766403198242
0, 7, 116, 44.00547409057617
0, 7, 117, 40.65831756591797
0, 7, 118, 36.8463020324707
0, 7, 119, 36.51870346069336
0, 7, 120, 22.55167388916016
0, 7, 121, 33.14551544189453
0, 7, 122, 33.4912109375
0, 7, 123, 33.34418487548828
0, 7, 124, 31.39513778686523
0, 7, 125, 21.49506378173828
0, 7, 126, 27.44869804382324
0, 7, 127, 20.46662521362305
0, 8, 0, 18.11975860595703
0, 8, 1, 18.59238624572754
0, 8, 2, 23.97350311279297
0, 8, 3, 26.17229270935059
0, 8, 4, 21.25055885314941
0, 8, 5, 31.89297485351562
0, 8, 6, 34.35730361938477
0, 8, 7, 24.88439178466797
0, 8, 8, 36.39677047729492
0, 8, 9, 45.94485092163086
0, 8, 10, 43.88149642944336
0, 8, 11, 38.14029312133789
0, 8, 12, 53.77427291870117
0, 8, 13, 68.02337646484375
0, 8, 14, 70.60693359375
0, 8, 15, 84.92113494873047
0, 8, 16, 170.5928497314453
0, 8, 17, 674.9852905273438
0, 8, 18, 1276.758422851562
0, 8, 19, 1450.717407226562
0, 8, 20, 1420.16845703125
0, 8, 21, 1408.683227539062
0, 8, 22, 1487.709838867188
0, 8, 23, 1481.584106445312
0, 8, 24, 1432.716064453125
0, 8, 25, 1453.323120117188
0, 8, 26, 1513.798461914062
0, 8, 27, 1528.331909179688
0, 8, 28, 1477.627075195312
0, 8, 29, 1504.8935546875
0, 8, 30, 1489.940063476562
0, 8, 31, 1536.893676757812
0, 8, 32, 1513.1552734375
0, 8, 33, 1480.940551757812
0, 8, 34, 1530.37451171875
0, 8, 35, 1445.481201171875
0, 8, 36, 1495.715454101562
0, 8, 37, 1552.669189453125
0, 8, 38, 1553.02001953125
0, 8, 39, 1495.589111328125
0, 8, 40, 1537.333129882812
0, 8, 41, 1481.501953125
0, 8, 42, 1537.951538085938
0, 8, 43, 1431.493774414062
0, 8, 44, 1537.123046875
0, 8, 45, 1511.675537109375
0, 8, 46, 1598.349365234375
