# TOPAS Version: 3.1.p3
# Parameter File: batch_inserts_178.txt
# Results for scorer Readout_Adipose
# Scored in component: MyBox
# X in 1 bin  of 0.75 cm
# Y in 512 bins of 0.0783984 cm
# Z in 128 bins of 0.078125 cm
# EnergyDeposit ( MeV ) : Sum   
0, 0, 0, 6.793136596679688
0, 0, 1, 2.42653751373291
0, 0, 2, 5.35244607925415
0, 0, 3, 3.46936297416687
0, 0, 4, 4.673539161682129
0, 0, 5, 2.429251194000244
0, 0, 6, 7.230569839477539
0, 0, 7, 9.218400001525879
0, 0, 8, 2.084864139556885
0, 0, 9, 3.724452495574951
0, 0, 10, 6.468338966369629
0, 0, 11, 4.612038612365723
0, 0, 12, 5.121598720550537
0, 0, 13, 5.558998107910156
0, 0, 14, 7.200159072875977
0, 0, 15, 9.723665237426758
0, 0, 16, 8.490194320678711
0, 0, 17, 9.996604919433594
0, 0, 18, 14.01741409301758
0, 0, 19, 44.51220321655273
0, 0, 20, 138.1979217529297
0, 0, 21, 222.626220703125
0, 0, 22, 248.0024871826172
0, 0, 23, 256.944580078125
0, 0, 24, 250.7486724853516
0, 0, 25, 257.8992004394531
0, 0, 26, 234.5540924072266
0, 0, 27, 237.4273681640625
0, 0, 28, 271.6651916503906
0, 0, 29, 251.7978363037109
0, 0, 30, 231.0057830810547
0, 0, 31, 242.7606811523438
0, 0, 32, 263.5173950195312
0, 0, 33, 261.4889221191406
0, 0, 34, 288.7851257324219
0, 0, 35, 267.112060546875
0, 0, 36, 246.9988098144531
0, 0, 37, 253.1269073486328
0, 0, 38, 267.2966918945312
0, 0, 39, 229.4105987548828
0, 0, 40, 241.4687805175781
0, 0, 41, 266.1361999511719
0, 0, 42, 228.1892395019531
0, 0, 43, 259.4529418945312
0, 0, 44, 254.1056213378906
0, 0, 45, 251.7705078125
0, 0, 46, 243.4693756103516
0, 0, 47, 253.4785003662109
0, 0, 48, 267.3916015625
0, 0, 49, 275.7749328613281
0, 0, 50, 250.5751037597656
0, 0, 51, 256.1117553710938
0, 0, 52, 272.0190124511719
0, 0, 53, 292.1098022460938
0, 0, 54, 241.6117095947266
0, 0, 55, 239.5190582275391
0, 0, 56, 277.8848876953125
0, 0, 57, 263.2236022949219
0, 0, 58, 245.4194183349609
0, 0, 59, 269.9436950683594
0, 0, 60, 234.3658447265625
0, 0, 61, 244.0447692871094
0, 0, 62, 257.6974792480469
0, 0, 63, 267.4623413085938
0, 0, 64, 254.3804473876953
0, 0, 65, 262.6611022949219
0, 0, 66, 278.6395568847656
0, 0, 67, 247.3564453125
0, 0, 68, 257.8197326660156
0, 0, 69, 260.9288940429688
0, 0, 70, 270.8753356933594
0, 0, 71, 238.7143249511719
0, 0, 72, 248.9984893798828
0, 0, 73, 257.5224914550781
0, 0, 74, 249.1104888916016
0, 0, 75, 242.6690826416016
0, 0, 76, 229.0631256103516
0, 0, 77, 258.69482421875
0, 0, 78, 259.43212890625
0, 0, 79, 277.2199401855469
0, 0, 80, 215.9564208984375
0, 0, 81, 267.7117614746094
0, 0, 82, 255.8351135253906
0, 0, 83, 245.897216796875
0, 0, 84, 268.3619689941406
0, 0, 85, 230.8049468994141
0, 0, 86, 254.7277221679688
0, 0, 87, 250.9933471679688
0, 0, 88, 259.4563903808594
0, 0, 89, 281.8370971679688
0, 0, 90, 242.8766479492188
0, 0, 91, 282.7464294433594
0, 0, 92, 252.9842529296875
0, 0, 93, 248.6194458007812
0, 0, 94, 250.7189178466797
0, 0, 95, 248.7786254882812
0, 0, 96, 276.1800231933594
0, 0, 97, 271.65234375
0, 0, 98, 274.3032531738281
0, 0, 99, 257.8078002929688
0, 0, 100, 257.4108581542969
0, 0, 101, 226.7114410400391
0, 0, 102, 233.7510681152344
0, 0, 103, 268.8961486816406
0, 0, 104, 254.2037963867188
0, 0, 105, 251.2528991699219
0, 0, 106, 246.134765625
0, 0, 107, 151.4570159912109
0, 0, 108, 37.06998443603516
0, 0, 109, 12.7491569519043
0, 0, 110, 11.83510780334473
0, 0, 111, 8.457010269165039
0, 0, 112, 6.991369247436523
0, 0, 113, 6.232030391693115
0, 0, 114, 8.386758804321289
0, 0, 115, 5.441463470458984
0, 0, 116, 5.811619281768799
0, 0, 117, 5.347876071929932
0, 0, 118, 5.893392086029053
0, 0, 119, 3.557826995849609
0, 0, 120, 2.95462965965271
0, 0, 121, 3.164581775665283
0, 0, 122, 5.049363613128662
0, 0, 123, 3.217122554779053
0, 0, 124, 7.182559013366699
0, 0, 125, 4.802072525024414
0, 0, 126, 3.459023952484131
0, 0, 127, 2.423397302627563
0, 1, 0, 8.271146774291992
0, 1, 1, 2.294754266738892
0, 1, 2, 3.986212491989136
0, 1, 3, 3.064383029937744
0, 1, 4, 2.85772967338562
0, 1, 5, 4.555788516998291
0, 1, 6, 6.529152393341064
0, 1, 7, 4.281545639038086
0, 1, 8, 8.053801536560059
0, 1, 9, 3.410139083862305
0, 1, 10, 8.555495262145996
0, 1, 11, 11.11975383758545
0, 1, 12, 9.358334541320801
0, 1, 13, 8.78009033203125
0, 1, 14, 7.690729141235352
0, 1, 15, 8.24985408782959
0, 1, 16, 10.1144380569458
0, 1, 17, 9.954346656799316
0, 1, 18, 20.38234329223633
0, 1, 19, 66.64813995361328
0, 1, 20, 200.115478515625
0, 1, 21, 255.3223419189453
0, 1, 22, 298.0359802246094
0, 1, 23, 282.9906311035156
0, 1, 24, 278.7671508789062
0, 1, 25, 287.9626770019531
0, 1, 26, 269.5679626464844
0, 1, 27, 308.1628723144531
0, 1, 28, 297.8405456542969
0, 1, 29, 296.1692810058594
0, 1, 30, 280.9524841308594
0, 1, 31, 291.91748046875
0, 1, 32, 290.2550354003906
0, 1, 33, 296.7708435058594
0, 1, 34, 292.6060180664062
0, 1, 35, 277.399658203125
0, 1, 36, 305.7315673828125
0, 1, 37, 297.3826904296875
0, 1, 38, 280.6610412597656
0, 1, 39, 295.14404296875
0, 1, 40, 265.2044067382812
0, 1, 41, 287.2174987792969
0, 1, 42, 291.0938720703125
0, 1, 43, 332.1251525878906
0, 1, 44, 277.9506530761719
0, 1, 45, 292.5406799316406
0, 1, 46, 260.833740234375
0, 1, 47, 310.516357421875
0, 1, 48, 284.5445861816406
0, 1, 49, 302.1356811523438
0, 1, 50, 263.0506591796875
0, 1, 51, 274.6255493164062
0, 1, 52, 295.4737243652344
0, 1, 53, 303.4635314941406
0, 1, 54, 276.7323913574219
0, 1, 55, 292.4892883300781
0, 1, 56, 279.815673828125
0, 1, 57, 299.3960266113281
0, 1, 58, 308.4374694824219
0, 1, 59, 290.9411926269531
0, 1, 60, 298.3759155273438
0, 1, 61, 275.0308227539062
0, 1, 62, 307.1963500976562
0, 1, 63, 286.3424987792969
0, 1, 64, 291.7319030761719
0, 1, 65, 295.4634094238281
0, 1, 66, 291.8975830078125
0, 1, 67, 292.7153015136719
0, 1, 68, 279.7626953125
0, 1, 69, 280.9705810546875
0, 1, 70, 271.2693176269531
0, 1, 71, 272.3921813964844
0, 1, 72, 287.2720947265625
0, 1, 73, 303.6397705078125
0, 1, 74, 305.5949401855469
0, 1, 75, 296.3407897949219
0, 1, 76, 286.5517883300781
0, 1, 77, 288.4012145996094
0, 1, 78, 298.0518493652344
0, 1, 79, 301.2786560058594
0, 1, 80, 294.592041015625
0, 1, 81, 301.6973876953125
0, 1, 82, 282.701171875
0, 1, 83, 332.8119201660156
0, 1, 84, 307.0527648925781
0, 1, 85, 254.2385864257812
0, 1, 86, 293.718994140625
0, 1, 87, 290.1188049316406
0, 1, 88, 297.0623474121094
0, 1, 89, 292.7617797851562
0, 1, 90, 270.6370849609375
0, 1, 91, 318.8643188476562
0, 1, 92, 289.0360107421875
0, 1, 93, 285.4546508789062
0, 1, 94, 304.33349609375
0, 1, 95, 283.5416259765625
0, 1, 96, 284.8341064453125
0, 1, 97, 302.7613220214844
0, 1, 98, 278.4041137695312
0, 1, 99, 266.4841003417969
0, 1, 100, 277.9809265136719
0, 1, 101, 281.4955749511719
0, 1, 102, 277.9527282714844
0, 1, 103, 281.5758056640625
0, 1, 104, 306.5111694335938
0, 1, 105, 295.9282836914062
0, 1, 106, 260.7445983886719
0, 1, 107, 191.5704498291016
0, 1, 108, 81.30422210693359
0, 1, 109, 24.08078002929688
0, 1, 110, 11.57351207733154
0, 1, 111, 8.371759414672852
0, 1, 112, 11.18955230712891
0, 1, 113, 5.564317226409912
0, 1, 114, 6.494080066680908
0, 1, 115, 6.72832727432251
0, 1, 116, 10.12961196899414
0, 1, 117, 5.408930778503418
0, 1, 118, 5.97789192199707
0, 1, 119, 4.030731678009033
0, 1, 120, 3.864561796188354
0, 1, 121, 4.523533821105957
0, 1, 122, 2.870813846588135
0, 1, 123, 3.443255186080933
0, 1, 124, 7.896899700164795
0, 1, 125, 3.696288108825684
0, 1, 126, 3.690309286117554
0, 1, 127, 2.263615846633911
0, 2, 0, 4.337142467498779
0, 2, 1, 1.555712819099426
0, 2, 2, 4.812294483184814
0, 2, 3, 4.495358943939209
0, 2, 4, 2.038802146911621
0, 2, 5, 2.044328212738037
0, 2, 6, 5.577731132507324
0, 2, 7, 3.97251033782959
0, 2, 8, 6.138435840606689
0, 2, 9, 4.620491027832031
0, 2, 10, 8.334480285644531
0, 2, 11, 6.134452819824219
0, 2, 12, 6.216626644134521
0, 2, 13, 10.01485633850098
0, 2, 14, 9.52363109588623
0, 2, 15, 8.018166542053223
0, 2, 16, 9.339091300964355
0, 2, 17, 16.58275604248047
0, 2, 18, 29.68964195251465
0, 2, 19, 113.9544143676758
0, 2, 20, 249.6936340332031
0, 2, 21, 270.7339172363281
0, 2, 22, 315.3832702636719
0, 2, 23, 300.3849182128906
0, 2, 24, 285.3948059082031
0, 2, 25, 302.4465637207031
0, 2, 26, 291.8816833496094
0, 2, 27, 275.070068359375
0, 2, 28, 272.4568176269531
0, 2, 29, 274.6201477050781
0, 2, 30, 288.3521118164062
0, 2, 31, 276.1859130859375
0, 2, 32, 293.6693725585938
0, 2, 33, 281.0769348144531
0, 2, 34, 330.4231872558594
0, 2, 35, 288.6337585449219
0, 2, 36, 304.3036804199219
0, 2, 37, 314.0491027832031
0, 2, 38, 311.5462036132812
0, 2, 39, 266.9317626953125
0, 2, 40, 309.845703125
0, 2, 41, 292.9817199707031
0, 2, 42, 303.486083984375
0, 2, 43, 311.7641906738281
0, 2, 44, 312.2828369140625
0, 2, 45, 324.7757568359375
0, 2, 46, 287.2878723144531
0, 2, 47, 302.2617797851562
0, 2, 48, 281.2855529785156
0, 2, 49, 278.3839721679688
0, 2, 50, 293.8289184570312
0, 2, 51, 287.8875122070312
0, 2, 52, 271.6378784179688
0, 2, 53, 287.2204284667969
0, 2, 54, 281.8040466308594
0, 2, 55, 274.7384948730469
0, 2, 56, 302.3839111328125
0, 2, 57, 294.4493713378906
0, 2, 58, 303.051513671875
0, 2, 59, 293.6089477539062
0, 2, 60, 318.5434875488281
0, 2, 61, 302.0284118652344
0, 2, 62, 314.5749206542969
0, 2, 63, 302.4749755859375
0, 2, 64, 295.095947265625
0, 2, 65, 314.0072937011719
0, 2, 66, 278.6689147949219
0, 2, 67, 292.1121826171875
0, 2, 68, 298.0032348632812
0, 2, 69, 310.1649780273438
0, 2, 70, 334.7766418457031
0, 2, 71, 283.4830017089844
0, 2, 72, 301.1679382324219
0, 2, 73, 312.5348815917969
0, 2, 74, 286.6254272460938
0, 2, 75, 306.3312072753906
0, 2, 76, 288.5631713867188
0, 2, 77, 299.6961364746094
0, 2, 78, 312.4369201660156
0, 2, 79, 309.2253112792969
0, 2, 80, 297.9164428710938
0, 2, 81, 281.6867065429688
0, 2, 82, 318.5609741210938
0, 2, 83, 314.5122680664062
0, 2, 84, 286.5081787109375
0, 2, 85, 282.9255676269531
0, 2, 86, 324.2159423828125
0, 2, 87, 286.1481628417969
0, 2, 88, 280.4646911621094
0, 2, 89, 295.7425231933594
0, 2, 90, 294.7906188964844
0, 2, 91, 274.8135375976562
0, 2, 92, 306.2924194335938
0, 2, 93, 317.5271911621094
0, 2, 94, 293.4588317871094
0, 2, 95, 314.2998352050781
0, 2, 96, 314.4219360351562
0, 2, 97, 292.1343688964844
0, 2, 98, 293.9933471679688
0, 2, 99, 273.3313293457031
0, 2, 100, 306.2344055175781
0, 2, 101, 301.0681762695312
0, 2, 102, 295.7361145019531
0, 2, 103, 291.8607788085938
0, 2, 104, 292.3214111328125
0, 2, 105, 274.0454711914062
0, 2, 106, 296.5179443359375
0, 2, 107, 269.1053771972656
0, 2, 108, 116.8228454589844
0, 2, 109, 34.24489974975586
0, 2, 110, 9.514774322509766
0, 2, 111, 14.85451889038086
0, 2, 112, 9.495010375976562
0, 2, 113, 9.582191467285156
0, 2, 114, 8.393670082092285
0, 2, 115, 8.427131652832031
0, 2, 116, 9.20051383972168
0, 2, 117, 8.723598480224609
0, 2, 118, 2.042002201080322
0, 2, 119, 4.260303974151611
0, 2, 120, 6.720944881439209
0, 2, 121, 2.229493141174316
0, 2, 122, 4.000438690185547
0, 2, 123, 5.81220006942749
0, 2, 124, 3.230661869049072
0, 2, 125, 3.98960018157959
0, 2, 126, 3.868999481201172
0, 2, 127, 6.389842510223389
0, 3, 0, 5.120395660400391
0, 3, 1, 2.827264070510864
0, 3, 2, 5.031986713409424
0, 3, 3, 1.737015604972839
0, 3, 4, 4.298413276672363
0, 3, 5, 6.698450088500977
0, 3, 6, 6.536121368408203
0, 3, 7, 4.552531719207764
0, 3, 8, 5.519924640655518
0, 3, 9, 8.805445671081543
0, 3, 10, 8.157861709594727
0, 3, 11, 4.251871109008789
0, 3, 12, 8.173285484313965
0, 3, 13, 16.82418823242188
0, 3, 14, 10.85985660552979
0, 3, 15, 12.8791036605835
0, 3, 16, 12.52510261535645
0, 3, 17, 20.72794342041016
0, 3, 18, 53.63419342041016
0, 3, 19, 175.6844482421875
0, 3, 20, 268.5953063964844
0, 3, 21, 270.4994812011719
0, 3, 22, 282.5552673339844
0, 3, 23, 286.6978149414062
0, 3, 24, 285.7964172363281
0, 3, 25, 269.1711730957031
0, 3, 26, 303.7183532714844
0, 3, 27, 291.4296569824219
0, 3, 28, 282.0055236816406
0, 3, 29, 338.8040466308594
0, 3, 30, 315.4372253417969
0, 3, 31, 287.1084594726562
0, 3, 32, 307.6475219726562
0, 3, 33, 313.8553771972656
0, 3, 34, 323.4903564453125
0, 3, 35, 306.3539123535156
0, 3, 36, 269.1219787597656
0, 3, 37, 313.1927185058594
0, 3, 38, 304.2684631347656
0, 3, 39, 289.2939453125
0, 3, 40, 266.2832946777344
0, 3, 41, 302.7492370605469
0, 3, 42, 285.9017639160156
0, 3, 43, 305.8309326171875
0, 3, 44, 312.0533447265625
0, 3, 45, 291.614013671875
0, 3, 46, 328.0379333496094
0, 3, 47, 302.3712463378906
0, 3, 48, 301.8782348632812
0, 3, 49, 278.0248107910156
0, 3, 50, 290.5702209472656
0, 3, 51, 276.10302734375
0, 3, 52, 314.292236328125
0, 3, 53, 285.8131103515625
0, 3, 54, 284.26025390625
0, 3, 55, 284.5846557617188
0, 3, 56, 298.3522033691406
0, 3, 57, 289.8867797851562
0, 3, 58, 305.4573059082031
0, 3, 59, 295.0803833007812
0, 3, 60, 298.0004577636719
0, 3, 61, 263.6696166992188
0, 3, 62, 284.03564453125
0, 3, 63, 307.3397216796875
0, 3, 64, 315.8314819335938
0, 3, 65, 305.6094665527344
0, 3, 66, 314.3190002441406
0, 3, 67, 317.531005859375
0, 3, 68, 279.6741027832031
0, 3, 69, 285.7367858886719
0, 3, 70, 289.6182556152344
0, 3, 71, 300.5183410644531
0, 3, 72, 268.1585388183594
0, 3, 73, 309.0093078613281
0, 3, 74, 292.9689331054688
0, 3, 75, 289.2375793457031
0, 3, 76, 306.4972839355469
0, 3, 77, 312.8870849609375
0, 3, 78, 302.8133239746094
0, 3, 79, 282.1110534667969
0, 3, 80, 290.6499633789062
0, 3, 81, 312.763427734375
0, 3, 82, 315.5270690917969
0, 3, 83, 301.3836669921875
0, 3, 84, 310.0232238769531
0, 3, 85, 292.783935546875
0, 3, 86, 303.89990234375
0, 3, 87, 296.9132690429688
0, 3, 88, 297.8258361816406
0, 3, 89, 297.7438049316406
0, 3, 90, 277.1817626953125
0, 3, 91, 284.1341857910156
0, 3, 92, 302.9209899902344
0, 3, 93, 311.9806518554688
0, 3, 94, 297.3973693847656
0, 3, 95, 334.2880249023438
0, 3, 96, 290.3945617675781
0, 3, 97, 283.7004089355469
0, 3, 98, 277.5879211425781
0, 3, 99, 262.268310546875
0, 3, 100, 284.6009826660156
0, 3, 101, 296.5105285644531
0, 3, 102, 273.3407897949219
0, 3, 103, 322.0823974609375
0, 3, 104, 308.9822387695312
0, 3, 105, 288.4314880371094
0, 3, 106, 303.3764343261719
0, 3, 107, 284.7379760742188
0, 3, 108, 167.5939331054688
0, 3, 109, 55.39882659912109
0, 3, 110, 17.34683036804199
0, 3, 111, 14.12203502655029
0, 3, 112, 12.35610580444336
0, 3, 113, 6.920970439910889
0, 3, 114, 9.923827171325684
0, 3, 115, 6.999702453613281
0, 3, 116, 7.449237823486328
0, 3, 117, 9.551851272583008
0, 3, 118, 8.310894012451172
0, 3, 119, 5.901639461517334
0, 3, 120, 6.843302726745605
0, 3, 121, 2.698843479156494
0, 3, 122, 3.065890073776245
0, 3, 123, 5.397820472717285
0, 3, 124, 5.804440021514893
0, 3, 125, 5.179532051086426
0, 3, 126, 4.799275875091553
0, 3, 127, 3.143594026565552
0, 4, 0, 2.589603424072266
0, 4, 1, 3.999627351760864
0, 4, 2, 3.238661050796509
0, 4, 3, 2.914440155029297
0, 4, 4, 5.385913372039795
0, 4, 5, 7.708695888519287
0, 4, 6, 5.459949970245361
0, 4, 7, 4.724496364593506
0, 4, 8, 4.964789390563965
0, 4, 9, 7.445267200469971
0, 4, 10, 5.719363212585449
0, 4, 11, 6.314979076385498
0, 4, 12, 6.790116786956787
0, 4, 13, 8.724386215209961
0, 4, 14, 10.75030517578125
0, 4, 15, 12.1019287109375
0, 4, 16, 12.87682056427002
0, 4, 17, 18.21431350708008
0, 4, 18, 93.29949951171875
0, 4, 19, 224.7376861572266
0, 4, 20, 284.5988464355469
0, 4, 21, 271.963134765625
0, 4, 22, 304.5632629394531
0, 4, 23, 268.4949645996094
0, 4, 24, 288.7044067382812
0, 4, 25, 273.040771484375
0, 4, 26, 294.40380859375
0, 4, 27, 283.3168029785156
0, 4, 28, 307.2449340820312
0, 4, 29, 324.3721008300781
0, 4, 30, 309.8838500976562
0, 4, 31, 305.111572265625
0, 4, 32, 282.1598510742188
0, 4, 33, 297.8134155273438
0, 4, 34, 297.9452819824219
0, 4, 35, 311.9259948730469
0, 4, 36, 293.0618896484375
0, 4, 37, 291.2755737304688
0, 4, 38, 298.6756896972656
0, 4, 39, 292.8843688964844
0, 4, 40, 301.42626953125
0, 4, 41, 312.0456237792969
0, 4, 42, 330.0154724121094
0, 4, 43, 298.9356994628906
0, 4, 44, 321.882080078125
0, 4, 45, 324.1142272949219
0, 4, 46, 305.7176818847656
0, 4, 47, 295.8748474121094
0, 4, 48, 295.6868896484375
0, 4, 49, 278.9119567871094
0, 4, 50, 295.7075805664062
0, 4, 51, 316.5274963378906
0, 4, 52, 327.805419921875
0, 4, 53, 303.2463684082031
0, 4, 54, 287.7631225585938
0, 4, 55, 314.17236328125
0, 4, 56, 286.2006225585938
0, 4, 57, 308.5664367675781
0, 4, 58, 295.3427734375
0, 4, 59, 307.317626953125
0, 4, 60, 303.2621459960938
0, 4, 61, 315.8868713378906
0, 4, 62, 308.86328125
0, 4, 63, 299.2999267578125
0, 4, 64, 330.6119689941406
0, 4, 65, 315.1810607910156
0, 4, 66, 293.7659606933594
0, 4, 67, 284.642822265625
0, 4, 68, 312.6076049804688
0, 4, 69, 275.1562805175781
0, 4, 70, 298.2988891601562
0, 4, 71, 321.3074645996094
0, 4, 72, 333.45263671875
0, 4, 73, 298.4141845703125
0, 4, 74, 291.9863586425781
0, 4, 75, 289.1224365234375
0, 4, 76, 274.5009460449219
0, 4, 77, 278.5742797851562
0, 4, 78, 311.584716796875
0, 4, 79, 317.9698181152344
0, 4, 80, 316.7604370117188
0, 4, 81, 313.09716796875
0, 4, 82, 297.5596923828125
0, 4, 83, 301.1803894042969
0, 4, 84, 290.8976440429688
0, 4, 85, 296.4106750488281
0, 4, 86, 299.1244812011719
0, 4, 87, 285.7375793457031
0, 4, 88, 308.6392517089844
0, 4, 89, 296.5447692871094
0, 4, 90, 332.3978881835938
0, 4, 91, 303.0459899902344
0, 4, 92, 291.560546875
0, 4, 93, 297.2525939941406
0, 4, 94, 291.3948059082031
0, 4, 95, 287.7865600585938
0, 4, 96, 323.2824401855469
0, 4, 97, 274.4450988769531
0, 4, 98, 328.3921813964844
0, 4, 99, 313.1368713378906
0, 4, 100, 301.8342590332031
0, 4, 101, 260.3826904296875
0, 4, 102, 297.389404296875
0, 4, 103, 317.2405700683594
0, 4, 104, 283.5684204101562
0, 4, 105, 310.9227600097656
0, 4, 106, 288.6766662597656
0, 4, 107, 297.4629211425781
0, 4, 108, 225.8909301757812
0, 4, 109, 79.22220611572266
0, 4, 110, 17.50068473815918
0, 4, 111, 12.99751567840576
0, 4, 112, 7.54010009765625
0, 4, 113, 11.27560424804688
0, 4, 114, 8.821669578552246
0, 4, 115, 11.44719409942627
0, 4, 116, 8.240074157714844
0, 4, 117, 7.460220336914062
0, 4, 118, 11.26533889770508
0, 4, 119, 8.673720359802246
0, 4, 120, 6.78001594543457
0, 4, 121, 5.868513584136963
0, 4, 122, 5.885392189025879
0, 4, 123, 8.700489044189453
0, 4, 124, 4.163894653320312
0, 4, 125, 9.16814136505127
0, 4, 126, 3.86559796333313
0, 4, 127, 3.472172498703003
0, 5, 0, 4.890758514404297
0, 5, 1, 3.362709045410156
0, 5, 2, 4.749785900115967
0, 5, 3, 4.075935840606689
0, 5, 4, 6.30256986618042
0, 5, 5, 8.372053146362305
0, 5, 6, 5.695955753326416
0, 5, 7, 4.717445850372314
0, 5, 8, 4.169912338256836
0, 5, 9, 5.278920650482178
0, 5, 10, 7.365849018096924
0, 5, 11, 8.121273040771484
0, 5, 12, 7.57663106918335
0, 5, 13, 5.212904930114746
0, 5, 14, 13.32427024841309
0, 5, 15, 17.17610359191895
0, 5, 16, 14.33612060546875
0, 5, 17, 29.12827491760254
0, 5, 18, 135.4174499511719
0, 5, 19, 286.4540405273438
0, 5, 20, 307.4543762207031
0, 5, 21, 319.3349609375
0, 5, 22, 275.4869384765625
0, 5, 23, 310.3927917480469
0, 5, 24, 301.5909729003906
0, 5, 25, 291.6546020507812
0, 5, 26, 296.9720764160156
0, 5, 27, 322.2724304199219
0, 5, 28, 303.5806274414062
0, 5, 29, 299.9444274902344
0, 5, 30, 323.5041198730469
0, 5, 31, 285.0491638183594
0, 5, 32, 301.5887451171875
0, 5, 33, 302.5846252441406
0, 5, 34, 298.0187072753906
0, 5, 35, 308.2882080078125
0, 5, 36, 271.9324951171875
0, 5, 37, 281.7527160644531
0, 5, 38, 292.7554016113281
0, 5, 39, 312.7769775390625
0, 5, 40, 307.7012329101562
0, 5, 41, 273.337158203125
0, 5, 42, 306.5650939941406
0, 5, 43, 311.9243774414062
0, 5, 44, 292.2261657714844
0, 5, 45, 302.0118408203125
0, 5, 46, 265.6481018066406
0, 5, 47, 280.9739685058594
0, 5, 48, 294.3704833984375
0, 5, 49, 285.2567443847656
0, 5, 50, 295.4883422851562
0, 5, 51, 279.0540466308594
0, 5, 52, 271.0977478027344
0, 5, 53, 284.3911743164062
0, 5, 54, 290.8151550292969
0, 5, 55, 345.0700073242188
0, 5, 56, 305.1366882324219
0, 5, 57, 305.9727172851562
0, 5, 58, 312.6479187011719
0, 5, 59, 304.7134704589844
0, 5, 60, 306.02490234375
0, 5, 61, 281.1205139160156
0, 5, 62, 326.2413330078125
0, 5, 63, 293.2151794433594
0, 5, 64, 322.0597839355469
0, 5, 65, 306.4619140625
0, 5, 66, 326.6456909179688
0, 5, 67, 311.5748291015625
0, 5, 68, 312.9033813476562
0, 5, 69, 312.6434326171875
0, 5, 70, 301.9727172851562
0, 5, 71, 272.3123779296875
0, 5, 72, 312.9201354980469
0, 5, 73, 301.0519409179688
0, 5, 74, 295.1360168457031
0, 5, 75, 293.783447265625
0, 5, 76, 284.735595703125
0, 5, 77, 296.8094482421875
0, 5, 78, 313.7761840820312
0, 5, 79, 307.3692932128906
0, 5, 80, 297.8717041015625
0, 5, 81, 325.6156311035156
0, 5, 82, 326.8402709960938
0, 5, 83, 280.206787109375
0, 5, 84, 301.3187866210938
0, 5, 85, 270.8823547363281
0, 5, 86, 327.8183898925781
0, 5, 87, 284.5069580078125
0, 5, 88, 312.6342468261719
0, 5, 89, 304.9737548828125
0, 5, 90, 316.8600769042969
0, 5, 91, 312.8514709472656
0, 5, 92, 296.84765625
0, 5, 93, 323.0353088378906
0, 5, 94, 308.738037109375
0, 5, 95, 296.2035217285156
0, 5, 96, 298.7556762695312
0, 5, 97, 296.5446472167969
0, 5, 98, 318.7001953125
0, 5, 99, 302.3889770507812
0, 5, 100, 292.7239379882812
0, 5, 101, 304.6927795410156
0, 5, 102, 290.6999816894531
0, 5, 103, 313.7027587890625
0, 5, 104, 302.7084655761719
0, 5, 105, 292.1024169921875
0, 5, 106, 281.0693359375
0, 5, 107, 293.0404357910156
0, 5, 108, 267.5527038574219
0, 5, 109, 156.5754089355469
0, 5, 110, 40.07778930664062
0, 5, 111, 19.85639381408691
0, 5, 112, 16.92419815063477
0, 5, 113, 13.83735942840576
0, 5, 114, 14.11133766174316
0, 5, 115, 8.49143123626709
0, 5, 116, 7.00560998916626
0, 5, 117, 7.245944499969482
0, 5, 118, 10.9868221282959
0, 5, 119, 4.307363033294678
0, 5, 120, 8.448503494262695
0, 5, 121, 3.851851463317871
0, 5, 122, 5.633898258209229
0, 5, 123, 3.948707580566406
0, 5, 124, 6.104804515838623
0, 5, 125, 5.045594692230225
0, 5, 126, 7.647150993347168
0, 5, 127, 5.504671573638916
0, 6, 0, 5.06956672668457
0, 6, 1, 2.367802619934082
0, 6, 2, 5.046409130096436
0, 6, 3, 5.971922397613525
0, 6, 4, 4.025611400604248
0, 6, 5, 4.816109180450439
0, 6, 6, 11.05303859710693
0, 6, 7, 5.958314418792725
0, 6, 8, 6.41093635559082
0, 6, 9, 7.312985897064209
0, 6, 10, 6.693736553192139
0, 6, 11, 8.225403785705566
0, 6, 12, 8.342459678649902
0, 6, 13, 14.12960052490234
0, 6, 14, 8.473888397216797
0, 6, 15, 16.77968215942383
0, 6, 16, 29.12322425842285
0, 6, 17, 54.67858505249023
0, 6, 18, 172.2644653320312
0, 6, 19, 276.0954895019531
0, 6, 20, 291.0310668945312
0, 6, 21, 313.7533569335938
0, 6, 22, 319.4854431152344
0, 6, 23, 304.0669250488281
0, 6, 24, 315.4693908691406
0, 6, 25, 315.0854797363281
0, 6, 26, 321.3995971679688
0, 6, 27, 331.7013244628906
0, 6, 28, 296.7480163574219
0, 6, 29, 329.6011657714844
0, 6, 30, 281.895751953125
0, 6, 31, 287.074951171875
0, 6, 32, 340.7191467285156
0, 6, 33, 300.4638366699219
0, 6, 34, 340.4300842285156
0, 6, 35, 320.6707153320312
0, 6, 36, 272.8753051757812
0, 6, 37, 288.9494323730469
0, 6, 38, 312.4944763183594
0, 6, 39, 298.8327331542969
0, 6, 40, 284.0401611328125
0, 6, 41, 297.7572937011719
0, 6, 42, 304.5724792480469
0, 6, 43, 287.8326110839844
0, 6, 44, 279.5206298828125
0, 6, 45, 319.758544921875
0, 6, 46, 300.4006958007812
0, 6, 47, 332.2739562988281
0, 6, 48, 291.4019470214844
0, 6, 49, 313.5242919921875
0, 6, 50, 328.1495971679688
0, 6, 51, 310.4759521484375
0, 6, 52, 323.3731994628906
0, 6, 53, 328.9957275390625
0, 6, 54, 304.1367492675781
0, 6, 55, 304.8275756835938
0, 6, 56, 293.8215942382812
0, 6, 57, 313.3788146972656
0, 6, 58, 262.0325012207031
0, 6, 59, 301.1622314453125
0, 6, 60, 311.9462890625
0, 6, 61, 270.1317443847656
0, 6, 62, 336.9772338867188
0, 6, 63, 322.336669921875
0, 6, 64, 290.96826171875
0, 6, 65, 286.4323120117188
0, 6, 66, 303.0215454101562
0, 6, 67, 309.9601745605469
0, 6, 68, 293.3941955566406
0, 6, 69, 279.2109680175781
0, 6, 70, 273.6227111816406
0, 6, 71, 291.2047729492188
0, 6, 72, 309.2554016113281
0, 6, 73, 294.3749694824219
0, 6, 74, 330.3102416992188
0, 6, 75, 343.9549560546875
0, 6, 76, 296.353271484375
0, 6, 77, 286.8511962890625
0, 6, 78, 279.8975830078125
0, 6, 79, 293.8229064941406
0, 6, 80, 300.1696166992188
0, 6, 81, 314.00390625
0, 6, 82, 320.0979919433594
0, 6, 83, 322.6740417480469
0, 6, 84, 296.10693359375
0, 6, 85, 300.7483215332031
0, 6, 86, 330.89306640625
0, 6, 87, 293.8464965820312
0, 6, 88, 306.1874694824219
0, 6, 89, 304.7032470703125
0, 6, 90, 299.2106323242188
0, 6, 91, 310.8826293945312
0, 6, 92, 289.3851318359375
0, 6, 93, 296.2671203613281
0, 6, 94, 271.8973388671875
0, 6, 95, 299.5949401855469
0, 6, 96, 346.5933532714844
0, 6, 97, 309.5173950195312
0, 6, 98, 301.42626953125
0, 6, 99, 274.3774719238281
0, 6, 100, 308.9942626953125
0, 6, 101, 292.9002075195312
0, 6, 102, 306.9649047851562
0, 6, 103, 308.0713195800781
0, 6, 104, 291.7256469726562
0, 6, 105, 303.1665344238281
0, 6, 106, 308.2512512207031
0, 6, 107, 305.5995788574219
0, 6, 108, 267.617919921875
0, 6, 109, 187.7808837890625
0, 6, 110, 55.52142715454102
0, 6, 111, 21.5277214050293
0, 6, 112, 14.4973783493042
0, 6, 113, 12.10321712493896
0, 6, 114, 15.81752014160156
0, 6, 115, 11.53029727935791
0, 6, 116, 9.034610748291016
0, 6, 117, 10.98019123077393
0, 6, 118, 10.12039089202881
0, 6, 119, 11.40082550048828
0, 6, 120, 6.584949970245361
0, 6, 121, 5.445218563079834
0, 6, 122, 7.306506633758545
0, 6, 123, 4.219552516937256
0, 6, 124, 6.71918773651123
0, 6, 125, 6.01633358001709
0, 6, 126, 3.841655969619751
0, 6, 127, 5.485058307647705
0, 7, 0, 7.633307933807373
0, 7, 1, 2.923645257949829
0, 7, 2, 5.36129093170166
0, 7, 3, 5.953700065612793
0, 7, 4, 3.503597736358643
0, 7, 5, 3.317664623260498
0, 7, 6, 5.935352325439453
0, 7, 7, 6.127423763275146
0, 7, 8, 5.309314250946045
0, 7, 9, 10.46586513519287
0, 7, 10, 8.639028549194336
0, 7, 11, 14.85800266265869
0, 7, 12, 12.81318187713623
0, 7, 13, 13.94507789611816
0, 7, 14, 10.48573207855225
0, 7, 15, 15.8914155960083
0, 7, 16, 25.86551284790039
0, 7, 17, 98.64101409912109
0, 7, 18, 218.0089874267578
0, 7, 19, 291.3160400390625
0, 7, 20, 298.7393798828125
0, 7, 21, 276.186279296875
0, 7, 22, 298.1445007324219
0, 7, 23, 288.9717407226562
0, 7, 24, 315.3208923339844
0, 7, 25, 324.8948364257812
0, 7, 26, 278.2825012207031
0, 7, 27, 298.2363891601562
0, 7, 28, 329.0213012695312
0, 7, 29, 318.92578125
0, 7, 30, 303.8816528320312
0, 7, 31, 278.1182250976562
0, 7, 32, 305.5605773925781
0, 7, 33, 260.4796142578125
0, 7, 34, 297.3884582519531
0, 7, 35, 322.8335876464844
0, 7, 36, 335.2827758789062
0, 7, 37, 325.3944396972656
0, 7, 38, 295.9889221191406
0, 7, 39, 306.1842956542969
0, 7, 40, 290.091552734375
0, 7, 41, 269.8195495605469
0, 7, 42, 301.5318603515625
0, 7, 43, 276.2551879882812
0, 7, 44, 306.06103515625
0, 7, 45, 294.7635192871094
0, 7, 46, 283.7291259765625
0, 7, 47, 329.3128051757812
0, 7, 48, 286.0340881347656
0, 7, 49, 300.4878540039062
0, 7, 50, 321.3013305664062
0, 7, 51, 298.2712097167969
0, 7, 52, 326.3524169921875
0, 7, 53, 308.4289855957031
0, 7, 54, 324.140869140625
0, 7, 55, 306.5645751953125
0, 7, 56, 280.9255981445312
0, 7, 57, 283.4413146972656
0, 7, 58, 299.0513610839844
0, 7, 59, 293.7738647460938
0, 7, 60, 322.4164428710938
0, 7, 61, 277.3991394042969
0, 7, 62, 297.32275390625
0, 7, 63, 291.6487731933594
0, 7, 64, 305.7450866699219
0, 7, 65, 331.9073791503906
0, 7, 66, 320.0352172851562
0, 7, 67, 301.6600952148438
0, 7, 68, 280.5758972167969
0, 7, 69, 293.9736633300781
0, 7, 70, 301.677001953125
0, 7, 71, 309.1077270507812
0, 7, 72, 283.0913391113281
0, 7, 73, 295.0652465820312
0, 7, 74, 343.5936584472656
0, 7, 75, 320.3685913085938
0, 7, 76, 324.4946594238281
0, 7, 77, 284.1767272949219
0, 7, 78, 298.8821105957031
0, 7, 79, 297.1670532226562
0, 7, 80, 310.3272399902344
0, 7, 81, 320.3958435058594
0, 7, 82, 331.8074645996094
0, 7, 83, 318.3338012695312
0, 7, 84, 310.4530334472656
0, 7, 85, 271.3209228515625
0, 7, 86, 311.0547180175781
0, 7, 87, 311.3217468261719
0, 7, 88, 307.5568542480469
0, 7, 89, 294.0134887695312
0, 7, 90, 307.9814453125
0, 7, 91, 313.5023193359375
0, 7, 92, 287.2533264160156
0, 7, 93, 307.1819763183594
0, 7, 94, 276.8273620605469
0, 7, 95, 296.4499206542969
0, 7, 96, 330.8590698242188
0, 7, 97, 293.9978637695312
0, 7, 98, 290.1982421875
0, 7, 99, 311.7239074707031
0, 7, 100, 281.9986572265625
0, 7, 101, 273.843505859375
0, 7, 102, 289.9987182617188
0, 7, 103, 291.4111328125
0, 7, 104, 274.8443908691406
0, 7, 105, 307.6934204101562
0, 7, 106, 319.7234191894531
0, 7, 107, 298.5410461425781
0, 7, 108, 273.28466796875
0, 7, 109, 236.8372192382812
0, 7, 110, 96.11191558837891
0, 7, 111, 23.93694686889648
0, 7, 112, 13.37347984313965
0, 7, 113, 14.6961612701416
0, 7, 114, 11.69383811950684
0, 7, 115, 13.60687732696533
0, 7, 116, 9.319710731506348
0, 7, 117, 5.062774181365967
0, 7, 118, 7.695811748504639
0, 7, 119, 6.984124183654785
0, 7, 120, 5.106764793395996
0, 7, 121, 7.287809371948242
0, 7, 122, 7.597524166107178
0, 7, 123, 6.621753692626953
0, 7, 124, 2.841973781585693
0, 7, 125, 6.589172840118408
0, 7, 126, 9.265693664550781
0, 7, 127, 4.532224178314209
0, 8, 0, 5.397989749908447
0, 8, 1, 4.691415309906006
0, 8, 2, 2.580179452896118
0, 8, 3, 2.297223091125488
0, 8, 4, 4.228533267974854
0, 8, 5, 4.658054351806641
0, 8, 6, 7.700340270996094
0, 8, 7, 5.684812068939209
0, 8, 8, 11.46455574035645
0, 8, 9, 7.069706916809082
0, 8, 10, 9.224520683288574
0, 8, 11, 11.64972400665283
0, 8, 12, 12.53802585601807
0, 8, 13, 14.37826347351074
0, 8, 14, 12.35629844665527
0, 8, 15, 18.1894359588623
0, 8, 16, 32.96513748168945
0, 8, 17, 131.4867858886719
0, 8, 18, 242.0313720703125
0, 8, 19, 297.0751342773438
0, 8, 20, 285.1911010742188
0, 8, 21, 307.1111145019531
0, 8, 22, 296.3382568359375
0, 8, 23, 274.4786682128906
0, 8, 24, 268.3424682617188
0, 8, 25, 274.52587890625
0, 8, 26, 307.4276733398438
0, 8, 27, 307.5481262207031
0, 8, 28, 302.5179748535156
0, 8, 29, 319.5446472167969
0, 8, 30, 314.9945373535156
0, 8, 31, 303.4021911621094
0, 8, 32, 279.4862976074219
0, 8, 33, 294.5105590820312
0, 8, 34, 290.6105041503906
0, 8, 35, 280.3247680664062
0, 8, 36, 318.0698547363281
0, 8, 37, 337.6920776367188
0, 8, 38, 331.7503051757812
0, 8, 39, 281.6732177734375
0, 8, 40, 305.2948913574219
