# TOPAS Version: 3.1.p3
# Parameter File: batch_inserts_12.txt
# Results for scorer Readout_Adipose
# Scored in component: MyBox
# X in 1 bin  of 0.75 cm
# Y in 512 bins of 0.0783984 cm
# Z in 128 bins of 0.078125 cm
# EnergyDeposit ( MeV ) : Sum   
0, 0, 0, 4.081125736236572
0, 0, 1, 1.754592776298523
0, 0, 2, 5.046784400939941
0, 0, 3, 2.118660688400269
0, 0, 4, 4.35840892791748
0, 0, 5, 3.505889177322388
0, 0, 6, 5.366243362426758
0, 0, 7, 9.40824031829834
0, 0, 8, 4.932256698608398
0, 0, 9, 4.686617851257324
0, 0, 10, 8.053156852722168
0, 0, 11, 4.311412811279297
0, 0, 12, 4.893453121185303
0, 0, 13, 6.39578914642334
0, 0, 14, 9.44365406036377
0, 0, 15, 10.93851089477539
0, 0, 16, 8.927796363830566
0, 0, 17, 9.916399955749512
0, 0, 18, 15.60499286651611
0, 0, 19, 45.83015823364258
0, 0, 20, 138.8648529052734
0, 0, 21, 222.6504211425781
0, 0, 22, 249.8144378662109
0, 0, 23, 257.7301940917969
0, 0, 24, 250.7258758544922
0, 0, 25, 258.9841918945312
0, 0, 26, 236.4844512939453
0, 0, 27, 236.5621490478516
0, 0, 28, 272.9035339355469
0, 0, 29, 251.5960998535156
0, 0, 30, 231.2249603271484
0, 0, 31, 244.4500427246094
0, 0, 32, 263.5615234375
0, 0, 33, 262.2470397949219
0, 0, 34, 287.3676147460938
0, 0, 35, 267.0119934082031
0, 0, 36, 246.1705780029297
0, 0, 37, 252.0866088867188
0, 0, 38, 268.3818359375
0, 0, 39, 230.3194274902344
0, 0, 40, 241.0564727783203
0, 0, 41, 265.71484375
0, 0, 42, 229.0095825195312
0, 0, 43, 261.7008361816406
0, 0, 44, 252.1703186035156
0, 0, 45, 251.9650726318359
0, 0, 46, 243.9463195800781
0, 0, 47, 252.737548828125
0, 0, 48, 266.8071899414062
0, 0, 49, 275.5152893066406
0, 0, 50, 250.1796264648438
0, 0, 51, 254.6381378173828
0, 0, 52, 275.2431335449219
0, 0, 53, 292.1618041992188
0, 0, 54, 243.0925903320312
0, 0, 55, 239.9860534667969
0, 0, 56, 277.2079467773438
0, 0, 57, 263.2578125
0, 0, 58, 245.7260131835938
0, 0, 59, 272.186767578125
0, 0, 60, 235.7314453125
0, 0, 61, 245.1682739257812
0, 0, 62, 257.2785339355469
0, 0, 63, 268.2926940917969
0, 0, 64, 255.1761932373047
0, 0, 65, 260.1875610351562
0, 0, 66, 278.0148010253906
0, 0, 67, 246.7718811035156
0, 0, 68, 258.4132690429688
0, 0, 69, 265.8888854980469
0, 0, 70, 272.6102600097656
0, 0, 71, 237.8282928466797
0, 0, 72, 250.8363342285156
0, 0, 73, 257.1048889160156
0, 0, 74, 251.5268402099609
0, 0, 75, 240.3789367675781
0, 0, 76, 231.2178649902344
0, 0, 77, 260.9268798828125
0, 0, 78, 254.9011535644531
0, 0, 79, 277.1467590332031
0, 0, 80, 217.4597015380859
0, 0, 81, 266.6416320800781
0, 0, 82, 257.7816467285156
0, 0, 83, 245.0504150390625
0, 0, 84, 271.8992614746094
0, 0, 85, 231.6189880371094
0, 0, 86, 252.2229309082031
0, 0, 87, 250.0893096923828
0, 0, 88, 261.220947265625
0, 0, 89, 283.9672546386719
0, 0, 90, 244.9133758544922
0, 0, 91, 282.5376281738281
0, 0, 92, 254.4889678955078
0, 0, 93, 248.8863220214844
0, 0, 94, 246.4474029541016
0, 0, 95, 247.3776397705078
0, 0, 96, 274.0954284667969
0, 0, 97, 273.2040100097656
0, 0, 98, 274.5588073730469
0, 0, 99, 258.3492126464844
0, 0, 100, 259.7661743164062
0, 0, 101, 224.9994659423828
0, 0, 102, 233.3451843261719
0, 0, 103, 271.3922729492188
0, 0, 104, 254.3759460449219
0, 0, 105, 251.3697204589844
0, 0, 106, 245.3499755859375
0, 0, 107, 151.4677886962891
0, 0, 108, 39.55583190917969
0, 0, 109, 11.60358333587646
0, 0, 110, 12.47794723510742
0, 0, 111, 8.865450859069824
0, 0, 112, 5.529981136322021
0, 0, 113, 5.212899208068848
0, 0, 114, 9.661884307861328
0, 0, 115, 5.385602474212646
0, 0, 116, 5.648431777954102
0, 0, 117, 5.743740558624268
0, 0, 118, 6.195571899414062
0, 0, 119, 5.012357234954834
0, 0, 120, 2.256845951080322
0, 0, 121, 1.820384860038757
0, 0, 122, 5.268269538879395
0, 0, 123, 2.475446462631226
0, 0, 124, 4.483441829681396
0, 0, 125, 1.623618721961975
0, 0, 126, 3.304445743560791
0, 0, 127, 3.475486993789673
0, 1, 0, 6.898584365844727
0, 1, 1, 3.115311861038208
0, 1, 2, 3.407457113265991
0, 1, 3, 4.036447048187256
0, 1, 4, 3.442028999328613
0, 1, 5, 2.893712759017944
0, 1, 6, 4.786104679107666
0, 1, 7, 4.589838981628418
0, 1, 8, 7.150456428527832
0, 1, 9, 4.563985347747803
0, 1, 10, 9.077299118041992
0, 1, 11, 11.10552978515625
0, 1, 12, 7.591699123382568
0, 1, 13, 10.46483612060547
0, 1, 14, 7.704311370849609
0, 1, 15, 6.797711849212646
0, 1, 16, 11.66453647613525
0, 1, 17, 9.785406112670898
0, 1, 18, 19.84363746643066
0, 1, 19, 65.44557189941406
0, 1, 20, 199.1220550537109
0, 1, 21, 255.2554779052734
0, 1, 22, 296.8242797851562
0, 1, 23, 282.4912414550781
0, 1, 24, 274.4074096679688
0, 1, 25, 289.4041442871094
0, 1, 26, 269.5805358886719
0, 1, 27, 305.4788513183594
0, 1, 28, 297.9381103515625
0, 1, 29, 295.2576904296875
0, 1, 30, 280.8163452148438
0, 1, 31, 291.2922058105469
0, 1, 32, 290.6285400390625
0, 1, 33, 295.3220520019531
0, 1, 34, 291.0872497558594
0, 1, 35, 278.5087280273438
0, 1, 36, 307.04638671875
0, 1, 37, 293.8603515625
0, 1, 38, 280.1127624511719
0, 1, 39, 296.6757507324219
0, 1, 40, 268.5571594238281
0, 1, 41, 286.6338500976562
0, 1, 42, 292.2691345214844
0, 1, 43, 334.1200561523438
0, 1, 44, 278.6448059082031
0, 1, 45, 292.3241577148438
0, 1, 46, 258.7134094238281
0, 1, 47, 310.2374877929688
0, 1, 48, 286.1051025390625
0, 1, 49, 302.5633544921875
0, 1, 50, 262.5792541503906
0, 1, 51, 271.2891235351562
0, 1, 52, 294.5713500976562
0, 1, 53, 303.7707824707031
0, 1, 54, 273.7682189941406
0, 1, 55, 292.5632019042969
0, 1, 56, 278.6627807617188
0, 1, 57, 299.8170776367188
0, 1, 58, 311.4954223632812
0, 1, 59, 292.3509826660156
0, 1, 60, 296.458740234375
0, 1, 61, 278.1557922363281
0, 1, 62, 307.9209289550781
0, 1, 63, 287.2232055664062
0, 1, 64, 287.8985290527344
0, 1, 65, 294.6453247070312
0, 1, 66, 292.0143432617188
0, 1, 67, 293.4260864257812
0, 1, 68, 277.6650695800781
0, 1, 69, 279.4357299804688
0, 1, 70, 273.278564453125
0, 1, 71, 275.0326232910156
0, 1, 72, 286.2570190429688
0, 1, 73, 302.9219665527344
0, 1, 74, 307.6746826171875
0, 1, 75, 293.9510192871094
0, 1, 76, 285.0185546875
0, 1, 77, 290.09326171875
0, 1, 78, 299.7436218261719
0, 1, 79, 302.0386962890625
0, 1, 80, 296.4810791015625
0, 1, 81, 301.5588073730469
0, 1, 82, 285.2671508789062
0, 1, 83, 332.0495910644531
0, 1, 84, 309.2318115234375
0, 1, 85, 252.9098358154297
0, 1, 86, 293.6607666015625
0, 1, 87, 291.2093811035156
0, 1, 88, 298.93994140625
0, 1, 89, 289.3871459960938
0, 1, 90, 272.2285766601562
0, 1, 91, 320.6493225097656
0, 1, 92, 292.5270385742188
0, 1, 93, 287.3544616699219
0, 1, 94, 303.3730163574219
0, 1, 95, 283.2404174804688
0, 1, 96, 284.6544189453125
0, 1, 97, 299.6927795410156
0, 1, 98, 276.4545593261719
0, 1, 99, 266.0406494140625
0, 1, 100, 278.6345825195312
0, 1, 101, 281.2864990234375
0, 1, 102, 277.1114807128906
0, 1, 103, 280.6499938964844
0, 1, 104, 305.4682006835938
0, 1, 105, 296.1338806152344
0, 1, 106, 262.8450012207031
0, 1, 107, 192.9838104248047
0, 1, 108, 80.18215942382812
0, 1, 109, 23.73832893371582
0, 1, 110, 11.30153274536133
0, 1, 111, 9.343603134155273
0, 1, 112, 11.12592601776123
0, 1, 113, 5.885532379150391
0, 1, 114, 7.653397560119629
0, 1, 115, 5.933433055877686
0, 1, 116, 11.55924415588379
0, 1, 117, 5.186435222625732
0, 1, 118, 3.599761486053467
0, 1, 119, 5.23643970489502
0, 1, 120, 5.090029239654541
0, 1, 121, 5.293586254119873
0, 1, 122, 4.526173114776611
0, 1, 123, 3.905585050582886
0, 1, 124, 9.970843315124512
0, 1, 125, 2.410402774810791
0, 1, 126, 2.963711261749268
0, 1, 127, 2.244380474090576
0, 2, 0, 5.496381759643555
0, 2, 1, 2.896615266799927
0, 2, 2, 3.419788837432861
0, 2, 3, 4.032512664794922
0, 2, 4, 3.71330738067627
0, 2, 5, 2.32898473739624
0, 2, 6, 1.695776700973511
0, 2, 7, 3.884855508804321
0, 2, 8, 4.392947673797607
0, 2, 9, 6.562641143798828
0, 2, 10, 8.174546241760254
0, 2, 11, 6.249932765960693
0, 2, 12, 6.980551719665527
0, 2, 13, 9.242125511169434
0, 2, 14, 9.011590957641602
0, 2, 15, 7.554991722106934
0, 2, 16, 9.307701110839844
0, 2, 17, 16.31639862060547
0, 2, 18, 31.16241645812988
0, 2, 19, 116.2905731201172
0, 2, 20, 246.7790679931641
0, 2, 21, 270.9584655761719
0, 2, 22, 315.5524597167969
0, 2, 23, 303.1795349121094
0, 2, 24, 286.7415466308594
0, 2, 25, 303.1450805664062
0, 2, 26, 293.7937927246094
0, 2, 27, 275.9144287109375
0, 2, 28, 274.6024475097656
0, 2, 29, 275.89111328125
0, 2, 30, 290.798828125
0, 2, 31, 279.4834289550781
0, 2, 32, 293.1208801269531
0, 2, 33, 282.0670776367188
0, 2, 34, 333.4771728515625
0, 2, 35, 291.4153442382812
0, 2, 36, 304.0682373046875
0, 2, 37, 316.2259216308594
0, 2, 38, 310.3199768066406
0, 2, 39, 268.0649108886719
0, 2, 40, 308.3987426757812
0, 2, 41, 292.5223083496094
0, 2, 42, 304.0359802246094
0, 2, 43, 311.6575317382812
0, 2, 44, 312.7938232421875
0, 2, 45, 325.8397827148438
0, 2, 46, 285.3235473632812
0, 2, 47, 302.7020263671875
0, 2, 48, 281.4088439941406
0, 2, 49, 279.5599060058594
0, 2, 50, 295.2711791992188
0, 2, 51, 284.8416748046875
0, 2, 52, 271.8345031738281
0, 2, 53, 286.5762939453125
0, 2, 54, 280.8323669433594
0, 2, 55, 275.9994506835938
0, 2, 56, 300.93505859375
0, 2, 57, 293.4781494140625
0, 2, 58, 300.2795104980469
0, 2, 59, 287.2948303222656
0, 2, 60, 319.1511840820312
0, 2, 61, 301.0986022949219
0, 2, 62, 314.3373107910156
0, 2, 63, 307.2867736816406
0, 2, 64, 299.05322265625
0, 2, 65, 313.054931640625
0, 2, 66, 278.927490234375
0, 2, 67, 290.7643737792969
0, 2, 68, 296.3467102050781
0, 2, 69, 310.1497802734375
0, 2, 70, 333.9712219238281
0, 2, 71, 285.0402221679688
0, 2, 72, 304.0974731445312
0, 2, 73, 311.4176330566406
0, 2, 74, 285.4578857421875
0, 2, 75, 305.05126953125
0, 2, 76, 284.3829650878906
0, 2, 77, 297.424560546875
0, 2, 78, 317.7921752929688
0, 2, 79, 311.0465393066406
0, 2, 80, 295.9916381835938
0, 2, 81, 282.9912109375
0, 2, 82, 318.479248046875
0, 2, 83, 311.5958251953125
0, 2, 84, 288.8574829101562
0, 2, 85, 284.020263671875
0, 2, 86, 324.3291015625
0, 2, 87, 287.183837890625
0, 2, 88, 279.1380615234375
0, 2, 89, 297.9803771972656
0, 2, 90, 295.2311401367188
0, 2, 91, 275.0369567871094
0, 2, 92, 304.8923645019531
0, 2, 93, 316.3630065917969
0, 2, 94, 292.7380981445312
0, 2, 95, 314.2085876464844
0, 2, 96, 315.9723205566406
0, 2, 97, 290.0756530761719
0, 2, 98, 293.7771606445312
0, 2, 99, 273.3047180175781
0, 2, 100, 307.1153869628906
0, 2, 101, 302.5744934082031
0, 2, 102, 296.4375915527344
0, 2, 103, 292.2423095703125
0, 2, 104, 291.15673828125
0, 2, 105, 273.2113647460938
0, 2, 106, 296.3135681152344
0, 2, 107, 271.1483154296875
0, 2, 108, 118.3533554077148
0, 2, 109, 32.04866027832031
0, 2, 110, 9.335417747497559
0, 2, 111, 10.68346309661865
0, 2, 112, 7.349525451660156
0, 2, 113, 9.735927581787109
0, 2, 114, 9.287870407104492
0, 2, 115, 9.64000415802002
0, 2, 116, 11.91277027130127
0, 2, 117, 5.353299140930176
0, 2, 118, 6.537054061889648
0, 2, 119, 7.940024375915527
0, 2, 120, 5.383102893829346
0, 2, 121, 1.512219309806824
0, 2, 122, 4.050326824188232
0, 2, 123, 5.940073013305664
0, 2, 124, 4.236772060394287
0, 2, 125, 5.189512252807617
0, 2, 126, 3.624694347381592
0, 2, 127, 4.020983219146729
0, 3, 0, 2.673012018203735
0, 3, 1, 4.046817302703857
0, 3, 2, 5.331074237823486
0, 3, 3, 3.355818510055542
0, 3, 4, 2.393588304519653
0, 3, 5, 7.162760734558105
0, 3, 6, 6.91623067855835
0, 3, 7, 5.374863624572754
0, 3, 8, 7.460838317871094
0, 3, 9, 4.642276763916016
0, 3, 10, 5.38942289352417
0, 3, 11, 4.835679531097412
0, 3, 12, 6.506822109222412
0, 3, 13, 14.2413330078125
0, 3, 14, 11.52828121185303
0, 3, 15, 13.05922412872314
0, 3, 16, 12.44728565216064
0, 3, 17, 20.56092071533203
0, 3, 18, 51.7918815612793
0, 3, 19, 176.1576538085938
0, 3, 20, 271.5229797363281
0, 3, 21, 270.9694519042969
0, 3, 22, 281.6714477539062
0, 3, 23, 286.2057495117188
0, 3, 24, 287.1145629882812
0, 3, 25, 269.9057312011719
0, 3, 26, 303.969482421875
0, 3, 27, 291.924560546875
0, 3, 28, 284.2255249023438
0, 3, 29, 338.9321899414062
0, 3, 30, 317.7904357910156
0, 3, 31, 286.564208984375
0, 3, 32, 307.5926208496094
0, 3, 33, 315.0057067871094
0, 3, 34, 321.3540649414062
0, 3, 35, 308.2726745605469
0, 3, 36, 269.1668395996094
0, 3, 37, 316.8281860351562
0, 3, 38, 305.8995361328125
0, 3, 39, 291.5867004394531
0, 3, 40, 268.1431884765625
0, 3, 41, 298.4878845214844
0, 3, 42, 287.4160766601562
0, 3, 43, 304.8750610351562
0, 3, 44, 311.7910766601562
0, 3, 45, 292.1655883789062
0, 3, 46, 330.0850830078125
0, 3, 47, 300.0249938964844
0, 3, 48, 301.0157165527344
0, 3, 49, 276.6880798339844
0, 3, 50, 291.2279968261719
0, 3, 51, 275.1382141113281
0, 3, 52, 316.9708251953125
0, 3, 53, 288.0237731933594
0, 3, 54, 285.7770080566406
0, 3, 55, 282.7402648925781
0, 3, 56, 299.9654235839844
0, 3, 57, 287.156005859375
0, 3, 58, 305.7870178222656
0, 3, 59, 296.8868713378906
0, 3, 60, 297.4293823242188
0, 3, 61, 264.4666137695312
0, 3, 62, 284.9022521972656
0, 3, 63, 306.3768310546875
0, 3, 64, 318.9485168457031
0, 3, 65, 305.3616638183594
0, 3, 66, 314.5547180175781
0, 3, 67, 317.8515625
0, 3, 68, 281.4955749511719
0, 3, 69, 281.7939147949219
0, 3, 70, 287.6338195800781
0, 3, 71, 298.4233703613281
0, 3, 72, 270.3813171386719
0, 3, 73, 307.0963439941406
0, 3, 74, 292.8217163085938
0, 3, 75, 291.0256042480469
0, 3, 76, 308.1172790527344
0, 3, 77, 313.4645690917969
0, 3, 78, 304.4342651367188
0, 3, 79, 282.6261901855469
0, 3, 80, 292.7064514160156
0, 3, 81, 310.6771240234375
0, 3, 82, 317.2078247070312
0, 3, 83, 300.9721984863281
0, 3, 84, 312.0777282714844
0, 3, 85, 296.126708984375
0, 3, 86, 302.2940063476562
0, 3, 87, 297.3369445800781
0, 3, 88, 300.672607421875
0, 3, 89, 295.4988403320312
0, 3, 90, 275.5761108398438
0, 3, 91, 282.8490905761719
0, 3, 92, 303.0382690429688
0, 3, 93, 312.7622680664062
0, 3, 94, 298.1647644042969
0, 3, 95, 333.8851928710938
0, 3, 96, 290.3761596679688
0, 3, 97, 283.5982666015625
0, 3, 98, 279.0103454589844
0, 3, 99, 260.7633972167969
0, 3, 100, 285.5010986328125
0, 3, 101, 296.7771606445312
0, 3, 102, 273.9214477539062
0, 3, 103, 321.3406677246094
0, 3, 104, 309.3998413085938
0, 3, 105, 288.6446228027344
0, 3, 106, 303.9092712402344
0, 3, 107, 282.3185119628906
0, 3, 108, 169.0770568847656
0, 3, 109, 57.23350143432617
0, 3, 110, 17.48083686828613
0, 3, 111, 13.21441650390625
0, 3, 112, 13.42980003356934
0, 3, 113, 5.378904819488525
0, 3, 114, 11.36099147796631
0, 3, 115, 10.49002647399902
0, 3, 116, 8.000638008117676
0, 3, 117, 7.84133768081665
0, 3, 118, 9.936501502990723
0, 3, 119, 8.174196243286133
0, 3, 120, 3.246612787246704
0, 3, 121, 2.183314085006714
0, 3, 122, 2.207741498947144
0, 3, 123, 5.040570259094238
0, 3, 124, 4.605788230895996
0, 3, 125, 6.939981460571289
0, 3, 126, 4.442503929138184
0, 3, 127, 4.85619592666626
0, 4, 0, 2.956461906433105
0, 4, 1, 4.990398406982422
0, 4, 2, 3.077855587005615
0, 4, 3, 2.074473857879639
0, 4, 4, 6.82548189163208
0, 4, 5, 9.338306427001953
0, 4, 6, 6.69932746887207
0, 4, 7, 4.695027828216553
0, 4, 8, 3.797150611877441
0, 4, 9, 6.914932250976562
0, 4, 10, 5.716263771057129
0, 4, 11, 7.86422061920166
0, 4, 12, 6.374485015869141
0, 4, 13, 6.922036170959473
0, 4, 14, 11.22755527496338
0, 4, 15, 11.04167461395264
0, 4, 16, 13.95311737060547
0, 4, 17, 18.13240432739258
0, 4, 18, 94.92452239990234
0, 4, 19, 223.8005523681641
0, 4, 20, 283.8751220703125
0, 4, 21, 274.1209716796875
0, 4, 22, 304.6475524902344
0, 4, 23, 265.9349365234375
0, 4, 24, 289.0754089355469
0, 4, 25, 272.5062561035156
0, 4, 26, 295.9852905273438
0, 4, 27, 283.8711853027344
0, 4, 28, 307.5785827636719
0, 4, 29, 323.2276916503906
0, 4, 30, 308.8446350097656
0, 4, 31, 303.2066955566406
0, 4, 32, 280.7681274414062
0, 4, 33, 296.3579406738281
0, 4, 34, 295.9870910644531
0, 4, 35, 312.0611877441406
0, 4, 36, 293.3312072753906
0, 4, 37, 288.7892456054688
0, 4, 38, 297.3904724121094
0, 4, 39, 293.5968933105469
0, 4, 40, 301.7564086914062
0, 4, 41, 310.1813354492188
0, 4, 42, 334.4187927246094
0, 4, 43, 299.6847534179688
0, 4, 44, 319.6785888671875
0, 4, 45, 325.9570617675781
0, 4, 46, 306.4844970703125
0, 4, 47, 292.3621826171875
0, 4, 48, 296.5274047851562
0, 4, 49, 277.3023376464844
0, 4, 50, 297.3920593261719
0, 4, 51, 316.5524597167969
0, 4, 52, 326.3973693847656
0, 4, 53, 303.2268371582031
0, 4, 54, 286.7086791992188
0, 4, 55, 314.9290161132812
0, 4, 56, 288.397705078125
0, 4, 57, 308.3478088378906
0, 4, 58, 295.797119140625
0, 4, 59, 306.4707946777344
0, 4, 60, 301.0740661621094
0, 4, 61, 316.8760375976562
0, 4, 62, 305.7119445800781
0, 4, 63, 297.5033264160156
0, 4, 64, 331.9764099121094
0, 4, 65, 316.2178649902344
0, 4, 66, 295.2720642089844
0, 4, 67, 285.0697021484375
0, 4, 68, 312.9039306640625
0, 4, 69, 276.2558898925781
0, 4, 70, 301.5217590332031
0, 4, 71, 321.3382263183594
0, 4, 72, 333.7423095703125
0, 4, 73, 302.04931640625
0, 4, 74, 293.0968322753906
0, 4, 75, 290.6662902832031
0, 4, 76, 275.094482421875
0, 4, 77, 277.6903686523438
0, 4, 78, 308.9070739746094
0, 4, 79, 319.03271484375
0, 4, 80, 317.7806396484375
0, 4, 81, 311.79541015625
0, 4, 82, 297.6488647460938
0, 4, 83, 301.259521484375
0, 4, 84, 294.0568237304688
0, 4, 85, 293.974609375
0, 4, 86, 298.5114440917969
0, 4, 87, 284.244384765625
0, 4, 88, 306.4944152832031
0, 4, 89, 295.9490356445312
0, 4, 90, 333.4215087890625
0, 4, 91, 302.3736877441406
0, 4, 92, 289.3033447265625
0, 4, 93, 296.9136352539062
0, 4, 94, 294.3345947265625
0, 4, 95, 288.9097595214844
0, 4, 96, 325.4190979003906
0, 4, 97, 273.216064453125
0, 4, 98, 326.9325866699219
0, 4, 99, 314.5227966308594
0, 4, 100, 300.77392578125
0, 4, 101, 256.5351867675781
0, 4, 102, 295.7448120117188
0, 4, 103, 317.180908203125
0, 4, 104, 284.3083190917969
0, 4, 105, 311.6410827636719
0, 4, 106, 286.5936889648438
0, 4, 107, 298.177978515625
0, 4, 108, 226.4011688232422
0, 4, 109, 79.42432403564453
0, 4, 110, 16.56369972229004
0, 4, 111, 13.08646869659424
0, 4, 112, 9.867027282714844
0, 4, 113, 11.0473747253418
0, 4, 114, 7.141997337341309
0, 4, 115, 11.40518379211426
0, 4, 116, 7.763964653015137
0, 4, 117, 8.399040222167969
0, 4, 118, 9.951519012451172
0, 4, 119, 10.14672565460205
0, 4, 120, 6.39454460144043
0, 4, 121, 4.263242244720459
0, 4, 122, 4.637843608856201
0, 4, 123, 5.555751800537109
0, 4, 124, 3.256098747253418
0, 4, 125, 11.20731830596924
0, 4, 126, 6.015030384063721
0, 4, 127, 4.759701251983643
0, 5, 0, 4.801287174224854
0, 5, 1, 5.61773157119751
0, 5, 2, 3.287217617034912
0, 5, 3, 3.795328140258789
0, 5, 4, 5.423795223236084
0, 5, 5, 6.389218807220459
0, 5, 6, 5.561882495880127
0, 5, 7, 4.581330299377441
0, 5, 8, 4.973896503448486
0, 5, 9, 5.644918918609619
0, 5, 10, 6.607338428497314
0, 5, 11, 7.550841808319092
0, 5, 12, 9.61754322052002
0, 5, 13, 10.10767459869385
0, 5, 14, 11.45435523986816
0, 5, 15, 18.3458309173584
0, 5, 16, 14.18499755859375
0, 5, 17, 27.46345520019531
0, 5, 18, 136.2750854492188
0, 5, 19, 288.5489196777344
0, 5, 20, 307.3176879882812
0, 5, 21, 317.5928344726562
0, 5, 22, 274.7543640136719
0, 5, 23, 312.8558044433594
0, 5, 24, 304.229248046875
0, 5, 25, 290.1240234375
0, 5, 26, 296.0319213867188
0, 5, 27, 321.7740478515625
0, 5, 28, 301.8641052246094
0, 5, 29, 298.8237609863281
0, 5, 30, 324.4134826660156
0, 5, 31, 286.7246398925781
0, 5, 32, 302.6363525390625
0, 5, 33, 305.6683959960938
0, 5, 34, 298.5799560546875
0, 5, 35, 311.3805236816406
0, 5, 36, 268.4249572753906
0, 5, 37, 283.3740539550781
0, 5, 38, 292.1430969238281
0, 5, 39, 310.3061218261719
0, 5, 40, 308.8818054199219
0, 5, 41, 275.2264709472656
0, 5, 42, 307.4978332519531
0, 5, 43, 313.9442749023438
0, 5, 44, 290.8052062988281
0, 5, 45, 302.6981811523438
0, 5, 46, 266.0811462402344
0, 5, 47, 280.5234375
0, 5, 48, 295.981689453125
0, 5, 49, 285.8724365234375
0, 5, 50, 294.9895629882812
0, 5, 51, 278.63330078125
0, 5, 52, 269.2763977050781
0, 5, 53, 286.4405822753906
0, 5, 54, 290.1726684570312
0, 5, 55, 345.8425598144531
0, 5, 56, 306.4201965332031
0, 5, 57, 308.4557495117188
0, 5, 58, 313.9844970703125
0, 5, 59, 305.8655700683594
0, 5, 60, 307.4391174316406
0, 5, 61, 284.0256958007812
0, 5, 62, 327.2873840332031
0, 5, 63, 292.3046875
0, 5, 64, 321.7007751464844
0, 5, 65, 307.4110717773438
0, 5, 66, 326.8226623535156
0, 5, 67, 311.51513671875
0, 5, 68, 307.4640808105469
0, 5, 69, 310.6986389160156
0, 5, 70, 301.5444030761719
0, 5, 71, 273.0517883300781
0, 5, 72, 310.9541320800781
0, 5, 73, 302.046875
0, 5, 74, 295.1967468261719
0, 5, 75, 293.6729125976562
0, 5, 76, 284.7483215332031
0, 5, 77, 299.2928466796875
0, 5, 78, 313.6368408203125
0, 5, 79, 306.2437133789062
0, 5, 80, 295.1708679199219
0, 5, 81, 326.5658874511719
0, 5, 82, 322.8679504394531
0, 5, 83, 282.7498779296875
0, 5, 84, 305.4317626953125
0, 5, 85, 273.0400695800781
0, 5, 86, 323.9564514160156
0, 5, 87, 284.7855834960938
0, 5, 88, 313.4234619140625
0, 5, 89, 306.2131042480469
0, 5, 90, 316.5032043457031
0, 5, 91, 313.579345703125
0, 5, 92, 296.5294799804688
0, 5, 93, 324.9005432128906
0, 5, 94, 311.6300659179688
0, 5, 95, 295.7286071777344
0, 5, 96, 298.8477478027344
0, 5, 97, 296.772216796875
0, 5, 98, 318.65087890625
0, 5, 99, 301.9922180175781
0, 5, 100, 290.22802734375
0, 5, 101, 307.8291625976562
0, 5, 102, 293.8718566894531
0, 5, 103, 313.1585083007812
0, 5, 104, 306.2248840332031
0, 5, 105, 290.7937927246094
0, 5, 106, 280.6844787597656
0, 5, 107, 292.9268188476562
0, 5, 108, 263.7771606445312
0, 5, 109, 157.0874938964844
0, 5, 110, 41.71636581420898
0, 5, 111, 22.40670394897461
0, 5, 112, 17.15472602844238
0, 5, 113, 14.9746561050415
0, 5, 114, 11.68614768981934
0, 5, 115, 6.53813362121582
0, 5, 116, 9.428130149841309
0, 5, 117, 6.72169828414917
0, 5, 118, 14.13011360168457
0, 5, 119, 4.814517021179199
0, 5, 120, 6.421121597290039
0, 5, 121, 6.405977725982666
0, 5, 122, 5.375406742095947
0, 5, 123, 7.871536254882812
0, 5, 124, 6.59708309173584
0, 5, 125, 3.560546636581421
0, 5, 126, 5.209196090698242
0, 5, 127, 3.205163955688477
0, 6, 0, 3.825978517532349
0, 6, 1, 1.958366990089417
0, 6, 2, 5.962218284606934
0, 6, 3, 5.924444675445557
0, 6, 4, 4.101963996887207
0, 6, 5, 5.306877136230469
0, 6, 6, 11.5176944732666
0, 6, 7, 7.327471733093262
0, 6, 8, 10.22350788116455
0, 6, 9, 6.942995071411133
0, 6, 10, 10.67911529541016
0, 6, 11, 6.713198184967041
0, 6, 12, 8.562952041625977
0, 6, 13, 12.56206798553467
0, 6, 14, 11.29050064086914
0, 6, 15, 17.30846214294434
0, 6, 16, 28.43065071105957
0, 6, 17, 54.47430038452148
0, 6, 18, 173.9460754394531
0, 6, 19, 274.3658142089844
0, 6, 20, 290.5700988769531
0, 6, 21, 313.1714782714844
0, 6, 22, 321.2264404296875
0, 6, 23, 305.6672058105469
0, 6, 24, 316.6681213378906
0, 6, 25, 315.1226501464844
0, 6, 26, 317.8709716796875
0, 6, 27, 330.3287963867188
0, 6, 28, 294.9947204589844
0, 6, 29, 330.2275085449219
0, 6, 30, 284.2805480957031
0, 6, 31, 285.8677673339844
0, 6, 32, 337.839599609375
0, 6, 33, 299.9482421875
0, 6, 34, 340.9063415527344
0, 6, 35, 320.8794555664062
0, 6, 36, 274.9385375976562
0, 6, 37, 287.267822265625
0, 6, 38, 310.9660339355469
0, 6, 39, 300.9090576171875
0, 6, 40, 285.8193664550781
0, 6, 41, 297.0673217773438
0, 6, 42, 305.4061584472656
0, 6, 43, 288.0528259277344
0, 6, 44, 279.7843933105469
0, 6, 45, 318.291259765625
0, 6, 46, 301.3228759765625
0, 6, 47, 334.2953796386719
0, 6, 48, 294.409423828125
0, 6, 49, 310.5454406738281
0, 6, 50, 326.6969604492188
0, 6, 51, 309.906005859375
0, 6, 52, 323.2805786132812
0, 6, 53, 328.6889953613281
0, 6, 54, 304.6004638671875
0, 6, 55, 303.83251953125
0, 6, 56, 292.9640502929688
0, 6, 57, 312.1180725097656
0, 6, 58, 261.4635620117188
0, 6, 59, 301.8887023925781
0, 6, 60, 315.9390869140625
0, 6, 61, 272.7065734863281
0, 6, 62, 341.0299377441406
0, 6, 63, 324.439697265625
0, 6, 64, 292.5099182128906
0, 6, 65, 283.3275451660156
0, 6, 66, 304.8431091308594
0, 6, 67, 308.8360900878906
0, 6, 68, 293.1886291503906
0, 6, 69, 277.860595703125
0, 6, 70, 273.9189758300781
0, 6, 71, 288.169921875
0, 6, 72, 310.9196472167969
0, 6, 73, 294.0455932617188
0, 6, 74, 334.745849609375
0, 6, 75, 342.8572387695312
0, 6, 76, 299.1910400390625
0, 6, 77, 285.5481262207031
0, 6, 78, 277.027099609375
0, 6, 79, 292.5204162597656
0, 6, 80, 298.9846496582031
0, 6, 81, 313.7386474609375
0, 6, 82, 322.3992309570312
0, 6, 83, 319.0846557617188
0, 6, 84, 296.2291259765625
0, 6, 85, 301.2445678710938
0, 6, 86, 329.4331970214844
0, 6, 87, 293.3831481933594
0, 6, 88, 306.54052734375
0, 6, 89, 308.09130859375
0, 6, 90, 300.0184631347656
0, 6, 91, 311.1844787597656
0, 6, 92, 288.3112182617188
0, 6, 93, 296.3799133300781
0, 6, 94, 273.4954833984375
0, 6, 95, 298.934814453125
0, 6, 96, 345.8907775878906
0, 6, 97, 309.3235168457031
0, 6, 98, 301.5859680175781
0, 6, 99, 272.9831237792969
0, 6, 100, 309.3562927246094
0, 6, 101, 291.9674072265625
0, 6, 102, 306.7188110351562
0, 6, 103, 308.4184875488281
0, 6, 104, 291.3034057617188
0, 6, 105, 302.3821411132812
0, 6, 106, 310.0238952636719
0, 6, 107, 310.6407775878906
0, 6, 108, 266.9772338867188
0, 6, 109, 185.3289642333984
0, 6, 110, 55.52283096313477
0, 6, 111, 21.21938705444336
0, 6, 112, 14.83079433441162
0, 6, 113, 12.40901947021484
0, 6, 114, 13.82352161407471
0, 6, 115, 11.24440670013428
0, 6, 116, 7.63881254196167
0, 6, 117, 6.390110492706299
0, 6, 118, 8.517024040222168
0, 6, 119, 8.459484100341797
0, 6, 120, 6.59144401550293
0, 6, 121, 6.80363655090332
0, 6, 122, 9.560279846191406
0, 6, 123, 5.745226860046387
0, 6, 124, 9.3134765625
0, 6, 125, 5.795670509338379
0, 6, 126, 5.186034679412842
0, 6, 127, 6.029630184173584
0, 7, 0, 5.752456665039062
0, 7, 1, 2.970441579818726
0, 7, 2, 4.997708797454834
0, 7, 3, 2.73569655418396
0, 7, 4, 3.514230489730835
0, 7, 5, 5.280971527099609
0, 7, 6, 5.032691955566406
0, 7, 7, 5.984717845916748
0, 7, 8, 6.824959278106689
0, 7, 9, 5.194643497467041
0, 7, 10, 8.647192001342773
0, 7, 11, 11.50760459899902
0, 7, 12, 8.75523567199707
0, 7, 13, 11.61572360992432
0, 7, 14, 11.84607410430908
0, 7, 15, 18.1928825378418
0, 7, 16, 25.70216178894043
0, 7, 17, 98.29948425292969
0, 7, 18, 217.6228942871094
0, 7, 19, 290.9627075195312
0, 7, 20, 296.9344177246094
0, 7, 21, 275.2541198730469
0, 7, 22, 299.6432800292969
0, 7, 23, 288.0139770507812
0, 7, 24, 314.7591247558594
0, 7, 25, 327.04248046875
0, 7, 26, 279.7108154296875
0, 7, 27, 299.8740234375
0, 7, 28, 325.9815979003906
0, 7, 29, 319.5793151855469
0, 7, 30, 301.8304138183594
0, 7, 31, 279.0648193359375
0, 7, 32, 305.3330688476562
0, 7, 33, 262.7429809570312
0, 7, 34, 298.359619140625
0, 7, 35, 319.4425659179688
0, 7, 36, 331.126708984375
0, 7, 37, 323.5068969726562
0, 7, 38, 295.2112731933594
0, 7, 39, 304.7584838867188
0, 7, 40, 288.7731628417969
0, 7, 41, 271.3529052734375
0, 7, 42, 299.7353820800781
0, 7, 43, 273.3290710449219
0, 7, 44, 304.1658935546875
0, 7, 45, 294.4621276855469
0, 7, 46, 282.9938049316406
0, 7, 47, 330.38671875
0, 7, 48, 285.2776489257812
0, 7, 49, 302.423583984375
0, 7, 50, 320.9918518066406
0, 7, 51, 299.6944580078125
0, 7, 52, 329.0750427246094
0, 7, 53, 310.8039245605469
0, 7, 54, 323.1590881347656
0, 7, 55, 308.1311645507812
0, 7, 56, 278.9321899414062
0, 7, 57, 282.4923095703125
0, 7, 58, 294.9442749023438
0, 7, 59, 293.3497314453125
0, 7, 60, 322.9623413085938
0, 7, 61, 279.8511962890625
0, 7, 62, 298.9347839355469
0, 7, 63, 292.5182189941406
0, 7, 64, 305.5521240234375
0, 7, 65, 328.9570922851562
0, 7, 66, 320.1861572265625
0, 7, 67, 302.0616149902344
0, 7, 68, 282.4997253417969
0, 7, 69, 295.7548522949219
0, 7, 70, 301.6654052734375
0, 7, 71, 311.8137512207031
0, 7, 72, 286.3201904296875
0, 7, 73, 299.5505065917969
0, 7, 74, 345.5379943847656
0, 7, 75, 318.5383605957031
0, 7, 76, 322.39404296875
0, 7, 77, 279.1318664550781
0, 7, 78, 300.5022888183594
0, 7, 79, 297.3439025878906
0, 7, 80, 312.8722839355469
0, 7, 81, 318.8469543457031
0, 7, 82, 328.5509338378906
0, 7, 83, 316.0360412597656
0, 7, 84, 310.1075134277344
0, 7, 85, 271.5845642089844
0, 7, 86, 310.6048278808594
0, 7, 87, 308.6996765136719
0, 7, 88, 307.4566040039062
0, 7, 89, 293.2276000976562
0, 7, 90, 307.3353271484375
0, 7, 91, 317.8292541503906
0, 7, 92, 287.6571044921875
0, 7, 93, 308.3956604003906
0, 7, 94, 272.4938049316406
0, 7, 95, 297.650634765625
0, 7, 96, 331.7536010742188
0, 7, 97, 295.8631896972656
0, 7, 98, 290.1804809570312
0, 7, 99, 310.125244140625
0, 7, 100, 282.5915222167969
0, 7, 101, 274.3016357421875
0, 7, 102, 290.4892883300781
0, 7, 103, 292.988037109375
0, 7, 104, 275.1505432128906
0, 7, 105, 307.2035522460938
0, 7, 106, 316.9580688476562
0, 7, 107, 298.2376403808594
0, 7, 108, 273.0670471191406
0, 7, 109, 236.4488372802734
0, 7, 110, 97.16272735595703
0, 7, 111, 23.73864936828613
0, 7, 112, 12.52848815917969
0, 7, 113, 14.13415813446045
0, 7, 114, 14.29626655578613
0, 7, 115, 13.28637886047363
0, 7, 116, 7.073916435241699
0, 7, 117, 6.852094173431396
0, 7, 118, 8.253749847412109
0, 7, 119, 5.662683010101318
0, 7, 120, 5.02810001373291
0, 7, 121, 8.101974487304688
0, 7, 122, 6.125106334686279
0, 7, 123, 4.416341304779053
0, 7, 124, 3.260778903961182
0, 7, 125, 8.343466758728027
0, 7, 126, 6.228553771972656
0, 7, 127, 0.6361293196678162
0, 8, 0, 5.797583103179932
0, 8, 1, 4.640033721923828
0, 8, 2, 5.815247058868408
0, 8, 3, 5.732990264892578
0, 8, 4, 3.915816783905029
0, 8, 5, 4.270932197570801
0, 8, 6, 4.911358833312988
0, 8, 7, 5.554840564727783
0, 8, 8, 8.262211799621582
0, 8, 9, 5.313955783843994
0, 8, 10, 8.039980888366699
0, 8, 11, 11.72443866729736
0, 8, 12, 12.94476413726807
0, 8, 13, 15.68051433563232
0, 8, 14, 13.16578578948975
0, 8, 15, 17.36387062072754
0, 8, 16, 32.79048919677734
0, 8, 17, 130.7928314208984
0, 8, 18, 245.1005859375
0, 8, 19, 295.894775390625
0, 8, 20, 284.3019409179688
0, 8, 21, 308.0786437988281
0, 8, 22, 295.4622497558594
0, 8, 23, 274.1549377441406
0, 8, 24, 268.4091491699219
0, 8, 25, 276.3788452148438
0, 8, 26, 305.719970703125
0, 8, 27, 306.8615417480469
0, 8, 28, 303.1268615722656
0, 8, 29, 319.5321350097656
0, 8, 30, 318.3077697753906
0, 8, 31, 303.3114318847656
0, 8, 32, 279.7774047851562
0, 8, 33, 292.5986022949219
0, 8, 34, 291.2947082519531
0, 8, 35, 281.2164916992188
0, 8, 36, 316.3165588378906
0, 8, 37, 341.9034118652344
0, 8, 38, 330.891845703125
0, 8, 39, 282.0834350585938
0, 8, 40, 303.3318176269531
