# TOPAS Version: 3.1.p3
# Parameter File: batch_inserts_310.txt
# Results for scorer Readout_Adipose
# Scored in component: MyBox
# X in 1 bin  of 0.75 cm
# Y in 512 bins of 0.0783984 cm
# Z in 128 bins of 0.078125 cm
# EnergyDeposit ( MeV ) : Sum   
0, 0, 0, 3.972299337387085
0, 0, 1, 1.135491132736206
0, 0, 2, 4.504220962524414
0, 0, 3, 2.106470584869385
0, 0, 4, 2.998196601867676
0, 0, 5, 2.917425870895386
0, 0, 6, 6.917142868041992
0, 0, 7, 8.647036552429199
0, 0, 8, 3.664166927337646
0, 0, 9, 4.509222507476807
0, 0, 10, 8.225997924804688
0, 0, 11, 4.249833106994629
0, 0, 12, 5.544008255004883
0, 0, 13, 7.743251800537109
0, 0, 14, 6.995495796203613
0, 0, 15, 9.826436042785645
0, 0, 16, 9.732142448425293
0, 0, 17, 8.329079627990723
0, 0, 18, 12.66625690460205
0, 0, 19, 44.85578918457031
0, 0, 20, 139.7012023925781
0, 0, 21, 223.9190521240234
0, 0, 22, 249.394775390625
0, 0, 23, 256.8286437988281
0, 0, 24, 252.1475219726562
0, 0, 25, 261.0452880859375
0, 0, 26, 236.1322631835938
0, 0, 27, 235.952392578125
0, 0, 28, 274.6658020019531
0, 0, 29, 253.6627044677734
0, 0, 30, 233.1877746582031
0, 0, 31, 244.2165222167969
0, 0, 32, 263.8936462402344
0, 0, 33, 260.3128662109375
0, 0, 34, 287.1314697265625
0, 0, 35, 267.5678405761719
0, 0, 36, 246.3945465087891
0, 0, 37, 253.7102355957031
0, 0, 38, 268.5076293945312
0, 0, 39, 228.8000335693359
0, 0, 40, 241.2748565673828
0, 0, 41, 267.5836791992188
0, 0, 42, 230.027587890625
0, 0, 43, 258.5617370605469
0, 0, 44, 251.3614501953125
0, 0, 45, 253.1344299316406
0, 0, 46, 244.3862609863281
0, 0, 47, 250.7800750732422
0, 0, 48, 268.9637451171875
0, 0, 49, 274.376220703125
0, 0, 50, 251.0768280029297
0, 0, 51, 253.9794769287109
0, 0, 52, 272.9976196289062
0, 0, 53, 291.1479797363281
0, 0, 54, 241.8507232666016
0, 0, 55, 239.7978057861328
0, 0, 56, 277.2756958007812
0, 0, 57, 265.1745300292969
0, 0, 58, 247.1490478515625
0, 0, 59, 270.660400390625
0, 0, 60, 234.1591339111328
0, 0, 61, 244.0805969238281
0, 0, 62, 256.6005554199219
0, 0, 63, 267.6532592773438
0, 0, 64, 256.0295715332031
0, 0, 65, 261.0481567382812
0, 0, 66, 277.2501831054688
0, 0, 67, 246.5527801513672
0, 0, 68, 257.7835388183594
0, 0, 69, 261.7037048339844
0, 0, 70, 274.1483459472656
0, 0, 71, 237.2788543701172
0, 0, 72, 250.0622863769531
0, 0, 73, 259.915283203125
0, 0, 74, 253.4912567138672
0, 0, 75, 238.8807220458984
0, 0, 76, 229.9515686035156
0, 0, 77, 259.4434814453125
0, 0, 78, 257.077392578125
0, 0, 79, 277.1196594238281
0, 0, 80, 216.8458709716797
0, 0, 81, 267.0580139160156
0, 0, 82, 255.6914367675781
0, 0, 83, 244.4615478515625
0, 0, 84, 269.6991271972656
0, 0, 85, 232.3144683837891
0, 0, 86, 252.7275695800781
0, 0, 87, 250.6638946533203
0, 0, 88, 260.744873046875
0, 0, 89, 284.3953552246094
0, 0, 90, 243.5172882080078
0, 0, 91, 280.9832153320312
0, 0, 92, 252.1699676513672
0, 0, 93, 248.4623718261719
0, 0, 94, 247.3861083984375
0, 0, 95, 247.5575561523438
0, 0, 96, 274.8382873535156
0, 0, 97, 271.9885559082031
0, 0, 98, 271.8492736816406
0, 0, 99, 258.2394409179688
0, 0, 100, 260.1519165039062
0, 0, 101, 225.9480285644531
0, 0, 102, 231.1588745117188
0, 0, 103, 268.2956848144531
0, 0, 104, 253.2369079589844
0, 0, 105, 252.8287658691406
0, 0, 106, 247.0979766845703
0, 0, 107, 152.11474609375
0, 0, 108, 37.90044021606445
0, 0, 109, 11.11032104492188
0, 0, 110, 11.69805717468262
0, 0, 111, 8.207554817199707
0, 0, 112, 6.662520885467529
0, 0, 113, 6.373302459716797
0, 0, 114, 6.198353290557861
0, 0, 115, 4.834160804748535
0, 0, 116, 5.675662517547607
0, 0, 117, 5.586617946624756
0, 0, 118, 7.054296493530273
0, 0, 119, 3.692705154418945
0, 0, 120, 4.59605884552002
0, 0, 121, 2.975039720535278
0, 0, 122, 6.842804431915283
0, 0, 123, 3.568902969360352
0, 0, 124, 6.110588073730469
0, 0, 125, 2.68166446685791
0, 0, 126, 3.533655643463135
0, 0, 127, 2.653217077255249
0, 1, 0, 7.1136794090271
0, 1, 1, 3.994931221008301
0, 1, 2, 4.461117267608643
0, 1, 3, 2.772254467010498
0, 1, 4, 2.05595064163208
0, 1, 5, 2.732257127761841
0, 1, 6, 3.190289735794067
0, 1, 7, 5.309363842010498
0, 1, 8, 6.292407989501953
0, 1, 9, 3.318695306777954
0, 1, 10, 7.268588542938232
0, 1, 11, 14.15204524993896
0, 1, 12, 7.633238792419434
0, 1, 13, 8.088676452636719
0, 1, 14, 7.476472854614258
0, 1, 15, 6.850441932678223
0, 1, 16, 11.50895881652832
0, 1, 17, 12.7685661315918
0, 1, 18, 19.87986946105957
0, 1, 19, 65.73260498046875
0, 1, 20, 196.8993225097656
0, 1, 21, 253.6685791015625
0, 1, 22, 295.6552734375
0, 1, 23, 285.5970153808594
0, 1, 24, 276.3263854980469
0, 1, 25, 288.0678100585938
0, 1, 26, 267.6389465332031
0, 1, 27, 305.8466491699219
0, 1, 28, 299.6447448730469
0, 1, 29, 299.3822631835938
0, 1, 30, 283.272216796875
0, 1, 31, 292.6481018066406
0, 1, 32, 290.3661499023438
0, 1, 33, 298.1317443847656
0, 1, 34, 291.9142761230469
0, 1, 35, 278.5339660644531
0, 1, 36, 306.7670288085938
0, 1, 37, 293.6415100097656
0, 1, 38, 277.6565551757812
0, 1, 39, 295.1795043945312
0, 1, 40, 266.4250793457031
0, 1, 41, 286.5465393066406
0, 1, 42, 289.8475952148438
0, 1, 43, 331.6077270507812
0, 1, 44, 278.0848083496094
0, 1, 45, 291.2228393554688
0, 1, 46, 260.3980712890625
0, 1, 47, 311.6173400878906
0, 1, 48, 285.1864929199219
0, 1, 49, 300.7596740722656
0, 1, 50, 262.2475280761719
0, 1, 51, 271.3367309570312
0, 1, 52, 300.2515869140625
0, 1, 53, 305.4547424316406
0, 1, 54, 276.2175903320312
0, 1, 55, 292.4706726074219
0, 1, 56, 276.5188903808594
0, 1, 57, 297.8289794921875
0, 1, 58, 309.67529296875
0, 1, 59, 293.6370849609375
0, 1, 60, 297.9930114746094
0, 1, 61, 273.8254699707031
0, 1, 62, 306.8359680175781
0, 1, 63, 287.1478271484375
0, 1, 64, 288.0375671386719
0, 1, 65, 295.0229187011719
0, 1, 66, 292.7522888183594
0, 1, 67, 290.4039916992188
0, 1, 68, 277.0986328125
0, 1, 69, 280.2262878417969
0, 1, 70, 271.6285705566406
0, 1, 71, 272.5235290527344
0, 1, 72, 286.0791320800781
0, 1, 73, 305.9461669921875
0, 1, 74, 303.3147277832031
0, 1, 75, 294.8585205078125
0, 1, 76, 285.6278076171875
0, 1, 77, 290.1178283691406
0, 1, 78, 295.1916198730469
0, 1, 79, 303.0697937011719
0, 1, 80, 296.1530151367188
0, 1, 81, 301.3447265625
0, 1, 82, 282.7912292480469
0, 1, 83, 333.0969848632812
0, 1, 84, 307.30517578125
0, 1, 85, 253.7833557128906
0, 1, 86, 294.7301635742188
0, 1, 87, 289.8705139160156
0, 1, 88, 297.4613952636719
0, 1, 89, 288.5102844238281
0, 1, 90, 269.3150024414062
0, 1, 91, 318.5906982421875
0, 1, 92, 292.6856384277344
0, 1, 93, 288.4805908203125
0, 1, 94, 302.900146484375
0, 1, 95, 283.62548828125
0, 1, 96, 282.7903137207031
0, 1, 97, 301.2779235839844
0, 1, 98, 276.9681701660156
0, 1, 99, 265.9057312011719
0, 1, 100, 278.0725402832031
0, 1, 101, 282.5942077636719
0, 1, 102, 277.6263427734375
0, 1, 103, 281.8096618652344
0, 1, 104, 305.8677368164062
0, 1, 105, 296.5610656738281
0, 1, 106, 260.2612915039062
0, 1, 107, 192.1124114990234
0, 1, 108, 81.17470550537109
0, 1, 109, 23.01476287841797
0, 1, 110, 11.38913536071777
0, 1, 111, 10.64254951477051
0, 1, 112, 13.4807300567627
0, 1, 113, 5.333543300628662
0, 1, 114, 6.447560787200928
0, 1, 115, 6.493969440460205
0, 1, 116, 10.83844184875488
0, 1, 117, 6.41716194152832
0, 1, 118, 5.017004489898682
0, 1, 119, 5.92170524597168
0, 1, 120, 4.789910793304443
0, 1, 121, 3.146233558654785
0, 1, 122, 4.38054370880127
0, 1, 123, 3.134233236312866
0, 1, 124, 9.101644515991211
0, 1, 125, 2.922343015670776
0, 1, 126, 3.7437744140625
0, 1, 127, 2.574449062347412
0, 2, 0, 4.561370372772217
0, 2, 1, 2.747625350952148
0, 2, 2, 3.673655986785889
0, 2, 3, 3.231552600860596
0, 2, 4, 3.344330072402954
0, 2, 5, 3.72175121307373
0, 2, 6, 2.728928565979004
0, 2, 7, 3.057314872741699
0, 2, 8, 4.106379985809326
0, 2, 9, 5.770988941192627
0, 2, 10, 7.162329196929932
0, 2, 11, 5.688608169555664
0, 2, 12, 7.506447792053223
0, 2, 13, 12.42685222625732
0, 2, 14, 9.88634204864502
0, 2, 15, 7.041806221008301
0, 2, 16, 10.15185451507568
0, 2, 17, 16.17782974243164
0, 2, 18, 29.29111099243164
0, 2, 19, 118.0896301269531
0, 2, 20, 246.6375274658203
0, 2, 21, 271.5349426269531
0, 2, 22, 315.1303405761719
0, 2, 23, 300.7143859863281
0, 2, 24, 288.7122802734375
0, 2, 25, 305.5599975585938
0, 2, 26, 292.8582153320312
0, 2, 27, 275.5268859863281
0, 2, 28, 273.4933471679688
0, 2, 29, 274.7206420898438
0, 2, 30, 290.0693664550781
0, 2, 31, 278.486328125
0, 2, 32, 293.8932495117188
0, 2, 33, 282.7410888671875
0, 2, 34, 332.5924987792969
0, 2, 35, 291.5936279296875
0, 2, 36, 304.7925720214844
0, 2, 37, 314.9413146972656
0, 2, 38, 310.6296997070312
0, 2, 39, 268.18359375
0, 2, 40, 308.5902404785156
0, 2, 41, 291.386962890625
0, 2, 42, 304.5672912597656
0, 2, 43, 313.5073852539062
0, 2, 44, 309.9113159179688
0, 2, 45, 325.2866821289062
0, 2, 46, 288.809326171875
0, 2, 47, 304.9558715820312
0, 2, 48, 282.8568725585938
0, 2, 49, 279.7717590332031
0, 2, 50, 294.5865478515625
0, 2, 51, 285.0661010742188
0, 2, 52, 277.5594787597656
0, 2, 53, 285.753173828125
0, 2, 54, 278.4693298339844
0, 2, 55, 272.8387451171875
0, 2, 56, 301.0326538085938
0, 2, 57, 291.0982971191406
0, 2, 58, 303.3565673828125
0, 2, 59, 289.9277038574219
0, 2, 60, 318.0762939453125
0, 2, 61, 301.0805969238281
0, 2, 62, 315.0278015136719
0, 2, 63, 300.3467102050781
0, 2, 64, 296.4329833984375
0, 2, 65, 313.7816772460938
0, 2, 66, 279.2247009277344
0, 2, 67, 290.0284118652344
0, 2, 68, 295.4164733886719
0, 2, 69, 310.5398864746094
0, 2, 70, 334.6153259277344
0, 2, 71, 284.3614807128906
0, 2, 72, 305.5697937011719
0, 2, 73, 312.1700439453125
0, 2, 74, 284.7855834960938
0, 2, 75, 303.9253845214844
0, 2, 76, 285.7438354492188
0, 2, 77, 300.8169860839844
0, 2, 78, 315.5046691894531
0, 2, 79, 307.9969177246094
0, 2, 80, 296.0251770019531
0, 2, 81, 282.6985473632812
0, 2, 82, 319.1797485351562
0, 2, 83, 312.1524963378906
0, 2, 84, 287.0826416015625
0, 2, 85, 281.8814697265625
0, 2, 86, 325.4027099609375
0, 2, 87, 288.0606384277344
0, 2, 88, 279.59912109375
0, 2, 89, 295.7747802734375
0, 2, 90, 294.6399841308594
0, 2, 91, 276.3029479980469
0, 2, 92, 305.2085571289062
0, 2, 93, 315.9458618164062
0, 2, 94, 292.0746154785156
0, 2, 95, 313.7118530273438
0, 2, 96, 314.3419494628906
0, 2, 97, 291.0971984863281
0, 2, 98, 293.5093688964844
0, 2, 99, 273.2174987792969
0, 2, 100, 304.9904479980469
0, 2, 101, 301.1165161132812
0, 2, 102, 295.7402954101562
0, 2, 103, 291.9979553222656
0, 2, 104, 293.285888671875
0, 2, 105, 274.0618286132812
0, 2, 106, 296.19140625
0, 2, 107, 271.4996032714844
0, 2, 108, 117.5022964477539
0, 2, 109, 32.21273422241211
0, 2, 110, 9.71015739440918
0, 2, 111, 10.39248180389404
0, 2, 112, 7.955615043640137
0, 2, 113, 9.850048065185547
0, 2, 114, 10.16225242614746
0, 2, 115, 10.84635257720947
0, 2, 116, 7.909043788909912
0, 2, 117, 6.694821834564209
0, 2, 118, 4.936381340026855
0, 2, 119, 7.03582239151001
0, 2, 120, 5.757799625396729
0, 2, 121, 3.206868171691895
0, 2, 122, 3.004585266113281
0, 2, 123, 3.411054611206055
0, 2, 124, 2.784978151321411
0, 2, 125, 6.124361515045166
0, 2, 126, 3.27618145942688
0, 2, 127, 4.816115856170654
0, 3, 0, 4.295707702636719
0, 3, 1, 3.957213640213013
0, 3, 2, 3.182063341140747
0, 3, 3, 3.398236513137817
0, 3, 4, 2.283638715744019
0, 3, 5, 5.79761266708374
0, 3, 6, 8.083921432495117
0, 3, 7, 5.180671691894531
0, 3, 8, 7.105834484100342
0, 3, 9, 5.099713802337646
0, 3, 10, 5.705004215240479
0, 3, 11, 3.973746776580811
0, 3, 12, 6.273330688476562
0, 3, 13, 15.10455989837646
0, 3, 14, 10.8804292678833
0, 3, 15, 14.00405597686768
0, 3, 16, 12.20275688171387
0, 3, 17, 20.47715759277344
0, 3, 18, 53.04426956176758
0, 3, 19, 176.9477691650391
0, 3, 20, 269.54345703125
0, 3, 21, 270.9491271972656
0, 3, 22, 280.8606872558594
0, 3, 23, 285.68505859375
0, 3, 24, 284.766357421875
0, 3, 25, 271.9463806152344
0, 3, 26, 305.1589050292969
0, 3, 27, 291.4913330078125
0, 3, 28, 280.5245361328125
0, 3, 29, 337.2875061035156
0, 3, 30, 318.2817077636719
0, 3, 31, 289.2734680175781
0, 3, 32, 307.8662109375
0, 3, 33, 313.7913513183594
0, 3, 34, 321.8025207519531
0, 3, 35, 305.0293579101562
0, 3, 36, 269.7338256835938
0, 3, 37, 318.5493774414062
0, 3, 38, 302.8163146972656
0, 3, 39, 289.4089050292969
0, 3, 40, 266.6394958496094
0, 3, 41, 301.1283264160156
0, 3, 42, 285.7452087402344
0, 3, 43, 304.7565002441406
0, 3, 44, 311.3074645996094
0, 3, 45, 291.27587890625
0, 3, 46, 330.2199096679688
0, 3, 47, 299.1147155761719
0, 3, 48, 302.8139953613281
0, 3, 49, 277.7885437011719
0, 3, 50, 289.6023559570312
0, 3, 51, 274.982177734375
0, 3, 52, 316.5225219726562
0, 3, 53, 289.2086486816406
0, 3, 54, 285.0317077636719
0, 3, 55, 283.3602294921875
0, 3, 56, 298.8834228515625
0, 3, 57, 287.9576110839844
0, 3, 58, 308.3389282226562
0, 3, 59, 297.1416015625
0, 3, 60, 299.4657287597656
0, 3, 61, 264.3789978027344
0, 3, 62, 283.9615783691406
0, 3, 63, 308.0817565917969
0, 3, 64, 317.2621154785156
0, 3, 65, 308.4171142578125
0, 3, 66, 315.4649963378906
0, 3, 67, 320.6868896484375
0, 3, 68, 280.0622863769531
0, 3, 69, 284.965087890625
0, 3, 70, 288.8065795898438
0, 3, 71, 299.0277099609375
0, 3, 72, 269.6427001953125
0, 3, 73, 308.1083374023438
0, 3, 74, 294.5122375488281
0, 3, 75, 289.7909851074219
0, 3, 76, 304.988037109375
0, 3, 77, 315.5086975097656
0, 3, 78, 302.8181457519531
0, 3, 79, 281.1607971191406
0, 3, 80, 289.1119995117188
0, 3, 81, 310.7237548828125
0, 3, 82, 314.709228515625
0, 3, 83, 301.9658508300781
0, 3, 84, 311.2703552246094
0, 3, 85, 292.6615295410156
0, 3, 86, 301.5248718261719
0, 3, 87, 298.1259155273438
0, 3, 88, 298.2899780273438
0, 3, 89, 295.3792419433594
0, 3, 90, 277.5619812011719
0, 3, 91, 284.9353637695312
0, 3, 92, 303.3442687988281
0, 3, 93, 313.1463012695312
0, 3, 94, 299.4786987304688
0, 3, 95, 334.3059997558594
0, 3, 96, 288.9933776855469
0, 3, 97, 282.4451293945312
0, 3, 98, 278.0457458496094
0, 3, 99, 262.9376525878906
0, 3, 100, 286.2429809570312
0, 3, 101, 296.8519592285156
0, 3, 102, 276.7467041015625
0, 3, 103, 318.667724609375
0, 3, 104, 310.2807006835938
0, 3, 105, 288.0494384765625
0, 3, 106, 305.7410278320312
0, 3, 107, 282.6351928710938
0, 3, 108, 171.6716003417969
0, 3, 109, 58.17012786865234
0, 3, 110, 18.43165588378906
0, 3, 111, 13.06908988952637
0, 3, 112, 14.78973579406738
0, 3, 113, 6.440382480621338
0, 3, 114, 9.407364845275879
0, 3, 115, 8.335971832275391
0, 3, 116, 6.753434181213379
0, 3, 117, 6.440736293792725
0, 3, 118, 5.592976570129395
0, 3, 119, 5.494700908660889
0, 3, 120, 4.715768337249756
0, 3, 121, 1.668633341789246
0, 3, 122, 3.146608829498291
0, 3, 123, 5.926096439361572
0, 3, 124, 3.994195461273193
0, 3, 125, 6.193253040313721
0, 3, 126, 5.822709083557129
0, 3, 127, 2.452218055725098
0, 4, 0, 2.722127199172974
0, 4, 1, 4.259934425354004
0, 4, 2, 3.246941089630127
0, 4, 3, 1.382656693458557
0, 4, 4, 7.696501731872559
0, 4, 5, 9.30117130279541
0, 4, 6, 9.628585815429688
0, 4, 7, 6.331693172454834
0, 4, 8, 3.894062519073486
0, 4, 9, 4.456382751464844
0, 4, 10, 7.502492904663086
0, 4, 11, 7.518270492553711
0, 4, 12, 6.632652759552002
0, 4, 13, 9.011432647705078
0, 4, 14, 9.58767032623291
0, 4, 15, 10.47335910797119
0, 4, 16, 13.45492362976074
0, 4, 17, 19.25055313110352
0, 4, 18, 96.11530303955078
0, 4, 19, 221.8162841796875
0, 4, 20, 283.9489440917969
0, 4, 21, 273.6620178222656
0, 4, 22, 305.0685729980469
0, 4, 23, 265.9285278320312
0, 4, 24, 289.2524108886719
0, 4, 25, 274.6811218261719
0, 4, 26, 297.6137390136719
0, 4, 27, 284.1823120117188
0, 4, 28, 308.0691528320312
0, 4, 29, 322.1441345214844
0, 4, 30, 308.7411499023438
0, 4, 31, 303.1400146484375
0, 4, 32, 280.348388671875
0, 4, 33, 295.6726684570312
0, 4, 34, 298.195556640625
0, 4, 35, 313.3211975097656
0, 4, 36, 291.9036865234375
0, 4, 37, 289.083984375
0, 4, 38, 298.0445556640625
0, 4, 39, 297.37890625
0, 4, 40, 301.610595703125
0, 4, 41, 316.4335327148438
0, 4, 42, 329.0173950195312
0, 4, 43, 297.33203125
0, 4, 44, 321.3141174316406
0, 4, 45, 324.8751220703125
0, 4, 46, 306.4902648925781
0, 4, 47, 292.5048217773438
0, 4, 48, 294.6879577636719
0, 4, 49, 277.4898681640625
0, 4, 50, 295.91748046875
0, 4, 51, 316.9458923339844
0, 4, 52, 325.7421264648438
0, 4, 53, 306.1945190429688
0, 4, 54, 286.4419250488281
0, 4, 55, 314.8844909667969
0, 4, 56, 285.1434020996094
0, 4, 57, 311.6040649414062
0, 4, 58, 295.2377014160156
0, 4, 59, 308.1319580078125
0, 4, 60, 301.4010925292969
0, 4, 61, 314.9551696777344
0, 4, 62, 307.997802734375
0, 4, 63, 303.5773010253906
0, 4, 64, 330.4513244628906
0, 4, 65, 316.4434509277344
0, 4, 66, 292.8172912597656
0, 4, 67, 284.1202087402344
0, 4, 68, 315.2109680175781
0, 4, 69, 276.0895080566406
0, 4, 70, 300.4805297851562
0, 4, 71, 320.7812194824219
0, 4, 72, 332.6345825195312
0, 4, 73, 298.3766479492188
0, 4, 74, 292.416015625
0, 4, 75, 292.1616516113281
0, 4, 76, 275.0928344726562
0, 4, 77, 277.6343688964844
0, 4, 78, 311.9441223144531
0, 4, 79, 318.0783996582031
0, 4, 80, 318.6127624511719
0, 4, 81, 313.9907836914062
0, 4, 82, 297.5603332519531
0, 4, 83, 301.5418701171875
0, 4, 84, 290.5177001953125
0, 4, 85, 295.7183837890625
0, 4, 86, 300.5274353027344
0, 4, 87, 285.0337829589844
0, 4, 88, 307.7571105957031
0, 4, 89, 293.6570739746094
0, 4, 90, 332.8109436035156
0, 4, 91, 301.4728088378906
0, 4, 92, 288.1514892578125
0, 4, 93, 298.3930053710938
0, 4, 94, 295.7063903808594
0, 4, 95, 288.3391723632812
0, 4, 96, 328.2518615722656
0, 4, 97, 273.5239562988281
0, 4, 98, 327.186767578125
0, 4, 99, 316.4378356933594
0, 4, 100, 299.5337524414062
0, 4, 101, 257.0431213378906
0, 4, 102, 296.8612365722656
0, 4, 103, 317.0336303710938
0, 4, 104, 280.6933898925781
0, 4, 105, 309.7209167480469
0, 4, 106, 287.3796691894531
0, 4, 107, 296.0923156738281
0, 4, 108, 227.519775390625
0, 4, 109, 79.00428009033203
0, 4, 110, 17.93159866333008
0, 4, 111, 13.34700107574463
0, 4, 112, 10.13738250732422
0, 4, 113, 10.80248832702637
0, 4, 114, 10.63559341430664
0, 4, 115, 9.244235992431641
0, 4, 116, 9.918636322021484
0, 4, 117, 6.05447244644165
0, 4, 118, 13.47712421417236
0, 4, 119, 11.34597396850586
0, 4, 120, 4.441968441009521
0, 4, 121, 5.724717140197754
0, 4, 122, 5.717007160186768
0, 4, 123, 7.09406852722168
0, 4, 124, 5.215991497039795
0, 4, 125, 9.017457962036133
0, 4, 126, 3.607447385787964
0, 4, 127, 5.09583044052124
0, 5, 0, 3.189406633377075
0, 5, 1, 4.249352931976318
0, 5, 2, 2.952887296676636
0, 5, 3, 6.203068733215332
0, 5, 4, 5.41544771194458
0, 5, 5, 6.309060573577881
0, 5, 6, 6.83755350112915
0, 5, 7, 7.186343669891357
0, 5, 8, 5.747580051422119
0, 5, 9, 5.781651973724365
0, 5, 10, 8.167572975158691
0, 5, 11, 6.788003921508789
0, 5, 12, 10.52566146850586
0, 5, 13, 6.380438804626465
0, 5, 14, 14.3471622467041
0, 5, 15, 16.5378246307373
0, 5, 16, 15.00538635253906
0, 5, 17, 29.16799545288086
0, 5, 18, 138.0007934570312
0, 5, 19, 287.9900207519531
0, 5, 20, 306.1846618652344
0, 5, 21, 316.8602600097656
0, 5, 22, 273.3306579589844
0, 5, 23, 310.3782653808594
0, 5, 24, 302.2109985351562
0, 5, 25, 289.2104187011719
0, 5, 26, 293.9104309082031
0, 5, 27, 322.4056701660156
0, 5, 28, 303.4922790527344
0, 5, 29, 296.873046875
0, 5, 30, 323.3170166015625
0, 5, 31, 286.9939575195312
0, 5, 32, 301.97412109375
0, 5, 33, 304.106689453125
0, 5, 34, 299.0875244140625
0, 5, 35, 308.3501892089844
0, 5, 36, 271.1021423339844
0, 5, 37, 285.0277709960938
0, 5, 38, 293.0700988769531
0, 5, 39, 316.4588623046875
0, 5, 40, 311.1963806152344
0, 5, 41, 273.6956481933594
0, 5, 42, 308.1632690429688
0, 5, 43, 312.9762268066406
0, 5, 44, 290.3873901367188
0, 5, 45, 302.6106262207031
0, 5, 46, 264.0577087402344
0, 5, 47, 281.2927856445312
0, 5, 48, 293.9763793945312
0, 5, 49, 286.3474731445312
0, 5, 50, 294.3515319824219
0, 5, 51, 280.8743286132812
0, 5, 52, 270.6036987304688
0, 5, 53, 283.008056640625
0, 5, 54, 293.1910705566406
0, 5, 55, 345.28759765625
0, 5, 56, 307.0582580566406
0, 5, 57, 306.8628845214844
0, 5, 58, 310.8729248046875
0, 5, 59, 302.4057006835938
0, 5, 60, 306.6102905273438
0, 5, 61, 282.738525390625
0, 5, 62, 325.1570434570312
0, 5, 63, 289.0946044921875
0, 5, 64, 322.7060241699219
0, 5, 65, 308.2402648925781
0, 5, 66, 327.9031677246094
0, 5, 67, 312.0763549804688
0, 5, 68, 306.8142395019531
0, 5, 69, 310.3515014648438
0, 5, 70, 301.889404296875
0, 5, 71, 273.1264953613281
0, 5, 72, 311.6373291015625
0, 5, 73, 302.3893737792969
0, 5, 74, 297.9138488769531
0, 5, 75, 294.2551574707031
0, 5, 76, 285.8157043457031
0, 5, 77, 297.6506652832031
0, 5, 78, 316.2579956054688
0, 5, 79, 307.7993774414062
0, 5, 80, 294.8267517089844
0, 5, 81, 326.1922607421875
0, 5, 82, 323.8855285644531
0, 5, 83, 281.2972717285156
0, 5, 84, 302.7005920410156
0, 5, 85, 271.1908569335938
0, 5, 86, 327.2022705078125
0, 5, 87, 286.5968322753906
0, 5, 88, 315.4085388183594
0, 5, 89, 305.2205810546875
0, 5, 90, 314.8153076171875
0, 5, 91, 314.766845703125
0, 5, 92, 295.8671875
0, 5, 93, 325.0130920410156
0, 5, 94, 310.2205810546875
0, 5, 95, 296.7448120117188
0, 5, 96, 297.0320739746094
0, 5, 97, 295.63427734375
0, 5, 98, 319.6174621582031
0, 5, 99, 301.8604736328125
0, 5, 100, 289.8516845703125
0, 5, 101, 305.8650207519531
0, 5, 102, 291.1459350585938
0, 5, 103, 314.1629333496094
0, 5, 104, 304.6319580078125
0, 5, 105, 290.6442260742188
0, 5, 106, 280.74169921875
0, 5, 107, 293.198486328125
0, 5, 108, 265.438232421875
0, 5, 109, 157.6890869140625
0, 5, 110, 41.72650146484375
0, 5, 111, 18.94496726989746
0, 5, 112, 17.27568054199219
0, 5, 113, 12.22784900665283
0, 5, 114, 11.11346912384033
0, 5, 115, 9.875237464904785
0, 5, 116, 8.333159446716309
0, 5, 117, 6.07152795791626
0, 5, 118, 12.07970142364502
0, 5, 119, 3.781952619552612
0, 5, 120, 6.091785430908203
0, 5, 121, 6.098054885864258
0, 5, 122, 5.434717655181885
0, 5, 123, 5.008176326751709
0, 5, 124, 5.586024761199951
0, 5, 125, 5.068085193634033
0, 5, 126, 8.950682640075684
0, 5, 127, 5.273717403411865
0, 6, 0, 4.232438087463379
0, 6, 1, 2.615387201309204
0, 6, 2, 5.587847232818604
0, 6, 3, 8.503320693969727
0, 6, 4, 3.611430883407593
0, 6, 5, 8.276820182800293
0, 6, 6, 10.53590106964111
0, 6, 7, 7.942555904388428
0, 6, 8, 6.384450912475586
0, 6, 9, 6.685586929321289
0, 6, 10, 8.59157657623291
0, 6, 11, 9.391098976135254
0, 6, 12, 7.999007225036621
0, 6, 13, 16.06035614013672
0, 6, 14, 8.51787281036377
0, 6, 15, 18.24202728271484
0, 6, 16, 29.08684158325195
0, 6, 17, 55.03745651245117
0, 6, 18, 174.7605590820312
0, 6, 19, 277.3833618164062
0, 6, 20, 292.8724365234375
0, 6, 21, 314.0299682617188
0, 6, 22, 321.0235595703125
0, 6, 23, 304.8024291992188
0, 6, 24, 315.66650390625
0, 6, 25, 315.9046936035156
0, 6, 26, 318.6824951171875
0, 6, 27, 331.1497192382812
0, 6, 28, 295.3873291015625
0, 6, 29, 329.8075561523438
0, 6, 30, 283.2658081054688
0, 6, 31, 285.9781188964844
0, 6, 32, 340.1173706054688
0, 6, 33, 305.1033630371094
0, 6, 34, 341.5111083984375
0, 6, 35, 322.6632690429688
0, 6, 36, 274.7608032226562
0, 6, 37, 287.8231811523438
0, 6, 38, 310.1334838867188
0, 6, 39, 297.58056640625
0, 6, 40, 288.4512939453125
0, 6, 41, 293.7955932617188
0, 6, 42, 302.6932678222656
0, 6, 43, 287.7366027832031
0, 6, 44, 280.4385070800781
0, 6, 45, 321.4843444824219
0, 6, 46, 300.5176391601562
0, 6, 47, 332.3849792480469
0, 6, 48, 292.7799987792969
0, 6, 49, 309.7064514160156
0, 6, 50, 328.0738830566406
0, 6, 51, 312.3760986328125
0, 6, 52, 322.9452819824219
0, 6, 53, 326.9847106933594
0, 6, 54, 305.004150390625
0, 6, 55, 305.5611877441406
0, 6, 56, 295.2046813964844
0, 6, 57, 312.2628784179688
0, 6, 58, 261.358642578125
0, 6, 59, 300.1068115234375
0, 6, 60, 311.6694946289062
0, 6, 61, 269.4396667480469
0, 6, 62, 338.7465515136719
0, 6, 63, 323.1272583007812
0, 6, 64, 290.5841064453125
0, 6, 65, 282.8453979492188
0, 6, 66, 302.6004333496094
0, 6, 67, 310.4328002929688
0, 6, 68, 294.3983154296875
0, 6, 69, 277.4168090820312
0, 6, 70, 274.2509460449219
0, 6, 71, 291.7983093261719
0, 6, 72, 311.5565490722656
0, 6, 73, 294.9142456054688
0, 6, 74, 329.2959899902344
0, 6, 75, 342.6441650390625
0, 6, 76, 297.5612487792969
0, 6, 77, 285.3771362304688
0, 6, 78, 279.8222045898438
0, 6, 79, 292.7493896484375
0, 6, 80, 300.5704956054688
0, 6, 81, 315.0253295898438
0, 6, 82, 319.0986938476562
0, 6, 83, 321.6156921386719
0, 6, 84, 296.2734985351562
0, 6, 85, 300.4956970214844
0, 6, 86, 330.4329528808594
0, 6, 87, 291.6410522460938
0, 6, 88, 306.8388061523438
0, 6, 89, 304.83740234375
0, 6, 90, 298.8107604980469
0, 6, 91, 313.3086853027344
0, 6, 92, 285.3828430175781
0, 6, 93, 299.5494079589844
0, 6, 94, 271.9911804199219
0, 6, 95, 300.5992431640625
0, 6, 96, 349.8898620605469
0, 6, 97, 307.6900634765625
0, 6, 98, 302.6212768554688
0, 6, 99, 273.0762023925781
0, 6, 100, 310.7365417480469
0, 6, 101, 294.2148742675781
0, 6, 102, 308.3221740722656
0, 6, 103, 307.3253479003906
0, 6, 104, 289.8499755859375
0, 6, 105, 302.7811584472656
0, 6, 106, 307.0723266601562
0, 6, 107, 305.3182678222656
0, 6, 108, 265.3715209960938
0, 6, 109, 187.4498901367188
0, 6, 110, 56.10870361328125
0, 6, 111, 20.8426628112793
0, 6, 112, 13.8685941696167
0, 6, 113, 9.661903381347656
0, 6, 114, 12.00996494293213
0, 6, 115, 13.13625240325928
0, 6, 116, 10.14065265655518
0, 6, 117, 7.761050224304199
0, 6, 118, 8.727201461791992
0, 6, 119, 8.373292922973633
0, 6, 120, 5.532825946807861
0, 6, 121, 6.973932266235352
0, 6, 122, 5.751549243927002
0, 6, 123, 4.668904304504395
0, 6, 124, 9.533492088317871
0, 6, 125, 6.854826927185059
0, 6, 126, 4.836504459381104
0, 6, 127, 8.52863597869873
0, 7, 0, 6.968432903289795
0, 7, 1, 5.195273399353027
0, 7, 2, 4.814989566802979
0, 7, 3, 3.062629699707031
0, 7, 4, 5.201865196228027
0, 7, 5, 3.983008146286011
0, 7, 6, 5.313755512237549
0, 7, 7, 6.064774036407471
0, 7, 8, 4.265909194946289
0, 7, 9, 5.975019931793213
0, 7, 10, 7.522193431854248
0, 7, 11, 10.88721656799316
0, 7, 12, 10.91944313049316
0, 7, 13, 13.66577529907227
0, 7, 14, 9.769529342651367
0, 7, 15, 16.33396148681641
0, 7, 16, 25.71077346801758
0, 7, 17, 96.05959320068359
0, 7, 18, 218.1171722412109
0, 7, 19, 289.5748596191406
0, 7, 20, 295.2109985351562
0, 7, 21, 275.1890258789062
0, 7, 22, 299.3778076171875
0, 7, 23, 291.7403869628906
0, 7, 24, 313.3689880371094
0, 7, 25, 324.024169921875
0, 7, 26, 277.0148620605469
0, 7, 27, 298.156982421875
0, 7, 28, 327.3333435058594
0, 7, 29, 320.5888366699219
0, 7, 30, 298.1092224121094
0, 7, 31, 277.0306701660156
0, 7, 32, 304.9663391113281
0, 7, 33, 261.5853881835938
0, 7, 34, 299.4856567382812
0, 7, 35, 319.6583862304688
0, 7, 36, 329.9201049804688
0, 7, 37, 325.475341796875
0, 7, 38, 296.6659851074219
0, 7, 39, 307.1342468261719
0, 7, 40, 289.1802062988281
0, 7, 41, 272.7845764160156
0, 7, 42, 303.038330078125
0, 7, 43, 274.9359130859375
0, 7, 44, 304.3912353515625
0, 7, 45, 293.441650390625
0, 7, 46, 281.9513854980469
0, 7, 47, 330.6459045410156
0, 7, 48, 284.6172180175781
0, 7, 49, 301.8323059082031
0, 7, 50, 321.8646850585938
0, 7, 51, 298.5926513671875
0, 7, 52, 326.3727111816406
0, 7, 53, 311.41796875
0, 7, 54, 322.958740234375
0, 7, 55, 307.1761169433594
0, 7, 56, 278.2986145019531
0, 7, 57, 281.1190490722656
0, 7, 58, 297.9764404296875
0, 7, 59, 294.8735961914062
0, 7, 60, 323.5713500976562
0, 7, 61, 277.1302795410156
0, 7, 62, 299.6113586425781
0, 7, 63, 294.7038879394531
0, 7, 64, 305.8229064941406
0, 7, 65, 332.0088806152344
0, 7, 66, 318.2609558105469
0, 7, 67, 301.4678955078125
0, 7, 68, 280.0099792480469
0, 7, 69, 293.7158203125
0, 7, 70, 303.9085998535156
0, 7, 71, 310.710693359375
0, 7, 72, 285.6795043945312
0, 7, 73, 295.55029296875
0, 7, 74, 343.4881896972656
0, 7, 75, 321.0597534179688
0, 7, 76, 323.5782775878906
0, 7, 77, 281.7648315429688
0, 7, 78, 296.9432067871094
0, 7, 79, 300.1196899414062
0, 7, 80, 310.2733459472656
0, 7, 81, 318.3095092773438
0, 7, 82, 328.9052429199219
0, 7, 83, 316.6153259277344
0, 7, 84, 309.1554870605469
0, 7, 85, 272.5694580078125
0, 7, 86, 311.8115844726562
0, 7, 87, 313.5445861816406
0, 7, 88, 307.1948547363281
0, 7, 89, 293.1015625
0, 7, 90, 306.4063720703125
0, 7, 91, 315.033203125
0, 7, 92, 291.1583862304688
0, 7, 93, 308.6025085449219
0, 7, 94, 273.7672729492188
0, 7, 95, 297.1184387207031
0, 7, 96, 332.4542541503906
0, 7, 97, 295.7745056152344
0, 7, 98, 289.799072265625
0, 7, 99, 315.0408325195312
0, 7, 100, 282.5076293945312
0, 7, 101, 274.8150329589844
0, 7, 102, 292.6065368652344
0, 7, 103, 293.542236328125
0, 7, 104, 275.9202880859375
0, 7, 105, 305.9713134765625
0, 7, 106, 318.7382202148438
0, 7, 107, 297.9816589355469
0, 7, 108, 273.4185485839844
0, 7, 109, 237.9335327148438
0, 7, 110, 96.78678131103516
0, 7, 111, 24.16236877441406
0, 7, 112, 12.63107776641846
0, 7, 113, 15.02641868591309
0, 7, 114, 15.85650634765625
0, 7, 115, 11.22540855407715
0, 7, 116, 8.037147521972656
0, 7, 117, 7.526130199432373
0, 7, 118, 7.786107063293457
0, 7, 119, 8.42270565032959
0, 7, 120, 4.190703392028809
0, 7, 121, 7.735683441162109
0, 7, 122, 9.98668098449707
0, 7, 123, 3.837309122085571
0, 7, 124, 3.55097222328186
0, 7, 125, 7.412959098815918
0, 7, 126, 6.995865345001221
0, 7, 127, 2.596157789230347
0, 8, 0, 6.083564758300781
0, 8, 1, 4.657209873199463
0, 8, 2, 5.441674709320068
0, 8, 3, 3.372661590576172
0, 8, 4, 4.592101573944092
0, 8, 5, 3.505166292190552
0, 8, 6, 4.321089267730713
0, 8, 7, 5.631404876708984
0, 8, 8, 8.199176788330078
0, 8, 9, 8.410340309143066
0, 8, 10, 7.368510246276855
0, 8, 11, 11.2217903137207
0, 8, 12, 14.19818115234375
0, 8, 13, 15.8911018371582
0, 8, 14, 11.5223913192749
0, 8, 15, 18.36460113525391
0, 8, 16, 32.3795166015625
0, 8, 17, 131.3455810546875
0, 8, 18, 243.7639617919922
0, 8, 19, 291.7626647949219
0, 8, 20, 284.7386169433594
0, 8, 21, 306.4000549316406
0, 8, 22, 296.7323913574219
0, 8, 23, 274.2975158691406
0, 8, 24, 268.9753723144531
0, 8, 25, 275.5383911132812
0, 8, 26, 307.6307678222656
0, 8, 27, 307.3975524902344
0, 8, 28, 303.1228332519531
0, 8, 29, 318.7311401367188
0, 8, 30, 315.8399353027344
0, 8, 31, 305.0723266601562
0, 8, 32, 285.5865478515625
0, 8, 33, 292.6736755371094
0, 8, 34, 287.8258056640625
0, 8, 35, 279.8776550292969
0, 8, 36, 314.2341003417969
0, 8, 37, 338.4909362792969
0, 8, 38, 334.3149719238281
0, 8, 39, 280.515380859375
