# TOPAS Version: 3.1.p3
# Parameter File: batch_inserts_180.txt
# Results for scorer Readout_Adipose
# Scored in component: MyBox
# X in 1 bin  of 0.75 cm
# Y in 512 bins of 0.0783984 cm
# Z in 128 bins of 0.078125 cm
# EnergyDeposit ( MeV ) : Sum   
0, 0, 0, 21.2912483215332
0, 0, 1, 21.87001419067383
0, 0, 2, 26.97584915161133
0, 0, 3, 25.33818435668945
0, 0, 4, 20.07561874389648
0, 0, 5, 25.31780624389648
0, 0, 6, 25.2367115020752
0, 0, 7, 30.89278221130371
0, 0, 8, 18.90700721740723
0, 0, 9, 23.00699234008789
0, 0, 10, 25.18157196044922
0, 0, 11, 23.27058982849121
0, 0, 12, 35.76585006713867
0, 0, 13, 33.20636749267578
0, 0, 14, 37.76858520507812
0, 0, 15, 46.78079223632812
0, 0, 16, 45.68137359619141
0, 0, 17, 43.53725814819336
0, 0, 18, 72.6126708984375
0, 0, 19, 191.983642578125
0, 0, 20, 698.5745849609375
0, 0, 21, 1191.910766601562
0, 0, 22, 1247.526733398438
0, 0, 23, 1280.521606445312
0, 0, 24, 1279.346313476562
0, 0, 25, 1354.543090820312
0, 0, 26, 1273.759887695312
0, 0, 27, 1279.113891601562
0, 0, 28, 1322.583984375
0, 0, 29, 1271.829956054688
0, 0, 30, 1263.650390625
0, 0, 31, 1275.442138671875
0, 0, 32, 1263.814575195312
0, 0, 33, 1244.94970703125
0, 0, 34, 1324.644287109375
0, 0, 35, 1303.300537109375
0, 0, 36, 1252.61572265625
0, 0, 37, 1278.846923828125
0, 0, 38, 1246.071166992188
0, 0, 39, 1243.677490234375
0, 0, 40, 1225.34765625
0, 0, 41, 1270.992553710938
0, 0, 42, 1254.437255859375
0, 0, 43, 1266.781860351562
0, 0, 44, 1229.626953125
0, 0, 45, 1289.714965820312
0, 0, 46, 1259.137573242188
0, 0, 47, 1245.082153320312
0, 0, 48, 1275.33447265625
0, 0, 49, 1288.3056640625
0, 0, 50, 1312.466918945312
0, 0, 51, 1264.264526367188
0, 0, 52, 1355.610595703125
0, 0, 53, 1324.574462890625
0, 0, 54, 1291.083618164062
0, 0, 55, 1233.849853515625
0, 0, 56, 1318.474487304688
0, 0, 57, 1288.581420898438
0, 0, 58, 1254.2451171875
0, 0, 59, 1330.515869140625
0, 0, 60, 1326.26123046875
0, 0, 61, 1260.763793945312
0, 0, 62, 1245.33935546875
0, 0, 63, 1279.385864257812
0, 0, 64, 1328.834716796875
0, 0, 65, 1284.452026367188
0, 0, 66, 1318.216796875
0, 0, 67, 1216.357177734375
0, 0, 68, 1313.297485351562
0, 0, 69, 1325.519165039062
0, 0, 70, 1345.620239257812
0, 0, 71, 1285.52001953125
0, 0, 72, 1315.850463867188
0, 0, 73, 1237.7373046875
0, 0, 74, 1288.215087890625
0, 0, 75, 1298.458862304688
0, 0, 76, 1253.21240234375
0, 0, 77, 1284.469116210938
0, 0, 78, 1319.661254882812
0, 0, 79, 1324.670776367188
0, 0, 80, 1264.3212890625
0, 0, 81, 1324.73974609375
0, 0, 82, 1285.047607421875
0, 0, 83, 1288.466674804688
0, 0, 84, 1324.692993164062
0, 0, 85, 1234.066040039062
0, 0, 86, 1265.411010742188
0, 0, 87, 1253.889404296875
0, 0, 88, 1257.630249023438
0, 0, 89, 1334.239624023438
0, 0, 90, 1278.33642578125
0, 0, 91, 1357.294311523438
0, 0, 92, 1304.1845703125
0, 0, 93, 1271.378295898438
0, 0, 94, 1243.307006835938
0, 0, 95, 1327.718383789062
0, 0, 96, 1288.758666992188
0, 0, 97, 1326.099487304688
0, 0, 98, 1261.216796875
0, 0, 99, 1251.98095703125
0, 0, 100, 1284.716796875
0, 0, 101, 1315.288818359375
0, 0, 102, 1234.58251953125
0, 0, 103, 1320.567993164062
0, 0, 104, 1260.629028320312
0, 0, 105, 1267.896606445312
0, 0, 106, 1208.160400390625
0, 0, 107, 784.1618041992188
0, 0, 108, 193.6139221191406
0, 0, 109, 66.77231597900391
0, 0, 110, 66.72266387939453
0, 0, 111, 43.54898452758789
0, 0, 112, 37.2043342590332
0, 0, 113, 32.75554275512695
0, 0, 114, 36.01858139038086
0, 0, 115, 33.08866119384766
0, 0, 116, 31.65765571594238
0, 0, 117, 29.64093017578125
0, 0, 118, 28.94247817993164
0, 0, 119, 26.28716659545898
0, 0, 120, 26.46326446533203
0, 0, 121, 33.29001235961914
0, 0, 122, 20.74550437927246
0, 0, 123, 17.35866165161133
0, 0, 124, 20.81613349914551
0, 0, 125, 20.79542922973633
0, 0, 126, 26.7815990447998
0, 0, 127, 15.37718391418457
0, 1, 0, 25.23998260498047
0, 1, 1, 18.20575714111328
0, 1, 2, 21.87332344055176
0, 1, 3, 23.15910148620605
0, 1, 4, 24.56457138061523
0, 1, 5, 30.39347457885742
0, 1, 6, 25.18739700317383
0, 1, 7, 27.43819046020508
0, 1, 8, 30.98898887634277
0, 1, 9, 28.3243522644043
0, 1, 10, 33.5020637512207
0, 1, 11, 41.87990570068359
0, 1, 12, 38.33296203613281
0, 1, 13, 38.4057502746582
0, 1, 14, 42.04218292236328
0, 1, 15, 46.96486663818359
0, 1, 16, 57.19518280029297
0, 1, 17, 61.75882720947266
0, 1, 18, 95.845703125
0, 1, 19, 398.8033447265625
0, 1, 20, 1049.9755859375
0, 1, 21, 1374.371948242188
0, 1, 22, 1483.584350585938
0, 1, 23, 1464.394287109375
0, 1, 24, 1449.79296875
0, 1, 25, 1418.372680664062
0, 1, 26, 1475.2529296875
0, 1, 27, 1462.760498046875
0, 1, 28, 1490.53466796875
0, 1, 29, 1477.026000976562
0, 1, 30, 1504.435668945312
0, 1, 31, 1487.858154296875
0, 1, 32, 1414.093383789062
0, 1, 33, 1498.668090820312
0, 1, 34, 1501.5234375
0, 1, 35, 1463.975341796875
0, 1, 36, 1491.32666015625
0, 1, 37, 1410.112426757812
0, 1, 38, 1393.894409179688
0, 1, 39, 1522.609252929688
0, 1, 40, 1465.612915039062
0, 1, 41, 1489.22509765625
0, 1, 42, 1491.002075195312
0, 1, 43, 1504.707641601562
0, 1, 44, 1450.63623046875
0, 1, 45, 1487.12841796875
0, 1, 46, 1424.355346679688
0, 1, 47, 1431.1494140625
0, 1, 48, 1428.319580078125
0, 1, 49, 1486.062744140625
0, 1, 50, 1438.31005859375
0, 1, 51, 1474.35546875
0, 1, 52, 1477.7138671875
0, 1, 53, 1476.532958984375
0, 1, 54, 1510.806274414062
0, 1, 55, 1495.618896484375
0, 1, 56, 1468.62060546875
0, 1, 57, 1458.77392578125
0, 1, 58, 1432.932495117188
0, 1, 59, 1478.342529296875
0, 1, 60, 1469.211059570312
0, 1, 61, 1458.867309570312
0, 1, 62, 1455.255004882812
0, 1, 63, 1412.125244140625
0, 1, 64, 1475.184814453125
0, 1, 65, 1418.467651367188
0, 1, 66, 1435.551025390625
0, 1, 67, 1456.182250976562
0, 1, 68, 1387.794677734375
0, 1, 69, 1461.571166992188
0, 1, 70, 1435.890258789062
0, 1, 71, 1495.975463867188
0, 1, 72, 1435.442138671875
0, 1, 73, 1485.891235351562
0, 1, 74, 1471.5458984375
0, 1, 75, 1481.114379882812
0, 1, 76, 1454.544799804688
0, 1, 77, 1468.214477539062
0, 1, 78, 1452.738891601562
0, 1, 79, 1500.325073242188
0, 1, 80, 1450.43359375
0, 1, 81, 1427.928466796875
0, 1, 82, 1471.634033203125
0, 1, 83, 1463.875
0, 1, 84, 1537.020385742188
0, 1, 85, 1445.183227539062
0, 1, 86, 1408.96240234375
0, 1, 87, 1416.78759765625
0, 1, 88, 1470.026245117188
0, 1, 89, 1472.930786132812
0, 1, 90, 1423.225952148438
0, 1, 91, 1464.425537109375
0, 1, 92, 1410.265380859375
0, 1, 93, 1461.217529296875
0, 1, 94, 1462.873413085938
0, 1, 95, 1420.96533203125
0, 1, 96, 1499.166381835938
0, 1, 97, 1515.887451171875
0, 1, 98, 1483.49951171875
0, 1, 99, 1421.545532226562
0, 1, 100, 1447.188354492188
0, 1, 101, 1412.227416992188
0, 1, 102, 1439.619262695312
0, 1, 103, 1415.634521484375
0, 1, 104, 1404.079956054688
0, 1, 105, 1464.226684570312
0, 1, 106, 1363.30908203125
0, 1, 107, 1017.963073730469
0, 1, 108, 407.4254760742188
0, 1, 109, 89.55419158935547
0, 1, 110, 63.38341522216797
0, 1, 111, 54.41504287719727
0, 1, 112, 51.03451156616211
0, 1, 113, 36.56939315795898
0, 1, 114, 37.22312545776367
0, 1, 115, 38.12908172607422
0, 1, 116, 32.81843948364258
0, 1, 117, 31.78582191467285
0, 1, 118, 34.81633758544922
0, 1, 119, 30.27118682861328
0, 1, 120, 25.05330276489258
0, 1, 121, 23.84658241271973
0, 1, 122, 19.97308731079102
0, 1, 123, 22.92160224914551
0, 1, 124, 32.76497650146484
0, 1, 125, 22.47044944763184
0, 1, 126, 23.7823429107666
0, 1, 127, 23.98640251159668
0, 2, 0, 19.20516967773438
0, 2, 1, 22.44301414489746
0, 2, 2, 29.7085018157959
0, 2, 3, 22.81167411804199
0, 2, 4, 27.81573104858398
0, 2, 5, 29.55248260498047
0, 2, 6, 22.47586441040039
0, 2, 7, 21.50211334228516
0, 2, 8, 31.23961067199707
0, 2, 9, 26.04464340209961
0, 2, 10, 31.00383949279785
0, 2, 11, 33.66485214233398
0, 2, 12, 40.95397567749023
0, 2, 13, 48.13381576538086
0, 2, 14, 47.4916877746582
0, 2, 15, 49.07509613037109
0, 2, 16, 64.21978759765625
0, 2, 17, 77.22196197509766
0, 2, 18, 141.5669097900391
0, 2, 19, 602.0675659179688
0, 2, 20, 1288.173950195312
0, 2, 21, 1434.313842773438
0, 2, 22, 1460.06640625
0, 2, 23, 1403.075317382812
0, 2, 24, 1441.624633789062
0, 2, 25, 1522.7548828125
0, 2, 26, 1552.2626953125
0, 2, 27, 1454.186157226562
0, 2, 28, 1458.620361328125
0, 2, 29, 1461.864379882812
0, 2, 30, 1460.433471679688
0, 2, 31, 1530.581176757812
0, 2, 32, 1506.491821289062
0, 2, 33, 1442.817016601562
0, 2, 34, 1470.50830078125
0, 2, 35, 1466.596313476562
0, 2, 36, 1524.6181640625
0, 2, 37, 1543.117919921875
0, 2, 38, 1506.805541992188
0, 2, 39, 1462.490600585938
0, 2, 40, 1501.35205078125
0, 2, 41, 1518.71142578125
0, 2, 42, 1502.502685546875
0, 2, 43, 1549.092529296875
0, 2, 44, 1455.334350585938
0, 2, 45, 1480.233154296875
0, 2, 46, 1426.574462890625
0, 2, 47, 1450.155029296875
0, 2, 48, 1394.897338867188
0, 2, 49, 1461.31982421875
0, 2, 50, 1444.57177734375
0, 2, 51, 1445.361083984375
0, 2, 52, 1494.083374023438
0, 2, 53, 1522.565551757812
0, 2, 54, 1525.62451171875
0, 2, 55, 1491.577270507812
0, 2, 56, 1464.7509765625
0, 2, 57, 1412.94189453125
0, 2, 58, 1451.661743164062
0, 2, 59, 1454.722534179688
0, 2, 60, 1472.933837890625
0, 2, 61, 1443.74951171875
0, 2, 62, 1473.456298828125
0, 2, 63, 1509.439208984375
0, 2, 64, 1459.877563476562
0, 2, 65, 1430.1171875
0, 2, 66, 1490.902465820312
0, 2, 67, 1503.181762695312
0, 2, 68, 1543.332885742188
0, 2, 69, 1535.976196289062
0, 2, 70, 1513.530883789062
0, 2, 71, 1468.902465820312
0, 2, 72, 1517.492309570312
0, 2, 73, 1522.377197265625
0, 2, 74, 1491.434692382812
0, 2, 75, 1508.615356445312
0, 2, 76, 1457.026977539062
0, 2, 77, 1505.854248046875
0, 2, 78, 1432.709594726562
0, 2, 79, 1539.271484375
0, 2, 80, 1482.318359375
0, 2, 81, 1464.258911132812
0, 2, 82, 1559.97802734375
0, 2, 83, 1516.199096679688
0, 2, 84, 1490.470703125
0, 2, 85, 1516.915405273438
0, 2, 86, 1542.055053710938
0, 2, 87, 1485.095825195312
0, 2, 88, 1534.323852539062
0, 2, 89, 1468.51806640625
0, 2, 90, 1430.836303710938
0, 2, 91, 1405.541381835938
0, 2, 92, 1477.901611328125
0, 2, 93, 1493.200805664062
0, 2, 94, 1454.257690429688
0, 2, 95, 1544.68212890625
0, 2, 96, 1520.547485351562
0, 2, 97, 1453.695434570312
0, 2, 98, 1466.767944335938
0, 2, 99, 1405.267944335938
0, 2, 100, 1470.86474609375
0, 2, 101, 1483.736083984375
0, 2, 102, 1464.29541015625
0, 2, 103, 1389.728637695312
0, 2, 104, 1408.00048828125
0, 2, 105, 1393.241088867188
0, 2, 106, 1463.74462890625
0, 2, 107, 1276.716430664062
0, 2, 108, 621.5001831054688
0, 2, 109, 175.0151062011719
0, 2, 110, 65.64382934570312
0, 2, 111, 67.49147796630859
0, 2, 112, 46.1634407043457
0, 2, 113, 43.9011344909668
0, 2, 114, 38.53524780273438
0, 2, 115, 42.51397705078125
0, 2, 116, 34.73160171508789
0, 2, 117, 41.37455368041992
0, 2, 118, 34.33374786376953
0, 2, 119, 28.64225959777832
0, 2, 120, 27.17959785461426
0, 2, 121, 19.14055824279785
0, 2, 122, 25.80024528503418
0, 2, 123, 22.36112403869629
0, 2, 124, 26.42503929138184
0, 2, 125, 28.03862571716309
0, 2, 126, 23.00485610961914
0, 2, 127, 18.8116455078125
0, 3, 0, 17.68126678466797
0, 3, 1, 19.44021606445312
0, 3, 2, 24.58180809020996
0, 3, 3, 19.27057075500488
0, 3, 4, 22.94307136535645
0, 3, 5, 22.75276756286621
0, 3, 6, 32.96895980834961
0, 3, 7, 28.34385871887207
0, 3, 8, 31.14854049682617
0, 3, 9, 33.45477294921875
0, 3, 10, 33.5547981262207
0, 3, 11, 39.37502288818359
0, 3, 12, 41.01886367797852
0, 3, 13, 51.7740364074707
0, 3, 14, 60.245849609375
0, 3, 15, 53.9399299621582
0, 3, 16, 68.20060729980469
0, 3, 17, 86.3109130859375
0, 3, 18, 238.8867340087891
0, 3, 19, 878.017578125
0, 3, 20, 1386.431030273438
0, 3, 21, 1506.230346679688
0, 3, 22, 1464.693481445312
0, 3, 23, 1449.452758789062
0, 3, 24, 1439.3935546875
0, 3, 25, 1465.539428710938
0, 3, 26, 1496.042114257812
0, 3, 27, 1463.821655273438
0, 3, 28, 1488.191162109375
0, 3, 29, 1544.370483398438
0, 3, 30, 1570.773193359375
0, 3, 31, 1510.1904296875
0, 3, 32, 1541.7529296875
0, 3, 33, 1541.27490234375
0, 3, 34, 1491.533569335938
0, 3, 35, 1463.263549804688
0, 3, 36, 1451.16357421875
0, 3, 37, 1511.779907226562
0, 3, 38, 1521.716064453125
0, 3, 39, 1443.257202148438
0, 3, 40, 1439.147338867188
0, 3, 41, 1565.423706054688
0, 3, 42, 1463.751098632812
0, 3, 43, 1454.701904296875
0, 3, 44, 1453.810302734375
0, 3, 45, 1508.828002929688
0, 3, 46, 1511.145629882812
0, 3, 47, 1442.427978515625
0, 3, 48, 1506.201904296875
0, 3, 49, 1449.497680664062
0, 3, 50, 1488.999389648438
0, 3, 51, 1536.191650390625
0, 3, 52, 1531.69384765625
0, 3, 53, 1461.745727539062
0, 3, 54, 1538.27685546875
0, 3, 55, 1505.413330078125
0, 3, 56, 1438.231079101562
0, 3, 57, 1505.003173828125
0, 3, 58, 1516.517578125
0, 3, 59, 1509.544067382812
0, 3, 60, 1534.311767578125
0, 3, 61, 1481.19580078125
0, 3, 62, 1488.942993164062
0, 3, 63, 1491.861572265625
0, 3, 64, 1503.751098632812
0, 3, 65, 1517.929077148438
0, 3, 66, 1556.64892578125
0, 3, 67, 1550.845703125
0, 3, 68, 1446.802001953125
0, 3, 69, 1467.844970703125
0, 3, 70, 1389.214477539062
0, 3, 71, 1465.796142578125
0, 3, 72, 1545.761596679688
0, 3, 73, 1498.473388671875
0, 3, 74, 1464.406494140625
0, 3, 75, 1459.699462890625
0, 3, 76, 1576.089111328125
0, 3, 77, 1538.625244140625
0, 3, 78, 1431.032104492188
0, 3, 79, 1490.934692382812
0, 3, 80, 1460.205322265625
0, 3, 81, 1476.449096679688
0, 3, 82, 1553.179077148438
0, 3, 83, 1520.57666015625
0, 3, 84, 1558.375244140625
0, 3, 85, 1479.526000976562
0, 3, 86, 1526.001586914062
0, 3, 87, 1536.964965820312
0, 3, 88, 1456.1220703125
0, 3, 89, 1448.467651367188
0, 3, 90, 1452.542358398438
0, 3, 91, 1419.3037109375
0, 3, 92, 1514.18408203125
0, 3, 93, 1497.301025390625
0, 3, 94, 1512.856689453125
0, 3, 95, 1542.027709960938
0, 3, 96, 1513.396728515625
0, 3, 97, 1465.248291015625
0, 3, 98, 1432.549682617188
0, 3, 99, 1467.724609375
0, 3, 100, 1469.597412109375
0, 3, 101, 1473.912353515625
0, 3, 102, 1522.104858398438
0, 3, 103, 1560.311645507812
0, 3, 104, 1502.007080078125
0, 3, 105, 1516.007690429688
0, 3, 106, 1480.0126953125
0, 3, 107, 1341.552856445312
0, 3, 108, 878.8001708984375
0, 3, 109, 260.9488830566406
0, 3, 110, 107.5796890258789
0, 3, 111, 66.31141662597656
0, 3, 112, 55.68169403076172
0, 3, 113, 53.98305511474609
0, 3, 114, 48.15857315063477
0, 3, 115, 52.59877014160156
0, 3, 116, 41.33393096923828
0, 3, 117, 40.61460494995117
0, 3, 118, 37.19312286376953
0, 3, 119, 31.79712295532227
0, 3, 120, 32.56689071655273
0, 3, 121, 18.80906295776367
0, 3, 122, 24.54827690124512
0, 3, 123, 24.55902671813965
0, 3, 124, 24.28665542602539
0, 3, 125, 28.0760612487793
0, 3, 126, 24.4011173248291
0, 3, 127, 20.29859924316406
0, 4, 0, 16.76120376586914
0, 4, 1, 26.72931098937988
0, 4, 2, 20.66154479980469
0, 4, 3, 22.77674674987793
0, 4, 4, 26.34358596801758
0, 4, 5, 25.04147529602051
0, 4, 6, 28.57153129577637
0, 4, 7, 30.7358455657959
0, 4, 8, 30.94397926330566
0, 4, 9, 35.14881134033203
0, 4, 10, 31.69861221313477
0, 4, 11, 36.67123794555664
0, 4, 12, 45.75918579101562
0, 4, 13, 50.26384353637695
0, 4, 14, 50.29632186889648
0, 4, 15, 66.65090179443359
0, 4, 16, 73.73274230957031
0, 4, 17, 111.6571884155273
0, 4, 18, 447.8567199707031
0, 4, 19, 1176.5595703125
0, 4, 20, 1442.164794921875
0, 4, 21, 1418.060546875
0, 4, 22, 1431.229370117188
0, 4, 23, 1449.745971679688
0, 4, 24, 1475.279663085938
0, 4, 25, 1405.829223632812
0, 4, 26, 1535.361083984375
0, 4, 27, 1545.639770507812
0, 4, 28, 1504.239013671875
0, 4, 29, 1520.734375
0, 4, 30, 1528.668334960938
0, 4, 31, 1572.981201171875
0, 4, 32, 1514.586303710938
0, 4, 33, 1494.1943359375
0, 4, 34, 1474.579223632812
0, 4, 35, 1556.73779296875
0, 4, 36, 1503.614013671875
0, 4, 37, 1514.386840820312
0, 4, 38, 1532.272583007812
0, 4, 39, 1464.718383789062
0, 4, 40, 1512.991821289062
0, 4, 41, 1584.587280273438
0, 4, 42, 1567.6484375
0, 4, 43, 1476.01025390625
0, 4, 44, 1497.474365234375
0, 4, 45, 1518.85400390625
0, 4, 46, 1465.045654296875
0, 4, 47, 1502.913940429688
0, 4, 48, 1529.138793945312
0, 4, 49, 1471.109619140625
0, 4, 50, 1516.33349609375
0, 4, 51, 1495.783569335938
0, 4, 52, 1496.973388671875
0, 4, 53, 1452.0263671875
0, 4, 54, 1444.18603515625
0, 4, 55, 1525.531860351562
0, 4, 56, 1457.599243164062
0, 4, 57, 1495.369750976562
0, 4, 58, 1462.565673828125
0, 4, 59, 1468.071411132812
0, 4, 60, 1524.120483398438
0, 4, 61, 1498.555053710938
0, 4, 62, 1506.865234375
0, 4, 63, 1544.269409179688
0, 4, 64, 1594.323974609375
0, 4, 65, 1422.041625976562
0, 4, 66, 1513.530517578125
0, 4, 67, 1519.566528320312
0, 4, 68, 1497.927124023438
0, 4, 69, 1467.185668945312
0, 4, 70, 1544.136962890625
0, 4, 71, 1522.624755859375
0, 4, 72, 1527.219848632812
0, 4, 73, 1491.957763671875
0, 4, 74, 1483.237182617188
0, 4, 75, 1535.231323242188
0, 4, 76, 1482.422119140625
0, 4, 77, 1498.32568359375
0, 4, 78, 1500.431640625
0, 4, 79, 1484.382568359375
0, 4, 80, 1517.1689453125
0, 4, 81, 1525.043579101562
0, 4, 82, 1568.513305664062
0, 4, 83, 1502.312622070312
0, 4, 84, 1539.3876953125
0, 4, 85, 1552.720092773438
0, 4, 86, 1525.6474609375
0, 4, 87, 1499.230224609375
0, 4, 88, 1512.381591796875
0, 4, 89, 1484.5185546875
0, 4, 90, 1544.865966796875
0, 4, 91, 1555.35546875
0, 4, 92, 1492.344970703125
0, 4, 93, 1513.348999023438
0, 4, 94, 1483.686279296875
0, 4, 95, 1506.080200195312
0, 4, 96, 1441.954345703125
0, 4, 97, 1401.19384765625
0, 4, 98, 1554.960815429688
0, 4, 99, 1509.765625
0, 4, 100, 1488.911376953125
0, 4, 101, 1448.827514648438
0, 4, 102, 1447.124877929688
0, 4, 103, 1514.928588867188
0, 4, 104, 1513.897216796875
0, 4, 105, 1555.067504882812
0, 4, 106, 1478.668212890625
0, 4, 107, 1454.994018554688
0, 4, 108, 1118.298706054688
0, 4, 109, 434.703857421875
0, 4, 110, 94.08586120605469
0, 4, 111, 71.24700164794922
0, 4, 112, 58.88105392456055
0, 4, 113, 50.56927108764648
0, 4, 114, 52.97561645507812
0, 4, 115, 46.2060546875
0, 4, 116, 37.63401794433594
0, 4, 117, 42.12751388549805
0, 4, 118, 39.737548828125
0, 4, 119, 40.85662841796875
0, 4, 120, 40.13883972167969
0, 4, 121, 30.94515609741211
0, 4, 122, 31.04807472229004
0, 4, 123, 35.34952163696289
0, 4, 124, 23.12825393676758
0, 4, 125, 30.01535415649414
0, 4, 126, 18.34164047241211
0, 4, 127, 18.9099292755127
0, 5, 0, 22.84650802612305
0, 5, 1, 24.06667518615723
0, 5, 2, 28.91496658325195
0, 5, 3, 23.09337425231934
0, 5, 4, 20.89724349975586
0, 5, 5, 38.52194976806641
0, 5, 6, 27.12288856506348
0, 5, 7, 28.03500938415527
0, 5, 8, 31.61923980712891
0, 5, 9, 28.58404350280762
0, 5, 10, 35.97787094116211
0, 5, 11, 40.34774780273438
0, 5, 12, 37.72697448730469
0, 5, 13, 44.83781814575195
0, 5, 14, 59.1651725769043
0, 5, 15, 76.19675445556641
0, 5, 16, 81.46585083007812
0, 5, 17, 159.781982421875
0, 5, 18, 673.0931396484375
0, 5, 19, 1341.0380859375
0, 5, 20, 1526.417602539062
0, 5, 21, 1497.251831054688
0, 5, 22, 1498.073486328125
0, 5, 23, 1531.318969726562
0, 5, 24, 1465.084228515625
0, 5, 25, 1432.867919921875
0, 5, 26, 1527.090087890625
0, 5, 27, 1539.054321289062
0, 5, 28, 1487.837036132812
0, 5, 29, 1528.19677734375
0, 5, 30, 1495.476318359375
0, 5, 31, 1504.22119140625
0, 5, 32, 1594.376220703125
0, 5, 33, 1503.229370117188
0, 5, 34, 1479.171752929688
0, 5, 35, 1511.708740234375
0, 5, 36, 1445.2373046875
0, 5, 37, 1530.49609375
0, 5, 38, 1549.8984375
0, 5, 39, 1549.9580078125
0, 5, 40, 1499.835327148438
0, 5, 41, 1479.328979492188
0, 5, 42, 1541.732299804688
0, 5, 43, 1532.157958984375
0, 5, 44, 1542.200317382812
0, 5, 45, 1505.744262695312
0, 5, 46, 1490.550659179688
0, 5, 47, 1479.504760742188
0, 5, 48, 1503.854125976562
0, 5, 49, 1520.749389648438
0, 5, 50, 1507.8642578125
0, 5, 51, 1512.601440429688
0, 5, 52, 1434.440185546875
0, 5, 53, 1525.84814453125
0, 5, 54, 1517.814697265625
0, 5, 55, 1522.751342773438
0, 5, 56, 1483.388916015625
0, 5, 57, 1540.132568359375
0, 5, 58, 1511.051147460938
0, 5, 59, 1487.385864257812
0, 5, 60, 1535.811645507812
0, 5, 61, 1453.028564453125
0, 5, 62, 1586.665771484375
0, 5, 63, 1432.489501953125
0, 5, 64, 1488.273071289062
0, 5, 65, 1465.333740234375
0, 5, 66, 1532.9443359375
0, 5, 67, 1559.025756835938
0, 5, 68, 1464.669555664062
0, 5, 69, 1486.234985351562
0, 5, 70, 1486.0625
0, 5, 71, 1471.219116210938
0, 5, 72, 1535.434448242188
0, 5, 73, 1463.357055664062
0, 5, 74, 1492.601928710938
0, 5, 75, 1488.799926757812
0, 5, 76, 1477.876953125
0, 5, 77, 1515.426025390625
0, 5, 78, 1522.445922851562
0, 5, 79, 1513.898193359375
0, 5, 80, 1520.275146484375
0, 5, 81, 1597.290283203125
0, 5, 82, 1531.897338867188
0, 5, 83, 1487.9833984375
0, 5, 84, 1532.081665039062
0, 5, 85, 1517.792358398438
0, 5, 86, 1568.029907226562
0, 5, 87, 1476.699951171875
0, 5, 88, 1495.621337890625
0, 5, 89, 1485.62548828125
0, 5, 90, 1479.589477539062
0, 5, 91, 1552.417358398438
0, 5, 92, 1486.13232421875
0, 5, 93, 1561.195434570312
0, 5, 94, 1508.500610351562
0, 5, 95, 1560.551879882812
0, 5, 96, 1498.186889648438
0, 5, 97, 1509.378051757812
0, 5, 98, 1506.18359375
0, 5, 99, 1541.78564453125
0, 5, 100, 1433.872436523438
0, 5, 101, 1428.065063476562
0, 5, 102, 1509.97216796875
0, 5, 103, 1474.203735351562
0, 5, 104, 1461.240234375
0, 5, 105, 1492.31494140625
0, 5, 106, 1455.252197265625
0, 5, 107, 1401.131469726562
0, 5, 108, 1290.427368164062
0, 5, 109, 721.414794921875
0, 5, 110, 192.2451171875
0, 5, 111, 85.87287139892578
0, 5, 112, 79.19184112548828
0, 5, 113, 62.96564865112305
0, 5, 114, 66.62026214599609
0, 5, 115, 52.1371955871582
0, 5, 116, 38.98784255981445
0, 5, 117, 34.55865859985352
0, 5, 118, 37.85019302368164
0, 5, 119, 28.36939430236816
0, 5, 120, 28.93085289001465
0, 5, 121, 23.27480888366699
0, 5, 122, 27.99847221374512
0, 5, 123, 25.27817153930664
0, 5, 124, 26.8614387512207
0, 5, 125, 20.07817649841309
0, 5, 126, 19.66192436218262
0, 5, 127, 22.95512390136719
0, 6, 0, 23.70478630065918
0, 6, 1, 31.70269012451172
0, 6, 2, 26.87338829040527
0, 6, 3, 22.79177665710449
0, 6, 4, 25.1804141998291
0, 6, 5, 31.1539363861084
0, 6, 6, 39.76787948608398
0, 6, 7, 30.53264808654785
0, 6, 8, 36.71844100952148
0, 6, 9, 32.54486465454102
0, 6, 10, 37.35826873779297
0, 6, 11, 41.83697128295898
0, 6, 12, 37.6119270324707
0, 6, 13, 57.83977508544922
0, 6, 14, 63.4661979675293
0, 6, 15, 79.27710723876953
0, 6, 16, 105.7495498657227
0, 6, 17, 299.1954345703125
0, 6, 18, 901.8937377929688
0, 6, 19, 1375.40869140625
0, 6, 20, 1440.424682617188
0, 6, 21, 1529.160888671875
0, 6, 22, 1499.027709960938
0, 6, 23, 1531.954345703125
0, 6, 24, 1477.605712890625
0, 6, 25, 1527.19677734375
0, 6, 26, 1520.371337890625
0, 6, 27, 1522.348266601562
0, 6, 28, 1554.24560546875
0, 6, 29, 1570.9609375
0, 6, 30, 1517.185302734375
0, 6, 31, 1489.90673828125
0, 6, 32, 1527.649536132812
0, 6, 33, 1497.3388671875
0, 6, 34, 1561.189575195312
0, 6, 35, 1501.799682617188
0, 6, 36, 1438.631713867188
0, 6, 37, 1543.938232421875
0, 6, 38, 1523.6015625
0, 6, 39, 1525.656982421875
0, 6, 40, 1459.136474609375
0, 6, 41, 1438.96923828125
0, 6, 42, 1514.391967773438
0, 6, 43, 1491.16748046875
0, 6, 44, 1435.963745117188
0, 6, 45, 1540.553588867188
0, 6, 46, 1550.008666992188
0, 6, 47, 1494.88671875
0, 6, 48, 1523.216064453125
0, 6, 49, 1511.19482421875
0, 6, 50, 1575.200927734375
0, 6, 51, 1503.894653320312
0, 6, 52, 1564.160522460938
0, 6, 53, 1472.765258789062
0, 6, 54, 1501.421997070312
0, 6, 55, 1573.31591796875
0, 6, 56, 1520.828979492188
0, 6, 57, 1504.95361328125
0, 6, 58, 1468.415893554688
0, 6, 59, 1521.583984375
0, 6, 60, 1467.280395507812
0, 6, 61, 1569.699340820312
0, 6, 62, 1547.253295898438
0, 6, 63, 1496.2177734375
0, 6, 64, 1412.983276367188
0, 6, 65, 1492.684692382812
0, 6, 66, 1509.186401367188
0, 6, 67, 1510.71630859375
0, 6, 68, 1547.613037109375
0, 6, 69, 1487.078491210938
0, 6, 70, 1526.230224609375
0, 6, 71, 1466.714599609375
0, 6, 72, 1599.108642578125
0, 6, 73, 1487.980590820312
0, 6, 74, 1554.85302734375
0, 6, 75, 1538.62109375
0, 6, 76, 1563.750244140625
0, 6, 77, 1510.354370117188
0, 6, 78, 1449.28759765625
0, 6, 79, 1558.24072265625
0, 6, 80, 1479.455200195312
0, 6, 81, 1483.470825195312
0, 6, 82, 1500.121459960938
0, 6, 83, 1525.186279296875
0, 6, 84, 1517.854370117188
0, 6, 85, 1536.323852539062
0, 6, 86, 1540.792358398438
0, 6, 87, 1577.420043945312
0, 6, 88, 1474.636474609375
0, 6, 89, 1563.889038085938
0, 6, 90, 1489.354248046875
0, 6, 91, 1542.20703125
0, 6, 92, 1490.272827148438
0, 6, 93, 1499.123657226562
0, 6, 94, 1468.515625
0, 6, 95, 1508.72900390625
0, 6, 96, 1523.379516601562
0, 6, 97, 1511.791381835938
0, 6, 98, 1498.184692382812
0, 6, 99, 1475.52490234375
0, 6, 100, 1523.730102539062
0, 6, 101, 1514.68603515625
0, 6, 102, 1539.902465820312
0, 6, 103, 1497.829833984375
0, 6, 104, 1465.387939453125
0, 6, 105, 1483.363891601562
0, 6, 106, 1498.467407226562
0, 6, 107, 1503.67529296875
0, 6, 108, 1406.109130859375
0, 6, 109, 921.8850708007812
0, 6, 110, 283.9213256835938
0, 6, 111, 92.65322113037109
0, 6, 112, 78.85861206054688
0, 6, 113, 61.25908660888672
0, 6, 114, 58.14468765258789
0, 6, 115, 46.09347915649414
0, 6, 116, 41.18494033813477
0, 6, 117, 39.9813346862793
0, 6, 118, 40.62089157104492
0, 6, 119, 41.13203430175781
0, 6, 120, 35.51792526245117
0, 6, 121, 29.51998519897461
0, 6, 122, 30.52104187011719
0, 6, 123, 27.97392845153809
0, 6, 124, 27.73974800109863
0, 6, 125, 31.36519241333008
0, 6, 126, 16.93775749206543
0, 6, 127, 20.74444961547852
0, 7, 0, 20.51604652404785
0, 7, 1, 26.00899314880371
0, 7, 2, 22.30556869506836
0, 7, 3, 25.20768356323242
0, 7, 4, 28.3000373840332
0, 7, 5, 36.39220809936523
0, 7, 6, 37.25531387329102
0, 7, 7, 33.02600479125977
0, 7, 8, 27.10884284973145
0, 7, 9, 38.42895889282227
0, 7, 10, 51.78252792358398
0, 7, 11, 51.71953201293945
0, 7, 12, 44.90206909179688
0, 7, 13, 53.94232177734375
0, 7, 14, 64.14829254150391
0, 7, 15, 77.9368896484375
0, 7, 16, 129.9436645507812
0, 7, 17, 458.7179870605469
0, 7, 18, 1100.88623046875
0, 7, 19, 1501.658813476562
0, 7, 20, 1486.006713867188
0, 7, 21, 1365.578369140625
0, 7, 22, 1485.127807617188
0, 7, 23, 1452.866088867188
0, 7, 24, 1509.557983398438
0, 7, 25, 1594.458862304688
0, 7, 26, 1521.132568359375
0, 7, 27, 1517.119018554688
0, 7, 28, 1550.469604492188
0, 7, 29, 1571.082275390625
0, 7, 30, 1552.858520507812
0, 7, 31, 1434.445068359375
0, 7, 32, 1542.260375976562
0, 7, 33, 1492.767333984375
0, 7, 34, 1480.010986328125
0, 7, 35, 1524.322631835938
0, 7, 36, 1476.328002929688
0, 7, 37, 1599.218994140625
0, 7, 38, 1506.310180664062
0, 7, 39, 1489.711791992188
0, 7, 40, 1543.080688476562
0, 7, 41, 1466.518432617188
0, 7, 42, 1487.8564453125
0, 7, 43, 1447.390625
0, 7, 44, 1488.009887695312
0, 7, 45, 1469.494384765625
0, 7, 46, 1513.35986328125
0, 7, 47, 1566.123779296875
0, 7, 48, 1523.044067382812
0, 7, 49, 1540.990600585938
0, 7, 50, 1516.493041992188
0, 7, 51, 1504.7919921875
0, 7, 52, 1516.73876953125
0, 7, 53, 1496.640869140625
0, 7, 54, 1580.395263671875
0, 7, 55, 1472.33203125
0, 7, 56, 1553.718872070312
0, 7, 57, 1517.2626953125
0, 7, 58, 1549.587890625
0, 7, 59, 1540.441162109375
0, 7, 60, 1555.27978515625
0, 7, 61, 1489.366577148438
0, 7, 62, 1433.562255859375
0, 7, 63, 1511.8037109375
0, 7, 64, 1546.210815429688
0, 7, 65, 1527.845581054688
0, 7, 66, 1535.484130859375
0, 7, 67, 1573.516967773438
0, 7, 68, 1535.583374023438
0, 7, 69, 1517.580932617188
0, 7, 70, 1499.325561523438
0, 7, 71, 1530.4677734375
0, 7, 72, 1522.937866210938
0, 7, 73, 1512.743286132812
0, 7, 74, 1574.53515625
0, 7, 75, 1535.654052734375
0, 7, 76, 1558.60791015625
0, 7, 77, 1514.630004882812
0, 7, 78, 1503.012329101562
0, 7, 79, 1422.16650390625
0, 7, 80, 1488.948364257812
0, 7, 81, 1498.07275390625
0, 7, 82, 1536.12255859375
0, 7, 83, 1541.882690429688
0, 7, 84, 1583.227294921875
0, 7, 85, 1479.687133789062
0, 7, 86, 1503.52001953125
0, 7, 87, 1507.55810546875
0, 7, 88, 1502.217651367188
0, 7, 89, 1551.536865234375
0, 7, 90, 1521.846557617188
0, 7, 91, 1561.015502929688
0, 7, 92, 1523.771362304688
0, 7, 93, 1557.265014648438
0, 7, 94, 1537.097534179688
0, 7, 95, 1507.72607421875
0, 7, 96, 1504.64453125
0, 7, 97, 1431.99365234375
0, 7, 98, 1482.844116210938
0, 7, 99, 1525.81396484375
0, 7, 100, 1422.951171875
0, 7, 101, 1462.89990234375
0, 7, 102, 1451.084228515625
0, 7, 103, 1434.87109375
0, 7, 104, 1493.380249023438
0, 7, 105, 1522.240600585938
0, 7, 106, 1572.891479492188
0, 7, 107, 1481.878784179688
0, 7, 108, 1409.91259765625
0, 7, 109, 1148.963745117188
0, 7, 110, 467.486328125
0, 7, 111, 124.4477310180664
0, 7, 112, 82.51470947265625
0, 7, 113, 66.40570831298828
0, 7, 114, 55.2679443359375
0, 7, 115, 51.6713981628418
0, 7, 116, 49.82547378540039
0, 7, 117, 44.23991775512695
0, 7, 118, 32.58498001098633
0, 7, 119, 35.34613800048828
0, 7, 120, 23.46033096313477
0, 7, 121, 33.76815032958984
0, 7, 122, 32.98565292358398
0, 7, 123, 36.50101470947266
0, 7, 124, 34.43817138671875
0, 7, 125, 22.60292625427246
0, 7, 126, 26.77816963195801
0, 7, 127, 22.43858528137207
0, 8, 0, 21.8982048034668
0, 8, 1, 25.32817840576172
0, 8, 2, 20.95257759094238
0, 8, 3, 24.65112686157227
0, 8, 4, 24.32568550109863
0, 8, 5, 34.11961364746094
0, 8, 6, 33.30312347412109
0, 8, 7, 28.70394134521484
0, 8, 8, 41.26039123535156
0, 8, 9, 51.89047622680664
0, 8, 10, 40.71734619140625
0, 8, 11, 42.18375396728516
0, 8, 12, 55.44858169555664
0, 8, 13, 67.58617401123047
0, 8, 14, 69.67198944091797
0, 8, 15, 90.21930694580078
0, 8, 16, 167.9247894287109
0, 8, 17, 674.1724853515625
0, 8, 18, 1281.1591796875
0, 8, 19, 1456.804931640625
0, 8, 20, 1425.069458007812
0, 8, 21, 1410.635375976562
0, 8, 22, 1491.615234375
0, 8, 23, 1477.2998046875
0, 8, 24, 1435.10888671875
0, 8, 25, 1453.694702148438
0, 8, 26, 1513.977416992188
0, 8, 27, 1519.785522460938
0, 8, 28, 1477.341430664062
0, 8, 29, 1507.821655273438
0, 8, 30, 1486.872924804688
0, 8, 31, 1535.106811523438
0, 8, 32, 1508.000244140625
0, 8, 33, 1482.03076171875
0, 8, 34, 1536.15087890625
0, 8, 35, 1440.233154296875
0, 8, 36, 1497.738159179688
0, 8, 37, 1557.388916015625
0, 8, 38, 1553.986572265625
0, 8, 39, 1498.0810546875
0, 8, 40, 1531.50830078125
0, 8, 41, 1484.872802734375
0, 8, 42, 1542.153198242188
0, 8, 43, 1433.857788085938
0, 8, 44, 1544.917114257812
0, 8, 45, 1511.126953125
0, 8, 46, 1601.7705078125
0, 8, 47, 1584.182250976562
0, 8, 48, 1544.69775390625
