# TOPAS Version: 3.1.p3
# Parameter File: batch_inserts_188.txt
# Results for scorer Readout_Adipose
# Scored in component: MyBox
# X in 1 bin  of 0.75 cm
# Y in 512 bins of 0.0783984 cm
# Z in 128 bins of 0.078125 cm
# EnergyDeposit ( MeV ) : Sum   
0, 0, 0, 22.47287559509277
0, 0, 1, 20.57394790649414
0, 0, 2, 28.06869888305664
0, 0, 3, 24.61735343933105
0, 0, 4, 15.31247234344482
0, 0, 5, 25.07417488098145
0, 0, 6, 21.19982528686523
0, 0, 7, 33.2232551574707
0, 0, 8, 20.97527313232422
0, 0, 9, 26.56864547729492
0, 0, 10, 27.2321834564209
0, 0, 11, 25.21856880187988
0, 0, 12, 36.3027458190918
0, 0, 13, 31.68084144592285
0, 0, 14, 40.13594818115234
0, 0, 15, 46.08752822875977
0, 0, 16, 42.50096893310547
0, 0, 17, 42.86869430541992
0, 0, 18, 72.57820129394531
0, 0, 19, 189.6453247070312
0, 0, 20, 698.7310180664062
0, 0, 21, 1189.696044921875
0, 0, 22, 1245.838256835938
0, 0, 23, 1277.230712890625
0, 0, 24, 1279.997436523438
0, 0, 25, 1356.430541992188
0, 0, 26, 1267.882202148438
0, 0, 27, 1282.585327148438
0, 0, 28, 1319.4794921875
0, 0, 29, 1268.151123046875
0, 0, 30, 1260.519653320312
0, 0, 31, 1277.83349609375
0, 0, 32, 1262.799560546875
0, 0, 33, 1239.472290039062
0, 0, 34, 1324.471801757812
0, 0, 35, 1302.87255859375
0, 0, 36, 1250.527709960938
0, 0, 37, 1279.276977539062
0, 0, 38, 1247.680419921875
0, 0, 39, 1243.806274414062
0, 0, 40, 1225.225952148438
0, 0, 41, 1265.933471679688
0, 0, 42, 1253.612670898438
0, 0, 43, 1266.900756835938
0, 0, 44, 1225.735961914062
0, 0, 45, 1290.233154296875
0, 0, 46, 1259.440551757812
0, 0, 47, 1241.807739257812
0, 0, 48, 1276.811645507812
0, 0, 49, 1285.305908203125
0, 0, 50, 1309.28173828125
0, 0, 51, 1262.891967773438
0, 0, 52, 1362.605834960938
0, 0, 53, 1329.578857421875
0, 0, 54, 1291.315551757812
0, 0, 55, 1232.28466796875
0, 0, 56, 1316.883056640625
0, 0, 57, 1288.040161132812
0, 0, 58, 1259.786743164062
0, 0, 59, 1336.965209960938
0, 0, 60, 1328.519287109375
0, 0, 61, 1261.255493164062
0, 0, 62, 1243.747802734375
0, 0, 63, 1278.917602539062
0, 0, 64, 1331.77392578125
0, 0, 65, 1289.497924804688
0, 0, 66, 1315.736206054688
0, 0, 67, 1213.795166015625
0, 0, 68, 1311.706787109375
0, 0, 69, 1325.38427734375
0, 0, 70, 1342.580932617188
0, 0, 71, 1284.669677734375
0, 0, 72, 1312.041748046875
0, 0, 73, 1238.758911132812
0, 0, 74, 1293.252075195312
0, 0, 75, 1297.9384765625
0, 0, 76, 1251.19873046875
0, 0, 77, 1285.830810546875
0, 0, 78, 1320.668212890625
0, 0, 79, 1324.854248046875
0, 0, 80, 1262.840209960938
0, 0, 81, 1323.901123046875
0, 0, 82, 1285.52783203125
0, 0, 83, 1294.529663085938
0, 0, 84, 1326.179809570312
0, 0, 85, 1235.778198242188
0, 0, 86, 1267.302978515625
0, 0, 87, 1253.271118164062
0, 0, 88, 1258.033935546875
0, 0, 89, 1335.04052734375
0, 0, 90, 1277.418579101562
0, 0, 91, 1354.59033203125
0, 0, 92, 1302.473266601562
0, 0, 93, 1278.227416992188
0, 0, 94, 1247.9189453125
0, 0, 95, 1328.928100585938
0, 0, 96, 1284.090087890625
0, 0, 97, 1330.798095703125
0, 0, 98, 1259.167724609375
0, 0, 99, 1255.549682617188
0, 0, 100, 1287.630859375
0, 0, 101, 1312.595825195312
0, 0, 102, 1232.588745117188
0, 0, 103, 1319.968017578125
0, 0, 104, 1262.849365234375
0, 0, 105, 1269.072265625
0, 0, 106, 1209.231567382812
0, 0, 107, 781.2882690429688
0, 0, 108, 194.5896759033203
0, 0, 109, 67.14405822753906
0, 0, 110, 65.17938232421875
0, 0, 111, 36.71834945678711
0, 0, 112, 35.67028045654297
0, 0, 113, 35.07705688476562
0, 0, 114, 37.32857513427734
0, 0, 115, 35.56831359863281
0, 0, 116, 31.70259475708008
0, 0, 117, 31.79674339294434
0, 0, 118, 28.62884140014648
0, 0, 119, 20.82394981384277
0, 0, 120, 25.6107120513916
0, 0, 121, 26.03581809997559
0, 0, 122, 22.68032836914062
0, 0, 123, 18.48989868164062
0, 0, 124, 19.01480865478516
0, 0, 125, 19.79741668701172
0, 0, 126, 24.65332412719727
0, 0, 127, 15.36256885528564
0, 1, 0, 24.05782318115234
0, 1, 1, 23.85407638549805
0, 1, 2, 19.50958061218262
0, 1, 3, 27.69010543823242
0, 1, 4, 20.87680435180664
0, 1, 5, 30.48152160644531
0, 1, 6, 23.52453994750977
0, 1, 7, 28.01617240905762
0, 1, 8, 34.54045867919922
0, 1, 9, 29.97265243530273
0, 1, 10, 33.5264778137207
0, 1, 11, 44.27946090698242
0, 1, 12, 37.4464225769043
0, 1, 13, 42.42558288574219
0, 1, 14, 42.81619262695312
0, 1, 15, 51.40674209594727
0, 1, 16, 60.41889953613281
0, 1, 17, 64.63018035888672
0, 1, 18, 96.02606201171875
0, 1, 19, 400.2021789550781
0, 1, 20, 1043.675048828125
0, 1, 21, 1374.042114257812
0, 1, 22, 1480.162719726562
0, 1, 23, 1461.60791015625
0, 1, 24, 1448.17431640625
0, 1, 25, 1416.009155273438
0, 1, 26, 1474.003784179688
0, 1, 27, 1464.600219726562
0, 1, 28, 1491.934448242188
0, 1, 29, 1476.1171875
0, 1, 30, 1502.545288085938
0, 1, 31, 1484.128295898438
0, 1, 32, 1415.807739257812
0, 1, 33, 1496.30419921875
0, 1, 34, 1498.744506835938
0, 1, 35, 1458.893188476562
0, 1, 36, 1491.733642578125
0, 1, 37, 1408.8330078125
0, 1, 38, 1390.71630859375
0, 1, 39, 1520.662963867188
0, 1, 40, 1458.757080078125
0, 1, 41, 1487.949584960938
0, 1, 42, 1495.885498046875
0, 1, 43, 1508.556762695312
0, 1, 44, 1450.307495117188
0, 1, 45, 1487.685668945312
0, 1, 46, 1421.043823242188
0, 1, 47, 1432.475708007812
0, 1, 48, 1430.016235351562
0, 1, 49, 1488.533447265625
0, 1, 50, 1440.112915039062
0, 1, 51, 1473.960083007812
0, 1, 52, 1473.474365234375
0, 1, 53, 1476.187255859375
0, 1, 54, 1508.111938476562
0, 1, 55, 1498.260498046875
0, 1, 56, 1467.17822265625
0, 1, 57, 1453.227416992188
0, 1, 58, 1433.427978515625
0, 1, 59, 1479.63671875
0, 1, 60, 1463.905395507812
0, 1, 61, 1458.390014648438
0, 1, 62, 1456.590942382812
0, 1, 63, 1416.566284179688
0, 1, 64, 1472.856201171875
0, 1, 65, 1419.172973632812
0, 1, 66, 1434.72802734375
0, 1, 67, 1453.28662109375
0, 1, 68, 1386.2548828125
0, 1, 69, 1463.574096679688
0, 1, 70, 1437.458251953125
0, 1, 71, 1501.495483398438
0, 1, 72, 1432.7080078125
0, 1, 73, 1491.303833007812
0, 1, 74, 1471.632080078125
0, 1, 75, 1473.844360351562
0, 1, 76, 1455.360107421875
0, 1, 77, 1457.254150390625
0, 1, 78, 1453.917114257812
0, 1, 79, 1503.73779296875
0, 1, 80, 1451.577514648438
0, 1, 81, 1430.865112304688
0, 1, 82, 1469.473388671875
0, 1, 83, 1463.00146484375
0, 1, 84, 1533.022094726562
0, 1, 85, 1447.266235351562
0, 1, 86, 1404.26904296875
0, 1, 87, 1419.511108398438
0, 1, 88, 1469.59375
0, 1, 89, 1474.7041015625
0, 1, 90, 1427.631958007812
0, 1, 91, 1464.654663085938
0, 1, 92, 1404.893188476562
0, 1, 93, 1459.120361328125
0, 1, 94, 1470.599731445312
0, 1, 95, 1422.520874023438
0, 1, 96, 1500.232421875
0, 1, 97, 1517.453002929688
0, 1, 98, 1473.81591796875
0, 1, 99, 1418.14111328125
0, 1, 100, 1446.67333984375
0, 1, 101, 1415.202758789062
0, 1, 102, 1442.817504882812
0, 1, 103, 1412.322387695312
0, 1, 104, 1406.626708984375
0, 1, 105, 1458.452392578125
0, 1, 106, 1362.2890625
0, 1, 107, 1022.247009277344
0, 1, 108, 403.7026672363281
0, 1, 109, 92.14502716064453
0, 1, 110, 61.23318862915039
0, 1, 111, 58.32020950317383
0, 1, 112, 50.87052154541016
0, 1, 113, 38.053955078125
0, 1, 114, 37.67948532104492
0, 1, 115, 36.76345062255859
0, 1, 116, 30.20340347290039
0, 1, 117, 32.38597106933594
0, 1, 118, 37.28639602661133
0, 1, 119, 34.90252304077148
0, 1, 120, 28.21090888977051
0, 1, 121, 24.39946174621582
0, 1, 122, 18.95788383483887
0, 1, 123, 24.50462913513184
0, 1, 124, 30.23863792419434
0, 1, 125, 22.52596473693848
0, 1, 126, 18.10724639892578
0, 1, 127, 25.15472984313965
0, 2, 0, 18.14488792419434
0, 2, 1, 24.68350982666016
0, 2, 2, 19.79375076293945
0, 2, 3, 22.94661140441895
0, 2, 4, 24.6689567565918
0, 2, 5, 28.6424388885498
0, 2, 6, 20.34127616882324
0, 2, 7, 19.89825630187988
0, 2, 8, 25.48257827758789
0, 2, 9, 29.4728889465332
0, 2, 10, 29.47246360778809
0, 2, 11, 35.52120971679688
0, 2, 12, 38.71028900146484
0, 2, 13, 48.21779632568359
0, 2, 14, 50.58185958862305
0, 2, 15, 49.92755508422852
0, 2, 16, 66.88983154296875
0, 2, 17, 78.72501373291016
0, 2, 18, 140.1282806396484
0, 2, 19, 605.3461303710938
0, 2, 20, 1287.372314453125
0, 2, 21, 1433.393798828125
0, 2, 22, 1458.488037109375
0, 2, 23, 1402.088134765625
0, 2, 24, 1442.505493164062
0, 2, 25, 1522.041625976562
0, 2, 26, 1560.639526367188
0, 2, 27, 1455.848510742188
0, 2, 28, 1458.028442382812
0, 2, 29, 1463.3232421875
0, 2, 30, 1461.90380859375
0, 2, 31, 1531.084228515625
0, 2, 32, 1505.335083007812
0, 2, 33, 1443.6044921875
0, 2, 34, 1475.834594726562
0, 2, 35, 1468.8974609375
0, 2, 36, 1527.132568359375
0, 2, 37, 1546.1357421875
0, 2, 38, 1507.275268554688
0, 2, 39, 1464.02197265625
0, 2, 40, 1505.270874023438
0, 2, 41, 1522.501708984375
0, 2, 42, 1505.310302734375
0, 2, 43, 1547.716186523438
0, 2, 44, 1454.639892578125
0, 2, 45, 1482.957275390625
0, 2, 46, 1424.661376953125
0, 2, 47, 1447.907104492188
0, 2, 48, 1398.94091796875
0, 2, 49, 1457.14306640625
0, 2, 50, 1445.058715820312
0, 2, 51, 1440.406982421875
0, 2, 52, 1491.739135742188
0, 2, 53, 1519.109252929688
0, 2, 54, 1526.225830078125
0, 2, 55, 1492.025390625
0, 2, 56, 1466.343872070312
0, 2, 57, 1412.514404296875
0, 2, 58, 1451.127319335938
0, 2, 59, 1452.15625
0, 2, 60, 1467.966796875
0, 2, 61, 1441.63720703125
0, 2, 62, 1472.604370117188
0, 2, 63, 1505.94970703125
0, 2, 64, 1457.258911132812
0, 2, 65, 1427.328857421875
0, 2, 66, 1486.456665039062
0, 2, 67, 1502.664794921875
0, 2, 68, 1547.168334960938
0, 2, 69, 1534.04248046875
0, 2, 70, 1508.208374023438
0, 2, 71, 1464.914916992188
0, 2, 72, 1516.014892578125
0, 2, 73, 1517.969848632812
0, 2, 74, 1489.428344726562
0, 2, 75, 1502.708374023438
0, 2, 76, 1446.941040039062
0, 2, 77, 1510.243286132812
0, 2, 78, 1433.016845703125
0, 2, 79, 1539.636840820312
0, 2, 80, 1480.004516601562
0, 2, 81, 1460.400756835938
0, 2, 82, 1560.105346679688
0, 2, 83, 1514.958740234375
0, 2, 84, 1492.646728515625
0, 2, 85, 1511.109619140625
0, 2, 86, 1545.367919921875
0, 2, 87, 1489.051635742188
0, 2, 88, 1540.92138671875
0, 2, 89, 1463.722778320312
0, 2, 90, 1430.398681640625
0, 2, 91, 1402.781127929688
0, 2, 92, 1481.1435546875
0, 2, 93, 1493.76708984375
0, 2, 94, 1451.876708984375
0, 2, 95, 1542.676879882812
0, 2, 96, 1513.18310546875
0, 2, 97, 1451.908447265625
0, 2, 98, 1464.057739257812
0, 2, 99, 1401.289916992188
0, 2, 100, 1474.159912109375
0, 2, 101, 1482.326538085938
0, 2, 102, 1461.979125976562
0, 2, 103, 1390.974609375
0, 2, 104, 1409.58544921875
0, 2, 105, 1396.233642578125
0, 2, 106, 1464.736694335938
0, 2, 107, 1275.131469726562
0, 2, 108, 623.6104736328125
0, 2, 109, 172.4408721923828
0, 2, 110, 65.30959320068359
0, 2, 111, 61.55538558959961
0, 2, 112, 49.28217315673828
0, 2, 113, 45.72794723510742
0, 2, 114, 38.44475936889648
0, 2, 115, 41.47149658203125
0, 2, 116, 31.42956733703613
0, 2, 117, 36.31566619873047
0, 2, 118, 29.70013999938965
0, 2, 119, 32.8041877746582
0, 2, 120, 35.90930557250977
0, 2, 121, 22.62589836120605
0, 2, 122, 28.95104598999023
0, 2, 123, 21.87353134155273
0, 2, 124, 21.75428581237793
0, 2, 125, 29.6740608215332
0, 2, 126, 18.07874488830566
0, 2, 127, 23.06347846984863
0, 3, 0, 14.70835208892822
0, 3, 1, 18.08711433410645
0, 3, 2, 28.16447257995605
0, 3, 3, 17.48930931091309
0, 3, 4, 21.17518615722656
0, 3, 5, 25.60445022583008
0, 3, 6, 34.24023056030273
0, 3, 7, 28.36600875854492
0, 3, 8, 30.15144157409668
0, 3, 9, 33.28813171386719
0, 3, 10, 37.15218353271484
0, 3, 11, 38.56052780151367
0, 3, 12, 43.43892288208008
0, 3, 13, 48.09463500976562
0, 3, 14, 58.61692047119141
0, 3, 15, 56.64921569824219
0, 3, 16, 67.05229187011719
0, 3, 17, 84.75034332275391
0, 3, 18, 243.5676879882812
0, 3, 19, 872.461181640625
0, 3, 20, 1384.014526367188
0, 3, 21, 1505.688842773438
0, 3, 22, 1463.3916015625
0, 3, 23, 1449.844848632812
0, 3, 24, 1432.812377929688
0, 3, 25, 1464.156127929688
0, 3, 26, 1492.889892578125
0, 3, 27, 1461.06494140625
0, 3, 28, 1490.170166015625
0, 3, 29, 1541.004638671875
0, 3, 30, 1570.099853515625
0, 3, 31, 1513.0947265625
0, 3, 32, 1544.338989257812
0, 3, 33, 1539.29541015625
0, 3, 34, 1488.873901367188
0, 3, 35, 1464.601196289062
0, 3, 36, 1452.23486328125
0, 3, 37, 1515.219116210938
0, 3, 38, 1515.397583007812
0, 3, 39, 1442.882568359375
0, 3, 40, 1441.959350585938
0, 3, 41, 1561.789794921875
0, 3, 42, 1458.344604492188
0, 3, 43, 1460.366943359375
0, 3, 44, 1451.649291992188
0, 3, 45, 1506.074829101562
0, 3, 46, 1501.999267578125
0, 3, 47, 1440.584838867188
0, 3, 48, 1508.973876953125
0, 3, 49, 1452.915161132812
0, 3, 50, 1485.88330078125
0, 3, 51, 1537.911499023438
0, 3, 52, 1539.117553710938
0, 3, 53, 1463.239013671875
0, 3, 54, 1536.376831054688
0, 3, 55, 1503.973999023438
0, 3, 56, 1431.640380859375
0, 3, 57, 1506.612670898438
0, 3, 58, 1516.928588867188
0, 3, 59, 1511.282958984375
0, 3, 60, 1534.328125
0, 3, 61, 1485.162475585938
0, 3, 62, 1492.910278320312
0, 3, 63, 1496.044555664062
0, 3, 64, 1501.510498046875
0, 3, 65, 1517.907470703125
0, 3, 66, 1554.558349609375
0, 3, 67, 1545.978149414062
0, 3, 68, 1444.307861328125
0, 3, 69, 1466.611328125
0, 3, 70, 1389.186401367188
0, 3, 71, 1463.938720703125
0, 3, 72, 1548.6337890625
0, 3, 73, 1497.800659179688
0, 3, 74, 1468.738647460938
0, 3, 75, 1462.163940429688
0, 3, 76, 1582.010620117188
0, 3, 77, 1542.262573242188
0, 3, 78, 1427.910278320312
0, 3, 79, 1489.815307617188
0, 3, 80, 1468.215698242188
0, 3, 81, 1477.279174804688
0, 3, 82, 1556.64013671875
0, 3, 83, 1515.277099609375
0, 3, 84, 1559.064208984375
0, 3, 85, 1475.408569335938
0, 3, 86, 1522.350708007812
0, 3, 87, 1533.678100585938
0, 3, 88, 1460.521118164062
0, 3, 89, 1444.386474609375
0, 3, 90, 1454.38671875
0, 3, 91, 1422.497924804688
0, 3, 92, 1515.291015625
0, 3, 93, 1496.775146484375
0, 3, 94, 1510.762817382812
0, 3, 95, 1539.744506835938
0, 3, 96, 1516.371826171875
0, 3, 97, 1464.351196289062
0, 3, 98, 1433.783325195312
0, 3, 99, 1468.966918945312
0, 3, 100, 1466.818969726562
0, 3, 101, 1470.790893554688
0, 3, 102, 1521.901733398438
0, 3, 103, 1556.275146484375
0, 3, 104, 1498.953125
0, 3, 105, 1513.187377929688
0, 3, 106, 1478.9384765625
0, 3, 107, 1344.27099609375
0, 3, 108, 871.808837890625
0, 3, 109, 262.8190002441406
0, 3, 110, 104.6837005615234
0, 3, 111, 68.07057952880859
0, 3, 112, 58.60397338867188
0, 3, 113, 51.76991271972656
0, 3, 114, 48.91782379150391
0, 3, 115, 47.49881362915039
0, 3, 116, 36.27321624755859
0, 3, 117, 40.69624328613281
0, 3, 118, 33.21749877929688
0, 3, 119, 30.92644119262695
0, 3, 120, 26.87668800354004
0, 3, 121, 21.85570526123047
0, 3, 122, 24.24531745910645
0, 3, 123, 27.40221214294434
0, 3, 124, 27.19239044189453
0, 3, 125, 25.21714019775391
0, 3, 126, 27.04376220703125
0, 3, 127, 18.65244102478027
0, 4, 0, 18.89414215087891
0, 4, 1, 23.26703834533691
0, 4, 2, 24.38854217529297
0, 4, 3, 21.81432914733887
0, 4, 4, 27.37888336181641
0, 4, 5, 31.22146224975586
0, 4, 6, 26.78437232971191
0, 4, 7, 33.96120071411133
0, 4, 8, 29.21206855773926
0, 4, 9, 35.20072174072266
0, 4, 10, 30.40912818908691
0, 4, 11, 37.96408081054688
0, 4, 12, 40.209228515625
0, 4, 13, 51.78043365478516
0, 4, 14, 47.69864273071289
0, 4, 15, 57.46377182006836
0, 4, 16, 69.33895111083984
0, 4, 17, 110.0690078735352
0, 4, 18, 444.6816711425781
0, 4, 19, 1182.959716796875
0, 4, 20, 1444.776977539062
0, 4, 21, 1416.947265625
0, 4, 22, 1436.532958984375
0, 4, 23, 1452.259521484375
0, 4, 24, 1482.432861328125
0, 4, 25, 1407.668823242188
0, 4, 26, 1535.356079101562
0, 4, 27, 1543.284423828125
0, 4, 28, 1504.347290039062
0, 4, 29, 1513.03955078125
0, 4, 30, 1529.615112304688
0, 4, 31, 1584.411254882812
0, 4, 32, 1517.728881835938
0, 4, 33, 1493.616943359375
0, 4, 34, 1472.8173828125
0, 4, 35, 1558.40625
0, 4, 36, 1506.47265625
0, 4, 37, 1511.194213867188
0, 4, 38, 1530.948486328125
0, 4, 39, 1468.90234375
0, 4, 40, 1513.623779296875
0, 4, 41, 1583.216674804688
0, 4, 42, 1562.665771484375
0, 4, 43, 1472.310913085938
0, 4, 44, 1497.0458984375
0, 4, 45, 1516.346313476562
0, 4, 46, 1465.663330078125
0, 4, 47, 1503.234741210938
0, 4, 48, 1525.583740234375
0, 4, 49, 1466.825805664062
0, 4, 50, 1515.203125
0, 4, 51, 1495.528564453125
0, 4, 52, 1495.947998046875
0, 4, 53, 1452.296020507812
0, 4, 54, 1440.04736328125
0, 4, 55, 1528.972412109375
0, 4, 56, 1455.171264648438
0, 4, 57, 1495.69580078125
0, 4, 58, 1458.163818359375
0, 4, 59, 1465.257202148438
0, 4, 60, 1522.593872070312
0, 4, 61, 1494.931640625
0, 4, 62, 1505.106567382812
0, 4, 63, 1542.312377929688
0, 4, 64, 1593.123046875
0, 4, 65, 1423.494018554688
0, 4, 66, 1514.537963867188
0, 4, 67, 1519.773071289062
0, 4, 68, 1497.619750976562
0, 4, 69, 1465.802124023438
0, 4, 70, 1548.048461914062
0, 4, 71, 1516.262939453125
0, 4, 72, 1527.018798828125
0, 4, 73, 1498.82177734375
0, 4, 74, 1489.260864257812
0, 4, 75, 1541.0966796875
0, 4, 76, 1483.962646484375
0, 4, 77, 1498.443115234375
0, 4, 78, 1500.780029296875
0, 4, 79, 1480.446533203125
0, 4, 80, 1513.482421875
0, 4, 81, 1527.02783203125
0, 4, 82, 1568.642822265625
0, 4, 83, 1504.57666015625
0, 4, 84, 1533.189086914062
0, 4, 85, 1554.211669921875
0, 4, 86, 1524.037353515625
0, 4, 87, 1498.928833007812
0, 4, 88, 1517.563232421875
0, 4, 89, 1482.31005859375
0, 4, 90, 1548.500610351562
0, 4, 91, 1553.623291015625
0, 4, 92, 1492.642211914062
0, 4, 93, 1511.671020507812
0, 4, 94, 1482.727783203125
0, 4, 95, 1507.266479492188
0, 4, 96, 1444.908813476562
0, 4, 97, 1407.80615234375
0, 4, 98, 1552.370727539062
0, 4, 99, 1510.906005859375
0, 4, 100, 1494.38134765625
0, 4, 101, 1448.087158203125
0, 4, 102, 1444.629516601562
0, 4, 103, 1515.903442382812
0, 4, 104, 1513.023193359375
0, 4, 105, 1556.428344726562
0, 4, 106, 1474.617919921875
0, 4, 107, 1456.299438476562
0, 4, 108, 1120.011474609375
0, 4, 109, 436.1957702636719
0, 4, 110, 94.92008972167969
0, 4, 111, 72.90301513671875
0, 4, 112, 62.56781387329102
0, 4, 113, 51.59411239624023
0, 4, 114, 52.45126724243164
0, 4, 115, 45.35129928588867
0, 4, 116, 40.83974456787109
0, 4, 117, 37.71255874633789
0, 4, 118, 44.2687873840332
0, 4, 119, 37.14873886108398
0, 4, 120, 38.87692642211914
0, 4, 121, 30.35644721984863
0, 4, 122, 29.64907264709473
0, 4, 123, 29.31683158874512
0, 4, 124, 22.98677635192871
0, 4, 125, 28.14301300048828
0, 4, 126, 21.05416297912598
0, 4, 127, 20.27154731750488
0, 5, 0, 21.71039772033691
0, 5, 1, 24.87799644470215
0, 5, 2, 30.29221725463867
0, 5, 3, 27.16801071166992
0, 5, 4, 21.5913257598877
0, 5, 5, 37.14830017089844
0, 5, 6, 31.94347190856934
0, 5, 7, 30.21479988098145
0, 5, 8, 29.94574928283691
0, 5, 9, 30.95673942565918
0, 5, 10, 31.40579605102539
0, 5, 11, 37.78095245361328
0, 5, 12, 38.4975471496582
0, 5, 13, 43.37159729003906
0, 5, 14, 58.89774322509766
0, 5, 15, 78.37567138671875
0, 5, 16, 86.50673675537109
0, 5, 17, 160.6545562744141
0, 5, 18, 674.8081665039062
0, 5, 19, 1346.026000976562
0, 5, 20, 1525.993530273438
0, 5, 21, 1494.505249023438
0, 5, 22, 1492.606811523438
0, 5, 23, 1528.001708984375
0, 5, 24, 1462.43798828125
0, 5, 25, 1431.578369140625
0, 5, 26, 1524.550903320312
0, 5, 27, 1542.501220703125
0, 5, 28, 1485.180786132812
0, 5, 29, 1521.267700195312
0, 5, 30, 1489.139038085938
0, 5, 31, 1503.915893554688
0, 5, 32, 1590.349853515625
0, 5, 33, 1501.972290039062
0, 5, 34, 1481.32470703125
0, 5, 35, 1510.616577148438
0, 5, 36, 1438.038696289062
0, 5, 37, 1531.265869140625
0, 5, 38, 1554.5185546875
0, 5, 39, 1544.238891601562
0, 5, 40, 1498.125732421875
0, 5, 41, 1479.406372070312
0, 5, 42, 1543.699096679688
0, 5, 43, 1529.640991210938
0, 5, 44, 1541.32568359375
0, 5, 45, 1507.599975585938
0, 5, 46, 1489.132690429688
0, 5, 47, 1482.264404296875
0, 5, 48, 1504.7451171875
0, 5, 49, 1529.860107421875
0, 5, 50, 1517.403198242188
0, 5, 51, 1519.064331054688
0, 5, 52, 1425.637939453125
0, 5, 53, 1526.20068359375
0, 5, 54, 1517.172607421875
0, 5, 55, 1522.42578125
0, 5, 56, 1485.022827148438
0, 5, 57, 1543.73486328125
0, 5, 58, 1506.970458984375
0, 5, 59, 1486.358764648438
0, 5, 60, 1538.815307617188
0, 5, 61, 1448.564453125
0, 5, 62, 1586.870239257812
0, 5, 63, 1434.6513671875
0, 5, 64, 1490.535034179688
0, 5, 65, 1466.984252929688
0, 5, 66, 1529.643798828125
0, 5, 67, 1557.99365234375
0, 5, 68, 1466.830688476562
0, 5, 69, 1482.4208984375
0, 5, 70, 1491.904174804688
0, 5, 71, 1469.6513671875
0, 5, 72, 1538.382934570312
0, 5, 73, 1458.7041015625
0, 5, 74, 1492.199584960938
0, 5, 75, 1488.6552734375
0, 5, 76, 1476.368774414062
0, 5, 77, 1515.86962890625
0, 5, 78, 1526.6826171875
0, 5, 79, 1513.572021484375
0, 5, 80, 1518.7724609375
0, 5, 81, 1597.53466796875
0, 5, 82, 1527.56689453125
0, 5, 83, 1485.44287109375
0, 5, 84, 1537.595703125
0, 5, 85, 1514.544311523438
0, 5, 86, 1558.907470703125
0, 5, 87, 1472.872436523438
0, 5, 88, 1496.881713867188
0, 5, 89, 1481.614501953125
0, 5, 90, 1477.720336914062
0, 5, 91, 1550.138061523438
0, 5, 92, 1480.2685546875
0, 5, 93, 1562.556762695312
0, 5, 94, 1509.198608398438
0, 5, 95, 1558.901245117188
0, 5, 96, 1500.691772460938
0, 5, 97, 1509.44384765625
0, 5, 98, 1512.569091796875
0, 5, 99, 1543.492309570312
0, 5, 100, 1432.593627929688
0, 5, 101, 1424.868530273438
0, 5, 102, 1510.754272460938
0, 5, 103, 1473.55517578125
0, 5, 104, 1461.713623046875
0, 5, 105, 1491.211303710938
0, 5, 106, 1463.045043945312
0, 5, 107, 1399.5517578125
0, 5, 108, 1287.248657226562
0, 5, 109, 722.2283325195312
0, 5, 110, 193.0361633300781
0, 5, 111, 86.77163696289062
0, 5, 112, 83.90443420410156
0, 5, 113, 62.54556655883789
0, 5, 114, 64.72148895263672
0, 5, 115, 55.94123458862305
0, 5, 116, 38.26224517822266
0, 5, 117, 37.9744873046875
0, 5, 118, 40.21648788452148
0, 5, 119, 29.01522064208984
0, 5, 120, 29.07115364074707
0, 5, 121, 27.8087329864502
0, 5, 122, 32.95826721191406
0, 5, 123, 24.63672637939453
0, 5, 124, 30.93698692321777
0, 5, 125, 28.84955596923828
0, 5, 126, 19.97943305969238
0, 5, 127, 21.4275016784668
0, 6, 0, 19.84324264526367
0, 6, 1, 29.75017356872559
0, 6, 2, 29.69147109985352
0, 6, 3, 24.63805770874023
0, 6, 4, 27.50139808654785
0, 6, 5, 34.85160827636719
0, 6, 6, 36.52581405639648
0, 6, 7, 33.47162246704102
0, 6, 8, 35.13293838500977
0, 6, 9, 34.98905181884766
0, 6, 10, 38.290283203125
0, 6, 11, 42.37276077270508
0, 6, 12, 41.02840423583984
0, 6, 13, 59.20744323730469
0, 6, 14, 61.25857543945312
0, 6, 15, 79.76058959960938
0, 6, 16, 110.9638824462891
0, 6, 17, 298.7765197753906
0, 6, 18, 900.506591796875
0, 6, 19, 1375.243896484375
0, 6, 20, 1439.963256835938
0, 6, 21, 1531.555297851562
0, 6, 22, 1500.309692382812
0, 6, 23, 1531.393676757812
0, 6, 24, 1477.6533203125
0, 6, 25, 1532.474365234375
0, 6, 26, 1519.634155273438
0, 6, 27, 1520.197509765625
0, 6, 28, 1549.556884765625
0, 6, 29, 1575.894775390625
0, 6, 30, 1522.06591796875
0, 6, 31, 1487.723388671875
0, 6, 32, 1526.796142578125
0, 6, 33, 1495.266845703125
0, 6, 34, 1558.83203125
0, 6, 35, 1506.622314453125
0, 6, 36, 1438.886840820312
0, 6, 37, 1544.767822265625
0, 6, 38, 1522.873901367188
0, 6, 39, 1523.085571289062
0, 6, 40, 1458.001708984375
0, 6, 41, 1437.50732421875
0, 6, 42, 1514.57470703125
0, 6, 43, 1490.85205078125
0, 6, 44, 1432.877319335938
0, 6, 45, 1548.613403320312
0, 6, 46, 1553.689331054688
0, 6, 47, 1496.843505859375
0, 6, 48, 1524.29736328125
0, 6, 49, 1515.414428710938
0, 6, 50, 1577.127197265625
0, 6, 51, 1502.4345703125
0, 6, 52, 1561.326416015625
0, 6, 53, 1474.922119140625
0, 6, 54, 1498.596313476562
0, 6, 55, 1574.4931640625
0, 6, 56, 1520.72119140625
0, 6, 57, 1503.069702148438
0, 6, 58, 1462.987670898438
0, 6, 59, 1520.024780273438
0, 6, 60, 1470.621704101562
0, 6, 61, 1572.20703125
0, 6, 62, 1544.550048828125
0, 6, 63, 1499.140502929688
0, 6, 64, 1407.2265625
0, 6, 65, 1492.478759765625
0, 6, 66, 1509.333618164062
0, 6, 67, 1512.732177734375
0, 6, 68, 1547.075927734375
0, 6, 69, 1484.647216796875
0, 6, 70, 1527.711181640625
0, 6, 71, 1473.144409179688
0, 6, 72, 1597.725463867188
0, 6, 73, 1489.662841796875
0, 6, 74, 1560.268188476562
0, 6, 75, 1541.0556640625
0, 6, 76, 1569.07763671875
0, 6, 77, 1507.921997070312
0, 6, 78, 1446.068359375
0, 6, 79, 1555.4609375
0, 6, 80, 1481.017700195312
0, 6, 81, 1485.26904296875
0, 6, 82, 1497.627807617188
0, 6, 83, 1526.423950195312
0, 6, 84, 1518.457885742188
0, 6, 85, 1533.35986328125
0, 6, 86, 1538.451416015625
0, 6, 87, 1581.53076171875
0, 6, 88, 1480.624755859375
0, 6, 89, 1565.663696289062
0, 6, 90, 1496.866333007812
0, 6, 91, 1539.417358398438
0, 6, 92, 1489.282104492188
0, 6, 93, 1498.927368164062
0, 6, 94, 1471.8466796875
0, 6, 95, 1510.01708984375
0, 6, 96, 1521.5771484375
0, 6, 97, 1508.153198242188
0, 6, 98, 1491.258911132812
0, 6, 99, 1482.3193359375
0, 6, 100, 1516.600219726562
0, 6, 101, 1516.615600585938
0, 6, 102, 1539.955078125
0, 6, 103, 1497.163696289062
0, 6, 104, 1468.910888671875
0, 6, 105, 1481.247192382812
0, 6, 106, 1495.201416015625
0, 6, 107, 1501.05029296875
0, 6, 108, 1410.866577148438
0, 6, 109, 923.9480590820312
0, 6, 110, 279.5701599121094
0, 6, 111, 92.53079986572266
0, 6, 112, 83.75907897949219
0, 6, 113, 62.85139083862305
0, 6, 114, 52.69432830810547
0, 6, 115, 41.67551422119141
0, 6, 116, 39.88940048217773
0, 6, 117, 38.06083679199219
0, 6, 118, 43.33125305175781
0, 6, 119, 40.43810272216797
0, 6, 120, 33.02019119262695
0, 6, 121, 28.26631164550781
0, 6, 122, 27.62991714477539
0, 6, 123, 24.31228637695312
0, 6, 124, 27.27917098999023
0, 6, 125, 32.18679428100586
0, 6, 126, 22.98428344726562
0, 6, 127, 23.23746109008789
0, 7, 0, 19.22424125671387
0, 7, 1, 29.69462966918945
0, 7, 2, 22.52988243103027
0, 7, 3, 26.17817687988281
0, 7, 4, 27.38087463378906
0, 7, 5, 33.51611328125
0, 7, 6, 35.24926376342773
0, 7, 7, 39.70973968505859
0, 7, 8, 31.48814010620117
0, 7, 9, 41.19638442993164
0, 7, 10, 48.24551391601562
0, 7, 11, 49.69964599609375
0, 7, 12, 45.25554275512695
0, 7, 13, 53.94864654541016
0, 7, 14, 62.80010986328125
0, 7, 15, 77.00653839111328
0, 7, 16, 130.9087982177734
0, 7, 17, 459.3544921875
0, 7, 18, 1100.833374023438
0, 7, 19, 1501.784301757812
0, 7, 20, 1487.31005859375
0, 7, 21, 1364.36474609375
0, 7, 22, 1484.195068359375
0, 7, 23, 1458.12060546875
0, 7, 24, 1511.568603515625
0, 7, 25, 1598.652221679688
0, 7, 26, 1521.937744140625
0, 7, 27, 1511.00732421875
0, 7, 28, 1555.51025390625
0, 7, 29, 1576.494873046875
0, 7, 30, 1547.315307617188
0, 7, 31, 1439.016357421875
0, 7, 32, 1546.40771484375
0, 7, 33, 1488.781860351562
0, 7, 34, 1483.983032226562
0, 7, 35, 1531.55908203125
0, 7, 36, 1476.546630859375
0, 7, 37, 1599.04931640625
0, 7, 38, 1506.3994140625
0, 7, 39, 1492.080688476562
0, 7, 40, 1541.342163085938
0, 7, 41, 1464.413818359375
0, 7, 42, 1488.202026367188
0, 7, 43, 1444.072265625
0, 7, 44, 1486.595092773438
0, 7, 45, 1469.1630859375
0, 7, 46, 1514.856811523438
0, 7, 47, 1569.292602539062
0, 7, 48, 1525.582275390625
0, 7, 49, 1541.4521484375
0, 7, 50, 1512.402099609375
0, 7, 51, 1499.863159179688
0, 7, 52, 1518.908935546875
0, 7, 53, 1495.527587890625
0, 7, 54, 1589.25
0, 7, 55, 1471.44873046875
0, 7, 56, 1554.765014648438
0, 7, 57, 1515.615234375
0, 7, 58, 1550.16357421875
0, 7, 59, 1540.835205078125
0, 7, 60, 1549.310424804688
0, 7, 61, 1491.506958007812
0, 7, 62, 1434.064697265625
0, 7, 63, 1514.900634765625
0, 7, 64, 1545.197631835938
0, 7, 65, 1529.04052734375
0, 7, 66, 1540.001953125
0, 7, 67, 1578.259887695312
0, 7, 68, 1530.4970703125
0, 7, 69, 1515.3193359375
0, 7, 70, 1496.51123046875
0, 7, 71, 1520.8759765625
0, 7, 72, 1521.470092773438
0, 7, 73, 1520.807495117188
0, 7, 74, 1577.596557617188
0, 7, 75, 1539.022583007812
0, 7, 76, 1555.113891601562
0, 7, 77, 1511.07080078125
0, 7, 78, 1506.580932617188
0, 7, 79, 1423.347534179688
0, 7, 80, 1490.603759765625
0, 7, 81, 1493.57421875
0, 7, 82, 1535.805786132812
0, 7, 83, 1547.364990234375
0, 7, 84, 1586.958251953125
0, 7, 85, 1481.062744140625
0, 7, 86, 1503.1005859375
0, 7, 87, 1510.140991210938
0, 7, 88, 1502.592041015625
0, 7, 89, 1561.934692382812
0, 7, 90, 1520.002319335938
0, 7, 91, 1558.881469726562
0, 7, 92, 1528.945068359375
0, 7, 93, 1551.966674804688
0, 7, 94, 1537.537841796875
0, 7, 95, 1504.12939453125
0, 7, 96, 1502.286376953125
0, 7, 97, 1430.925048828125
0, 7, 98, 1484.23388671875
0, 7, 99, 1525.808349609375
0, 7, 100, 1419.752075195312
0, 7, 101, 1463.930541992188
0, 7, 102, 1448.603881835938
0, 7, 103, 1431.0107421875
0, 7, 104, 1491.640380859375
0, 7, 105, 1525.2138671875
0, 7, 106, 1566.555419921875
0, 7, 107, 1483.277099609375
0, 7, 108, 1411.641845703125
0, 7, 109, 1149.389526367188
0, 7, 110, 471.2895812988281
0, 7, 111, 125.3878631591797
0, 7, 112, 76.01598358154297
0, 7, 113, 72.03691864013672
0, 7, 114, 60.21149444580078
0, 7, 115, 51.89870452880859
0, 7, 116, 41.07893753051758
0, 7, 117, 45.42536544799805
0, 7, 118, 33.57653427124023
0, 7, 119, 33.87167358398438
0, 7, 120, 22.80354690551758
0, 7, 121, 33.94332885742188
0, 7, 122, 35.15508270263672
0, 7, 123, 42.51205444335938
0, 7, 124, 28.76134872436523
0, 7, 125, 23.12079048156738
0, 7, 126, 28.65462303161621
0, 7, 127, 27.79459953308105
0, 8, 0, 23.31586647033691
0, 8, 1, 20.81006050109863
0, 8, 2, 23.51006889343262
0, 8, 3, 29.05283737182617
0, 8, 4, 22.39123344421387
0, 8, 5, 31.61145973205566
0, 8, 6, 29.01646614074707
0, 8, 7, 23.04686546325684
0, 8, 8, 36.05057144165039
0, 8, 9, 43.23489761352539
0, 8, 10, 42.6153450012207
0, 8, 11, 41.81682586669922
0, 8, 12, 52.23153686523438
0, 8, 13, 70.16585540771484
0, 8, 14, 70.51725769042969
0, 8, 15, 86.76493835449219
0, 8, 16, 164.2803344726562
0, 8, 17, 672.9058227539062
0, 8, 18, 1273.551147460938
0, 8, 19, 1447.743041992188
0, 8, 20, 1418.085327148438
0, 8, 21, 1411.205932617188
0, 8, 22, 1486.49609375
0, 8, 23, 1482.436889648438
0, 8, 24, 1431.702880859375
0, 8, 25, 1457.160034179688
0, 8, 26, 1515.597412109375
0, 8, 27, 1527.216430664062
0, 8, 28, 1474.669921875
0, 8, 29, 1507.732177734375
0, 8, 30, 1484.884521484375
0, 8, 31, 1532.954345703125
0, 8, 32, 1510.0224609375
0, 8, 33, 1483.90576171875
0, 8, 34, 1530.825805664062
0, 8, 35, 1441.431396484375
0, 8, 36, 1497.192016601562
0, 8, 37, 1553.517211914062
0, 8, 38, 1558.39306640625
0, 8, 39, 1489.551147460938
0, 8, 40, 1530.840087890625
0, 8, 41, 1485.730102539062
0, 8, 42, 1540.90869140625
0, 8, 43, 1435.810180664062
0, 8, 44, 1532.958618164062
0, 8, 45, 1507.014770507812
0, 8, 46, 1598.761108398438
