# TOPAS Version: 3.1.p3
# Parameter File: batch_inserts_158.txt
# Results for scorer Readout_Adipose
# Scored in component: MyBox
# X in 1 bin  of 0.75 cm
# Y in 512 bins of 0.0783984 cm
# Z in 128 bins of 0.078125 cm
# EnergyDeposit ( MeV ) : Sum   
0, 0, 0, 21.41203117370605
0, 0, 1, 25.17385864257812
0, 0, 2, 26.29751586914062
0, 0, 3, 20.32223510742188
0, 0, 4, 16.73894500732422
0, 0, 5, 21.02668380737305
0, 0, 6, 25.8156623840332
0, 0, 7, 36.68851089477539
0, 0, 8, 26.05045890808105
0, 0, 9, 25.80084037780762
0, 0, 10, 22.30071640014648
0, 0, 11, 23.33381462097168
0, 0, 12, 36.2867317199707
0, 0, 13, 39.41849517822266
0, 0, 14, 35.16459655761719
0, 0, 15, 44.42512512207031
0, 0, 16, 41.60596084594727
0, 0, 17, 47.62435150146484
0, 0, 18, 76.24091339111328
0, 0, 19, 189.3382263183594
0, 0, 20, 698.50146484375
0, 0, 21, 1191.28271484375
0, 0, 22, 1244.967651367188
0, 0, 23, 1273.09912109375
0, 0, 24, 1279.271362304688
0, 0, 25, 1356.065185546875
0, 0, 26, 1268.952026367188
0, 0, 27, 1280.947021484375
0, 0, 28, 1324.295776367188
0, 0, 29, 1271.403076171875
0, 0, 30, 1262.090087890625
0, 0, 31, 1277.727783203125
0, 0, 32, 1263.72607421875
0, 0, 33, 1242.551513671875
0, 0, 34, 1324.1572265625
0, 0, 35, 1302.880981445312
0, 0, 36, 1246.693115234375
0, 0, 37, 1280.486694335938
0, 0, 38, 1244.182983398438
0, 0, 39, 1246.099609375
0, 0, 40, 1230.911743164062
0, 0, 41, 1266.906005859375
0, 0, 42, 1253.708984375
0, 0, 43, 1266.37451171875
0, 0, 44, 1226.410278320312
0, 0, 45, 1286.40087890625
0, 0, 46, 1265.422729492188
0, 0, 47, 1239.969970703125
0, 0, 48, 1273.9296875
0, 0, 49, 1291.266845703125
0, 0, 50, 1312.517578125
0, 0, 51, 1262.596923828125
0, 0, 52, 1358.65869140625
0, 0, 53, 1328.109497070312
0, 0, 54, 1295.27685546875
0, 0, 55, 1236.60205078125
0, 0, 56, 1320.088012695312
0, 0, 57, 1289.194091796875
0, 0, 58, 1256.7705078125
0, 0, 59, 1330.93701171875
0, 0, 60, 1328.870971679688
0, 0, 61, 1261.223754882812
0, 0, 62, 1245.311767578125
0, 0, 63, 1273.683959960938
0, 0, 64, 1328.61328125
0, 0, 65, 1281.660522460938
0, 0, 66, 1314.746948242188
0, 0, 67, 1211.309814453125
0, 0, 68, 1310.955200195312
0, 0, 69, 1327.831787109375
0, 0, 70, 1346.26318359375
0, 0, 71, 1288.171142578125
0, 0, 72, 1311.703735351562
0, 0, 73, 1237.886962890625
0, 0, 74, 1287.474243164062
0, 0, 75, 1299.891723632812
0, 0, 76, 1257.248168945312
0, 0, 77, 1287.292236328125
0, 0, 78, 1322.232543945312
0, 0, 79, 1328.982299804688
0, 0, 80, 1263.770629882812
0, 0, 81, 1324.221313476562
0, 0, 82, 1286.189575195312
0, 0, 83, 1288.460815429688
0, 0, 84, 1327.822509765625
0, 0, 85, 1235.69873046875
0, 0, 86, 1266.9560546875
0, 0, 87, 1256.120483398438
0, 0, 88, 1253.745971679688
0, 0, 89, 1330.95361328125
0, 0, 90, 1277.60546875
0, 0, 91, 1356.321044921875
0, 0, 92, 1299.6806640625
0, 0, 93, 1271.448364257812
0, 0, 94, 1249.395874023438
0, 0, 95, 1324.3837890625
0, 0, 96, 1282.13232421875
0, 0, 97, 1329.062866210938
0, 0, 98, 1256.353637695312
0, 0, 99, 1249.268798828125
0, 0, 100, 1285.928466796875
0, 0, 101, 1320.551879882812
0, 0, 102, 1234.933715820312
0, 0, 103, 1320.943359375
0, 0, 104, 1263.096923828125
0, 0, 105, 1275.287353515625
0, 0, 106, 1207.154052734375
0, 0, 107, 780.8433837890625
0, 0, 108, 194.1042633056641
0, 0, 109, 70.23891448974609
0, 0, 110, 67.16836547851562
0, 0, 111, 39.15132904052734
0, 0, 112, 35.5692024230957
0, 0, 113, 31.16527557373047
0, 0, 114, 36.53148651123047
0, 0, 115, 31.6524829864502
0, 0, 116, 27.05009460449219
0, 0, 117, 33.35349655151367
0, 0, 118, 28.10916328430176
0, 0, 119, 18.26796722412109
0, 0, 120, 22.6498851776123
0, 0, 121, 27.29125022888184
0, 0, 122, 23.43073844909668
0, 0, 123, 18.56698036193848
0, 0, 124, 20.13228607177734
0, 0, 125, 15.67209911346436
0, 0, 126, 23.18881988525391
0, 0, 127, 13.66499614715576
0, 1, 0, 24.34709930419922
0, 1, 1, 21.23271369934082
0, 1, 2, 21.88398170471191
0, 1, 3, 26.96094703674316
0, 1, 4, 24.98494911193848
0, 1, 5, 30.77565765380859
0, 1, 6, 26.37368774414062
0, 1, 7, 30.58321380615234
0, 1, 8, 33.76428604125977
0, 1, 9, 29.03979301452637
0, 1, 10, 34.248779296875
0, 1, 11, 42.21694564819336
0, 1, 12, 40.09920883178711
0, 1, 13, 43.44398498535156
0, 1, 14, 43.16611480712891
0, 1, 15, 47.13505554199219
0, 1, 16, 60.36073303222656
0, 1, 17, 56.22502136230469
0, 1, 18, 98.45565795898438
0, 1, 19, 400.5823364257812
0, 1, 20, 1043.109497070312
0, 1, 21, 1374.387817382812
0, 1, 22, 1478.930297851562
0, 1, 23, 1458.32275390625
0, 1, 24, 1450.058349609375
0, 1, 25, 1418.820068359375
0, 1, 26, 1476.120239257812
0, 1, 27, 1469.102905273438
0, 1, 28, 1492.860717773438
0, 1, 29, 1479.154418945312
0, 1, 30, 1504.349975585938
0, 1, 31, 1487.238647460938
0, 1, 32, 1409.087890625
0, 1, 33, 1501.942016601562
0, 1, 34, 1498.093505859375
0, 1, 35, 1460.273193359375
0, 1, 36, 1492.551879882812
0, 1, 37, 1413.741577148438
0, 1, 38, 1390.282958984375
0, 1, 39, 1522.293701171875
0, 1, 40, 1461.225463867188
0, 1, 41, 1493.591186523438
0, 1, 42, 1492.840698242188
0, 1, 43, 1497.6865234375
0, 1, 44, 1451.385864257812
0, 1, 45, 1491.46875
0, 1, 46, 1422.829345703125
0, 1, 47, 1428.77392578125
0, 1, 48, 1429.053100585938
0, 1, 49, 1493.942260742188
0, 1, 50, 1441.308471679688
0, 1, 51, 1478.60888671875
0, 1, 52, 1482.841918945312
0, 1, 53, 1477.92333984375
0, 1, 54, 1505.445190429688
0, 1, 55, 1494.67529296875
0, 1, 56, 1470.896362304688
0, 1, 57, 1458.427734375
0, 1, 58, 1431.313110351562
0, 1, 59, 1483.933227539062
0, 1, 60, 1463.717895507812
0, 1, 61, 1454.7666015625
0, 1, 62, 1453.531372070312
0, 1, 63, 1415.790771484375
0, 1, 64, 1471.867309570312
0, 1, 65, 1420.7373046875
0, 1, 66, 1436.59375
0, 1, 67, 1454.368408203125
0, 1, 68, 1385.2939453125
0, 1, 69, 1465.029907226562
0, 1, 70, 1436.487060546875
0, 1, 71, 1496.286743164062
0, 1, 72, 1432.312744140625
0, 1, 73, 1487.097534179688
0, 1, 74, 1469.986328125
0, 1, 75, 1475.721801757812
0, 1, 76, 1453.635009765625
0, 1, 77, 1463.398681640625
0, 1, 78, 1450.761474609375
0, 1, 79, 1501.476196289062
0, 1, 80, 1451.902099609375
0, 1, 81, 1424.845825195312
0, 1, 82, 1473.454345703125
0, 1, 83, 1468.700439453125
0, 1, 84, 1537.058471679688
0, 1, 85, 1447.33154296875
0, 1, 86, 1408.496459960938
0, 1, 87, 1424.080810546875
0, 1, 88, 1473.500854492188
0, 1, 89, 1476.135986328125
0, 1, 90, 1424.138793945312
0, 1, 91, 1462.530517578125
0, 1, 92, 1409.978637695312
0, 1, 93, 1461.280029296875
0, 1, 94, 1467.640380859375
0, 1, 95, 1420.95458984375
0, 1, 96, 1498.723999023438
0, 1, 97, 1520.912109375
0, 1, 98, 1478.117797851562
0, 1, 99, 1418.740356445312
0, 1, 100, 1449.622802734375
0, 1, 101, 1413.578857421875
0, 1, 102, 1440.754638671875
0, 1, 103, 1413.429321289062
0, 1, 104, 1412.64794921875
0, 1, 105, 1465.506713867188
0, 1, 106, 1368.42529296875
0, 1, 107, 1021.008728027344
0, 1, 108, 401.7679443359375
0, 1, 109, 90.97232055664062
0, 1, 110, 65.52316284179688
0, 1, 111, 55.12349319458008
0, 1, 112, 47.71157836914062
0, 1, 113, 35.64577102661133
0, 1, 114, 36.05979919433594
0, 1, 115, 35.95629501342773
0, 1, 116, 36.80391693115234
0, 1, 117, 37.06719589233398
0, 1, 118, 35.36039733886719
0, 1, 119, 27.88320350646973
0, 1, 120, 28.67119598388672
0, 1, 121, 29.71853256225586
0, 1, 122, 20.55752563476562
0, 1, 123, 24.96833229064941
0, 1, 124, 27.19802093505859
0, 1, 125, 20.45013809204102
0, 1, 126, 21.66473007202148
0, 1, 127, 23.1351375579834
0, 2, 0, 17.54591941833496
0, 2, 1, 18.39570808410645
0, 2, 2, 23.30967903137207
0, 2, 3, 20.57483673095703
0, 2, 4, 21.35442733764648
0, 2, 5, 28.71539878845215
0, 2, 6, 25.45897483825684
0, 2, 7, 19.93756294250488
0, 2, 8, 28.38613319396973
0, 2, 9, 30.15115928649902
0, 2, 10, 30.62339210510254
0, 2, 11, 35.69730377197266
0, 2, 12, 40.78677749633789
0, 2, 13, 42.60171890258789
0, 2, 14, 52.87236404418945
0, 2, 15, 47.39723205566406
0, 2, 16, 65.14717102050781
0, 2, 17, 79.07280731201172
0, 2, 18, 142.0801391601562
0, 2, 19, 603.9926147460938
0, 2, 20, 1284.643920898438
0, 2, 21, 1438.06005859375
0, 2, 22, 1463.448852539062
0, 2, 23, 1405.043701171875
0, 2, 24, 1440.49755859375
0, 2, 25, 1523.754150390625
0, 2, 26, 1554.124877929688
0, 2, 27, 1457.817993164062
0, 2, 28, 1457.959106445312
0, 2, 29, 1462.654174804688
0, 2, 30, 1464.491333007812
0, 2, 31, 1532.02392578125
0, 2, 32, 1507.535400390625
0, 2, 33, 1442.362426757812
0, 2, 34, 1473.832885742188
0, 2, 35, 1467.052368164062
0, 2, 36, 1522.452880859375
0, 2, 37, 1542.653076171875
0, 2, 38, 1506.894653320312
0, 2, 39, 1465.426879882812
0, 2, 40, 1506.9287109375
0, 2, 41, 1519.051635742188
0, 2, 42, 1507.80078125
0, 2, 43, 1549.938598632812
0, 2, 44, 1454.305297851562
0, 2, 45, 1479.948486328125
0, 2, 46, 1428.827270507812
0, 2, 47, 1441.717041015625
0, 2, 48, 1393.468505859375
0, 2, 49, 1457.904663085938
0, 2, 50, 1442.589599609375
0, 2, 51, 1442.623046875
0, 2, 52, 1492.428833007812
0, 2, 53, 1527.529907226562
0, 2, 54, 1525.059936523438
0, 2, 55, 1494.076782226562
0, 2, 56, 1458.839111328125
0, 2, 57, 1412.573120117188
0, 2, 58, 1454.382934570312
0, 2, 59, 1452.5009765625
0, 2, 60, 1470.52392578125
0, 2, 61, 1444.533203125
0, 2, 62, 1472.247924804688
0, 2, 63, 1506.850341796875
0, 2, 64, 1459.88671875
0, 2, 65, 1426.428833007812
0, 2, 66, 1486.994750976562
0, 2, 67, 1508.409912109375
0, 2, 68, 1542.158813476562
0, 2, 69, 1537.927734375
0, 2, 70, 1510.416748046875
0, 2, 71, 1463.643920898438
0, 2, 72, 1513.8310546875
0, 2, 73, 1520.383178710938
0, 2, 74, 1492.013916015625
0, 2, 75, 1501.645751953125
0, 2, 76, 1457.78271484375
0, 2, 77, 1507.021118164062
0, 2, 78, 1436.30224609375
0, 2, 79, 1540.5712890625
0, 2, 80, 1476.7275390625
0, 2, 81, 1464.449340820312
0, 2, 82, 1556.097778320312
0, 2, 83, 1518.512084960938
0, 2, 84, 1488.406982421875
0, 2, 85, 1516.272338867188
0, 2, 86, 1541.35009765625
0, 2, 87, 1489.3740234375
0, 2, 88, 1537.1650390625
0, 2, 89, 1462.1083984375
0, 2, 90, 1430.631713867188
0, 2, 91, 1406.559326171875
0, 2, 92, 1479.99951171875
0, 2, 93, 1491.968383789062
0, 2, 94, 1452.813232421875
0, 2, 95, 1548.721923828125
0, 2, 96, 1515.64306640625
0, 2, 97, 1452.5830078125
0, 2, 98, 1463.370483398438
0, 2, 99, 1402.057861328125
0, 2, 100, 1468.239135742188
0, 2, 101, 1480.235473632812
0, 2, 102, 1461.050170898438
0, 2, 103, 1390.547485351562
0, 2, 104, 1409.989624023438
0, 2, 105, 1398.142333984375
0, 2, 106, 1455.299194335938
0, 2, 107, 1273.220703125
0, 2, 108, 620.8928833007812
0, 2, 109, 173.6595611572266
0, 2, 110, 70.75355529785156
0, 2, 111, 65.12933349609375
0, 2, 112, 53.40103912353516
0, 2, 113, 44.98280334472656
0, 2, 114, 33.39941787719727
0, 2, 115, 42.32622146606445
0, 2, 116, 35.85869979858398
0, 2, 117, 35.75303649902344
0, 2, 118, 37.41472625732422
0, 2, 119, 36.38509368896484
0, 2, 120, 28.74393844604492
0, 2, 121, 22.41312408447266
0, 2, 122, 29.05098915100098
0, 2, 123, 21.0562801361084
0, 2, 124, 22.25864410400391
0, 2, 125, 27.24051856994629
0, 2, 126, 14.56752777099609
0, 2, 127, 21.28347587585449
0, 3, 0, 13.6764087677002
0, 3, 1, 20.67331314086914
0, 3, 2, 26.41975402832031
0, 3, 3, 20.06904029846191
0, 3, 4, 24.59566497802734
0, 3, 5, 28.49039649963379
0, 3, 6, 35.47723388671875
0, 3, 7, 30.35614204406738
0, 3, 8, 29.30188751220703
0, 3, 9, 35.34319305419922
0, 3, 10, 34.63725662231445
0, 3, 11, 36.61404418945312
0, 3, 12, 49.09194946289062
0, 3, 13, 53.55374526977539
0, 3, 14, 56.37928771972656
0, 3, 15, 52.42288589477539
0, 3, 16, 69.67616271972656
0, 3, 17, 87.42417144775391
0, 3, 18, 240.9724578857422
0, 3, 19, 877.1483154296875
0, 3, 20, 1389.1259765625
0, 3, 21, 1507.414306640625
0, 3, 22, 1461.225341796875
0, 3, 23, 1451.159301757812
0, 3, 24, 1437.265380859375
0, 3, 25, 1464.962890625
0, 3, 26, 1495.5283203125
0, 3, 27, 1463.451538085938
0, 3, 28, 1485.881469726562
0, 3, 29, 1542.100341796875
0, 3, 30, 1571.655151367188
0, 3, 31, 1505.225952148438
0, 3, 32, 1549.857543945312
0, 3, 33, 1541.284423828125
0, 3, 34, 1490.9248046875
0, 3, 35, 1464.59814453125
0, 3, 36, 1448.691772460938
0, 3, 37, 1516.767700195312
0, 3, 38, 1517.24072265625
0, 3, 39, 1436.948852539062
0, 3, 40, 1437.210327148438
0, 3, 41, 1560.947265625
0, 3, 42, 1464.065185546875
0, 3, 43, 1462.0546875
0, 3, 44, 1448.28955078125
0, 3, 45, 1508.078979492188
0, 3, 46, 1506.88427734375
0, 3, 47, 1445.234252929688
0, 3, 48, 1510.080322265625
0, 3, 49, 1452.12548828125
0, 3, 50, 1496.12109375
0, 3, 51, 1537.449584960938
0, 3, 52, 1537.202270507812
0, 3, 53, 1465.221313476562
0, 3, 54, 1538.440185546875
0, 3, 55, 1507.575073242188
0, 3, 56, 1435.689453125
0, 3, 57, 1504.57763671875
0, 3, 58, 1514.578002929688
0, 3, 59, 1509.048950195312
0, 3, 60, 1532.8173828125
0, 3, 61, 1483.775756835938
0, 3, 62, 1494.197387695312
0, 3, 63, 1490.2158203125
0, 3, 64, 1497.321533203125
0, 3, 65, 1511.366943359375
0, 3, 66, 1556.69775390625
0, 3, 67, 1550.498291015625
0, 3, 68, 1449.82470703125
0, 3, 69, 1464.45654296875
0, 3, 70, 1391.145385742188
0, 3, 71, 1460.287231445312
0, 3, 72, 1544.997192382812
0, 3, 73, 1503.281616210938
0, 3, 74, 1463.768798828125
0, 3, 75, 1456.832763671875
0, 3, 76, 1573.714477539062
0, 3, 77, 1542.191650390625
0, 3, 78, 1437.622680664062
0, 3, 79, 1492.404418945312
0, 3, 80, 1460.732299804688
0, 3, 81, 1471.102783203125
0, 3, 82, 1556.311157226562
0, 3, 83, 1512.489379882812
0, 3, 84, 1560.41259765625
0, 3, 85, 1484.232666015625
0, 3, 86, 1520.796142578125
0, 3, 87, 1535.967651367188
0, 3, 88, 1457.166259765625
0, 3, 89, 1450.678588867188
0, 3, 90, 1456.941650390625
0, 3, 91, 1422.9130859375
0, 3, 92, 1514.595947265625
0, 3, 93, 1500.902221679688
0, 3, 94, 1511.362060546875
0, 3, 95, 1538.849243164062
0, 3, 96, 1519.494018554688
0, 3, 97, 1466.403686523438
0, 3, 98, 1435.307373046875
0, 3, 99, 1468.253540039062
0, 3, 100, 1470.796997070312
0, 3, 101, 1477.431396484375
0, 3, 102, 1523.016357421875
0, 3, 103, 1555.279296875
0, 3, 104, 1497.064697265625
0, 3, 105, 1512.233642578125
0, 3, 106, 1480.922729492188
0, 3, 107, 1342.343383789062
0, 3, 108, 874.0733642578125
0, 3, 109, 260.8503723144531
0, 3, 110, 104.8379516601562
0, 3, 111, 65.26973724365234
0, 3, 112, 55.27624130249023
0, 3, 113, 47.40718078613281
0, 3, 114, 49.93076705932617
0, 3, 115, 52.58319473266602
0, 3, 116, 38.62939453125
0, 3, 117, 39.03902816772461
0, 3, 118, 39.3934326171875
0, 3, 119, 29.83354759216309
0, 3, 120, 30.46764373779297
0, 3, 121, 18.49771118164062
0, 3, 122, 23.33606910705566
0, 3, 123, 23.93811225891113
0, 3, 124, 23.90019416809082
0, 3, 125, 29.955078125
0, 3, 126, 26.13448333740234
0, 3, 127, 13.33858680725098
0, 4, 0, 23.16704559326172
0, 4, 1, 23.89770126342773
0, 4, 2, 23.1791820526123
0, 4, 3, 16.34705543518066
0, 4, 4, 27.89554977416992
0, 4, 5, 28.55791091918945
0, 4, 6, 30.48196792602539
0, 4, 7, 29.96342849731445
0, 4, 8, 28.70326805114746
0, 4, 9, 33.96335983276367
0, 4, 10, 32.59025955200195
0, 4, 11, 38.21394729614258
0, 4, 12, 45.3704948425293
0, 4, 13, 52.07180023193359
0, 4, 14, 55.66608428955078
0, 4, 15, 55.76437377929688
0, 4, 16, 74.54864501953125
0, 4, 17, 114.2215347290039
0, 4, 18, 446.9883117675781
0, 4, 19, 1181.407958984375
0, 4, 20, 1446.94970703125
0, 4, 21, 1420.601928710938
0, 4, 22, 1432.5048828125
0, 4, 23, 1451.810791015625
0, 4, 24, 1475.024047851562
0, 4, 25, 1403.085815429688
0, 4, 26, 1533.184936523438
0, 4, 27, 1546.253173828125
0, 4, 28, 1508.079345703125
0, 4, 29, 1517.1328125
0, 4, 30, 1530.898315429688
0, 4, 31, 1577.494873046875
0, 4, 32, 1514.6865234375
0, 4, 33, 1491.946655273438
0, 4, 34, 1467.06494140625
0, 4, 35, 1560.066284179688
0, 4, 36, 1507.667114257812
0, 4, 37, 1513.423095703125
0, 4, 38, 1536.117065429688
0, 4, 39, 1470.1533203125
0, 4, 40, 1515.524169921875
0, 4, 41, 1586.333618164062
0, 4, 42, 1562.176879882812
0, 4, 43, 1475.731689453125
0, 4, 44, 1498.233276367188
0, 4, 45, 1519.304565429688
0, 4, 46, 1464.744262695312
0, 4, 47, 1504.231811523438
0, 4, 48, 1524.522705078125
0, 4, 49, 1470.943115234375
0, 4, 50, 1516.808471679688
0, 4, 51, 1491.772583007812
0, 4, 52, 1492.58447265625
0, 4, 53, 1456.90185546875
0, 4, 54, 1442.252685546875
0, 4, 55, 1527.7421875
0, 4, 56, 1453.697143554688
0, 4, 57, 1496.446899414062
0, 4, 58, 1462.353637695312
0, 4, 59, 1469.534057617188
0, 4, 60, 1525.270263671875
0, 4, 61, 1503.310913085938
0, 4, 62, 1504.392211914062
0, 4, 63, 1546.729736328125
0, 4, 64, 1593.941772460938
0, 4, 65, 1423.738159179688
0, 4, 66, 1515.541870117188
0, 4, 67, 1519.740478515625
0, 4, 68, 1496.160888671875
0, 4, 69, 1467.567138671875
0, 4, 70, 1544.00244140625
0, 4, 71, 1516.813110351562
0, 4, 72, 1530.6015625
0, 4, 73, 1490.025390625
0, 4, 74, 1487.245727539062
0, 4, 75, 1536.362182617188
0, 4, 76, 1480.324340820312
0, 4, 77, 1504.528442382812
0, 4, 78, 1502.580688476562
0, 4, 79, 1484.049682617188
0, 4, 80, 1513.774169921875
0, 4, 81, 1526.3994140625
0, 4, 82, 1570.831665039062
0, 4, 83, 1505.394775390625
0, 4, 84, 1535.394897460938
0, 4, 85, 1550.386962890625
0, 4, 86, 1522.163330078125
0, 4, 87, 1497.075439453125
0, 4, 88, 1517.062866210938
0, 4, 89, 1484.178588867188
0, 4, 90, 1550.60546875
0, 4, 91, 1558.282104492188
0, 4, 92, 1496.943359375
0, 4, 93, 1515.313598632812
0, 4, 94, 1481.85595703125
0, 4, 95, 1506.04443359375
0, 4, 96, 1443.115112304688
0, 4, 97, 1403.926391601562
0, 4, 98, 1557.164672851562
0, 4, 99, 1508.185424804688
0, 4, 100, 1491.693725585938
0, 4, 101, 1448.326049804688
0, 4, 102, 1442.490600585938
0, 4, 103, 1515.759643554688
0, 4, 104, 1510.0263671875
0, 4, 105, 1553.783447265625
0, 4, 106, 1475.292236328125
0, 4, 107, 1453.6435546875
0, 4, 108, 1119.054809570312
0, 4, 109, 434.7755737304688
0, 4, 110, 99.08921813964844
0, 4, 111, 70.33496856689453
0, 4, 112, 63.18486785888672
0, 4, 113, 51.62253952026367
0, 4, 114, 53.62525177001953
0, 4, 115, 43.88591384887695
0, 4, 116, 37.551025390625
0, 4, 117, 46.00613403320312
0, 4, 118, 38.25289535522461
0, 4, 119, 39.01322937011719
0, 4, 120, 35.4258918762207
0, 4, 121, 28.08991432189941
0, 4, 122, 32.17256927490234
0, 4, 123, 28.63651657104492
0, 4, 124, 26.91194915771484
0, 4, 125, 31.64567565917969
0, 4, 126, 26.63863754272461
0, 4, 127, 19.74284553527832
0, 5, 0, 20.97377586364746
0, 5, 1, 23.20773315429688
0, 5, 2, 31.35947799682617
0, 5, 3, 24.80814361572266
0, 5, 4, 23.36601257324219
0, 5, 5, 35.95150375366211
0, 5, 6, 28.74129867553711
0, 5, 7, 31.23387718200684
0, 5, 8, 29.69409370422363
0, 5, 9, 31.20967864990234
0, 5, 10, 31.90320205688477
0, 5, 11, 43.51575469970703
0, 5, 12, 39.17826843261719
0, 5, 13, 45.48749542236328
0, 5, 14, 57.5528450012207
0, 5, 15, 75.92647552490234
0, 5, 16, 88.59452056884766
0, 5, 17, 165.1371002197266
0, 5, 18, 674.2194213867188
0, 5, 19, 1344.742797851562
0, 5, 20, 1522.686279296875
0, 5, 21, 1492.750732421875
0, 5, 22, 1500.797119140625
0, 5, 23, 1530.2646484375
0, 5, 24, 1464.812377929688
0, 5, 25, 1427.118896484375
0, 5, 26, 1521.432495117188
0, 5, 27, 1533.184204101562
0, 5, 28, 1482.56494140625
0, 5, 29, 1520.656982421875
0, 5, 30, 1492.958251953125
0, 5, 31, 1498.023559570312
0, 5, 32, 1605.41015625
0, 5, 33, 1499.4970703125
0, 5, 34, 1481.86865234375
0, 5, 35, 1513.91162109375
0, 5, 36, 1441.147338867188
0, 5, 37, 1531.099365234375
0, 5, 38, 1546.28125
0, 5, 39, 1550.573120117188
0, 5, 40, 1501.397705078125
0, 5, 41, 1476.880493164062
0, 5, 42, 1538.046264648438
0, 5, 43, 1526.844848632812
0, 5, 44, 1544.614379882812
0, 5, 45, 1511.316284179688
0, 5, 46, 1492.253662109375
0, 5, 47, 1480.211181640625
0, 5, 48, 1501.156616210938
0, 5, 49, 1520.33544921875
0, 5, 50, 1510.606323242188
0, 5, 51, 1516.758544921875
0, 5, 52, 1427.21484375
0, 5, 53, 1525.505981445312
0, 5, 54, 1521.312377929688
0, 5, 55, 1524.750854492188
0, 5, 56, 1486.256469726562
0, 5, 57, 1541.372924804688
0, 5, 58, 1507.402221679688
0, 5, 59, 1487.510864257812
0, 5, 60, 1533.237670898438
0, 5, 61, 1457.113647460938
0, 5, 62, 1583.938354492188
0, 5, 63, 1431.117065429688
0, 5, 64, 1492.763061523438
0, 5, 65, 1465.266479492188
0, 5, 66, 1531.190795898438
0, 5, 67, 1561.031494140625
0, 5, 68, 1459.152221679688
0, 5, 69, 1479.628295898438
0, 5, 70, 1487.52197265625
0, 5, 71, 1479.271850585938
0, 5, 72, 1536.862670898438
0, 5, 73, 1461.2607421875
0, 5, 74, 1495.715087890625
0, 5, 75, 1490.252563476562
0, 5, 76, 1474.6064453125
0, 5, 77, 1516.4306640625
0, 5, 78, 1521.808471679688
0, 5, 79, 1514.14111328125
0, 5, 80, 1522.986450195312
0, 5, 81, 1595.01318359375
0, 5, 82, 1522.709716796875
0, 5, 83, 1491.930908203125
0, 5, 84, 1536.068725585938
0, 5, 85, 1512.633178710938
0, 5, 86, 1557.760864257812
0, 5, 87, 1473.13671875
0, 5, 88, 1500.573608398438
0, 5, 89, 1489.284912109375
0, 5, 90, 1479.043090820312
0, 5, 91, 1548.840942382812
0, 5, 92, 1482.45849609375
0, 5, 93, 1562.855346679688
0, 5, 94, 1507.947875976562
0, 5, 95, 1561.803466796875
0, 5, 96, 1495.428100585938
0, 5, 97, 1506.270141601562
0, 5, 98, 1510.833618164062
0, 5, 99, 1542.651733398438
0, 5, 100, 1436.396850585938
0, 5, 101, 1428.078125
0, 5, 102, 1515.133422851562
0, 5, 103, 1472.419189453125
0, 5, 104, 1459.250244140625
0, 5, 105, 1491.997680664062
0, 5, 106, 1452.97998046875
0, 5, 107, 1396.467041015625
0, 5, 108, 1291.5087890625
0, 5, 109, 722.3693237304688
0, 5, 110, 190.1305084228516
0, 5, 111, 90.42474365234375
0, 5, 112, 81.23358917236328
0, 5, 113, 62.79242324829102
0, 5, 114, 57.5120964050293
0, 5, 115, 56.42737579345703
0, 5, 116, 35.12144088745117
0, 5, 117, 35.55246734619141
0, 5, 118, 40.96892547607422
0, 5, 119, 26.12907600402832
0, 5, 120, 25.98369216918945
0, 5, 121, 24.82151412963867
0, 5, 122, 30.12709999084473
0, 5, 123, 27.21355056762695
0, 5, 124, 25.10299682617188
0, 5, 125, 21.53019714355469
0, 5, 126, 16.97861099243164
0, 5, 127, 19.26033020019531
0, 6, 0, 16.78419303894043
0, 6, 1, 25.32694816589355
0, 6, 2, 29.32597351074219
0, 6, 3, 28.31883811950684
0, 6, 4, 28.8450813293457
0, 6, 5, 39.5032844543457
0, 6, 6, 33.0327262878418
0, 6, 7, 27.99437713623047
0, 6, 8, 30.39361381530762
0, 6, 9, 37.21703338623047
0, 6, 10, 44.02305221557617
0, 6, 11, 36.1735954284668
0, 6, 12, 37.43807983398438
0, 6, 13, 51.68403244018555
0, 6, 14, 64.03682708740234
0, 6, 15, 82.75550079345703
0, 6, 16, 110.4270172119141
0, 6, 17, 299.1969299316406
0, 6, 18, 897.3118286132812
0, 6, 19, 1371.332153320312
0, 6, 20, 1441.41650390625
0, 6, 21, 1530.2509765625
0, 6, 22, 1497.693725585938
0, 6, 23, 1533.118041992188
0, 6, 24, 1481.604248046875
0, 6, 25, 1531.225463867188
0, 6, 26, 1518.59130859375
0, 6, 27, 1524.124389648438
0, 6, 28, 1548.354614257812
0, 6, 29, 1568.994384765625
0, 6, 30, 1516.764282226562
0, 6, 31, 1489.295654296875
0, 6, 32, 1523.604370117188
0, 6, 33, 1499.196533203125
0, 6, 34, 1561.363159179688
0, 6, 35, 1499.709106445312
0, 6, 36, 1442.251586914062
0, 6, 37, 1542.02392578125
0, 6, 38, 1528.354125976562
0, 6, 39, 1523.365356445312
0, 6, 40, 1456.885864257812
0, 6, 41, 1443.186279296875
0, 6, 42, 1512.692016601562
0, 6, 43, 1486.48974609375
0, 6, 44, 1434.224731445312
0, 6, 45, 1548.789672851562
0, 6, 46, 1554.855712890625
0, 6, 47, 1494.481689453125
0, 6, 48, 1524.931518554688
0, 6, 49, 1513.761596679688
0, 6, 50, 1575.347412109375
0, 6, 51, 1502.563110351562
0, 6, 52, 1567.135375976562
0, 6, 53, 1476.820922851562
0, 6, 54, 1499.07080078125
0, 6, 55, 1573.03369140625
0, 6, 56, 1525.793701171875
0, 6, 57, 1506.794067382812
0, 6, 58, 1469.911987304688
0, 6, 59, 1521.222900390625
0, 6, 60, 1467.0234375
0, 6, 61, 1573.18017578125
0, 6, 62, 1547.809448242188
0, 6, 63, 1493.79736328125
0, 6, 64, 1417.703979492188
0, 6, 65, 1489.899291992188
0, 6, 66, 1508.420166015625
0, 6, 67, 1510.421508789062
0, 6, 68, 1548.365112304688
0, 6, 69, 1481.361328125
0, 6, 70, 1528.213989257812
0, 6, 71, 1468.212524414062
0, 6, 72, 1597.937133789062
0, 6, 73, 1490.036376953125
0, 6, 74, 1556.02685546875
0, 6, 75, 1536.940795898438
0, 6, 76, 1567.293334960938
0, 6, 77, 1511.26513671875
0, 6, 78, 1446.780883789062
0, 6, 79, 1555.680908203125
0, 6, 80, 1480.413452148438
0, 6, 81, 1483.31884765625
0, 6, 82, 1499.602172851562
0, 6, 83, 1523.29150390625
0, 6, 84, 1520.988647460938
0, 6, 85, 1537.220825195312
0, 6, 86, 1540.28662109375
0, 6, 87, 1568.902221679688
0, 6, 88, 1480.277587890625
0, 6, 89, 1559.713012695312
0, 6, 90, 1488.060302734375
0, 6, 91, 1540.266479492188
0, 6, 92, 1490.5126953125
0, 6, 93, 1501.87744140625
0, 6, 94, 1469.381225585938
0, 6, 95, 1503.925659179688
0, 6, 96, 1526.082397460938
0, 6, 97, 1510.188110351562
0, 6, 98, 1495.638427734375
0, 6, 99, 1480.453979492188
0, 6, 100, 1522.250366210938
0, 6, 101, 1516.085815429688
0, 6, 102, 1538.40283203125
0, 6, 103, 1494.82080078125
0, 6, 104, 1466.598999023438
0, 6, 105, 1489.054443359375
0, 6, 106, 1499.808837890625
0, 6, 107, 1503.643432617188
0, 6, 108, 1407.237182617188
0, 6, 109, 924.4051513671875
0, 6, 110, 280.3560180664062
0, 6, 111, 94.2218017578125
0, 6, 112, 79.76445007324219
0, 6, 113, 63.51893615722656
0, 6, 114, 53.4216194152832
0, 6, 115, 41.97275161743164
0, 6, 116, 39.73715972900391
0, 6, 117, 36.95713043212891
0, 6, 118, 39.96677780151367
0, 6, 119, 41.26727676391602
0, 6, 120, 33.28183364868164
0, 6, 121, 29.41540718078613
0, 6, 122, 26.71036720275879
0, 6, 123, 24.41292381286621
0, 6, 124, 31.47643852233887
0, 6, 125, 33.41701507568359
0, 6, 126, 22.84026908874512
0, 6, 127, 26.53565979003906
0, 7, 0, 19.44996643066406
0, 7, 1, 26.90043258666992
0, 7, 2, 19.61773681640625
0, 7, 3, 24.86674499511719
0, 7, 4, 24.79768562316895
0, 7, 5, 33.44917297363281
0, 7, 6, 29.09493637084961
0, 7, 7, 38.03001403808594
0, 7, 8, 30.2630615234375
0, 7, 9, 43.90998458862305
0, 7, 10, 45.71025085449219
0, 7, 11, 50.34865188598633
0, 7, 12, 48.8116340637207
0, 7, 13, 45.95653533935547
0, 7, 14, 62.7476921081543
0, 7, 15, 79.86551666259766
0, 7, 16, 131.9300994873047
0, 7, 17, 462.0950317382812
0, 7, 18, 1100.173950195312
0, 7, 19, 1501.193603515625
0, 7, 20, 1486.83154296875
0, 7, 21, 1360.600463867188
0, 7, 22, 1485.030883789062
0, 7, 23, 1458.595703125
0, 7, 24, 1510.103881835938
0, 7, 25, 1596.450805664062
0, 7, 26, 1520.309936523438
0, 7, 27, 1507.451538085938
0, 7, 28, 1547.401611328125
0, 7, 29, 1572.480712890625
0, 7, 30, 1554.429809570312
0, 7, 31, 1434.864990234375
0, 7, 32, 1541.87451171875
0, 7, 33, 1489.740600585938
0, 7, 34, 1478.063598632812
0, 7, 35, 1522.380981445312
0, 7, 36, 1477.920288085938
0, 7, 37, 1603.294677734375
0, 7, 38, 1502.138916015625
0, 7, 39, 1488.759033203125
0, 7, 40, 1546.121948242188
0, 7, 41, 1463.561645507812
0, 7, 42, 1491.446533203125
0, 7, 43, 1447.114624023438
0, 7, 44, 1489.816650390625
0, 7, 45, 1472.081176757812
0, 7, 46, 1512.979370117188
0, 7, 47, 1561.485473632812
0, 7, 48, 1522.3818359375
0, 7, 49, 1539.301025390625
0, 7, 50, 1516.79345703125
0, 7, 51, 1499.951049804688
0, 7, 52, 1520.147827148438
0, 7, 53, 1494.372436523438
0, 7, 54, 1586.4755859375
0, 7, 55, 1471.808959960938
0, 7, 56, 1549.864135742188
0, 7, 57, 1512.441650390625
0, 7, 58, 1555.237915039062
0, 7, 59, 1535.893798828125
0, 7, 60, 1549.637084960938
0, 7, 61, 1490.84423828125
0, 7, 62, 1436.893188476562
0, 7, 63, 1514.23046875
0, 7, 64, 1553.175903320312
0, 7, 65, 1528.560424804688
0, 7, 66, 1536.331665039062
0, 7, 67, 1575.45751953125
0, 7, 68, 1532.710205078125
0, 7, 69, 1512.781005859375
0, 7, 70, 1495.4990234375
0, 7, 71, 1523.400268554688
0, 7, 72, 1528.231201171875
0, 7, 73, 1517.754760742188
0, 7, 74, 1575.58544921875
0, 7, 75, 1540.224365234375
0, 7, 76, 1561.019165039062
0, 7, 77, 1515.23974609375
0, 7, 78, 1503.324096679688
0, 7, 79, 1423.200439453125
0, 7, 80, 1492.141235351562
0, 7, 81, 1494.314575195312
0, 7, 82, 1533.358642578125
0, 7, 83, 1538.997802734375
0, 7, 84, 1586.452270507812
0, 7, 85, 1479.873657226562
0, 7, 86, 1503.566040039062
0, 7, 87, 1503.97412109375
0, 7, 88, 1502.963745117188
0, 7, 89, 1555.784301757812
0, 7, 90, 1528.408325195312
0, 7, 91, 1561.516235351562
0, 7, 92, 1532.612426757812
0, 7, 93, 1555.064208984375
0, 7, 94, 1539.693969726562
0, 7, 95, 1504.087524414062
0, 7, 96, 1504.918090820312
0, 7, 97, 1431.417846679688
0, 7, 98, 1482.542236328125
0, 7, 99, 1525.056396484375
0, 7, 100, 1419.952026367188
0, 7, 101, 1465.4169921875
0, 7, 102, 1450.693115234375
0, 7, 103, 1433.576416015625
0, 7, 104, 1490.095336914062
0, 7, 105, 1523.556762695312
0, 7, 106, 1570.317504882812
0, 7, 107, 1485.514892578125
0, 7, 108, 1408.11279296875
0, 7, 109, 1145.8125
0, 7, 110, 468.135986328125
0, 7, 111, 124.2369155883789
0, 7, 112, 78.54168701171875
0, 7, 113, 73.40030670166016
0, 7, 114, 60.44701766967773
0, 7, 115, 49.53637313842773
0, 7, 116, 42.58357238769531
0, 7, 117, 43.53256225585938
0, 7, 118, 36.34282684326172
0, 7, 119, 33.85778427124023
0, 7, 120, 29.95610046386719
0, 7, 121, 30.76021194458008
0, 7, 122, 35.42251205444336
0, 7, 123, 31.32380867004395
0, 7, 124, 29.72305297851562
0, 7, 125, 21.96050071716309
0, 7, 126, 23.66711807250977
0, 7, 127, 23.38048934936523
0, 8, 0, 23.8461799621582
0, 8, 1, 24.0595588684082
0, 8, 2, 23.2511043548584
0, 8, 3, 24.22534370422363
0, 8, 4, 26.1309700012207
0, 8, 5, 31.89191436767578
0, 8, 6, 35.58955001831055
0, 8, 7, 25.31254959106445
0, 8, 8, 32.18166351318359
0, 8, 9, 43.43085861206055
0, 8, 10, 43.99258041381836
0, 8, 11, 38.18943405151367
0, 8, 12, 53.69770050048828
0, 8, 13, 68.64385223388672
0, 8, 14, 76.08441925048828
0, 8, 15, 87.59446716308594
0, 8, 16, 167.9111175537109
0, 8, 17, 673.974853515625
0, 8, 18, 1281.876586914062
0, 8, 19, 1452.615478515625
0, 8, 20, 1417.621704101562
0, 8, 21, 1410.619140625
0, 8, 22, 1488.290649414062
0, 8, 23, 1479.721557617188
0, 8, 24, 1433.511352539062
0, 8, 25, 1457.766967773438
0, 8, 26, 1514.584716796875
0, 8, 27, 1521.230712890625
0, 8, 28, 1479.24560546875
0, 8, 29, 1507.378173828125
0, 8, 30, 1492.81640625
0, 8, 31, 1535.626953125
0, 8, 32, 1508.053466796875
0, 8, 33, 1483.441162109375
0, 8, 34, 1531.527954101562
0, 8, 35, 1443.062866210938
0, 8, 36, 1496.77001953125
0, 8, 37, 1555.817016601562
0, 8, 38, 1549.708984375
0, 8, 39, 1493.639526367188
0, 8, 40, 1532.28564453125
0, 8, 41, 1485.914794921875
0, 8, 42, 1537.950805664062
0, 8, 43, 1432.54052734375
0, 8, 44, 1543.197631835938
0, 8, 45, 1510.445922851562
0, 8, 46, 1597.5087890625
