# TOPAS Version: 3.1.p3
# Parameter File: batch_inserts_156.txt
# Results for scorer Readout_Adipose
# Scored in component: MyBox
# X in 1 bin  of 0.75 cm
# Y in 512 bins of 0.0783984 cm
# Z in 128 bins of 0.078125 cm
# EnergyDeposit ( MeV ) : Sum   
0, 0, 0, 5.333228588104248
0, 0, 1, 5.833949089050293
0, 0, 2, 4.165732860565186
0, 0, 3, 2.706013679504395
0, 0, 4, 2.320333003997803
0, 0, 5, 2.602079629898071
0, 0, 6, 8.384738922119141
0, 0, 7, 9.417271614074707
0, 0, 8, 3.823914289474487
0, 0, 9, 5.17559814453125
0, 0, 10, 6.59992504119873
0, 0, 11, 4.484946250915527
0, 0, 12, 4.648458957672119
0, 0, 13, 7.87322998046875
0, 0, 14, 8.245243072509766
0, 0, 15, 9.566932678222656
0, 0, 16, 10.29157447814941
0, 0, 17, 10.4451379776001
0, 0, 18, 13.50642776489258
0, 0, 19, 41.23870849609375
0, 0, 20, 138.4027862548828
0, 0, 21, 222.5968780517578
0, 0, 22, 248.5566101074219
0, 0, 23, 256.4774475097656
0, 0, 24, 251.1531829833984
0, 0, 25, 257.833740234375
0, 0, 26, 233.1518096923828
0, 0, 27, 238.8306274414062
0, 0, 28, 272.8486328125
0, 0, 29, 252.1051330566406
0, 0, 30, 228.8429565429688
0, 0, 31, 243.3977661132812
0, 0, 32, 263.9089660644531
0, 0, 33, 261.1863403320312
0, 0, 34, 288.1538391113281
0, 0, 35, 267.5736694335938
0, 0, 36, 247.0434875488281
0, 0, 37, 253.3255462646484
0, 0, 38, 266.8651733398438
0, 0, 39, 228.8601837158203
0, 0, 40, 241.7942962646484
0, 0, 41, 266.0905456542969
0, 0, 42, 231.1473846435547
0, 0, 43, 258.8234252929688
0, 0, 44, 252.9962158203125
0, 0, 45, 253.9239044189453
0, 0, 46, 244.4871063232422
0, 0, 47, 255.5316314697266
0, 0, 48, 268.1054077148438
0, 0, 49, 273.3331909179688
0, 0, 50, 251.5960235595703
0, 0, 51, 256.6920776367188
0, 0, 52, 271.7283020019531
0, 0, 53, 291.3768310546875
0, 0, 54, 241.4772033691406
0, 0, 55, 239.1855621337891
0, 0, 56, 277.9386291503906
0, 0, 57, 263.4039916992188
0, 0, 58, 246.3997650146484
0, 0, 59, 270.0676574707031
0, 0, 60, 234.9459381103516
0, 0, 61, 245.1990966796875
0, 0, 62, 257.5503234863281
0, 0, 63, 266.3288879394531
0, 0, 64, 255.0311126708984
0, 0, 65, 262.3180236816406
0, 0, 66, 276.3787536621094
0, 0, 67, 246.2621612548828
0, 0, 68, 258.8020324707031
0, 0, 69, 261.221435546875
0, 0, 70, 272.0257568359375
0, 0, 71, 238.8252105712891
0, 0, 72, 249.7506408691406
0, 0, 73, 258.3676452636719
0, 0, 74, 252.0522766113281
0, 0, 75, 240.9981231689453
0, 0, 76, 228.7596740722656
0, 0, 77, 261.9459533691406
0, 0, 78, 258.3703918457031
0, 0, 79, 279.8929138183594
0, 0, 80, 215.3409576416016
0, 0, 81, 268.70361328125
0, 0, 82, 256.1041259765625
0, 0, 83, 249.0299835205078
0, 0, 84, 267.5306396484375
0, 0, 85, 233.250244140625
0, 0, 86, 254.1844024658203
0, 0, 87, 251.0463104248047
0, 0, 88, 260.1096801757812
0, 0, 89, 282.6312255859375
0, 0, 90, 244.2145843505859
0, 0, 91, 281.7581176757812
0, 0, 92, 252.7095489501953
0, 0, 93, 249.8209228515625
0, 0, 94, 249.0885162353516
0, 0, 95, 249.0423736572266
0, 0, 96, 273.8697814941406
0, 0, 97, 272.3457641601562
0, 0, 98, 274.0244140625
0, 0, 99, 259.0386962890625
0, 0, 100, 257.6578369140625
0, 0, 101, 228.686767578125
0, 0, 102, 233.2392730712891
0, 0, 103, 270.9895324707031
0, 0, 104, 254.7977447509766
0, 0, 105, 251.5862426757812
0, 0, 106, 246.398681640625
0, 0, 107, 151.0962219238281
0, 0, 108, 38.60712814331055
0, 0, 109, 12.11759376525879
0, 0, 110, 13.58653259277344
0, 0, 111, 9.435606002807617
0, 0, 112, 7.161316394805908
0, 0, 113, 6.160650730133057
0, 0, 114, 8.381228446960449
0, 0, 115, 4.499952793121338
0, 0, 116, 5.458890914916992
0, 0, 117, 5.564255237579346
0, 0, 118, 6.138753414154053
0, 0, 119, 3.730801105499268
0, 0, 120, 3.760996103286743
0, 0, 121, 2.69666600227356
0, 0, 122, 4.453813552856445
0, 0, 123, 4.143148422241211
0, 0, 124, 5.574225425720215
0, 0, 125, 3.311639785766602
0, 0, 126, 7.161448001861572
0, 0, 127, 2.583586454391479
0, 1, 0, 6.97608470916748
0, 1, 1, 2.980821132659912
0, 1, 2, 7.133751392364502
0, 1, 3, 3.547151803970337
0, 1, 4, 2.227008581161499
0, 1, 5, 5.217979907989502
0, 1, 6, 5.498833179473877
0, 1, 7, 6.602936267852783
0, 1, 8, 6.804889678955078
0, 1, 9, 6.371148109436035
0, 1, 10, 6.603127002716064
0, 1, 11, 10.80271911621094
0, 1, 12, 7.370134830474854
0, 1, 13, 9.513845443725586
0, 1, 14, 8.684353828430176
0, 1, 15, 8.082119941711426
0, 1, 16, 10.4255199432373
0, 1, 17, 11.17513084411621
0, 1, 18, 20.99708557128906
0, 1, 19, 66.36408233642578
0, 1, 20, 200.8518981933594
0, 1, 21, 254.3790435791016
0, 1, 22, 296.8714294433594
0, 1, 23, 282.8582153320312
0, 1, 24, 275.4607849121094
0, 1, 25, 289.5540466308594
0, 1, 26, 269.588134765625
0, 1, 27, 306.5429077148438
0, 1, 28, 298.3541564941406
0, 1, 29, 294.7005310058594
0, 1, 30, 279.5088500976562
0, 1, 31, 291.703125
0, 1, 32, 289.7684020996094
0, 1, 33, 294.245849609375
0, 1, 34, 293.9906311035156
0, 1, 35, 278.0639343261719
0, 1, 36, 306.0513610839844
0, 1, 37, 294.7160034179688
0, 1, 38, 278.7660827636719
0, 1, 39, 295.9667053222656
0, 1, 40, 266.7899169921875
0, 1, 41, 288.5627746582031
0, 1, 42, 292.4889831542969
0, 1, 43, 332.3643188476562
0, 1, 44, 278.2658386230469
0, 1, 45, 292.7513732910156
0, 1, 46, 258.7534790039062
0, 1, 47, 308.5741882324219
0, 1, 48, 283.5351867675781
0, 1, 49, 304.1097717285156
0, 1, 50, 264.2726135253906
0, 1, 51, 271.9269409179688
0, 1, 52, 297.1875305175781
0, 1, 53, 302.7824096679688
0, 1, 54, 274.2722473144531
0, 1, 55, 295.4776916503906
0, 1, 56, 279.3722534179688
0, 1, 57, 299.4762268066406
0, 1, 58, 309.13720703125
0, 1, 59, 295.9368286132812
0, 1, 60, 297.6476745605469
0, 1, 61, 274.7312927246094
0, 1, 62, 310.8789978027344
0, 1, 63, 287.0675354003906
0, 1, 64, 288.482177734375
0, 1, 65, 295.364990234375
0, 1, 66, 295.0007019042969
0, 1, 67, 293.0650024414062
0, 1, 68, 277.5269775390625
0, 1, 69, 279.590576171875
0, 1, 70, 271.4544982910156
0, 1, 71, 272.0545349121094
0, 1, 72, 286.2543334960938
0, 1, 73, 306.4599609375
0, 1, 74, 305.353759765625
0, 1, 75, 292.9417724609375
0, 1, 76, 285.4078369140625
0, 1, 77, 291.3342590332031
0, 1, 78, 298.1138916015625
0, 1, 79, 300.5049743652344
0, 1, 80, 295.8997802734375
0, 1, 81, 301.2692260742188
0, 1, 82, 282.5681457519531
0, 1, 83, 333.5954284667969
0, 1, 84, 309.4648742675781
0, 1, 85, 253.4722442626953
0, 1, 86, 293.869873046875
0, 1, 87, 292.1318969726562
0, 1, 88, 298.6068725585938
0, 1, 89, 293.1437683105469
0, 1, 90, 270.2920837402344
0, 1, 91, 317.053955078125
0, 1, 92, 290.3002014160156
0, 1, 93, 286.4256591796875
0, 1, 94, 303.4369201660156
0, 1, 95, 284.5926818847656
0, 1, 96, 282.4600524902344
0, 1, 97, 303.9425964355469
0, 1, 98, 276.7697448730469
0, 1, 99, 266.9947204589844
0, 1, 100, 279.0262756347656
0, 1, 101, 284.30859375
0, 1, 102, 277.7604675292969
0, 1, 103, 281.7951354980469
0, 1, 104, 305.4765319824219
0, 1, 105, 297.2715148925781
0, 1, 106, 260.5160217285156
0, 1, 107, 191.6250915527344
0, 1, 108, 80.92465972900391
0, 1, 109, 22.92256355285645
0, 1, 110, 11.61855792999268
0, 1, 111, 8.735068321228027
0, 1, 112, 13.25463771820068
0, 1, 113, 5.956986904144287
0, 1, 114, 6.855849266052246
0, 1, 115, 7.179439067840576
0, 1, 116, 11.7522611618042
0, 1, 117, 4.96747350692749
0, 1, 118, 6.366336822509766
0, 1, 119, 4.269721508026123
0, 1, 120, 5.883528232574463
0, 1, 121, 4.938256740570068
0, 1, 122, 3.522595643997192
0, 1, 123, 3.853515863418579
0, 1, 124, 7.032797336578369
0, 1, 125, 2.909576892852783
0, 1, 126, 3.387082815170288
0, 1, 127, 2.235556125640869
0, 2, 0, 5.0321364402771
0, 2, 1, 2.581619024276733
0, 2, 2, 4.005519390106201
0, 2, 3, 3.973722219467163
0, 2, 4, 2.988930940628052
0, 2, 5, 1.658621072769165
0, 2, 6, 2.268401145935059
0, 2, 7, 6.054863929748535
0, 2, 8, 4.899450778961182
0, 2, 9, 8.29175853729248
0, 2, 10, 8.546988487243652
0, 2, 11, 5.569758415222168
0, 2, 12, 6.276975154876709
0, 2, 13, 8.224227905273438
0, 2, 14, 10.05863857269287
0, 2, 15, 8.217257499694824
0, 2, 16, 8.630598068237305
0, 2, 17, 17.25763702392578
0, 2, 18, 30.12379455566406
0, 2, 19, 116.0034561157227
0, 2, 20, 246.5877075195312
0, 2, 21, 270.5307312011719
0, 2, 22, 315.69873046875
0, 2, 23, 302.2217407226562
0, 2, 24, 285.4154663085938
0, 2, 25, 302.1691589355469
0, 2, 26, 293.34130859375
0, 2, 27, 275.6011047363281
0, 2, 28, 271.1056213378906
0, 2, 29, 274.6842956542969
0, 2, 30, 288.0187072753906
0, 2, 31, 278.82421875
0, 2, 32, 294.3194885253906
0, 2, 33, 282.7599182128906
0, 2, 34, 330.19677734375
0, 2, 35, 289.3600769042969
0, 2, 36, 302.9919128417969
0, 2, 37, 314.0537109375
0, 2, 38, 311.3880310058594
0, 2, 39, 265.2642822265625
0, 2, 40, 308.1529235839844
0, 2, 41, 291.2708740234375
0, 2, 42, 302.8615112304688
0, 2, 43, 314.0134582519531
0, 2, 44, 310.0809020996094
0, 2, 45, 325.4652099609375
0, 2, 46, 287.6616821289062
0, 2, 47, 304.0151672363281
0, 2, 48, 279.7277221679688
0, 2, 49, 278.5348815917969
0, 2, 50, 293.3480224609375
0, 2, 51, 285.0582580566406
0, 2, 52, 271.9851989746094
0, 2, 53, 286.2604370117188
0, 2, 54, 279.9648742675781
0, 2, 55, 275.9515686035156
0, 2, 56, 301.9286499023438
0, 2, 57, 291.1511840820312
0, 2, 58, 304.453857421875
0, 2, 59, 292.4930725097656
0, 2, 60, 318.469482421875
0, 2, 61, 300.8545532226562
0, 2, 62, 314.9602355957031
0, 2, 63, 303.2552795410156
0, 2, 64, 296.5218811035156
0, 2, 65, 313.0299072265625
0, 2, 66, 279.5255126953125
0, 2, 67, 293.0557250976562
0, 2, 68, 295.4930114746094
0, 2, 69, 310.4032592773438
0, 2, 70, 334.6670227050781
0, 2, 71, 285.1324768066406
0, 2, 72, 300.47705078125
0, 2, 73, 311.7959899902344
0, 2, 74, 287.0785827636719
0, 2, 75, 304.8438720703125
0, 2, 76, 288.353759765625
0, 2, 77, 298.3953247070312
0, 2, 78, 317.3317565917969
0, 2, 79, 309.4879150390625
0, 2, 80, 295.8650817871094
0, 2, 81, 284.3811950683594
0, 2, 82, 318.9808959960938
0, 2, 83, 311.0860900878906
0, 2, 84, 287.9374084472656
0, 2, 85, 282.1436157226562
0, 2, 86, 322.8498229980469
0, 2, 87, 286.6683044433594
0, 2, 88, 279.8789672851562
0, 2, 89, 296.978759765625
0, 2, 90, 295.1717834472656
0, 2, 91, 276.5888671875
0, 2, 92, 306.1991271972656
0, 2, 93, 316.4140930175781
0, 2, 94, 292.1598510742188
0, 2, 95, 315.3035278320312
0, 2, 96, 314.6009826660156
0, 2, 97, 289.3476257324219
0, 2, 98, 293.9453735351562
0, 2, 99, 273.4039306640625
0, 2, 100, 305.7342834472656
0, 2, 101, 302.2825622558594
0, 2, 102, 297.5487976074219
0, 2, 103, 293.1676940917969
0, 2, 104, 292.83837890625
0, 2, 105, 273.2243957519531
0, 2, 106, 297.8602905273438
0, 2, 107, 269.7621765136719
0, 2, 108, 115.7986145019531
0, 2, 109, 32.78483200073242
0, 2, 110, 10.6654577255249
0, 2, 111, 10.47242450714111
0, 2, 112, 10.20722770690918
0, 2, 113, 11.62741947174072
0, 2, 114, 9.541104316711426
0, 2, 115, 10.19176959991455
0, 2, 116, 9.603833198547363
0, 2, 117, 11.30850315093994
0, 2, 118, 3.761205196380615
0, 2, 119, 3.036916255950928
0, 2, 120, 8.26118278503418
0, 2, 121, 1.217453837394714
0, 2, 122, 3.631815910339355
0, 2, 123, 3.353076457977295
0, 2, 124, 2.254389047622681
0, 2, 125, 7.597854137420654
0, 2, 126, 5.33830451965332
0, 2, 127, 6.486773014068604
0, 3, 0, 4.253159999847412
0, 3, 1, 2.978076219558716
0, 3, 2, 4.66302490234375
0, 3, 3, 2.154940605163574
0, 3, 4, 5.367850780487061
0, 3, 5, 6.29410457611084
0, 3, 6, 7.00056791305542
0, 3, 7, 5.18901252746582
0, 3, 8, 4.51079273223877
0, 3, 9, 6.952731609344482
0, 3, 10, 6.999639987945557
0, 3, 11, 6.265007019042969
0, 3, 12, 8.309162139892578
0, 3, 13, 15.65083122253418
0, 3, 14, 11.48668766021729
0, 3, 15, 12.31785202026367
0, 3, 16, 12.05620574951172
0, 3, 17, 22.08549880981445
0, 3, 18, 54.07637786865234
0, 3, 19, 174.9795837402344
0, 3, 20, 269.7723388671875
0, 3, 21, 270.857666015625
0, 3, 22, 285.1351013183594
0, 3, 23, 285.9715881347656
0, 3, 24, 286.7643432617188
0, 3, 25, 270.2628784179688
0, 3, 26, 303.8111267089844
0, 3, 27, 291.2946472167969
0, 3, 28, 282.6633605957031
0, 3, 29, 339.5526733398438
0, 3, 30, 314.9247436523438
0, 3, 31, 286.9076843261719
0, 3, 32, 306.8199157714844
0, 3, 33, 314.3406066894531
0, 3, 34, 321.9638061523438
0, 3, 35, 305.4256591796875
0, 3, 36, 268.6103515625
0, 3, 37, 315.0682067871094
0, 3, 38, 303.3606567382812
0, 3, 39, 291.2189331054688
0, 3, 40, 267.1570129394531
0, 3, 41, 302.3852844238281
0, 3, 42, 284.0982666015625
0, 3, 43, 306.1482238769531
0, 3, 44, 312.5950317382812
0, 3, 45, 292.7396850585938
0, 3, 46, 330.1945495605469
0, 3, 47, 299.6795959472656
0, 3, 48, 304.032470703125
0, 3, 49, 277.851318359375
0, 3, 50, 290.9620056152344
0, 3, 51, 277.7498474121094
0, 3, 52, 316.1002197265625
0, 3, 53, 288.1007385253906
0, 3, 54, 282.9525146484375
0, 3, 55, 285.365478515625
0, 3, 56, 298.8404235839844
0, 3, 57, 287.0708923339844
0, 3, 58, 304.6069030761719
0, 3, 59, 293.5361633300781
0, 3, 60, 297.7949829101562
0, 3, 61, 263.9725341796875
0, 3, 62, 284.0806274414062
0, 3, 63, 304.8818969726562
0, 3, 64, 316.8731994628906
0, 3, 65, 304.2257995605469
0, 3, 66, 315.5691528320312
0, 3, 67, 319.4098205566406
0, 3, 68, 279.2652282714844
0, 3, 69, 283.0294189453125
0, 3, 70, 287.3901977539062
0, 3, 71, 299.7052307128906
0, 3, 72, 268.3845520019531
0, 3, 73, 307.4129638671875
0, 3, 74, 293.7713928222656
0, 3, 75, 288.9496459960938
0, 3, 76, 306.2432861328125
0, 3, 77, 312.4591064453125
0, 3, 78, 304.6093444824219
0, 3, 79, 281.1058959960938
0, 3, 80, 291.4648132324219
0, 3, 81, 311.4632873535156
0, 3, 82, 315.7909851074219
0, 3, 83, 301.6614990234375
0, 3, 84, 310.2391967773438
0, 3, 85, 294.1921691894531
0, 3, 86, 302.8455810546875
0, 3, 87, 299.7289428710938
0, 3, 88, 296.631103515625
0, 3, 89, 295.0157470703125
0, 3, 90, 277.1058044433594
0, 3, 91, 285.7989196777344
0, 3, 92, 305.9937744140625
0, 3, 93, 312.059814453125
0, 3, 94, 297.7057495117188
0, 3, 95, 334.5425720214844
0, 3, 96, 290.3412780761719
0, 3, 97, 284.5592956542969
0, 3, 98, 279.5994262695312
0, 3, 99, 261.2767639160156
0, 3, 100, 283.1773376464844
0, 3, 101, 296.7610778808594
0, 3, 102, 275.0678100585938
0, 3, 103, 321.2773132324219
0, 3, 104, 309.7096252441406
0, 3, 105, 287.4600524902344
0, 3, 106, 303.1290283203125
0, 3, 107, 283.8890075683594
0, 3, 108, 167.0199279785156
0, 3, 109, 55.43560409545898
0, 3, 110, 16.85717010498047
0, 3, 111, 13.04060173034668
0, 3, 112, 13.61269283294678
0, 3, 113, 6.360306262969971
0, 3, 114, 8.507474899291992
0, 3, 115, 7.003274917602539
0, 3, 116, 8.957484245300293
0, 3, 117, 7.210003852844238
0, 3, 118, 11.8421516418457
0, 3, 119, 4.035040855407715
0, 3, 120, 7.620848655700684
0, 3, 121, 3.517809867858887
0, 3, 122, 4.114256858825684
0, 3, 123, 4.773317337036133
0, 3, 124, 6.57863712310791
0, 3, 125, 6.986378192901611
0, 3, 126, 3.781692266464233
0, 3, 127, 1.899837017059326
0, 4, 0, 5.52698278427124
0, 4, 1, 5.761505126953125
0, 4, 2, 3.621283531188965
0, 4, 3, 2.108083724975586
0, 4, 4, 6.195383071899414
0, 4, 5, 7.837384700775146
0, 4, 6, 7.79682445526123
0, 4, 7, 4.712701320648193
0, 4, 8, 4.921402931213379
0, 4, 9, 5.337207317352295
0, 4, 10, 8.083072662353516
0, 4, 11, 5.761265277862549
0, 4, 12, 7.320000171661377
0, 4, 13, 7.215994358062744
0, 4, 14, 13.47231578826904
0, 4, 15, 10.15815830230713
0, 4, 16, 13.99898433685303
0, 4, 17, 18.67593002319336
0, 4, 18, 91.88428497314453
0, 4, 19, 223.29736328125
0, 4, 20, 286.270263671875
0, 4, 21, 272.9921875
0, 4, 22, 304.2369079589844
0, 4, 23, 265.7311706542969
0, 4, 24, 289.3403625488281
0, 4, 25, 271.7715454101562
0, 4, 26, 295.490966796875
0, 4, 27, 286.9089660644531
0, 4, 28, 306.5357055664062
0, 4, 29, 323.1231079101562
0, 4, 30, 310.2681274414062
0, 4, 31, 304.204345703125
0, 4, 32, 284.8229675292969
0, 4, 33, 300.0050354003906
0, 4, 34, 295.5402526855469
0, 4, 35, 312.3139343261719
0, 4, 36, 292.46728515625
0, 4, 37, 287.3476257324219
0, 4, 38, 299.8432312011719
0, 4, 39, 294.9634704589844
0, 4, 40, 301.5126953125
0, 4, 41, 312.0449523925781
0, 4, 42, 329.6453247070312
0, 4, 43, 296.4696655273438
0, 4, 44, 320.9105834960938
0, 4, 45, 325.8219299316406
0, 4, 46, 304.3968200683594
0, 4, 47, 293.5702819824219
0, 4, 48, 296.0945434570312
0, 4, 49, 277.7251586914062
0, 4, 50, 296.4501647949219
0, 4, 51, 316.4372253417969
0, 4, 52, 326.4266662597656
0, 4, 53, 304.3376770019531
0, 4, 54, 286.9519653320312
0, 4, 55, 313.8318176269531
0, 4, 56, 288.1159057617188
0, 4, 57, 310.5779724121094
0, 4, 58, 296.5234985351562
0, 4, 59, 308.7347106933594
0, 4, 60, 303.921630859375
0, 4, 61, 315.4790954589844
0, 4, 62, 306.4927368164062
0, 4, 63, 300.7161865234375
0, 4, 64, 332.2116394042969
0, 4, 65, 318.048828125
0, 4, 66, 292.3142395019531
0, 4, 67, 284.2506713867188
0, 4, 68, 312.4297485351562
0, 4, 69, 275.2321166992188
0, 4, 70, 300.1452941894531
0, 4, 71, 321.114013671875
0, 4, 72, 332.6793823242188
0, 4, 73, 296.9505615234375
0, 4, 74, 294.0723266601562
0, 4, 75, 289.6978454589844
0, 4, 76, 273.1465454101562
0, 4, 77, 279.2309875488281
0, 4, 78, 307.3353881835938
0, 4, 79, 318.8970336914062
0, 4, 80, 316.0436096191406
0, 4, 81, 312.8567504882812
0, 4, 82, 297.7086791992188
0, 4, 83, 302.1067199707031
0, 4, 84, 294.9493713378906
0, 4, 85, 295.181396484375
0, 4, 86, 296.1532897949219
0, 4, 87, 284.3953857421875
0, 4, 88, 304.7835083007812
0, 4, 89, 295.8629455566406
0, 4, 90, 334.5266723632812
0, 4, 91, 301.70068359375
0, 4, 92, 290.1229248046875
0, 4, 93, 295.6787414550781
0, 4, 94, 294.2716979980469
0, 4, 95, 288.9929504394531
0, 4, 96, 327.7517700195312
0, 4, 97, 273.5928649902344
0, 4, 98, 329.5400390625
0, 4, 99, 313.6648864746094
0, 4, 100, 299.6586608886719
0, 4, 101, 258.2861938476562
0, 4, 102, 296.0476684570312
0, 4, 103, 317.8919372558594
0, 4, 104, 281.5379638671875
0, 4, 105, 309.5746154785156
0, 4, 106, 286.8210144042969
0, 4, 107, 299.7828979492188
0, 4, 108, 225.8325500488281
0, 4, 109, 78.90019989013672
0, 4, 110, 16.15061569213867
0, 4, 111, 14.13229846954346
0, 4, 112, 9.110411643981934
0, 4, 113, 9.846466064453125
0, 4, 114, 7.213371753692627
0, 4, 115, 8.528532028198242
0, 4, 116, 7.41378927230835
0, 4, 117, 7.915030479431152
0, 4, 118, 8.855676651000977
0, 4, 119, 10.78775978088379
0, 4, 120, 7.551759243011475
0, 4, 121, 5.803505420684814
0, 4, 122, 3.317582607269287
0, 4, 123, 6.069920539855957
0, 4, 124, 7.184128284454346
0, 4, 125, 9.546421051025391
0, 4, 126, 4.536027908325195
0, 4, 127, 4.521748542785645
0, 5, 0, 3.276901960372925
0, 5, 1, 3.429694175720215
0, 5, 2, 5.973527908325195
0, 5, 3, 4.305605411529541
0, 5, 4, 5.439458847045898
0, 5, 5, 7.18070650100708
0, 5, 6, 5.293932914733887
0, 5, 7, 5.467570304870605
0, 5, 8, 5.353585720062256
0, 5, 9, 5.564929485321045
0, 5, 10, 5.513261318206787
0, 5, 11, 7.812929630279541
0, 5, 12, 7.564656734466553
0, 5, 13, 6.008820533752441
0, 5, 14, 11.95638465881348
0, 5, 15, 16.71437454223633
0, 5, 16, 14.57942581176758
0, 5, 17, 30.73831367492676
0, 5, 18, 136.60205078125
0, 5, 19, 286.6637878417969
0, 5, 20, 307.8744812011719
0, 5, 21, 317.7722778320312
0, 5, 22, 277.0494689941406
0, 5, 23, 312.0297241210938
0, 5, 24, 302.6394348144531
0, 5, 25, 289.3955993652344
0, 5, 26, 293.8703918457031
0, 5, 27, 321.9311218261719
0, 5, 28, 301.8316650390625
0, 5, 29, 298.4117431640625
0, 5, 30, 323.1502380371094
0, 5, 31, 286.0460815429688
0, 5, 32, 305.7620544433594
0, 5, 33, 302.8224487304688
0, 5, 34, 296.1436462402344
0, 5, 35, 308.3995666503906
0, 5, 36, 271.9760131835938
0, 5, 37, 282.7487182617188
0, 5, 38, 292.6743469238281
0, 5, 39, 312.988037109375
0, 5, 40, 308.49267578125
0, 5, 41, 272.7359313964844
0, 5, 42, 304.8427124023438
0, 5, 43, 315.0303955078125
0, 5, 44, 292.8167114257812
0, 5, 45, 302.259033203125
0, 5, 46, 265.1376647949219
0, 5, 47, 280.2872009277344
0, 5, 48, 297.1991577148438
0, 5, 49, 285.8246154785156
0, 5, 50, 295.7872619628906
0, 5, 51, 280.3728332519531
0, 5, 52, 268.9300537109375
0, 5, 53, 285.2005615234375
0, 5, 54, 291.4252624511719
0, 5, 55, 343.7862548828125
0, 5, 56, 304.6551513671875
0, 5, 57, 308.2813415527344
0, 5, 58, 312.7855529785156
0, 5, 59, 303.3921508789062
0, 5, 60, 307.4351806640625
0, 5, 61, 280.8099060058594
0, 5, 62, 322.827880859375
0, 5, 63, 290.9548950195312
0, 5, 64, 323.1267395019531
0, 5, 65, 306.5461120605469
0, 5, 66, 328.5254821777344
0, 5, 67, 314.7174072265625
0, 5, 68, 308.5560607910156
0, 5, 69, 313.9888916015625
0, 5, 70, 303.6123352050781
0, 5, 71, 271.1025085449219
0, 5, 72, 310.9097290039062
0, 5, 73, 303.1425476074219
0, 5, 74, 294.6514282226562
0, 5, 75, 295.6932678222656
0, 5, 76, 284.3920288085938
0, 5, 77, 298.0918884277344
0, 5, 78, 316.1433410644531
0, 5, 79, 308.4836730957031
0, 5, 80, 294.7778015136719
0, 5, 81, 325.177490234375
0, 5, 82, 323.9312438964844
0, 5, 83, 280.9407958984375
0, 5, 84, 301.8439331054688
0, 5, 85, 271.7507629394531
0, 5, 86, 326.3310852050781
0, 5, 87, 285.0314636230469
0, 5, 88, 314.0774841308594
0, 5, 89, 306.4136047363281
0, 5, 90, 314.6622619628906
0, 5, 91, 314.397705078125
0, 5, 92, 296.4665222167969
0, 5, 93, 322.6924743652344
0, 5, 94, 309.4576721191406
0, 5, 95, 296.0289916992188
0, 5, 96, 295.6578674316406
0, 5, 97, 297.3293762207031
0, 5, 98, 319.9320983886719
0, 5, 99, 302.3894958496094
0, 5, 100, 289.8252563476562
0, 5, 101, 304.7131958007812
0, 5, 102, 291.893798828125
0, 5, 103, 313.5753479003906
0, 5, 104, 302.9859313964844
0, 5, 105, 291.3077697753906
0, 5, 106, 281.1082458496094
0, 5, 107, 291.5429382324219
0, 5, 108, 267.2661743164062
0, 5, 109, 157.3414916992188
0, 5, 110, 39.52968597412109
0, 5, 111, 21.45995140075684
0, 5, 112, 17.23584938049316
0, 5, 113, 16.31199264526367
0, 5, 114, 14.86710166931152
0, 5, 115, 8.25466251373291
0, 5, 116, 6.842508792877197
0, 5, 117, 7.194145202636719
0, 5, 118, 11.71969699859619
0, 5, 119, 3.107991695404053
0, 5, 120, 7.192068576812744
0, 5, 121, 6.144842624664307
0, 5, 122, 4.671929836273193
0, 5, 123, 3.649772167205811
0, 5, 124, 5.998920917510986
0, 5, 125, 4.54780912399292
0, 5, 126, 5.424513816833496
0, 5, 127, 1.717504262924194
0, 6, 0, 3.832100391387939
0, 6, 1, 3.157197713851929
0, 6, 2, 7.846405506134033
0, 6, 3, 6.160396575927734
0, 6, 4, 4.312255382537842
0, 6, 5, 5.122125148773193
0, 6, 6, 10.31732845306396
0, 6, 7, 5.313452243804932
0, 6, 8, 5.546570777893066
0, 6, 9, 6.359052658081055
0, 6, 10, 7.759203910827637
0, 6, 11, 8.437370300292969
0, 6, 12, 8.973380088806152
0, 6, 13, 13.98123264312744
0, 6, 14, 8.568807601928711
0, 6, 15, 17.06626510620117
0, 6, 16, 27.6267032623291
0, 6, 17, 55.04729080200195
0, 6, 18, 171.6833343505859
0, 6, 19, 276.630859375
0, 6, 20, 290.2221069335938
0, 6, 21, 313.0698547363281
0, 6, 22, 319.9503173828125
0, 6, 23, 306.4294128417969
0, 6, 24, 317.58984375
0, 6, 25, 316.5641174316406
0, 6, 26, 320.3446350097656
0, 6, 27, 330.6216430664062
0, 6, 28, 295.0106811523438
0, 6, 29, 328.5020446777344
0, 6, 30, 281.5493469238281
0, 6, 31, 285.7334289550781
0, 6, 32, 339.9605102539062
0, 6, 33, 300.7722473144531
0, 6, 34, 339.1551208496094
0, 6, 35, 321.5843811035156
0, 6, 36, 275.2344970703125
0, 6, 37, 293.3316345214844
0, 6, 38, 313.1268005371094
0, 6, 39, 298.0027770996094
0, 6, 40, 287.5977783203125
0, 6, 41, 296.8374938964844
0, 6, 42, 304.8294372558594
0, 6, 43, 288.5192565917969
0, 6, 44, 279.0960693359375
0, 6, 45, 319.6422424316406
0, 6, 46, 300.6382446289062
0, 6, 47, 335.9487609863281
0, 6, 48, 291.5533142089844
0, 6, 49, 311.1712036132812
0, 6, 50, 328.8021240234375
0, 6, 51, 310.74609375
0, 6, 52, 321.3266906738281
0, 6, 53, 331.3556518554688
0, 6, 54, 303.9215698242188
0, 6, 55, 306.008544921875
0, 6, 56, 295.1195678710938
0, 6, 57, 311.3520812988281
0, 6, 58, 261.9770812988281
0, 6, 59, 302.7958984375
0, 6, 60, 312.2408752441406
0, 6, 61, 272.5987548828125
0, 6, 62, 335.6416320800781
0, 6, 63, 322.0534362792969
0, 6, 64, 292.2559509277344
0, 6, 65, 282.8410949707031
0, 6, 66, 305.0072326660156
0, 6, 67, 309.5961608886719
0, 6, 68, 295.4049072265625
0, 6, 69, 280.4668884277344
0, 6, 70, 275.8370971679688
0, 6, 71, 288.888671875
0, 6, 72, 310.9649658203125
0, 6, 73, 291.6546325683594
0, 6, 74, 329.891357421875
0, 6, 75, 344.0753784179688
0, 6, 76, 298.6029052734375
0, 6, 77, 286.1666259765625
0, 6, 78, 278.1688537597656
0, 6, 79, 292.8348388671875
0, 6, 80, 301.5104675292969
0, 6, 81, 316.7627868652344
0, 6, 82, 319.0525512695312
0, 6, 83, 319.2855224609375
0, 6, 84, 295.8735046386719
0, 6, 85, 300.4780883789062
0, 6, 86, 333.6195373535156
0, 6, 87, 290.7044372558594
0, 6, 88, 308.9324645996094
0, 6, 89, 304.6765747070312
0, 6, 90, 302.1030578613281
0, 6, 91, 311.987548828125
0, 6, 92, 287.0604858398438
0, 6, 93, 295.9376220703125
0, 6, 94, 272.2400207519531
0, 6, 95, 298.2745971679688
0, 6, 96, 348.9401550292969
0, 6, 97, 309.042724609375
0, 6, 98, 300.9003601074219
0, 6, 99, 272.4266052246094
0, 6, 100, 311.6085205078125
0, 6, 101, 293.8616638183594
0, 6, 102, 307.6979370117188
0, 6, 103, 306.533935546875
0, 6, 104, 292.1282348632812
0, 6, 105, 300.0835266113281
0, 6, 106, 307.5688781738281
0, 6, 107, 304.8664855957031
0, 6, 108, 265.2822875976562
0, 6, 109, 186.4225463867188
0, 6, 110, 54.74250793457031
0, 6, 111, 22.18098449707031
0, 6, 112, 14.87772178649902
0, 6, 113, 13.11913394927979
0, 6, 114, 12.46157550811768
0, 6, 115, 12.94366645812988
0, 6, 116, 8.120933532714844
0, 6, 117, 7.741579055786133
0, 6, 118, 8.402261734008789
0, 6, 119, 10.95988941192627
0, 6, 120, 4.435391426086426
0, 6, 121, 5.078073501586914
0, 6, 122, 6.569048404693604
0, 6, 123, 5.910154819488525
0, 6, 124, 5.511982440948486
0, 6, 125, 8.303929328918457
0, 6, 126, 4.768913269042969
0, 6, 127, 10.31035709381104
0, 7, 0, 5.586452484130859
0, 7, 1, 4.993699550628662
0, 7, 2, 4.806937217712402
0, 7, 3, 5.516254425048828
0, 7, 4, 6.663922309875488
0, 7, 5, 3.810296535491943
0, 7, 6, 6.342716693878174
0, 7, 7, 4.217184066772461
0, 7, 8, 6.036588668823242
0, 7, 9, 9.697121620178223
0, 7, 10, 9.073418617248535
0, 7, 11, 13.42105674743652
0, 7, 12, 12.16094779968262
0, 7, 13, 10.17132377624512
0, 7, 14, 11.04472637176514
0, 7, 15, 16.80942153930664
0, 7, 16, 27.44617462158203
0, 7, 17, 98.53820037841797
0, 7, 18, 219.2176361083984
0, 7, 19, 289.7234497070312
0, 7, 20, 295.8067016601562
0, 7, 21, 276.6417236328125
0, 7, 22, 300.8807067871094
0, 7, 23, 288.6812438964844
0, 7, 24, 313.1705017089844
0, 7, 25, 324.33935546875
0, 7, 26, 278.2330627441406
0, 7, 27, 296.878173828125
0, 7, 28, 326.3359375
0, 7, 29, 317.7225036621094
0, 7, 30, 302.2351989746094
0, 7, 31, 277.4213562011719
0, 7, 32, 303.8402709960938
0, 7, 33, 262.6291198730469
0, 7, 34, 296.9623718261719
0, 7, 35, 318.4018859863281
0, 7, 36, 332.2319946289062
0, 7, 37, 325.9629516601562
0, 7, 38, 296.6182556152344
0, 7, 39, 305.9045715332031
0, 7, 40, 290.3944702148438
0, 7, 41, 271.8184509277344
0, 7, 42, 301.1628112792969
0, 7, 43, 275.9745788574219
0, 7, 44, 304.0683898925781
0, 7, 45, 297.14208984375
0, 7, 46, 283.6844787597656
0, 7, 47, 326.5875549316406
0, 7, 48, 286.3280334472656
0, 7, 49, 300.7257080078125
0, 7, 50, 322.053466796875
0, 7, 51, 298.3627319335938
0, 7, 52, 325.4838562011719
0, 7, 53, 308.7483825683594
0, 7, 54, 323.6483154296875
0, 7, 55, 307.5205078125
0, 7, 56, 278.9259643554688
0, 7, 57, 281.5357055664062
0, 7, 58, 298.5611267089844
0, 7, 59, 292.7333374023438
0, 7, 60, 322.3656921386719
0, 7, 61, 276.7377014160156
0, 7, 62, 299.6012268066406
0, 7, 63, 293.8546142578125
0, 7, 64, 307.3744201660156
0, 7, 65, 332.662109375
0, 7, 66, 320.7437744140625
0, 7, 67, 301.9990844726562
0, 7, 68, 280.7889099121094
0, 7, 69, 294.6817321777344
0, 7, 70, 300.4436950683594
0, 7, 71, 309.782958984375
0, 7, 72, 286.3400268554688
0, 7, 73, 295.3487243652344
0, 7, 74, 343.8661193847656
0, 7, 75, 319.4655456542969
0, 7, 76, 324.2100524902344
0, 7, 77, 282.3948364257812
0, 7, 78, 298.8611755371094
0, 7, 79, 298.1506958007812
0, 7, 80, 311.1895751953125
0, 7, 81, 318.9208374023438
0, 7, 82, 329.8030700683594
0, 7, 83, 316.8480834960938
0, 7, 84, 312.1788635253906
0, 7, 85, 272.0213623046875
0, 7, 86, 310.7986145019531
0, 7, 87, 309.0049133300781
0, 7, 88, 306.7274780273438
0, 7, 89, 294.0316467285156
0, 7, 90, 309.3265991210938
0, 7, 91, 315.7760009765625
0, 7, 92, 291.746337890625
0, 7, 93, 308.4549560546875
0, 7, 94, 274.0473937988281
0, 7, 95, 296.8365478515625
0, 7, 96, 330.3374633789062
0, 7, 97, 294.5830688476562
0, 7, 98, 291.3690795898438
0, 7, 99, 311.8132019042969
0, 7, 100, 282.8060913085938
0, 7, 101, 274.9876403808594
0, 7, 102, 290.1436462402344
0, 7, 103, 292.8028259277344
0, 7, 104, 274.8013610839844
0, 7, 105, 305.8220520019531
0, 7, 106, 318.6600952148438
0, 7, 107, 298.2437744140625
0, 7, 108, 273.6235961914062
0, 7, 109, 237.5615692138672
0, 7, 110, 96.7017822265625
0, 7, 111, 23.71228218078613
0, 7, 112, 15.15860366821289
0, 7, 113, 16.74266624450684
0, 7, 114, 12.26039886474609
0, 7, 115, 11.89153575897217
0, 7, 116, 8.056735992431641
0, 7, 117, 5.291591167449951
0, 7, 118, 6.669741153717041
0, 7, 119, 5.715718269348145
0, 7, 120, 6.297439098358154
0, 7, 121, 8.73277759552002
0, 7, 122, 7.072861194610596
0, 7, 123, 7.107929229736328
0, 7, 124, 3.175514459609985
0, 7, 125, 6.008981227874756
0, 7, 126, 6.70579719543457
0, 7, 127, 2.171374559402466
0, 8, 0, 5.430243492126465
0, 8, 1, 2.543850183486938
0, 8, 2, 2.601665019989014
0, 8, 3, 2.423976421356201
0, 8, 4, 3.914163112640381
0, 8, 5, 4.74537992477417
0, 8, 6, 5.46372127532959
0, 8, 7, 4.440746307373047
0, 8, 8, 7.637503623962402
0, 8, 9, 5.797872066497803
0, 8, 10, 8.636190414428711
0, 8, 11, 12.0580005645752
0, 8, 12, 14.88753986358643
0, 8, 13, 17.31506729125977
0, 8, 14, 14.02878761291504
0, 8, 15, 16.8514575958252
0, 8, 16, 35.08783340454102
0, 8, 17, 130.7399291992188
0, 8, 18, 243.6529235839844
0, 8, 19, 296.8739318847656
0, 8, 20, 286.317138671875
0, 8, 21, 306.37548828125
0, 8, 22, 294.5496215820312
0, 8, 23, 275.801025390625
0, 8, 24, 268.2590026855469
0, 8, 25, 274.8658142089844
0, 8, 26, 305.5894165039062
0, 8, 27, 307.7495727539062
0, 8, 28, 304.5147399902344
0, 8, 29, 319.0140380859375
0, 8, 30, 316.1385498046875
0, 8, 31, 304.2679138183594
0, 8, 32, 283.2339172363281
0, 8, 33, 295.0130310058594
0, 8, 34, 287.8087768554688
0, 8, 35, 282.0416259765625
0, 8, 36, 316.6545104980469
0, 8, 37, 337.4032897949219
0, 8, 38, 331.5148315429688
0, 8, 39, 281.5645446777344
