# TOPAS Version: 3.1.p3
# Parameter File: batch_inserts_176.txt
# Results for scorer Readout_Adipose
# Scored in component: MyBox
# X in 1 bin  of 0.75 cm
# Y in 512 bins of 0.0783984 cm
# Z in 128 bins of 0.078125 cm
# EnergyDeposit ( MeV ) : Sum   
0, 0, 0, 22.14812469482422
0, 0, 1, 24.42344856262207
0, 0, 2, 26.19839096069336
0, 0, 3, 29.87910842895508
0, 0, 4, 15.35977649688721
0, 0, 5, 24.29228973388672
0, 0, 6, 28.441162109375
0, 0, 7, 34.75885009765625
0, 0, 8, 21.20834159851074
0, 0, 9, 21.74857139587402
0, 0, 10, 24.78060340881348
0, 0, 11, 23.55624961853027
0, 0, 12, 36.80388259887695
0, 0, 13, 36.59876251220703
0, 0, 14, 36.16878509521484
0, 0, 15, 50.11412811279297
0, 0, 16, 43.51655960083008
0, 0, 17, 47.14438247680664
0, 0, 18, 72.68630981445312
0, 0, 19, 188.4062194824219
0, 0, 20, 698.3086547851562
0, 0, 21, 1190.05517578125
0, 0, 22, 1241.557250976562
0, 0, 23, 1277.024658203125
0, 0, 24, 1280.7861328125
0, 0, 25, 1357.294189453125
0, 0, 26, 1275.572021484375
0, 0, 27, 1281.831298828125
0, 0, 28, 1322.220825195312
0, 0, 29, 1273.401245117188
0, 0, 30, 1269.379516601562
0, 0, 31, 1279.266723632812
0, 0, 32, 1267.3125
0, 0, 33, 1241.07080078125
0, 0, 34, 1322.082885742188
0, 0, 35, 1302.482788085938
0, 0, 36, 1247.10595703125
0, 0, 37, 1280.63525390625
0, 0, 38, 1246.983642578125
0, 0, 39, 1243.104614257812
0, 0, 40, 1228.480102539062
0, 0, 41, 1270.087280273438
0, 0, 42, 1256.782104492188
0, 0, 43, 1268.04541015625
0, 0, 44, 1227.894409179688
0, 0, 45, 1288.509643554688
0, 0, 46, 1262.633178710938
0, 0, 47, 1240.797485351562
0, 0, 48, 1280.957153320312
0, 0, 49, 1287.108276367188
0, 0, 50, 1312.769653320312
0, 0, 51, 1263.341430664062
0, 0, 52, 1357.488037109375
0, 0, 53, 1329.659790039062
0, 0, 54, 1299.249389648438
0, 0, 55, 1234.489990234375
0, 0, 56, 1318.863037109375
0, 0, 57, 1290.01416015625
0, 0, 58, 1251.869140625
0, 0, 59, 1333.055541992188
0, 0, 60, 1323.996215820312
0, 0, 61, 1260.741333007812
0, 0, 62, 1243.043212890625
0, 0, 63, 1279.521850585938
0, 0, 64, 1333.032104492188
0, 0, 65, 1287.673461914062
0, 0, 66, 1315.644287109375
0, 0, 67, 1220.605346679688
0, 0, 68, 1313.7373046875
0, 0, 69, 1329.138793945312
0, 0, 70, 1342.517456054688
0, 0, 71, 1284.12548828125
0, 0, 72, 1312.924682617188
0, 0, 73, 1239.59716796875
0, 0, 74, 1289.622924804688
0, 0, 75, 1301.325317382812
0, 0, 76, 1253.156005859375
0, 0, 77, 1281.96728515625
0, 0, 78, 1318.235229492188
0, 0, 79, 1326.278442382812
0, 0, 80, 1265.05859375
0, 0, 81, 1319.543212890625
0, 0, 82, 1285.2783203125
0, 0, 83, 1291.20166015625
0, 0, 84, 1323.316772460938
0, 0, 85, 1238.008666992188
0, 0, 86, 1266.759643554688
0, 0, 87, 1253.991333007812
0, 0, 88, 1255.488037109375
0, 0, 89, 1334.4287109375
0, 0, 90, 1281.030639648438
0, 0, 91, 1359.174072265625
0, 0, 92, 1300.50244140625
0, 0, 93, 1271.444091796875
0, 0, 94, 1245.223388671875
0, 0, 95, 1326.823120117188
0, 0, 96, 1283.264404296875
0, 0, 97, 1326.055908203125
0, 0, 98, 1257.039794921875
0, 0, 99, 1252.889038085938
0, 0, 100, 1289.39208984375
0, 0, 101, 1311.919189453125
0, 0, 102, 1234.112915039062
0, 0, 103, 1321.476318359375
0, 0, 104, 1260.854614257812
0, 0, 105, 1269.759033203125
0, 0, 106, 1208.172485351562
0, 0, 107, 778.5794677734375
0, 0, 108, 193.6843566894531
0, 0, 109, 64.47223663330078
0, 0, 110, 64.81390380859375
0, 0, 111, 42.02810287475586
0, 0, 112, 35.12128448486328
0, 0, 113, 29.75735855102539
0, 0, 114, 37.46818161010742
0, 0, 115, 34.21804046630859
0, 0, 116, 26.69443702697754
0, 0, 117, 30.92874336242676
0, 0, 118, 26.1621265411377
0, 0, 119, 23.31555366516113
0, 0, 120, 27.14511108398438
0, 0, 121, 29.30942153930664
0, 0, 122, 20.71371650695801
0, 0, 123, 19.00987243652344
0, 0, 124, 22.22353935241699
0, 0, 125, 17.44862174987793
0, 0, 126, 22.84369468688965
0, 0, 127, 16.49658584594727
0, 1, 0, 24.45997428894043
0, 1, 1, 22.9960765838623
0, 1, 2, 20.82052040100098
0, 1, 3, 23.2503776550293
0, 1, 4, 24.96128273010254
0, 1, 5, 28.75662040710449
0, 1, 6, 23.71156120300293
0, 1, 7, 31.48681831359863
0, 1, 8, 34.17434310913086
0, 1, 9, 30.9403247833252
0, 1, 10, 37.94529724121094
0, 1, 11, 43.49983596801758
0, 1, 12, 41.41245269775391
0, 1, 13, 40.62289047241211
0, 1, 14, 41.32501602172852
0, 1, 15, 52.60550308227539
0, 1, 16, 58.92995452880859
0, 1, 17, 59.58673477172852
0, 1, 18, 100.8435974121094
0, 1, 19, 397.3538513183594
0, 1, 20, 1045.8427734375
0, 1, 21, 1371.479736328125
0, 1, 22, 1479.977783203125
0, 1, 23, 1464.757690429688
0, 1, 24, 1450.480712890625
0, 1, 25, 1422.080444335938
0, 1, 26, 1476.512451171875
0, 1, 27, 1466.228393554688
0, 1, 28, 1489.79638671875
0, 1, 29, 1477.73681640625
0, 1, 30, 1506.902465820312
0, 1, 31, 1485.350341796875
0, 1, 32, 1408.82666015625
0, 1, 33, 1497.591796875
0, 1, 34, 1508.02490234375
0, 1, 35, 1460.039672851562
0, 1, 36, 1489.76025390625
0, 1, 37, 1409.531372070312
0, 1, 38, 1388.796630859375
0, 1, 39, 1524.020629882812
0, 1, 40, 1461.949951171875
0, 1, 41, 1488.2001953125
0, 1, 42, 1493.661865234375
0, 1, 43, 1500.761474609375
0, 1, 44, 1448.57275390625
0, 1, 45, 1490.306640625
0, 1, 46, 1420.059692382812
0, 1, 47, 1435.97900390625
0, 1, 48, 1429.680419921875
0, 1, 49, 1487.335693359375
0, 1, 50, 1441.875
0, 1, 51, 1472.189575195312
0, 1, 52, 1477.716430664062
0, 1, 53, 1477.42138671875
0, 1, 54, 1506.970581054688
0, 1, 55, 1493.28662109375
0, 1, 56, 1468.87939453125
0, 1, 57, 1456.701416015625
0, 1, 58, 1433.499267578125
0, 1, 59, 1483.425048828125
0, 1, 60, 1462.09912109375
0, 1, 61, 1454.428833007812
0, 1, 62, 1454.266357421875
0, 1, 63, 1414.32177734375
0, 1, 64, 1472.889282226562
0, 1, 65, 1414.672729492188
0, 1, 66, 1438.307739257812
0, 1, 67, 1457.11181640625
0, 1, 68, 1387.32666015625
0, 1, 69, 1462.227294921875
0, 1, 70, 1435.454956054688
0, 1, 71, 1500.231811523438
0, 1, 72, 1434.387939453125
0, 1, 73, 1484.541870117188
0, 1, 74, 1470.087768554688
0, 1, 75, 1478.85498046875
0, 1, 76, 1456.47216796875
0, 1, 77, 1466.807373046875
0, 1, 78, 1449.32421875
0, 1, 79, 1499.473510742188
0, 1, 80, 1450.213745117188
0, 1, 81, 1426.183227539062
0, 1, 82, 1471.631103515625
0, 1, 83, 1464.99462890625
0, 1, 84, 1530.999755859375
0, 1, 85, 1444.463989257812
0, 1, 86, 1407.362426757812
0, 1, 87, 1416.139892578125
0, 1, 88, 1468.578491210938
0, 1, 89, 1479.396606445312
0, 1, 90, 1424.438720703125
0, 1, 91, 1465.494750976562
0, 1, 92, 1411.802001953125
0, 1, 93, 1460.47998046875
0, 1, 94, 1469.627197265625
0, 1, 95, 1422.805053710938
0, 1, 96, 1499.018676757812
0, 1, 97, 1518.630737304688
0, 1, 98, 1477.881591796875
0, 1, 99, 1418.792114257812
0, 1, 100, 1451.219482421875
0, 1, 101, 1411.728515625
0, 1, 102, 1441.454467773438
0, 1, 103, 1414.068603515625
0, 1, 104, 1406.899169921875
0, 1, 105, 1460.720458984375
0, 1, 106, 1369.216552734375
0, 1, 107, 1018.186462402344
0, 1, 108, 403.2306518554688
0, 1, 109, 88.921630859375
0, 1, 110, 65.15800476074219
0, 1, 111, 59.07118988037109
0, 1, 112, 44.18700790405273
0, 1, 113, 36.32333755493164
0, 1, 114, 35.78662109375
0, 1, 115, 37.30552291870117
0, 1, 116, 31.8791618347168
0, 1, 117, 33.59031677246094
0, 1, 118, 34.08183288574219
0, 1, 119, 29.68537902832031
0, 1, 120, 29.37703514099121
0, 1, 121, 23.66346549987793
0, 1, 122, 18.57148933410645
0, 1, 123, 20.65128135681152
0, 1, 124, 32.10538482666016
0, 1, 125, 22.78654098510742
0, 1, 126, 26.95792961120605
0, 1, 127, 24.11613464355469
0, 2, 0, 20.12349319458008
0, 2, 1, 23.65490913391113
0, 2, 2, 26.36359024047852
0, 2, 3, 23.87190246582031
0, 2, 4, 22.88262557983398
0, 2, 5, 28.76387214660645
0, 2, 6, 20.55579566955566
0, 2, 7, 20.93520545959473
0, 2, 8, 26.69060707092285
0, 2, 9, 29.31174659729004
0, 2, 10, 28.27142906188965
0, 2, 11, 37.97348403930664
0, 2, 12, 37.65533065795898
0, 2, 13, 48.64908218383789
0, 2, 14, 51.79016494750977
0, 2, 15, 49.51779556274414
0, 2, 16, 64.3905029296875
0, 2, 17, 82.32938385009766
0, 2, 18, 142.0501861572266
0, 2, 19, 609.330322265625
0, 2, 20, 1290.534301757812
0, 2, 21, 1435.171875
0, 2, 22, 1456.873413085938
0, 2, 23, 1406.56396484375
0, 2, 24, 1442.480346679688
0, 2, 25, 1521.600708007812
0, 2, 26, 1551.823974609375
0, 2, 27, 1455.64501953125
0, 2, 28, 1458.190063476562
0, 2, 29, 1462.944213867188
0, 2, 30, 1458.056396484375
0, 2, 31, 1529.302734375
0, 2, 32, 1506.671142578125
0, 2, 33, 1440.39990234375
0, 2, 34, 1469.198608398438
0, 2, 35, 1467.008178710938
0, 2, 36, 1524.408325195312
0, 2, 37, 1545.029663085938
0, 2, 38, 1505.731323242188
0, 2, 39, 1463.2578125
0, 2, 40, 1504.5888671875
0, 2, 41, 1522.030395507812
0, 2, 42, 1507.446411132812
0, 2, 43, 1550.441284179688
0, 2, 44, 1456.275756835938
0, 2, 45, 1481.453857421875
0, 2, 46, 1429.09228515625
0, 2, 47, 1447.362670898438
0, 2, 48, 1394.396362304688
0, 2, 49, 1465.353271484375
0, 2, 50, 1445.007690429688
0, 2, 51, 1444.892944335938
0, 2, 52, 1492.4736328125
0, 2, 53, 1519.443969726562
0, 2, 54, 1526.316772460938
0, 2, 55, 1490.600341796875
0, 2, 56, 1462.087524414062
0, 2, 57, 1417.00439453125
0, 2, 58, 1454.150268554688
0, 2, 59, 1453.286865234375
0, 2, 60, 1471.535034179688
0, 2, 61, 1444.946533203125
0, 2, 62, 1469.165893554688
0, 2, 63, 1510.523193359375
0, 2, 64, 1456.020751953125
0, 2, 65, 1429.732055664062
0, 2, 66, 1487.115112304688
0, 2, 67, 1502.746704101562
0, 2, 68, 1547.369750976562
0, 2, 69, 1537.781616210938
0, 2, 70, 1509.702270507812
0, 2, 71, 1460.68896484375
0, 2, 72, 1516.88671875
0, 2, 73, 1522.730346679688
0, 2, 74, 1492.27294921875
0, 2, 75, 1502.538818359375
0, 2, 76, 1450.48974609375
0, 2, 77, 1502.00048828125
0, 2, 78, 1432.28466796875
0, 2, 79, 1540.04541015625
0, 2, 80, 1482.870849609375
0, 2, 81, 1460.7177734375
0, 2, 82, 1559.069091796875
0, 2, 83, 1520.851684570312
0, 2, 84, 1489.478881835938
0, 2, 85, 1514.660766601562
0, 2, 86, 1543.046264648438
0, 2, 87, 1488.926025390625
0, 2, 88, 1535.76513671875
0, 2, 89, 1466.368408203125
0, 2, 90, 1431.42822265625
0, 2, 91, 1404.058715820312
0, 2, 92, 1480.923706054688
0, 2, 93, 1489.044555664062
0, 2, 94, 1456.56884765625
0, 2, 95, 1544.576782226562
0, 2, 96, 1514.2421875
0, 2, 97, 1451.645629882812
0, 2, 98, 1460.669921875
0, 2, 99, 1403.217651367188
0, 2, 100, 1472.6171875
0, 2, 101, 1484.100341796875
0, 2, 102, 1461.75146484375
0, 2, 103, 1386.0732421875
0, 2, 104, 1408.819702148438
0, 2, 105, 1395.005859375
0, 2, 106, 1457.430908203125
0, 2, 107, 1277.38818359375
0, 2, 108, 620.825927734375
0, 2, 109, 168.2003479003906
0, 2, 110, 68.81137847900391
0, 2, 111, 62.51884460449219
0, 2, 112, 46.66078567504883
0, 2, 113, 45.79756546020508
0, 2, 114, 34.46749496459961
0, 2, 115, 43.22029495239258
0, 2, 116, 32.18841171264648
0, 2, 117, 39.12794876098633
0, 2, 118, 33.58452987670898
0, 2, 119, 28.37100028991699
0, 2, 120, 29.54293251037598
0, 2, 121, 18.77159690856934
0, 2, 122, 28.10835647583008
0, 2, 123, 22.98429107666016
0, 2, 124, 23.04818153381348
0, 2, 125, 29.18983268737793
0, 2, 126, 18.39162635803223
0, 2, 127, 20.33024597167969
0, 3, 0, 17.64408683776855
0, 3, 1, 24.64656448364258
0, 3, 2, 23.27066612243652
0, 3, 3, 21.39009475708008
0, 3, 4, 20.24949073791504
0, 3, 5, 23.72660255432129
0, 3, 6, 33.26690292358398
0, 3, 7, 27.30671310424805
0, 3, 8, 28.08897399902344
0, 3, 9, 30.54718017578125
0, 3, 10, 33.51452255249023
0, 3, 11, 35.46667098999023
0, 3, 12, 44.78734588623047
0, 3, 13, 49.28613662719727
0, 3, 14, 58.55997848510742
0, 3, 15, 54.56015396118164
0, 3, 16, 73.52159881591797
0, 3, 17, 88.48239135742188
0, 3, 18, 240.8279113769531
0, 3, 19, 877.7611083984375
0, 3, 20, 1387.341552734375
0, 3, 21, 1506.763305664062
0, 3, 22, 1461.446655273438
0, 3, 23, 1451.048461914062
0, 3, 24, 1440.097412109375
0, 3, 25, 1462.835815429688
0, 3, 26, 1493.933227539062
0, 3, 27, 1469.284423828125
0, 3, 28, 1488.391845703125
0, 3, 29, 1542.059326171875
0, 3, 30, 1571.87451171875
0, 3, 31, 1512.559692382812
0, 3, 32, 1546.043334960938
0, 3, 33, 1539.388916015625
0, 3, 34, 1493.904296875
0, 3, 35, 1462.726928710938
0, 3, 36, 1452.286499023438
0, 3, 37, 1513.7978515625
0, 3, 38, 1521.365112304688
0, 3, 39, 1441.3515625
0, 3, 40, 1436.885498046875
0, 3, 41, 1562.031494140625
0, 3, 42, 1465.268432617188
0, 3, 43, 1457.02099609375
0, 3, 44, 1451.345336914062
0, 3, 45, 1501.749755859375
0, 3, 46, 1505.677368164062
0, 3, 47, 1439.748046875
0, 3, 48, 1504.673583984375
0, 3, 49, 1453.70849609375
0, 3, 50, 1489.461791992188
0, 3, 51, 1538.220458984375
0, 3, 52, 1540.419067382812
0, 3, 53, 1464.757690429688
0, 3, 54, 1534.713989257812
0, 3, 55, 1504.5341796875
0, 3, 56, 1432.575805664062
0, 3, 57, 1501.778564453125
0, 3, 58, 1514.052124023438
0, 3, 59, 1509.185424804688
0, 3, 60, 1532.215087890625
0, 3, 61, 1481.285034179688
0, 3, 62, 1493.840576171875
0, 3, 63, 1495.734008789062
0, 3, 64, 1501.957885742188
0, 3, 65, 1516.974975585938
0, 3, 66, 1555.40185546875
0, 3, 67, 1550.052368164062
0, 3, 68, 1448.95654296875
0, 3, 69, 1464.027587890625
0, 3, 70, 1391.773071289062
0, 3, 71, 1463.178466796875
0, 3, 72, 1542.309204101562
0, 3, 73, 1501.748046875
0, 3, 74, 1467.011352539062
0, 3, 75, 1459.137817382812
0, 3, 76, 1577.798706054688
0, 3, 77, 1541.562377929688
0, 3, 78, 1429.650024414062
0, 3, 79, 1489.400634765625
0, 3, 80, 1459.913452148438
0, 3, 81, 1475.294677734375
0, 3, 82, 1554.099609375
0, 3, 83, 1513.73779296875
0, 3, 84, 1564.890747070312
0, 3, 85, 1483.333862304688
0, 3, 86, 1526.542114257812
0, 3, 87, 1540.47802734375
0, 3, 88, 1454.20458984375
0, 3, 89, 1447.938232421875
0, 3, 90, 1447.519897460938
0, 3, 91, 1419.570434570312
0, 3, 92, 1511.507690429688
0, 3, 93, 1501.7177734375
0, 3, 94, 1513.861083984375
0, 3, 95, 1543.06201171875
0, 3, 96, 1514.856323242188
0, 3, 97, 1468.5205078125
0, 3, 98, 1434.975952148438
0, 3, 99, 1467.86572265625
0, 3, 100, 1468.244262695312
0, 3, 101, 1473.302368164062
0, 3, 102, 1521.175170898438
0, 3, 103, 1557.455810546875
0, 3, 104, 1498.138671875
0, 3, 105, 1513.156494140625
0, 3, 106, 1478.312377929688
0, 3, 107, 1345.510986328125
0, 3, 108, 871.830810546875
0, 3, 109, 260.6088562011719
0, 3, 110, 103.3087310791016
0, 3, 111, 62.9419059753418
0, 3, 112, 57.77302169799805
0, 3, 113, 49.21904373168945
0, 3, 114, 52.19533920288086
0, 3, 115, 46.18216705322266
0, 3, 116, 35.81377792358398
0, 3, 117, 39.10931015014648
0, 3, 118, 35.55623245239258
0, 3, 119, 29.25115966796875
0, 3, 120, 27.49599456787109
0, 3, 121, 19.83832359313965
0, 3, 122, 22.12766647338867
0, 3, 123, 24.0010814666748
0, 3, 124, 21.00268936157227
0, 3, 125, 27.83025360107422
0, 3, 126, 21.23716354370117
0, 3, 127, 17.90802383422852
0, 4, 0, 17.39148712158203
0, 4, 1, 23.45649909973145
0, 4, 2, 21.20281410217285
0, 4, 3, 21.95078468322754
0, 4, 4, 25.46771240234375
0, 4, 5, 30.35816764831543
0, 4, 6, 29.9400520324707
0, 4, 7, 30.50497817993164
0, 4, 8, 30.92440986633301
0, 4, 9, 36.4793586730957
0, 4, 10, 32.72373962402344
0, 4, 11, 35.28602600097656
0, 4, 12, 45.87993621826172
0, 4, 13, 54.49398040771484
0, 4, 14, 50.47256088256836
0, 4, 15, 61.41591262817383
0, 4, 16, 68.50279998779297
0, 4, 17, 114.1521835327148
0, 4, 18, 446.1896667480469
0, 4, 19, 1181.2421875
0, 4, 20, 1445.450805664062
0, 4, 21, 1419.256103515625
0, 4, 22, 1434.499755859375
0, 4, 23, 1452.56103515625
0, 4, 24, 1478.217041015625
0, 4, 25, 1407.908935546875
0, 4, 26, 1535.804321289062
0, 4, 27, 1543.875122070312
0, 4, 28, 1505.54541015625
0, 4, 29, 1516.717041015625
0, 4, 30, 1526.84375
0, 4, 31, 1578.138305664062
0, 4, 32, 1517.275512695312
0, 4, 33, 1493.641723632812
0, 4, 34, 1465.594604492188
0, 4, 35, 1557.985595703125
0, 4, 36, 1507.115356445312
0, 4, 37, 1513.039916992188
0, 4, 38, 1539.275634765625
0, 4, 39, 1468.640014648438
0, 4, 40, 1515.040893554688
0, 4, 41, 1585.745239257812
0, 4, 42, 1563.973999023438
0, 4, 43, 1473.325073242188
0, 4, 44, 1493.879760742188
0, 4, 45, 1523.340087890625
0, 4, 46, 1464.75732421875
0, 4, 47, 1507.46044921875
0, 4, 48, 1523.050537109375
0, 4, 49, 1469.153686523438
0, 4, 50, 1516.649169921875
0, 4, 51, 1494.779418945312
0, 4, 52, 1494.030639648438
0, 4, 53, 1451.774047851562
0, 4, 54, 1445.5390625
0, 4, 55, 1523.013671875
0, 4, 56, 1456.780883789062
0, 4, 57, 1498.262329101562
0, 4, 58, 1458.508544921875
0, 4, 59, 1465.259765625
0, 4, 60, 1525.642578125
0, 4, 61, 1495.893432617188
0, 4, 62, 1505.893310546875
0, 4, 63, 1548.108764648438
0, 4, 64, 1592.234985351562
0, 4, 65, 1424.7021484375
0, 4, 66, 1514.433959960938
0, 4, 67, 1522.658935546875
0, 4, 68, 1495.745483398438
0, 4, 69, 1470.170043945312
0, 4, 70, 1544.286987304688
0, 4, 71, 1513.302368164062
0, 4, 72, 1532.565307617188
0, 4, 73, 1491.658813476562
0, 4, 74, 1487.860717773438
0, 4, 75, 1537.32763671875
0, 4, 76, 1479.052734375
0, 4, 77, 1500.353393554688
0, 4, 78, 1498.745361328125
0, 4, 79, 1484.466796875
0, 4, 80, 1510.84375
0, 4, 81, 1522.95068359375
0, 4, 82, 1571.838623046875
0, 4, 83, 1503.869140625
0, 4, 84, 1536.77783203125
0, 4, 85, 1553.700927734375
0, 4, 86, 1524.237060546875
0, 4, 87, 1500.960693359375
0, 4, 88, 1518.495361328125
0, 4, 89, 1480.468627929688
0, 4, 90, 1546.427368164062
0, 4, 91, 1554.690185546875
0, 4, 92, 1495.662963867188
0, 4, 93, 1517.478637695312
0, 4, 94, 1485.397583007812
0, 4, 95, 1508.404296875
0, 4, 96, 1443.87548828125
0, 4, 97, 1406.334350585938
0, 4, 98, 1550.698974609375
0, 4, 99, 1509.53857421875
0, 4, 100, 1489.99658203125
0, 4, 101, 1448.171264648438
0, 4, 102, 1442.962524414062
0, 4, 103, 1514.318359375
0, 4, 104, 1515.292724609375
0, 4, 105, 1556.671020507812
0, 4, 106, 1481.360717773438
0, 4, 107, 1453.641723632812
0, 4, 108, 1121.3583984375
0, 4, 109, 436.7726135253906
0, 4, 110, 96.62409973144531
0, 4, 111, 68.77423095703125
0, 4, 112, 60.68117904663086
0, 4, 113, 53.39515686035156
0, 4, 114, 51.89595031738281
0, 4, 115, 49.92454528808594
0, 4, 116, 35.01777267456055
0, 4, 117, 41.25202560424805
0, 4, 118, 37.90142822265625
0, 4, 119, 38.47916793823242
0, 4, 120, 35.92438888549805
0, 4, 121, 29.49592018127441
0, 4, 122, 30.79534912109375
0, 4, 123, 33.07831573486328
0, 4, 124, 24.95667839050293
0, 4, 125, 32.20620727539062
0, 4, 126, 20.37698554992676
0, 4, 127, 19.0388240814209
0, 5, 0, 25.40906715393066
0, 5, 1, 24.79107093811035
0, 5, 2, 29.91023254394531
0, 5, 3, 23.68709182739258
0, 5, 4, 24.67519378662109
0, 5, 5, 36.07872772216797
0, 5, 6, 24.26543235778809
0, 5, 7, 27.90102958679199
0, 5, 8, 33.08577346801758
0, 5, 9, 30.63278579711914
0, 5, 10, 30.85516929626465
0, 5, 11, 40.02688980102539
0, 5, 12, 35.35178375244141
0, 5, 13, 44.99566268920898
0, 5, 14, 60.53679275512695
0, 5, 15, 77.42718505859375
0, 5, 16, 82.72350311279297
0, 5, 17, 156.3776550292969
0, 5, 18, 672.492919921875
0, 5, 19, 1344.100219726562
0, 5, 20, 1525.432250976562
0, 5, 21, 1498.613403320312
0, 5, 22, 1497.166137695312
0, 5, 23, 1531.853393554688
0, 5, 24, 1462.474243164062
0, 5, 25, 1425.506713867188
0, 5, 26, 1524.579956054688
0, 5, 27, 1539.898681640625
0, 5, 28, 1487.117065429688
0, 5, 29, 1522.559204101562
0, 5, 30, 1493.594848632812
0, 5, 31, 1498.659423828125
0, 5, 32, 1596.411499023438
0, 5, 33, 1500.86474609375
0, 5, 34, 1481.37451171875
0, 5, 35, 1514.980346679688
0, 5, 36, 1440.146362304688
0, 5, 37, 1529.76953125
0, 5, 38, 1544.944946289062
0, 5, 39, 1545.390747070312
0, 5, 40, 1497.160766601562
0, 5, 41, 1477.778930664062
0, 5, 42, 1542.741821289062
0, 5, 43, 1531.658447265625
0, 5, 44, 1544.961181640625
0, 5, 45, 1504.042846679688
0, 5, 46, 1493.67919921875
0, 5, 47, 1482.6884765625
0, 5, 48, 1499.552612304688
0, 5, 49, 1521.172485351562
0, 5, 50, 1512.564208984375
0, 5, 51, 1521.406860351562
0, 5, 52, 1429.224731445312
0, 5, 53, 1525.60791015625
0, 5, 54, 1516.875122070312
0, 5, 55, 1523.675659179688
0, 5, 56, 1482.392944335938
0, 5, 57, 1537.8583984375
0, 5, 58, 1507.881225585938
0, 5, 59, 1483.487426757812
0, 5, 60, 1536.176513671875
0, 5, 61, 1452.570434570312
0, 5, 62, 1584.559936523438
0, 5, 63, 1430.997802734375
0, 5, 64, 1487.856811523438
0, 5, 65, 1465.394653320312
0, 5, 66, 1527.165161132812
0, 5, 67, 1554.947021484375
0, 5, 68, 1461.581665039062
0, 5, 69, 1479.23095703125
0, 5, 70, 1488.814453125
0, 5, 71, 1470.6865234375
0, 5, 72, 1542.32958984375
0, 5, 73, 1461.016479492188
0, 5, 74, 1489.01953125
0, 5, 75, 1484.629150390625
0, 5, 76, 1476.907592773438
0, 5, 77, 1512.692993164062
0, 5, 78, 1521.843505859375
0, 5, 79, 1510.9111328125
0, 5, 80, 1521.331298828125
0, 5, 81, 1600.529907226562
0, 5, 82, 1527.989624023438
0, 5, 83, 1486.179809570312
0, 5, 84, 1532.929931640625
0, 5, 85, 1518.921264648438
0, 5, 86, 1556.392456054688
0, 5, 87, 1472.439331054688
0, 5, 88, 1495.029907226562
0, 5, 89, 1481.496826171875
0, 5, 90, 1476.770263671875
0, 5, 91, 1548.993530273438
0, 5, 92, 1483.57958984375
0, 5, 93, 1562.6513671875
0, 5, 94, 1512.471801757812
0, 5, 95, 1559.442138671875
0, 5, 96, 1499.580444335938
0, 5, 97, 1508.85546875
0, 5, 98, 1508.989135742188
0, 5, 99, 1541.055297851562
0, 5, 100, 1435.740966796875
0, 5, 101, 1428.955322265625
0, 5, 102, 1511.19580078125
0, 5, 103, 1475.113647460938
0, 5, 104, 1463.141479492188
0, 5, 105, 1493.217529296875
0, 5, 106, 1456.28173828125
0, 5, 107, 1394.619873046875
0, 5, 108, 1288.520141601562
0, 5, 109, 721.7147216796875
0, 5, 110, 189.7628936767578
0, 5, 111, 89.94588470458984
0, 5, 112, 80.54867553710938
0, 5, 113, 60.78118515014648
0, 5, 114, 65.02243041992188
0, 5, 115, 57.33031463623047
0, 5, 116, 40.31533813476562
0, 5, 117, 36.59445190429688
0, 5, 118, 41.30029296875
0, 5, 119, 29.09000015258789
0, 5, 120, 24.64809417724609
0, 5, 121, 27.81778526306152
0, 5, 122, 32.66859436035156
0, 5, 123, 27.48976898193359
0, 5, 124, 29.39196586608887
0, 5, 125, 20.32760238647461
0, 5, 126, 16.55633354187012
0, 5, 127, 22.1285572052002
0, 6, 0, 19.54339027404785
0, 6, 1, 29.74342155456543
0, 6, 2, 27.80933952331543
0, 6, 3, 25.92429351806641
0, 6, 4, 26.37477684020996
0, 6, 5, 36.92214202880859
0, 6, 6, 37.12918090820312
0, 6, 7, 30.89512634277344
0, 6, 8, 38.3181037902832
0, 6, 9, 32.46653366088867
0, 6, 10, 41.52924346923828
0, 6, 11, 37.68658447265625
0, 6, 12, 39.51028442382812
0, 6, 13, 58.58037567138672
0, 6, 14, 61.17253112792969
0, 6, 15, 79.57968139648438
0, 6, 16, 108.7245178222656
0, 6, 17, 296.7430419921875
0, 6, 18, 899.0973510742188
0, 6, 19, 1374.508178710938
0, 6, 20, 1437.375366210938
0, 6, 21, 1532.27099609375
0, 6, 22, 1500.931518554688
0, 6, 23, 1527.515625
0, 6, 24, 1479.45849609375
0, 6, 25, 1529.443359375
0, 6, 26, 1516.1767578125
0, 6, 27, 1524.666625976562
0, 6, 28, 1549.390380859375
0, 6, 29, 1573.04345703125
0, 6, 30, 1519.197875976562
0, 6, 31, 1494.308349609375
0, 6, 32, 1528.428588867188
0, 6, 33, 1488.542724609375
0, 6, 34, 1562.458740234375
0, 6, 35, 1503.774047851562
0, 6, 36, 1439.930908203125
0, 6, 37, 1544.722900390625
0, 6, 38, 1533.24853515625
0, 6, 39, 1525.412963867188
0, 6, 40, 1459.663208007812
0, 6, 41, 1451.919921875
0, 6, 42, 1513.04736328125
0, 6, 43, 1486.515747070312
0, 6, 44, 1431.794189453125
0, 6, 45, 1547.564819335938
0, 6, 46, 1552.521362304688
0, 6, 47, 1495.868286132812
0, 6, 48, 1527.372924804688
0, 6, 49, 1514.848876953125
0, 6, 50, 1572.970825195312
0, 6, 51, 1503.488159179688
0, 6, 52, 1560.90380859375
0, 6, 53, 1475.30224609375
0, 6, 54, 1503.10986328125
0, 6, 55, 1571.399536132812
0, 6, 56, 1522.323486328125
0, 6, 57, 1505.022705078125
0, 6, 58, 1465.989013671875
0, 6, 59, 1525.394897460938
0, 6, 60, 1467.825073242188
0, 6, 61, 1571.119995117188
0, 6, 62, 1545.652099609375
0, 6, 63, 1492.226684570312
0, 6, 64, 1411.877197265625
0, 6, 65, 1490.839111328125
0, 6, 66, 1512.080688476562
0, 6, 67, 1510.08349609375
0, 6, 68, 1546.738891601562
0, 6, 69, 1490.229248046875
0, 6, 70, 1524.6474609375
0, 6, 71, 1472.450561523438
0, 6, 72, 1591.715698242188
0, 6, 73, 1490.698608398438
0, 6, 74, 1558.241943359375
0, 6, 75, 1540.298828125
0, 6, 76, 1563.232421875
0, 6, 77, 1508.553955078125
0, 6, 78, 1448.144409179688
0, 6, 79, 1558.728393554688
0, 6, 80, 1483.961059570312
0, 6, 81, 1490.279174804688
0, 6, 82, 1504.532348632812
0, 6, 83, 1524.58544921875
0, 6, 84, 1518.04443359375
0, 6, 85, 1535.8173828125
0, 6, 86, 1540.261840820312
0, 6, 87, 1569.983032226562
0, 6, 88, 1481.717895507812
0, 6, 89, 1565.287719726562
0, 6, 90, 1491.725219726562
0, 6, 91, 1540.479858398438
0, 6, 92, 1488.883666992188
0, 6, 93, 1498.430053710938
0, 6, 94, 1471.787963867188
0, 6, 95, 1510.53173828125
0, 6, 96, 1515.7626953125
0, 6, 97, 1511.622680664062
0, 6, 98, 1494.010009765625
0, 6, 99, 1477.31591796875
0, 6, 100, 1521.561645507812
0, 6, 101, 1517.862426757812
0, 6, 102, 1541.243774414062
0, 6, 103, 1499.132934570312
0, 6, 104, 1470.798950195312
0, 6, 105, 1483.737182617188
0, 6, 106, 1494.87158203125
0, 6, 107, 1502.995727539062
0, 6, 108, 1409.065795898438
0, 6, 109, 922.3652954101562
0, 6, 110, 284.5029296875
0, 6, 111, 95.30249786376953
0, 6, 112, 80.99379730224609
0, 6, 113, 59.7413215637207
0, 6, 114, 56.65103530883789
0, 6, 115, 45.93526077270508
0, 6, 116, 41.93360137939453
0, 6, 117, 40.17715454101562
0, 6, 118, 41.08416748046875
0, 6, 119, 36.89516448974609
0, 6, 120, 34.99015045166016
0, 6, 121, 33.36769866943359
0, 6, 122, 27.22420501708984
0, 6, 123, 27.2950439453125
0, 6, 124, 30.50240135192871
0, 6, 125, 32.27308654785156
0, 6, 126, 17.45151710510254
0, 6, 127, 23.64203453063965
0, 7, 0, 21.05399322509766
0, 7, 1, 28.49329566955566
0, 7, 2, 24.89007377624512
0, 7, 3, 23.61487197875977
0, 7, 4, 24.84536170959473
0, 7, 5, 34.13662719726562
0, 7, 6, 31.67552757263184
0, 7, 7, 37.215087890625
0, 7, 8, 27.5838565826416
0, 7, 9, 37.76429748535156
0, 7, 10, 42.21448516845703
0, 7, 11, 52.59881591796875
0, 7, 12, 46.63089752197266
0, 7, 13, 58.72869873046875
0, 7, 14, 63.23166656494141
0, 7, 15, 78.06497192382812
0, 7, 16, 130.2518768310547
0, 7, 17, 459.7146606445312
0, 7, 18, 1097.117553710938
0, 7, 19, 1502.669555664062
0, 7, 20, 1490.191772460938
0, 7, 21, 1362.944946289062
0, 7, 22, 1486.59326171875
0, 7, 23, 1451.843139648438
0, 7, 24, 1509.751098632812
0, 7, 25, 1595.94384765625
0, 7, 26, 1521.97607421875
0, 7, 27, 1511.546264648438
0, 7, 28, 1550.5400390625
0, 7, 29, 1574.037475585938
0, 7, 30, 1554.178833007812
0, 7, 31, 1436.807861328125
0, 7, 32, 1544.71337890625
0, 7, 33, 1489.60693359375
0, 7, 34, 1475.650634765625
0, 7, 35, 1522.794311523438
0, 7, 36, 1478.05908203125
0, 7, 37, 1597.90673828125
0, 7, 38, 1508.694458007812
0, 7, 39, 1487.944702148438
0, 7, 40, 1544.280029296875
0, 7, 41, 1466.749877929688
0, 7, 42, 1491.977661132812
0, 7, 43, 1447.373168945312
0, 7, 44, 1495.17578125
0, 7, 45, 1471.363525390625
0, 7, 46, 1513.0068359375
0, 7, 47, 1566.498291015625
0, 7, 48, 1522.031005859375
0, 7, 49, 1538.563354492188
0, 7, 50, 1515.734985351562
0, 7, 51, 1500.039184570312
0, 7, 52, 1515.085693359375
0, 7, 53, 1495.162841796875
0, 7, 54, 1582.585205078125
0, 7, 55, 1473.692504882812
0, 7, 56, 1550.701416015625
0, 7, 57, 1514.367065429688
0, 7, 58, 1548.172485351562
0, 7, 59, 1539.928100585938
0, 7, 60, 1549.125
0, 7, 61, 1489.44873046875
0, 7, 62, 1437.159912109375
0, 7, 63, 1513.833740234375
0, 7, 64, 1550.020141601562
0, 7, 65, 1528.73828125
0, 7, 66, 1536.653198242188
0, 7, 67, 1578.966674804688
0, 7, 68, 1530.350952148438
0, 7, 69, 1520.588989257812
0, 7, 70, 1497.705932617188
0, 7, 71, 1527.585327148438
0, 7, 72, 1527.841796875
0, 7, 73, 1514.22900390625
0, 7, 74, 1575.060302734375
0, 7, 75, 1536.725219726562
0, 7, 76, 1562.374389648438
0, 7, 77, 1514.687255859375
0, 7, 78, 1510.0546875
0, 7, 79, 1428.3349609375
0, 7, 80, 1491.131225585938
0, 7, 81, 1492.648315429688
0, 7, 82, 1536.956665039062
0, 7, 83, 1542.416137695312
0, 7, 84, 1586.052490234375
0, 7, 85, 1483.155517578125
0, 7, 86, 1501.884155273438
0, 7, 87, 1508.501708984375
0, 7, 88, 1499.285034179688
0, 7, 89, 1554.370849609375
0, 7, 90, 1528.584228515625
0, 7, 91, 1560.628662109375
0, 7, 92, 1525.875366210938
0, 7, 93, 1556.898193359375
0, 7, 94, 1536.297241210938
0, 7, 95, 1508.065551757812
0, 7, 96, 1506.879760742188
0, 7, 97, 1434.724853515625
0, 7, 98, 1483.663208007812
0, 7, 99, 1525.015502929688
0, 7, 100, 1423.666381835938
0, 7, 101, 1462.309448242188
0, 7, 102, 1447.959716796875
0, 7, 103, 1435.165649414062
0, 7, 104, 1492.238403320312
0, 7, 105, 1521.76220703125
0, 7, 106, 1573.157592773438
0, 7, 107, 1480.3779296875
0, 7, 108, 1410.707275390625
0, 7, 109, 1150.237426757812
0, 7, 110, 471.0466003417969
0, 7, 111, 124.230712890625
0, 7, 112, 80.52589416503906
0, 7, 113, 67.61384582519531
0, 7, 114, 57.31371307373047
0, 7, 115, 55.23884963989258
0, 7, 116, 45.19242858886719
0, 7, 117, 47.10095977783203
0, 7, 118, 36.72745132446289
0, 7, 119, 33.87923812866211
0, 7, 120, 23.86874198913574
0, 7, 121, 34.75007629394531
0, 7, 122, 33.82342147827148
0, 7, 123, 30.19595718383789
0, 7, 124, 32.69951629638672
0, 7, 125, 21.78801536560059
0, 7, 126, 28.0302619934082
0, 7, 127, 20.42034530639648
0, 8, 0, 24.60780143737793
0, 8, 1, 21.38295555114746
0, 8, 2, 25.21785163879395
0, 8, 3, 29.32512474060059
0, 8, 4, 24.82636451721191
0, 8, 5, 34.41012954711914
0, 8, 6, 39.82434463500977
0, 8, 7, 26.69489288330078
0, 8, 8, 36.10138320922852
0, 8, 9, 45.80567169189453
0, 8, 10, 49.22294998168945
0, 8, 11, 45.39167022705078
0, 8, 12, 51.59946060180664
0, 8, 13, 69.30294036865234
0, 8, 14, 70.85547637939453
0, 8, 15, 86.52787780761719
0, 8, 16, 169.0685424804688
0, 8, 17, 673.8285522460938
0, 8, 18, 1275.833251953125
0, 8, 19, 1450.379638671875
0, 8, 20, 1423.224365234375
0, 8, 21, 1406.777221679688
0, 8, 22, 1489.970458984375
0, 8, 23, 1481.858276367188
0, 8, 24, 1437.469482421875
0, 8, 25, 1451.383911132812
0, 8, 26, 1514.185668945312
0, 8, 27, 1522.091552734375
0, 8, 28, 1478.100830078125
0, 8, 29, 1505.452270507812
0, 8, 30, 1490.826904296875
0, 8, 31, 1532.369873046875
0, 8, 32, 1508.24365234375
0, 8, 33, 1485.681274414062
0, 8, 34, 1536.198486328125
0, 8, 35, 1438.235595703125
0, 8, 36, 1498.001708984375
0, 8, 37, 1557.585571289062
0, 8, 38, 1552.203735351562
0, 8, 39, 1493.549682617188
0, 8, 40, 1534.432006835938
0, 8, 41, 1486.681762695312
0, 8, 42, 1539.232543945312
0, 8, 43, 1434.009765625
0, 8, 44, 1537.081909179688
0, 8, 45, 1509.837524414062
0, 8, 46, 1596.751953125
