# TOPAS Version: 3.1.p3
# Parameter File: batch_inserts_112.txt
# Results for scorer Readout_Adipose
# Scored in component: MyBox
# X in 1 bin  of 0.75 cm
# Y in 512 bins of 0.0783984 cm
# Z in 128 bins of 0.078125 cm
# EnergyDeposit ( MeV ) : Sum   
0, 0, 0, 4.846048355102539
0, 0, 1, 1.644648551940918
0, 0, 2, 3.370364189147949
0, 0, 3, 2.886242866516113
0, 0, 4, 2.478064060211182
0, 0, 5, 2.607404708862305
0, 0, 6, 5.629254817962646
0, 0, 7, 9.002484321594238
0, 0, 8, 4.259407997131348
0, 0, 9, 3.663338899612427
0, 0, 10, 6.631466388702393
0, 0, 11, 4.665626525878906
0, 0, 12, 4.185216426849365
0, 0, 13, 6.02223014831543
0, 0, 14, 9.16655445098877
0, 0, 15, 9.485074043273926
0, 0, 16, 8.515884399414062
0, 0, 17, 8.262235641479492
0, 0, 18, 12.77493095397949
0, 0, 19, 42.92521667480469
0, 0, 20, 138.8829193115234
0, 0, 21, 223.9896850585938
0, 0, 22, 249.4416809082031
0, 0, 23, 256.7467041015625
0, 0, 24, 251.7207183837891
0, 0, 25, 259.999755859375
0, 0, 26, 233.4386138916016
0, 0, 27, 236.4151763916016
0, 0, 28, 273.50927734375
0, 0, 29, 253.1912689208984
0, 0, 30, 231.7249298095703
0, 0, 31, 244.6284484863281
0, 0, 32, 263.3247985839844
0, 0, 33, 263.5846252441406
0, 0, 34, 287.902587890625
0, 0, 35, 268.9281005859375
0, 0, 36, 245.7360229492188
0, 0, 37, 250.9921417236328
0, 0, 38, 268.5408020019531
0, 0, 39, 229.6259002685547
0, 0, 40, 240.9864654541016
0, 0, 41, 265.4069213867188
0, 0, 42, 230.5685272216797
0, 0, 43, 259.1594848632812
0, 0, 44, 250.3822174072266
0, 0, 45, 252.9685821533203
0, 0, 46, 244.3094787597656
0, 0, 47, 253.88134765625
0, 0, 48, 268.6260375976562
0, 0, 49, 274.351318359375
0, 0, 50, 252.2625579833984
0, 0, 51, 256.3237609863281
0, 0, 52, 274.0283813476562
0, 0, 53, 292.4180603027344
0, 0, 54, 242.3033447265625
0, 0, 55, 239.3780822753906
0, 0, 56, 276.4812622070312
0, 0, 57, 261.8720703125
0, 0, 58, 245.3296966552734
0, 0, 59, 269.5281677246094
0, 0, 60, 234.8294982910156
0, 0, 61, 245.6756744384766
0, 0, 62, 258.2477416992188
0, 0, 63, 267.8719787597656
0, 0, 64, 256.2965393066406
0, 0, 65, 262.334228515625
0, 0, 66, 277.8089599609375
0, 0, 67, 247.0908508300781
0, 0, 68, 258.5009460449219
0, 0, 69, 262.0575561523438
0, 0, 70, 272.7928161621094
0, 0, 71, 236.4997253417969
0, 0, 72, 248.9201354980469
0, 0, 73, 257.4280395507812
0, 0, 74, 252.0416717529297
0, 0, 75, 239.7580108642578
0, 0, 76, 228.8181304931641
0, 0, 77, 260.1094665527344
0, 0, 78, 257.5463562011719
0, 0, 79, 279.3107604980469
0, 0, 80, 219.2131042480469
0, 0, 81, 269.2239379882812
0, 0, 82, 256.2967529296875
0, 0, 83, 246.6611480712891
0, 0, 84, 269.8042907714844
0, 0, 85, 231.6149597167969
0, 0, 86, 253.1636810302734
0, 0, 87, 250.4434204101562
0, 0, 88, 260.8400573730469
0, 0, 89, 283.753173828125
0, 0, 90, 242.9898681640625
0, 0, 91, 281.4801635742188
0, 0, 92, 252.2275695800781
0, 0, 93, 250.6004180908203
0, 0, 94, 249.2189178466797
0, 0, 95, 248.4393615722656
0, 0, 96, 274.8477172851562
0, 0, 97, 272.0280151367188
0, 0, 98, 274.0857238769531
0, 0, 99, 259.7431030273438
0, 0, 100, 258.2198791503906
0, 0, 101, 226.5866546630859
0, 0, 102, 231.9618225097656
0, 0, 103, 269.0673217773438
0, 0, 104, 256.3984069824219
0, 0, 105, 252.7401428222656
0, 0, 106, 246.5660400390625
0, 0, 107, 151.7718048095703
0, 0, 108, 37.41158294677734
0, 0, 109, 11.727858543396
0, 0, 110, 12.47259712219238
0, 0, 111, 9.982943534851074
0, 0, 112, 6.450669765472412
0, 0, 113, 5.447400569915771
0, 0, 114, 7.260384082794189
0, 0, 115, 4.778040409088135
0, 0, 116, 4.384137153625488
0, 0, 117, 5.130949974060059
0, 0, 118, 5.524091243743896
0, 0, 119, 4.242012500762939
0, 0, 120, 3.617528676986694
0, 0, 121, 3.257365942001343
0, 0, 122, 5.713690280914307
0, 0, 123, 4.353907108306885
0, 0, 124, 6.471682071685791
0, 0, 125, 3.866705894470215
0, 0, 126, 5.639829635620117
0, 0, 127, 4.144702911376953
0, 1, 0, 11.3267993927002
0, 1, 1, 3.59026312828064
0, 1, 2, 3.501955270767212
0, 1, 3, 3.039741277694702
0, 1, 4, 3.368909120559692
0, 1, 5, 5.536502838134766
0, 1, 6, 7.09202766418457
0, 1, 7, 3.608888864517212
0, 1, 8, 9.836330413818359
0, 1, 9, 4.654364585876465
0, 1, 10, 6.598067760467529
0, 1, 11, 11.37712860107422
0, 1, 12, 7.53193473815918
0, 1, 13, 9.13036060333252
0, 1, 14, 8.900532722473145
0, 1, 15, 9.163823127746582
0, 1, 16, 11.54199314117432
0, 1, 17, 10.21955585479736
0, 1, 18, 21.76542854309082
0, 1, 19, 66.72130584716797
0, 1, 20, 196.6366271972656
0, 1, 21, 254.7394256591797
0, 1, 22, 294.5389709472656
0, 1, 23, 283.7400207519531
0, 1, 24, 278.8991394042969
0, 1, 25, 286.0341796875
0, 1, 26, 268.3333435058594
0, 1, 27, 307.6399230957031
0, 1, 28, 300.7696838378906
0, 1, 29, 296.380859375
0, 1, 30, 281.1283874511719
0, 1, 31, 289.7340087890625
0, 1, 32, 289.657470703125
0, 1, 33, 295.52001953125
0, 1, 34, 291.7475280761719
0, 1, 35, 277.7519226074219
0, 1, 36, 306.9020690917969
0, 1, 37, 294.2972106933594
0, 1, 38, 277.9393920898438
0, 1, 39, 295.400146484375
0, 1, 40, 266.6976013183594
0, 1, 41, 286.705078125
0, 1, 42, 288.5818481445312
0, 1, 43, 334.335205078125
0, 1, 44, 277.5934753417969
0, 1, 45, 294.5197448730469
0, 1, 46, 259.8413391113281
0, 1, 47, 309.3531188964844
0, 1, 48, 284.4916687011719
0, 1, 49, 301.6783447265625
0, 1, 50, 263.9050598144531
0, 1, 51, 272.2456970214844
0, 1, 52, 295.4928283691406
0, 1, 53, 303.82861328125
0, 1, 54, 275.1460571289062
0, 1, 55, 293.9644775390625
0, 1, 56, 278.1974487304688
0, 1, 57, 296.3811950683594
0, 1, 58, 314.1961669921875
0, 1, 59, 292.4097290039062
0, 1, 60, 297.8014221191406
0, 1, 61, 276.568359375
0, 1, 62, 312.0426025390625
0, 1, 63, 286.38623046875
0, 1, 64, 289.3567199707031
0, 1, 65, 294.0577392578125
0, 1, 66, 291.9717407226562
0, 1, 67, 291.9483642578125
0, 1, 68, 277.4134216308594
0, 1, 69, 279.5361938476562
0, 1, 70, 269.5241088867188
0, 1, 71, 271.8800964355469
0, 1, 72, 287.2680053710938
0, 1, 73, 304.057373046875
0, 1, 74, 303.8430786132812
0, 1, 75, 293.3262939453125
0, 1, 76, 286.448486328125
0, 1, 77, 288.4583129882812
0, 1, 78, 297.9564819335938
0, 1, 79, 301.9272155761719
0, 1, 80, 294.0263671875
0, 1, 81, 299.6430358886719
0, 1, 82, 285.1802978515625
0, 1, 83, 333.471923828125
0, 1, 84, 310.036376953125
0, 1, 85, 253.1117401123047
0, 1, 86, 293.2507629394531
0, 1, 87, 290.5563354492188
0, 1, 88, 298.8910827636719
0, 1, 89, 289.2130126953125
0, 1, 90, 270.240234375
0, 1, 91, 319.1832885742188
0, 1, 92, 291.4740600585938
0, 1, 93, 286.9567565917969
0, 1, 94, 305.1904602050781
0, 1, 95, 287.0867004394531
0, 1, 96, 286.137451171875
0, 1, 97, 302.5430297851562
0, 1, 98, 280.4312744140625
0, 1, 99, 266.6840515136719
0, 1, 100, 275.7085571289062
0, 1, 101, 280.8137817382812
0, 1, 102, 279.4715270996094
0, 1, 103, 282.6825866699219
0, 1, 104, 305.0639953613281
0, 1, 105, 296.8843078613281
0, 1, 106, 263.2831420898438
0, 1, 107, 190.2133331298828
0, 1, 108, 80.0714111328125
0, 1, 109, 24.29533767700195
0, 1, 110, 10.80541896820068
0, 1, 111, 8.999714851379395
0, 1, 112, 12.83362293243408
0, 1, 113, 8.346614837646484
0, 1, 114, 6.315517902374268
0, 1, 115, 5.296336650848389
0, 1, 116, 11.13760566711426
0, 1, 117, 5.628974437713623
0, 1, 118, 4.516044139862061
0, 1, 119, 5.213355541229248
0, 1, 120, 7.081617832183838
0, 1, 121, 4.09942626953125
0, 1, 122, 4.487174510955811
0, 1, 123, 5.576066970825195
0, 1, 124, 7.46792459487915
0, 1, 125, 3.894757032394409
0, 1, 126, 3.436674356460571
0, 1, 127, 1.989328622817993
0, 2, 0, 3.870327234268188
0, 2, 1, 1.38053023815155
0, 2, 2, 4.29088830947876
0, 2, 3, 6.088226795196533
0, 2, 4, 3.364194869995117
0, 2, 5, 1.891572117805481
0, 2, 6, 2.180683851242065
0, 2, 7, 4.516347408294678
0, 2, 8, 5.273902416229248
0, 2, 9, 5.52421760559082
0, 2, 10, 9.770289421081543
0, 2, 11, 6.020333766937256
0, 2, 12, 6.054359436035156
0, 2, 13, 9.776398658752441
0, 2, 14, 8.700967788696289
0, 2, 15, 7.662376880645752
0, 2, 16, 9.077118873596191
0, 2, 17, 16.67900085449219
0, 2, 18, 30.10578346252441
0, 2, 19, 117.8921661376953
0, 2, 20, 245.5772552490234
0, 2, 21, 270.3487854003906
0, 2, 22, 314.9184875488281
0, 2, 23, 301.3811950683594
0, 2, 24, 286.0911254882812
0, 2, 25, 303.997314453125
0, 2, 26, 293.8864440917969
0, 2, 27, 274.3213500976562
0, 2, 28, 272.5705261230469
0, 2, 29, 274.0452270507812
0, 2, 30, 289.6750793457031
0, 2, 31, 276.21875
0, 2, 32, 293.1415405273438
0, 2, 33, 282.7231140136719
0, 2, 34, 334.81640625
0, 2, 35, 288.7862243652344
0, 2, 36, 302.7609252929688
0, 2, 37, 314.9313049316406
0, 2, 38, 312.0895080566406
0, 2, 39, 266.9016418457031
0, 2, 40, 308.3566284179688
0, 2, 41, 295.6224060058594
0, 2, 42, 304.7013854980469
0, 2, 43, 313.335693359375
0, 2, 44, 312.9291381835938
0, 2, 45, 325.768310546875
0, 2, 46, 285.4943237304688
0, 2, 47, 302.34326171875
0, 2, 48, 280.9377746582031
0, 2, 49, 279.3138122558594
0, 2, 50, 294.2943420410156
0, 2, 51, 284.703369140625
0, 2, 52, 271.427001953125
0, 2, 53, 286.9789733886719
0, 2, 54, 279.1315002441406
0, 2, 55, 276.1946411132812
0, 2, 56, 302.113525390625
0, 2, 57, 291.191162109375
0, 2, 58, 302.5673522949219
0, 2, 59, 290.3366088867188
0, 2, 60, 318.3726501464844
0, 2, 61, 301.5504455566406
0, 2, 62, 314.3481140136719
0, 2, 63, 302.1427001953125
0, 2, 64, 295.1467590332031
0, 2, 65, 313.2125244140625
0, 2, 66, 279.9284973144531
0, 2, 67, 290.1397705078125
0, 2, 68, 297.6824951171875
0, 2, 69, 313.9224243164062
0, 2, 70, 334.1986694335938
0, 2, 71, 285.7720947265625
0, 2, 72, 300.3805541992188
0, 2, 73, 311.8099365234375
0, 2, 74, 286.8053894042969
0, 2, 75, 307.6699523925781
0, 2, 76, 289.3168334960938
0, 2, 77, 302.267578125
0, 2, 78, 315.2825012207031
0, 2, 79, 308.7590026855469
0, 2, 80, 295.51416015625
0, 2, 81, 281.538818359375
0, 2, 82, 319.2794799804688
0, 2, 83, 314.8025512695312
0, 2, 84, 288.9806823730469
0, 2, 85, 280.024169921875
0, 2, 86, 323.0594482421875
0, 2, 87, 286.8710632324219
0, 2, 88, 281.5345153808594
0, 2, 89, 296.1582336425781
0, 2, 90, 296.5228576660156
0, 2, 91, 276.4425048828125
0, 2, 92, 307.6320190429688
0, 2, 93, 317.3814392089844
0, 2, 94, 291.1929931640625
0, 2, 95, 314.5339965820312
0, 2, 96, 315.0953063964844
0, 2, 97, 291.3916015625
0, 2, 98, 292.1495666503906
0, 2, 99, 273.8233032226562
0, 2, 100, 308.8201293945312
0, 2, 101, 303.4341125488281
0, 2, 102, 295.6717529296875
0, 2, 103, 292.0646362304688
0, 2, 104, 293.8843688964844
0, 2, 105, 274.6423034667969
0, 2, 106, 296.322998046875
0, 2, 107, 267.0473022460938
0, 2, 108, 118.4455795288086
0, 2, 109, 32.78180694580078
0, 2, 110, 10.28546237945557
0, 2, 111, 10.50307464599609
0, 2, 112, 8.60960578918457
0, 2, 113, 9.634867668151855
0, 2, 114, 9.969718933105469
0, 2, 115, 9.299371719360352
0, 2, 116, 7.97403621673584
0, 2, 117, 7.50969123840332
0, 2, 118, 3.160131931304932
0, 2, 119, 2.587365627288818
0, 2, 120, 5.160899639129639
0, 2, 121, 2.044002056121826
0, 2, 122, 3.156124114990234
0, 2, 123, 3.25823712348938
0, 2, 124, 3.697521448135376
0, 2, 125, 4.519861698150635
0, 2, 126, 2.523398160934448
0, 2, 127, 5.96380615234375
0, 3, 0, 2.24404501914978
0, 3, 1, 3.430086374282837
0, 3, 2, 3.183088302612305
0, 3, 3, 1.538695096969604
0, 3, 4, 3.600039958953857
0, 3, 5, 6.757595539093018
0, 3, 6, 6.929008007049561
0, 3, 7, 6.388869762420654
0, 3, 8, 6.619862079620361
0, 3, 9, 6.409268856048584
0, 3, 10, 5.574682712554932
0, 3, 11, 6.024049282073975
0, 3, 12, 8.867982864379883
0, 3, 13, 15.69695854187012
0, 3, 14, 13.36692047119141
0, 3, 15, 12.21293830871582
0, 3, 16, 13.35333728790283
0, 3, 17, 19.88206672668457
0, 3, 18, 53.36463928222656
0, 3, 19, 175.3966827392578
0, 3, 20, 269.3838195800781
0, 3, 21, 269.377197265625
0, 3, 22, 282.5877685546875
0, 3, 23, 285.5083312988281
0, 3, 24, 286.6508178710938
0, 3, 25, 268.5865173339844
0, 3, 26, 303.1577453613281
0, 3, 27, 290.9864196777344
0, 3, 28, 281.5927124023438
0, 3, 29, 338.6793823242188
0, 3, 30, 320.1229248046875
0, 3, 31, 287.4546203613281
0, 3, 32, 307.1376342773438
0, 3, 33, 313.2347106933594
0, 3, 34, 320.6684265136719
0, 3, 35, 306.7692565917969
0, 3, 36, 270.4671630859375
0, 3, 37, 317.3728637695312
0, 3, 38, 305.4625549316406
0, 3, 39, 291.0310668945312
0, 3, 40, 266.6766967773438
0, 3, 41, 298.4337768554688
0, 3, 42, 286.0825805664062
0, 3, 43, 308.5448608398438
0, 3, 44, 312.455078125
0, 3, 45, 289.5337219238281
0, 3, 46, 327.7636108398438
0, 3, 47, 298.9587707519531
0, 3, 48, 302.9490966796875
0, 3, 49, 278.1304626464844
0, 3, 50, 293.0028381347656
0, 3, 51, 275.4006652832031
0, 3, 52, 315.9570007324219
0, 3, 53, 288.6853332519531
0, 3, 54, 284.7105712890625
0, 3, 55, 286.0567016601562
0, 3, 56, 299.0406188964844
0, 3, 57, 289.7353210449219
0, 3, 58, 307.4449157714844
0, 3, 59, 298.6623840332031
0, 3, 60, 298.0874938964844
0, 3, 61, 267.9538269042969
0, 3, 62, 283.6462707519531
0, 3, 63, 307.11474609375
0, 3, 64, 315.3243713378906
0, 3, 65, 307.0198364257812
0, 3, 66, 313.986083984375
0, 3, 67, 317.2937622070312
0, 3, 68, 279.1544189453125
0, 3, 69, 283.0246276855469
0, 3, 70, 289.1230163574219
0, 3, 71, 298.0420532226562
0, 3, 72, 269.3167724609375
0, 3, 73, 307.7793884277344
0, 3, 74, 295.5721435546875
0, 3, 75, 290.457763671875
0, 3, 76, 305.9196166992188
0, 3, 77, 312.10302734375
0, 3, 78, 305.9205627441406
0, 3, 79, 282.6622314453125
0, 3, 80, 290.2674560546875
0, 3, 81, 310.5103149414062
0, 3, 82, 315.7956237792969
0, 3, 83, 301.2770690917969
0, 3, 84, 310.2939453125
0, 3, 85, 292.3143005371094
0, 3, 86, 302.8097229003906
0, 3, 87, 301.060302734375
0, 3, 88, 297.5970153808594
0, 3, 89, 296.8505859375
0, 3, 90, 278.3578491210938
0, 3, 91, 284.7743225097656
0, 3, 92, 303.7919616699219
0, 3, 93, 312.2850036621094
0, 3, 94, 299.1922912597656
0, 3, 95, 335.8012084960938
0, 3, 96, 291.6747436523438
0, 3, 97, 282.073486328125
0, 3, 98, 278.6124572753906
0, 3, 99, 261.4122619628906
0, 3, 100, 284.4072570800781
0, 3, 101, 298.5525207519531
0, 3, 102, 274.0613403320312
0, 3, 103, 319.0238342285156
0, 3, 104, 307.9641723632812
0, 3, 105, 289.0179443359375
0, 3, 106, 301.1680297851562
0, 3, 107, 283.9120178222656
0, 3, 108, 166.9886322021484
0, 3, 109, 57.50505447387695
0, 3, 110, 17.79061508178711
0, 3, 111, 13.00956630706787
0, 3, 112, 13.27188301086426
0, 3, 113, 7.730459213256836
0, 3, 114, 10.12164688110352
0, 3, 115, 9.336236953735352
0, 3, 116, 10.96383571624756
0, 3, 117, 7.076869487762451
0, 3, 118, 8.546525001525879
0, 3, 119, 5.239007472991943
0, 3, 120, 7.519584178924561
0, 3, 121, 3.27982234954834
0, 3, 122, 3.635756731033325
0, 3, 123, 4.497880935668945
0, 3, 124, 4.345797061920166
0, 3, 125, 4.757796764373779
0, 3, 126, 6.154945373535156
0, 3, 127, 2.384078502655029
0, 4, 0, 5.139708518981934
0, 4, 1, 4.55042839050293
0, 4, 2, 3.560699224472046
0, 4, 3, 3.936437845230103
0, 4, 4, 5.910648345947266
0, 4, 5, 8.963679313659668
0, 4, 6, 6.986768245697021
0, 4, 7, 6.296320915222168
0, 4, 8, 3.840965270996094
0, 4, 9, 7.079812049865723
0, 4, 10, 6.37477445602417
0, 4, 11, 6.213922023773193
0, 4, 12, 5.771044254302979
0, 4, 13, 8.65009880065918
0, 4, 14, 10.96111965179443
0, 4, 15, 9.740004539489746
0, 4, 16, 15.28537082672119
0, 4, 17, 18.3449878692627
0, 4, 18, 92.922119140625
0, 4, 19, 222.3616333007812
0, 4, 20, 284.9962158203125
0, 4, 21, 272.07861328125
0, 4, 22, 306.0014038085938
0, 4, 23, 267.6716003417969
0, 4, 24, 288.7886962890625
0, 4, 25, 272.4299621582031
0, 4, 26, 293.4815368652344
0, 4, 27, 282.1597290039062
0, 4, 28, 310.3916931152344
0, 4, 29, 323.1070251464844
0, 4, 30, 311.6726379394531
0, 4, 31, 305.3560180664062
0, 4, 32, 280.9776611328125
0, 4, 33, 294.8430786132812
0, 4, 34, 295.5518493652344
0, 4, 35, 311.0810241699219
0, 4, 36, 292.0035400390625
0, 4, 37, 290.4874877929688
0, 4, 38, 299.106689453125
0, 4, 39, 294.4596252441406
0, 4, 40, 302.5618591308594
0, 4, 41, 314.0898742675781
0, 4, 42, 329.9585266113281
0, 4, 43, 296.5719909667969
0, 4, 44, 322.3214111328125
0, 4, 45, 324.7409057617188
0, 4, 46, 305.1417541503906
0, 4, 47, 292.9728088378906
0, 4, 48, 295.52587890625
0, 4, 49, 278.0809936523438
0, 4, 50, 297.6708068847656
0, 4, 51, 316.4694213867188
0, 4, 52, 327.8511352539062
0, 4, 53, 303.3177795410156
0, 4, 54, 289.7790832519531
0, 4, 55, 315.4399108886719
0, 4, 56, 286.3631286621094
0, 4, 57, 311.9002380371094
0, 4, 58, 296.8989562988281
0, 4, 59, 307.76708984375
0, 4, 60, 300.6344299316406
0, 4, 61, 317.2149047851562
0, 4, 62, 309.6498413085938
0, 4, 63, 299.8923645019531
0, 4, 64, 331.1886596679688
0, 4, 65, 317.7095642089844
0, 4, 66, 295.5721435546875
0, 4, 67, 284.1893615722656
0, 4, 68, 312.1980895996094
0, 4, 69, 277.6254272460938
0, 4, 70, 299.6734313964844
0, 4, 71, 321.2729797363281
0, 4, 72, 332.6497192382812
0, 4, 73, 299.8683776855469
0, 4, 74, 292.6334838867188
0, 4, 75, 289.0647277832031
0, 4, 76, 275.3658142089844
0, 4, 77, 278.10888671875
0, 4, 78, 309.6784973144531
0, 4, 79, 318.4570007324219
0, 4, 80, 316.2568359375
0, 4, 81, 315.4111328125
0, 4, 82, 297.9840393066406
0, 4, 83, 300.1951293945312
0, 4, 84, 297.9140625
0, 4, 85, 294.359619140625
0, 4, 86, 297.4704895019531
0, 4, 87, 284.7119445800781
0, 4, 88, 307.1990051269531
0, 4, 89, 295.9102172851562
0, 4, 90, 333.286376953125
0, 4, 91, 301.6974487304688
0, 4, 92, 288.971435546875
0, 4, 93, 296.0740966796875
0, 4, 94, 292.4117431640625
0, 4, 95, 288.9990539550781
0, 4, 96, 323.8235778808594
0, 4, 97, 273.5743713378906
0, 4, 98, 327.1000671386719
0, 4, 99, 315.7019653320312
0, 4, 100, 299.1416015625
0, 4, 101, 257.3022766113281
0, 4, 102, 296.0200500488281
0, 4, 103, 316.8042907714844
0, 4, 104, 281.6601257324219
0, 4, 105, 310.8856811523438
0, 4, 106, 285.9774475097656
0, 4, 107, 293.9442138671875
0, 4, 108, 225.6511535644531
0, 4, 109, 80.86878204345703
0, 4, 110, 15.6906795501709
0, 4, 111, 14.07619762420654
0, 4, 112, 9.788058280944824
0, 4, 113, 9.912508010864258
0, 4, 114, 8.382658958435059
0, 4, 115, 8.583941459655762
0, 4, 116, 7.829868793487549
0, 4, 117, 7.856377124786377
0, 4, 118, 10.92770957946777
0, 4, 119, 14.84477233886719
0, 4, 120, 5.595655918121338
0, 4, 121, 6.045311450958252
0, 4, 122, 5.06416654586792
0, 4, 123, 6.077150344848633
0, 4, 124, 6.072715282440186
0, 4, 125, 10.40605354309082
0, 4, 126, 4.788924217224121
0, 4, 127, 4.809412479400635
0, 5, 0, 3.05799388885498
0, 5, 1, 2.871942043304443
0, 5, 2, 4.316366195678711
0, 5, 3, 5.814784526824951
0, 5, 4, 5.87212085723877
0, 5, 5, 5.861569404602051
0, 5, 6, 8.596510887145996
0, 5, 7, 4.333422660827637
0, 5, 8, 4.172574043273926
0, 5, 9, 5.254608631134033
0, 5, 10, 7.802756309509277
0, 5, 11, 9.323565483093262
0, 5, 12, 8.292488098144531
0, 5, 13, 6.949993133544922
0, 5, 14, 12.86313056945801
0, 5, 15, 14.62674808502197
0, 5, 16, 13.82841300964355
0, 5, 17, 30.2241096496582
0, 5, 18, 137.7439422607422
0, 5, 19, 288.1155395507812
0, 5, 20, 305.9673767089844
0, 5, 21, 319.2146301269531
0, 5, 22, 276.0153198242188
0, 5, 23, 310.5920104980469
0, 5, 24, 302.9625549316406
0, 5, 25, 288.5576171875
0, 5, 26, 294.3916015625
0, 5, 27, 321.5853271484375
0, 5, 28, 304.5213623046875
0, 5, 29, 297.5025939941406
0, 5, 30, 324.6261596679688
0, 5, 31, 287.1381225585938
0, 5, 32, 305.2481079101562
0, 5, 33, 305.0975341796875
0, 5, 34, 299.6016845703125
0, 5, 35, 310.9852294921875
0, 5, 36, 271.67333984375
0, 5, 37, 282.6190490722656
0, 5, 38, 291.8126831054688
0, 5, 39, 313.9579467773438
0, 5, 40, 309.1034240722656
0, 5, 41, 274.3915710449219
0, 5, 42, 304.2498474121094
0, 5, 43, 314.8659057617188
0, 5, 44, 292.3285217285156
0, 5, 45, 303.3415222167969
0, 5, 46, 265.8937683105469
0, 5, 47, 281.3662719726562
0, 5, 48, 293.3457641601562
0, 5, 49, 285.4082641601562
0, 5, 50, 293.9644165039062
0, 5, 51, 278.3656616210938
0, 5, 52, 268.9489135742188
0, 5, 53, 286.40966796875
0, 5, 54, 294.2070007324219
0, 5, 55, 344.0079956054688
0, 5, 56, 306.4862670898438
0, 5, 57, 309.550048828125
0, 5, 58, 311.7447204589844
0, 5, 59, 301.6332397460938
0, 5, 60, 310.477294921875
0, 5, 61, 281.5149841308594
0, 5, 62, 327.1884460449219
0, 5, 63, 289.2651672363281
0, 5, 64, 323.6825866699219
0, 5, 65, 307.3919067382812
0, 5, 66, 327.6953735351562
0, 5, 67, 312.2982788085938
0, 5, 68, 312.0668334960938
0, 5, 69, 311.4482421875
0, 5, 70, 302.7284240722656
0, 5, 71, 272.6217346191406
0, 5, 72, 310.9248657226562
0, 5, 73, 302.920654296875
0, 5, 74, 297.4078063964844
0, 5, 75, 293.3196716308594
0, 5, 76, 285.0259704589844
0, 5, 77, 297.4034118652344
0, 5, 78, 313.8804626464844
0, 5, 79, 311.2164001464844
0, 5, 80, 296.4078063964844
0, 5, 81, 326.6897583007812
0, 5, 82, 326.807373046875
0, 5, 83, 282.3259887695312
0, 5, 84, 301.5107116699219
0, 5, 85, 272.6159057617188
0, 5, 86, 326.2327575683594
0, 5, 87, 283.9379577636719
0, 5, 88, 312.811767578125
0, 5, 89, 306.0769958496094
0, 5, 90, 317.9271545410156
0, 5, 91, 315.9019165039062
0, 5, 92, 297.4669799804688
0, 5, 93, 322.0835571289062
0, 5, 94, 305.63037109375
0, 5, 95, 296.1305847167969
0, 5, 96, 298.1037292480469
0, 5, 97, 296.8097534179688
0, 5, 98, 319.2351989746094
0, 5, 99, 302.2615356445312
0, 5, 100, 291.88427734375
0, 5, 101, 304.7242126464844
0, 5, 102, 292.3616638183594
0, 5, 103, 314.5895690917969
0, 5, 104, 301.6353454589844
0, 5, 105, 291.0724182128906
0, 5, 106, 281.0108032226562
0, 5, 107, 292.9332275390625
0, 5, 108, 265.4560546875
0, 5, 109, 156.4956359863281
0, 5, 110, 40.66195297241211
0, 5, 111, 21.28259658813477
0, 5, 112, 14.96156120300293
0, 5, 113, 13.67529678344727
0, 5, 114, 12.5378885269165
0, 5, 115, 8.814416885375977
0, 5, 116, 12.49627876281738
0, 5, 117, 9.181395530700684
0, 5, 118, 14.66226100921631
0, 5, 119, 4.561123847961426
0, 5, 120, 4.773053646087646
0, 5, 121, 5.41047477722168
0, 5, 122, 4.922911643981934
0, 5, 123, 4.342729091644287
0, 5, 124, 6.337164402008057
0, 5, 125, 4.691176414489746
0, 5, 126, 5.246839046478271
0, 5, 127, 3.248085498809814
0, 6, 0, 4.794672012329102
0, 6, 1, 2.910103321075439
0, 6, 2, 5.877681732177734
0, 6, 3, 6.665709018707275
0, 6, 4, 2.95698356628418
0, 6, 5, 4.791756153106689
0, 6, 6, 8.158669471740723
0, 6, 7, 6.929116249084473
0, 6, 8, 7.095700740814209
0, 6, 9, 5.815892696380615
0, 6, 10, 9.752985000610352
0, 6, 11, 9.940086364746094
0, 6, 12, 9.88440990447998
0, 6, 13, 13.88225650787354
0, 6, 14, 8.404319763183594
0, 6, 15, 17.46954154968262
0, 6, 16, 28.3043327331543
0, 6, 17, 54.33844375610352
0, 6, 18, 172.6069488525391
0, 6, 19, 275.4511413574219
0, 6, 20, 291.77099609375
0, 6, 21, 314.4060668945312
0, 6, 22, 319.7749633789062
0, 6, 23, 306.2716979980469
0, 6, 24, 315.9491882324219
0, 6, 25, 315.8165283203125
0, 6, 26, 320.2176208496094
0, 6, 27, 330.2836303710938
0, 6, 28, 295.1886596679688
0, 6, 29, 328.3031311035156
0, 6, 30, 282.73828125
0, 6, 31, 285.7903747558594
0, 6, 32, 341.8599853515625
0, 6, 33, 300.0797119140625
0, 6, 34, 339.9120483398438
0, 6, 35, 320.7077026367188
0, 6, 36, 274.2339477539062
0, 6, 37, 292.8370666503906
0, 6, 38, 311.5138854980469
0, 6, 39, 299.4845581054688
0, 6, 40, 283.0783081054688
0, 6, 41, 295.837158203125
0, 6, 42, 304.0845031738281
0, 6, 43, 289.4451293945312
0, 6, 44, 279.4636840820312
0, 6, 45, 320.1046447753906
0, 6, 46, 301.6907348632812
0, 6, 47, 333.9077453613281
0, 6, 48, 291.7105102539062
0, 6, 49, 311.3321228027344
0, 6, 50, 327.4556579589844
0, 6, 51, 311.27880859375
0, 6, 52, 321.6415710449219
0, 6, 53, 330.3865051269531
0, 6, 54, 304.9541625976562
0, 6, 55, 304.4718322753906
0, 6, 56, 294.4556884765625
0, 6, 57, 313.9983520507812
0, 6, 58, 261.8477172851562
0, 6, 59, 304.5317687988281
0, 6, 60, 313.187744140625
0, 6, 61, 269.818359375
0, 6, 62, 334.3153686523438
0, 6, 63, 324.0146179199219
0, 6, 64, 293.4866638183594
0, 6, 65, 283.5112915039062
0, 6, 66, 303.8162841796875
0, 6, 67, 308.9776306152344
0, 6, 68, 294.34814453125
0, 6, 69, 279.7614135742188
0, 6, 70, 274.4395446777344
0, 6, 71, 290.3623046875
0, 6, 72, 310.5490112304688
0, 6, 73, 291.9127807617188
0, 6, 74, 329.7564697265625
0, 6, 75, 345.6554870605469
0, 6, 76, 297.59130859375
0, 6, 77, 285.2171325683594
0, 6, 78, 280.7395935058594
0, 6, 79, 298.0282287597656
0, 6, 80, 300.5462951660156
0, 6, 81, 314.4737548828125
0, 6, 82, 319.0562744140625
0, 6, 83, 321.5479431152344
0, 6, 84, 295.4401550292969
0, 6, 85, 302.0228271484375
0, 6, 86, 329.5951538085938
0, 6, 87, 293.6766662597656
0, 6, 88, 306.1472473144531
0, 6, 89, 304.6033935546875
0, 6, 90, 299.2944946289062
0, 6, 91, 311.8864440917969
0, 6, 92, 289.0045166015625
0, 6, 93, 295.9242553710938
0, 6, 94, 273.31298828125
0, 6, 95, 301.2333068847656
0, 6, 96, 347.238525390625
0, 6, 97, 307.2687377929688
0, 6, 98, 301.8715515136719
0, 6, 99, 271.665771484375
0, 6, 100, 309.3602294921875
0, 6, 101, 293.6874694824219
0, 6, 102, 309.1372985839844
0, 6, 103, 306.9401245117188
0, 6, 104, 294.4107971191406
0, 6, 105, 301.507080078125
0, 6, 106, 306.3611755371094
0, 6, 107, 306.0585021972656
0, 6, 108, 265.8080444335938
0, 6, 109, 186.6994323730469
0, 6, 110, 53.79486083984375
0, 6, 111, 23.14208221435547
0, 6, 112, 15.79726696014404
0, 6, 113, 11.16015911102295
0, 6, 114, 13.43491363525391
0, 6, 115, 11.65746593475342
0, 6, 116, 8.270360946655273
0, 6, 117, 6.530709743499756
0, 6, 118, 8.615237236022949
0, 6, 119, 9.592502593994141
0, 6, 120, 4.304851055145264
0, 6, 121, 6.698298931121826
0, 6, 122, 7.436290740966797
0, 6, 123, 4.854541301727295
0, 6, 124, 8.617404937744141
0, 6, 125, 7.827115058898926
0, 6, 126, 3.906189918518066
0, 6, 127, 6.220197677612305
0, 7, 0, 5.151546955108643
0, 7, 1, 4.964109897613525
0, 7, 2, 5.347770690917969
0, 7, 3, 5.146349430084229
0, 7, 4, 4.080893516540527
0, 7, 5, 4.305552005767822
0, 7, 6, 6.92454195022583
0, 7, 7, 6.587455749511719
0, 7, 8, 4.993240356445312
0, 7, 9, 9.275457382202148
0, 7, 10, 9.248394012451172
0, 7, 11, 11.51510810852051
0, 7, 12, 9.96504020690918
0, 7, 13, 13.75135326385498
0, 7, 14, 10.02141094207764
0, 7, 15, 16.58695793151855
0, 7, 16, 25.80371475219727
0, 7, 17, 97.45493316650391
0, 7, 18, 219.2120666503906
0, 7, 19, 289.24072265625
0, 7, 20, 298.3802185058594
0, 7, 21, 276.890380859375
0, 7, 22, 301.2517395019531
0, 7, 23, 288.8974914550781
0, 7, 24, 313.3280029296875
0, 7, 25, 324.9085388183594
0, 7, 26, 277.5995178222656
0, 7, 27, 298.5028381347656
0, 7, 28, 327.4447021484375
0, 7, 29, 318.3622436523438
0, 7, 30, 298.3358764648438
0, 7, 31, 277.4967346191406
0, 7, 32, 305.9483642578125
0, 7, 33, 264.9008483886719
0, 7, 34, 298.1553344726562
0, 7, 35, 317.5917053222656
0, 7, 36, 334.0287170410156
0, 7, 37, 321.3382568359375
0, 7, 38, 296.1239013671875
0, 7, 39, 306.7425842285156
0, 7, 40, 291.59521484375
0, 7, 41, 271.5794372558594
0, 7, 42, 301.9989013671875
0, 7, 43, 274.3165588378906
0, 7, 44, 304.0792846679688
0, 7, 45, 295.051025390625
0, 7, 46, 281.2837524414062
0, 7, 47, 327.7801513671875
0, 7, 48, 289.8129272460938
0, 7, 49, 301.5029602050781
0, 7, 50, 321.1028137207031
0, 7, 51, 298.8404541015625
0, 7, 52, 327.0546264648438
0, 7, 53, 310.8361511230469
0, 7, 54, 323.4184265136719
0, 7, 55, 306.905517578125
0, 7, 56, 280.4767150878906
0, 7, 57, 283.687744140625
0, 7, 58, 294.4940185546875
0, 7, 59, 294.983154296875
0, 7, 60, 321.2357177734375
0, 7, 61, 277.574462890625
0, 7, 62, 295.8599243164062
0, 7, 63, 292.9943237304688
0, 7, 64, 305.7487182617188
0, 7, 65, 333.980712890625
0, 7, 66, 317.7686157226562
0, 7, 67, 302.9336547851562
0, 7, 68, 280.7095336914062
0, 7, 69, 294.2882385253906
0, 7, 70, 300.9299621582031
0, 7, 71, 309.0087585449219
0, 7, 72, 287.6287536621094
0, 7, 73, 295.3965454101562
0, 7, 74, 344.6103820800781
0, 7, 75, 318.44677734375
0, 7, 76, 322.9671630859375
0, 7, 77, 280.7781372070312
0, 7, 78, 299.3826293945312
0, 7, 79, 296.821044921875
0, 7, 80, 313.4545593261719
0, 7, 81, 318.3992919921875
0, 7, 82, 328.9976501464844
0, 7, 83, 318.1648864746094
0, 7, 84, 308.4199523925781
0, 7, 85, 271.9932556152344
0, 7, 86, 311.582763671875
0, 7, 87, 311.6830444335938
0, 7, 88, 307.9247131347656
0, 7, 89, 292.3926086425781
0, 7, 90, 305.9170532226562
0, 7, 91, 316.7885131835938
0, 7, 92, 286.9674377441406
0, 7, 93, 308.3639221191406
0, 7, 94, 273.1201171875
0, 7, 95, 298.1031494140625
0, 7, 96, 333.2910461425781
0, 7, 97, 297.2727966308594
0, 7, 98, 292.1858215332031
0, 7, 99, 313.4116821289062
0, 7, 100, 282.20849609375
0, 7, 101, 275.7900390625
0, 7, 102, 294.7877807617188
0, 7, 103, 292.1053466796875
0, 7, 104, 274.1684265136719
0, 7, 105, 306.22705078125
0, 7, 106, 318.7290954589844
0, 7, 107, 298.0389709472656
0, 7, 108, 273.5927124023438
0, 7, 109, 235.4078369140625
0, 7, 110, 95.48390197753906
0, 7, 111, 23.67578125
0, 7, 112, 12.63577365875244
0, 7, 113, 15.45237445831299
0, 7, 114, 12.5610294342041
0, 7, 115, 11.93192577362061
0, 7, 116, 9.071452140808105
0, 7, 117, 4.642157554626465
0, 7, 118, 6.465053081512451
0, 7, 119, 6.449852466583252
0, 7, 120, 5.328965663909912
0, 7, 121, 7.568490505218506
0, 7, 122, 6.424682140350342
0, 7, 123, 4.093589782714844
0, 7, 124, 4.523752689361572
0, 7, 125, 6.454034805297852
0, 7, 126, 7.809769153594971
0, 7, 127, 2.701720237731934
0, 8, 0, 4.007822036743164
0, 8, 1, 4.31632661819458
0, 8, 2, 2.872966766357422
0, 8, 3, 2.010828495025635
0, 8, 4, 5.448175430297852
0, 8, 5, 4.303617000579834
0, 8, 6, 5.517916679382324
0, 8, 7, 7.646056175231934
0, 8, 8, 8.610896110534668
0, 8, 9, 5.30504322052002
0, 8, 10, 7.781188488006592
0, 8, 11, 9.867116928100586
0, 8, 12, 12.7665319442749
0, 8, 13, 14.33499336242676
0, 8, 14, 13.68345069885254
0, 8, 15, 18.15824699401855
0, 8, 16, 32.91658401489258
0, 8, 17, 129.253173828125
0, 8, 18, 242.9246978759766
0, 8, 19, 298.3931274414062
0, 8, 20, 287.30810546875
0, 8, 21, 307.5090026855469
0, 8, 22, 297.3946838378906
0, 8, 23, 275.2289428710938
0, 8, 24, 272.6514892578125
0, 8, 25, 276.5573425292969
0, 8, 26, 305.3482360839844
0, 8, 27, 308.2103881835938
0, 8, 28, 304.3537292480469
0, 8, 29, 320.3958740234375
0, 8, 30, 314.1524658203125
0, 8, 31, 305.6996459960938
0, 8, 32, 281.2991027832031
0, 8, 33, 293.6860656738281
0, 8, 34, 287.8131713867188
0, 8, 35, 279.6571350097656
0, 8, 36, 316.3234252929688
0, 8, 37, 337.8812866210938
0, 8, 38, 331.6739196777344
0, 8, 39, 280.9486999511719
0, 8, 40, 304.3377990722656
0, 8, 41, 290.0829772949219
