# TOPAS Version: 3.1.p3
# Parameter File: batch_inserts_338.txt
# Results for scorer Readout_Adipose
# Scored in component: MyBox
# X in 1 bin  of 0.75 cm
# Y in 512 bins of 0.0783984 cm
# Z in 128 bins of 0.078125 cm
# EnergyDeposit ( MeV ) : Sum   
0, 0, 0, 3.336428642272949
0, 0, 1, 1.384512066841125
0, 0, 2, 3.881123065948486
0, 0, 3, 1.424968123435974
0, 0, 4, 3.004127025604248
0, 0, 5, 3.705978870391846
0, 0, 6, 7.121254920959473
0, 0, 7, 8.911799430847168
0, 0, 8, 3.112401962280273
0, 0, 9, 4.100174427032471
0, 0, 10, 9.563072204589844
0, 0, 11, 5.482901096343994
0, 0, 12, 3.679054498672485
0, 0, 13, 5.670319080352783
0, 0, 14, 7.159083366394043
0, 0, 15, 9.322063446044922
0, 0, 16, 9.098941802978516
0, 0, 17, 8.149727821350098
0, 0, 18, 13.14082336425781
0, 0, 19, 43.81952285766602
0, 0, 20, 138.8492279052734
0, 0, 21, 223.8631439208984
0, 0, 22, 248.9389801025391
0, 0, 23, 256.0078735351562
0, 0, 24, 253.3945007324219
0, 0, 25, 258.0614013671875
0, 0, 26, 237.7905120849609
0, 0, 27, 237.0227203369141
0, 0, 28, 273.3536987304688
0, 0, 29, 253.077392578125
0, 0, 30, 230.5300140380859
0, 0, 31, 243.8350982666016
0, 0, 32, 263.1913757324219
0, 0, 33, 259.6380310058594
0, 0, 34, 287.1385803222656
0, 0, 35, 267.6483764648438
0, 0, 36, 247.0977935791016
0, 0, 37, 252.4935760498047
0, 0, 38, 269.002685546875
0, 0, 39, 229.9007263183594
0, 0, 40, 240.9154510498047
0, 0, 41, 265.3716125488281
0, 0, 42, 228.7350769042969
0, 0, 43, 261.1646728515625
0, 0, 44, 250.8673400878906
0, 0, 45, 253.8565063476562
0, 0, 46, 243.3604125976562
0, 0, 47, 252.2151489257812
0, 0, 48, 266.5047302246094
0, 0, 49, 274.2213745117188
0, 0, 50, 252.2768402099609
0, 0, 51, 252.8383178710938
0, 0, 52, 271.3333435058594
0, 0, 53, 291.3974609375
0, 0, 54, 242.4301300048828
0, 0, 55, 239.9027252197266
0, 0, 56, 280.1323547363281
0, 0, 57, 265.3627624511719
0, 0, 58, 246.6079864501953
0, 0, 59, 270.8489074707031
0, 0, 60, 233.9346008300781
0, 0, 61, 245.857177734375
0, 0, 62, 255.6264190673828
0, 0, 63, 265.8159484863281
0, 0, 64, 256.5531311035156
0, 0, 65, 259.730712890625
0, 0, 66, 276.5516662597656
0, 0, 67, 246.9398956298828
0, 0, 68, 260.5133972167969
0, 0, 69, 265.9372253417969
0, 0, 70, 273.1316833496094
0, 0, 71, 236.9184875488281
0, 0, 72, 251.3744201660156
0, 0, 73, 259.6536865234375
0, 0, 74, 249.0320281982422
0, 0, 75, 240.0380859375
0, 0, 76, 227.7278442382812
0, 0, 77, 262.267578125
0, 0, 78, 256.4733581542969
0, 0, 79, 277.3839721679688
0, 0, 80, 215.3831787109375
0, 0, 81, 267.8187561035156
0, 0, 82, 257.1435546875
0, 0, 83, 243.9336547851562
0, 0, 84, 271.33984375
0, 0, 85, 231.7516479492188
0, 0, 86, 254.1159210205078
0, 0, 87, 250.3405303955078
0, 0, 88, 260.9025268554688
0, 0, 89, 283.7552490234375
0, 0, 90, 242.9599151611328
0, 0, 91, 280.278564453125
0, 0, 92, 252.9684143066406
0, 0, 93, 249.1358337402344
0, 0, 94, 248.7687835693359
0, 0, 95, 248.1959228515625
0, 0, 96, 276.1219177246094
0, 0, 97, 272.1417236328125
0, 0, 98, 272.87060546875
0, 0, 99, 258.4295959472656
0, 0, 100, 258.8004455566406
0, 0, 101, 225.4020690917969
0, 0, 102, 230.8676300048828
0, 0, 103, 271.8044128417969
0, 0, 104, 253.9392852783203
0, 0, 105, 251.9049835205078
0, 0, 106, 246.5678863525391
0, 0, 107, 152.5770111083984
0, 0, 108, 38.5431022644043
0, 0, 109, 12.87309741973877
0, 0, 110, 14.01587772369385
0, 0, 111, 9.903397560119629
0, 0, 112, 7.317298889160156
0, 0, 113, 7.354986667633057
0, 0, 114, 6.833002090454102
0, 0, 115, 6.164466857910156
0, 0, 116, 5.86747407913208
0, 0, 117, 7.230462074279785
0, 0, 118, 5.695889949798584
0, 0, 119, 4.044796943664551
0, 0, 120, 6.939035892486572
0, 0, 121, 4.449426651000977
0, 0, 122, 3.894099235534668
0, 0, 123, 2.742638349533081
0, 0, 124, 6.587560653686523
0, 0, 125, 3.167730331420898
0, 0, 126, 4.131956100463867
0, 0, 127, 6.434189319610596
0, 1, 0, 8.653792381286621
0, 1, 1, 3.785229921340942
0, 1, 2, 4.885425090789795
0, 1, 3, 1.271379470825195
0, 1, 4, 4.058456420898438
0, 1, 5, 1.894207835197449
0, 1, 6, 5.156466960906982
0, 1, 7, 3.09977388381958
0, 1, 8, 6.891670227050781
0, 1, 9, 4.399610042572021
0, 1, 10, 7.507539749145508
0, 1, 11, 10.70134353637695
0, 1, 12, 9.495698928833008
0, 1, 13, 8.788415908813477
0, 1, 14, 6.973872661590576
0, 1, 15, 7.645873546600342
0, 1, 16, 11.19044399261475
0, 1, 17, 10.85937023162842
0, 1, 18, 21.04950332641602
0, 1, 19, 67.00574493408203
0, 1, 20, 198.8993072509766
0, 1, 21, 257.9261474609375
0, 1, 22, 295.4312133789062
0, 1, 23, 282.481689453125
0, 1, 24, 275.9821166992188
0, 1, 25, 288.3475036621094
0, 1, 26, 270.6952209472656
0, 1, 27, 306.2494506835938
0, 1, 28, 299.8661193847656
0, 1, 29, 296.2693176269531
0, 1, 30, 281.4961853027344
0, 1, 31, 290.6446838378906
0, 1, 32, 292.4388732910156
0, 1, 33, 297.2704467773438
0, 1, 34, 295.0214233398438
0, 1, 35, 279.7845458984375
0, 1, 36, 305.7468566894531
0, 1, 37, 296.1865539550781
0, 1, 38, 278.34228515625
0, 1, 39, 295.8204956054688
0, 1, 40, 265.8477783203125
0, 1, 41, 285.5772705078125
0, 1, 42, 289.1593322753906
0, 1, 43, 331.3053588867188
0, 1, 44, 280.5777587890625
0, 1, 45, 291.4321594238281
0, 1, 46, 258.9465942382812
0, 1, 47, 310.3457946777344
0, 1, 48, 284.1664428710938
0, 1, 49, 302.0303344726562
0, 1, 50, 263.3832092285156
0, 1, 51, 271.5983581542969
0, 1, 52, 295.3275451660156
0, 1, 53, 305.4847717285156
0, 1, 54, 274.384033203125
0, 1, 55, 293.9450988769531
0, 1, 56, 278.0932922363281
0, 1, 57, 297.7113952636719
0, 1, 58, 309.245361328125
0, 1, 59, 293.88330078125
0, 1, 60, 297.6854553222656
0, 1, 61, 273.9335327148438
0, 1, 62, 307.8632202148438
0, 1, 63, 288.8589172363281
0, 1, 64, 292.3736877441406
0, 1, 65, 298.0025024414062
0, 1, 66, 292.2649841308594
0, 1, 67, 293.409423828125
0, 1, 68, 277.1432495117188
0, 1, 69, 279.8516235351562
0, 1, 70, 271.4766845703125
0, 1, 71, 274.5456237792969
0, 1, 72, 284.8291625976562
0, 1, 73, 304.5074462890625
0, 1, 74, 306.8524169921875
0, 1, 75, 293.2660217285156
0, 1, 76, 284.9657897949219
0, 1, 77, 289.5130004882812
0, 1, 78, 296.1103820800781
0, 1, 79, 300.3453979492188
0, 1, 80, 296.9361877441406
0, 1, 81, 300.5237426757812
0, 1, 82, 284.1424560546875
0, 1, 83, 330.9330139160156
0, 1, 84, 308.1432495117188
0, 1, 85, 255.7202301025391
0, 1, 86, 293.24267578125
0, 1, 87, 290.6144714355469
0, 1, 88, 298.2835998535156
0, 1, 89, 289.6343688964844
0, 1, 90, 269.2422790527344
0, 1, 91, 317.0300598144531
0, 1, 92, 294.0687255859375
0, 1, 93, 287.7279663085938
0, 1, 94, 305.4845275878906
0, 1, 95, 283.0842895507812
0, 1, 96, 282.4209289550781
0, 1, 97, 301.0674438476562
0, 1, 98, 278.800048828125
0, 1, 99, 266.6383972167969
0, 1, 100, 276.8411865234375
0, 1, 101, 283.4201965332031
0, 1, 102, 278.4857788085938
0, 1, 103, 281.8526306152344
0, 1, 104, 306.7003173828125
0, 1, 105, 298.3600463867188
0, 1, 106, 261.8043823242188
0, 1, 107, 192.4567718505859
0, 1, 108, 81.78604125976562
0, 1, 109, 23.06559371948242
0, 1, 110, 10.49152755737305
0, 1, 111, 7.814659118652344
0, 1, 112, 13.12363815307617
0, 1, 113, 5.020486831665039
0, 1, 114, 6.855076313018799
0, 1, 115, 6.500949859619141
0, 1, 116, 11.78538036346436
0, 1, 117, 4.610259532928467
0, 1, 118, 4.370995998382568
0, 1, 119, 7.038251399993896
0, 1, 120, 11.11111354827881
0, 1, 121, 5.327101230621338
0, 1, 122, 3.935904979705811
0, 1, 123, 4.724413394927979
0, 1, 124, 9.873161315917969
0, 1, 125, 6.57995080947876
0, 1, 126, 6.797278881072998
0, 1, 127, 1.939905047416687
0, 2, 0, 4.245448589324951
0, 2, 1, 1.841519117355347
0, 2, 2, 3.148410558700562
0, 2, 3, 3.878240346908569
0, 2, 4, 3.337189912796021
0, 2, 5, 1.80892539024353
0, 2, 6, 1.723637938499451
0, 2, 7, 3.258774757385254
0, 2, 8, 4.680275440216064
0, 2, 9, 5.973789215087891
0, 2, 10, 7.391005992889404
0, 2, 11, 6.775708198547363
0, 2, 12, 6.339353084564209
0, 2, 13, 8.88076114654541
0, 2, 14, 9.556868553161621
0, 2, 15, 7.905612468719482
0, 2, 16, 8.753120422363281
0, 2, 17, 19.20025825500488
0, 2, 18, 31.1570873260498
0, 2, 19, 117.3386077880859
0, 2, 20, 245.9361419677734
0, 2, 21, 270.3609313964844
0, 2, 22, 314.4307556152344
0, 2, 23, 300.4270629882812
0, 2, 24, 286.6119079589844
0, 2, 25, 304.1148986816406
0, 2, 26, 291.7199096679688
0, 2, 27, 275.7144775390625
0, 2, 28, 275.7081604003906
0, 2, 29, 273.7265014648438
0, 2, 30, 291.9280700683594
0, 2, 31, 279.5184631347656
0, 2, 32, 294.3206481933594
0, 2, 33, 282.5891723632812
0, 2, 34, 331.8333129882812
0, 2, 35, 288.8529052734375
0, 2, 36, 303.8301391601562
0, 2, 37, 316.3549499511719
0, 2, 38, 314.5486145019531
0, 2, 39, 265.45263671875
0, 2, 40, 308.2802429199219
0, 2, 41, 291.7413330078125
0, 2, 42, 305.0171203613281
0, 2, 43, 312.7224731445312
0, 2, 44, 312.5686950683594
0, 2, 45, 325.6864318847656
0, 2, 46, 287.0098571777344
0, 2, 47, 302.0195007324219
0, 2, 48, 280.8771667480469
0, 2, 49, 279.3521118164062
0, 2, 50, 295.366943359375
0, 2, 51, 285.0123901367188
0, 2, 52, 272.6228332519531
0, 2, 53, 289.6387023925781
0, 2, 54, 280.4136352539062
0, 2, 55, 275.1531372070312
0, 2, 56, 300.8405456542969
0, 2, 57, 294.0802917480469
0, 2, 58, 303.4787902832031
0, 2, 59, 289.4308776855469
0, 2, 60, 319.0440368652344
0, 2, 61, 302.134521484375
0, 2, 62, 314.5377197265625
0, 2, 63, 300.6845397949219
0, 2, 64, 297.3057250976562
0, 2, 65, 315.6614379882812
0, 2, 66, 280.0048217773438
0, 2, 67, 292.2212829589844
0, 2, 68, 295.5242309570312
0, 2, 69, 311.8214721679688
0, 2, 70, 333.392578125
0, 2, 71, 283.91455078125
0, 2, 72, 299.8207092285156
0, 2, 73, 310.8291015625
0, 2, 74, 287.2139282226562
0, 2, 75, 305.8245239257812
0, 2, 76, 290.9384460449219
0, 2, 77, 298.1215515136719
0, 2, 78, 315.7416381835938
0, 2, 79, 309.1527099609375
0, 2, 80, 297.4640197753906
0, 2, 81, 282.8544921875
0, 2, 82, 317.9219055175781
0, 2, 83, 313.6907043457031
0, 2, 84, 287.4299621582031
0, 2, 85, 282.8515625
0, 2, 86, 323.9425659179688
0, 2, 87, 286.4500122070312
0, 2, 88, 280.1841125488281
0, 2, 89, 297.8001403808594
0, 2, 90, 294.404052734375
0, 2, 91, 278.3496398925781
0, 2, 92, 304.9982604980469
0, 2, 93, 316.6511535644531
0, 2, 94, 292.765869140625
0, 2, 95, 316.0558776855469
0, 2, 96, 315.0311279296875
0, 2, 97, 292.7420654296875
0, 2, 98, 292.9484252929688
0, 2, 99, 274.149169921875
0, 2, 100, 306.5097961425781
0, 2, 101, 303.3157043457031
0, 2, 102, 298.0232238769531
0, 2, 103, 292.11279296875
0, 2, 104, 294.2015075683594
0, 2, 105, 275.6560363769531
0, 2, 106, 296.6256713867188
0, 2, 107, 267.8470764160156
0, 2, 108, 115.8946685791016
0, 2, 109, 34.0744514465332
0, 2, 110, 9.874662399291992
0, 2, 111, 10.88903617858887
0, 2, 112, 5.910752296447754
0, 2, 113, 9.423818588256836
0, 2, 114, 11.08730983734131
0, 2, 115, 8.553692817687988
0, 2, 116, 8.868951797485352
0, 2, 117, 10.30733489990234
0, 2, 118, 4.939219951629639
0, 2, 119, 4.788148403167725
0, 2, 120, 9.168539047241211
0, 2, 121, 1.2625492811203
0, 2, 122, 4.687193393707275
0, 2, 123, 4.352525234222412
0, 2, 124, 3.260547161102295
0, 2, 125, 4.069350242614746
0, 2, 126, 2.35858678817749
0, 2, 127, 4.96171236038208
0, 3, 0, 5.095472812652588
0, 3, 1, 3.951465845108032
0, 3, 2, 4.645543575286865
0, 3, 3, 2.773538827896118
0, 3, 4, 4.50822114944458
0, 3, 5, 6.307181835174561
0, 3, 6, 7.205224514007568
0, 3, 7, 5.377004623413086
0, 3, 8, 6.056839466094971
0, 3, 9, 6.127398490905762
0, 3, 10, 6.022603511810303
0, 3, 11, 3.566828966140747
0, 3, 12, 7.392247676849365
0, 3, 13, 15.88723468780518
0, 3, 14, 10.51495361328125
0, 3, 15, 13.8457498550415
0, 3, 16, 11.94975852966309
0, 3, 17, 19.22359466552734
0, 3, 18, 54.42335510253906
0, 3, 19, 175.3512878417969
0, 3, 20, 269.615966796875
0, 3, 21, 271.3146667480469
0, 3, 22, 283.3758850097656
0, 3, 23, 286.3150024414062
0, 3, 24, 288.1038818359375
0, 3, 25, 272.4612731933594
0, 3, 26, 304.7501220703125
0, 3, 27, 293.8734436035156
0, 3, 28, 281.4267272949219
0, 3, 29, 338.9631652832031
0, 3, 30, 315.3705444335938
0, 3, 31, 284.8617248535156
0, 3, 32, 306.173828125
0, 3, 33, 312.7527770996094
0, 3, 34, 323.7100219726562
0, 3, 35, 307.0459899902344
0, 3, 36, 266.606201171875
0, 3, 37, 313.282470703125
0, 3, 38, 304.0516967773438
0, 3, 39, 289.8567504882812
0, 3, 40, 268.1239013671875
0, 3, 41, 301.7361755371094
0, 3, 42, 289.1195068359375
0, 3, 43, 305.8299865722656
0, 3, 44, 313.2091369628906
0, 3, 45, 290.4356384277344
0, 3, 46, 329.9041442871094
0, 3, 47, 298.8575744628906
0, 3, 48, 303.4830322265625
0, 3, 49, 276.3450927734375
0, 3, 50, 291.61376953125
0, 3, 51, 275.9104614257812
0, 3, 52, 317.3753967285156
0, 3, 53, 288.4485168457031
0, 3, 54, 284.1652526855469
0, 3, 55, 283.3962097167969
0, 3, 56, 298.2716979980469
0, 3, 57, 286.4432373046875
0, 3, 58, 305.5349731445312
0, 3, 59, 296.8447265625
0, 3, 60, 299.7437438964844
0, 3, 61, 263.9230651855469
0, 3, 62, 284.9917907714844
0, 3, 63, 308.1495361328125
0, 3, 64, 315.4781799316406
0, 3, 65, 305.893798828125
0, 3, 66, 316.1806030273438
0, 3, 67, 317.2803649902344
0, 3, 68, 279.1557006835938
0, 3, 69, 281.3073425292969
0, 3, 70, 287.6922607421875
0, 3, 71, 299.0856018066406
0, 3, 72, 269.9496765136719
0, 3, 73, 310.48876953125
0, 3, 74, 293.2074584960938
0, 3, 75, 290.6239013671875
0, 3, 76, 305.3176879882812
0, 3, 77, 313.7377624511719
0, 3, 78, 306.3600769042969
0, 3, 79, 280.672119140625
0, 3, 80, 288.52587890625
0, 3, 81, 310.303466796875
0, 3, 82, 314.8711547851562
0, 3, 83, 300.7354736328125
0, 3, 84, 310.8278503417969
0, 3, 85, 291.4380187988281
0, 3, 86, 305.8132629394531
0, 3, 87, 297.5532531738281
0, 3, 88, 300.1443786621094
0, 3, 89, 297.6771545410156
0, 3, 90, 274.7147216796875
0, 3, 91, 284.7260131835938
0, 3, 92, 303.2843933105469
0, 3, 93, 313.2317810058594
0, 3, 94, 298.7411499023438
0, 3, 95, 335.5632019042969
0, 3, 96, 289.177001953125
0, 3, 97, 282.5194396972656
0, 3, 98, 279.2854919433594
0, 3, 99, 261.5241088867188
0, 3, 100, 283.675048828125
0, 3, 101, 296.1828002929688
0, 3, 102, 274.7032775878906
0, 3, 103, 318.5970458984375
0, 3, 104, 309.3292846679688
0, 3, 105, 288.3105163574219
0, 3, 106, 301.871337890625
0, 3, 107, 281.7189331054688
0, 3, 108, 168.6797027587891
0, 3, 109, 58.61005020141602
0, 3, 110, 17.50816917419434
0, 3, 111, 12.32755279541016
0, 3, 112, 15.44152450561523
0, 3, 113, 6.059196472167969
0, 3, 114, 11.08323383331299
0, 3, 115, 7.326869964599609
0, 3, 116, 9.583038330078125
0, 3, 117, 8.648406982421875
0, 3, 118, 6.168480396270752
0, 3, 119, 8.942257881164551
0, 3, 120, 6.200140476226807
0, 3, 121, 1.751790165901184
0, 3, 122, 3.527369260787964
0, 3, 123, 5.928867340087891
0, 3, 124, 2.07560658454895
0, 3, 125, 5.590023517608643
0, 3, 126, 5.039141178131104
0, 3, 127, 4.048122406005859
0, 4, 0, 2.933258771896362
0, 4, 1, 3.711649179458618
0, 4, 2, 4.666741371154785
0, 4, 3, 2.460899353027344
0, 4, 4, 6.941481590270996
0, 4, 5, 11.0779504776001
0, 4, 6, 6.961892604827881
0, 4, 7, 4.173483371734619
0, 4, 8, 6.358848094940186
0, 4, 9, 6.92681884765625
0, 4, 10, 6.03211784362793
0, 4, 11, 7.145410537719727
0, 4, 12, 6.72310209274292
0, 4, 13, 10.77097129821777
0, 4, 14, 11.23324966430664
0, 4, 15, 11.40707683563232
0, 4, 16, 14.30939960479736
0, 4, 17, 17.73517990112305
0, 4, 18, 94.10928344726562
0, 4, 19, 222.9098663330078
0, 4, 20, 284.820068359375
0, 4, 21, 271.0106811523438
0, 4, 22, 303.6111145019531
0, 4, 23, 266.8431396484375
0, 4, 24, 290.2836608886719
0, 4, 25, 272.1770629882812
0, 4, 26, 296.8638305664062
0, 4, 27, 283.8413391113281
0, 4, 28, 306.8563537597656
0, 4, 29, 322.9967651367188
0, 4, 30, 311.1753234863281
0, 4, 31, 302.9831848144531
0, 4, 32, 281.3046569824219
0, 4, 33, 295.9684143066406
0, 4, 34, 295.6358947753906
0, 4, 35, 310.9649047851562
0, 4, 36, 292.3917846679688
0, 4, 37, 289.5308532714844
0, 4, 38, 297.6300048828125
0, 4, 39, 294.4747619628906
0, 4, 40, 302.8365783691406
0, 4, 41, 312.22900390625
0, 4, 42, 332.0722351074219
0, 4, 43, 298.4804382324219
0, 4, 44, 321.3023986816406
0, 4, 45, 324.2367553710938
0, 4, 46, 306.0774841308594
0, 4, 47, 293.0204162597656
0, 4, 48, 295.3075561523438
0, 4, 49, 278.2813720703125
0, 4, 50, 297.4546813964844
0, 4, 51, 317.0257568359375
0, 4, 52, 328.8771362304688
0, 4, 53, 302.64013671875
0, 4, 54, 287.2213439941406
0, 4, 55, 315.3223266601562
0, 4, 56, 288.3108825683594
0, 4, 57, 309.3765563964844
0, 4, 58, 295.5962219238281
0, 4, 59, 307.9356994628906
0, 4, 60, 302.9985961914062
0, 4, 61, 315.2294311523438
0, 4, 62, 307.5249328613281
0, 4, 63, 299.5170288085938
0, 4, 64, 328.7362976074219
0, 4, 65, 315.8027954101562
0, 4, 66, 295.1745910644531
0, 4, 67, 283.5834350585938
0, 4, 68, 312.751220703125
0, 4, 69, 275.7548828125
0, 4, 70, 300.0754089355469
0, 4, 71, 323.7832641601562
0, 4, 72, 333.0089721679688
0, 4, 73, 299.9503173828125
0, 4, 74, 293.8691101074219
0, 4, 75, 289.6958923339844
0, 4, 76, 276.7252807617188
0, 4, 77, 278.6941223144531
0, 4, 78, 308.4149780273438
0, 4, 79, 318.7355041503906
0, 4, 80, 316.6553649902344
0, 4, 81, 313.4387512207031
0, 4, 82, 297.0047607421875
0, 4, 83, 300.0707702636719
0, 4, 84, 291.7131652832031
0, 4, 85, 294.8136901855469
0, 4, 86, 297.4560241699219
0, 4, 87, 284.8030700683594
0, 4, 88, 305.4176330566406
0, 4, 89, 295.7493896484375
0, 4, 90, 331.3723754882812
0, 4, 91, 300.7644653320312
0, 4, 92, 289.7087707519531
0, 4, 93, 296.4817199707031
0, 4, 94, 294.7279663085938
0, 4, 95, 291.8719787597656
0, 4, 96, 322.2385864257812
0, 4, 97, 275.837890625
0, 4, 98, 329.0270080566406
0, 4, 99, 313.4688110351562
0, 4, 100, 299.998779296875
0, 4, 101, 258.4259948730469
0, 4, 102, 296.3825988769531
0, 4, 103, 319.6629333496094
0, 4, 104, 280.748779296875
0, 4, 105, 310.0522766113281
0, 4, 106, 285.9282836914062
0, 4, 107, 295.2731628417969
0, 4, 108, 226.2647247314453
0, 4, 109, 82.77983856201172
0, 4, 110, 16.04907608032227
0, 4, 111, 13.11418533325195
0, 4, 112, 9.454926490783691
0, 4, 113, 11.85671710968018
0, 4, 114, 8.505283355712891
0, 4, 115, 9.544474601745605
0, 4, 116, 9.387477874755859
0, 4, 117, 4.863346099853516
0, 4, 118, 9.427555084228516
0, 4, 119, 10.34596157073975
0, 4, 120, 5.430211544036865
0, 4, 121, 5.428615093231201
0, 4, 122, 5.106019020080566
0, 4, 123, 5.620457172393799
0, 4, 124, 6.295737266540527
0, 4, 125, 9.845124244689941
0, 4, 126, 4.891999244689941
0, 4, 127, 4.529887676239014
0, 5, 0, 3.505042791366577
0, 5, 1, 4.230380058288574
0, 5, 2, 3.602410316467285
0, 5, 3, 3.983404874801636
0, 5, 4, 5.158292293548584
0, 5, 5, 6.3854660987854
0, 5, 6, 5.469530582427979
0, 5, 7, 5.038514614105225
0, 5, 8, 5.35341739654541
0, 5, 9, 4.95804500579834
0, 5, 10, 6.56890344619751
0, 5, 11, 9.376690864562988
0, 5, 12, 9.229965209960938
0, 5, 13, 5.16460132598877
0, 5, 14, 13.2219066619873
0, 5, 15, 16.72795677185059
0, 5, 16, 15.88589096069336
0, 5, 17, 30.0161075592041
0, 5, 18, 139.3586578369141
0, 5, 19, 288.06884765625
0, 5, 20, 308.8540954589844
0, 5, 21, 316.3380126953125
0, 5, 22, 274.3652954101562
0, 5, 23, 311.05859375
0, 5, 24, 300.8145446777344
0, 5, 25, 292.0212097167969
0, 5, 26, 296.4336242675781
0, 5, 27, 321.4676208496094
0, 5, 28, 302.9636535644531
0, 5, 29, 297.4821166992188
0, 5, 30, 327.2389221191406
0, 5, 31, 287.3305358886719
0, 5, 32, 303.6190185546875
0, 5, 33, 302.7466125488281
0, 5, 34, 295.5840454101562
0, 5, 35, 308.7053833007812
0, 5, 36, 272.1406555175781
0, 5, 37, 282.14501953125
0, 5, 38, 293.9911499023438
0, 5, 39, 311.1747436523438
0, 5, 40, 308.3193054199219
0, 5, 41, 272.4432983398438
0, 5, 42, 304.817138671875
0, 5, 43, 314.5411376953125
0, 5, 44, 291.8994445800781
0, 5, 45, 302.9349365234375
0, 5, 46, 266.2783813476562
0, 5, 47, 281.634033203125
0, 5, 48, 295.1612854003906
0, 5, 49, 285.2787170410156
0, 5, 50, 292.4561767578125
0, 5, 51, 277.784912109375
0, 5, 52, 267.7633666992188
0, 5, 53, 284.1935729980469
0, 5, 54, 291.7236022949219
0, 5, 55, 345.8509216308594
0, 5, 56, 306.8761901855469
0, 5, 57, 310.1348266601562
0, 5, 58, 311.9558410644531
0, 5, 59, 301.96630859375
0, 5, 60, 307.2839660644531
0, 5, 61, 280.5915222167969
0, 5, 62, 328.2620849609375
0, 5, 63, 289.8360290527344
0, 5, 64, 324.2651672363281
0, 5, 65, 306.8108825683594
0, 5, 66, 329.45947265625
0, 5, 67, 314.4752502441406
0, 5, 68, 306.9327087402344
0, 5, 69, 310.3692016601562
0, 5, 70, 299.2427978515625
0, 5, 71, 271.4662780761719
0, 5, 72, 308.1768798828125
0, 5, 73, 304.0214233398438
0, 5, 74, 295.3668212890625
0, 5, 75, 293.6207275390625
0, 5, 76, 284.5444641113281
0, 5, 77, 296.9911499023438
0, 5, 78, 315.615234375
0, 5, 79, 310.2767639160156
0, 5, 80, 295.71240234375
0, 5, 81, 325.5081481933594
0, 5, 82, 323.6509704589844
0, 5, 83, 280.5828857421875
0, 5, 84, 301.21630859375
0, 5, 85, 272.4451293945312
0, 5, 86, 324.5084228515625
0, 5, 87, 282.8774719238281
0, 5, 88, 313.532958984375
0, 5, 89, 304.6881103515625
0, 5, 90, 315.3980712890625
0, 5, 91, 314.6817016601562
0, 5, 92, 297.9779663085938
0, 5, 93, 323.5232849121094
0, 5, 94, 307.3114318847656
0, 5, 95, 298.0605163574219
0, 5, 96, 295.763427734375
0, 5, 97, 296.6556396484375
0, 5, 98, 318.3336181640625
0, 5, 99, 301.4625549316406
0, 5, 100, 291.3712158203125
0, 5, 101, 305.7702941894531
0, 5, 102, 292.3894653320312
0, 5, 103, 314.2860412597656
0, 5, 104, 302.4356994628906
0, 5, 105, 292.2802429199219
0, 5, 106, 281.8137512207031
0, 5, 107, 295.0062561035156
0, 5, 108, 267.2496337890625
0, 5, 109, 155.0692596435547
0, 5, 110, 38.80431747436523
0, 5, 111, 20.1251049041748
0, 5, 112, 15.03221225738525
0, 5, 113, 13.5984411239624
0, 5, 114, 13.72280406951904
0, 5, 115, 6.968544960021973
0, 5, 116, 8.178682327270508
0, 5, 117, 6.383675098419189
0, 5, 118, 15.00269794464111
0, 5, 119, 5.333746910095215
0, 5, 120, 6.641732692718506
0, 5, 121, 4.74689245223999
0, 5, 122, 5.217586517333984
0, 5, 123, 5.291229248046875
0, 5, 124, 4.131114959716797
0, 5, 125, 6.571015357971191
0, 5, 126, 5.419301986694336
0, 5, 127, 3.011290550231934
0, 6, 0, 4.393289566040039
0, 6, 1, 5.75508451461792
0, 6, 2, 6.722915172576904
0, 6, 3, 5.93536901473999
0, 6, 4, 3.595750331878662
0, 6, 5, 6.529501914978027
0, 6, 6, 9.35319709777832
0, 6, 7, 6.068521022796631
0, 6, 8, 9.188502311706543
0, 6, 9, 6.666171073913574
0, 6, 10, 8.071508407592773
0, 6, 11, 6.626467704772949
0, 6, 12, 8.480661392211914
0, 6, 13, 13.858567237854
0, 6, 14, 8.167915344238281
0, 6, 15, 15.39343547821045
0, 6, 16, 27.8210506439209
0, 6, 17, 55.24187088012695
0, 6, 18, 174.2949523925781
0, 6, 19, 277.2072448730469
0, 6, 20, 290.2425842285156
0, 6, 21, 315.7431335449219
0, 6, 22, 321.5488891601562
0, 6, 23, 306.7591552734375
0, 6, 24, 315.9417419433594
0, 6, 25, 315.5538940429688
0, 6, 26, 318.684814453125
0, 6, 27, 329.9520568847656
0, 6, 28, 298.3013610839844
0, 6, 29, 336.9739379882812
0, 6, 30, 283.7345886230469
0, 6, 31, 286.6520080566406
0, 6, 32, 339.9598388671875
0, 6, 33, 298.1649475097656
0, 6, 34, 341.8202209472656
0, 6, 35, 320.9514465332031
0, 6, 36, 274.6839599609375
0, 6, 37, 290.6607666015625
0, 6, 38, 311.4220581054688
0, 6, 39, 299.2879333496094
0, 6, 40, 284.7441711425781
0, 6, 41, 295.0233459472656
0, 6, 42, 304.2503662109375
0, 6, 43, 287.5064392089844
0, 6, 44, 281.5647277832031
0, 6, 45, 321.3005065917969
0, 6, 46, 301.9000549316406
0, 6, 47, 334.5118408203125
0, 6, 48, 293.4389038085938
0, 6, 49, 311.4160461425781
0, 6, 50, 330.4029235839844
0, 6, 51, 309.45166015625
0, 6, 52, 320.6929626464844
0, 6, 53, 325.5270690917969
0, 6, 54, 303.6368408203125
0, 6, 55, 304.4242553710938
0, 6, 56, 292.327392578125
0, 6, 57, 312.8152770996094
0, 6, 58, 262.4991149902344
0, 6, 59, 301.8163757324219
0, 6, 60, 313.6778564453125
0, 6, 61, 271.6411743164062
0, 6, 62, 338.8870849609375
0, 6, 63, 322.7192077636719
0, 6, 64, 291.4981994628906
0, 6, 65, 284.2364501953125
0, 6, 66, 306.9659729003906
0, 6, 67, 310.0240173339844
0, 6, 68, 293.0771179199219
0, 6, 69, 279.4058227539062
0, 6, 70, 277.826904296875
0, 6, 71, 288.6388549804688
0, 6, 72, 308.7992248535156
0, 6, 73, 294.9007873535156
0, 6, 74, 330.0942687988281
0, 6, 75, 343.3199768066406
0, 6, 76, 297.7453002929688
0, 6, 77, 284.3595581054688
0, 6, 78, 277.9880981445312
0, 6, 79, 292.7454528808594
0, 6, 80, 301.2831420898438
0, 6, 81, 313.8567810058594
0, 6, 82, 320.2916564941406
0, 6, 83, 320.4316711425781
0, 6, 84, 295.107177734375
0, 6, 85, 300.1611938476562
0, 6, 86, 329.9447021484375
0, 6, 87, 291.8944702148438
0, 6, 88, 306.8144836425781
0, 6, 89, 304.6580505371094
0, 6, 90, 300.9062194824219
0, 6, 91, 312.1199340820312
0, 6, 92, 283.0330810546875
0, 6, 93, 297.07373046875
0, 6, 94, 272.2015075683594
0, 6, 95, 299.8926086425781
0, 6, 96, 347.5258483886719
0, 6, 97, 307.380615234375
0, 6, 98, 300.0670166015625
0, 6, 99, 272.1890258789062
0, 6, 100, 309.83203125
0, 6, 101, 295.8869934082031
0, 6, 102, 309.5800476074219
0, 6, 103, 308.1951599121094
0, 6, 104, 292.4032287597656
0, 6, 105, 304.1583862304688
0, 6, 106, 306.6524353027344
0, 6, 107, 306.0216979980469
0, 6, 108, 264.4803466796875
0, 6, 109, 186.4426116943359
0, 6, 110, 56.64548492431641
0, 6, 111, 22.62289810180664
0, 6, 112, 12.28089427947998
0, 6, 113, 11.15637588500977
0, 6, 114, 12.33753490447998
0, 6, 115, 12.54727649688721
0, 6, 116, 8.380754470825195
0, 6, 117, 6.639093399047852
0, 6, 118, 9.22891902923584
0, 6, 119, 6.849406242370605
0, 6, 120, 5.593689918518066
0, 6, 121, 7.133338928222656
0, 6, 122, 6.190935611724854
0, 6, 123, 4.813028335571289
0, 6, 124, 7.142663955688477
0, 6, 125, 7.520267009735107
0, 6, 126, 5.590237140655518
0, 6, 127, 5.08275318145752
0, 7, 0, 5.91259241104126
0, 7, 1, 4.252732276916504
0, 7, 2, 5.60908317565918
0, 7, 3, 3.593579053878784
0, 7, 4, 5.20870304107666
0, 7, 5, 4.464081287384033
0, 7, 6, 7.29658317565918
0, 7, 7, 6.711307525634766
0, 7, 8, 4.622120380401611
0, 7, 9, 4.61877965927124
0, 7, 10, 7.761659622192383
0, 7, 11, 11.03660011291504
0, 7, 12, 10.03638076782227
0, 7, 13, 11.48917388916016
0, 7, 14, 9.960868835449219
0, 7, 15, 17.10645866394043
0, 7, 16, 26.80567169189453
0, 7, 17, 96.24134826660156
0, 7, 18, 218.8689727783203
0, 7, 19, 290.9873352050781
0, 7, 20, 298.2297668457031
0, 7, 21, 278.9193725585938
0, 7, 22, 299.5958251953125
0, 7, 23, 290.1187744140625
0, 7, 24, 313.4285583496094
0, 7, 25, 322.9617004394531
0, 7, 26, 279.1357421875
0, 7, 27, 297.6900939941406
0, 7, 28, 327.2803039550781
0, 7, 29, 316.8527526855469
0, 7, 30, 301.8823852539062
0, 7, 31, 277.707763671875
0, 7, 32, 305.7011413574219
0, 7, 33, 262.3775329589844
0, 7, 34, 297.2391357421875
0, 7, 35, 319.3628540039062
0, 7, 36, 330.9666748046875
0, 7, 37, 322.7669982910156
0, 7, 38, 295.7529296875
0, 7, 39, 305.6546936035156
0, 7, 40, 291.2138366699219
0, 7, 41, 272.4513854980469
0, 7, 42, 300.7398986816406
0, 7, 43, 273.9575805664062
0, 7, 44, 302.7542114257812
0, 7, 45, 293.7842712402344
0, 7, 46, 282.2765502929688
0, 7, 47, 329.1965942382812
0, 7, 48, 285.0245056152344
0, 7, 49, 301.1052856445312
0, 7, 50, 321.1825561523438
0, 7, 51, 299.5048828125
0, 7, 52, 328.9047241210938
0, 7, 53, 311.6786193847656
0, 7, 54, 321.8404235839844
0, 7, 55, 308.7969970703125
0, 7, 56, 279.3387145996094
0, 7, 57, 282.4697265625
0, 7, 58, 295.9725646972656
0, 7, 59, 297.6984558105469
0, 7, 60, 324.5790710449219
0, 7, 61, 277.1260375976562
0, 7, 62, 298.9100341796875
0, 7, 63, 294.0332641601562
0, 7, 64, 310.2344360351562
0, 7, 65, 330.7023315429688
0, 7, 66, 318.0654907226562
0, 7, 67, 301.6976318359375
0, 7, 68, 281.4820556640625
0, 7, 69, 294.6431579589844
0, 7, 70, 302.5382385253906
0, 7, 71, 310.0990295410156
0, 7, 72, 284.0444946289062
0, 7, 73, 295.6965026855469
0, 7, 74, 346.0011901855469
0, 7, 75, 318.4730224609375
0, 7, 76, 321.7289123535156
0, 7, 77, 281.0334167480469
0, 7, 78, 298.5133361816406
0, 7, 79, 296.28857421875
0, 7, 80, 313.94287109375
0, 7, 81, 318.7160339355469
0, 7, 82, 330.6565246582031
0, 7, 83, 319.892578125
0, 7, 84, 308.4384155273438
0, 7, 85, 272.3844299316406
0, 7, 86, 311.7359924316406
0, 7, 87, 311.0289916992188
0, 7, 88, 309.682861328125
0, 7, 89, 294.4076232910156
0, 7, 90, 307.6716918945312
0, 7, 91, 316.6270446777344
0, 7, 92, 286.0837707519531
0, 7, 93, 306.8118286132812
0, 7, 94, 273.001708984375
0, 7, 95, 296.3103942871094
0, 7, 96, 333.5351867675781
0, 7, 97, 295.7473449707031
0, 7, 98, 293.5240478515625
0, 7, 99, 311.6434936523438
0, 7, 100, 281.1296997070312
0, 7, 101, 275.4107055664062
0, 7, 102, 290.8615417480469
0, 7, 103, 292.8029479980469
0, 7, 104, 275.8426513671875
0, 7, 105, 307.8821716308594
0, 7, 106, 316.7446899414062
0, 7, 107, 296.4463195800781
0, 7, 108, 274.3396301269531
0, 7, 109, 234.0802307128906
0, 7, 110, 98.40835571289062
0, 7, 111, 23.69055557250977
0, 7, 112, 13.96297454833984
0, 7, 113, 13.62941741943359
0, 7, 114, 13.44329166412354
0, 7, 115, 12.20212459564209
0, 7, 116, 7.028923988342285
0, 7, 117, 4.326369285583496
0, 7, 118, 9.59386157989502
0, 7, 119, 5.80169677734375
0, 7, 120, 5.748053550720215
0, 7, 121, 7.074077129364014
0, 7, 122, 8.651021957397461
0, 7, 123, 3.942543506622314
0, 7, 124, 4.112483978271484
0, 7, 125, 5.857669353485107
0, 7, 126, 8.377983093261719
0, 7, 127, 1.998255133628845
0, 8, 0, 6.412962913513184
0, 8, 1, 4.084637641906738
0, 8, 2, 7.798599243164062
0, 8, 3, 4.313554286956787
0, 8, 4, 3.956022500991821
0, 8, 5, 3.412700891494751
0, 8, 6, 5.953592300415039
0, 8, 7, 6.224661827087402
0, 8, 8, 8.61479663848877
0, 8, 9, 5.181985855102539
0, 8, 10, 7.910754680633545
0, 8, 11, 11.62261390686035
0, 8, 12, 12.98263359069824
0, 8, 13, 16.2280158996582
0, 8, 14, 13.73424911499023
0, 8, 15, 20.27553749084473
0, 8, 16, 32.67630386352539
0, 8, 17, 129.8110046386719
0, 8, 18, 242.3467407226562
0, 8, 19, 294.3233947753906
0, 8, 20, 285.34375
0, 8, 21, 307.1455078125
0, 8, 22, 294.8035278320312
0, 8, 23, 274.6051330566406
0, 8, 24, 268.6537170410156
0, 8, 25, 275.1384887695312
0, 8, 26, 306.0848999023438
0, 8, 27, 307.6173706054688
0, 8, 28, 303.7511291503906
0, 8, 29, 318.3551025390625
0, 8, 30, 314.5885620117188
0, 8, 31, 303.5746765136719
0, 8, 32, 281.1692810058594
0, 8, 33, 295.0525817871094
0, 8, 34, 289.3589477539062
0, 8, 35, 279.6363830566406
0, 8, 36, 315.4732055664062
0, 8, 37, 339.1889343261719
0, 8, 38, 333.2822875976562
0, 8, 39, 280.1593017578125
0, 8, 40, 303.69970703125
