# TOPAS Version: 3.1.p3
# Parameter File: batch_inserts_34.txt
# Results for scorer Readout_Adipose
# Scored in component: MyBox
# X in 1 bin  of 0.75 cm
# Y in 512 bins of 0.0783984 cm
# Z in 128 bins of 0.078125 cm
# EnergyDeposit ( MeV ) : Sum   
0, 0, 0, 4.386157989501953
0, 0, 1, 2.537940502166748
0, 0, 2, 4.162174224853516
0, 0, 3, 2.150729894638062
0, 0, 4, 2.151812553405762
0, 0, 5, 3.250160932540894
0, 0, 6, 8.159914970397949
0, 0, 7, 8.978832244873047
0, 0, 8, 3.664057016372681
0, 0, 9, 3.385303735733032
0, 0, 10, 7.441902637481689
0, 0, 11, 4.396533489227295
0, 0, 12, 5.339856147766113
0, 0, 13, 6.451940059661865
0, 0, 14, 7.18758487701416
0, 0, 15, 9.494027137756348
0, 0, 16, 8.754762649536133
0, 0, 17, 9.607071876525879
0, 0, 18, 13.65254402160645
0, 0, 19, 43.43352127075195
0, 0, 20, 140.6300964355469
0, 0, 21, 223.2546539306641
0, 0, 22, 249.2651062011719
0, 0, 23, 256.9793701171875
0, 0, 24, 250.2838745117188
0, 0, 25, 259.7008056640625
0, 0, 26, 235.2219390869141
0, 0, 27, 236.5549011230469
0, 0, 28, 273.1422424316406
0, 0, 29, 251.5501098632812
0, 0, 30, 228.7942199707031
0, 0, 31, 243.0142211914062
0, 0, 32, 263.927001953125
0, 0, 33, 262.793701171875
0, 0, 34, 286.9921875
0, 0, 35, 267.6377258300781
0, 0, 36, 248.8593597412109
0, 0, 37, 252.4402008056641
0, 0, 38, 267.119140625
0, 0, 39, 229.8193054199219
0, 0, 40, 243.1072540283203
0, 0, 41, 268.6118774414062
0, 0, 42, 229.2936401367188
0, 0, 43, 261.3790588378906
0, 0, 44, 250.5146636962891
0, 0, 45, 253.2567596435547
0, 0, 46, 244.7134552001953
0, 0, 47, 252.8076019287109
0, 0, 48, 267.4295959472656
0, 0, 49, 274.4613647460938
0, 0, 50, 251.6971740722656
0, 0, 51, 252.2455139160156
0, 0, 52, 272.6786193847656
0, 0, 53, 292.0534057617188
0, 0, 54, 241.9385528564453
0, 0, 55, 241.9828948974609
0, 0, 56, 280.3504638671875
0, 0, 57, 262.5009765625
0, 0, 58, 248.9667053222656
0, 0, 59, 270.9921569824219
0, 0, 60, 234.71484375
0, 0, 61, 244.2830352783203
0, 0, 62, 258.9734191894531
0, 0, 63, 266.1765441894531
0, 0, 64, 257.1734008789062
0, 0, 65, 261.8478393554688
0, 0, 66, 276.8355407714844
0, 0, 67, 246.0850677490234
0, 0, 68, 258.7928771972656
0, 0, 69, 262.1581420898438
0, 0, 70, 273.7756652832031
0, 0, 71, 238.922119140625
0, 0, 72, 249.0810241699219
0, 0, 73, 257.5074462890625
0, 0, 74, 251.6278991699219
0, 0, 75, 240.9017333984375
0, 0, 76, 229.2772216796875
0, 0, 77, 261.378662109375
0, 0, 78, 256.2159423828125
0, 0, 79, 276.0926513671875
0, 0, 80, 216.4722442626953
0, 0, 81, 266.1716003417969
0, 0, 82, 257.0237121582031
0, 0, 83, 246.1358947753906
0, 0, 84, 269.9674377441406
0, 0, 85, 231.0433959960938
0, 0, 86, 255.0044708251953
0, 0, 87, 252.1153259277344
0, 0, 88, 259.2356567382812
0, 0, 89, 282.9499206542969
0, 0, 90, 244.7342834472656
0, 0, 91, 281.4290771484375
0, 0, 92, 252.6788177490234
0, 0, 93, 253.0231323242188
0, 0, 94, 249.2235260009766
0, 0, 95, 247.9275512695312
0, 0, 96, 275.3980407714844
0, 0, 97, 272.9775085449219
0, 0, 98, 274.0076293945312
0, 0, 99, 258.4979248046875
0, 0, 100, 257.3455200195312
0, 0, 101, 225.0966339111328
0, 0, 102, 233.6619110107422
0, 0, 103, 270.8103637695312
0, 0, 104, 253.1580505371094
0, 0, 105, 252.655517578125
0, 0, 106, 246.5706481933594
0, 0, 107, 151.8187103271484
0, 0, 108, 38.00847244262695
0, 0, 109, 12.15167808532715
0, 0, 110, 13.14634132385254
0, 0, 111, 8.312976837158203
0, 0, 112, 5.516412258148193
0, 0, 113, 5.760754585266113
0, 0, 114, 8.09192943572998
0, 0, 115, 5.29527473449707
0, 0, 116, 6.886824607849121
0, 0, 117, 7.319144725799561
0, 0, 118, 7.48980712890625
0, 0, 119, 5.066998958587646
0, 0, 120, 4.480180263519287
0, 0, 121, 3.63056755065918
0, 0, 122, 3.82732892036438
0, 0, 123, 3.964246988296509
0, 0, 124, 6.946904182434082
0, 0, 125, 4.147007942199707
0, 0, 126, 4.179070949554443
0, 0, 127, 4.660459518432617
0, 1, 0, 8.922796249389648
0, 1, 1, 4.430703639984131
0, 1, 2, 3.368187665939331
0, 1, 3, 1.251120328903198
0, 1, 4, 1.810557126998901
0, 1, 5, 2.878956317901611
0, 1, 6, 5.477512359619141
0, 1, 7, 5.756581783294678
0, 1, 8, 5.650757312774658
0, 1, 9, 5.062880039215088
0, 1, 10, 7.211762428283691
0, 1, 11, 11.59735107421875
0, 1, 12, 9.462520599365234
0, 1, 13, 9.400456428527832
0, 1, 14, 7.494748592376709
0, 1, 15, 7.795708656311035
0, 1, 16, 11.02556133270264
0, 1, 17, 11.55473899841309
0, 1, 18, 21.00201416015625
0, 1, 19, 68.16287994384766
0, 1, 20, 199.6637115478516
0, 1, 21, 255.1684265136719
0, 1, 22, 297.4214782714844
0, 1, 23, 283.8277282714844
0, 1, 24, 276.6061706542969
0, 1, 25, 288.2168579101562
0, 1, 26, 268.8683166503906
0, 1, 27, 308.3377075195312
0, 1, 28, 298.3589782714844
0, 1, 29, 297.8589782714844
0, 1, 30, 279.9388732910156
0, 1, 31, 292.8014831542969
0, 1, 32, 292.4770812988281
0, 1, 33, 295.1756591796875
0, 1, 34, 292.006103515625
0, 1, 35, 278.3056945800781
0, 1, 36, 305.6395568847656
0, 1, 37, 293.6451721191406
0, 1, 38, 280.3801574707031
0, 1, 39, 296.1583557128906
0, 1, 40, 264.9703674316406
0, 1, 41, 285.9501953125
0, 1, 42, 290.3023681640625
0, 1, 43, 332.5855407714844
0, 1, 44, 277.4380493164062
0, 1, 45, 292.4742736816406
0, 1, 46, 259.1268005371094
0, 1, 47, 310.8984680175781
0, 1, 48, 285.1445922851562
0, 1, 49, 302.8216857910156
0, 1, 50, 263.149658203125
0, 1, 51, 274.906982421875
0, 1, 52, 296.9547424316406
0, 1, 53, 305.1963500976562
0, 1, 54, 275.8184204101562
0, 1, 55, 293.8523254394531
0, 1, 56, 275.3742980957031
0, 1, 57, 296.4708862304688
0, 1, 58, 309.3402404785156
0, 1, 59, 294.9764404296875
0, 1, 60, 297.9666442871094
0, 1, 61, 274.9425659179688
0, 1, 62, 309.5500183105469
0, 1, 63, 286.7536010742188
0, 1, 64, 288.8301391601562
0, 1, 65, 293.6253662109375
0, 1, 66, 293.5085144042969
0, 1, 67, 291.0767517089844
0, 1, 68, 278.762451171875
0, 1, 69, 281.5313415527344
0, 1, 70, 269.7200927734375
0, 1, 71, 273.0156555175781
0, 1, 72, 286.4568176269531
0, 1, 73, 307.0105590820312
0, 1, 74, 305.1484069824219
0, 1, 75, 293.3500061035156
0, 1, 76, 284.2799987792969
0, 1, 77, 291.6906433105469
0, 1, 78, 299.2600708007812
0, 1, 79, 302.1258544921875
0, 1, 80, 294.4941101074219
0, 1, 81, 299.9808044433594
0, 1, 82, 284.3771057128906
0, 1, 83, 332.749755859375
0, 1, 84, 310.2500915527344
0, 1, 85, 252.7520751953125
0, 1, 86, 294.7137145996094
0, 1, 87, 292.9685363769531
0, 1, 88, 299.1665954589844
0, 1, 89, 289.9921569824219
0, 1, 90, 269.5530395507812
0, 1, 91, 318.0850830078125
0, 1, 92, 290.0492248535156
0, 1, 93, 287.6304626464844
0, 1, 94, 302.7329711914062
0, 1, 95, 285.9529418945312
0, 1, 96, 283.7007141113281
0, 1, 97, 300.9148254394531
0, 1, 98, 277.5743713378906
0, 1, 99, 266.5731201171875
0, 1, 100, 277.8219909667969
0, 1, 101, 282.3417358398438
0, 1, 102, 276.7030944824219
0, 1, 103, 280.1685180664062
0, 1, 104, 305.9195251464844
0, 1, 105, 296.3145751953125
0, 1, 106, 261.415283203125
0, 1, 107, 195.4861755371094
0, 1, 108, 80.31475067138672
0, 1, 109, 22.87168121337891
0, 1, 110, 13.11656475067139
0, 1, 111, 7.555283546447754
0, 1, 112, 11.60049343109131
0, 1, 113, 6.761674404144287
0, 1, 114, 5.568649291992188
0, 1, 115, 7.754127025604248
0, 1, 116, 12.59866237640381
0, 1, 117, 5.958213806152344
0, 1, 118, 10.61691761016846
0, 1, 119, 4.049496650695801
0, 1, 120, 5.177476406097412
0, 1, 121, 3.077236175537109
0, 1, 122, 3.085256576538086
0, 1, 123, 3.52887225151062
0, 1, 124, 7.743667125701904
0, 1, 125, 5.68353796005249
0, 1, 126, 4.211995124816895
0, 1, 127, 1.107316136360168
0, 2, 0, 5.126734256744385
0, 2, 1, 2.251910924911499
0, 2, 2, 3.337198734283447
0, 2, 3, 4.603407859802246
0, 2, 4, 3.948339462280273
0, 2, 5, 2.282850980758667
0, 2, 6, 3.602085113525391
0, 2, 7, 5.749857425689697
0, 2, 8, 8.316824913024902
0, 2, 9, 5.145357131958008
0, 2, 10, 8.140950202941895
0, 2, 11, 6.417361736297607
0, 2, 12, 6.189221858978271
0, 2, 13, 10.9069709777832
0, 2, 14, 10.57470226287842
0, 2, 15, 8.20853328704834
0, 2, 16, 8.621796607971191
0, 2, 17, 16.96000671386719
0, 2, 18, 30.76138305664062
0, 2, 19, 117.8731384277344
0, 2, 20, 244.9237060546875
0, 2, 21, 270.5155029296875
0, 2, 22, 315.2585754394531
0, 2, 23, 300.7935180664062
0, 2, 24, 288.5515747070312
0, 2, 25, 304.12353515625
0, 2, 26, 292.3111877441406
0, 2, 27, 276.5458374023438
0, 2, 28, 273.4499816894531
0, 2, 29, 274.5485534667969
0, 2, 30, 292.7620849609375
0, 2, 31, 276.6037292480469
0, 2, 32, 293.8473815917969
0, 2, 33, 282.8629150390625
0, 2, 34, 332.6155700683594
0, 2, 35, 292.8464050292969
0, 2, 36, 303.2394409179688
0, 2, 37, 314.3702392578125
0, 2, 38, 309.1099548339844
0, 2, 39, 267.0097045898438
0, 2, 40, 307.9997253417969
0, 2, 41, 291.8611450195312
0, 2, 42, 303.0093994140625
0, 2, 43, 311.8226013183594
0, 2, 44, 313.4523315429688
0, 2, 45, 325.3882446289062
0, 2, 46, 288.6155395507812
0, 2, 47, 303.4444274902344
0, 2, 48, 280.4598388671875
0, 2, 49, 283.4579772949219
0, 2, 50, 295.0234985351562
0, 2, 51, 289.9282531738281
0, 2, 52, 269.8565368652344
0, 2, 53, 286.7081298828125
0, 2, 54, 281.8132629394531
0, 2, 55, 279.0242919921875
0, 2, 56, 302.0000915527344
0, 2, 57, 293.2337341308594
0, 2, 58, 305.8736267089844
0, 2, 59, 288.8876342773438
0, 2, 60, 318.9830017089844
0, 2, 61, 305.0325622558594
0, 2, 62, 314.025146484375
0, 2, 63, 302.5958251953125
0, 2, 64, 295.8442687988281
0, 2, 65, 310.9197692871094
0, 2, 66, 280.2124633789062
0, 2, 67, 290.3117370605469
0, 2, 68, 295.8602600097656
0, 2, 69, 310.5912780761719
0, 2, 70, 332.3607177734375
0, 2, 71, 285.4709777832031
0, 2, 72, 302.253173828125
0, 2, 73, 310.9831237792969
0, 2, 74, 284.9817810058594
0, 2, 75, 303.6512145996094
0, 2, 76, 289.1691284179688
0, 2, 77, 298.474609375
0, 2, 78, 313.6805114746094
0, 2, 79, 313.0436401367188
0, 2, 80, 298.0207214355469
0, 2, 81, 283.9385375976562
0, 2, 82, 318.1251831054688
0, 2, 83, 312.3872375488281
0, 2, 84, 288.6806640625
0, 2, 85, 283.3758850097656
0, 2, 86, 324.167724609375
0, 2, 87, 287.5223693847656
0, 2, 88, 279.51953125
0, 2, 89, 297.43505859375
0, 2, 90, 295.8320007324219
0, 2, 91, 277.5276184082031
0, 2, 92, 305.0866088867188
0, 2, 93, 317.0867309570312
0, 2, 94, 291.7824401855469
0, 2, 95, 316.3895874023438
0, 2, 96, 314.9060668945312
0, 2, 97, 292.4188232421875
0, 2, 98, 295.1544799804688
0, 2, 99, 274.308349609375
0, 2, 100, 308.3038940429688
0, 2, 101, 300.4088439941406
0, 2, 102, 295.8088989257812
0, 2, 103, 291.1657104492188
0, 2, 104, 291.636474609375
0, 2, 105, 274.8709106445312
0, 2, 106, 297.5660705566406
0, 2, 107, 270.3453369140625
0, 2, 108, 115.9710388183594
0, 2, 109, 32.85163497924805
0, 2, 110, 9.479942321777344
0, 2, 111, 10.7143669128418
0, 2, 112, 7.735775947570801
0, 2, 113, 10.78470420837402
0, 2, 114, 11.39988803863525
0, 2, 115, 8.514894485473633
0, 2, 116, 7.952300071716309
0, 2, 117, 6.238007545471191
0, 2, 118, 4.232878684997559
0, 2, 119, 5.829528331756592
0, 2, 120, 9.451399803161621
0, 2, 121, 4.83236837387085
0, 2, 122, 4.837608337402344
0, 2, 123, 3.734797477722168
0, 2, 124, 2.134189605712891
0, 2, 125, 5.999598979949951
0, 2, 126, 4.670408725738525
0, 2, 127, 4.73176383972168
0, 3, 0, 3.274549245834351
0, 3, 1, 3.795931100845337
0, 3, 2, 3.364067077636719
0, 3, 3, 1.671680688858032
0, 3, 4, 3.032145023345947
0, 3, 5, 8.141366958618164
0, 3, 6, 6.165401935577393
0, 3, 7, 7.473272323608398
0, 3, 8, 4.932461261749268
0, 3, 9, 4.642413139343262
0, 3, 10, 6.767094135284424
0, 3, 11, 4.016224384307861
0, 3, 12, 6.759505271911621
0, 3, 13, 17.06363105773926
0, 3, 14, 17.16475105285645
0, 3, 15, 15.25196170806885
0, 3, 16, 11.46049308776855
0, 3, 17, 18.66214752197266
0, 3, 18, 51.73090362548828
0, 3, 19, 175.7909851074219
0, 3, 20, 270.0360717773438
0, 3, 21, 272.0403747558594
0, 3, 22, 282.3250427246094
0, 3, 23, 286.3739624023438
0, 3, 24, 288.4123229980469
0, 3, 25, 271.0927734375
0, 3, 26, 303.1705627441406
0, 3, 27, 293.0806274414062
0, 3, 28, 280.0716552734375
0, 3, 29, 337.8453674316406
0, 3, 30, 315.5974731445312
0, 3, 31, 285.7308959960938
0, 3, 32, 306.5798034667969
0, 3, 33, 313.7324523925781
0, 3, 34, 323.7273864746094
0, 3, 35, 307.1379089355469
0, 3, 36, 269.4761657714844
0, 3, 37, 314.873046875
0, 3, 38, 303.5814514160156
0, 3, 39, 287.6142272949219
0, 3, 40, 266.9955444335938
0, 3, 41, 299.5378723144531
0, 3, 42, 288.997802734375
0, 3, 43, 304.9358825683594
0, 3, 44, 311.4093322753906
0, 3, 45, 290.2263488769531
0, 3, 46, 327.3722839355469
0, 3, 47, 298.8962707519531
0, 3, 48, 303.3691711425781
0, 3, 49, 274.972412109375
0, 3, 50, 293.0385131835938
0, 3, 51, 274.3892517089844
0, 3, 52, 314.7838745117188
0, 3, 53, 287.816162109375
0, 3, 54, 284.8934326171875
0, 3, 55, 283.453369140625
0, 3, 56, 297.6153564453125
0, 3, 57, 288.9649047851562
0, 3, 58, 307.9599304199219
0, 3, 59, 294.8734130859375
0, 3, 60, 298.3082275390625
0, 3, 61, 264.3551330566406
0, 3, 62, 284.9331970214844
0, 3, 63, 309.8287658691406
0, 3, 64, 317.0648803710938
0, 3, 65, 304.7446899414062
0, 3, 66, 313.7890625
0, 3, 67, 318.5767517089844
0, 3, 68, 279.5572509765625
0, 3, 69, 282.1377563476562
0, 3, 70, 290.0217895507812
0, 3, 71, 299.0101928710938
0, 3, 72, 270.8771362304688
0, 3, 73, 309.3875122070312
0, 3, 74, 291.5403442382812
0, 3, 75, 289.6353759765625
0, 3, 76, 304.7200622558594
0, 3, 77, 314.2964782714844
0, 3, 78, 301.5804138183594
0, 3, 79, 281.3465270996094
0, 3, 80, 292.0726318359375
0, 3, 81, 311.1033935546875
0, 3, 82, 315.4486999511719
0, 3, 83, 299.86572265625
0, 3, 84, 312.2085266113281
0, 3, 85, 296.0975341796875
0, 3, 86, 301.1014404296875
0, 3, 87, 299.1360778808594
0, 3, 88, 299.3380737304688
0, 3, 89, 295.6708984375
0, 3, 90, 277.4833679199219
0, 3, 91, 284.0354614257812
0, 3, 92, 305.3511047363281
0, 3, 93, 312.6067199707031
0, 3, 94, 298.0260009765625
0, 3, 95, 335.2301025390625
0, 3, 96, 289.52197265625
0, 3, 97, 283.7099914550781
0, 3, 98, 279.1120300292969
0, 3, 99, 262.8861999511719
0, 3, 100, 284.4192810058594
0, 3, 101, 295.4798278808594
0, 3, 102, 279.8766784667969
0, 3, 103, 320.9041748046875
0, 3, 104, 310.3718872070312
0, 3, 105, 287.4157104492188
0, 3, 106, 301.3171081542969
0, 3, 107, 282.3799133300781
0, 3, 108, 167.2828674316406
0, 3, 109, 58.21004486083984
0, 3, 110, 17.80360794067383
0, 3, 111, 12.79599285125732
0, 3, 112, 12.25012969970703
0, 3, 113, 8.236655235290527
0, 3, 114, 11.60826396942139
0, 3, 115, 8.034954071044922
0, 3, 116, 6.775525093078613
0, 3, 117, 8.402956962585449
0, 3, 118, 7.289141654968262
0, 3, 119, 5.00181245803833
0, 3, 120, 4.003687381744385
0, 3, 121, 2.39251708984375
0, 3, 122, 3.007526636123657
0, 3, 123, 5.337658405303955
0, 3, 124, 1.654593348503113
0, 3, 125, 5.329806804656982
0, 3, 126, 3.772668838500977
0, 3, 127, 2.241368770599365
0, 4, 0, 3.302236795425415
0, 4, 1, 5.086147785186768
0, 4, 2, 3.774420022964478
0, 4, 3, 2.485402584075928
0, 4, 4, 8.063546180725098
0, 4, 5, 8.99406623840332
0, 4, 6, 6.681130409240723
0, 4, 7, 4.955243587493896
0, 4, 8, 5.089485645294189
0, 4, 9, 4.633419513702393
0, 4, 10, 4.898396492004395
0, 4, 11, 8.200017929077148
0, 4, 12, 6.98288106918335
0, 4, 13, 9.294161796569824
0, 4, 14, 10.66463756561279
0, 4, 15, 10.46228981018066
0, 4, 16, 13.5829381942749
0, 4, 17, 19.66494369506836
0, 4, 18, 93.80681610107422
0, 4, 19, 225.2668609619141
0, 4, 20, 284.3119506835938
0, 4, 21, 272.10107421875
0, 4, 22, 307.9436950683594
0, 4, 23, 268.2257995605469
0, 4, 24, 290.4741516113281
0, 4, 25, 273.3848266601562
0, 4, 26, 294.3965759277344
0, 4, 27, 283.1315307617188
0, 4, 28, 305.5439758300781
0, 4, 29, 321.6851501464844
0, 4, 30, 311.3155822753906
0, 4, 31, 304.9711303710938
0, 4, 32, 282.1944580078125
0, 4, 33, 295.1881713867188
0, 4, 34, 298.7978820800781
0, 4, 35, 312.4562377929688
0, 4, 36, 293.484619140625
0, 4, 37, 288.7740783691406
0, 4, 38, 298.1614074707031
0, 4, 39, 293.7645568847656
0, 4, 40, 303.03759765625
0, 4, 41, 313.7981567382812
0, 4, 42, 329.0488891601562
0, 4, 43, 296.38330078125
0, 4, 44, 322.3869934082031
0, 4, 45, 323.927734375
0, 4, 46, 306.1614990234375
0, 4, 47, 293.5381164550781
0, 4, 48, 296.1709594726562
0, 4, 49, 277.0034484863281
0, 4, 50, 295.7062683105469
0, 4, 51, 314.8569946289062
0, 4, 52, 329.7406921386719
0, 4, 53, 304.8211669921875
0, 4, 54, 285.9185485839844
0, 4, 55, 313.0299377441406
0, 4, 56, 288.0496215820312
0, 4, 57, 312.3619995117188
0, 4, 58, 296.3797912597656
0, 4, 59, 308.953369140625
0, 4, 60, 303.014892578125
0, 4, 61, 316.8031311035156
0, 4, 62, 306.6444702148438
0, 4, 63, 301.2719421386719
0, 4, 64, 328.6638793945312
0, 4, 65, 316.7477111816406
0, 4, 66, 293.6195678710938
0, 4, 67, 286.0571899414062
0, 4, 68, 313.9177551269531
0, 4, 69, 277.6962585449219
0, 4, 70, 298.6181640625
0, 4, 71, 320.3610229492188
0, 4, 72, 331.809814453125
0, 4, 73, 298.3667297363281
0, 4, 74, 292.3114624023438
0, 4, 75, 288.9036560058594
0, 4, 76, 274.4508056640625
0, 4, 77, 280.855224609375
0, 4, 78, 310.1376342773438
0, 4, 79, 319.1178283691406
0, 4, 80, 318.0209350585938
0, 4, 81, 313.2425231933594
0, 4, 82, 297.4498901367188
0, 4, 83, 299.6622009277344
0, 4, 84, 290.6668701171875
0, 4, 85, 294.5846252441406
0, 4, 86, 299.2081298828125
0, 4, 87, 286.1228332519531
0, 4, 88, 304.3060302734375
0, 4, 89, 294.9811706542969
0, 4, 90, 331.7035827636719
0, 4, 91, 301.9106140136719
0, 4, 92, 291.7500915527344
0, 4, 93, 297.7396545410156
0, 4, 94, 291.1237182617188
0, 4, 95, 289.3653869628906
0, 4, 96, 326.5526733398438
0, 4, 97, 273.7565612792969
0, 4, 98, 326.8447265625
0, 4, 99, 314.0045471191406
0, 4, 100, 302.1806640625
0, 4, 101, 256.4505615234375
0, 4, 102, 298.2068786621094
0, 4, 103, 317.3909301757812
0, 4, 104, 280.4749450683594
0, 4, 105, 310.2147521972656
0, 4, 106, 286.27978515625
0, 4, 107, 294.2482604980469
0, 4, 108, 225.9756774902344
0, 4, 109, 79.97506713867188
0, 4, 110, 16.07799911499023
0, 4, 111, 14.07586002349854
0, 4, 112, 8.598153114318848
0, 4, 113, 9.958895683288574
0, 4, 114, 7.497350692749023
0, 4, 115, 7.67936372756958
0, 4, 116, 8.207473754882812
0, 4, 117, 5.984154224395752
0, 4, 118, 8.781781196594238
0, 4, 119, 8.475513458251953
0, 4, 120, 6.590939044952393
0, 4, 121, 5.457084655761719
0, 4, 122, 4.426990032196045
0, 4, 123, 8.269186019897461
0, 4, 124, 7.225448131561279
0, 4, 125, 11.34370136260986
0, 4, 126, 3.749537944793701
0, 4, 127, 2.473471403121948
0, 5, 0, 3.9238121509552
0, 5, 1, 4.507265090942383
0, 5, 2, 5.684986591339111
0, 5, 3, 3.696560144424438
0, 5, 4, 5.198044300079346
0, 5, 5, 4.358239650726318
0, 5, 6, 7.918037414550781
0, 5, 7, 5.231318473815918
0, 5, 8, 4.714108467102051
0, 5, 9, 4.617820262908936
0, 5, 10, 7.022068977355957
0, 5, 11, 6.918015956878662
0, 5, 12, 10.22852420806885
0, 5, 13, 6.56393575668335
0, 5, 14, 12.82798385620117
0, 5, 15, 15.52873229980469
0, 5, 16, 13.55357074737549
0, 5, 17, 28.21136474609375
0, 5, 18, 135.6370391845703
0, 5, 19, 286.5603942871094
0, 5, 20, 305.7650451660156
0, 5, 21, 316.5253601074219
0, 5, 22, 276.4010314941406
0, 5, 23, 310.2951965332031
0, 5, 24, 303.0013732910156
0, 5, 25, 288.6956787109375
0, 5, 26, 297.5418395996094
0, 5, 27, 322.1130981445312
0, 5, 28, 303.0724487304688
0, 5, 29, 298.5700378417969
0, 5, 30, 324.5360717773438
0, 5, 31, 290.7743225097656
0, 5, 32, 302.7297058105469
0, 5, 33, 303.6838684082031
0, 5, 34, 295.3236389160156
0, 5, 35, 310.35400390625
0, 5, 36, 268.2490234375
0, 5, 37, 285.1578063964844
0, 5, 38, 293.5094909667969
0, 5, 39, 312.2998352050781
0, 5, 40, 310.1060180664062
0, 5, 41, 275.793212890625
0, 5, 42, 305.2565002441406
0, 5, 43, 315.1464233398438
0, 5, 44, 292.9912414550781
0, 5, 45, 303.7013854980469
0, 5, 46, 264.6927185058594
0, 5, 47, 279.7482299804688
0, 5, 48, 294.5595703125
0, 5, 49, 285.4407653808594
0, 5, 50, 293.8650817871094
0, 5, 51, 277.97119140625
0, 5, 52, 269.9440307617188
0, 5, 53, 282.6901550292969
0, 5, 54, 292.156005859375
0, 5, 55, 344.2252502441406
0, 5, 56, 304.9498596191406
0, 5, 57, 306.1349792480469
0, 5, 58, 310.6666564941406
0, 5, 59, 305.8740234375
0, 5, 60, 309.1214294433594
0, 5, 61, 280.3667907714844
0, 5, 62, 324.2207946777344
0, 5, 63, 289.5068664550781
0, 5, 64, 321.4409484863281
0, 5, 65, 305.4697570800781
0, 5, 66, 325.7279968261719
0, 5, 67, 311.1776123046875
0, 5, 68, 308.500244140625
0, 5, 69, 312.7432556152344
0, 5, 70, 301.1481323242188
0, 5, 71, 271.8344421386719
0, 5, 72, 311.6213989257812
0, 5, 73, 304.387451171875
0, 5, 74, 296.0162048339844
0, 5, 75, 294.316650390625
0, 5, 76, 287.4243469238281
0, 5, 77, 300.2940368652344
0, 5, 78, 316.1235046386719
0, 5, 79, 307.9898986816406
0, 5, 80, 294.2726135253906
0, 5, 81, 325.1510620117188
0, 5, 82, 325.0754089355469
0, 5, 83, 281.4303894042969
0, 5, 84, 302.0108032226562
0, 5, 85, 270.56591796875
0, 5, 86, 324.9948425292969
0, 5, 87, 283.3169860839844
0, 5, 88, 313.0693359375
0, 5, 89, 303.2425537109375
0, 5, 90, 317.0668334960938
0, 5, 91, 313.208251953125
0, 5, 92, 296.7920837402344
0, 5, 93, 327.0549926757812
0, 5, 94, 309.0713195800781
0, 5, 95, 296.6565856933594
0, 5, 96, 298.4820556640625
0, 5, 97, 296.2941589355469
0, 5, 98, 321.73388671875
0, 5, 99, 301.67724609375
0, 5, 100, 290.0719909667969
0, 5, 101, 306.8149719238281
0, 5, 102, 292.0494384765625
0, 5, 103, 313.2001647949219
0, 5, 104, 302.8391418457031
0, 5, 105, 292.8290405273438
0, 5, 106, 281.0922546386719
0, 5, 107, 295.5166015625
0, 5, 108, 265.6011962890625
0, 5, 109, 158.527587890625
0, 5, 110, 38.32835388183594
0, 5, 111, 20.01908302307129
0, 5, 112, 16.81296348571777
0, 5, 113, 16.47070693969727
0, 5, 114, 12.63408851623535
0, 5, 115, 7.373392105102539
0, 5, 116, 7.673365116119385
0, 5, 117, 10.28193378448486
0, 5, 118, 11.48760509490967
0, 5, 119, 4.914968013763428
0, 5, 120, 8.359564781188965
0, 5, 121, 6.906720161437988
0, 5, 122, 5.138598442077637
0, 5, 123, 4.221097946166992
0, 5, 124, 5.280647277832031
0, 5, 125, 3.850072145462036
0, 5, 126, 5.362821578979492
0, 5, 127, 3.696048736572266
0, 6, 0, 4.168062686920166
0, 6, 1, 4.299756526947021
0, 6, 2, 4.598148345947266
0, 6, 3, 6.731509685516357
0, 6, 4, 3.227036237716675
0, 6, 5, 6.320691585540771
0, 6, 6, 8.643500328063965
0, 6, 7, 5.570577144622803
0, 6, 8, 8.056327819824219
0, 6, 9, 7.255903244018555
0, 6, 10, 10.20183372497559
0, 6, 11, 10.6204662322998
0, 6, 12, 10.41306972503662
0, 6, 13, 12.0048360824585
0, 6, 14, 8.942532539367676
0, 6, 15, 17.19965934753418
0, 6, 16, 28.24302291870117
0, 6, 17, 53.97870254516602
0, 6, 18, 174.5534210205078
0, 6, 19, 277.2492065429688
0, 6, 20, 291.4024047851562
0, 6, 21, 314.3097229003906
0, 6, 22, 321.5691223144531
0, 6, 23, 305.8729248046875
0, 6, 24, 315.6422119140625
0, 6, 25, 315.7530212402344
0, 6, 26, 318.1605224609375
0, 6, 27, 331.3677368164062
0, 6, 28, 297.5004577636719
0, 6, 29, 329.7464599609375
0, 6, 30, 285.3844909667969
0, 6, 31, 288.4359741210938
0, 6, 32, 341.1456604003906
0, 6, 33, 300.9409790039062
0, 6, 34, 340.004638671875
0, 6, 35, 319.6618347167969
0, 6, 36, 275.66552734375
0, 6, 37, 289.803955078125
0, 6, 38, 311.3859558105469
0, 6, 39, 300.7383422851562
0, 6, 40, 285.0627136230469
0, 6, 41, 297.1199340820312
0, 6, 42, 303.0303039550781
0, 6, 43, 287.6347351074219
0, 6, 44, 279.6134948730469
0, 6, 45, 320.26904296875
0, 6, 46, 303.4406433105469
0, 6, 47, 333.3360595703125
0, 6, 48, 293.3582458496094
0, 6, 49, 313.797119140625
0, 6, 50, 329.0989074707031
0, 6, 51, 310.4351196289062
0, 6, 52, 320.2867736816406
0, 6, 53, 327.0696411132812
0, 6, 54, 303.369384765625
0, 6, 55, 305.2801818847656
0, 6, 56, 292.32373046875
0, 6, 57, 311.8453369140625
0, 6, 58, 261.499755859375
0, 6, 59, 301.5685119628906
0, 6, 60, 312.7566223144531
0, 6, 61, 271.5593872070312
0, 6, 62, 337.6111145019531
0, 6, 63, 324.8169250488281
0, 6, 64, 292.4647216796875
0, 6, 65, 284.1470031738281
0, 6, 66, 306.9076843261719
0, 6, 67, 309.3233032226562
0, 6, 68, 293.5618286132812
0, 6, 69, 279.7963256835938
0, 6, 70, 278.5822448730469
0, 6, 71, 289.5321044921875
0, 6, 72, 311.5400390625
0, 6, 73, 294.4576110839844
0, 6, 74, 331.912109375
0, 6, 75, 343.5838928222656
0, 6, 76, 296.6888732910156
0, 6, 77, 287.6387329101562
0, 6, 78, 277.7942504882812
0, 6, 79, 292.0846862792969
0, 6, 80, 300.7768859863281
0, 6, 81, 314.1492004394531
0, 6, 82, 319.1358642578125
0, 6, 83, 320.69482421875
0, 6, 84, 298.3017883300781
0, 6, 85, 300.6663513183594
0, 6, 86, 330.1748046875
0, 6, 87, 291.4220886230469
0, 6, 88, 305.2518005371094
0, 6, 89, 305.3614501953125
0, 6, 90, 298.8074340820312
0, 6, 91, 312.6448364257812
0, 6, 92, 284.2845458984375
0, 6, 93, 295.7221984863281
0, 6, 94, 271.8190612792969
0, 6, 95, 300.1838684082031
0, 6, 96, 346.5869750976562
0, 6, 97, 307.9206848144531
0, 6, 98, 301.4741821289062
0, 6, 99, 272.5912170410156
0, 6, 100, 308.4404907226562
0, 6, 101, 292.9658508300781
0, 6, 102, 306.1681213378906
0, 6, 103, 308.4933471679688
0, 6, 104, 291.3543395996094
0, 6, 105, 299.5809631347656
0, 6, 106, 307.0218505859375
0, 6, 107, 304.7048950195312
0, 6, 108, 266.266845703125
0, 6, 109, 189.1455230712891
0, 6, 110, 54.54223251342773
0, 6, 111, 22.2076587677002
0, 6, 112, 13.77963352203369
0, 6, 113, 9.798766136169434
0, 6, 114, 12.42143154144287
0, 6, 115, 11.89420604705811
0, 6, 116, 8.14207935333252
0, 6, 117, 8.372661590576172
0, 6, 118, 8.902536392211914
0, 6, 119, 7.356444835662842
0, 6, 120, 5.47266674041748
0, 6, 121, 5.82886791229248
0, 6, 122, 8.742770195007324
0, 6, 123, 5.233846187591553
0, 6, 124, 8.03791618347168
0, 6, 125, 8.897891998291016
0, 6, 126, 3.466391563415527
0, 6, 127, 5.812113285064697
0, 7, 0, 7.383869171142578
0, 7, 1, 5.413161277770996
0, 7, 2, 6.329738616943359
0, 7, 3, 2.35800576210022
0, 7, 4, 2.622591733932495
0, 7, 5, 5.472411155700684
0, 7, 6, 4.426066875457764
0, 7, 7, 4.412289619445801
0, 7, 8, 4.79498291015625
0, 7, 9, 5.747369766235352
0, 7, 10, 7.148176193237305
0, 7, 11, 11.51408195495605
0, 7, 12, 9.844601631164551
0, 7, 13, 12.00474071502686
0, 7, 14, 9.71270751953125
0, 7, 15, 16.52054214477539
0, 7, 16, 25.81983757019043
0, 7, 17, 98.58309173583984
0, 7, 18, 218.8670501708984
0, 7, 19, 291.9075012207031
0, 7, 20, 298.4670104980469
0, 7, 21, 276.9418334960938
0, 7, 22, 300.145751953125
0, 7, 23, 288.3875427246094
0, 7, 24, 313.1595764160156
0, 7, 25, 323.9254150390625
0, 7, 26, 278.436767578125
0, 7, 27, 297.1520080566406
0, 7, 28, 326.748046875
0, 7, 29, 318.5550842285156
0, 7, 30, 301.8887939453125
0, 7, 31, 277.9295959472656
0, 7, 32, 303.8717956542969
0, 7, 33, 264.4495849609375
0, 7, 34, 296.798828125
0, 7, 35, 320.1380920410156
0, 7, 36, 332.7594299316406
0, 7, 37, 322.6564331054688
0, 7, 38, 294.7011413574219
0, 7, 39, 304.5603637695312
0, 7, 40, 290.697021484375
0, 7, 41, 269.8067626953125
0, 7, 42, 299.9176330566406
0, 7, 43, 275.6554565429688
0, 7, 44, 304.3153686523438
0, 7, 45, 294.0272827148438
0, 7, 46, 281.672607421875
0, 7, 47, 327.9818725585938
0, 7, 48, 283.64208984375
0, 7, 49, 303.7195129394531
0, 7, 50, 323.3930053710938
0, 7, 51, 299.9827575683594
0, 7, 52, 326.6923828125
0, 7, 53, 313.6631164550781
0, 7, 54, 323.9336242675781
0, 7, 55, 307.0714416503906
0, 7, 56, 279.8428344726562
0, 7, 57, 281.1406555175781
0, 7, 58, 295.5025329589844
0, 7, 59, 293.6473999023438
0, 7, 60, 322.5589294433594
0, 7, 61, 276.7973327636719
0, 7, 62, 297.8523254394531
0, 7, 63, 292.5067443847656
0, 7, 64, 308.2218933105469
0, 7, 65, 331.186767578125
0, 7, 66, 317.9129943847656
0, 7, 67, 300.7569885253906
0, 7, 68, 280.9869995117188
0, 7, 69, 295.2117614746094
0, 7, 70, 301.1695556640625
0, 7, 71, 308.4790344238281
0, 7, 72, 284.9053955078125
0, 7, 73, 294.6008605957031
0, 7, 74, 343.9438781738281
0, 7, 75, 320.0416870117188
0, 7, 76, 323.6156311035156
0, 7, 77, 279.7003784179688
0, 7, 78, 301.0877685546875
0, 7, 79, 297.8351745605469
0, 7, 80, 311.5020141601562
0, 7, 81, 319.3912963867188
0, 7, 82, 329.2989807128906
0, 7, 83, 316.2095031738281
0, 7, 84, 309.1273193359375
0, 7, 85, 271.254150390625
0, 7, 86, 310.0234985351562
0, 7, 87, 311.4100952148438
0, 7, 88, 308.8959655761719
0, 7, 89, 293.6031188964844
0, 7, 90, 306.98779296875
0, 7, 91, 316.5212707519531
0, 7, 92, 288.132568359375
0, 7, 93, 305.7830505371094
0, 7, 94, 273.4239807128906
0, 7, 95, 296.1833801269531
0, 7, 96, 331.4870300292969
0, 7, 97, 297.4393615722656
0, 7, 98, 292.0400695800781
0, 7, 99, 310.8123474121094
0, 7, 100, 283.0413208007812
0, 7, 101, 276.2347717285156
0, 7, 102, 289.9568786621094
0, 7, 103, 291.8475036621094
0, 7, 104, 272.6417236328125
0, 7, 105, 307.1674499511719
0, 7, 106, 319.47802734375
0, 7, 107, 296.0376892089844
0, 7, 108, 273.4449768066406
0, 7, 109, 237.8462371826172
0, 7, 110, 97.83812713623047
0, 7, 111, 23.41703987121582
0, 7, 112, 15.07834053039551
0, 7, 113, 12.91458320617676
0, 7, 114, 12.175368309021
0, 7, 115, 13.81221294403076
0, 7, 116, 8.771913528442383
0, 7, 117, 5.065098285675049
0, 7, 118, 6.687319755554199
0, 7, 119, 5.488677501678467
0, 7, 120, 3.942333936691284
0, 7, 121, 5.452547550201416
0, 7, 122, 7.143035411834717
0, 7, 123, 4.691787719726562
0, 7, 124, 2.888554811477661
0, 7, 125, 6.367858409881592
0, 7, 126, 11.61853885650635
0, 7, 127, 6.243913173675537
0, 8, 0, 4.766012191772461
0, 8, 1, 3.626367568969727
0, 8, 2, 4.871210098266602
0, 8, 3, 1.87838339805603
0, 8, 4, 5.561429977416992
0, 8, 5, 4.896710872650146
0, 8, 6, 4.931024074554443
0, 8, 7, 5.730521202087402
0, 8, 8, 8.432015419006348
0, 8, 9, 4.903884410858154
0, 8, 10, 6.06795072555542
0, 8, 11, 13.4658145904541
0, 8, 12, 14.12057495117188
0, 8, 13, 15.96388721466064
0, 8, 14, 12.48358631134033
0, 8, 15, 16.90674018859863
0, 8, 16, 33.20907974243164
0, 8, 17, 131.1204223632812
0, 8, 18, 243.8246002197266
0, 8, 19, 295.9866333007812
0, 8, 20, 284.5093078613281
0, 8, 21, 307.5146484375
0, 8, 22, 294.7628784179688
0, 8, 23, 275.6406555175781
0, 8, 24, 268.6371459960938
0, 8, 25, 276.3307189941406
0, 8, 26, 305.717529296875
0, 8, 27, 306.2809448242188
0, 8, 28, 304.0018920898438
0, 8, 29, 319.0384216308594
0, 8, 30, 313.4224548339844
0, 8, 31, 303.7218322753906
0, 8, 32, 281.5846862792969
0, 8, 33, 294.1303405761719
0, 8, 34, 287.9678955078125
0, 8, 35, 280.4880981445312
0, 8, 36, 315.1015319824219
0, 8, 37, 342.0299377441406
0, 8, 38, 330.7128295898438
0, 8, 39, 281.9543762207031
0, 8, 40, 306.4416198730469
