# TOPAS Version: 3.1.p3
# Parameter File: batch_inserts_170.txt
# Results for scorer Readout_Adipose
# Scored in component: MyBox
# X in 1 bin  of 0.75 cm
# Y in 512 bins of 0.0783984 cm
# Z in 128 bins of 0.078125 cm
# EnergyDeposit ( MeV ) : Sum   
0, 0, 0, 4.651212215423584
0, 0, 1, 2.73632025718689
0, 0, 2, 4.274551868438721
0, 0, 3, 1.220249772071838
0, 0, 4, 2.597593545913696
0, 0, 5, 2.655412435531616
0, 0, 6, 9.263861656188965
0, 0, 7, 9.564425468444824
0, 0, 8, 2.105637311935425
0, 0, 9, 4.30497407913208
0, 0, 10, 6.955496311187744
0, 0, 11, 4.561173439025879
0, 0, 12, 4.342144012451172
0, 0, 13, 5.770674228668213
0, 0, 14, 7.520966053009033
0, 0, 15, 8.411311149597168
0, 0, 16, 8.279168128967285
0, 0, 17, 8.754526138305664
0, 0, 18, 13.06154155731201
0, 0, 19, 42.70304107666016
0, 0, 20, 139.7683715820312
0, 0, 21, 223.1664733886719
0, 0, 22, 247.9463806152344
0, 0, 23, 256.7224426269531
0, 0, 24, 251.1399841308594
0, 0, 25, 259.4300537109375
0, 0, 26, 235.3877716064453
0, 0, 27, 237.4696807861328
0, 0, 28, 272.6944885253906
0, 0, 29, 253.6797027587891
0, 0, 30, 228.6758728027344
0, 0, 31, 243.0016784667969
0, 0, 32, 263.4071655273438
0, 0, 33, 260.9166870117188
0, 0, 34, 288.3940734863281
0, 0, 35, 268.0814208984375
0, 0, 36, 247.7648773193359
0, 0, 37, 252.5421447753906
0, 0, 38, 268.8456115722656
0, 0, 39, 230.3931732177734
0, 0, 40, 241.8732299804688
0, 0, 41, 265.4543151855469
0, 0, 42, 228.3775634765625
0, 0, 43, 261.2168579101562
0, 0, 44, 252.1123809814453
0, 0, 45, 253.8948364257812
0, 0, 46, 243.7250671386719
0, 0, 47, 253.1112518310547
0, 0, 48, 266.93115234375
0, 0, 49, 273.1774291992188
0, 0, 50, 250.9098052978516
0, 0, 51, 254.0183868408203
0, 0, 52, 274.4669799804688
0, 0, 53, 292.4164733886719
0, 0, 54, 242.5909271240234
0, 0, 55, 239.4661712646484
0, 0, 56, 276.7417602539062
0, 0, 57, 263.8511962890625
0, 0, 58, 247.2896118164062
0, 0, 59, 269.8772277832031
0, 0, 60, 235.4330139160156
0, 0, 61, 244.3648223876953
0, 0, 62, 258.2727661132812
0, 0, 63, 266.2135314941406
0, 0, 64, 254.7342529296875
0, 0, 65, 260.59521484375
0, 0, 66, 277.0723876953125
0, 0, 67, 249.7077941894531
0, 0, 68, 258.4507446289062
0, 0, 69, 261.5704040527344
0, 0, 70, 271.5696105957031
0, 0, 71, 238.1074829101562
0, 0, 72, 249.8707275390625
0, 0, 73, 259.140869140625
0, 0, 74, 251.0035247802734
0, 0, 75, 241.047607421875
0, 0, 76, 229.4493865966797
0, 0, 77, 259.4713745117188
0, 0, 78, 257.4902648925781
0, 0, 79, 279.8632507324219
0, 0, 80, 214.7403411865234
0, 0, 81, 267.3841857910156
0, 0, 82, 256.6630249023438
0, 0, 83, 246.1666107177734
0, 0, 84, 270.4381713867188
0, 0, 85, 232.5277862548828
0, 0, 86, 254.4563293457031
0, 0, 87, 252.2887420654297
0, 0, 88, 259.1346435546875
0, 0, 89, 282.7646484375
0, 0, 90, 242.6961517333984
0, 0, 91, 282.4637451171875
0, 0, 92, 252.0155181884766
0, 0, 93, 251.0700225830078
0, 0, 94, 251.0558471679688
0, 0, 95, 247.7116394042969
0, 0, 96, 275.0505676269531
0, 0, 97, 273.4679870605469
0, 0, 98, 274.3551635742188
0, 0, 99, 258.2651062011719
0, 0, 100, 257.2347412109375
0, 0, 101, 226.7857360839844
0, 0, 102, 232.1219329833984
0, 0, 103, 268.9744567871094
0, 0, 104, 254.3254547119141
0, 0, 105, 252.8959350585938
0, 0, 106, 245.480712890625
0, 0, 107, 151.552001953125
0, 0, 108, 37.50616455078125
0, 0, 109, 11.72269058227539
0, 0, 110, 12.52278137207031
0, 0, 111, 7.879063606262207
0, 0, 112, 6.61924409866333
0, 0, 113, 5.916519641876221
0, 0, 114, 6.369222164154053
0, 0, 115, 4.488278388977051
0, 0, 116, 4.938211917877197
0, 0, 117, 5.358958721160889
0, 0, 118, 6.255286693572998
0, 0, 119, 3.937192440032959
0, 0, 120, 6.676300525665283
0, 0, 121, 3.470282077789307
0, 0, 122, 3.252044677734375
0, 0, 123, 3.34548807144165
0, 0, 124, 4.735561370849609
0, 0, 125, 2.55393123626709
0, 0, 126, 6.387943267822266
0, 0, 127, 4.324252605438232
0, 1, 0, 6.783722400665283
0, 1, 1, 3.627285718917847
0, 1, 2, 4.791710376739502
0, 1, 3, 3.036730051040649
0, 1, 4, 2.309462547302246
0, 1, 5, 5.157618522644043
0, 1, 6, 7.163615703582764
0, 1, 7, 5.597697734832764
0, 1, 8, 7.880996227264404
0, 1, 9, 4.950169563293457
0, 1, 10, 6.405354976654053
0, 1, 11, 12.14476585388184
0, 1, 12, 7.514159679412842
0, 1, 13, 9.084291458129883
0, 1, 14, 6.957374572753906
0, 1, 15, 7.139959812164307
0, 1, 16, 11.37630367279053
0, 1, 17, 10.08434009552002
0, 1, 18, 21.24250793457031
0, 1, 19, 65.6942138671875
0, 1, 20, 200.5896911621094
0, 1, 21, 255.3898773193359
0, 1, 22, 297.721435546875
0, 1, 23, 283.109619140625
0, 1, 24, 276.0042724609375
0, 1, 25, 289.5159301757812
0, 1, 26, 269.5551147460938
0, 1, 27, 306.1640625
0, 1, 28, 299.9007263183594
0, 1, 29, 294.9855651855469
0, 1, 30, 282.7896728515625
0, 1, 31, 290.3182678222656
0, 1, 32, 290.95166015625
0, 1, 33, 294.6978454589844
0, 1, 34, 292.3276672363281
0, 1, 35, 277.4351501464844
0, 1, 36, 307.4732360839844
0, 1, 37, 294.3570861816406
0, 1, 38, 281.6104125976562
0, 1, 39, 295.6199645996094
0, 1, 40, 264.7315673828125
0, 1, 41, 286.8631591796875
0, 1, 42, 290.134765625
0, 1, 43, 332.2386779785156
0, 1, 44, 278.5105590820312
0, 1, 45, 292.6968383789062
0, 1, 46, 260.9584350585938
0, 1, 47, 309.8029479980469
0, 1, 48, 285.0909118652344
0, 1, 49, 304.4655151367188
0, 1, 50, 265.0441589355469
0, 1, 51, 275.8371276855469
0, 1, 52, 296.2374267578125
0, 1, 53, 304.7462463378906
0, 1, 54, 274.8800964355469
0, 1, 55, 295.7955627441406
0, 1, 56, 281.6809692382812
0, 1, 57, 299.0863342285156
0, 1, 58, 309.1099243164062
0, 1, 59, 293.1064758300781
0, 1, 60, 299.1657104492188
0, 1, 61, 274.7218933105469
0, 1, 62, 309.7803649902344
0, 1, 63, 286.4761962890625
0, 1, 64, 288.8676452636719
0, 1, 65, 295.7068786621094
0, 1, 66, 291.9224853515625
0, 1, 67, 290.6304321289062
0, 1, 68, 277.7943420410156
0, 1, 69, 281.7298583984375
0, 1, 70, 272.1043090820312
0, 1, 71, 273.5105285644531
0, 1, 72, 287.2700805664062
0, 1, 73, 303.0146789550781
0, 1, 74, 305.5966186523438
0, 1, 75, 295.4520874023438
0, 1, 76, 286.8822326660156
0, 1, 77, 289.2218933105469
0, 1, 78, 296.2485046386719
0, 1, 79, 299.9138488769531
0, 1, 80, 298.3908386230469
0, 1, 81, 302.47412109375
0, 1, 82, 282.0311889648438
0, 1, 83, 333.2593994140625
0, 1, 84, 309.7814331054688
0, 1, 85, 253.5096893310547
0, 1, 86, 293.9286193847656
0, 1, 87, 289.2926635742188
0, 1, 88, 298.3975830078125
0, 1, 89, 291.9638061523438
0, 1, 90, 270.9344787597656
0, 1, 91, 316.4012756347656
0, 1, 92, 290.1143798828125
0, 1, 93, 285.4771728515625
0, 1, 94, 302.9082336425781
0, 1, 95, 283.9983520507812
0, 1, 96, 283.5494689941406
0, 1, 97, 302.7646789550781
0, 1, 98, 278.2403564453125
0, 1, 99, 267.0712585449219
0, 1, 100, 278.3390502929688
0, 1, 101, 282.0855712890625
0, 1, 102, 278.8210144042969
0, 1, 103, 281.1810913085938
0, 1, 104, 305.39794921875
0, 1, 105, 297.2794799804688
0, 1, 106, 260.6053161621094
0, 1, 107, 191.5400238037109
0, 1, 108, 80.77599334716797
0, 1, 109, 22.95672988891602
0, 1, 110, 11.5814790725708
0, 1, 111, 9.010598182678223
0, 1, 112, 12.32934951782227
0, 1, 113, 8.014975547790527
0, 1, 114, 5.864294528961182
0, 1, 115, 7.107556343078613
0, 1, 116, 12.33673286437988
0, 1, 117, 6.845617771148682
0, 1, 118, 6.251686573028564
0, 1, 119, 4.334322929382324
0, 1, 120, 3.389760255813599
0, 1, 121, 2.399576187133789
0, 1, 122, 3.592061758041382
0, 1, 123, 4.060946464538574
0, 1, 124, 8.027302742004395
0, 1, 125, 4.218474864959717
0, 1, 126, 2.055899858474731
0, 1, 127, 1.721740961074829
0, 2, 0, 3.606954336166382
0, 2, 1, 1.417592525482178
0, 2, 2, 3.521925449371338
0, 2, 3, 4.246426105499268
0, 2, 4, 2.157063722610474
0, 2, 5, 1.57651948928833
0, 2, 6, 2.113977909088135
0, 2, 7, 4.459129333496094
0, 2, 8, 4.07845401763916
0, 2, 9, 5.893520832061768
0, 2, 10, 8.45423698425293
0, 2, 11, 7.771146297454834
0, 2, 12, 7.361924648284912
0, 2, 13, 9.58575439453125
0, 2, 14, 10.19461441040039
0, 2, 15, 7.619837760925293
0, 2, 16, 8.487982749938965
0, 2, 17, 16.65011405944824
0, 2, 18, 29.97334671020508
0, 2, 19, 114.4496002197266
0, 2, 20, 246.2071533203125
0, 2, 21, 272.5377197265625
0, 2, 22, 315.1968078613281
0, 2, 23, 300.5340270996094
0, 2, 24, 286.0668334960938
0, 2, 25, 302.5655517578125
0, 2, 26, 294.7169799804688
0, 2, 27, 274.8658752441406
0, 2, 28, 272.2325134277344
0, 2, 29, 274.1099243164062
0, 2, 30, 288.2444458007812
0, 2, 31, 277.8921508789062
0, 2, 32, 295.1793823242188
0, 2, 33, 281.662109375
0, 2, 34, 333.48193359375
0, 2, 35, 290.3301696777344
0, 2, 36, 303.5253601074219
0, 2, 37, 315.9036865234375
0, 2, 38, 310.6385498046875
0, 2, 39, 266.8498840332031
0, 2, 40, 308.9608154296875
0, 2, 41, 291.4301147460938
0, 2, 42, 303.3092956542969
0, 2, 43, 313.7232055664062
0, 2, 44, 311.5616455078125
0, 2, 45, 326.2134399414062
0, 2, 46, 288.1054077148438
0, 2, 47, 303.4723205566406
0, 2, 48, 281.912109375
0, 2, 49, 278.9152526855469
0, 2, 50, 293.9977722167969
0, 2, 51, 284.2378845214844
0, 2, 52, 272.3966369628906
0, 2, 53, 286.0986633300781
0, 2, 54, 279.1827392578125
0, 2, 55, 276.758544921875
0, 2, 56, 301.2376098632812
0, 2, 57, 291.8563842773438
0, 2, 58, 304.2808227539062
0, 2, 59, 290.3139953613281
0, 2, 60, 318.2808227539062
0, 2, 61, 301.6744384765625
0, 2, 62, 314.4754943847656
0, 2, 63, 306.6947631835938
0, 2, 64, 294.9660949707031
0, 2, 65, 313.5146484375
0, 2, 66, 278.7218017578125
0, 2, 67, 290.6455688476562
0, 2, 68, 296.3324890136719
0, 2, 69, 310.2181701660156
0, 2, 70, 334.3814086914062
0, 2, 71, 287.3774719238281
0, 2, 72, 302.1551513671875
0, 2, 73, 311.0975341796875
0, 2, 74, 286.5695190429688
0, 2, 75, 307.1569519042969
0, 2, 76, 287.6065368652344
0, 2, 77, 298.812255859375
0, 2, 78, 316.0868530273438
0, 2, 79, 307.8467407226562
0, 2, 80, 295.9544067382812
0, 2, 81, 281.1760864257812
0, 2, 82, 319.9027709960938
0, 2, 83, 313.1367797851562
0, 2, 84, 287.6685485839844
0, 2, 85, 283.4984741210938
0, 2, 86, 324.9453430175781
0, 2, 87, 287.1494750976562
0, 2, 88, 279.8061828613281
0, 2, 89, 296.5612487792969
0, 2, 90, 294.7129516601562
0, 2, 91, 274.458740234375
0, 2, 92, 305.5439147949219
0, 2, 93, 316.7475280761719
0, 2, 94, 292.5595092773438
0, 2, 95, 315.1807556152344
0, 2, 96, 314.445556640625
0, 2, 97, 290.4906005859375
0, 2, 98, 294.2900390625
0, 2, 99, 273.2413940429688
0, 2, 100, 307.1873779296875
0, 2, 101, 302.0499267578125
0, 2, 102, 296.60302734375
0, 2, 103, 292.4996032714844
0, 2, 104, 292.6551818847656
0, 2, 105, 274.7106323242188
0, 2, 106, 296.9483337402344
0, 2, 107, 271.9778137207031
0, 2, 108, 116.2485580444336
0, 2, 109, 32.46293640136719
0, 2, 110, 9.943840026855469
0, 2, 111, 12.10686302185059
0, 2, 112, 8.805273056030273
0, 2, 113, 10.01631736755371
0, 2, 114, 9.011777877807617
0, 2, 115, 10.3773889541626
0, 2, 116, 7.255514621734619
0, 2, 117, 10.07044506072998
0, 2, 118, 2.173188447952271
0, 2, 119, 3.156261920928955
0, 2, 120, 6.934213638305664
0, 2, 121, 3.724881172180176
0, 2, 122, 3.947615385055542
0, 2, 123, 5.310847759246826
0, 2, 124, 2.625626564025879
0, 2, 125, 7.462639331817627
0, 2, 126, 2.996849060058594
0, 2, 127, 5.416363716125488
0, 3, 0, 4.393795490264893
0, 3, 1, 3.954467296600342
0, 3, 2, 4.889831066131592
0, 3, 3, 1.639511823654175
0, 3, 4, 4.906209468841553
0, 3, 5, 7.076755046844482
0, 3, 6, 6.911838531494141
0, 3, 7, 5.27186918258667
0, 3, 8, 5.181378364562988
0, 3, 9, 7.574670791625977
0, 3, 10, 7.292759895324707
0, 3, 11, 7.815530776977539
0, 3, 12, 7.982218265533447
0, 3, 13, 14.87528610229492
0, 3, 14, 12.30023670196533
0, 3, 15, 12.99983310699463
0, 3, 16, 12.72312831878662
0, 3, 17, 21.70934677124023
0, 3, 18, 53.31695556640625
0, 3, 19, 176.2109222412109
0, 3, 20, 269.5439758300781
0, 3, 21, 269.9170227050781
0, 3, 22, 285.1577758789062
0, 3, 23, 286.7109375
0, 3, 24, 287.3244323730469
0, 3, 25, 268.9072265625
0, 3, 26, 304.3307800292969
0, 3, 27, 293.1351013183594
0, 3, 28, 281.224609375
0, 3, 29, 338.8372802734375
0, 3, 30, 316.1895446777344
0, 3, 31, 286.1768493652344
0, 3, 32, 306.5317993164062
0, 3, 33, 313.6955871582031
0, 3, 34, 321.7997131347656
0, 3, 35, 305.3208923339844
0, 3, 36, 270.0231628417969
0, 3, 37, 312.1176147460938
0, 3, 38, 305.0997924804688
0, 3, 39, 290.1592712402344
0, 3, 40, 269.2264709472656
0, 3, 41, 303.3182373046875
0, 3, 42, 285.1929016113281
0, 3, 43, 307.7346496582031
0, 3, 44, 311.1163635253906
0, 3, 45, 290.2008666992188
0, 3, 46, 329.6640930175781
0, 3, 47, 299.0371398925781
0, 3, 48, 303.409912109375
0, 3, 49, 278.2411499023438
0, 3, 50, 291.3075561523438
0, 3, 51, 275.1902160644531
0, 3, 52, 314.4776611328125
0, 3, 53, 286.4335021972656
0, 3, 54, 284.4641418457031
0, 3, 55, 286.5953674316406
0, 3, 56, 297.7677001953125
0, 3, 57, 288.3661499023438
0, 3, 58, 310.09716796875
0, 3, 59, 295.8225402832031
0, 3, 60, 297.0821228027344
0, 3, 61, 265.7435607910156
0, 3, 62, 284.6800231933594
0, 3, 63, 308.5447998046875
0, 3, 64, 315.1643676757812
0, 3, 65, 305.0803527832031
0, 3, 66, 314.5653076171875
0, 3, 67, 318.5862731933594
0, 3, 68, 279.1372375488281
0, 3, 69, 284.9714965820312
0, 3, 70, 289.5162658691406
0, 3, 71, 298.7604064941406
0, 3, 72, 269.3434753417969
0, 3, 73, 307.1728515625
0, 3, 74, 291.46875
0, 3, 75, 289.5402221679688
0, 3, 76, 305.536376953125
0, 3, 77, 313.7940979003906
0, 3, 78, 303.4638671875
0, 3, 79, 281.782958984375
0, 3, 80, 291.1876831054688
0, 3, 81, 311.6383056640625
0, 3, 82, 315.9281921386719
0, 3, 83, 299.9759521484375
0, 3, 84, 310.8053283691406
0, 3, 85, 292.7090148925781
0, 3, 86, 302.124267578125
0, 3, 87, 299.2582092285156
0, 3, 88, 299.4638366699219
0, 3, 89, 295.2960510253906
0, 3, 90, 276.6555786132812
0, 3, 91, 286.5113525390625
0, 3, 92, 304.0603332519531
0, 3, 93, 313.0978698730469
0, 3, 94, 296.3980712890625
0, 3, 95, 334.4523010253906
0, 3, 96, 291.5202941894531
0, 3, 97, 285.8921508789062
0, 3, 98, 277.3604431152344
0, 3, 99, 260.64208984375
0, 3, 100, 283.1661682128906
0, 3, 101, 298.9878845214844
0, 3, 102, 275.0132446289062
0, 3, 103, 322.4377746582031
0, 3, 104, 308.6851806640625
0, 3, 105, 287.3392028808594
0, 3, 106, 302.1358337402344
0, 3, 107, 283.7287292480469
0, 3, 108, 166.6814270019531
0, 3, 109, 55.66127014160156
0, 3, 110, 18.10683631896973
0, 3, 111, 13.68439960479736
0, 3, 112, 11.99077415466309
0, 3, 113, 7.657151222229004
0, 3, 114, 8.363204956054688
0, 3, 115, 6.195010662078857
0, 3, 116, 8.59852123260498
0, 3, 117, 8.830795288085938
0, 3, 118, 7.823547840118408
0, 3, 119, 6.114882469177246
0, 3, 120, 8.451559066772461
0, 3, 121, 2.468546152114868
0, 3, 122, 3.467962741851807
0, 3, 123, 4.968997478485107
0, 3, 124, 7.362649917602539
0, 3, 125, 5.618378162384033
0, 3, 126, 6.771755695343018
0, 3, 127, 2.816916227340698
0, 4, 0, 2.68324875831604
0, 4, 1, 6.044891834259033
0, 4, 2, 4.366280078887939
0, 4, 3, 1.596677184104919
0, 4, 4, 6.009199619293213
0, 4, 5, 7.844925880432129
0, 4, 6, 6.05019474029541
0, 4, 7, 5.987207412719727
0, 4, 8, 4.08909273147583
0, 4, 9, 5.488706588745117
0, 4, 10, 9.220341682434082
0, 4, 11, 7.810314178466797
0, 4, 12, 6.772482395172119
0, 4, 13, 7.974580764770508
0, 4, 14, 10.17875862121582
0, 4, 15, 9.511043548583984
0, 4, 16, 15.88407707214355
0, 4, 17, 19.05057907104492
0, 4, 18, 92.91094207763672
0, 4, 19, 223.1630554199219
0, 4, 20, 285.3721923828125
0, 4, 21, 270.9775695800781
0, 4, 22, 306.0568237304688
0, 4, 23, 268.0562438964844
0, 4, 24, 288.4620056152344
0, 4, 25, 271.8815002441406
0, 4, 26, 293.9676818847656
0, 4, 27, 282.2060852050781
0, 4, 28, 306.5289916992188
0, 4, 29, 323.2371826171875
0, 4, 30, 308.90576171875
0, 4, 31, 304.6747741699219
0, 4, 32, 282.90771484375
0, 4, 33, 295.8500061035156
0, 4, 34, 296.2453002929688
0, 4, 35, 311.9823913574219
0, 4, 36, 292.9985046386719
0, 4, 37, 289.0305480957031
0, 4, 38, 298.304931640625
0, 4, 39, 293.7114868164062
0, 4, 40, 302.4043884277344
0, 4, 41, 312.18798828125
0, 4, 42, 329.4964904785156
0, 4, 43, 295.3655090332031
0, 4, 44, 321.5392150878906
0, 4, 45, 322.7918090820312
0, 4, 46, 305.4630737304688
0, 4, 47, 293.7647094726562
0, 4, 48, 295.0522766113281
0, 4, 49, 277.15478515625
0, 4, 50, 298.567138671875
0, 4, 51, 316.6835632324219
0, 4, 52, 328.4478149414062
0, 4, 53, 303.2067260742188
0, 4, 54, 289.7862854003906
0, 4, 55, 314.1993408203125
0, 4, 56, 284.72802734375
0, 4, 57, 310.4772338867188
0, 4, 58, 294.0819396972656
0, 4, 59, 308.0514831542969
0, 4, 60, 301.1632690429688
0, 4, 61, 315.9219970703125
0, 4, 62, 308.4712524414062
0, 4, 63, 301.1748962402344
0, 4, 64, 329.4012451171875
0, 4, 65, 315.4995422363281
0, 4, 66, 292.8746337890625
0, 4, 67, 286.0557861328125
0, 4, 68, 311.3421936035156
0, 4, 69, 276.1077575683594
0, 4, 70, 302.0503540039062
0, 4, 71, 321.8803100585938
0, 4, 72, 331.9459228515625
0, 4, 73, 299.6137084960938
0, 4, 74, 291.9001770019531
0, 4, 75, 290.1317443847656
0, 4, 76, 274.7374267578125
0, 4, 77, 278.9029846191406
0, 4, 78, 309.7543334960938
0, 4, 79, 318.3359375
0, 4, 80, 315.9851989746094
0, 4, 81, 314.9511108398438
0, 4, 82, 297.3038024902344
0, 4, 83, 302.884521484375
0, 4, 84, 291.7223510742188
0, 4, 85, 294.9299926757812
0, 4, 86, 295.88623046875
0, 4, 87, 286.1277465820312
0, 4, 88, 304.7416381835938
0, 4, 89, 295.031005859375
0, 4, 90, 333.5818481445312
0, 4, 91, 301.1267700195312
0, 4, 92, 290.5704345703125
0, 4, 93, 297.7677612304688
0, 4, 94, 293.2338562011719
0, 4, 95, 289.4351806640625
0, 4, 96, 327.8149108886719
0, 4, 97, 273.6852416992188
0, 4, 98, 326.8538513183594
0, 4, 99, 316.0940856933594
0, 4, 100, 301.7487487792969
0, 4, 101, 256.6560363769531
0, 4, 102, 298.3638916015625
0, 4, 103, 317.0945129394531
0, 4, 104, 283.2920227050781
0, 4, 105, 309.5513610839844
0, 4, 106, 288.0156860351562
0, 4, 107, 297.4932556152344
0, 4, 108, 225.1500549316406
0, 4, 109, 80.49903106689453
0, 4, 110, 16.6731071472168
0, 4, 111, 13.54869270324707
0, 4, 112, 8.929349899291992
0, 4, 113, 12.84119987487793
0, 4, 114, 10.80283260345459
0, 4, 115, 11.1555061340332
0, 4, 116, 7.37502384185791
0, 4, 117, 5.517345428466797
0, 4, 118, 9.340847969055176
0, 4, 119, 11.80964851379395
0, 4, 120, 6.606139659881592
0, 4, 121, 6.177367687225342
0, 4, 122, 4.38634204864502
0, 4, 123, 6.101511001586914
0, 4, 124, 5.502239227294922
0, 4, 125, 7.819872379302979
0, 4, 126, 4.189780235290527
0, 4, 127, 3.588095426559448
0, 5, 0, 4.480884075164795
0, 5, 1, 3.509875535964966
0, 5, 2, 5.06035327911377
0, 5, 3, 3.761564970016479
0, 5, 4, 4.613286018371582
0, 5, 5, 9.540769577026367
0, 5, 6, 6.13572883605957
0, 5, 7, 3.975182056427002
0, 5, 8, 4.636201858520508
0, 5, 9, 5.974290370941162
0, 5, 10, 8.346279144287109
0, 5, 11, 10.83702754974365
0, 5, 12, 7.590597152709961
0, 5, 13, 4.918695449829102
0, 5, 14, 12.09641170501709
0, 5, 15, 17.40904426574707
0, 5, 16, 14.14495754241943
0, 5, 17, 28.92174530029297
0, 5, 18, 135.5471649169922
0, 5, 19, 287.1426391601562
0, 5, 20, 308.5635986328125
0, 5, 21, 317.3027954101562
0, 5, 22, 275.94482421875
0, 5, 23, 312.5143737792969
0, 5, 24, 302.4373168945312
0, 5, 25, 289.1626586914062
0, 5, 26, 294.0643920898438
0, 5, 27, 322.8490600585938
0, 5, 28, 303.0516052246094
0, 5, 29, 297.4696960449219
0, 5, 30, 323.7888793945312
0, 5, 31, 285.3511962890625
0, 5, 32, 304.4356384277344
0, 5, 33, 305.76220703125
0, 5, 34, 297.0340270996094
0, 5, 35, 310.4719543457031
0, 5, 36, 272.8944396972656
0, 5, 37, 284.4331970214844
0, 5, 38, 291.1963195800781
0, 5, 39, 312.3678283691406
0, 5, 40, 308.2525939941406
0, 5, 41, 272.3707275390625
0, 5, 42, 305.1179809570312
0, 5, 43, 312.7271118164062
0, 5, 44, 292.126953125
0, 5, 45, 302.6136474609375
0, 5, 46, 265.7031555175781
0, 5, 47, 279.9132385253906
0, 5, 48, 295.0069885253906
0, 5, 49, 285.4678649902344
0, 5, 50, 295.4925842285156
0, 5, 51, 278.8371887207031
0, 5, 52, 269.5377197265625
0, 5, 53, 287.3543090820312
0, 5, 54, 291.4588623046875
0, 5, 55, 345.4485168457031
0, 5, 56, 305.4571838378906
0, 5, 57, 304.8575744628906
0, 5, 58, 312.4812316894531
0, 5, 59, 301.3044738769531
0, 5, 60, 308.2611999511719
0, 5, 61, 281.8805847167969
0, 5, 62, 324.9718933105469
0, 5, 63, 290.0743103027344
0, 5, 64, 322.80712890625
0, 5, 65, 306.34423828125
0, 5, 66, 326.803955078125
0, 5, 67, 311.4656982421875
0, 5, 68, 308.2184448242188
0, 5, 69, 311.9734191894531
0, 5, 70, 303.0748291015625
0, 5, 71, 272.4485168457031
0, 5, 72, 310.9602966308594
0, 5, 73, 303.030517578125
0, 5, 74, 296.475830078125
0, 5, 75, 293.9535522460938
0, 5, 76, 284.7718200683594
0, 5, 77, 299.7897338867188
0, 5, 78, 313.3679809570312
0, 5, 79, 308.0226440429688
0, 5, 80, 294.8173217773438
0, 5, 81, 325.3700256347656
0, 5, 82, 323.4339904785156
0, 5, 83, 279.5926208496094
0, 5, 84, 300.8078918457031
0, 5, 85, 271.5051574707031
0, 5, 86, 326.1886901855469
0, 5, 87, 285.0068969726562
0, 5, 88, 316.1796264648438
0, 5, 89, 303.828125
0, 5, 90, 315.7811584472656
0, 5, 91, 314.7299194335938
0, 5, 92, 297.0765991210938
0, 5, 93, 322.4080200195312
0, 5, 94, 307.0859069824219
0, 5, 95, 295.0622253417969
0, 5, 96, 299.2089233398438
0, 5, 97, 297.6190490722656
0, 5, 98, 319.5088195800781
0, 5, 99, 300.353759765625
0, 5, 100, 290.6968688964844
0, 5, 101, 305.1531066894531
0, 5, 102, 291.7904968261719
0, 5, 103, 315.9913940429688
0, 5, 104, 303.5791931152344
0, 5, 105, 291.0027160644531
0, 5, 106, 281.6106872558594
0, 5, 107, 291.4765930175781
0, 5, 108, 267.9076843261719
0, 5, 109, 157.3057403564453
0, 5, 110, 39.16403961181641
0, 5, 111, 21.07283592224121
0, 5, 112, 17.22239685058594
0, 5, 113, 13.93431663513184
0, 5, 114, 13.34850692749023
0, 5, 115, 6.705154418945312
0, 5, 116, 7.394228458404541
0, 5, 117, 6.828639507293701
0, 5, 118, 13.04526805877686
0, 5, 119, 2.472487211227417
0, 5, 120, 6.929879665374756
0, 5, 121, 5.306366443634033
0, 5, 122, 6.106996059417725
0, 5, 123, 4.513432502746582
0, 5, 124, 4.932020664215088
0, 5, 125, 3.768814325332642
0, 5, 126, 5.326521396636963
0, 5, 127, 2.881381034851074
0, 6, 0, 5.98582124710083
0, 6, 1, 2.360834360122681
0, 6, 2, 4.556871891021729
0, 6, 3, 7.547907829284668
0, 6, 4, 4.867939949035645
0, 6, 5, 9.461696624755859
0, 6, 6, 6.582313537597656
0, 6, 7, 5.006058216094971
0, 6, 8, 6.421713352203369
0, 6, 9, 7.152599334716797
0, 6, 10, 7.630516052246094
0, 6, 11, 8.211627960205078
0, 6, 12, 8.057330131530762
0, 6, 13, 13.16508674621582
0, 6, 14, 8.875252723693848
0, 6, 15, 18.3582878112793
0, 6, 16, 28.5422191619873
0, 6, 17, 54.34074020385742
0, 6, 18, 171.9801788330078
0, 6, 19, 275.1495361328125
0, 6, 20, 290.4416809082031
0, 6, 21, 313.5523071289062
0, 6, 22, 318.5267028808594
0, 6, 23, 305.1217956542969
0, 6, 24, 314.8498840332031
0, 6, 25, 315.2450256347656
0, 6, 26, 321.3599243164062
0, 6, 27, 331.0938415527344
0, 6, 28, 295.7516174316406
0, 6, 29, 328.2254638671875
0, 6, 30, 280.6828002929688
0, 6, 31, 285.1792602539062
0, 6, 32, 339.6337890625
0, 6, 33, 299.7872314453125
0, 6, 34, 340.713623046875
0, 6, 35, 319.2825622558594
0, 6, 36, 274.4928894042969
0, 6, 37, 288.5458374023438
0, 6, 38, 312.5806884765625
0, 6, 39, 298.7447204589844
0, 6, 40, 285.9215393066406
0, 6, 41, 297.2619934082031
0, 6, 42, 304.535888671875
0, 6, 43, 288.0511474609375
0, 6, 44, 281.425537109375
0, 6, 45, 318.4584045410156
0, 6, 46, 300.2181701660156
0, 6, 47, 333.2261047363281
0, 6, 48, 293.3504943847656
0, 6, 49, 312.0231323242188
0, 6, 50, 328.508056640625
0, 6, 51, 311.2426147460938
0, 6, 52, 320.7998352050781
0, 6, 53, 327.6051330566406
0, 6, 54, 304.5365295410156
0, 6, 55, 306.3978576660156
0, 6, 56, 294.694580078125
0, 6, 57, 312.0243225097656
0, 6, 58, 261.8448791503906
0, 6, 59, 303.5601196289062
0, 6, 60, 312.30908203125
0, 6, 61, 270.3588562011719
0, 6, 62, 336.0136413574219
0, 6, 63, 323.5407409667969
0, 6, 64, 290.5871276855469
0, 6, 65, 283.1494140625
0, 6, 66, 302.6715393066406
0, 6, 67, 309.6128234863281
0, 6, 68, 295.726806640625
0, 6, 69, 278.8417053222656
0, 6, 70, 273.5923156738281
0, 6, 71, 290.650146484375
0, 6, 72, 311.1562194824219
0, 6, 73, 291.3504333496094
0, 6, 74, 331.3203430175781
0, 6, 75, 343.8562927246094
0, 6, 76, 297.2077941894531
0, 6, 77, 285.4305725097656
0, 6, 78, 279.854248046875
0, 6, 79, 292.4663696289062
0, 6, 80, 298.455322265625
0, 6, 81, 314.8448181152344
0, 6, 82, 319.1393432617188
0, 6, 83, 320.5318603515625
0, 6, 84, 296.6496276855469
0, 6, 85, 302.9636535644531
0, 6, 86, 331.2244262695312
0, 6, 87, 292.1925659179688
0, 6, 88, 306.7942199707031
0, 6, 89, 306.3269958496094
0, 6, 90, 298.6819458007812
0, 6, 91, 312.7204895019531
0, 6, 92, 285.8730773925781
0, 6, 93, 295.8701477050781
0, 6, 94, 270.9329833984375
0, 6, 95, 299.7823486328125
0, 6, 96, 347.2356872558594
0, 6, 97, 309.8568420410156
0, 6, 98, 301.2750854492188
0, 6, 99, 273.1977844238281
0, 6, 100, 308.0708618164062
0, 6, 101, 294.1122436523438
0, 6, 102, 307.4930419921875
0, 6, 103, 306.9079895019531
0, 6, 104, 292.1437072753906
0, 6, 105, 301.0887756347656
0, 6, 106, 306.8343505859375
0, 6, 107, 306.6071472167969
0, 6, 108, 266.2661437988281
0, 6, 109, 186.2422332763672
0, 6, 110, 55.22673034667969
0, 6, 111, 22.80987930297852
0, 6, 112, 12.74866104125977
0, 6, 113, 10.14292430877686
0, 6, 114, 10.91861820220947
0, 6, 115, 11.97453689575195
0, 6, 116, 10.31115627288818
0, 6, 117, 7.156365394592285
0, 6, 118, 10.82142448425293
0, 6, 119, 12.09148788452148
0, 6, 120, 6.228020191192627
0, 6, 121, 5.834826946258545
0, 6, 122, 7.792707920074463
0, 6, 123, 5.054662227630615
0, 6, 124, 5.660651683807373
0, 6, 125, 6.15007495880127
0, 6, 126, 4.898843765258789
0, 6, 127, 8.183296203613281
0, 7, 0, 5.865294933319092
0, 7, 1, 5.448052883148193
0, 7, 2, 5.020008563995361
0, 7, 3, 6.73914623260498
0, 7, 4, 3.340576410293579
0, 7, 5, 4.616873264312744
0, 7, 6, 5.417195796966553
0, 7, 7, 4.48353910446167
0, 7, 8, 6.798538208007812
0, 7, 9, 7.535687923431396
0, 7, 10, 10.52028179168701
0, 7, 11, 10.17746639251709
0, 7, 12, 9.513309478759766
0, 7, 13, 12.41604995727539
0, 7, 14, 10.98565483093262
0, 7, 15, 16.23550415039062
0, 7, 16, 26.34720230102539
0, 7, 17, 98.53412628173828
0, 7, 18, 218.9052276611328
0, 7, 19, 289.9833679199219
0, 7, 20, 298.6742553710938
0, 7, 21, 276.91552734375
0, 7, 22, 299.0634155273438
0, 7, 23, 289.0796203613281
0, 7, 24, 314.9714050292969
0, 7, 25, 325.0011596679688
0, 7, 26, 278.27392578125
0, 7, 27, 297.42919921875
0, 7, 28, 330.6230163574219
0, 7, 29, 319.6398315429688
0, 7, 30, 301.1088562011719
0, 7, 31, 276.7839050292969
0, 7, 32, 304.215087890625
0, 7, 33, 259.9393005371094
0, 7, 34, 298.2943725585938
0, 7, 35, 319.986572265625
0, 7, 36, 330.87646484375
0, 7, 37, 324.5841064453125
0, 7, 38, 297.2325134277344
0, 7, 39, 308.1786499023438
0, 7, 40, 289.3402404785156
0, 7, 41, 271.2876281738281
0, 7, 42, 299.6859741210938
0, 7, 43, 276.4498291015625
0, 7, 44, 304.0021057128906
0, 7, 45, 292.7814025878906
0, 7, 46, 280.7967834472656
0, 7, 47, 327.1764221191406
0, 7, 48, 287.7960205078125
0, 7, 49, 300.4037475585938
0, 7, 50, 320.5410766601562
0, 7, 51, 298.6321411132812
0, 7, 52, 326.2693176269531
0, 7, 53, 309.4918212890625
0, 7, 54, 324.2530822753906
0, 7, 55, 306.1061706542969
0, 7, 56, 281.0784606933594
0, 7, 57, 280.9092712402344
0, 7, 58, 297.8182067871094
0, 7, 59, 293.15625
0, 7, 60, 321.6585998535156
0, 7, 61, 276.5006103515625
0, 7, 62, 296.2720031738281
0, 7, 63, 292.0280456542969
0, 7, 64, 307.1188659667969
0, 7, 65, 329.6788635253906
0, 7, 66, 320.2917175292969
0, 7, 67, 300.9241333007812
0, 7, 68, 278.5405883789062
0, 7, 69, 294.3695983886719
0, 7, 70, 301.4164123535156
0, 7, 71, 309.2679748535156
0, 7, 72, 286.4230651855469
0, 7, 73, 296.2580261230469
0, 7, 74, 345.0782470703125
0, 7, 75, 320.5229797363281
0, 7, 76, 323.6327819824219
0, 7, 77, 282.0450744628906
0, 7, 78, 300.3099975585938
0, 7, 79, 296.0081176757812
0, 7, 80, 311.6795043945312
0, 7, 81, 319.1653442382812
0, 7, 82, 329.2052917480469
0, 7, 83, 317.4134826660156
0, 7, 84, 309.7825927734375
0, 7, 85, 272.0978088378906
0, 7, 86, 310.4443054199219
0, 7, 87, 308.5618591308594
0, 7, 88, 305.9209594726562
0, 7, 89, 295.6911315917969
0, 7, 90, 309.9407043457031
0, 7, 91, 314.5548400878906
0, 7, 92, 289.2826538085938
0, 7, 93, 307.859375
0, 7, 94, 273.4996032714844
0, 7, 95, 295.0095520019531
0, 7, 96, 331.0716552734375
0, 7, 97, 295.5265808105469
0, 7, 98, 290.1847839355469
0, 7, 99, 310.9556884765625
0, 7, 100, 281.6988525390625
0, 7, 101, 273.9781188964844
0, 7, 102, 289.3577270507812
0, 7, 103, 292.1949157714844
0, 7, 104, 275.1867980957031
0, 7, 105, 305.1707458496094
0, 7, 106, 319.2518615722656
0, 7, 107, 300.9438781738281
0, 7, 108, 274.2394714355469
0, 7, 109, 237.5616607666016
0, 7, 110, 95.86405181884766
0, 7, 111, 23.24349594116211
0, 7, 112, 14.63856220245361
0, 7, 113, 13.92893695831299
0, 7, 114, 13.35771179199219
0, 7, 115, 12.7312650680542
0, 7, 116, 13.37377071380615
0, 7, 117, 9.008183479309082
0, 7, 118, 8.794984817504883
0, 7, 119, 7.751273155212402
0, 7, 120, 5.149834632873535
0, 7, 121, 6.388597011566162
0, 7, 122, 5.311191558837891
0, 7, 123, 5.752589702606201
0, 7, 124, 2.742975950241089
0, 7, 125, 6.790923595428467
0, 7, 126, 8.92589282989502
0, 7, 127, 3.444857120513916
0, 8, 0, 6.117548942565918
0, 8, 1, 3.235511779785156
0, 8, 2, 2.381413459777832
0, 8, 3, 2.277848243713379
0, 8, 4, 4.120990753173828
0, 8, 5, 4.933840751647949
0, 8, 6, 4.978155612945557
0, 8, 7, 6.924582004547119
0, 8, 8, 8.120336532592773
0, 8, 9, 5.572934150695801
0, 8, 10, 8.628613471984863
0, 8, 11, 14.80037975311279
0, 8, 12, 14.55910396575928
0, 8, 13, 15.42291831970215
0, 8, 14, 12.87053489685059
0, 8, 15, 17.495849609375
0, 8, 16, 31.61634826660156
0, 8, 17, 130.6054229736328
0, 8, 18, 242.2859191894531
0, 8, 19, 297.1507873535156
0, 8, 20, 286.5852661132812
0, 8, 21, 306.6698913574219
0, 8, 22, 294.8963012695312
0, 8, 23, 277.087158203125
0, 8, 24, 268.0667419433594
0, 8, 25, 276.01123046875
0, 8, 26, 305.675537109375
0, 8, 27, 308.2633361816406
0, 8, 28, 303.6646118164062
0, 8, 29, 318.1341552734375
0, 8, 30, 313.4718322753906
0, 8, 31, 305.4008178710938
0, 8, 32, 281.0722351074219
0, 8, 33, 294.6922302246094
0, 8, 34, 288.9625549316406
0, 8, 35, 280.8843994140625
0, 8, 36, 314.9601745605469
0, 8, 37, 338.7378540039062
0, 8, 38, 331.0862426757812
0, 8, 39, 279.8378295898438
0, 8, 40, 305.1890869140625
