# TOPAS Version: 3.1.p3
# Parameter File: batch_inserts_170.txt
# Results for scorer Readout_Adipose
# Scored in component: MyBox
# X in 1 bin  of 0.75 cm
# Y in 512 bins of 0.0783984 cm
# Z in 128 bins of 0.078125 cm
# EnergyDeposit ( MeV ) : Sum   
0, 0, 0, 19.58305168151855
0, 0, 1, 21.81295013427734
0, 0, 2, 26.00151252746582
0, 0, 3, 19.9937858581543
0, 0, 4, 16.89789390563965
0, 0, 5, 21.01225471496582
0, 0, 6, 23.2210636138916
0, 0, 7, 36.26410675048828
0, 0, 8, 22.89052391052246
0, 0, 9, 22.17937088012695
0, 0, 10, 23.60017967224121
0, 0, 11, 24.99139213562012
0, 0, 12, 35.07030487060547
0, 0, 13, 32.59678649902344
0, 0, 14, 38.71116256713867
0, 0, 15, 44.01164245605469
0, 0, 16, 42.92906188964844
0, 0, 17, 45.1846809387207
0, 0, 18, 77.23316192626953
0, 0, 19, 187.3041076660156
0, 0, 20, 703.814697265625
0, 0, 21, 1189.866943359375
0, 0, 22, 1242.328857421875
0, 0, 23, 1275.762573242188
0, 0, 24, 1281.272216796875
0, 0, 25, 1351.72265625
0, 0, 26, 1273.613403320312
0, 0, 27, 1280.21533203125
0, 0, 28, 1319.7783203125
0, 0, 29, 1273.521484375
0, 0, 30, 1261.973999023438
0, 0, 31, 1275.798706054688
0, 0, 32, 1266.2138671875
0, 0, 33, 1244.373657226562
0, 0, 34, 1323.95361328125
0, 0, 35, 1304.282592773438
0, 0, 36, 1246.500366210938
0, 0, 37, 1280.643676757812
0, 0, 38, 1249.27001953125
0, 0, 39, 1247.324584960938
0, 0, 40, 1225.525390625
0, 0, 41, 1268.902465820312
0, 0, 42, 1254.23583984375
0, 0, 43, 1269.319091796875
0, 0, 44, 1228.5556640625
0, 0, 45, 1293.384887695312
0, 0, 46, 1258.598266601562
0, 0, 47, 1243.513061523438
0, 0, 48, 1274.619506835938
0, 0, 49, 1285.594116210938
0, 0, 50, 1311.338989257812
0, 0, 51, 1259.642456054688
0, 0, 52, 1361.956176757812
0, 0, 53, 1325.25341796875
0, 0, 54, 1294.538818359375
0, 0, 55, 1231.704467773438
0, 0, 56, 1316.609497070312
0, 0, 57, 1290.257568359375
0, 0, 58, 1255.017944335938
0, 0, 59, 1333.06982421875
0, 0, 60, 1330.766967773438
0, 0, 61, 1258.591186523438
0, 0, 62, 1238.93359375
0, 0, 63, 1274.775634765625
0, 0, 64, 1327.293579101562
0, 0, 65, 1286.35888671875
0, 0, 66, 1318.706298828125
0, 0, 67, 1219.26953125
0, 0, 68, 1310.719604492188
0, 0, 69, 1326.82373046875
0, 0, 70, 1344.326538085938
0, 0, 71, 1286.62451171875
0, 0, 72, 1314.226684570312
0, 0, 73, 1236.310302734375
0, 0, 74, 1289.6201171875
0, 0, 75, 1295.314453125
0, 0, 76, 1259.610473632812
0, 0, 77, 1282.979370117188
0, 0, 78, 1315.712646484375
0, 0, 79, 1323.781494140625
0, 0, 80, 1261.6181640625
0, 0, 81, 1324.344116210938
0, 0, 82, 1283.719116210938
0, 0, 83, 1287.7666015625
0, 0, 84, 1325.046997070312
0, 0, 85, 1235.321655273438
0, 0, 86, 1265.524658203125
0, 0, 87, 1253.258544921875
0, 0, 88, 1256.133911132812
0, 0, 89, 1333.12451171875
0, 0, 90, 1275.787109375
0, 0, 91, 1353.993774414062
0, 0, 92, 1300.998657226562
0, 0, 93, 1273.719482421875
0, 0, 94, 1246.606079101562
0, 0, 95, 1325.201171875
0, 0, 96, 1287.390380859375
0, 0, 97, 1328.1748046875
0, 0, 98, 1259.036499023438
0, 0, 99, 1250.885009765625
0, 0, 100, 1286.57373046875
0, 0, 101, 1315.523071289062
0, 0, 102, 1232.273315429688
0, 0, 103, 1323.554443359375
0, 0, 104, 1262.3662109375
0, 0, 105, 1272.417236328125
0, 0, 106, 1211.26904296875
0, 0, 107, 779.0755004882812
0, 0, 108, 192.455078125
0, 0, 109, 66.11578369140625
0, 0, 110, 66.62503814697266
0, 0, 111, 39.90368270874023
0, 0, 112, 42.77432632446289
0, 0, 113, 36.78639602661133
0, 0, 114, 36.47701263427734
0, 0, 115, 30.56033706665039
0, 0, 116, 27.73000907897949
0, 0, 117, 30.22727966308594
0, 0, 118, 26.74414825439453
0, 0, 119, 22.91563606262207
0, 0, 120, 30.47195816040039
0, 0, 121, 29.9467887878418
0, 0, 122, 22.26512718200684
0, 0, 123, 19.85878372192383
0, 0, 124, 19.79453086853027
0, 0, 125, 17.43259048461914
0, 0, 126, 25.57922554016113
0, 0, 127, 17.30925369262695
0, 1, 0, 24.51584053039551
0, 1, 1, 23.505859375
0, 1, 2, 22.23109436035156
0, 1, 3, 24.02549743652344
0, 1, 4, 24.43082618713379
0, 1, 5, 30.54168128967285
0, 1, 6, 28.83260726928711
0, 1, 7, 28.46524620056152
0, 1, 8, 34.00999450683594
0, 1, 9, 30.20596694946289
0, 1, 10, 32.76180267333984
0, 1, 11, 39.7806282043457
0, 1, 12, 36.4782600402832
0, 1, 13, 39.86508560180664
0, 1, 14, 38.49657440185547
0, 1, 15, 49.62602615356445
0, 1, 16, 58.46095275878906
0, 1, 17, 62.07017135620117
0, 1, 18, 99.69747161865234
0, 1, 19, 402.3450012207031
0, 1, 20, 1044.441528320312
0, 1, 21, 1375.65869140625
0, 1, 22, 1482.236938476562
0, 1, 23, 1461.755004882812
0, 1, 24, 1449.990112304688
0, 1, 25, 1421.105346679688
0, 1, 26, 1475.098999023438
0, 1, 27, 1464.492431640625
0, 1, 28, 1495.408203125
0, 1, 29, 1478.10693359375
0, 1, 30, 1506.409545898438
0, 1, 31, 1486.704467773438
0, 1, 32, 1413.916625976562
0, 1, 33, 1496.6142578125
0, 1, 34, 1507.069458007812
0, 1, 35, 1460.755859375
0, 1, 36, 1493.664672851562
0, 1, 37, 1407.947998046875
0, 1, 38, 1393.54443359375
0, 1, 39, 1522.9306640625
0, 1, 40, 1459.510986328125
0, 1, 41, 1487.947631835938
0, 1, 42, 1493.783813476562
0, 1, 43, 1503.621704101562
0, 1, 44, 1447.852783203125
0, 1, 45, 1488.613525390625
0, 1, 46, 1424.1181640625
0, 1, 47, 1433.776245117188
0, 1, 48, 1431.395629882812
0, 1, 49, 1489.877685546875
0, 1, 50, 1442.492431640625
0, 1, 51, 1477.98388671875
0, 1, 52, 1474.28564453125
0, 1, 53, 1475.802490234375
0, 1, 54, 1504.640991210938
0, 1, 55, 1497.065795898438
0, 1, 56, 1470.888793945312
0, 1, 57, 1455.301147460938
0, 1, 58, 1432.044311523438
0, 1, 59, 1483.580688476562
0, 1, 60, 1468.525146484375
0, 1, 61, 1455.665405273438
0, 1, 62, 1454.683715820312
0, 1, 63, 1411.409912109375
0, 1, 64, 1477.19970703125
0, 1, 65, 1418.794555664062
0, 1, 66, 1435.128051757812
0, 1, 67, 1454.122802734375
0, 1, 68, 1388.299560546875
0, 1, 69, 1463.424560546875
0, 1, 70, 1432.0498046875
0, 1, 71, 1497.735595703125
0, 1, 72, 1436.076782226562
0, 1, 73, 1487.574340820312
0, 1, 74, 1471.545166015625
0, 1, 75, 1479.328125
0, 1, 76, 1456.080078125
0, 1, 77, 1463.507934570312
0, 1, 78, 1446.222534179688
0, 1, 79, 1496.54443359375
0, 1, 80, 1452.757568359375
0, 1, 81, 1426.047729492188
0, 1, 82, 1470.393188476562
0, 1, 83, 1466.317016601562
0, 1, 84, 1538.246704101562
0, 1, 85, 1446.639892578125
0, 1, 86, 1408.35107421875
0, 1, 87, 1417.939697265625
0, 1, 88, 1473.818237304688
0, 1, 89, 1473.854858398438
0, 1, 90, 1426.636596679688
0, 1, 91, 1460.516967773438
0, 1, 92, 1410.272338867188
0, 1, 93, 1461.098876953125
0, 1, 94, 1463.652221679688
0, 1, 95, 1422.746948242188
0, 1, 96, 1499.302734375
0, 1, 97, 1522.13037109375
0, 1, 98, 1477.189086914062
0, 1, 99, 1421.289794921875
0, 1, 100, 1449.369750976562
0, 1, 101, 1414.541748046875
0, 1, 102, 1441.98828125
0, 1, 103, 1413.802490234375
0, 1, 104, 1406.429443359375
0, 1, 105, 1459.883056640625
0, 1, 106, 1361.825439453125
0, 1, 107, 1020.303161621094
0, 1, 108, 402.5160522460938
0, 1, 109, 87.10514068603516
0, 1, 110, 59.99267196655273
0, 1, 111, 56.33097076416016
0, 1, 112, 49.01994323730469
0, 1, 113, 39.20878219604492
0, 1, 114, 35.54039001464844
0, 1, 115, 38.63478088378906
0, 1, 116, 35.94093322753906
0, 1, 117, 35.7437858581543
0, 1, 118, 35.48352813720703
0, 1, 119, 28.7711009979248
0, 1, 120, 24.38727378845215
0, 1, 121, 26.9958438873291
0, 1, 122, 18.43911933898926
0, 1, 123, 22.6806583404541
0, 1, 124, 29.21808052062988
0, 1, 125, 19.41397666931152
0, 1, 126, 21.06205368041992
0, 1, 127, 21.71232986450195
0, 2, 0, 17.17790412902832
0, 2, 1, 18.97505569458008
0, 2, 2, 21.67082023620605
0, 2, 3, 23.99994850158691
0, 2, 4, 26.85905456542969
0, 2, 5, 23.34417533874512
0, 2, 6, 18.67217826843262
0, 2, 7, 21.67828369140625
0, 2, 8, 27.60519218444824
0, 2, 9, 26.87033653259277
0, 2, 10, 30.34033012390137
0, 2, 11, 37.55820846557617
0, 2, 12, 39.77358627319336
0, 2, 13, 45.88961029052734
0, 2, 14, 48.89834594726562
0, 2, 15, 51.68087387084961
0, 2, 16, 61.03831481933594
0, 2, 17, 76.56338500976562
0, 2, 18, 144.2142028808594
0, 2, 19, 601.67724609375
0, 2, 20, 1285.942993164062
0, 2, 21, 1435.169189453125
0, 2, 22, 1460.219604492188
0, 2, 23, 1405.907348632812
0, 2, 24, 1437.295043945312
0, 2, 25, 1525.403076171875
0, 2, 26, 1556.661010742188
0, 2, 27, 1457.101684570312
0, 2, 28, 1458.935668945312
0, 2, 29, 1458.8388671875
0, 2, 30, 1462.217407226562
0, 2, 31, 1533.280883789062
0, 2, 32, 1506.830200195312
0, 2, 33, 1442.143798828125
0, 2, 34, 1473.316772460938
0, 2, 35, 1467.761474609375
0, 2, 36, 1526.783569335938
0, 2, 37, 1544.581176757812
0, 2, 38, 1505.5009765625
0, 2, 39, 1462.548095703125
0, 2, 40, 1505.425415039062
0, 2, 41, 1523.128662109375
0, 2, 42, 1507.197998046875
0, 2, 43, 1553.623779296875
0, 2, 44, 1455.375732421875
0, 2, 45, 1483.307250976562
0, 2, 46, 1428.9423828125
0, 2, 47, 1445.946166992188
0, 2, 48, 1396.058959960938
0, 2, 49, 1462.295654296875
0, 2, 50, 1442.631958007812
0, 2, 51, 1440.883666992188
0, 2, 52, 1495.153686523438
0, 2, 53, 1526.356323242188
0, 2, 54, 1524.4130859375
0, 2, 55, 1493.822265625
0, 2, 56, 1462.420776367188
0, 2, 57, 1416.676025390625
0, 2, 58, 1456.534423828125
0, 2, 59, 1452.005981445312
0, 2, 60, 1467.474487304688
0, 2, 61, 1444.437255859375
0, 2, 62, 1472.732543945312
0, 2, 63, 1513.038940429688
0, 2, 64, 1458.468139648438
0, 2, 65, 1427.857299804688
0, 2, 66, 1484.600341796875
0, 2, 67, 1504.724487304688
0, 2, 68, 1543.073608398438
0, 2, 69, 1534.696044921875
0, 2, 70, 1508.752563476562
0, 2, 71, 1469.994262695312
0, 2, 72, 1520.033203125
0, 2, 73, 1518.666015625
0, 2, 74, 1489.886840820312
0, 2, 75, 1504.061157226562
0, 2, 76, 1460.182250976562
0, 2, 77, 1505.996948242188
0, 2, 78, 1432.989868164062
0, 2, 79, 1542.501953125
0, 2, 80, 1479.379516601562
0, 2, 81, 1465.511962890625
0, 2, 82, 1562.357299804688
0, 2, 83, 1514.77783203125
0, 2, 84, 1490.75634765625
0, 2, 85, 1516.274658203125
0, 2, 86, 1543.633666992188
0, 2, 87, 1490.460327148438
0, 2, 88, 1536.37060546875
0, 2, 89, 1466.277099609375
0, 2, 90, 1428.808837890625
0, 2, 91, 1404.429565429688
0, 2, 92, 1479.782470703125
0, 2, 93, 1493.827880859375
0, 2, 94, 1451.798828125
0, 2, 95, 1547.27880859375
0, 2, 96, 1515.961181640625
0, 2, 97, 1458.085815429688
0, 2, 98, 1465.194458007812
0, 2, 99, 1404.129272460938
0, 2, 100, 1474.017333984375
0, 2, 101, 1481.887939453125
0, 2, 102, 1458.974731445312
0, 2, 103, 1389.568725585938
0, 2, 104, 1407.299926757812
0, 2, 105, 1394.8720703125
0, 2, 106, 1454.098022460938
0, 2, 107, 1274.011474609375
0, 2, 108, 620.2689819335938
0, 2, 109, 169.3909912109375
0, 2, 110, 70.23616790771484
0, 2, 111, 64.30771636962891
0, 2, 112, 45.92026901245117
0, 2, 113, 46.06383895874023
0, 2, 114, 36.31223297119141
0, 2, 115, 45.1531982421875
0, 2, 116, 35.96394348144531
0, 2, 117, 35.63837051391602
0, 2, 118, 33.85333251953125
0, 2, 119, 34.33642959594727
0, 2, 120, 26.83296012878418
0, 2, 121, 23.34491729736328
0, 2, 122, 24.50910949707031
0, 2, 123, 20.93320846557617
0, 2, 124, 23.69682121276855
0, 2, 125, 30.39661598205566
0, 2, 126, 15.78607177734375
0, 2, 127, 22.74569702148438
0, 3, 0, 16.15024185180664
0, 3, 1, 22.01571083068848
0, 3, 2, 22.1129207611084
0, 3, 3, 20.77422904968262
0, 3, 4, 22.94158935546875
0, 3, 5, 25.04900550842285
0, 3, 6, 31.34145927429199
0, 3, 7, 28.9099292755127
0, 3, 8, 28.94454002380371
0, 3, 9, 30.41767883300781
0, 3, 10, 33.91064834594727
0, 3, 11, 42.44448471069336
0, 3, 12, 43.3594970703125
0, 3, 13, 50.51697158813477
0, 3, 14, 58.16911697387695
0, 3, 15, 57.32130432128906
0, 3, 16, 71.03469085693359
0, 3, 17, 88.057861328125
0, 3, 18, 237.73974609375
0, 3, 19, 878.7144775390625
0, 3, 20, 1383.762451171875
0, 3, 21, 1505.897216796875
0, 3, 22, 1463.465209960938
0, 3, 23, 1453.378784179688
0, 3, 24, 1439.319091796875
0, 3, 25, 1463.26171875
0, 3, 26, 1493.414428710938
0, 3, 27, 1466.152465820312
0, 3, 28, 1489.044189453125
0, 3, 29, 1546.076904296875
0, 3, 30, 1571.836791992188
0, 3, 31, 1510.786376953125
0, 3, 32, 1543.65869140625
0, 3, 33, 1536.434692382812
0, 3, 34, 1492.513671875
0, 3, 35, 1463.336059570312
0, 3, 36, 1452.1748046875
0, 3, 37, 1514.04150390625
0, 3, 38, 1517.264404296875
0, 3, 39, 1443.647094726562
0, 3, 40, 1442.366088867188
0, 3, 41, 1563.899169921875
0, 3, 42, 1463.853149414062
0, 3, 43, 1456.740234375
0, 3, 44, 1450.099731445312
0, 3, 45, 1504.815551757812
0, 3, 46, 1503.949951171875
0, 3, 47, 1443.672607421875
0, 3, 48, 1509.991943359375
0, 3, 49, 1449.99365234375
0, 3, 50, 1489.491943359375
0, 3, 51, 1531.514282226562
0, 3, 52, 1534.620361328125
0, 3, 53, 1465.490966796875
0, 3, 54, 1539.277099609375
0, 3, 55, 1506.808837890625
0, 3, 56, 1436.451904296875
0, 3, 57, 1502.87353515625
0, 3, 58, 1515.015502929688
0, 3, 59, 1510.458251953125
0, 3, 60, 1534.851196289062
0, 3, 61, 1483.529663085938
0, 3, 62, 1495.504638671875
0, 3, 63, 1493.107666015625
0, 3, 64, 1498.16943359375
0, 3, 65, 1511.657836914062
0, 3, 66, 1557.10986328125
0, 3, 67, 1551.664428710938
0, 3, 68, 1446.4306640625
0, 3, 69, 1469.371704101562
0, 3, 70, 1387.52197265625
0, 3, 71, 1463.880737304688
0, 3, 72, 1545.01025390625
0, 3, 73, 1498.185180664062
0, 3, 74, 1465.818115234375
0, 3, 75, 1459.093017578125
0, 3, 76, 1573.468139648438
0, 3, 77, 1541.865112304688
0, 3, 78, 1433.492431640625
0, 3, 79, 1487.703125
0, 3, 80, 1464.02099609375
0, 3, 81, 1472.588989257812
0, 3, 82, 1554.630004882812
0, 3, 83, 1512.760620117188
0, 3, 84, 1565.38037109375
0, 3, 85, 1478.779907226562
0, 3, 86, 1524.088500976562
0, 3, 87, 1535.834350585938
0, 3, 88, 1460.054321289062
0, 3, 89, 1443.198364257812
0, 3, 90, 1450.670654296875
0, 3, 91, 1420.556518554688
0, 3, 92, 1511.077026367188
0, 3, 93, 1499.076538085938
0, 3, 94, 1514.066162109375
0, 3, 95, 1543.474609375
0, 3, 96, 1516.005126953125
0, 3, 97, 1468.495483398438
0, 3, 98, 1432.244873046875
0, 3, 99, 1463.764526367188
0, 3, 100, 1465.031372070312
0, 3, 101, 1479.398193359375
0, 3, 102, 1524.006713867188
0, 3, 103, 1557.49609375
0, 3, 104, 1501.9013671875
0, 3, 105, 1517.04248046875
0, 3, 106, 1480.787475585938
0, 3, 107, 1342.717041015625
0, 3, 108, 870.0494995117188
0, 3, 109, 265.9207763671875
0, 3, 110, 103.8029937744141
0, 3, 111, 63.77056121826172
0, 3, 112, 57.31117630004883
0, 3, 113, 48.67495727539062
0, 3, 114, 46.59946823120117
0, 3, 115, 48.30959320068359
0, 3, 116, 41.16284942626953
0, 3, 117, 40.9581413269043
0, 3, 118, 34.99449157714844
0, 3, 119, 32.42821884155273
0, 3, 120, 33.28887176513672
0, 3, 121, 15.38053512573242
0, 3, 122, 24.28344535827637
0, 3, 123, 24.78017234802246
0, 3, 124, 27.56119537353516
0, 3, 125, 28.39386367797852
0, 3, 126, 23.15441703796387
0, 3, 127, 16.98039627075195
0, 4, 0, 17.69947624206543
0, 4, 1, 28.1165599822998
0, 4, 2, 20.84256935119629
0, 4, 3, 22.36043548583984
0, 4, 4, 23.68914222717285
0, 4, 5, 25.22742462158203
0, 4, 6, 28.61053466796875
0, 4, 7, 27.98521041870117
0, 4, 8, 27.8565731048584
0, 4, 9, 33.46055603027344
0, 4, 10, 35.20721054077148
0, 4, 11, 39.81198883056641
0, 4, 12, 46.1308479309082
0, 4, 13, 51.01297760009766
0, 4, 14, 48.2149772644043
0, 4, 15, 57.37408447265625
0, 4, 16, 77.20331573486328
0, 4, 17, 111.1433563232422
0, 4, 18, 443.4714050292969
0, 4, 19, 1181.29248046875
0, 4, 20, 1448.10986328125
0, 4, 21, 1420.99609375
0, 4, 22, 1433.552001953125
0, 4, 23, 1454.555297851562
0, 4, 24, 1475.032470703125
0, 4, 25, 1407.818237304688
0, 4, 26, 1539.932495117188
0, 4, 27, 1541.368896484375
0, 4, 28, 1502.953735351562
0, 4, 29, 1514.499877929688
0, 4, 30, 1525.26123046875
0, 4, 31, 1575.911376953125
0, 4, 32, 1519.692138671875
0, 4, 33, 1491.677490234375
0, 4, 34, 1466.108032226562
0, 4, 35, 1563.159057617188
0, 4, 36, 1505.049682617188
0, 4, 37, 1514.77099609375
0, 4, 38, 1535.960571289062
0, 4, 39, 1466.582153320312
0, 4, 40, 1516.303344726562
0, 4, 41, 1584.869873046875
0, 4, 42, 1568.117919921875
0, 4, 43, 1472.3974609375
0, 4, 44, 1498.663452148438
0, 4, 45, 1519.462646484375
0, 4, 46, 1468.291748046875
0, 4, 47, 1508.7255859375
0, 4, 48, 1521.96875
0, 4, 49, 1472.170654296875
0, 4, 50, 1519.242553710938
0, 4, 51, 1492.729858398438
0, 4, 52, 1497.368041992188
0, 4, 53, 1451.291381835938
0, 4, 54, 1445.702392578125
0, 4, 55, 1524.790405273438
0, 4, 56, 1452.889770507812
0, 4, 57, 1498.718872070312
0, 4, 58, 1460.609985351562
0, 4, 59, 1462.198608398438
0, 4, 60, 1522.62353515625
0, 4, 61, 1501.032348632812
0, 4, 62, 1500.427490234375
0, 4, 63, 1547.275146484375
0, 4, 64, 1591.421020507812
0, 4, 65, 1422.924926757812
0, 4, 66, 1514.341186523438
0, 4, 67, 1519.96923828125
0, 4, 68, 1496.815673828125
0, 4, 69, 1469.81787109375
0, 4, 70, 1545.0986328125
0, 4, 71, 1515.925170898438
0, 4, 72, 1525.573120117188
0, 4, 73, 1489.058349609375
0, 4, 74, 1486.361083984375
0, 4, 75, 1536.223754882812
0, 4, 76, 1480.66259765625
0, 4, 77, 1501.028686523438
0, 4, 78, 1500.684936523438
0, 4, 79, 1480.547729492188
0, 4, 80, 1517.405151367188
0, 4, 81, 1526.851806640625
0, 4, 82, 1565.729858398438
0, 4, 83, 1505.868530273438
0, 4, 84, 1538.897705078125
0, 4, 85, 1549.334838867188
0, 4, 86, 1524.87158203125
0, 4, 87, 1501.305908203125
0, 4, 88, 1520.1357421875
0, 4, 89, 1485.909912109375
0, 4, 90, 1543.629028320312
0, 4, 91, 1553.236938476562
0, 4, 92, 1492.039794921875
0, 4, 93, 1517.9091796875
0, 4, 94, 1483.37158203125
0, 4, 95, 1511.354248046875
0, 4, 96, 1442.228881835938
0, 4, 97, 1406.298706054688
0, 4, 98, 1553.432861328125
0, 4, 99, 1512.26123046875
0, 4, 100, 1492.471801757812
0, 4, 101, 1447.79248046875
0, 4, 102, 1448.656494140625
0, 4, 103, 1514.99853515625
0, 4, 104, 1513.075073242188
0, 4, 105, 1555.443603515625
0, 4, 106, 1475.619140625
0, 4, 107, 1458.243041992188
0, 4, 108, 1118.040649414062
0, 4, 109, 436.5318298339844
0, 4, 110, 95.63805389404297
0, 4, 111, 68.89141082763672
0, 4, 112, 62.64248275756836
0, 4, 113, 54.25615692138672
0, 4, 114, 53.10648345947266
0, 4, 115, 43.7968635559082
0, 4, 116, 36.71783065795898
0, 4, 117, 36.13884735107422
0, 4, 118, 42.23222732543945
0, 4, 119, 40.40861129760742
0, 4, 120, 31.98596382141113
0, 4, 121, 29.72290802001953
0, 4, 122, 31.57229995727539
0, 4, 123, 28.96282196044922
0, 4, 124, 21.70626258850098
0, 4, 125, 27.52426528930664
0, 4, 126, 23.10981941223145
0, 4, 127, 18.22290229797363
0, 5, 0, 21.3491382598877
0, 5, 1, 22.73134613037109
0, 5, 2, 30.39294052124023
0, 5, 3, 24.84390258789062
0, 5, 4, 22.18864631652832
0, 5, 5, 41.85631942749023
0, 5, 6, 25.5167350769043
0, 5, 7, 27.86434936523438
0, 5, 8, 31.31670951843262
0, 5, 9, 28.1206226348877
0, 5, 10, 33.13879013061523
0, 5, 11, 42.64632034301758
0, 5, 12, 39.329833984375
0, 5, 13, 41.66104507446289
0, 5, 14, 63.32189178466797
0, 5, 15, 78.41484832763672
0, 5, 16, 83.03354644775391
0, 5, 17, 157.1116027832031
0, 5, 18, 673.0106201171875
0, 5, 19, 1341.179321289062
0, 5, 20, 1525.612548828125
0, 5, 21, 1491.20166015625
0, 5, 22, 1497.051513671875
0, 5, 23, 1532.18603515625
0, 5, 24, 1463.71044921875
0, 5, 25, 1424.236450195312
0, 5, 26, 1526.314819335938
0, 5, 27, 1542.01220703125
0, 5, 28, 1485.808715820312
0, 5, 29, 1518.859619140625
0, 5, 30, 1494.957397460938
0, 5, 31, 1498.241088867188
0, 5, 32, 1595.494262695312
0, 5, 33, 1506.4296875
0, 5, 34, 1483.1962890625
0, 5, 35, 1512.426635742188
0, 5, 36, 1446.478759765625
0, 5, 37, 1538.190307617188
0, 5, 38, 1552.575317382812
0, 5, 39, 1545.7841796875
0, 5, 40, 1501.652709960938
0, 5, 41, 1479.386352539062
0, 5, 42, 1539.685791015625
0, 5, 43, 1533.89501953125
0, 5, 44, 1540.810180664062
0, 5, 45, 1506.465576171875
0, 5, 46, 1493.466064453125
0, 5, 47, 1486.508666992188
0, 5, 48, 1501.199951171875
0, 5, 49, 1520.772583007812
0, 5, 50, 1509.121704101562
0, 5, 51, 1517.535034179688
0, 5, 52, 1428.085571289062
0, 5, 53, 1524.492431640625
0, 5, 54, 1519.874755859375
0, 5, 55, 1523.776489257812
0, 5, 56, 1485.890258789062
0, 5, 57, 1538.083374023438
0, 5, 58, 1503.617431640625
0, 5, 59, 1483.025024414062
0, 5, 60, 1538.607666015625
0, 5, 61, 1448.904296875
0, 5, 62, 1581.619384765625
0, 5, 63, 1432.249267578125
0, 5, 64, 1491.596923828125
0, 5, 65, 1463.054931640625
0, 5, 66, 1525.3701171875
0, 5, 67, 1561.265625
0, 5, 68, 1459.8291015625
0, 5, 69, 1484.74560546875
0, 5, 70, 1492.822631835938
0, 5, 71, 1472.668334960938
0, 5, 72, 1533.197021484375
0, 5, 73, 1460.087158203125
0, 5, 74, 1492.873657226562
0, 5, 75, 1490.885498046875
0, 5, 76, 1476.92529296875
0, 5, 77, 1519.644775390625
0, 5, 78, 1523.591186523438
0, 5, 79, 1514.862060546875
0, 5, 80, 1521.586791992188
0, 5, 81, 1593.206787109375
0, 5, 82, 1527.642333984375
0, 5, 83, 1490.161499023438
0, 5, 84, 1529.45703125
0, 5, 85, 1518.1904296875
0, 5, 86, 1558.068725585938
0, 5, 87, 1473.534423828125
0, 5, 88, 1499.033813476562
0, 5, 89, 1479.370727539062
0, 5, 90, 1478.635620117188
0, 5, 91, 1550.243286132812
0, 5, 92, 1482.700073242188
0, 5, 93, 1561.078857421875
0, 5, 94, 1508.817016601562
0, 5, 95, 1560.045776367188
0, 5, 96, 1498.777587890625
0, 5, 97, 1510.02734375
0, 5, 98, 1509.121948242188
0, 5, 99, 1539.2373046875
0, 5, 100, 1435.841796875
0, 5, 101, 1424.712890625
0, 5, 102, 1513.715087890625
0, 5, 103, 1473.812622070312
0, 5, 104, 1463.234252929688
0, 5, 105, 1493.457763671875
0, 5, 106, 1456.56396484375
0, 5, 107, 1396.1533203125
0, 5, 108, 1285.9287109375
0, 5, 109, 720.4293823242188
0, 5, 110, 190.8542633056641
0, 5, 111, 89.72219848632812
0, 5, 112, 79.44476318359375
0, 5, 113, 61.68117141723633
0, 5, 114, 64.20612335205078
0, 5, 115, 53.39228439331055
0, 5, 116, 40.32658386230469
0, 5, 117, 36.86360931396484
0, 5, 118, 45.57147598266602
0, 5, 119, 23.60018348693848
0, 5, 120, 31.20194435119629
0, 5, 121, 25.34526824951172
0, 5, 122, 30.32834053039551
0, 5, 123, 29.5464973449707
0, 5, 124, 26.76556777954102
0, 5, 125, 19.69845390319824
0, 5, 126, 18.92014312744141
0, 5, 127, 19.44273376464844
0, 6, 0, 23.0314998626709
0, 6, 1, 25.73628807067871
0, 6, 2, 27.24146461486816
0, 6, 3, 29.2586841583252
0, 6, 4, 25.27349472045898
0, 6, 5, 38.84381484985352
0, 6, 6, 34.87693405151367
0, 6, 7, 32.47377395629883
0, 6, 8, 29.89439582824707
0, 6, 9, 34.09078979492188
0, 6, 10, 35.7552375793457
0, 6, 11, 40.15806579589844
0, 6, 12, 38.00690841674805
0, 6, 13, 58.02067947387695
0, 6, 14, 62.24227523803711
0, 6, 15, 84.50376892089844
0, 6, 16, 110.2273025512695
0, 6, 17, 295.9502868652344
0, 6, 18, 897.6206665039062
0, 6, 19, 1372.07568359375
0, 6, 20, 1438.406127929688
0, 6, 21, 1527.872802734375
0, 6, 22, 1501.305541992188
0, 6, 23, 1526.971557617188
0, 6, 24, 1479.104370117188
0, 6, 25, 1525.57763671875
0, 6, 26, 1519.66259765625
0, 6, 27, 1523.858154296875
0, 6, 28, 1549.886352539062
0, 6, 29, 1572.91162109375
0, 6, 30, 1517.105712890625
0, 6, 31, 1489.727783203125
0, 6, 32, 1530.025512695312
0, 6, 33, 1491.898071289062
0, 6, 34, 1557.265380859375
0, 6, 35, 1501.33203125
0, 6, 36, 1439.554077148438
0, 6, 37, 1544.179443359375
0, 6, 38, 1525.75439453125
0, 6, 39, 1521.8876953125
0, 6, 40, 1464.6865234375
0, 6, 41, 1445.699584960938
0, 6, 42, 1512.4287109375
0, 6, 43, 1489.503295898438
0, 6, 44, 1439.17626953125
0, 6, 45, 1541.937622070312
0, 6, 46, 1550.675903320312
0, 6, 47, 1495.162841796875
0, 6, 48, 1524.830932617188
0, 6, 49, 1510.969848632812
0, 6, 50, 1572.8994140625
0, 6, 51, 1504.633178710938
0, 6, 52, 1562.48193359375
0, 6, 53, 1475.521606445312
0, 6, 54, 1501.769653320312
0, 6, 55, 1573.588745117188
0, 6, 56, 1522.970825195312
0, 6, 57, 1501.540893554688
0, 6, 58, 1466.583374023438
0, 6, 59, 1522.72900390625
0, 6, 60, 1466.649780273438
0, 6, 61, 1570.66064453125
0, 6, 62, 1547.018310546875
0, 6, 63, 1494.452514648438
0, 6, 64, 1412.854248046875
0, 6, 65, 1486.826782226562
0, 6, 66, 1507.6787109375
0, 6, 67, 1513.492309570312
0, 6, 68, 1549.224853515625
0, 6, 69, 1486.64697265625
0, 6, 70, 1523.584716796875
0, 6, 71, 1470.263061523438
0, 6, 72, 1598.620971679688
0, 6, 73, 1487.93017578125
0, 6, 74, 1558.412231445312
0, 6, 75, 1537.1748046875
0, 6, 76, 1564.964111328125
0, 6, 77, 1503.833984375
0, 6, 78, 1446.380615234375
0, 6, 79, 1556.114990234375
0, 6, 80, 1477.578857421875
0, 6, 81, 1482.844360351562
0, 6, 82, 1504.340576171875
0, 6, 83, 1523.972778320312
0, 6, 84, 1518.556274414062
0, 6, 85, 1534.715087890625
0, 6, 86, 1542.520751953125
0, 6, 87, 1572.2685546875
0, 6, 88, 1479.474731445312
0, 6, 89, 1565.921630859375
0, 6, 90, 1489.544921875
0, 6, 91, 1540.578125
0, 6, 92, 1487.661743164062
0, 6, 93, 1497.560302734375
0, 6, 94, 1470.256469726562
0, 6, 95, 1511.428833007812
0, 6, 96, 1520.533325195312
0, 6, 97, 1508.804809570312
0, 6, 98, 1493.539184570312
0, 6, 99, 1478.18896484375
0, 6, 100, 1519.106689453125
0, 6, 101, 1516.591064453125
0, 6, 102, 1539.800170898438
0, 6, 103, 1496.161865234375
0, 6, 104, 1467.663940429688
0, 6, 105, 1487.158569335938
0, 6, 106, 1496.409423828125
0, 6, 107, 1505.562255859375
0, 6, 108, 1406.013793945312
0, 6, 109, 921.001953125
0, 6, 110, 282.9341430664062
0, 6, 111, 94.76174926757812
0, 6, 112, 75.32041168212891
0, 6, 113, 59.69989013671875
0, 6, 114, 55.95589447021484
0, 6, 115, 41.58636474609375
0, 6, 116, 39.91732025146484
0, 6, 117, 38.6636848449707
0, 6, 118, 41.286376953125
0, 6, 119, 36.24050140380859
0, 6, 120, 32.83138656616211
0, 6, 121, 28.43062400817871
0, 6, 122, 29.14453887939453
0, 6, 123, 24.33915901184082
0, 6, 124, 28.77131271362305
0, 6, 125, 34.09175872802734
0, 6, 126, 20.69301414489746
0, 6, 127, 26.73466110229492
0, 7, 0, 19.33979606628418
0, 7, 1, 26.12551689147949
0, 7, 2, 19.92527198791504
0, 7, 3, 24.96728134155273
0, 7, 4, 21.89656448364258
0, 7, 5, 36.70988845825195
0, 7, 6, 32.40476989746094
0, 7, 7, 36.90487289428711
0, 7, 8, 30.36276054382324
0, 7, 9, 36.93337631225586
0, 7, 10, 47.43803024291992
0, 7, 11, 47.46026992797852
0, 7, 12, 46.396728515625
0, 7, 13, 54.18410491943359
0, 7, 14, 61.73198699951172
0, 7, 15, 78.06840515136719
0, 7, 16, 128.8881225585938
0, 7, 17, 463.0289001464844
0, 7, 18, 1099.461181640625
0, 7, 19, 1504.860107421875
0, 7, 20, 1487.729858398438
0, 7, 21, 1367.789916992188
0, 7, 22, 1485.659912109375
0, 7, 23, 1454.98828125
0, 7, 24, 1512.388671875
0, 7, 25, 1593.703857421875
0, 7, 26, 1521.648193359375
0, 7, 27, 1513.1982421875
0, 7, 28, 1548.426147460938
0, 7, 29, 1570.71142578125
0, 7, 30, 1553.57763671875
0, 7, 31, 1437.322631835938
0, 7, 32, 1542.271240234375
0, 7, 33, 1485.645874023438
0, 7, 34, 1478.65771484375
0, 7, 35, 1525.987426757812
0, 7, 36, 1473.816772460938
0, 7, 37, 1598.989501953125
0, 7, 38, 1502.431640625
0, 7, 39, 1492.8955078125
0, 7, 40, 1543.423706054688
0, 7, 41, 1466.318237304688
0, 7, 42, 1485.335327148438
0, 7, 43, 1444.080932617188
0, 7, 44, 1487.91552734375
0, 7, 45, 1467.687622070312
0, 7, 46, 1510.5947265625
0, 7, 47, 1566.048950195312
0, 7, 48, 1524.77685546875
0, 7, 49, 1541.259521484375
0, 7, 50, 1511.326904296875
0, 7, 51, 1500.92626953125
0, 7, 52, 1518.652709960938
0, 7, 53, 1494.220092773438
0, 7, 54, 1586.991821289062
0, 7, 55, 1472.665771484375
0, 7, 56, 1553.567626953125
0, 7, 57, 1515.092529296875
0, 7, 58, 1552.370361328125
0, 7, 59, 1539.222290039062
0, 7, 60, 1551.360961914062
0, 7, 61, 1490.315551757812
0, 7, 62, 1433.717529296875
0, 7, 63, 1513.350708007812
0, 7, 64, 1547.99462890625
0, 7, 65, 1528.84130859375
0, 7, 66, 1537.352783203125
0, 7, 67, 1579.559448242188
0, 7, 68, 1528.173095703125
0, 7, 69, 1517.790283203125
0, 7, 70, 1496.818237304688
0, 7, 71, 1524.63818359375
0, 7, 72, 1524.217529296875
0, 7, 73, 1517.262084960938
0, 7, 74, 1574.98388671875
0, 7, 75, 1537.769287109375
0, 7, 76, 1557.620239257812
0, 7, 77, 1511.606689453125
0, 7, 78, 1506.91650390625
0, 7, 79, 1424.554565429688
0, 7, 80, 1486.497192382812
0, 7, 81, 1490.912719726562
0, 7, 82, 1533.17529296875
0, 7, 83, 1542.077026367188
0, 7, 84, 1585.824951171875
0, 7, 85, 1485.610473632812
0, 7, 86, 1500.582885742188
0, 7, 87, 1504.658325195312
0, 7, 88, 1494.372192382812
0, 7, 89, 1554.471069335938
0, 7, 90, 1527.9580078125
0, 7, 91, 1562.93408203125
0, 7, 92, 1529.587646484375
0, 7, 93, 1556.397705078125
0, 7, 94, 1539.708251953125
0, 7, 95, 1503.025268554688
0, 7, 96, 1503.626098632812
0, 7, 97, 1434.357055664062
0, 7, 98, 1481.201538085938
0, 7, 99, 1532.62939453125
0, 7, 100, 1418.517456054688
0, 7, 101, 1465.477905273438
0, 7, 102, 1449.943969726562
0, 7, 103, 1429.748657226562
0, 7, 104, 1492.671508789062
0, 7, 105, 1519.534423828125
0, 7, 106, 1571.376098632812
0, 7, 107, 1489.928833007812
0, 7, 108, 1407.997680664062
0, 7, 109, 1154.564453125
0, 7, 110, 467.8044738769531
0, 7, 111, 126.9258880615234
0, 7, 112, 80.57527923583984
0, 7, 113, 66.08545684814453
0, 7, 114, 60.14912414550781
0, 7, 115, 49.46176528930664
0, 7, 116, 48.02128601074219
0, 7, 117, 43.86977005004883
0, 7, 118, 37.35843658447266
0, 7, 119, 37.13397979736328
0, 7, 120, 27.08382034301758
0, 7, 121, 30.32805824279785
0, 7, 122, 37.79522323608398
0, 7, 123, 33.99636077880859
0, 7, 124, 29.76540184020996
0, 7, 125, 22.82830429077148
0, 7, 126, 22.95622634887695
0, 7, 127, 22.63891220092773
0, 8, 0, 21.27616691589355
0, 8, 1, 20.10942268371582
0, 8, 2, 24.17763900756836
0, 8, 3, 23.92624282836914
0, 8, 4, 23.88755226135254
0, 8, 5, 35.44122314453125
0, 8, 6, 31.82434272766113
0, 8, 7, 26.10968780517578
0, 8, 8, 40.67142868041992
0, 8, 9, 47.51593399047852
0, 8, 10, 47.58828735351562
0, 8, 11, 45.733154296875
0, 8, 12, 56.62072372436523
0, 8, 13, 66.29776763916016
0, 8, 14, 67.15093994140625
0, 8, 15, 83.88193511962891
0, 8, 16, 168.3975982666016
0, 8, 17, 674.089599609375
0, 8, 18, 1277.243896484375
0, 8, 19, 1452.210571289062
0, 8, 20, 1421.580078125
0, 8, 21, 1408.452026367188
0, 8, 22, 1487.845703125
0, 8, 23, 1479.346923828125
0, 8, 24, 1432.6083984375
0, 8, 25, 1454.798950195312
0, 8, 26, 1510.0810546875
0, 8, 27, 1521.993041992188
0, 8, 28, 1479.302734375
0, 8, 29, 1504.828247070312
0, 8, 30, 1486.905395507812
0, 8, 31, 1536.159057617188
0, 8, 32, 1504.309814453125
0, 8, 33, 1479.482177734375
0, 8, 34, 1531.333129882812
0, 8, 35, 1438.938354492188
0, 8, 36, 1500.70556640625
0, 8, 37, 1554.2763671875
0, 8, 38, 1551.12939453125
0, 8, 39, 1493.0888671875
0, 8, 40, 1533.581176757812
0, 8, 41, 1484.57421875
0, 8, 42, 1541.000366210938
0, 8, 43, 1430.9853515625
0, 8, 44, 1536.756225585938
0, 8, 45, 1511.10888671875
0, 8, 46, 1597.298095703125
0, 8, 47, 1587.880249023438
