# TOPAS Version: 3.1.p3
# Parameter File: batch_inserts_138.txt
# Results for scorer Readout_Adipose
# Scored in component: MyBox
# X in 1 bin  of 0.75 cm
# Y in 512 bins of 0.0783984 cm
# Z in 128 bins of 0.078125 cm
# EnergyDeposit ( MeV ) : Sum   
0, 0, 0, 4.777544975280762
0, 0, 1, 1.719233274459839
0, 0, 2, 4.720434188842773
0, 0, 3, 2.518835544586182
0, 0, 4, 3.34689998626709
0, 0, 5, 1.605780124664307
0, 0, 6, 7.463481426239014
0, 0, 7, 8.020225524902344
0, 0, 8, 2.899678707122803
0, 0, 9, 6.161144733428955
0, 0, 10, 7.116315841674805
0, 0, 11, 4.625614166259766
0, 0, 12, 4.835896015167236
0, 0, 13, 7.679594039916992
0, 0, 14, 7.83478307723999
0, 0, 15, 10.46935653686523
0, 0, 16, 8.883448600769043
0, 0, 17, 9.964242935180664
0, 0, 18, 14.46942806243896
0, 0, 19, 43.27996826171875
0, 0, 20, 138.9235992431641
0, 0, 21, 223.3768615722656
0, 0, 22, 248.8497924804688
0, 0, 23, 256.4385375976562
0, 0, 24, 252.2002258300781
0, 0, 25, 259.1926574707031
0, 0, 26, 233.2703704833984
0, 0, 27, 237.3298797607422
0, 0, 28, 273.3470458984375
0, 0, 29, 251.8371429443359
0, 0, 30, 233.7391815185547
0, 0, 31, 244.0086212158203
0, 0, 32, 263.3731384277344
0, 0, 33, 262.4452209472656
0, 0, 34, 289.2666015625
0, 0, 35, 268.0198669433594
0, 0, 36, 247.2622680664062
0, 0, 37, 252.6715240478516
0, 0, 38, 269.3113403320312
0, 0, 39, 229.4554138183594
0, 0, 40, 240.9012756347656
0, 0, 41, 264.9114990234375
0, 0, 42, 228.4907379150391
0, 0, 43, 259.5722351074219
0, 0, 44, 252.938720703125
0, 0, 45, 252.1675872802734
0, 0, 46, 243.9970703125
0, 0, 47, 252.7883911132812
0, 0, 48, 266.6488647460938
0, 0, 49, 274.4904479980469
0, 0, 50, 251.5433807373047
0, 0, 51, 255.5461883544922
0, 0, 52, 272.3022766113281
0, 0, 53, 293.8540344238281
0, 0, 54, 240.9360046386719
0, 0, 55, 239.9853363037109
0, 0, 56, 278.1582641601562
0, 0, 57, 265.4513244628906
0, 0, 58, 245.0737457275391
0, 0, 59, 271.7223815917969
0, 0, 60, 234.2183837890625
0, 0, 61, 245.0021820068359
0, 0, 62, 257.5891418457031
0, 0, 63, 265.8178100585938
0, 0, 64, 255.8959808349609
0, 0, 65, 262.1488342285156
0, 0, 66, 277.2449340820312
0, 0, 67, 246.0495452880859
0, 0, 68, 258.7826843261719
0, 0, 69, 262.6494445800781
0, 0, 70, 272.3457336425781
0, 0, 71, 238.2505950927734
0, 0, 72, 249.4643096923828
0, 0, 73, 257.9459838867188
0, 0, 74, 251.8512878417969
0, 0, 75, 240.3090667724609
0, 0, 76, 229.9843902587891
0, 0, 77, 259.4718627929688
0, 0, 78, 257.4621887207031
0, 0, 79, 278.0023193359375
0, 0, 80, 214.5836944580078
0, 0, 81, 265.9348754882812
0, 0, 82, 255.6476593017578
0, 0, 83, 245.2628173828125
0, 0, 84, 270.7411193847656
0, 0, 85, 231.524169921875
0, 0, 86, 253.7550964355469
0, 0, 87, 250.9593811035156
0, 0, 88, 260.5439758300781
0, 0, 89, 283.3639831542969
0, 0, 90, 245.1322174072266
0, 0, 91, 282.034423828125
0, 0, 92, 254.8294372558594
0, 0, 93, 249.7631530761719
0, 0, 94, 249.5933837890625
0, 0, 95, 247.8311767578125
0, 0, 96, 274.326171875
0, 0, 97, 272.8255920410156
0, 0, 98, 272.9649963378906
0, 0, 99, 260.1087646484375
0, 0, 100, 258.5942077636719
0, 0, 101, 225.8050842285156
0, 0, 102, 233.7275390625
0, 0, 103, 270.5721740722656
0, 0, 104, 254.6952667236328
0, 0, 105, 254.3211364746094
0, 0, 106, 245.6099395751953
0, 0, 107, 152.6817932128906
0, 0, 108, 37.70220565795898
0, 0, 109, 10.97825527191162
0, 0, 110, 13.2465238571167
0, 0, 111, 10.85885429382324
0, 0, 112, 9.026121139526367
0, 0, 113, 5.938183307647705
0, 0, 114, 6.602712631225586
0, 0, 115, 6.230653762817383
0, 0, 116, 5.119566917419434
0, 0, 117, 6.045835018157959
0, 0, 118, 6.060014724731445
0, 0, 119, 4.291195392608643
0, 0, 120, 4.720996379852295
0, 0, 121, 2.584131002426147
0, 0, 122, 2.524619340896606
0, 0, 123, 4.277639865875244
0, 0, 124, 4.445167541503906
0, 0, 125, 2.594560623168945
0, 0, 126, 5.934210300445557
0, 0, 127, 3.23145866394043
0, 1, 0, 7.156777381896973
0, 1, 1, 3.08203125
0, 1, 2, 4.817319869995117
0, 1, 3, 2.59022855758667
0, 1, 4, 4.300214767456055
0, 1, 5, 3.820284128189087
0, 1, 6, 6.372794151306152
0, 1, 7, 6.467027187347412
0, 1, 8, 7.781267166137695
0, 1, 9, 5.617372035980225
0, 1, 10, 6.718934059143066
0, 1, 11, 12.9461669921875
0, 1, 12, 8.126323699951172
0, 1, 13, 8.637548446655273
0, 1, 14, 7.476641654968262
0, 1, 15, 7.010956287384033
0, 1, 16, 11.03982257843018
0, 1, 17, 10.17231178283691
0, 1, 18, 21.38014221191406
0, 1, 19, 65.955078125
0, 1, 20, 199.3786926269531
0, 1, 21, 256.2884216308594
0, 1, 22, 297.7077026367188
0, 1, 23, 282.7462768554688
0, 1, 24, 275.2305908203125
0, 1, 25, 290.8262939453125
0, 1, 26, 267.3967590332031
0, 1, 27, 307.0516357421875
0, 1, 28, 300.6882019042969
0, 1, 29, 294.4493103027344
0, 1, 30, 282.3720703125
0, 1, 31, 291.8647155761719
0, 1, 32, 290.7401428222656
0, 1, 33, 295.0621337890625
0, 1, 34, 291.453125
0, 1, 35, 277.8084106445312
0, 1, 36, 306.6323547363281
0, 1, 37, 296.8037719726562
0, 1, 38, 279.28955078125
0, 1, 39, 294.5045776367188
0, 1, 40, 265.5016784667969
0, 1, 41, 287.7924194335938
0, 1, 42, 290.2992858886719
0, 1, 43, 331.2178344726562
0, 1, 44, 277.714111328125
0, 1, 45, 292.1598815917969
0, 1, 46, 258.5554809570312
0, 1, 47, 311.3586120605469
0, 1, 48, 284.1661987304688
0, 1, 49, 305.5960388183594
0, 1, 50, 264.6934204101562
0, 1, 51, 272.1820068359375
0, 1, 52, 295.00732421875
0, 1, 53, 303.7594299316406
0, 1, 54, 275.0279541015625
0, 1, 55, 294.7683715820312
0, 1, 56, 276.9818725585938
0, 1, 57, 298.0653381347656
0, 1, 58, 310.7717590332031
0, 1, 59, 290.8978271484375
0, 1, 60, 297.5277709960938
0, 1, 61, 274.0863342285156
0, 1, 62, 310.4292297363281
0, 1, 63, 286.5779418945312
0, 1, 64, 290.9413146972656
0, 1, 65, 296.3953247070312
0, 1, 66, 294.4973449707031
0, 1, 67, 290.6287841796875
0, 1, 68, 277.044189453125
0, 1, 69, 279.0761413574219
0, 1, 70, 271.8896484375
0, 1, 71, 272.9436340332031
0, 1, 72, 285.5775146484375
0, 1, 73, 304.6500854492188
0, 1, 74, 304.762939453125
0, 1, 75, 291.6756591796875
0, 1, 76, 284.6399841308594
0, 1, 77, 288.3243713378906
0, 1, 78, 301.3865966796875
0, 1, 79, 302.1055908203125
0, 1, 80, 296.2642822265625
0, 1, 81, 301.2560119628906
0, 1, 82, 284.2277221679688
0, 1, 83, 333.3395690917969
0, 1, 84, 309.9086608886719
0, 1, 85, 253.9448699951172
0, 1, 86, 294.2561950683594
0, 1, 87, 290.6070556640625
0, 1, 88, 298.6792297363281
0, 1, 89, 291.0756225585938
0, 1, 90, 270.6605529785156
0, 1, 91, 317.47412109375
0, 1, 92, 291.8534851074219
0, 1, 93, 286.3176574707031
0, 1, 94, 303.798583984375
0, 1, 95, 283.4587707519531
0, 1, 96, 282.3491821289062
0, 1, 97, 304.1779174804688
0, 1, 98, 276.4998474121094
0, 1, 99, 267.4916687011719
0, 1, 100, 277.5933532714844
0, 1, 101, 280.3235168457031
0, 1, 102, 276.3172912597656
0, 1, 103, 280.9544372558594
0, 1, 104, 305.9392700195312
0, 1, 105, 296.5199279785156
0, 1, 106, 260.7728881835938
0, 1, 107, 191.9771118164062
0, 1, 108, 80.9891357421875
0, 1, 109, 23.35446929931641
0, 1, 110, 11.25942420959473
0, 1, 111, 8.468631744384766
0, 1, 112, 11.9319314956665
0, 1, 113, 6.806150436401367
0, 1, 114, 6.191432476043701
0, 1, 115, 6.218328475952148
0, 1, 116, 9.285062789916992
0, 1, 117, 6.358535766601562
0, 1, 118, 5.484736442565918
0, 1, 119, 5.693588733673096
0, 1, 120, 6.460402488708496
0, 1, 121, 3.831235408782959
0, 1, 122, 2.564444541931152
0, 1, 123, 4.693736553192139
0, 1, 124, 8.167505264282227
0, 1, 125, 3.560772657394409
0, 1, 126, 2.875635623931885
0, 1, 127, 2.477660179138184
0, 2, 0, 2.826485157012939
0, 2, 1, 2.680617332458496
0, 2, 2, 4.32418155670166
0, 2, 3, 5.920521259307861
0, 2, 4, 2.652878284454346
0, 2, 5, 3.371294260025024
0, 2, 6, 2.779285430908203
0, 2, 7, 4.687128067016602
0, 2, 8, 4.308840751647949
0, 2, 9, 4.412224292755127
0, 2, 10, 9.044724464416504
0, 2, 11, 4.92944860458374
0, 2, 12, 6.812856197357178
0, 2, 13, 9.288468360900879
0, 2, 14, 10.71393394470215
0, 2, 15, 7.456470489501953
0, 2, 16, 8.823339462280273
0, 2, 17, 17.58676147460938
0, 2, 18, 31.3579158782959
0, 2, 19, 115.8621978759766
0, 2, 20, 247.5499267578125
0, 2, 21, 271.0469970703125
0, 2, 22, 315.9039001464844
0, 2, 23, 302.2471923828125
0, 2, 24, 284.7958679199219
0, 2, 25, 301.26171875
0, 2, 26, 292.2515563964844
0, 2, 27, 276.2719116210938
0, 2, 28, 273.83740234375
0, 2, 29, 274.8901977539062
0, 2, 30, 288.3293762207031
0, 2, 31, 278.1515502929688
0, 2, 32, 294.4468383789062
0, 2, 33, 281.2956848144531
0, 2, 34, 334.3833312988281
0, 2, 35, 288.3720703125
0, 2, 36, 303.7416687011719
0, 2, 37, 317.1934204101562
0, 2, 38, 310.7882995605469
0, 2, 39, 268.0375061035156
0, 2, 40, 309.0059509277344
0, 2, 41, 292.0476989746094
0, 2, 42, 304.6954040527344
0, 2, 43, 313.3847351074219
0, 2, 44, 311.6458435058594
0, 2, 45, 324.9129638671875
0, 2, 46, 286.9778747558594
0, 2, 47, 303.0643310546875
0, 2, 48, 283.0380554199219
0, 2, 49, 281.3533020019531
0, 2, 50, 294.3104858398438
0, 2, 51, 282.2981567382812
0, 2, 52, 272.3839416503906
0, 2, 53, 285.6233215332031
0, 2, 54, 281.3624267578125
0, 2, 55, 279.7815856933594
0, 2, 56, 302.2129821777344
0, 2, 57, 290.3925170898438
0, 2, 58, 301.9495544433594
0, 2, 59, 291.842041015625
0, 2, 60, 318.4952087402344
0, 2, 61, 301.4862060546875
0, 2, 62, 312.5655517578125
0, 2, 63, 303.9624938964844
0, 2, 64, 295.56005859375
0, 2, 65, 312.9293212890625
0, 2, 66, 279.7484130859375
0, 2, 67, 290.7308349609375
0, 2, 68, 296.0271911621094
0, 2, 69, 310.7268676757812
0, 2, 70, 333.9233093261719
0, 2, 71, 283.5077209472656
0, 2, 72, 300.7659301757812
0, 2, 73, 312.8172302246094
0, 2, 74, 288.7008972167969
0, 2, 75, 303.8985595703125
0, 2, 76, 288.1387023925781
0, 2, 77, 298.796630859375
0, 2, 78, 314.3736572265625
0, 2, 79, 307.9190063476562
0, 2, 80, 296.7118835449219
0, 2, 81, 283.1978454589844
0, 2, 82, 320.3289489746094
0, 2, 83, 313.1455078125
0, 2, 84, 287.52392578125
0, 2, 85, 280.2532043457031
0, 2, 86, 325.7523498535156
0, 2, 87, 286.6306457519531
0, 2, 88, 279.5863342285156
0, 2, 89, 296.7337341308594
0, 2, 90, 295.4205932617188
0, 2, 91, 277.2797241210938
0, 2, 92, 305.3419189453125
0, 2, 93, 317.173095703125
0, 2, 94, 290.0583190917969
0, 2, 95, 315.8235168457031
0, 2, 96, 314.8984680175781
0, 2, 97, 289.595458984375
0, 2, 98, 292.2650756835938
0, 2, 99, 273.43212890625
0, 2, 100, 306.4313354492188
0, 2, 101, 301.6489868164062
0, 2, 102, 297.1933288574219
0, 2, 103, 292.1577453613281
0, 2, 104, 292.2335205078125
0, 2, 105, 276.0123291015625
0, 2, 106, 294.9100646972656
0, 2, 107, 268.3468627929688
0, 2, 108, 117.4441757202148
0, 2, 109, 33.22300720214844
0, 2, 110, 9.673807144165039
0, 2, 111, 11.42554378509521
0, 2, 112, 7.882836818695068
0, 2, 113, 8.877511024475098
0, 2, 114, 9.718755722045898
0, 2, 115, 8.700339317321777
0, 2, 116, 8.633350372314453
0, 2, 117, 8.355517387390137
0, 2, 118, 3.255462884902954
0, 2, 119, 5.217051029205322
0, 2, 120, 7.750324249267578
0, 2, 121, 2.09594988822937
0, 2, 122, 4.006929397583008
0, 2, 123, 3.762383937835693
0, 2, 124, 3.685899019241333
0, 2, 125, 5.748271465301514
0, 2, 126, 2.790591239929199
0, 2, 127, 5.162176132202148
0, 3, 0, 4.015371322631836
0, 3, 1, 2.793198823928833
0, 3, 2, 4.267930507659912
0, 3, 3, 2.197795867919922
0, 3, 4, 4.351566314697266
0, 3, 5, 6.867666721343994
0, 3, 6, 5.940568447113037
0, 3, 7, 4.532773971557617
0, 3, 8, 5.384535789489746
0, 3, 9, 6.102519512176514
0, 3, 10, 8.341001510620117
0, 3, 11, 5.000133514404297
0, 3, 12, 8.475505828857422
0, 3, 13, 14.45698833465576
0, 3, 14, 10.8746337890625
0, 3, 15, 14.39048862457275
0, 3, 16, 12.14307689666748
0, 3, 17, 21.47851181030273
0, 3, 18, 54.02654647827148
0, 3, 19, 176.7876129150391
0, 3, 20, 268.8233642578125
0, 3, 21, 270.9481506347656
0, 3, 22, 282.7666320800781
0, 3, 23, 287.1875305175781
0, 3, 24, 287.5607604980469
0, 3, 25, 272.9552612304688
0, 3, 26, 302.9989624023438
0, 3, 27, 291.4332885742188
0, 3, 28, 281.5536499023438
0, 3, 29, 338.7080993652344
0, 3, 30, 315.6739807128906
0, 3, 31, 285.640380859375
0, 3, 32, 308.1336364746094
0, 3, 33, 313.4327697753906
0, 3, 34, 319.8616027832031
0, 3, 35, 305.7123718261719
0, 3, 36, 270.0038452148438
0, 3, 37, 312.7592163085938
0, 3, 38, 304.249755859375
0, 3, 39, 291.1731262207031
0, 3, 40, 268.0619201660156
0, 3, 41, 303.225830078125
0, 3, 42, 284.0668334960938
0, 3, 43, 308.2364501953125
0, 3, 44, 309.5012817382812
0, 3, 45, 290.1080627441406
0, 3, 46, 329.4255065917969
0, 3, 47, 298.8898620605469
0, 3, 48, 304.87255859375
0, 3, 49, 276.3946228027344
0, 3, 50, 291.4403381347656
0, 3, 51, 275.6817321777344
0, 3, 52, 316.1795959472656
0, 3, 53, 287.1999206542969
0, 3, 54, 285.0082397460938
0, 3, 55, 283.2936706542969
0, 3, 56, 299.4782409667969
0, 3, 57, 287.9672241210938
0, 3, 58, 307.8595275878906
0, 3, 59, 295.0152282714844
0, 3, 60, 298.0582580566406
0, 3, 61, 265.5351867675781
0, 3, 62, 286.9295959472656
0, 3, 63, 305.4993591308594
0, 3, 64, 315.5832214355469
0, 3, 65, 304.7596740722656
0, 3, 66, 315.5682373046875
0, 3, 67, 319.2687377929688
0, 3, 68, 280.9153137207031
0, 3, 69, 283.870849609375
0, 3, 70, 288.6283874511719
0, 3, 71, 299.4453430175781
0, 3, 72, 268.4480590820312
0, 3, 73, 308.7072448730469
0, 3, 74, 292.52294921875
0, 3, 75, 291.0455322265625
0, 3, 76, 306.7200317382812
0, 3, 77, 315.3328552246094
0, 3, 78, 304.4370727539062
0, 3, 79, 284.2289123535156
0, 3, 80, 290.2635803222656
0, 3, 81, 311.3577575683594
0, 3, 82, 314.4009704589844
0, 3, 83, 302.0159301757812
0, 3, 84, 311.1647338867188
0, 3, 85, 294.1816711425781
0, 3, 86, 301.5281372070312
0, 3, 87, 296.812744140625
0, 3, 88, 300.5856628417969
0, 3, 89, 299.5854187011719
0, 3, 90, 276.5064697265625
0, 3, 91, 283.2895812988281
0, 3, 92, 303.1044311523438
0, 3, 93, 313.4736938476562
0, 3, 94, 299.4169311523438
0, 3, 95, 334.4464416503906
0, 3, 96, 291.2577209472656
0, 3, 97, 285.3464660644531
0, 3, 98, 276.1935424804688
0, 3, 99, 261.3161315917969
0, 3, 100, 284.5715026855469
0, 3, 101, 295.5018615722656
0, 3, 102, 273.7240295410156
0, 3, 103, 322.0138854980469
0, 3, 104, 307.9349975585938
0, 3, 105, 288.0944213867188
0, 3, 106, 303.5673522949219
0, 3, 107, 283.7432556152344
0, 3, 108, 167.0577239990234
0, 3, 109, 56.7703971862793
0, 3, 110, 18.36034202575684
0, 3, 111, 12.40261459350586
0, 3, 112, 14.66866207122803
0, 3, 113, 7.732658863067627
0, 3, 114, 9.47309684753418
0, 3, 115, 7.171213626861572
0, 3, 116, 9.955561637878418
0, 3, 117, 9.283665657043457
0, 3, 118, 9.144277572631836
0, 3, 119, 5.964272499084473
0, 3, 120, 8.361750602722168
0, 3, 121, 3.833753824234009
0, 3, 122, 3.543323993682861
0, 3, 123, 4.57480001449585
0, 3, 124, 4.163443088531494
0, 3, 125, 6.327764511108398
0, 3, 126, 5.807755947113037
0, 3, 127, 2.382404565811157
0, 4, 0, 2.62480092048645
0, 4, 1, 4.831456661224365
0, 4, 2, 2.804060935974121
0, 4, 3, 3.191467523574829
0, 4, 4, 4.852389812469482
0, 4, 5, 9.204236030578613
0, 4, 6, 6.609860897064209
0, 4, 7, 5.209999084472656
0, 4, 8, 4.980041980743408
0, 4, 9, 5.704875946044922
0, 4, 10, 7.370665550231934
0, 4, 11, 5.680897235870361
0, 4, 12, 5.602353096008301
0, 4, 13, 7.43804407119751
0, 4, 14, 10.98384094238281
0, 4, 15, 8.454585075378418
0, 4, 16, 16.25246047973633
0, 4, 17, 20.75986289978027
0, 4, 18, 92.63023376464844
0, 4, 19, 222.487060546875
0, 4, 20, 285.3659057617188
0, 4, 21, 272.5812377929688
0, 4, 22, 305.14013671875
0, 4, 23, 270.129150390625
0, 4, 24, 288.6412963867188
0, 4, 25, 272.8954162597656
0, 4, 26, 296.7351684570312
0, 4, 27, 282.4066162109375
0, 4, 28, 306.6354064941406
0, 4, 29, 324.1357421875
0, 4, 30, 310.3390502929688
0, 4, 31, 303.3874816894531
0, 4, 32, 283.1459350585938
0, 4, 33, 296.2454528808594
0, 4, 34, 298.7823181152344
0, 4, 35, 311.9805908203125
0, 4, 36, 292.6725769042969
0, 4, 37, 287.531494140625
0, 4, 38, 298.4089965820312
0, 4, 39, 293.8198852539062
0, 4, 40, 300.9827575683594
0, 4, 41, 310.4173583984375
0, 4, 42, 327.7345275878906
0, 4, 43, 296.6389465332031
0, 4, 44, 320.9126892089844
0, 4, 45, 324.8061828613281
0, 4, 46, 305.5589599609375
0, 4, 47, 293.4127502441406
0, 4, 48, 295.4052734375
0, 4, 49, 276.7266845703125
0, 4, 50, 296.0712585449219
0, 4, 51, 314.8533630371094
0, 4, 52, 326.4653625488281
0, 4, 53, 302.7047424316406
0, 4, 54, 287.7038879394531
0, 4, 55, 315.0779418945312
0, 4, 56, 288.4603576660156
0, 4, 57, 313.1583862304688
0, 4, 58, 296.9798278808594
0, 4, 59, 307.2160034179688
0, 4, 60, 301.5597839355469
0, 4, 61, 315.5799865722656
0, 4, 62, 310.1358642578125
0, 4, 63, 304.0461120605469
0, 4, 64, 329.2938232421875
0, 4, 65, 317.9885559082031
0, 4, 66, 293.4808654785156
0, 4, 67, 285.1558227539062
0, 4, 68, 314.18994140625
0, 4, 69, 275.9335327148438
0, 4, 70, 298.6028137207031
0, 4, 71, 320.2259216308594
0, 4, 72, 332.0328674316406
0, 4, 73, 298.1182556152344
0, 4, 74, 294.5944213867188
0, 4, 75, 289.4715270996094
0, 4, 76, 275.5201110839844
0, 4, 77, 276.9104614257812
0, 4, 78, 309.4960327148438
0, 4, 79, 318.5591735839844
0, 4, 80, 316.2168579101562
0, 4, 81, 312.0779724121094
0, 4, 82, 297.8870544433594
0, 4, 83, 300.8851928710938
0, 4, 84, 293.8932189941406
0, 4, 85, 294.740966796875
0, 4, 86, 296.47900390625
0, 4, 87, 285.3228149414062
0, 4, 88, 305.6852722167969
0, 4, 89, 295.5143737792969
0, 4, 90, 334.4918518066406
0, 4, 91, 302.8294982910156
0, 4, 92, 291.1370544433594
0, 4, 93, 296.5985717773438
0, 4, 94, 292.2774658203125
0, 4, 95, 288.3192138671875
0, 4, 96, 324.1366271972656
0, 4, 97, 273.6689453125
0, 4, 98, 326.0650939941406
0, 4, 99, 314.4722900390625
0, 4, 100, 301.114013671875
0, 4, 101, 258.6085205078125
0, 4, 102, 297.0089721679688
0, 4, 103, 317.1046447753906
0, 4, 104, 281.2889709472656
0, 4, 105, 309.7757873535156
0, 4, 106, 287.5555725097656
0, 4, 107, 294.4710998535156
0, 4, 108, 225.2554626464844
0, 4, 109, 79.89234924316406
0, 4, 110, 15.97910022735596
0, 4, 111, 14.29740810394287
0, 4, 112, 7.670001983642578
0, 4, 113, 8.264204978942871
0, 4, 114, 7.160714149475098
0, 4, 115, 9.378419876098633
0, 4, 116, 8.425642967224121
0, 4, 117, 5.76844310760498
0, 4, 118, 10.98118495941162
0, 4, 119, 11.16190814971924
0, 4, 120, 5.683358669281006
0, 4, 121, 4.898511409759521
0, 4, 122, 2.989037036895752
0, 4, 123, 5.758950233459473
0, 4, 124, 6.802532196044922
0, 4, 125, 13.62905883789062
0, 4, 126, 5.601027011871338
0, 4, 127, 4.336312770843506
0, 5, 0, 2.873327493667603
0, 5, 1, 2.391907215118408
0, 5, 2, 6.676359176635742
0, 5, 3, 4.056854248046875
0, 5, 4, 5.828588008880615
0, 5, 5, 6.863173007965088
0, 5, 6, 6.964556217193604
0, 5, 7, 5.077671527862549
0, 5, 8, 4.605427265167236
0, 5, 9, 4.58698844909668
0, 5, 10, 5.823418617248535
0, 5, 11, 8.396888732910156
0, 5, 12, 10.52062225341797
0, 5, 13, 4.535186290740967
0, 5, 14, 13.39912796020508
0, 5, 15, 16.0871753692627
0, 5, 16, 15.04218101501465
0, 5, 17, 30.10001373291016
0, 5, 18, 137.072265625
0, 5, 19, 286.5992126464844
0, 5, 20, 308.7648315429688
0, 5, 21, 318.9553833007812
0, 5, 22, 276.7421569824219
0, 5, 23, 312.6298217773438
0, 5, 24, 306.5093994140625
0, 5, 25, 289.5778198242188
0, 5, 26, 293.9098205566406
0, 5, 27, 322.3504943847656
0, 5, 28, 301.2772521972656
0, 5, 29, 299.4547424316406
0, 5, 30, 322.7639770507812
0, 5, 31, 285.9429321289062
0, 5, 32, 306.7818908691406
0, 5, 33, 304.600341796875
0, 5, 34, 296.5709838867188
0, 5, 35, 309.4334716796875
0, 5, 36, 271.9919128417969
0, 5, 37, 282.3967590332031
0, 5, 38, 292.6203918457031
0, 5, 39, 311.6774291992188
0, 5, 40, 308.0200805664062
0, 5, 41, 272.1562805175781
0, 5, 42, 305.6160278320312
0, 5, 43, 313.186279296875
0, 5, 44, 290.4999084472656
0, 5, 45, 301.59521484375
0, 5, 46, 266.4688720703125
0, 5, 47, 281.0448608398438
0, 5, 48, 294.707275390625
0, 5, 49, 286.5530395507812
0, 5, 50, 294.9037780761719
0, 5, 51, 279.1630249023438
0, 5, 52, 269.732666015625
0, 5, 53, 285.9349975585938
0, 5, 54, 292.5298461914062
0, 5, 55, 343.900390625
0, 5, 56, 306.0953674316406
0, 5, 57, 306.6631469726562
0, 5, 58, 313.6593322753906
0, 5, 59, 301.3636779785156
0, 5, 60, 305.8377990722656
0, 5, 61, 280.3265380859375
0, 5, 62, 323.1640930175781
0, 5, 63, 293.0021362304688
0, 5, 64, 323.7527770996094
0, 5, 65, 308.0866088867188
0, 5, 66, 327.7004089355469
0, 5, 67, 315.9589538574219
0, 5, 68, 307.428955078125
0, 5, 69, 311.9318542480469
0, 5, 70, 301.0965270996094
0, 5, 71, 272.666748046875
0, 5, 72, 310.4248657226562
0, 5, 73, 302.5672912597656
0, 5, 74, 294.7437438964844
0, 5, 75, 293.0770568847656
0, 5, 76, 285.2635803222656
0, 5, 77, 296.4401550292969
0, 5, 78, 316.9177551269531
0, 5, 79, 307.5735168457031
0, 5, 80, 295.2830505371094
0, 5, 81, 324.9994506835938
0, 5, 82, 322.8963928222656
0, 5, 83, 281.8630065917969
0, 5, 84, 300.4516906738281
0, 5, 85, 273.0674133300781
0, 5, 86, 326.3005065917969
0, 5, 87, 286.3578796386719
0, 5, 88, 313.1969604492188
0, 5, 89, 305.1581115722656
0, 5, 90, 314.3096008300781
0, 5, 91, 312.8997192382812
0, 5, 92, 296.7190551757812
0, 5, 93, 321.9546813964844
0, 5, 94, 308.3358764648438
0, 5, 95, 296.2528686523438
0, 5, 96, 299.816162109375
0, 5, 97, 297.0122375488281
0, 5, 98, 316.7169799804688
0, 5, 99, 303.9998779296875
0, 5, 100, 291.7648620605469
0, 5, 101, 304.3871765136719
0, 5, 102, 293.5343017578125
0, 5, 103, 313.605224609375
0, 5, 104, 304.2185974121094
0, 5, 105, 291.3940734863281
0, 5, 106, 281.365234375
0, 5, 107, 292.2137756347656
0, 5, 108, 267.5849304199219
0, 5, 109, 156.9998321533203
0, 5, 110, 40.2231330871582
0, 5, 111, 21.70326042175293
0, 5, 112, 15.22863292694092
0, 5, 113, 14.09259605407715
0, 5, 114, 12.89862728118896
0, 5, 115, 6.91341495513916
0, 5, 116, 7.964484691619873
0, 5, 117, 5.685617446899414
0, 5, 118, 11.79040145874023
0, 5, 119, 4.189414024353027
0, 5, 120, 7.134181022644043
0, 5, 121, 6.765119075775146
0, 5, 122, 4.470958232879639
0, 5, 123, 3.635307788848877
0, 5, 124, 6.337512493133545
0, 5, 125, 5.444369316101074
0, 5, 126, 5.284005165100098
0, 5, 127, 3.715201139450073
0, 6, 0, 4.205214977264404
0, 6, 1, 3.14434289932251
0, 6, 2, 4.656693458557129
0, 6, 3, 6.769329071044922
0, 6, 4, 4.079858303070068
0, 6, 5, 5.698535919189453
0, 6, 6, 8.484841346740723
0, 6, 7, 5.616994380950928
0, 6, 8, 8.593469619750977
0, 6, 9, 6.277383804321289
0, 6, 10, 8.806617736816406
0, 6, 11, 7.246160507202148
0, 6, 12, 8.568877220153809
0, 6, 13, 11.85667991638184
0, 6, 14, 9.539777755737305
0, 6, 15, 16.47320365905762
0, 6, 16, 27.38511657714844
0, 6, 17, 53.81449508666992
0, 6, 18, 172.0297393798828
0, 6, 19, 274.7872009277344
0, 6, 20, 292.4754333496094
0, 6, 21, 314.4085388183594
0, 6, 22, 319.9811401367188
0, 6, 23, 305.2080078125
0, 6, 24, 317.7999267578125
0, 6, 25, 316.3843994140625
0, 6, 26, 321.5694885253906
0, 6, 27, 330.5335083007812
0, 6, 28, 294.8530578613281
0, 6, 29, 330.0465698242188
0, 6, 30, 279.7869873046875
0, 6, 31, 286.2464904785156
0, 6, 32, 339.7857360839844
0, 6, 33, 300.5769958496094
0, 6, 34, 340.2938842773438
0, 6, 35, 320.6936340332031
0, 6, 36, 273.3499145507812
0, 6, 37, 293.1936645507812
0, 6, 38, 312.8172912597656
0, 6, 39, 299.2614135742188
0, 6, 40, 284.223876953125
0, 6, 41, 295.6331176757812
0, 6, 42, 306.4860534667969
0, 6, 43, 288.9869689941406
0, 6, 44, 281.2221374511719
0, 6, 45, 319.9661865234375
0, 6, 46, 300.8288879394531
0, 6, 47, 331.7864990234375
0, 6, 48, 291.3671264648438
0, 6, 49, 310.9704284667969
0, 6, 50, 327.9305114746094
0, 6, 51, 311.8588562011719
0, 6, 52, 323.0440368652344
0, 6, 53, 331.2509460449219
0, 6, 54, 303.3634643554688
0, 6, 55, 307.3844909667969
0, 6, 56, 293.5160217285156
0, 6, 57, 313.0317993164062
0, 6, 58, 262.1117248535156
0, 6, 59, 303.5420532226562
0, 6, 60, 314.3601379394531
0, 6, 61, 272.8675537109375
0, 6, 62, 335.2336120605469
0, 6, 63, 326.0670471191406
0, 6, 64, 290.8615112304688
0, 6, 65, 283.2916870117188
0, 6, 66, 301.9155883789062
0, 6, 67, 309.3731384277344
0, 6, 68, 296.1641540527344
0, 6, 69, 278.0802001953125
0, 6, 70, 274.1202087402344
0, 6, 71, 289.121337890625
0, 6, 72, 311.2976379394531
0, 6, 73, 294.152587890625
0, 6, 74, 329.6604309082031
0, 6, 75, 344.3187561035156
0, 6, 76, 297.4452514648438
0, 6, 77, 284.9488525390625
0, 6, 78, 277.7369689941406
0, 6, 79, 292.8067016601562
0, 6, 80, 301.9526062011719
0, 6, 81, 316.4625854492188
0, 6, 82, 319.0557861328125
0, 6, 83, 318.4584655761719
0, 6, 84, 297.5743103027344
0, 6, 85, 300.9601440429688
0, 6, 86, 330.4885559082031
0, 6, 87, 289.1223449707031
0, 6, 88, 307.0491027832031
0, 6, 89, 304.3815612792969
0, 6, 90, 301.3316345214844
0, 6, 91, 311.6395568847656
0, 6, 92, 284.7759399414062
0, 6, 93, 294.5370178222656
0, 6, 94, 274.6246337890625
0, 6, 95, 301.0306701660156
0, 6, 96, 349.7629089355469
0, 6, 97, 309.5363159179688
0, 6, 98, 302.2188415527344
0, 6, 99, 270.4759216308594
0, 6, 100, 308.4423217773438
0, 6, 101, 292.7779235839844
0, 6, 102, 308.0806579589844
0, 6, 103, 308.9707336425781
0, 6, 104, 292.7256164550781
0, 6, 105, 301.8990478515625
0, 6, 106, 306.726318359375
0, 6, 107, 306.9475708007812
0, 6, 108, 265.7912902832031
0, 6, 109, 186.2212371826172
0, 6, 110, 53.76154327392578
0, 6, 111, 21.78224945068359
0, 6, 112, 12.62421035766602
0, 6, 113, 12.34391212463379
0, 6, 114, 11.60930061340332
0, 6, 115, 11.49831676483154
0, 6, 116, 9.229517936706543
0, 6, 117, 7.115608692169189
0, 6, 118, 10.90789890289307
0, 6, 119, 10.7124605178833
0, 6, 120, 6.69328784942627
0, 6, 121, 7.537149906158447
0, 6, 122, 6.413278102874756
0, 6, 123, 5.087994575500488
0, 6, 124, 6.625251293182373
0, 6, 125, 6.457235336303711
0, 6, 126, 5.077408790588379
0, 6, 127, 5.945130825042725
0, 7, 0, 4.016013622283936
0, 7, 1, 3.268057584762573
0, 7, 2, 5.089118480682373
0, 7, 3, 4.801791191101074
0, 7, 4, 6.415281295776367
0, 7, 5, 3.308190584182739
0, 7, 6, 6.692113399505615
0, 7, 7, 4.072304725646973
0, 7, 8, 6.275452136993408
0, 7, 9, 10.31912708282471
0, 7, 10, 7.2673659324646
0, 7, 11, 11.23232746124268
0, 7, 12, 11.19175624847412
0, 7, 13, 10.67548847198486
0, 7, 14, 11.61375427246094
0, 7, 15, 15.99576950073242
0, 7, 16, 25.88936996459961
0, 7, 17, 96.89116668701172
0, 7, 18, 220.2965545654297
0, 7, 19, 289.5727233886719
0, 7, 20, 299.0597229003906
0, 7, 21, 277.3601684570312
0, 7, 22, 298.0318298339844
0, 7, 23, 290.5113220214844
0, 7, 24, 314.1297912597656
0, 7, 25, 325.658447265625
0, 7, 26, 277.8414916992188
0, 7, 27, 297.6441345214844
0, 7, 28, 326.7159423828125
0, 7, 29, 320.7328796386719
0, 7, 30, 298.7994995117188
0, 7, 31, 278.8121032714844
0, 7, 32, 304.3742065429688
0, 7, 33, 265.4777221679688
0, 7, 34, 297.6171569824219
0, 7, 35, 318.3431091308594
0, 7, 36, 333.0310668945312
0, 7, 37, 325.2948608398438
0, 7, 38, 296.6331787109375
0, 7, 39, 307.6633911132812
0, 7, 40, 290.2074584960938
0, 7, 41, 270.9469604492188
0, 7, 42, 300.7973937988281
0, 7, 43, 274.2790832519531
0, 7, 44, 305.8339538574219
0, 7, 45, 296.0660705566406
0, 7, 46, 282.6727600097656
0, 7, 47, 328.4045715332031
0, 7, 48, 287.2694396972656
0, 7, 49, 301.929931640625
0, 7, 50, 321.4226379394531
0, 7, 51, 297.9684143066406
0, 7, 52, 325.5408935546875
0, 7, 53, 309.6489868164062
0, 7, 54, 323.5029907226562
0, 7, 55, 306.4147338867188
0, 7, 56, 280.3600769042969
0, 7, 57, 281.3248291015625
0, 7, 58, 295.8937683105469
0, 7, 59, 292.7374877929688
0, 7, 60, 321.7803955078125
0, 7, 61, 279.1177978515625
0, 7, 62, 299.6146240234375
0, 7, 63, 293.4841613769531
0, 7, 64, 307.5004577636719
0, 7, 65, 329.8912658691406
0, 7, 66, 319.4237976074219
0, 7, 67, 300.4367370605469
0, 7, 68, 280.0054626464844
0, 7, 69, 295.50537109375
0, 7, 70, 301.3548889160156
0, 7, 71, 310.2845764160156
0, 7, 72, 286.4961242675781
0, 7, 73, 296.544189453125
0, 7, 74, 345.3650207519531
0, 7, 75, 318.5533752441406
0, 7, 76, 323.449462890625
0, 7, 77, 280.3873291015625
0, 7, 78, 301.2875366210938
0, 7, 79, 298.9437255859375
0, 7, 80, 310.4214172363281
0, 7, 81, 319.1790771484375
0, 7, 82, 329.0249328613281
0, 7, 83, 316.0869140625
0, 7, 84, 310.693115234375
0, 7, 85, 272.0712280273438
0, 7, 86, 311.0191955566406
0, 7, 87, 309.7093811035156
0, 7, 88, 307.7464294433594
0, 7, 89, 294.1375122070312
0, 7, 90, 309.2126770019531
0, 7, 91, 313.8338012695312
0, 7, 92, 291.7452392578125
0, 7, 93, 307.676513671875
0, 7, 94, 273.8914184570312
0, 7, 95, 297.0321655273438
0, 7, 96, 331.0799865722656
0, 7, 97, 294.7330932617188
0, 7, 98, 291.9456787109375
0, 7, 99, 311.4085693359375
0, 7, 100, 281.1231384277344
0, 7, 101, 275.8815002441406
0, 7, 102, 289.5104675292969
0, 7, 103, 292.1181030273438
0, 7, 104, 275.4485473632812
0, 7, 105, 305.5998840332031
0, 7, 106, 317.9289245605469
0, 7, 107, 299.4633178710938
0, 7, 108, 272.8373718261719
0, 7, 109, 236.4920806884766
0, 7, 110, 98.01573181152344
0, 7, 111, 24.27960968017578
0, 7, 112, 13.49022960662842
0, 7, 113, 14.24116706848145
0, 7, 114, 12.99788761138916
0, 7, 115, 14.24065113067627
0, 7, 116, 11.35746955871582
0, 7, 117, 5.536495208740234
0, 7, 118, 8.080460548400879
0, 7, 119, 6.155714988708496
0, 7, 120, 5.435432910919189
0, 7, 121, 5.090597152709961
0, 7, 122, 5.151208400726318
0, 7, 123, 6.812880992889404
0, 7, 124, 3.333865880966187
0, 7, 125, 6.732914447784424
0, 7, 126, 7.057492256164551
0, 7, 127, 4.127365112304688
0, 8, 0, 5.503353118896484
0, 8, 1, 4.912605285644531
0, 8, 2, 2.816926717758179
0, 8, 3, 5.059669017791748
0, 8, 4, 4.602464199066162
0, 8, 5, 4.237837314605713
0, 8, 6, 5.872481346130371
0, 8, 7, 5.198697566986084
0, 8, 8, 7.035130500793457
0, 8, 9, 5.204264163970947
0, 8, 10, 9.00165843963623
0, 8, 11, 11.07282161712646
0, 8, 12, 12.02205657958984
0, 8, 13, 18.15179443359375
0, 8, 14, 13.89364433288574
0, 8, 15, 18.07052993774414
0, 8, 16, 32.27979278564453
0, 8, 17, 131.8145904541016
0, 8, 18, 243.1040496826172
0, 8, 19, 300.0011596679688
0, 8, 20, 285.6972961425781
0, 8, 21, 306.2454223632812
0, 8, 22, 294.1493530273438
0, 8, 23, 275.6253662109375
0, 8, 24, 267.9235534667969
0, 8, 25, 273.807373046875
0, 8, 26, 305.9588623046875
0, 8, 27, 309.01416015625
0, 8, 28, 306.7004699707031
0, 8, 29, 319.0257568359375
0, 8, 30, 314.0553894042969
0, 8, 31, 305.0856628417969
0, 8, 32, 280.4640808105469
0, 8, 33, 295.2850036621094
0, 8, 34, 289.5067443847656
0, 8, 35, 281.0689086914062
0, 8, 36, 315.7284851074219
0, 8, 37, 338.4407958984375
0, 8, 38, 331.76123046875
0, 8, 39, 282.6556091308594
