# TOPAS Version: 3.1.p3
# Parameter File: batch_inserts_284.txt
# Results for scorer Readout_Adipose
# Scored in component: MyBox
# X in 1 bin  of 0.75 cm
# Y in 512 bins of 0.0783984 cm
# Z in 128 bins of 0.078125 cm
# EnergyDeposit ( MeV ) : Sum   
0, 0, 0, 3.326781511306763
0, 0, 1, 1.378808856010437
0, 0, 2, 2.527141809463501
0, 0, 3, 3.249350070953369
0, 0, 4, 2.970765829086304
0, 0, 5, 1.998834371566772
0, 0, 6, 8.270412445068359
0, 0, 7, 11.42744255065918
0, 0, 8, 2.320503234863281
0, 0, 9, 3.404575347900391
0, 0, 10, 8.127715110778809
0, 0, 11, 4.295244216918945
0, 0, 12, 4.115396499633789
0, 0, 13, 6.80726957321167
0, 0, 14, 6.459429264068604
0, 0, 15, 8.01336669921875
0, 0, 16, 8.990608215332031
0, 0, 17, 8.71660041809082
0, 0, 18, 12.04864501953125
0, 0, 19, 43.84576797485352
0, 0, 20, 141.1821136474609
0, 0, 21, 223.7248992919922
0, 0, 22, 250.4503936767578
0, 0, 23, 257.2104187011719
0, 0, 24, 252.1000213623047
0, 0, 25, 258.7897033691406
0, 0, 26, 233.8406524658203
0, 0, 27, 237.35693359375
0, 0, 28, 272.4142761230469
0, 0, 29, 252.470947265625
0, 0, 30, 232.8297119140625
0, 0, 31, 245.6685943603516
0, 0, 32, 267.4399108886719
0, 0, 33, 260.1786804199219
0, 0, 34, 288.1063537597656
0, 0, 35, 266.6553039550781
0, 0, 36, 247.5489196777344
0, 0, 37, 252.0631408691406
0, 0, 38, 269.2016296386719
0, 0, 39, 230.8825073242188
0, 0, 40, 241.4720764160156
0, 0, 41, 266.4781799316406
0, 0, 42, 230.772705078125
0, 0, 43, 259.5232849121094
0, 0, 44, 251.1302795410156
0, 0, 45, 253.1237945556641
0, 0, 46, 243.4850921630859
0, 0, 47, 253.1618347167969
0, 0, 48, 266.8809204101562
0, 0, 49, 273.8257141113281
0, 0, 50, 250.6475982666016
0, 0, 51, 252.5344848632812
0, 0, 52, 272.4259338378906
0, 0, 53, 292.9794921875
0, 0, 54, 243.0593414306641
0, 0, 55, 242.2577972412109
0, 0, 56, 278.880859375
0, 0, 57, 264.9089050292969
0, 0, 58, 247.0041809082031
0, 0, 59, 271.9622802734375
0, 0, 60, 237.1707153320312
0, 0, 61, 246.1728363037109
0, 0, 62, 256.1340637207031
0, 0, 63, 266.8626403808594
0, 0, 64, 255.2382965087891
0, 0, 65, 261.4573364257812
0, 0, 66, 276.3465270996094
0, 0, 67, 247.1467437744141
0, 0, 68, 258.123779296875
0, 0, 69, 260.5348510742188
0, 0, 70, 271.4226684570312
0, 0, 71, 239.5410461425781
0, 0, 72, 251.1764984130859
0, 0, 73, 258.0830688476562
0, 0, 74, 251.2416839599609
0, 0, 75, 240.1274261474609
0, 0, 76, 228.29345703125
0, 0, 77, 260.8898315429688
0, 0, 78, 257.0328369140625
0, 0, 79, 278.1944885253906
0, 0, 80, 217.8334655761719
0, 0, 81, 267.7864685058594
0, 0, 82, 255.7732086181641
0, 0, 83, 246.2630004882812
0, 0, 84, 270.8750610351562
0, 0, 85, 231.0934295654297
0, 0, 86, 253.5177764892578
0, 0, 87, 252.8692169189453
0, 0, 88, 263.189453125
0, 0, 89, 282.0154418945312
0, 0, 90, 242.7384490966797
0, 0, 91, 281.0155639648438
0, 0, 92, 252.7886657714844
0, 0, 93, 249.0547180175781
0, 0, 94, 247.4673309326172
0, 0, 95, 247.7063751220703
0, 0, 96, 276.3148803710938
0, 0, 97, 272.8126831054688
0, 0, 98, 272.2376098632812
0, 0, 99, 259.2082824707031
0, 0, 100, 259.1719055175781
0, 0, 101, 226.5512542724609
0, 0, 102, 232.6466979980469
0, 0, 103, 269.8049926757812
0, 0, 104, 253.3038024902344
0, 0, 105, 250.3178863525391
0, 0, 106, 244.8918151855469
0, 0, 107, 152.9261627197266
0, 0, 108, 38.84357833862305
0, 0, 109, 12.27212905883789
0, 0, 110, 12.98480319976807
0, 0, 111, 8.936489105224609
0, 0, 112, 7.04946231842041
0, 0, 113, 5.652957916259766
0, 0, 114, 6.492530345916748
0, 0, 115, 5.290085315704346
0, 0, 116, 5.54292106628418
0, 0, 117, 8.158042907714844
0, 0, 118, 5.738212108612061
0, 0, 119, 4.033449172973633
0, 0, 120, 3.372607946395874
0, 0, 121, 3.776882886886597
0, 0, 122, 2.955072164535522
0, 0, 123, 2.204259634017944
0, 0, 124, 4.840735912322998
0, 0, 125, 2.832645416259766
0, 0, 126, 5.26815128326416
0, 0, 127, 5.304090976715088
0, 1, 0, 8.863317489624023
0, 1, 1, 2.41365122795105
0, 1, 2, 5.211775779724121
0, 1, 3, 1.108287453651428
0, 1, 4, 3.716846704483032
0, 1, 5, 4.967647075653076
0, 1, 6, 3.536431550979614
0, 1, 7, 4.790906429290771
0, 1, 8, 7.353721618652344
0, 1, 9, 3.6568603515625
0, 1, 10, 7.366637706756592
0, 1, 11, 10.51379680633545
0, 1, 12, 9.112465858459473
0, 1, 13, 10.74580001831055
0, 1, 14, 7.348154067993164
0, 1, 15, 7.906156539916992
0, 1, 16, 11.91046524047852
0, 1, 17, 10.27952194213867
0, 1, 18, 20.45930671691895
0, 1, 19, 69.12712097167969
0, 1, 20, 198.7024688720703
0, 1, 21, 254.0027923583984
0, 1, 22, 296.563720703125
0, 1, 23, 283.9795227050781
0, 1, 24, 277.4058837890625
0, 1, 25, 287.9662170410156
0, 1, 26, 269.5771484375
0, 1, 27, 306.2024841308594
0, 1, 28, 298.8530578613281
0, 1, 29, 295.8272399902344
0, 1, 30, 281.4346008300781
0, 1, 31, 290.5539245605469
0, 1, 32, 289.7491149902344
0, 1, 33, 295.6882019042969
0, 1, 34, 293.6189575195312
0, 1, 35, 279.5429077148438
0, 1, 36, 306.0770568847656
0, 1, 37, 295.6847229003906
0, 1, 38, 282.3502807617188
0, 1, 39, 297.1405029296875
0, 1, 40, 267.2489929199219
0, 1, 41, 287.4173583984375
0, 1, 42, 289.0711669921875
0, 1, 43, 333.2702941894531
0, 1, 44, 277.7493286132812
0, 1, 45, 293.3863220214844
0, 1, 46, 259.3311767578125
0, 1, 47, 311.1136169433594
0, 1, 48, 286.6076354980469
0, 1, 49, 304.9922485351562
0, 1, 50, 262.6348571777344
0, 1, 51, 273.5712585449219
0, 1, 52, 296.0916748046875
0, 1, 53, 306.5189208984375
0, 1, 54, 273.4587707519531
0, 1, 55, 293.6889953613281
0, 1, 56, 275.9010314941406
0, 1, 57, 297.7439575195312
0, 1, 58, 310.0340576171875
0, 1, 59, 292.8977661132812
0, 1, 60, 297.7553100585938
0, 1, 61, 274.2745056152344
0, 1, 62, 307.5907592773438
0, 1, 63, 287.8934326171875
0, 1, 64, 287.4907531738281
0, 1, 65, 295.9990539550781
0, 1, 66, 294.6313781738281
0, 1, 67, 293.0823669433594
0, 1, 68, 279.6226501464844
0, 1, 69, 282.2936706542969
0, 1, 70, 272.9413452148438
0, 1, 71, 274.29345703125
0, 1, 72, 286.2801513671875
0, 1, 73, 304.7792053222656
0, 1, 74, 306.3384704589844
0, 1, 75, 293.0755004882812
0, 1, 76, 284.6158447265625
0, 1, 77, 290.0247802734375
0, 1, 78, 297.0532531738281
0, 1, 79, 299.3626708984375
0, 1, 80, 296.5481872558594
0, 1, 81, 299.6565246582031
0, 1, 82, 283.8623657226562
0, 1, 83, 332.7417907714844
0, 1, 84, 307.7810363769531
0, 1, 85, 252.0451202392578
0, 1, 86, 294.4070434570312
0, 1, 87, 291.9260864257812
0, 1, 88, 297.2575378417969
0, 1, 89, 291.7309265136719
0, 1, 90, 270.5672607421875
0, 1, 91, 318.0260925292969
0, 1, 92, 292.4332885742188
0, 1, 93, 286.4314575195312
0, 1, 94, 303.70458984375
0, 1, 95, 282.9391479492188
0, 1, 96, 282.6551208496094
0, 1, 97, 300.5440368652344
0, 1, 98, 278.5149536132812
0, 1, 99, 266.7953491210938
0, 1, 100, 277.8816833496094
0, 1, 101, 281.3994750976562
0, 1, 102, 277.2667236328125
0, 1, 103, 279.8393249511719
0, 1, 104, 307.4486694335938
0, 1, 105, 296.1825256347656
0, 1, 106, 263.3481140136719
0, 1, 107, 192.4192657470703
0, 1, 108, 80.61708068847656
0, 1, 109, 22.30797958374023
0, 1, 110, 10.99508571624756
0, 1, 111, 9.091344833374023
0, 1, 112, 14.58723449707031
0, 1, 113, 4.752623081207275
0, 1, 114, 6.851070880889893
0, 1, 115, 6.952653884887695
0, 1, 116, 12.19912719726562
0, 1, 117, 8.687049865722656
0, 1, 118, 4.96041202545166
0, 1, 119, 7.095587253570557
0, 1, 120, 3.814005613327026
0, 1, 121, 3.601150989532471
0, 1, 122, 4.071408748626709
0, 1, 123, 5.221909523010254
0, 1, 124, 6.867870330810547
0, 1, 125, 3.378320693969727
0, 1, 126, 2.718971967697144
0, 1, 127, 1.628481507301331
0, 2, 0, 4.048027038574219
0, 2, 1, 2.008634090423584
0, 2, 2, 5.191038608551025
0, 2, 3, 4.853818893432617
0, 2, 4, 4.282402992248535
0, 2, 5, 2.448919773101807
0, 2, 6, 2.445003747940063
0, 2, 7, 3.157668828964233
0, 2, 8, 6.018562316894531
0, 2, 9, 7.169461727142334
0, 2, 10, 7.828560829162598
0, 2, 11, 7.599921226501465
0, 2, 12, 6.369216918945312
0, 2, 13, 9.494539260864258
0, 2, 14, 10.56851863861084
0, 2, 15, 7.595706462860107
0, 2, 16, 9.110790252685547
0, 2, 17, 17.06879615783691
0, 2, 18, 31.24719047546387
0, 2, 19, 118.3972091674805
0, 2, 20, 249.7667388916016
0, 2, 21, 270.4817504882812
0, 2, 22, 315.0828247070312
0, 2, 23, 299.7660827636719
0, 2, 24, 286.9202270507812
0, 2, 25, 302.7423400878906
0, 2, 26, 294.5827331542969
0, 2, 27, 274.9245300292969
0, 2, 28, 272.9597473144531
0, 2, 29, 275.9328918457031
0, 2, 30, 293.8656311035156
0, 2, 31, 279.4609680175781
0, 2, 32, 295.7864990234375
0, 2, 33, 283.7568359375
0, 2, 34, 332.2245788574219
0, 2, 35, 289.4661560058594
0, 2, 36, 304.2551574707031
0, 2, 37, 314.7027282714844
0, 2, 38, 313.252685546875
0, 2, 39, 266.7257995605469
0, 2, 40, 305.7554626464844
0, 2, 41, 296.4189758300781
0, 2, 42, 304.7387084960938
0, 2, 43, 312.8091735839844
0, 2, 44, 312.5411071777344
0, 2, 45, 324.5001220703125
0, 2, 46, 285.5677490234375
0, 2, 47, 303.7551879882812
0, 2, 48, 283.4397888183594
0, 2, 49, 276.9948425292969
0, 2, 50, 295.9563598632812
0, 2, 51, 282.1028747558594
0, 2, 52, 272.4347229003906
0, 2, 53, 287.169677734375
0, 2, 54, 281.9264221191406
0, 2, 55, 275.6900329589844
0, 2, 56, 302.7867431640625
0, 2, 57, 292.0995483398438
0, 2, 58, 301.0270080566406
0, 2, 59, 289.76806640625
0, 2, 60, 318.1472473144531
0, 2, 61, 300.8278503417969
0, 2, 62, 312.4752502441406
0, 2, 63, 304.9593505859375
0, 2, 64, 295.3562622070312
0, 2, 65, 314.9899597167969
0, 2, 66, 282.5455932617188
0, 2, 67, 291.2808837890625
0, 2, 68, 295.6162414550781
0, 2, 69, 314.9525146484375
0, 2, 70, 335.9091186523438
0, 2, 71, 284.1135864257812
0, 2, 72, 303.356689453125
0, 2, 73, 311.8880615234375
0, 2, 74, 287.2255859375
0, 2, 75, 303.5494995117188
0, 2, 76, 287.1860656738281
0, 2, 77, 299.2640380859375
0, 2, 78, 314.6207580566406
0, 2, 79, 311.1387329101562
0, 2, 80, 298.3155517578125
0, 2, 81, 284.1150207519531
0, 2, 82, 318.205322265625
0, 2, 83, 311.2101135253906
0, 2, 84, 286.912841796875
0, 2, 85, 280.8790893554688
0, 2, 86, 324.0449829101562
0, 2, 87, 286.7146606445312
0, 2, 88, 279.3435974121094
0, 2, 89, 295.22998046875
0, 2, 90, 296.0258483886719
0, 2, 91, 275.4698181152344
0, 2, 92, 305.8423767089844
0, 2, 93, 317.4541625976562
0, 2, 94, 291.5675354003906
0, 2, 95, 313.81103515625
0, 2, 96, 314.1749267578125
0, 2, 97, 291.9015197753906
0, 2, 98, 293.7041931152344
0, 2, 99, 273.5910034179688
0, 2, 100, 305.8792114257812
0, 2, 101, 300.4920654296875
0, 2, 102, 297.1001892089844
0, 2, 103, 296.0113525390625
0, 2, 104, 293.8600158691406
0, 2, 105, 275.951416015625
0, 2, 106, 296.6634826660156
0, 2, 107, 271.8608703613281
0, 2, 108, 117.6460876464844
0, 2, 109, 31.17863082885742
0, 2, 110, 10.15461826324463
0, 2, 111, 10.6963062286377
0, 2, 112, 7.466951370239258
0, 2, 113, 9.12739372253418
0, 2, 114, 9.279745101928711
0, 2, 115, 9.247787475585938
0, 2, 116, 7.702158451080322
0, 2, 117, 7.397222995758057
0, 2, 118, 4.83928394317627
0, 2, 119, 6.477391719818115
0, 2, 120, 6.928629875183105
0, 2, 121, 2.31520676612854
0, 2, 122, 4.080178737640381
0, 2, 123, 6.52680778503418
0, 2, 124, 5.602840423583984
0, 2, 125, 4.753444671630859
0, 2, 126, 2.806258201599121
0, 2, 127, 5.144267559051514
0, 3, 0, 4.092404842376709
0, 3, 1, 3.299866914749146
0, 3, 2, 4.19558572769165
0, 3, 3, 2.449671983718872
0, 3, 4, 4.327943801879883
0, 3, 5, 5.77333927154541
0, 3, 6, 5.969494819641113
0, 3, 7, 5.359515190124512
0, 3, 8, 4.304759979248047
0, 3, 9, 5.219374656677246
0, 3, 10, 7.264355182647705
0, 3, 11, 4.674064636230469
0, 3, 12, 8.447686195373535
0, 3, 13, 15.15129852294922
0, 3, 14, 11.75905799865723
0, 3, 15, 14.97149181365967
0, 3, 16, 10.97618293762207
0, 3, 17, 19.17986297607422
0, 3, 18, 53.12538146972656
0, 3, 19, 175.4698944091797
0, 3, 20, 271.2035827636719
0, 3, 21, 271.5419311523438
0, 3, 22, 282.9650268554688
0, 3, 23, 287.33349609375
0, 3, 24, 288.2803649902344
0, 3, 25, 269.4983215332031
0, 3, 26, 304.4330749511719
0, 3, 27, 291.5924377441406
0, 3, 28, 281.7813110351562
0, 3, 29, 337.7185363769531
0, 3, 30, 315.7331848144531
0, 3, 31, 285.2007751464844
0, 3, 32, 305.1757507324219
0, 3, 33, 314.6781921386719
0, 3, 34, 321.2784729003906
0, 3, 35, 308.2412719726562
0, 3, 36, 270.9607238769531
0, 3, 37, 317.3164367675781
0, 3, 38, 303.0082702636719
0, 3, 39, 286.6890869140625
0, 3, 40, 268.0328674316406
0, 3, 41, 299.2953796386719
0, 3, 42, 286.2429809570312
0, 3, 43, 305.2334899902344
0, 3, 44, 311.6574401855469
0, 3, 45, 290.2412719726562
0, 3, 46, 329.280517578125
0, 3, 47, 298.4315490722656
0, 3, 48, 301.853515625
0, 3, 49, 274.9863891601562
0, 3, 50, 290.8594360351562
0, 3, 51, 276.3427734375
0, 3, 52, 315.0027465820312
0, 3, 53, 288.4982299804688
0, 3, 54, 284.8575439453125
0, 3, 55, 283.7930603027344
0, 3, 56, 298.866455078125
0, 3, 57, 288.54248046875
0, 3, 58, 305.9202880859375
0, 3, 59, 296.4905395507812
0, 3, 60, 298.2756042480469
0, 3, 61, 265.7065124511719
0, 3, 62, 284.5384826660156
0, 3, 63, 308.3659973144531
0, 3, 64, 316.8582763671875
0, 3, 65, 305.4221801757812
0, 3, 66, 316.0778198242188
0, 3, 67, 316.883056640625
0, 3, 68, 279.8582763671875
0, 3, 69, 282.2490539550781
0, 3, 70, 286.4876708984375
0, 3, 71, 300.0057373046875
0, 3, 72, 269.2291870117188
0, 3, 73, 307.4078063964844
0, 3, 74, 293.0173645019531
0, 3, 75, 289.0724792480469
0, 3, 76, 305.8685302734375
0, 3, 77, 313.3369140625
0, 3, 78, 302.5937805175781
0, 3, 79, 282.1148071289062
0, 3, 80, 289.8473205566406
0, 3, 81, 310.0087585449219
0, 3, 82, 315.6612854003906
0, 3, 83, 299.5438537597656
0, 3, 84, 311.1808471679688
0, 3, 85, 294.7306823730469
0, 3, 86, 301.5773315429688
0, 3, 87, 297.8577270507812
0, 3, 88, 299.8026733398438
0, 3, 89, 296.5061950683594
0, 3, 90, 276.9601440429688
0, 3, 91, 283.7850952148438
0, 3, 92, 303.8019714355469
0, 3, 93, 313.3194580078125
0, 3, 94, 296.6473693847656
0, 3, 95, 336.3498229980469
0, 3, 96, 289.8788757324219
0, 3, 97, 286.0888671875
0, 3, 98, 278.1109008789062
0, 3, 99, 261.7184143066406
0, 3, 100, 285.1346130371094
0, 3, 101, 298.1538391113281
0, 3, 102, 275.9914245605469
0, 3, 103, 320.4063110351562
0, 3, 104, 308.7505493164062
0, 3, 105, 287.22998046875
0, 3, 106, 302.0298461914062
0, 3, 107, 282.4003295898438
0, 3, 108, 169.5258331298828
0, 3, 109, 57.43563461303711
0, 3, 110, 18.44501876831055
0, 3, 111, 13.54493427276611
0, 3, 112, 11.28409290313721
0, 3, 113, 6.673460483551025
0, 3, 114, 9.701805114746094
0, 3, 115, 7.158520698547363
0, 3, 116, 8.955827713012695
0, 3, 117, 5.529617309570312
0, 3, 118, 6.157158851623535
0, 3, 119, 5.847771644592285
0, 3, 120, 5.330883979797363
0, 3, 121, 3.354805469512939
0, 3, 122, 3.63047194480896
0, 3, 123, 5.95571231842041
0, 3, 124, 5.062488079071045
0, 3, 125, 5.820725440979004
0, 3, 126, 4.390962600708008
0, 3, 127, 3.456815481185913
0, 4, 0, 4.170154094696045
0, 4, 1, 5.137041091918945
0, 4, 2, 2.705182552337646
0, 4, 3, 2.648131370544434
0, 4, 4, 6.144710540771484
0, 4, 5, 8.228683471679688
0, 4, 6, 6.771661281585693
0, 4, 7, 5.002543449401855
0, 4, 8, 4.288691997528076
0, 4, 9, 4.760462760925293
0, 4, 10, 5.872025012969971
0, 4, 11, 5.605735301971436
0, 4, 12, 6.774365901947021
0, 4, 13, 8.425786018371582
0, 4, 14, 11.86715698242188
0, 4, 15, 8.808456420898438
0, 4, 16, 14.73404026031494
0, 4, 17, 18.32658195495605
0, 4, 18, 93.01711273193359
0, 4, 19, 221.9467315673828
0, 4, 20, 283.7652587890625
0, 4, 21, 273.0706787109375
0, 4, 22, 305.7226257324219
0, 4, 23, 266.8469543457031
0, 4, 24, 290.1328430175781
0, 4, 25, 275.2895202636719
0, 4, 26, 294.3887634277344
0, 4, 27, 281.9479064941406
0, 4, 28, 307.4603271484375
0, 4, 29, 323.0718994140625
0, 4, 30, 309.7159423828125
0, 4, 31, 303.8749084472656
0, 4, 32, 280.7893371582031
0, 4, 33, 295.9458618164062
0, 4, 34, 297.0874938964844
0, 4, 35, 313.2616271972656
0, 4, 36, 295.9706115722656
0, 4, 37, 287.5968322753906
0, 4, 38, 300.2366943359375
0, 4, 39, 293.3011474609375
0, 4, 40, 302.4092407226562
0, 4, 41, 311.3850708007812
0, 4, 42, 329.8162841796875
0, 4, 43, 296.7532653808594
0, 4, 44, 320.4818420410156
0, 4, 45, 323.1687316894531
0, 4, 46, 309.856201171875
0, 4, 47, 292.9188842773438
0, 4, 48, 294.7471008300781
0, 4, 49, 279.0517272949219
0, 4, 50, 297.2809753417969
0, 4, 51, 315.5072937011719
0, 4, 52, 328.728515625
0, 4, 53, 306.4494934082031
0, 4, 54, 287.7424621582031
0, 4, 55, 316.5213623046875
0, 4, 56, 287.2037353515625
0, 4, 57, 311.4658813476562
0, 4, 58, 298.0423278808594
0, 4, 59, 309.1512145996094
0, 4, 60, 303.8525085449219
0, 4, 61, 316.4755554199219
0, 4, 62, 307.7405090332031
0, 4, 63, 298.8031616210938
0, 4, 64, 330.022216796875
0, 4, 65, 316.4558715820312
0, 4, 66, 295.7328491210938
0, 4, 67, 283.9020385742188
0, 4, 68, 312.4195556640625
0, 4, 69, 275.4735717773438
0, 4, 70, 299.1886291503906
0, 4, 71, 320.3539428710938
0, 4, 72, 332.2668762207031
0, 4, 73, 297.9786376953125
0, 4, 74, 292.5860290527344
0, 4, 75, 289.8915710449219
0, 4, 76, 274.8777160644531
0, 4, 77, 279.4353637695312
0, 4, 78, 308.4300231933594
0, 4, 79, 319.6515808105469
0, 4, 80, 314.6212768554688
0, 4, 81, 311.9839782714844
0, 4, 82, 297.4602355957031
0, 4, 83, 300.6944885253906
0, 4, 84, 291.1185607910156
0, 4, 85, 297.0137939453125
0, 4, 86, 297.587158203125
0, 4, 87, 284.5715026855469
0, 4, 88, 307.2710571289062
0, 4, 89, 294.3828125
0, 4, 90, 332.4075317382812
0, 4, 91, 302.2320556640625
0, 4, 92, 289.0639953613281
0, 4, 93, 296.3328247070312
0, 4, 94, 292.5935363769531
0, 4, 95, 287.9235229492188
0, 4, 96, 322.506591796875
0, 4, 97, 274.5718078613281
0, 4, 98, 328.0829467773438
0, 4, 99, 314.5786743164062
0, 4, 100, 301.2040710449219
0, 4, 101, 257.6875915527344
0, 4, 102, 296.6646728515625
0, 4, 103, 317.0672302246094
0, 4, 104, 280.9611206054688
0, 4, 105, 310.3877868652344
0, 4, 106, 286.33203125
0, 4, 107, 297.0845642089844
0, 4, 108, 227.3569793701172
0, 4, 109, 79.76815032958984
0, 4, 110, 16.70970916748047
0, 4, 111, 13.47452449798584
0, 4, 112, 7.387717723846436
0, 4, 113, 11.30205249786377
0, 4, 114, 7.529696464538574
0, 4, 115, 9.291179656982422
0, 4, 116, 8.915430068969727
0, 4, 117, 8.58641529083252
0, 4, 118, 10.24204063415527
0, 4, 119, 7.867959022521973
0, 4, 120, 6.591216087341309
0, 4, 121, 7.048516750335693
0, 4, 122, 6.583395957946777
0, 4, 123, 6.781702041625977
0, 4, 124, 4.824727535247803
0, 4, 125, 9.474102973937988
0, 4, 126, 3.890204191207886
0, 4, 127, 2.934123754501343
0, 5, 0, 5.267590045928955
0, 5, 1, 3.827465057373047
0, 5, 2, 3.356333494186401
0, 5, 3, 3.888482093811035
0, 5, 4, 5.238199234008789
0, 5, 5, 4.855766773223877
0, 5, 6, 8.659862518310547
0, 5, 7, 6.983501434326172
0, 5, 8, 5.039555072784424
0, 5, 9, 4.385045051574707
0, 5, 10, 6.697667121887207
0, 5, 11, 8.088283538818359
0, 5, 12, 7.529058933258057
0, 5, 13, 5.381875991821289
0, 5, 14, 12.95885372161865
0, 5, 15, 16.25862503051758
0, 5, 16, 13.72399234771729
0, 5, 17, 28.6905345916748
0, 5, 18, 137.298583984375
0, 5, 19, 286.1565246582031
0, 5, 20, 307.4625244140625
0, 5, 21, 316.8052673339844
0, 5, 22, 276.6040649414062
0, 5, 23, 312.7403564453125
0, 5, 24, 301.9569091796875
0, 5, 25, 289.0129699707031
0, 5, 26, 293.3858032226562
0, 5, 27, 321.7031860351562
0, 5, 28, 304.2743530273438
0, 5, 29, 298.6433715820312
0, 5, 30, 322.6314086914062
0, 5, 31, 288.9216613769531
0, 5, 32, 302.2566223144531
0, 5, 33, 304.675048828125
0, 5, 34, 297.1088256835938
0, 5, 35, 312.7704772949219
0, 5, 36, 269.7940979003906
0, 5, 37, 281.4024963378906
0, 5, 38, 292.1231079101562
0, 5, 39, 314.4769287109375
0, 5, 40, 307.0216674804688
0, 5, 41, 272.8738403320312
0, 5, 42, 303.5195922851562
0, 5, 43, 316.7599182128906
0, 5, 44, 292.6172180175781
0, 5, 45, 301.2467041015625
0, 5, 46, 266.3478698730469
0, 5, 47, 279.5235900878906
0, 5, 48, 295.3909606933594
0, 5, 49, 287.8306579589844
0, 5, 50, 294.1231079101562
0, 5, 51, 281.01806640625
0, 5, 52, 271.3753967285156
0, 5, 53, 284.8336181640625
0, 5, 54, 291.6650085449219
0, 5, 55, 347.5789184570312
0, 5, 56, 306.0054016113281
0, 5, 57, 306.4378051757812
0, 5, 58, 311.23828125
0, 5, 59, 304.246337890625
0, 5, 60, 306.0933532714844
0, 5, 61, 280.1300659179688
0, 5, 62, 328.5044555664062
0, 5, 63, 289.0150146484375
0, 5, 64, 321.7676696777344
0, 5, 65, 308.1972351074219
0, 5, 66, 328.3349914550781
0, 5, 67, 311.4496765136719
0, 5, 68, 307.4888916015625
0, 5, 69, 309.4981994628906
0, 5, 70, 303.5495300292969
0, 5, 71, 273.0101623535156
0, 5, 72, 309.9393615722656
0, 5, 73, 302.5345458984375
0, 5, 74, 296.4072265625
0, 5, 75, 296.7131042480469
0, 5, 76, 285.39111328125
0, 5, 77, 299.0854187011719
0, 5, 78, 318.7472229003906
0, 5, 79, 306.7495422363281
0, 5, 80, 294.7478637695312
0, 5, 81, 326.4014892578125
0, 5, 82, 326.8999633789062
0, 5, 83, 280.5746765136719
0, 5, 84, 306.6883239746094
0, 5, 85, 270.0394287109375
0, 5, 86, 325.7910461425781
0, 5, 87, 284.2341613769531
0, 5, 88, 313.4004821777344
0, 5, 89, 306.3117980957031
0, 5, 90, 316.12890625
0, 5, 91, 313.6598815917969
0, 5, 92, 295.3418273925781
0, 5, 93, 321.0104370117188
0, 5, 94, 309.0502014160156
0, 5, 95, 296.6812744140625
0, 5, 96, 297.3721008300781
0, 5, 97, 295.8786010742188
0, 5, 98, 318.560302734375
0, 5, 99, 300.6209411621094
0, 5, 100, 289.8613586425781
0, 5, 101, 305.7759399414062
0, 5, 102, 292.0459899902344
0, 5, 103, 313.2795715332031
0, 5, 104, 303.1367492675781
0, 5, 105, 293.1508483886719
0, 5, 106, 283.0149841308594
0, 5, 107, 293.0478515625
0, 5, 108, 263.2944946289062
0, 5, 109, 158.3444519042969
0, 5, 110, 39.61288452148438
0, 5, 111, 20.93421745300293
0, 5, 112, 15.80108261108398
0, 5, 113, 15.42419338226318
0, 5, 114, 12.2835054397583
0, 5, 115, 7.083422660827637
0, 5, 116, 7.864996433258057
0, 5, 117, 6.710255146026611
0, 5, 118, 13.24961757659912
0, 5, 119, 6.891056537628174
0, 5, 120, 4.394137859344482
0, 5, 121, 4.903646469116211
0, 5, 122, 6.016858100891113
0, 5, 123, 6.66588020324707
0, 5, 124, 4.096704959869385
0, 5, 125, 3.072613000869751
0, 5, 126, 7.360039234161377
0, 5, 127, 3.394048452377319
0, 6, 0, 4.34660530090332
0, 6, 1, 2.455675601959229
0, 6, 2, 5.62031078338623
0, 6, 3, 6.932903289794922
0, 6, 4, 2.650012731552124
0, 6, 5, 7.209319114685059
0, 6, 6, 5.407802104949951
0, 6, 7, 5.338146209716797
0, 6, 8, 8.479589462280273
0, 6, 9, 5.860617160797119
0, 6, 10, 7.835117340087891
0, 6, 11, 10.08736038208008
0, 6, 12, 9.184956550598145
0, 6, 13, 14.63798904418945
0, 6, 14, 11.09212398529053
0, 6, 15, 17.58171844482422
0, 6, 16, 29.09688949584961
0, 6, 17, 56.2852668762207
0, 6, 18, 175.4994201660156
0, 6, 19, 275.7851257324219
0, 6, 20, 290.3431396484375
0, 6, 21, 312.9539489746094
0, 6, 22, 320.2633972167969
0, 6, 23, 306.0657958984375
0, 6, 24, 316.6959838867188
0, 6, 25, 315.2734375
0, 6, 26, 319.572021484375
0, 6, 27, 330.0506896972656
0, 6, 28, 295.1210327148438
0, 6, 29, 330.5030517578125
0, 6, 30, 282.9548645019531
0, 6, 31, 286.5657958984375
0, 6, 32, 340.83984375
0, 6, 33, 300.9554443359375
0, 6, 34, 340.1556091308594
0, 6, 35, 320.7620239257812
0, 6, 36, 273.9368896484375
0, 6, 37, 287.4054870605469
0, 6, 38, 311.7736206054688
0, 6, 39, 299.9484252929688
0, 6, 40, 285.878173828125
0, 6, 41, 296.2256469726562
0, 6, 42, 304.9223937988281
0, 6, 43, 290.5566101074219
0, 6, 44, 280.5808410644531
0, 6, 45, 321.3147583007812
0, 6, 46, 302.3204040527344
0, 6, 47, 334.4136657714844
0, 6, 48, 292.5042114257812
0, 6, 49, 313.1574096679688
0, 6, 50, 328.6358947753906
0, 6, 51, 310.0973510742188
0, 6, 52, 319.9052734375
0, 6, 53, 327.0625
0, 6, 54, 306.2032775878906
0, 6, 55, 305.2694702148438
0, 6, 56, 291.7234191894531
0, 6, 57, 313.1172180175781
0, 6, 58, 261.6497497558594
0, 6, 59, 302.1132202148438
0, 6, 60, 313.2767639160156
0, 6, 61, 270.2106018066406
0, 6, 62, 337.6473083496094
0, 6, 63, 322.7091064453125
0, 6, 64, 289.8365173339844
0, 6, 65, 289.3451538085938
0, 6, 66, 301.9772338867188
0, 6, 67, 310.5006103515625
0, 6, 68, 294.5252380371094
0, 6, 69, 278.0477905273438
0, 6, 70, 274.1201171875
0, 6, 71, 289.7012329101562
0, 6, 72, 310.82568359375
0, 6, 73, 293.6280517578125
0, 6, 74, 330.4164733886719
0, 6, 75, 342.7200622558594
0, 6, 76, 298.2967529296875
0, 6, 77, 286.0189819335938
0, 6, 78, 278.102294921875
0, 6, 79, 292.0860595703125
0, 6, 80, 300.579833984375
0, 6, 81, 316.2381286621094
0, 6, 82, 317.6609191894531
0, 6, 83, 322.9556274414062
0, 6, 84, 295.970947265625
0, 6, 85, 300.6131896972656
0, 6, 86, 329.1382446289062
0, 6, 87, 294.5956420898438
0, 6, 88, 307.0181579589844
0, 6, 89, 306.0947570800781
0, 6, 90, 298.1413879394531
0, 6, 91, 311.8571472167969
0, 6, 92, 285.7443237304688
0, 6, 93, 295.0106811523438
0, 6, 94, 272.1991882324219
0, 6, 95, 301.26123046875
0, 6, 96, 347.9518127441406
0, 6, 97, 309.6681213378906
0, 6, 98, 301.3530883789062
0, 6, 99, 273.7232055664062
0, 6, 100, 309.1861267089844
0, 6, 101, 291.9264526367188
0, 6, 102, 306.4436340332031
0, 6, 103, 307.88916015625
0, 6, 104, 292.5317077636719
0, 6, 105, 302.1252746582031
0, 6, 106, 305.3981323242188
0, 6, 107, 307.9639282226562
0, 6, 108, 265.2274780273438
0, 6, 109, 187.6844635009766
0, 6, 110, 56.6319694519043
0, 6, 111, 21.84904289245605
0, 6, 112, 14.62905120849609
0, 6, 113, 10.09039306640625
0, 6, 114, 12.28082180023193
0, 6, 115, 12.00518417358398
0, 6, 116, 10.12158107757568
0, 6, 117, 8.13560962677002
0, 6, 118, 10.66443920135498
0, 6, 119, 8.906617164611816
0, 6, 120, 5.960583686828613
0, 6, 121, 6.714730739593506
0, 6, 122, 6.40723180770874
0, 6, 123, 5.371732711791992
0, 6, 124, 6.604904174804688
0, 6, 125, 8.409077644348145
0, 6, 126, 5.57975435256958
0, 6, 127, 5.883409023284912
0, 7, 0, 7.712286949157715
0, 7, 1, 3.566569089889526
0, 7, 2, 7.243817329406738
0, 7, 3, 3.146171092987061
0, 7, 4, 3.845851421356201
0, 7, 5, 5.320430755615234
0, 7, 6, 5.701871871948242
0, 7, 7, 4.930613994598389
0, 7, 8, 4.762900352478027
0, 7, 9, 6.081696510314941
0, 7, 10, 8.177436828613281
0, 7, 11, 14.64995098114014
0, 7, 12, 10.34697914123535
0, 7, 13, 12.65361213684082
0, 7, 14, 11.53028392791748
0, 7, 15, 16.56610298156738
0, 7, 16, 25.37183380126953
0, 7, 17, 97.55595397949219
0, 7, 18, 216.7884674072266
0, 7, 19, 291.0370178222656
0, 7, 20, 301.24755859375
0, 7, 21, 276.335205078125
0, 7, 22, 299.3043212890625
0, 7, 23, 288.8988037109375
0, 7, 24, 315.3553161621094
0, 7, 25, 323.6409912109375
0, 7, 26, 279.1830749511719
0, 7, 27, 297.2131652832031
0, 7, 28, 327.7561950683594
0, 7, 29, 320.7599487304688
0, 7, 30, 301.7369995117188
0, 7, 31, 278.4949035644531
0, 7, 32, 306.3851623535156
0, 7, 33, 263.9424438476562
0, 7, 34, 297.25830078125
0, 7, 35, 320.89599609375
0, 7, 36, 330.3241882324219
0, 7, 37, 321.5914611816406
0, 7, 38, 295.7847595214844
0, 7, 39, 308.6137084960938
0, 7, 40, 289.7083740234375
0, 7, 41, 270.2085266113281
0, 7, 42, 304.1024169921875
0, 7, 43, 273.6322326660156
0, 7, 44, 302.6380310058594
0, 7, 45, 296.0003662109375
0, 7, 46, 283.3648681640625
0, 7, 47, 331.0838928222656
0, 7, 48, 287.8282775878906
0, 7, 49, 301.0454711914062
0, 7, 50, 320.6688232421875
0, 7, 51, 298.4584655761719
0, 7, 52, 326.5980834960938
0, 7, 53, 311.6632690429688
0, 7, 54, 322.4605712890625
0, 7, 55, 306.9103393554688
0, 7, 56, 279.1441650390625
0, 7, 57, 285.244873046875
0, 7, 58, 296.1835021972656
0, 7, 59, 293.1177673339844
0, 7, 60, 323.1073608398438
0, 7, 61, 278.3045043945312
0, 7, 62, 296.9264221191406
0, 7, 63, 293.8878479003906
0, 7, 64, 305.4664916992188
0, 7, 65, 329.0506286621094
0, 7, 66, 320.7017211914062
0, 7, 67, 302.4775085449219
0, 7, 68, 282.1551513671875
0, 7, 69, 293.4078979492188
0, 7, 70, 302.3295288085938
0, 7, 71, 308.8836059570312
0, 7, 72, 285.1039733886719
0, 7, 73, 299.8539428710938
0, 7, 74, 347.3802185058594
0, 7, 75, 317.6699523925781
0, 7, 76, 323.0707702636719
0, 7, 77, 280.5020141601562
0, 7, 78, 303.1235656738281
0, 7, 79, 300.4269714355469
0, 7, 80, 311.5593872070312
0, 7, 81, 321.1395874023438
0, 7, 82, 330.2669677734375
0, 7, 83, 315.5422668457031
0, 7, 84, 308.7927551269531
0, 7, 85, 272.0950622558594
0, 7, 86, 309.8710021972656
0, 7, 87, 312.5143432617188
0, 7, 88, 308.9071655273438
0, 7, 89, 293.8270568847656
0, 7, 90, 307.8296813964844
0, 7, 91, 318.7174987792969
0, 7, 92, 289.1162414550781
0, 7, 93, 308.9651184082031
0, 7, 94, 273.1744689941406
0, 7, 95, 297.5239562988281
0, 7, 96, 330.9689636230469
0, 7, 97, 295.4728393554688
0, 7, 98, 291.2185363769531
0, 7, 99, 314.4363708496094
0, 7, 100, 281.8458557128906
0, 7, 101, 275.0416870117188
0, 7, 102, 291.1629333496094
0, 7, 103, 291.7743225097656
0, 7, 104, 274.9590454101562
0, 7, 105, 305.7805786132812
0, 7, 106, 320.4580993652344
0, 7, 107, 299.5673522949219
0, 7, 108, 273.4080505371094
0, 7, 109, 239.1189575195312
0, 7, 110, 95.63307189941406
0, 7, 111, 23.7337532043457
0, 7, 112, 16.02444458007812
0, 7, 113, 13.10677146911621
0, 7, 114, 15.30577087402344
0, 7, 115, 10.50406742095947
0, 7, 116, 8.75984001159668
0, 7, 117, 8.512757301330566
0, 7, 118, 7.594784736633301
0, 7, 119, 6.056133270263672
0, 7, 120, 6.301323890686035
0, 7, 121, 5.07201099395752
0, 7, 122, 9.704456329345703
0, 7, 123, 3.467710256576538
0, 7, 124, 4.565134525299072
0, 7, 125, 6.087997913360596
0, 7, 126, 12.59490489959717
0, 7, 127, 2.619202136993408
0, 8, 0, 6.183743953704834
0, 8, 1, 7.511976718902588
0, 8, 2, 4.220132350921631
0, 8, 3, 1.883656144142151
0, 8, 4, 2.725877523422241
0, 8, 5, 3.916417837142944
0, 8, 6, 7.163924217224121
0, 8, 7, 5.761778831481934
0, 8, 8, 9.457659721374512
0, 8, 9, 4.938097476959229
0, 8, 10, 7.665273666381836
0, 8, 11, 11.04658985137939
0, 8, 12, 12.42757225036621
0, 8, 13, 14.95707702636719
0, 8, 14, 12.21487236022949
0, 8, 15, 18.59135055541992
0, 8, 16, 32.70230865478516
0, 8, 17, 129.8053436279297
0, 8, 18, 242.5108795166016
0, 8, 19, 294.7274169921875
0, 8, 20, 285.7925415039062
0, 8, 21, 306.2023315429688
0, 8, 22, 294.0255737304688
0, 8, 23, 274.6062622070312
0, 8, 24, 269.7325744628906
0, 8, 25, 275.4974365234375
0, 8, 26, 306.2861022949219
0, 8, 27, 307.780517578125
0, 8, 28, 303.6998901367188
0, 8, 29, 320.7598266601562
0, 8, 30, 314.4098205566406
0, 8, 31, 303.5343627929688
0, 8, 32, 282.7442016601562
0, 8, 33, 293.4091491699219
0, 8, 34, 291.6363525390625
0, 8, 35, 280.6544494628906
0, 8, 36, 316.6925354003906
0, 8, 37, 341.2718811035156
0, 8, 38, 332.6964721679688
0, 8, 39, 281.0464782714844
