# TOPAS Version: 3.1.p3
# Parameter File: batch_inserts_114.txt
# Results for scorer Readout_Adipose
# Scored in component: MyBox
# X in 1 bin  of 0.75 cm
# Y in 512 bins of 0.0783984 cm
# Z in 128 bins of 0.078125 cm
# EnergyDeposit ( MeV ) : Sum   
0, 0, 0, 4.580996513366699
0, 0, 1, 2.431294918060303
0, 0, 2, 4.144330978393555
0, 0, 3, 1.78462541103363
0, 0, 4, 3.3825364112854
0, 0, 5, 1.659582018852234
0, 0, 6, 5.664594650268555
0, 0, 7, 9.861183166503906
0, 0, 8, 3.443045616149902
0, 0, 9, 3.231651544570923
0, 0, 10, 7.167734146118164
0, 0, 11, 3.899975061416626
0, 0, 12, 3.930014848709106
0, 0, 13, 6.353188991546631
0, 0, 14, 6.667613983154297
0, 0, 15, 9.243698120117188
0, 0, 16, 8.876684188842773
0, 0, 17, 10.4567289352417
0, 0, 18, 12.88603115081787
0, 0, 19, 42.18300628662109
0, 0, 20, 138.7627716064453
0, 0, 21, 222.8137969970703
0, 0, 22, 249.4302062988281
0, 0, 23, 256.7367553710938
0, 0, 24, 251.3921966552734
0, 0, 25, 260.0649108886719
0, 0, 26, 233.7232818603516
0, 0, 27, 235.9980010986328
0, 0, 28, 270.4452209472656
0, 0, 29, 252.4975891113281
0, 0, 30, 231.6816558837891
0, 0, 31, 244.9294738769531
0, 0, 32, 263.6551818847656
0, 0, 33, 263.2329711914062
0, 0, 34, 289.7991027832031
0, 0, 35, 268.0475769042969
0, 0, 36, 246.9793853759766
0, 0, 37, 251.8528442382812
0, 0, 38, 267.7552185058594
0, 0, 39, 230.2505187988281
0, 0, 40, 240.5715026855469
0, 0, 41, 266.5535888671875
0, 0, 42, 231.3336029052734
0, 0, 43, 259.5235290527344
0, 0, 44, 250.72998046875
0, 0, 45, 251.6782531738281
0, 0, 46, 244.252197265625
0, 0, 47, 252.4780883789062
0, 0, 48, 266.3133850097656
0, 0, 49, 274.032470703125
0, 0, 50, 250.1028289794922
0, 0, 51, 257.253173828125
0, 0, 52, 275.7465209960938
0, 0, 53, 292.6233520507812
0, 0, 54, 241.4336547851562
0, 0, 55, 239.4098205566406
0, 0, 56, 278.325439453125
0, 0, 57, 262.0920104980469
0, 0, 58, 245.7237091064453
0, 0, 59, 269.3390502929688
0, 0, 60, 235.5832061767578
0, 0, 61, 244.5554809570312
0, 0, 62, 256.3774719238281
0, 0, 63, 266.7521667480469
0, 0, 64, 255.5729217529297
0, 0, 65, 260.9067993164062
0, 0, 66, 276.3565368652344
0, 0, 67, 246.1887054443359
0, 0, 68, 258.7898559570312
0, 0, 69, 261.8659973144531
0, 0, 70, 274.4734497070312
0, 0, 71, 237.5530395507812
0, 0, 72, 250.3267974853516
0, 0, 73, 258.3246459960938
0, 0, 74, 252.1528625488281
0, 0, 75, 240.6290130615234
0, 0, 76, 230.7500762939453
0, 0, 77, 261.0423278808594
0, 0, 78, 258.3634033203125
0, 0, 79, 278.7289123535156
0, 0, 80, 216.9199676513672
0, 0, 81, 269.0504150390625
0, 0, 82, 257.822509765625
0, 0, 83, 246.0703430175781
0, 0, 84, 270.5609130859375
0, 0, 85, 232.2167205810547
0, 0, 86, 253.0111694335938
0, 0, 87, 251.9530181884766
0, 0, 88, 260.2707824707031
0, 0, 89, 283.0431823730469
0, 0, 90, 242.6755676269531
0, 0, 91, 282.1531066894531
0, 0, 92, 252.5008697509766
0, 0, 93, 249.1092071533203
0, 0, 94, 249.5225830078125
0, 0, 95, 248.1011199951172
0, 0, 96, 274.8490295410156
0, 0, 97, 273.1895751953125
0, 0, 98, 275.4615173339844
0, 0, 99, 259.7723999023438
0, 0, 100, 258.5133056640625
0, 0, 101, 225.1509246826172
0, 0, 102, 234.1405029296875
0, 0, 103, 269.0144653320312
0, 0, 104, 256.2710876464844
0, 0, 105, 253.4049377441406
0, 0, 106, 247.5549011230469
0, 0, 107, 151.9261932373047
0, 0, 108, 38.33368682861328
0, 0, 109, 13.39148426055908
0, 0, 110, 12.90583896636963
0, 0, 111, 8.793183326721191
0, 0, 112, 7.647519588470459
0, 0, 113, 5.087326526641846
0, 0, 114, 5.469075679779053
0, 0, 115, 4.842221260070801
0, 0, 116, 4.927612781524658
0, 0, 117, 5.644159317016602
0, 0, 118, 6.301690101623535
0, 0, 119, 4.733845233917236
0, 0, 120, 3.358988523483276
0, 0, 121, 4.373504161834717
0, 0, 122, 4.097307682037354
0, 0, 123, 3.772023677825928
0, 0, 124, 8.095582962036133
0, 0, 125, 4.356922626495361
0, 0, 126, 5.772272109985352
0, 0, 127, 1.826935172080994
0, 1, 0, 8.151204109191895
0, 1, 1, 3.054136037826538
0, 1, 2, 3.547422885894775
0, 1, 3, 1.425987362861633
0, 1, 4, 3.237080335617065
0, 1, 5, 5.421185970306396
0, 1, 6, 5.68067741394043
0, 1, 7, 5.245807647705078
0, 1, 8, 10.31328678131104
0, 1, 9, 4.356707096099854
0, 1, 10, 6.893506050109863
0, 1, 11, 10.85994720458984
0, 1, 12, 7.664000034332275
0, 1, 13, 10.26762580871582
0, 1, 14, 9.900651931762695
0, 1, 15, 8.946831703186035
0, 1, 16, 12.30803203582764
0, 1, 17, 9.367548942565918
0, 1, 18, 21.16117286682129
0, 1, 19, 66.64356994628906
0, 1, 20, 197.615478515625
0, 1, 21, 254.7833099365234
0, 1, 22, 296.5477905273438
0, 1, 23, 284.2788696289062
0, 1, 24, 277.006103515625
0, 1, 25, 288.9732666015625
0, 1, 26, 268.7828674316406
0, 1, 27, 307.5317687988281
0, 1, 28, 299.1102600097656
0, 1, 29, 296.0250854492188
0, 1, 30, 279.9021301269531
0, 1, 31, 291.4220275878906
0, 1, 32, 290.3333435058594
0, 1, 33, 295.4247741699219
0, 1, 34, 292.7935485839844
0, 1, 35, 277.7954406738281
0, 1, 36, 306.7171020507812
0, 1, 37, 294.5964965820312
0, 1, 38, 278.0983276367188
0, 1, 39, 296.2269592285156
0, 1, 40, 266.1033935546875
0, 1, 41, 287.7591247558594
0, 1, 42, 294.3818969726562
0, 1, 43, 334.22265625
0, 1, 44, 279.5321960449219
0, 1, 45, 292.4529418945312
0, 1, 46, 259.1191101074219
0, 1, 47, 309.3531188964844
0, 1, 48, 283.1336059570312
0, 1, 49, 301.58837890625
0, 1, 50, 264.2609558105469
0, 1, 51, 271.6220397949219
0, 1, 52, 295.2122497558594
0, 1, 53, 303.4497680664062
0, 1, 54, 274.1275939941406
0, 1, 55, 294.1896057128906
0, 1, 56, 277.5068359375
0, 1, 57, 297.3246765136719
0, 1, 58, 309.5194702148438
0, 1, 59, 292.4157409667969
0, 1, 60, 296.3721618652344
0, 1, 61, 275.3594665527344
0, 1, 62, 311.2748413085938
0, 1, 63, 285.6921691894531
0, 1, 64, 289.9804077148438
0, 1, 65, 295.3749389648438
0, 1, 66, 291.3791809082031
0, 1, 67, 291.7356262207031
0, 1, 68, 277.1673889160156
0, 1, 69, 279.5216064453125
0, 1, 70, 270.200439453125
0, 1, 71, 273.1267700195312
0, 1, 72, 286.172607421875
0, 1, 73, 303.4814147949219
0, 1, 74, 304.6820373535156
0, 1, 75, 294.350341796875
0, 1, 76, 284.9158020019531
0, 1, 77, 291.333740234375
0, 1, 78, 298.5107421875
0, 1, 79, 301.4660034179688
0, 1, 80, 295.516357421875
0, 1, 81, 299.9097900390625
0, 1, 82, 284.7315063476562
0, 1, 83, 331.3074340820312
0, 1, 84, 308.1730346679688
0, 1, 85, 252.5172882080078
0, 1, 86, 293.3523559570312
0, 1, 87, 292.2617797851562
0, 1, 88, 297.1578063964844
0, 1, 89, 289.5085144042969
0, 1, 90, 271.5917053222656
0, 1, 91, 317.6435852050781
0, 1, 92, 292.6456604003906
0, 1, 93, 286.8751525878906
0, 1, 94, 304.1038818359375
0, 1, 95, 284.3206481933594
0, 1, 96, 283.1345825195312
0, 1, 97, 301.4617309570312
0, 1, 98, 278.8543395996094
0, 1, 99, 267.1891174316406
0, 1, 100, 276.3517456054688
0, 1, 101, 280.3205871582031
0, 1, 102, 279.1890563964844
0, 1, 103, 283.4502868652344
0, 1, 104, 306.1183471679688
0, 1, 105, 296.9768981933594
0, 1, 106, 261.2130432128906
0, 1, 107, 191.53271484375
0, 1, 108, 80.34063720703125
0, 1, 109, 27.43470764160156
0, 1, 110, 11.98573780059814
0, 1, 111, 9.257162094116211
0, 1, 112, 13.3032922744751
0, 1, 113, 7.018968105316162
0, 1, 114, 7.17259407043457
0, 1, 115, 7.132026672363281
0, 1, 116, 11.5952787399292
0, 1, 117, 6.819950103759766
0, 1, 118, 4.26170825958252
0, 1, 119, 4.617608547210693
0, 1, 120, 6.340693473815918
0, 1, 121, 4.821860790252686
0, 1, 122, 5.302982330322266
0, 1, 123, 2.37610387802124
0, 1, 124, 6.9921875
0, 1, 125, 4.471174716949463
0, 1, 126, 3.373424053192139
0, 1, 127, 0.7137708067893982
0, 2, 0, 3.899341821670532
0, 2, 1, 1.806426405906677
0, 2, 2, 2.986237287521362
0, 2, 3, 4.647268295288086
0, 2, 4, 2.532240152359009
0, 2, 5, 1.621429681777954
0, 2, 6, 2.625357151031494
0, 2, 7, 5.137414932250977
0, 2, 8, 4.465608596801758
0, 2, 9, 5.534504890441895
0, 2, 10, 8.25382137298584
0, 2, 11, 5.096618175506592
0, 2, 12, 7.282943725585938
0, 2, 13, 10.5210075378418
0, 2, 14, 9.291115760803223
0, 2, 15, 8.019504547119141
0, 2, 16, 9.341652870178223
0, 2, 17, 16.22507858276367
0, 2, 18, 30.62374687194824
0, 2, 19, 120.3147735595703
0, 2, 20, 245.0574645996094
0, 2, 21, 273.091552734375
0, 2, 22, 316.1245727539062
0, 2, 23, 300.6219482421875
0, 2, 24, 286.5341186523438
0, 2, 25, 302.8476867675781
0, 2, 26, 292.32275390625
0, 2, 27, 275.1925964355469
0, 2, 28, 274.7567749023438
0, 2, 29, 274.0157470703125
0, 2, 30, 289.6897277832031
0, 2, 31, 277.456787109375
0, 2, 32, 292.2266845703125
0, 2, 33, 282.1802673339844
0, 2, 34, 330.6781616210938
0, 2, 35, 288.3584594726562
0, 2, 36, 302.1000671386719
0, 2, 37, 315.3271179199219
0, 2, 38, 310.378662109375
0, 2, 39, 267.1153869628906
0, 2, 40, 307.3389892578125
0, 2, 41, 294.2562561035156
0, 2, 42, 303.8715515136719
0, 2, 43, 313.9697875976562
0, 2, 44, 313.2665100097656
0, 2, 45, 326.715576171875
0, 2, 46, 286.7032775878906
0, 2, 47, 301.8257141113281
0, 2, 48, 282.7650451660156
0, 2, 49, 278.7374877929688
0, 2, 50, 294.1611328125
0, 2, 51, 284.6996765136719
0, 2, 52, 272.6726989746094
0, 2, 53, 285.3618469238281
0, 2, 54, 280.4154052734375
0, 2, 55, 278.9009094238281
0, 2, 56, 301.0773315429688
0, 2, 57, 292.0931701660156
0, 2, 58, 305.9154968261719
0, 2, 59, 290.9941711425781
0, 2, 60, 318.6663513183594
0, 2, 61, 301.9468688964844
0, 2, 62, 313.2073669433594
0, 2, 63, 302.2241516113281
0, 2, 64, 296.6033325195312
0, 2, 65, 313.5976867675781
0, 2, 66, 280.4593811035156
0, 2, 67, 290.5354309082031
0, 2, 68, 296.1437377929688
0, 2, 69, 310.5924682617188
0, 2, 70, 333.8951721191406
0, 2, 71, 286.6505737304688
0, 2, 72, 300.9710693359375
0, 2, 73, 311.346923828125
0, 2, 74, 288.6828918457031
0, 2, 75, 305.0388488769531
0, 2, 76, 292.4169006347656
0, 2, 77, 300.2965087890625
0, 2, 78, 314.6574401855469
0, 2, 79, 307.2649230957031
0, 2, 80, 295.6925659179688
0, 2, 81, 282.3233642578125
0, 2, 82, 319.6260375976562
0, 2, 83, 312.9802551269531
0, 2, 84, 287.2165222167969
0, 2, 85, 281.7022094726562
0, 2, 86, 325.3575134277344
0, 2, 87, 286.4202575683594
0, 2, 88, 281.2485656738281
0, 2, 89, 296.2599182128906
0, 2, 90, 294.7080078125
0, 2, 91, 276.0650634765625
0, 2, 92, 304.9371337890625
0, 2, 93, 316.6285095214844
0, 2, 94, 291.01220703125
0, 2, 95, 314.9167785644531
0, 2, 96, 315.2058715820312
0, 2, 97, 292.4195556640625
0, 2, 98, 292.3954467773438
0, 2, 99, 272.9900207519531
0, 2, 100, 307.2930603027344
0, 2, 101, 302.7168579101562
0, 2, 102, 295.603271484375
0, 2, 103, 291.9040222167969
0, 2, 104, 291.6375427246094
0, 2, 105, 273.2613830566406
0, 2, 106, 296.0860900878906
0, 2, 107, 268.962890625
0, 2, 108, 117.0221252441406
0, 2, 109, 31.66251945495605
0, 2, 110, 9.753003120422363
0, 2, 111, 10.3185920715332
0, 2, 112, 9.064952850341797
0, 2, 113, 10.86002540588379
0, 2, 114, 9.995255470275879
0, 2, 115, 11.01839256286621
0, 2, 116, 10.01503276824951
0, 2, 117, 8.928874969482422
0, 2, 118, 2.64448356628418
0, 2, 119, 2.975088834762573
0, 2, 120, 6.283439636230469
0, 2, 121, 1.395633459091187
0, 2, 122, 3.723232746124268
0, 2, 123, 4.775713443756104
0, 2, 124, 2.831554412841797
0, 2, 125, 5.540058135986328
0, 2, 126, 3.226522445678711
0, 2, 127, 6.006514072418213
0, 3, 0, 2.242682218551636
0, 3, 1, 3.101377487182617
0, 3, 2, 3.46628212928772
0, 3, 3, 1.40641713142395
0, 3, 4, 4.635276794433594
0, 3, 5, 7.765142440795898
0, 3, 6, 6.939883232116699
0, 3, 7, 5.923373222351074
0, 3, 8, 5.51350736618042
0, 3, 9, 4.926887989044189
0, 3, 10, 8.640426635742188
0, 3, 11, 5.581624031066895
0, 3, 12, 8.291435241699219
0, 3, 13, 15.66330528259277
0, 3, 14, 10.55768775939941
0, 3, 15, 12.70524597167969
0, 3, 16, 11.29954814910889
0, 3, 17, 20.56071662902832
0, 3, 18, 51.63326644897461
0, 3, 19, 174.8480682373047
0, 3, 20, 269.3762512207031
0, 3, 21, 270.3894348144531
0, 3, 22, 282.5225830078125
0, 3, 23, 287.743896484375
0, 3, 24, 286.0502014160156
0, 3, 25, 270.1269836425781
0, 3, 26, 304.5908813476562
0, 3, 27, 291.3507995605469
0, 3, 28, 280.3549194335938
0, 3, 29, 336.7911376953125
0, 3, 30, 317.7706604003906
0, 3, 31, 288.7856750488281
0, 3, 32, 307.6927490234375
0, 3, 33, 314.2813110351562
0, 3, 34, 322.513916015625
0, 3, 35, 306.7391357421875
0, 3, 36, 267.4631042480469
0, 3, 37, 316.2553100585938
0, 3, 38, 303.9684753417969
0, 3, 39, 293.3255920410156
0, 3, 40, 268.3316650390625
0, 3, 41, 299.5257873535156
0, 3, 42, 285.7018737792969
0, 3, 43, 306.0339660644531
0, 3, 44, 311.5599060058594
0, 3, 45, 289.76416015625
0, 3, 46, 328.4917907714844
0, 3, 47, 298.7593078613281
0, 3, 48, 303.8182678222656
0, 3, 49, 277.0957946777344
0, 3, 50, 295.1510925292969
0, 3, 51, 276.0163879394531
0, 3, 52, 317.3801574707031
0, 3, 53, 286.2987976074219
0, 3, 54, 283.4054870605469
0, 3, 55, 286.3299255371094
0, 3, 56, 298.0674438476562
0, 3, 57, 291.8649291992188
0, 3, 58, 305.773681640625
0, 3, 59, 295.3587036132812
0, 3, 60, 296.914794921875
0, 3, 61, 267.1882934570312
0, 3, 62, 285.0469665527344
0, 3, 63, 306.2524108886719
0, 3, 64, 316.9854431152344
0, 3, 65, 306.0665283203125
0, 3, 66, 313.2567443847656
0, 3, 67, 317.2148742675781
0, 3, 68, 279.6380920410156
0, 3, 69, 281.702880859375
0, 3, 70, 290.3189392089844
0, 3, 71, 298.6733093261719
0, 3, 72, 268.2385864257812
0, 3, 73, 313.4734497070312
0, 3, 74, 292.341064453125
0, 3, 75, 290.0802917480469
0, 3, 76, 305.0465698242188
0, 3, 77, 313.4950561523438
0, 3, 78, 304.4982299804688
0, 3, 79, 282.5933532714844
0, 3, 80, 292.2501525878906
0, 3, 81, 310.1166076660156
0, 3, 82, 315.0296630859375
0, 3, 83, 301.6626586914062
0, 3, 84, 310.6539001464844
0, 3, 85, 294.3117980957031
0, 3, 86, 301.3279724121094
0, 3, 87, 300.0271301269531
0, 3, 88, 302.6967468261719
0, 3, 89, 295.5576782226562
0, 3, 90, 275.6307678222656
0, 3, 91, 284.3072204589844
0, 3, 92, 304.6778564453125
0, 3, 93, 312.6462097167969
0, 3, 94, 299.1899719238281
0, 3, 95, 334.9447021484375
0, 3, 96, 289.6098022460938
0, 3, 97, 283.7582702636719
0, 3, 98, 278.1405029296875
0, 3, 99, 261.214599609375
0, 3, 100, 284.6468811035156
0, 3, 101, 298.068603515625
0, 3, 102, 274.3240966796875
0, 3, 103, 318.7579345703125
0, 3, 104, 309.0058898925781
0, 3, 105, 288.4435729980469
0, 3, 106, 302.7901306152344
0, 3, 107, 283.081298828125
0, 3, 108, 170.0378570556641
0, 3, 109, 56.66242980957031
0, 3, 110, 16.92849349975586
0, 3, 111, 12.21865177154541
0, 3, 112, 13.82784557342529
0, 3, 113, 5.96607494354248
0, 3, 114, 10.08635520935059
0, 3, 115, 6.714343547821045
0, 3, 116, 8.02413272857666
0, 3, 117, 6.181529521942139
0, 3, 118, 4.932883262634277
0, 3, 119, 5.606975555419922
0, 3, 120, 10.08713054656982
0, 3, 121, 2.768074750900269
0, 3, 122, 1.995815873146057
0, 3, 123, 5.652350425720215
0, 3, 124, 5.193974494934082
0, 3, 125, 4.157933712005615
0, 3, 126, 3.876877307891846
0, 3, 127, 1.718854546546936
0, 4, 0, 3.718732118606567
0, 4, 1, 6.464123725891113
0, 4, 2, 3.067067861557007
0, 4, 3, 1.713178515434265
0, 4, 4, 7.466825008392334
0, 4, 5, 8.756567001342773
0, 4, 6, 7.28969144821167
0, 4, 7, 4.348941326141357
0, 4, 8, 5.650423049926758
0, 4, 9, 6.542630195617676
0, 4, 10, 5.689949989318848
0, 4, 11, 6.993578910827637
0, 4, 12, 5.711514472961426
0, 4, 13, 8.941730499267578
0, 4, 14, 12.82269382476807
0, 4, 15, 10.70644283294678
0, 4, 16, 14.19622230529785
0, 4, 17, 19.27105712890625
0, 4, 18, 95.861572265625
0, 4, 19, 226.3225860595703
0, 4, 20, 285.119140625
0, 4, 21, 271.9165344238281
0, 4, 22, 304.4981384277344
0, 4, 23, 266.4344177246094
0, 4, 24, 289.7727966308594
0, 4, 25, 272.892822265625
0, 4, 26, 294.1663513183594
0, 4, 27, 282.1211547851562
0, 4, 28, 309.4091796875
0, 4, 29, 323.5180969238281
0, 4, 30, 310.5494079589844
0, 4, 31, 303.2765502929688
0, 4, 32, 281.0929870605469
0, 4, 33, 295.2992248535156
0, 4, 34, 296.3056030273438
0, 4, 35, 312.9034118652344
0, 4, 36, 290.5843811035156
0, 4, 37, 291.1757202148438
0, 4, 38, 301.2985534667969
0, 4, 39, 295.0588684082031
0, 4, 40, 302.56982421875
0, 4, 41, 316.1436462402344
0, 4, 42, 330.2140808105469
0, 4, 43, 299.7201843261719
0, 4, 44, 319.6533203125
0, 4, 45, 324.1480712890625
0, 4, 46, 304.712158203125
0, 4, 47, 293.9676818847656
0, 4, 48, 295.7140197753906
0, 4, 49, 277.2679443359375
0, 4, 50, 295.9989624023438
0, 4, 51, 316.3590393066406
0, 4, 52, 327.4709167480469
0, 4, 53, 304.1872863769531
0, 4, 54, 286.8759460449219
0, 4, 55, 314.680419921875
0, 4, 56, 287.4578857421875
0, 4, 57, 310.9974060058594
0, 4, 58, 293.0484619140625
0, 4, 59, 307.9816589355469
0, 4, 60, 300.7740173339844
0, 4, 61, 317.5382080078125
0, 4, 62, 309.8421020507812
0, 4, 63, 300.141357421875
0, 4, 64, 331.3665161132812
0, 4, 65, 317.05859375
0, 4, 66, 294.2363586425781
0, 4, 67, 284.7311401367188
0, 4, 68, 313.423095703125
0, 4, 69, 277.7829895019531
0, 4, 70, 298.7206726074219
0, 4, 71, 321.1254577636719
0, 4, 72, 332.1488342285156
0, 4, 73, 299.0254211425781
0, 4, 74, 291.6322326660156
0, 4, 75, 289.8446044921875
0, 4, 76, 276.1773376464844
0, 4, 77, 278.5534057617188
0, 4, 78, 308.8314514160156
0, 4, 79, 318.7705688476562
0, 4, 80, 314.796875
0, 4, 81, 314.6326904296875
0, 4, 82, 297.4058227539062
0, 4, 83, 300.2041320800781
0, 4, 84, 293.2497253417969
0, 4, 85, 293.8663330078125
0, 4, 86, 298.6278686523438
0, 4, 87, 286.9078369140625
0, 4, 88, 303.8100280761719
0, 4, 89, 293.2507019042969
0, 4, 90, 333.0650939941406
0, 4, 91, 301.1756591796875
0, 4, 92, 288.8440551757812
0, 4, 93, 296.4880981445312
0, 4, 94, 292.767578125
0, 4, 95, 287.7268981933594
0, 4, 96, 327.43994140625
0, 4, 97, 274.0284423828125
0, 4, 98, 326.275146484375
0, 4, 99, 313.6802673339844
0, 4, 100, 299.48974609375
0, 4, 101, 259.2152099609375
0, 4, 102, 294.9884338378906
0, 4, 103, 318.4088439941406
0, 4, 104, 281.1568908691406
0, 4, 105, 310.0244750976562
0, 4, 106, 286.5517272949219
0, 4, 107, 294.9101257324219
0, 4, 108, 225.6019439697266
0, 4, 109, 80.28753662109375
0, 4, 110, 16.46988105773926
0, 4, 111, 14.162278175354
0, 4, 112, 8.128339767456055
0, 4, 113, 11.07683181762695
0, 4, 114, 8.902959823608398
0, 4, 115, 8.725559234619141
0, 4, 116, 10.0425853729248
0, 4, 117, 7.992080211639404
0, 4, 118, 15.1768159866333
0, 4, 119, 13.19036865234375
0, 4, 120, 5.770153045654297
0, 4, 121, 7.18206262588501
0, 4, 122, 5.024166107177734
0, 4, 123, 5.912392616271973
0, 4, 124, 5.206586360931396
0, 4, 125, 8.14213752746582
0, 4, 126, 5.402684211730957
0, 4, 127, 4.308761119842529
0, 5, 0, 2.989527702331543
0, 5, 1, 3.22699499130249
0, 5, 2, 6.467621326446533
0, 5, 3, 6.801834583282471
0, 5, 4, 4.437824726104736
0, 5, 5, 9.833279609680176
0, 5, 6, 7.386319160461426
0, 5, 7, 4.997005939483643
0, 5, 8, 7.647962093353271
0, 5, 9, 5.20140552520752
0, 5, 10, 7.455591201782227
0, 5, 11, 9.0118408203125
0, 5, 12, 9.437472343444824
0, 5, 13, 8.44277286529541
0, 5, 14, 11.45494937896729
0, 5, 15, 15.21578693389893
0, 5, 16, 14.63194465637207
0, 5, 17, 29.15541648864746
0, 5, 18, 136.9769439697266
0, 5, 19, 287.4868774414062
0, 5, 20, 308.7427673339844
0, 5, 21, 318.5925598144531
0, 5, 22, 277.2834777832031
0, 5, 23, 309.5301818847656
0, 5, 24, 301.529296875
0, 5, 25, 288.6438598632812
0, 5, 26, 294.3909606933594
0, 5, 27, 321.9487609863281
0, 5, 28, 303.0707702636719
0, 5, 29, 298.4165954589844
0, 5, 30, 323.2327880859375
0, 5, 31, 285.9370727539062
0, 5, 32, 304.2541809082031
0, 5, 33, 302.6720886230469
0, 5, 34, 298.6258544921875
0, 5, 35, 309.9478759765625
0, 5, 36, 273.1480407714844
0, 5, 37, 282.2965698242188
0, 5, 38, 291.2804260253906
0, 5, 39, 315.0365600585938
0, 5, 40, 310.6307067871094
0, 5, 41, 274.4599609375
0, 5, 42, 305.4461669921875
0, 5, 43, 318.6571350097656
0, 5, 44, 295.0834045410156
0, 5, 45, 303.9176940917969
0, 5, 46, 264.8424377441406
0, 5, 47, 281.1278991699219
0, 5, 48, 292.6369018554688
0, 5, 49, 286.7227172851562
0, 5, 50, 295.2341918945312
0, 5, 51, 279.025146484375
0, 5, 52, 268.9729309082031
0, 5, 53, 285.4139099121094
0, 5, 54, 291.2515258789062
0, 5, 55, 343.9322204589844
0, 5, 56, 305.8974304199219
0, 5, 57, 310.1680297851562
0, 5, 58, 311.0948791503906
0, 5, 59, 302.794921875
0, 5, 60, 310.3597717285156
0, 5, 61, 282.7453918457031
0, 5, 62, 327.6465759277344
0, 5, 63, 290.1265869140625
0, 5, 64, 324.502685546875
0, 5, 65, 309.0899658203125
0, 5, 66, 328.7555847167969
0, 5, 67, 311.5780029296875
0, 5, 68, 309.262939453125
0, 5, 69, 311.3464660644531
0, 5, 70, 302.8973083496094
0, 5, 71, 272.6741638183594
0, 5, 72, 312.6735229492188
0, 5, 73, 302.0317993164062
0, 5, 74, 295.1023254394531
0, 5, 75, 294.4780883789062
0, 5, 76, 284.579833984375
0, 5, 77, 296.4705200195312
0, 5, 78, 316.7621765136719
0, 5, 79, 308.3487243652344
0, 5, 80, 296.0050659179688
0, 5, 81, 327.6488952636719
0, 5, 82, 324.2315673828125
0, 5, 83, 280.1065673828125
0, 5, 84, 303.4231262207031
0, 5, 85, 272.3347778320312
0, 5, 86, 325.9637145996094
0, 5, 87, 284.1586303710938
0, 5, 88, 313.8204956054688
0, 5, 89, 306.1919250488281
0, 5, 90, 317.1230163574219
0, 5, 91, 315.3309936523438
0, 5, 92, 296.460205078125
0, 5, 93, 322.2181701660156
0, 5, 94, 306.4084167480469
0, 5, 95, 296.841552734375
0, 5, 96, 296.9606323242188
0, 5, 97, 295.7073364257812
0, 5, 98, 318.9903259277344
0, 5, 99, 302.6247863769531
0, 5, 100, 290.2562255859375
0, 5, 101, 304.6728820800781
0, 5, 102, 291.1759948730469
0, 5, 103, 315.234619140625
0, 5, 104, 301.64501953125
0, 5, 105, 291.1731872558594
0, 5, 106, 281.8843994140625
0, 5, 107, 293.1305847167969
0, 5, 108, 265.7428588867188
0, 5, 109, 157.5132141113281
0, 5, 110, 40.0800666809082
0, 5, 111, 21.18406105041504
0, 5, 112, 18.05660438537598
0, 5, 113, 12.83813571929932
0, 5, 114, 14.01830577850342
0, 5, 115, 9.375757217407227
0, 5, 116, 8.1986083984375
0, 5, 117, 7.326854228973389
0, 5, 118, 13.7584342956543
0, 5, 119, 4.66429615020752
0, 5, 120, 5.505773544311523
0, 5, 121, 6.684953689575195
0, 5, 122, 4.477508068084717
0, 5, 123, 4.484773635864258
0, 5, 124, 7.936513423919678
0, 5, 125, 4.869535446166992
0, 5, 126, 5.744040012359619
0, 5, 127, 2.843973875045776
0, 6, 0, 5.539060592651367
0, 6, 1, 3.667477369308472
0, 6, 2, 3.736900329589844
0, 6, 3, 4.6314377784729
0, 6, 4, 3.953047037124634
0, 6, 5, 4.739542961120605
0, 6, 6, 7.275966167449951
0, 6, 7, 5.384466171264648
0, 6, 8, 7.154449462890625
0, 6, 9, 8.071215629577637
0, 6, 10, 9.081625938415527
0, 6, 11, 9.219461441040039
0, 6, 12, 9.522683143615723
0, 6, 13, 13.65836715698242
0, 6, 14, 7.857795238494873
0, 6, 15, 17.1029224395752
0, 6, 16, 29.75449562072754
0, 6, 17, 56.58528137207031
0, 6, 18, 171.7866516113281
0, 6, 19, 275.0970458984375
0, 6, 20, 291.0899658203125
0, 6, 21, 313.5422973632812
0, 6, 22, 319.5282897949219
0, 6, 23, 307.7576293945312
0, 6, 24, 316.2250671386719
0, 6, 25, 315.7657165527344
0, 6, 26, 323.555419921875
0, 6, 27, 330.3599548339844
0, 6, 28, 294.7879943847656
0, 6, 29, 329.7335510253906
0, 6, 30, 281.6096496582031
0, 6, 31, 285.8191833496094
0, 6, 32, 339.8278503417969
0, 6, 33, 299.9969482421875
0, 6, 34, 342.0610961914062
0, 6, 35, 319.9230346679688
0, 6, 36, 274.5460815429688
0, 6, 37, 292.9216003417969
0, 6, 38, 310.0782775878906
0, 6, 39, 300.1148986816406
0, 6, 40, 283.0782470703125
0, 6, 41, 297.9706726074219
0, 6, 42, 305.4293518066406
0, 6, 43, 288.7381286621094
0, 6, 44, 279.8614501953125
0, 6, 45, 319.0094299316406
0, 6, 46, 301.9613342285156
0, 6, 47, 332.8082275390625
0, 6, 48, 291.1473083496094
0, 6, 49, 310.8021850585938
0, 6, 50, 327.5804138183594
0, 6, 51, 310.7541809082031
0, 6, 52, 320.6512451171875
0, 6, 53, 329.0352478027344
0, 6, 54, 306.7601318359375
0, 6, 55, 305.00537109375
0, 6, 56, 293.7293395996094
0, 6, 57, 312.8351745605469
0, 6, 58, 260.5269165039062
0, 6, 59, 305.2288208007812
0, 6, 60, 312.7654113769531
0, 6, 61, 269.7996215820312
0, 6, 62, 333.7956237792969
0, 6, 63, 322.9999694824219
0, 6, 64, 291.7843627929688
0, 6, 65, 284.0504760742188
0, 6, 66, 302.0744018554688
0, 6, 67, 308.8285827636719
0, 6, 68, 296.2636413574219
0, 6, 69, 279.0748901367188
0, 6, 70, 274.1893310546875
0, 6, 71, 290.920166015625
0, 6, 72, 309.5900268554688
0, 6, 73, 292.3614807128906
0, 6, 74, 329.8241882324219
0, 6, 75, 344.3011474609375
0, 6, 76, 297.2454833984375
0, 6, 77, 287.9019470214844
0, 6, 78, 278.81591796875
0, 6, 79, 296.1825561523438
0, 6, 80, 303.1723022460938
0, 6, 81, 313.8523559570312
0, 6, 82, 319.47607421875
0, 6, 83, 323.043212890625
0, 6, 84, 295.7943725585938
0, 6, 85, 301.1160888671875
0, 6, 86, 329.2702026367188
0, 6, 87, 289.9028015136719
0, 6, 88, 308.5553283691406
0, 6, 89, 304.8469848632812
0, 6, 90, 299.7559814453125
0, 6, 91, 311.8640747070312
0, 6, 92, 285.4002075195312
0, 6, 93, 297.8023071289062
0, 6, 94, 272.6225280761719
0, 6, 95, 299.5319213867188
0, 6, 96, 345.9942321777344
0, 6, 97, 307.7271423339844
0, 6, 98, 301.0633850097656
0, 6, 99, 274.176513671875
0, 6, 100, 309.54443359375
0, 6, 101, 293.3934020996094
0, 6, 102, 307.2071533203125
0, 6, 103, 307.5870361328125
0, 6, 104, 294.5939331054688
0, 6, 105, 301.6139221191406
0, 6, 106, 306.1647644042969
0, 6, 107, 304.2799682617188
0, 6, 108, 266.1974792480469
0, 6, 109, 187.1624603271484
0, 6, 110, 53.38772201538086
0, 6, 111, 23.09247207641602
0, 6, 112, 14.02626037597656
0, 6, 113, 11.63829708099365
0, 6, 114, 12.42330455780029
0, 6, 115, 12.39759731292725
0, 6, 116, 10.63994026184082
0, 6, 117, 6.992604732513428
0, 6, 118, 8.405399322509766
0, 6, 119, 10.08960342407227
0, 6, 120, 5.149370670318604
0, 6, 121, 6.899489879608154
0, 6, 122, 8.154472351074219
0, 6, 123, 2.951492547988892
0, 6, 124, 8.238926887512207
0, 6, 125, 7.691770076751709
0, 6, 126, 4.795211315155029
0, 6, 127, 6.687344551086426
0, 7, 0, 5.911025047302246
0, 7, 1, 3.41841983795166
0, 7, 2, 5.014464378356934
0, 7, 3, 4.245948314666748
0, 7, 4, 3.817773818969727
0, 7, 5, 4.350286960601807
0, 7, 6, 6.547905921936035
0, 7, 7, 4.304050445556641
0, 7, 8, 4.848799705505371
0, 7, 9, 10.41532707214355
0, 7, 10, 10.42891025543213
0, 7, 11, 10.15348529815674
0, 7, 12, 10.13170146942139
0, 7, 13, 12.190185546875
0, 7, 14, 11.04402446746826
0, 7, 15, 17.46561813354492
0, 7, 16, 25.53695869445801
0, 7, 17, 96.96195220947266
0, 7, 18, 220.0025787353516
0, 7, 19, 292.1856994628906
0, 7, 20, 295.8362426757812
0, 7, 21, 277.0426330566406
0, 7, 22, 301.510009765625
0, 7, 23, 288.6488647460938
0, 7, 24, 315.1063537597656
0, 7, 25, 324.3843994140625
0, 7, 26, 277.6272277832031
0, 7, 27, 297.8373107910156
0, 7, 28, 325.3643188476562
0, 7, 29, 319.3960876464844
0, 7, 30, 299.18310546875
0, 7, 31, 277.2228088378906
0, 7, 32, 303.9501953125
0, 7, 33, 265.1867065429688
0, 7, 34, 297.4167785644531
0, 7, 35, 318.74365234375
0, 7, 36, 332.24755859375
0, 7, 37, 323.5874633789062
0, 7, 38, 297.0355834960938
0, 7, 39, 307.3671264648438
0, 7, 40, 291.4906616210938
0, 7, 41, 272.5082092285156
0, 7, 42, 301.4389343261719
0, 7, 43, 272.421630859375
0, 7, 44, 303.0758056640625
0, 7, 45, 294.6654357910156
0, 7, 46, 280.571044921875
0, 7, 47, 329.0377807617188
0, 7, 48, 286.6665344238281
0, 7, 49, 303.1555480957031
0, 7, 50, 321.1598510742188
0, 7, 51, 298.6141967773438
0, 7, 52, 326.3497314453125
0, 7, 53, 313.0483703613281
0, 7, 54, 322.5865173339844
0, 7, 55, 306.0429077148438
0, 7, 56, 279.8366394042969
0, 7, 57, 281.9245300292969
0, 7, 58, 296.2821655273438
0, 7, 59, 293.8155517578125
0, 7, 60, 322.9774475097656
0, 7, 61, 277.4829406738281
0, 7, 62, 297.7549438476562
0, 7, 63, 292.6617736816406
0, 7, 64, 306.0052795410156
0, 7, 65, 331.162841796875
0, 7, 66, 318.95458984375
0, 7, 67, 302.9131469726562
0, 7, 68, 279.4877014160156
0, 7, 69, 295.6897277832031
0, 7, 70, 302.5538024902344
0, 7, 71, 312.3718872070312
0, 7, 72, 283.6735229492188
0, 7, 73, 295.2691040039062
0, 7, 74, 344.9247436523438
0, 7, 75, 320.3494873046875
0, 7, 76, 325.7088623046875
0, 7, 77, 280.4229431152344
0, 7, 78, 299.2244262695312
0, 7, 79, 298.4874572753906
0, 7, 80, 310.9615783691406
0, 7, 81, 318.6851806640625
0, 7, 82, 329.6446838378906
0, 7, 83, 317.6974792480469
0, 7, 84, 311.0788269042969
0, 7, 85, 272.068359375
0, 7, 86, 310.4555358886719
0, 7, 87, 312.6841430664062
0, 7, 88, 307.2602844238281
0, 7, 89, 293.1594848632812
0, 7, 90, 306.6611938476562
0, 7, 91, 314.8555603027344
0, 7, 92, 289.39208984375
0, 7, 93, 308.78125
0, 7, 94, 272.7016906738281
0, 7, 95, 299.2165832519531
0, 7, 96, 332.6830444335938
0, 7, 97, 295.7218933105469
0, 7, 98, 290.3264465332031
0, 7, 99, 313.0047607421875
0, 7, 100, 284.0686645507812
0, 7, 101, 275.8348083496094
0, 7, 102, 292.9331970214844
0, 7, 103, 291.0871276855469
0, 7, 104, 273.8056335449219
0, 7, 105, 306.7786865234375
0, 7, 106, 318.3615112304688
0, 7, 107, 297.9541320800781
0, 7, 108, 273.7099304199219
0, 7, 109, 235.1260986328125
0, 7, 110, 97.30474090576172
0, 7, 111, 23.88246726989746
0, 7, 112, 12.10692501068115
0, 7, 113, 14.82528495788574
0, 7, 114, 12.94563674926758
0, 7, 115, 11.71569538116455
0, 7, 116, 7.415477752685547
0, 7, 117, 7.5234055519104
0, 7, 118, 7.65388822555542
0, 7, 119, 5.450422286987305
0, 7, 120, 5.024734973907471
0, 7, 121, 7.780749320983887
0, 7, 122, 6.016349315643311
0, 7, 123, 5.002993583679199
0, 7, 124, 3.890373945236206
0, 7, 125, 5.493935108184814
0, 7, 126, 7.765172958374023
0, 7, 127, 6.106140613555908
0, 8, 0, 5.241222381591797
0, 8, 1, 3.031253099441528
0, 8, 2, 2.818228960037231
0, 8, 3, 3.510127067565918
0, 8, 4, 5.42768383026123
0, 8, 5, 4.383608341217041
0, 8, 6, 4.780417442321777
0, 8, 7, 5.639189720153809
0, 8, 8, 7.639290809631348
0, 8, 9, 4.590450763702393
0, 8, 10, 9.168891906738281
0, 8, 11, 11.27471828460693
0, 8, 12, 13.25233173370361
0, 8, 13, 13.48859310150146
0, 8, 14, 12.68966579437256
0, 8, 15, 17.50672912597656
0, 8, 16, 32.40280532836914
0, 8, 17, 129.8577575683594
0, 8, 18, 243.3002014160156
0, 8, 19, 294.8659057617188
0, 8, 20, 287.0868530273438
0, 8, 21, 308.494873046875
0, 8, 22, 296.4710388183594
0, 8, 23, 275.1520385742188
0, 8, 24, 269.2642211914062
0, 8, 25, 275.8840942382812
0, 8, 26, 305.4217224121094
0, 8, 27, 307.5841979980469
0, 8, 28, 306.0068664550781
0, 8, 29, 317.8124084472656
0, 8, 30, 314.4782104492188
0, 8, 31, 306.51953125
0, 8, 32, 281.6449890136719
0, 8, 33, 294.6274108886719
0, 8, 34, 287.7473754882812
0, 8, 35, 278.342529296875
0, 8, 36, 317.89697265625
0, 8, 37, 338.725830078125
0, 8, 38, 332.0390319824219
0, 8, 39, 279.931884765625
0, 8, 40, 305.751953125
