# TOPAS Version: 3.1.p3
# Parameter File: batch_inserts_150.txt
# Results for scorer Readout_Adipose
# Scored in component: MyBox
# X in 1 bin  of 0.75 cm
# Y in 512 bins of 0.0783984 cm
# Z in 128 bins of 0.078125 cm
# EnergyDeposit ( MeV ) : Sum   
0, 0, 0, 4.878129482269287
0, 0, 1, 2.185332059860229
0, 0, 2, 3.7238609790802
0, 0, 3, 1.935046195983887
0, 0, 4, 3.679409742355347
0, 0, 5, 2.096476554870605
0, 0, 6, 6.845404148101807
0, 0, 7, 9.152710914611816
0, 0, 8, 2.023005723953247
0, 0, 9, 4.015677452087402
0, 0, 10, 6.018099784851074
0, 0, 11, 4.475625038146973
0, 0, 12, 4.728809356689453
0, 0, 13, 6.582292079925537
0, 0, 14, 7.28720760345459
0, 0, 15, 8.342949867248535
0, 0, 16, 9.514125823974609
0, 0, 17, 9.593485832214355
0, 0, 18, 15.36997985839844
0, 0, 19, 42.84210586547852
0, 0, 20, 138.0004730224609
0, 0, 21, 222.1928100585938
0, 0, 22, 248.2137756347656
0, 0, 23, 257.5458374023438
0, 0, 24, 251.0382995605469
0, 0, 25, 257.928466796875
0, 0, 26, 233.3124237060547
0, 0, 27, 239.1101531982422
0, 0, 28, 273.0567321777344
0, 0, 29, 252.4267425537109
0, 0, 30, 229.3186492919922
0, 0, 31, 242.8827056884766
0, 0, 32, 264.118408203125
0, 0, 33, 261.2156066894531
0, 0, 34, 287.3399963378906
0, 0, 35, 267.0643005371094
0, 0, 36, 245.6988983154297
0, 0, 37, 251.8687896728516
0, 0, 38, 267.0072021484375
0, 0, 39, 228.7802734375
0, 0, 40, 242.6017913818359
0, 0, 41, 265.4063720703125
0, 0, 42, 230.2485504150391
0, 0, 43, 259.8319396972656
0, 0, 44, 252.1623382568359
0, 0, 45, 252.8419189453125
0, 0, 46, 245.4201049804688
0, 0, 47, 255.6361999511719
0, 0, 48, 266.9601440429688
0, 0, 49, 276.0640563964844
0, 0, 50, 251.7693634033203
0, 0, 51, 255.0039215087891
0, 0, 52, 273.4320678710938
0, 0, 53, 293.4823913574219
0, 0, 54, 242.7578430175781
0, 0, 55, 239.8016357421875
0, 0, 56, 276.7019653320312
0, 0, 57, 262.4009094238281
0, 0, 58, 244.8591613769531
0, 0, 59, 270.1905212402344
0, 0, 60, 233.8864593505859
0, 0, 61, 244.6055908203125
0, 0, 62, 257.6123352050781
0, 0, 63, 266.3233337402344
0, 0, 64, 254.0400848388672
0, 0, 65, 261.2038269042969
0, 0, 66, 277.4118347167969
0, 0, 67, 247.239013671875
0, 0, 68, 258.8653259277344
0, 0, 69, 260.755615234375
0, 0, 70, 272.6012878417969
0, 0, 71, 237.9030456542969
0, 0, 72, 249.2948913574219
0, 0, 73, 258.7655944824219
0, 0, 74, 249.580078125
0, 0, 75, 241.9188537597656
0, 0, 76, 228.8822631835938
0, 0, 77, 260.3309936523438
0, 0, 78, 258.5977478027344
0, 0, 79, 277.1766662597656
0, 0, 80, 216.0860290527344
0, 0, 81, 266.0124206542969
0, 0, 82, 257.3744201660156
0, 0, 83, 244.8048706054688
0, 0, 84, 270.0044860839844
0, 0, 85, 232.37646484375
0, 0, 86, 253.1152648925781
0, 0, 87, 250.9113159179688
0, 0, 88, 261.6034851074219
0, 0, 89, 285.2672424316406
0, 0, 90, 243.3683624267578
0, 0, 91, 280.6522827148438
0, 0, 92, 251.9711456298828
0, 0, 93, 250.0676422119141
0, 0, 94, 249.1221618652344
0, 0, 95, 249.2202911376953
0, 0, 96, 277.2065124511719
0, 0, 97, 273.2768859863281
0, 0, 98, 272.577392578125
0, 0, 99, 258.9147033691406
0, 0, 100, 258.0794982910156
0, 0, 101, 225.7957611083984
0, 0, 102, 232.419189453125
0, 0, 103, 269.7294311523438
0, 0, 104, 253.8513031005859
0, 0, 105, 253.0633544921875
0, 0, 106, 245.2181396484375
0, 0, 107, 152.2908935546875
0, 0, 108, 39.32547378540039
0, 0, 109, 11.65030384063721
0, 0, 110, 12.83590316772461
0, 0, 111, 8.306591987609863
0, 0, 112, 9.145326614379883
0, 0, 113, 5.856627941131592
0, 0, 114, 6.656503200531006
0, 0, 115, 4.005249500274658
0, 0, 116, 5.721487045288086
0, 0, 117, 7.435155391693115
0, 0, 118, 8.850603103637695
0, 0, 119, 4.509113311767578
0, 0, 120, 5.509889125823975
0, 0, 121, 3.511212825775146
0, 0, 122, 3.150804042816162
0, 0, 123, 3.261313199996948
0, 0, 124, 5.532403469085693
0, 0, 125, 5.788524150848389
0, 0, 126, 4.362677097320557
0, 0, 127, 2.392498254776001
0, 1, 0, 7.219807624816895
0, 1, 1, 1.756221890449524
0, 1, 2, 4.546379089355469
0, 1, 3, 2.49528980255127
0, 1, 4, 2.507671117782593
0, 1, 5, 5.719654083251953
0, 1, 6, 6.846338272094727
0, 1, 7, 6.070884227752686
0, 1, 8, 6.219120502471924
0, 1, 9, 4.235774993896484
0, 1, 10, 6.526952266693115
0, 1, 11, 10.97231960296631
0, 1, 12, 7.590701580047607
0, 1, 13, 10.25598049163818
0, 1, 14, 7.113372802734375
0, 1, 15, 7.700615882873535
0, 1, 16, 12.56170177459717
0, 1, 17, 9.255121231079102
0, 1, 18, 21.99704551696777
0, 1, 19, 67.91884613037109
0, 1, 20, 199.9135284423828
0, 1, 21, 255.7512969970703
0, 1, 22, 297.21044921875
0, 1, 23, 283.8245849609375
0, 1, 24, 275.6166381835938
0, 1, 25, 287.7883911132812
0, 1, 26, 268.515869140625
0, 1, 27, 306.0977172851562
0, 1, 28, 299.5635375976562
0, 1, 29, 294.8723449707031
0, 1, 30, 282.5964050292969
0, 1, 31, 291.18603515625
0, 1, 32, 290.938720703125
0, 1, 33, 297.1106872558594
0, 1, 34, 291.9254760742188
0, 1, 35, 277.7431945800781
0, 1, 36, 306.9244995117188
0, 1, 37, 294.2922058105469
0, 1, 38, 279.2571105957031
0, 1, 39, 295.1982727050781
0, 1, 40, 266.9800720214844
0, 1, 41, 287.1666259765625
0, 1, 42, 289.4696960449219
0, 1, 43, 331.376953125
0, 1, 44, 278.4220581054688
0, 1, 45, 293.8161315917969
0, 1, 46, 259.302978515625
0, 1, 47, 309.5677795410156
0, 1, 48, 284.8984375
0, 1, 49, 304.6594848632812
0, 1, 50, 264.5746459960938
0, 1, 51, 273.8771362304688
0, 1, 52, 295.2125549316406
0, 1, 53, 304.0104370117188
0, 1, 54, 275.49951171875
0, 1, 55, 294.9695129394531
0, 1, 56, 281.70068359375
0, 1, 57, 299.6586608886719
0, 1, 58, 308.4039611816406
0, 1, 59, 291.6778869628906
0, 1, 60, 298.0615539550781
0, 1, 61, 274.8436584472656
0, 1, 62, 310.9622802734375
0, 1, 63, 288.1474609375
0, 1, 64, 288.579345703125
0, 1, 65, 294.0444030761719
0, 1, 66, 291.4122619628906
0, 1, 67, 291.0528259277344
0, 1, 68, 278.5916442871094
0, 1, 69, 279.3678283691406
0, 1, 70, 272.5610046386719
0, 1, 71, 275.1268920898438
0, 1, 72, 284.9976196289062
0, 1, 73, 303.8487243652344
0, 1, 74, 304.7787475585938
0, 1, 75, 295.9483642578125
0, 1, 76, 287.5697021484375
0, 1, 77, 290.4008483886719
0, 1, 78, 297.7179870605469
0, 1, 79, 301.17578125
0, 1, 80, 296.7780456542969
0, 1, 81, 301.2503662109375
0, 1, 82, 282.1960754394531
0, 1, 83, 333.0713195800781
0, 1, 84, 310.0424499511719
0, 1, 85, 255.0938110351562
0, 1, 86, 294.3613891601562
0, 1, 87, 289.3561401367188
0, 1, 88, 299.2781372070312
0, 1, 89, 294.9805297851562
0, 1, 90, 268.9388122558594
0, 1, 91, 317.1959533691406
0, 1, 92, 291.5404663085938
0, 1, 93, 285.8389892578125
0, 1, 94, 303.7799377441406
0, 1, 95, 284.7127685546875
0, 1, 96, 282.9342956542969
0, 1, 97, 301.3504333496094
0, 1, 98, 276.3020324707031
0, 1, 99, 268.2465515136719
0, 1, 100, 275.8652648925781
0, 1, 101, 281.5894165039062
0, 1, 102, 279.4747619628906
0, 1, 103, 283.0321655273438
0, 1, 104, 307.2669982910156
0, 1, 105, 297.6416015625
0, 1, 106, 260.0666809082031
0, 1, 107, 192.6190795898438
0, 1, 108, 81.8232421875
0, 1, 109, 27.20203590393066
0, 1, 110, 11.820969581604
0, 1, 111, 8.176456451416016
0, 1, 112, 13.30476188659668
0, 1, 113, 7.347902774810791
0, 1, 114, 7.341155529022217
0, 1, 115, 6.361377239227295
0, 1, 116, 10.73129844665527
0, 1, 117, 4.172638416290283
0, 1, 118, 5.310068130493164
0, 1, 119, 5.766907215118408
0, 1, 120, 6.428122043609619
0, 1, 121, 3.138156652450562
0, 1, 122, 3.021791934967041
0, 1, 123, 3.234163045883179
0, 1, 124, 7.148970603942871
0, 1, 125, 2.719972133636475
0, 1, 126, 5.213233947753906
0, 1, 127, 1.464804291725159
0, 2, 0, 4.586156845092773
0, 2, 1, 4.083104133605957
0, 2, 2, 3.630920648574829
0, 2, 3, 4.780234813690186
0, 2, 4, 3.802712917327881
0, 2, 5, 2.159724473953247
0, 2, 6, 2.880584716796875
0, 2, 7, 4.315002918243408
0, 2, 8, 4.514096260070801
0, 2, 9, 6.387945652008057
0, 2, 10, 11.85549831390381
0, 2, 11, 7.22522497177124
0, 2, 12, 6.888076782226562
0, 2, 13, 8.445384979248047
0, 2, 14, 10.2825927734375
0, 2, 15, 9.043752670288086
0, 2, 16, 8.446918487548828
0, 2, 17, 17.04480361938477
0, 2, 18, 30.0987377166748
0, 2, 19, 114.4513244628906
0, 2, 20, 246.8072357177734
0, 2, 21, 272.4710083007812
0, 2, 22, 315.8644104003906
0, 2, 23, 300.6820068359375
0, 2, 24, 287.9569702148438
0, 2, 25, 302.0821838378906
0, 2, 26, 293.564453125
0, 2, 27, 275.8321838378906
0, 2, 28, 271.2970275878906
0, 2, 29, 276.6813049316406
0, 2, 30, 289.7227172851562
0, 2, 31, 277.2649230957031
0, 2, 32, 294.8870239257812
0, 2, 33, 283.7528991699219
0, 2, 34, 330.1993713378906
0, 2, 35, 288.3940734863281
0, 2, 36, 303.8788146972656
0, 2, 37, 315.5896911621094
0, 2, 38, 309.3301086425781
0, 2, 39, 265.3846740722656
0, 2, 40, 305.6338806152344
0, 2, 41, 292.6675720214844
0, 2, 42, 302.5545959472656
0, 2, 43, 313.8420715332031
0, 2, 44, 314.1433715820312
0, 2, 45, 325.0680541992188
0, 2, 46, 287.9573059082031
0, 2, 47, 301.9723205566406
0, 2, 48, 279.6349182128906
0, 2, 49, 279.0040588378906
0, 2, 50, 293.4692077636719
0, 2, 51, 282.9658813476562
0, 2, 52, 275.2767639160156
0, 2, 53, 287.4153747558594
0, 2, 54, 280.1841430664062
0, 2, 55, 278.0052185058594
0, 2, 56, 300.5743713378906
0, 2, 57, 291.17529296875
0, 2, 58, 303.9085083007812
0, 2, 59, 292.8531188964844
0, 2, 60, 318.6273803710938
0, 2, 61, 300.665771484375
0, 2, 62, 313.7334289550781
0, 2, 63, 303.0691528320312
0, 2, 64, 295.3092651367188
0, 2, 65, 314.0099182128906
0, 2, 66, 278.626953125
0, 2, 67, 291.0090637207031
0, 2, 68, 296.0278015136719
0, 2, 69, 311.2358093261719
0, 2, 70, 335.80615234375
0, 2, 71, 284.3545532226562
0, 2, 72, 301.287109375
0, 2, 73, 310.8775329589844
0, 2, 74, 286.8454284667969
0, 2, 75, 305.5829467773438
0, 2, 76, 289.76171875
0, 2, 77, 299.8499450683594
0, 2, 78, 313.7197570800781
0, 2, 79, 307.8334655761719
0, 2, 80, 296.9541015625
0, 2, 81, 284.2902526855469
0, 2, 82, 319.6776428222656
0, 2, 83, 313.2333984375
0, 2, 84, 288.6384887695312
0, 2, 85, 283.2344665527344
0, 2, 86, 323.3999328613281
0, 2, 87, 287.1719665527344
0, 2, 88, 280.4054565429688
0, 2, 89, 295.2474060058594
0, 2, 90, 295.4412231445312
0, 2, 91, 275.1112060546875
0, 2, 92, 305.3735656738281
0, 2, 93, 316.5750122070312
0, 2, 94, 290.3174743652344
0, 2, 95, 313.9513244628906
0, 2, 96, 314.7140197753906
0, 2, 97, 291.2793273925781
0, 2, 98, 294.9974060058594
0, 2, 99, 273.8749084472656
0, 2, 100, 305.8372497558594
0, 2, 101, 302.6152954101562
0, 2, 102, 295.7939758300781
0, 2, 103, 292.2342529296875
0, 2, 104, 292.2454833984375
0, 2, 105, 273.5739135742188
0, 2, 106, 298.388427734375
0, 2, 107, 268.9812927246094
0, 2, 108, 117.1363906860352
0, 2, 109, 33.03157424926758
0, 2, 110, 9.420473098754883
0, 2, 111, 10.88614654541016
0, 2, 112, 8.45112419128418
0, 2, 113, 11.77358722686768
0, 2, 114, 9.166328430175781
0, 2, 115, 11.89511203765869
0, 2, 116, 9.731016159057617
0, 2, 117, 7.796823501586914
0, 2, 118, 2.399220705032349
0, 2, 119, 3.550877094268799
0, 2, 120, 6.280972480773926
0, 2, 121, 1.694179058074951
0, 2, 122, 3.679657697677612
0, 2, 123, 2.538699150085449
0, 2, 124, 3.417384147644043
0, 2, 125, 6.499859809875488
0, 2, 126, 4.872780323028564
0, 2, 127, 5.778908729553223
0, 3, 0, 3.880603551864624
0, 3, 1, 2.881971120834351
0, 3, 2, 5.261322021484375
0, 3, 3, 0.9113256931304932
0, 3, 4, 3.918703079223633
0, 3, 5, 7.302288055419922
0, 3, 6, 7.125088691711426
0, 3, 7, 4.43630838394165
0, 3, 8, 5.417671203613281
0, 3, 9, 6.044666767120361
0, 3, 10, 7.192975044250488
0, 3, 11, 4.952041625976562
0, 3, 12, 9.796850204467773
0, 3, 13, 14.29693794250488
0, 3, 14, 11.51491832733154
0, 3, 15, 12.98175716400146
0, 3, 16, 13.09815979003906
0, 3, 17, 21.36247062683105
0, 3, 18, 52.32052993774414
0, 3, 19, 176.0328979492188
0, 3, 20, 268.4765930175781
0, 3, 21, 270.0651550292969
0, 3, 22, 284.31005859375
0, 3, 23, 287.524658203125
0, 3, 24, 287.9749145507812
0, 3, 25, 268.3346862792969
0, 3, 26, 304.5865783691406
0, 3, 27, 291.83056640625
0, 3, 28, 282.3947143554688
0, 3, 29, 338.7008361816406
0, 3, 30, 314.8506164550781
0, 3, 31, 284.8203735351562
0, 3, 32, 307.05517578125
0, 3, 33, 314.5291137695312
0, 3, 34, 322.0213928222656
0, 3, 35, 307.8124389648438
0, 3, 36, 267.2003173828125
0, 3, 37, 311.9404602050781
0, 3, 38, 303.609375
0, 3, 39, 290.100830078125
0, 3, 40, 267.0140380859375
0, 3, 41, 301.9030456542969
0, 3, 42, 284.551513671875
0, 3, 43, 305.9371643066406
0, 3, 44, 310.2032775878906
0, 3, 45, 290.4343566894531
0, 3, 46, 329.1196594238281
0, 3, 47, 300.1583557128906
0, 3, 48, 301.8158874511719
0, 3, 49, 276.6534118652344
0, 3, 50, 289.644287109375
0, 3, 51, 275.6447448730469
0, 3, 52, 316.0536499023438
0, 3, 53, 287.0617065429688
0, 3, 54, 284.6908874511719
0, 3, 55, 284.8299560546875
0, 3, 56, 297.6723937988281
0, 3, 57, 289.1850280761719
0, 3, 58, 304.3494873046875
0, 3, 59, 294.6986083984375
0, 3, 60, 296.8340454101562
0, 3, 61, 264.48583984375
0, 3, 62, 283.5230712890625
0, 3, 63, 309.5301513671875
0, 3, 64, 317.1246948242188
0, 3, 65, 306.4082946777344
0, 3, 66, 314.7588806152344
0, 3, 67, 317.9503173828125
0, 3, 68, 278.9154357910156
0, 3, 69, 282.351806640625
0, 3, 70, 290.08740234375
0, 3, 71, 300.6261291503906
0, 3, 72, 269.4395141601562
0, 3, 73, 310.621337890625
0, 3, 74, 292.3772888183594
0, 3, 75, 288.6980895996094
0, 3, 76, 305.1739501953125
0, 3, 77, 313.3722229003906
0, 3, 78, 303.7620239257812
0, 3, 79, 283.6802978515625
0, 3, 80, 290.4028625488281
0, 3, 81, 310.3502502441406
0, 3, 82, 315.137939453125
0, 3, 83, 301.0906677246094
0, 3, 84, 311.5815734863281
0, 3, 85, 293.1714172363281
0, 3, 86, 302.4792785644531
0, 3, 87, 297.3898010253906
0, 3, 88, 297.5988159179688
0, 3, 89, 295.47607421875
0, 3, 90, 277.3735046386719
0, 3, 91, 286.2060852050781
0, 3, 92, 305.1239318847656
0, 3, 93, 312.4764404296875
0, 3, 94, 297.1545104980469
0, 3, 95, 333.8163452148438
0, 3, 96, 290.0145874023438
0, 3, 97, 285.2989196777344
0, 3, 98, 279.3051452636719
0, 3, 99, 262.8943176269531
0, 3, 100, 283.2392272949219
0, 3, 101, 295.4696960449219
0, 3, 102, 274.2362976074219
0, 3, 103, 320.1471252441406
0, 3, 104, 308.8418273925781
0, 3, 105, 287.4407348632812
0, 3, 106, 302.6688842773438
0, 3, 107, 283.3326110839844
0, 3, 108, 168.483154296875
0, 3, 109, 56.69405746459961
0, 3, 110, 17.31426620483398
0, 3, 111, 16.05455017089844
0, 3, 112, 12.20065784454346
0, 3, 113, 5.801862239837646
0, 3, 114, 9.171455383300781
0, 3, 115, 6.662735462188721
0, 3, 116, 9.417223930358887
0, 3, 117, 7.811368942260742
0, 3, 118, 9.68588924407959
0, 3, 119, 5.918277263641357
0, 3, 120, 8.071949005126953
0, 3, 121, 3.263191699981689
0, 3, 122, 2.978694915771484
0, 3, 123, 5.274215698242188
0, 3, 124, 3.641288757324219
0, 3, 125, 5.531431674957275
0, 3, 126, 5.559966087341309
0, 3, 127, 2.028668403625488
0, 4, 0, 2.209016799926758
0, 4, 1, 5.553945541381836
0, 4, 2, 3.577579259872437
0, 4, 3, 1.651785612106323
0, 4, 4, 8.067317008972168
0, 4, 5, 7.813626766204834
0, 4, 6, 7.090759754180908
0, 4, 7, 6.336901187896729
0, 4, 8, 4.988160133361816
0, 4, 9, 9.122032165527344
0, 4, 10, 8.72629451751709
0, 4, 11, 7.318955421447754
0, 4, 12, 6.510650157928467
0, 4, 13, 8.707792282104492
0, 4, 14, 11.08521461486816
0, 4, 15, 10.38822460174561
0, 4, 16, 12.8040189743042
0, 4, 17, 18.95574951171875
0, 4, 18, 97.74755096435547
0, 4, 19, 222.2294006347656
0, 4, 20, 283.6611938476562
0, 4, 21, 271.7384338378906
0, 4, 22, 304.8638610839844
0, 4, 23, 269.1148681640625
0, 4, 24, 290.0592346191406
0, 4, 25, 271.4488525390625
0, 4, 26, 294.7174377441406
0, 4, 27, 282.8723754882812
0, 4, 28, 307.0309753417969
0, 4, 29, 324.214599609375
0, 4, 30, 309.65576171875
0, 4, 31, 304.5027770996094
0, 4, 32, 284.387939453125
0, 4, 33, 299.0196228027344
0, 4, 34, 298.5491333007812
0, 4, 35, 312.622314453125
0, 4, 36, 290.880615234375
0, 4, 37, 290.14990234375
0, 4, 38, 298.4789733886719
0, 4, 39, 293.6436767578125
0, 4, 40, 302.1659240722656
0, 4, 41, 312.4410095214844
0, 4, 42, 330.0864562988281
0, 4, 43, 295.8377685546875
0, 4, 44, 323.1352233886719
0, 4, 45, 325.8522338867188
0, 4, 46, 305.064208984375
0, 4, 47, 292.0687255859375
0, 4, 48, 295.1363525390625
0, 4, 49, 277.8444213867188
0, 4, 50, 297.71728515625
0, 4, 51, 315.9842529296875
0, 4, 52, 325.9496154785156
0, 4, 53, 304.2153930664062
0, 4, 54, 289.1735534667969
0, 4, 55, 313.9649963378906
0, 4, 56, 286.1946716308594
0, 4, 57, 308.6121520996094
0, 4, 58, 296.1617431640625
0, 4, 59, 307.6696166992188
0, 4, 60, 303.5568542480469
0, 4, 61, 315.2766418457031
0, 4, 62, 307.80517578125
0, 4, 63, 299.1564636230469
0, 4, 64, 330.3381958007812
0, 4, 65, 315.2843017578125
0, 4, 66, 292.8119201660156
0, 4, 67, 285.966796875
0, 4, 68, 311.26220703125
0, 4, 69, 276.1546936035156
0, 4, 70, 299.6462707519531
0, 4, 71, 320.4217529296875
0, 4, 72, 331.3654479980469
0, 4, 73, 297.0626220703125
0, 4, 74, 292.4768981933594
0, 4, 75, 290.353515625
0, 4, 76, 274.78173828125
0, 4, 77, 278.0436096191406
0, 4, 78, 311.3381042480469
0, 4, 79, 317.8035888671875
0, 4, 80, 316.46630859375
0, 4, 81, 312.617431640625
0, 4, 82, 297.2658081054688
0, 4, 83, 300.5244140625
0, 4, 84, 291.1706848144531
0, 4, 85, 295.5802612304688
0, 4, 86, 297.6561584472656
0, 4, 87, 286.4884948730469
0, 4, 88, 304.3548278808594
0, 4, 89, 295.1492919921875
0, 4, 90, 333.0294799804688
0, 4, 91, 300.61865234375
0, 4, 92, 289.9602355957031
0, 4, 93, 298.8028869628906
0, 4, 94, 291.6203002929688
0, 4, 95, 290.0446166992188
0, 4, 96, 324.0380859375
0, 4, 97, 273.6691284179688
0, 4, 98, 327.0616760253906
0, 4, 99, 315.2518615722656
0, 4, 100, 299.4851989746094
0, 4, 101, 257.8339538574219
0, 4, 102, 296.363525390625
0, 4, 103, 317.2382507324219
0, 4, 104, 282.5429077148438
0, 4, 105, 310.8497924804688
0, 4, 106, 287.0547180175781
0, 4, 107, 294.8687744140625
0, 4, 108, 226.6171569824219
0, 4, 109, 79.29381561279297
0, 4, 110, 16.54169273376465
0, 4, 111, 14.81008815765381
0, 4, 112, 8.088096618652344
0, 4, 113, 9.033007621765137
0, 4, 114, 8.261140823364258
0, 4, 115, 9.032970428466797
0, 4, 116, 8.034778594970703
0, 4, 117, 5.466457843780518
0, 4, 118, 8.047362327575684
0, 4, 119, 10.02070236206055
0, 4, 120, 4.835671901702881
0, 4, 121, 4.773507595062256
0, 4, 122, 4.514559745788574
0, 4, 123, 6.770582675933838
0, 4, 124, 6.859802722930908
0, 4, 125, 12.35835647583008
0, 4, 126, 4.899617671966553
0, 4, 127, 5.164117813110352
0, 5, 0, 2.952932119369507
0, 5, 1, 3.412818193435669
0, 5, 2, 5.345555305480957
0, 5, 3, 4.690941333770752
0, 5, 4, 5.063141345977783
0, 5, 5, 8.150816917419434
0, 5, 6, 6.214150428771973
0, 5, 7, 4.422794342041016
0, 5, 8, 3.772326469421387
0, 5, 9, 4.966564178466797
0, 5, 10, 7.498244285583496
0, 5, 11, 9.335872650146484
0, 5, 12, 7.248951435089111
0, 5, 13, 5.113861083984375
0, 5, 14, 11.07220649719238
0, 5, 15, 16.28740119934082
0, 5, 16, 14.25812339782715
0, 5, 17, 30.72789764404297
0, 5, 18, 136.9732818603516
0, 5, 19, 288.0298767089844
0, 5, 20, 307.5249328613281
0, 5, 21, 317.136474609375
0, 5, 22, 274.8998413085938
0, 5, 23, 309.9589538574219
0, 5, 24, 303.999267578125
0, 5, 25, 289.3772583007812
0, 5, 26, 294.5333251953125
0, 5, 27, 321.1554870605469
0, 5, 28, 301.0768737792969
0, 5, 29, 297.510009765625
0, 5, 30, 322.5741577148438
0, 5, 31, 288.3992309570312
0, 5, 32, 306.772216796875
0, 5, 33, 303.9847106933594
0, 5, 34, 294.7830810546875
0, 5, 35, 308.5169677734375
0, 5, 36, 271.4403076171875
0, 5, 37, 283.1427001953125
0, 5, 38, 291.700927734375
0, 5, 39, 312.5784606933594
0, 5, 40, 306.9095458984375
0, 5, 41, 273.0353698730469
0, 5, 42, 305.3729858398438
0, 5, 43, 314.2331848144531
0, 5, 44, 294.1434020996094
0, 5, 45, 300.0182495117188
0, 5, 46, 265.2635498046875
0, 5, 47, 279.5235595703125
0, 5, 48, 294.8526000976562
0, 5, 49, 285.937255859375
0, 5, 50, 294.6185913085938
0, 5, 51, 280.4422912597656
0, 5, 52, 271.0272521972656
0, 5, 53, 285.7248840332031
0, 5, 54, 293.2073974609375
0, 5, 55, 343.6150817871094
0, 5, 56, 304.665283203125
0, 5, 57, 306.6496276855469
0, 5, 58, 314.1828002929688
0, 5, 59, 303.1431884765625
0, 5, 60, 306.6441955566406
0, 5, 61, 282.1852722167969
0, 5, 62, 327.8258972167969
0, 5, 63, 290.1402587890625
0, 5, 64, 323.0287780761719
0, 5, 65, 306.6514587402344
0, 5, 66, 327.7955627441406
0, 5, 67, 310.5586242675781
0, 5, 68, 307.92041015625
0, 5, 69, 312.3807373046875
0, 5, 70, 302.6820068359375
0, 5, 71, 271.8587341308594
0, 5, 72, 309.8600158691406
0, 5, 73, 305.3829650878906
0, 5, 74, 294.4176635742188
0, 5, 75, 294.9208679199219
0, 5, 76, 285.7397155761719
0, 5, 77, 299.2174377441406
0, 5, 78, 316.4433288574219
0, 5, 79, 307.8104553222656
0, 5, 80, 295.0149841308594
0, 5, 81, 325.4599914550781
0, 5, 82, 323.6495361328125
0, 5, 83, 282.1182556152344
0, 5, 84, 301.3489990234375
0, 5, 85, 273.072265625
0, 5, 86, 326.1593933105469
0, 5, 87, 285.1359252929688
0, 5, 88, 313.3626403808594
0, 5, 89, 303.5839233398438
0, 5, 90, 314.7956848144531
0, 5, 91, 313.8662719726562
0, 5, 92, 296.0756530761719
0, 5, 93, 322.8422241210938
0, 5, 94, 307.8385009765625
0, 5, 95, 295.3751831054688
0, 5, 96, 295.520263671875
0, 5, 97, 295.7836608886719
0, 5, 98, 319.9640808105469
0, 5, 99, 303.89404296875
0, 5, 100, 291.6633911132812
0, 5, 101, 306.5209655761719
0, 5, 102, 291.3971862792969
0, 5, 103, 314.4691162109375
0, 5, 104, 300.9144897460938
0, 5, 105, 292.6200561523438
0, 5, 106, 280.9677734375
0, 5, 107, 291.6501770019531
0, 5, 108, 267.0529174804688
0, 5, 109, 156.9775085449219
0, 5, 110, 39.29990386962891
0, 5, 111, 21.14593124389648
0, 5, 112, 14.95542907714844
0, 5, 113, 13.98839950561523
0, 5, 114, 13.90635395050049
0, 5, 115, 8.138787269592285
0, 5, 116, 6.723621845245361
0, 5, 117, 7.045364379882812
0, 5, 118, 13.82744216918945
0, 5, 119, 4.686400413513184
0, 5, 120, 6.816872119903564
0, 5, 121, 3.781848430633545
0, 5, 122, 4.108246326446533
0, 5, 123, 5.085283756256104
0, 5, 124, 6.228048324584961
0, 5, 125, 4.688775062561035
0, 5, 126, 5.755505084991455
0, 5, 127, 4.586338996887207
0, 6, 0, 3.769607543945312
0, 6, 1, 4.55803108215332
0, 6, 2, 3.968319892883301
0, 6, 3, 5.633991718292236
0, 6, 4, 4.573307991027832
0, 6, 5, 7.255546092987061
0, 6, 6, 9.461947441101074
0, 6, 7, 6.582148551940918
0, 6, 8, 5.756234645843506
0, 6, 9, 5.468328952789307
0, 6, 10, 7.618576526641846
0, 6, 11, 7.727496147155762
0, 6, 12, 8.564005851745605
0, 6, 13, 13.03031921386719
0, 6, 14, 8.437323570251465
0, 6, 15, 16.12328338623047
0, 6, 16, 29.00187492370605
0, 6, 17, 54.65293884277344
0, 6, 18, 172.8095397949219
0, 6, 19, 274.7470703125
0, 6, 20, 293.5896606445312
0, 6, 21, 313.2330932617188
0, 6, 22, 320.1613464355469
0, 6, 23, 305.8655090332031
0, 6, 24, 315.3092956542969
0, 6, 25, 315.9118957519531
0, 6, 26, 321.4339904785156
0, 6, 27, 331.5393676757812
0, 6, 28, 293.990478515625
0, 6, 29, 329.7391052246094
0, 6, 30, 281.4471130371094
0, 6, 31, 287.6610717773438
0, 6, 32, 339.9739990234375
0, 6, 33, 301.8502197265625
0, 6, 34, 339.5300903320312
0, 6, 35, 319.7871398925781
0, 6, 36, 275.2627258300781
0, 6, 37, 289.511474609375
0, 6, 38, 313.0982055664062
0, 6, 39, 298.1758728027344
0, 6, 40, 283.7250061035156
0, 6, 41, 298.0245666503906
0, 6, 42, 304.3709716796875
0, 6, 43, 288.0433959960938
0, 6, 44, 281.0450439453125
0, 6, 45, 319.8641967773438
0, 6, 46, 301.2357788085938
0, 6, 47, 332.2143859863281
0, 6, 48, 291.2814025878906
0, 6, 49, 311.39208984375
0, 6, 50, 328.5028686523438
0, 6, 51, 310.4378356933594
0, 6, 52, 319.9361267089844
0, 6, 53, 327.8067016601562
0, 6, 54, 303.3891296386719
0, 6, 55, 306.8297119140625
0, 6, 56, 293.4322814941406
0, 6, 57, 313.1541748046875
0, 6, 58, 260.9608154296875
0, 6, 59, 305.2109375
0, 6, 60, 312.9813232421875
0, 6, 61, 271.0511474609375
0, 6, 62, 334.0515441894531
0, 6, 63, 324.7105712890625
0, 6, 64, 291.3138427734375
0, 6, 65, 283.9674987792969
0, 6, 66, 302.1607666015625
0, 6, 67, 309.5147094726562
0, 6, 68, 295.1484985351562
0, 6, 69, 278.272216796875
0, 6, 70, 273.5378112792969
0, 6, 71, 288.8756103515625
0, 6, 72, 310.6395874023438
0, 6, 73, 291.2394104003906
0, 6, 74, 331.7338562011719
0, 6, 75, 344.6358642578125
0, 6, 76, 296.6266479492188
0, 6, 77, 287.5455322265625
0, 6, 78, 278.2337036132812
0, 6, 79, 292.1749877929688
0, 6, 80, 299.7314147949219
0, 6, 81, 313.8352661132812
0, 6, 82, 319.8829040527344
0, 6, 83, 319.0747985839844
0, 6, 84, 295.3394775390625
0, 6, 85, 300.6661376953125
0, 6, 86, 332.0311584472656
0, 6, 87, 297.7711181640625
0, 6, 88, 306.9075622558594
0, 6, 89, 305.6757202148438
0, 6, 90, 301.9433898925781
0, 6, 91, 313.6925354003906
0, 6, 92, 285.084228515625
0, 6, 93, 294.9344787597656
0, 6, 94, 273.7479858398438
0, 6, 95, 302.4450073242188
0, 6, 96, 348.626953125
0, 6, 97, 308.0435485839844
0, 6, 98, 301.0519714355469
0, 6, 99, 273.241455078125
0, 6, 100, 310.5694885253906
0, 6, 101, 293.1891479492188
0, 6, 102, 308.2160034179688
0, 6, 103, 308.1175537109375
0, 6, 104, 292.2063293457031
0, 6, 105, 299.3233947753906
0, 6, 106, 308.5989074707031
0, 6, 107, 308.2008056640625
0, 6, 108, 269.3938903808594
0, 6, 109, 188.2905578613281
0, 6, 110, 54.75899124145508
0, 6, 111, 21.32484245300293
0, 6, 112, 13.98685550689697
0, 6, 113, 9.95510196685791
0, 6, 114, 11.44274997711182
0, 6, 115, 11.69632434844971
0, 6, 116, 7.332360744476318
0, 6, 117, 8.178238868713379
0, 6, 118, 10.14795589447021
0, 6, 119, 10.85695457458496
0, 6, 120, 5.264945983886719
0, 6, 121, 8.151810646057129
0, 6, 122, 6.508142471313477
0, 6, 123, 5.729187488555908
0, 6, 124, 5.552013397216797
0, 6, 125, 6.782729148864746
0, 6, 126, 3.240493535995483
0, 6, 127, 8.298784255981445
0, 7, 0, 6.212327003479004
0, 7, 1, 3.202138185501099
0, 7, 2, 5.340799808502197
0, 7, 3, 4.0633225440979
0, 7, 4, 5.04774284362793
0, 7, 5, 4.441253662109375
0, 7, 6, 4.79289722442627
0, 7, 7, 4.106479644775391
0, 7, 8, 7.283568859100342
0, 7, 9, 8.121970176696777
0, 7, 10, 8.984817504882812
0, 7, 11, 11.16311645507812
0, 7, 12, 13.76541519165039
0, 7, 13, 11.52500152587891
0, 7, 14, 12.93056774139404
0, 7, 15, 17.98389053344727
0, 7, 16, 25.51084899902344
0, 7, 17, 99.29399108886719
0, 7, 18, 219.711181640625
0, 7, 19, 288.4440612792969
0, 7, 20, 296.5543212890625
0, 7, 21, 277.7304382324219
0, 7, 22, 301.6566162109375
0, 7, 23, 291.4285278320312
0, 7, 24, 314.1315612792969
0, 7, 25, 324.5531005859375
0, 7, 26, 277.3118286132812
0, 7, 27, 297.9818115234375
0, 7, 28, 327.1594543457031
0, 7, 29, 318.2855224609375
0, 7, 30, 303.0544128417969
0, 7, 31, 276.7609558105469
0, 7, 32, 303.2250366210938
0, 7, 33, 261.7976684570312
0, 7, 34, 298.5057373046875
0, 7, 35, 322.3869934082031
0, 7, 36, 332.5850524902344
0, 7, 37, 325.0845031738281
0, 7, 38, 296.1684875488281
0, 7, 39, 305.9341430664062
0, 7, 40, 288.0716552734375
0, 7, 41, 272.1490173339844
0, 7, 42, 301.3352661132812
0, 7, 43, 276.2496337890625
0, 7, 44, 302.9455261230469
0, 7, 45, 293.0094299316406
0, 7, 46, 281.694580078125
0, 7, 47, 328.2716979980469
0, 7, 48, 286.8266296386719
0, 7, 49, 303.0488586425781
0, 7, 50, 321.8153076171875
0, 7, 51, 298.7038879394531
0, 7, 52, 326.2966003417969
0, 7, 53, 310.0189208984375
0, 7, 54, 323.0913696289062
0, 7, 55, 307.024169921875
0, 7, 56, 280.0044555664062
0, 7, 57, 282.4613952636719
0, 7, 58, 297.9228210449219
0, 7, 59, 293.1872863769531
0, 7, 60, 323.050048828125
0, 7, 61, 276.9190673828125
0, 7, 62, 296.6200256347656
0, 7, 63, 293.968994140625
0, 7, 64, 305.1889038085938
0, 7, 65, 331.9835205078125
0, 7, 66, 323.4032287597656
0, 7, 67, 302.7195129394531
0, 7, 68, 280.9491271972656
0, 7, 69, 296.119873046875
0, 7, 70, 301.7149047851562
0, 7, 71, 309.3925170898438
0, 7, 72, 285.2523803710938
0, 7, 73, 296.079833984375
0, 7, 74, 343.420166015625
0, 7, 75, 319.1826171875
0, 7, 76, 323.0235595703125
0, 7, 77, 282.3475646972656
0, 7, 78, 298.646484375
0, 7, 79, 297.7190856933594
0, 7, 80, 311.03857421875
0, 7, 81, 318.1973876953125
0, 7, 82, 330.3165588378906
0, 7, 83, 318.3929443359375
0, 7, 84, 310.17822265625
0, 7, 85, 272.4725952148438
0, 7, 86, 309.5803527832031
0, 7, 87, 311.7932739257812
0, 7, 88, 305.9084777832031
0, 7, 89, 292.3584289550781
0, 7, 90, 308.1146240234375
0, 7, 91, 315.1127014160156
0, 7, 92, 288.4782409667969
0, 7, 93, 308.1996765136719
0, 7, 94, 273.0006408691406
0, 7, 95, 297.7476806640625
0, 7, 96, 332.8288269042969
0, 7, 97, 297.0498657226562
0, 7, 98, 290.7590942382812
0, 7, 99, 313.2496032714844
0, 7, 100, 284.9392700195312
0, 7, 101, 274.5485229492188
0, 7, 102, 289.8312072753906
0, 7, 103, 290.7655029296875
0, 7, 104, 274.4805297851562
0, 7, 105, 305.6073608398438
0, 7, 106, 318.1354675292969
0, 7, 107, 296.5126342773438
0, 7, 108, 273.4785461425781
0, 7, 109, 237.0559844970703
0, 7, 110, 98.08158874511719
0, 7, 111, 23.68221664428711
0, 7, 112, 13.48629474639893
0, 7, 113, 14.44027519226074
0, 7, 114, 14.32753944396973
0, 7, 115, 14.86680793762207
0, 7, 116, 10.33827686309814
0, 7, 117, 5.055258274078369
0, 7, 118, 10.52205276489258
0, 7, 119, 6.17769193649292
0, 7, 120, 3.985047817230225
0, 7, 121, 6.298752784729004
0, 7, 122, 7.19429874420166
0, 7, 123, 6.451788902282715
0, 7, 124, 2.62196683883667
0, 7, 125, 6.47499942779541
0, 7, 126, 8.232573509216309
0, 7, 127, 4.312811851501465
0, 8, 0, 4.574836254119873
0, 8, 1, 4.15904712677002
0, 8, 2, 3.427160978317261
0, 8, 3, 3.84909200668335
0, 8, 4, 5.528561592102051
0, 8, 5, 4.920186996459961
0, 8, 6, 6.40923023223877
0, 8, 7, 5.710409164428711
0, 8, 8, 8.531168937683105
0, 8, 9, 6.115145206451416
0, 8, 10, 7.337088108062744
0, 8, 11, 12.20642280578613
0, 8, 12, 13.37851524353027
0, 8, 13, 16.69286918640137
0, 8, 14, 13.57285213470459
0, 8, 15, 16.54343795776367
0, 8, 16, 32.21431350708008
0, 8, 17, 129.6686096191406
0, 8, 18, 243.5494079589844
0, 8, 19, 296.6013488769531
0, 8, 20, 286.5979919433594
0, 8, 21, 306.1279907226562
0, 8, 22, 294.7268371582031
0, 8, 23, 274.7044982910156
0, 8, 24, 267.2608642578125
0, 8, 25, 275.4824829101562
0, 8, 26, 305.149658203125
0, 8, 27, 307.3908386230469
0, 8, 28, 308.3819274902344
0, 8, 29, 318.0475463867188
0, 8, 30, 313.29248046875
0, 8, 31, 305.5116882324219
0, 8, 32, 280.0667114257812
0, 8, 33, 294.7554016113281
0, 8, 34, 287.8133544921875
0, 8, 35, 280.7228088378906
0, 8, 36, 316.0164184570312
0, 8, 37, 337.5492553710938
0, 8, 38, 331.1857604980469
0, 8, 39, 281.3569030761719
0, 8, 40, 305.5349426269531
