# TOPAS Version: 3.1.p3
# Parameter File: batch_inserts_184.txt
# Results for scorer Readout_Adipose
# Scored in component: MyBox
# X in 1 bin  of 0.75 cm
# Y in 512 bins of 0.0783984 cm
# Z in 128 bins of 0.078125 cm
# EnergyDeposit ( MeV ) : Sum   
0, 0, 0, 23.53582763671875
0, 0, 1, 20.45199584960938
0, 0, 2, 26.56866264343262
0, 0, 3, 23.3149299621582
0, 0, 4, 20.62071418762207
0, 0, 5, 24.868408203125
0, 0, 6, 24.34675216674805
0, 0, 7, 31.68500137329102
0, 0, 8, 22.87348556518555
0, 0, 9, 22.80445861816406
0, 0, 10, 22.41205978393555
0, 0, 11, 23.68657493591309
0, 0, 12, 37.29213333129883
0, 0, 13, 32.39734268188477
0, 0, 14, 36.72095489501953
0, 0, 15, 46.56627655029297
0, 0, 16, 43.34584808349609
0, 0, 17, 47.04329299926758
0, 0, 18, 73.86761474609375
0, 0, 19, 190.6709899902344
0, 0, 20, 697.3441772460938
0, 0, 21, 1194.181640625
0, 0, 22, 1246.571411132812
0, 0, 23, 1275.035034179688
0, 0, 24, 1283.108520507812
0, 0, 25, 1354.586181640625
0, 0, 26, 1270.90771484375
0, 0, 27, 1282.111938476562
0, 0, 28, 1320.322509765625
0, 0, 29, 1274.400512695312
0, 0, 30, 1261.505004882812
0, 0, 31, 1277.6025390625
0, 0, 32, 1261.727661132812
0, 0, 33, 1238.282104492188
0, 0, 34, 1325.728515625
0, 0, 35, 1303.909545898438
0, 0, 36, 1249.312622070312
0, 0, 37, 1279.699951171875
0, 0, 38, 1249.18603515625
0, 0, 39, 1242.435424804688
0, 0, 40, 1221.0791015625
0, 0, 41, 1267.254760742188
0, 0, 42, 1257.157470703125
0, 0, 43, 1268.4208984375
0, 0, 44, 1229.050048828125
0, 0, 45, 1290.46875
0, 0, 46, 1262.134399414062
0, 0, 47, 1244.368041992188
0, 0, 48, 1276.653198242188
0, 0, 49, 1284.4638671875
0, 0, 50, 1307.2802734375
0, 0, 51, 1268.226806640625
0, 0, 52, 1359.057861328125
0, 0, 53, 1327.353881835938
0, 0, 54, 1291.482177734375
0, 0, 55, 1233.458618164062
0, 0, 56, 1318.25732421875
0, 0, 57, 1293.203735351562
0, 0, 58, 1260.770141601562
0, 0, 59, 1336.779663085938
0, 0, 60, 1331.865112304688
0, 0, 61, 1262.859375
0, 0, 62, 1246.369750976562
0, 0, 63, 1277.994140625
0, 0, 64, 1329.947875976562
0, 0, 65, 1287.065551757812
0, 0, 66, 1319.562744140625
0, 0, 67, 1215.643798828125
0, 0, 68, 1313.55029296875
0, 0, 69, 1325.307861328125
0, 0, 70, 1344.680297851562
0, 0, 71, 1286.89794921875
0, 0, 72, 1313.831665039062
0, 0, 73, 1240.448852539062
0, 0, 74, 1287.215087890625
0, 0, 75, 1299.974975585938
0, 0, 76, 1254.07470703125
0, 0, 77, 1287.377563476562
0, 0, 78, 1313.565795898438
0, 0, 79, 1325.224853515625
0, 0, 80, 1263.716796875
0, 0, 81, 1321.821655273438
0, 0, 82, 1286.211181640625
0, 0, 83, 1289.865478515625
0, 0, 84, 1325.570190429688
0, 0, 85, 1233.833251953125
0, 0, 86, 1267.880004882812
0, 0, 87, 1251.79541015625
0, 0, 88, 1253.147216796875
0, 0, 89, 1334.31982421875
0, 0, 90, 1278.871459960938
0, 0, 91, 1354.463500976562
0, 0, 92, 1300.049194335938
0, 0, 93, 1268.934814453125
0, 0, 94, 1242.91455078125
0, 0, 95, 1326.137817382812
0, 0, 96, 1287.764770507812
0, 0, 97, 1331.59765625
0, 0, 98, 1258.953857421875
0, 0, 99, 1253.993408203125
0, 0, 100, 1289.095703125
0, 0, 101, 1316.479614257812
0, 0, 102, 1232.510375976562
0, 0, 103, 1323.560668945312
0, 0, 104, 1265.740844726562
0, 0, 105, 1271.953735351562
0, 0, 106, 1209.504760742188
0, 0, 107, 782.0848388671875
0, 0, 108, 193.919921875
0, 0, 109, 67.87923431396484
0, 0, 110, 68.40096282958984
0, 0, 111, 38.66660308837891
0, 0, 112, 36.42695236206055
0, 0, 113, 30.6567268371582
0, 0, 114, 37.5532112121582
0, 0, 115, 35.71767807006836
0, 0, 116, 29.59243965148926
0, 0, 117, 31.66378211975098
0, 0, 118, 28.02993011474609
0, 0, 119, 20.73572158813477
0, 0, 120, 27.15790939331055
0, 0, 121, 28.19311141967773
0, 0, 122, 22.22615242004395
0, 0, 123, 17.97202301025391
0, 0, 124, 21.39511299133301
0, 0, 125, 23.6563606262207
0, 0, 126, 21.98768997192383
0, 0, 127, 17.64886283874512
0, 1, 0, 27.1829891204834
0, 1, 1, 17.30633735656738
0, 1, 2, 20.1192455291748
0, 1, 3, 27.8420467376709
0, 1, 4, 18.78135681152344
0, 1, 5, 32.03007888793945
0, 1, 6, 24.33776473999023
0, 1, 7, 26.00365257263184
0, 1, 8, 31.88144111633301
0, 1, 9, 33.58018112182617
0, 1, 10, 33.88159942626953
0, 1, 11, 40.76523208618164
0, 1, 12, 37.5843391418457
0, 1, 13, 42.59445190429688
0, 1, 14, 42.68489837646484
0, 1, 15, 49.00144577026367
0, 1, 16, 56.98722076416016
0, 1, 17, 60.95295715332031
0, 1, 18, 99.4910888671875
0, 1, 19, 402.8247375488281
0, 1, 20, 1045.487915039062
0, 1, 21, 1371.592895507812
0, 1, 22, 1480.064453125
0, 1, 23, 1465.884155273438
0, 1, 24, 1448.143188476562
0, 1, 25, 1419.714111328125
0, 1, 26, 1475.519287109375
0, 1, 27, 1466.024780273438
0, 1, 28, 1492.6005859375
0, 1, 29, 1478.359375
0, 1, 30, 1504.603637695312
0, 1, 31, 1489.196533203125
0, 1, 32, 1411.017456054688
0, 1, 33, 1497.601806640625
0, 1, 34, 1501.229736328125
0, 1, 35, 1459.2216796875
0, 1, 36, 1490.49755859375
0, 1, 37, 1410.472534179688
0, 1, 38, 1391.837646484375
0, 1, 39, 1523.45166015625
0, 1, 40, 1462.188232421875
0, 1, 41, 1488.71337890625
0, 1, 42, 1489.602416992188
0, 1, 43, 1502.247436523438
0, 1, 44, 1447.785766601562
0, 1, 45, 1486.027709960938
0, 1, 46, 1421.44384765625
0, 1, 47, 1435.218627929688
0, 1, 48, 1427.234619140625
0, 1, 49, 1489.995849609375
0, 1, 50, 1439.408203125
0, 1, 51, 1472.87255859375
0, 1, 52, 1476.865356445312
0, 1, 53, 1476.72705078125
0, 1, 54, 1507.590209960938
0, 1, 55, 1496.163452148438
0, 1, 56, 1470.518676757812
0, 1, 57, 1455.654541015625
0, 1, 58, 1431.030395507812
0, 1, 59, 1482.036376953125
0, 1, 60, 1466.652709960938
0, 1, 61, 1453.727172851562
0, 1, 62, 1450.442626953125
0, 1, 63, 1414.168090820312
0, 1, 64, 1479.350708007812
0, 1, 65, 1425.872680664062
0, 1, 66, 1439.271240234375
0, 1, 67, 1459.545043945312
0, 1, 68, 1386.19970703125
0, 1, 69, 1463.372314453125
0, 1, 70, 1435.375610351562
0, 1, 71, 1500.708129882812
0, 1, 72, 1434.31201171875
0, 1, 73, 1484.138916015625
0, 1, 74, 1473.507690429688
0, 1, 75, 1478.412475585938
0, 1, 76, 1449.926513671875
0, 1, 77, 1460.504760742188
0, 1, 78, 1452.794189453125
0, 1, 79, 1500.728759765625
0, 1, 80, 1449.526123046875
0, 1, 81, 1430.138427734375
0, 1, 82, 1471.020263671875
0, 1, 83, 1462.691772460938
0, 1, 84, 1532.343627929688
0, 1, 85, 1445.59716796875
0, 1, 86, 1407.273681640625
0, 1, 87, 1415.304077148438
0, 1, 88, 1474.95166015625
0, 1, 89, 1474.761352539062
0, 1, 90, 1426.5732421875
0, 1, 91, 1464.542236328125
0, 1, 92, 1407.670776367188
0, 1, 93, 1461.85986328125
0, 1, 94, 1466.197631835938
0, 1, 95, 1422.829467773438
0, 1, 96, 1497.477783203125
0, 1, 97, 1519.062866210938
0, 1, 98, 1479.428588867188
0, 1, 99, 1420.959594726562
0, 1, 100, 1445.267456054688
0, 1, 101, 1414.8115234375
0, 1, 102, 1441.12841796875
0, 1, 103, 1413.266235351562
0, 1, 104, 1407.017700195312
0, 1, 105, 1463.453247070312
0, 1, 106, 1363.605834960938
0, 1, 107, 1019.991882324219
0, 1, 108, 402.9188232421875
0, 1, 109, 89.89273834228516
0, 1, 110, 62.80809783935547
0, 1, 111, 55.57120895385742
0, 1, 112, 48.79805755615234
0, 1, 113, 38.44547653198242
0, 1, 114, 39.84437942504883
0, 1, 115, 42.3203239440918
0, 1, 116, 32.63566207885742
0, 1, 117, 31.53425407409668
0, 1, 118, 39.06475448608398
0, 1, 119, 28.42670631408691
0, 1, 120, 26.45386123657227
0, 1, 121, 20.15037727355957
0, 1, 122, 20.79600715637207
0, 1, 123, 21.3654956817627
0, 1, 124, 27.87566375732422
0, 1, 125, 19.28947830200195
0, 1, 126, 21.37493133544922
0, 1, 127, 24.90740013122559
0, 2, 0, 21.47547340393066
0, 2, 1, 19.2885627746582
0, 2, 2, 21.2100830078125
0, 2, 3, 23.2446174621582
0, 2, 4, 25.54357719421387
0, 2, 5, 31.25746154785156
0, 2, 6, 20.43048667907715
0, 2, 7, 23.66883659362793
0, 2, 8, 26.90657234191895
0, 2, 9, 30.01631355285645
0, 2, 10, 28.97122573852539
0, 2, 11, 37.2897834777832
0, 2, 12, 40.62552261352539
0, 2, 13, 46.69750213623047
0, 2, 14, 45.24863815307617
0, 2, 15, 49.51530838012695
0, 2, 16, 61.76836013793945
0, 2, 17, 79.25324249267578
0, 2, 18, 140.2398834228516
0, 2, 19, 602.4625244140625
0, 2, 20, 1284.84130859375
0, 2, 21, 1436.940307617188
0, 2, 22, 1462.171020507812
0, 2, 23, 1400.614013671875
0, 2, 24, 1441.444213867188
0, 2, 25, 1523.795043945312
0, 2, 26, 1557.772338867188
0, 2, 27, 1453.742309570312
0, 2, 28, 1459.863403320312
0, 2, 29, 1462.027709960938
0, 2, 30, 1459.686279296875
0, 2, 31, 1534.990112304688
0, 2, 32, 1507.291381835938
0, 2, 33, 1440.50634765625
0, 2, 34, 1473.406005859375
0, 2, 35, 1469.406127929688
0, 2, 36, 1526.016967773438
0, 2, 37, 1543.383056640625
0, 2, 38, 1508.219360351562
0, 2, 39, 1462.695922851562
0, 2, 40, 1500.630249023438
0, 2, 41, 1517.987548828125
0, 2, 42, 1508.283203125
0, 2, 43, 1549.981201171875
0, 2, 44, 1457.024780273438
0, 2, 45, 1480.992919921875
0, 2, 46, 1429.484497070312
0, 2, 47, 1447.657836914062
0, 2, 48, 1393.376220703125
0, 2, 49, 1457.494995117188
0, 2, 50, 1442.907348632812
0, 2, 51, 1446.557983398438
0, 2, 52, 1490.485961914062
0, 2, 53, 1520.524658203125
0, 2, 54, 1531.014404296875
0, 2, 55, 1491.08935546875
0, 2, 56, 1463.44970703125
0, 2, 57, 1415.289184570312
0, 2, 58, 1455.421020507812
0, 2, 59, 1453.935791015625
0, 2, 60, 1470.35986328125
0, 2, 61, 1445.284301757812
0, 2, 62, 1471.441650390625
0, 2, 63, 1506.047485351562
0, 2, 64, 1461.419311523438
0, 2, 65, 1424.8154296875
0, 2, 66, 1488.604614257812
0, 2, 67, 1505.292114257812
0, 2, 68, 1545.867553710938
0, 2, 69, 1538.181030273438
0, 2, 70, 1503.930419921875
0, 2, 71, 1461.679931640625
0, 2, 72, 1516.355346679688
0, 2, 73, 1519.446166992188
0, 2, 74, 1487.680541992188
0, 2, 75, 1503.669677734375
0, 2, 76, 1452.22802734375
0, 2, 77, 1512.391967773438
0, 2, 78, 1432.590942382812
0, 2, 79, 1539.706420898438
0, 2, 80, 1480.522216796875
0, 2, 81, 1464.800048828125
0, 2, 82, 1559.692993164062
0, 2, 83, 1516.606323242188
0, 2, 84, 1490.397216796875
0, 2, 85, 1514.985595703125
0, 2, 86, 1544.11328125
0, 2, 87, 1490.26953125
0, 2, 88, 1540.2548828125
0, 2, 89, 1461.9990234375
0, 2, 90, 1431.626953125
0, 2, 91, 1401.406982421875
0, 2, 92, 1476.294067382812
0, 2, 93, 1495.336181640625
0, 2, 94, 1451.44873046875
0, 2, 95, 1545.066162109375
0, 2, 96, 1516.544921875
0, 2, 97, 1459.269653320312
0, 2, 98, 1463.143188476562
0, 2, 99, 1404.204711914062
0, 2, 100, 1473.084594726562
0, 2, 101, 1480.22900390625
0, 2, 102, 1461.985229492188
0, 2, 103, 1387.6982421875
0, 2, 104, 1409.387939453125
0, 2, 105, 1394.572143554688
0, 2, 106, 1460.158081054688
0, 2, 107, 1277.460693359375
0, 2, 108, 623.1478271484375
0, 2, 109, 171.4298706054688
0, 2, 110, 67.9486083984375
0, 2, 111, 64.05133056640625
0, 2, 112, 44.04747009277344
0, 2, 113, 43.43343353271484
0, 2, 114, 35.48058319091797
0, 2, 115, 43.37524032592773
0, 2, 116, 32.61622619628906
0, 2, 117, 37.65529632568359
0, 2, 118, 29.97337341308594
0, 2, 119, 30.06577301025391
0, 2, 120, 28.77529525756836
0, 2, 121, 22.11279296875
0, 2, 122, 26.93463897705078
0, 2, 123, 20.17520332336426
0, 2, 124, 24.90604782104492
0, 2, 125, 28.44314193725586
0, 2, 126, 15.67634582519531
0, 2, 127, 26.08905220031738
0, 3, 0, 12.25897693634033
0, 3, 1, 23.11284828186035
0, 3, 2, 25.69382858276367
0, 3, 3, 17.89873886108398
0, 3, 4, 27.10310173034668
0, 3, 5, 25.05318832397461
0, 3, 6, 33.22090911865234
0, 3, 7, 30.78005218505859
0, 3, 8, 30.67060279846191
0, 3, 9, 32.0232048034668
0, 3, 10, 31.85850715637207
0, 3, 11, 36.36830520629883
0, 3, 12, 45.87521743774414
0, 3, 13, 48.36579895019531
0, 3, 14, 57.90005493164062
0, 3, 15, 55.40192031860352
0, 3, 16, 70.28028106689453
0, 3, 17, 88.47933197021484
0, 3, 18, 242.9474792480469
0, 3, 19, 874.6998901367188
0, 3, 20, 1390.921875
0, 3, 21, 1502.944946289062
0, 3, 22, 1460.89501953125
0, 3, 23, 1456.833374023438
0, 3, 24, 1436.901733398438
0, 3, 25, 1467.505981445312
0, 3, 26, 1499.953247070312
0, 3, 27, 1466.47216796875
0, 3, 28, 1491.400390625
0, 3, 29, 1543.482299804688
0, 3, 30, 1570.189453125
0, 3, 31, 1510.28369140625
0, 3, 32, 1546.411743164062
0, 3, 33, 1540.253173828125
0, 3, 34, 1492.116455078125
0, 3, 35, 1461.997924804688
0, 3, 36, 1450.029541015625
0, 3, 37, 1512.588134765625
0, 3, 38, 1520.0048828125
0, 3, 39, 1442.842895507812
0, 3, 40, 1445.053588867188
0, 3, 41, 1564.289916992188
0, 3, 42, 1456.984619140625
0, 3, 43, 1459.807739257812
0, 3, 44, 1452.681762695312
0, 3, 45, 1506.499389648438
0, 3, 46, 1504.260009765625
0, 3, 47, 1442.688232421875
0, 3, 48, 1512.377197265625
0, 3, 49, 1455.9755859375
0, 3, 50, 1489.602294921875
0, 3, 51, 1536.029907226562
0, 3, 52, 1537.32666015625
0, 3, 53, 1463.601684570312
0, 3, 54, 1537.653564453125
0, 3, 55, 1502.44921875
0, 3, 56, 1433.796142578125
0, 3, 57, 1511.922973632812
0, 3, 58, 1510.22802734375
0, 3, 59, 1511.216064453125
0, 3, 60, 1535.438232421875
0, 3, 61, 1484.676147460938
0, 3, 62, 1492.129272460938
0, 3, 63, 1495.386352539062
0, 3, 64, 1501.590454101562
0, 3, 65, 1512.373291015625
0, 3, 66, 1557.70263671875
0, 3, 67, 1549.381958007812
0, 3, 68, 1447.66357421875
0, 3, 69, 1466.28515625
0, 3, 70, 1386.7158203125
0, 3, 71, 1461.661743164062
0, 3, 72, 1545.923095703125
0, 3, 73, 1498.188842773438
0, 3, 74, 1464.232666015625
0, 3, 75, 1461.122680664062
0, 3, 76, 1574.729248046875
0, 3, 77, 1541.389404296875
0, 3, 78, 1426.8515625
0, 3, 79, 1493.479248046875
0, 3, 80, 1468.783935546875
0, 3, 81, 1476.459716796875
0, 3, 82, 1556.208984375
0, 3, 83, 1515.361694335938
0, 3, 84, 1559.695678710938
0, 3, 85, 1480.386962890625
0, 3, 86, 1523.826904296875
0, 3, 87, 1534.5126953125
0, 3, 88, 1463.455810546875
0, 3, 89, 1445.844970703125
0, 3, 90, 1453.161743164062
0, 3, 91, 1422.155151367188
0, 3, 92, 1511.013549804688
0, 3, 93, 1499.257080078125
0, 3, 94, 1513.49560546875
0, 3, 95, 1541.363159179688
0, 3, 96, 1511.3759765625
0, 3, 97, 1461.827880859375
0, 3, 98, 1433.197631835938
0, 3, 99, 1468.522583007812
0, 3, 100, 1467.623779296875
0, 3, 101, 1475.715698242188
0, 3, 102, 1523.555053710938
0, 3, 103, 1556.490600585938
0, 3, 104, 1497.933227539062
0, 3, 105, 1515.93603515625
0, 3, 106, 1482.62109375
0, 3, 107, 1345.617431640625
0, 3, 108, 874.8529663085938
0, 3, 109, 260.2826232910156
0, 3, 110, 103.558723449707
0, 3, 111, 63.76496887207031
0, 3, 112, 59.79409790039062
0, 3, 113, 51.6769905090332
0, 3, 114, 45.72618865966797
0, 3, 115, 51.39694976806641
0, 3, 116, 38.91885757446289
0, 3, 117, 42.72271347045898
0, 3, 118, 36.31187438964844
0, 3, 119, 31.63365936279297
0, 3, 120, 30.0523796081543
0, 3, 121, 21.31213760375977
0, 3, 122, 24.49268531799316
0, 3, 123, 27.797119140625
0, 3, 124, 23.26150894165039
0, 3, 125, 27.78963470458984
0, 3, 126, 23.27721977233887
0, 3, 127, 16.88828086853027
0, 4, 0, 17.49916839599609
0, 4, 1, 22.13542366027832
0, 4, 2, 26.07847595214844
0, 4, 3, 25.21082496643066
0, 4, 4, 26.74742126464844
0, 4, 5, 26.22850608825684
0, 4, 6, 25.01811599731445
0, 4, 7, 29.83685874938965
0, 4, 8, 28.03634834289551
0, 4, 9, 36.1759147644043
0, 4, 10, 35.02435302734375
0, 4, 11, 40.38100051879883
0, 4, 12, 43.59607315063477
0, 4, 13, 52.60584259033203
0, 4, 14, 51.94355392456055
0, 4, 15, 59.32168197631836
0, 4, 16, 73.94284820556641
0, 4, 17, 112.0827102661133
0, 4, 18, 443.9552612304688
0, 4, 19, 1179.78759765625
0, 4, 20, 1447.087646484375
0, 4, 21, 1419.2080078125
0, 4, 22, 1433.242919921875
0, 4, 23, 1459.775268554688
0, 4, 24, 1474.078125
0, 4, 25, 1399.895385742188
0, 4, 26, 1535.27880859375
0, 4, 27, 1547.873046875
0, 4, 28, 1505.15380859375
0, 4, 29, 1515.286499023438
0, 4, 30, 1529.371948242188
0, 4, 31, 1572.770874023438
0, 4, 32, 1518.953369140625
0, 4, 33, 1491.870849609375
0, 4, 34, 1470.75146484375
0, 4, 35, 1557.023681640625
0, 4, 36, 1505.49365234375
0, 4, 37, 1516.206665039062
0, 4, 38, 1532.546997070312
0, 4, 39, 1465.890747070312
0, 4, 40, 1509.816772460938
0, 4, 41, 1586.590698242188
0, 4, 42, 1561.93505859375
0, 4, 43, 1477.703857421875
0, 4, 44, 1493.916870117188
0, 4, 45, 1516.002807617188
0, 4, 46, 1470.279174804688
0, 4, 47, 1504.000854492188
0, 4, 48, 1525.00732421875
0, 4, 49, 1471.740844726562
0, 4, 50, 1521.681762695312
0, 4, 51, 1499.747436523438
0, 4, 52, 1495.9072265625
0, 4, 53, 1452.966430664062
0, 4, 54, 1441.994750976562
0, 4, 55, 1527.641967773438
0, 4, 56, 1458.726318359375
0, 4, 57, 1493.82421875
0, 4, 58, 1460.724731445312
0, 4, 59, 1463.853637695312
0, 4, 60, 1526.561279296875
0, 4, 61, 1496.047241210938
0, 4, 62, 1503.6669921875
0, 4, 63, 1547.348510742188
0, 4, 64, 1593.44287109375
0, 4, 65, 1427.797119140625
0, 4, 66, 1513.822875976562
0, 4, 67, 1517.927734375
0, 4, 68, 1497.377075195312
0, 4, 69, 1467.6904296875
0, 4, 70, 1547.662109375
0, 4, 71, 1516.16845703125
0, 4, 72, 1525.549194335938
0, 4, 73, 1492.050170898438
0, 4, 74, 1485.343017578125
0, 4, 75, 1541.028198242188
0, 4, 76, 1486.395751953125
0, 4, 77, 1499.205322265625
0, 4, 78, 1501.259155273438
0, 4, 79, 1482.0341796875
0, 4, 80, 1522.32373046875
0, 4, 81, 1526.152465820312
0, 4, 82, 1571.513061523438
0, 4, 83, 1502.701904296875
0, 4, 84, 1530.76806640625
0, 4, 85, 1554.288330078125
0, 4, 86, 1523.429565429688
0, 4, 87, 1497.342895507812
0, 4, 88, 1519.312622070312
0, 4, 89, 1480.855590820312
0, 4, 90, 1543.051635742188
0, 4, 91, 1556.160034179688
0, 4, 92, 1492.52001953125
0, 4, 93, 1515.912109375
0, 4, 94, 1485.921142578125
0, 4, 95, 1509.266479492188
0, 4, 96, 1441.901733398438
0, 4, 97, 1406.982421875
0, 4, 98, 1553.099731445312
0, 4, 99, 1509.176391601562
0, 4, 100, 1493.162719726562
0, 4, 101, 1447.407836914062
0, 4, 102, 1444.513061523438
0, 4, 103, 1514.097900390625
0, 4, 104, 1510.141845703125
0, 4, 105, 1554.918823242188
0, 4, 106, 1481.77392578125
0, 4, 107, 1457.4443359375
0, 4, 108, 1122.774780273438
0, 4, 109, 434.0819396972656
0, 4, 110, 92.74029541015625
0, 4, 111, 69.183349609375
0, 4, 112, 65.53286743164062
0, 4, 113, 53.74649047851562
0, 4, 114, 52.82154846191406
0, 4, 115, 43.96530151367188
0, 4, 116, 37.86893081665039
0, 4, 117, 42.73830032348633
0, 4, 118, 48.0713996887207
0, 4, 119, 38.45785522460938
0, 4, 120, 38.37714004516602
0, 4, 121, 30.0374755859375
0, 4, 122, 30.45668792724609
0, 4, 123, 29.55874633789062
0, 4, 124, 27.96358108520508
0, 4, 125, 30.42926979064941
0, 4, 126, 22.36210823059082
0, 4, 127, 20.28204917907715
0, 5, 0, 22.03078269958496
0, 5, 1, 27.84670257568359
0, 5, 2, 35.69330978393555
0, 5, 3, 21.73625373840332
0, 5, 4, 19.84122276306152
0, 5, 5, 33.90100860595703
0, 5, 6, 25.84763526916504
0, 5, 7, 29.60122680664062
0, 5, 8, 32.35589981079102
0, 5, 9, 28.06413459777832
0, 5, 10, 32.41343688964844
0, 5, 11, 37.60995483398438
0, 5, 12, 39.28564071655273
0, 5, 13, 43.31977081298828
0, 5, 14, 61.25658798217773
0, 5, 15, 79.19119262695312
0, 5, 16, 86.39840698242188
0, 5, 17, 157.7376098632812
0, 5, 18, 673.712890625
0, 5, 19, 1343.312744140625
0, 5, 20, 1524.624877929688
0, 5, 21, 1494.855712890625
0, 5, 22, 1496.6220703125
0, 5, 23, 1530.059326171875
0, 5, 24, 1462.967407226562
0, 5, 25, 1427.084228515625
0, 5, 26, 1526.134765625
0, 5, 27, 1538.628051757812
0, 5, 28, 1485.754638671875
0, 5, 29, 1523.4892578125
0, 5, 30, 1492.08642578125
0, 5, 31, 1500.897338867188
0, 5, 32, 1593.194580078125
0, 5, 33, 1502.401977539062
0, 5, 34, 1482.001708984375
0, 5, 35, 1508.223876953125
0, 5, 36, 1444.86181640625
0, 5, 37, 1530.744140625
0, 5, 38, 1545.150756835938
0, 5, 39, 1547.597045898438
0, 5, 40, 1501.614135742188
0, 5, 41, 1476.641479492188
0, 5, 42, 1542.126953125
0, 5, 43, 1531.321655273438
0, 5, 44, 1543.046997070312
0, 5, 45, 1508.737426757812
0, 5, 46, 1490.769287109375
0, 5, 47, 1479.890869140625
0, 5, 48, 1501.905883789062
0, 5, 49, 1525.166259765625
0, 5, 50, 1509.732666015625
0, 5, 51, 1518.558227539062
0, 5, 52, 1431.02294921875
0, 5, 53, 1523.5458984375
0, 5, 54, 1519.495483398438
0, 5, 55, 1521.23046875
0, 5, 56, 1483.717407226562
0, 5, 57, 1539.952270507812
0, 5, 58, 1503.5029296875
0, 5, 59, 1483.927001953125
0, 5, 60, 1534.056884765625
0, 5, 61, 1448.446411132812
0, 5, 62, 1585.58740234375
0, 5, 63, 1429.328735351562
0, 5, 64, 1492.225463867188
0, 5, 65, 1465.153076171875
0, 5, 66, 1531.102905273438
0, 5, 67, 1559.929443359375
0, 5, 68, 1464.844360351562
0, 5, 69, 1484.359497070312
0, 5, 70, 1488.185791015625
0, 5, 71, 1473.97119140625
0, 5, 72, 1533.696533203125
0, 5, 73, 1458.933837890625
0, 5, 74, 1491.476318359375
0, 5, 75, 1484.115600585938
0, 5, 76, 1477.133178710938
0, 5, 77, 1513.443481445312
0, 5, 78, 1525.374145507812
0, 5, 79, 1512.9189453125
0, 5, 80, 1522.438110351562
0, 5, 81, 1593.905639648438
0, 5, 82, 1525.18798828125
0, 5, 83, 1487.055419921875
0, 5, 84, 1533.560302734375
0, 5, 85, 1514.041748046875
0, 5, 86, 1561.571899414062
0, 5, 87, 1476.724975585938
0, 5, 88, 1502.794555664062
0, 5, 89, 1483.950805664062
0, 5, 90, 1477.28564453125
0, 5, 91, 1547.687255859375
0, 5, 92, 1480.294189453125
0, 5, 93, 1562.019653320312
0, 5, 94, 1506.75146484375
0, 5, 95, 1560.984375
0, 5, 96, 1497.458740234375
0, 5, 97, 1509.286010742188
0, 5, 98, 1508.861328125
0, 5, 99, 1541.724365234375
0, 5, 100, 1435.523071289062
0, 5, 101, 1427.741577148438
0, 5, 102, 1510.295288085938
0, 5, 103, 1472.861450195312
0, 5, 104, 1464.494262695312
0, 5, 105, 1491.879760742188
0, 5, 106, 1457.670532226562
0, 5, 107, 1397.569946289062
0, 5, 108, 1288.232299804688
0, 5, 109, 719.03662109375
0, 5, 110, 192.0441284179688
0, 5, 111, 87.41262817382812
0, 5, 112, 79.48685455322266
0, 5, 113, 60.87602615356445
0, 5, 114, 65.79113006591797
0, 5, 115, 51.8775520324707
0, 5, 116, 39.47721099853516
0, 5, 117, 33.63803482055664
0, 5, 118, 39.3577880859375
0, 5, 119, 30.75542068481445
0, 5, 120, 31.54153251647949
0, 5, 121, 26.30809211730957
0, 5, 122, 28.56200981140137
0, 5, 123, 24.49051856994629
0, 5, 124, 26.33707237243652
0, 5, 125, 22.64163780212402
0, 5, 126, 20.9417896270752
0, 5, 127, 19.88146209716797
0, 6, 0, 19.28233528137207
0, 6, 1, 28.92688941955566
0, 6, 2, 27.05795478820801
0, 6, 3, 23.1303596496582
0, 6, 4, 26.31142044067383
0, 6, 5, 32.05656814575195
0, 6, 6, 36.65396118164062
0, 6, 7, 32.0526237487793
0, 6, 8, 31.18321228027344
0, 6, 9, 31.73121643066406
0, 6, 10, 36.36445999145508
0, 6, 11, 41.40487670898438
0, 6, 12, 39.15518951416016
0, 6, 13, 59.74145126342773
0, 6, 14, 58.66549301147461
0, 6, 15, 81.97845458984375
0, 6, 16, 109.7428817749023
0, 6, 17, 300.018798828125
0, 6, 18, 901.5294189453125
0, 6, 19, 1373.168334960938
0, 6, 20, 1442.951904296875
0, 6, 21, 1526.501831054688
0, 6, 22, 1502.182861328125
0, 6, 23, 1533.471435546875
0, 6, 24, 1475.531494140625
0, 6, 25, 1527.338500976562
0, 6, 26, 1520.835083007812
0, 6, 27, 1521.47802734375
0, 6, 28, 1552.051391601562
0, 6, 29, 1569.32080078125
0, 6, 30, 1515.112548828125
0, 6, 31, 1493.21630859375
0, 6, 32, 1521.37060546875
0, 6, 33, 1496.254028320312
0, 6, 34, 1559.089477539062
0, 6, 35, 1505.010620117188
0, 6, 36, 1438.619995117188
0, 6, 37, 1544.974243164062
0, 6, 38, 1523.075439453125
0, 6, 39, 1524.77001953125
0, 6, 40, 1459.67333984375
0, 6, 41, 1439.478271484375
0, 6, 42, 1514.947631835938
0, 6, 43, 1488.133666992188
0, 6, 44, 1432.117553710938
0, 6, 45, 1541.16796875
0, 6, 46, 1551.146728515625
0, 6, 47, 1495.348266601562
0, 6, 48, 1523.025512695312
0, 6, 49, 1509.072998046875
0, 6, 50, 1572.95556640625
0, 6, 51, 1501.533447265625
0, 6, 52, 1567.551513671875
0, 6, 53, 1474.911499023438
0, 6, 54, 1503.855712890625
0, 6, 55, 1576.001831054688
0, 6, 56, 1521.000122070312
0, 6, 57, 1504.95361328125
0, 6, 58, 1468.072631835938
0, 6, 59, 1519.051879882812
0, 6, 60, 1467.707763671875
0, 6, 61, 1571.3818359375
0, 6, 62, 1543.694091796875
0, 6, 63, 1496.200439453125
0, 6, 64, 1415.4921875
0, 6, 65, 1494.639404296875
0, 6, 66, 1507.276733398438
0, 6, 67, 1514.231079101562
0, 6, 68, 1546.57763671875
0, 6, 69, 1486.371704101562
0, 6, 70, 1524.953125
0, 6, 71, 1474.94970703125
0, 6, 72, 1598.55859375
0, 6, 73, 1490.0283203125
0, 6, 74, 1557.815551757812
0, 6, 75, 1540.567016601562
0, 6, 76, 1560.204833984375
0, 6, 77, 1504.994140625
0, 6, 78, 1446.171997070312
0, 6, 79, 1556.401489257812
0, 6, 80, 1478.14990234375
0, 6, 81, 1484.943359375
0, 6, 82, 1502.223876953125
0, 6, 83, 1526.805419921875
0, 6, 84, 1517.792846679688
0, 6, 85, 1536.286376953125
0, 6, 86, 1541.292724609375
0, 6, 87, 1574.099731445312
0, 6, 88, 1481.227783203125
0, 6, 89, 1562.7412109375
0, 6, 90, 1493.760375976562
0, 6, 91, 1539.3271484375
0, 6, 92, 1489.319213867188
0, 6, 93, 1497.523681640625
0, 6, 94, 1471.298706054688
0, 6, 95, 1510.81396484375
0, 6, 96, 1522.44921875
0, 6, 97, 1506.698120117188
0, 6, 98, 1497.530639648438
0, 6, 99, 1477.458862304688
0, 6, 100, 1525.304077148438
0, 6, 101, 1517.973999023438
0, 6, 102, 1539.0693359375
0, 6, 103, 1501.228881835938
0, 6, 104, 1466.7587890625
0, 6, 105, 1484.398559570312
0, 6, 106, 1495.350830078125
0, 6, 107, 1500.970336914062
0, 6, 108, 1405.470336914062
0, 6, 109, 922.4866333007812
0, 6, 110, 278.5476989746094
0, 6, 111, 91.9725341796875
0, 6, 112, 77.12787628173828
0, 6, 113, 60.70869064331055
0, 6, 114, 58.28850555419922
0, 6, 115, 43.41186904907227
0, 6, 116, 40.55741119384766
0, 6, 117, 35.40791702270508
0, 6, 118, 42.51456451416016
0, 6, 119, 36.48551940917969
0, 6, 120, 35.36443328857422
0, 6, 121, 29.56594467163086
0, 6, 122, 28.03189468383789
0, 6, 123, 26.9060001373291
0, 6, 124, 29.28618812561035
0, 6, 125, 33.07987594604492
0, 6, 126, 21.05845642089844
0, 6, 127, 22.28797149658203
0, 7, 0, 19.07695770263672
0, 7, 1, 29.19400405883789
0, 7, 2, 19.86141014099121
0, 7, 3, 19.24214744567871
0, 7, 4, 28.56148147583008
0, 7, 5, 36.81340026855469
0, 7, 6, 31.89433288574219
0, 7, 7, 38.69638824462891
0, 7, 8, 33.14812850952148
0, 7, 9, 39.87474060058594
0, 7, 10, 47.78533554077148
0, 7, 11, 50.15133285522461
0, 7, 12, 50.72330093383789
0, 7, 13, 52.162841796875
0, 7, 14, 61.47122573852539
0, 7, 15, 78.97258758544922
0, 7, 16, 130.0345001220703
0, 7, 17, 461.7943420410156
0, 7, 18, 1098.575439453125
0, 7, 19, 1502.978759765625
0, 7, 20, 1481.951416015625
0, 7, 21, 1361.08935546875
0, 7, 22, 1486.197265625
0, 7, 23, 1453.267822265625
0, 7, 24, 1510.055297851562
0, 7, 25, 1595.836303710938
0, 7, 26, 1518.544067382812
0, 7, 27, 1511.083618164062
0, 7, 28, 1547.854248046875
0, 7, 29, 1571.096435546875
0, 7, 30, 1549.165771484375
0, 7, 31, 1438.281860351562
0, 7, 32, 1542.4619140625
0, 7, 33, 1490.94775390625
0, 7, 34, 1480.565063476562
0, 7, 35, 1525.426147460938
0, 7, 36, 1473.968994140625
0, 7, 37, 1598.04541015625
0, 7, 38, 1505.072021484375
0, 7, 39, 1491.11279296875
0, 7, 40, 1543.620971679688
0, 7, 41, 1463.992065429688
0, 7, 42, 1490.4267578125
0, 7, 43, 1448.975341796875
0, 7, 44, 1494.391357421875
0, 7, 45, 1469.607543945312
0, 7, 46, 1511.70947265625
0, 7, 47, 1565.2353515625
0, 7, 48, 1525.304809570312
0, 7, 49, 1539.845092773438
0, 7, 50, 1513.841186523438
0, 7, 51, 1498.859008789062
0, 7, 52, 1521.424682617188
0, 7, 53, 1492.65869140625
0, 7, 54, 1589.62939453125
0, 7, 55, 1470.467895507812
0, 7, 56, 1551.381958007812
0, 7, 57, 1515.03955078125
0, 7, 58, 1550.825073242188
0, 7, 59, 1541.459838867188
0, 7, 60, 1549.09716796875
0, 7, 61, 1491.734252929688
0, 7, 62, 1434.092407226562
0, 7, 63, 1514.963623046875
0, 7, 64, 1551.447631835938
0, 7, 65, 1529.494018554688
0, 7, 66, 1534.915161132812
0, 7, 67, 1576.2119140625
0, 7, 68, 1534.581787109375
0, 7, 69, 1518.360229492188
0, 7, 70, 1494.4814453125
0, 7, 71, 1523.947143554688
0, 7, 72, 1521.567749023438
0, 7, 73, 1518.363891601562
0, 7, 74, 1577.9306640625
0, 7, 75, 1533.762817382812
0, 7, 76, 1559.866455078125
0, 7, 77, 1514.208251953125
0, 7, 78, 1503.09033203125
0, 7, 79, 1423.68701171875
0, 7, 80, 1487.126220703125
0, 7, 81, 1496.864379882812
0, 7, 82, 1539.2783203125
0, 7, 83, 1542.093505859375
0, 7, 84, 1585.825805664062
0, 7, 85, 1478.274047851562
0, 7, 86, 1501.890869140625
0, 7, 87, 1509.457275390625
0, 7, 88, 1502.734375
0, 7, 89, 1553.256713867188
0, 7, 90, 1519.716186523438
0, 7, 91, 1564.604125976562
0, 7, 92, 1526.6884765625
0, 7, 93, 1559.39208984375
0, 7, 94, 1535.054321289062
0, 7, 95, 1505.213012695312
0, 7, 96, 1501.04345703125
0, 7, 97, 1431.182495117188
0, 7, 98, 1485.305419921875
0, 7, 99, 1523.959106445312
0, 7, 100, 1419.37939453125
0, 7, 101, 1463.447387695312
0, 7, 102, 1450.973388671875
0, 7, 103, 1428.024536132812
0, 7, 104, 1494.678955078125
0, 7, 105, 1522.316528320312
0, 7, 106, 1566.937866210938
0, 7, 107, 1483.325073242188
0, 7, 108, 1412.437377929688
0, 7, 109, 1147.020385742188
0, 7, 110, 467.5641174316406
0, 7, 111, 127.5070877075195
0, 7, 112, 80.12067413330078
0, 7, 113, 71.89768981933594
0, 7, 114, 60.84077835083008
0, 7, 115, 52.95930480957031
0, 7, 116, 47.9455680847168
0, 7, 117, 42.68617248535156
0, 7, 118, 37.82146453857422
0, 7, 119, 36.97133636474609
0, 7, 120, 23.71807098388672
0, 7, 121, 30.59557151794434
0, 7, 122, 32.18386459350586
0, 7, 123, 33.46010589599609
0, 7, 124, 32.88544464111328
0, 7, 125, 21.39941596984863
0, 7, 126, 27.38017654418945
0, 7, 127, 20.67279815673828
0, 8, 0, 23.03604698181152
0, 8, 1, 23.8785285949707
0, 8, 2, 27.72344779968262
0, 8, 3, 28.94126319885254
0, 8, 4, 24.45158386230469
0, 8, 5, 30.84200859069824
0, 8, 6, 40.65845489501953
0, 8, 7, 26.36617469787598
0, 8, 8, 32.80375289916992
0, 8, 9, 45.99034881591797
0, 8, 10, 45.63619232177734
0, 8, 11, 42.55484008789062
0, 8, 12, 53.84844970703125
0, 8, 13, 66.38974761962891
0, 8, 14, 71.00562286376953
0, 8, 15, 87.47339630126953
0, 8, 16, 163.1686096191406
0, 8, 17, 674.615966796875
0, 8, 18, 1276.2529296875
0, 8, 19, 1445.400756835938
0, 8, 20, 1420.48583984375
0, 8, 21, 1410.781616210938
0, 8, 22, 1488.396728515625
0, 8, 23, 1480.330322265625
0, 8, 24, 1434.235961914062
0, 8, 25, 1455.265014648438
0, 8, 26, 1513.667602539062
0, 8, 27, 1519.911010742188
0, 8, 28, 1472.65478515625
0, 8, 29, 1507.65087890625
0, 8, 30, 1485.594604492188
0, 8, 31, 1532.475708007812
0, 8, 32, 1514.417602539062
0, 8, 33, 1478.795532226562
0, 8, 34, 1535.349975585938
0, 8, 35, 1443.140258789062
0, 8, 36, 1498.766357421875
0, 8, 37, 1553.329467773438
0, 8, 38, 1556.09765625
0, 8, 39, 1494.170043945312
0, 8, 40, 1529.5810546875
0, 8, 41, 1482.587280273438
0, 8, 42, 1541.431030273438
0, 8, 43, 1438.143798828125
0, 8, 44, 1533.104125976562
0, 8, 45, 1507.483520507812
0, 8, 46, 1599.017211914062
0, 8, 47, 1586.688354492188
