# TOPAS Version: 3.1.p3
# Parameter File: batch_inserts_174.txt
# Results for scorer Readout_Adipose
# Scored in component: MyBox
# X in 1 bin  of 0.75 cm
# Y in 512 bins of 0.0783984 cm
# Z in 128 bins of 0.078125 cm
# EnergyDeposit ( MeV ) : Sum   
0, 0, 0, 4.31656551361084
0, 0, 1, 3.380877017974854
0, 0, 2, 2.817389011383057
0, 0, 3, 1.02574610710144
0, 0, 4, 3.201196193695068
0, 0, 5, 2.249434947967529
0, 0, 6, 7.255998134613037
0, 0, 7, 8.720459938049316
0, 0, 8, 3.197291612625122
0, 0, 9, 5.729637145996094
0, 0, 10, 6.086755752563477
0, 0, 11, 4.880594730377197
0, 0, 12, 5.48123836517334
0, 0, 13, 6.003772735595703
0, 0, 14, 8.137212753295898
0, 0, 15, 8.082795143127441
0, 0, 16, 8.27910327911377
0, 0, 17, 9.890880584716797
0, 0, 18, 15.48216342926025
0, 0, 19, 44.04029846191406
0, 0, 20, 139.0908660888672
0, 0, 21, 224.0288848876953
0, 0, 22, 249.4212341308594
0, 0, 23, 256.0220947265625
0, 0, 24, 251.5205688476562
0, 0, 25, 259.5658874511719
0, 0, 26, 233.3341369628906
0, 0, 27, 237.4532775878906
0, 0, 28, 271.794189453125
0, 0, 29, 253.0758666992188
0, 0, 30, 229.8497009277344
0, 0, 31, 244.1971893310547
0, 0, 32, 263.7072448730469
0, 0, 33, 259.36474609375
0, 0, 34, 288.6168518066406
0, 0, 35, 267.1798095703125
0, 0, 36, 246.8318176269531
0, 0, 37, 252.8299407958984
0, 0, 38, 268.0873107910156
0, 0, 39, 229.0047760009766
0, 0, 40, 240.5351104736328
0, 0, 41, 264.3350219726562
0, 0, 42, 228.8623962402344
0, 0, 43, 260.6787414550781
0, 0, 44, 253.0882568359375
0, 0, 45, 252.7064056396484
0, 0, 46, 244.4980773925781
0, 0, 47, 253.6060791015625
0, 0, 48, 267.4918823242188
0, 0, 49, 273.6810302734375
0, 0, 50, 250.6632995605469
0, 0, 51, 255.3561706542969
0, 0, 52, 272.1323852539062
0, 0, 53, 292.0595092773438
0, 0, 54, 241.7825775146484
0, 0, 55, 239.5848846435547
0, 0, 56, 277.9143676757812
0, 0, 57, 262.0154724121094
0, 0, 58, 246.1487579345703
0, 0, 59, 269.3349609375
0, 0, 60, 233.9224243164062
0, 0, 61, 245.8513793945312
0, 0, 62, 259.8888854980469
0, 0, 63, 267.3966674804688
0, 0, 64, 254.9192810058594
0, 0, 65, 260.1890563964844
0, 0, 66, 276.4409790039062
0, 0, 67, 246.4754333496094
0, 0, 68, 258.0877380371094
0, 0, 69, 261.9658203125
0, 0, 70, 272.6055297851562
0, 0, 71, 238.2322235107422
0, 0, 72, 250.0451049804688
0, 0, 73, 259.1214294433594
0, 0, 74, 249.5624847412109
0, 0, 75, 243.4051818847656
0, 0, 76, 228.9054870605469
0, 0, 77, 258.3799743652344
0, 0, 78, 258.05322265625
0, 0, 79, 278.2600402832031
0, 0, 80, 215.0942840576172
0, 0, 81, 266.2017517089844
0, 0, 82, 255.7801513671875
0, 0, 83, 245.1924133300781
0, 0, 84, 268.7851867675781
0, 0, 85, 233.3990478515625
0, 0, 86, 253.2918853759766
0, 0, 87, 251.8970336914062
0, 0, 88, 259.528564453125
0, 0, 89, 283.156005859375
0, 0, 90, 243.7646179199219
0, 0, 91, 281.3105163574219
0, 0, 92, 252.6367340087891
0, 0, 93, 251.6546173095703
0, 0, 94, 251.6754455566406
0, 0, 95, 248.3584136962891
0, 0, 96, 275.4590148925781
0, 0, 97, 272.4690551757812
0, 0, 98, 273.4771423339844
0, 0, 99, 257.4156494140625
0, 0, 100, 258.4490051269531
0, 0, 101, 227.0390319824219
0, 0, 102, 234.0254974365234
0, 0, 103, 269.3598937988281
0, 0, 104, 255.6459350585938
0, 0, 105, 251.9508514404297
0, 0, 106, 245.1175537109375
0, 0, 107, 152.3564910888672
0, 0, 108, 38.63500213623047
0, 0, 109, 11.15908050537109
0, 0, 110, 12.40397357940674
0, 0, 111, 7.892246246337891
0, 0, 112, 6.24392557144165
0, 0, 113, 7.351729869842529
0, 0, 114, 8.990767478942871
0, 0, 115, 5.148914337158203
0, 0, 116, 5.23993968963623
0, 0, 117, 6.270112991333008
0, 0, 118, 6.750367641448975
0, 0, 119, 4.579239368438721
0, 0, 120, 3.542315483093262
0, 0, 121, 2.829138994216919
0, 0, 122, 4.20428466796875
0, 0, 123, 3.862848043441772
0, 0, 124, 4.323331356048584
0, 0, 125, 3.548522710800171
0, 0, 126, 3.394395589828491
0, 0, 127, 3.622731685638428
0, 1, 0, 7.344259738922119
0, 1, 1, 2.044698715209961
0, 1, 2, 4.919591426849365
0, 1, 3, 2.726263999938965
0, 1, 4, 2.203855991363525
0, 1, 5, 5.009162902832031
0, 1, 6, 6.626595973968506
0, 1, 7, 7.991033554077148
0, 1, 8, 8.297911643981934
0, 1, 9, 6.3673996925354
0, 1, 10, 6.673341274261475
0, 1, 11, 10.94401931762695
0, 1, 12, 7.471813201904297
0, 1, 13, 9.592933654785156
0, 1, 14, 8.266070365905762
0, 1, 15, 7.723762989044189
0, 1, 16, 10.75319194793701
0, 1, 17, 11.59580516815186
0, 1, 18, 20.9411449432373
0, 1, 19, 64.68482971191406
0, 1, 20, 200.4654083251953
0, 1, 21, 255.4237213134766
0, 1, 22, 296.9345397949219
0, 1, 23, 283.2635192871094
0, 1, 24, 275.8361206054688
0, 1, 25, 289.0924987792969
0, 1, 26, 269.70556640625
0, 1, 27, 307.3001403808594
0, 1, 28, 301.5753173828125
0, 1, 29, 295.6242980957031
0, 1, 30, 282.7224426269531
0, 1, 31, 291.7212829589844
0, 1, 32, 289.877197265625
0, 1, 33, 294.5158996582031
0, 1, 34, 293.0335083007812
0, 1, 35, 277.9668884277344
0, 1, 36, 305.9909362792969
0, 1, 37, 293.8842163085938
0, 1, 38, 279.1365966796875
0, 1, 39, 295.4254760742188
0, 1, 40, 265.5158081054688
0, 1, 41, 287.3320922851562
0, 1, 42, 288.8157348632812
0, 1, 43, 333.8739929199219
0, 1, 44, 279.4254150390625
0, 1, 45, 293.8874816894531
0, 1, 46, 260.1389770507812
0, 1, 47, 310.0237426757812
0, 1, 48, 285.0257568359375
0, 1, 49, 304.8806457519531
0, 1, 50, 263.0350341796875
0, 1, 51, 271.5650024414062
0, 1, 52, 298.2308349609375
0, 1, 53, 303.0416870117188
0, 1, 54, 274.0335388183594
0, 1, 55, 295.1487731933594
0, 1, 56, 277.63037109375
0, 1, 57, 298.7979736328125
0, 1, 58, 309.2401733398438
0, 1, 59, 291.2754516601562
0, 1, 60, 297.8309631347656
0, 1, 61, 276.07763671875
0, 1, 62, 310.1315307617188
0, 1, 63, 286.8683166503906
0, 1, 64, 288.5883178710938
0, 1, 65, 296.5700378417969
0, 1, 66, 291.4784240722656
0, 1, 67, 293.2866821289062
0, 1, 68, 277.9972229003906
0, 1, 69, 280.146240234375
0, 1, 70, 271.7550964355469
0, 1, 71, 276.0926818847656
0, 1, 72, 286.7977294921875
0, 1, 73, 304.4195556640625
0, 1, 74, 303.9573364257812
0, 1, 75, 295.7240295410156
0, 1, 76, 285.1381225585938
0, 1, 77, 289.2677917480469
0, 1, 78, 296.0211181640625
0, 1, 79, 300.149169921875
0, 1, 80, 297.3096618652344
0, 1, 81, 300.4325866699219
0, 1, 82, 283.8292236328125
0, 1, 83, 334.3639221191406
0, 1, 84, 307.9112548828125
0, 1, 85, 252.4464263916016
0, 1, 86, 293.7798461914062
0, 1, 87, 290.5051574707031
0, 1, 88, 298.8015747070312
0, 1, 89, 294.6353454589844
0, 1, 90, 269.710205078125
0, 1, 91, 317.1835021972656
0, 1, 92, 291.3487548828125
0, 1, 93, 286.1247253417969
0, 1, 94, 302.857666015625
0, 1, 95, 285.2362365722656
0, 1, 96, 282.6480712890625
0, 1, 97, 301.5135803222656
0, 1, 98, 277.77978515625
0, 1, 99, 267.2735595703125
0, 1, 100, 275.5185241699219
0, 1, 101, 281.248779296875
0, 1, 102, 279.0811767578125
0, 1, 103, 280.3191223144531
0, 1, 104, 305.8020935058594
0, 1, 105, 296.7480163574219
0, 1, 106, 260.4627685546875
0, 1, 107, 190.2184143066406
0, 1, 108, 80.51226043701172
0, 1, 109, 23.96517562866211
0, 1, 110, 10.81956386566162
0, 1, 111, 9.573113441467285
0, 1, 112, 13.86332225799561
0, 1, 113, 4.880475521087646
0, 1, 114, 5.897074699401855
0, 1, 115, 6.735963344573975
0, 1, 116, 10.11764335632324
0, 1, 117, 4.325157165527344
0, 1, 118, 6.614449977874756
0, 1, 119, 4.094147205352783
0, 1, 120, 3.896826982498169
0, 1, 121, 2.733817100524902
0, 1, 122, 2.062383890151978
0, 1, 123, 1.97408652305603
0, 1, 124, 7.9728684425354
0, 1, 125, 4.750685691833496
0, 1, 126, 2.078402519226074
0, 1, 127, 0.7996611595153809
0, 2, 0, 5.075872898101807
0, 2, 1, 2.240678310394287
0, 2, 2, 4.837752342224121
0, 2, 3, 4.432310581207275
0, 2, 4, 2.917968511581421
0, 2, 5, 1.860196828842163
0, 2, 6, 3.586686849594116
0, 2, 7, 3.163448810577393
0, 2, 8, 5.001469612121582
0, 2, 9, 5.704907417297363
0, 2, 10, 7.658689022064209
0, 2, 11, 5.998500823974609
0, 2, 12, 6.253856658935547
0, 2, 13, 10.89945316314697
0, 2, 14, 9.456148147583008
0, 2, 15, 7.626630783081055
0, 2, 16, 9.678912162780762
0, 2, 17, 18.47215843200684
0, 2, 18, 30.35600471496582
0, 2, 19, 114.4719772338867
0, 2, 20, 247.825439453125
0, 2, 21, 270.653076171875
0, 2, 22, 316.0922546386719
0, 2, 23, 303.0269775390625
0, 2, 24, 285.3486328125
0, 2, 25, 303.3827819824219
0, 2, 26, 293.0628051757812
0, 2, 27, 276.2494812011719
0, 2, 28, 278.2291870117188
0, 2, 29, 275.977783203125
0, 2, 30, 288.1559753417969
0, 2, 31, 276.1415710449219
0, 2, 32, 294.398681640625
0, 2, 33, 285.2943420410156
0, 2, 34, 330.0566711425781
0, 2, 35, 289.0255432128906
0, 2, 36, 305.7198181152344
0, 2, 37, 318.35400390625
0, 2, 38, 312.7949523925781
0, 2, 39, 269.5455322265625
0, 2, 40, 307.8676452636719
0, 2, 41, 291.2058410644531
0, 2, 42, 304.0714721679688
0, 2, 43, 312.8409423828125
0, 2, 44, 312.1221008300781
0, 2, 45, 326.3455200195312
0, 2, 46, 287.1024780273438
0, 2, 47, 302.9541320800781
0, 2, 48, 281.0393371582031
0, 2, 49, 278.7572021484375
0, 2, 50, 294.445556640625
0, 2, 51, 284.4667358398438
0, 2, 52, 273.2872924804688
0, 2, 53, 285.1781921386719
0, 2, 54, 278.5395812988281
0, 2, 55, 275.5697021484375
0, 2, 56, 300.8169555664062
0, 2, 57, 291.1068725585938
0, 2, 58, 306.6080017089844
0, 2, 59, 291.0278625488281
0, 2, 60, 318.4602661132812
0, 2, 61, 301.538330078125
0, 2, 62, 312.4217529296875
0, 2, 63, 303.0598449707031
0, 2, 64, 295.71337890625
0, 2, 65, 314.0088500976562
0, 2, 66, 279.0374450683594
0, 2, 67, 291.294677734375
0, 2, 68, 295.9718627929688
0, 2, 69, 311.6011962890625
0, 2, 70, 334.7059326171875
0, 2, 71, 284.61376953125
0, 2, 72, 301.4363708496094
0, 2, 73, 311.4292907714844
0, 2, 74, 287.6436462402344
0, 2, 75, 306.1784362792969
0, 2, 76, 287.6326599121094
0, 2, 77, 300.638916015625
0, 2, 78, 316.0750732421875
0, 2, 79, 311.2111511230469
0, 2, 80, 296.8732604980469
0, 2, 81, 281.7293395996094
0, 2, 82, 320.2007141113281
0, 2, 83, 313.7990417480469
0, 2, 84, 287.3143005371094
0, 2, 85, 280.6581115722656
0, 2, 86, 324.8859558105469
0, 2, 87, 285.8461303710938
0, 2, 88, 280.5123901367188
0, 2, 89, 294.8619995117188
0, 2, 90, 294.7998657226562
0, 2, 91, 276.9285278320312
0, 2, 92, 305.1842346191406
0, 2, 93, 315.8289489746094
0, 2, 94, 291.353271484375
0, 2, 95, 315.4147033691406
0, 2, 96, 315.251708984375
0, 2, 97, 290.9908752441406
0, 2, 98, 293.0146179199219
0, 2, 99, 273.86572265625
0, 2, 100, 306.2626342773438
0, 2, 101, 302.7096862792969
0, 2, 102, 296.3179626464844
0, 2, 103, 293.9017028808594
0, 2, 104, 291.9757995605469
0, 2, 105, 273.6096496582031
0, 2, 106, 296.8688354492188
0, 2, 107, 270.0960083007812
0, 2, 108, 117.3612899780273
0, 2, 109, 32.96944808959961
0, 2, 110, 11.05119037628174
0, 2, 111, 11.96381282806396
0, 2, 112, 9.327773094177246
0, 2, 113, 9.272382736206055
0, 2, 114, 9.378875732421875
0, 2, 115, 10.1373291015625
0, 2, 116, 7.950992584228516
0, 2, 117, 8.79021167755127
0, 2, 118, 3.001253843307495
0, 2, 119, 3.215963363647461
0, 2, 120, 6.605144023895264
0, 2, 121, 3.271462202072144
0, 2, 122, 4.87397289276123
0, 2, 123, 4.1336350440979
0, 2, 124, 6.226307392120361
0, 2, 125, 4.496750831604004
0, 2, 126, 4.946849346160889
0, 2, 127, 4.576474189758301
0, 3, 0, 3.094672441482544
0, 3, 1, 3.310561656951904
0, 3, 2, 5.201299667358398
0, 3, 3, 1.546026349067688
0, 3, 4, 3.108001947402954
0, 3, 5, 7.59852123260498
0, 3, 6, 7.277482509613037
0, 3, 7, 5.449075698852539
0, 3, 8, 4.915952205657959
0, 3, 9, 7.355744361877441
0, 3, 10, 5.154040336608887
0, 3, 11, 5.350475788116455
0, 3, 12, 11.57169914245605
0, 3, 13, 14.76680660247803
0, 3, 14, 11.85335159301758
0, 3, 15, 13.22581100463867
0, 3, 16, 11.76215648651123
0, 3, 17, 21.87439155578613
0, 3, 18, 53.85103225708008
0, 3, 19, 174.4761962890625
0, 3, 20, 269.60595703125
0, 3, 21, 269.1939392089844
0, 3, 22, 282.6448669433594
0, 3, 23, 285.7629089355469
0, 3, 24, 287.2458190917969
0, 3, 25, 267.7509765625
0, 3, 26, 304.6619873046875
0, 3, 27, 292.1336059570312
0, 3, 28, 279.6342163085938
0, 3, 29, 339.2676696777344
0, 3, 30, 316.4080200195312
0, 3, 31, 286.6063842773438
0, 3, 32, 308.9891967773438
0, 3, 33, 314.0242309570312
0, 3, 34, 322.8153686523438
0, 3, 35, 306.5024108886719
0, 3, 36, 269.5506591796875
0, 3, 37, 312.1859130859375
0, 3, 38, 306.2942199707031
0, 3, 39, 289.2289123535156
0, 3, 40, 266.8784790039062
0, 3, 41, 301.4329223632812
0, 3, 42, 285.6562194824219
0, 3, 43, 307.1051940917969
0, 3, 44, 312.4251098632812
0, 3, 45, 290.5069885253906
0, 3, 46, 330.6400451660156
0, 3, 47, 299.2792663574219
0, 3, 48, 302.8445739746094
0, 3, 49, 279.1011657714844
0, 3, 50, 289.04150390625
0, 3, 51, 276.3714294433594
0, 3, 52, 314.2897644042969
0, 3, 53, 286.894775390625
0, 3, 54, 286.2202758789062
0, 3, 55, 285.0361633300781
0, 3, 56, 297.93603515625
0, 3, 57, 290.0428466796875
0, 3, 58, 307.7204284667969
0, 3, 59, 295.6725158691406
0, 3, 60, 298.5180969238281
0, 3, 61, 263.7764892578125
0, 3, 62, 284.4250793457031
0, 3, 63, 309.5997924804688
0, 3, 64, 315.6100463867188
0, 3, 65, 303.7238464355469
0, 3, 66, 315.3554382324219
0, 3, 67, 318.3949584960938
0, 3, 68, 280.6815795898438
0, 3, 69, 284.6965942382812
0, 3, 70, 288.2396240234375
0, 3, 71, 297.9890441894531
0, 3, 72, 268.3434448242188
0, 3, 73, 306.4479370117188
0, 3, 74, 293.2039184570312
0, 3, 75, 291.3973693847656
0, 3, 76, 305.5450744628906
0, 3, 77, 313.7059936523438
0, 3, 78, 303.8233947753906
0, 3, 79, 282.5014953613281
0, 3, 80, 290.9375305175781
0, 3, 81, 314.2782287597656
0, 3, 82, 318.1816101074219
0, 3, 83, 302.1786499023438
0, 3, 84, 311.0932312011719
0, 3, 85, 295.8468322753906
0, 3, 86, 301.5823669433594
0, 3, 87, 298.1860961914062
0, 3, 88, 298.9014892578125
0, 3, 89, 295.495361328125
0, 3, 90, 276.416015625
0, 3, 91, 285.671875
0, 3, 92, 304.3388061523438
0, 3, 93, 313.4993896484375
0, 3, 94, 298.2246704101562
0, 3, 95, 334.6533203125
0, 3, 96, 293.3463745117188
0, 3, 97, 286.1861572265625
0, 3, 98, 277.9368286132812
0, 3, 99, 262.1787719726562
0, 3, 100, 283.3043518066406
0, 3, 101, 296.7591247558594
0, 3, 102, 274.7696838378906
0, 3, 103, 320.8583679199219
0, 3, 104, 309.5895690917969
0, 3, 105, 287.2388000488281
0, 3, 106, 301.2273254394531
0, 3, 107, 284.9100646972656
0, 3, 108, 167.6695861816406
0, 3, 109, 55.53725051879883
0, 3, 110, 16.63875961303711
0, 3, 111, 12.75301742553711
0, 3, 112, 14.60697460174561
0, 3, 113, 6.345564365386963
0, 3, 114, 9.913074493408203
0, 3, 115, 7.699979782104492
0, 3, 116, 7.205204010009766
0, 3, 117, 11.84073162078857
0, 3, 118, 9.086700439453125
0, 3, 119, 6.547894954681396
0, 3, 120, 7.075559139251709
0, 3, 121, 3.843003749847412
0, 3, 122, 1.999316930770874
0, 3, 123, 5.058409690856934
0, 3, 124, 2.711765050888062
0, 3, 125, 5.978256702423096
0, 3, 126, 4.13523530960083
0, 3, 127, 2.45259690284729
0, 4, 0, 2.705465316772461
0, 4, 1, 4.248087406158447
0, 4, 2, 3.303236246109009
0, 4, 3, 1.850426554679871
0, 4, 4, 7.597146511077881
0, 4, 5, 8.292778968811035
0, 4, 6, 6.047966480255127
0, 4, 7, 4.930764675140381
0, 4, 8, 4.773743152618408
0, 4, 9, 5.536896228790283
0, 4, 10, 6.925520420074463
0, 4, 11, 5.131700992584229
0, 4, 12, 7.875946521759033
0, 4, 13, 7.93502140045166
0, 4, 14, 13.21511745452881
0, 4, 15, 11.00967502593994
0, 4, 16, 13.54045104980469
0, 4, 17, 19.2327709197998
0, 4, 18, 92.04454040527344
0, 4, 19, 225.1688232421875
0, 4, 20, 286.2402648925781
0, 4, 21, 271.5924377441406
0, 4, 22, 304.5081787109375
0, 4, 23, 267.3477783203125
0, 4, 24, 288.6751098632812
0, 4, 25, 271.9941711425781
0, 4, 26, 294.736572265625
0, 4, 27, 282.1634216308594
0, 4, 28, 306.8477783203125
0, 4, 29, 323.0401916503906
0, 4, 30, 309.8904113769531
0, 4, 31, 304.6112670898438
0, 4, 32, 281.6478881835938
0, 4, 33, 296.1817016601562
0, 4, 34, 295.5155944824219
0, 4, 35, 311.2460632324219
0, 4, 36, 294.4701232910156
0, 4, 37, 287.9396057128906
0, 4, 38, 298.4918518066406
0, 4, 39, 293.1462097167969
0, 4, 40, 302.5376281738281
0, 4, 41, 312.2847900390625
0, 4, 42, 329.9887084960938
0, 4, 43, 295.6200866699219
0, 4, 44, 320.3799133300781
0, 4, 45, 323.9456787109375
0, 4, 46, 304.0953369140625
0, 4, 47, 292.8390808105469
0, 4, 48, 295.9589233398438
0, 4, 49, 278.0323181152344
0, 4, 50, 295.7908630371094
0, 4, 51, 316.6459655761719
0, 4, 52, 327.067626953125
0, 4, 53, 304.2334899902344
0, 4, 54, 287.8843994140625
0, 4, 55, 314.1213073730469
0, 4, 56, 285.9854431152344
0, 4, 57, 310.6574401855469
0, 4, 58, 295.7690124511719
0, 4, 59, 308.2923889160156
0, 4, 60, 301.1158142089844
0, 4, 61, 315.5941467285156
0, 4, 62, 308.6681518554688
0, 4, 63, 299.332275390625
0, 4, 64, 329.3636169433594
0, 4, 65, 317.8913879394531
0, 4, 66, 293.4702758789062
0, 4, 67, 285.1969604492188
0, 4, 68, 312.0282287597656
0, 4, 69, 275.8210754394531
0, 4, 70, 299.9091186523438
0, 4, 71, 321.6891784667969
0, 4, 72, 335.2423706054688
0, 4, 73, 300.9044494628906
0, 4, 74, 292.2745971679688
0, 4, 75, 290.2771606445312
0, 4, 76, 274.5719604492188
0, 4, 77, 277.6375427246094
0, 4, 78, 308.5008850097656
0, 4, 79, 317.638671875
0, 4, 80, 316.2994384765625
0, 4, 81, 314.0644226074219
0, 4, 82, 297.4867553710938
0, 4, 83, 299.7128295898438
0, 4, 84, 294.0707397460938
0, 4, 85, 297.2821350097656
0, 4, 86, 298.6529235839844
0, 4, 87, 286.3957824707031
0, 4, 88, 307.9590148925781
0, 4, 89, 295.6025390625
0, 4, 90, 332.9460144042969
0, 4, 91, 301.2929992675781
0, 4, 92, 290.5168151855469
0, 4, 93, 297.6535949707031
0, 4, 94, 291.9015502929688
0, 4, 95, 287.6272277832031
0, 4, 96, 324.1213073730469
0, 4, 97, 273.6986083984375
0, 4, 98, 326.9582214355469
0, 4, 99, 313.6981506347656
0, 4, 100, 300.9625244140625
0, 4, 101, 256.94482421875
0, 4, 102, 295.84912109375
0, 4, 103, 318.6004943847656
0, 4, 104, 283.7994689941406
0, 4, 105, 310.1510009765625
0, 4, 106, 288.5549621582031
0, 4, 107, 296.0833129882812
0, 4, 108, 225.8703308105469
0, 4, 109, 79.27536010742188
0, 4, 110, 17.04059028625488
0, 4, 111, 15.91760540008545
0, 4, 112, 7.852851390838623
0, 4, 113, 9.40788745880127
0, 4, 114, 11.82384777069092
0, 4, 115, 12.40471363067627
0, 4, 116, 6.762901306152344
0, 4, 117, 5.974077701568604
0, 4, 118, 8.714315414428711
0, 4, 119, 9.842109680175781
0, 4, 120, 6.609270572662354
0, 4, 121, 6.024349212646484
0, 4, 122, 3.99996018409729
0, 4, 123, 5.968496322631836
0, 4, 124, 8.130927085876465
0, 4, 125, 8.404385566711426
0, 4, 126, 6.521431446075439
0, 4, 127, 3.60213565826416
0, 5, 0, 3.278885126113892
0, 5, 1, 2.813287496566772
0, 5, 2, 3.916792154312134
0, 5, 3, 3.415502309799194
0, 5, 4, 4.486795902252197
0, 5, 5, 8.341300010681152
0, 5, 6, 7.158797264099121
0, 5, 7, 4.883257865905762
0, 5, 8, 5.466443538665771
0, 5, 9, 4.971928596496582
0, 5, 10, 7.369626522064209
0, 5, 11, 8.72202205657959
0, 5, 12, 6.990758419036865
0, 5, 13, 4.591936588287354
0, 5, 14, 12.25748825073242
0, 5, 15, 18.68938064575195
0, 5, 16, 14.16915225982666
0, 5, 17, 28.57251930236816
0, 5, 18, 135.6432952880859
0, 5, 19, 287.2333679199219
0, 5, 20, 308.6539306640625
0, 5, 21, 317.0697937011719
0, 5, 22, 276.7073364257812
0, 5, 23, 310.261474609375
0, 5, 24, 301.9955749511719
0, 5, 25, 290.5779724121094
0, 5, 26, 294.4771423339844
0, 5, 27, 320.1222534179688
0, 5, 28, 303.490234375
0, 5, 29, 298.9936218261719
0, 5, 30, 322.2834167480469
0, 5, 31, 288.047607421875
0, 5, 32, 303.3551940917969
0, 5, 33, 304.7998962402344
0, 5, 34, 295.3866882324219
0, 5, 35, 308.6452331542969
0, 5, 36, 270.50537109375
0, 5, 37, 283.576904296875
0, 5, 38, 291.9010009765625
0, 5, 39, 313.1581420898438
0, 5, 40, 307.3323059082031
0, 5, 41, 273.3568420410156
0, 5, 42, 305.26953125
0, 5, 43, 311.3683166503906
0, 5, 44, 293.8714599609375
0, 5, 45, 301.1288146972656
0, 5, 46, 265.3341369628906
0, 5, 47, 280.3255310058594
0, 5, 48, 293.7326965332031
0, 5, 49, 287.1217041015625
0, 5, 50, 296.0606994628906
0, 5, 51, 279.57763671875
0, 5, 52, 268.5363159179688
0, 5, 53, 284.6237182617188
0, 5, 54, 292.040771484375
0, 5, 55, 345.5801696777344
0, 5, 56, 304.7103881835938
0, 5, 57, 305.4290161132812
0, 5, 58, 312.7711791992188
0, 5, 59, 304.9375610351562
0, 5, 60, 307.848876953125
0, 5, 61, 281.1452331542969
0, 5, 62, 327.07958984375
0, 5, 63, 292.4202880859375
0, 5, 64, 322.4870910644531
0, 5, 65, 306.6743774414062
0, 5, 66, 327.0879211425781
0, 5, 67, 312.7945251464844
0, 5, 68, 312.0425720214844
0, 5, 69, 312.3429260253906
0, 5, 70, 304.80419921875
0, 5, 71, 272.203369140625
0, 5, 72, 312.6882019042969
0, 5, 73, 303.1661682128906
0, 5, 74, 295.5160827636719
0, 5, 75, 293.6090087890625
0, 5, 76, 283.99072265625
0, 5, 77, 297.4441833496094
0, 5, 78, 317.1034851074219
0, 5, 79, 306.30859375
0, 5, 80, 295.5072937011719
0, 5, 81, 327.3412170410156
0, 5, 82, 324.5469360351562
0, 5, 83, 282.1372375488281
0, 5, 84, 303.6837158203125
0, 5, 85, 272.2892456054688
0, 5, 86, 326.8076171875
0, 5, 87, 284.6576232910156
0, 5, 88, 313.89013671875
0, 5, 89, 304.8295593261719
0, 5, 90, 314.0355529785156
0, 5, 91, 313.7428588867188
0, 5, 92, 296.37939453125
0, 5, 93, 324.8083190917969
0, 5, 94, 306.7608337402344
0, 5, 95, 295.4778747558594
0, 5, 96, 296.244140625
0, 5, 97, 295.3045959472656
0, 5, 98, 318.0542297363281
0, 5, 99, 304.1129455566406
0, 5, 100, 291.7041015625
0, 5, 101, 304.2791137695312
0, 5, 102, 291.695068359375
0, 5, 103, 313.4959716796875
0, 5, 104, 303.0453796386719
0, 5, 105, 290.3705444335938
0, 5, 106, 282.7066650390625
0, 5, 107, 291.1514892578125
0, 5, 108, 269.5566711425781
0, 5, 109, 156.3335723876953
0, 5, 110, 39.42720031738281
0, 5, 111, 20.14881134033203
0, 5, 112, 19.77737045288086
0, 5, 113, 13.69600009918213
0, 5, 114, 13.08493137359619
0, 5, 115, 6.53684663772583
0, 5, 116, 6.725341796875
0, 5, 117, 5.926664352416992
0, 5, 118, 12.52472877502441
0, 5, 119, 6.336194038391113
0, 5, 120, 5.576286792755127
0, 5, 121, 6.204004764556885
0, 5, 122, 6.20128059387207
0, 5, 123, 4.176127910614014
0, 5, 124, 7.093609809875488
0, 5, 125, 5.392224311828613
0, 5, 126, 5.751973152160645
0, 5, 127, 3.499323844909668
0, 6, 0, 6.628654956817627
0, 6, 1, 2.261758804321289
0, 6, 2, 4.973795413970947
0, 6, 3, 7.351239681243896
0, 6, 4, 4.100334644317627
0, 6, 5, 6.739526748657227
0, 6, 6, 9.101334571838379
0, 6, 7, 4.720977783203125
0, 6, 8, 6.165372848510742
0, 6, 9, 8.094010353088379
0, 6, 10, 8.179091453552246
0, 6, 11, 9.091832160949707
0, 6, 12, 8.934243202209473
0, 6, 13, 14.08598899841309
0, 6, 14, 8.99028205871582
0, 6, 15, 15.54322624206543
0, 6, 16, 29.21761894226074
0, 6, 17, 53.92507171630859
0, 6, 18, 172.5102233886719
0, 6, 19, 275.9324645996094
0, 6, 20, 291.2681884765625
0, 6, 21, 313.2470703125
0, 6, 22, 320.3422546386719
0, 6, 23, 304.3141479492188
0, 6, 24, 315.3536376953125
0, 6, 25, 315.6517639160156
0, 6, 26, 320.7673034667969
0, 6, 27, 332.3655090332031
0, 6, 28, 297.1234130859375
0, 6, 29, 330.2580261230469
0, 6, 30, 280.6434631347656
0, 6, 31, 286.8760375976562
0, 6, 32, 339.4183959960938
0, 6, 33, 300.2897644042969
0, 6, 34, 341.7173156738281
0, 6, 35, 320.2197265625
0, 6, 36, 273.4817199707031
0, 6, 37, 288.2476196289062
0, 6, 38, 311.89208984375
0, 6, 39, 297.6083374023438
0, 6, 40, 284.3372192382812
0, 6, 41, 297.580810546875
0, 6, 42, 304.6921081542969
0, 6, 43, 287.9686279296875
0, 6, 44, 280.6628723144531
0, 6, 45, 319.9907531738281
0, 6, 46, 301.5030517578125
0, 6, 47, 332.6334228515625
0, 6, 48, 292.6100158691406
0, 6, 49, 313.045166015625
0, 6, 50, 329.3016052246094
0, 6, 51, 310.68603515625
0, 6, 52, 321.3260803222656
0, 6, 53, 328.7819519042969
0, 6, 54, 303.4008178710938
0, 6, 55, 305.2816772460938
0, 6, 56, 296.2564697265625
0, 6, 57, 314.7643737792969
0, 6, 58, 261.86328125
0, 6, 59, 303.0321960449219
0, 6, 60, 312.3607788085938
0, 6, 61, 270.1617736816406
0, 6, 62, 334.6115417480469
0, 6, 63, 322.59765625
0, 6, 64, 292.947509765625
0, 6, 65, 285.0821838378906
0, 6, 66, 303.63427734375
0, 6, 67, 309.9416198730469
0, 6, 68, 293.9969787597656
0, 6, 69, 278.2418212890625
0, 6, 70, 273.9830627441406
0, 6, 71, 288.5084228515625
0, 6, 72, 309.2575073242188
0, 6, 73, 291.1669921875
0, 6, 74, 331.4974975585938
0, 6, 75, 343.3277893066406
0, 6, 76, 297.7313842773438
0, 6, 77, 289.4839172363281
0, 6, 78, 278.5108947753906
0, 6, 79, 292.8866271972656
0, 6, 80, 298.2939758300781
0, 6, 81, 315.6660461425781
0, 6, 82, 321.20361328125
0, 6, 83, 320.0277099609375
0, 6, 84, 295.634521484375
0, 6, 85, 301.9514770507812
0, 6, 86, 331.3789367675781
0, 6, 87, 293.4098815917969
0, 6, 88, 305.082275390625
0, 6, 89, 307.23974609375
0, 6, 90, 301.85400390625
0, 6, 91, 312.0167846679688
0, 6, 92, 284.2755737304688
0, 6, 93, 297.4154052734375
0, 6, 94, 271.4450988769531
0, 6, 95, 300.77587890625
0, 6, 96, 348.0900573730469
0, 6, 97, 309.1218566894531
0, 6, 98, 302.1202087402344
0, 6, 99, 272.3910827636719
0, 6, 100, 310.7862548828125
0, 6, 101, 293.9752502441406
0, 6, 102, 307.174560546875
0, 6, 103, 307.0741577148438
0, 6, 104, 292.2824096679688
0, 6, 105, 300.4695434570312
0, 6, 106, 307.6155090332031
0, 6, 107, 305.1752014160156
0, 6, 108, 267.0878601074219
0, 6, 109, 187.8066864013672
0, 6, 110, 56.09857177734375
0, 6, 111, 21.18071174621582
0, 6, 112, 13.73974704742432
0, 6, 113, 11.58009243011475
0, 6, 114, 12.11670589447021
0, 6, 115, 11.52568435668945
0, 6, 116, 11.23587036132812
0, 6, 117, 7.593202114105225
0, 6, 118, 10.84428691864014
0, 6, 119, 10.57582664489746
0, 6, 120, 6.115380764007568
0, 6, 121, 5.170139312744141
0, 6, 122, 7.86083984375
0, 6, 123, 3.859441041946411
0, 6, 124, 8.005687713623047
0, 6, 125, 6.666628837585449
0, 6, 126, 2.618223667144775
0, 6, 127, 6.709278106689453
0, 7, 0, 3.424377679824829
0, 7, 1, 2.808647394180298
0, 7, 2, 6.394865036010742
0, 7, 3, 4.02664852142334
0, 7, 4, 5.328264236450195
0, 7, 5, 3.52851128578186
0, 7, 6, 8.286457061767578
0, 7, 7, 4.62012767791748
0, 7, 8, 5.675349235534668
0, 7, 9, 7.426808834075928
0, 7, 10, 8.345041275024414
0, 7, 11, 9.615530967712402
0, 7, 12, 12.90984916687012
0, 7, 13, 12.40782165527344
0, 7, 14, 12.58815860748291
0, 7, 15, 15.83164405822754
0, 7, 16, 26.63673782348633
0, 7, 17, 98.29563903808594
0, 7, 18, 218.0758056640625
0, 7, 19, 290.8750915527344
0, 7, 20, 298.2305908203125
0, 7, 21, 277.7519836425781
0, 7, 22, 298.2087097167969
0, 7, 23, 290.0333557128906
0, 7, 24, 314.5495300292969
0, 7, 25, 325.0746459960938
0, 7, 26, 276.0882568359375
0, 7, 27, 297.2737426757812
0, 7, 28, 326.4712219238281
0, 7, 29, 320.126708984375
0, 7, 30, 302.2514038085938
0, 7, 31, 276.4178466796875
0, 7, 32, 305.289794921875
0, 7, 33, 260.1600036621094
0, 7, 34, 297.1245422363281
0, 7, 35, 319.8568115234375
0, 7, 36, 333.510009765625
0, 7, 37, 324.6459350585938
0, 7, 38, 297.9005126953125
0, 7, 39, 307.5370178222656
0, 7, 40, 290.7392272949219
0, 7, 41, 269.2249145507812
0, 7, 42, 299.7349548339844
0, 7, 43, 276.4176025390625
0, 7, 44, 304.7099304199219
0, 7, 45, 293.778076171875
0, 7, 46, 281.5443420410156
0, 7, 47, 329.8613586425781
0, 7, 48, 287.7740783691406
0, 7, 49, 301.6300964355469
0, 7, 50, 321.4996337890625
0, 7, 51, 298.1593627929688
0, 7, 52, 325.8370971679688
0, 7, 53, 308.467529296875
0, 7, 54, 324.9779663085938
0, 7, 55, 305.9379272460938
0, 7, 56, 280.5938415527344
0, 7, 57, 282.2135925292969
0, 7, 58, 296.4653015136719
0, 7, 59, 293.20751953125
0, 7, 60, 321.612060546875
0, 7, 61, 277.6721496582031
0, 7, 62, 296.6173095703125
0, 7, 63, 291.9522705078125
0, 7, 64, 305.2494506835938
0, 7, 65, 330.2067565917969
0, 7, 66, 318.2886657714844
0, 7, 67, 302.2358703613281
0, 7, 68, 280.9086608886719
0, 7, 69, 297.6861572265625
0, 7, 70, 301.3051147460938
0, 7, 71, 309.904052734375
0, 7, 72, 283.5129699707031
0, 7, 73, 294.3524475097656
0, 7, 74, 346.2843017578125
0, 7, 75, 321.2577819824219
0, 7, 76, 323.2447204589844
0, 7, 77, 281.7080078125
0, 7, 78, 299.6188049316406
0, 7, 79, 296.83056640625
0, 7, 80, 310.5137023925781
0, 7, 81, 319.5943298339844
0, 7, 82, 329.7709045410156
0, 7, 83, 318.383056640625
0, 7, 84, 308.9194641113281
0, 7, 85, 271.7409973144531
0, 7, 86, 310.4351501464844
0, 7, 87, 311.3525695800781
0, 7, 88, 306.4677734375
0, 7, 89, 295.4152526855469
0, 7, 90, 307.7326354980469
0, 7, 91, 314.4339904785156
0, 7, 92, 290.3857421875
0, 7, 93, 307.8943786621094
0, 7, 94, 274.1453857421875
0, 7, 95, 294.8583374023438
0, 7, 96, 331.7456970214844
0, 7, 97, 294.9515686035156
0, 7, 98, 290.2411804199219
0, 7, 99, 313.9866638183594
0, 7, 100, 286.8302612304688
0, 7, 101, 274.4894409179688
0, 7, 102, 289.7030639648438
0, 7, 103, 292.6417541503906
0, 7, 104, 276.2177734375
0, 7, 105, 305.8580017089844
0, 7, 106, 318.4464721679688
0, 7, 107, 300.3271179199219
0, 7, 108, 273.5220031738281
0, 7, 109, 236.889892578125
0, 7, 110, 95.48751831054688
0, 7, 111, 23.72794723510742
0, 7, 112, 12.84151077270508
0, 7, 113, 14.32556819915771
0, 7, 114, 15.11914539337158
0, 7, 115, 11.47197246551514
0, 7, 116, 9.239155769348145
0, 7, 117, 5.870497703552246
0, 7, 118, 7.750266075134277
0, 7, 119, 4.542837619781494
0, 7, 120, 4.817976951599121
0, 7, 121, 6.234442234039307
0, 7, 122, 5.362045288085938
0, 7, 123, 6.386244773864746
0, 7, 124, 2.327181577682495
0, 7, 125, 6.974635601043701
0, 7, 126, 10.98317623138428
0, 7, 127, 4.498571395874023
0, 8, 0, 6.939342975616455
0, 8, 1, 4.064716339111328
0, 8, 2, 2.800711631774902
0, 8, 3, 4.158018112182617
0, 8, 4, 4.119144439697266
0, 8, 5, 3.895734786987305
0, 8, 6, 4.41252326965332
0, 8, 7, 4.622390747070312
0, 8, 8, 7.635892868041992
0, 8, 9, 5.547745227813721
0, 8, 10, 10.4711446762085
0, 8, 11, 13.24798202514648
0, 8, 12, 12.57792854309082
0, 8, 13, 13.5607328414917
0, 8, 14, 14.12720108032227
0, 8, 15, 17.58710098266602
0, 8, 16, 31.80646896362305
0, 8, 17, 134.0639038085938
0, 8, 18, 242.0649261474609
0, 8, 19, 297.215087890625
0, 8, 20, 287.0919799804688
0, 8, 21, 306.7714233398438
0, 8, 22, 294.5282592773438
0, 8, 23, 276.5733947753906
0, 8, 24, 269.4667663574219
0, 8, 25, 275.6326293945312
0, 8, 26, 307.8948974609375
0, 8, 27, 308.1112060546875
0, 8, 28, 306.9551086425781
0, 8, 29, 320.6707763671875
0, 8, 30, 314.9004516601562
0, 8, 31, 303.8616943359375
0, 8, 32, 279.2655639648438
0, 8, 33, 294.0402221679688
0, 8, 34, 290.0666198730469
0, 8, 35, 279.9703063964844
0, 8, 36, 315.2447509765625
0, 8, 37, 340.325927734375
0, 8, 38, 331.0276184082031
0, 8, 39, 281.062255859375
0, 8, 40, 305.1539611816406
0, 8, 41, 293.3647766113281
