# TOPAS Version: 3.1.p3
# Parameter File: batch_inserts_320.txt
# Results for scorer Readout_Adipose
# Scored in component: MyBox
# X in 1 bin  of 0.75 cm
# Y in 512 bins of 0.0783984 cm
# Z in 128 bins of 0.078125 cm
# EnergyDeposit ( MeV ) : Sum   
0, 0, 0, 2.978885650634766
0, 0, 1, 1.620751619338989
0, 0, 2, 4.329186916351318
0, 0, 3, 1.063001036643982
0, 0, 4, 2.765889644622803
0, 0, 5, 2.829641819000244
0, 0, 6, 8.175886154174805
0, 0, 7, 9.077103614807129
0, 0, 8, 3.172414302825928
0, 0, 9, 3.409215211868286
0, 0, 10, 7.246075630187988
0, 0, 11, 4.336447715759277
0, 0, 12, 3.92547607421875
0, 0, 13, 5.852295398712158
0, 0, 14, 7.627239227294922
0, 0, 15, 9.295103073120117
0, 0, 16, 9.088784217834473
0, 0, 17, 8.157280921936035
0, 0, 18, 12.77264881134033
0, 0, 19, 43.12071228027344
0, 0, 20, 139.8372802734375
0, 0, 21, 224.1541442871094
0, 0, 22, 249.2152862548828
0, 0, 23, 256.435302734375
0, 0, 24, 250.9272613525391
0, 0, 25, 259.0847778320312
0, 0, 26, 233.8229064941406
0, 0, 27, 236.9354095458984
0, 0, 28, 272.7879028320312
0, 0, 29, 252.4321136474609
0, 0, 30, 229.2118225097656
0, 0, 31, 243.9042663574219
0, 0, 32, 263.42626953125
0, 0, 33, 260.4207763671875
0, 0, 34, 287.3883361816406
0, 0, 35, 266.64306640625
0, 0, 36, 246.0162963867188
0, 0, 37, 253.5212249755859
0, 0, 38, 267.8639221191406
0, 0, 39, 229.2276611328125
0, 0, 40, 240.8290100097656
0, 0, 41, 267.6327209472656
0, 0, 42, 229.8257141113281
0, 0, 43, 259.8141174316406
0, 0, 44, 251.1470489501953
0, 0, 45, 252.9096527099609
0, 0, 46, 245.2068786621094
0, 0, 47, 251.5189514160156
0, 0, 48, 268.1822509765625
0, 0, 49, 272.3409729003906
0, 0, 50, 251.3158111572266
0, 0, 51, 252.6886444091797
0, 0, 52, 272.7173461914062
0, 0, 53, 291.4112548828125
0, 0, 54, 242.5535736083984
0, 0, 55, 239.7266082763672
0, 0, 56, 277.7989807128906
0, 0, 57, 262.6990051269531
0, 0, 58, 245.9352264404297
0, 0, 59, 272.1231384277344
0, 0, 60, 237.017822265625
0, 0, 61, 245.4549713134766
0, 0, 62, 256.6351928710938
0, 0, 63, 264.8742980957031
0, 0, 64, 255.1508636474609
0, 0, 65, 260.2463684082031
0, 0, 66, 276.2397155761719
0, 0, 67, 246.4474792480469
0, 0, 68, 260.0341186523438
0, 0, 69, 263.2971496582031
0, 0, 70, 271.588623046875
0, 0, 71, 237.7646636962891
0, 0, 72, 252.2422485351562
0, 0, 73, 257.6858520507812
0, 0, 74, 252.2246704101562
0, 0, 75, 240.7919006347656
0, 0, 76, 228.7023315429688
0, 0, 77, 261.2278747558594
0, 0, 78, 255.1286163330078
0, 0, 79, 279.9521179199219
0, 0, 80, 217.3865966796875
0, 0, 81, 266.3270263671875
0, 0, 82, 257.3200073242188
0, 0, 83, 243.2218017578125
0, 0, 84, 269.1756896972656
0, 0, 85, 234.1528472900391
0, 0, 86, 254.376708984375
0, 0, 87, 249.4443511962891
0, 0, 88, 260.1112365722656
0, 0, 89, 283.2892150878906
0, 0, 90, 244.5498504638672
0, 0, 91, 279.5360412597656
0, 0, 92, 252.2965850830078
0, 0, 93, 250.1194763183594
0, 0, 94, 248.5456237792969
0, 0, 95, 247.8905944824219
0, 0, 96, 274.7239990234375
0, 0, 97, 273.5426635742188
0, 0, 98, 272.7427368164062
0, 0, 99, 258.7067565917969
0, 0, 100, 259.8670654296875
0, 0, 101, 227.8436126708984
0, 0, 102, 231.5154418945312
0, 0, 103, 269.152587890625
0, 0, 104, 254.1127166748047
0, 0, 105, 250.9395294189453
0, 0, 106, 248.1920318603516
0, 0, 107, 152.6028747558594
0, 0, 108, 38.44291687011719
0, 0, 109, 11.96278476715088
0, 0, 110, 12.20490837097168
0, 0, 111, 10.5370512008667
0, 0, 112, 7.53384256362915
0, 0, 113, 4.764270305633545
0, 0, 114, 5.347898006439209
0, 0, 115, 4.627913951873779
0, 0, 116, 5.723684787750244
0, 0, 117, 10.49129390716553
0, 0, 118, 6.725042819976807
0, 0, 119, 3.742992639541626
0, 0, 120, 4.410877704620361
0, 0, 121, 4.118740081787109
0, 0, 122, 5.113521099090576
0, 0, 123, 2.496638298034668
0, 0, 124, 4.422206878662109
0, 0, 125, 1.558944225311279
0, 0, 126, 4.610677719116211
0, 0, 127, 3.563489675521851
0, 1, 0, 7.698775768280029
0, 1, 1, 3.38031530380249
0, 1, 2, 3.252544641494751
0, 1, 3, 2.813331604003906
0, 1, 4, 4.441996574401855
0, 1, 5, 2.177609920501709
0, 1, 6, 4.219753265380859
0, 1, 7, 2.585551023483276
0, 1, 8, 8.516200065612793
0, 1, 9, 4.287565231323242
0, 1, 10, 6.738034725189209
0, 1, 11, 10.40664768218994
0, 1, 12, 8.739391326904297
0, 1, 13, 8.910035133361816
0, 1, 14, 7.369298458099365
0, 1, 15, 7.963007926940918
0, 1, 16, 10.93586349487305
0, 1, 17, 14.15182685852051
0, 1, 18, 19.79012489318848
0, 1, 19, 68.95173645019531
0, 1, 20, 197.1628112792969
0, 1, 21, 253.6877136230469
0, 1, 22, 295.7551879882812
0, 1, 23, 287.4132690429688
0, 1, 24, 275.195556640625
0, 1, 25, 291.5712280273438
0, 1, 26, 266.203857421875
0, 1, 27, 305.4035949707031
0, 1, 28, 299.8710632324219
0, 1, 29, 298.6915893554688
0, 1, 30, 281.5957946777344
0, 1, 31, 293.1271057128906
0, 1, 32, 289.8774719238281
0, 1, 33, 295.6738891601562
0, 1, 34, 294.0486450195312
0, 1, 35, 278.70751953125
0, 1, 36, 306.3163146972656
0, 1, 37, 296.8797302246094
0, 1, 38, 281.1611022949219
0, 1, 39, 295.754150390625
0, 1, 40, 265.5815734863281
0, 1, 41, 284.7811279296875
0, 1, 42, 290.6954345703125
0, 1, 43, 333.3197326660156
0, 1, 44, 277.3184509277344
0, 1, 45, 291.4266662597656
0, 1, 46, 260.1214904785156
0, 1, 47, 314.0865173339844
0, 1, 48, 284.7206115722656
0, 1, 49, 302.04296875
0, 1, 50, 263.165283203125
0, 1, 51, 271.5123596191406
0, 1, 52, 296.3395690917969
0, 1, 53, 304.5640258789062
0, 1, 54, 274.9199523925781
0, 1, 55, 293.6604919433594
0, 1, 56, 279.7686767578125
0, 1, 57, 298.5116577148438
0, 1, 58, 311.9849853515625
0, 1, 59, 294.1272277832031
0, 1, 60, 298.4861145019531
0, 1, 61, 274.0883178710938
0, 1, 62, 306.4953308105469
0, 1, 63, 287.5098266601562
0, 1, 64, 287.7350463867188
0, 1, 65, 295.6945495605469
0, 1, 66, 294.4984130859375
0, 1, 67, 291.8240966796875
0, 1, 68, 277.5668640136719
0, 1, 69, 280.370361328125
0, 1, 70, 270.2931518554688
0, 1, 71, 273.5057067871094
0, 1, 72, 285.2557983398438
0, 1, 73, 306.8953552246094
0, 1, 74, 306.0701904296875
0, 1, 75, 293.3424072265625
0, 1, 76, 286.8474731445312
0, 1, 77, 288.7103271484375
0, 1, 78, 296.7883605957031
0, 1, 79, 301.3626098632812
0, 1, 80, 297.8230590820312
0, 1, 81, 299.8277893066406
0, 1, 82, 284.885986328125
0, 1, 83, 332.0059204101562
0, 1, 84, 309.0409545898438
0, 1, 85, 251.6210174560547
0, 1, 86, 295.4330749511719
0, 1, 87, 289.9476928710938
0, 1, 88, 298.6554565429688
0, 1, 89, 291.2606811523438
0, 1, 90, 269.5041198730469
0, 1, 91, 319.23046875
0, 1, 92, 289.8788757324219
0, 1, 93, 288.2253112792969
0, 1, 94, 306.2506713867188
0, 1, 95, 283.5696411132812
0, 1, 96, 282.2271728515625
0, 1, 97, 300.1724853515625
0, 1, 98, 278.6011352539062
0, 1, 99, 266.9901428222656
0, 1, 100, 277.4882507324219
0, 1, 101, 283.820068359375
0, 1, 102, 277.5296020507812
0, 1, 103, 280.1865844726562
0, 1, 104, 307.21435546875
0, 1, 105, 301.1508178710938
0, 1, 106, 260.987060546875
0, 1, 107, 193.2730712890625
0, 1, 108, 81.76945495605469
0, 1, 109, 24.68725776672363
0, 1, 110, 11.39029407501221
0, 1, 111, 10.3922758102417
0, 1, 112, 13.8410587310791
0, 1, 113, 6.776555061340332
0, 1, 114, 7.075736522674561
0, 1, 115, 7.115001201629639
0, 1, 116, 11.16792774200439
0, 1, 117, 6.072146892547607
0, 1, 118, 5.72566556930542
0, 1, 119, 9.785243034362793
0, 1, 120, 4.832176208496094
0, 1, 121, 3.725087642669678
0, 1, 122, 2.911718368530273
0, 1, 123, 6.654569149017334
0, 1, 124, 8.967795372009277
0, 1, 125, 5.068831443786621
0, 1, 126, 3.123028755187988
0, 1, 127, 4.640360355377197
0, 2, 0, 3.79299783706665
0, 2, 1, 1.46907103061676
0, 2, 2, 5.529710292816162
0, 2, 3, 5.10669994354248
0, 2, 4, 4.161474227905273
0, 2, 5, 2.042322158813477
0, 2, 6, 3.695021867752075
0, 2, 7, 4.511122226715088
0, 2, 8, 4.534982204437256
0, 2, 9, 5.183616161346436
0, 2, 10, 9.385599136352539
0, 2, 11, 8.396634101867676
0, 2, 12, 6.416574478149414
0, 2, 13, 10.47597122192383
0, 2, 14, 11.36612415313721
0, 2, 15, 8.021982192993164
0, 2, 16, 9.16127872467041
0, 2, 17, 16.59958076477051
0, 2, 18, 29.45650863647461
0, 2, 19, 119.4831314086914
0, 2, 20, 245.7436981201172
0, 2, 21, 270.4049072265625
0, 2, 22, 316.3233642578125
0, 2, 23, 301.2058715820312
0, 2, 24, 288.9799194335938
0, 2, 25, 303.5032043457031
0, 2, 26, 292.3333740234375
0, 2, 27, 276.4525451660156
0, 2, 28, 272.5815124511719
0, 2, 29, 273.1429443359375
0, 2, 30, 291.6852416992188
0, 2, 31, 276.8091735839844
0, 2, 32, 293.8799133300781
0, 2, 33, 283.4368286132812
0, 2, 34, 333.22216796875
0, 2, 35, 289.9445190429688
0, 2, 36, 305.0796203613281
0, 2, 37, 315.9549255371094
0, 2, 38, 311.4885864257812
0, 2, 39, 266.4610900878906
0, 2, 40, 309.5791625976562
0, 2, 41, 292.5826110839844
0, 2, 42, 303.0826416015625
0, 2, 43, 314.4496765136719
0, 2, 44, 310.6393432617188
0, 2, 45, 324.7111206054688
0, 2, 46, 287.3591613769531
0, 2, 47, 303.3575744628906
0, 2, 48, 279.7894592285156
0, 2, 49, 277.8295593261719
0, 2, 50, 294.2630920410156
0, 2, 51, 284.36474609375
0, 2, 52, 273.6380310058594
0, 2, 53, 288.6315307617188
0, 2, 54, 279.6733093261719
0, 2, 55, 275.3558654785156
0, 2, 56, 302.7896423339844
0, 2, 57, 292.1651306152344
0, 2, 58, 301.2115478515625
0, 2, 59, 287.8353271484375
0, 2, 60, 317.3004150390625
0, 2, 61, 301.8509826660156
0, 2, 62, 312.7682189941406
0, 2, 63, 303.3042602539062
0, 2, 64, 297.1028442382812
0, 2, 65, 312.6955261230469
0, 2, 66, 278.8009033203125
0, 2, 67, 289.8164672851562
0, 2, 68, 296.3095397949219
0, 2, 69, 312.2228698730469
0, 2, 70, 335.6668090820312
0, 2, 71, 283.7640991210938
0, 2, 72, 304.362060546875
0, 2, 73, 310.4671325683594
0, 2, 74, 284.4432983398438
0, 2, 75, 306.9795837402344
0, 2, 76, 286.4278564453125
0, 2, 77, 297.8548583984375
0, 2, 78, 312.5373840332031
0, 2, 79, 307.8837585449219
0, 2, 80, 296.4480285644531
0, 2, 81, 283.911376953125
0, 2, 82, 318.8446350097656
0, 2, 83, 313.9129028320312
0, 2, 84, 288.7510681152344
0, 2, 85, 281.6190795898438
0, 2, 86, 322.0298767089844
0, 2, 87, 286.685791015625
0, 2, 88, 281.1875
0, 2, 89, 295.5739135742188
0, 2, 90, 295.9365539550781
0, 2, 91, 275.930908203125
0, 2, 92, 307.0409545898438
0, 2, 93, 316.132568359375
0, 2, 94, 290.7390441894531
0, 2, 95, 314.8072814941406
0, 2, 96, 315.0809020996094
0, 2, 97, 293.1149597167969
0, 2, 98, 294.2470703125
0, 2, 99, 273.564208984375
0, 2, 100, 306.19921875
0, 2, 101, 300.2955322265625
0, 2, 102, 297.552734375
0, 2, 103, 292.4622192382812
0, 2, 104, 293.8267517089844
0, 2, 105, 273.7409057617188
0, 2, 106, 296.9766235351562
0, 2, 107, 270.5331115722656
0, 2, 108, 116.1543502807617
0, 2, 109, 31.57049179077148
0, 2, 110, 9.523847579956055
0, 2, 111, 10.61818504333496
0, 2, 112, 7.301933288574219
0, 2, 113, 11.37049388885498
0, 2, 114, 9.027298927307129
0, 2, 115, 10.77783012390137
0, 2, 116, 8.68336009979248
0, 2, 117, 7.337636947631836
0, 2, 118, 4.502021312713623
0, 2, 119, 4.842869281768799
0, 2, 120, 5.971831798553467
0, 2, 121, 3.722911596298218
0, 2, 122, 4.620226383209229
0, 2, 123, 4.221573829650879
0, 2, 124, 3.590262651443481
0, 2, 125, 4.368746280670166
0, 2, 126, 2.210838079452515
0, 2, 127, 4.776684761047363
0, 3, 0, 5.124218463897705
0, 3, 1, 3.540963649749756
0, 3, 2, 4.053833484649658
0, 3, 3, 1.316653847694397
0, 3, 4, 5.697239875793457
0, 3, 5, 7.31548547744751
0, 3, 6, 6.631251335144043
0, 3, 7, 6.339278221130371
0, 3, 8, 7.607465267181396
0, 3, 9, 4.356807708740234
0, 3, 10, 8.106775283813477
0, 3, 11, 3.841838121414185
0, 3, 12, 8.742380142211914
0, 3, 13, 15.38584327697754
0, 3, 14, 12.05754470825195
0, 3, 15, 14.97127246856689
0, 3, 16, 10.7186336517334
0, 3, 17, 18.65280914306641
0, 3, 18, 51.70347595214844
0, 3, 19, 176.8744659423828
0, 3, 20, 270.6369018554688
0, 3, 21, 271.0648193359375
0, 3, 22, 281.4740600585938
0, 3, 23, 285.8631896972656
0, 3, 24, 284.9442138671875
0, 3, 25, 270.5385131835938
0, 3, 26, 303.8935852050781
0, 3, 27, 293.1386108398438
0, 3, 28, 281.2819519042969
0, 3, 29, 338.8665466308594
0, 3, 30, 317.7383728027344
0, 3, 31, 285.9828796386719
0, 3, 32, 305.8866882324219
0, 3, 33, 313.692138671875
0, 3, 34, 322.9740600585938
0, 3, 35, 306.6726379394531
0, 3, 36, 271.6172180175781
0, 3, 37, 314.822265625
0, 3, 38, 303.5086364746094
0, 3, 39, 291.0151977539062
0, 3, 40, 265.8064575195312
0, 3, 41, 301.5098266601562
0, 3, 42, 286.4856872558594
0, 3, 43, 305.2080383300781
0, 3, 44, 310.1683349609375
0, 3, 45, 291.2937622070312
0, 3, 46, 328.6326904296875
0, 3, 47, 298.9431457519531
0, 3, 48, 302.4019165039062
0, 3, 49, 275.2713317871094
0, 3, 50, 291.0459899902344
0, 3, 51, 276.9151916503906
0, 3, 52, 315.5592956542969
0, 3, 53, 287.9207153320312
0, 3, 54, 283.37939453125
0, 3, 55, 281.5396423339844
0, 3, 56, 297.1998901367188
0, 3, 57, 288.9134216308594
0, 3, 58, 308.9777221679688
0, 3, 59, 296.477294921875
0, 3, 60, 297.5068969726562
0, 3, 61, 263.3435668945312
0, 3, 62, 285.8604431152344
0, 3, 63, 305.4540405273438
0, 3, 64, 316.8194885253906
0, 3, 65, 309.1176147460938
0, 3, 66, 315.1438293457031
0, 3, 67, 318.1229858398438
0, 3, 68, 279.7185668945312
0, 3, 69, 286.8922424316406
0, 3, 70, 287.5581359863281
0, 3, 71, 300.7847900390625
0, 3, 72, 268.4567565917969
0, 3, 73, 306.8609008789062
0, 3, 74, 291.5390319824219
0, 3, 75, 288.1961059570312
0, 3, 76, 307.2852783203125
0, 3, 77, 317.0730895996094
0, 3, 78, 305.1488647460938
0, 3, 79, 282.2215576171875
0, 3, 80, 291.7359924316406
0, 3, 81, 313.9067993164062
0, 3, 82, 316.0481872558594
0, 3, 83, 300.3528747558594
0, 3, 84, 312.7470703125
0, 3, 85, 295.1620483398438
0, 3, 86, 303.5810546875
0, 3, 87, 296.3516235351562
0, 3, 88, 298.6941833496094
0, 3, 89, 298.0592041015625
0, 3, 90, 277.6631774902344
0, 3, 91, 284.0979614257812
0, 3, 92, 302.9484558105469
0, 3, 93, 312.2519836425781
0, 3, 94, 297.4275817871094
0, 3, 95, 337.1939392089844
0, 3, 96, 290.1228332519531
0, 3, 97, 283.1679382324219
0, 3, 98, 279.3815612792969
0, 3, 99, 263.5619201660156
0, 3, 100, 284.6123657226562
0, 3, 101, 297.1985473632812
0, 3, 102, 275.2131042480469
0, 3, 103, 320.77734375
0, 3, 104, 308.2025451660156
0, 3, 105, 288.6736755371094
0, 3, 106, 301.2343139648438
0, 3, 107, 280.7306213378906
0, 3, 108, 168.9504089355469
0, 3, 109, 57.42727661132812
0, 3, 110, 18.05180358886719
0, 3, 111, 13.94526481628418
0, 3, 112, 12.16980361938477
0, 3, 113, 6.683486938476562
0, 3, 114, 9.428189277648926
0, 3, 115, 9.084712982177734
0, 3, 116, 6.444561958312988
0, 3, 117, 6.934495449066162
0, 3, 118, 6.364562034606934
0, 3, 119, 5.79647159576416
0, 3, 120, 5.601475238800049
0, 3, 121, 3.873232841491699
0, 3, 122, 3.902665138244629
0, 3, 123, 5.012138843536377
0, 3, 124, 6.182464599609375
0, 3, 125, 5.137230396270752
0, 3, 126, 3.452906370162964
0, 3, 127, 1.859493494033813
0, 4, 0, 2.669034004211426
0, 4, 1, 5.400846481323242
0, 4, 2, 2.246323347091675
0, 4, 3, 1.534830927848816
0, 4, 4, 6.142817497253418
0, 4, 5, 9.000534057617188
0, 4, 6, 6.043580532073975
0, 4, 7, 8.258509635925293
0, 4, 8, 3.985008478164673
0, 4, 9, 5.64651346206665
0, 4, 10, 9.26264476776123
0, 4, 11, 5.633827686309814
0, 4, 12, 6.353231906890869
0, 4, 13, 7.475741863250732
0, 4, 14, 16.34162330627441
0, 4, 15, 8.589170455932617
0, 4, 16, 13.69527244567871
0, 4, 17, 18.52315521240234
0, 4, 18, 92.35686492919922
0, 4, 19, 221.7626495361328
0, 4, 20, 284.9389953613281
0, 4, 21, 274.3086853027344
0, 4, 22, 304.0419311523438
0, 4, 23, 269.0158996582031
0, 4, 24, 289.5718078613281
0, 4, 25, 273.4065246582031
0, 4, 26, 295.4008178710938
0, 4, 27, 284.50927734375
0, 4, 28, 307.0261535644531
0, 4, 29, 321.6141357421875
0, 4, 30, 309.6422424316406
0, 4, 31, 304.8733215332031
0, 4, 32, 281.291015625
0, 4, 33, 295.0140991210938
0, 4, 34, 295.5744323730469
0, 4, 35, 310.9886474609375
0, 4, 36, 293.7432250976562
0, 4, 37, 287.4316101074219
0, 4, 38, 297.9931640625
0, 4, 39, 294.4764709472656
0, 4, 40, 303.7345581054688
0, 4, 41, 311.882080078125
0, 4, 42, 329.1616516113281
0, 4, 43, 294.7743225097656
0, 4, 44, 323.0369567871094
0, 4, 45, 324.7021179199219
0, 4, 46, 306.3393249511719
0, 4, 47, 292.3053894042969
0, 4, 48, 297.7136535644531
0, 4, 49, 277.9938049316406
0, 4, 50, 297.5824279785156
0, 4, 51, 317.3851318359375
0, 4, 52, 328.5900268554688
0, 4, 53, 305.3697204589844
0, 4, 54, 287.3111572265625
0, 4, 55, 317.6525268554688
0, 4, 56, 286.8415832519531
0, 4, 57, 309.9304809570312
0, 4, 58, 298.1660766601562
0, 4, 59, 307.9773254394531
0, 4, 60, 304.5462646484375
0, 4, 61, 315.3671875
0, 4, 62, 308.7037963867188
0, 4, 63, 300.3876953125
0, 4, 64, 331.3758850097656
0, 4, 65, 314.9624328613281
0, 4, 66, 292.168701171875
0, 4, 67, 284.5791625976562
0, 4, 68, 309.31787109375
0, 4, 69, 276.6871643066406
0, 4, 70, 299.9443664550781
0, 4, 71, 322.1111755371094
0, 4, 72, 333.3203735351562
0, 4, 73, 301.2338256835938
0, 4, 74, 295.3962707519531
0, 4, 75, 288.8079223632812
0, 4, 76, 274.6024475097656
0, 4, 77, 280.8118286132812
0, 4, 78, 308.4570617675781
0, 4, 79, 319.2539672851562
0, 4, 80, 315.3111877441406
0, 4, 81, 311.7036437988281
0, 4, 82, 297.99658203125
0, 4, 83, 300.0818481445312
0, 4, 84, 294.0634155273438
0, 4, 85, 295.4076843261719
0, 4, 86, 298.9288024902344
0, 4, 87, 285.5821228027344
0, 4, 88, 305.8975524902344
0, 4, 89, 296.2888793945312
0, 4, 90, 333.926513671875
0, 4, 91, 300.9420776367188
0, 4, 92, 294.4938049316406
0, 4, 93, 296.2496948242188
0, 4, 94, 294.4295043945312
0, 4, 95, 290.3903198242188
0, 4, 96, 326.3443603515625
0, 4, 97, 275.3111572265625
0, 4, 98, 328.3400268554688
0, 4, 99, 314.7040100097656
0, 4, 100, 303.4220275878906
0, 4, 101, 257.0458068847656
0, 4, 102, 298.9826965332031
0, 4, 103, 317.200927734375
0, 4, 104, 283.1841430664062
0, 4, 105, 310.5863037109375
0, 4, 106, 285.5428771972656
0, 4, 107, 294.6863403320312
0, 4, 108, 225.8948364257812
0, 4, 109, 80.65509796142578
0, 4, 110, 16.9300537109375
0, 4, 111, 12.96024799346924
0, 4, 112, 8.748744964599609
0, 4, 113, 9.858174324035645
0, 4, 114, 7.804079055786133
0, 4, 115, 7.357603549957275
0, 4, 116, 8.475845336914062
0, 4, 117, 7.083004474639893
0, 4, 118, 10.81363010406494
0, 4, 119, 11.51761627197266
0, 4, 120, 7.492692470550537
0, 4, 121, 5.5897216796875
0, 4, 122, 4.759442329406738
0, 4, 123, 6.620110988616943
0, 4, 124, 5.04415225982666
0, 4, 125, 9.72305965423584
0, 4, 126, 4.056797504425049
0, 4, 127, 4.453081130981445
0, 5, 0, 3.496294736862183
0, 5, 1, 4.026165962219238
0, 5, 2, 3.715392589569092
0, 5, 3, 6.046247959136963
0, 5, 4, 4.875072479248047
0, 5, 5, 6.184985637664795
0, 5, 6, 6.897158145904541
0, 5, 7, 6.887204170227051
0, 5, 8, 4.568604946136475
0, 5, 9, 5.264297485351562
0, 5, 10, 8.839814186096191
0, 5, 11, 9.240353584289551
0, 5, 12, 7.895354747772217
0, 5, 13, 5.887228488922119
0, 5, 14, 14.7177734375
0, 5, 15, 17.16225433349609
0, 5, 16, 17.11588478088379
0, 5, 17, 31.13146018981934
0, 5, 18, 139.8224029541016
0, 5, 19, 286.9608764648438
0, 5, 20, 307.0069580078125
0, 5, 21, 318.1176452636719
0, 5, 22, 275.4288330078125
0, 5, 23, 309.5971069335938
0, 5, 24, 301.5437927246094
0, 5, 25, 288.422119140625
0, 5, 26, 294.4416809082031
0, 5, 27, 324.01318359375
0, 5, 28, 303.1947021484375
0, 5, 29, 297.7091369628906
0, 5, 30, 325.10498046875
0, 5, 31, 285.6089782714844
0, 5, 32, 302.0540771484375
0, 5, 33, 304.0477294921875
0, 5, 34, 297.0623474121094
0, 5, 35, 309.3308715820312
0, 5, 36, 268.9906616210938
0, 5, 37, 282.3323669433594
0, 5, 38, 292.3450012207031
0, 5, 39, 312.4473266601562
0, 5, 40, 306.9694213867188
0, 5, 41, 274.35009765625
0, 5, 42, 304.3211975097656
0, 5, 43, 315.7301330566406
0, 5, 44, 291.2168579101562
0, 5, 45, 304.2875671386719
0, 5, 46, 268.0897521972656
0, 5, 47, 283.5458984375
0, 5, 48, 293.0430297851562
0, 5, 49, 286.7562255859375
0, 5, 50, 292.1511840820312
0, 5, 51, 279.2359313964844
0, 5, 52, 269.3050537109375
0, 5, 53, 284.8978576660156
0, 5, 54, 292.0823974609375
0, 5, 55, 344.8329467773438
0, 5, 56, 307.0716247558594
0, 5, 57, 308.1248779296875
0, 5, 58, 310.5204467773438
0, 5, 59, 302.9302368164062
0, 5, 60, 306.3009643554688
0, 5, 61, 280.7705383300781
0, 5, 62, 326.5162963867188
0, 5, 63, 291.2660827636719
0, 5, 64, 322.1312866210938
0, 5, 65, 305.7991333007812
0, 5, 66, 329.022705078125
0, 5, 67, 312.49951171875
0, 5, 68, 307.9277954101562
0, 5, 69, 312.7317199707031
0, 5, 70, 299.7071228027344
0, 5, 71, 274.7489929199219
0, 5, 72, 313.9197082519531
0, 5, 73, 302.1384582519531
0, 5, 74, 295.7730712890625
0, 5, 75, 292.0209350585938
0, 5, 76, 284.4489135742188
0, 5, 77, 296.9327697753906
0, 5, 78, 313.9331970214844
0, 5, 79, 308.5813903808594
0, 5, 80, 296.6340637207031
0, 5, 81, 326.8213195800781
0, 5, 82, 325.1344299316406
0, 5, 83, 282.6864929199219
0, 5, 84, 303.7655944824219
0, 5, 85, 271.1287841796875
0, 5, 86, 324.8509216308594
0, 5, 87, 285.3257751464844
0, 5, 88, 314.7188720703125
0, 5, 89, 304.7728881835938
0, 5, 90, 315.4928588867188
0, 5, 91, 317.5244750976562
0, 5, 92, 298.5849914550781
0, 5, 93, 325.04443359375
0, 5, 94, 308.2821044921875
0, 5, 95, 296.4131164550781
0, 5, 96, 299.3651733398438
0, 5, 97, 295.8326110839844
0, 5, 98, 318.8066711425781
0, 5, 99, 302.4923400878906
0, 5, 100, 290.7729797363281
0, 5, 101, 306.0577087402344
0, 5, 102, 291.2801513671875
0, 5, 103, 314.2376708984375
0, 5, 104, 303.2055358886719
0, 5, 105, 290.3866882324219
0, 5, 106, 281.27197265625
0, 5, 107, 293.2527770996094
0, 5, 108, 265.7640991210938
0, 5, 109, 158.9739074707031
0, 5, 110, 39.32382202148438
0, 5, 111, 19.54826354980469
0, 5, 112, 16.20634841918945
0, 5, 113, 11.93273830413818
0, 5, 114, 13.05498218536377
0, 5, 115, 8.883578300476074
0, 5, 116, 8.820595741271973
0, 5, 117, 7.842299938201904
0, 5, 118, 14.31225395202637
0, 5, 119, 5.641013622283936
0, 5, 120, 4.834554672241211
0, 5, 121, 5.803050994873047
0, 5, 122, 4.933322429656982
0, 5, 123, 3.672104597091675
0, 5, 124, 5.838393688201904
0, 5, 125, 3.541861057281494
0, 5, 126, 8.902655601501465
0, 5, 127, 3.792689561843872
0, 6, 0, 5.803113460540771
0, 6, 1, 4.984508991241455
0, 6, 2, 5.840381622314453
0, 6, 3, 5.952610969543457
0, 6, 4, 3.577850341796875
0, 6, 5, 5.438195705413818
0, 6, 6, 7.481241703033447
0, 6, 7, 5.23698902130127
0, 6, 8, 8.763818740844727
0, 6, 9, 6.226738452911377
0, 6, 10, 7.665121555328369
0, 6, 11, 9.57528018951416
0, 6, 12, 11.5882568359375
0, 6, 13, 14.58388996124268
0, 6, 14, 8.168853759765625
0, 6, 15, 15.83959293365479
0, 6, 16, 27.82133102416992
0, 6, 17, 53.28774642944336
0, 6, 18, 176.5529174804688
0, 6, 19, 279.71533203125
0, 6, 20, 292.0095520019531
0, 6, 21, 315.7672729492188
0, 6, 22, 324.8640441894531
0, 6, 23, 305.0331420898438
0, 6, 24, 316.3580017089844
0, 6, 25, 316.2642517089844
0, 6, 26, 319.0186767578125
0, 6, 27, 330.0315246582031
0, 6, 28, 297.6016235351562
0, 6, 29, 330.91064453125
0, 6, 30, 284.2150573730469
0, 6, 31, 285.7047729492188
0, 6, 32, 340.4588317871094
0, 6, 33, 299.9603881835938
0, 6, 34, 343.84765625
0, 6, 35, 322.5423583984375
0, 6, 36, 273.9673767089844
0, 6, 37, 288.3614501953125
0, 6, 38, 310.5194396972656
0, 6, 39, 299.516357421875
0, 6, 40, 284.1861877441406
0, 6, 41, 292.9692077636719
0, 6, 42, 303.9926147460938
0, 6, 43, 287.4214477539062
0, 6, 44, 280.4414367675781
0, 6, 45, 323.3428344726562
0, 6, 46, 303.033935546875
0, 6, 47, 333.4833679199219
0, 6, 48, 291.8287963867188
0, 6, 49, 312.6071472167969
0, 6, 50, 330.0258178710938
0, 6, 51, 309.8719787597656
0, 6, 52, 319.5894470214844
0, 6, 53, 327.7851867675781
0, 6, 54, 302.6768798828125
0, 6, 55, 305.5077514648438
0, 6, 56, 293.2080383300781
0, 6, 57, 314.193359375
0, 6, 58, 262.5126647949219
0, 6, 59, 303.0561218261719
0, 6, 60, 314.1385498046875
0, 6, 61, 270.7418212890625
0, 6, 62, 339.4875793457031
0, 6, 63, 324.374267578125
0, 6, 64, 293.2056884765625
0, 6, 65, 288.7332458496094
0, 6, 66, 301.5684509277344
0, 6, 67, 310.5709228515625
0, 6, 68, 292.8805847167969
0, 6, 69, 278.9611511230469
0, 6, 70, 274.1247863769531
0, 6, 71, 289.655029296875
0, 6, 72, 309.8629455566406
0, 6, 73, 292.0561828613281
0, 6, 74, 330.6828918457031
0, 6, 75, 343.1490478515625
0, 6, 76, 296.6567993164062
0, 6, 77, 287.9535217285156
0, 6, 78, 279.2965087890625
0, 6, 79, 291.9841918945312
0, 6, 80, 299.8250122070312
0, 6, 81, 314.1494750976562
0, 6, 82, 318.2498779296875
0, 6, 83, 318.9302062988281
0, 6, 84, 296.0366516113281
0, 6, 85, 300.8298950195312
0, 6, 86, 329.8316345214844
0, 6, 87, 292.7729797363281
0, 6, 88, 306.5656433105469
0, 6, 89, 303.1535339355469
0, 6, 90, 297.86767578125
0, 6, 91, 310.9849243164062
0, 6, 92, 284.584716796875
0, 6, 93, 297.0669555664062
0, 6, 94, 272.7396545410156
0, 6, 95, 298.8865966796875
0, 6, 96, 346.2668151855469
0, 6, 97, 306.8889465332031
0, 6, 98, 300.6331176757812
0, 6, 99, 270.9204711914062
0, 6, 100, 307.4133605957031
0, 6, 101, 293.0879821777344
0, 6, 102, 308.4008483886719
0, 6, 103, 306.6564025878906
0, 6, 104, 290.9577026367188
0, 6, 105, 302.0640258789062
0, 6, 106, 307.7403564453125
0, 6, 107, 305.7950134277344
0, 6, 108, 264.8571472167969
0, 6, 109, 185.2623138427734
0, 6, 110, 54.22505187988281
0, 6, 111, 19.90634727478027
0, 6, 112, 13.29122829437256
0, 6, 113, 9.842676162719727
0, 6, 114, 12.44209861755371
0, 6, 115, 13.92751216888428
0, 6, 116, 11.06834030151367
0, 6, 117, 5.941975116729736
0, 6, 118, 11.24174880981445
0, 6, 119, 7.042685985565186
0, 6, 120, 5.72368860244751
0, 6, 121, 7.973165512084961
0, 6, 122, 7.085219860076904
0, 6, 123, 5.707893371582031
0, 6, 124, 6.066166400909424
0, 6, 125, 5.673488616943359
0, 6, 126, 6.088040351867676
0, 6, 127, 6.092860221862793
0, 7, 0, 4.765069484710693
0, 7, 1, 2.987550973892212
0, 7, 2, 5.146592617034912
0, 7, 3, 4.353460788726807
0, 7, 4, 4.638609409332275
0, 7, 5, 6.156226634979248
0, 7, 6, 6.778648853302002
0, 7, 7, 5.475471019744873
0, 7, 8, 5.001106739044189
0, 7, 9, 5.905160427093506
0, 7, 10, 9.950900077819824
0, 7, 11, 10.62477874755859
0, 7, 12, 11.33680438995361
0, 7, 13, 12.96941471099854
0, 7, 14, 10.33999919891357
0, 7, 15, 18.27831268310547
0, 7, 16, 25.58673858642578
0, 7, 17, 100.1347503662109
0, 7, 18, 218.55126953125
0, 7, 19, 290.0707397460938
0, 7, 20, 295.4853210449219
0, 7, 21, 277.8421630859375
0, 7, 22, 297.9466552734375
0, 7, 23, 292.5230102539062
0, 7, 24, 314.0009765625
0, 7, 25, 324.7496948242188
0, 7, 26, 278.3855285644531
0, 7, 27, 296.9180603027344
0, 7, 28, 327.2286987304688
0, 7, 29, 319.8941040039062
0, 7, 30, 301.05908203125
0, 7, 31, 277.9296569824219
0, 7, 32, 306.2109375
0, 7, 33, 262.6467590332031
0, 7, 34, 299.1632080078125
0, 7, 35, 319.185546875
0, 7, 36, 329.3473510742188
0, 7, 37, 322.5596618652344
0, 7, 38, 294.2828674316406
0, 7, 39, 304.1668090820312
0, 7, 40, 290.3915405273438
0, 7, 41, 270.2473449707031
0, 7, 42, 300.8471069335938
0, 7, 43, 273.9082641601562
0, 7, 44, 303.0663757324219
0, 7, 45, 292.3581848144531
0, 7, 46, 279.8482055664062
0, 7, 47, 330.8815002441406
0, 7, 48, 285.8540649414062
0, 7, 49, 300.9668579101562
0, 7, 50, 320.6141052246094
0, 7, 51, 300.2876892089844
0, 7, 52, 326.5508728027344
0, 7, 53, 309.9354553222656
0, 7, 54, 322.3431396484375
0, 7, 55, 308.2237243652344
0, 7, 56, 279.8809814453125
0, 7, 57, 282.7137451171875
0, 7, 58, 294.4609069824219
0, 7, 59, 295.2413330078125
0, 7, 60, 324.3555908203125
0, 7, 61, 277.7913513183594
0, 7, 62, 300.0374755859375
0, 7, 63, 291.718017578125
0, 7, 64, 307.0741577148438
0, 7, 65, 330.9290466308594
0, 7, 66, 316.4403076171875
0, 7, 67, 303.7571411132812
0, 7, 68, 280.4373168945312
0, 7, 69, 295.4545288085938
0, 7, 70, 302.6647644042969
0, 7, 71, 310.1675720214844
0, 7, 72, 285.9938354492188
0, 7, 73, 297.3854675292969
0, 7, 74, 344.4718322753906
0, 7, 75, 318.6137390136719
0, 7, 76, 323.6151123046875
0, 7, 77, 281.0054321289062
0, 7, 78, 300.7113342285156
0, 7, 79, 297.1315612792969
0, 7, 80, 312.0273132324219
0, 7, 81, 319.1038513183594
0, 7, 82, 330.0508422851562
0, 7, 83, 316.4629821777344
0, 7, 84, 308.5664978027344
0, 7, 85, 272.9130859375
0, 7, 86, 310.0807189941406
0, 7, 87, 310.3739624023438
0, 7, 88, 306.20166015625
0, 7, 89, 293.5739135742188
0, 7, 90, 306.7698364257812
0, 7, 91, 315.2293701171875
0, 7, 92, 289.8598327636719
0, 7, 93, 308.0364379882812
0, 7, 94, 275.9861450195312
0, 7, 95, 296.078857421875
0, 7, 96, 333.693603515625
0, 7, 97, 296.3479919433594
0, 7, 98, 289.9938049316406
0, 7, 99, 310.8684692382812
0, 7, 100, 280.8628540039062
0, 7, 101, 275.2366943359375
0, 7, 102, 291.2362365722656
0, 7, 103, 294.4260864257812
0, 7, 104, 276.6456298828125
0, 7, 105, 306.316162109375
0, 7, 106, 318.2910461425781
0, 7, 107, 294.555419921875
0, 7, 108, 273.0543212890625
0, 7, 109, 234.3287200927734
0, 7, 110, 95.09876251220703
0, 7, 111, 24.54950332641602
0, 7, 112, 12.16479969024658
0, 7, 113, 14.72070503234863
0, 7, 114, 12.53147315979004
0, 7, 115, 10.49930095672607
0, 7, 116, 7.081958293914795
0, 7, 117, 4.475127220153809
0, 7, 118, 9.994112014770508
0, 7, 119, 5.374917030334473
0, 7, 120, 4.171805381774902
0, 7, 121, 7.353131294250488
0, 7, 122, 7.962266445159912
0, 7, 123, 3.953504800796509
0, 7, 124, 5.664943218231201
0, 7, 125, 7.004539012908936
0, 7, 126, 7.908587455749512
0, 7, 127, 2.153026342391968
0, 8, 0, 4.751507759094238
0, 8, 1, 5.999948024749756
0, 8, 2, 5.889461040496826
0, 8, 3, 2.802796125411987
0, 8, 4, 5.545474052429199
0, 8, 5, 4.871481418609619
0, 8, 6, 5.33322286605835
0, 8, 7, 5.003812789916992
0, 8, 8, 11.71414470672607
0, 8, 9, 6.057815074920654
0, 8, 10, 6.41052770614624
0, 8, 11, 11.33215808868408
0, 8, 12, 15.38030529022217
0, 8, 13, 15.94052124023438
0, 8, 14, 11.40857696533203
0, 8, 15, 18.46837043762207
0, 8, 16, 32.44182205200195
0, 8, 17, 129.8259429931641
0, 8, 18, 242.4570617675781
0, 8, 19, 295.8433532714844
0, 8, 20, 283.7144165039062
0, 8, 21, 306.2567749023438
0, 8, 22, 294.8443603515625
0, 8, 23, 273.9836730957031
0, 8, 24, 268.5796508789062
0, 8, 25, 276.7152709960938
0, 8, 26, 305.4481811523438
0, 8, 27, 308.9053039550781
0, 8, 28, 303.39306640625
0, 8, 29, 319.90478515625
0, 8, 30, 313.2940368652344
0, 8, 31, 303.3668518066406
0, 8, 32, 281.8656616210938
0, 8, 33, 293.6341247558594
0, 8, 34, 291.528076171875
0, 8, 35, 284.023681640625
0, 8, 36, 318.1871032714844
0, 8, 37, 337.8631286621094
0, 8, 38, 334.8315124511719
0, 8, 39, 280.2525634765625
0, 8, 40, 305.9505615234375
