# TOPAS Version: 3.1.p3
# Parameter File: batch_inserts_40.txt
# Results for scorer Readout_Adipose
# Scored in component: MyBox
# X in 1 bin  of 0.75 cm
# Y in 512 bins of 0.0783984 cm
# Z in 128 bins of 0.078125 cm
# EnergyDeposit ( MeV ) : Sum   
0, 0, 0, 3.205162763595581
0, 0, 1, 1.831810474395752
0, 0, 2, 4.935198783874512
0, 0, 3, 2.083234310150146
0, 0, 4, 3.693995475769043
0, 0, 5, 2.490092992782593
0, 0, 6, 7.203428268432617
0, 0, 7, 12.69860935211182
0, 0, 8, 3.13638162612915
0, 0, 9, 3.629143476486206
0, 0, 10, 7.090587615966797
0, 0, 11, 4.865071773529053
0, 0, 12, 4.110512256622314
0, 0, 13, 5.857024669647217
0, 0, 14, 6.341091156005859
0, 0, 15, 10.02388572692871
0, 0, 16, 9.393317222595215
0, 0, 17, 8.128153800964355
0, 0, 18, 13.53833389282227
0, 0, 19, 44.57250213623047
0, 0, 20, 140.9372863769531
0, 0, 21, 223.3397216796875
0, 0, 22, 248.9380187988281
0, 0, 23, 255.737548828125
0, 0, 24, 253.6050109863281
0, 0, 25, 258.4848937988281
0, 0, 26, 234.9768676757812
0, 0, 27, 237.4268035888672
0, 0, 28, 272.1634826660156
0, 0, 29, 254.6743011474609
0, 0, 30, 229.2774810791016
0, 0, 31, 244.3960876464844
0, 0, 32, 264.7918090820312
0, 0, 33, 262.0576477050781
0, 0, 34, 287.7389526367188
0, 0, 35, 266.2110595703125
0, 0, 36, 246.6570587158203
0, 0, 37, 251.5824432373047
0, 0, 38, 266.8454895019531
0, 0, 39, 228.6810455322266
0, 0, 40, 242.5243682861328
0, 0, 41, 267.0701293945312
0, 0, 42, 229.6139984130859
0, 0, 43, 259.8913879394531
0, 0, 44, 253.9692687988281
0, 0, 45, 252.6289520263672
0, 0, 46, 246.8127899169922
0, 0, 47, 253.8301696777344
0, 0, 48, 266.5734558105469
0, 0, 49, 274.4757385253906
0, 0, 50, 250.741455078125
0, 0, 51, 252.6461639404297
0, 0, 52, 274.3887634277344
0, 0, 53, 291.2511596679688
0, 0, 54, 243.3421478271484
0, 0, 55, 239.8862152099609
0, 0, 56, 276.3255004882812
0, 0, 57, 262.2757873535156
0, 0, 58, 246.8610382080078
0, 0, 59, 271.1244812011719
0, 0, 60, 235.8711547851562
0, 0, 61, 245.0734100341797
0, 0, 62, 255.61083984375
0, 0, 63, 267.7336120605469
0, 0, 64, 254.6223297119141
0, 0, 65, 261.7986755371094
0, 0, 66, 275.9988403320312
0, 0, 67, 247.9788360595703
0, 0, 68, 258.6982421875
0, 0, 69, 262.2647094726562
0, 0, 70, 272.8283996582031
0, 0, 71, 239.461669921875
0, 0, 72, 253.5558166503906
0, 0, 73, 257.7355651855469
0, 0, 74, 253.0812530517578
0, 0, 75, 241.4966888427734
0, 0, 76, 228.5822143554688
0, 0, 77, 261.1553039550781
0, 0, 78, 256.3154296875
0, 0, 79, 278.8898620605469
0, 0, 80, 218.4915161132812
0, 0, 81, 266.8953552246094
0, 0, 82, 255.6873626708984
0, 0, 83, 247.7709655761719
0, 0, 84, 268.4989624023438
0, 0, 85, 231.1528472900391
0, 0, 86, 253.3234558105469
0, 0, 87, 250.7411499023438
0, 0, 88, 260.2886047363281
0, 0, 89, 283.0072021484375
0, 0, 90, 244.8459014892578
0, 0, 91, 282.4728393554688
0, 0, 92, 253.1577606201172
0, 0, 93, 248.7808532714844
0, 0, 94, 246.7156524658203
0, 0, 95, 247.7233428955078
0, 0, 96, 274.7218627929688
0, 0, 97, 271.7881469726562
0, 0, 98, 271.5348815917969
0, 0, 99, 257.7269592285156
0, 0, 100, 257.8374938964844
0, 0, 101, 225.5050354003906
0, 0, 102, 233.2701873779297
0, 0, 103, 268.7457885742188
0, 0, 104, 253.5087127685547
0, 0, 105, 251.8748779296875
0, 0, 106, 245.8778076171875
0, 0, 107, 152.2862243652344
0, 0, 108, 39.75069046020508
0, 0, 109, 12.24631023406982
0, 0, 110, 13.35577774047852
0, 0, 111, 8.890078544616699
0, 0, 112, 6.742733955383301
0, 0, 113, 5.167990684509277
0, 0, 114, 7.221706867218018
0, 0, 115, 5.802906513214111
0, 0, 116, 6.406952857971191
0, 0, 117, 5.765781879425049
0, 0, 118, 7.116469383239746
0, 0, 119, 4.038902282714844
0, 0, 120, 3.554988861083984
0, 0, 121, 3.929343223571777
0, 0, 122, 4.274953365325928
0, 0, 123, 2.122519016265869
0, 0, 124, 4.349480628967285
0, 0, 125, 3.184503555297852
0, 0, 126, 7.443108081817627
0, 0, 127, 2.689598560333252
0, 1, 0, 6.014082908630371
0, 1, 1, 2.876537084579468
0, 1, 2, 3.564659118652344
0, 1, 3, 2.576664447784424
0, 1, 4, 2.844090938568115
0, 1, 5, 4.304824352264404
0, 1, 6, 5.847586631774902
0, 1, 7, 3.49437403678894
0, 1, 8, 6.632355690002441
0, 1, 9, 3.080939769744873
0, 1, 10, 7.298394680023193
0, 1, 11, 11.33222961425781
0, 1, 12, 9.730709075927734
0, 1, 13, 10.0818567276001
0, 1, 14, 8.398124694824219
0, 1, 15, 8.570395469665527
0, 1, 16, 11.91051387786865
0, 1, 17, 10.68208885192871
0, 1, 18, 19.18805313110352
0, 1, 19, 65.33595275878906
0, 1, 20, 199.2397918701172
0, 1, 21, 254.0600280761719
0, 1, 22, 295.2284545898438
0, 1, 23, 283.8984069824219
0, 1, 24, 277.8212585449219
0, 1, 25, 286.8352661132812
0, 1, 26, 269.4004211425781
0, 1, 27, 305.8525390625
0, 1, 28, 299.4468383789062
0, 1, 29, 297.2412109375
0, 1, 30, 281.2723999023438
0, 1, 31, 292.2160339355469
0, 1, 32, 290.3144226074219
0, 1, 33, 295.8573608398438
0, 1, 34, 292.6398620605469
0, 1, 35, 280.1649475097656
0, 1, 36, 306.0488891601562
0, 1, 37, 294.4881591796875
0, 1, 38, 280.5916137695312
0, 1, 39, 295.5588684082031
0, 1, 40, 267.7503967285156
0, 1, 41, 286.3379821777344
0, 1, 42, 288.6939392089844
0, 1, 43, 332.7350769042969
0, 1, 44, 278.8536071777344
0, 1, 45, 293.8957214355469
0, 1, 46, 258.091064453125
0, 1, 47, 310.4486999511719
0, 1, 48, 282.6730041503906
0, 1, 49, 304.3103332519531
0, 1, 50, 264.6758422851562
0, 1, 51, 274.1392211914062
0, 1, 52, 297.8143615722656
0, 1, 53, 305.3226623535156
0, 1, 54, 275.6790161132812
0, 1, 55, 292.1026306152344
0, 1, 56, 277.9590759277344
0, 1, 57, 296.4474792480469
0, 1, 58, 310.4896240234375
0, 1, 59, 298.0374145507812
0, 1, 60, 298.0790710449219
0, 1, 61, 274.6815795898438
0, 1, 62, 310.0345458984375
0, 1, 63, 287.2732849121094
0, 1, 64, 292.4165954589844
0, 1, 65, 295.8070678710938
0, 1, 66, 291.4533081054688
0, 1, 67, 291.83935546875
0, 1, 68, 278.3760986328125
0, 1, 69, 283.0794677734375
0, 1, 70, 270.3950805664062
0, 1, 71, 272.3318786621094
0, 1, 72, 287.4424133300781
0, 1, 73, 305.4444885253906
0, 1, 74, 303.2371826171875
0, 1, 75, 291.9672546386719
0, 1, 76, 286.9428100585938
0, 1, 77, 290.5192565917969
0, 1, 78, 297.9142456054688
0, 1, 79, 301.9818725585938
0, 1, 80, 295.7365112304688
0, 1, 81, 299.9972534179688
0, 1, 82, 283.5221557617188
0, 1, 83, 332.0282287597656
0, 1, 84, 310.4645690917969
0, 1, 85, 251.3511810302734
0, 1, 86, 294.2848510742188
0, 1, 87, 291.4728393554688
0, 1, 88, 296.6711120605469
0, 1, 89, 290.2807312011719
0, 1, 90, 272.5287170410156
0, 1, 91, 317.1409301757812
0, 1, 92, 290.4114074707031
0, 1, 93, 289.2950744628906
0, 1, 94, 305.9282531738281
0, 1, 95, 284.561767578125
0, 1, 96, 283.9472961425781
0, 1, 97, 300.28271484375
0, 1, 98, 276.5634765625
0, 1, 99, 265.7750854492188
0, 1, 100, 276.181640625
0, 1, 101, 281.9046325683594
0, 1, 102, 278.9953308105469
0, 1, 103, 281.0600280761719
0, 1, 104, 306.7548217773438
0, 1, 105, 297.1443176269531
0, 1, 106, 262.1076965332031
0, 1, 107, 192.2729644775391
0, 1, 108, 80.20955657958984
0, 1, 109, 22.86217498779297
0, 1, 110, 12.07780361175537
0, 1, 111, 8.383506774902344
0, 1, 112, 11.13036823272705
0, 1, 113, 5.610115051269531
0, 1, 114, 6.141660213470459
0, 1, 115, 6.756427764892578
0, 1, 116, 12.68507194519043
0, 1, 117, 7.728355884552002
0, 1, 118, 5.365062236785889
0, 1, 119, 8.616767883300781
0, 1, 120, 4.499697685241699
0, 1, 121, 3.875947237014771
0, 1, 122, 3.615590810775757
0, 1, 123, 3.948652744293213
0, 1, 124, 8.873272895812988
0, 1, 125, 3.799543857574463
0, 1, 126, 6.383331298828125
0, 1, 127, 3.710777521133423
0, 2, 0, 6.283719539642334
0, 2, 1, 3.016902446746826
0, 2, 2, 4.379354476928711
0, 2, 3, 4.139782905578613
0, 2, 4, 2.580470561981201
0, 2, 5, 3.020412445068359
0, 2, 6, 1.644915461540222
0, 2, 7, 3.303130865097046
0, 2, 8, 7.327196598052979
0, 2, 9, 5.223075389862061
0, 2, 10, 8.715643882751465
0, 2, 11, 7.300409317016602
0, 2, 12, 5.925746440887451
0, 2, 13, 9.626473426818848
0, 2, 14, 9.230381011962891
0, 2, 15, 7.86744499206543
0, 2, 16, 7.873730659484863
0, 2, 17, 16.37888526916504
0, 2, 18, 29.88960647583008
0, 2, 19, 118.6246337890625
0, 2, 20, 246.8790740966797
0, 2, 21, 271.3558044433594
0, 2, 22, 315.3208923339844
0, 2, 23, 301.0697326660156
0, 2, 24, 285.5066833496094
0, 2, 25, 304.1585388183594
0, 2, 26, 292.2144470214844
0, 2, 27, 277.3337707519531
0, 2, 28, 272.4512634277344
0, 2, 29, 274.6537475585938
0, 2, 30, 291.515380859375
0, 2, 31, 277.37109375
0, 2, 32, 294.5809936523438
0, 2, 33, 283.0934143066406
0, 2, 34, 331.2769165039062
0, 2, 35, 289.3993530273438
0, 2, 36, 302.4031677246094
0, 2, 37, 314.0887756347656
0, 2, 38, 310.8572998046875
0, 2, 39, 269.1544799804688
0, 2, 40, 305.2704162597656
0, 2, 41, 294.3895263671875
0, 2, 42, 303.2477722167969
0, 2, 43, 313.6211547851562
0, 2, 44, 312.8218078613281
0, 2, 45, 324.2077026367188
0, 2, 46, 287.7125549316406
0, 2, 47, 304.3491821289062
0, 2, 48, 283.5878601074219
0, 2, 49, 278.7357177734375
0, 2, 50, 296.1611022949219
0, 2, 51, 287.6253051757812
0, 2, 52, 271.6481323242188
0, 2, 53, 287.0617370605469
0, 2, 54, 282.5597229003906
0, 2, 55, 277.4858093261719
0, 2, 56, 301.8340454101562
0, 2, 57, 292.3164367675781
0, 2, 58, 304.3164978027344
0, 2, 59, 287.8493347167969
0, 2, 60, 317.7090148925781
0, 2, 61, 301.4237060546875
0, 2, 62, 315.4920654296875
0, 2, 63, 302.1506958007812
0, 2, 64, 297.7655944824219
0, 2, 65, 315.4394226074219
0, 2, 66, 278.1161804199219
0, 2, 67, 290.03662109375
0, 2, 68, 296.1039428710938
0, 2, 69, 310.160400390625
0, 2, 70, 335.9453430175781
0, 2, 71, 285.2765808105469
0, 2, 72, 301.5555419921875
0, 2, 73, 309.8768005371094
0, 2, 74, 285.7536010742188
0, 2, 75, 304.8336791992188
0, 2, 76, 286.2215576171875
0, 2, 77, 299.1405944824219
0, 2, 78, 316.7718505859375
0, 2, 79, 310.6335754394531
0, 2, 80, 295.7861938476562
0, 2, 81, 283.6449279785156
0, 2, 82, 319.8016052246094
0, 2, 83, 311.5569152832031
0, 2, 84, 287.7723083496094
0, 2, 85, 282.4339294433594
0, 2, 86, 324.5039367675781
0, 2, 87, 285.8031311035156
0, 2, 88, 280.0167541503906
0, 2, 89, 296.4754333496094
0, 2, 90, 294.6872863769531
0, 2, 91, 276.8765869140625
0, 2, 92, 306.8170166015625
0, 2, 93, 316.6286010742188
0, 2, 94, 291.4797973632812
0, 2, 95, 313.8860778808594
0, 2, 96, 315.1974487304688
0, 2, 97, 292.3410034179688
0, 2, 98, 295.6446838378906
0, 2, 99, 273.0963439941406
0, 2, 100, 306.4401245117188
0, 2, 101, 301.019287109375
0, 2, 102, 297.962890625
0, 2, 103, 291.9068298339844
0, 2, 104, 291.2518615722656
0, 2, 105, 275.3811950683594
0, 2, 106, 297.2565612792969
0, 2, 107, 268.2224426269531
0, 2, 108, 116.2398071289062
0, 2, 109, 32.8350944519043
0, 2, 110, 10.84659194946289
0, 2, 111, 10.57831478118896
0, 2, 112, 10.06042385101318
0, 2, 113, 9.679848670959473
0, 2, 114, 10.40068340301514
0, 2, 115, 9.249785423278809
0, 2, 116, 7.273262500762939
0, 2, 117, 5.735727310180664
0, 2, 118, 5.568647861480713
0, 2, 119, 2.625001430511475
0, 2, 120, 5.781068325042725
0, 2, 121, 1.469042658805847
0, 2, 122, 4.351990222930908
0, 2, 123, 5.289245128631592
0, 2, 124, 5.146810054779053
0, 2, 125, 5.44743537902832
0, 2, 126, 5.376228809356689
0, 2, 127, 3.745758533477783
0, 3, 0, 3.270571231842041
0, 3, 1, 3.073326587677002
0, 3, 2, 3.107447624206543
0, 3, 3, 1.826689124107361
0, 3, 4, 3.943291664123535
0, 3, 5, 6.625894069671631
0, 3, 6, 6.637672424316406
0, 3, 7, 5.440004825592041
0, 3, 8, 5.53536319732666
0, 3, 9, 4.873927116394043
0, 3, 10, 6.287898540496826
0, 3, 11, 3.804435253143311
0, 3, 12, 7.849207401275635
0, 3, 13, 15.09731483459473
0, 3, 14, 11.11213970184326
0, 3, 15, 13.19286346435547
0, 3, 16, 10.90951919555664
0, 3, 17, 18.70137214660645
0, 3, 18, 53.63372039794922
0, 3, 19, 175.242431640625
0, 3, 20, 269.7296447753906
0, 3, 21, 269.8726806640625
0, 3, 22, 282.7637634277344
0, 3, 23, 287.8726501464844
0, 3, 24, 286.0410766601562
0, 3, 25, 271.5133972167969
0, 3, 26, 305.3153076171875
0, 3, 27, 291.7401428222656
0, 3, 28, 280.4008178710938
0, 3, 29, 339.0595092773438
0, 3, 30, 316.0375061035156
0, 3, 31, 288.1985168457031
0, 3, 32, 305.1005249023438
0, 3, 33, 314.0789184570312
0, 3, 34, 322.4769592285156
0, 3, 35, 306.6211547851562
0, 3, 36, 269.3064270019531
0, 3, 37, 317.9414672851562
0, 3, 38, 302.1111450195312
0, 3, 39, 286.8300476074219
0, 3, 40, 268.2098693847656
0, 3, 41, 299.1063537597656
0, 3, 42, 285.2473754882812
0, 3, 43, 304.857421875
0, 3, 44, 313.6949157714844
0, 3, 45, 289.8219909667969
0, 3, 46, 326.5837097167969
0, 3, 47, 299.97021484375
0, 3, 48, 304.4584350585938
0, 3, 49, 275.519775390625
0, 3, 50, 290.5677490234375
0, 3, 51, 275.1612854003906
0, 3, 52, 315.6063232421875
0, 3, 53, 288.8634948730469
0, 3, 54, 283.0132446289062
0, 3, 55, 284.1565246582031
0, 3, 56, 297.90673828125
0, 3, 57, 288.9728393554688
0, 3, 58, 305.9564514160156
0, 3, 59, 295.6152648925781
0, 3, 60, 297.3209838867188
0, 3, 61, 265.9159545898438
0, 3, 62, 283.3435974121094
0, 3, 63, 308.3292846679688
0, 3, 64, 316.8682250976562
0, 3, 65, 307.2400207519531
0, 3, 66, 316.039794921875
0, 3, 67, 317.2227478027344
0, 3, 68, 278.7193298339844
0, 3, 69, 280.3892517089844
0, 3, 70, 286.7867431640625
0, 3, 71, 298.8308715820312
0, 3, 72, 271.1106262207031
0, 3, 73, 308.5098571777344
0, 3, 74, 290.6755065917969
0, 3, 75, 290.0982055664062
0, 3, 76, 306.4405212402344
0, 3, 77, 311.3188781738281
0, 3, 78, 300.751220703125
0, 3, 79, 280.6534729003906
0, 3, 80, 291.9401550292969
0, 3, 81, 309.9425048828125
0, 3, 82, 317.6353759765625
0, 3, 83, 300.2655944824219
0, 3, 84, 313.7434997558594
0, 3, 85, 292.843994140625
0, 3, 86, 301.17822265625
0, 3, 87, 298.9397583007812
0, 3, 88, 297.1532592773438
0, 3, 89, 295.6972961425781
0, 3, 90, 276.4134521484375
0, 3, 91, 283.7654418945312
0, 3, 92, 305.5615234375
0, 3, 93, 314.1438293457031
0, 3, 94, 296.5550231933594
0, 3, 95, 334.425048828125
0, 3, 96, 290.6448364257812
0, 3, 97, 284.6832275390625
0, 3, 98, 278.5682373046875
0, 3, 99, 263.7152709960938
0, 3, 100, 284.5543518066406
0, 3, 101, 298.9528198242188
0, 3, 102, 276.5032348632812
0, 3, 103, 319.9586181640625
0, 3, 104, 305.6935729980469
0, 3, 105, 289.0785827636719
0, 3, 106, 302.0335083007812
0, 3, 107, 286.1166687011719
0, 3, 108, 168.9651184082031
0, 3, 109, 58.12133026123047
0, 3, 110, 16.77864646911621
0, 3, 111, 12.97957229614258
0, 3, 112, 13.03260612487793
0, 3, 113, 5.619565486907959
0, 3, 114, 9.39055061340332
0, 3, 115, 7.072132587432861
0, 3, 116, 7.649615287780762
0, 3, 117, 8.157674789428711
0, 3, 118, 7.606134414672852
0, 3, 119, 6.915059566497803
0, 3, 120, 3.161126852035522
0, 3, 121, 2.005708456039429
0, 3, 122, 3.983416557312012
0, 3, 123, 7.046919345855713
0, 3, 124, 3.48198390007019
0, 3, 125, 6.54405403137207
0, 3, 126, 5.021169662475586
0, 3, 127, 2.363250494003296
0, 4, 0, 2.737425088882446
0, 4, 1, 3.921741724014282
0, 4, 2, 2.14599609375
0, 4, 3, 2.230302572250366
0, 4, 4, 5.703853130340576
0, 4, 5, 8.883691787719727
0, 4, 6, 6.455290794372559
0, 4, 7, 7.076767444610596
0, 4, 8, 3.613449335098267
0, 4, 9, 5.406049728393555
0, 4, 10, 5.093801498413086
0, 4, 11, 8.100600242614746
0, 4, 12, 6.835080146789551
0, 4, 13, 7.749346733093262
0, 4, 14, 10.87819957733154
0, 4, 15, 12.00514888763428
0, 4, 16, 14.73009300231934
0, 4, 17, 17.94955253601074
0, 4, 18, 93.30020141601562
0, 4, 19, 221.1748352050781
0, 4, 20, 285.4900817871094
0, 4, 21, 275.0209045410156
0, 4, 22, 304.8723449707031
0, 4, 23, 266.8553771972656
0, 4, 24, 289.3734741210938
0, 4, 25, 274.0505676269531
0, 4, 26, 294.6863708496094
0, 4, 27, 281.8568725585938
0, 4, 28, 306.6889038085938
0, 4, 29, 322.3675537109375
0, 4, 30, 309.5521545410156
0, 4, 31, 302.48486328125
0, 4, 32, 282.4438171386719
0, 4, 33, 296.158935546875
0, 4, 34, 296.853271484375
0, 4, 35, 313.6163940429688
0, 4, 36, 295.0711975097656
0, 4, 37, 287.0267028808594
0, 4, 38, 297.3715209960938
0, 4, 39, 292.8912353515625
0, 4, 40, 301.2232666015625
0, 4, 41, 311.4341735839844
0, 4, 42, 328.1582946777344
0, 4, 43, 298.4835205078125
0, 4, 44, 324.3669738769531
0, 4, 45, 325.9750061035156
0, 4, 46, 305.9798278808594
0, 4, 47, 292.8930053710938
0, 4, 48, 295.5242614746094
0, 4, 49, 278.3798828125
0, 4, 50, 296.779052734375
0, 4, 51, 316.6652221679688
0, 4, 52, 326.3844909667969
0, 4, 53, 306.606689453125
0, 4, 54, 288.1370849609375
0, 4, 55, 313.5612487792969
0, 4, 56, 285.9342346191406
0, 4, 57, 309.8059387207031
0, 4, 58, 296.1714172363281
0, 4, 59, 309.4908752441406
0, 4, 60, 302.7985534667969
0, 4, 61, 316.1434631347656
0, 4, 62, 306.2037353515625
0, 4, 63, 298.8336791992188
0, 4, 64, 327.6700439453125
0, 4, 65, 315.2437744140625
0, 4, 66, 294.1329040527344
0, 4, 67, 284.9499816894531
0, 4, 68, 312.2247619628906
0, 4, 69, 276.2759399414062
0, 4, 70, 300.308837890625
0, 4, 71, 321.6451721191406
0, 4, 72, 331.7710876464844
0, 4, 73, 298.6728515625
0, 4, 74, 293.4544982910156
0, 4, 75, 289.0368957519531
0, 4, 76, 273.9136962890625
0, 4, 77, 279
0, 4, 78, 311.7095336914062
0, 4, 79, 320.249267578125
0, 4, 80, 315.2337951660156
0, 4, 81, 312.31689453125
0, 4, 82, 297.2683410644531
0, 4, 83, 300.8287353515625
0, 4, 84, 293.9266357421875
0, 4, 85, 295.5761108398438
0, 4, 86, 296.8587036132812
0, 4, 87, 286.2688293457031
0, 4, 88, 305.5335388183594
0, 4, 89, 293.3046569824219
0, 4, 90, 333.2269897460938
0, 4, 91, 301.2781066894531
0, 4, 92, 289.581298828125
0, 4, 93, 295.7996520996094
0, 4, 94, 292.3414916992188
0, 4, 95, 288.5202331542969
0, 4, 96, 326.1582641601562
0, 4, 97, 271.8744201660156
0, 4, 98, 327.002197265625
0, 4, 99, 314.6672668457031
0, 4, 100, 300.3057861328125
0, 4, 101, 256.6190795898438
0, 4, 102, 296.7430114746094
0, 4, 103, 318.1241760253906
0, 4, 104, 280.705322265625
0, 4, 105, 311.4297790527344
0, 4, 106, 286.9931945800781
0, 4, 107, 293.8272399902344
0, 4, 108, 226.1744995117188
0, 4, 109, 79.5438232421875
0, 4, 110, 17.60106468200684
0, 4, 111, 13.36559772491455
0, 4, 112, 8.423752784729004
0, 4, 113, 10.6591739654541
0, 4, 114, 7.465490818023682
0, 4, 115, 12.86179256439209
0, 4, 116, 9.478237152099609
0, 4, 117, 8.065769195556641
0, 4, 118, 8.459266662597656
0, 4, 119, 8.547897338867188
0, 4, 120, 5.906925201416016
0, 4, 121, 7.34237003326416
0, 4, 122, 4.434014320373535
0, 4, 123, 5.686447143554688
0, 4, 124, 4.969498634338379
0, 4, 125, 8.423247337341309
0, 4, 126, 3.896136283874512
0, 4, 127, 2.517632246017456
0, 5, 0, 3.283818006515503
0, 5, 1, 3.918025255203247
0, 5, 2, 6.1444411277771
0, 5, 3, 4.406550884246826
0, 5, 4, 4.847141742706299
0, 5, 5, 6.6822190284729
0, 5, 6, 8.131180763244629
0, 5, 7, 3.920608043670654
0, 5, 8, 3.613919973373413
0, 5, 9, 4.160884857177734
0, 5, 10, 5.743366241455078
0, 5, 11, 8.377902030944824
0, 5, 12, 9.841596603393555
0, 5, 13, 4.776731014251709
0, 5, 14, 15.24594783782959
0, 5, 15, 16.64529037475586
0, 5, 16, 13.20332908630371
0, 5, 17, 28.10664939880371
0, 5, 18, 136.2866363525391
0, 5, 19, 290.1593322753906
0, 5, 20, 307.271728515625
0, 5, 21, 317.7054138183594
0, 5, 22, 273.920166015625
0, 5, 23, 313.0685119628906
0, 5, 24, 301.9200439453125
0, 5, 25, 288.6675109863281
0, 5, 26, 293.3620910644531
0, 5, 27, 321.8922119140625
0, 5, 28, 304.4114074707031
0, 5, 29, 297.940185546875
0, 5, 30, 325.0120849609375
0, 5, 31, 287.8559875488281
0, 5, 32, 303.0564575195312
0, 5, 33, 302.9591369628906
0, 5, 34, 299.3878784179688
0, 5, 35, 311.8456420898438
0, 5, 36, 268.5735473632812
0, 5, 37, 281.8027954101562
0, 5, 38, 292.9662475585938
0, 5, 39, 310.8983459472656
0, 5, 40, 306.1487121582031
0, 5, 41, 272.585693359375
0, 5, 42, 305.0204467773438
0, 5, 43, 315.0299987792969
0, 5, 44, 292.1680297851562
0, 5, 45, 303.6607971191406
0, 5, 46, 266.78564453125
0, 5, 47, 280.6791687011719
0, 5, 48, 294.5215454101562
0, 5, 49, 286.841552734375
0, 5, 50, 294.7713317871094
0, 5, 51, 280.0021362304688
0, 5, 52, 271.2919006347656
0, 5, 53, 282.6439819335938
0, 5, 54, 293.0921936035156
0, 5, 55, 345.0355529785156
0, 5, 56, 307.9335021972656
0, 5, 57, 305.8233947753906
0, 5, 58, 311.5973815917969
0, 5, 59, 303.1308288574219
0, 5, 60, 307.444091796875
0, 5, 61, 282.7362670898438
0, 5, 62, 322.7989196777344
0, 5, 63, 291.1228332519531
0, 5, 64, 321.4234313964844
0, 5, 65, 307.4631652832031
0, 5, 66, 327.8816528320312
0, 5, 67, 315.0859985351562
0, 5, 68, 307.6445617675781
0, 5, 69, 310.5074462890625
0, 5, 70, 301.5989685058594
0, 5, 71, 274.112060546875
0, 5, 72, 313.6884765625
0, 5, 73, 303.0813903808594
0, 5, 74, 295.4993896484375
0, 5, 75, 294.4402465820312
0, 5, 76, 286.2622375488281
0, 5, 77, 299.1957397460938
0, 5, 78, 313.7740478515625
0, 5, 79, 306.5098571777344
0, 5, 80, 294.1790161132812
0, 5, 81, 325.2708129882812
0, 5, 82, 325.152587890625
0, 5, 83, 281.4965209960938
0, 5, 84, 301.8152770996094
0, 5, 85, 271.8607788085938
0, 5, 86, 325.0850524902344
0, 5, 87, 284.5504455566406
0, 5, 88, 312.8685302734375
0, 5, 89, 305.4274291992188
0, 5, 90, 317.5119323730469
0, 5, 91, 312.4420166015625
0, 5, 92, 296.5823059082031
0, 5, 93, 323.344482421875
0, 5, 94, 311.0331726074219
0, 5, 95, 295.9072875976562
0, 5, 96, 302.6333312988281
0, 5, 97, 297.3658142089844
0, 5, 98, 315.5526428222656
0, 5, 99, 301.6270446777344
0, 5, 100, 290.5372619628906
0, 5, 101, 305.0783996582031
0, 5, 102, 291.7532958984375
0, 5, 103, 315.8034973144531
0, 5, 104, 300.8351135253906
0, 5, 105, 293.0669860839844
0, 5, 106, 282.1579284667969
0, 5, 107, 296.3692321777344
0, 5, 108, 266.5215759277344
0, 5, 109, 157.9366149902344
0, 5, 110, 39.56106567382812
0, 5, 111, 21.38438415527344
0, 5, 112, 16.99967575073242
0, 5, 113, 15.43030166625977
0, 5, 114, 12.38330841064453
0, 5, 115, 7.557044982910156
0, 5, 116, 7.670196056365967
0, 5, 117, 6.72608470916748
0, 5, 118, 12.6082706451416
0, 5, 119, 6.014122009277344
0, 5, 120, 7.539050579071045
0, 5, 121, 7.385118961334229
0, 5, 122, 6.355090141296387
0, 5, 123, 7.475248336791992
0, 5, 124, 5.050753593444824
0, 5, 125, 4.159030914306641
0, 5, 126, 5.269233703613281
0, 5, 127, 3.494872808456421
0, 6, 0, 4.355024814605713
0, 6, 1, 2.278127431869507
0, 6, 2, 6.424192428588867
0, 6, 3, 6.51500415802002
0, 6, 4, 2.726531505584717
0, 6, 5, 4.89517879486084
0, 6, 6, 6.059667110443115
0, 6, 7, 6.828217029571533
0, 6, 8, 7.789328098297119
0, 6, 9, 4.934404373168945
0, 6, 10, 7.185783863067627
0, 6, 11, 8.859284400939941
0, 6, 12, 8.197378158569336
0, 6, 13, 16.38816070556641
0, 6, 14, 8.701577186584473
0, 6, 15, 15.65444755554199
0, 6, 16, 27.53141593933105
0, 6, 17, 56.65252304077148
0, 6, 18, 174.6835479736328
0, 6, 19, 275.5480041503906
0, 6, 20, 290.99609375
0, 6, 21, 313.2146301269531
0, 6, 22, 320.462646484375
0, 6, 23, 305.3758850097656
0, 6, 24, 316.7113342285156
0, 6, 25, 315.4141540527344
0, 6, 26, 318.3708801269531
0, 6, 27, 330.3202819824219
0, 6, 28, 296.4825134277344
0, 6, 29, 328.8998413085938
0, 6, 30, 284.4460144042969
0, 6, 31, 286.6591186523438
0, 6, 32, 339.34521484375
0, 6, 33, 302.2920837402344
0, 6, 34, 339.6489562988281
0, 6, 35, 323.3028869628906
0, 6, 36, 273.8348083496094
0, 6, 37, 289.9419250488281
0, 6, 38, 310.4500122070312
0, 6, 39, 298.6949157714844
0, 6, 40, 288.3486938476562
0, 6, 41, 295.4931640625
0, 6, 42, 303.8499755859375
0, 6, 43, 288.6680908203125
0, 6, 44, 281.5384826660156
0, 6, 45, 317.9432983398438
0, 6, 46, 303.0072631835938
0, 6, 47, 332.435791015625
0, 6, 48, 292.1866455078125
0, 6, 49, 312.9161376953125
0, 6, 50, 328.4039001464844
0, 6, 51, 310.4226379394531
0, 6, 52, 319.9286193847656
0, 6, 53, 325.781005859375
0, 6, 54, 300.9680480957031
0, 6, 55, 305.3699645996094
0, 6, 56, 296.7994995117188
0, 6, 57, 312.9999389648438
0, 6, 58, 261.2891845703125
0, 6, 59, 302.0801391601562
0, 6, 60, 314.7176208496094
0, 6, 61, 272.0288696289062
0, 6, 62, 336.5531616210938
0, 6, 63, 322.6125183105469
0, 6, 64, 291.2677001953125
0, 6, 65, 283.263427734375
0, 6, 66, 303.9019775390625
0, 6, 67, 311.0572204589844
0, 6, 68, 293.7251281738281
0, 6, 69, 278.0968322753906
0, 6, 70, 274.0195007324219
0, 6, 71, 289.0838623046875
0, 6, 72, 310.323486328125
0, 6, 73, 292.1825866699219
0, 6, 74, 330.7481994628906
0, 6, 75, 345.3889465332031
0, 6, 76, 299.4673156738281
0, 6, 77, 286.3935852050781
0, 6, 78, 278.1639404296875
0, 6, 79, 294.0506591796875
0, 6, 80, 301.7526245117188
0, 6, 81, 316.6150207519531
0, 6, 82, 320.2889709472656
0, 6, 83, 320.5941772460938
0, 6, 84, 296.9982604980469
0, 6, 85, 301.5232238769531
0, 6, 86, 329.8941040039062
0, 6, 87, 294.3354797363281
0, 6, 88, 305.8107299804688
0, 6, 89, 303.3060913085938
0, 6, 90, 298.9414978027344
0, 6, 91, 314.3054504394531
0, 6, 92, 283.7809448242188
0, 6, 93, 294.2921447753906
0, 6, 94, 271.8289184570312
0, 6, 95, 300.8077392578125
0, 6, 96, 346.1052856445312
0, 6, 97, 308.9939880371094
0, 6, 98, 300.2782287597656
0, 6, 99, 273.8017272949219
0, 6, 100, 311.5985412597656
0, 6, 101, 292.5474243164062
0, 6, 102, 305.7494812011719
0, 6, 103, 308.8558654785156
0, 6, 104, 293.6723022460938
0, 6, 105, 303.7477111816406
0, 6, 106, 306.7535400390625
0, 6, 107, 306.1730346679688
0, 6, 108, 265.0086364746094
0, 6, 109, 188.2270965576172
0, 6, 110, 55.71323013305664
0, 6, 111, 23.15184783935547
0, 6, 112, 14.90582656860352
0, 6, 113, 11.87620162963867
0, 6, 114, 11.78904342651367
0, 6, 115, 11.7139253616333
0, 6, 116, 8.839102745056152
0, 6, 117, 12.68737125396729
0, 6, 118, 11.00461292266846
0, 6, 119, 9.368327140808105
0, 6, 120, 5.729959964752197
0, 6, 121, 5.957101345062256
0, 6, 122, 6.143240451812744
0, 6, 123, 6.434734344482422
0, 6, 124, 6.033803462982178
0, 6, 125, 5.344465732574463
0, 6, 126, 5.209394454956055
0, 6, 127, 5.257370471954346
0, 7, 0, 5.948489189147949
0, 7, 1, 4.981095790863037
0, 7, 2, 5.236390113830566
0, 7, 3, 2.368633985519409
0, 7, 4, 5.555957317352295
0, 7, 5, 4.761214733123779
0, 7, 6, 7.106868267059326
0, 7, 7, 4.547744750976562
0, 7, 8, 6.503557682037354
0, 7, 9, 8.575857162475586
0, 7, 10, 8.914362907409668
0, 7, 11, 13.34305286407471
0, 7, 12, 11.02097415924072
0, 7, 13, 11.89247131347656
0, 7, 14, 10.3982048034668
0, 7, 15, 16.19484901428223
0, 7, 16, 27.45873641967773
0, 7, 17, 97.35397338867188
0, 7, 18, 219.4172058105469
0, 7, 19, 289.8954162597656
0, 7, 20, 296.4389953613281
0, 7, 21, 275.0999755859375
0, 7, 22, 299.1146240234375
0, 7, 23, 289.4293823242188
0, 7, 24, 313.6359558105469
0, 7, 25, 323.5202331542969
0, 7, 26, 278.0573120117188
0, 7, 27, 297.4512023925781
0, 7, 28, 330.1455688476562
0, 7, 29, 317.7576293945312
0, 7, 30, 300.0982666015625
0, 7, 31, 277.4775695800781
0, 7, 32, 303.3739624023438
0, 7, 33, 263.4463195800781
0, 7, 34, 296.9099426269531
0, 7, 35, 317.0602722167969
0, 7, 36, 330.4116516113281
0, 7, 37, 326.1141052246094
0, 7, 38, 295.7146301269531
0, 7, 39, 307.0927734375
0, 7, 40, 290.25
0, 7, 41, 270.2560424804688
0, 7, 42, 304.6239013671875
0, 7, 43, 275.5494079589844
0, 7, 44, 302.474609375
0, 7, 45, 295.0985107421875
0, 7, 46, 281.8981323242188
0, 7, 47, 327.9306335449219
0, 7, 48, 287.4883422851562
0, 7, 49, 305.6785888671875
0, 7, 50, 320.5459899902344
0, 7, 51, 298.4904174804688
0, 7, 52, 326.4117736816406
0, 7, 53, 311.1690979003906
0, 7, 54, 324.0628967285156
0, 7, 55, 308.6296081542969
0, 7, 56, 279.2865905761719
0, 7, 57, 281.2148742675781
0, 7, 58, 295.947021484375
0, 7, 59, 292.4282531738281
0, 7, 60, 323.0529479980469
0, 7, 61, 277.3718872070312
0, 7, 62, 299.0184631347656
0, 7, 63, 293.3358154296875
0, 7, 64, 308.7729187011719
0, 7, 65, 331.9960327148438
0, 7, 66, 320.3660583496094
0, 7, 67, 301.35791015625
0, 7, 68, 280.1023254394531
0, 7, 69, 292.7570495605469
0, 7, 70, 301.1674499511719
0, 7, 71, 308.7960205078125
0, 7, 72, 285.6607055664062
0, 7, 73, 296.7492370605469
0, 7, 74, 343.0140991210938
0, 7, 75, 319.4529418945312
0, 7, 76, 322.5011901855469
0, 7, 77, 281.9941711425781
0, 7, 78, 298.4379577636719
0, 7, 79, 297.2862854003906
0, 7, 80, 310.7154235839844
0, 7, 81, 319.3711242675781
0, 7, 82, 329.6183471679688
0, 7, 83, 316.3472595214844
0, 7, 84, 309.9330749511719
0, 7, 85, 273.2840576171875
0, 7, 86, 310.3273315429688
0, 7, 87, 309.940185546875
0, 7, 88, 308.9386596679688
0, 7, 89, 294.154541015625
0, 7, 90, 306.253173828125
0, 7, 91, 317.4449768066406
0, 7, 92, 289.3903503417969
0, 7, 93, 307.6887512207031
0, 7, 94, 274.4536437988281
0, 7, 95, 296.0382995605469
0, 7, 96, 330.7061767578125
0, 7, 97, 295.6658325195312
0, 7, 98, 292.9502258300781
0, 7, 99, 313.1381530761719
0, 7, 100, 280.6192932128906
0, 7, 101, 275.4790344238281
0, 7, 102, 290.4400939941406
0, 7, 103, 291.5772094726562
0, 7, 104, 274.2215576171875
0, 7, 105, 307.7583618164062
0, 7, 106, 317.7264099121094
0, 7, 107, 295.7279052734375
0, 7, 108, 272.4984436035156
0, 7, 109, 237.6690063476562
0, 7, 110, 97.06577301025391
0, 7, 111, 23.06509208679199
0, 7, 112, 14.62994289398193
0, 7, 113, 13.46257400512695
0, 7, 114, 14.25820446014404
0, 7, 115, 10.81013107299805
0, 7, 116, 8.502650260925293
0, 7, 117, 6.081790447235107
0, 7, 118, 6.462629318237305
0, 7, 119, 4.481209754943848
0, 7, 120, 4.724731922149658
0, 7, 121, 6.244147300720215
0, 7, 122, 8.020978927612305
0, 7, 123, 5.274374485015869
0, 7, 124, 5.166311264038086
0, 7, 125, 7.13410758972168
0, 7, 126, 8.101217269897461
0, 7, 127, 2.058820724487305
0, 8, 0, 4.893954277038574
0, 8, 1, 3.931205749511719
0, 8, 2, 3.049268960952759
0, 8, 3, 4.406070709228516
0, 8, 4, 3.659114360809326
0, 8, 5, 4.036243438720703
0, 8, 6, 5.33946418762207
0, 8, 7, 4.945797443389893
0, 8, 8, 9.225950241088867
0, 8, 9, 5.213989734649658
0, 8, 10, 7.587176322937012
0, 8, 11, 11.24576187133789
0, 8, 12, 13.96150493621826
0, 8, 13, 16.99536514282227
0, 8, 14, 14.34874629974365
0, 8, 15, 16.64044380187988
0, 8, 16, 33.32574081420898
0, 8, 17, 131.4167022705078
0, 8, 18, 243.4173583984375
0, 8, 19, 294.819580078125
0, 8, 20, 285.369873046875
0, 8, 21, 306.699462890625
0, 8, 22, 294.6006164550781
0, 8, 23, 274.8589782714844
0, 8, 24, 269.0307312011719
0, 8, 25, 276.2999572753906
0, 8, 26, 306.3471069335938
0, 8, 27, 306.6769104003906
0, 8, 28, 305.8780822753906
0, 8, 29, 322.6919555664062
0, 8, 30, 312.8914489746094
0, 8, 31, 303.7950439453125
0, 8, 32, 282.3473815917969
0, 8, 33, 292.9308166503906
0, 8, 34, 292.6037292480469
0, 8, 35, 278.4671325683594
0, 8, 36, 314.0854797363281
0, 8, 37, 339.689453125
0, 8, 38, 330.7779235839844
0, 8, 39, 280.0747985839844
