# TOPAS Version: 3.1.p3
# Parameter File: batch_inserts_82.txt
# Results for scorer Readout_Adipose
# Scored in component: MyBox
# X in 1 bin  of 0.75 cm
# Y in 512 bins of 0.0783984 cm
# Z in 128 bins of 0.078125 cm
# EnergyDeposit ( MeV ) : Sum   
0, 0, 0, 3.121082782745361
0, 0, 1, 2.586949825286865
0, 0, 2, 4.364433288574219
0, 0, 3, 1.212519645690918
0, 0, 4, 5.288061618804932
0, 0, 5, 1.755008220672607
0, 0, 6, 5.940451622009277
0, 0, 7, 8.984959602355957
0, 0, 8, 3.421463012695312
0, 0, 9, 3.406389951705933
0, 0, 10, 7.268632411956787
0, 0, 11, 3.849664211273193
0, 0, 12, 4.135103225708008
0, 0, 13, 7.753136157989502
0, 0, 14, 7.316177845001221
0, 0, 15, 9.890549659729004
0, 0, 16, 9.746171951293945
0, 0, 17, 8.073480606079102
0, 0, 18, 11.98786640167236
0, 0, 19, 43.96215057373047
0, 0, 20, 139.9284973144531
0, 0, 21, 223.0870361328125
0, 0, 22, 249.9976654052734
0, 0, 23, 256.3949890136719
0, 0, 24, 253.9002685546875
0, 0, 25, 260.145751953125
0, 0, 26, 235.5013275146484
0, 0, 27, 237.1970367431641
0, 0, 28, 271.6419677734375
0, 0, 29, 252.6290893554688
0, 0, 30, 230.8816528320312
0, 0, 31, 243.9672546386719
0, 0, 32, 263.6618957519531
0, 0, 33, 261.531982421875
0, 0, 34, 287.9230651855469
0, 0, 35, 266.8650207519531
0, 0, 36, 246.4962463378906
0, 0, 37, 253.5859680175781
0, 0, 38, 267.6925048828125
0, 0, 39, 231.3546905517578
0, 0, 40, 241.666015625
0, 0, 41, 264.5813598632812
0, 0, 42, 228.6733245849609
0, 0, 43, 261.937255859375
0, 0, 44, 250.7208251953125
0, 0, 45, 252.4674682617188
0, 0, 46, 244.0768585205078
0, 0, 47, 251.7971954345703
0, 0, 48, 268.3380432128906
0, 0, 49, 272.4329528808594
0, 0, 50, 251.9493560791016
0, 0, 51, 254.8996887207031
0, 0, 52, 273.2830505371094
0, 0, 53, 292.3536987304688
0, 0, 54, 242.2095947265625
0, 0, 55, 239.5230255126953
0, 0, 56, 277.9486694335938
0, 0, 57, 263.8743896484375
0, 0, 58, 246.0508575439453
0, 0, 59, 270.9721069335938
0, 0, 60, 234.0722808837891
0, 0, 61, 245.1464080810547
0, 0, 62, 260.2029418945312
0, 0, 63, 267.1077575683594
0, 0, 64, 256.8563842773438
0, 0, 65, 260.7943115234375
0, 0, 66, 276.8172302246094
0, 0, 67, 247.2787017822266
0, 0, 68, 259.560791015625
0, 0, 69, 260.9940490722656
0, 0, 70, 272.0532531738281
0, 0, 71, 238.2509002685547
0, 0, 72, 252.1308288574219
0, 0, 73, 257.8591918945312
0, 0, 74, 252.6252136230469
0, 0, 75, 239.6401977539062
0, 0, 76, 227.8754425048828
0, 0, 77, 262.2144775390625
0, 0, 78, 257.7146301269531
0, 0, 79, 279.1868591308594
0, 0, 80, 215.1416015625
0, 0, 81, 268.2247009277344
0, 0, 82, 256.5836791992188
0, 0, 83, 243.7755279541016
0, 0, 84, 271.3858642578125
0, 0, 85, 233.7366943359375
0, 0, 86, 253.3463287353516
0, 0, 87, 252.158203125
0, 0, 88, 260.0338745117188
0, 0, 89, 283.0406188964844
0, 0, 90, 243.5794982910156
0, 0, 91, 281.1200256347656
0, 0, 92, 251.3222961425781
0, 0, 93, 249.1976013183594
0, 0, 94, 247.7121429443359
0, 0, 95, 247.1235504150391
0, 0, 96, 274.5368957519531
0, 0, 97, 273.210693359375
0, 0, 98, 273.9616088867188
0, 0, 99, 258.2506408691406
0, 0, 100, 257.8971862792969
0, 0, 101, 226.8813018798828
0, 0, 102, 230.6856689453125
0, 0, 103, 272.2974243164062
0, 0, 104, 254.0014495849609
0, 0, 105, 252.3235778808594
0, 0, 106, 246.9351348876953
0, 0, 107, 153.1349487304688
0, 0, 108, 37.90864181518555
0, 0, 109, 11.13759613037109
0, 0, 110, 12.87529754638672
0, 0, 111, 9.381132125854492
0, 0, 112, 9.673336029052734
0, 0, 113, 5.495334148406982
0, 0, 114, 5.785962581634521
0, 0, 115, 5.615565776824951
0, 0, 116, 6.017039775848389
0, 0, 117, 7.393266201019287
0, 0, 118, 6.103274345397949
0, 0, 119, 4.374111175537109
0, 0, 120, 4.584716796875
0, 0, 121, 3.467381715774536
0, 0, 122, 4.817509651184082
0, 0, 123, 2.823232889175415
0, 0, 124, 4.538256168365479
0, 0, 125, 2.486562013626099
0, 0, 126, 4.95186185836792
0, 0, 127, 3.838257789611816
0, 1, 0, 7.736992835998535
0, 1, 1, 3.702237844467163
0, 1, 2, 3.36339259147644
0, 1, 3, 3.613190889358521
0, 1, 4, 4.454029560089111
0, 1, 5, 2.992701292037964
0, 1, 6, 2.978671550750732
0, 1, 7, 3.886467218399048
0, 1, 8, 9.071452140808105
0, 1, 9, 7.230836868286133
0, 1, 10, 8.740132331848145
0, 1, 11, 10.45080471038818
0, 1, 12, 7.788494110107422
0, 1, 13, 9.73985767364502
0, 1, 14, 8.521261215209961
0, 1, 15, 11.14533138275146
0, 1, 16, 10.64212799072266
0, 1, 17, 13.35354232788086
0, 1, 18, 21.68269920349121
0, 1, 19, 67.10302734375
0, 1, 20, 198.1681365966797
0, 1, 21, 254.8065643310547
0, 1, 22, 295.4150390625
0, 1, 23, 282.8988342285156
0, 1, 24, 275.8307495117188
0, 1, 25, 288.12939453125
0, 1, 26, 267.9778137207031
0, 1, 27, 307.1072998046875
0, 1, 28, 299.5977172851562
0, 1, 29, 299.76513671875
0, 1, 30, 280.3558349609375
0, 1, 31, 296.2021179199219
0, 1, 32, 291.5914611816406
0, 1, 33, 295.3268737792969
0, 1, 34, 292.5218505859375
0, 1, 35, 278.1551208496094
0, 1, 36, 307.92822265625
0, 1, 37, 295.7145385742188
0, 1, 38, 281.6343383789062
0, 1, 39, 294.7837524414062
0, 1, 40, 266.3752136230469
0, 1, 41, 285.1291198730469
0, 1, 42, 291.1227722167969
0, 1, 43, 332.228271484375
0, 1, 44, 278.6947021484375
0, 1, 45, 292.2819213867188
0, 1, 46, 260.5120544433594
0, 1, 47, 313.2648620605469
0, 1, 48, 287.2510681152344
0, 1, 49, 302.4241027832031
0, 1, 50, 261.6768493652344
0, 1, 51, 274.09326171875
0, 1, 52, 294.58203125
0, 1, 53, 305.24365234375
0, 1, 54, 276.3682861328125
0, 1, 55, 293.0458679199219
0, 1, 56, 276.3757934570312
0, 1, 57, 300.0858154296875
0, 1, 58, 311.8222351074219
0, 1, 59, 291.4737548828125
0, 1, 60, 297.0459594726562
0, 1, 61, 276.6278686523438
0, 1, 62, 308.4864807128906
0, 1, 63, 288.8973999023438
0, 1, 64, 289.3467407226562
0, 1, 65, 294.1491088867188
0, 1, 66, 291.5653076171875
0, 1, 67, 291.2271118164062
0, 1, 68, 278.0691833496094
0, 1, 69, 281.8066711425781
0, 1, 70, 272.2151489257812
0, 1, 71, 274.6284484863281
0, 1, 72, 285.6923828125
0, 1, 73, 305.5972900390625
0, 1, 74, 305.7247314453125
0, 1, 75, 290.59521484375
0, 1, 76, 284.6459350585938
0, 1, 77, 292.5663452148438
0, 1, 78, 296.5638427734375
0, 1, 79, 302.3401794433594
0, 1, 80, 295.8535766601562
0, 1, 81, 299.6432800292969
0, 1, 82, 283.4046020507812
0, 1, 83, 332.2034301757812
0, 1, 84, 310.2744445800781
0, 1, 85, 253.1097259521484
0, 1, 86, 293.0697937011719
0, 1, 87, 290.6678161621094
0, 1, 88, 297.0065612792969
0, 1, 89, 289.7659301757812
0, 1, 90, 270.6847534179688
0, 1, 91, 317.9578247070312
0, 1, 92, 290.1866760253906
0, 1, 93, 286.8876342773438
0, 1, 94, 303.4637451171875
0, 1, 95, 283.9992065429688
0, 1, 96, 284.1164855957031
0, 1, 97, 300.5755004882812
0, 1, 98, 280.4622802734375
0, 1, 99, 266.3412170410156
0, 1, 100, 278.5810241699219
0, 1, 101, 282.4673461914062
0, 1, 102, 280.7935791015625
0, 1, 103, 282.9748840332031
0, 1, 104, 305.6649780273438
0, 1, 105, 296.3716125488281
0, 1, 106, 261.5223083496094
0, 1, 107, 191.1013488769531
0, 1, 108, 81.55412292480469
0, 1, 109, 23.47787284851074
0, 1, 110, 10.94489097595215
0, 1, 111, 8.002102851867676
0, 1, 112, 11.4542179107666
0, 1, 113, 6.471231460571289
0, 1, 114, 5.360191822052002
0, 1, 115, 7.340932369232178
0, 1, 116, 11.39603519439697
0, 1, 117, 5.591662406921387
0, 1, 118, 4.152649402618408
0, 1, 119, 3.395017623901367
0, 1, 120, 5.176304817199707
0, 1, 121, 3.451143026351929
0, 1, 122, 3.474946260452271
0, 1, 123, 3.706591129302979
0, 1, 124, 7.765682697296143
0, 1, 125, 4.373051166534424
0, 1, 126, 2.315500020980835
0, 1, 127, 1.495209455490112
0, 2, 0, 5.256434917449951
0, 2, 1, 1.35681676864624
0, 2, 2, 4.0114426612854
0, 2, 3, 6.953816890716553
0, 2, 4, 3.8791184425354
0, 2, 5, 3.537764549255371
0, 2, 6, 4.427530288696289
0, 2, 7, 3.673571109771729
0, 2, 8, 4.626332759857178
0, 2, 9, 4.957093715667725
0, 2, 10, 7.929615020751953
0, 2, 11, 7.790340423583984
0, 2, 12, 9.293008804321289
0, 2, 13, 11.39700889587402
0, 2, 14, 9.284457206726074
0, 2, 15, 8.224114418029785
0, 2, 16, 8.882861137390137
0, 2, 17, 16.51433944702148
0, 2, 18, 30.32256126403809
0, 2, 19, 116.9492111206055
0, 2, 20, 245.2283020019531
0, 2, 21, 270.6514892578125
0, 2, 22, 315.6946105957031
0, 2, 23, 301.9932556152344
0, 2, 24, 288.0945434570312
0, 2, 25, 302.5967712402344
0, 2, 26, 293.5694274902344
0, 2, 27, 277.035888671875
0, 2, 28, 273.2862854003906
0, 2, 29, 272.5666809082031
0, 2, 30, 293.9665222167969
0, 2, 31, 277.8846130371094
0, 2, 32, 294.3129577636719
0, 2, 33, 281.4015197753906
0, 2, 34, 334.1741027832031
0, 2, 35, 288.3495483398438
0, 2, 36, 304.5425109863281
0, 2, 37, 315.4015197753906
0, 2, 38, 311.5077209472656
0, 2, 39, 267.0088195800781
0, 2, 40, 307.4266967773438
0, 2, 41, 291.8546142578125
0, 2, 42, 301.1428833007812
0, 2, 43, 312.8011474609375
0, 2, 44, 315.4692993164062
0, 2, 45, 324.6558837890625
0, 2, 46, 289.0781555175781
0, 2, 47, 302.76513671875
0, 2, 48, 279.1402893066406
0, 2, 49, 278.4107055664062
0, 2, 50, 295.4144287109375
0, 2, 51, 284.0396118164062
0, 2, 52, 271.5291748046875
0, 2, 53, 287.5177001953125
0, 2, 54, 280.2623901367188
0, 2, 55, 275.218017578125
0, 2, 56, 304.7791442871094
0, 2, 57, 293.9241943359375
0, 2, 58, 303.1820983886719
0, 2, 59, 287.5067443847656
0, 2, 60, 317.8914489746094
0, 2, 61, 302.1343994140625
0, 2, 62, 313.8216552734375
0, 2, 63, 303.7390747070312
0, 2, 64, 296.0491333007812
0, 2, 65, 313.363037109375
0, 2, 66, 279.4718017578125
0, 2, 67, 290.8067016601562
0, 2, 68, 295.962646484375
0, 2, 69, 311.9205017089844
0, 2, 70, 333.2287902832031
0, 2, 71, 283.352783203125
0, 2, 72, 301.4777221679688
0, 2, 73, 310.8472900390625
0, 2, 74, 286.0048828125
0, 2, 75, 306.0028381347656
0, 2, 76, 286.3721313476562
0, 2, 77, 299.3848266601562
0, 2, 78, 313.055908203125
0, 2, 79, 310.1720275878906
0, 2, 80, 297.4830627441406
0, 2, 81, 281.775390625
0, 2, 82, 317.2884521484375
0, 2, 83, 312.7441711425781
0, 2, 84, 290.5277404785156
0, 2, 85, 280.3780212402344
0, 2, 86, 322.7994995117188
0, 2, 87, 286.0075378417969
0, 2, 88, 280.8408508300781
0, 2, 89, 293.9420776367188
0, 2, 90, 297.0227355957031
0, 2, 91, 276.6405639648438
0, 2, 92, 306.0174255371094
0, 2, 93, 319.693359375
0, 2, 94, 290.6150817871094
0, 2, 95, 315.4980163574219
0, 2, 96, 315.1390686035156
0, 2, 97, 293.3867797851562
0, 2, 98, 293.9085388183594
0, 2, 99, 272.8845520019531
0, 2, 100, 305.7774047851562
0, 2, 101, 301.11962890625
0, 2, 102, 297.4962768554688
0, 2, 103, 293.0335388183594
0, 2, 104, 293.5426025390625
0, 2, 105, 273.6458129882812
0, 2, 106, 298.3930358886719
0, 2, 107, 269.0960388183594
0, 2, 108, 117.2225570678711
0, 2, 109, 30.70222663879395
0, 2, 110, 10.64315414428711
0, 2, 111, 11.2656946182251
0, 2, 112, 8.357988357543945
0, 2, 113, 9.189150810241699
0, 2, 114, 8.878957748413086
0, 2, 115, 7.614438533782959
0, 2, 116, 9.367960929870605
0, 2, 117, 6.556517601013184
0, 2, 118, 2.717093944549561
0, 2, 119, 7.51190185546875
0, 2, 120, 6.178281307220459
0, 2, 121, 2.69694972038269
0, 2, 122, 5.171687602996826
0, 2, 123, 6.898008346557617
0, 2, 124, 4.216914653778076
0, 2, 125, 5.364748001098633
0, 2, 126, 3.182637214660645
0, 2, 127, 5.456966876983643
0, 3, 0, 3.60327672958374
0, 3, 1, 2.518361330032349
0, 3, 2, 5.27894926071167
0, 3, 3, 1.574409484863281
0, 3, 4, 4.15224552154541
0, 3, 5, 8.03426456451416
0, 3, 6, 8.534090995788574
0, 3, 7, 4.913751125335693
0, 3, 8, 6.384799957275391
0, 3, 9, 4.035092830657959
0, 3, 10, 7.562349796295166
0, 3, 11, 4.637870311737061
0, 3, 12, 6.571516036987305
0, 3, 13, 16.43800735473633
0, 3, 14, 11.301438331604
0, 3, 15, 12.76568031311035
0, 3, 16, 11.6873140335083
0, 3, 17, 18.65736770629883
0, 3, 18, 52.19551086425781
0, 3, 19, 178.429931640625
0, 3, 20, 268.99658203125
0, 3, 21, 272.0057373046875
0, 3, 22, 281.9875793457031
0, 3, 23, 288.1976928710938
0, 3, 24, 284.8534240722656
0, 3, 25, 272.0972595214844
0, 3, 26, 304.124755859375
0, 3, 27, 292.8998107910156
0, 3, 28, 281.5924072265625
0, 3, 29, 341.1141662597656
0, 3, 30, 317.650146484375
0, 3, 31, 287.9086608886719
0, 3, 32, 306.4139404296875
0, 3, 33, 314.5167846679688
0, 3, 34, 321.2977294921875
0, 3, 35, 308.6465759277344
0, 3, 36, 270.6055908203125
0, 3, 37, 314.45751953125
0, 3, 38, 304.5990600585938
0, 3, 39, 289.464111328125
0, 3, 40, 267.4852905273438
0, 3, 41, 301.8522338867188
0, 3, 42, 285.3932800292969
0, 3, 43, 304.7560119628906
0, 3, 44, 311.3223876953125
0, 3, 45, 289.1264343261719
0, 3, 46, 327.8790588378906
0, 3, 47, 297.8993835449219
0, 3, 48, 305.4813232421875
0, 3, 49, 276.6066589355469
0, 3, 50, 290.4361877441406
0, 3, 51, 277.0071105957031
0, 3, 52, 314.6688842773438
0, 3, 53, 287.9638671875
0, 3, 54, 283.1067810058594
0, 3, 55, 283.0664367675781
0, 3, 56, 298.2083129882812
0, 3, 57, 287.8060302734375
0, 3, 58, 307.8495788574219
0, 3, 59, 292.8220825195312
0, 3, 60, 298.5608520507812
0, 3, 61, 264.0198364257812
0, 3, 62, 284.7756652832031
0, 3, 63, 305.6545104980469
0, 3, 64, 315.6487426757812
0, 3, 65, 305.0765075683594
0, 3, 66, 317.1978454589844
0, 3, 67, 319.2121887207031
0, 3, 68, 281.1169738769531
0, 3, 69, 283.6751098632812
0, 3, 70, 287.8053894042969
0, 3, 71, 300.2438659667969
0, 3, 72, 270.742431640625
0, 3, 73, 308.0466003417969
0, 3, 74, 294.0247497558594
0, 3, 75, 290.6602478027344
0, 3, 76, 305.1268615722656
0, 3, 77, 314.4658813476562
0, 3, 78, 305.6952819824219
0, 3, 79, 283.2979431152344
0, 3, 80, 288.2385864257812
0, 3, 81, 309.8877258300781
0, 3, 82, 315.9561462402344
0, 3, 83, 299.9490051269531
0, 3, 84, 310.26123046875
0, 3, 85, 295.7256164550781
0, 3, 86, 300.979736328125
0, 3, 87, 299.5206909179688
0, 3, 88, 300.50537109375
0, 3, 89, 295.7819213867188
0, 3, 90, 275.3720703125
0, 3, 91, 283.2006530761719
0, 3, 92, 305.1080627441406
0, 3, 93, 312.716552734375
0, 3, 94, 297.1937255859375
0, 3, 95, 336.6871337890625
0, 3, 96, 291.58203125
0, 3, 97, 285.9033203125
0, 3, 98, 277.7031555175781
0, 3, 99, 261.4735412597656
0, 3, 100, 284.4230651855469
0, 3, 101, 298.2673950195312
0, 3, 102, 275.566650390625
0, 3, 103, 320.9165344238281
0, 3, 104, 308.8209228515625
0, 3, 105, 289.4807434082031
0, 3, 106, 301.239013671875
0, 3, 107, 282.1132507324219
0, 3, 108, 168.3097991943359
0, 3, 109, 59.03362655639648
0, 3, 110, 19.67545127868652
0, 3, 111, 12.55649471282959
0, 3, 112, 15.1401195526123
0, 3, 113, 6.534175395965576
0, 3, 114, 9.625682830810547
0, 3, 115, 7.847658157348633
0, 3, 116, 5.79621696472168
0, 3, 117, 6.618680477142334
0, 3, 118, 6.60182523727417
0, 3, 119, 5.624796867370605
0, 3, 120, 6.038567066192627
0, 3, 121, 2.757476091384888
0, 3, 122, 2.221563339233398
0, 3, 123, 5.77474308013916
0, 3, 124, 4.640496730804443
0, 3, 125, 5.018513202667236
0, 3, 126, 8.380655288696289
0, 3, 127, 2.810406923294067
0, 4, 0, 2.181546449661255
0, 4, 1, 4.573223114013672
0, 4, 2, 3.003940343856812
0, 4, 3, 2.440072059631348
0, 4, 4, 5.582686424255371
0, 4, 5, 7.03014087677002
0, 4, 6, 6.504654884338379
0, 4, 7, 4.580307483673096
0, 4, 8, 5.349800586700439
0, 4, 9, 5.781818389892578
0, 4, 10, 6.219315528869629
0, 4, 11, 5.903870582580566
0, 4, 12, 5.547903060913086
0, 4, 13, 8.681955337524414
0, 4, 14, 12.43302345275879
0, 4, 15, 8.422867774963379
0, 4, 16, 12.93009853363037
0, 4, 17, 17.9604320526123
0, 4, 18, 94.98807525634766
0, 4, 19, 222.2207946777344
0, 4, 20, 284.6318969726562
0, 4, 21, 273.5092468261719
0, 4, 22, 304.6374206542969
0, 4, 23, 267.2942810058594
0, 4, 24, 289.9489135742188
0, 4, 25, 273.4614562988281
0, 4, 26, 293.8307495117188
0, 4, 27, 284.5556030273438
0, 4, 28, 311.1566467285156
0, 4, 29, 320.4421691894531
0, 4, 30, 308.9896545410156
0, 4, 31, 304.2062072753906
0, 4, 32, 280.6872253417969
0, 4, 33, 296.6168518066406
0, 4, 34, 296.8828735351562
0, 4, 35, 311.0532836914062
0, 4, 36, 292.7981262207031
0, 4, 37, 288.9261474609375
0, 4, 38, 298.0425415039062
0, 4, 39, 294.3041687011719
0, 4, 40, 303.19384765625
0, 4, 41, 313.3955688476562
0, 4, 42, 329.6322631835938
0, 4, 43, 296.9802551269531
0, 4, 44, 319.3133239746094
0, 4, 45, 322.4181213378906
0, 4, 46, 304.4487609863281
0, 4, 47, 292.7085266113281
0, 4, 48, 295.3357849121094
0, 4, 49, 278.10791015625
0, 4, 50, 297.6354370117188
0, 4, 51, 315.1242065429688
0, 4, 52, 328.6380310058594
0, 4, 53, 306.1532897949219
0, 4, 54, 287.0018005371094
0, 4, 55, 316.2440185546875
0, 4, 56, 285.396240234375
0, 4, 57, 311.0541381835938
0, 4, 58, 295.8128967285156
0, 4, 59, 308.779052734375
0, 4, 60, 302.510009765625
0, 4, 61, 319.9866333007812
0, 4, 62, 308.2514038085938
0, 4, 63, 298.9889221191406
0, 4, 64, 330.0803833007812
0, 4, 65, 318.9522705078125
0, 4, 66, 293.8278503417969
0, 4, 67, 285.8212890625
0, 4, 68, 313.1755676269531
0, 4, 69, 275.0904235839844
0, 4, 70, 298.6697387695312
0, 4, 71, 320.9383239746094
0, 4, 72, 334.3066711425781
0, 4, 73, 299.9727172851562
0, 4, 74, 293.7690124511719
0, 4, 75, 289.8526306152344
0, 4, 76, 274.72412109375
0, 4, 77, 279.6263122558594
0, 4, 78, 307.3989868164062
0, 4, 79, 317.7269287109375
0, 4, 80, 315.1593933105469
0, 4, 81, 313.4585571289062
0, 4, 82, 298.191162109375
0, 4, 83, 302.6524963378906
0, 4, 84, 293.3065185546875
0, 4, 85, 295.83447265625
0, 4, 86, 296.9307250976562
0, 4, 87, 285.2524719238281
0, 4, 88, 306.0026550292969
0, 4, 89, 292.8451843261719
0, 4, 90, 333.1601867675781
0, 4, 91, 303.0305480957031
0, 4, 92, 289.7109985351562
0, 4, 93, 297.8764343261719
0, 4, 94, 293.5272216796875
0, 4, 95, 288.8752136230469
0, 4, 96, 325.2192687988281
0, 4, 97, 275.7103576660156
0, 4, 98, 329.4566345214844
0, 4, 99, 313.9641418457031
0, 4, 100, 299.839111328125
0, 4, 101, 258.0433044433594
0, 4, 102, 296.8746643066406
0, 4, 103, 317.3265380859375
0, 4, 104, 282.178466796875
0, 4, 105, 309.7909851074219
0, 4, 106, 286.7388000488281
0, 4, 107, 297.174560546875
0, 4, 108, 227.9593353271484
0, 4, 109, 80.48323059082031
0, 4, 110, 16.47479057312012
0, 4, 111, 14.58384132385254
0, 4, 112, 8.698541641235352
0, 4, 113, 12.7061882019043
0, 4, 114, 8.509836196899414
0, 4, 115, 12.16615009307861
0, 4, 116, 10.78591346740723
0, 4, 117, 6.992310523986816
0, 4, 118, 8.86308765411377
0, 4, 119, 10.35700988769531
0, 4, 120, 7.581761360168457
0, 4, 121, 3.99609637260437
0, 4, 122, 4.679745674133301
0, 4, 123, 7.947850704193115
0, 4, 124, 6.235455513000488
0, 4, 125, 10.03620338439941
0, 4, 126, 5.439548492431641
0, 4, 127, 4.138695240020752
0, 5, 0, 5.667300224304199
0, 5, 1, 3.084539651870728
0, 5, 2, 4.652713298797607
0, 5, 3, 6.385338306427002
0, 5, 4, 4.898967742919922
0, 5, 5, 5.783642292022705
0, 5, 6, 4.811139106750488
0, 5, 7, 4.865940570831299
0, 5, 8, 3.877656221389771
0, 5, 9, 4.593065738677979
0, 5, 10, 6.57678747177124
0, 5, 11, 8.09418773651123
0, 5, 12, 7.030228137969971
0, 5, 13, 6.806701183319092
0, 5, 14, 12.42049884796143
0, 5, 15, 15.65987968444824
0, 5, 16, 15.17512893676758
0, 5, 17, 30.48704147338867
0, 5, 18, 138.6724700927734
0, 5, 19, 288.4361572265625
0, 5, 20, 307.6716613769531
0, 5, 21, 317.1419372558594
0, 5, 22, 275.2593688964844
0, 5, 23, 308.6815490722656
0, 5, 24, 303.2647705078125
0, 5, 25, 288.6504211425781
0, 5, 26, 294.8933715820312
0, 5, 27, 325.85791015625
0, 5, 28, 303.9810180664062
0, 5, 29, 296.7893371582031
0, 5, 30, 325.7768249511719
0, 5, 31, 285.4732360839844
0, 5, 32, 301.7710266113281
0, 5, 33, 303.3655700683594
0, 5, 34, 296.5689697265625
0, 5, 35, 310.2622375488281
0, 5, 36, 270.6033325195312
0, 5, 37, 281.5483703613281
0, 5, 38, 292.8364868164062
0, 5, 39, 310.8006896972656
0, 5, 40, 307.4932250976562
0, 5, 41, 275.2501525878906
0, 5, 42, 305.9178771972656
0, 5, 43, 316.4159851074219
0, 5, 44, 291.5079345703125
0, 5, 45, 301.0238342285156
0, 5, 46, 268.404541015625
0, 5, 47, 279.5834655761719
0, 5, 48, 294.0359497070312
0, 5, 49, 288.62451171875
0, 5, 50, 293.9314880371094
0, 5, 51, 279.0403747558594
0, 5, 52, 267.8973388671875
0, 5, 53, 284.6531982421875
0, 5, 54, 292.6954040527344
0, 5, 55, 342.8847961425781
0, 5, 56, 306.0308837890625
0, 5, 57, 305.8884582519531
0, 5, 58, 312.595458984375
0, 5, 59, 305.0119323730469
0, 5, 60, 308.5147094726562
0, 5, 61, 280.6433410644531
0, 5, 62, 324.6396179199219
0, 5, 63, 289.7197570800781
0, 5, 64, 321.5892944335938
0, 5, 65, 310.2347412109375
0, 5, 66, 329.3638916015625
0, 5, 67, 311.8036804199219
0, 5, 68, 308.8479919433594
0, 5, 69, 315.6077880859375
0, 5, 70, 301.1314697265625
0, 5, 71, 272.4648132324219
0, 5, 72, 310.6682739257812
0, 5, 73, 302.7222595214844
0, 5, 74, 296.1971130371094
0, 5, 75, 293.5368957519531
0, 5, 76, 284.7842712402344
0, 5, 77, 299.704345703125
0, 5, 78, 312.7873229980469
0, 5, 79, 311.0252380371094
0, 5, 80, 295.165283203125
0, 5, 81, 326.3122253417969
0, 5, 82, 322.481689453125
0, 5, 83, 282.7124328613281
0, 5, 84, 300.7967529296875
0, 5, 85, 271.3099060058594
0, 5, 86, 324.9614562988281
0, 5, 87, 282.6004028320312
0, 5, 88, 312.5355224609375
0, 5, 89, 303.807861328125
0, 5, 90, 318.9093627929688
0, 5, 91, 312.7647094726562
0, 5, 92, 296.3575439453125
0, 5, 93, 320.95361328125
0, 5, 94, 309.7408142089844
0, 5, 95, 296.1591491699219
0, 5, 96, 296.0041809082031
0, 5, 97, 295.0266418457031
0, 5, 98, 319.529296875
0, 5, 99, 301.8932189941406
0, 5, 100, 291.1711120605469
0, 5, 101, 304.4664001464844
0, 5, 102, 291.7879333496094
0, 5, 103, 313.71875
0, 5, 104, 303.8147277832031
0, 5, 105, 290.9833679199219
0, 5, 106, 282.0336608886719
0, 5, 107, 291.9896850585938
0, 5, 108, 268.0036315917969
0, 5, 109, 157.3470001220703
0, 5, 110, 40.23571395874023
0, 5, 111, 20.5312442779541
0, 5, 112, 17.90117454528809
0, 5, 113, 14.23278331756592
0, 5, 114, 12.33378791809082
0, 5, 115, 7.398028373718262
0, 5, 116, 8.288783073425293
0, 5, 117, 7.561257839202881
0, 5, 118, 13.90063858032227
0, 5, 119, 7.114539623260498
0, 5, 120, 6.506381511688232
0, 5, 121, 6.455880165100098
0, 5, 122, 5.379361629486084
0, 5, 123, 6.892582416534424
0, 5, 124, 6.998085021972656
0, 5, 125, 4.490300178527832
0, 5, 126, 5.290431499481201
0, 5, 127, 3.125529289245605
0, 6, 0, 4.546582698822021
0, 6, 1, 2.918781280517578
0, 6, 2, 4.653133392333984
0, 6, 3, 5.418152332305908
0, 6, 4, 4.355189800262451
0, 6, 5, 7.109897136688232
0, 6, 6, 8.06810474395752
0, 6, 7, 5.508694171905518
0, 6, 8, 8.158368110656738
0, 6, 9, 5.888374328613281
0, 6, 10, 8.650031089782715
0, 6, 11, 9.168377876281738
0, 6, 12, 8.589138031005859
0, 6, 13, 13.2446346282959
0, 6, 14, 8.148552894592285
0, 6, 15, 17.77836036682129
0, 6, 16, 27.7761173248291
0, 6, 17, 55.18163299560547
0, 6, 18, 174.0390930175781
0, 6, 19, 275.1528625488281
0, 6, 20, 291.2838745117188
0, 6, 21, 313.5121154785156
0, 6, 22, 319.3409729003906
0, 6, 23, 307.7413940429688
0, 6, 24, 316.3001708984375
0, 6, 25, 315.389404296875
0, 6, 26, 318.1150817871094
0, 6, 27, 330.308349609375
0, 6, 28, 297.9681091308594
0, 6, 29, 328.8362731933594
0, 6, 30, 281.0339050292969
0, 6, 31, 288.1598205566406
0, 6, 32, 340.1075134277344
0, 6, 33, 299.0535278320312
0, 6, 34, 341.0647277832031
0, 6, 35, 321.0047607421875
0, 6, 36, 274.5096130371094
0, 6, 37, 289.1298217773438
0, 6, 38, 312.539306640625
0, 6, 39, 300.2484741210938
0, 6, 40, 282.4825744628906
0, 6, 41, 293.578857421875
0, 6, 42, 302.5604858398438
0, 6, 43, 287.5357971191406
0, 6, 44, 281.0790405273438
0, 6, 45, 320.9395446777344
0, 6, 46, 303.95068359375
0, 6, 47, 336.7140808105469
0, 6, 48, 292.045654296875
0, 6, 49, 310.9174499511719
0, 6, 50, 328.8699951171875
0, 6, 51, 310.1007385253906
0, 6, 52, 323.2253112792969
0, 6, 53, 328.138427734375
0, 6, 54, 302.3527526855469
0, 6, 55, 305.8426513671875
0, 6, 56, 294.8644104003906
0, 6, 57, 316.0781860351562
0, 6, 58, 261.83544921875
0, 6, 59, 303.0736694335938
0, 6, 60, 311.4255065917969
0, 6, 61, 271.5914916992188
0, 6, 62, 335.5215148925781
0, 6, 63, 323.090087890625
0, 6, 64, 291.7916564941406
0, 6, 65, 283.967529296875
0, 6, 66, 302.6239929199219
0, 6, 67, 312.5653076171875
0, 6, 68, 292.3944702148438
0, 6, 69, 277.9796447753906
0, 6, 70, 273.657470703125
0, 6, 71, 289.3438415527344
0, 6, 72, 311.0057983398438
0, 6, 73, 293.5176696777344
0, 6, 74, 330.0823059082031
0, 6, 75, 342.4679870605469
0, 6, 76, 300.6160888671875
0, 6, 77, 285.9701843261719
0, 6, 78, 278.9080810546875
0, 6, 79, 292.1529846191406
0, 6, 80, 300.2625122070312
0, 6, 81, 314.8974914550781
0, 6, 82, 322.2380981445312
0, 6, 83, 320.4080810546875
0, 6, 84, 296.7735290527344
0, 6, 85, 300.8224792480469
0, 6, 86, 329.7595520019531
0, 6, 87, 294.0260009765625
0, 6, 88, 307.5982971191406
0, 6, 89, 306.6587829589844
0, 6, 90, 301.4775085449219
0, 6, 91, 311.5592041015625
0, 6, 92, 283.4924926757812
0, 6, 93, 295.6761474609375
0, 6, 94, 273.0698852539062
0, 6, 95, 299.4566040039062
0, 6, 96, 344.4836120605469
0, 6, 97, 309.8747253417969
0, 6, 98, 302.9331970214844
0, 6, 99, 273.7850646972656
0, 6, 100, 310.6650390625
0, 6, 101, 294.5500793457031
0, 6, 102, 306.022216796875
0, 6, 103, 309.617919921875
0, 6, 104, 290.9933776855469
0, 6, 105, 302.8220520019531
0, 6, 106, 310.8394470214844
0, 6, 107, 304.2116088867188
0, 6, 108, 265.3931579589844
0, 6, 109, 185.6864166259766
0, 6, 110, 55.40573501586914
0, 6, 111, 21.20763206481934
0, 6, 112, 13.2870626449585
0, 6, 113, 11.99734878540039
0, 6, 114, 11.44661045074463
0, 6, 115, 13.74948406219482
0, 6, 116, 8.073970794677734
0, 6, 117, 6.565617084503174
0, 6, 118, 11.9351692199707
0, 6, 119, 8.190095901489258
0, 6, 120, 6.33005428314209
0, 6, 121, 5.391626358032227
0, 6, 122, 6.493934631347656
0, 6, 123, 7.292487621307373
0, 6, 124, 6.706156253814697
0, 6, 125, 7.160883903503418
0, 6, 126, 4.238892555236816
0, 6, 127, 7.64176082611084
0, 7, 0, 5.002609252929688
0, 7, 1, 5.042737007141113
0, 7, 2, 7.597980499267578
0, 7, 3, 3.204984664916992
0, 7, 4, 2.963011980056763
0, 7, 5, 3.550017595291138
0, 7, 6, 8.862481117248535
0, 7, 7, 5.636388301849365
0, 7, 8, 5.05492115020752
0, 7, 9, 4.793851852416992
0, 7, 10, 10.04230690002441
0, 7, 11, 10.51691055297852
0, 7, 12, 10.23734378814697
0, 7, 13, 12.5199031829834
0, 7, 14, 10.33420276641846
0, 7, 15, 18.96551132202148
0, 7, 16, 25.20998954772949
0, 7, 17, 97.79725646972656
0, 7, 18, 218.8471984863281
0, 7, 19, 290.126953125
0, 7, 20, 297.4445495605469
0, 7, 21, 277.3343200683594
0, 7, 22, 302.2265319824219
0, 7, 23, 291.6227722167969
0, 7, 24, 314.1260681152344
0, 7, 25, 323.9761962890625
0, 7, 26, 276.6108703613281
0, 7, 27, 298.3280639648438
0, 7, 28, 324.9877319335938
0, 7, 29, 320.7147521972656
0, 7, 30, 301.3099365234375
0, 7, 31, 278.4555969238281
0, 7, 32, 304.494384765625
0, 7, 33, 262.2738037109375
0, 7, 34, 297.9107666015625
0, 7, 35, 318.5089111328125
0, 7, 36, 330.2544555664062
0, 7, 37, 321.7220153808594
0, 7, 38, 295.3437194824219
0, 7, 39, 305.6884765625
0, 7, 40, 293.1244506835938
0, 7, 41, 272.0380554199219
0, 7, 42, 301.7092895507812
0, 7, 43, 274.8265380859375
0, 7, 44, 302.146728515625
0, 7, 45, 293.3921813964844
0, 7, 46, 281.6597900390625
0, 7, 47, 325.8190612792969
0, 7, 48, 286.6664733886719
0, 7, 49, 301.82080078125
0, 7, 50, 321.0828857421875
0, 7, 51, 298.6305541992188
0, 7, 52, 326.0088806152344
0, 7, 53, 311.9013366699219
0, 7, 54, 322.1058654785156
0, 7, 55, 306.4216918945312
0, 7, 56, 280.236328125
0, 7, 57, 280.0509948730469
0, 7, 58, 295.572509765625
0, 7, 59, 298.2460632324219
0, 7, 60, 321.8026123046875
0, 7, 61, 277.6253051757812
0, 7, 62, 299.3064880371094
0, 7, 63, 292.0534057617188
0, 7, 64, 305.5023193359375
0, 7, 65, 331.7355041503906
0, 7, 66, 315.7950744628906
0, 7, 67, 303.7529907226562
0, 7, 68, 279.4363403320312
0, 7, 69, 294.5680236816406
0, 7, 70, 300.7823486328125
0, 7, 71, 309.7542419433594
0, 7, 72, 284.2923583984375
0, 7, 73, 295.3626098632812
0, 7, 74, 343.5204467773438
0, 7, 75, 319.7682800292969
0, 7, 76, 325.0816345214844
0, 7, 77, 281.4519348144531
0, 7, 78, 301.1837768554688
0, 7, 79, 297.9305114746094
0, 7, 80, 311.042724609375
0, 7, 81, 319.1518859863281
0, 7, 82, 329.6876525878906
0, 7, 83, 316.4401245117188
0, 7, 84, 311.3284301757812
0, 7, 85, 272.0897827148438
0, 7, 86, 312.5340881347656
0, 7, 87, 309.6826171875
0, 7, 88, 305.4656372070312
0, 7, 89, 293.1911315917969
0, 7, 90, 307.3784790039062
0, 7, 91, 317.6774597167969
0, 7, 92, 289.7825012207031
0, 7, 93, 307.6462707519531
0, 7, 94, 274.3678283691406
0, 7, 95, 296.4110107421875
0, 7, 96, 330.7063293457031
0, 7, 97, 295.52880859375
0, 7, 98, 290.7189025878906
0, 7, 99, 314.4047546386719
0, 7, 100, 280.808837890625
0, 7, 101, 274.435546875
0, 7, 102, 289.6065368652344
0, 7, 103, 294.6363830566406
0, 7, 104, 273.6143188476562
0, 7, 105, 306.3710632324219
0, 7, 106, 318.45166015625
0, 7, 107, 296.2347412109375
0, 7, 108, 274.50390625
0, 7, 109, 233.9775695800781
0, 7, 110, 95.37351226806641
0, 7, 111, 23.70413589477539
0, 7, 112, 12.48415660858154
0, 7, 113, 15.27926063537598
0, 7, 114, 13.7925386428833
0, 7, 115, 10.60726261138916
0, 7, 116, 7.127572059631348
0, 7, 117, 4.926294803619385
0, 7, 118, 7.293617248535156
0, 7, 119, 7.081698894500732
0, 7, 120, 4.762532234191895
0, 7, 121, 8.457205772399902
0, 7, 122, 8.486835479736328
0, 7, 123, 4.443924427032471
0, 7, 124, 3.16435980796814
0, 7, 125, 5.867721080780029
0, 7, 126, 6.90227222442627
0, 7, 127, 3.025727987289429
0, 8, 0, 5.731715202331543
0, 8, 1, 3.92339563369751
0, 8, 2, 3.611555576324463
0, 8, 3, 1.232207894325256
0, 8, 4, 4.026543617248535
0, 8, 5, 4.832450389862061
0, 8, 6, 3.856636524200439
0, 8, 7, 4.687049388885498
0, 8, 8, 8.703494071960449
0, 8, 9, 6.000426292419434
0, 8, 10, 7.710302829742432
0, 8, 11, 12.41084098815918
0, 8, 12, 13.36712551116943
0, 8, 13, 16.67354965209961
0, 8, 14, 11.24258708953857
0, 8, 15, 18.11544418334961
0, 8, 16, 32.94726943969727
0, 8, 17, 129.8306427001953
0, 8, 18, 242.052001953125
0, 8, 19, 293.8014221191406
0, 8, 20, 284.5622253417969
0, 8, 21, 306.3909606933594
0, 8, 22, 294.8337707519531
0, 8, 23, 273.8857116699219
0, 8, 24, 269.855712890625
0, 8, 25, 276.5523376464844
0, 8, 26, 307.2041320800781
0, 8, 27, 307.896728515625
0, 8, 28, 303.8299865722656
0, 8, 29, 318.200927734375
0, 8, 30, 314.7270812988281
0, 8, 31, 302.1364440917969
0, 8, 32, 281.036865234375
0, 8, 33, 293.0856018066406
0, 8, 34, 289.0015869140625
0, 8, 35, 279.0021362304688
0, 8, 36, 315.5377502441406
0, 8, 37, 339.0079650878906
0, 8, 38, 330.779052734375
0, 8, 39, 281.2684326171875
0, 8, 40, 304.150390625
0, 8, 41, 293.1378784179688
