# TOPAS Version: 3.1.p3
# Parameter File: batch_inserts_106.txt
# Results for scorer Readout_Adipose
# Scored in component: MyBox
# X in 1 bin  of 0.75 cm
# Y in 512 bins of 0.0783984 cm
# Z in 128 bins of 0.078125 cm
# EnergyDeposit ( MeV ) : Sum   
0, 0, 0, 3.988758325576782
0, 0, 1, 1.600766658782959
0, 0, 2, 4.89344310760498
0, 0, 3, 1.960137605667114
0, 0, 4, 2.710702180862427
0, 0, 5, 1.578492403030396
0, 0, 6, 6.085965156555176
0, 0, 7, 8.449373245239258
0, 0, 8, 2.062047719955444
0, 0, 9, 3.81843900680542
0, 0, 10, 8.016215324401855
0, 0, 11, 5.64725923538208
0, 0, 12, 5.24110746383667
0, 0, 13, 6.146827697753906
0, 0, 14, 6.251324653625488
0, 0, 15, 10.46621322631836
0, 0, 16, 9.066490173339844
0, 0, 17, 9.830924987792969
0, 0, 18, 12.89157581329346
0, 0, 19, 43.85433197021484
0, 0, 20, 138.9453277587891
0, 0, 21, 223.4067840576172
0, 0, 22, 248.9672088623047
0, 0, 23, 255.8439636230469
0, 0, 24, 250.3366546630859
0, 0, 25, 257.8485717773438
0, 0, 26, 235.1945343017578
0, 0, 27, 237.7469787597656
0, 0, 28, 272.0462341308594
0, 0, 29, 252.6132049560547
0, 0, 30, 229.8853759765625
0, 0, 31, 244.2167358398438
0, 0, 32, 263.3104553222656
0, 0, 33, 260.42529296875
0, 0, 34, 288.6941833496094
0, 0, 35, 267.6163940429688
0, 0, 36, 247.0426025390625
0, 0, 37, 253.4887390136719
0, 0, 38, 269.578857421875
0, 0, 39, 229.9970855712891
0, 0, 40, 242.6179046630859
0, 0, 41, 264.7626037597656
0, 0, 42, 230.3407897949219
0, 0, 43, 258.9029846191406
0, 0, 44, 252.3024139404297
0, 0, 45, 254.1893310546875
0, 0, 46, 243.8409271240234
0, 0, 47, 253.5610198974609
0, 0, 48, 265.6281127929688
0, 0, 49, 274.2765502929688
0, 0, 50, 251.0320434570312
0, 0, 51, 255.2595672607422
0, 0, 52, 272.8410949707031
0, 0, 53, 294.0093994140625
0, 0, 54, 243.5558319091797
0, 0, 55, 240.0099334716797
0, 0, 56, 278.4559326171875
0, 0, 57, 264.205078125
0, 0, 58, 245.5701599121094
0, 0, 59, 268.7864074707031
0, 0, 60, 234.9498443603516
0, 0, 61, 245.2927093505859
0, 0, 62, 257.5793762207031
0, 0, 63, 270.1981506347656
0, 0, 64, 255.6122131347656
0, 0, 65, 261.8790893554688
0, 0, 66, 275.2922668457031
0, 0, 67, 244.5494995117188
0, 0, 68, 257.0332641601562
0, 0, 69, 260.9082641601562
0, 0, 70, 272.7545471191406
0, 0, 71, 237.7557830810547
0, 0, 72, 249.5093688964844
0, 0, 73, 260.9804077148438
0, 0, 74, 253.5814971923828
0, 0, 75, 239.2913818359375
0, 0, 76, 230.0945739746094
0, 0, 77, 262.6561584472656
0, 0, 78, 259.8544311523438
0, 0, 79, 277.588134765625
0, 0, 80, 216.8122100830078
0, 0, 81, 266.2704162597656
0, 0, 82, 255.6551055908203
0, 0, 83, 245.7606353759766
0, 0, 84, 269.7839660644531
0, 0, 85, 231.8982696533203
0, 0, 86, 252.0381927490234
0, 0, 87, 251.9483184814453
0, 0, 88, 259.7825622558594
0, 0, 89, 282.6582946777344
0, 0, 90, 242.7608795166016
0, 0, 91, 280.2803344726562
0, 0, 92, 251.5115051269531
0, 0, 93, 248.9812927246094
0, 0, 94, 248.0431518554688
0, 0, 95, 250.0704650878906
0, 0, 96, 275.6704711914062
0, 0, 97, 275.4425659179688
0, 0, 98, 274.6528930664062
0, 0, 99, 258.935302734375
0, 0, 100, 257.236572265625
0, 0, 101, 227.1485443115234
0, 0, 102, 234.4941711425781
0, 0, 103, 271.0519714355469
0, 0, 104, 254.1987152099609
0, 0, 105, 252.5242309570312
0, 0, 106, 247.2588653564453
0, 0, 107, 153.8476867675781
0, 0, 108, 38.67007064819336
0, 0, 109, 11.10517883300781
0, 0, 110, 12.25666332244873
0, 0, 111, 10.63637733459473
0, 0, 112, 7.955647468566895
0, 0, 113, 6.462119102478027
0, 0, 114, 8.784375190734863
0, 0, 115, 3.559681415557861
0, 0, 116, 4.314390182495117
0, 0, 117, 5.49285364151001
0, 0, 118, 5.989772319793701
0, 0, 119, 5.576122760772705
0, 0, 120, 3.481858015060425
0, 0, 121, 2.442034721374512
0, 0, 122, 5.287772655487061
0, 0, 123, 5.300127029418945
0, 0, 124, 5.173462867736816
0, 0, 125, 2.739228010177612
0, 0, 126, 6.302356243133545
0, 0, 127, 1.886291027069092
0, 1, 0, 7.108009815216064
0, 1, 1, 2.414843797683716
0, 1, 2, 5.067213535308838
0, 1, 3, 2.619963645935059
0, 1, 4, 5.042848587036133
0, 1, 5, 3.163072109222412
0, 1, 6, 5.649398803710938
0, 1, 7, 3.600194215774536
0, 1, 8, 8.561287879943848
0, 1, 9, 3.548524856567383
0, 1, 10, 8.522041320800781
0, 1, 11, 12.22640991210938
0, 1, 12, 8.983671188354492
0, 1, 13, 8.986433029174805
0, 1, 14, 9.671360015869141
0, 1, 15, 7.023282527923584
0, 1, 16, 13.314133644104
0, 1, 17, 10.24120616912842
0, 1, 18, 21.80713653564453
0, 1, 19, 67.76206207275391
0, 1, 20, 198.8255462646484
0, 1, 21, 254.0999603271484
0, 1, 22, 295.7291870117188
0, 1, 23, 282.4538269042969
0, 1, 24, 276.1794738769531
0, 1, 25, 290.5197143554688
0, 1, 26, 267.6405029296875
0, 1, 27, 306.1396484375
0, 1, 28, 299.6825561523438
0, 1, 29, 294.849365234375
0, 1, 30, 283.1086730957031
0, 1, 31, 290.4927978515625
0, 1, 32, 289.3755798339844
0, 1, 33, 296.2203979492188
0, 1, 34, 293.2652893066406
0, 1, 35, 278.1581420898438
0, 1, 36, 306.4474792480469
0, 1, 37, 295.1467590332031
0, 1, 38, 282.998046875
0, 1, 39, 296.7799072265625
0, 1, 40, 265.9551696777344
0, 1, 41, 286.3432312011719
0, 1, 42, 289.7131958007812
0, 1, 43, 334.0016174316406
0, 1, 44, 281.1498107910156
0, 1, 45, 293.3738403320312
0, 1, 46, 259.3335571289062
0, 1, 47, 309.2063903808594
0, 1, 48, 286.0714111328125
0, 1, 49, 301.7241516113281
0, 1, 50, 264.089599609375
0, 1, 51, 272.8982849121094
0, 1, 52, 296.5836791992188
0, 1, 53, 302.8162231445312
0, 1, 54, 273.7353515625
0, 1, 55, 294.2285461425781
0, 1, 56, 277.5073547363281
0, 1, 57, 298.0777587890625
0, 1, 58, 310.5829467773438
0, 1, 59, 290.6597290039062
0, 1, 60, 298.97412109375
0, 1, 61, 275.0278930664062
0, 1, 62, 307.2393798828125
0, 1, 63, 286.2127990722656
0, 1, 64, 287.9575500488281
0, 1, 65, 296.0621948242188
0, 1, 66, 292.9555358886719
0, 1, 67, 290.7823181152344
0, 1, 68, 278.8275756835938
0, 1, 69, 278.7078247070312
0, 1, 70, 271.5115661621094
0, 1, 71, 274.918701171875
0, 1, 72, 285.8175964355469
0, 1, 73, 303.2230834960938
0, 1, 74, 305.5762939453125
0, 1, 75, 293.1664123535156
0, 1, 76, 287.4184265136719
0, 1, 77, 289.3468933105469
0, 1, 78, 298.0035095214844
0, 1, 79, 302.2392578125
0, 1, 80, 293.3132629394531
0, 1, 81, 299.4959716796875
0, 1, 82, 283.1551208496094
0, 1, 83, 332.635498046875
0, 1, 84, 309.5912170410156
0, 1, 85, 253.5914154052734
0, 1, 86, 293.2346496582031
0, 1, 87, 289.5794067382812
0, 1, 88, 300.5882568359375
0, 1, 89, 291.1763305664062
0, 1, 90, 270.2996520996094
0, 1, 91, 317.1607055664062
0, 1, 92, 293.5213928222656
0, 1, 93, 285.5496826171875
0, 1, 94, 304.3454895019531
0, 1, 95, 284.2835388183594
0, 1, 96, 283.3226318359375
0, 1, 97, 302.4030456542969
0, 1, 98, 277.5921020507812
0, 1, 99, 266.8326110839844
0, 1, 100, 276.3774719238281
0, 1, 101, 281.1965026855469
0, 1, 102, 277.2337646484375
0, 1, 103, 283.1081237792969
0, 1, 104, 309.1933288574219
0, 1, 105, 297.359130859375
0, 1, 106, 259.8332214355469
0, 1, 107, 192.1023864746094
0, 1, 108, 84.09281921386719
0, 1, 109, 23.970703125
0, 1, 110, 11.40518093109131
0, 1, 111, 9.612729072570801
0, 1, 112, 12.5359058380127
0, 1, 113, 7.634555816650391
0, 1, 114, 6.275216579437256
0, 1, 115, 5.583359718322754
0, 1, 116, 13.45412254333496
0, 1, 117, 7.506524085998535
0, 1, 118, 6.478714466094971
0, 1, 119, 8.189723968505859
0, 1, 120, 6.988875865936279
0, 1, 121, 3.461490869522095
0, 1, 122, 3.687835216522217
0, 1, 123, 3.304923534393311
0, 1, 124, 8.905534744262695
0, 1, 125, 4.731478691101074
0, 1, 126, 4.379602909088135
0, 1, 127, 1.172746539115906
0, 2, 0, 5.251792907714844
0, 2, 1, 1.785322666168213
0, 2, 2, 3.241493225097656
0, 2, 3, 5.13123083114624
0, 2, 4, 2.188670635223389
0, 2, 5, 1.708055973052979
0, 2, 6, 2.521002054214478
0, 2, 7, 4.023513793945312
0, 2, 8, 5.790724754333496
0, 2, 9, 4.724622249603271
0, 2, 10, 8.086986541748047
0, 2, 11, 5.456323146820068
0, 2, 12, 6.925500869750977
0, 2, 13, 9.652298927307129
0, 2, 14, 9.149307250976562
0, 2, 15, 8.266246795654297
0, 2, 16, 9.776680946350098
0, 2, 17, 15.51567840576172
0, 2, 18, 30.98551368713379
0, 2, 19, 115.9867401123047
0, 2, 20, 245.9952545166016
0, 2, 21, 270.7740783691406
0, 2, 22, 315.3385314941406
0, 2, 23, 300.1074829101562
0, 2, 24, 286.3016357421875
0, 2, 25, 305.7530212402344
0, 2, 26, 293.5527954101562
0, 2, 27, 275.9265441894531
0, 2, 28, 272.5958251953125
0, 2, 29, 274.2145385742188
0, 2, 30, 291.9168701171875
0, 2, 31, 276.5487365722656
0, 2, 32, 293.3723754882812
0, 2, 33, 282.1571655273438
0, 2, 34, 333.5640258789062
0, 2, 35, 288.3775634765625
0, 2, 36, 303.7315368652344
0, 2, 37, 314.776123046875
0, 2, 38, 311.556884765625
0, 2, 39, 267.78515625
0, 2, 40, 307.8847351074219
0, 2, 41, 293.388916015625
0, 2, 42, 305.1806335449219
0, 2, 43, 312.8341979980469
0, 2, 44, 311.9104919433594
0, 2, 45, 323.9105834960938
0, 2, 46, 287.362060546875
0, 2, 47, 302.4778137207031
0, 2, 48, 282.1500244140625
0, 2, 49, 279.5232238769531
0, 2, 50, 295.3575744628906
0, 2, 51, 281.5553894042969
0, 2, 52, 271.8924865722656
0, 2, 53, 288.1747131347656
0, 2, 54, 278.8453369140625
0, 2, 55, 274.9549255371094
0, 2, 56, 301.3732604980469
0, 2, 57, 293.2522583007812
0, 2, 58, 302.0538330078125
0, 2, 59, 291.2485961914062
0, 2, 60, 318.3602905273438
0, 2, 61, 301.1092834472656
0, 2, 62, 315.1831359863281
0, 2, 63, 301.7127990722656
0, 2, 64, 295.3961181640625
0, 2, 65, 313.8206787109375
0, 2, 66, 280.5562744140625
0, 2, 67, 290.8198852539062
0, 2, 68, 295.7020874023438
0, 2, 69, 311.5467834472656
0, 2, 70, 337.0486145019531
0, 2, 71, 282.3977355957031
0, 2, 72, 299.1177368164062
0, 2, 73, 310.5600891113281
0, 2, 74, 285.5932312011719
0, 2, 75, 305.048583984375
0, 2, 76, 287.5723266601562
0, 2, 77, 298.98193359375
0, 2, 78, 314.4022216796875
0, 2, 79, 307.8960876464844
0, 2, 80, 294.02099609375
0, 2, 81, 281.0079040527344
0, 2, 82, 319.7328796386719
0, 2, 83, 312.2970886230469
0, 2, 84, 287.5956420898438
0, 2, 85, 282.0662536621094
0, 2, 86, 326.900390625
0, 2, 87, 288.0960998535156
0, 2, 88, 279.438232421875
0, 2, 89, 295.2300720214844
0, 2, 90, 295.5393676757812
0, 2, 91, 276.4456176757812
0, 2, 92, 306.19384765625
0, 2, 93, 316.9202270507812
0, 2, 94, 291.8493957519531
0, 2, 95, 318.1711120605469
0, 2, 96, 316.2312316894531
0, 2, 97, 291.5169982910156
0, 2, 98, 294.2572937011719
0, 2, 99, 273.6452331542969
0, 2, 100, 306.5406494140625
0, 2, 101, 303.0320129394531
0, 2, 102, 295.3204956054688
0, 2, 103, 291.4425659179688
0, 2, 104, 292.2535400390625
0, 2, 105, 273.5406799316406
0, 2, 106, 296.8357238769531
0, 2, 107, 268.6412658691406
0, 2, 108, 115.5776977539062
0, 2, 109, 33.27849960327148
0, 2, 110, 9.69575309753418
0, 2, 111, 10.98831462860107
0, 2, 112, 7.864543437957764
0, 2, 113, 13.88659572601318
0, 2, 114, 11.57402992248535
0, 2, 115, 10.61242198944092
0, 2, 116, 8.154478073120117
0, 2, 117, 7.646662712097168
0, 2, 118, 3.141940355300903
0, 2, 119, 3.733940362930298
0, 2, 120, 4.837506771087646
0, 2, 121, 2.87823224067688
0, 2, 122, 5.677031993865967
0, 2, 123, 3.727954626083374
0, 2, 124, 3.511434555053711
0, 2, 125, 5.236330032348633
0, 2, 126, 3.618446588516235
0, 2, 127, 6.769589424133301
0, 3, 0, 3.15274977684021
0, 3, 1, 3.656078815460205
0, 3, 2, 4.114183902740479
0, 3, 3, 2.537283420562744
0, 3, 4, 3.249650239944458
0, 3, 5, 7.427463054656982
0, 3, 6, 6.39173412322998
0, 3, 7, 4.831070899963379
0, 3, 8, 5.175301074981689
0, 3, 9, 5.867959976196289
0, 3, 10, 6.737943649291992
0, 3, 11, 5.957096099853516
0, 3, 12, 6.830304145812988
0, 3, 13, 15.49203395843506
0, 3, 14, 10.79702472686768
0, 3, 15, 13.9050407409668
0, 3, 16, 11.42992782592773
0, 3, 17, 20.57301712036133
0, 3, 18, 51.48067474365234
0, 3, 19, 175.4128875732422
0, 3, 20, 270.52490234375
0, 3, 21, 271.2754211425781
0, 3, 22, 283.7148132324219
0, 3, 23, 285.2669677734375
0, 3, 24, 285.7754516601562
0, 3, 25, 271.2705688476562
0, 3, 26, 304.3743896484375
0, 3, 27, 291.568603515625
0, 3, 28, 282.6158142089844
0, 3, 29, 337.8190002441406
0, 3, 30, 316.2862854003906
0, 3, 31, 286.3355407714844
0, 3, 32, 305.9854736328125
0, 3, 33, 314.7528076171875
0, 3, 34, 321.037109375
0, 3, 35, 304.5733642578125
0, 3, 36, 269.4410095214844
0, 3, 37, 311.5525207519531
0, 3, 38, 302.7992248535156
0, 3, 39, 290.0364074707031
0, 3, 40, 268.6445617675781
0, 3, 41, 300.4100952148438
0, 3, 42, 289.1029357910156
0, 3, 43, 304.8238830566406
0, 3, 44, 311.317626953125
0, 3, 45, 289.0552978515625
0, 3, 46, 329.505126953125
0, 3, 47, 298.1861877441406
0, 3, 48, 301.7667236328125
0, 3, 49, 277.29931640625
0, 3, 50, 290.1927490234375
0, 3, 51, 275.0989685058594
0, 3, 52, 314.7533569335938
0, 3, 53, 285.7038269042969
0, 3, 54, 287.0137023925781
0, 3, 55, 287.0232849121094
0, 3, 56, 297.96240234375
0, 3, 57, 291.3899841308594
0, 3, 58, 305.0647277832031
0, 3, 59, 294.7445373535156
0, 3, 60, 299.1988830566406
0, 3, 61, 264.0723876953125
0, 3, 62, 286.7853698730469
0, 3, 63, 305.3380432128906
0, 3, 64, 315.5044860839844
0, 3, 65, 306.3142395019531
0, 3, 66, 314.4561462402344
0, 3, 67, 318.7197570800781
0, 3, 68, 280.8119201660156
0, 3, 69, 283.2252502441406
0, 3, 70, 289.3989868164062
0, 3, 71, 299.1165466308594
0, 3, 72, 269.9052734375
0, 3, 73, 310.5230102539062
0, 3, 74, 291.4036865234375
0, 3, 75, 288.8137817382812
0, 3, 76, 304.7301940917969
0, 3, 77, 315.3314514160156
0, 3, 78, 304.006103515625
0, 3, 79, 281.5164794921875
0, 3, 80, 289.5045166015625
0, 3, 81, 312.86181640625
0, 3, 82, 316.4209594726562
0, 3, 83, 301.0950012207031
0, 3, 84, 311.5912475585938
0, 3, 85, 294.9559020996094
0, 3, 86, 302.1508178710938
0, 3, 87, 300.7593078613281
0, 3, 88, 298.5564270019531
0, 3, 89, 297.0683898925781
0, 3, 90, 279.7134399414062
0, 3, 91, 284.1419067382812
0, 3, 92, 305.628662109375
0, 3, 93, 312.1087036132812
0, 3, 94, 298.9023742675781
0, 3, 95, 334.8763427734375
0, 3, 96, 291.8493041992188
0, 3, 97, 282.6679992675781
0, 3, 98, 277.5986022949219
0, 3, 99, 262.2434387207031
0, 3, 100, 284.8627624511719
0, 3, 101, 298.80224609375
0, 3, 102, 275.2533569335938
0, 3, 103, 319.6895141601562
0, 3, 104, 308.3204345703125
0, 3, 105, 287.5988159179688
0, 3, 106, 302.1357116699219
0, 3, 107, 281.2454223632812
0, 3, 108, 166.9649658203125
0, 3, 109, 57.92662048339844
0, 3, 110, 17.40681076049805
0, 3, 111, 13.43378353118896
0, 3, 112, 14.21160221099854
0, 3, 113, 9.768776893615723
0, 3, 114, 8.0899658203125
0, 3, 115, 6.532384395599365
0, 3, 116, 12.20896148681641
0, 3, 117, 6.711750507354736
0, 3, 118, 6.522368907928467
0, 3, 119, 5.613261699676514
0, 3, 120, 7.965044498443604
0, 3, 121, 3.272930383682251
0, 3, 122, 3.715885400772095
0, 3, 123, 5.031238555908203
0, 3, 124, 5.55040979385376
0, 3, 125, 6.078111171722412
0, 3, 126, 4.692339897155762
0, 3, 127, 2.099732398986816
0, 4, 0, 4.038817405700684
0, 4, 1, 6.109991073608398
0, 4, 2, 2.770968675613403
0, 4, 3, 4.316939353942871
0, 4, 4, 6.322821140289307
0, 4, 5, 7.333065032958984
0, 4, 6, 7.02155065536499
0, 4, 7, 4.752147197723389
0, 4, 8, 3.994171857833862
0, 4, 9, 6.741996765136719
0, 4, 10, 5.318532466888428
0, 4, 11, 6.518813610076904
0, 4, 12, 7.245001792907715
0, 4, 13, 8.483027458190918
0, 4, 14, 14.77609157562256
0, 4, 15, 9.048922538757324
0, 4, 16, 15.35357093811035
0, 4, 17, 19.2862548828125
0, 4, 18, 94.14275360107422
0, 4, 19, 221.5184020996094
0, 4, 20, 284.7360534667969
0, 4, 21, 272.7522583007812
0, 4, 22, 304.7164611816406
0, 4, 23, 266.1700744628906
0, 4, 24, 289.5238037109375
0, 4, 25, 272.8938598632812
0, 4, 26, 297.7087097167969
0, 4, 27, 282.7371826171875
0, 4, 28, 308.1958312988281
0, 4, 29, 324.1469116210938
0, 4, 30, 310.8428649902344
0, 4, 31, 303.2409057617188
0, 4, 32, 280.7769470214844
0, 4, 33, 296.7406311035156
0, 4, 34, 300.0782470703125
0, 4, 35, 311.8350524902344
0, 4, 36, 292.0977478027344
0, 4, 37, 289.2546691894531
0, 4, 38, 300.3196105957031
0, 4, 39, 297.2262878417969
0, 4, 40, 302.2153625488281
0, 4, 41, 312.6643981933594
0, 4, 42, 329.7322692871094
0, 4, 43, 295.549560546875
0, 4, 44, 322.5950927734375
0, 4, 45, 325.1287536621094
0, 4, 46, 306.9656372070312
0, 4, 47, 293.1442565917969
0, 4, 48, 293.8564147949219
0, 4, 49, 277.0531311035156
0, 4, 50, 298.3434143066406
0, 4, 51, 315.1207580566406
0, 4, 52, 327.2285461425781
0, 4, 53, 304.583251953125
0, 4, 54, 290.903076171875
0, 4, 55, 315.3206787109375
0, 4, 56, 287.1162109375
0, 4, 57, 313.4138488769531
0, 4, 58, 294.0625
0, 4, 59, 309.217041015625
0, 4, 60, 301.577392578125
0, 4, 61, 317.0780944824219
0, 4, 62, 306.2004089355469
0, 4, 63, 297.1638488769531
0, 4, 64, 330.4340515136719
0, 4, 65, 318.3503723144531
0, 4, 66, 295.0041198730469
0, 4, 67, 284.0936279296875
0, 4, 68, 313.723388671875
0, 4, 69, 275.2472229003906
0, 4, 70, 300.8642578125
0, 4, 71, 321.4806823730469
0, 4, 72, 334.5999450683594
0, 4, 73, 298.3919982910156
0, 4, 74, 295.5168762207031
0, 4, 75, 288.2034912109375
0, 4, 76, 277.2420959472656
0, 4, 77, 277.0390625
0, 4, 78, 307.3510437011719
0, 4, 79, 319.0222778320312
0, 4, 80, 316.1626586914062
0, 4, 81, 313.5144653320312
0, 4, 82, 297.3606872558594
0, 4, 83, 301.6637573242188
0, 4, 84, 293.08544921875
0, 4, 85, 293.9552917480469
0, 4, 86, 297.4746398925781
0, 4, 87, 285.1330871582031
0, 4, 88, 306.5025939941406
0, 4, 89, 294.6844787597656
0, 4, 90, 332.5399475097656
0, 4, 91, 301.5116271972656
0, 4, 92, 290.1038513183594
0, 4, 93, 297.453369140625
0, 4, 94, 292.3724060058594
0, 4, 95, 289.4696350097656
0, 4, 96, 326.3849182128906
0, 4, 97, 274.3287658691406
0, 4, 98, 327.0874938964844
0, 4, 99, 312.7192077636719
0, 4, 100, 300.1307678222656
0, 4, 101, 255.5237274169922
0, 4, 102, 296.5645141601562
0, 4, 103, 316.5243530273438
0, 4, 104, 281.2124938964844
0, 4, 105, 311.6149597167969
0, 4, 106, 286.3915100097656
0, 4, 107, 297.0807189941406
0, 4, 108, 224.7633361816406
0, 4, 109, 79.96773529052734
0, 4, 110, 16.7064094543457
0, 4, 111, 15.25104808807373
0, 4, 112, 7.114474773406982
0, 4, 113, 10.02220726013184
0, 4, 114, 7.516129970550537
0, 4, 115, 10.59643173217773
0, 4, 116, 7.531946659088135
0, 4, 117, 6.440183639526367
0, 4, 118, 8.879177093505859
0, 4, 119, 9.560245513916016
0, 4, 120, 8.077986717224121
0, 4, 121, 4.081688404083252
0, 4, 122, 4.534334659576416
0, 4, 123, 5.673233032226562
0, 4, 124, 4.304834842681885
0, 4, 125, 8.413169860839844
0, 4, 126, 5.499393463134766
0, 4, 127, 5.178338527679443
0, 5, 0, 3.573456764221191
0, 5, 1, 4.238523006439209
0, 5, 2, 5.222716331481934
0, 5, 3, 5.192110538482666
0, 5, 4, 5.746054172515869
0, 5, 5, 6.697145938873291
0, 5, 6, 9.125866889953613
0, 5, 7, 4.812530040740967
0, 5, 8, 2.989578485488892
0, 5, 9, 5.638756275177002
0, 5, 10, 7.323561668395996
0, 5, 11, 8.844298362731934
0, 5, 12, 9.432518005371094
0, 5, 13, 4.218522548675537
0, 5, 14, 15.29966831207275
0, 5, 15, 17.31880760192871
0, 5, 16, 14.06850624084473
0, 5, 17, 27.86934280395508
0, 5, 18, 136.340087890625
0, 5, 19, 287.9695434570312
0, 5, 20, 306.1490783691406
0, 5, 21, 317.1693420410156
0, 5, 22, 278.1080627441406
0, 5, 23, 313.2429809570312
0, 5, 24, 302.3424072265625
0, 5, 25, 288.2481079101562
0, 5, 26, 295.3767700195312
0, 5, 27, 321.5611877441406
0, 5, 28, 303.6180725097656
0, 5, 29, 299.1664428710938
0, 5, 30, 327.4335632324219
0, 5, 31, 286.4470825195312
0, 5, 32, 302.1113586425781
0, 5, 33, 303.4630432128906
0, 5, 34, 296.2197570800781
0, 5, 35, 308.7903442382812
0, 5, 36, 272.3067016601562
0, 5, 37, 282.7110900878906
0, 5, 38, 292.8040771484375
0, 5, 39, 314.0789489746094
0, 5, 40, 309.2567443847656
0, 5, 41, 271.8179016113281
0, 5, 42, 303.3336181640625
0, 5, 43, 315.0750122070312
0, 5, 44, 291.7467651367188
0, 5, 45, 299.9974670410156
0, 5, 46, 264.7470397949219
0, 5, 47, 279.3934631347656
0, 5, 48, 293.5509338378906
0, 5, 49, 284.9749755859375
0, 5, 50, 296.5498352050781
0, 5, 51, 280.4842834472656
0, 5, 52, 268.0381164550781
0, 5, 53, 287.3861694335938
0, 5, 54, 293.1245727539062
0, 5, 55, 345.2944641113281
0, 5, 56, 305.8737182617188
0, 5, 57, 307.7584838867188
0, 5, 58, 312.1856079101562
0, 5, 59, 304.17919921875
0, 5, 60, 307.8595581054688
0, 5, 61, 281.0958251953125
0, 5, 62, 322.9108581542969
0, 5, 63, 290.9771423339844
0, 5, 64, 323.0221862792969
0, 5, 65, 306.2038269042969
0, 5, 66, 326.7664184570312
0, 5, 67, 312.2750244140625
0, 5, 68, 308.9860229492188
0, 5, 69, 311.5529174804688
0, 5, 70, 299.9915771484375
0, 5, 71, 271.2423706054688
0, 5, 72, 309.3861389160156
0, 5, 73, 302.6740112304688
0, 5, 74, 296.1081848144531
0, 5, 75, 297.0833129882812
0, 5, 76, 286.1913146972656
0, 5, 77, 298.5601196289062
0, 5, 78, 314.6809997558594
0, 5, 79, 306.5514526367188
0, 5, 80, 295.3123168945312
0, 5, 81, 325.8782653808594
0, 5, 82, 324.5120544433594
0, 5, 83, 282.1385498046875
0, 5, 84, 303.0909423828125
0, 5, 85, 270.9395751953125
0, 5, 86, 325.1353454589844
0, 5, 87, 286.3231811523438
0, 5, 88, 313.6249389648438
0, 5, 89, 306.5111694335938
0, 5, 90, 314.477783203125
0, 5, 91, 315.730712890625
0, 5, 92, 297.6949462890625
0, 5, 93, 324.8480529785156
0, 5, 94, 306.1957702636719
0, 5, 95, 297.2236633300781
0, 5, 96, 295.1123657226562
0, 5, 97, 295.9835815429688
0, 5, 98, 318.1307678222656
0, 5, 99, 304.5388793945312
0, 5, 100, 289.7279663085938
0, 5, 101, 305.3153991699219
0, 5, 102, 292.5680236816406
0, 5, 103, 312.0357971191406
0, 5, 104, 305.3579406738281
0, 5, 105, 290.4225769042969
0, 5, 106, 281.1288452148438
0, 5, 107, 292.4497985839844
0, 5, 108, 264.5156555175781
0, 5, 109, 156.6753997802734
0, 5, 110, 39.60924530029297
0, 5, 111, 21.6975040435791
0, 5, 112, 16.32919311523438
0, 5, 113, 13.56228637695312
0, 5, 114, 13.92177772521973
0, 5, 115, 9.083247184753418
0, 5, 116, 6.470481872558594
0, 5, 117, 6.39042854309082
0, 5, 118, 15.08086967468262
0, 5, 119, 3.189384460449219
0, 5, 120, 6.110898017883301
0, 5, 121, 6.389851570129395
0, 5, 122, 4.639957427978516
0, 5, 123, 4.110360622406006
0, 5, 124, 6.799928188323975
0, 5, 125, 4.147002220153809
0, 5, 126, 5.055144786834717
0, 5, 127, 3.292472124099731
0, 6, 0, 3.165172815322876
0, 6, 1, 3.262466192245483
0, 6, 2, 4.416281700134277
0, 6, 3, 4.230898380279541
0, 6, 4, 3.831502199172974
0, 6, 5, 5.477509021759033
0, 6, 6, 8.369190216064453
0, 6, 7, 6.021321773529053
0, 6, 8, 9.148332595825195
0, 6, 9, 7.04203462600708
0, 6, 10, 9.987302780151367
0, 6, 11, 7.850775241851807
0, 6, 12, 8.30186653137207
0, 6, 13, 13.21857643127441
0, 6, 14, 8.712451934814453
0, 6, 15, 15.85933971405029
0, 6, 16, 28.28629112243652
0, 6, 17, 56.66043090820312
0, 6, 18, 174.5536346435547
0, 6, 19, 278.2898559570312
0, 6, 20, 290.1697692871094
0, 6, 21, 314.6659851074219
0, 6, 22, 321.8282470703125
0, 6, 23, 305.6343078613281
0, 6, 24, 316.874267578125
0, 6, 25, 316.1781616210938
0, 6, 26, 319.3957214355469
0, 6, 27, 330.8474731445312
0, 6, 28, 297.0538024902344
0, 6, 29, 330.7033081054688
0, 6, 30, 280.5274047851562
0, 6, 31, 285.9911193847656
0, 6, 32, 343.1669616699219
0, 6, 33, 301.9398498535156
0, 6, 34, 339.9316101074219
0, 6, 35, 320.8150634765625
0, 6, 36, 273.7051086425781
0, 6, 37, 291.6258544921875
0, 6, 38, 313.3924560546875
0, 6, 39, 302.4580078125
0, 6, 40, 285.6353149414062
0, 6, 41, 295.3327026367188
0, 6, 42, 306.9682922363281
0, 6, 43, 289.4624938964844
0, 6, 44, 279.5559997558594
0, 6, 45, 320.4869384765625
0, 6, 46, 300.5096740722656
0, 6, 47, 334.4107360839844
0, 6, 48, 293.0619506835938
0, 6, 49, 312.0687561035156
0, 6, 50, 328.9464416503906
0, 6, 51, 312.2351684570312
0, 6, 52, 322.8329162597656
0, 6, 53, 327.2283325195312
0, 6, 54, 303.8515625
0, 6, 55, 306.3667907714844
0, 6, 56, 294.0045776367188
0, 6, 57, 313.309814453125
0, 6, 58, 263.9325561523438
0, 6, 59, 302.4707336425781
0, 6, 60, 312.4237670898438
0, 6, 61, 274.4966735839844
0, 6, 62, 337.5282897949219
0, 6, 63, 324.8975524902344
0, 6, 64, 291.4212951660156
0, 6, 65, 284.6673889160156
0, 6, 66, 305.9562072753906
0, 6, 67, 310.6089782714844
0, 6, 68, 293.3555603027344
0, 6, 69, 280.2108459472656
0, 6, 70, 274.7109375
0, 6, 71, 289.9053344726562
0, 6, 72, 310.2776184082031
0, 6, 73, 291.6393432617188
0, 6, 74, 330.5679931640625
0, 6, 75, 341.5874938964844
0, 6, 76, 295.6531372070312
0, 6, 77, 287.9241333007812
0, 6, 78, 284.7013549804688
0, 6, 79, 297.300537109375
0, 6, 80, 299.5155334472656
0, 6, 81, 315.81201171875
0, 6, 82, 319.4648742675781
0, 6, 83, 321.9588928222656
0, 6, 84, 295.3856506347656
0, 6, 85, 301.2817687988281
0, 6, 86, 329.6314392089844
0, 6, 87, 290.9574584960938
0, 6, 88, 308.1113586425781
0, 6, 89, 305.5816040039062
0, 6, 90, 298.7355346679688
0, 6, 91, 314.2787780761719
0, 6, 92, 286.9152221679688
0, 6, 93, 292.8615112304688
0, 6, 94, 272.7221984863281
0, 6, 95, 298.4110412597656
0, 6, 96, 347.4315185546875
0, 6, 97, 307.737060546875
0, 6, 98, 300.8414916992188
0, 6, 99, 272.6574401855469
0, 6, 100, 310.2437744140625
0, 6, 101, 292.8350524902344
0, 6, 102, 309.0597839355469
0, 6, 103, 307.9738159179688
0, 6, 104, 291.9842834472656
0, 6, 105, 302.3375244140625
0, 6, 106, 306.1507873535156
0, 6, 107, 305.80419921875
0, 6, 108, 265.9459838867188
0, 6, 109, 185.3198089599609
0, 6, 110, 54.62217330932617
0, 6, 111, 21.98796463012695
0, 6, 112, 13.10955905914307
0, 6, 113, 10.16916561126709
0, 6, 114, 12.59790420532227
0, 6, 115, 10.45412158966064
0, 6, 116, 8.667379379272461
0, 6, 117, 8.869809150695801
0, 6, 118, 7.969931602478027
0, 6, 119, 8.380596160888672
0, 6, 120, 5.12520694732666
0, 6, 121, 7.830587863922119
0, 6, 122, 7.282283306121826
0, 6, 123, 4.561310291290283
0, 6, 124, 5.509325981140137
0, 6, 125, 6.05805778503418
0, 6, 126, 4.176063537597656
0, 6, 127, 7.199833393096924
0, 7, 0, 8.673022270202637
0, 7, 1, 3.580414772033691
0, 7, 2, 4.987845420837402
0, 7, 3, 6.318339824676514
0, 7, 4, 5.097148895263672
0, 7, 5, 3.426084041595459
0, 7, 6, 5.559096336364746
0, 7, 7, 5.543251037597656
0, 7, 8, 6.166378021240234
0, 7, 9, 8.267790794372559
0, 7, 10, 7.484017848968506
0, 7, 11, 11.96025466918945
0, 7, 12, 8.68181324005127
0, 7, 13, 11.87573719024658
0, 7, 14, 10.06890201568604
0, 7, 15, 17.2377872467041
0, 7, 16, 26.9887866973877
0, 7, 17, 97.1590576171875
0, 7, 18, 218.5878448486328
0, 7, 19, 290.4563598632812
0, 7, 20, 298.4347534179688
0, 7, 21, 276.4996948242188
0, 7, 22, 299.385986328125
0, 7, 23, 288.4432983398438
0, 7, 24, 312.621337890625
0, 7, 25, 326.6220703125
0, 7, 26, 279.0091552734375
0, 7, 27, 298.1979675292969
0, 7, 28, 324.6588439941406
0, 7, 29, 316.6720581054688
0, 7, 30, 297.2354431152344
0, 7, 31, 277.0298156738281
0, 7, 32, 305.2948913574219
0, 7, 33, 264.2689819335938
0, 7, 34, 299.0135498046875
0, 7, 35, 320.3013305664062
0, 7, 36, 332.4873657226562
0, 7, 37, 322.2515869140625
0, 7, 38, 297.0042419433594
0, 7, 39, 307.7800903320312
0, 7, 40, 288.1654968261719
0, 7, 41, 272.1455078125
0, 7, 42, 301.6206970214844
0, 7, 43, 276.7620544433594
0, 7, 44, 304.767822265625
0, 7, 45, 295.2283020019531
0, 7, 46, 282.271240234375
0, 7, 47, 328.9479370117188
0, 7, 48, 284.9855346679688
0, 7, 49, 304.6182556152344
0, 7, 50, 322.2403564453125
0, 7, 51, 298.8970336914062
0, 7, 52, 325.7994384765625
0, 7, 53, 309.3934631347656
0, 7, 54, 323.2586059570312
0, 7, 55, 306.4977416992188
0, 7, 56, 280.4836730957031
0, 7, 57, 285.1587219238281
0, 7, 58, 295.5845031738281
0, 7, 59, 293.4523620605469
0, 7, 60, 323.1257629394531
0, 7, 61, 277.7998352050781
0, 7, 62, 296.1221923828125
0, 7, 63, 295.4521179199219
0, 7, 64, 306.3069152832031
0, 7, 65, 330.7199401855469
0, 7, 66, 316.3782043457031
0, 7, 67, 302.4365234375
0, 7, 68, 280.3162841796875
0, 7, 69, 294.4692687988281
0, 7, 70, 302.1609497070312
0, 7, 71, 310.6568298339844
0, 7, 72, 284.9389038085938
0, 7, 73, 294.5807189941406
0, 7, 74, 345.7688903808594
0, 7, 75, 319.5943603515625
0, 7, 76, 322.7250366210938
0, 7, 77, 279.4473876953125
0, 7, 78, 298.9518737792969
0, 7, 79, 300.5272216796875
0, 7, 80, 310.0926208496094
0, 7, 81, 320.522705078125
0, 7, 82, 329.7010192871094
0, 7, 83, 316.62353515625
0, 7, 84, 309.4323425292969
0, 7, 85, 273.2401428222656
0, 7, 86, 311.953857421875
0, 7, 87, 310.0990295410156
0, 7, 88, 310.0072326660156
0, 7, 89, 293.2620544433594
0, 7, 90, 306.3634338378906
0, 7, 91, 314.806884765625
0, 7, 92, 289.9180603027344
0, 7, 93, 307.8267211914062
0, 7, 94, 272.7788391113281
0, 7, 95, 296.7410278320312
0, 7, 96, 330.621826171875
0, 7, 97, 293.9082641601562
0, 7, 98, 291.755126953125
0, 7, 99, 315.0965881347656
0, 7, 100, 282.6654052734375
0, 7, 101, 274.3646240234375
0, 7, 102, 292.2366333007812
0, 7, 103, 293.6653137207031
0, 7, 104, 275.0704040527344
0, 7, 105, 306.2469787597656
0, 7, 106, 318.5826110839844
0, 7, 107, 297.6217346191406
0, 7, 108, 274.3320922851562
0, 7, 109, 236.6265411376953
0, 7, 110, 95.78867340087891
0, 7, 111, 24.99686050415039
0, 7, 112, 13.562424659729
0, 7, 113, 13.7998743057251
0, 7, 114, 11.42951583862305
0, 7, 115, 11.98553848266602
0, 7, 116, 9.252023696899414
0, 7, 117, 5.429322242736816
0, 7, 118, 8.82077693939209
0, 7, 119, 7.312644481658936
0, 7, 120, 6.009849548339844
0, 7, 121, 5.694767951965332
0, 7, 122, 5.925691604614258
0, 7, 123, 7.080744743347168
0, 7, 124, 4.170066833496094
0, 7, 125, 7.041274547576904
0, 7, 126, 7.519852638244629
0, 7, 127, 2.574197769165039
0, 8, 0, 5.618168830871582
0, 8, 1, 4.770224571228027
0, 8, 2, 2.779206275939941
0, 8, 3, 3.529124975204468
0, 8, 4, 2.558058977127075
0, 8, 5, 4.61051082611084
0, 8, 6, 4.482537269592285
0, 8, 7, 6.128700256347656
0, 8, 8, 8.83711051940918
0, 8, 9, 4.072440147399902
0, 8, 10, 6.475996494293213
0, 8, 11, 10.49952507019043
0, 8, 12, 14.62841033935547
0, 8, 13, 15.1407527923584
0, 8, 14, 13.58676338195801
0, 8, 15, 18.58478355407715
0, 8, 16, 33.44992446899414
0, 8, 17, 130.5223083496094
0, 8, 18, 244.2264862060547
0, 8, 19, 295.669189453125
0, 8, 20, 285.6047668457031
0, 8, 21, 305.5400085449219
0, 8, 22, 297.1709594726562
0, 8, 23, 273.8875732421875
0, 8, 24, 270.2488708496094
0, 8, 25, 277.4861755371094
0, 8, 26, 304.9449462890625
0, 8, 27, 308.6346435546875
0, 8, 28, 305.6807861328125
0, 8, 29, 319.6268615722656
0, 8, 30, 318.7953186035156
0, 8, 31, 307.8372802734375
0, 8, 32, 281.3493041992188
0, 8, 33, 294.749755859375
0, 8, 34, 287.5377197265625
0, 8, 35, 282.5084228515625
0, 8, 36, 317.1990356445312
0, 8, 37, 337.4947204589844
0, 8, 38, 332.7141418457031
0, 8, 39, 280.0678100585938
