# TOPAS Version: 3.1.p3
# Parameter File: batch_inserts_42.txt
# Results for scorer Readout_Adipose
# Scored in component: MyBox
# X in 1 bin  of 0.75 cm
# Y in 512 bins of 0.0783984 cm
# Z in 128 bins of 0.078125 cm
# EnergyDeposit ( MeV ) : Sum   
0, 0, 0, 2.732108354568481
0, 0, 1, 2.848862171173096
0, 0, 2, 3.835339069366455
0, 0, 3, 1.553640484809875
0, 0, 4, 3.507138729095459
0, 0, 5, 2.1254723072052
0, 0, 6, 6.682489395141602
0, 0, 7, 11.02010440826416
0, 0, 8, 3.652054071426392
0, 0, 9, 3.539228439331055
0, 0, 10, 6.321525573730469
0, 0, 11, 4.213014602661133
0, 0, 12, 3.894176006317139
0, 0, 13, 4.672624588012695
0, 0, 14, 6.75117826461792
0, 0, 15, 11.90439510345459
0, 0, 16, 8.369400978088379
0, 0, 17, 8.956867218017578
0, 0, 18, 13.21245765686035
0, 0, 19, 43.29020309448242
0, 0, 20, 139.4325103759766
0, 0, 21, 222.7871551513672
0, 0, 22, 248.7666015625
0, 0, 23, 255.9338531494141
0, 0, 24, 252.6142883300781
0, 0, 25, 258.6050109863281
0, 0, 26, 234.3359985351562
0, 0, 27, 236.2744598388672
0, 0, 28, 272.7142333984375
0, 0, 29, 252.1444244384766
0, 0, 30, 228.7947082519531
0, 0, 31, 243.6359710693359
0, 0, 32, 263.8915405273438
0, 0, 33, 260.8224487304688
0, 0, 34, 287.0850219726562
0, 0, 35, 266.0784606933594
0, 0, 36, 247.9122009277344
0, 0, 37, 251.6097412109375
0, 0, 38, 267.8145141601562
0, 0, 39, 229.6384887695312
0, 0, 40, 240.98876953125
0, 0, 41, 267.5433959960938
0, 0, 42, 229.6106872558594
0, 0, 43, 258.7666320800781
0, 0, 44, 251.4996795654297
0, 0, 45, 252.9894409179688
0, 0, 46, 244.0757751464844
0, 0, 47, 254.6638793945312
0, 0, 48, 267.8764343261719
0, 0, 49, 274.110107421875
0, 0, 50, 250.4090728759766
0, 0, 51, 253.0231323242188
0, 0, 52, 272.4832763671875
0, 0, 53, 291.6380310058594
0, 0, 54, 243.6235198974609
0, 0, 55, 240.6908569335938
0, 0, 56, 277.0367126464844
0, 0, 57, 262.3900451660156
0, 0, 58, 248.2932586669922
0, 0, 59, 271.9280700683594
0, 0, 60, 235.7135009765625
0, 0, 61, 246.4042053222656
0, 0, 62, 257.1400451660156
0, 0, 63, 267.2991027832031
0, 0, 64, 256.1180419921875
0, 0, 65, 261.0809326171875
0, 0, 66, 275.9059143066406
0, 0, 67, 247.3048706054688
0, 0, 68, 258.6067504882812
0, 0, 69, 262.6068115234375
0, 0, 70, 274.4656677246094
0, 0, 71, 237.1584777832031
0, 0, 72, 253.4423522949219
0, 0, 73, 259.5502624511719
0, 0, 74, 251.8175048828125
0, 0, 75, 241.1123657226562
0, 0, 76, 230.5631408691406
0, 0, 77, 260.252685546875
0, 0, 78, 257.957763671875
0, 0, 79, 279.6986694335938
0, 0, 80, 214.5918121337891
0, 0, 81, 266.6259765625
0, 0, 82, 256.4301147460938
0, 0, 83, 248.0074310302734
0, 0, 84, 271.6624450683594
0, 0, 85, 232.7529602050781
0, 0, 86, 253.871337890625
0, 0, 87, 251.0986328125
0, 0, 88, 260.2911987304688
0, 0, 89, 284.4795532226562
0, 0, 90, 245.7449340820312
0, 0, 91, 281.73046875
0, 0, 92, 254.3715362548828
0, 0, 93, 248.7008819580078
0, 0, 94, 247.3786010742188
0, 0, 95, 248.5663452148438
0, 0, 96, 274.8019714355469
0, 0, 97, 271.8416137695312
0, 0, 98, 271.9085388183594
0, 0, 99, 257.7693481445312
0, 0, 100, 257.1275939941406
0, 0, 101, 225.3489685058594
0, 0, 102, 233.8111724853516
0, 0, 103, 268.8075561523438
0, 0, 104, 255.1265411376953
0, 0, 105, 252.2451629638672
0, 0, 106, 245.9056243896484
0, 0, 107, 153.0076446533203
0, 0, 108, 39.09413909912109
0, 0, 109, 12.99440670013428
0, 0, 110, 14.20459842681885
0, 0, 111, 8.733724594116211
0, 0, 112, 8.533194541931152
0, 0, 113, 7.45324182510376
0, 0, 114, 7.83859920501709
0, 0, 115, 5.985840320587158
0, 0, 116, 7.742563724517822
0, 0, 117, 6.116198062896729
0, 0, 118, 6.111763477325439
0, 0, 119, 3.630666017532349
0, 0, 120, 2.331615924835205
0, 0, 121, 4.648125648498535
0, 0, 122, 4.224862098693848
0, 0, 123, 2.594551563262939
0, 0, 124, 6.707508563995361
0, 0, 125, 3.207040309906006
0, 0, 126, 7.109485626220703
0, 0, 127, 2.616678953170776
0, 1, 0, 8.119189262390137
0, 1, 1, 2.710636854171753
0, 1, 2, 3.642722606658936
0, 1, 3, 2.10793924331665
0, 1, 4, 2.825054168701172
0, 1, 5, 5.393157482147217
0, 1, 6, 5.291265487670898
0, 1, 7, 4.53935432434082
0, 1, 8, 7.42294979095459
0, 1, 9, 4.092856884002686
0, 1, 10, 7.004632472991943
0, 1, 11, 11.52902698516846
0, 1, 12, 9.391623497009277
0, 1, 13, 9.217704772949219
0, 1, 14, 8.692952156066895
0, 1, 15, 8.057109832763672
0, 1, 16, 10.89830875396729
0, 1, 17, 10.59230995178223
0, 1, 18, 19.45443725585938
0, 1, 19, 65.26950836181641
0, 1, 20, 200.3436737060547
0, 1, 21, 254.1193389892578
0, 1, 22, 295.5036315917969
0, 1, 23, 283.2491760253906
0, 1, 24, 278.3731079101562
0, 1, 25, 288.0770568847656
0, 1, 26, 267.2289733886719
0, 1, 27, 307.3514709472656
0, 1, 28, 297.76611328125
0, 1, 29, 296.085693359375
0, 1, 30, 280.3529663085938
0, 1, 31, 291.9226989746094
0, 1, 32, 291.3544921875
0, 1, 33, 296.8456726074219
0, 1, 34, 292.03271484375
0, 1, 35, 280.0125732421875
0, 1, 36, 305.6825866699219
0, 1, 37, 295.83447265625
0, 1, 38, 281.2093505859375
0, 1, 39, 295.2724304199219
0, 1, 40, 268.8738403320312
0, 1, 41, 286.6087036132812
0, 1, 42, 289.8485412597656
0, 1, 43, 336.7198791503906
0, 1, 44, 280.9407043457031
0, 1, 45, 293.0699157714844
0, 1, 46, 260.6507568359375
0, 1, 47, 309.7490234375
0, 1, 48, 282.8925170898438
0, 1, 49, 303.673583984375
0, 1, 50, 263.8007202148438
0, 1, 51, 273.2716064453125
0, 1, 52, 298.5732116699219
0, 1, 53, 303.8462829589844
0, 1, 54, 274.0965881347656
0, 1, 55, 293.4139404296875
0, 1, 56, 278.3283996582031
0, 1, 57, 299.7713317871094
0, 1, 58, 310.6626892089844
0, 1, 59, 292.5067138671875
0, 1, 60, 297.5806884765625
0, 1, 61, 274.1319885253906
0, 1, 62, 312.1669616699219
0, 1, 63, 287.2438659667969
0, 1, 64, 291.7474975585938
0, 1, 65, 295.482666015625
0, 1, 66, 291.837890625
0, 1, 67, 295.8065795898438
0, 1, 68, 278.0930480957031
0, 1, 69, 280.9962158203125
0, 1, 70, 269.8162231445312
0, 1, 71, 274.1151733398438
0, 1, 72, 288.4255065917969
0, 1, 73, 303.602294921875
0, 1, 74, 304.0762939453125
0, 1, 75, 291.0808410644531
0, 1, 76, 284.6579284667969
0, 1, 77, 291.9793701171875
0, 1, 78, 297.45361328125
0, 1, 79, 299.8189392089844
0, 1, 80, 295.984619140625
0, 1, 81, 302.8184814453125
0, 1, 82, 285.3528747558594
0, 1, 83, 331.8040771484375
0, 1, 84, 310.9581604003906
0, 1, 85, 252.7810821533203
0, 1, 86, 294.0604553222656
0, 1, 87, 289.8702392578125
0, 1, 88, 297.1253662109375
0, 1, 89, 291.3044128417969
0, 1, 90, 269.7879028320312
0, 1, 91, 318.556884765625
0, 1, 92, 289.9596862792969
0, 1, 93, 286.8565979003906
0, 1, 94, 304.7018737792969
0, 1, 95, 285.7095947265625
0, 1, 96, 282.8762512207031
0, 1, 97, 300.3514709472656
0, 1, 98, 277.6463317871094
0, 1, 99, 265.9625854492188
0, 1, 100, 277.7672424316406
0, 1, 101, 282.1463928222656
0, 1, 102, 282.6208190917969
0, 1, 103, 282.8210144042969
0, 1, 104, 307.5864868164062
0, 1, 105, 298.774169921875
0, 1, 106, 262.5240173339844
0, 1, 107, 191.6066284179688
0, 1, 108, 80.15604400634766
0, 1, 109, 23.11407089233398
0, 1, 110, 12.05417728424072
0, 1, 111, 8.012909889221191
0, 1, 112, 12.93525791168213
0, 1, 113, 5.247666358947754
0, 1, 114, 5.926504135131836
0, 1, 115, 7.661690711975098
0, 1, 116, 14.03575992584229
0, 1, 117, 7.085249423980713
0, 1, 118, 3.827685356140137
0, 1, 119, 7.887248516082764
0, 1, 120, 3.584070444107056
0, 1, 121, 2.703396081924438
0, 1, 122, 3.300993204116821
0, 1, 123, 3.672638893127441
0, 1, 124, 6.190670490264893
0, 1, 125, 2.507406234741211
0, 1, 126, 5.933493137359619
0, 1, 127, 1.702495098114014
0, 2, 0, 4.404329299926758
0, 2, 1, 3.270930290222168
0, 2, 2, 6.267871856689453
0, 2, 3, 4.211317539215088
0, 2, 4, 2.814238786697388
0, 2, 5, 1.349177241325378
0, 2, 6, 2.300804376602173
0, 2, 7, 3.300173997879028
0, 2, 8, 5.492075443267822
0, 2, 9, 7.596665382385254
0, 2, 10, 7.419421195983887
0, 2, 11, 7.18391752243042
0, 2, 12, 6.329239368438721
0, 2, 13, 10.99350547790527
0, 2, 14, 9.231387138366699
0, 2, 15, 8.59926700592041
0, 2, 16, 8.088632583618164
0, 2, 17, 16.29695892333984
0, 2, 18, 30.51247024536133
0, 2, 19, 119.2755889892578
0, 2, 20, 248.2852478027344
0, 2, 21, 270.5593872070312
0, 2, 22, 315.1949157714844
0, 2, 23, 300.175048828125
0, 2, 24, 287.04638671875
0, 2, 25, 302.188232421875
0, 2, 26, 292.9772644042969
0, 2, 27, 274.9274291992188
0, 2, 28, 272.5106811523438
0, 2, 29, 274.1923522949219
0, 2, 30, 290.581787109375
0, 2, 31, 278.1641845703125
0, 2, 32, 294.4468688964844
0, 2, 33, 281.8067626953125
0, 2, 34, 333.3717346191406
0, 2, 35, 290.6370239257812
0, 2, 36, 302.2707824707031
0, 2, 37, 315.496826171875
0, 2, 38, 310.1893310546875
0, 2, 39, 267.7991333007812
0, 2, 40, 306.9936828613281
0, 2, 41, 292.9879455566406
0, 2, 42, 302.9742736816406
0, 2, 43, 312.2867126464844
0, 2, 44, 316.346923828125
0, 2, 45, 326.8734130859375
0, 2, 46, 287.0972595214844
0, 2, 47, 303.0270385742188
0, 2, 48, 284.4875793457031
0, 2, 49, 278.367431640625
0, 2, 50, 295.5352478027344
0, 2, 51, 287.8917236328125
0, 2, 52, 271.7257385253906
0, 2, 53, 287.502685546875
0, 2, 54, 280.9014587402344
0, 2, 55, 277.8455505371094
0, 2, 56, 303.9135437011719
0, 2, 57, 291.9627685546875
0, 2, 58, 304.8412475585938
0, 2, 59, 289.604248046875
0, 2, 60, 319.4416198730469
0, 2, 61, 302.5721740722656
0, 2, 62, 314.76611328125
0, 2, 63, 304.1823120117188
0, 2, 64, 297.1947631835938
0, 2, 65, 314.5353393554688
0, 2, 66, 278.1821594238281
0, 2, 67, 290.8223266601562
0, 2, 68, 295.4376220703125
0, 2, 69, 310.4800720214844
0, 2, 70, 333.716796875
0, 2, 71, 283.5126953125
0, 2, 72, 301.0108642578125
0, 2, 73, 311.7701416015625
0, 2, 74, 285.3118591308594
0, 2, 75, 302.6890869140625
0, 2, 76, 287.3268432617188
0, 2, 77, 299.1958923339844
0, 2, 78, 315.7936706542969
0, 2, 79, 311.6481018066406
0, 2, 80, 298.9793090820312
0, 2, 81, 282.3522338867188
0, 2, 82, 317.8512573242188
0, 2, 83, 311.2184448242188
0, 2, 84, 289.3916625976562
0, 2, 85, 279.0096435546875
0, 2, 86, 324.9588623046875
0, 2, 87, 286.7992248535156
0, 2, 88, 279.4002990722656
0, 2, 89, 295.8055114746094
0, 2, 90, 294.9117736816406
0, 2, 91, 276.7978210449219
0, 2, 92, 306.9881286621094
0, 2, 93, 316.3634643554688
0, 2, 94, 291.7197875976562
0, 2, 95, 314.886474609375
0, 2, 96, 315.189697265625
0, 2, 97, 291.2263793945312
0, 2, 98, 294.8246154785156
0, 2, 99, 275.944580078125
0, 2, 100, 306.9953308105469
0, 2, 101, 300.4442138671875
0, 2, 102, 295.9125061035156
0, 2, 103, 293.8390808105469
0, 2, 104, 292.7955017089844
0, 2, 105, 274.0511474609375
0, 2, 106, 297.36474609375
0, 2, 107, 269.1001281738281
0, 2, 108, 115.2439422607422
0, 2, 109, 31.93112564086914
0, 2, 110, 9.747188568115234
0, 2, 111, 9.986575126647949
0, 2, 112, 7.038689613342285
0, 2, 113, 10.66216087341309
0, 2, 114, 9.426275253295898
0, 2, 115, 10.7987642288208
0, 2, 116, 8.167608261108398
0, 2, 117, 5.397075176239014
0, 2, 118, 7.178519725799561
0, 2, 119, 5.101198673248291
0, 2, 120, 5.305024147033691
0, 2, 121, 1.741296291351318
0, 2, 122, 3.755464553833008
0, 2, 123, 6.163740634918213
0, 2, 124, 2.419953346252441
0, 2, 125, 5.489178657531738
0, 2, 126, 4.074443817138672
0, 2, 127, 5.365946769714355
0, 3, 0, 5.948732376098633
0, 3, 1, 4.080409049987793
0, 3, 2, 3.660394906997681
0, 3, 3, 1.826689124107361
0, 3, 4, 3.930129051208496
0, 3, 5, 7.317498683929443
0, 3, 6, 7.264649868011475
0, 3, 7, 5.834415912628174
0, 3, 8, 6.52592945098877
0, 3, 9, 4.939501285552979
0, 3, 10, 6.094483852386475
0, 3, 11, 3.664466142654419
0, 3, 12, 5.908931255340576
0, 3, 13, 15.06466960906982
0, 3, 14, 10.70334053039551
0, 3, 15, 12.97302722930908
0, 3, 16, 10.14920139312744
0, 3, 17, 19.12056922912598
0, 3, 18, 51.89288711547852
0, 3, 19, 176.9935913085938
0, 3, 20, 270.0728149414062
0, 3, 21, 269.6552429199219
0, 3, 22, 282.9347839355469
0, 3, 23, 287.4162292480469
0, 3, 24, 285.4742736816406
0, 3, 25, 269.4996337890625
0, 3, 26, 303.6118469238281
0, 3, 27, 292.9702453613281
0, 3, 28, 281.4671325683594
0, 3, 29, 337.7515869140625
0, 3, 30, 318.7423400878906
0, 3, 31, 287.9910583496094
0, 3, 32, 306.3222961425781
0, 3, 33, 313.9162292480469
0, 3, 34, 322.2148132324219
0, 3, 35, 307.1189575195312
0, 3, 36, 268.9085998535156
0, 3, 37, 316.1492614746094
0, 3, 38, 302.980712890625
0, 3, 39, 288.6756591796875
0, 3, 40, 267.533203125
0, 3, 41, 297.8942260742188
0, 3, 42, 284.5017395019531
0, 3, 43, 306.6585388183594
0, 3, 44, 314.361572265625
0, 3, 45, 291.191162109375
0, 3, 46, 328.6686706542969
0, 3, 47, 299.3804626464844
0, 3, 48, 305.477783203125
0, 3, 49, 276.1796569824219
0, 3, 50, 290.3888549804688
0, 3, 51, 274.8901062011719
0, 3, 52, 316.1066589355469
0, 3, 53, 288.4697875976562
0, 3, 54, 284.8834838867188
0, 3, 55, 285.0465393066406
0, 3, 56, 298.6861572265625
0, 3, 57, 288.9649353027344
0, 3, 58, 306.7274780273438
0, 3, 59, 296.092529296875
0, 3, 60, 297.3605651855469
0, 3, 61, 266.7931518554688
0, 3, 62, 283.9996032714844
0, 3, 63, 306.6689147949219
0, 3, 64, 316.458984375
0, 3, 65, 306.2990417480469
0, 3, 66, 315.6598205566406
0, 3, 67, 318.7615661621094
0, 3, 68, 279.158935546875
0, 3, 69, 280.9947509765625
0, 3, 70, 287.7782897949219
0, 3, 71, 300.3631591796875
0, 3, 72, 268.6698913574219
0, 3, 73, 308.1242980957031
0, 3, 74, 292.4393615722656
0, 3, 75, 289.3413391113281
0, 3, 76, 305.0299377441406
0, 3, 77, 313.4862976074219
0, 3, 78, 303.3091735839844
0, 3, 79, 282.3162536621094
0, 3, 80, 290.8050231933594
0, 3, 81, 311.7840576171875
0, 3, 82, 314.92431640625
0, 3, 83, 300.6703186035156
0, 3, 84, 311.2992248535156
0, 3, 85, 293.4735412597656
0, 3, 86, 302.2138977050781
0, 3, 87, 300.0834350585938
0, 3, 88, 297.7525634765625
0, 3, 89, 297.2537536621094
0, 3, 90, 276.6558532714844
0, 3, 91, 285.5990295410156
0, 3, 92, 304.0757751464844
0, 3, 93, 313.16064453125
0, 3, 94, 299.2129211425781
0, 3, 95, 334.6673278808594
0, 3, 96, 290.3497314453125
0, 3, 97, 283.1737060546875
0, 3, 98, 278.9358520507812
0, 3, 99, 261.95947265625
0, 3, 100, 284.0555725097656
0, 3, 101, 297.9852600097656
0, 3, 102, 276.0867309570312
0, 3, 103, 321.6389770507812
0, 3, 104, 305.552001953125
0, 3, 105, 287.181396484375
0, 3, 106, 301.7106323242188
0, 3, 107, 284.465087890625
0, 3, 108, 166.9865112304688
0, 3, 109, 56.67372894287109
0, 3, 110, 17.01191902160645
0, 3, 111, 12.37758922576904
0, 3, 112, 12.53642463684082
0, 3, 113, 5.620345115661621
0, 3, 114, 9.241122245788574
0, 3, 115, 7.286692142486572
0, 3, 116, 6.970871448516846
0, 3, 117, 9.38535213470459
0, 3, 118, 6.052629470825195
0, 3, 119, 4.56341028213501
0, 3, 120, 4.164741039276123
0, 3, 121, 2.156078100204468
0, 3, 122, 3.147541999816895
0, 3, 123, 6.349165916442871
0, 3, 124, 5.765718460083008
0, 3, 125, 6.736433982849121
0, 3, 126, 5.848665714263916
0, 3, 127, 2.378030061721802
0, 4, 0, 3.069094896316528
0, 4, 1, 4.424387454986572
0, 4, 2, 2.230213165283203
0, 4, 3, 2.256962776184082
0, 4, 4, 6.021862983703613
0, 4, 5, 9.002957344055176
0, 4, 6, 6.81699275970459
0, 4, 7, 5.086782455444336
0, 4, 8, 3.872560501098633
0, 4, 9, 5.304572105407715
0, 4, 10, 6.912520408630371
0, 4, 11, 6.880171775817871
0, 4, 12, 7.09510612487793
0, 4, 13, 7.364090919494629
0, 4, 14, 10.6673059463501
0, 4, 15, 10.75332069396973
0, 4, 16, 14.74724006652832
0, 4, 17, 18.03413772583008
0, 4, 18, 93.23666381835938
0, 4, 19, 221.0946655273438
0, 4, 20, 287.391845703125
0, 4, 21, 273.5784301757812
0, 4, 22, 305.4962768554688
0, 4, 23, 265.9494323730469
0, 4, 24, 290.075927734375
0, 4, 25, 273.3601379394531
0, 4, 26, 295.4474182128906
0, 4, 27, 281.1346130371094
0, 4, 28, 306.0731811523438
0, 4, 29, 321.9664611816406
0, 4, 30, 309.8737182617188
0, 4, 31, 302.3726501464844
0, 4, 32, 281.0044860839844
0, 4, 33, 296.3667297363281
0, 4, 34, 297.2744445800781
0, 4, 35, 313.4788818359375
0, 4, 36, 295.755126953125
0, 4, 37, 287.3660583496094
0, 4, 38, 297.9581604003906
0, 4, 39, 294.2678833007812
0, 4, 40, 301.4496459960938
0, 4, 41, 312.8218688964844
0, 4, 42, 328.0147094726562
0, 4, 43, 300.7731018066406
0, 4, 44, 324.0588684082031
0, 4, 45, 322.7742004394531
0, 4, 46, 308.9591979980469
0, 4, 47, 292.5270385742188
0, 4, 48, 295.9997253417969
0, 4, 49, 277.7483215332031
0, 4, 50, 296.769775390625
0, 4, 51, 316.384521484375
0, 4, 52, 326.4253234863281
0, 4, 53, 306.1228942871094
0, 4, 54, 286.6155395507812
0, 4, 55, 315.2565612792969
0, 4, 56, 286.4549865722656
0, 4, 57, 308.4352111816406
0, 4, 58, 295.9516906738281
0, 4, 59, 306.2187805175781
0, 4, 60, 301.4255065917969
0, 4, 61, 315.2844543457031
0, 4, 62, 306.3972473144531
0, 4, 63, 301.4529724121094
0, 4, 64, 328.3652954101562
0, 4, 65, 315.6565551757812
0, 4, 66, 295.87060546875
0, 4, 67, 287.5472106933594
0, 4, 68, 313.6518249511719
0, 4, 69, 275.6048278808594
0, 4, 70, 299.9853820800781
0, 4, 71, 321.1902770996094
0, 4, 72, 331.6771240234375
0, 4, 73, 299.5071716308594
0, 4, 74, 294.7642822265625
0, 4, 75, 292.5879516601562
0, 4, 76, 273.7071228027344
0, 4, 77, 278.4739990234375
0, 4, 78, 308.310791015625
0, 4, 79, 319.2012939453125
0, 4, 80, 314.7012023925781
0, 4, 81, 312.0805358886719
0, 4, 82, 299.3694763183594
0, 4, 83, 300.9162902832031
0, 4, 84, 292.2499694824219
0, 4, 85, 296.5979309082031
0, 4, 86, 298.5619506835938
0, 4, 87, 287.5513000488281
0, 4, 88, 306.0912170410156
0, 4, 89, 293.5395812988281
0, 4, 90, 332.0394287109375
0, 4, 91, 302.8877868652344
0, 4, 92, 289.0550537109375
0, 4, 93, 295.7088928222656
0, 4, 94, 295.7112426757812
0, 4, 95, 288.8405151367188
0, 4, 96, 323.7111206054688
0, 4, 97, 274.3476867675781
0, 4, 98, 325.9904174804688
0, 4, 99, 313.3017883300781
0, 4, 100, 300.2282409667969
0, 4, 101, 256.525390625
0, 4, 102, 295.09130859375
0, 4, 103, 320.2427978515625
0, 4, 104, 281.4703674316406
0, 4, 105, 310.1224670410156
0, 4, 106, 286.6856384277344
0, 4, 107, 294.139404296875
0, 4, 108, 226.3671264648438
0, 4, 109, 78.86046600341797
0, 4, 110, 16.85021781921387
0, 4, 111, 13.72732543945312
0, 4, 112, 8.785487174987793
0, 4, 113, 12.93330383300781
0, 4, 114, 8.30390739440918
0, 4, 115, 10.66911792755127
0, 4, 116, 9.158967971801758
0, 4, 117, 7.341512680053711
0, 4, 118, 9.303257942199707
0, 4, 119, 8.614398956298828
0, 4, 120, 5.26142692565918
0, 4, 121, 5.793282508850098
0, 4, 122, 3.6861412525177
0, 4, 123, 7.397078514099121
0, 4, 124, 4.588318824768066
0, 4, 125, 10.80503177642822
0, 4, 126, 4.978044986724854
0, 4, 127, 2.739795207977295
0, 5, 0, 3.040541887283325
0, 5, 1, 4.3909592628479
0, 5, 2, 5.66664457321167
0, 5, 3, 4.576858043670654
0, 5, 4, 6.049422264099121
0, 5, 5, 5.626718997955322
0, 5, 6, 7.49868106842041
0, 5, 7, 3.917803287506104
0, 5, 8, 3.366745471954346
0, 5, 9, 4.599955558776855
0, 5, 10, 5.297536373138428
0, 5, 11, 8.606855392456055
0, 5, 12, 8.803741455078125
0, 5, 13, 6.034702777862549
0, 5, 14, 14.72244358062744
0, 5, 15, 16.39809417724609
0, 5, 16, 13.94620132446289
0, 5, 17, 29.59120750427246
0, 5, 18, 136.3680572509766
0, 5, 19, 286.9400024414062
0, 5, 20, 306.79052734375
0, 5, 21, 321.05126953125
0, 5, 22, 276.1403198242188
0, 5, 23, 312.0834045410156
0, 5, 24, 304.6159057617188
0, 5, 25, 288.6305541992188
0, 5, 26, 294.3442993164062
0, 5, 27, 321.0582275390625
0, 5, 28, 303.2665100097656
0, 5, 29, 298.0615539550781
0, 5, 30, 324.3316345214844
0, 5, 31, 287.6723022460938
0, 5, 32, 301.6174621582031
0, 5, 33, 303.2928466796875
0, 5, 34, 299.2337951660156
0, 5, 35, 310.5238952636719
0, 5, 36, 268.0022277832031
0, 5, 37, 282.2000122070312
0, 5, 38, 293.5785827636719
0, 5, 39, 313.7843322753906
0, 5, 40, 307.2498779296875
0, 5, 41, 274.8354187011719
0, 5, 42, 304.18896484375
0, 5, 43, 315.1409606933594
0, 5, 44, 293.7083435058594
0, 5, 45, 301.7387084960938
0, 5, 46, 266.6947326660156
0, 5, 47, 279.3366088867188
0, 5, 48, 291.6878051757812
0, 5, 49, 285.2141723632812
0, 5, 50, 294.7820129394531
0, 5, 51, 279.253662109375
0, 5, 52, 271.0647583007812
0, 5, 53, 283.0234985351562
0, 5, 54, 293.543701171875
0, 5, 55, 344.7347412109375
0, 5, 56, 305.707275390625
0, 5, 57, 306.4161071777344
0, 5, 58, 311.3660583496094
0, 5, 59, 304.73779296875
0, 5, 60, 308.8975524902344
0, 5, 61, 283.9871826171875
0, 5, 62, 323.2196044921875
0, 5, 63, 290.0004577636719
0, 5, 64, 321.004150390625
0, 5, 65, 306.5163879394531
0, 5, 66, 327.2901611328125
0, 5, 67, 313.5961303710938
0, 5, 68, 305.6240844726562
0, 5, 69, 309.9289245605469
0, 5, 70, 300.8501892089844
0, 5, 71, 273.5003356933594
0, 5, 72, 313.3770446777344
0, 5, 73, 301.8778991699219
0, 5, 74, 296.1498413085938
0, 5, 75, 295.7451171875
0, 5, 76, 288.4797973632812
0, 5, 77, 301.2391662597656
0, 5, 78, 317.2265930175781
0, 5, 79, 305.0241088867188
0, 5, 80, 294.48583984375
0, 5, 81, 327.1391906738281
0, 5, 82, 326.3506469726562
0, 5, 83, 281.3710021972656
0, 5, 84, 302.3768920898438
0, 5, 85, 271.0730895996094
0, 5, 86, 324.1110229492188
0, 5, 87, 285.6782836914062
0, 5, 88, 312.878662109375
0, 5, 89, 304.8477783203125
0, 5, 90, 315.9667053222656
0, 5, 91, 314.2246398925781
0, 5, 92, 295.2280578613281
0, 5, 93, 321.4532775878906
0, 5, 94, 310.9665222167969
0, 5, 95, 296.7105102539062
0, 5, 96, 303.0067138671875
0, 5, 97, 298.9541015625
0, 5, 98, 316.9652709960938
0, 5, 99, 302.9948120117188
0, 5, 100, 289.6740417480469
0, 5, 101, 305.0334167480469
0, 5, 102, 291.4346313476562
0, 5, 103, 314.9518737792969
0, 5, 104, 300.048095703125
0, 5, 105, 292.797119140625
0, 5, 106, 283.9392700195312
0, 5, 107, 293.2765808105469
0, 5, 108, 266.6198120117188
0, 5, 109, 159.3811950683594
0, 5, 110, 38.98978042602539
0, 5, 111, 20.88867378234863
0, 5, 112, 16.47278785705566
0, 5, 113, 14.46677303314209
0, 5, 114, 12.97795295715332
0, 5, 115, 7.686244010925293
0, 5, 116, 8.684976577758789
0, 5, 117, 6.434528350830078
0, 5, 118, 11.92975330352783
0, 5, 119, 3.526976108551025
0, 5, 120, 6.004673957824707
0, 5, 121, 7.878624439239502
0, 5, 122, 5.055557250976562
0, 5, 123, 4.722660064697266
0, 5, 124, 4.613461971282959
0, 5, 125, 4.318602085113525
0, 5, 126, 6.107565879821777
0, 5, 127, 2.396041870117188
0, 6, 0, 3.344692945480347
0, 6, 1, 3.445955276489258
0, 6, 2, 5.747905254364014
0, 6, 3, 4.480574131011963
0, 6, 4, 3.343034982681274
0, 6, 5, 5.084221363067627
0, 6, 6, 7.074296474456787
0, 6, 7, 4.451094150543213
0, 6, 8, 7.037633895874023
0, 6, 9, 6.493566036224365
0, 6, 10, 8.044800758361816
0, 6, 11, 9.866504669189453
0, 6, 12, 8.149532318115234
0, 6, 13, 12.6284351348877
0, 6, 14, 10.55122852325439
0, 6, 15, 15.80627346038818
0, 6, 16, 28.79254722595215
0, 6, 17, 57.02989959716797
0, 6, 18, 174.3842010498047
0, 6, 19, 275.9714050292969
0, 6, 20, 290.7919311523438
0, 6, 21, 313.10205078125
0, 6, 22, 322.3990478515625
0, 6, 23, 305.7915649414062
0, 6, 24, 316.6904602050781
0, 6, 25, 315.8973999023438
0, 6, 26, 318.0789489746094
0, 6, 27, 330.8094482421875
0, 6, 28, 295.7815551757812
0, 6, 29, 329.3400268554688
0, 6, 30, 282.7940368652344
0, 6, 31, 285.1898193359375
0, 6, 32, 340.498291015625
0, 6, 33, 301.5821533203125
0, 6, 34, 339.3421936035156
0, 6, 35, 319.1856994628906
0, 6, 36, 274.7610168457031
0, 6, 37, 289.1925659179688
0, 6, 38, 310.0650634765625
0, 6, 39, 299.1138305664062
0, 6, 40, 285.693603515625
0, 6, 41, 296.2424926757812
0, 6, 42, 304.8904724121094
0, 6, 43, 290.9053039550781
0, 6, 44, 280.0574035644531
0, 6, 45, 318.7442932128906
0, 6, 46, 299.9939880371094
0, 6, 47, 333.285888671875
0, 6, 48, 293.1994018554688
0, 6, 49, 313.0477905273438
0, 6, 50, 327.6958923339844
0, 6, 51, 309.7706298828125
0, 6, 52, 321.005126953125
0, 6, 53, 326.799072265625
0, 6, 54, 301.4893188476562
0, 6, 55, 307.5360107421875
0, 6, 56, 296.7947387695312
0, 6, 57, 312.8458862304688
0, 6, 58, 262.1168823242188
0, 6, 59, 303.5298461914062
0, 6, 60, 314.0540466308594
0, 6, 61, 271.5676574707031
0, 6, 62, 337.1805114746094
0, 6, 63, 322.4220581054688
0, 6, 64, 290.2317810058594
0, 6, 65, 284.8253173828125
0, 6, 66, 304.1042175292969
0, 6, 67, 311.6437377929688
0, 6, 68, 295.4545288085938
0, 6, 69, 278.0143737792969
0, 6, 70, 275.4403991699219
0, 6, 71, 290.2678833007812
0, 6, 72, 311.1668395996094
0, 6, 73, 292.7315673828125
0, 6, 74, 332.2416381835938
0, 6, 75, 342.7764282226562
0, 6, 76, 298.5997619628906
0, 6, 77, 284.9660339355469
0, 6, 78, 277.6572265625
0, 6, 79, 291.907470703125
0, 6, 80, 301.1835327148438
0, 6, 81, 318.1071472167969
0, 6, 82, 319.7540893554688
0, 6, 83, 320.0320434570312
0, 6, 84, 296.0397033691406
0, 6, 85, 301.0896606445312
0, 6, 86, 329.4386596679688
0, 6, 87, 292.9675903320312
0, 6, 88, 306.6026611328125
0, 6, 89, 303.5338134765625
0, 6, 90, 299.6987915039062
0, 6, 91, 314.5675354003906
0, 6, 92, 285.308837890625
0, 6, 93, 295.0147705078125
0, 6, 94, 272.8643188476562
0, 6, 95, 300.99609375
0, 6, 96, 344.5972290039062
0, 6, 97, 308.0815124511719
0, 6, 98, 300.5116271972656
0, 6, 99, 271.6625061035156
0, 6, 100, 310.522705078125
0, 6, 101, 291.8371887207031
0, 6, 102, 305.9100341796875
0, 6, 103, 307.0626525878906
0, 6, 104, 291.689697265625
0, 6, 105, 301.8555603027344
0, 6, 106, 305.7481994628906
0, 6, 107, 304.5487976074219
0, 6, 108, 264.7204895019531
0, 6, 109, 188.8033599853516
0, 6, 110, 57.58383941650391
0, 6, 111, 22.16732597351074
0, 6, 112, 13.63830089569092
0, 6, 113, 11.24096488952637
0, 6, 114, 13.48389339447021
0, 6, 115, 13.43268489837646
0, 6, 116, 8.51911449432373
0, 6, 117, 11.31731414794922
0, 6, 118, 8.906474113464355
0, 6, 119, 8.682126998901367
0, 6, 120, 5.822211742401123
0, 6, 121, 8.319553375244141
0, 6, 122, 6.045338153839111
0, 6, 123, 4.544883251190186
0, 6, 124, 7.894283294677734
0, 6, 125, 7.819261074066162
0, 6, 126, 3.657690763473511
0, 6, 127, 5.002176761627197
0, 7, 0, 4.431377410888672
0, 7, 1, 5.116913795471191
0, 7, 2, 5.530625343322754
0, 7, 3, 2.847467422485352
0, 7, 4, 4.158553600311279
0, 7, 5, 6.292216300964355
0, 7, 6, 6.558627128601074
0, 7, 7, 5.853540897369385
0, 7, 8, 4.455430507659912
0, 7, 9, 5.878117084503174
0, 7, 10, 7.450638294219971
0, 7, 11, 11.40078449249268
0, 7, 12, 9.908848762512207
0, 7, 13, 14.61241626739502
0, 7, 14, 12.50967311859131
0, 7, 15, 14.9669942855835
0, 7, 16, 27.33735084533691
0, 7, 17, 96.49561309814453
0, 7, 18, 219.9695892333984
0, 7, 19, 289.48828125
0, 7, 20, 297.05126953125
0, 7, 21, 275.6455383300781
0, 7, 22, 298.6129150390625
0, 7, 23, 290.0194702148438
0, 7, 24, 314.3985290527344
0, 7, 25, 323.4290466308594
0, 7, 26, 277.17333984375
0, 7, 27, 297.135986328125
0, 7, 28, 325.8642272949219
0, 7, 29, 318.9309387207031
0, 7, 30, 304.6939086914062
0, 7, 31, 278.89306640625
0, 7, 32, 306.3330993652344
0, 7, 33, 261.4259643554688
0, 7, 34, 296.5867614746094
0, 7, 35, 318.9103393554688
0, 7, 36, 330.1515808105469
0, 7, 37, 324.3579711914062
0, 7, 38, 294.6550598144531
0, 7, 39, 306.3731994628906
0, 7, 40, 290.8304138183594
0, 7, 41, 269.5458374023438
0, 7, 42, 305.9368896484375
0, 7, 43, 272.7791748046875
0, 7, 44, 304.5401000976562
0, 7, 45, 293.4741516113281
0, 7, 46, 280.4282836914062
0, 7, 47, 327.28271484375
0, 7, 48, 284.5497436523438
0, 7, 49, 304.6772766113281
0, 7, 50, 321.1830444335938
0, 7, 51, 299.4403076171875
0, 7, 52, 325.6947937011719
0, 7, 53, 310.8870849609375
0, 7, 54, 321.8518981933594
0, 7, 55, 307.4122009277344
0, 7, 56, 279.6611022949219
0, 7, 57, 281.3018188476562
0, 7, 58, 296.1257629394531
0, 7, 59, 293.34033203125
0, 7, 60, 325.12646484375
0, 7, 61, 276.9035949707031
0, 7, 62, 297.3492431640625
0, 7, 63, 292.0454711914062
0, 7, 64, 309.5204467773438
0, 7, 65, 330.4481201171875
0, 7, 66, 319.8635559082031
0, 7, 67, 300.9740905761719
0, 7, 68, 278.9770202636719
0, 7, 69, 294.8782348632812
0, 7, 70, 303.3802490234375
0, 7, 71, 310.010986328125
0, 7, 72, 283.8582458496094
0, 7, 73, 298.2490844726562
0, 7, 74, 343.8119506835938
0, 7, 75, 320.340087890625
0, 7, 76, 323.2330627441406
0, 7, 77, 282.0281982421875
0, 7, 78, 299.8893432617188
0, 7, 79, 299.1473083496094
0, 7, 80, 312.0123596191406
0, 7, 81, 320.9512939453125
0, 7, 82, 330.9266052246094
0, 7, 83, 316.1446838378906
0, 7, 84, 309.7413024902344
0, 7, 85, 271.5286865234375
0, 7, 86, 310.1315307617188
0, 7, 87, 309.106201171875
0, 7, 88, 307.0292663574219
0, 7, 89, 292.9213562011719
0, 7, 90, 306.626220703125
0, 7, 91, 318.8793334960938
0, 7, 92, 288.3291931152344
0, 7, 93, 307.0137329101562
0, 7, 94, 273.2063598632812
0, 7, 95, 297.5425720214844
0, 7, 96, 331.2257995605469
0, 7, 97, 294.6907958984375
0, 7, 98, 290.7749633789062
0, 7, 99, 311.2054138183594
0, 7, 100, 281.6649475097656
0, 7, 101, 277.4584045410156
0, 7, 102, 289.6137390136719
0, 7, 103, 291.94775390625
0, 7, 104, 273.9015502929688
0, 7, 105, 305.9801940917969
0, 7, 106, 318.2492065429688
0, 7, 107, 298.3964538574219
0, 7, 108, 271.8029174804688
0, 7, 109, 234.9312896728516
0, 7, 110, 95.21403503417969
0, 7, 111, 22.7420482635498
0, 7, 112, 14.45672988891602
0, 7, 113, 13.73549747467041
0, 7, 114, 14.31471824645996
0, 7, 115, 10.30788803100586
0, 7, 116, 7.435826301574707
0, 7, 117, 7.306008815765381
0, 7, 118, 8.288032531738281
0, 7, 119, 7.668860912322998
0, 7, 120, 5.552471160888672
0, 7, 121, 7.416982173919678
0, 7, 122, 8.652332305908203
0, 7, 123, 6.912112712860107
0, 7, 124, 2.922780990600586
0, 7, 125, 7.038264274597168
0, 7, 126, 8.059355735778809
0, 7, 127, 2.156723737716675
0, 8, 0, 6.205448627471924
0, 8, 1, 3.572483539581299
0, 8, 2, 3.825562715530396
0, 8, 3, 6.395451068878174
0, 8, 4, 5.391967296600342
0, 8, 5, 4.780158996582031
0, 8, 6, 5.821824073791504
0, 8, 7, 5.711218357086182
0, 8, 8, 9.930983543395996
0, 8, 9, 5.572453498840332
0, 8, 10, 6.199178218841553
0, 8, 11, 13.0018482208252
0, 8, 12, 13.653395652771
0, 8, 13, 16.44968605041504
0, 8, 14, 13.7901496887207
0, 8, 15, 18.10635566711426
0, 8, 16, 32.43048477172852
0, 8, 17, 130.3365631103516
0, 8, 18, 242.2722778320312
0, 8, 19, 294.3654174804688
0, 8, 20, 284.9924621582031
0, 8, 21, 306.6674194335938
0, 8, 22, 294.1582641601562
0, 8, 23, 275.0875854492188
0, 8, 24, 270.5120544433594
0, 8, 25, 276.871337890625
0, 8, 26, 305.8404846191406
0, 8, 27, 306.7721252441406
0, 8, 28, 307.1544494628906
0, 8, 29, 319.83349609375
0, 8, 30, 313.7431030273438
0, 8, 31, 303.4615478515625
0, 8, 32, 281.0606384277344
0, 8, 33, 294.3110046386719
0, 8, 34, 294.5079650878906
0, 8, 35, 279.5975952148438
0, 8, 36, 314.2994995117188
0, 8, 37, 339.6087341308594
0, 8, 38, 330.5743408203125
0, 8, 39, 280.1143188476562
0, 8, 40, 303.4698791503906
