# TOPAS Version: 3.1.p3
# Parameter File: batch_inserts_80.txt
# Results for scorer Readout_Adipose
# Scored in component: MyBox
# X in 1 bin  of 0.75 cm
# Y in 512 bins of 0.0783984 cm
# Z in 128 bins of 0.078125 cm
# EnergyDeposit ( MeV ) : Sum   
0, 0, 0, 3.022724151611328
0, 0, 1, 2.097099542617798
0, 0, 2, 3.21100926399231
0, 0, 3, 2.30660080909729
0, 0, 4, 4.857976913452148
0, 0, 5, 2.700994968414307
0, 0, 6, 6.45875883102417
0, 0, 7, 9.928121566772461
0, 0, 8, 4.009091377258301
0, 0, 9, 5.726007461547852
0, 0, 10, 6.484288215637207
0, 0, 11, 4.311990261077881
0, 0, 12, 4.010630130767822
0, 0, 13, 6.641096115112305
0, 0, 14, 7.35136079788208
0, 0, 15, 11.29304313659668
0, 0, 16, 8.730429649353027
0, 0, 17, 9.513869285583496
0, 0, 18, 12.88156700134277
0, 0, 19, 45.71529769897461
0, 0, 20, 139.1861267089844
0, 0, 21, 223.6064758300781
0, 0, 22, 249.6380615234375
0, 0, 23, 256.3709716796875
0, 0, 24, 250.7612152099609
0, 0, 25, 259.4878234863281
0, 0, 26, 233.8128509521484
0, 0, 27, 238.7877349853516
0, 0, 28, 271.9327697753906
0, 0, 29, 251.6885833740234
0, 0, 30, 232.5085754394531
0, 0, 31, 243.7618255615234
0, 0, 32, 263.7637634277344
0, 0, 33, 261.524169921875
0, 0, 34, 288.1708068847656
0, 0, 35, 266.2793273925781
0, 0, 36, 247.7044067382812
0, 0, 37, 252.0865325927734
0, 0, 38, 268.7528686523438
0, 0, 39, 229.4075622558594
0, 0, 40, 242.4030609130859
0, 0, 41, 265.177490234375
0, 0, 42, 228.4842681884766
0, 0, 43, 260.1737670898438
0, 0, 44, 251.9869537353516
0, 0, 45, 254.6575469970703
0, 0, 46, 244.0677642822266
0, 0, 47, 251.7519378662109
0, 0, 48, 268.6346435546875
0, 0, 49, 273.2491760253906
0, 0, 50, 251.2684173583984
0, 0, 51, 253.0442810058594
0, 0, 52, 275.4521484375
0, 0, 53, 291.2534484863281
0, 0, 54, 241.5554656982422
0, 0, 55, 239.1665802001953
0, 0, 56, 277.6521606445312
0, 0, 57, 263.3190307617188
0, 0, 58, 246.6572265625
0, 0, 59, 270.6403198242188
0, 0, 60, 234.2765960693359
0, 0, 61, 244.8818969726562
0, 0, 62, 258.3777770996094
0, 0, 63, 266.4088745117188
0, 0, 64, 256.0471801757812
0, 0, 65, 260.6613159179688
0, 0, 66, 276.8518371582031
0, 0, 67, 246.3210906982422
0, 0, 68, 259.4502258300781
0, 0, 69, 261.88525390625
0, 0, 70, 274.2324829101562
0, 0, 71, 238.0819396972656
0, 0, 72, 252.0018463134766
0, 0, 73, 258.7132568359375
0, 0, 74, 250.62109375
0, 0, 75, 239.5213165283203
0, 0, 76, 228.4944763183594
0, 0, 77, 259.9967651367188
0, 0, 78, 255.806396484375
0, 0, 79, 278.2486877441406
0, 0, 80, 215.7088317871094
0, 0, 81, 266.7518920898438
0, 0, 82, 255.8681488037109
0, 0, 83, 245.1511688232422
0, 0, 84, 270.4324340820312
0, 0, 85, 232.1183319091797
0, 0, 86, 255.1536407470703
0, 0, 87, 253.8824462890625
0, 0, 88, 259.5177307128906
0, 0, 89, 283.46044921875
0, 0, 90, 243.22314453125
0, 0, 91, 281.3259582519531
0, 0, 92, 253.6431121826172
0, 0, 93, 248.5650024414062
0, 0, 94, 250.6205596923828
0, 0, 95, 247.1664428710938
0, 0, 96, 275.6393737792969
0, 0, 97, 272.4544372558594
0, 0, 98, 272.9177856445312
0, 0, 99, 257.188720703125
0, 0, 100, 258.9916687011719
0, 0, 101, 226.1313629150391
0, 0, 102, 230.4231262207031
0, 0, 103, 269.3451538085938
0, 0, 104, 253.9911041259766
0, 0, 105, 253.4905853271484
0, 0, 106, 246.5979919433594
0, 0, 107, 154.5453186035156
0, 0, 108, 38.32754516601562
0, 0, 109, 11.56816673278809
0, 0, 110, 12.47342109680176
0, 0, 111, 9.736024856567383
0, 0, 112, 7.387970924377441
0, 0, 113, 4.724371433258057
0, 0, 114, 5.618678092956543
0, 0, 115, 7.279472351074219
0, 0, 116, 5.420477867126465
0, 0, 117, 8.15180778503418
0, 0, 118, 6.305220127105713
0, 0, 119, 3.736966609954834
0, 0, 120, 3.023283720016479
0, 0, 121, 3.363551616668701
0, 0, 122, 4.075803279876709
0, 0, 123, 2.42162036895752
0, 0, 124, 5.828377723693848
0, 0, 125, 3.201395988464355
0, 0, 126, 4.793022632598877
0, 0, 127, 3.520153522491455
0, 1, 0, 8.837470054626465
0, 1, 1, 3.020336151123047
0, 1, 2, 4.910999298095703
0, 1, 3, 3.39331316947937
0, 1, 4, 2.606863260269165
0, 1, 5, 2.974098443984985
0, 1, 6, 4.500603199005127
0, 1, 7, 1.991553902626038
0, 1, 8, 9.661299705505371
0, 1, 9, 3.706448316574097
0, 1, 10, 5.818406105041504
0, 1, 11, 13.36616992950439
0, 1, 12, 8.526334762573242
0, 1, 13, 10.44340229034424
0, 1, 14, 8.130289077758789
0, 1, 15, 7.200668334960938
0, 1, 16, 10.78046607971191
0, 1, 17, 13.16771984100342
0, 1, 18, 20.00557518005371
0, 1, 19, 67.20603179931641
0, 1, 20, 197.1663665771484
0, 1, 21, 253.5787658691406
0, 1, 22, 296.6361083984375
0, 1, 23, 282.4590148925781
0, 1, 24, 275.7304382324219
0, 1, 25, 288.2324523925781
0, 1, 26, 267.2151184082031
0, 1, 27, 308.3796081542969
0, 1, 28, 298.9013671875
0, 1, 29, 299.0972900390625
0, 1, 30, 280.7667236328125
0, 1, 31, 291.4176940917969
0, 1, 32, 293.0469055175781
0, 1, 33, 295.85791015625
0, 1, 34, 291.9076538085938
0, 1, 35, 279.0964660644531
0, 1, 36, 306.8588256835938
0, 1, 37, 294.3834838867188
0, 1, 38, 278.3705749511719
0, 1, 39, 295.724365234375
0, 1, 40, 266.9526062011719
0, 1, 41, 285.58935546875
0, 1, 42, 290.9645690917969
0, 1, 43, 332.0055236816406
0, 1, 44, 277.1907348632812
0, 1, 45, 291.3110961914062
0, 1, 46, 262.7945251464844
0, 1, 47, 313.2779846191406
0, 1, 48, 287.8059692382812
0, 1, 49, 303.443115234375
0, 1, 50, 264.3638305664062
0, 1, 51, 272.5770263671875
0, 1, 52, 295.0541076660156
0, 1, 53, 305.68603515625
0, 1, 54, 275.0854797363281
0, 1, 55, 292.3430786132812
0, 1, 56, 276.8905639648438
0, 1, 57, 298.3839721679688
0, 1, 58, 313.1168823242188
0, 1, 59, 293.1900024414062
0, 1, 60, 297.005615234375
0, 1, 61, 275.3504333496094
0, 1, 62, 307.9290771484375
0, 1, 63, 288.7122192382812
0, 1, 64, 289.2551879882812
0, 1, 65, 293.8691711425781
0, 1, 66, 293.2358703613281
0, 1, 67, 291.1798095703125
0, 1, 68, 277.7983093261719
0, 1, 69, 280.7002868652344
0, 1, 70, 270.8677062988281
0, 1, 71, 274.2536315917969
0, 1, 72, 284.5054321289062
0, 1, 73, 305.328125
0, 1, 74, 304.6746520996094
0, 1, 75, 291.1171264648438
0, 1, 76, 287.5616455078125
0, 1, 77, 290.2186584472656
0, 1, 78, 296.734130859375
0, 1, 79, 300.4875183105469
0, 1, 80, 295.2059326171875
0, 1, 81, 299.9027404785156
0, 1, 82, 284.5302429199219
0, 1, 83, 331.8737487792969
0, 1, 84, 308.8945007324219
0, 1, 85, 251.6434631347656
0, 1, 86, 295.8379516601562
0, 1, 87, 291.3638610839844
0, 1, 88, 297.2331848144531
0, 1, 89, 289.3370971679688
0, 1, 90, 270.8462829589844
0, 1, 91, 317.8937377929688
0, 1, 92, 290.59716796875
0, 1, 93, 286.7515563964844
0, 1, 94, 303.919189453125
0, 1, 95, 283.9248962402344
0, 1, 96, 282.5188903808594
0, 1, 97, 300.4522399902344
0, 1, 98, 280.122802734375
0, 1, 99, 267.714111328125
0, 1, 100, 275.9143981933594
0, 1, 101, 281.2844543457031
0, 1, 102, 277.8970031738281
0, 1, 103, 282.7611694335938
0, 1, 104, 306.5676574707031
0, 1, 105, 297.6399841308594
0, 1, 106, 262.0253601074219
0, 1, 107, 193.9139099121094
0, 1, 108, 83.74860382080078
0, 1, 109, 22.83339500427246
0, 1, 110, 11.30266857147217
0, 1, 111, 8.068393707275391
0, 1, 112, 13.59066677093506
0, 1, 113, 6.033323287963867
0, 1, 114, 6.060837745666504
0, 1, 115, 5.79508113861084
0, 1, 116, 10.71771049499512
0, 1, 117, 5.76154899597168
0, 1, 118, 5.12959098815918
0, 1, 119, 6.178997993469238
0, 1, 120, 6.501859188079834
0, 1, 121, 2.154401302337646
0, 1, 122, 3.080688714981079
0, 1, 123, 5.950546741485596
0, 1, 124, 10.63144588470459
0, 1, 125, 3.076380252838135
0, 1, 126, 3.140121221542358
0, 1, 127, 1.435901284217834
0, 2, 0, 4.427593231201172
0, 2, 1, 4.084376335144043
0, 2, 2, 4.586531639099121
0, 2, 3, 5.580784320831299
0, 2, 4, 3.013194561004639
0, 2, 5, 3.527673006057739
0, 2, 6, 2.098237037658691
0, 2, 7, 3.639866590499878
0, 2, 8, 3.792162895202637
0, 2, 9, 5.865943431854248
0, 2, 10, 11.87835502624512
0, 2, 11, 7.035161018371582
0, 2, 12, 7.944881439208984
0, 2, 13, 10.39257335662842
0, 2, 14, 9.493070602416992
0, 2, 15, 8.465127944946289
0, 2, 16, 8.828945159912109
0, 2, 17, 16.17862701416016
0, 2, 18, 30.72418212890625
0, 2, 19, 120.1166687011719
0, 2, 20, 244.8513336181641
0, 2, 21, 270.4375915527344
0, 2, 22, 316.365478515625
0, 2, 23, 301.3443298339844
0, 2, 24, 286.3667907714844
0, 2, 25, 304.4535827636719
0, 2, 26, 292.7554321289062
0, 2, 27, 275.26416015625
0, 2, 28, 272.1954040527344
0, 2, 29, 272.9679565429688
0, 2, 30, 291.449462890625
0, 2, 31, 278.1416015625
0, 2, 32, 294.27734375
0, 2, 33, 281.9842224121094
0, 2, 34, 332.7687683105469
0, 2, 35, 288.2790832519531
0, 2, 36, 303.7572937011719
0, 2, 37, 315.428955078125
0, 2, 38, 314.1107482910156
0, 2, 39, 267.2763061523438
0, 2, 40, 311.1547241210938
0, 2, 41, 292.1234436035156
0, 2, 42, 303.1644592285156
0, 2, 43, 316.5018920898438
0, 2, 44, 310.4637756347656
0, 2, 45, 325.0638732910156
0, 2, 46, 289.8306274414062
0, 2, 47, 306.6045532226562
0, 2, 48, 278.7126159667969
0, 2, 49, 279.0354919433594
0, 2, 50, 295.6698913574219
0, 2, 51, 285.9555358886719
0, 2, 52, 271.777099609375
0, 2, 53, 287.5491638183594
0, 2, 54, 281.3774719238281
0, 2, 55, 274.3452453613281
0, 2, 56, 301.6404418945312
0, 2, 57, 293.7462768554688
0, 2, 58, 303.0463562011719
0, 2, 59, 287.6526489257812
0, 2, 60, 317.5161743164062
0, 2, 61, 301.5764465332031
0, 2, 62, 313.4490966796875
0, 2, 63, 302.4362487792969
0, 2, 64, 296.0801696777344
0, 2, 65, 311.3901672363281
0, 2, 66, 281.1162719726562
0, 2, 67, 290.2321166992188
0, 2, 68, 297.421630859375
0, 2, 69, 314.2227478027344
0, 2, 70, 334.2816772460938
0, 2, 71, 284.9901428222656
0, 2, 72, 302.408447265625
0, 2, 73, 310.7574157714844
0, 2, 74, 286.366943359375
0, 2, 75, 304.6602172851562
0, 2, 76, 287.0089721679688
0, 2, 77, 298.5090026855469
0, 2, 78, 315.7169799804688
0, 2, 79, 309.514892578125
0, 2, 80, 298.5368347167969
0, 2, 81, 282.6996765136719
0, 2, 82, 316.4822998046875
0, 2, 83, 313.7706298828125
0, 2, 84, 287.25634765625
0, 2, 85, 281.4146118164062
0, 2, 86, 324.383056640625
0, 2, 87, 286.3618774414062
0, 2, 88, 280.8912353515625
0, 2, 89, 294.4161682128906
0, 2, 90, 297.4144897460938
0, 2, 91, 275.6953125
0, 2, 92, 306.3395385742188
0, 2, 93, 317.30517578125
0, 2, 94, 291.2574462890625
0, 2, 95, 314.5373229980469
0, 2, 96, 314.5343322753906
0, 2, 97, 293.3565673828125
0, 2, 98, 295.3096923828125
0, 2, 99, 273.2930297851562
0, 2, 100, 306.4637451171875
0, 2, 101, 300.7867126464844
0, 2, 102, 299.0608520507812
0, 2, 103, 292.3160400390625
0, 2, 104, 292.7836303710938
0, 2, 105, 274.3680114746094
0, 2, 106, 297.3396606445312
0, 2, 107, 268.4886169433594
0, 2, 108, 118.6311645507812
0, 2, 109, 32.47298431396484
0, 2, 110, 12.24043846130371
0, 2, 111, 11.49504852294922
0, 2, 112, 6.943473339080811
0, 2, 113, 11.679518699646
0, 2, 114, 8.932510375976562
0, 2, 115, 10.9249382019043
0, 2, 116, 8.356947898864746
0, 2, 117, 7.010366916656494
0, 2, 118, 4.55946159362793
0, 2, 119, 3.391382455825806
0, 2, 120, 6.400044918060303
0, 2, 121, 2.726658582687378
0, 2, 122, 4.431282043457031
0, 2, 123, 4.499743461608887
0, 2, 124, 3.354514360427856
0, 2, 125, 5.20600700378418
0, 2, 126, 3.510444402694702
0, 2, 127, 5.701395988464355
0, 3, 0, 3.634773015975952
0, 3, 1, 3.036713600158691
0, 3, 2, 4.749282360076904
0, 3, 3, 1.248816132545471
0, 3, 4, 4.272964000701904
0, 3, 5, 8.680722236633301
0, 3, 6, 6.038276672363281
0, 3, 7, 6.211364269256592
0, 3, 8, 7.066137790679932
0, 3, 9, 5.372542858123779
0, 3, 10, 6.692777156829834
0, 3, 11, 3.968879222869873
0, 3, 12, 7.098734378814697
0, 3, 13, 15.33104038238525
0, 3, 14, 10.63717746734619
0, 3, 15, 12.82394504547119
0, 3, 16, 10.81400394439697
0, 3, 17, 19.53329658508301
0, 3, 18, 52.69491958618164
0, 3, 19, 175.5705871582031
0, 3, 20, 269.8569946289062
0, 3, 21, 270.9696655273438
0, 3, 22, 282.4634704589844
0, 3, 23, 286.669921875
0, 3, 24, 284.7201843261719
0, 3, 25, 271.986572265625
0, 3, 26, 303.4585571289062
0, 3, 27, 293.1561584472656
0, 3, 28, 281.4254760742188
0, 3, 29, 339.194091796875
0, 3, 30, 316.1300659179688
0, 3, 31, 290.1563110351562
0, 3, 32, 306.7301330566406
0, 3, 33, 314.1559143066406
0, 3, 34, 320.8750610351562
0, 3, 35, 308.6180725097656
0, 3, 36, 270.0596923828125
0, 3, 37, 317.8500366210938
0, 3, 38, 304.5324096679688
0, 3, 39, 293.4687194824219
0, 3, 40, 267.9816589355469
0, 3, 41, 299.8092346191406
0, 3, 42, 286.1812744140625
0, 3, 43, 305.7388000488281
0, 3, 44, 311.9042053222656
0, 3, 45, 291.6441650390625
0, 3, 46, 328.5492553710938
0, 3, 47, 300.1092834472656
0, 3, 48, 305.1552124023438
0, 3, 49, 275.843505859375
0, 3, 50, 293.1927795410156
0, 3, 51, 275.9250183105469
0, 3, 52, 315.8539428710938
0, 3, 53, 288.6547546386719
0, 3, 54, 285.2676391601562
0, 3, 55, 283.20263671875
0, 3, 56, 299.4209594726562
0, 3, 57, 289.9761657714844
0, 3, 58, 308.5268859863281
0, 3, 59, 297.0755310058594
0, 3, 60, 298.0305786132812
0, 3, 61, 263.2853088378906
0, 3, 62, 285.8423767089844
0, 3, 63, 306.326171875
0, 3, 64, 316.2557983398438
0, 3, 65, 305.7850341796875
0, 3, 66, 316.81201171875
0, 3, 67, 320.2037048339844
0, 3, 68, 281.3482055664062
0, 3, 69, 285.2667846679688
0, 3, 70, 288.1758422851562
0, 3, 71, 299.9413757324219
0, 3, 72, 268.3610229492188
0, 3, 73, 311.520263671875
0, 3, 74, 293.3360595703125
0, 3, 75, 289.5744018554688
0, 3, 76, 305.7641296386719
0, 3, 77, 316.1028747558594
0, 3, 78, 303.6262817382812
0, 3, 79, 282.2827758789062
0, 3, 80, 290.7460327148438
0, 3, 81, 310.5119323730469
0, 3, 82, 317.6736145019531
0, 3, 83, 300.0509948730469
0, 3, 84, 311.666748046875
0, 3, 85, 292.6956176757812
0, 3, 86, 304.8677368164062
0, 3, 87, 298.2955932617188
0, 3, 88, 298.7813415527344
0, 3, 89, 297.4769592285156
0, 3, 90, 275.7666625976562
0, 3, 91, 284.3003234863281
0, 3, 92, 302.8612060546875
0, 3, 93, 313.0104675292969
0, 3, 94, 298.2640686035156
0, 3, 95, 337.8562927246094
0, 3, 96, 289.6998291015625
0, 3, 97, 284.5482177734375
0, 3, 98, 277.3417663574219
0, 3, 99, 261.5091857910156
0, 3, 100, 284.2918090820312
0, 3, 101, 297.4737548828125
0, 3, 102, 274.5165100097656
0, 3, 103, 320.4810791015625
0, 3, 104, 309.0345764160156
0, 3, 105, 289.0947875976562
0, 3, 106, 301.6650390625
0, 3, 107, 282.3200073242188
0, 3, 108, 167.1781768798828
0, 3, 109, 58.17728424072266
0, 3, 110, 16.80681228637695
0, 3, 111, 13.87529468536377
0, 3, 112, 13.26827239990234
0, 3, 113, 8.192840576171875
0, 3, 114, 10.52239036560059
0, 3, 115, 8.901364326477051
0, 3, 116, 6.739854335784912
0, 3, 117, 11.01565265655518
0, 3, 118, 8.188879013061523
0, 3, 119, 6.969263076782227
0, 3, 120, 7.250026226043701
0, 3, 121, 4.299032688140869
0, 3, 122, 3.317209482192993
0, 3, 123, 6.022092342376709
0, 3, 124, 3.885735750198364
0, 3, 125, 5.760008811950684
0, 3, 126, 5.032370567321777
0, 3, 127, 2.87662410736084
0, 4, 0, 2.407071113586426
0, 4, 1, 3.626362323760986
0, 4, 2, 3.794400691986084
0, 4, 3, 2.251412153244019
0, 4, 4, 5.300378799438477
0, 4, 5, 7.364063262939453
0, 4, 6, 7.650707244873047
0, 4, 7, 5.800045967102051
0, 4, 8, 3.780690670013428
0, 4, 9, 5.49051570892334
0, 4, 10, 7.19779634475708
0, 4, 11, 6.151508331298828
0, 4, 12, 5.570951461791992
0, 4, 13, 8.989927291870117
0, 4, 14, 11.26412105560303
0, 4, 15, 8.526736259460449
0, 4, 16, 14.16595268249512
0, 4, 17, 17.52175331115723
0, 4, 18, 91.64793395996094
0, 4, 19, 222.7896881103516
0, 4, 20, 282.4573669433594
0, 4, 21, 273.9071655273438
0, 4, 22, 305.063720703125
0, 4, 23, 267.5086059570312
0, 4, 24, 288.7282104492188
0, 4, 25, 275.0401916503906
0, 4, 26, 293.666259765625
0, 4, 27, 284.9294738769531
0, 4, 28, 306.2431945800781
0, 4, 29, 319.934814453125
0, 4, 30, 309.4826049804688
0, 4, 31, 304.7200317382812
0, 4, 32, 280.0132446289062
0, 4, 33, 294.9999694824219
0, 4, 34, 296.6895141601562
0, 4, 35, 310.9633483886719
0, 4, 36, 292.1420593261719
0, 4, 37, 286.0516052246094
0, 4, 38, 300.2571716308594
0, 4, 39, 293.884521484375
0, 4, 40, 302.6864624023438
0, 4, 41, 311.9794616699219
0, 4, 42, 331.1142883300781
0, 4, 43, 295.6019287109375
0, 4, 44, 321.1188354492188
0, 4, 45, 322.2945861816406
0, 4, 46, 304.0158386230469
0, 4, 47, 292.5642395019531
0, 4, 48, 295.5908508300781
0, 4, 49, 275.7845153808594
0, 4, 50, 297.810546875
0, 4, 51, 317.3612976074219
0, 4, 52, 328.2830505371094
0, 4, 53, 305.5079650878906
0, 4, 54, 286.4556884765625
0, 4, 55, 315.8607482910156
0, 4, 56, 285.522705078125
0, 4, 57, 309.1049194335938
0, 4, 58, 294.2004089355469
0, 4, 59, 309.5859985351562
0, 4, 60, 302.9577941894531
0, 4, 61, 316.5830383300781
0, 4, 62, 308.9006652832031
0, 4, 63, 299.6985778808594
0, 4, 64, 330.6335144042969
0, 4, 65, 318.7765197753906
0, 4, 66, 292.7760009765625
0, 4, 67, 284.8688049316406
0, 4, 68, 313.9614868164062
0, 4, 69, 275.8910522460938
0, 4, 70, 299.4450073242188
0, 4, 71, 321.987548828125
0, 4, 72, 333.5459289550781
0, 4, 73, 300.5636596679688
0, 4, 74, 292.4186096191406
0, 4, 75, 290.7447204589844
0, 4, 76, 273.2728881835938
0, 4, 77, 280.7893371582031
0, 4, 78, 308.0169982910156
0, 4, 79, 318.9901733398438
0, 4, 80, 314.9451293945312
0, 4, 81, 312.6944580078125
0, 4, 82, 298.0318908691406
0, 4, 83, 301.4759826660156
0, 4, 84, 292.8864135742188
0, 4, 85, 294.1486511230469
0, 4, 86, 297.6733093261719
0, 4, 87, 285.6471862792969
0, 4, 88, 306.0031127929688
0, 4, 89, 294.879150390625
0, 4, 90, 332.8966674804688
0, 4, 91, 303.331298828125
0, 4, 92, 288.6786193847656
0, 4, 93, 297.8121643066406
0, 4, 94, 294.1324157714844
0, 4, 95, 289.2591552734375
0, 4, 96, 324.1529846191406
0, 4, 97, 276.4251403808594
0, 4, 98, 328.9830017089844
0, 4, 99, 313.6360473632812
0, 4, 100, 300.7764282226562
0, 4, 101, 258.5784301757812
0, 4, 102, 296.1480712890625
0, 4, 103, 317.3415222167969
0, 4, 104, 282.0111999511719
0, 4, 105, 309.5308532714844
0, 4, 106, 286.1881713867188
0, 4, 107, 297.780517578125
0, 4, 108, 225.7477111816406
0, 4, 109, 81.23841857910156
0, 4, 110, 16.8260555267334
0, 4, 111, 13.91724300384521
0, 4, 112, 11.39424896240234
0, 4, 113, 10.16036701202393
0, 4, 114, 7.718862533569336
0, 4, 115, 9.944057464599609
0, 4, 116, 10.95088768005371
0, 4, 117, 7.149765014648438
0, 4, 118, 8.348928451538086
0, 4, 119, 9.391237258911133
0, 4, 120, 8.724950790405273
0, 4, 121, 5.536148071289062
0, 4, 122, 3.842092990875244
0, 4, 123, 6.759575366973877
0, 4, 124, 6.700883865356445
0, 4, 125, 6.816146850585938
0, 4, 126, 3.187464714050293
0, 4, 127, 5.584864139556885
0, 5, 0, 4.484102725982666
0, 5, 1, 3.220297813415527
0, 5, 2, 3.147081613540649
0, 5, 3, 5.296887874603271
0, 5, 4, 4.767549514770508
0, 5, 5, 7.350056171417236
0, 5, 6, 6.392704963684082
0, 5, 7, 4.392767429351807
0, 5, 8, 3.315622568130493
0, 5, 9, 6.524139881134033
0, 5, 10, 6.228244781494141
0, 5, 11, 8.485927581787109
0, 5, 12, 6.905367374420166
0, 5, 13, 7.124687194824219
0, 5, 14, 14.15462875366211
0, 5, 15, 16.07941627502441
0, 5, 16, 15.52725124359131
0, 5, 17, 29.20950508117676
0, 5, 18, 137.3411407470703
0, 5, 19, 286.8079833984375
0, 5, 20, 307.5755310058594
0, 5, 21, 315.839111328125
0, 5, 22, 275.6600646972656
0, 5, 23, 310.7837524414062
0, 5, 24, 302.9711303710938
0, 5, 25, 289.0940856933594
0, 5, 26, 294.9441223144531
0, 5, 27, 324.5602416992188
0, 5, 28, 305.0155334472656
0, 5, 29, 298.6026611328125
0, 5, 30, 327.8424377441406
0, 5, 31, 286.9665832519531
0, 5, 32, 301.4945678710938
0, 5, 33, 303.9790344238281
0, 5, 34, 295.282470703125
0, 5, 35, 310.8168640136719
0, 5, 36, 270.5877380371094
0, 5, 37, 281.8162841796875
0, 5, 38, 294.3642272949219
0, 5, 39, 311.7115783691406
0, 5, 40, 307.5052490234375
0, 5, 41, 275.0755920410156
0, 5, 42, 304.4443359375
0, 5, 43, 314.7626953125
0, 5, 44, 290.6539306640625
0, 5, 45, 304.3632507324219
0, 5, 46, 265.9089660644531
0, 5, 47, 280.1271362304688
0, 5, 48, 293.2780456542969
0, 5, 49, 287.7375183105469
0, 5, 50, 293.7166442871094
0, 5, 51, 278.0099487304688
0, 5, 52, 269.4927978515625
0, 5, 53, 284.9833374023438
0, 5, 54, 292.6213073730469
0, 5, 55, 344.8274841308594
0, 5, 56, 307.9234008789062
0, 5, 57, 307.8274841308594
0, 5, 58, 312.6273193359375
0, 5, 59, 303.1914367675781
0, 5, 60, 307.9609985351562
0, 5, 61, 280.5431213378906
0, 5, 62, 324.2629699707031
0, 5, 63, 292.0844421386719
0, 5, 64, 322.6714782714844
0, 5, 65, 305.5023498535156
0, 5, 66, 331.2041931152344
0, 5, 67, 313.5455322265625
0, 5, 68, 309.3841247558594
0, 5, 69, 311.6977844238281
0, 5, 70, 299.6644287109375
0, 5, 71, 274.7285461425781
0, 5, 72, 313.7399597167969
0, 5, 73, 302.3065795898438
0, 5, 74, 297.4047241210938
0, 5, 75, 292.5169372558594
0, 5, 76, 285.8501281738281
0, 5, 77, 298.8624877929688
0, 5, 78, 313.2962341308594
0, 5, 79, 307.4169006347656
0, 5, 80, 294.923583984375
0, 5, 81, 327.7023315429688
0, 5, 82, 323.3684692382812
0, 5, 83, 284.579345703125
0, 5, 84, 302.9900207519531
0, 5, 85, 270.2347412109375
0, 5, 86, 326.3241271972656
0, 5, 87, 283.4236450195312
0, 5, 88, 315.2454528808594
0, 5, 89, 304.6533508300781
0, 5, 90, 315.6829528808594
0, 5, 91, 312.6315307617188
0, 5, 92, 296.4154357910156
0, 5, 93, 323.409423828125
0, 5, 94, 308.6420288085938
0, 5, 95, 297.0327758789062
0, 5, 96, 295.7737426757812
0, 5, 97, 295.11962890625
0, 5, 98, 319.8973693847656
0, 5, 99, 303.0170288085938
0, 5, 100, 291.3104248046875
0, 5, 101, 306.0531921386719
0, 5, 102, 291.5641784667969
0, 5, 103, 314.7423706054688
0, 5, 104, 302.7966613769531
0, 5, 105, 290.4691467285156
0, 5, 106, 281.934326171875
0, 5, 107, 291.48828125
0, 5, 108, 267.1824951171875
0, 5, 109, 159.5604858398438
0, 5, 110, 40.72227096557617
0, 5, 111, 19.27723121643066
0, 5, 112, 18.06668663024902
0, 5, 113, 14.3192310333252
0, 5, 114, 13.56372356414795
0, 5, 115, 8.042875289916992
0, 5, 116, 7.83818244934082
0, 5, 117, 8.28550910949707
0, 5, 118, 13.50670909881592
0, 5, 119, 5.081769943237305
0, 5, 120, 4.723754405975342
0, 5, 121, 5.842775344848633
0, 5, 122, 5.067185878753662
0, 5, 123, 4.292569637298584
0, 5, 124, 6.617238521575928
0, 5, 125, 3.175457715988159
0, 5, 126, 6.37115478515625
0, 5, 127, 2.718601703643799
0, 6, 0, 3.918648719787598
0, 6, 1, 4.680488586425781
0, 6, 2, 7.319729804992676
0, 6, 3, 4.834726333618164
0, 6, 4, 3.919094085693359
0, 6, 5, 5.574833869934082
0, 6, 6, 7.487254619598389
0, 6, 7, 6.110946655273438
0, 6, 8, 10.15219402313232
0, 6, 9, 5.341399669647217
0, 6, 10, 8.735003471374512
0, 6, 11, 9.563322067260742
0, 6, 12, 8.712825775146484
0, 6, 13, 14.54936695098877
0, 6, 14, 8.154306411743164
0, 6, 15, 16.72187042236328
0, 6, 16, 27.88707160949707
0, 6, 17, 56.14371871948242
0, 6, 18, 175.4425811767578
0, 6, 19, 276.6928405761719
0, 6, 20, 291.4187927246094
0, 6, 21, 313.5954284667969
0, 6, 22, 320.9894104003906
0, 6, 23, 306.4348754882812
0, 6, 24, 316.5672302246094
0, 6, 25, 316.4432678222656
0, 6, 26, 319.1069946289062
0, 6, 27, 331.6593017578125
0, 6, 28, 297.2254333496094
0, 6, 29, 331.4508666992188
0, 6, 30, 280.7127380371094
0, 6, 31, 286.9095153808594
0, 6, 32, 341.0784912109375
0, 6, 33, 300.3365478515625
0, 6, 34, 341.8888244628906
0, 6, 35, 322.5618591308594
0, 6, 36, 274.0442810058594
0, 6, 37, 289.5645141601562
0, 6, 38, 310.7873229980469
0, 6, 39, 299.6213073730469
0, 6, 40, 282.2268676757812
0, 6, 41, 293.1109313964844
0, 6, 42, 305.1623229980469
0, 6, 43, 288.0547790527344
0, 6, 44, 280.7782592773438
0, 6, 45, 319.0242309570312
0, 6, 46, 307.6791076660156
0, 6, 47, 334.8906555175781
0, 6, 48, 294.0609741210938
0, 6, 49, 310.7370910644531
0, 6, 50, 329.4754638671875
0, 6, 51, 310.3627624511719
0, 6, 52, 323.3659973144531
0, 6, 53, 326.2840881347656
0, 6, 54, 304.0256042480469
0, 6, 55, 305.6893615722656
0, 6, 56, 294.9098815917969
0, 6, 57, 312.7099304199219
0, 6, 58, 261.7503967285156
0, 6, 59, 304.27734375
0, 6, 60, 312.3580322265625
0, 6, 61, 269.5366516113281
0, 6, 62, 334.8139953613281
0, 6, 63, 321.7746887207031
0, 6, 64, 290.4769592285156
0, 6, 65, 286.53271484375
0, 6, 66, 304.5836791992188
0, 6, 67, 312.0715942382812
0, 6, 68, 292.7778930664062
0, 6, 69, 278.1670837402344
0, 6, 70, 274.2010803222656
0, 6, 71, 289.0974731445312
0, 6, 72, 310.0230407714844
0, 6, 73, 296.4586486816406
0, 6, 74, 329.9761047363281
0, 6, 75, 343.0423278808594
0, 6, 76, 300.1607360839844
0, 6, 77, 288.6515197753906
0, 6, 78, 281.6798706054688
0, 6, 79, 292.1596984863281
0, 6, 80, 301.2260131835938
0, 6, 81, 314.8878173828125
0, 6, 82, 319.6930541992188
0, 6, 83, 318.9785766601562
0, 6, 84, 297.2786865234375
0, 6, 85, 301.33984375
0, 6, 86, 328.8535766601562
0, 6, 87, 292.5479431152344
0, 6, 88, 305.2682800292969
0, 6, 89, 306.4178161621094
0, 6, 90, 301.0269775390625
0, 6, 91, 310.7532043457031
0, 6, 92, 284.593505859375
0, 6, 93, 294.6582946777344
0, 6, 94, 271.9126281738281
0, 6, 95, 300.0413208007812
0, 6, 96, 347.478515625
0, 6, 97, 307.3881225585938
0, 6, 98, 301.0380554199219
0, 6, 99, 271.380126953125
0, 6, 100, 307.6792297363281
0, 6, 101, 294.37158203125
0, 6, 102, 306.126953125
0, 6, 103, 308.7879943847656
0, 6, 104, 293.2800598144531
0, 6, 105, 301.3742370605469
0, 6, 106, 306.0046997070312
0, 6, 107, 303.4503479003906
0, 6, 108, 265.6288452148438
0, 6, 109, 185.4829406738281
0, 6, 110, 56.24619674682617
0, 6, 111, 21.6907844543457
0, 6, 112, 13.62407779693604
0, 6, 113, 10.11244297027588
0, 6, 114, 11.3363733291626
0, 6, 115, 12.90855312347412
0, 6, 116, 8.968401908874512
0, 6, 117, 9.983057975769043
0, 6, 118, 10.82652282714844
0, 6, 119, 9.02147102355957
0, 6, 120, 7.326292037963867
0, 6, 121, 5.425538063049316
0, 6, 122, 7.290162086486816
0, 6, 123, 4.340304374694824
0, 6, 124, 6.449550628662109
0, 6, 125, 6.87578296661377
0, 6, 126, 5.437424659729004
0, 6, 127, 5.785081386566162
0, 7, 0, 4.932826042175293
0, 7, 1, 3.57272744178772
0, 7, 2, 5.67277193069458
0, 7, 3, 5.073713302612305
0, 7, 4, 4.025614261627197
0, 7, 5, 4.187125682830811
0, 7, 6, 6.39384126663208
0, 7, 7, 6.025640964508057
0, 7, 8, 4.358909606933594
0, 7, 9, 6.420999050140381
0, 7, 10, 11.97167110443115
0, 7, 11, 11.8086404800415
0, 7, 12, 11.55635452270508
0, 7, 13, 13.21532344818115
0, 7, 14, 9.431468963623047
0, 7, 15, 18.13799476623535
0, 7, 16, 25.36648750305176
0, 7, 17, 99.56773376464844
0, 7, 18, 218.2469787597656
0, 7, 19, 289.904541015625
0, 7, 20, 297.8125915527344
0, 7, 21, 278.2651062011719
0, 7, 22, 300.2584533691406
0, 7, 23, 292.7054138183594
0, 7, 24, 315.0026245117188
0, 7, 25, 323.7597045898438
0, 7, 26, 276.921875
0, 7, 27, 297.2272338867188
0, 7, 28, 324.9684448242188
0, 7, 29, 320.0812072753906
0, 7, 30, 302.7867126464844
0, 7, 31, 277.5614929199219
0, 7, 32, 305.5391235351562
0, 7, 33, 262.8090515136719
0, 7, 34, 297.2059936523438
0, 7, 35, 320.6483459472656
0, 7, 36, 330.1664123535156
0, 7, 37, 321.1363525390625
0, 7, 38, 295.5581359863281
0, 7, 39, 307.1659545898438
0, 7, 40, 293.1044616699219
0, 7, 41, 271.3392944335938
0, 7, 42, 302.6725769042969
0, 7, 43, 275.4019470214844
0, 7, 44, 306.0576782226562
0, 7, 45, 293.76220703125
0, 7, 46, 280.1664733886719
0, 7, 47, 326.6691589355469
0, 7, 48, 286.5226135253906
0, 7, 49, 301.565673828125
0, 7, 50, 324.6701965332031
0, 7, 51, 299.6584777832031
0, 7, 52, 326.0697326660156
0, 7, 53, 310.9478759765625
0, 7, 54, 322.7141418457031
0, 7, 55, 306.4254760742188
0, 7, 56, 278.1941528320312
0, 7, 57, 281.2671203613281
0, 7, 58, 294.4879150390625
0, 7, 59, 295.0577697753906
0, 7, 60, 321.8943786621094
0, 7, 61, 277.0169982910156
0, 7, 62, 297.0354919433594
0, 7, 63, 291.326904296875
0, 7, 64, 309.7148742675781
0, 7, 65, 333.9673156738281
0, 7, 66, 317.1709899902344
0, 7, 67, 301.5246887207031
0, 7, 68, 279.4126892089844
0, 7, 69, 293.5259704589844
0, 7, 70, 301.0180969238281
0, 7, 71, 309.2858276367188
0, 7, 72, 284.4786376953125
0, 7, 73, 296.0348815917969
0, 7, 74, 343.3073425292969
0, 7, 75, 318.7894592285156
0, 7, 76, 323.9467163085938
0, 7, 77, 280.1565856933594
0, 7, 78, 302.5180053710938
0, 7, 79, 295.9376220703125
0, 7, 80, 311.1860656738281
0, 7, 81, 319.4232482910156
0, 7, 82, 327.9666442871094
0, 7, 83, 314.833251953125
0, 7, 84, 310.9142456054688
0, 7, 85, 271.6542053222656
0, 7, 86, 310.0203857421875
0, 7, 87, 310.7754821777344
0, 7, 88, 305.4261779785156
0, 7, 89, 293.0544738769531
0, 7, 90, 307.8460693359375
0, 7, 91, 315.5367126464844
0, 7, 92, 289.0379028320312
0, 7, 93, 307.2361450195312
0, 7, 94, 277.0899353027344
0, 7, 95, 295.4819946289062
0, 7, 96, 330.8848876953125
0, 7, 97, 295.7360229492188
0, 7, 98, 289.9580688476562
0, 7, 99, 311.0740356445312
0, 7, 100, 280.6266479492188
0, 7, 101, 275.0014343261719
0, 7, 102, 289.7611083984375
0, 7, 103, 292.8235168457031
0, 7, 104, 273.9012756347656
0, 7, 105, 305.8323364257812
0, 7, 106, 318.5506896972656
0, 7, 107, 296.6473388671875
0, 7, 108, 274.4755249023438
0, 7, 109, 234.4594268798828
0, 7, 110, 95.97203063964844
0, 7, 111, 24.61993980407715
0, 7, 112, 13.86008071899414
0, 7, 113, 15.42713260650635
0, 7, 114, 13.20748805999756
0, 7, 115, 13.76300239562988
0, 7, 116, 9.013626098632812
0, 7, 117, 5.757692337036133
0, 7, 118, 7.167037963867188
0, 7, 119, 7.363833427429199
0, 7, 120, 6.91071081161499
0, 7, 121, 7.673649311065674
0, 7, 122, 8.200581550598145
0, 7, 123, 6.015634536743164
0, 7, 124, 3.348202228546143
0, 7, 125, 7.07771110534668
0, 7, 126, 6.729282855987549
0, 7, 127, 5.131304740905762
0, 8, 0, 4.820640087127686
0, 8, 1, 3.186020135879517
0, 8, 2, 3.643651962280273
0, 8, 3, 1.535964131355286
0, 8, 4, 4.803433418273926
0, 8, 5, 3.946102857589722
0, 8, 6, 5.64061975479126
0, 8, 7, 4.747622966766357
0, 8, 8, 8.685366630554199
0, 8, 9, 5.346475601196289
0, 8, 10, 6.465497970581055
0, 8, 11, 10.83837699890137
0, 8, 12, 12.26232242584229
0, 8, 13, 15.78772354125977
0, 8, 14, 12.22411727905273
0, 8, 15, 18.62626457214355
0, 8, 16, 32.82850646972656
0, 8, 17, 129.7444915771484
0, 8, 18, 241.8757019042969
0, 8, 19, 296.8401794433594
0, 8, 20, 283.4226989746094
0, 8, 21, 306.6843566894531
0, 8, 22, 295.4013366699219
0, 8, 23, 275.2080688476562
0, 8, 24, 267.875244140625
0, 8, 25, 276.7286376953125
0, 8, 26, 306.0727844238281
0, 8, 27, 308.1823425292969
0, 8, 28, 303.191650390625
0, 8, 29, 320.9811706542969
0, 8, 30, 314.9271850585938
0, 8, 31, 305.6768493652344
0, 8, 32, 282.4485168457031
0, 8, 33, 292.7605895996094
0, 8, 34, 288.9594116210938
0, 8, 35, 280.0650024414062
0, 8, 36, 314.9875793457031
0, 8, 37, 339.2236633300781
0, 8, 38, 330.5511169433594
0, 8, 39, 279.9697875976562
