# TOPAS Version: 3.1.p3
# Parameter File: batch_inserts_228.txt
# Results for scorer Readout_Adipose
# Scored in component: MyBox
# X in 1 bin  of 0.75 cm
# Y in 512 bins of 0.0783984 cm
# Z in 128 bins of 0.078125 cm
# EnergyDeposit ( MeV ) : Sum   
0, 0, 0, 4.587678909301758
0, 0, 1, 1.873596787452698
0, 0, 2, 4.127118110656738
0, 0, 3, 2.212950229644775
0, 0, 4, 3.172661542892456
0, 0, 5, 1.340491414070129
0, 0, 6, 7.748025894165039
0, 0, 7, 8.239109039306641
0, 0, 8, 2.671566247940063
0, 0, 9, 5.514784336090088
0, 0, 10, 6.050464630126953
0, 0, 11, 5.328214645385742
0, 0, 12, 5.605236053466797
0, 0, 13, 5.781301021575928
0, 0, 14, 7.32938289642334
0, 0, 15, 9.22247314453125
0, 0, 16, 7.978567123413086
0, 0, 17, 8.832558631896973
0, 0, 18, 13.34938526153564
0, 0, 19, 43.9599609375
0, 0, 20, 139.0988922119141
0, 0, 21, 224.4756774902344
0, 0, 22, 248.1186370849609
0, 0, 23, 257.4636840820312
0, 0, 24, 251.7041015625
0, 0, 25, 258.681640625
0, 0, 26, 234.4480438232422
0, 0, 27, 237.3103637695312
0, 0, 28, 273.5419616699219
0, 0, 29, 251.4145812988281
0, 0, 30, 228.9005584716797
0, 0, 31, 244.9811096191406
0, 0, 32, 263.7688293457031
0, 0, 33, 261.5277404785156
0, 0, 34, 288.1273193359375
0, 0, 35, 266.4297790527344
0, 0, 36, 247.0645141601562
0, 0, 37, 252.4605255126953
0, 0, 38, 268.2896118164062
0, 0, 39, 229.2072906494141
0, 0, 40, 241.5076293945312
0, 0, 41, 265.582763671875
0, 0, 42, 232.1627502441406
0, 0, 43, 259.7755737304688
0, 0, 44, 253.7945251464844
0, 0, 45, 253.1577911376953
0, 0, 46, 243.7484588623047
0, 0, 47, 253.1440124511719
0, 0, 48, 267.3135375976562
0, 0, 49, 275.1432495117188
0, 0, 50, 250.9374694824219
0, 0, 51, 253.7954406738281
0, 0, 52, 272.6543273925781
0, 0, 53, 292.0684814453125
0, 0, 54, 241.760498046875
0, 0, 55, 239.3139343261719
0, 0, 56, 277.8226013183594
0, 0, 57, 261.6534729003906
0, 0, 58, 246.7667541503906
0, 0, 59, 270.7520751953125
0, 0, 60, 234.2658081054688
0, 0, 61, 246.7052917480469
0, 0, 62, 258.4352111816406
0, 0, 63, 268.6055603027344
0, 0, 64, 254.1951751708984
0, 0, 65, 260.7709350585938
0, 0, 66, 276.7681579589844
0, 0, 67, 247.6901702880859
0, 0, 68, 258.8616638183594
0, 0, 69, 260.9696655273438
0, 0, 70, 272.4409790039062
0, 0, 71, 238.8258514404297
0, 0, 72, 249.6031799316406
0, 0, 73, 258.8235778808594
0, 0, 74, 251.1750183105469
0, 0, 75, 242.4410095214844
0, 0, 76, 228.3967132568359
0, 0, 77, 260.0385437011719
0, 0, 78, 256.8186950683594
0, 0, 79, 279.1904907226562
0, 0, 80, 215.6983795166016
0, 0, 81, 268.7445678710938
0, 0, 82, 256.0123596191406
0, 0, 83, 244.1237182617188
0, 0, 84, 269.4850463867188
0, 0, 85, 231.1790008544922
0, 0, 86, 253.8807525634766
0, 0, 87, 251.2747192382812
0, 0, 88, 261.3206176757812
0, 0, 89, 282.1669616699219
0, 0, 90, 243.8614807128906
0, 0, 91, 281.2220458984375
0, 0, 92, 253.7080383300781
0, 0, 93, 249.8382720947266
0, 0, 94, 248.1169738769531
0, 0, 95, 248.6275024414062
0, 0, 96, 275.9015808105469
0, 0, 97, 272.5388488769531
0, 0, 98, 273.3653564453125
0, 0, 99, 257.6264038085938
0, 0, 100, 259.7933654785156
0, 0, 101, 226.4027252197266
0, 0, 102, 232.8615875244141
0, 0, 103, 269.2223510742188
0, 0, 104, 255.2785186767578
0, 0, 105, 250.2689971923828
0, 0, 106, 245.6767272949219
0, 0, 107, 151.5187835693359
0, 0, 108, 37.64701461791992
0, 0, 109, 12.20571231842041
0, 0, 110, 11.89630508422852
0, 0, 111, 10.01362133026123
0, 0, 112, 6.1224365234375
0, 0, 113, 4.169368743896484
0, 0, 114, 7.457122802734375
0, 0, 115, 5.941577911376953
0, 0, 116, 4.410928249359131
0, 0, 117, 6.681571006774902
0, 0, 118, 6.82648229598999
0, 0, 119, 5.817647457122803
0, 0, 120, 3.288886070251465
0, 0, 121, 4.344215869903564
0, 0, 122, 5.188313961029053
0, 0, 123, 4.839042186737061
0, 0, 124, 4.508197784423828
0, 0, 125, 2.547115087509155
0, 0, 126, 5.325569629669189
0, 0, 127, 4.698732376098633
0, 1, 0, 6.930047512054443
0, 1, 1, 2.518016576766968
0, 1, 2, 3.755368947982788
0, 1, 3, 1.140946269035339
0, 1, 4, 3.688498497009277
0, 1, 5, 3.637460231781006
0, 1, 6, 3.420345544815063
0, 1, 7, 5.2249755859375
0, 1, 8, 8.834966659545898
0, 1, 9, 4.182670593261719
0, 1, 10, 7.763185977935791
0, 1, 11, 12.37221240997314
0, 1, 12, 8.885584831237793
0, 1, 13, 10.59039211273193
0, 1, 14, 7.059613704681396
0, 1, 15, 7.671993732452393
0, 1, 16, 11.27813339233398
0, 1, 17, 10.38073635101318
0, 1, 18, 20.20175361633301
0, 1, 19, 65.25830841064453
0, 1, 20, 201.4741821289062
0, 1, 21, 254.0554504394531
0, 1, 22, 297.8824768066406
0, 1, 23, 282.8775634765625
0, 1, 24, 276.1901245117188
0, 1, 25, 289.2757568359375
0, 1, 26, 267.9798278808594
0, 1, 27, 306.6722412109375
0, 1, 28, 299.3118591308594
0, 1, 29, 295.2291564941406
0, 1, 30, 281.8592529296875
0, 1, 31, 293.3507995605469
0, 1, 32, 289.84130859375
0, 1, 33, 296.0836791992188
0, 1, 34, 291.6610412597656
0, 1, 35, 277.786865234375
0, 1, 36, 306.2106323242188
0, 1, 37, 297.1221008300781
0, 1, 38, 278.0690307617188
0, 1, 39, 295.8355712890625
0, 1, 40, 265.7602233886719
0, 1, 41, 286.059326171875
0, 1, 42, 289.4205322265625
0, 1, 43, 329.844970703125
0, 1, 44, 277.9232177734375
0, 1, 45, 292.9080200195312
0, 1, 46, 260.5155639648438
0, 1, 47, 311.3078002929688
0, 1, 48, 284.5114135742188
0, 1, 49, 302.1106567382812
0, 1, 50, 263.9912719726562
0, 1, 51, 272.759765625
0, 1, 52, 294.1042175292969
0, 1, 53, 305.0787048339844
0, 1, 54, 273.9288024902344
0, 1, 55, 292.9550170898438
0, 1, 56, 281.21337890625
0, 1, 57, 299.5867919921875
0, 1, 58, 311.9490051269531
0, 1, 59, 295.1052551269531
0, 1, 60, 296.408447265625
0, 1, 61, 276.8998718261719
0, 1, 62, 309.3294372558594
0, 1, 63, 284.4199523925781
0, 1, 64, 287.9322204589844
0, 1, 65, 297.039306640625
0, 1, 66, 291.1616516113281
0, 1, 67, 292.3421630859375
0, 1, 68, 278.1855773925781
0, 1, 69, 280.7666320800781
0, 1, 70, 272.1890258789062
0, 1, 71, 272.2797546386719
0, 1, 72, 285.2435607910156
0, 1, 73, 302.4230346679688
0, 1, 74, 306.2181396484375
0, 1, 75, 292.8020629882812
0, 1, 76, 284.5736999511719
0, 1, 77, 291.0894775390625
0, 1, 78, 297.1432189941406
0, 1, 79, 300.5220031738281
0, 1, 80, 295.9306945800781
0, 1, 81, 300.3647766113281
0, 1, 82, 281.9306945800781
0, 1, 83, 331.8963317871094
0, 1, 84, 307.9732360839844
0, 1, 85, 252.0971374511719
0, 1, 86, 295.7086181640625
0, 1, 87, 291.20166015625
0, 1, 88, 298.4368286132812
0, 1, 89, 288.6372375488281
0, 1, 90, 269.9832153320312
0, 1, 91, 316.8627014160156
0, 1, 92, 291.6243591308594
0, 1, 93, 285.6139831542969
0, 1, 94, 304.1977844238281
0, 1, 95, 284.1651000976562
0, 1, 96, 284.6446228027344
0, 1, 97, 302.58349609375
0, 1, 98, 281.0861206054688
0, 1, 99, 267.3417053222656
0, 1, 100, 276.6592407226562
0, 1, 101, 281.7123413085938
0, 1, 102, 278.2361450195312
0, 1, 103, 282.6292114257812
0, 1, 104, 308.0270385742188
0, 1, 105, 295.7775268554688
0, 1, 106, 260.1161499023438
0, 1, 107, 190.8937530517578
0, 1, 108, 80.53481292724609
0, 1, 109, 23.1939582824707
0, 1, 110, 11.07057571411133
0, 1, 111, 7.291745185852051
0, 1, 112, 11.29951095581055
0, 1, 113, 4.931730270385742
0, 1, 114, 6.483400821685791
0, 1, 115, 7.0281081199646
0, 1, 116, 11.48232650756836
0, 1, 117, 5.88991117477417
0, 1, 118, 4.238375186920166
0, 1, 119, 6.38021183013916
0, 1, 120, 5.60264778137207
0, 1, 121, 3.762997627258301
0, 1, 122, 4.245614051818848
0, 1, 123, 4.05717945098877
0, 1, 124, 7.568715572357178
0, 1, 125, 4.793934345245361
0, 1, 126, 2.675679922103882
0, 1, 127, 3.285934925079346
0, 2, 0, 4.352302551269531
0, 2, 1, 3.455518007278442
0, 2, 2, 5.430182456970215
0, 2, 3, 4.96437406539917
0, 2, 4, 5.121733665466309
0, 2, 5, 1.481901168823242
0, 2, 6, 2.545301675796509
0, 2, 7, 3.700246810913086
0, 2, 8, 3.967986106872559
0, 2, 9, 5.788487911224365
0, 2, 10, 9.788204193115234
0, 2, 11, 6.797243118286133
0, 2, 12, 6.001387119293213
0, 2, 13, 9.378252029418945
0, 2, 14, 8.919926643371582
0, 2, 15, 7.944775581359863
0, 2, 16, 10.79423332214355
0, 2, 17, 17.44235801696777
0, 2, 18, 31.3149242401123
0, 2, 19, 115.8321304321289
0, 2, 20, 245.5453338623047
0, 2, 21, 270.5794067382812
0, 2, 22, 315.6007385253906
0, 2, 23, 299.9551391601562
0, 2, 24, 287.6522827148438
0, 2, 25, 301.9181823730469
0, 2, 26, 294.393798828125
0, 2, 27, 275.6109619140625
0, 2, 28, 274.3763427734375
0, 2, 29, 274.8589477539062
0, 2, 30, 289.376953125
0, 2, 31, 280.7263488769531
0, 2, 32, 292.1884765625
0, 2, 33, 281.4313049316406
0, 2, 34, 330.3747863769531
0, 2, 35, 289.3148193359375
0, 2, 36, 303.1837158203125
0, 2, 37, 314.4345397949219
0, 2, 38, 312.6224670410156
0, 2, 39, 269.6962585449219
0, 2, 40, 308.7556457519531
0, 2, 41, 291.26123046875
0, 2, 42, 303.2855529785156
0, 2, 43, 311.7125244140625
0, 2, 44, 311.9066162109375
0, 2, 45, 324.9815063476562
0, 2, 46, 285.9963989257812
0, 2, 47, 302.7748413085938
0, 2, 48, 281.581787109375
0, 2, 49, 278.38671875
0, 2, 50, 293.7838439941406
0, 2, 51, 283.9683227539062
0, 2, 52, 275.5441589355469
0, 2, 53, 288.3489074707031
0, 2, 54, 280.0037536621094
0, 2, 55, 276.8042297363281
0, 2, 56, 301.4153137207031
0, 2, 57, 292.0610656738281
0, 2, 58, 301.7354431152344
0, 2, 59, 289.1476135253906
0, 2, 60, 318.3782348632812
0, 2, 61, 300.9128723144531
0, 2, 62, 315.4732360839844
0, 2, 63, 302.7758178710938
0, 2, 64, 296.8638916015625
0, 2, 65, 312.081298828125
0, 2, 66, 280.442626953125
0, 2, 67, 291.7077026367188
0, 2, 68, 296.9523620605469
0, 2, 69, 310.0656433105469
0, 2, 70, 336.769287109375
0, 2, 71, 282.4506530761719
0, 2, 72, 301.3399047851562
0, 2, 73, 314.1771240234375
0, 2, 74, 289.2590942382812
0, 2, 75, 306.3226318359375
0, 2, 76, 287.0646057128906
0, 2, 77, 300.6726379394531
0, 2, 78, 315.8361511230469
0, 2, 79, 307.0653991699219
0, 2, 80, 296.974365234375
0, 2, 81, 282.9356994628906
0, 2, 82, 319.6620483398438
0, 2, 83, 313.7267150878906
0, 2, 84, 290.3514099121094
0, 2, 85, 281.9568176269531
0, 2, 86, 325.1832885742188
0, 2, 87, 286.339111328125
0, 2, 88, 282.5055541992188
0, 2, 89, 298.6142272949219
0, 2, 90, 296.6690063476562
0, 2, 91, 277.0854187011719
0, 2, 92, 304.7348022460938
0, 2, 93, 316.4964294433594
0, 2, 94, 292.6094360351562
0, 2, 95, 314.1099548339844
0, 2, 96, 315.5885009765625
0, 2, 97, 289.1191101074219
0, 2, 98, 292.3615112304688
0, 2, 99, 272.8241577148438
0, 2, 100, 306.0766906738281
0, 2, 101, 300.5133056640625
0, 2, 102, 296.3677062988281
0, 2, 103, 291.9820251464844
0, 2, 104, 291.78466796875
0, 2, 105, 274.4088439941406
0, 2, 106, 295.4147644042969
0, 2, 107, 271.2359924316406
0, 2, 108, 115.8946762084961
0, 2, 109, 32.34519195556641
0, 2, 110, 11.30960559844971
0, 2, 111, 12.93669700622559
0, 2, 112, 8.529876708984375
0, 2, 113, 10.03756332397461
0, 2, 114, 8.818057060241699
0, 2, 115, 9.719542503356934
0, 2, 116, 9.928250312805176
0, 2, 117, 7.348620414733887
0, 2, 118, 4.861084461212158
0, 2, 119, 2.85028076171875
0, 2, 120, 7.24047327041626
0, 2, 121, 2.646697282791138
0, 2, 122, 3.73023509979248
0, 2, 123, 4.481437206268311
0, 2, 124, 2.640554189682007
0, 2, 125, 6.306034088134766
0, 2, 126, 4.640861988067627
0, 2, 127, 5.900690078735352
0, 3, 0, 4.098294258117676
0, 3, 1, 2.783945560455322
0, 3, 2, 4.442886829376221
0, 3, 3, 2.327033519744873
0, 3, 4, 5.171252250671387
0, 3, 5, 6.787890911102295
0, 3, 6, 6.145453929901123
0, 3, 7, 4.875556945800781
0, 3, 8, 6.365386962890625
0, 3, 9, 5.810407161712646
0, 3, 10, 5.109045028686523
0, 3, 11, 4.272707939147949
0, 3, 12, 8.363715171813965
0, 3, 13, 16.22346496582031
0, 3, 14, 11.69724941253662
0, 3, 15, 14.88292598724365
0, 3, 16, 11.07715702056885
0, 3, 17, 20.07825660705566
0, 3, 18, 51.37039566040039
0, 3, 19, 176.6422424316406
0, 3, 20, 270.8926391601562
0, 3, 21, 272.04296875
0, 3, 22, 281.5580139160156
0, 3, 23, 285.6402282714844
0, 3, 24, 285.5599060058594
0, 3, 25, 270.8984680175781
0, 3, 26, 305.3599548339844
0, 3, 27, 291.4365539550781
0, 3, 28, 280.5036010742188
0, 3, 29, 338.8778076171875
0, 3, 30, 315.9986267089844
0, 3, 31, 285.9979553222656
0, 3, 32, 307.2980041503906
0, 3, 33, 315.9326171875
0, 3, 34, 321.5535888671875
0, 3, 35, 306.3490905761719
0, 3, 36, 272.6806335449219
0, 3, 37, 316.290283203125
0, 3, 38, 304.7429809570312
0, 3, 39, 290.1349182128906
0, 3, 40, 269.4731750488281
0, 3, 41, 302.174560546875
0, 3, 42, 284.8124694824219
0, 3, 43, 304.5572509765625
0, 3, 44, 310.92236328125
0, 3, 45, 291.9248657226562
0, 3, 46, 329.1416625976562
0, 3, 47, 300.4950256347656
0, 3, 48, 303.9354553222656
0, 3, 49, 276.214599609375
0, 3, 50, 290.0643615722656
0, 3, 51, 275.3822937011719
0, 3, 52, 314.8341674804688
0, 3, 53, 287.95849609375
0, 3, 54, 285.2361755371094
0, 3, 55, 282.6334838867188
0, 3, 56, 298.0677795410156
0, 3, 57, 288.6246337890625
0, 3, 58, 305.3845520019531
0, 3, 59, 293.3076171875
0, 3, 60, 297.4703369140625
0, 3, 61, 264.9693908691406
0, 3, 62, 283.7496337890625
0, 3, 63, 305.9037475585938
0, 3, 64, 316.0186157226562
0, 3, 65, 304.4393310546875
0, 3, 66, 316.1715698242188
0, 3, 67, 316.8174743652344
0, 3, 68, 280.9272155761719
0, 3, 69, 285.1590270996094
0, 3, 70, 288.2579650878906
0, 3, 71, 300.7108764648438
0, 3, 72, 269.7410278320312
0, 3, 73, 310.2103271484375
0, 3, 74, 293.6772155761719
0, 3, 75, 291.3366088867188
0, 3, 76, 304.8429260253906
0, 3, 77, 314.4577331542969
0, 3, 78, 302.7445068359375
0, 3, 79, 282.6412963867188
0, 3, 80, 291.2625427246094
0, 3, 81, 310.3512573242188
0, 3, 82, 316.9909973144531
0, 3, 83, 300.1290893554688
0, 3, 84, 312.3595886230469
0, 3, 85, 291.5886535644531
0, 3, 86, 302.4605102539062
0, 3, 87, 297.9632568359375
0, 3, 88, 299.9685974121094
0, 3, 89, 296.2704467773438
0, 3, 90, 277.6388854980469
0, 3, 91, 284.6352233886719
0, 3, 92, 304.6713562011719
0, 3, 93, 312.0524597167969
0, 3, 94, 299.6646118164062
0, 3, 95, 333.18798828125
0, 3, 96, 289.5734252929688
0, 3, 97, 286.2953796386719
0, 3, 98, 277.6920166015625
0, 3, 99, 261.5961303710938
0, 3, 100, 284.4918518066406
0, 3, 101, 297.2665100097656
0, 3, 102, 273.9441223144531
0, 3, 103, 320.4262390136719
0, 3, 104, 309.5564880371094
0, 3, 105, 289.0536804199219
0, 3, 106, 305.6256103515625
0, 3, 107, 285.4965515136719
0, 3, 108, 165.8901214599609
0, 3, 109, 56.58124160766602
0, 3, 110, 19.18268203735352
0, 3, 111, 12.92288494110107
0, 3, 112, 11.35338687896729
0, 3, 113, 7.069657325744629
0, 3, 114, 10.31149005889893
0, 3, 115, 8.858561515808105
0, 3, 116, 10.06398677825928
0, 3, 117, 7.221467018127441
0, 3, 118, 7.131258964538574
0, 3, 119, 8.084334373474121
0, 3, 120, 10.1358060836792
0, 3, 121, 2.985944509506226
0, 3, 122, 2.594217300415039
0, 3, 123, 7.16335391998291
0, 3, 124, 2.543863534927368
0, 3, 125, 6.389868259429932
0, 3, 126, 4.100006103515625
0, 3, 127, 3.077202081680298
0, 4, 0, 3.208019256591797
0, 4, 1, 5.201661586761475
0, 4, 2, 2.691888093948364
0, 4, 3, 2.088510274887085
0, 4, 4, 6.112804412841797
0, 4, 5, 9.377199172973633
0, 4, 6, 5.734387397766113
0, 4, 7, 5.50542688369751
0, 4, 8, 3.628241777420044
0, 4, 9, 7.664339065551758
0, 4, 10, 7.440653800964355
0, 4, 11, 7.596829414367676
0, 4, 12, 6.293833255767822
0, 4, 13, 8.363032341003418
0, 4, 14, 10.23438549041748
0, 4, 15, 10.64779376983643
0, 4, 16, 14.62619686126709
0, 4, 17, 17.94918823242188
0, 4, 18, 92.64837646484375
0, 4, 19, 226.0735778808594
0, 4, 20, 286.9687194824219
0, 4, 21, 274.0575866699219
0, 4, 22, 305.0259704589844
0, 4, 23, 265.9453125
0, 4, 24, 288.4886779785156
0, 4, 25, 272.4526672363281
0, 4, 26, 294.0121154785156
0, 4, 27, 283.417724609375
0, 4, 28, 307.3823547363281
0, 4, 29, 321.68798828125
0, 4, 30, 310.1683654785156
0, 4, 31, 305.4130249023438
0, 4, 32, 280.5092163085938
0, 4, 33, 298.3554382324219
0, 4, 34, 298.15185546875
0, 4, 35, 312.8833312988281
0, 4, 36, 294.8838806152344
0, 4, 37, 288.7467346191406
0, 4, 38, 297.50830078125
0, 4, 39, 293.0693054199219
0, 4, 40, 301.2303771972656
0, 4, 41, 312.7590637207031
0, 4, 42, 332.8468933105469
0, 4, 43, 297.5577392578125
0, 4, 44, 320.9066467285156
0, 4, 45, 324.2090454101562
0, 4, 46, 306.4824829101562
0, 4, 47, 292.8573303222656
0, 4, 48, 296.6263427734375
0, 4, 49, 280.8970336914062
0, 4, 50, 296.08837890625
0, 4, 51, 317.0298156738281
0, 4, 52, 327.6396789550781
0, 4, 53, 306.9185485839844
0, 4, 54, 287.72998046875
0, 4, 55, 315.6575317382812
0, 4, 56, 289.3972778320312
0, 4, 57, 308.8628845214844
0, 4, 58, 296.7571411132812
0, 4, 59, 309.5919189453125
0, 4, 60, 301.8515319824219
0, 4, 61, 315.0677795410156
0, 4, 62, 309.90869140625
0, 4, 63, 299.9591979980469
0, 4, 64, 333.1339111328125
0, 4, 65, 315.0684204101562
0, 4, 66, 292.6710815429688
0, 4, 67, 286.5087280273438
0, 4, 68, 313.918701171875
0, 4, 69, 275.9147644042969
0, 4, 70, 299.3201293945312
0, 4, 71, 321.9037475585938
0, 4, 72, 332.2104187011719
0, 4, 73, 298.5170593261719
0, 4, 74, 291.8884887695312
0, 4, 75, 290.3451843261719
0, 4, 76, 274.5881652832031
0, 4, 77, 279.6722106933594
0, 4, 78, 312.1119995117188
0, 4, 79, 320.5542602539062
0, 4, 80, 319.6712036132812
0, 4, 81, 313.8180236816406
0, 4, 82, 296.8030700683594
0, 4, 83, 301.9588623046875
0, 4, 84, 291.1330871582031
0, 4, 85, 294.9130249023438
0, 4, 86, 298.4476013183594
0, 4, 87, 285.1837463378906
0, 4, 88, 307.1652221679688
0, 4, 89, 293.9640808105469
0, 4, 90, 332.0226440429688
0, 4, 91, 301.9804077148438
0, 4, 92, 288.425537109375
0, 4, 93, 296.1979064941406
0, 4, 94, 292.2872619628906
0, 4, 95, 290.1134338378906
0, 4, 96, 323.3109436035156
0, 4, 97, 274.2950744628906
0, 4, 98, 327.0078125
0, 4, 99, 312.8950500488281
0, 4, 100, 300.697998046875
0, 4, 101, 256.2626342773438
0, 4, 102, 297.917724609375
0, 4, 103, 316.7381286621094
0, 4, 104, 281.7489624023438
0, 4, 105, 310.9241943359375
0, 4, 106, 288.2299194335938
0, 4, 107, 297.4902954101562
0, 4, 108, 225.56494140625
0, 4, 109, 81.57457733154297
0, 4, 110, 17.84068298339844
0, 4, 111, 14.42738914489746
0, 4, 112, 8.156876564025879
0, 4, 113, 12.11570644378662
0, 4, 114, 8.442264556884766
0, 4, 115, 9.698668479919434
0, 4, 116, 8.086132049560547
0, 4, 117, 5.735994338989258
0, 4, 118, 11.39581203460693
0, 4, 119, 9.444147109985352
0, 4, 120, 4.297920703887939
0, 4, 121, 5.871232986450195
0, 4, 122, 4.119451522827148
0, 4, 123, 7.237735271453857
0, 4, 124, 6.495675086975098
0, 4, 125, 10.17797470092773
0, 4, 126, 5.838864803314209
0, 4, 127, 5.133030891418457
0, 5, 0, 4.596994876861572
0, 5, 1, 2.554040193557739
0, 5, 2, 3.976766586303711
0, 5, 3, 3.916208028793335
0, 5, 4, 5.206635475158691
0, 5, 5, 5.832275867462158
0, 5, 6, 5.806079387664795
0, 5, 7, 5.589947700500488
0, 5, 8, 5.031427383422852
0, 5, 9, 4.770406246185303
0, 5, 10, 5.814488410949707
0, 5, 11, 6.751476764678955
0, 5, 12, 9.863407135009766
0, 5, 13, 6.054245471954346
0, 5, 14, 12.98183250427246
0, 5, 15, 16.40952301025391
0, 5, 16, 14.07166576385498
0, 5, 17, 30.00392150878906
0, 5, 18, 138.3253936767578
0, 5, 19, 288.3561096191406
0, 5, 20, 306.0118103027344
0, 5, 21, 316.140380859375
0, 5, 22, 276.2852478027344
0, 5, 23, 313.8955078125
0, 5, 24, 302.0077514648438
0, 5, 25, 290.5401000976562
0, 5, 26, 294.4789428710938
0, 5, 27, 322.4636535644531
0, 5, 28, 301.9986572265625
0, 5, 29, 300.0750732421875
0, 5, 30, 322.8793640136719
0, 5, 31, 284.9024963378906
0, 5, 32, 304.138427734375
0, 5, 33, 304.1396789550781
0, 5, 34, 296.7144470214844
0, 5, 35, 310.3966369628906
0, 5, 36, 268.4005432128906
0, 5, 37, 281.0110168457031
0, 5, 38, 292.6783142089844
0, 5, 39, 312.3434143066406
0, 5, 40, 308.3752746582031
0, 5, 41, 272.7400512695312
0, 5, 42, 308.1353759765625
0, 5, 43, 314.9913024902344
0, 5, 44, 292.60498046875
0, 5, 45, 302.8609619140625
0, 5, 46, 264.0343322753906
0, 5, 47, 281.0083618164062
0, 5, 48, 294.9532470703125
0, 5, 49, 285.5645141601562
0, 5, 50, 296.0056457519531
0, 5, 51, 278.8699951171875
0, 5, 52, 267.9529724121094
0, 5, 53, 282.8039245605469
0, 5, 54, 291.7314758300781
0, 5, 55, 345.7286987304688
0, 5, 56, 305.0874938964844
0, 5, 57, 307.8727722167969
0, 5, 58, 312.0469970703125
0, 5, 59, 303.283935546875
0, 5, 60, 307.6554870605469
0, 5, 61, 282.0588073730469
0, 5, 62, 325.4034729003906
0, 5, 63, 291.7207641601562
0, 5, 64, 325.0537109375
0, 5, 65, 307.0741577148438
0, 5, 66, 328.116455078125
0, 5, 67, 312.1213073730469
0, 5, 68, 308.5722045898438
0, 5, 69, 313.9642333984375
0, 5, 70, 299.9733276367188
0, 5, 71, 271.2333679199219
0, 5, 72, 308.51953125
0, 5, 73, 303.0308227539062
0, 5, 74, 297.2481994628906
0, 5, 75, 295.6481628417969
0, 5, 76, 286.65673828125
0, 5, 77, 303.0647583007812
0, 5, 78, 314.6972045898438
0, 5, 79, 306.2043151855469
0, 5, 80, 295.1264038085938
0, 5, 81, 324.8187255859375
0, 5, 82, 323.8861999511719
0, 5, 83, 279.544921875
0, 5, 84, 304.0532836914062
0, 5, 85, 270.2991027832031
0, 5, 86, 326.8043212890625
0, 5, 87, 285.7358703613281
0, 5, 88, 313.9920959472656
0, 5, 89, 304.0931091308594
0, 5, 90, 315.5582580566406
0, 5, 91, 314.6589965820312
0, 5, 92, 296.7955322265625
0, 5, 93, 321.3861083984375
0, 5, 94, 307.6921997070312
0, 5, 95, 297.2752380371094
0, 5, 96, 296.9635009765625
0, 5, 97, 294.778564453125
0, 5, 98, 318.7518615722656
0, 5, 99, 302.3729858398438
0, 5, 100, 289.9310302734375
0, 5, 101, 307.9396057128906
0, 5, 102, 291.6106872558594
0, 5, 103, 313.8424682617188
0, 5, 104, 305.5028381347656
0, 5, 105, 291.7290344238281
0, 5, 106, 281.1400451660156
0, 5, 107, 292.8254089355469
0, 5, 108, 266.1006469726562
0, 5, 109, 156.8147430419922
0, 5, 110, 40.17403411865234
0, 5, 111, 23.58676910400391
0, 5, 112, 17.10248947143555
0, 5, 113, 15.57577323913574
0, 5, 114, 12.75662708282471
0, 5, 115, 8.486232757568359
0, 5, 116, 7.441301822662354
0, 5, 117, 7.264200687408447
0, 5, 118, 14.1105432510376
0, 5, 119, 3.841891765594482
0, 5, 120, 6.884468555450439
0, 5, 121, 7.300329208374023
0, 5, 122, 7.541554927825928
0, 5, 123, 5.823029041290283
0, 5, 124, 5.245681285858154
0, 5, 125, 3.971971273422241
0, 5, 126, 7.155704975128174
0, 5, 127, 4.428040504455566
0, 6, 0, 4.152232646942139
0, 6, 1, 2.383164167404175
0, 6, 2, 4.711216926574707
0, 6, 3, 5.777152538299561
0, 6, 4, 3.758903026580811
0, 6, 5, 5.483232021331787
0, 6, 6, 9.365397453308105
0, 6, 7, 7.209527015686035
0, 6, 8, 9.558940887451172
0, 6, 9, 5.945183277130127
0, 6, 10, 8.507180213928223
0, 6, 11, 7.25883674621582
0, 6, 12, 9.765396118164062
0, 6, 13, 16.33650207519531
0, 6, 14, 9.507787704467773
0, 6, 15, 18.55410194396973
0, 6, 16, 26.99129295349121
0, 6, 17, 54.39122009277344
0, 6, 18, 174.3828430175781
0, 6, 19, 277.1343078613281
0, 6, 20, 290.8570556640625
0, 6, 21, 313.1092224121094
0, 6, 22, 323.1069030761719
0, 6, 23, 304.2158508300781
0, 6, 24, 315.0989379882812
0, 6, 25, 315.8495178222656
0, 6, 26, 321.571044921875
0, 6, 27, 333.098388671875
0, 6, 28, 298.2158813476562
0, 6, 29, 328.1470642089844
0, 6, 30, 281.7774658203125
0, 6, 31, 287.154296875
0, 6, 32, 339.8866271972656
0, 6, 33, 300.5467834472656
0, 6, 34, 340.774658203125
0, 6, 35, 320.987548828125
0, 6, 36, 272.7889709472656
0, 6, 37, 291.6203308105469
0, 6, 38, 314.3889770507812
0, 6, 39, 299.6482238769531
0, 6, 40, 283.4287719726562
0, 6, 41, 294.1570739746094
0, 6, 42, 303.6500854492188
0, 6, 43, 288.5499267578125
0, 6, 44, 281.1094360351562
0, 6, 45, 319.10205078125
0, 6, 46, 300.19189453125
0, 6, 47, 332.8629455566406
0, 6, 48, 292.3403625488281
0, 6, 49, 311.5003051757812
0, 6, 50, 328.6999206542969
0, 6, 51, 309.7445678710938
0, 6, 52, 322.6333618164062
0, 6, 53, 326.6017456054688
0, 6, 54, 304.1447143554688
0, 6, 55, 305.2220153808594
0, 6, 56, 291.8813781738281
0, 6, 57, 312.4077453613281
0, 6, 58, 262.6467895507812
0, 6, 59, 302.6683959960938
0, 6, 60, 310.4258422851562
0, 6, 61, 270.6251525878906
0, 6, 62, 338.7457885742188
0, 6, 63, 322.9874267578125
0, 6, 64, 291.1551818847656
0, 6, 65, 285.5512084960938
0, 6, 66, 303.9087829589844
0, 6, 67, 309.0671081542969
0, 6, 68, 293.3597412109375
0, 6, 69, 277.9744873046875
0, 6, 70, 273.2132568359375
0, 6, 71, 288.8468627929688
0, 6, 72, 309.560546875
0, 6, 73, 293.9374084472656
0, 6, 74, 330.091552734375
0, 6, 75, 342.77001953125
0, 6, 76, 296.8097229003906
0, 6, 77, 284.7237854003906
0, 6, 78, 278.8852233886719
0, 6, 79, 292.8291931152344
0, 6, 80, 298.6352233886719
0, 6, 81, 314.0643310546875
0, 6, 82, 318.6215209960938
0, 6, 83, 321.3009643554688
0, 6, 84, 295.5010070800781
0, 6, 85, 301.8775939941406
0, 6, 86, 330.5686340332031
0, 6, 87, 291.2032775878906
0, 6, 88, 305.2070922851562
0, 6, 89, 303.4270629882812
0, 6, 90, 298.837158203125
0, 6, 91, 310.63232421875
0, 6, 92, 284.0675354003906
0, 6, 93, 296.1119689941406
0, 6, 94, 274.6174011230469
0, 6, 95, 299.5057678222656
0, 6, 96, 349.6260375976562
0, 6, 97, 308.2405395507812
0, 6, 98, 301.2130126953125
0, 6, 99, 272.9469909667969
0, 6, 100, 314.2174682617188
0, 6, 101, 292.2565307617188
0, 6, 102, 307.3372497558594
0, 6, 103, 308.0683898925781
0, 6, 104, 291.4602355957031
0, 6, 105, 302.0069580078125
0, 6, 106, 307.3546142578125
0, 6, 107, 306.7410888671875
0, 6, 108, 266.39990234375
0, 6, 109, 187.5411682128906
0, 6, 110, 54.55155181884766
0, 6, 111, 23.53897476196289
0, 6, 112, 12.29824542999268
0, 6, 113, 12.17648315429688
0, 6, 114, 12.08535385131836
0, 6, 115, 12.51784324645996
0, 6, 116, 9.869025230407715
0, 6, 117, 7.273316860198975
0, 6, 118, 10.38985252380371
0, 6, 119, 7.624336242675781
0, 6, 120, 7.732311248779297
0, 6, 121, 5.51497220993042
0, 6, 122, 7.972785949707031
0, 6, 123, 4.833935737609863
0, 6, 124, 7.242123603820801
0, 6, 125, 6.834137439727783
0, 6, 126, 2.21647834777832
0, 6, 127, 6.894678115844727
0, 7, 0, 6.882033824920654
0, 7, 1, 3.012401580810547
0, 7, 2, 5.954843997955322
0, 7, 3, 5.813535213470459
0, 7, 4, 3.810409545898438
0, 7, 5, 6.394629955291748
0, 7, 6, 5.641278266906738
0, 7, 7, 5.724350929260254
0, 7, 8, 5.336838722229004
0, 7, 9, 7.88125467300415
0, 7, 10, 8.324139595031738
0, 7, 11, 11.59574890136719
0, 7, 12, 10.67491722106934
0, 7, 13, 10.48615837097168
0, 7, 14, 10.04858303070068
0, 7, 15, 17.01456642150879
0, 7, 16, 26.92612075805664
0, 7, 17, 99.33214569091797
0, 7, 18, 218.2527618408203
0, 7, 19, 288.6124267578125
0, 7, 20, 298.5095825195312
0, 7, 21, 279.3706665039062
0, 7, 22, 298.3659057617188
0, 7, 23, 290.8963012695312
0, 7, 24, 313.1422119140625
0, 7, 25, 323.7098083496094
0, 7, 26, 277.6819152832031
0, 7, 27, 299.6439819335938
0, 7, 28, 327.5296630859375
0, 7, 29, 317.2041931152344
0, 7, 30, 299.372802734375
0, 7, 31, 277.8210754394531
0, 7, 32, 307.058349609375
0, 7, 33, 265.7240600585938
0, 7, 34, 296.7091979980469
0, 7, 35, 319.6817321777344
0, 7, 36, 330.6723937988281
0, 7, 37, 323.0731201171875
0, 7, 38, 296.2480773925781
0, 7, 39, 307.1665954589844
0, 7, 40, 290.5457458496094
0, 7, 41, 274.5272216796875
0, 7, 42, 300.4747924804688
0, 7, 43, 274.9483032226562
0, 7, 44, 303.0767517089844
0, 7, 45, 294.6566162109375
0, 7, 46, 282.9927673339844
0, 7, 47, 328.5269165039062
0, 7, 48, 286.2299499511719
0, 7, 49, 300.7277221679688
0, 7, 50, 322.4683532714844
0, 7, 51, 298.5357971191406
0, 7, 52, 326.7123413085938
0, 7, 53, 311.6207885742188
0, 7, 54, 324.0708312988281
0, 7, 55, 308.433837890625
0, 7, 56, 279.61328125
0, 7, 57, 283.9762573242188
0, 7, 58, 297.1771850585938
0, 7, 59, 295.28662109375
0, 7, 60, 323.9165344238281
0, 7, 61, 280.3592529296875
0, 7, 62, 298.2106323242188
0, 7, 63, 293.9598083496094
0, 7, 64, 307.9671020507812
0, 7, 65, 332.6846313476562
0, 7, 66, 319.3753356933594
0, 7, 67, 300.8617858886719
0, 7, 68, 278.9369506835938
0, 7, 69, 293.7845764160156
0, 7, 70, 302.1188049316406
0, 7, 71, 308.9781188964844
0, 7, 72, 284.3025207519531
0, 7, 73, 298.4586181640625
0, 7, 74, 343.6256408691406
0, 7, 75, 319.0905456542969
0, 7, 76, 322.7468872070312
0, 7, 77, 279.5670166015625
0, 7, 78, 300.6246948242188
0, 7, 79, 297.422607421875
0, 7, 80, 309.9859924316406
0, 7, 81, 320.3193054199219
0, 7, 82, 329.8191833496094
0, 7, 83, 319.8667602539062
0, 7, 84, 309.6427307128906
0, 7, 85, 271.8438110351562
0, 7, 86, 311.0457763671875
0, 7, 87, 309.8552856445312
0, 7, 88, 308.1015625
0, 7, 89, 293.1634826660156
0, 7, 90, 309.7518005371094
0, 7, 91, 316.4607238769531
0, 7, 92, 289.4907836914062
0, 7, 93, 308.5751037597656
0, 7, 94, 274.8072814941406
0, 7, 95, 296.6188354492188
0, 7, 96, 330.7228393554688
0, 7, 97, 293.54150390625
0, 7, 98, 289.8598022460938
0, 7, 99, 310.3680419921875
0, 7, 100, 280.9604187011719
0, 7, 101, 274.9139404296875
0, 7, 102, 289.6275024414062
0, 7, 103, 290.744384765625
0, 7, 104, 274.3457641601562
0, 7, 105, 307.1360473632812
0, 7, 106, 318.2482604980469
0, 7, 107, 296.4994506835938
0, 7, 108, 274.2861022949219
0, 7, 109, 236.1682281494141
0, 7, 110, 95.60213470458984
0, 7, 111, 24.02687072753906
0, 7, 112, 13.67446804046631
0, 7, 113, 14.13870334625244
0, 7, 114, 13.35455417633057
0, 7, 115, 12.63472652435303
0, 7, 116, 7.055739402770996
0, 7, 117, 4.792909145355225
0, 7, 118, 7.452506065368652
0, 7, 119, 6.246939182281494
0, 7, 120, 4.268068790435791
0, 7, 121, 5.598654270172119
0, 7, 122, 6.79399585723877
0, 7, 123, 6.658305168151855
0, 7, 124, 5.266007900238037
0, 7, 125, 5.573942184448242
0, 7, 126, 9.132347106933594
0, 7, 127, 3.247746467590332
0, 8, 0, 7.131130218505859
0, 8, 1, 3.666192531585693
0, 8, 2, 4.580219745635986
0, 8, 3, 2.403738021850586
0, 8, 4, 3.857543706893921
0, 8, 5, 5.095439910888672
0, 8, 6, 5.676075458526611
0, 8, 7, 4.677022933959961
0, 8, 8, 7.974384307861328
0, 8, 9, 3.776822566986084
0, 8, 10, 6.345515251159668
0, 8, 11, 11.88642597198486
0, 8, 12, 12.06654167175293
0, 8, 13, 14.33302688598633
0, 8, 14, 12.97519969940186
0, 8, 15, 18.25931739807129
0, 8, 16, 32.70988845825195
0, 8, 17, 131.74951171875
0, 8, 18, 241.7423095703125
0, 8, 19, 295.9325866699219
0, 8, 20, 287.1358337402344
0, 8, 21, 307.9171142578125
0, 8, 22, 295.1307983398438
0, 8, 23, 276.1313781738281
0, 8, 24, 268.3631591796875
0, 8, 25, 274.814453125
0, 8, 26, 306.3794555664062
0, 8, 27, 308.7654113769531
0, 8, 28, 305.4664306640625
0, 8, 29, 318.1455383300781
0, 8, 30, 315.9536437988281
0, 8, 31, 304.8571472167969
0, 8, 32, 281.4327697753906
0, 8, 33, 294.2233581542969
0, 8, 34, 288.0958862304688
0, 8, 35, 280.7784423828125
0, 8, 36, 314.8758239746094
0, 8, 37, 338.8390808105469
0, 8, 38, 332.5203552246094
0, 8, 39, 280.9418640136719
0, 8, 40, 307.131103515625
