# TOPAS Version: 3.1.p3
# Parameter File: batch_inserts_318.txt
# Results for scorer Readout_Adipose
# Scored in component: MyBox
# X in 1 bin  of 0.75 cm
# Y in 512 bins of 0.0783984 cm
# Z in 128 bins of 0.078125 cm
# EnergyDeposit ( MeV ) : Sum   
0, 0, 0, 2.592351913452148
0, 0, 1, 1.324369192123413
0, 0, 2, 4.56246280670166
0, 0, 3, 2.854231357574463
0, 0, 4, 2.430280923843384
0, 0, 5, 2.603834867477417
0, 0, 6, 6.731388568878174
0, 0, 7, 9.815939903259277
0, 0, 8, 5.578595638275146
0, 0, 9, 3.83913254737854
0, 0, 10, 6.021011352539062
0, 0, 11, 4.328520774841309
0, 0, 12, 5.380950450897217
0, 0, 13, 5.662453651428223
0, 0, 14, 6.776203155517578
0, 0, 15, 10.55788803100586
0, 0, 16, 9.518580436706543
0, 0, 17, 11.0020580291748
0, 0, 18, 13.01905345916748
0, 0, 19, 45.33305740356445
0, 0, 20, 137.9708862304688
0, 0, 21, 223.5354919433594
0, 0, 22, 249.2615509033203
0, 0, 23, 258.4500427246094
0, 0, 24, 251.5761108398438
0, 0, 25, 258.0830688476562
0, 0, 26, 235.66796875
0, 0, 27, 236.7976684570312
0, 0, 28, 271.2856750488281
0, 0, 29, 252.8245849609375
0, 0, 30, 229.8826904296875
0, 0, 31, 245.3813323974609
0, 0, 32, 264.16455078125
0, 0, 33, 261.2820739746094
0, 0, 34, 287.359619140625
0, 0, 35, 267.6069030761719
0, 0, 36, 245.9369659423828
0, 0, 37, 255.3749237060547
0, 0, 38, 269.194091796875
0, 0, 39, 230.0296783447266
0, 0, 40, 241.7111511230469
0, 0, 41, 267.8789672851562
0, 0, 42, 228.6204986572266
0, 0, 43, 260.6697998046875
0, 0, 44, 250.4991455078125
0, 0, 45, 252.376708984375
0, 0, 46, 244.8952026367188
0, 0, 47, 251.5317077636719
0, 0, 48, 266.46533203125
0, 0, 49, 272.6900634765625
0, 0, 50, 251.5874328613281
0, 0, 51, 252.1803588867188
0, 0, 52, 272.7069702148438
0, 0, 53, 291.8999938964844
0, 0, 54, 243.4660186767578
0, 0, 55, 241.5458221435547
0, 0, 56, 279.4732055664062
0, 0, 57, 263.9147338867188
0, 0, 58, 245.3306579589844
0, 0, 59, 270.6530151367188
0, 0, 60, 234.8660278320312
0, 0, 61, 246.7225494384766
0, 0, 62, 259.7481994628906
0, 0, 63, 264.6563720703125
0, 0, 64, 255.9114074707031
0, 0, 65, 263.06298828125
0, 0, 66, 279.1786804199219
0, 0, 67, 247.7486877441406
0, 0, 68, 257.82958984375
0, 0, 69, 261.6290283203125
0, 0, 70, 274.1271057128906
0, 0, 71, 236.7037353515625
0, 0, 72, 252.2248687744141
0, 0, 73, 259.6058044433594
0, 0, 74, 252.8687744140625
0, 0, 75, 238.6437530517578
0, 0, 76, 229.115966796875
0, 0, 77, 261.6220703125
0, 0, 78, 256.0157470703125
0, 0, 79, 278.5755920410156
0, 0, 80, 219.8734283447266
0, 0, 81, 267.3525390625
0, 0, 82, 256.8561096191406
0, 0, 83, 246.7301788330078
0, 0, 84, 269.2572021484375
0, 0, 85, 231.9125061035156
0, 0, 86, 253.665283203125
0, 0, 87, 250.83056640625
0, 0, 88, 260.4275512695312
0, 0, 89, 283.9285888671875
0, 0, 90, 246.7856903076172
0, 0, 91, 282.1296997070312
0, 0, 92, 251.2295684814453
0, 0, 93, 250.2048645019531
0, 0, 94, 247.6163024902344
0, 0, 95, 247.6797180175781
0, 0, 96, 274.6590270996094
0, 0, 97, 273.0516967773438
0, 0, 98, 273.20458984375
0, 0, 99, 259.2207946777344
0, 0, 100, 261.009765625
0, 0, 101, 226.0983123779297
0, 0, 102, 232.7500457763672
0, 0, 103, 269.2431335449219
0, 0, 104, 253.9456787109375
0, 0, 105, 251.7936706542969
0, 0, 106, 247.9247589111328
0, 0, 107, 151.7259368896484
0, 0, 108, 38.62597274780273
0, 0, 109, 11.75235176086426
0, 0, 110, 16.25429153442383
0, 0, 111, 9.452445030212402
0, 0, 112, 5.933410167694092
0, 0, 113, 5.153908729553223
0, 0, 114, 8.263495445251465
0, 0, 115, 5.170636653900146
0, 0, 116, 4.962643146514893
0, 0, 117, 7.972117900848389
0, 0, 118, 8.645581245422363
0, 0, 119, 4.351615428924561
0, 0, 120, 4.587602138519287
0, 0, 121, 3.907889127731323
0, 0, 122, 4.270275115966797
0, 0, 123, 2.511471748352051
0, 0, 124, 6.217910289764404
0, 0, 125, 3.164467573165894
0, 0, 126, 3.255803823471069
0, 0, 127, 3.166769504547119
0, 1, 0, 8.58414363861084
0, 1, 1, 3.807307958602905
0, 1, 2, 4.98692798614502
0, 1, 3, 1.747766733169556
0, 1, 4, 2.970251321792603
0, 1, 5, 3.901002645492554
0, 1, 6, 4.85713529586792
0, 1, 7, 2.252110719680786
0, 1, 8, 7.4164719581604
0, 1, 9, 3.310264110565186
0, 1, 10, 8.419027328491211
0, 1, 11, 10.60805988311768
0, 1, 12, 9.328153610229492
0, 1, 13, 10.41753482818604
0, 1, 14, 9.323359489440918
0, 1, 15, 7.444039821624756
0, 1, 16, 11.80836582183838
0, 1, 17, 14.95602798461914
0, 1, 18, 20.74404525756836
0, 1, 19, 68.10353088378906
0, 1, 20, 199.7493133544922
0, 1, 21, 254.2835540771484
0, 1, 22, 295.7318420410156
0, 1, 23, 283.6899108886719
0, 1, 24, 276.0619201660156
0, 1, 25, 291.7083435058594
0, 1, 26, 267.7669372558594
0, 1, 27, 307.8027954101562
0, 1, 28, 301.4878234863281
0, 1, 29, 301.1622619628906
0, 1, 30, 279.9360656738281
0, 1, 31, 294.5794677734375
0, 1, 32, 290.0401000976562
0, 1, 33, 294.7164916992188
0, 1, 34, 293.851318359375
0, 1, 35, 279.2146301269531
0, 1, 36, 307.6205444335938
0, 1, 37, 298.2848815917969
0, 1, 38, 280.7285461425781
0, 1, 39, 295.6696166992188
0, 1, 40, 266.2119750976562
0, 1, 41, 285.3530578613281
0, 1, 42, 290.4207458496094
0, 1, 43, 335.2646484375
0, 1, 44, 278.8865356445312
0, 1, 45, 291.9759216308594
0, 1, 46, 259.2812194824219
0, 1, 47, 315.3944396972656
0, 1, 48, 282.7268371582031
0, 1, 49, 304.3690185546875
0, 1, 50, 263.2932739257812
0, 1, 51, 272.6993103027344
0, 1, 52, 297.1901550292969
0, 1, 53, 304.2992858886719
0, 1, 54, 274.0547485351562
0, 1, 55, 293.3973388671875
0, 1, 56, 276.0112915039062
0, 1, 57, 295.97314453125
0, 1, 58, 311.4305114746094
0, 1, 59, 294.9944763183594
0, 1, 60, 299.936767578125
0, 1, 61, 273.8746643066406
0, 1, 62, 306.6979675292969
0, 1, 63, 288.8503723144531
0, 1, 64, 290.680419921875
0, 1, 65, 295.4377136230469
0, 1, 66, 292.1817321777344
0, 1, 67, 293.4510192871094
0, 1, 68, 276.8276977539062
0, 1, 69, 279.689453125
0, 1, 70, 268.4274597167969
0, 1, 71, 274.53564453125
0, 1, 72, 286.6350708007812
0, 1, 73, 303.4944458007812
0, 1, 74, 303.7749328613281
0, 1, 75, 293.3846740722656
0, 1, 76, 286.6450500488281
0, 1, 77, 288.8866271972656
0, 1, 78, 296.4181518554688
0, 1, 79, 301.32568359375
0, 1, 80, 294.9732360839844
0, 1, 81, 299.5434875488281
0, 1, 82, 285.7032470703125
0, 1, 83, 332.1186218261719
0, 1, 84, 309.4707946777344
0, 1, 85, 252.4454956054688
0, 1, 86, 294.4573059082031
0, 1, 87, 289.1928405761719
0, 1, 88, 299.0033569335938
0, 1, 89, 289.6531677246094
0, 1, 90, 270.0144958496094
0, 1, 91, 318.7267761230469
0, 1, 92, 289.3854064941406
0, 1, 93, 287.1874389648438
0, 1, 94, 304.74853515625
0, 1, 95, 286.8686218261719
0, 1, 96, 283.0162658691406
0, 1, 97, 300.9519348144531
0, 1, 98, 278.1686706542969
0, 1, 99, 264.9481201171875
0, 1, 100, 276.2283325195312
0, 1, 101, 283.4609375
0, 1, 102, 278.5132751464844
0, 1, 103, 282.4119567871094
0, 1, 104, 306.2727966308594
0, 1, 105, 298.4432983398438
0, 1, 106, 260.6832580566406
0, 1, 107, 193.5438690185547
0, 1, 108, 81.84184265136719
0, 1, 109, 24.37302589416504
0, 1, 110, 12.12038612365723
0, 1, 111, 8.961514472961426
0, 1, 112, 12.21562767028809
0, 1, 113, 5.682111263275146
0, 1, 114, 6.411040782928467
0, 1, 115, 7.67642879486084
0, 1, 116, 11.07378673553467
0, 1, 117, 6.314725875854492
0, 1, 118, 7.5264573097229
0, 1, 119, 10.07091617584229
0, 1, 120, 4.359531402587891
0, 1, 121, 4.219604969024658
0, 1, 122, 3.236534595489502
0, 1, 123, 5.998923301696777
0, 1, 124, 8.167546272277832
0, 1, 125, 2.898687839508057
0, 1, 126, 4.133713245391846
0, 1, 127, 2.76999831199646
0, 2, 0, 4.358249664306641
0, 2, 1, 1.31489622592926
0, 2, 2, 3.046297311782837
0, 2, 3, 4.636402606964111
0, 2, 4, 3.083425521850586
0, 2, 5, 5.293241500854492
0, 2, 6, 3.562520742416382
0, 2, 7, 3.831110000610352
0, 2, 8, 4.095885753631592
0, 2, 9, 6.939260959625244
0, 2, 10, 7.760167121887207
0, 2, 11, 6.154634952545166
0, 2, 12, 7.0333251953125
0, 2, 13, 9.731348991394043
0, 2, 14, 10.51080417633057
0, 2, 15, 7.847678661346436
0, 2, 16, 9.085381507873535
0, 2, 17, 17.91333198547363
0, 2, 18, 31.38890266418457
0, 2, 19, 123.5067825317383
0, 2, 20, 245.0211639404297
0, 2, 21, 272.10205078125
0, 2, 22, 316.4893188476562
0, 2, 23, 301.3697204589844
0, 2, 24, 287.6408386230469
0, 2, 25, 303.652099609375
0, 2, 26, 292.7990417480469
0, 2, 27, 275.8699340820312
0, 2, 28, 273.4210205078125
0, 2, 29, 272.5828552246094
0, 2, 30, 288.9382019042969
0, 2, 31, 276.9596862792969
0, 2, 32, 293.6750183105469
0, 2, 33, 282.7356262207031
0, 2, 34, 333.5074768066406
0, 2, 35, 290.0746459960938
0, 2, 36, 302.5550231933594
0, 2, 37, 316.3879089355469
0, 2, 38, 311.0556030273438
0, 2, 39, 267.6240539550781
0, 2, 40, 308.7890014648438
0, 2, 41, 292.1864624023438
0, 2, 42, 303.5571899414062
0, 2, 43, 312.0322570800781
0, 2, 44, 310.6043701171875
0, 2, 45, 324.1857299804688
0, 2, 46, 288.0041809082031
0, 2, 47, 304.275146484375
0, 2, 48, 279.3473510742188
0, 2, 49, 278.0467224121094
0, 2, 50, 293.8619384765625
0, 2, 51, 284.548828125
0, 2, 52, 270.4756774902344
0, 2, 53, 289.245849609375
0, 2, 54, 280.401123046875
0, 2, 55, 275.7316589355469
0, 2, 56, 302.6784973144531
0, 2, 57, 292.0592346191406
0, 2, 58, 301.8251037597656
0, 2, 59, 288.726806640625
0, 2, 60, 319.3939819335938
0, 2, 61, 301.3720397949219
0, 2, 62, 312.4320373535156
0, 2, 63, 303.7485656738281
0, 2, 64, 297.3784790039062
0, 2, 65, 315.1798400878906
0, 2, 66, 278.6426086425781
0, 2, 67, 289.1024475097656
0, 2, 68, 295.8448486328125
0, 2, 69, 312.8673706054688
0, 2, 70, 334.618408203125
0, 2, 71, 283.5331420898438
0, 2, 72, 302.6965026855469
0, 2, 73, 310.2494201660156
0, 2, 74, 284.4172668457031
0, 2, 75, 308.8653259277344
0, 2, 76, 286.2379150390625
0, 2, 77, 300.3927001953125
0, 2, 78, 314.4078369140625
0, 2, 79, 307.805419921875
0, 2, 80, 297.4092712402344
0, 2, 81, 283.1233520507812
0, 2, 82, 319.0549011230469
0, 2, 83, 311.6895446777344
0, 2, 84, 288.6849060058594
0, 2, 85, 281.9259338378906
0, 2, 86, 323.5661315917969
0, 2, 87, 286.9366760253906
0, 2, 88, 279.86181640625
0, 2, 89, 297.18701171875
0, 2, 90, 296.2020874023438
0, 2, 91, 274.7366638183594
0, 2, 92, 306.50244140625
0, 2, 93, 315.62890625
0, 2, 94, 290.4996032714844
0, 2, 95, 316.1359558105469
0, 2, 96, 315.5328674316406
0, 2, 97, 294.4471130371094
0, 2, 98, 294.9966735839844
0, 2, 99, 275.021240234375
0, 2, 100, 304.9470825195312
0, 2, 101, 301.2020263671875
0, 2, 102, 299.0715026855469
0, 2, 103, 292.1756591796875
0, 2, 104, 294.1459655761719
0, 2, 105, 274.4582824707031
0, 2, 106, 297.3680725097656
0, 2, 107, 270.4143981933594
0, 2, 108, 116.4561080932617
0, 2, 109, 31.25528335571289
0, 2, 110, 10.1408519744873
0, 2, 111, 10.64668655395508
0, 2, 112, 8.060469627380371
0, 2, 113, 9.606891632080078
0, 2, 114, 8.863171577453613
0, 2, 115, 11.55506992340088
0, 2, 116, 9.604055404663086
0, 2, 117, 8.981589317321777
0, 2, 118, 3.674628496170044
0, 2, 119, 4.809463977813721
0, 2, 120, 7.124486446380615
0, 2, 121, 1.966245055198669
0, 2, 122, 4.485138893127441
0, 2, 123, 3.69671368598938
0, 2, 124, 4.611676216125488
0, 2, 125, 5.095494270324707
0, 2, 126, 4.825235366821289
0, 2, 127, 5.105455875396729
0, 3, 0, 4.292773246765137
0, 3, 1, 2.909441947937012
0, 3, 2, 5.412871360778809
0, 3, 3, 3.606646299362183
0, 3, 4, 4.657424926757812
0, 3, 5, 6.627385139465332
0, 3, 6, 6.196776866912842
0, 3, 7, 4.68479061126709
0, 3, 8, 5.896474361419678
0, 3, 9, 4.008016109466553
0, 3, 10, 7.698510646820068
0, 3, 11, 3.876938819885254
0, 3, 12, 8.777167320251465
0, 3, 13, 14.48285961151123
0, 3, 14, 10.52138900756836
0, 3, 15, 14.00940418243408
0, 3, 16, 9.418310165405273
0, 3, 17, 18.21840286254883
0, 3, 18, 51.7342529296875
0, 3, 19, 175.406005859375
0, 3, 20, 270.4053955078125
0, 3, 21, 270.8234252929688
0, 3, 22, 280.6554870605469
0, 3, 23, 288.1633911132812
0, 3, 24, 285.4515075683594
0, 3, 25, 269.5696105957031
0, 3, 26, 303.9105834960938
0, 3, 27, 292.3621520996094
0, 3, 28, 279.0139465332031
0, 3, 29, 338.8191223144531
0, 3, 30, 318.5863647460938
0, 3, 31, 286.6134033203125
0, 3, 32, 307.1336364746094
0, 3, 33, 314.4044189453125
0, 3, 34, 321.80078125
0, 3, 35, 307.2865600585938
0, 3, 36, 270.4373474121094
0, 3, 37, 316.524169921875
0, 3, 38, 304.6329040527344
0, 3, 39, 291.5225830078125
0, 3, 40, 267.1442565917969
0, 3, 41, 302.9903869628906
0, 3, 42, 285.7437133789062
0, 3, 43, 305.1479187011719
0, 3, 44, 311.0542297363281
0, 3, 45, 290.3149108886719
0, 3, 46, 327.6996154785156
0, 3, 47, 299.515380859375
0, 3, 48, 301.9428100585938
0, 3, 49, 275.6454467773438
0, 3, 50, 291.2057495117188
0, 3, 51, 275.3854370117188
0, 3, 52, 319.402099609375
0, 3, 53, 289.3112487792969
0, 3, 54, 282.9305114746094
0, 3, 55, 281.990966796875
0, 3, 56, 297.677001953125
0, 3, 57, 288.8368530273438
0, 3, 58, 309.4729309082031
0, 3, 59, 297.4619445800781
0, 3, 60, 298.1886596679688
0, 3, 61, 265.6758422851562
0, 3, 62, 283.9979553222656
0, 3, 63, 307.218017578125
0, 3, 64, 316.9757995605469
0, 3, 65, 308.2193298339844
0, 3, 66, 313.5119018554688
0, 3, 67, 318.1737670898438
0, 3, 68, 281.9876098632812
0, 3, 69, 283.8443603515625
0, 3, 70, 290.9576721191406
0, 3, 71, 300.3648071289062
0, 3, 72, 270.1306762695312
0, 3, 73, 310.2705688476562
0, 3, 74, 292.3617248535156
0, 3, 75, 288.3901977539062
0, 3, 76, 305.7738952636719
0, 3, 77, 313.2959594726562
0, 3, 78, 304.0934448242188
0, 3, 79, 282.2057800292969
0, 3, 80, 291.8530883789062
0, 3, 81, 311.5985107421875
0, 3, 82, 315.0970764160156
0, 3, 83, 301.8881225585938
0, 3, 84, 312.0382690429688
0, 3, 85, 293.7066955566406
0, 3, 86, 303.9014587402344
0, 3, 87, 297.1802978515625
0, 3, 88, 298.9584655761719
0, 3, 89, 295.9815063476562
0, 3, 90, 275.7401733398438
0, 3, 91, 285.0742797851562
0, 3, 92, 302.7064208984375
0, 3, 93, 311.7619323730469
0, 3, 94, 300.1007385253906
0, 3, 95, 336.7391357421875
0, 3, 96, 290.1445922851562
0, 3, 97, 282.4743957519531
0, 3, 98, 276.7750244140625
0, 3, 99, 265.1492004394531
0, 3, 100, 285.3446350097656
0, 3, 101, 297.4521179199219
0, 3, 102, 274.7785949707031
0, 3, 103, 321.0947875976562
0, 3, 104, 306.8502502441406
0, 3, 105, 290.3116760253906
0, 3, 106, 301.56982421875
0, 3, 107, 281.1222229003906
0, 3, 108, 168.8652954101562
0, 3, 109, 57.79497146606445
0, 3, 110, 18.34079360961914
0, 3, 111, 13.66555404663086
0, 3, 112, 12.82325553894043
0, 3, 113, 6.928971767425537
0, 3, 114, 9.864287376403809
0, 3, 115, 8.307194709777832
0, 3, 116, 6.381053924560547
0, 3, 117, 6.624921321868896
0, 3, 118, 6.219399929046631
0, 3, 119, 3.86095666885376
0, 3, 120, 6.112289428710938
0, 3, 121, 4.162361145019531
0, 3, 122, 3.914653062820435
0, 3, 123, 6.082321166992188
0, 3, 124, 2.6872398853302
0, 3, 125, 5.452801704406738
0, 3, 126, 3.867459535598755
0, 3, 127, 2.922053813934326
0, 4, 0, 3.163280963897705
0, 4, 1, 5.79158353805542
0, 4, 2, 2.547605514526367
0, 4, 3, 1.332428097724915
0, 4, 4, 5.858764171600342
0, 4, 5, 8.695273399353027
0, 4, 6, 6.247379302978516
0, 4, 7, 5.762248039245605
0, 4, 8, 3.223496198654175
0, 4, 9, 5.256462574005127
0, 4, 10, 7.66086483001709
0, 4, 11, 6.042011737823486
0, 4, 12, 7.296265602111816
0, 4, 13, 8.722019195556641
0, 4, 14, 14.14729404449463
0, 4, 15, 9.783182144165039
0, 4, 16, 14.79207420349121
0, 4, 17, 19.74527359008789
0, 4, 18, 93.93349456787109
0, 4, 19, 222.5629730224609
0, 4, 20, 283.3957824707031
0, 4, 21, 273.1728515625
0, 4, 22, 305.6290283203125
0, 4, 23, 267.872802734375
0, 4, 24, 289.0273132324219
0, 4, 25, 272.6908569335938
0, 4, 26, 294.4540710449219
0, 4, 27, 283.916015625
0, 4, 28, 307.6806335449219
0, 4, 29, 319.7041015625
0, 4, 30, 309.3420715332031
0, 4, 31, 304.5901794433594
0, 4, 32, 280.7744445800781
0, 4, 33, 295.3430480957031
0, 4, 34, 296.4453735351562
0, 4, 35, 311.8627319335938
0, 4, 36, 293.4548034667969
0, 4, 37, 286.5055541992188
0, 4, 38, 297.2871398925781
0, 4, 39, 295.4242248535156
0, 4, 40, 303.802490234375
0, 4, 41, 313.2306213378906
0, 4, 42, 330.4225463867188
0, 4, 43, 295.4916381835938
0, 4, 44, 323.1498413085938
0, 4, 45, 323.3381958007812
0, 4, 46, 307.197265625
0, 4, 47, 293.3924865722656
0, 4, 48, 298.0080261230469
0, 4, 49, 276.7833251953125
0, 4, 50, 298.1932067871094
0, 4, 51, 315.8916931152344
0, 4, 52, 327.6656494140625
0, 4, 53, 302.4678344726562
0, 4, 54, 287.5657958984375
0, 4, 55, 313.9035949707031
0, 4, 56, 285.9981689453125
0, 4, 57, 311.224365234375
0, 4, 58, 295.4214782714844
0, 4, 59, 309.2984924316406
0, 4, 60, 305.4771118164062
0, 4, 61, 315.7844543457031
0, 4, 62, 307.4542236328125
0, 4, 63, 300.1256103515625
0, 4, 64, 330.3704528808594
0, 4, 65, 315.5291748046875
0, 4, 66, 293.0766296386719
0, 4, 67, 284.0273132324219
0, 4, 68, 309.339599609375
0, 4, 69, 277.1154479980469
0, 4, 70, 299.5964050292969
0, 4, 71, 321.0916748046875
0, 4, 72, 332.6594848632812
0, 4, 73, 297.4142150878906
0, 4, 74, 293.7514343261719
0, 4, 75, 289.4001159667969
0, 4, 76, 274.9042663574219
0, 4, 77, 279.0835266113281
0, 4, 78, 308.8875122070312
0, 4, 79, 319.4932556152344
0, 4, 80, 316.2050476074219
0, 4, 81, 311.8654174804688
0, 4, 82, 297.6129455566406
0, 4, 83, 301.3529968261719
0, 4, 84, 293.1322021484375
0, 4, 85, 293.8103332519531
0, 4, 86, 299.2189636230469
0, 4, 87, 285.1249389648438
0, 4, 88, 306.88134765625
0, 4, 89, 295.4161987304688
0, 4, 90, 333.6177978515625
0, 4, 91, 302.5131225585938
0, 4, 92, 288.8733215332031
0, 4, 93, 296.8638305664062
0, 4, 94, 292.7582397460938
0, 4, 95, 288.5574645996094
0, 4, 96, 322.6257019042969
0, 4, 97, 274.9354553222656
0, 4, 98, 326.3276977539062
0, 4, 99, 316.7203063964844
0, 4, 100, 301.9529418945312
0, 4, 101, 258.2344360351562
0, 4, 102, 296.9995422363281
0, 4, 103, 317.84912109375
0, 4, 104, 281.7951965332031
0, 4, 105, 310.0848999023438
0, 4, 106, 286.0565185546875
0, 4, 107, 295.5083618164062
0, 4, 108, 225.9846954345703
0, 4, 109, 80.33866119384766
0, 4, 110, 17.01635551452637
0, 4, 111, 12.6856575012207
0, 4, 112, 8.11453914642334
0, 4, 113, 13.91580963134766
0, 4, 114, 9.355989456176758
0, 4, 115, 8.87525463104248
0, 4, 116, 8.256161689758301
0, 4, 117, 5.718300342559814
0, 4, 118, 10.01417064666748
0, 4, 119, 9.747587203979492
0, 4, 120, 5.057744026184082
0, 4, 121, 4.629650115966797
0, 4, 122, 7.058676719665527
0, 4, 123, 7.258867263793945
0, 4, 124, 7.840767383575439
0, 4, 125, 10.95605945587158
0, 4, 126, 4.277966976165771
0, 4, 127, 3.180353879928589
0, 5, 0, 4.503355503082275
0, 5, 1, 3.757931709289551
0, 5, 2, 3.45796799659729
0, 5, 3, 6.219399452209473
0, 5, 4, 4.928949356079102
0, 5, 5, 5.551136016845703
0, 5, 6, 5.221687793731689
0, 5, 7, 8.235498428344727
0, 5, 8, 5.957686901092529
0, 5, 9, 5.874948501586914
0, 5, 10, 7.043737411499023
0, 5, 11, 7.558103084564209
0, 5, 12, 8.076708793640137
0, 5, 13, 4.61679220199585
0, 5, 14, 14.29158878326416
0, 5, 15, 17.21645355224609
0, 5, 16, 14.32956314086914
0, 5, 17, 31.00604820251465
0, 5, 18, 136.4425659179688
0, 5, 19, 288.4579772949219
0, 5, 20, 307.0829467773438
0, 5, 21, 316.9326171875
0, 5, 22, 273.9515991210938
0, 5, 23, 311.0050964355469
0, 5, 24, 301.6206970214844
0, 5, 25, 290.0816955566406
0, 5, 26, 295.1773986816406
0, 5, 27, 323.5126342773438
0, 5, 28, 304.0179443359375
0, 5, 29, 299.3998413085938
0, 5, 30, 325.3314514160156
0, 5, 31, 286.7969665527344
0, 5, 32, 304.0744018554688
0, 5, 33, 302.7346801757812
0, 5, 34, 296.6537780761719
0, 5, 35, 308.3397827148438
0, 5, 36, 269.4627380371094
0, 5, 37, 280.4897766113281
0, 5, 38, 293.7685546875
0, 5, 39, 312.981689453125
0, 5, 40, 309.6335144042969
0, 5, 41, 272.3909912109375
0, 5, 42, 305.4240417480469
0, 5, 43, 316.1225891113281
0, 5, 44, 291.1415100097656
0, 5, 45, 304.8809509277344
0, 5, 46, 265.4679565429688
0, 5, 47, 279.1197814941406
0, 5, 48, 292.6304321289062
0, 5, 49, 286.1014099121094
0, 5, 50, 293.2728271484375
0, 5, 51, 281.6611633300781
0, 5, 52, 269.6183471679688
0, 5, 53, 284.3294982910156
0, 5, 54, 294.2023620605469
0, 5, 55, 345.70849609375
0, 5, 56, 306.6294860839844
0, 5, 57, 307.420654296875
0, 5, 58, 313.4991760253906
0, 5, 59, 301.50830078125
0, 5, 60, 307.7292785644531
0, 5, 61, 281.8290710449219
0, 5, 62, 327.7331848144531
0, 5, 63, 290.1440734863281
0, 5, 64, 321.6713562011719
0, 5, 65, 306.2100524902344
0, 5, 66, 328.5902709960938
0, 5, 67, 312.8847351074219
0, 5, 68, 306.7490844726562
0, 5, 69, 310.4633483886719
0, 5, 70, 300.9583129882812
0, 5, 71, 272.2788696289062
0, 5, 72, 310.6534118652344
0, 5, 73, 301.1333312988281
0, 5, 74, 295.740478515625
0, 5, 75, 293.4040832519531
0, 5, 76, 284.708740234375
0, 5, 77, 297.3085327148438
0, 5, 78, 316.4641418457031
0, 5, 79, 306.1188049316406
0, 5, 80, 294.518310546875
0, 5, 81, 325.7270812988281
0, 5, 82, 326.5584106445312
0, 5, 83, 283.3089294433594
0, 5, 84, 300.6747131347656
0, 5, 85, 270.1471557617188
0, 5, 86, 325.3122253417969
0, 5, 87, 285.9778442382812
0, 5, 88, 312.2835998535156
0, 5, 89, 305.8957214355469
0, 5, 90, 315.18994140625
0, 5, 91, 313.119873046875
0, 5, 92, 298.6921997070312
0, 5, 93, 322.8708190917969
0, 5, 94, 308.4798583984375
0, 5, 95, 297.4716491699219
0, 5, 96, 297.8000183105469
0, 5, 97, 296.6331787109375
0, 5, 98, 316.7168273925781
0, 5, 99, 302.6217041015625
0, 5, 100, 290.3439331054688
0, 5, 101, 306.1790161132812
0, 5, 102, 292.9533386230469
0, 5, 103, 314.110107421875
0, 5, 104, 301.8712768554688
0, 5, 105, 291.7000427246094
0, 5, 106, 281.3629455566406
0, 5, 107, 293.5351257324219
0, 5, 108, 265.4767761230469
0, 5, 109, 156.9931030273438
0, 5, 110, 38.71367645263672
0, 5, 111, 18.49975967407227
0, 5, 112, 14.82926845550537
0, 5, 113, 14.06311893463135
0, 5, 114, 12.10512256622314
0, 5, 115, 6.923595905303955
0, 5, 116, 9.756655693054199
0, 5, 117, 6.9971022605896
0, 5, 118, 15.68269443511963
0, 5, 119, 3.833439350128174
0, 5, 120, 5.643463134765625
0, 5, 121, 7.234065532684326
0, 5, 122, 4.465639591217041
0, 5, 123, 6.484563827514648
0, 5, 124, 4.79931116104126
0, 5, 125, 2.825764179229736
0, 5, 126, 7.59985876083374
0, 5, 127, 3.117747068405151
0, 6, 0, 3.893321990966797
0, 6, 1, 6.471291065216064
0, 6, 2, 4.938741683959961
0, 6, 3, 5.548766613006592
0, 6, 4, 5.317938804626465
0, 6, 5, 7.054586410522461
0, 6, 6, 7.40700626373291
0, 6, 7, 4.678131580352783
0, 6, 8, 8.81551456451416
0, 6, 9, 6.001271724700928
0, 6, 10, 8.140687942504883
0, 6, 11, 8.117488861083984
0, 6, 12, 10.30814933776855
0, 6, 13, 12.38769054412842
0, 6, 14, 9.015243530273438
0, 6, 15, 16.07819747924805
0, 6, 16, 27.86685180664062
0, 6, 17, 53.21023559570312
0, 6, 18, 174.7913208007812
0, 6, 19, 278.0513916015625
0, 6, 20, 290.2519836425781
0, 6, 21, 315.6222839355469
0, 6, 22, 323.3778991699219
0, 6, 23, 304.4225769042969
0, 6, 24, 316.4511413574219
0, 6, 25, 316.0684814453125
0, 6, 26, 319.225830078125
0, 6, 27, 330.0928649902344
0, 6, 28, 295.7880859375
0, 6, 29, 331.256103515625
0, 6, 30, 283.556884765625
0, 6, 31, 286.7295532226562
0, 6, 32, 341.8683776855469
0, 6, 33, 301.1903076171875
0, 6, 34, 340.4488830566406
0, 6, 35, 321.3277282714844
0, 6, 36, 273.1773071289062
0, 6, 37, 288.6976623535156
0, 6, 38, 309.4648742675781
0, 6, 39, 299.993408203125
0, 6, 40, 282.9126892089844
0, 6, 41, 295.9353637695312
0, 6, 42, 302.7167053222656
0, 6, 43, 288.5545349121094
0, 6, 44, 281.1549072265625
0, 6, 45, 320.5667419433594
0, 6, 46, 304.0671997070312
0, 6, 47, 334.9410400390625
0, 6, 48, 294.1611938476562
0, 6, 49, 311.0420227050781
0, 6, 50, 328.8578796386719
0, 6, 51, 311.2653503417969
0, 6, 52, 320.0135192871094
0, 6, 53, 327.3173217773438
0, 6, 54, 302.7832641601562
0, 6, 55, 305.0906066894531
0, 6, 56, 292.8663024902344
0, 6, 57, 313.3111877441406
0, 6, 58, 263.3794250488281
0, 6, 59, 303.3288269042969
0, 6, 60, 311.74609375
0, 6, 61, 272.4350891113281
0, 6, 62, 337.0986938476562
0, 6, 63, 322.8827209472656
0, 6, 64, 291.0014038085938
0, 6, 65, 284.3159790039062
0, 6, 66, 302.9834289550781
0, 6, 67, 308.8451538085938
0, 6, 68, 293.5384826660156
0, 6, 69, 278.8390197753906
0, 6, 70, 273.5971984863281
0, 6, 71, 291.1687927246094
0, 6, 72, 311.1202087402344
0, 6, 73, 293.5355224609375
0, 6, 74, 329.8563232421875
0, 6, 75, 342.4309692382812
0, 6, 76, 296.5541076660156
0, 6, 77, 287.7336730957031
0, 6, 78, 279.4280700683594
0, 6, 79, 291.5807800292969
0, 6, 80, 301.5846252441406
0, 6, 81, 314.2815246582031
0, 6, 82, 317.7693481445312
0, 6, 83, 317.5109558105469
0, 6, 84, 296.8638610839844
0, 6, 85, 300.7242126464844
0, 6, 86, 329.5947265625
0, 6, 87, 289.9535522460938
0, 6, 88, 306.130126953125
0, 6, 89, 304.6904602050781
0, 6, 90, 298.1914367675781
0, 6, 91, 312.177734375
0, 6, 92, 284.70263671875
0, 6, 93, 294.7093811035156
0, 6, 94, 273.7928771972656
0, 6, 95, 299.0092163085938
0, 6, 96, 348.7591247558594
0, 6, 97, 308.0846252441406
0, 6, 98, 302.9572448730469
0, 6, 99, 270.7422180175781
0, 6, 100, 309.4697875976562
0, 6, 101, 293.6019592285156
0, 6, 102, 306.8437805175781
0, 6, 103, 307.6700439453125
0, 6, 104, 290.7297058105469
0, 6, 105, 301.9925842285156
0, 6, 106, 309.0965270996094
0, 6, 107, 306.9646301269531
0, 6, 108, 265.42578125
0, 6, 109, 188.566650390625
0, 6, 110, 56.28287887573242
0, 6, 111, 21.39761161804199
0, 6, 112, 13.02524280548096
0, 6, 113, 9.775202751159668
0, 6, 114, 13.54943466186523
0, 6, 115, 14.07407379150391
0, 6, 116, 7.890952110290527
0, 6, 117, 7.763411045074463
0, 6, 118, 8.320624351501465
0, 6, 119, 10.6706485748291
0, 6, 120, 5.925176620483398
0, 6, 121, 6.905259609222412
0, 6, 122, 5.771334648132324
0, 6, 123, 3.757673263549805
0, 6, 124, 5.12448787689209
0, 6, 125, 9.442198753356934
0, 6, 126, 4.183579444885254
0, 6, 127, 7.342387676239014
0, 7, 0, 4.383094787597656
0, 7, 1, 4.970083236694336
0, 7, 2, 5.866178512573242
0, 7, 3, 2.878170013427734
0, 7, 4, 3.740959644317627
0, 7, 5, 5.309777736663818
0, 7, 6, 5.474862098693848
0, 7, 7, 6.877963542938232
0, 7, 8, 6.618345737457275
0, 7, 9, 4.856346607208252
0, 7, 10, 9.347899436950684
0, 7, 11, 11.95920658111572
0, 7, 12, 10.76940155029297
0, 7, 13, 15.23594951629639
0, 7, 14, 11.58222579956055
0, 7, 15, 19.14463233947754
0, 7, 16, 26.06277084350586
0, 7, 17, 98.66313934326172
0, 7, 18, 220.0669403076172
0, 7, 19, 289.0293884277344
0, 7, 20, 295.8513488769531
0, 7, 21, 276.4601745605469
0, 7, 22, 299.2046508789062
0, 7, 23, 296.8548583984375
0, 7, 24, 312.9785461425781
0, 7, 25, 323.2857360839844
0, 7, 26, 277.6874389648438
0, 7, 27, 297.4169616699219
0, 7, 28, 324.7582702636719
0, 7, 29, 317.7272644042969
0, 7, 30, 301.9620666503906
0, 7, 31, 277.2614440917969
0, 7, 32, 305.8394775390625
0, 7, 33, 264.534912109375
0, 7, 34, 300.5513916015625
0, 7, 35, 319.2931823730469
0, 7, 36, 329.253173828125
0, 7, 37, 321.8674621582031
0, 7, 38, 294.6406555175781
0, 7, 39, 304.6022644042969
0, 7, 40, 290.4047546386719
0, 7, 41, 271.5216369628906
0, 7, 42, 302.4978637695312
0, 7, 43, 277.2264099121094
0, 7, 44, 304.923095703125
0, 7, 45, 294.6894226074219
0, 7, 46, 280.5954895019531
0, 7, 47, 328.8880310058594
0, 7, 48, 286.921142578125
0, 7, 49, 303.3644714355469
0, 7, 50, 321.9378051757812
0, 7, 51, 300.9051818847656
0, 7, 52, 324.9978332519531
0, 7, 53, 308.9703369140625
0, 7, 54, 322.7754821777344
0, 7, 55, 308.0727233886719
0, 7, 56, 278.1891784667969
0, 7, 57, 282.8986206054688
0, 7, 58, 295.7375183105469
0, 7, 59, 292.3279113769531
0, 7, 60, 323.3798828125
0, 7, 61, 279.9029846191406
0, 7, 62, 297.716796875
0, 7, 63, 293.9944763183594
0, 7, 64, 309.9234924316406
0, 7, 65, 330.67041015625
0, 7, 66, 317.999755859375
0, 7, 67, 302.1815185546875
0, 7, 68, 279.6710205078125
0, 7, 69, 292.5247497558594
0, 7, 70, 301.0964965820312
0, 7, 71, 308.8646545410156
0, 7, 72, 283.5491027832031
0, 7, 73, 297.8013305664062
0, 7, 74, 344.5227661132812
0, 7, 75, 319.7331848144531
0, 7, 76, 324.3902893066406
0, 7, 77, 281.0288696289062
0, 7, 78, 299.5713195800781
0, 7, 79, 297.7152404785156
0, 7, 80, 310.8191223144531
0, 7, 81, 319.5084228515625
0, 7, 82, 329.4545593261719
0, 7, 83, 315.9860229492188
0, 7, 84, 310.4840393066406
0, 7, 85, 272.7273254394531
0, 7, 86, 309.2537841796875
0, 7, 87, 311.0488586425781
0, 7, 88, 306.6636352539062
0, 7, 89, 292.7621765136719
0, 7, 90, 306.67333984375
0, 7, 91, 316.9556884765625
0, 7, 92, 287.190185546875
0, 7, 93, 308.2069091796875
0, 7, 94, 275.8653869628906
0, 7, 95, 299.2665405273438
0, 7, 96, 331.228515625
0, 7, 97, 296.2034912109375
0, 7, 98, 290.7818908691406
0, 7, 99, 311.0946655273438
0, 7, 100, 281.7363891601562
0, 7, 101, 276.3959655761719
0, 7, 102, 291.3460083007812
0, 7, 103, 291.1890258789062
0, 7, 104, 274.2284545898438
0, 7, 105, 306.9920349121094
0, 7, 106, 317.7002868652344
0, 7, 107, 295.7532653808594
0, 7, 108, 273.1898498535156
0, 7, 109, 233.59716796875
0, 7, 110, 95.90286254882812
0, 7, 111, 23.89568901062012
0, 7, 112, 14.01237201690674
0, 7, 113, 15.23054027557373
0, 7, 114, 12.2395544052124
0, 7, 115, 9.788596153259277
0, 7, 116, 8.354597091674805
0, 7, 117, 3.911697626113892
0, 7, 118, 10.3529577255249
0, 7, 119, 5.372666358947754
0, 7, 120, 8.321927070617676
0, 7, 121, 6.987236499786377
0, 7, 122, 7.151920795440674
0, 7, 123, 5.150328636169434
0, 7, 124, 3.657439708709717
0, 7, 125, 8.065231323242188
0, 7, 126, 7.480403900146484
0, 7, 127, 1.649359226226807
0, 8, 0, 5.150359153747559
0, 8, 1, 4.889232635498047
0, 8, 2, 5.139623641967773
0, 8, 3, 2.833752393722534
0, 8, 4, 4.406425952911377
0, 8, 5, 6.715304374694824
0, 8, 6, 6.58551025390625
0, 8, 7, 4.743420600891113
0, 8, 8, 10.5390510559082
0, 8, 9, 6.225900173187256
0, 8, 10, 8.25947380065918
0, 8, 11, 12.09908294677734
0, 8, 12, 13.94556140899658
0, 8, 13, 14.60840606689453
0, 8, 14, 12.21988773345947
0, 8, 15, 18.65612411499023
0, 8, 16, 33.24958038330078
0, 8, 17, 129.3746337890625
0, 8, 18, 241.7281646728516
0, 8, 19, 295.1003723144531
0, 8, 20, 284.6403503417969
0, 8, 21, 306.3675231933594
0, 8, 22, 293.89501953125
0, 8, 23, 273.6385803222656
0, 8, 24, 268.6951904296875
0, 8, 25, 275.9703979492188
0, 8, 26, 307.6526184082031
0, 8, 27, 308.5071716308594
0, 8, 28, 302.2408752441406
0, 8, 29, 319.3480529785156
0, 8, 30, 315.2059631347656
0, 8, 31, 303.3562927246094
0, 8, 32, 282.0509338378906
0, 8, 33, 293.1034851074219
0, 8, 34, 292.0194091796875
0, 8, 35, 280.6853637695312
0, 8, 36, 316.6829833984375
0, 8, 37, 338.165283203125
0, 8, 38, 333.4466247558594
0, 8, 39, 280.1061096191406
0, 8, 40, 303.6820983886719
