# TOPAS Version: 3.1.p3
# Parameter File: batch_inserts_218.txt
# Results for scorer Readout_Adipose
# Scored in component: MyBox
# X in 1 bin  of 0.75 cm
# Y in 512 bins of 0.0783984 cm
# Z in 128 bins of 0.078125 cm
# EnergyDeposit ( MeV ) : Sum   
0, 0, 0, 4.577385902404785
0, 0, 1, 4.200332164764404
0, 0, 2, 3.589518547058105
0, 0, 3, 1.924599528312683
0, 0, 4, 3.12600040435791
0, 0, 5, 2.321367502212524
0, 0, 6, 5.850708484649658
0, 0, 7, 9.191879272460938
0, 0, 8, 2.771349430084229
0, 0, 9, 5.478635787963867
0, 0, 10, 6.594120979309082
0, 0, 11, 4.424646377563477
0, 0, 12, 6.100969791412354
0, 0, 13, 6.798986911773682
0, 0, 14, 7.506722927093506
0, 0, 15, 7.890250682830811
0, 0, 16, 8.302202224731445
0, 0, 17, 8.70438289642334
0, 0, 18, 13.77256107330322
0, 0, 19, 43.71596145629883
0, 0, 20, 140.7300262451172
0, 0, 21, 225.2860717773438
0, 0, 22, 250.3879089355469
0, 0, 23, 258.7499084472656
0, 0, 24, 250.23828125
0, 0, 25, 257.7461547851562
0, 0, 26, 233.4670715332031
0, 0, 27, 238.5652008056641
0, 0, 28, 271.6687622070312
0, 0, 29, 251.4431304931641
0, 0, 30, 230.5672912597656
0, 0, 31, 244.1481628417969
0, 0, 32, 263.4485778808594
0, 0, 33, 260.4394226074219
0, 0, 34, 288.1910705566406
0, 0, 35, 268.0493774414062
0, 0, 36, 246.4905700683594
0, 0, 37, 251.9665832519531
0, 0, 38, 267.6363525390625
0, 0, 39, 230.5193176269531
0, 0, 40, 241.3221588134766
0, 0, 41, 265.1040954589844
0, 0, 42, 229.7023315429688
0, 0, 43, 261.3967895507812
0, 0, 44, 252.8765563964844
0, 0, 45, 253.3342895507812
0, 0, 46, 243.8370056152344
0, 0, 47, 254.3728485107422
0, 0, 48, 265.8457641601562
0, 0, 49, 273.5864868164062
0, 0, 50, 250.7978820800781
0, 0, 51, 254.0385589599609
0, 0, 52, 272.780517578125
0, 0, 53, 291.2401428222656
0, 0, 54, 245.2566833496094
0, 0, 55, 239.7142181396484
0, 0, 56, 277.4577941894531
0, 0, 57, 262.6621398925781
0, 0, 58, 246.187255859375
0, 0, 59, 269.9468078613281
0, 0, 60, 234.5418701171875
0, 0, 61, 245.87890625
0, 0, 62, 258.2861328125
0, 0, 63, 267.225830078125
0, 0, 64, 254.7661285400391
0, 0, 65, 261.4981994628906
0, 0, 66, 277.4900207519531
0, 0, 67, 248.2762603759766
0, 0, 68, 259.2824096679688
0, 0, 69, 261.3442687988281
0, 0, 70, 273.3482666015625
0, 0, 71, 237.6146545410156
0, 0, 72, 251.1231536865234
0, 0, 73, 259.4749755859375
0, 0, 74, 250.1907348632812
0, 0, 75, 241.0130004882812
0, 0, 76, 227.8433227539062
0, 0, 77, 259.6465454101562
0, 0, 78, 256.6542663574219
0, 0, 79, 277.5205078125
0, 0, 80, 216.8377990722656
0, 0, 81, 268.3552856445312
0, 0, 82, 255.1282196044922
0, 0, 83, 244.2987823486328
0, 0, 84, 269.5339965820312
0, 0, 85, 231.2365875244141
0, 0, 86, 253.7894287109375
0, 0, 87, 250.5634918212891
0, 0, 88, 259.8605041503906
0, 0, 89, 282.1555480957031
0, 0, 90, 244.0047607421875
0, 0, 91, 281.9229431152344
0, 0, 92, 253.8095550537109
0, 0, 93, 249.9333038330078
0, 0, 94, 249.9466857910156
0, 0, 95, 249.9654693603516
0, 0, 96, 275.2319030761719
0, 0, 97, 274.5015869140625
0, 0, 98, 273.8364868164062
0, 0, 99, 257.4656372070312
0, 0, 100, 257.5630187988281
0, 0, 101, 225.5228729248047
0, 0, 102, 231.6327056884766
0, 0, 103, 268.5840759277344
0, 0, 104, 254.0764465332031
0, 0, 105, 251.6082305908203
0, 0, 106, 246.9307708740234
0, 0, 107, 153.6129455566406
0, 0, 108, 39.6285514831543
0, 0, 109, 12.90547847747803
0, 0, 110, 11.8107795715332
0, 0, 111, 10.54760837554932
0, 0, 112, 8.710000991821289
0, 0, 113, 4.54124641418457
0, 0, 114, 6.895916938781738
0, 0, 115, 5.323211193084717
0, 0, 116, 4.691099643707275
0, 0, 117, 6.5345458984375
0, 0, 118, 6.739744663238525
0, 0, 119, 3.899692058563232
0, 0, 120, 2.750136613845825
0, 0, 121, 2.511654376983643
0, 0, 122, 3.035210609436035
0, 0, 123, 2.502190113067627
0, 0, 124, 3.994499683380127
0, 0, 125, 2.687701225280762
0, 0, 126, 4.605488777160645
0, 0, 127, 5.126520156860352
0, 1, 0, 7.409152984619141
0, 1, 1, 2.404187202453613
0, 1, 2, 4.889232158660889
0, 1, 3, 2.320755481719971
0, 1, 4, 3.746632099151611
0, 1, 5, 4.71233606338501
0, 1, 6, 4.179666042327881
0, 1, 7, 7.500412464141846
0, 1, 8, 11.06959533691406
0, 1, 9, 3.986567497253418
0, 1, 10, 7.34304666519165
0, 1, 11, 11.66867446899414
0, 1, 12, 9.433322906494141
0, 1, 13, 10.36552143096924
0, 1, 14, 7.233524799346924
0, 1, 15, 7.325163841247559
0, 1, 16, 12.32054042816162
0, 1, 17, 10.83212280273438
0, 1, 18, 20.92123603820801
0, 1, 19, 65.34626007080078
0, 1, 20, 198.9871673583984
0, 1, 21, 256.7601623535156
0, 1, 22, 297.3990478515625
0, 1, 23, 282.9241638183594
0, 1, 24, 275.6622314453125
0, 1, 25, 288.3323364257812
0, 1, 26, 268.2711181640625
0, 1, 27, 307.37451171875
0, 1, 28, 298.9610290527344
0, 1, 29, 295.4768676757812
0, 1, 30, 281.0539245605469
0, 1, 31, 291.5789489746094
0, 1, 32, 291.4346618652344
0, 1, 33, 296.3321228027344
0, 1, 34, 292.1527099609375
0, 1, 35, 278.7613525390625
0, 1, 36, 306.1727905273438
0, 1, 37, 295.7081604003906
0, 1, 38, 280.7870483398438
0, 1, 39, 298.1358642578125
0, 1, 40, 266.8074951171875
0, 1, 41, 284.6275939941406
0, 1, 42, 288.8308410644531
0, 1, 43, 330.7676086425781
0, 1, 44, 278.9450073242188
0, 1, 45, 292.3046264648438
0, 1, 46, 259.6493225097656
0, 1, 47, 309.6365661621094
0, 1, 48, 284.5005493164062
0, 1, 49, 304.0723571777344
0, 1, 50, 263.0557861328125
0, 1, 51, 273.9685974121094
0, 1, 52, 295.1049194335938
0, 1, 53, 303.7496032714844
0, 1, 54, 273.2657470703125
0, 1, 55, 292.1097106933594
0, 1, 56, 282.5589904785156
0, 1, 57, 297.9232482910156
0, 1, 58, 309.920654296875
0, 1, 59, 292.798095703125
0, 1, 60, 300.696044921875
0, 1, 61, 275.4839782714844
0, 1, 62, 308.6029052734375
0, 1, 63, 284.707763671875
0, 1, 64, 287.9375
0, 1, 65, 293.6815490722656
0, 1, 66, 292.7511901855469
0, 1, 67, 292.5845031738281
0, 1, 68, 279.1979064941406
0, 1, 69, 280.1630554199219
0, 1, 70, 271.9037780761719
0, 1, 71, 273.2321166992188
0, 1, 72, 284.7637329101562
0, 1, 73, 305.5854797363281
0, 1, 74, 304.4883728027344
0, 1, 75, 294.5358276367188
0, 1, 76, 284.6379699707031
0, 1, 77, 292.3695373535156
0, 1, 78, 297.562255859375
0, 1, 79, 300.5561218261719
0, 1, 80, 297.5789489746094
0, 1, 81, 300.4696350097656
0, 1, 82, 283.645263671875
0, 1, 83, 331.9773559570312
0, 1, 84, 309.6282653808594
0, 1, 85, 253.2070922851562
0, 1, 86, 296.6577453613281
0, 1, 87, 290.6268615722656
0, 1, 88, 297.5683898925781
0, 1, 89, 288.7211608886719
0, 1, 90, 269.6054992675781
0, 1, 91, 318.1644287109375
0, 1, 92, 291.0421142578125
0, 1, 93, 286.9148864746094
0, 1, 94, 303.4129028320312
0, 1, 95, 282.889404296875
0, 1, 96, 283.8425598144531
0, 1, 97, 302.4826049804688
0, 1, 98, 278.2966613769531
0, 1, 99, 267.7709045410156
0, 1, 100, 278.7056884765625
0, 1, 101, 281.9833679199219
0, 1, 102, 281.1986999511719
0, 1, 103, 281.7179565429688
0, 1, 104, 306.9826049804688
0, 1, 105, 296.59423828125
0, 1, 106, 261.0181274414062
0, 1, 107, 192.0723266601562
0, 1, 108, 80.05051422119141
0, 1, 109, 23.93467903137207
0, 1, 110, 12.90314960479736
0, 1, 111, 8.704115867614746
0, 1, 112, 13.68877983093262
0, 1, 113, 7.032330513000488
0, 1, 114, 6.993488311767578
0, 1, 115, 7.043381214141846
0, 1, 116, 11.55799674987793
0, 1, 117, 5.98878002166748
0, 1, 118, 4.666181564331055
0, 1, 119, 5.891593933105469
0, 1, 120, 6.083140850067139
0, 1, 121, 6.904988765716553
0, 1, 122, 2.128025770187378
0, 1, 123, 5.198216438293457
0, 1, 124, 7.220335483551025
0, 1, 125, 5.686952114105225
0, 1, 126, 2.340599298477173
0, 1, 127, 1.498571872711182
0, 2, 0, 5.121856689453125
0, 2, 1, 3.850132703781128
0, 2, 2, 3.766765356063843
0, 2, 3, 5.146149158477783
0, 2, 4, 4.984283447265625
0, 2, 5, 1.607852101325989
0, 2, 6, 2.020551919937134
0, 2, 7, 3.369516134262085
0, 2, 8, 4.371793746948242
0, 2, 9, 6.15857982635498
0, 2, 10, 8.55958080291748
0, 2, 11, 5.416306972503662
0, 2, 12, 6.766851902008057
0, 2, 13, 10.89373874664307
0, 2, 14, 11.12947654724121
0, 2, 15, 7.793015003204346
0, 2, 16, 9.330248832702637
0, 2, 17, 16.55143737792969
0, 2, 18, 28.78041076660156
0, 2, 19, 118.5570602416992
0, 2, 20, 245.4619903564453
0, 2, 21, 272.1491394042969
0, 2, 22, 318.8831787109375
0, 2, 23, 300.6346740722656
0, 2, 24, 287.3753051757812
0, 2, 25, 301.7042236328125
0, 2, 26, 294.1737365722656
0, 2, 27, 277.359375
0, 2, 28, 271.1323547363281
0, 2, 29, 273.3096008300781
0, 2, 30, 288.5973205566406
0, 2, 31, 280.1006164550781
0, 2, 32, 294.4603271484375
0, 2, 33, 281.4115295410156
0, 2, 34, 331.1048583984375
0, 2, 35, 288.9841918945312
0, 2, 36, 302.6579284667969
0, 2, 37, 314.3419799804688
0, 2, 38, 311.5037536621094
0, 2, 39, 265.7895202636719
0, 2, 40, 309.656005859375
0, 2, 41, 295.1353759765625
0, 2, 42, 303.5533142089844
0, 2, 43, 311.9664001464844
0, 2, 44, 310.9616088867188
0, 2, 45, 324.2294006347656
0, 2, 46, 288.4174194335938
0, 2, 47, 303.7466125488281
0, 2, 48, 281.6650695800781
0, 2, 49, 279.9797973632812
0, 2, 50, 293.6622619628906
0, 2, 51, 283.2200622558594
0, 2, 52, 273.1914672851562
0, 2, 53, 285.9311828613281
0, 2, 54, 278.2247009277344
0, 2, 55, 273.8172302246094
0, 2, 56, 300.76220703125
0, 2, 57, 292.0435791015625
0, 2, 58, 304.9248962402344
0, 2, 59, 291.4950256347656
0, 2, 60, 319.1439208984375
0, 2, 61, 300.7234802246094
0, 2, 62, 313.8977355957031
0, 2, 63, 302.7605895996094
0, 2, 64, 295.926025390625
0, 2, 65, 312.819091796875
0, 2, 66, 278.7157592773438
0, 2, 67, 291.6788330078125
0, 2, 68, 296.8108825683594
0, 2, 69, 310.3675231933594
0, 2, 70, 335.3143310546875
0, 2, 71, 284.0291748046875
0, 2, 72, 300.4375
0, 2, 73, 311.88330078125
0, 2, 74, 286.1336059570312
0, 2, 75, 305.8428955078125
0, 2, 76, 286.781494140625
0, 2, 77, 301.129150390625
0, 2, 78, 313.3219909667969
0, 2, 79, 308.3290710449219
0, 2, 80, 296.43408203125
0, 2, 81, 283.3470458984375
0, 2, 82, 318.2170715332031
0, 2, 83, 314.8818359375
0, 2, 84, 288.3291625976562
0, 2, 85, 281.7627563476562
0, 2, 86, 324.0634460449219
0, 2, 87, 286.4707641601562
0, 2, 88, 280.1305541992188
0, 2, 89, 299.9301452636719
0, 2, 90, 296.2362365722656
0, 2, 91, 281.1201477050781
0, 2, 92, 305.188720703125
0, 2, 93, 319.3290100097656
0, 2, 94, 291.5233459472656
0, 2, 95, 314.2262268066406
0, 2, 96, 315.203857421875
0, 2, 97, 291.5220947265625
0, 2, 98, 295.34521484375
0, 2, 99, 272.8191833496094
0, 2, 100, 306.3503112792969
0, 2, 101, 300.840087890625
0, 2, 102, 298.2245178222656
0, 2, 103, 292.1851501464844
0, 2, 104, 292.5651245117188
0, 2, 105, 274.2709350585938
0, 2, 106, 297.1597900390625
0, 2, 107, 269.1368713378906
0, 2, 108, 115.4021606445312
0, 2, 109, 31.96749114990234
0, 2, 110, 11.52478122711182
0, 2, 111, 10.90555858612061
0, 2, 112, 7.125557422637939
0, 2, 113, 9.426688194274902
0, 2, 114, 10.04191112518311
0, 2, 115, 9.472914695739746
0, 2, 116, 7.637454509735107
0, 2, 117, 8.739882469177246
0, 2, 118, 3.16444206237793
0, 2, 119, 2.383420467376709
0, 2, 120, 7.452066898345947
0, 2, 121, 1.79231059551239
0, 2, 122, 4.157415390014648
0, 2, 123, 4.338076591491699
0, 2, 124, 5.300206661224365
0, 2, 125, 5.237356185913086
0, 2, 126, 3.366276979446411
0, 2, 127, 7.611179351806641
0, 3, 0, 4.683233261108398
0, 3, 1, 7.194558620452881
0, 3, 2, 7.604814529418945
0, 3, 3, 4.794310092926025
0, 3, 4, 5.578268051147461
0, 3, 5, 6.345758438110352
0, 3, 6, 6.298742771148682
0, 3, 7, 4.40556526184082
0, 3, 8, 5.39881420135498
0, 3, 9, 6.263499736785889
0, 3, 10, 6.009547233581543
0, 3, 11, 5.761449813842773
0, 3, 12, 7.880295753479004
0, 3, 13, 14.91324329376221
0, 3, 14, 11.10013103485107
0, 3, 15, 16.1363697052002
0, 3, 16, 10.8364315032959
0, 3, 17, 19.75222778320312
0, 3, 18, 53.65891265869141
0, 3, 19, 175.4690246582031
0, 3, 20, 270.5193481445312
0, 3, 21, 272.1692810058594
0, 3, 22, 280.9295043945312
0, 3, 23, 287.7039794921875
0, 3, 24, 288.1488952636719
0, 3, 25, 269.3832397460938
0, 3, 26, 304.1474609375
0, 3, 27, 293.8238525390625
0, 3, 28, 282.9895324707031
0, 3, 29, 339.8060913085938
0, 3, 30, 316.5367126464844
0, 3, 31, 287.2198181152344
0, 3, 32, 305.7613220214844
0, 3, 33, 313.9026489257812
0, 3, 34, 323.1818542480469
0, 3, 35, 305.8863525390625
0, 3, 36, 271.2709655761719
0, 3, 37, 313.8231506347656
0, 3, 38, 303.5211181640625
0, 3, 39, 288.6921691894531
0, 3, 40, 266.1741638183594
0, 3, 41, 301.0458068847656
0, 3, 42, 284.6515502929688
0, 3, 43, 305.3718566894531
0, 3, 44, 311.3822326660156
0, 3, 45, 289.9150085449219
0, 3, 46, 328.5071716308594
0, 3, 47, 298.7204895019531
0, 3, 48, 303.7505798339844
0, 3, 49, 276.2074890136719
0, 3, 50, 289.31787109375
0, 3, 51, 275.1566467285156
0, 3, 52, 316.0569458007812
0, 3, 53, 287.765625
0, 3, 54, 286.5366516113281
0, 3, 55, 285.6342468261719
0, 3, 56, 298.5278625488281
0, 3, 57, 288.0984497070312
0, 3, 58, 305.072265625
0, 3, 59, 295.8147888183594
0, 3, 60, 297.4979248046875
0, 3, 61, 263.7359924316406
0, 3, 62, 283.4399719238281
0, 3, 63, 306.098876953125
0, 3, 64, 316.1257934570312
0, 3, 65, 305.8233032226562
0, 3, 66, 314.6603393554688
0, 3, 67, 317.0027465820312
0, 3, 68, 278.8135986328125
0, 3, 69, 285.5688171386719
0, 3, 70, 287.4931030273438
0, 3, 71, 298.9797668457031
0, 3, 72, 269.072021484375
0, 3, 73, 309.9284362792969
0, 3, 74, 294.323974609375
0, 3, 75, 290.4602966308594
0, 3, 76, 304.8585815429688
0, 3, 77, 314.0077819824219
0, 3, 78, 304.2122192382812
0, 3, 79, 281.9385070800781
0, 3, 80, 290.1509094238281
0, 3, 81, 309.563720703125
0, 3, 82, 318.2036743164062
0, 3, 83, 300.4835510253906
0, 3, 84, 311.7980651855469
0, 3, 85, 294.6273498535156
0, 3, 86, 308.647216796875
0, 3, 87, 297.5036315917969
0, 3, 88, 297.4546203613281
0, 3, 89, 296.45361328125
0, 3, 90, 278.1790161132812
0, 3, 91, 284.3872680664062
0, 3, 92, 306.66064453125
0, 3, 93, 312.6980590820312
0, 3, 94, 299.2266235351562
0, 3, 95, 334.6317443847656
0, 3, 96, 289.760009765625
0, 3, 97, 284.4008483886719
0, 3, 98, 277.7808532714844
0, 3, 99, 262.1844787597656
0, 3, 100, 282.9635314941406
0, 3, 101, 295.8334045410156
0, 3, 102, 275.2001953125
0, 3, 103, 321.2376403808594
0, 3, 104, 309.1878967285156
0, 3, 105, 288.8236999511719
0, 3, 106, 305.5341186523438
0, 3, 107, 285.5472106933594
0, 3, 108, 169.4182434082031
0, 3, 109, 58.89946365356445
0, 3, 110, 17.37281799316406
0, 3, 111, 12.51471996307373
0, 3, 112, 14.3783073425293
0, 3, 113, 5.908945560455322
0, 3, 114, 10.73724460601807
0, 3, 115, 8.046712875366211
0, 3, 116, 9.013007164001465
0, 3, 117, 8.621200561523438
0, 3, 118, 8.823331832885742
0, 3, 119, 6.19617748260498
0, 3, 120, 8.389121055603027
0, 3, 121, 2.342379093170166
0, 3, 122, 3.095889091491699
0, 3, 123, 6.177675724029541
0, 3, 124, 3.311172723770142
0, 3, 125, 5.921605587005615
0, 3, 126, 7.228816986083984
0, 3, 127, 4.924925327301025
0, 4, 0, 2.514551877975464
0, 4, 1, 6.090039730072021
0, 4, 2, 3.279783248901367
0, 4, 3, 3.441661596298218
0, 4, 4, 6.046994686126709
0, 4, 5, 7.61704158782959
0, 4, 6, 5.984796047210693
0, 4, 7, 4.635498523712158
0, 4, 8, 4.090481281280518
0, 4, 9, 7.268890857696533
0, 4, 10, 6.824094295501709
0, 4, 11, 5.598988056182861
0, 4, 12, 6.158952713012695
0, 4, 13, 8.573312759399414
0, 4, 14, 13.11191940307617
0, 4, 15, 8.645596504211426
0, 4, 16, 16.00656509399414
0, 4, 17, 18.4793643951416
0, 4, 18, 94.46826934814453
0, 4, 19, 221.4469146728516
0, 4, 20, 285.1546630859375
0, 4, 21, 274.1109924316406
0, 4, 22, 304.9052734375
0, 4, 23, 265.8326110839844
0, 4, 24, 288.6986083984375
0, 4, 25, 272.910888671875
0, 4, 26, 293.5787353515625
0, 4, 27, 282.6503601074219
0, 4, 28, 305.3144226074219
0, 4, 29, 324.2730712890625
0, 4, 30, 310.6408081054688
0, 4, 31, 305.3866882324219
0, 4, 32, 282.8147277832031
0, 4, 33, 297.471435546875
0, 4, 34, 294.9217224121094
0, 4, 35, 311.2434387207031
0, 4, 36, 294.4574279785156
0, 4, 37, 287.3648071289062
0, 4, 38, 297.6887817382812
0, 4, 39, 295.8581237792969
0, 4, 40, 302.6318054199219
0, 4, 41, 311.8727722167969
0, 4, 42, 331.5314331054688
0, 4, 43, 297.1841735839844
0, 4, 44, 320.8836669921875
0, 4, 45, 323.7709350585938
0, 4, 46, 309.6121520996094
0, 4, 47, 292.16259765625
0, 4, 48, 296.6542663574219
0, 4, 49, 276.806884765625
0, 4, 50, 295.4084167480469
0, 4, 51, 318.0905151367188
0, 4, 52, 326.0504455566406
0, 4, 53, 303.9637756347656
0, 4, 54, 286.4729614257812
0, 4, 55, 315.6253662109375
0, 4, 56, 287.2758483886719
0, 4, 57, 310.3828430175781
0, 4, 58, 297.4460144042969
0, 4, 59, 307.4626770019531
0, 4, 60, 302.5584411621094
0, 4, 61, 314.7425231933594
0, 4, 62, 308.220947265625
0, 4, 63, 301.6733703613281
0, 4, 64, 332.0943603515625
0, 4, 65, 315.7402648925781
0, 4, 66, 292.7555541992188
0, 4, 67, 284.8788452148438
0, 4, 68, 311.2361145019531
0, 4, 69, 274.8514709472656
0, 4, 70, 300.2854614257812
0, 4, 71, 324.1030578613281
0, 4, 72, 333.3304138183594
0, 4, 73, 298.1928405761719
0, 4, 74, 293.1537170410156
0, 4, 75, 292.1181945800781
0, 4, 76, 276.5022888183594
0, 4, 77, 279.3390502929688
0, 4, 78, 308.3130493164062
0, 4, 79, 318.6693725585938
0, 4, 80, 316.2971801757812
0, 4, 81, 312.7842712402344
0, 4, 82, 296.9855346679688
0, 4, 83, 300.6303405761719
0, 4, 84, 289.9282531738281
0, 4, 85, 293.3392333984375
0, 4, 86, 296.5651245117188
0, 4, 87, 285.2936706542969
0, 4, 88, 306.7184753417969
0, 4, 89, 294.7682800292969
0, 4, 90, 334.6066589355469
0, 4, 91, 302.1607055664062
0, 4, 92, 291.8204040527344
0, 4, 93, 295.9518432617188
0, 4, 94, 293.3433532714844
0, 4, 95, 290.0885925292969
0, 4, 96, 322.5724792480469
0, 4, 97, 273.9462280273438
0, 4, 98, 327.9028930664062
0, 4, 99, 316.0718383789062
0, 4, 100, 302.0011596679688
0, 4, 101, 258.6575622558594
0, 4, 102, 296.1472473144531
0, 4, 103, 316.6535339355469
0, 4, 104, 281.9706726074219
0, 4, 105, 310.8560485839844
0, 4, 106, 288.3880310058594
0, 4, 107, 294.6647338867188
0, 4, 108, 225.7515869140625
0, 4, 109, 79.73130035400391
0, 4, 110, 16.15942192077637
0, 4, 111, 15.20892810821533
0, 4, 112, 9.36269474029541
0, 4, 113, 8.969740867614746
0, 4, 114, 8.797073364257812
0, 4, 115, 9.741147994995117
0, 4, 116, 8.487603187561035
0, 4, 117, 8.117274284362793
0, 4, 118, 10.5525369644165
0, 4, 119, 8.779757499694824
0, 4, 120, 5.974183559417725
0, 4, 121, 7.291042327880859
0, 4, 122, 5.306869506835938
0, 4, 123, 6.389501094818115
0, 4, 124, 4.604836463928223
0, 4, 125, 9.648754119873047
0, 4, 126, 7.33427095413208
0, 4, 127, 4.945831298828125
0, 5, 0, 3.442995548248291
0, 5, 1, 2.826937437057495
0, 5, 2, 5.63594913482666
0, 5, 3, 3.781619548797607
0, 5, 4, 5.902748584747314
0, 5, 5, 7.284371376037598
0, 5, 6, 4.811584949493408
0, 5, 7, 5.792994499206543
0, 5, 8, 4.780094623565674
0, 5, 9, 4.843172550201416
0, 5, 10, 7.41270112991333
0, 5, 11, 8.070606231689453
0, 5, 12, 8.807530403137207
0, 5, 13, 6.288491249084473
0, 5, 14, 12.52441024780273
0, 5, 15, 17.87853813171387
0, 5, 16, 15.79362106323242
0, 5, 17, 28.75918579101562
0, 5, 18, 138.1327514648438
0, 5, 19, 288.5887756347656
0, 5, 20, 306.9613037109375
0, 5, 21, 315.7736206054688
0, 5, 22, 274.8904724121094
0, 5, 23, 309.1806945800781
0, 5, 24, 302.4932556152344
0, 5, 25, 289.7331848144531
0, 5, 26, 294.4869689941406
0, 5, 27, 322.0194091796875
0, 5, 28, 303.9537353515625
0, 5, 29, 302.74365234375
0, 5, 30, 322.4989013671875
0, 5, 31, 286.9916076660156
0, 5, 32, 301.5760803222656
0, 5, 33, 305.07421875
0, 5, 34, 296.9264831542969
0, 5, 35, 310.4639587402344
0, 5, 36, 270.7708740234375
0, 5, 37, 283.7393493652344
0, 5, 38, 293.2448425292969
0, 5, 39, 311.9789733886719
0, 5, 40, 309.9815673828125
0, 5, 41, 272.2335510253906
0, 5, 42, 308.8756408691406
0, 5, 43, 313.6885681152344
0, 5, 44, 292.8077697753906
0, 5, 45, 300.3829345703125
0, 5, 46, 265.2279968261719
0, 5, 47, 280.1762390136719
0, 5, 48, 293.6227416992188
0, 5, 49, 287.2789306640625
0, 5, 50, 295.1739196777344
0, 5, 51, 279.6712341308594
0, 5, 52, 269.0615844726562
0, 5, 53, 285.5000610351562
0, 5, 54, 291.1708984375
0, 5, 55, 345.6960754394531
0, 5, 56, 304.685791015625
0, 5, 57, 307.3823852539062
0, 5, 58, 313.5452575683594
0, 5, 59, 302.9454650878906
0, 5, 60, 306.9389953613281
0, 5, 61, 281.9710083007812
0, 5, 62, 326.0029602050781
0, 5, 63, 292.9051818847656
0, 5, 64, 322.2333374023438
0, 5, 65, 306.9104614257812
0, 5, 66, 329.9140625
0, 5, 67, 313.9243774414062
0, 5, 68, 310.3828735351562
0, 5, 69, 314.8948669433594
0, 5, 70, 300.9071350097656
0, 5, 71, 272.3156433105469
0, 5, 72, 310.07275390625
0, 5, 73, 301.51025390625
0, 5, 74, 296.2521362304688
0, 5, 75, 295.0614318847656
0, 5, 76, 285.9006652832031
0, 5, 77, 298.7654113769531
0, 5, 78, 317.5977172851562
0, 5, 79, 308.4242553710938
0, 5, 80, 296.3888854980469
0, 5, 81, 326.1499938964844
0, 5, 82, 323.0488586425781
0, 5, 83, 280.4331359863281
0, 5, 84, 302.9047546386719
0, 5, 85, 272.7501525878906
0, 5, 86, 330.1808471679688
0, 5, 87, 285.5925903320312
0, 5, 88, 315.9836120605469
0, 5, 89, 304.1851196289062
0, 5, 90, 315.8157043457031
0, 5, 91, 313.171875
0, 5, 92, 295.8515625
0, 5, 93, 321.8060607910156
0, 5, 94, 308.9428100585938
0, 5, 95, 296.6239318847656
0, 5, 96, 297.9435729980469
0, 5, 97, 294.3074951171875
0, 5, 98, 317.6466674804688
0, 5, 99, 300.7202453613281
0, 5, 100, 289.7929992675781
0, 5, 101, 306.6764831542969
0, 5, 102, 290.6048889160156
0, 5, 103, 314.6172485351562
0, 5, 104, 304.7351684570312
0, 5, 105, 289.9365234375
0, 5, 106, 281.0211791992188
0, 5, 107, 292.6836547851562
0, 5, 108, 267.5740051269531
0, 5, 109, 156.679443359375
0, 5, 110, 40.39308929443359
0, 5, 111, 24.20981788635254
0, 5, 112, 16.24493980407715
0, 5, 113, 15.33993625640869
0, 5, 114, 12.34811878204346
0, 5, 115, 6.639591693878174
0, 5, 116, 6.78780460357666
0, 5, 117, 6.656088829040527
0, 5, 118, 13.08653450012207
0, 5, 119, 4.212345600128174
0, 5, 120, 6.354579925537109
0, 5, 121, 4.998325347900391
0, 5, 122, 5.823450088500977
0, 5, 123, 6.188019275665283
0, 5, 124, 5.967265129089355
0, 5, 125, 3.74625301361084
0, 5, 126, 8.704073905944824
0, 5, 127, 3.70858097076416
0, 6, 0, 2.911056280136108
0, 6, 1, 5.282131671905518
0, 6, 2, 5.061276912689209
0, 6, 3, 6.838965892791748
0, 6, 4, 3.210626840591431
0, 6, 5, 6.50862455368042
0, 6, 6, 7.037054061889648
0, 6, 7, 4.808107376098633
0, 6, 8, 11.2496509552002
0, 6, 9, 6.397590160369873
0, 6, 10, 9.837863922119141
0, 6, 11, 7.618400096893311
0, 6, 12, 8.639257431030273
0, 6, 13, 15.13840198516846
0, 6, 14, 10.02282619476318
0, 6, 15, 16.1402416229248
0, 6, 16, 29.02513694763184
0, 6, 17, 56.36016464233398
0, 6, 18, 171.6698455810547
0, 6, 19, 276.5666809082031
0, 6, 20, 290.7408752441406
0, 6, 21, 313.7435607910156
0, 6, 22, 319.3799438476562
0, 6, 23, 305.5760498046875
0, 6, 24, 314.8479614257812
0, 6, 25, 315.2802124023438
0, 6, 26, 321.8103637695312
0, 6, 27, 330.6966857910156
0, 6, 28, 297.2352294921875
0, 6, 29, 329.626708984375
0, 6, 30, 283.7173461914062
0, 6, 31, 285.3805541992188
0, 6, 32, 339.9415588378906
0, 6, 33, 301.8634948730469
0, 6, 34, 341.6321716308594
0, 6, 35, 321.6221923828125
0, 6, 36, 272.7499389648438
0, 6, 37, 288.4214172363281
0, 6, 38, 312.1908264160156
0, 6, 39, 298.112060546875
0, 6, 40, 283.3400268554688
0, 6, 41, 295.407470703125
0, 6, 42, 303.4397888183594
0, 6, 43, 289.5864562988281
0, 6, 44, 280.4585571289062
0, 6, 45, 319.5646057128906
0, 6, 46, 301.9273071289062
0, 6, 47, 333.1441345214844
0, 6, 48, 292.7110290527344
0, 6, 49, 311.3949279785156
0, 6, 50, 327.8032836914062
0, 6, 51, 309.6177978515625
0, 6, 52, 320.6128540039062
0, 6, 53, 327.6765441894531
0, 6, 54, 305.6858520507812
0, 6, 55, 305.7353515625
0, 6, 56, 293.3252868652344
0, 6, 57, 311.4389038085938
0, 6, 58, 265.51025390625
0, 6, 59, 302.5070495605469
0, 6, 60, 313.5255432128906
0, 6, 61, 273.71630859375
0, 6, 62, 341.3699951171875
0, 6, 63, 322.5076293945312
0, 6, 64, 291.3101501464844
0, 6, 65, 283.2644348144531
0, 6, 66, 305.2495422363281
0, 6, 67, 309.3423767089844
0, 6, 68, 292.4469909667969
0, 6, 69, 279.7524108886719
0, 6, 70, 273.9120788574219
0, 6, 71, 289.6134033203125
0, 6, 72, 308.9581604003906
0, 6, 73, 295.7276000976562
0, 6, 74, 330.5946350097656
0, 6, 75, 343.631103515625
0, 6, 76, 297.9950256347656
0, 6, 77, 286.3854064941406
0, 6, 78, 278.1492919921875
0, 6, 79, 293.0948486328125
0, 6, 80, 300.0081176757812
0, 6, 81, 313.8557434082031
0, 6, 82, 319.4993286132812
0, 6, 83, 319.4412536621094
0, 6, 84, 295.46875
0, 6, 85, 301.1019897460938
0, 6, 86, 330.4540405273438
0, 6, 87, 290.3868408203125
0, 6, 88, 304.4283142089844
0, 6, 89, 304.0783996582031
0, 6, 90, 299.5975341796875
0, 6, 91, 310.7861022949219
0, 6, 92, 284.6183166503906
0, 6, 93, 296.3509521484375
0, 6, 94, 274.2021484375
0, 6, 95, 299.5011901855469
0, 6, 96, 348.5651245117188
0, 6, 97, 309.12890625
0, 6, 98, 300.6781921386719
0, 6, 99, 274.3798828125
0, 6, 100, 308.4216003417969
0, 6, 101, 293.5152282714844
0, 6, 102, 308.5020446777344
0, 6, 103, 308.4826965332031
0, 6, 104, 290.9676513671875
0, 6, 105, 301.7225341796875
0, 6, 106, 308.237060546875
0, 6, 107, 305.3677978515625
0, 6, 108, 268.7663879394531
0, 6, 109, 186.84765625
0, 6, 110, 55.11933517456055
0, 6, 111, 21.94599723815918
0, 6, 112, 13.69002342224121
0, 6, 113, 11.21545219421387
0, 6, 114, 12.23771953582764
0, 6, 115, 12.52794933319092
0, 6, 116, 10.48385047912598
0, 6, 117, 7.843849658966064
0, 6, 118, 11.08164024353027
0, 6, 119, 10.75156784057617
0, 6, 120, 6.961829662322998
0, 6, 121, 7.16849946975708
0, 6, 122, 6.858733654022217
0, 6, 123, 4.705312252044678
0, 6, 124, 6.206563949584961
0, 6, 125, 6.224617958068848
0, 6, 126, 2.765630483627319
0, 6, 127, 9.101122856140137
0, 7, 0, 7.243545532226562
0, 7, 1, 3.879942655563354
0, 7, 2, 5.733799934387207
0, 7, 3, 3.980681180953979
0, 7, 4, 4.289576053619385
0, 7, 5, 7.752048969268799
0, 7, 6, 5.914302349090576
0, 7, 7, 5.821090221405029
0, 7, 8, 5.091106414794922
0, 7, 9, 6.128299236297607
0, 7, 10, 8.354371070861816
0, 7, 11, 9.657492637634277
0, 7, 12, 10.45997524261475
0, 7, 13, 9.995718955993652
0, 7, 14, 9.47545337677002
0, 7, 15, 15.61770915985107
0, 7, 16, 27.27540969848633
0, 7, 17, 99.1048583984375
0, 7, 18, 217.7849884033203
0, 7, 19, 292.208251953125
0, 7, 20, 301.103515625
0, 7, 21, 277.2662658691406
0, 7, 22, 298.3253479003906
0, 7, 23, 289.0625
0, 7, 24, 312.5811462402344
0, 7, 25, 324.9425964355469
0, 7, 26, 279.2489013671875
0, 7, 27, 298.0880126953125
0, 7, 28, 326.0653381347656
0, 7, 29, 317.3774108886719
0, 7, 30, 300.8585510253906
0, 7, 31, 276.8980712890625
0, 7, 32, 304.3563842773438
0, 7, 33, 261.84228515625
0, 7, 34, 299.3955688476562
0, 7, 35, 319.8393859863281
0, 7, 36, 331.0664672851562
0, 7, 37, 325.9599914550781
0, 7, 38, 297.5305786132812
0, 7, 39, 307.0787048339844
0, 7, 40, 290.2294921875
0, 7, 41, 272.159423828125
0, 7, 42, 300.6676940917969
0, 7, 43, 277.8172912597656
0, 7, 44, 303.3254089355469
0, 7, 45, 295.9716491699219
0, 7, 46, 282.1117553710938
0, 7, 47, 329.5779113769531
0, 7, 48, 284.3433532714844
0, 7, 49, 300.50439453125
0, 7, 50, 321.1112060546875
0, 7, 51, 298.4274597167969
0, 7, 52, 328.11328125
0, 7, 53, 309.8115539550781
0, 7, 54, 324.7666625976562
0, 7, 55, 307.5653991699219
0, 7, 56, 280.6915893554688
0, 7, 57, 282.1414489746094
0, 7, 58, 295.6429748535156
0, 7, 59, 296.427001953125
0, 7, 60, 324.0720520019531
0, 7, 61, 278.8711547851562
0, 7, 62, 299.7257690429688
0, 7, 63, 295.6897583007812
0, 7, 64, 306.964111328125
0, 7, 65, 332.7789916992188
0, 7, 66, 319.2368469238281
0, 7, 67, 301.0278930664062
0, 7, 68, 279.0347290039062
0, 7, 69, 293.8477783203125
0, 7, 70, 300.6502685546875
0, 7, 71, 310.2947998046875
0, 7, 72, 285.1346740722656
0, 7, 73, 295.4492797851562
0, 7, 74, 343.7623596191406
0, 7, 75, 317.978271484375
0, 7, 76, 323.6056823730469
0, 7, 77, 280.8824157714844
0, 7, 78, 300.9252319335938
0, 7, 79, 297.4138488769531
0, 7, 80, 312.5661010742188
0, 7, 81, 320.6490173339844
0, 7, 82, 329.1880187988281
0, 7, 83, 319.0948486328125
0, 7, 84, 309.6387023925781
0, 7, 85, 271.7889099121094
0, 7, 86, 311.9576110839844
0, 7, 87, 309.9513244628906
0, 7, 88, 306.2923278808594
0, 7, 89, 293.9169921875
0, 7, 90, 308.2234191894531
0, 7, 91, 313.3120727539062
0, 7, 92, 288.3275756835938
0, 7, 93, 309.8940124511719
0, 7, 94, 273.1659545898438
0, 7, 95, 295.3716735839844
0, 7, 96, 331.220947265625
0, 7, 97, 294.3143310546875
0, 7, 98, 290.5739135742188
0, 7, 99, 313.3717346191406
0, 7, 100, 280.0508728027344
0, 7, 101, 274.9016723632812
0, 7, 102, 289.5494384765625
0, 7, 103, 291.3551025390625
0, 7, 104, 276.3276672363281
0, 7, 105, 305.6651916503906
0, 7, 106, 317.7017211914062
0, 7, 107, 296.0351867675781
0, 7, 108, 272.8981018066406
0, 7, 109, 237.5886077880859
0, 7, 110, 96.95445251464844
0, 7, 111, 24.93683815002441
0, 7, 112, 14.6059398651123
0, 7, 113, 13.1436653137207
0, 7, 114, 13.25098419189453
0, 7, 115, 13.52750682830811
0, 7, 116, 10.86185264587402
0, 7, 117, 6.540544509887695
0, 7, 118, 9.187127113342285
0, 7, 119, 5.307287216186523
0, 7, 120, 5.076398372650146
0, 7, 121, 7.061034679412842
0, 7, 122, 6.494027614593506
0, 7, 123, 6.291087627410889
0, 7, 124, 3.637675762176514
0, 7, 125, 5.352256774902344
0, 7, 126, 14.84895324707031
0, 7, 127, 2.624954462051392
0, 8, 0, 6.606820583343506
0, 8, 1, 3.275697708129883
0, 8, 2, 5.654802799224854
0, 8, 3, 4.357916355133057
0, 8, 4, 4.033783435821533
0, 8, 5, 6.497031211853027
0, 8, 6, 7.61827564239502
0, 8, 7, 6.090319156646729
0, 8, 8, 12.26014041900635
0, 8, 9, 6.67916202545166
0, 8, 10, 8.361371994018555
0, 8, 11, 13.01541042327881
0, 8, 12, 15.54250144958496
0, 8, 13, 14.293137550354
0, 8, 14, 13.16027450561523
0, 8, 15, 18.0435619354248
0, 8, 16, 33.64276123046875
0, 8, 17, 130.5942840576172
0, 8, 18, 242.0873565673828
0, 8, 19, 295.5812377929688
0, 8, 20, 284.4869384765625
0, 8, 21, 307.100341796875
0, 8, 22, 294.1104736328125
0, 8, 23, 274.6499633789062
0, 8, 24, 269.46435546875
0, 8, 25, 274.8859558105469
0, 8, 26, 305.1805725097656
0, 8, 27, 308.0303649902344
0, 8, 28, 304.5426330566406
0, 8, 29, 318.2235717773438
0, 8, 30, 318.875
0, 8, 31, 305.205810546875
0, 8, 32, 280.2377319335938
0, 8, 33, 294.5550537109375
0, 8, 34, 290.8078308105469
0, 8, 35, 282.292724609375
0, 8, 36, 314.7534790039062
0, 8, 37, 340.9861145019531
0, 8, 38, 332.622802734375
0, 8, 39, 280.98974609375
0, 8, 40, 305.9707946777344
0, 8, 41, 294.1395568847656
0, 8, 42, 327.4244079589844
