# TOPAS Version: 3.1.p3
# Parameter File: batch_inserts_142.txt
# Results for scorer Readout_Adipose
# Scored in component: MyBox
# X in 1 bin  of 0.75 cm
# Y in 512 bins of 0.0783984 cm
# Z in 128 bins of 0.078125 cm
# EnergyDeposit ( MeV ) : Sum   
0, 0, 0, 23.01496505737305
0, 0, 1, 21.48346710205078
0, 0, 2, 27.29048347473145
0, 0, 3, 22.90562438964844
0, 0, 4, 18.3277759552002
0, 0, 5, 22.260986328125
0, 0, 6, 24.34699440002441
0, 0, 7, 33.1166877746582
0, 0, 8, 21.55910110473633
0, 0, 9, 24.22539520263672
0, 0, 10, 24.92167091369629
0, 0, 11, 27.72574043273926
0, 0, 12, 37.1745491027832
0, 0, 13, 36.42228698730469
0, 0, 14, 35.79600143432617
0, 0, 15, 44.60775756835938
0, 0, 16, 42.45037078857422
0, 0, 17, 48.10980224609375
0, 0, 18, 78.21495819091797
0, 0, 19, 189.5896453857422
0, 0, 20, 701.6724243164062
0, 0, 21, 1189.541748046875
0, 0, 22, 1243.922485351562
0, 0, 23, 1276.694458007812
0, 0, 24, 1281.635375976562
0, 0, 25, 1352.83642578125
0, 0, 26, 1268.845825195312
0, 0, 27, 1279.766845703125
0, 0, 28, 1327.119262695312
0, 0, 29, 1271.7421875
0, 0, 30, 1259.431274414062
0, 0, 31, 1276.258178710938
0, 0, 32, 1264.53955078125
0, 0, 33, 1248.00732421875
0, 0, 34, 1324.006469726562
0, 0, 35, 1303.681518554688
0, 0, 36, 1244.7265625
0, 0, 37, 1279.797729492188
0, 0, 38, 1247.124389648438
0, 0, 39, 1245.112182617188
0, 0, 40, 1227.973754882812
0, 0, 41, 1270.611206054688
0, 0, 42, 1252.38134765625
0, 0, 43, 1271.53466796875
0, 0, 44, 1224.42431640625
0, 0, 45, 1285.566772460938
0, 0, 46, 1263.138793945312
0, 0, 47, 1243.37158203125
0, 0, 48, 1274.57568359375
0, 0, 49, 1287.575439453125
0, 0, 50, 1312.83056640625
0, 0, 51, 1262.399780273438
0, 0, 52, 1354.499267578125
0, 0, 53, 1323.8984375
0, 0, 54, 1292.374145507812
0, 0, 55, 1235.69091796875
0, 0, 56, 1318.94384765625
0, 0, 57, 1291.573486328125
0, 0, 58, 1256.562744140625
0, 0, 59, 1334.07666015625
0, 0, 60, 1324.382080078125
0, 0, 61, 1258.651733398438
0, 0, 62, 1240.4326171875
0, 0, 63, 1275.765380859375
0, 0, 64, 1328.74951171875
0, 0, 65, 1284.2900390625
0, 0, 66, 1316.107666015625
0, 0, 67, 1213.925415039062
0, 0, 68, 1306.85205078125
0, 0, 69, 1328.1650390625
0, 0, 70, 1344.966186523438
0, 0, 71, 1288.1904296875
0, 0, 72, 1315.72998046875
0, 0, 73, 1238.505981445312
0, 0, 74, 1292.419921875
0, 0, 75, 1300.092651367188
0, 0, 76, 1257.221801757812
0, 0, 77, 1284.174560546875
0, 0, 78, 1312.612060546875
0, 0, 79, 1326.69287109375
0, 0, 80, 1263.970703125
0, 0, 81, 1322.801147460938
0, 0, 82, 1284.9033203125
0, 0, 83, 1289.136962890625
0, 0, 84, 1327.327514648438
0, 0, 85, 1238.684692382812
0, 0, 86, 1265.7705078125
0, 0, 87, 1253.613647460938
0, 0, 88, 1259.719604492188
0, 0, 89, 1339.091064453125
0, 0, 90, 1275.836181640625
0, 0, 91, 1355.853881835938
0, 0, 92, 1307.518798828125
0, 0, 93, 1277.2080078125
0, 0, 94, 1249.305908203125
0, 0, 95, 1328.9462890625
0, 0, 96, 1282.90576171875
0, 0, 97, 1328.403442382812
0, 0, 98, 1257.985595703125
0, 0, 99, 1252.104370117188
0, 0, 100, 1287.043701171875
0, 0, 101, 1316.58837890625
0, 0, 102, 1234.186889648438
0, 0, 103, 1318.5712890625
0, 0, 104, 1260.467895507812
0, 0, 105, 1266.898681640625
0, 0, 106, 1210.694091796875
0, 0, 107, 780.4275512695312
0, 0, 108, 191.7915802001953
0, 0, 109, 69.10379791259766
0, 0, 110, 62.50802612304688
0, 0, 111, 38.10334777832031
0, 0, 112, 34.08706665039062
0, 0, 113, 30.76105880737305
0, 0, 114, 35.34854888916016
0, 0, 115, 31.77416229248047
0, 0, 116, 27.86282348632812
0, 0, 117, 32.9810791015625
0, 0, 118, 28.42526626586914
0, 0, 119, 24.06002807617188
0, 0, 120, 24.17561340332031
0, 0, 121, 34.77304458618164
0, 0, 122, 25.27190208435059
0, 0, 123, 22.3089427947998
0, 0, 124, 18.47350120544434
0, 0, 125, 17.22171020507812
0, 0, 126, 27.05760383605957
0, 0, 127, 16.61662864685059
0, 1, 0, 24.73552322387695
0, 1, 1, 23.02636337280273
0, 1, 2, 20.2558422088623
0, 1, 3, 24.61742210388184
0, 1, 4, 25.09226608276367
0, 1, 5, 28.78059196472168
0, 1, 6, 24.54726028442383
0, 1, 7, 25.58613967895508
0, 1, 8, 32.3082275390625
0, 1, 9, 28.38986206054688
0, 1, 10, 34.72970199584961
0, 1, 11, 41.06607055664062
0, 1, 12, 38.70928955078125
0, 1, 13, 39.32653427124023
0, 1, 14, 38.08885192871094
0, 1, 15, 49.29718399047852
0, 1, 16, 61.85128402709961
0, 1, 17, 60.06461715698242
0, 1, 18, 93.21134185791016
0, 1, 19, 405.6708068847656
0, 1, 20, 1044.5927734375
0, 1, 21, 1373.748168945312
0, 1, 22, 1474.40673828125
0, 1, 23, 1464.004272460938
0, 1, 24, 1448.006103515625
0, 1, 25, 1419.515625
0, 1, 26, 1475.217163085938
0, 1, 27, 1467.347900390625
0, 1, 28, 1498.6279296875
0, 1, 29, 1477.922973632812
0, 1, 30, 1505.84765625
0, 1, 31, 1483.865356445312
0, 1, 32, 1411.842407226562
0, 1, 33, 1498.732055664062
0, 1, 34, 1497.391967773438
0, 1, 35, 1462.805419921875
0, 1, 36, 1492.8740234375
0, 1, 37, 1407.602294921875
0, 1, 38, 1390.27001953125
0, 1, 39, 1526.367919921875
0, 1, 40, 1466.43212890625
0, 1, 41, 1490.16259765625
0, 1, 42, 1492.709594726562
0, 1, 43, 1507.00390625
0, 1, 44, 1455.487182617188
0, 1, 45, 1493.265869140625
0, 1, 46, 1423.869506835938
0, 1, 47, 1431.800903320312
0, 1, 48, 1430.671997070312
0, 1, 49, 1485.416625976562
0, 1, 50, 1444.097900390625
0, 1, 51, 1479.093383789062
0, 1, 52, 1477.077026367188
0, 1, 53, 1472.236328125
0, 1, 54, 1511.015502929688
0, 1, 55, 1499.284545898438
0, 1, 56, 1471.060913085938
0, 1, 57, 1458.567749023438
0, 1, 58, 1430.686401367188
0, 1, 59, 1482.776977539062
0, 1, 60, 1467.450927734375
0, 1, 61, 1454.885131835938
0, 1, 62, 1454.02685546875
0, 1, 63, 1415.19189453125
0, 1, 64, 1473.913940429688
0, 1, 65, 1420.495361328125
0, 1, 66, 1437.003540039062
0, 1, 67, 1456.7109375
0, 1, 68, 1385.60302734375
0, 1, 69, 1468.081420898438
0, 1, 70, 1433.06640625
0, 1, 71, 1497.415161132812
0, 1, 72, 1430.87109375
0, 1, 73, 1486.921875
0, 1, 74, 1471.066772460938
0, 1, 75, 1481.606079101562
0, 1, 76, 1455.80859375
0, 1, 77, 1465.491333007812
0, 1, 78, 1453.271240234375
0, 1, 79, 1496.836791992188
0, 1, 80, 1449.991333007812
0, 1, 81, 1426.60205078125
0, 1, 82, 1469.781005859375
0, 1, 83, 1467.419677734375
0, 1, 84, 1538.271606445312
0, 1, 85, 1447.6103515625
0, 1, 86, 1410.232666015625
0, 1, 87, 1415.444946289062
0, 1, 88, 1473.060668945312
0, 1, 89, 1474.984008789062
0, 1, 90, 1429.99609375
0, 1, 91, 1466.144165039062
0, 1, 92, 1407.985107421875
0, 1, 93, 1463.429321289062
0, 1, 94, 1467.12109375
0, 1, 95, 1423.559692382812
0, 1, 96, 1503.155517578125
0, 1, 97, 1520.529907226562
0, 1, 98, 1480.583862304688
0, 1, 99, 1422.24267578125
0, 1, 100, 1448.88916015625
0, 1, 101, 1414.711669921875
0, 1, 102, 1441.775146484375
0, 1, 103, 1410.511474609375
0, 1, 104, 1413.032836914062
0, 1, 105, 1463.961059570312
0, 1, 106, 1369.0283203125
0, 1, 107, 1021.202575683594
0, 1, 108, 402.6024169921875
0, 1, 109, 88.96804046630859
0, 1, 110, 64.98396301269531
0, 1, 111, 56.04937362670898
0, 1, 112, 49.57997512817383
0, 1, 113, 37.13973617553711
0, 1, 114, 36.51255416870117
0, 1, 115, 39.10028839111328
0, 1, 116, 34.25217437744141
0, 1, 117, 33.45942687988281
0, 1, 118, 35.31648254394531
0, 1, 119, 28.17491149902344
0, 1, 120, 29.35310173034668
0, 1, 121, 22.82704162597656
0, 1, 122, 22.57071495056152
0, 1, 123, 20.73709869384766
0, 1, 124, 31.67394828796387
0, 1, 125, 17.72204971313477
0, 1, 126, 23.23695755004883
0, 1, 127, 19.36213111877441
0, 2, 0, 19.2523078918457
0, 2, 1, 23.5725154876709
0, 2, 2, 19.64510345458984
0, 2, 3, 24.1529541015625
0, 2, 4, 25.68314933776855
0, 2, 5, 29.20596504211426
0, 2, 6, 20.54241180419922
0, 2, 7, 24.62902069091797
0, 2, 8, 29.51148414611816
0, 2, 9, 27.70870208740234
0, 2, 10, 31.25681304931641
0, 2, 11, 34.34787368774414
0, 2, 12, 40.16202163696289
0, 2, 13, 49.34176254272461
0, 2, 14, 47.0649299621582
0, 2, 15, 43.72467803955078
0, 2, 16, 64.78778076171875
0, 2, 17, 76.96894836425781
0, 2, 18, 144.3182830810547
0, 2, 19, 605.5490112304688
0, 2, 20, 1288.336669921875
0, 2, 21, 1434.80322265625
0, 2, 22, 1469.38134765625
0, 2, 23, 1406.314208984375
0, 2, 24, 1437.341552734375
0, 2, 25, 1522.581420898438
0, 2, 26, 1555.677124023438
0, 2, 27, 1451.951538085938
0, 2, 28, 1455.532592773438
0, 2, 29, 1462.245239257812
0, 2, 30, 1464.866577148438
0, 2, 31, 1533.835693359375
0, 2, 32, 1505.25927734375
0, 2, 33, 1441.4287109375
0, 2, 34, 1476.638061523438
0, 2, 35, 1470.965698242188
0, 2, 36, 1520.771362304688
0, 2, 37, 1545.791137695312
0, 2, 38, 1507.74365234375
0, 2, 39, 1463.703247070312
0, 2, 40, 1501.49267578125
0, 2, 41, 1523.3525390625
0, 2, 42, 1506.390625
0, 2, 43, 1546.388549804688
0, 2, 44, 1457.1806640625
0, 2, 45, 1483.04296875
0, 2, 46, 1423.924072265625
0, 2, 47, 1443.583374023438
0, 2, 48, 1394.7216796875
0, 2, 49, 1460.62890625
0, 2, 50, 1442.990478515625
0, 2, 51, 1444.11865234375
0, 2, 52, 1498.61669921875
0, 2, 53, 1524.200073242188
0, 2, 54, 1531.06787109375
0, 2, 55, 1496.274169921875
0, 2, 56, 1467.457397460938
0, 2, 57, 1413.485229492188
0, 2, 58, 1450.546508789062
0, 2, 59, 1455.045166015625
0, 2, 60, 1478.009033203125
0, 2, 61, 1442.859741210938
0, 2, 62, 1477.441040039062
0, 2, 63, 1512.303955078125
0, 2, 64, 1459.122192382812
0, 2, 65, 1428.627319335938
0, 2, 66, 1486.732299804688
0, 2, 67, 1505.825317382812
0, 2, 68, 1543.434204101562
0, 2, 69, 1543.8056640625
0, 2, 70, 1510.370727539062
0, 2, 71, 1459.88720703125
0, 2, 72, 1517.902587890625
0, 2, 73, 1521.939575195312
0, 2, 74, 1495.2783203125
0, 2, 75, 1499.729125976562
0, 2, 76, 1455.87890625
0, 2, 77, 1501.654174804688
0, 2, 78, 1435.921142578125
0, 2, 79, 1538.843505859375
0, 2, 80, 1481.524658203125
0, 2, 81, 1470.7353515625
0, 2, 82, 1559.6767578125
0, 2, 83, 1516.23095703125
0, 2, 84, 1491.946899414062
0, 2, 85, 1510.353759765625
0, 2, 86, 1544.539916992188
0, 2, 87, 1493.851806640625
0, 2, 88, 1543.8701171875
0, 2, 89, 1465.093994140625
0, 2, 90, 1433.261474609375
0, 2, 91, 1400.779418945312
0, 2, 92, 1477.836547851562
0, 2, 93, 1495.462524414062
0, 2, 94, 1449.602416992188
0, 2, 95, 1542.457153320312
0, 2, 96, 1516.737426757812
0, 2, 97, 1461.304443359375
0, 2, 98, 1463.021484375
0, 2, 99, 1403.924194335938
0, 2, 100, 1470.295532226562
0, 2, 101, 1481.574584960938
0, 2, 102, 1458.42236328125
0, 2, 103, 1388.125122070312
0, 2, 104, 1411.288696289062
0, 2, 105, 1391.110229492188
0, 2, 106, 1457.523803710938
0, 2, 107, 1277.386840820312
0, 2, 108, 620.4684448242188
0, 2, 109, 172.1079254150391
0, 2, 110, 69.51517486572266
0, 2, 111, 60.02558135986328
0, 2, 112, 50.11809158325195
0, 2, 113, 45.30029296875
0, 2, 114, 39.68532180786133
0, 2, 115, 42.48911666870117
0, 2, 116, 36.8369255065918
0, 2, 117, 42.05362319946289
0, 2, 118, 41.83202743530273
0, 2, 119, 32.45141220092773
0, 2, 120, 24.8155517578125
0, 2, 121, 17.6689453125
0, 2, 122, 28.1335391998291
0, 2, 123, 22.41411209106445
0, 2, 124, 23.51237297058105
0, 2, 125, 26.07610130310059
0, 2, 126, 18.8031177520752
0, 2, 127, 22.23550796508789
0, 3, 0, 15.06953525543213
0, 3, 1, 17.80169296264648
0, 3, 2, 23.14535522460938
0, 3, 3, 19.82346153259277
0, 3, 4, 18.61707305908203
0, 3, 5, 24.7408447265625
0, 3, 6, 35.92518997192383
0, 3, 7, 27.50671005249023
0, 3, 8, 32.85213088989258
0, 3, 9, 29.43374252319336
0, 3, 10, 38.78324508666992
0, 3, 11, 41.06528472900391
0, 3, 12, 44.91348648071289
0, 3, 13, 53.37722396850586
0, 3, 14, 66.13262939453125
0, 3, 15, 49.53377914428711
0, 3, 16, 72.69379425048828
0, 3, 17, 89.31100463867188
0, 3, 18, 240.9000701904297
0, 3, 19, 879.1305541992188
0, 3, 20, 1386.7744140625
0, 3, 21, 1509.41943359375
0, 3, 22, 1461.304443359375
0, 3, 23, 1450.160766601562
0, 3, 24, 1440.600952148438
0, 3, 25, 1460.694091796875
0, 3, 26, 1493.03271484375
0, 3, 27, 1462.247436523438
0, 3, 28, 1488.562133789062
0, 3, 29, 1543.486083984375
0, 3, 30, 1570.354858398438
0, 3, 31, 1508.345581054688
0, 3, 32, 1548.528686523438
0, 3, 33, 1535.9423828125
0, 3, 34, 1490.560546875
0, 3, 35, 1468.438842773438
0, 3, 36, 1450.58349609375
0, 3, 37, 1512.412963867188
0, 3, 38, 1513.930053710938
0, 3, 39, 1440.69921875
0, 3, 40, 1441.347778320312
0, 3, 41, 1559.990966796875
0, 3, 42, 1462.7578125
0, 3, 43, 1460.157348632812
0, 3, 44, 1450.380859375
0, 3, 45, 1507.034790039062
0, 3, 46, 1511.442260742188
0, 3, 47, 1439.624633789062
0, 3, 48, 1508.751586914062
0, 3, 49, 1451.434448242188
0, 3, 50, 1494.657836914062
0, 3, 51, 1534.418579101562
0, 3, 52, 1533.771118164062
0, 3, 53, 1464.819580078125
0, 3, 54, 1537.722778320312
0, 3, 55, 1504.882446289062
0, 3, 56, 1438.864013671875
0, 3, 57, 1503.7744140625
0, 3, 58, 1510.791015625
0, 3, 59, 1507.20703125
0, 3, 60, 1531.87646484375
0, 3, 61, 1485.099365234375
0, 3, 62, 1496.028442382812
0, 3, 63, 1495.222778320312
0, 3, 64, 1502.951416015625
0, 3, 65, 1511.062133789062
0, 3, 66, 1553.665161132812
0, 3, 67, 1547.428833007812
0, 3, 68, 1449.48193359375
0, 3, 69, 1461.194946289062
0, 3, 70, 1391.836181640625
0, 3, 71, 1463.66552734375
0, 3, 72, 1549.128173828125
0, 3, 73, 1500.740844726562
0, 3, 74, 1466.251220703125
0, 3, 75, 1456.833618164062
0, 3, 76, 1575.062622070312
0, 3, 77, 1542.071044921875
0, 3, 78, 1434.325805664062
0, 3, 79, 1491.522216796875
0, 3, 80, 1462.679931640625
0, 3, 81, 1473.153930664062
0, 3, 82, 1557.455200195312
0, 3, 83, 1517.87158203125
0, 3, 84, 1563.149047851562
0, 3, 85, 1477.8466796875
0, 3, 86, 1522.350830078125
0, 3, 87, 1535.860107421875
0, 3, 88, 1454.1279296875
0, 3, 89, 1454.925903320312
0, 3, 90, 1453.093139648438
0, 3, 91, 1418.274291992188
0, 3, 92, 1510.474365234375
0, 3, 93, 1503.405029296875
0, 3, 94, 1514.594482421875
0, 3, 95, 1542.6572265625
0, 3, 96, 1512.150756835938
0, 3, 97, 1467.512084960938
0, 3, 98, 1434.541625976562
0, 3, 99, 1462.098754882812
0, 3, 100, 1469.576904296875
0, 3, 101, 1474.358642578125
0, 3, 102, 1517.100219726562
0, 3, 103, 1551.01708984375
0, 3, 104, 1499.4013671875
0, 3, 105, 1515.138671875
0, 3, 106, 1479.0126953125
0, 3, 107, 1341.118774414062
0, 3, 108, 870.4110717773438
0, 3, 109, 261.2814331054688
0, 3, 110, 104.6748046875
0, 3, 111, 69.48222351074219
0, 3, 112, 60.44297790527344
0, 3, 113, 55.10812759399414
0, 3, 114, 45.87565612792969
0, 3, 115, 51.50514221191406
0, 3, 116, 33.9597282409668
0, 3, 117, 40.33253860473633
0, 3, 118, 37.88924026489258
0, 3, 119, 40.28321838378906
0, 3, 120, 30.2276496887207
0, 3, 121, 20.57157516479492
0, 3, 122, 21.74969482421875
0, 3, 123, 24.01735496520996
0, 3, 124, 26.28935813903809
0, 3, 125, 24.71356964111328
0, 3, 126, 27.15851402282715
0, 3, 127, 15.27981376647949
0, 4, 0, 18.79833030700684
0, 4, 1, 21.31068801879883
0, 4, 2, 19.71768951416016
0, 4, 3, 19.27430534362793
0, 4, 4, 27.97771263122559
0, 4, 5, 27.09050369262695
0, 4, 6, 32.85686111450195
0, 4, 7, 26.67466926574707
0, 4, 8, 27.4543628692627
0, 4, 9, 35.39994812011719
0, 4, 10, 32.66695785522461
0, 4, 11, 36.9630241394043
0, 4, 12, 44.11433410644531
0, 4, 13, 55.64426422119141
0, 4, 14, 50.28861618041992
0, 4, 15, 62.01088714599609
0, 4, 16, 72.01279449462891
0, 4, 17, 113.4964141845703
0, 4, 18, 446.9432678222656
0, 4, 19, 1182.035034179688
0, 4, 20, 1445.472534179688
0, 4, 21, 1419.560180664062
0, 4, 22, 1431.059814453125
0, 4, 23, 1457.046264648438
0, 4, 24, 1476.617431640625
0, 4, 25, 1401.244018554688
0, 4, 26, 1542.882690429688
0, 4, 27, 1539.932495117188
0, 4, 28, 1506.589599609375
0, 4, 29, 1516.679077148438
0, 4, 30, 1528.869506835938
0, 4, 31, 1577.276611328125
0, 4, 32, 1516.737426757812
0, 4, 33, 1495.57470703125
0, 4, 34, 1464.074951171875
0, 4, 35, 1560.57080078125
0, 4, 36, 1499.264282226562
0, 4, 37, 1513.643432617188
0, 4, 38, 1538.919799804688
0, 4, 39, 1472.2314453125
0, 4, 40, 1515.613037109375
0, 4, 41, 1586.02490234375
0, 4, 42, 1563.410034179688
0, 4, 43, 1473.03759765625
0, 4, 44, 1497.129150390625
0, 4, 45, 1517.480590820312
0, 4, 46, 1469.921020507812
0, 4, 47, 1503.334228515625
0, 4, 48, 1526.603271484375
0, 4, 49, 1468.053955078125
0, 4, 50, 1522.373046875
0, 4, 51, 1493.864624023438
0, 4, 52, 1492.87841796875
0, 4, 53, 1453.743774414062
0, 4, 54, 1443.922119140625
0, 4, 55, 1520.599487304688
0, 4, 56, 1454.631225585938
0, 4, 57, 1496.113647460938
0, 4, 58, 1460.625366210938
0, 4, 59, 1464.311767578125
0, 4, 60, 1521.751342773438
0, 4, 61, 1500.234252929688
0, 4, 62, 1510.307495117188
0, 4, 63, 1545.678955078125
0, 4, 64, 1596.38427734375
0, 4, 65, 1426.966552734375
0, 4, 66, 1510.689086914062
0, 4, 67, 1521.595703125
0, 4, 68, 1497.067016601562
0, 4, 69, 1469.756103515625
0, 4, 70, 1543.724731445312
0, 4, 71, 1515.78369140625
0, 4, 72, 1526.05078125
0, 4, 73, 1494.218994140625
0, 4, 74, 1485.255493164062
0, 4, 75, 1531.004638671875
0, 4, 76, 1479.4453125
0, 4, 77, 1500.264404296875
0, 4, 78, 1499.653686523438
0, 4, 79, 1480.7529296875
0, 4, 80, 1516.835327148438
0, 4, 81, 1521.015502929688
0, 4, 82, 1561.921752929688
0, 4, 83, 1502.306274414062
0, 4, 84, 1537.143432617188
0, 4, 85, 1554.080078125
0, 4, 86, 1524.293823242188
0, 4, 87, 1497.008911132812
0, 4, 88, 1517.479248046875
0, 4, 89, 1484.355590820312
0, 4, 90, 1545.01953125
0, 4, 91, 1555.221069335938
0, 4, 92, 1493.22119140625
0, 4, 93, 1516.612915039062
0, 4, 94, 1482.74853515625
0, 4, 95, 1507.801391601562
0, 4, 96, 1445.008544921875
0, 4, 97, 1405.421142578125
0, 4, 98, 1556.63525390625
0, 4, 99, 1508.279541015625
0, 4, 100, 1487.493530273438
0, 4, 101, 1447.681640625
0, 4, 102, 1445.908081054688
0, 4, 103, 1513.89892578125
0, 4, 104, 1511.600219726562
0, 4, 105, 1556.084594726562
0, 4, 106, 1479.628662109375
0, 4, 107, 1456.27294921875
0, 4, 108, 1116.9111328125
0, 4, 109, 435.9604797363281
0, 4, 110, 98.02307891845703
0, 4, 111, 71.15458679199219
0, 4, 112, 59.69730377197266
0, 4, 113, 51.85641860961914
0, 4, 114, 49.35200119018555
0, 4, 115, 44.70182037353516
0, 4, 116, 39.58015441894531
0, 4, 117, 39.53325653076172
0, 4, 118, 44.02072525024414
0, 4, 119, 43.37471008300781
0, 4, 120, 39.37680816650391
0, 4, 121, 26.39532661437988
0, 4, 122, 30.62036895751953
0, 4, 123, 31.62359809875488
0, 4, 124, 23.42621421813965
0, 4, 125, 31.04719543457031
0, 4, 126, 23.31789016723633
0, 4, 127, 16.41499900817871
0, 5, 0, 25.84349250793457
0, 5, 1, 24.49270439147949
0, 5, 2, 29.74091911315918
0, 5, 3, 27.57469749450684
0, 5, 4, 19.8288745880127
0, 5, 5, 36.95526885986328
0, 5, 6, 27.94252586364746
0, 5, 7, 27.55239486694336
0, 5, 8, 28.52841758728027
0, 5, 9, 28.46421241760254
0, 5, 10, 27.86509323120117
0, 5, 11, 42.57363891601562
0, 5, 12, 40.79354095458984
0, 5, 13, 45.28450775146484
0, 5, 14, 58.51348495483398
0, 5, 15, 75.73067474365234
0, 5, 16, 79.31869506835938
0, 5, 17, 159.1569366455078
0, 5, 18, 673.9427490234375
0, 5, 19, 1346.404296875
0, 5, 20, 1523.679077148438
0, 5, 21, 1499.117797851562
0, 5, 22, 1500.418334960938
0, 5, 23, 1528.325805664062
0, 5, 24, 1464.428466796875
0, 5, 25, 1426.433837890625
0, 5, 26, 1523.273559570312
0, 5, 27, 1540.701782226562
0, 5, 28, 1484.675903320312
0, 5, 29, 1521.575073242188
0, 5, 30, 1492.631469726562
0, 5, 31, 1499.654174804688
0, 5, 32, 1606.23876953125
0, 5, 33, 1500.387817382812
0, 5, 34, 1483.61962890625
0, 5, 35, 1515.893798828125
0, 5, 36, 1444.34765625
0, 5, 37, 1527.866088867188
0, 5, 38, 1548.965698242188
0, 5, 39, 1547.276977539062
0, 5, 40, 1500.9306640625
0, 5, 41, 1479.554931640625
0, 5, 42, 1542.6748046875
0, 5, 43, 1531.728149414062
0, 5, 44, 1541.996704101562
0, 5, 45, 1507.168701171875
0, 5, 46, 1491.524780273438
0, 5, 47, 1480.338989257812
0, 5, 48, 1502.756469726562
0, 5, 49, 1522.304077148438
0, 5, 50, 1506.965087890625
0, 5, 51, 1514.947387695312
0, 5, 52, 1432.686157226562
0, 5, 53, 1523.022583007812
0, 5, 54, 1522.0546875
0, 5, 55, 1523.67626953125
0, 5, 56, 1484.256713867188
0, 5, 57, 1541.518432617188
0, 5, 58, 1504.937133789062
0, 5, 59, 1485.601318359375
0, 5, 60, 1541.417114257812
0, 5, 61, 1452.447631835938
0, 5, 62, 1578.70458984375
0, 5, 63, 1429.420288085938
0, 5, 64, 1490.657348632812
0, 5, 65, 1466.238647460938
0, 5, 66, 1528.609130859375
0, 5, 67, 1563.275634765625
0, 5, 68, 1461.06640625
0, 5, 69, 1483.180908203125
0, 5, 70, 1490.818481445312
0, 5, 71, 1475.578735351562
0, 5, 72, 1539.70654296875
0, 5, 73, 1461.465087890625
0, 5, 74, 1491.707153320312
0, 5, 75, 1487.194946289062
0, 5, 76, 1475.902465820312
0, 5, 77, 1513.389892578125
0, 5, 78, 1527.77685546875
0, 5, 79, 1512.169189453125
0, 5, 80, 1516.773193359375
0, 5, 81, 1593.361328125
0, 5, 82, 1522.433837890625
0, 5, 83, 1491.372192382812
0, 5, 84, 1531.017700195312
0, 5, 85, 1514.745971679688
0, 5, 86, 1556.202758789062
0, 5, 87, 1474.685546875
0, 5, 88, 1497.782958984375
0, 5, 89, 1482.778930664062
0, 5, 90, 1480.9755859375
0, 5, 91, 1549.398071289062
0, 5, 92, 1481.564086914062
0, 5, 93, 1561.098999023438
0, 5, 94, 1506.40234375
0, 5, 95, 1557.67236328125
0, 5, 96, 1498.021606445312
0, 5, 97, 1507.4150390625
0, 5, 98, 1505.778686523438
0, 5, 99, 1541.03515625
0, 5, 100, 1431.8671875
0, 5, 101, 1427.611694335938
0, 5, 102, 1518.459228515625
0, 5, 103, 1478.174926757812
0, 5, 104, 1456.695068359375
0, 5, 105, 1492.470581054688
0, 5, 106, 1457.094970703125
0, 5, 107, 1399.562133789062
0, 5, 108, 1291.685668945312
0, 5, 109, 725.7538452148438
0, 5, 110, 191.5888671875
0, 5, 111, 87.42379760742188
0, 5, 112, 79.76242065429688
0, 5, 113, 63.16365051269531
0, 5, 114, 62.2534065246582
0, 5, 115, 56.57867431640625
0, 5, 116, 43.8892936706543
0, 5, 117, 35.90885925292969
0, 5, 118, 39.07950973510742
0, 5, 119, 22.71885108947754
0, 5, 120, 26.7085132598877
0, 5, 121, 27.38477325439453
0, 5, 122, 25.58937835693359
0, 5, 123, 25.59000778198242
0, 5, 124, 25.18126678466797
0, 5, 125, 28.63551139831543
0, 5, 126, 20.40179443359375
0, 5, 127, 24.69756698608398
0, 6, 0, 17.04476547241211
0, 6, 1, 26.45192337036133
0, 6, 2, 29.0939826965332
0, 6, 3, 28.20135879516602
0, 6, 4, 27.99803733825684
0, 6, 5, 35.02133178710938
0, 6, 6, 30.85302734375
0, 6, 7, 32.17229080200195
0, 6, 8, 35.62009048461914
0, 6, 9, 39.13320922851562
0, 6, 10, 34.02969741821289
0, 6, 11, 40.81759262084961
0, 6, 12, 38.38709259033203
0, 6, 13, 54.52293014526367
0, 6, 14, 62.36693954467773
0, 6, 15, 80.07284545898438
0, 6, 16, 109.5657806396484
0, 6, 17, 295.5270385742188
0, 6, 18, 895.4615478515625
0, 6, 19, 1372.781982421875
0, 6, 20, 1439.7998046875
0, 6, 21, 1532.851684570312
0, 6, 22, 1501.9033203125
0, 6, 23, 1531.47705078125
0, 6, 24, 1476.440673828125
0, 6, 25, 1529.452270507812
0, 6, 26, 1519.035766601562
0, 6, 27, 1527.18017578125
0, 6, 28, 1554.090576171875
0, 6, 29, 1568.629272460938
0, 6, 30, 1514.068115234375
0, 6, 31, 1490.191284179688
0, 6, 32, 1527.533203125
0, 6, 33, 1489.071166992188
0, 6, 34, 1561.026123046875
0, 6, 35, 1500.659790039062
0, 6, 36, 1434.470581054688
0, 6, 37, 1543.400512695312
0, 6, 38, 1526.513793945312
0, 6, 39, 1523.25927734375
0, 6, 40, 1464.240112304688
0, 6, 41, 1444.70556640625
0, 6, 42, 1512.572875976562
0, 6, 43, 1489.326293945312
0, 6, 44, 1434.813354492188
0, 6, 45, 1545.49853515625
0, 6, 46, 1552.390625
0, 6, 47, 1496.435546875
0, 6, 48, 1522.60888671875
0, 6, 49, 1512.450927734375
0, 6, 50, 1573.880249023438
0, 6, 51, 1502.736572265625
0, 6, 52, 1566.456420898438
0, 6, 53, 1475.547119140625
0, 6, 54, 1502.560668945312
0, 6, 55, 1574.312133789062
0, 6, 56, 1519.432373046875
0, 6, 57, 1504.721801757812
0, 6, 58, 1469.089721679688
0, 6, 59, 1522.7880859375
0, 6, 60, 1473.739379882812
0, 6, 61, 1571.34228515625
0, 6, 62, 1546.578857421875
0, 6, 63, 1495.314331054688
0, 6, 64, 1409.623046875
0, 6, 65, 1491.52783203125
0, 6, 66, 1508.753662109375
0, 6, 67, 1510.610229492188
0, 6, 68, 1548.203857421875
0, 6, 69, 1487.884399414062
0, 6, 70, 1527.102294921875
0, 6, 71, 1473.452758789062
0, 6, 72, 1591.70166015625
0, 6, 73, 1488.788330078125
0, 6, 74, 1557.533813476562
0, 6, 75, 1538.475830078125
0, 6, 76, 1561.420532226562
0, 6, 77, 1506.51953125
0, 6, 78, 1452.139526367188
0, 6, 79, 1553.5400390625
0, 6, 80, 1484.186279296875
0, 6, 81, 1485.754028320312
0, 6, 82, 1501.292602539062
0, 6, 83, 1524.304077148438
0, 6, 84, 1519.139282226562
0, 6, 85, 1532.696655273438
0, 6, 86, 1537.470703125
0, 6, 87, 1582.332153320312
0, 6, 88, 1483.504516601562
0, 6, 89, 1566.509521484375
0, 6, 90, 1490.456420898438
0, 6, 91, 1542.127197265625
0, 6, 92, 1487.488525390625
0, 6, 93, 1497.474731445312
0, 6, 94, 1475.189697265625
0, 6, 95, 1513.888671875
0, 6, 96, 1523.030517578125
0, 6, 97, 1505.025756835938
0, 6, 98, 1495.3994140625
0, 6, 99, 1478.787841796875
0, 6, 100, 1523.93212890625
0, 6, 101, 1517.1533203125
0, 6, 102, 1541.166137695312
0, 6, 103, 1495.665405273438
0, 6, 104, 1471.5625
0, 6, 105, 1485.582153320312
0, 6, 106, 1493.641357421875
0, 6, 107, 1504.519287109375
0, 6, 108, 1408.892333984375
0, 6, 109, 922.8411865234375
0, 6, 110, 280.7912902832031
0, 6, 111, 93.54230499267578
0, 6, 112, 75.52277374267578
0, 6, 113, 59.48053359985352
0, 6, 114, 54.83946228027344
0, 6, 115, 39.10702896118164
0, 6, 116, 37.04037857055664
0, 6, 117, 36.45648574829102
0, 6, 118, 42.09603118896484
0, 6, 119, 35.77518463134766
0, 6, 120, 32.2239990234375
0, 6, 121, 28.70442390441895
0, 6, 122, 28.26625442504883
0, 6, 123, 23.18255996704102
0, 6, 124, 27.27510070800781
0, 6, 125, 33.32391738891602
0, 6, 126, 21.85284042358398
0, 6, 127, 24.39029312133789
0, 7, 0, 20.77976417541504
0, 7, 1, 27.91490936279297
0, 7, 2, 22.52987289428711
0, 7, 3, 27.37121772766113
0, 7, 4, 28.76179504394531
0, 7, 5, 34.80992889404297
0, 7, 6, 32.74783325195312
0, 7, 7, 35.46969223022461
0, 7, 8, 28.74072074890137
0, 7, 9, 42.50533294677734
0, 7, 10, 43.06166839599609
0, 7, 11, 46.26249313354492
0, 7, 12, 44.79931640625
0, 7, 13, 48.96862411499023
0, 7, 14, 61.7919807434082
0, 7, 15, 76.87014770507812
0, 7, 16, 130.5273284912109
0, 7, 17, 457.8393859863281
0, 7, 18, 1099.561401367188
0, 7, 19, 1503.312744140625
0, 7, 20, 1485.400024414062
0, 7, 21, 1365.631103515625
0, 7, 22, 1484.841186523438
0, 7, 23, 1452.8935546875
0, 7, 24, 1507.334838867188
0, 7, 25, 1596.0341796875
0, 7, 26, 1515.555297851562
0, 7, 27, 1509.946411132812
0, 7, 28, 1544.780395507812
0, 7, 29, 1571.486450195312
0, 7, 30, 1547.14306640625
0, 7, 31, 1436.483032226562
0, 7, 32, 1542.63818359375
0, 7, 33, 1497.0185546875
0, 7, 34, 1478.0791015625
0, 7, 35, 1523.746337890625
0, 7, 36, 1478.398315429688
0, 7, 37, 1601.408203125
0, 7, 38, 1499.506103515625
0, 7, 39, 1485.09619140625
0, 7, 40, 1542.915161132812
0, 7, 41, 1465.22216796875
0, 7, 42, 1484.441040039062
0, 7, 43, 1447.250366210938
0, 7, 44, 1484.864990234375
0, 7, 45, 1469.2099609375
0, 7, 46, 1509.509521484375
0, 7, 47, 1562.610595703125
0, 7, 48, 1521.28125
0, 7, 49, 1539.060302734375
0, 7, 50, 1514.349365234375
0, 7, 51, 1503.066284179688
0, 7, 52, 1516.97802734375
0, 7, 53, 1490.3623046875
0, 7, 54, 1586.475463867188
0, 7, 55, 1470.092163085938
0, 7, 56, 1548.025756835938
0, 7, 57, 1512.916381835938
0, 7, 58, 1548.08984375
0, 7, 59, 1539.690063476562
0, 7, 60, 1549.784790039062
0, 7, 61, 1490.5576171875
0, 7, 62, 1435.870727539062
0, 7, 63, 1517.230224609375
0, 7, 64, 1552.805419921875
0, 7, 65, 1524.239868164062
0, 7, 66, 1541.517944335938
0, 7, 67, 1581.98388671875
0, 7, 68, 1527.498413085938
0, 7, 69, 1510.161499023438
0, 7, 70, 1496.42724609375
0, 7, 71, 1524.167114257812
0, 7, 72, 1526.415771484375
0, 7, 73, 1517.234130859375
0, 7, 74, 1572.985473632812
0, 7, 75, 1536.221801757812
0, 7, 76, 1556.3408203125
0, 7, 77, 1513.962524414062
0, 7, 78, 1508.114501953125
0, 7, 79, 1426.932495117188
0, 7, 80, 1487.58251953125
0, 7, 81, 1494.802490234375
0, 7, 82, 1532.724365234375
0, 7, 83, 1541.659790039062
0, 7, 84, 1590.011352539062
0, 7, 85, 1478.474609375
0, 7, 86, 1502.73779296875
0, 7, 87, 1508.398559570312
0, 7, 88, 1497.584106445312
0, 7, 89, 1553.631103515625
0, 7, 90, 1520.119140625
0, 7, 91, 1561.191284179688
0, 7, 92, 1526.935791015625
0, 7, 93, 1553.820434570312
0, 7, 94, 1536.806396484375
0, 7, 95, 1506.986083984375
0, 7, 96, 1502.804809570312
0, 7, 97, 1431.699951171875
0, 7, 98, 1487.759155273438
0, 7, 99, 1528.3466796875
0, 7, 100, 1421.344482421875
0, 7, 101, 1464.894653320312
0, 7, 102, 1447.550170898438
0, 7, 103, 1430.223876953125
0, 7, 104, 1493.680053710938
0, 7, 105, 1528.551635742188
0, 7, 106, 1565.4345703125
0, 7, 107, 1482.212768554688
0, 7, 108, 1410.464233398438
0, 7, 109, 1144.566040039062
0, 7, 110, 470.462158203125
0, 7, 111, 125.9726181030273
0, 7, 112, 79.44268798828125
0, 7, 113, 71.72427368164062
0, 7, 114, 62.7856559753418
0, 7, 115, 50.40453720092773
0, 7, 116, 44.50340270996094
0, 7, 117, 39.94161987304688
0, 7, 118, 39.15521240234375
0, 7, 119, 33.81824493408203
0, 7, 120, 23.42486381530762
0, 7, 121, 29.13045883178711
0, 7, 122, 35.15918731689453
0, 7, 123, 33.23007202148438
0, 7, 124, 33.44466781616211
0, 7, 125, 23.92509651184082
0, 7, 126, 24.03729438781738
0, 7, 127, 22.90408515930176
0, 8, 0, 19.99821090698242
0, 8, 1, 22.51104736328125
0, 8, 2, 22.00131225585938
0, 8, 3, 29.28129005432129
0, 8, 4, 24.87739372253418
0, 8, 5, 38.69060516357422
0, 8, 6, 31.80364418029785
0, 8, 7, 24.36138343811035
0, 8, 8, 38.88916015625
0, 8, 9, 46.04827880859375
0, 8, 10, 45.32420349121094
0, 8, 11, 38.80851364135742
0, 8, 12, 56.79254531860352
0, 8, 13, 70.69547271728516
0, 8, 14, 67.48181915283203
0, 8, 15, 85.88123321533203
0, 8, 16, 167.3373565673828
0, 8, 17, 676.567138671875
0, 8, 18, 1277.304809570312
0, 8, 19, 1451.09765625
0, 8, 20, 1421.48779296875
0, 8, 21, 1406.097290039062
0, 8, 22, 1486.488403320312
0, 8, 23, 1481.39599609375
0, 8, 24, 1438.820068359375
0, 8, 25, 1453.344970703125
0, 8, 26, 1516.546875
0, 8, 27, 1522.251220703125
0, 8, 28, 1477.358276367188
0, 8, 29, 1500.949340820312
0, 8, 30, 1489.75732421875
0, 8, 31, 1534.376220703125
0, 8, 32, 1508.438842773438
0, 8, 33, 1483.945190429688
0, 8, 34, 1536.333251953125
0, 8, 35, 1442.696166992188
0, 8, 36, 1493.88330078125
0, 8, 37, 1558.531860351562
0, 8, 38, 1557.194946289062
0, 8, 39, 1490.7705078125
0, 8, 40, 1532.027954101562
0, 8, 41, 1480.933715820312
0, 8, 42, 1534.918579101562
0, 8, 43, 1431.443359375
0, 8, 44, 1536.914916992188
0, 8, 45, 1513.083984375
0, 8, 46, 1598.53125
0, 8, 47, 1586.859741210938
0, 8, 48, 1545.218627929688
0, 8, 49, 1574.68359375
0, 8, 50, 1512.22998046875
