# TOPAS Version: 3.1.p3
# Parameter File: batch_inserts_326.txt
# Results for scorer Readout_Adipose
# Scored in component: MyBox
# X in 1 bin  of 0.75 cm
# Y in 512 bins of 0.0783984 cm
# Z in 128 bins of 0.078125 cm
# EnergyDeposit ( MeV ) : Sum   
0, 0, 0, 3.208893299102783
0, 0, 1, 2.180570602416992
0, 0, 2, 3.622288227081299
0, 0, 3, 1.633284449577332
0, 0, 4, 3.315447330474854
0, 0, 5, 2.981760263442993
0, 0, 6, 6.028522968292236
0, 0, 7, 8.69598388671875
0, 0, 8, 3.394329309463501
0, 0, 9, 5.853100299835205
0, 0, 10, 11.39529514312744
0, 0, 11, 5.772822856903076
0, 0, 12, 4.17939567565918
0, 0, 13, 5.185689449310303
0, 0, 14, 7.319187641143799
0, 0, 15, 10.17457580566406
0, 0, 16, 9.89869499206543
0, 0, 17, 8.028279304504395
0, 0, 18, 13.07122993469238
0, 0, 19, 43.34923553466797
0, 0, 20, 138.6551818847656
0, 0, 21, 222.5104370117188
0, 0, 22, 248.6897430419922
0, 0, 23, 255.8506469726562
0, 0, 24, 250.2518615722656
0, 0, 25, 261.5153503417969
0, 0, 26, 235.2393188476562
0, 0, 27, 237.0848388671875
0, 0, 28, 271.7683715820312
0, 0, 29, 251.5144195556641
0, 0, 30, 233.0263214111328
0, 0, 31, 244.2899169921875
0, 0, 32, 263.935302734375
0, 0, 33, 261.2505798339844
0, 0, 34, 288.7476196289062
0, 0, 35, 269.5279846191406
0, 0, 36, 246.75
0, 0, 37, 251.9710083007812
0, 0, 38, 269.7888793945312
0, 0, 39, 229.0892486572266
0, 0, 40, 240.4469299316406
0, 0, 41, 267.1726379394531
0, 0, 42, 228.4283294677734
0, 0, 43, 259.8035888671875
0, 0, 44, 252.1709899902344
0, 0, 45, 252.9121398925781
0, 0, 46, 246.4061584472656
0, 0, 47, 252.966064453125
0, 0, 48, 267.9903564453125
0, 0, 49, 275.7254028320312
0, 0, 50, 252.3059234619141
0, 0, 51, 254.599365234375
0, 0, 52, 273.1210632324219
0, 0, 53, 293.7472229003906
0, 0, 54, 242.9223022460938
0, 0, 55, 240.6062316894531
0, 0, 56, 277.1079406738281
0, 0, 57, 262.7144165039062
0, 0, 58, 249.2031860351562
0, 0, 59, 271.174560546875
0, 0, 60, 235.7685546875
0, 0, 61, 245.3834075927734
0, 0, 62, 256.6285095214844
0, 0, 63, 267.3951110839844
0, 0, 64, 257.8947143554688
0, 0, 65, 262.4347534179688
0, 0, 66, 275.8139953613281
0, 0, 67, 247.011474609375
0, 0, 68, 258.3303527832031
0, 0, 69, 262.3468933105469
0, 0, 70, 273.5010070800781
0, 0, 71, 237.2630920410156
0, 0, 72, 250.6794891357422
0, 0, 73, 256.571533203125
0, 0, 74, 251.4102783203125
0, 0, 75, 238.9920806884766
0, 0, 76, 228.712158203125
0, 0, 77, 259.6946105957031
0, 0, 78, 256.2767028808594
0, 0, 79, 280.1507263183594
0, 0, 80, 216.7015380859375
0, 0, 81, 267.5127563476562
0, 0, 82, 256.4280090332031
0, 0, 83, 246.1820678710938
0, 0, 84, 270.6523132324219
0, 0, 85, 232.0713500976562
0, 0, 86, 254.0838317871094
0, 0, 87, 251.3318939208984
0, 0, 88, 259.6018981933594
0, 0, 89, 282.2365417480469
0, 0, 90, 245.1117553710938
0, 0, 91, 280.2012634277344
0, 0, 92, 251.5415191650391
0, 0, 93, 249.7031707763672
0, 0, 94, 247.3452301025391
0, 0, 95, 249.388916015625
0, 0, 96, 273.9280090332031
0, 0, 97, 273.2698974609375
0, 0, 98, 271.5944213867188
0, 0, 99, 259.41357421875
0, 0, 100, 258.783203125
0, 0, 101, 226.3304138183594
0, 0, 102, 230.5480194091797
0, 0, 103, 271.6564331054688
0, 0, 104, 254.474609375
0, 0, 105, 250.981201171875
0, 0, 106, 245.8133239746094
0, 0, 107, 152.3190460205078
0, 0, 108, 37.78907775878906
0, 0, 109, 13.23264789581299
0, 0, 110, 13.14419460296631
0, 0, 111, 8.42149543762207
0, 0, 112, 7.302009582519531
0, 0, 113, 5.520628929138184
0, 0, 114, 5.6337571144104
0, 0, 115, 4.735730648040771
0, 0, 116, 6.888485431671143
0, 0, 117, 7.228538990020752
0, 0, 118, 8.221750259399414
0, 0, 119, 6.988839149475098
0, 0, 120, 7.361965656280518
0, 0, 121, 3.172338485717773
0, 0, 122, 7.185245990753174
0, 0, 123, 2.730372905731201
0, 0, 124, 4.511106491088867
0, 0, 125, 1.478022336959839
0, 0, 126, 3.964970111846924
0, 0, 127, 4.17587947845459
0, 1, 0, 7.304529190063477
0, 1, 1, 3.132114171981812
0, 1, 2, 4.47345495223999
0, 1, 3, 4.426266670227051
0, 1, 4, 3.461513757705688
0, 1, 5, 3.109385013580322
0, 1, 6, 3.55636739730835
0, 1, 7, 4.045901775360107
0, 1, 8, 8.302057266235352
0, 1, 9, 6.715632438659668
0, 1, 10, 6.514261245727539
0, 1, 11, 10.73441696166992
0, 1, 12, 8.333136558532715
0, 1, 13, 10.07743740081787
0, 1, 14, 7.990764141082764
0, 1, 15, 7.626265048980713
0, 1, 16, 11.05283355712891
0, 1, 17, 14.58361911773682
0, 1, 18, 19.76418304443359
0, 1, 19, 65.56324768066406
0, 1, 20, 198.2841491699219
0, 1, 21, 257.6092529296875
0, 1, 22, 296.3999633789062
0, 1, 23, 283.8019409179688
0, 1, 24, 274.6325988769531
0, 1, 25, 287.6515502929688
0, 1, 26, 267.6327514648438
0, 1, 27, 308.6077270507812
0, 1, 28, 301.2143859863281
0, 1, 29, 296.8825073242188
0, 1, 30, 283.2543334960938
0, 1, 31, 291.8917846679688
0, 1, 32, 290.1808166503906
0, 1, 33, 297.4781799316406
0, 1, 34, 293.3614501953125
0, 1, 35, 279.7398986816406
0, 1, 36, 307.2814636230469
0, 1, 37, 297.7913208007812
0, 1, 38, 277.80224609375
0, 1, 39, 295.2819213867188
0, 1, 40, 266.6644592285156
0, 1, 41, 286.12939453125
0, 1, 42, 290.7015380859375
0, 1, 43, 331.8180847167969
0, 1, 44, 278.5454711914062
0, 1, 45, 292.2075500488281
0, 1, 46, 260.0076904296875
0, 1, 47, 312.7459716796875
0, 1, 48, 282.6074523925781
0, 1, 49, 303.4793090820312
0, 1, 50, 264.5451354980469
0, 1, 51, 271.2762145996094
0, 1, 52, 295.813720703125
0, 1, 53, 308.2236938476562
0, 1, 54, 276.6925659179688
0, 1, 55, 294.4948425292969
0, 1, 56, 276.6609497070312
0, 1, 57, 298.4612731933594
0, 1, 58, 309.2611694335938
0, 1, 59, 292.371826171875
0, 1, 60, 297.2645874023438
0, 1, 61, 273.2448120117188
0, 1, 62, 307.6953735351562
0, 1, 63, 285.0850219726562
0, 1, 64, 289.9669494628906
0, 1, 65, 299.0613403320312
0, 1, 66, 291.9167785644531
0, 1, 67, 291.7428588867188
0, 1, 68, 278.5786437988281
0, 1, 69, 280.2912902832031
0, 1, 70, 271.9892578125
0, 1, 71, 274.6971130371094
0, 1, 72, 287.9385986328125
0, 1, 73, 305.7627258300781
0, 1, 74, 303.9631958007812
0, 1, 75, 290.4348754882812
0, 1, 76, 283.7188720703125
0, 1, 77, 290.9998779296875
0, 1, 78, 297.89892578125
0, 1, 79, 301.0121459960938
0, 1, 80, 296.2861022949219
0, 1, 81, 300.5674743652344
0, 1, 82, 282.20849609375
0, 1, 83, 330.9971313476562
0, 1, 84, 308.1633911132812
0, 1, 85, 253.8728485107422
0, 1, 86, 295.4104614257812
0, 1, 87, 291.3192138671875
0, 1, 88, 298.1361389160156
0, 1, 89, 288.7503051757812
0, 1, 90, 270.2453308105469
0, 1, 91, 316.4346313476562
0, 1, 92, 292.580322265625
0, 1, 93, 286.0547485351562
0, 1, 94, 303.218994140625
0, 1, 95, 286.8501892089844
0, 1, 96, 282.7599792480469
0, 1, 97, 300.8467102050781
0, 1, 98, 277.3841857910156
0, 1, 99, 265.64501953125
0, 1, 100, 277.5357971191406
0, 1, 101, 281.5909729003906
0, 1, 102, 278.1324462890625
0, 1, 103, 282.2518920898438
0, 1, 104, 306.4972839355469
0, 1, 105, 297.4978332519531
0, 1, 106, 262.5065612792969
0, 1, 107, 194.8860778808594
0, 1, 108, 82.3740234375
0, 1, 109, 23.46427536010742
0, 1, 110, 10.88158321380615
0, 1, 111, 7.961418628692627
0, 1, 112, 11.33721923828125
0, 1, 113, 5.063916206359863
0, 1, 114, 8.182727813720703
0, 1, 115, 6.927007675170898
0, 1, 116, 12.59655666351318
0, 1, 117, 6.76288890838623
0, 1, 118, 5.027323246002197
0, 1, 119, 9.410374641418457
0, 1, 120, 4.034524917602539
0, 1, 121, 3.21790885925293
0, 1, 122, 4.247420310974121
0, 1, 123, 5.059191703796387
0, 1, 124, 8.368332862854004
0, 1, 125, 4.151775360107422
0, 1, 126, 3.211492776870728
0, 1, 127, 3.67629075050354
0, 2, 0, 6.211945056915283
0, 2, 1, 2.513260841369629
0, 2, 2, 4.203987598419189
0, 2, 3, 3.596085071563721
0, 2, 4, 3.68079662322998
0, 2, 5, 1.098235130310059
0, 2, 6, 2.102794170379639
0, 2, 7, 3.453006744384766
0, 2, 8, 4.889905452728271
0, 2, 9, 7.091293334960938
0, 2, 10, 8.931617736816406
0, 2, 11, 5.898748874664307
0, 2, 12, 6.931728839874268
0, 2, 13, 9.351289749145508
0, 2, 14, 11.11261177062988
0, 2, 15, 7.354117870330811
0, 2, 16, 13.79502010345459
0, 2, 17, 17.66133308410645
0, 2, 18, 30.90377044677734
0, 2, 19, 119.9603805541992
0, 2, 20, 247.8889617919922
0, 2, 21, 270.5082397460938
0, 2, 22, 314.8849792480469
0, 2, 23, 300.6426391601562
0, 2, 24, 287.9509582519531
0, 2, 25, 302.5903015136719
0, 2, 26, 292.870361328125
0, 2, 27, 275.2205200195312
0, 2, 28, 270.9765930175781
0, 2, 29, 273.6651611328125
0, 2, 30, 290.7715148925781
0, 2, 31, 277.7216491699219
0, 2, 32, 295.3749084472656
0, 2, 33, 284.8666381835938
0, 2, 34, 330.7547912597656
0, 2, 35, 289.032470703125
0, 2, 36, 306.2499694824219
0, 2, 37, 316.4931335449219
0, 2, 38, 311.4501953125
0, 2, 39, 265.2297058105469
0, 2, 40, 308.2435607910156
0, 2, 41, 292.5973205566406
0, 2, 42, 302.0809020996094
0, 2, 43, 312.3639831542969
0, 2, 44, 311.1273498535156
0, 2, 45, 324.363037109375
0, 2, 46, 288.099609375
0, 2, 47, 302.8540649414062
0, 2, 48, 282.6515808105469
0, 2, 49, 278.7232360839844
0, 2, 50, 293.6676330566406
0, 2, 51, 285.5447692871094
0, 2, 52, 271.2260437011719
0, 2, 53, 288.0198974609375
0, 2, 54, 280.4201049804688
0, 2, 55, 273.3726196289062
0, 2, 56, 301.9526062011719
0, 2, 57, 292.0837707519531
0, 2, 58, 302.724365234375
0, 2, 59, 288.4687194824219
0, 2, 60, 320.5568542480469
0, 2, 61, 301.392578125
0, 2, 62, 315.5537414550781
0, 2, 63, 301.6844177246094
0, 2, 64, 296.8464050292969
0, 2, 65, 314.4886779785156
0, 2, 66, 279.1206970214844
0, 2, 67, 289.6287841796875
0, 2, 68, 295.9858093261719
0, 2, 69, 310.8131103515625
0, 2, 70, 332.4295043945312
0, 2, 71, 285.7157897949219
0, 2, 72, 301.7691650390625
0, 2, 73, 311.7832641601562
0, 2, 74, 284.2477722167969
0, 2, 75, 303.5755920410156
0, 2, 76, 286.7121887207031
0, 2, 77, 299.9051513671875
0, 2, 78, 313.6262512207031
0, 2, 79, 309.1800231933594
0, 2, 80, 296.4464111328125
0, 2, 81, 281.3931884765625
0, 2, 82, 319.2245483398438
0, 2, 83, 312.0452575683594
0, 2, 84, 288.0293273925781
0, 2, 85, 280.7378845214844
0, 2, 86, 325.5471496582031
0, 2, 87, 286.4522399902344
0, 2, 88, 281.8852233886719
0, 2, 89, 294.8795471191406
0, 2, 90, 297.2983093261719
0, 2, 91, 275.2563171386719
0, 2, 92, 306.4873352050781
0, 2, 93, 316.06005859375
0, 2, 94, 292.4448852539062
0, 2, 95, 313.8424072265625
0, 2, 96, 317.2518310546875
0, 2, 97, 290.903564453125
0, 2, 98, 295.0804443359375
0, 2, 99, 273.51953125
0, 2, 100, 305.0664367675781
0, 2, 101, 300.6024475097656
0, 2, 102, 296.6495361328125
0, 2, 103, 291.2742309570312
0, 2, 104, 292.3675842285156
0, 2, 105, 273.9642028808594
0, 2, 106, 294.9014892578125
0, 2, 107, 268.8517456054688
0, 2, 108, 117.2160415649414
0, 2, 109, 33.55617523193359
0, 2, 110, 9.72048282623291
0, 2, 111, 10.92345809936523
0, 2, 112, 8.516830444335938
0, 2, 113, 9.597324371337891
0, 2, 114, 8.716700553894043
0, 2, 115, 9.858250617980957
0, 2, 116, 7.724256992340088
0, 2, 117, 5.762181282043457
0, 2, 118, 4.026590824127197
0, 2, 119, 4.494340896606445
0, 2, 120, 5.646093368530273
0, 2, 121, 3.528924465179443
0, 2, 122, 4.382203578948975
0, 2, 123, 5.271245002746582
0, 2, 124, 2.275940895080566
0, 2, 125, 4.336391925811768
0, 2, 126, 2.572028398513794
0, 2, 127, 4.641763687133789
0, 3, 0, 3.65334677696228
0, 3, 1, 3.270828723907471
0, 3, 2, 2.5021812915802
0, 3, 3, 1.732752919197083
0, 3, 4, 4.373641967773438
0, 3, 5, 8.295119285583496
0, 3, 6, 6.812204360961914
0, 3, 7, 4.625166416168213
0, 3, 8, 6.393707275390625
0, 3, 9, 4.790383815765381
0, 3, 10, 7.366580009460449
0, 3, 11, 3.054528474807739
0, 3, 12, 6.404498100280762
0, 3, 13, 15.06031703948975
0, 3, 14, 10.89203643798828
0, 3, 15, 13.30921268463135
0, 3, 16, 11.66970920562744
0, 3, 17, 18.17185592651367
0, 3, 18, 53.92015075683594
0, 3, 19, 174.3710327148438
0, 3, 20, 270.1001281738281
0, 3, 21, 270.4989624023438
0, 3, 22, 281.7560119628906
0, 3, 23, 285.5747375488281
0, 3, 24, 289.6945495605469
0, 3, 25, 278.5460205078125
0, 3, 26, 303.7044982910156
0, 3, 27, 291.1349792480469
0, 3, 28, 281.2632446289062
0, 3, 29, 338.9904174804688
0, 3, 30, 315.2965393066406
0, 3, 31, 285.7280883789062
0, 3, 32, 305.0124206542969
0, 3, 33, 313.8746948242188
0, 3, 34, 320.6900939941406
0, 3, 35, 306.8255615234375
0, 3, 36, 272.8453979492188
0, 3, 37, 312.5658569335938
0, 3, 38, 302.9170532226562
0, 3, 39, 291.7584838867188
0, 3, 40, 269.6732177734375
0, 3, 41, 299.7461853027344
0, 3, 42, 284.5179443359375
0, 3, 43, 306.3631896972656
0, 3, 44, 312.669189453125
0, 3, 45, 290.2633056640625
0, 3, 46, 327.3876037597656
0, 3, 47, 299.6193542480469
0, 3, 48, 302.8174743652344
0, 3, 49, 275.5027770996094
0, 3, 50, 289.1264343261719
0, 3, 51, 274.8125305175781
0, 3, 52, 316.3971252441406
0, 3, 53, 286.85009765625
0, 3, 54, 283.3470458984375
0, 3, 55, 284.3786010742188
0, 3, 56, 302.2027282714844
0, 3, 57, 287.3653869628906
0, 3, 58, 307.9731140136719
0, 3, 59, 296.6408996582031
0, 3, 60, 298.4879455566406
0, 3, 61, 264.3189086914062
0, 3, 62, 286.0639953613281
0, 3, 63, 305.4358520507812
0, 3, 64, 316.625732421875
0, 3, 65, 307.1374206542969
0, 3, 66, 314.7716369628906
0, 3, 67, 318.6671142578125
0, 3, 68, 281.8026428222656
0, 3, 69, 283.8144226074219
0, 3, 70, 286.8973388671875
0, 3, 71, 301.0238952636719
0, 3, 72, 271.7245483398438
0, 3, 73, 307.3530578613281
0, 3, 74, 292.2953186035156
0, 3, 75, 288.6368103027344
0, 3, 76, 305.3477172851562
0, 3, 77, 311.8344116210938
0, 3, 78, 303.7149963378906
0, 3, 79, 281.987060546875
0, 3, 80, 289.9252624511719
0, 3, 81, 311.0546875
0, 3, 82, 317.0870056152344
0, 3, 83, 302.7409057617188
0, 3, 84, 313.1184692382812
0, 3, 85, 295.4049072265625
0, 3, 86, 304.2784729003906
0, 3, 87, 299.8774108886719
0, 3, 88, 299.6612243652344
0, 3, 89, 296.5527648925781
0, 3, 90, 277.0904541015625
0, 3, 91, 287.6679382324219
0, 3, 92, 302.3547973632812
0, 3, 93, 312.6390380859375
0, 3, 94, 298.0976257324219
0, 3, 95, 335.4372863769531
0, 3, 96, 289.405517578125
0, 3, 97, 281.932373046875
0, 3, 98, 277.2077331542969
0, 3, 99, 263.8295288085938
0, 3, 100, 286.3585815429688
0, 3, 101, 297.583251953125
0, 3, 102, 275.2691955566406
0, 3, 103, 319.9605102539062
0, 3, 104, 307.9416198730469
0, 3, 105, 288.2989807128906
0, 3, 106, 301.7972412109375
0, 3, 107, 280.6706237792969
0, 3, 108, 172.6545257568359
0, 3, 109, 59.28163146972656
0, 3, 110, 17.08518600463867
0, 3, 111, 12.20727157592773
0, 3, 112, 11.4827356338501
0, 3, 113, 8.317934989929199
0, 3, 114, 10.62661266326904
0, 3, 115, 7.672377586364746
0, 3, 116, 5.191639423370361
0, 3, 117, 8.034140586853027
0, 3, 118, 8.37641429901123
0, 3, 119, 6.401554584503174
0, 3, 120, 6.143593788146973
0, 3, 121, 3.473780393600464
0, 3, 122, 4.869821071624756
0, 3, 123, 4.492270469665527
0, 3, 124, 3.128753185272217
0, 3, 125, 5.331843852996826
0, 3, 126, 5.279642105102539
0, 3, 127, 2.033327341079712
0, 4, 0, 2.186821460723877
0, 4, 1, 4.843844890594482
0, 4, 2, 2.83241605758667
0, 4, 3, 1.525568604469299
0, 4, 4, 5.817276000976562
0, 4, 5, 9.958719253540039
0, 4, 6, 7.19438362121582
0, 4, 7, 5.619706153869629
0, 4, 8, 4.864211082458496
0, 4, 9, 5.508974075317383
0, 4, 10, 5.999124526977539
0, 4, 11, 6.719693660736084
0, 4, 12, 9.957740783691406
0, 4, 13, 8.84282398223877
0, 4, 14, 14.16446876525879
0, 4, 15, 9.137795448303223
0, 4, 16, 12.7843542098999
0, 4, 17, 17.70896911621094
0, 4, 18, 91.72553253173828
0, 4, 19, 220.7281494140625
0, 4, 20, 285.410400390625
0, 4, 21, 273.2087707519531
0, 4, 22, 303.5209655761719
0, 4, 23, 266.4891357421875
0, 4, 24, 289.2092590332031
0, 4, 25, 272.7798156738281
0, 4, 26, 296.9087219238281
0, 4, 27, 281.25732421875
0, 4, 28, 308.3812561035156
0, 4, 29, 322.0446166992188
0, 4, 30, 311.556640625
0, 4, 31, 303.7118530273438
0, 4, 32, 281.0853576660156
0, 4, 33, 295.6593322753906
0, 4, 34, 296.0157165527344
0, 4, 35, 313.8643188476562
0, 4, 36, 292.5724487304688
0, 4, 37, 285.933837890625
0, 4, 38, 299.0222778320312
0, 4, 39, 294.015625
0, 4, 40, 300.5391540527344
0, 4, 41, 312.5510559082031
0, 4, 42, 328.0003051757812
0, 4, 43, 294.9759826660156
0, 4, 44, 319.8275756835938
0, 4, 45, 325.1285095214844
0, 4, 46, 305.7033386230469
0, 4, 47, 292.0964660644531
0, 4, 48, 297.3348693847656
0, 4, 49, 277.4052734375
0, 4, 50, 296.5042114257812
0, 4, 51, 318.1085205078125
0, 4, 52, 326.3102111816406
0, 4, 53, 304.5852661132812
0, 4, 54, 287.0566101074219
0, 4, 55, 316.3179931640625
0, 4, 56, 284.6323852539062
0, 4, 57, 309.4244995117188
0, 4, 58, 296.0974731445312
0, 4, 59, 308.9465637207031
0, 4, 60, 303.0677490234375
0, 4, 61, 314.4044799804688
0, 4, 62, 308.6315307617188
0, 4, 63, 301.2060241699219
0, 4, 64, 329.4762268066406
0, 4, 65, 315.7766723632812
0, 4, 66, 294.455078125
0, 4, 67, 285.7768859863281
0, 4, 68, 312.8019104003906
0, 4, 69, 276.2920532226562
0, 4, 70, 301.5687255859375
0, 4, 71, 321.9341430664062
0, 4, 72, 331.8560485839844
0, 4, 73, 298.2035522460938
0, 4, 74, 295.7781372070312
0, 4, 75, 289.9139709472656
0, 4, 76, 277.1681823730469
0, 4, 77, 278.5090942382812
0, 4, 78, 313.7588500976562
0, 4, 79, 320.7518615722656
0, 4, 80, 314.7445373535156
0, 4, 81, 311.3590393066406
0, 4, 82, 297.520751953125
0, 4, 83, 300.6249389648438
0, 4, 84, 290.6004638671875
0, 4, 85, 295.5059814453125
0, 4, 86, 297.0359497070312
0, 4, 87, 285.7339172363281
0, 4, 88, 303.9379272460938
0, 4, 89, 294.9086608886719
0, 4, 90, 332.01806640625
0, 4, 91, 300.6476440429688
0, 4, 92, 288.11865234375
0, 4, 93, 295.687255859375
0, 4, 94, 294.0155029296875
0, 4, 95, 290.1896362304688
0, 4, 96, 327.7508544921875
0, 4, 97, 273.5819091796875
0, 4, 98, 327.5844116210938
0, 4, 99, 312.7557678222656
0, 4, 100, 300.1545104980469
0, 4, 101, 257.3226623535156
0, 4, 102, 296.6595458984375
0, 4, 103, 318.8562927246094
0, 4, 104, 279.8317565917969
0, 4, 105, 311.0021667480469
0, 4, 106, 286.8102722167969
0, 4, 107, 297.1508178710938
0, 4, 108, 224.8390655517578
0, 4, 109, 79.17709350585938
0, 4, 110, 15.52644538879395
0, 4, 111, 12.98835849761963
0, 4, 112, 8.246480941772461
0, 4, 113, 10.05375194549561
0, 4, 114, 7.731231689453125
0, 4, 115, 10.44122409820557
0, 4, 116, 11.43356800079346
0, 4, 117, 6.891118049621582
0, 4, 118, 9.948676109313965
0, 4, 119, 10.65166187286377
0, 4, 120, 4.88992166519165
0, 4, 121, 5.412098407745361
0, 4, 122, 5.588089942932129
0, 4, 123, 7.275752544403076
0, 4, 124, 6.890615463256836
0, 4, 125, 9.383795738220215
0, 4, 126, 5.697042465209961
0, 4, 127, 4.030108451843262
0, 5, 0, 5.121562957763672
0, 5, 1, 4.249532699584961
0, 5, 2, 5.589004516601562
0, 5, 3, 5.947604656219482
0, 5, 4, 5.14342737197876
0, 5, 5, 5.310874938964844
0, 5, 6, 9.271757125854492
0, 5, 7, 3.261633396148682
0, 5, 8, 4.889685153961182
0, 5, 9, 5.668052673339844
0, 5, 10, 11.91789150238037
0, 5, 11, 9.804616928100586
0, 5, 12, 8.926551818847656
0, 5, 13, 5.468519687652588
0, 5, 14, 17.65546417236328
0, 5, 15, 18.12451553344727
0, 5, 16, 16.04054832458496
0, 5, 17, 30.88471603393555
0, 5, 18, 139.3122711181641
0, 5, 19, 287.189208984375
0, 5, 20, 307.9576416015625
0, 5, 21, 316.0296936035156
0, 5, 22, 276.0068054199219
0, 5, 23, 310.4239196777344
0, 5, 24, 300.7354431152344
0, 5, 25, 288.9296875
0, 5, 26, 294.1015930175781
0, 5, 27, 320.8568725585938
0, 5, 28, 301.4762573242188
0, 5, 29, 296.557373046875
0, 5, 30, 324.607666015625
0, 5, 31, 286.3680419921875
0, 5, 32, 303.0299072265625
0, 5, 33, 303.36669921875
0, 5, 34, 295.096435546875
0, 5, 35, 310.4545288085938
0, 5, 36, 270.5458374023438
0, 5, 37, 283.3810729980469
0, 5, 38, 293.0265808105469
0, 5, 39, 312.8432312011719
0, 5, 40, 308.277099609375
0, 5, 41, 272.6319274902344
0, 5, 42, 304.7102661132812
0, 5, 43, 315.9609985351562
0, 5, 44, 291.4990539550781
0, 5, 45, 302.5027465820312
0, 5, 46, 265.2755737304688
0, 5, 47, 281.6243286132812
0, 5, 48, 294.5643920898438
0, 5, 49, 285.9537963867188
0, 5, 50, 295.1297302246094
0, 5, 51, 278.8863525390625
0, 5, 52, 269.9939880371094
0, 5, 53, 286.0952453613281
0, 5, 54, 294.3314208984375
0, 5, 55, 345.6979675292969
0, 5, 56, 305.8870239257812
0, 5, 57, 309.2564697265625
0, 5, 58, 311.9056396484375
0, 5, 59, 303.3344116210938
0, 5, 60, 307.4009704589844
0, 5, 61, 280.7399291992188
0, 5, 62, 325.6898803710938
0, 5, 63, 290.3255920410156
0, 5, 64, 321.5921936035156
0, 5, 65, 309.2785949707031
0, 5, 66, 326.7090148925781
0, 5, 67, 312.8023986816406
0, 5, 68, 305.578369140625
0, 5, 69, 311.5890197753906
0, 5, 70, 301.4149475097656
0, 5, 71, 272.911376953125
0, 5, 72, 310.8247985839844
0, 5, 73, 304.2073059082031
0, 5, 74, 295.2743835449219
0, 5, 75, 293.7590942382812
0, 5, 76, 287.9777526855469
0, 5, 77, 301.7008056640625
0, 5, 78, 315.5880126953125
0, 5, 79, 305.63134765625
0, 5, 80, 296.2197265625
0, 5, 81, 325.9753723144531
0, 5, 82, 325.2492065429688
0, 5, 83, 281.806884765625
0, 5, 84, 299.2598571777344
0, 5, 85, 271.5128173828125
0, 5, 86, 323.9834594726562
0, 5, 87, 284.7023620605469
0, 5, 88, 313.6292114257812
0, 5, 89, 303.3302612304688
0, 5, 90, 314.6884460449219
0, 5, 91, 314.1935424804688
0, 5, 92, 296.560302734375
0, 5, 93, 323.2338256835938
0, 5, 94, 309.8199157714844
0, 5, 95, 298.4134521484375
0, 5, 96, 299.663330078125
0, 5, 97, 297.1876220703125
0, 5, 98, 316.5916748046875
0, 5, 99, 301.5505065917969
0, 5, 100, 290.4610595703125
0, 5, 101, 307.4948425292969
0, 5, 102, 292.0964965820312
0, 5, 103, 314.2327880859375
0, 5, 104, 304.5016174316406
0, 5, 105, 293.25
0, 5, 106, 281.0063171386719
0, 5, 107, 294.1807861328125
0, 5, 108, 264.3403625488281
0, 5, 109, 158.7440032958984
0, 5, 110, 41.49167251586914
0, 5, 111, 21.84772109985352
0, 5, 112, 18.14632034301758
0, 5, 113, 12.14927673339844
0, 5, 114, 12.03213119506836
0, 5, 115, 8.673388481140137
0, 5, 116, 7.495590686798096
0, 5, 117, 5.103408813476562
0, 5, 118, 11.49816226959229
0, 5, 119, 5.584056854248047
0, 5, 120, 4.80631685256958
0, 5, 121, 5.728521347045898
0, 5, 122, 4.89559268951416
0, 5, 123, 6.618725776672363
0, 5, 124, 6.485728740692139
0, 5, 125, 3.730438709259033
0, 5, 126, 6.779032707214355
0, 5, 127, 3.288242816925049
0, 6, 0, 3.771534204483032
0, 6, 1, 1.939955234527588
0, 6, 2, 4.194120407104492
0, 6, 3, 7.728860378265381
0, 6, 4, 3.320998668670654
0, 6, 5, 6.588278293609619
0, 6, 6, 7.596107482910156
0, 6, 7, 5.793001651763916
0, 6, 8, 7.647576808929443
0, 6, 9, 6.714344024658203
0, 6, 10, 8.082438468933105
0, 6, 11, 7.17082691192627
0, 6, 12, 9.101261138916016
0, 6, 13, 10.70725917816162
0, 6, 14, 9.355694770812988
0, 6, 15, 16.72418785095215
0, 6, 16, 28.42509651184082
0, 6, 17, 56.1595344543457
0, 6, 18, 174.6317138671875
0, 6, 19, 275.8279418945312
0, 6, 20, 289.7475891113281
0, 6, 21, 312.7754516601562
0, 6, 22, 319.30419921875
0, 6, 23, 304.3513793945312
0, 6, 24, 318.2796020507812
0, 6, 25, 316.2711791992188
0, 6, 26, 318.8785095214844
0, 6, 27, 330.565673828125
0, 6, 28, 295.4312744140625
0, 6, 29, 330.2622680664062
0, 6, 30, 280.9151611328125
0, 6, 31, 286.9857788085938
0, 6, 32, 344.7527770996094
0, 6, 33, 300.7714233398438
0, 6, 34, 341.8500366210938
0, 6, 35, 322.5807495117188
0, 6, 36, 275.2209777832031
0, 6, 37, 290.2193908691406
0, 6, 38, 309.3943176269531
0, 6, 39, 302.2752380371094
0, 6, 40, 283.4832458496094
0, 6, 41, 294.1266479492188
0, 6, 42, 305.6507263183594
0, 6, 43, 288.1361389160156
0, 6, 44, 281.4753112792969
0, 6, 45, 319.495361328125
0, 6, 46, 303.6394653320312
0, 6, 47, 335.2018737792969
0, 6, 48, 293.2771606445312
0, 6, 49, 312.6187438964844
0, 6, 50, 327.7245178222656
0, 6, 51, 309.0885009765625
0, 6, 52, 320.6578674316406
0, 6, 53, 327.2618103027344
0, 6, 54, 303.3765563964844
0, 6, 55, 307.5877990722656
0, 6, 56, 297.390625
0, 6, 57, 314.6555786132812
0, 6, 58, 262.2229919433594
0, 6, 59, 299.938232421875
0, 6, 60, 313.89306640625
0, 6, 61, 271.7750244140625
0, 6, 62, 340.7005615234375
0, 6, 63, 321.2923278808594
0, 6, 64, 289.2642211914062
0, 6, 65, 284.2528686523438
0, 6, 66, 304.4978942871094
0, 6, 67, 311.8145446777344
0, 6, 68, 294.6380004882812
0, 6, 69, 277.3602600097656
0, 6, 70, 274.9384765625
0, 6, 71, 288.4836730957031
0, 6, 72, 311.1600952148438
0, 6, 73, 291.8161926269531
0, 6, 74, 329.3713073730469
0, 6, 75, 342.806640625
0, 6, 76, 296.2425231933594
0, 6, 77, 286.7702331542969
0, 6, 78, 278.5079345703125
0, 6, 79, 293.5354309082031
0, 6, 80, 300.0000610351562
0, 6, 81, 315.2862854003906
0, 6, 82, 319.6365051269531
0, 6, 83, 319.4307861328125
0, 6, 84, 298.0071411132812
0, 6, 85, 300.3573608398438
0, 6, 86, 329.188232421875
0, 6, 87, 291.3453979492188
0, 6, 88, 306.7598571777344
0, 6, 89, 304.8123474121094
0, 6, 90, 299.5714416503906
0, 6, 91, 314.3327941894531
0, 6, 92, 284.9234619140625
0, 6, 93, 293.8323059082031
0, 6, 94, 272.075439453125
0, 6, 95, 299.0567932128906
0, 6, 96, 348.6333312988281
0, 6, 97, 308.0684814453125
0, 6, 98, 300.4545288085938
0, 6, 99, 274.2934875488281
0, 6, 100, 308.1019897460938
0, 6, 101, 292.2493896484375
0, 6, 102, 308.9641723632812
0, 6, 103, 308.7741088867188
0, 6, 104, 292.1464233398438
0, 6, 105, 300.1923217773438
0, 6, 106, 307.7610778808594
0, 6, 107, 306.6905517578125
0, 6, 108, 265.1138916015625
0, 6, 109, 185.5449523925781
0, 6, 110, 55.54371643066406
0, 6, 111, 22.19716835021973
0, 6, 112, 13.70939254760742
0, 6, 113, 10.19940853118896
0, 6, 114, 11.27966976165771
0, 6, 115, 11.21359348297119
0, 6, 116, 8.903139114379883
0, 6, 117, 7.628664016723633
0, 6, 118, 10.5322732925415
0, 6, 119, 9.728841781616211
0, 6, 120, 6.258917808532715
0, 6, 121, 6.819696426391602
0, 6, 122, 8.422031402587891
0, 6, 123, 5.184192180633545
0, 6, 124, 7.16581916809082
0, 6, 125, 8.090348243713379
0, 6, 126, 6.295152187347412
0, 6, 127, 5.758887767791748
0, 7, 0, 4.852737903594971
0, 7, 1, 3.889801502227783
0, 7, 2, 5.0519118309021
0, 7, 3, 3.033153057098389
0, 7, 4, 4.273376941680908
0, 7, 5, 7.699891567230225
0, 7, 6, 7.409642219543457
0, 7, 7, 6.355088233947754
0, 7, 8, 6.962970733642578
0, 7, 9, 5.737997531890869
0, 7, 10, 9.132357597351074
0, 7, 11, 13.26052474975586
0, 7, 12, 12.61949253082275
0, 7, 13, 12.9356517791748
0, 7, 14, 11.01361274719238
0, 7, 15, 17.48067092895508
0, 7, 16, 26.0460319519043
0, 7, 17, 96.33078002929688
0, 7, 18, 217.0466003417969
0, 7, 19, 289.1063842773438
0, 7, 20, 297.4136047363281
0, 7, 21, 276.0819702148438
0, 7, 22, 297.6466674804688
0, 7, 23, 290.1407470703125
0, 7, 24, 312.7551574707031
0, 7, 25, 323.3435974121094
0, 7, 26, 278.4245300292969
0, 7, 27, 300.1091613769531
0, 7, 28, 326.1413269042969
0, 7, 29, 318.8294372558594
0, 7, 30, 302.8528747558594
0, 7, 31, 275.6628723144531
0, 7, 32, 305.75439453125
0, 7, 33, 260.5541381835938
0, 7, 34, 299.3736267089844
0, 7, 35, 319.4187316894531
0, 7, 36, 330.1900939941406
0, 7, 37, 326.1247863769531
0, 7, 38, 295.3169250488281
0, 7, 39, 306.2380981445312
0, 7, 40, 288.2847595214844
0, 7, 41, 271.1911315917969
0, 7, 42, 301.0537719726562
0, 7, 43, 273.4130249023438
0, 7, 44, 302.127197265625
0, 7, 45, 294.7719421386719
0, 7, 46, 282.9000549316406
0, 7, 47, 328.5904541015625
0, 7, 48, 286.2088928222656
0, 7, 49, 300.9722595214844
0, 7, 50, 321.3634948730469
0, 7, 51, 299.3357849121094
0, 7, 52, 326.2676086425781
0, 7, 53, 310.707763671875
0, 7, 54, 323.1846923828125
0, 7, 55, 306.7872314453125
0, 7, 56, 278.8072814941406
0, 7, 57, 283.4743347167969
0, 7, 58, 295.0267639160156
0, 7, 59, 293.145751953125
0, 7, 60, 322.24658203125
0, 7, 61, 277.3524475097656
0, 7, 62, 298.0873107910156
0, 7, 63, 293.3739624023438
0, 7, 64, 305.8260192871094
0, 7, 65, 332.3799438476562
0, 7, 66, 320.8574829101562
0, 7, 67, 303.1777038574219
0, 7, 68, 279.2480163574219
0, 7, 69, 294.0556335449219
0, 7, 70, 301.5799560546875
0, 7, 71, 310.5812683105469
0, 7, 72, 284.5265808105469
0, 7, 73, 296.2755737304688
0, 7, 74, 344.5632019042969
0, 7, 75, 318.6844177246094
0, 7, 76, 322.8862915039062
0, 7, 77, 283.2108459472656
0, 7, 78, 298.1774291992188
0, 7, 79, 298.0527648925781
0, 7, 80, 313.385009765625
0, 7, 81, 317.9447021484375
0, 7, 82, 327.9247741699219
0, 7, 83, 317.0162048339844
0, 7, 84, 310.0776062011719
0, 7, 85, 273.0101928710938
0, 7, 86, 312.3042907714844
0, 7, 87, 310.923828125
0, 7, 88, 311.3010559082031
0, 7, 89, 291.7685546875
0, 7, 90, 306.3416137695312
0, 7, 91, 314.1919250488281
0, 7, 92, 290.2287902832031
0, 7, 93, 310.2170715332031
0, 7, 94, 273.2776489257812
0, 7, 95, 295.4539489746094
0, 7, 96, 331.0962829589844
0, 7, 97, 297.2940063476562
0, 7, 98, 291.7118835449219
0, 7, 99, 311.9787902832031
0, 7, 100, 284.5242614746094
0, 7, 101, 274.2365112304688
0, 7, 102, 290.4845581054688
0, 7, 103, 291.745849609375
0, 7, 104, 277.1801147460938
0, 7, 105, 307.4217224121094
0, 7, 106, 316.7614440917969
0, 7, 107, 298.9048767089844
0, 7, 108, 271.9907531738281
0, 7, 109, 235.8990020751953
0, 7, 110, 95.86483001708984
0, 7, 111, 23.40976905822754
0, 7, 112, 12.40975666046143
0, 7, 113, 14.4613151550293
0, 7, 114, 14.58660507202148
0, 7, 115, 9.562006950378418
0, 7, 116, 6.327976226806641
0, 7, 117, 7.548684120178223
0, 7, 118, 7.511403560638428
0, 7, 119, 7.214205741882324
0, 7, 120, 5.883317947387695
0, 7, 121, 5.961361885070801
0, 7, 122, 7.858629703521729
0, 7, 123, 1.998967289924622
0, 7, 124, 5.192687511444092
0, 7, 125, 7.411130905151367
0, 7, 126, 10.16238498687744
0, 7, 127, 2.406676054000854
0, 8, 0, 5.703389167785645
0, 8, 1, 6.185159206390381
0, 8, 2, 4.369369983673096
0, 8, 3, 6.126843452453613
0, 8, 4, 3.986357688903809
0, 8, 5, 3.042047739028931
0, 8, 6, 4.555924892425537
0, 8, 7, 6.596537113189697
0, 8, 8, 9.264581680297852
0, 8, 9, 5.536153316497803
0, 8, 10, 6.692774295806885
0, 8, 11, 10.94268989562988
0, 8, 12, 12.82556438446045
0, 8, 13, 15.97389602661133
0, 8, 14, 11.94942855834961
0, 8, 15, 17.80754089355469
0, 8, 16, 33.52861022949219
0, 8, 17, 130.932373046875
0, 8, 18, 242.4323425292969
0, 8, 19, 295.0046081542969
0, 8, 20, 286.6737670898438
0, 8, 21, 306.3988342285156
0, 8, 22, 299.7693786621094
0, 8, 23, 275.1027526855469
0, 8, 24, 268.41162109375
0, 8, 25, 276.2923583984375
0, 8, 26, 306.9799194335938
0, 8, 27, 307.4437255859375
0, 8, 28, 303.4180297851562
0, 8, 29, 321.4494934082031
0, 8, 30, 316.4768371582031
0, 8, 31, 303.0704956054688
0, 8, 32, 283.7418823242188
0, 8, 33, 293.8555908203125
0, 8, 34, 290.0661315917969
0, 8, 35, 277.9266967773438
0, 8, 36, 315.2352600097656
0, 8, 37, 340.1996154785156
0, 8, 38, 334.6997985839844
0, 8, 39, 279.9724731445312
0, 8, 40, 303.6495666503906
