# TOPAS Version: 3.1.p3
# Parameter File: batch_inserts_250.txt
# Results for scorer Readout_Adipose
# Scored in component: MyBox
# X in 1 bin  of 0.75 cm
# Y in 512 bins of 0.0783984 cm
# Z in 128 bins of 0.078125 cm
# EnergyDeposit ( MeV ) : Sum   
0, 0, 0, 5.005556583404541
0, 0, 1, 2.552433252334595
0, 0, 2, 4.267591953277588
0, 0, 3, 3.137995004653931
0, 0, 4, 4.051094532012939
0, 0, 5, 1.581604838371277
0, 0, 6, 7.428111553192139
0, 0, 7, 7.694839954376221
0, 0, 8, 1.979676842689514
0, 0, 9, 4.638615608215332
0, 0, 10, 6.120334148406982
0, 0, 11, 4.873907566070557
0, 0, 12, 4.9640212059021
0, 0, 13, 7.514730453491211
0, 0, 14, 7.46544885635376
0, 0, 15, 9.325568199157715
0, 0, 16, 7.823783874511719
0, 0, 17, 10.84926700592041
0, 0, 18, 17.14629173278809
0, 0, 19, 45.86371231079102
0, 0, 20, 139.6413879394531
0, 0, 21, 225.0006561279297
0, 0, 22, 248.9976348876953
0, 0, 23, 257.4689025878906
0, 0, 24, 250.7665557861328
0, 0, 25, 258.7124938964844
0, 0, 26, 233.9937744140625
0, 0, 27, 237.9082183837891
0, 0, 28, 270.0632629394531
0, 0, 29, 253.2777252197266
0, 0, 30, 232.0802154541016
0, 0, 31, 243.1697692871094
0, 0, 32, 263.4613647460938
0, 0, 33, 261.5109252929688
0, 0, 34, 287.8169555664062
0, 0, 35, 266.1602172851562
0, 0, 36, 246.4114837646484
0, 0, 37, 253.3995513916016
0, 0, 38, 269.2931213378906
0, 0, 39, 230.4949493408203
0, 0, 40, 241.6496734619141
0, 0, 41, 266.0488891601562
0, 0, 42, 229.1324310302734
0, 0, 43, 260.7437744140625
0, 0, 44, 254.6851806640625
0, 0, 45, 253.7893676757812
0, 0, 46, 244.2031097412109
0, 0, 47, 254.4378509521484
0, 0, 48, 267.316650390625
0, 0, 49, 274.1422119140625
0, 0, 50, 251.0592041015625
0, 0, 51, 252.8488616943359
0, 0, 52, 271.8629760742188
0, 0, 53, 290.9499816894531
0, 0, 54, 242.7771911621094
0, 0, 55, 239.2084197998047
0, 0, 56, 277.0340881347656
0, 0, 57, 263.4927368164062
0, 0, 58, 247.4400024414062
0, 0, 59, 271.9236755371094
0, 0, 60, 235.5964050292969
0, 0, 61, 244.5536041259766
0, 0, 62, 259.4674377441406
0, 0, 63, 266.5411071777344
0, 0, 64, 254.5463562011719
0, 0, 65, 260.0411987304688
0, 0, 66, 277.7260437011719
0, 0, 67, 250.5316467285156
0, 0, 68, 259.3345336914062
0, 0, 69, 261.0000915527344
0, 0, 70, 274.3703002929688
0, 0, 71, 238.2980194091797
0, 0, 72, 250.3631744384766
0, 0, 73, 258.25
0, 0, 74, 253.2726287841797
0, 0, 75, 240.8676605224609
0, 0, 76, 227.8679504394531
0, 0, 77, 258.9338073730469
0, 0, 78, 255.0824737548828
0, 0, 79, 277.1498718261719
0, 0, 80, 216.6219940185547
0, 0, 81, 267.1280822753906
0, 0, 82, 255.5887451171875
0, 0, 83, 244.2756500244141
0, 0, 84, 271.1416931152344
0, 0, 85, 231.6782531738281
0, 0, 86, 252.9955139160156
0, 0, 87, 250.6203460693359
0, 0, 88, 259.5983581542969
0, 0, 89, 281.4068603515625
0, 0, 90, 243.8551940917969
0, 0, 91, 281.1008911132812
0, 0, 92, 255.0592956542969
0, 0, 93, 249.2338409423828
0, 0, 94, 247.1847534179688
0, 0, 95, 247.7266540527344
0, 0, 96, 274.8209533691406
0, 0, 97, 271.9395141601562
0, 0, 98, 272.948974609375
0, 0, 99, 257.9122314453125
0, 0, 100, 258.4321899414062
0, 0, 101, 226.6539154052734
0, 0, 102, 232.0112915039062
0, 0, 103, 269.6563415527344
0, 0, 104, 253.9880828857422
0, 0, 105, 252.7463989257812
0, 0, 106, 246.3935546875
0, 0, 107, 151.0815582275391
0, 0, 108, 37.86556243896484
0, 0, 109, 11.93351936340332
0, 0, 110, 13.61471176147461
0, 0, 111, 8.582422256469727
0, 0, 112, 5.764362335205078
0, 0, 113, 5.638679504394531
0, 0, 114, 6.818020820617676
0, 0, 115, 7.721229553222656
0, 0, 116, 6.349616527557373
0, 0, 117, 4.768707275390625
0, 0, 118, 7.293798923492432
0, 0, 119, 4.185675144195557
0, 0, 120, 2.770018339157104
0, 0, 121, 4.004645824432373
0, 0, 122, 6.182372093200684
0, 0, 123, 3.375377178192139
0, 0, 124, 5.863614082336426
0, 0, 125, 3.181826591491699
0, 0, 126, 4.945003986358643
0, 0, 127, 4.966967582702637
0, 1, 0, 7.078397750854492
0, 1, 1, 3.3504798412323
0, 1, 2, 5.701372623443604
0, 1, 3, 1.668109178543091
0, 1, 4, 3.201714515686035
0, 1, 5, 3.479093790054321
0, 1, 6, 4.989768981933594
0, 1, 7, 6.382436275482178
0, 1, 8, 6.648509502410889
0, 1, 9, 4.007918357849121
0, 1, 10, 7.000253677368164
0, 1, 11, 10.67152881622314
0, 1, 12, 8.011125564575195
0, 1, 13, 8.376338005065918
0, 1, 14, 7.972148895263672
0, 1, 15, 7.826091766357422
0, 1, 16, 12.16319751739502
0, 1, 17, 9.940855979919434
0, 1, 18, 21.53489875793457
0, 1, 19, 68.4622802734375
0, 1, 20, 199.6794586181641
0, 1, 21, 254.5643920898438
0, 1, 22, 297.3833618164062
0, 1, 23, 283.0274963378906
0, 1, 24, 275.0639038085938
0, 1, 25, 288.337890625
0, 1, 26, 268.9363403320312
0, 1, 27, 305.6935424804688
0, 1, 28, 299.1124877929688
0, 1, 29, 295.2388000488281
0, 1, 30, 281.9187927246094
0, 1, 31, 290.9349060058594
0, 1, 32, 289.9767761230469
0, 1, 33, 295.6383972167969
0, 1, 34, 294.0879516601562
0, 1, 35, 279.0928344726562
0, 1, 36, 305.7637023925781
0, 1, 37, 295.2015686035156
0, 1, 38, 280.6547241210938
0, 1, 39, 295.7233581542969
0, 1, 40, 267.6527404785156
0, 1, 41, 289.5763854980469
0, 1, 42, 289.3184204101562
0, 1, 43, 331.7710571289062
0, 1, 44, 278.1323547363281
0, 1, 45, 293.5646362304688
0, 1, 46, 258.7218322753906
0, 1, 47, 311.20361328125
0, 1, 48, 284.0130615234375
0, 1, 49, 302.1676940917969
0, 1, 50, 263.0294189453125
0, 1, 51, 272.3062133789062
0, 1, 52, 296.7911376953125
0, 1, 53, 304.8990783691406
0, 1, 54, 273.5173034667969
0, 1, 55, 292.7537841796875
0, 1, 56, 278.3602600097656
0, 1, 57, 296.3354797363281
0, 1, 58, 310.3697509765625
0, 1, 59, 292.2349243164062
0, 1, 60, 296.9941711425781
0, 1, 61, 275.6618041992188
0, 1, 62, 308.8559265136719
0, 1, 63, 286.3525390625
0, 1, 64, 289.7047424316406
0, 1, 65, 296.5084228515625
0, 1, 66, 293.9273986816406
0, 1, 67, 293.2093505859375
0, 1, 68, 278.1739501953125
0, 1, 69, 280.7374877929688
0, 1, 70, 270.28515625
0, 1, 71, 272.45751953125
0, 1, 72, 286.4201965332031
0, 1, 73, 306.7919921875
0, 1, 74, 304.407470703125
0, 1, 75, 293.8450012207031
0, 1, 76, 286.6516723632812
0, 1, 77, 292.4059753417969
0, 1, 78, 298.930419921875
0, 1, 79, 302.5848083496094
0, 1, 80, 297.1199035644531
0, 1, 81, 300.7171630859375
0, 1, 82, 283.6564331054688
0, 1, 83, 334.4331359863281
0, 1, 84, 309.8631591796875
0, 1, 85, 253.2796783447266
0, 1, 86, 293.6007385253906
0, 1, 87, 290.9851684570312
0, 1, 88, 296.3088073730469
0, 1, 89, 292.4400634765625
0, 1, 90, 269.1872863769531
0, 1, 91, 318.0660705566406
0, 1, 92, 293.6329650878906
0, 1, 93, 285.6016845703125
0, 1, 94, 303.4285278320312
0, 1, 95, 283.5943298339844
0, 1, 96, 283.8292236328125
0, 1, 97, 299.9125061035156
0, 1, 98, 278.3499755859375
0, 1, 99, 266.3572692871094
0, 1, 100, 277.5940856933594
0, 1, 101, 281.6258850097656
0, 1, 102, 279.0421752929688
0, 1, 103, 281.3924255371094
0, 1, 104, 308.103271484375
0, 1, 105, 296.3047180175781
0, 1, 106, 260.5175170898438
0, 1, 107, 190.6287994384766
0, 1, 108, 80.20863342285156
0, 1, 109, 24.21736717224121
0, 1, 110, 11.84678649902344
0, 1, 111, 7.868351936340332
0, 1, 112, 12.08409404754639
0, 1, 113, 6.463608264923096
0, 1, 114, 8.268162727355957
0, 1, 115, 6.501287937164307
0, 1, 116, 11.05331230163574
0, 1, 117, 4.874087810516357
0, 1, 118, 3.869699478149414
0, 1, 119, 4.172868728637695
0, 1, 120, 4.669099807739258
0, 1, 121, 7.955516815185547
0, 1, 122, 3.896191358566284
0, 1, 123, 4.121630668640137
0, 1, 124, 8.646677017211914
0, 1, 125, 4.212883949279785
0, 1, 126, 1.290010333061218
0, 1, 127, 2.525948047637939
0, 2, 0, 5.248636722564697
0, 2, 1, 2.864225625991821
0, 2, 2, 5.372186183929443
0, 2, 3, 5.313828945159912
0, 2, 4, 4.610213756561279
0, 2, 5, 2.227972745895386
0, 2, 6, 3.071881294250488
0, 2, 7, 5.384131908416748
0, 2, 8, 4.803900241851807
0, 2, 9, 6.827008247375488
0, 2, 10, 9.341006278991699
0, 2, 11, 6.832729339599609
0, 2, 12, 5.699600696563721
0, 2, 13, 10.62780570983887
0, 2, 14, 9.370268821716309
0, 2, 15, 8.464356422424316
0, 2, 16, 8.7578125
0, 2, 17, 16.62571144104004
0, 2, 18, 33.54813003540039
0, 2, 19, 114.3834762573242
0, 2, 20, 246.8702087402344
0, 2, 21, 270.7642822265625
0, 2, 22, 315.0426940917969
0, 2, 23, 301.0448303222656
0, 2, 24, 288.936767578125
0, 2, 25, 303.1824951171875
0, 2, 26, 295.3056640625
0, 2, 27, 276.3390808105469
0, 2, 28, 274.150390625
0, 2, 29, 275.434814453125
0, 2, 30, 289.6608276367188
0, 2, 31, 279.3707580566406
0, 2, 32, 293.3847045898438
0, 2, 33, 283.9133605957031
0, 2, 34, 332.0943298339844
0, 2, 35, 290.5948791503906
0, 2, 36, 305.7271423339844
0, 2, 37, 315.2976989746094
0, 2, 38, 310.714599609375
0, 2, 39, 267.1121520996094
0, 2, 40, 308.2507629394531
0, 2, 41, 290.99658203125
0, 2, 42, 303.7525634765625
0, 2, 43, 311.5087890625
0, 2, 44, 313.8887939453125
0, 2, 45, 326.331298828125
0, 2, 46, 286.8761291503906
0, 2, 47, 302.3427124023438
0, 2, 48, 282.7438049316406
0, 2, 49, 279.2985534667969
0, 2, 50, 294.4938354492188
0, 2, 51, 282.7669372558594
0, 2, 52, 272.9921875
0, 2, 53, 287.7307739257812
0, 2, 54, 281.3366088867188
0, 2, 55, 277.0686645507812
0, 2, 56, 301.0441284179688
0, 2, 57, 291.5136413574219
0, 2, 58, 303.5714721679688
0, 2, 59, 289.2288818359375
0, 2, 60, 319.2499694824219
0, 2, 61, 301.6677551269531
0, 2, 62, 313.3382873535156
0, 2, 63, 302.833984375
0, 2, 64, 295.9545593261719
0, 2, 65, 313.6866760253906
0, 2, 66, 279.68603515625
0, 2, 67, 291.0516662597656
0, 2, 68, 295.7710571289062
0, 2, 69, 310.6439208984375
0, 2, 70, 335.3829650878906
0, 2, 71, 282.9376525878906
0, 2, 72, 303.2969665527344
0, 2, 73, 312.10107421875
0, 2, 74, 286.3894958496094
0, 2, 75, 303.0855407714844
0, 2, 76, 288.0045776367188
0, 2, 77, 297.4252014160156
0, 2, 78, 314.7554016113281
0, 2, 79, 307.9927368164062
0, 2, 80, 298.1556396484375
0, 2, 81, 283.8995056152344
0, 2, 82, 317.4049377441406
0, 2, 83, 311.4365844726562
0, 2, 84, 289.4473266601562
0, 2, 85, 281.9615783691406
0, 2, 86, 326.9076232910156
0, 2, 87, 288.1519775390625
0, 2, 88, 280.9176940917969
0, 2, 89, 298.6235656738281
0, 2, 90, 295.9025573730469
0, 2, 91, 275.13037109375
0, 2, 92, 305.6815795898438
0, 2, 93, 315.731689453125
0, 2, 94, 293.8007202148438
0, 2, 95, 314.7342529296875
0, 2, 96, 315.8329467773438
0, 2, 97, 291.7691345214844
0, 2, 98, 294.9302368164062
0, 2, 99, 274.3540954589844
0, 2, 100, 305.3309936523438
0, 2, 101, 301.626953125
0, 2, 102, 298.1291198730469
0, 2, 103, 291.5932922363281
0, 2, 104, 293.3723754882812
0, 2, 105, 273.815673828125
0, 2, 106, 297.8076171875
0, 2, 107, 270.1116638183594
0, 2, 108, 116.1171188354492
0, 2, 109, 32.60087585449219
0, 2, 110, 9.459723472595215
0, 2, 111, 12.51687145233154
0, 2, 112, 9.262828826904297
0, 2, 113, 9.322291374206543
0, 2, 114, 9.673757553100586
0, 2, 115, 10.80672073364258
0, 2, 116, 11.50473594665527
0, 2, 117, 6.685498237609863
0, 2, 118, 5.373054027557373
0, 2, 119, 5.893889904022217
0, 2, 120, 9.715234756469727
0, 2, 121, 1.904049515724182
0, 2, 122, 5.343350410461426
0, 2, 123, 5.775346755981445
0, 2, 124, 8.698225021362305
0, 2, 125, 5.490181446075439
0, 2, 126, 3.957336902618408
0, 2, 127, 6.008581161499023
0, 3, 0, 4.367903232574463
0, 3, 1, 2.887117624282837
0, 3, 2, 5.288406372070312
0, 3, 3, 1.857460141181946
0, 3, 4, 3.588939189910889
0, 3, 5, 7.12436580657959
0, 3, 6, 6.426754951477051
0, 3, 7, 5.278872489929199
0, 3, 8, 5.071236133575439
0, 3, 9, 7.434739589691162
0, 3, 10, 5.152984619140625
0, 3, 11, 4.785297393798828
0, 3, 12, 7.062857151031494
0, 3, 13, 14.42846488952637
0, 3, 14, 10.63550853729248
0, 3, 15, 14.85808086395264
0, 3, 16, 11.80869102478027
0, 3, 17, 20.49745941162109
0, 3, 18, 52.54548263549805
0, 3, 19, 176.2796630859375
0, 3, 20, 269.0728759765625
0, 3, 21, 271.8209533691406
0, 3, 22, 282.4798889160156
0, 3, 23, 286.4539794921875
0, 3, 24, 286.2130737304688
0, 3, 25, 269.8367614746094
0, 3, 26, 304.140625
0, 3, 27, 292.0661926269531
0, 3, 28, 283.9388427734375
0, 3, 29, 337.3395385742188
0, 3, 30, 315.4266662597656
0, 3, 31, 285.3878173828125
0, 3, 32, 306.5698547363281
0, 3, 33, 314.4097290039062
0, 3, 34, 322.5538635253906
0, 3, 35, 306.9200744628906
0, 3, 36, 267.214599609375
0, 3, 37, 314.690673828125
0, 3, 38, 305.5170288085938
0, 3, 39, 289.9583740234375
0, 3, 40, 266.5906066894531
0, 3, 41, 298.835205078125
0, 3, 42, 285.5649719238281
0, 3, 43, 306.1155700683594
0, 3, 44, 311.6893310546875
0, 3, 45, 290.1412353515625
0, 3, 46, 328.8147888183594
0, 3, 47, 299.6333618164062
0, 3, 48, 304.2242126464844
0, 3, 49, 274.9406433105469
0, 3, 50, 289.0870056152344
0, 3, 51, 275.7454528808594
0, 3, 52, 316.9407653808594
0, 3, 53, 288.3119201660156
0, 3, 54, 286.073486328125
0, 3, 55, 283.6486511230469
0, 3, 56, 302.0639953613281
0, 3, 57, 287.7566833496094
0, 3, 58, 306.9786682128906
0, 3, 59, 297.2291259765625
0, 3, 60, 297.6513671875
0, 3, 61, 264.3850402832031
0, 3, 62, 285.6090087890625
0, 3, 63, 306.9052734375
0, 3, 64, 317.8006896972656
0, 3, 65, 304.0519714355469
0, 3, 66, 313.8935546875
0, 3, 67, 317.2234497070312
0, 3, 68, 281.5371704101562
0, 3, 69, 282.2198181152344
0, 3, 70, 289.120361328125
0, 3, 71, 300.510498046875
0, 3, 72, 269.2384033203125
0, 3, 73, 307.1027221679688
0, 3, 74, 293.5042724609375
0, 3, 75, 290.89306640625
0, 3, 76, 305.01220703125
0, 3, 77, 314.9564819335938
0, 3, 78, 303.421875
0, 3, 79, 282.91064453125
0, 3, 80, 292.096923828125
0, 3, 81, 311.9253845214844
0, 3, 82, 316.4419860839844
0, 3, 83, 300.96630859375
0, 3, 84, 310.4461364746094
0, 3, 85, 292.538330078125
0, 3, 86, 303.0042724609375
0, 3, 87, 298.5363464355469
0, 3, 88, 300.9831237792969
0, 3, 89, 296.0188903808594
0, 3, 90, 276.9312744140625
0, 3, 91, 284.4713439941406
0, 3, 92, 305.1208801269531
0, 3, 93, 314.2744445800781
0, 3, 94, 299.1386108398438
0, 3, 95, 338.3982238769531
0, 3, 96, 291.9046936035156
0, 3, 97, 283.7888488769531
0, 3, 98, 279.84716796875
0, 3, 99, 263.6467590332031
0, 3, 100, 283.5216979980469
0, 3, 101, 297.8262634277344
0, 3, 102, 275.6980285644531
0, 3, 103, 320.8750915527344
0, 3, 104, 308.5371704101562
0, 3, 105, 287.4837036132812
0, 3, 106, 302.7781982421875
0, 3, 107, 284.2882385253906
0, 3, 108, 169.3117828369141
0, 3, 109, 56.41173934936523
0, 3, 110, 19.13362312316895
0, 3, 111, 13.64513397216797
0, 3, 112, 12.16477394104004
0, 3, 113, 5.902168273925781
0, 3, 114, 10.27538585662842
0, 3, 115, 7.184674739837646
0, 3, 116, 6.890377998352051
0, 3, 117, 8.233878135681152
0, 3, 118, 8.927621841430664
0, 3, 119, 6.059733867645264
0, 3, 120, 6.006571769714355
0, 3, 121, 2.346624612808228
0, 3, 122, 3.153518676757812
0, 3, 123, 6.735681056976318
0, 3, 124, 4.491696357727051
0, 3, 125, 6.561740875244141
0, 3, 126, 5.109320163726807
0, 3, 127, 4.545971393585205
0, 4, 0, 2.733417510986328
0, 4, 1, 4.22384786605835
0, 4, 2, 3.125905990600586
0, 4, 3, 2.432967662811279
0, 4, 4, 6.751098155975342
0, 4, 5, 9.490134239196777
0, 4, 6, 6.744603157043457
0, 4, 7, 7.281333446502686
0, 4, 8, 6.357872486114502
0, 4, 9, 6.027985572814941
0, 4, 10, 5.849558353424072
0, 4, 11, 6.943938732147217
0, 4, 12, 4.900091171264648
0, 4, 13, 9.20295238494873
0, 4, 14, 10.9169750213623
0, 4, 15, 8.410151481628418
0, 4, 16, 17.6025218963623
0, 4, 17, 17.72910118103027
0, 4, 18, 95.77042388916016
0, 4, 19, 221.4416351318359
0, 4, 20, 284.6819458007812
0, 4, 21, 273.5564575195312
0, 4, 22, 305.5569152832031
0, 4, 23, 268.1255187988281
0, 4, 24, 288.3311157226562
0, 4, 25, 273.1750793457031
0, 4, 26, 294.1236572265625
0, 4, 27, 284.6046752929688
0, 4, 28, 305.4477844238281
0, 4, 29, 322.9273071289062
0, 4, 30, 309.6937866210938
0, 4, 31, 305.8978881835938
0, 4, 32, 279.6894226074219
0, 4, 33, 298.828857421875
0, 4, 34, 295.5715637207031
0, 4, 35, 311.390380859375
0, 4, 36, 293.3394775390625
0, 4, 37, 286.7108459472656
0, 4, 38, 297.5918579101562
0, 4, 39, 292.9403991699219
0, 4, 40, 301.1287536621094
0, 4, 41, 311.4299926757812
0, 4, 42, 332.591064453125
0, 4, 43, 298.462646484375
0, 4, 44, 321.6736145019531
0, 4, 45, 323.1210327148438
0, 4, 46, 304.4607543945312
0, 4, 47, 292.0067749023438
0, 4, 48, 295.8940734863281
0, 4, 49, 280.0056457519531
0, 4, 50, 296.9156494140625
0, 4, 51, 315.3416442871094
0, 4, 52, 327.5358581542969
0, 4, 53, 302.5461730957031
0, 4, 54, 286.2357177734375
0, 4, 55, 317.9483642578125
0, 4, 56, 287.7268981933594
0, 4, 57, 312.0130310058594
0, 4, 58, 297.6107482910156
0, 4, 59, 308.6369323730469
0, 4, 60, 300.9042663574219
0, 4, 61, 315.8739929199219
0, 4, 62, 306.4678649902344
0, 4, 63, 297.6450500488281
0, 4, 64, 328.7295837402344
0, 4, 65, 316.3158874511719
0, 4, 66, 294.9503173828125
0, 4, 67, 284.2784423828125
0, 4, 68, 314.1983642578125
0, 4, 69, 274.792236328125
0, 4, 70, 300.2785034179688
0, 4, 71, 321.1304626464844
0, 4, 72, 331.0127258300781
0, 4, 73, 298.7224731445312
0, 4, 74, 292.7596435546875
0, 4, 75, 290.458984375
0, 4, 76, 275.0136108398438
0, 4, 77, 277.7701110839844
0, 4, 78, 309.8665466308594
0, 4, 79, 318.31298828125
0, 4, 80, 315.1603393554688
0, 4, 81, 311.9930419921875
0, 4, 82, 298.638671875
0, 4, 83, 305.4899597167969
0, 4, 84, 290.5632934570312
0, 4, 85, 295.0409851074219
0, 4, 86, 300.809814453125
0, 4, 87, 284.6669006347656
0, 4, 88, 305.450927734375
0, 4, 89, 295.2224731445312
0, 4, 90, 333.5149841308594
0, 4, 91, 302.0233154296875
0, 4, 92, 290.4083251953125
0, 4, 93, 297.51025390625
0, 4, 94, 294.2886657714844
0, 4, 95, 290.0273132324219
0, 4, 96, 322.9428405761719
0, 4, 97, 273.6785888671875
0, 4, 98, 328.5196533203125
0, 4, 99, 314.2767639160156
0, 4, 100, 301.9378967285156
0, 4, 101, 255.9312133789062
0, 4, 102, 296.7936096191406
0, 4, 103, 316.7360229492188
0, 4, 104, 281.5157775878906
0, 4, 105, 310.2126159667969
0, 4, 106, 286.4010925292969
0, 4, 107, 293.9776611328125
0, 4, 108, 226.7296752929688
0, 4, 109, 79.53478240966797
0, 4, 110, 16.01891899108887
0, 4, 111, 15.01675033569336
0, 4, 112, 9.293313980102539
0, 4, 113, 11.36570167541504
0, 4, 114, 8.103209495544434
0, 4, 115, 10.24219417572021
0, 4, 116, 10.90603351593018
0, 4, 117, 7.582162857055664
0, 4, 118, 10.17670345306396
0, 4, 119, 8.674107551574707
0, 4, 120, 4.692821502685547
0, 4, 121, 4.805132389068604
0, 4, 122, 4.147717475891113
0, 4, 123, 6.2005615234375
0, 4, 124, 4.131080627441406
0, 4, 125, 8.841484069824219
0, 4, 126, 4.596655368804932
0, 4, 127, 3.412146091461182
0, 5, 0, 3.894522190093994
0, 5, 1, 3.336089134216309
0, 5, 2, 5.277908325195312
0, 5, 3, 4.741235256195068
0, 5, 4, 5.094667911529541
0, 5, 5, 6.671620845794678
0, 5, 6, 7.281496047973633
0, 5, 7, 5.536013603210449
0, 5, 8, 6.510742664337158
0, 5, 9, 4.804473876953125
0, 5, 10, 8.797468185424805
0, 5, 11, 7.422521114349365
0, 5, 12, 6.89997673034668
0, 5, 13, 4.487598896026611
0, 5, 14, 13.5785961151123
0, 5, 15, 15.46583652496338
0, 5, 16, 14.72276401519775
0, 5, 17, 28.82296752929688
0, 5, 18, 136.6013336181641
0, 5, 19, 286.0730895996094
0, 5, 20, 307.0039672851562
0, 5, 21, 318.0115356445312
0, 5, 22, 276.5912780761719
0, 5, 23, 313.5532836914062
0, 5, 24, 301.7055969238281
0, 5, 25, 291.3090209960938
0, 5, 26, 295.542236328125
0, 5, 27, 322.7153625488281
0, 5, 28, 303.7217712402344
0, 5, 29, 297.8840637207031
0, 5, 30, 325.9330139160156
0, 5, 31, 284.9500122070312
0, 5, 32, 301.2900695800781
0, 5, 33, 304.8723449707031
0, 5, 34, 295.2423706054688
0, 5, 35, 310.0184020996094
0, 5, 36, 269.826904296875
0, 5, 37, 282.0995178222656
0, 5, 38, 293.2713928222656
0, 5, 39, 311.6703491210938
0, 5, 40, 308.4493713378906
0, 5, 41, 272.8446960449219
0, 5, 42, 308.2587890625
0, 5, 43, 315.0689697265625
0, 5, 44, 291.697998046875
0, 5, 45, 303.0823974609375
0, 5, 46, 265.0214538574219
0, 5, 47, 279.4819946289062
0, 5, 48, 293.940185546875
0, 5, 49, 287.08935546875
0, 5, 50, 295.6006774902344
0, 5, 51, 284.7860717773438
0, 5, 52, 268.6167602539062
0, 5, 53, 282.9339599609375
0, 5, 54, 292.3661499023438
0, 5, 55, 346.1206970214844
0, 5, 56, 307.0598754882812
0, 5, 57, 308.2496337890625
0, 5, 58, 314.6715698242188
0, 5, 59, 301.2057189941406
0, 5, 60, 309.2154846191406
0, 5, 61, 282.489013671875
0, 5, 62, 326.8098449707031
0, 5, 63, 293.4787902832031
0, 5, 64, 324.1589965820312
0, 5, 65, 309.45458984375
0, 5, 66, 326.7953796386719
0, 5, 67, 312.9904174804688
0, 5, 68, 307.2354125976562
0, 5, 69, 310.9497375488281
0, 5, 70, 299.8977661132812
0, 5, 71, 273.2568054199219
0, 5, 72, 310.6184387207031
0, 5, 73, 301.6275939941406
0, 5, 74, 295.373046875
0, 5, 75, 294.0507202148438
0, 5, 76, 289.1169128417969
0, 5, 77, 299.1767272949219
0, 5, 78, 315.9854736328125
0, 5, 79, 306.8912963867188
0, 5, 80, 294.1124267578125
0, 5, 81, 325.239013671875
0, 5, 82, 324.9267578125
0, 5, 83, 280.44873046875
0, 5, 84, 303.5301513671875
0, 5, 85, 272.5520629882812
0, 5, 86, 324.9633178710938
0, 5, 87, 283.8842163085938
0, 5, 88, 315.9479370117188
0, 5, 89, 304.3103637695312
0, 5, 90, 313.7467346191406
0, 5, 91, 314.3973999023438
0, 5, 92, 295.9282531738281
0, 5, 93, 323.630859375
0, 5, 94, 308.7801513671875
0, 5, 95, 296.125244140625
0, 5, 96, 297.9455871582031
0, 5, 97, 294.2766418457031
0, 5, 98, 318.2621765136719
0, 5, 99, 302.9556884765625
0, 5, 100, 290.1832275390625
0, 5, 101, 304.9206237792969
0, 5, 102, 294.1435852050781
0, 5, 103, 313.7135009765625
0, 5, 104, 304.1292114257812
0, 5, 105, 291.1700744628906
0, 5, 106, 281.0063781738281
0, 5, 107, 293.1445922851562
0, 5, 108, 265.1432189941406
0, 5, 109, 158.2696685791016
0, 5, 110, 41.11004257202148
0, 5, 111, 21.21875190734863
0, 5, 112, 18.34528350830078
0, 5, 113, 14.77567481994629
0, 5, 114, 11.41391086578369
0, 5, 115, 7.54630184173584
0, 5, 116, 9.093478202819824
0, 5, 117, 5.562723159790039
0, 5, 118, 12.61419868469238
0, 5, 119, 2.92229700088501
0, 5, 120, 7.765124320983887
0, 5, 121, 5.375624179840088
0, 5, 122, 7.165396690368652
0, 5, 123, 5.796643733978271
0, 5, 124, 6.445308685302734
0, 5, 125, 3.119789361953735
0, 5, 126, 4.702574729919434
0, 5, 127, 2.676371335983276
0, 6, 0, 3.553858518600464
0, 6, 1, 2.897972822189331
0, 6, 2, 4.789908885955811
0, 6, 3, 5.387340068817139
0, 6, 4, 4.388803958892822
0, 6, 5, 4.67609977722168
0, 6, 6, 8.942007064819336
0, 6, 7, 5.99008846282959
0, 6, 8, 8.568943023681641
0, 6, 9, 5.651723384857178
0, 6, 10, 7.328029155731201
0, 6, 11, 7.60966157913208
0, 6, 12, 8.04459285736084
0, 6, 13, 15.04257678985596
0, 6, 14, 12.07732772827148
0, 6, 15, 17.89218330383301
0, 6, 16, 29.88574600219727
0, 6, 17, 54.78606414794922
0, 6, 18, 172.1593627929688
0, 6, 19, 277.6042785644531
0, 6, 20, 289.7155456542969
0, 6, 21, 314.9089050292969
0, 6, 22, 320.8595886230469
0, 6, 23, 306.9967346191406
0, 6, 24, 315.1814270019531
0, 6, 25, 315.4531860351562
0, 6, 26, 319.9450073242188
0, 6, 27, 332.2874145507812
0, 6, 28, 297.4305725097656
0, 6, 29, 332.7838745117188
0, 6, 30, 279.9567260742188
0, 6, 31, 289.028076171875
0, 6, 32, 339.5846557617188
0, 6, 33, 300.093994140625
0, 6, 34, 343.0719299316406
0, 6, 35, 321.55419921875
0, 6, 36, 274.6668701171875
0, 6, 37, 289.4552307128906
0, 6, 38, 313.0184936523438
0, 6, 39, 298.0138549804688
0, 6, 40, 283.8404846191406
0, 6, 41, 296.4842834472656
0, 6, 42, 302.9184875488281
0, 6, 43, 288.7970886230469
0, 6, 44, 280.2872924804688
0, 6, 45, 319.9072265625
0, 6, 46, 303.0963745117188
0, 6, 47, 333.03515625
0, 6, 48, 292.9728393554688
0, 6, 49, 311.3587036132812
0, 6, 50, 327.9564819335938
0, 6, 51, 310.3980407714844
0, 6, 52, 320.5950317382812
0, 6, 53, 327.4585876464844
0, 6, 54, 304.2366333007812
0, 6, 55, 304.3291015625
0, 6, 56, 293.0996704101562
0, 6, 57, 311.8889465332031
0, 6, 58, 262.2685546875
0, 6, 59, 301.887939453125
0, 6, 60, 312.5197448730469
0, 6, 61, 270.2406616210938
0, 6, 62, 337.3890380859375
0, 6, 63, 322.3144836425781
0, 6, 64, 291.0703125
0, 6, 65, 287.4884948730469
0, 6, 66, 303.4937438964844
0, 6, 67, 309.5034790039062
0, 6, 68, 292.7686462402344
0, 6, 69, 279.2834167480469
0, 6, 70, 275.2600708007812
0, 6, 71, 288.8117065429688
0, 6, 72, 311.0732116699219
0, 6, 73, 293.4839172363281
0, 6, 74, 331.6270141601562
0, 6, 75, 344.0406188964844
0, 6, 76, 297.7911987304688
0, 6, 77, 289.2550048828125
0, 6, 78, 283.4480590820312
0, 6, 79, 293.1221313476562
0, 6, 80, 300.0642395019531
0, 6, 81, 315.2254638671875
0, 6, 82, 320.1149291992188
0, 6, 83, 320.7204284667969
0, 6, 84, 295.6625061035156
0, 6, 85, 301.1377258300781
0, 6, 86, 328.9897155761719
0, 6, 87, 292.2939453125
0, 6, 88, 306.3985290527344
0, 6, 89, 305.3076782226562
0, 6, 90, 299.6644592285156
0, 6, 91, 312.2324829101562
0, 6, 92, 284.61181640625
0, 6, 93, 295.6361083984375
0, 6, 94, 273.7802429199219
0, 6, 95, 300.5801086425781
0, 6, 96, 347.4424133300781
0, 6, 97, 310.2928771972656
0, 6, 98, 301.3511047363281
0, 6, 99, 272.7505187988281
0, 6, 100, 310.103759765625
0, 6, 101, 291.7940368652344
0, 6, 102, 306.0413513183594
0, 6, 103, 307.9383239746094
0, 6, 104, 291.5242309570312
0, 6, 105, 300.427001953125
0, 6, 106, 310.5085144042969
0, 6, 107, 307.0578002929688
0, 6, 108, 266.8505554199219
0, 6, 109, 186.0738525390625
0, 6, 110, 54.26301956176758
0, 6, 111, 22.60682106018066
0, 6, 112, 14.1655445098877
0, 6, 113, 12.98631954193115
0, 6, 114, 12.74924182891846
0, 6, 115, 13.21580219268799
0, 6, 116, 12.75216960906982
0, 6, 117, 5.822583198547363
0, 6, 118, 11.3572244644165
0, 6, 119, 9.196322441101074
0, 6, 120, 5.613895416259766
0, 6, 121, 7.88161563873291
0, 6, 122, 8.308444023132324
0, 6, 123, 5.469400882720947
0, 6, 124, 6.315824031829834
0, 6, 125, 7.766755104064941
0, 6, 126, 3.715289115905762
0, 6, 127, 5.355395793914795
0, 7, 0, 7.6263747215271
0, 7, 1, 4.593374252319336
0, 7, 2, 7.546177864074707
0, 7, 3, 3.163512945175171
0, 7, 4, 5.095395565032959
0, 7, 5, 4.692673683166504
0, 7, 6, 5.648736000061035
0, 7, 7, 8.189353942871094
0, 7, 8, 4.483388900756836
0, 7, 9, 5.019495487213135
0, 7, 10, 9.103672027587891
0, 7, 11, 10.85806846618652
0, 7, 12, 10.70223808288574
0, 7, 13, 13.3677806854248
0, 7, 14, 11.08708763122559
0, 7, 15, 17.17169380187988
0, 7, 16, 27.24449157714844
0, 7, 17, 99.00949859619141
0, 7, 18, 217.5513000488281
0, 7, 19, 292.96923828125
0, 7, 20, 298.4029846191406
0, 7, 21, 277.2608947753906
0, 7, 22, 299.9109497070312
0, 7, 23, 288.5220642089844
0, 7, 24, 313.2484436035156
0, 7, 25, 324.9273986816406
0, 7, 26, 280.5269470214844
0, 7, 27, 299.1194458007812
0, 7, 28, 326.0846862792969
0, 7, 29, 319.1608276367188
0, 7, 30, 298.6297302246094
0, 7, 31, 278.8895874023438
0, 7, 32, 305.7062683105469
0, 7, 33, 264.6849975585938
0, 7, 34, 297.01318359375
0, 7, 35, 320.0376586914062
0, 7, 36, 332.6557312011719
0, 7, 37, 325.0737915039062
0, 7, 38, 295.7006530761719
0, 7, 39, 307.39501953125
0, 7, 40, 292.2793884277344
0, 7, 41, 270.9752807617188
0, 7, 42, 300.0505676269531
0, 7, 43, 275.4403076171875
0, 7, 44, 305.1720275878906
0, 7, 45, 296.2070922851562
0, 7, 46, 283.0545959472656
0, 7, 47, 329.0545654296875
0, 7, 48, 284.3620910644531
0, 7, 49, 302.1486511230469
0, 7, 50, 320.56982421875
0, 7, 51, 299.0512084960938
0, 7, 52, 327.8959655761719
0, 7, 53, 312.14990234375
0, 7, 54, 325.5483703613281
0, 7, 55, 309.0015258789062
0, 7, 56, 279.7066650390625
0, 7, 57, 283.9064636230469
0, 7, 58, 294.7662353515625
0, 7, 59, 296.0130004882812
0, 7, 60, 322.5342712402344
0, 7, 61, 278.9094848632812
0, 7, 62, 296.6003723144531
0, 7, 63, 293.4783630371094
0, 7, 64, 304.9263610839844
0, 7, 65, 330.3775634765625
0, 7, 66, 319.3667297363281
0, 7, 67, 301.512451171875
0, 7, 68, 280.37109375
0, 7, 69, 294.5251159667969
0, 7, 70, 301.8526000976562
0, 7, 71, 310.6580505371094
0, 7, 72, 287.6436462402344
0, 7, 73, 297.9602355957031
0, 7, 74, 343.5191650390625
0, 7, 75, 318.2569274902344
0, 7, 76, 322.9483947753906
0, 7, 77, 279.8228759765625
0, 7, 78, 301.837890625
0, 7, 79, 296.9296875
0, 7, 80, 311.0323486328125
0, 7, 81, 319.6337890625
0, 7, 82, 330.1773376464844
0, 7, 83, 320.3860778808594
0, 7, 84, 309.9400329589844
0, 7, 85, 271.5499572753906
0, 7, 86, 311.9179382324219
0, 7, 87, 309.9462890625
0, 7, 88, 309.4206237792969
0, 7, 89, 293.9302368164062
0, 7, 90, 309.5121459960938
0, 7, 91, 316.1303100585938
0, 7, 92, 286.648193359375
0, 7, 93, 305.66943359375
0, 7, 94, 273.320556640625
0, 7, 95, 296.9305419921875
0, 7, 96, 330.5602722167969
0, 7, 97, 294.3579711914062
0, 7, 98, 290.6840209960938
0, 7, 99, 310.9829406738281
0, 7, 100, 280.8082580566406
0, 7, 101, 275.2701110839844
0, 7, 102, 290.794677734375
0, 7, 103, 293.9457702636719
0, 7, 104, 276.5048217773438
0, 7, 105, 305.9520568847656
0, 7, 106, 318.0311279296875
0, 7, 107, 295.8516235351562
0, 7, 108, 272.0436401367188
0, 7, 109, 236.7535552978516
0, 7, 110, 95.24056243896484
0, 7, 111, 24.05533599853516
0, 7, 112, 14.3578929901123
0, 7, 113, 13.0576286315918
0, 7, 114, 12.87344646453857
0, 7, 115, 11.24310684204102
0, 7, 116, 10.71853637695312
0, 7, 117, 7.883189678192139
0, 7, 118, 11.28225898742676
0, 7, 119, 8.478105545043945
0, 7, 120, 4.514330863952637
0, 7, 121, 5.101656913757324
0, 7, 122, 5.386927127838135
0, 7, 123, 4.042742252349854
0, 7, 124, 5.561772346496582
0, 7, 125, 5.777426242828369
0, 7, 126, 7.053307056427002
0, 7, 127, 1.158628940582275
0, 8, 0, 4.234076976776123
0, 8, 1, 6.31010913848877
0, 8, 2, 4.102908611297607
0, 8, 3, 5.275897979736328
0, 8, 4, 3.510385274887085
0, 8, 5, 4.424626350402832
0, 8, 6, 6.549738883972168
0, 8, 7, 5.776695251464844
0, 8, 8, 7.603929996490479
0, 8, 9, 5.068995475769043
0, 8, 10, 8.781087875366211
0, 8, 11, 12.32534313201904
0, 8, 12, 14.01542186737061
0, 8, 13, 16.42656326293945
0, 8, 14, 13.11873912811279
0, 8, 15, 18.24858856201172
0, 8, 16, 34.61495971679688
0, 8, 17, 129.1262359619141
0, 8, 18, 243.5654144287109
0, 8, 19, 294.2568664550781
0, 8, 20, 285.0254821777344
0, 8, 21, 307.9950256347656
0, 8, 22, 294.7636108398438
0, 8, 23, 274.7028198242188
0, 8, 24, 268.67236328125
0, 8, 25, 277.7234802246094
0, 8, 26, 306.1119384765625
0, 8, 27, 306.9007568359375
0, 8, 28, 302.5448303222656
0, 8, 29, 320.1748962402344
0, 8, 30, 319.4086608886719
0, 8, 31, 303.4605712890625
0, 8, 32, 280.8453369140625
0, 8, 33, 292.4976806640625
0, 8, 34, 288.5570068359375
0, 8, 35, 281.2502746582031
0, 8, 36, 315.4266967773438
0, 8, 37, 341.7186279296875
0, 8, 38, 331.8432006835938
0, 8, 39, 280.8057556152344
0, 8, 40, 304.4400939941406
0, 8, 41, 292.7557067871094
0, 8, 42, 326.2271118164062
