# TOPAS Version: 3.1.p3
# Parameter File: batch_inserts_160.txt
# Results for scorer Readout_Adipose
# Scored in component: MyBox
# X in 1 bin  of 0.75 cm
# Y in 512 bins of 0.0783984 cm
# Z in 128 bins of 0.078125 cm
# EnergyDeposit ( MeV ) : Sum   
0, 0, 0, 21.11872291564941
0, 0, 1, 20.68019104003906
0, 0, 2, 26.8651123046875
0, 0, 3, 19.16518211364746
0, 0, 4, 16.03888320922852
0, 0, 5, 22.9293212890625
0, 0, 6, 24.70722961425781
0, 0, 7, 39.26633453369141
0, 0, 8, 24.98387336730957
0, 0, 9, 24.3271541595459
0, 0, 10, 23.56681823730469
0, 0, 11, 23.65979385375977
0, 0, 12, 37.16157531738281
0, 0, 13, 35.02877807617188
0, 0, 14, 35.35710906982422
0, 0, 15, 44.31405639648438
0, 0, 16, 40.30194473266602
0, 0, 17, 45.84424209594727
0, 0, 18, 77.20196533203125
0, 0, 19, 190.5045928955078
0, 0, 20, 699.2640380859375
0, 0, 21, 1189.110717773438
0, 0, 22, 1245.983520507812
0, 0, 23, 1273.9853515625
0, 0, 24, 1282.74267578125
0, 0, 25, 1354.916381835938
0, 0, 26, 1271.084106445312
0, 0, 27, 1284.197631835938
0, 0, 28, 1316.843505859375
0, 0, 29, 1272.00439453125
0, 0, 30, 1261.871337890625
0, 0, 31, 1279.412475585938
0, 0, 32, 1264.494750976562
0, 0, 33, 1243.998291015625
0, 0, 34, 1327.80078125
0, 0, 35, 1302.861328125
0, 0, 36, 1248.044799804688
0, 0, 37, 1279.013671875
0, 0, 38, 1247.752319335938
0, 0, 39, 1246.903686523438
0, 0, 40, 1229.935180664062
0, 0, 41, 1270.379638671875
0, 0, 42, 1255.48779296875
0, 0, 43, 1268.602294921875
0, 0, 44, 1226.70166015625
0, 0, 45, 1288.9189453125
0, 0, 46, 1265.95751953125
0, 0, 47, 1240.922973632812
0, 0, 48, 1279.6435546875
0, 0, 49, 1286.980224609375
0, 0, 50, 1311.941040039062
0, 0, 51, 1266.298706054688
0, 0, 52, 1357.201171875
0, 0, 53, 1325.260375976562
0, 0, 54, 1296.743041992188
0, 0, 55, 1236.693237304688
0, 0, 56, 1319.220092773438
0, 0, 57, 1290.59228515625
0, 0, 58, 1253.635986328125
0, 0, 59, 1329.294555664062
0, 0, 60, 1326.293823242188
0, 0, 61, 1261.913330078125
0, 0, 62, 1240.524780273438
0, 0, 63, 1274.2666015625
0, 0, 64, 1327.450073242188
0, 0, 65, 1281.879028320312
0, 0, 66, 1315.528198242188
0, 0, 67, 1214.362060546875
0, 0, 68, 1315.649658203125
0, 0, 69, 1323.320922851562
0, 0, 70, 1344.716064453125
0, 0, 71, 1287.031494140625
0, 0, 72, 1310.077514648438
0, 0, 73, 1239.25537109375
0, 0, 74, 1290.09814453125
0, 0, 75, 1299.383544921875
0, 0, 76, 1257.881103515625
0, 0, 77, 1282.761840820312
0, 0, 78, 1321.828369140625
0, 0, 79, 1324.431762695312
0, 0, 80, 1262.168212890625
0, 0, 81, 1319.180908203125
0, 0, 82, 1283.970581054688
0, 0, 83, 1294.004272460938
0, 0, 84, 1326.116943359375
0, 0, 85, 1234.701904296875
0, 0, 86, 1265.289184570312
0, 0, 87, 1252.808227539062
0, 0, 88, 1258.291870117188
0, 0, 89, 1332.9013671875
0, 0, 90, 1280.278076171875
0, 0, 91, 1357.792358398438
0, 0, 92, 1304.562744140625
0, 0, 93, 1275.268798828125
0, 0, 94, 1247.695434570312
0, 0, 95, 1327.788696289062
0, 0, 96, 1281.802124023438
0, 0, 97, 1325.323486328125
0, 0, 98, 1258.439575195312
0, 0, 99, 1253.854248046875
0, 0, 100, 1284.750122070312
0, 0, 101, 1315.45556640625
0, 0, 102, 1236.586791992188
0, 0, 103, 1322.947998046875
0, 0, 104, 1263.827758789062
0, 0, 105, 1268.797973632812
0, 0, 106, 1209.562377929688
0, 0, 107, 785.0333862304688
0, 0, 108, 192.8086547851562
0, 0, 109, 66.25082397460938
0, 0, 110, 62.90757751464844
0, 0, 111, 39.937744140625
0, 0, 112, 35.93460845947266
0, 0, 113, 29.90451240539551
0, 0, 114, 37.13309478759766
0, 0, 115, 28.82150650024414
0, 0, 116, 25.72336387634277
0, 0, 117, 31.80580139160156
0, 0, 118, 32.74734115600586
0, 0, 119, 22.64423179626465
0, 0, 120, 24.38204574584961
0, 0, 121, 30.19034576416016
0, 0, 122, 23.1514778137207
0, 0, 123, 19.02238273620605
0, 0, 124, 22.12422561645508
0, 0, 125, 20.04859352111816
0, 0, 126, 23.59480667114258
0, 0, 127, 13.04698085784912
0, 1, 0, 23.38264465332031
0, 1, 1, 24.38144493103027
0, 1, 2, 26.72320175170898
0, 1, 3, 28.28617095947266
0, 1, 4, 25.56550788879395
0, 1, 5, 31.35161972045898
0, 1, 6, 21.58578872680664
0, 1, 7, 30.54309844970703
0, 1, 8, 34.61321258544922
0, 1, 9, 33.27140426635742
0, 1, 10, 35.26158905029297
0, 1, 11, 41.70419311523438
0, 1, 12, 38.74946975708008
0, 1, 13, 42.02621078491211
0, 1, 14, 41.59970474243164
0, 1, 15, 50.73574829101562
0, 1, 16, 60.29517364501953
0, 1, 17, 59.95705795288086
0, 1, 18, 96.67241668701172
0, 1, 19, 398.2047729492188
0, 1, 20, 1041.826538085938
0, 1, 21, 1373.57421875
0, 1, 22, 1480.352905273438
0, 1, 23, 1457.422973632812
0, 1, 24, 1448.142578125
0, 1, 25, 1416.490234375
0, 1, 26, 1475.397338867188
0, 1, 27, 1469.630981445312
0, 1, 28, 1495.069702148438
0, 1, 29, 1478.744506835938
0, 1, 30, 1511.261596679688
0, 1, 31, 1485.442749023438
0, 1, 32, 1411.5390625
0, 1, 33, 1498.55224609375
0, 1, 34, 1501.502197265625
0, 1, 35, 1458.132934570312
0, 1, 36, 1490.954467773438
0, 1, 37, 1410.70654296875
0, 1, 38, 1390.483642578125
0, 1, 39, 1521.27734375
0, 1, 40, 1464.488525390625
0, 1, 41, 1487.423583984375
0, 1, 42, 1494.007934570312
0, 1, 43, 1500.551879882812
0, 1, 44, 1452.788330078125
0, 1, 45, 1490.415161132812
0, 1, 46, 1419.436767578125
0, 1, 47, 1432.781372070312
0, 1, 48, 1424.78955078125
0, 1, 49, 1491.029052734375
0, 1, 50, 1440.05126953125
0, 1, 51, 1480.136962890625
0, 1, 52, 1477.18212890625
0, 1, 53, 1474.560913085938
0, 1, 54, 1506.83984375
0, 1, 55, 1493.87646484375
0, 1, 56, 1468.907348632812
0, 1, 57, 1454.481201171875
0, 1, 58, 1432.450073242188
0, 1, 59, 1482.110595703125
0, 1, 60, 1465.5048828125
0, 1, 61, 1452.157836914062
0, 1, 62, 1456.142211914062
0, 1, 63, 1417.85888671875
0, 1, 64, 1476.774780273438
0, 1, 65, 1419.944091796875
0, 1, 66, 1436.047729492188
0, 1, 67, 1450.922485351562
0, 1, 68, 1383.698974609375
0, 1, 69, 1464.796630859375
0, 1, 70, 1433.779418945312
0, 1, 71, 1498.309692382812
0, 1, 72, 1433.928588867188
0, 1, 73, 1486.4208984375
0, 1, 74, 1472.939208984375
0, 1, 75, 1473.899536132812
0, 1, 76, 1455.471435546875
0, 1, 77, 1464.019653320312
0, 1, 78, 1454.177124023438
0, 1, 79, 1500.035888671875
0, 1, 80, 1452.07568359375
0, 1, 81, 1425.12060546875
0, 1, 82, 1469.695434570312
0, 1, 83, 1467.753173828125
0, 1, 84, 1535.40576171875
0, 1, 85, 1448.77783203125
0, 1, 86, 1407.471801757812
0, 1, 87, 1419.21923828125
0, 1, 88, 1473.110229492188
0, 1, 89, 1478.501831054688
0, 1, 90, 1426.1943359375
0, 1, 91, 1464.306884765625
0, 1, 92, 1409.41943359375
0, 1, 93, 1465.314208984375
0, 1, 94, 1467.687133789062
0, 1, 95, 1424.24658203125
0, 1, 96, 1502.437133789062
0, 1, 97, 1521.65673828125
0, 1, 98, 1478.052490234375
0, 1, 99, 1418.57275390625
0, 1, 100, 1448.721069335938
0, 1, 101, 1414.33837890625
0, 1, 102, 1443.844848632812
0, 1, 103, 1409.895263671875
0, 1, 104, 1409.121459960938
0, 1, 105, 1464.445068359375
0, 1, 106, 1365.311157226562
0, 1, 107, 1018.944274902344
0, 1, 108, 402.1708679199219
0, 1, 109, 89.08966827392578
0, 1, 110, 71.38409423828125
0, 1, 111, 59.06501388549805
0, 1, 112, 49.57199859619141
0, 1, 113, 37.53388595581055
0, 1, 114, 38.99417495727539
0, 1, 115, 36.61217880249023
0, 1, 116, 38.11000061035156
0, 1, 117, 35.34865570068359
0, 1, 118, 31.23049163818359
0, 1, 119, 27.37460517883301
0, 1, 120, 28.0771541595459
0, 1, 121, 26.19587516784668
0, 1, 122, 22.94594764709473
0, 1, 123, 23.32071876525879
0, 1, 124, 27.06637573242188
0, 1, 125, 20.98888969421387
0, 1, 126, 23.42216491699219
0, 1, 127, 19.93006134033203
0, 2, 0, 17.59625625610352
0, 2, 1, 21.02729606628418
0, 2, 2, 24.0600757598877
0, 2, 3, 22.5088062286377
0, 2, 4, 23.0836067199707
0, 2, 5, 27.4229621887207
0, 2, 6, 20.77023887634277
0, 2, 7, 19.3975715637207
0, 2, 8, 32.63495254516602
0, 2, 9, 24.74266242980957
0, 2, 10, 30.19186210632324
0, 2, 11, 35.64523315429688
0, 2, 12, 45.26503753662109
0, 2, 13, 45.70954895019531
0, 2, 14, 51.83909225463867
0, 2, 15, 50.60902786254883
0, 2, 16, 65.08803558349609
0, 2, 17, 79.359619140625
0, 2, 18, 143.6206207275391
0, 2, 19, 601.9114379882812
0, 2, 20, 1283.806762695312
0, 2, 21, 1437.953247070312
0, 2, 22, 1463.564208984375
0, 2, 23, 1406.909057617188
0, 2, 24, 1437.228637695312
0, 2, 25, 1524.458374023438
0, 2, 26, 1554.038696289062
0, 2, 27, 1454.477172851562
0, 2, 28, 1460.423217773438
0, 2, 29, 1462.872314453125
0, 2, 30, 1461.339111328125
0, 2, 31, 1532.286987304688
0, 2, 32, 1509.448974609375
0, 2, 33, 1441.5498046875
0, 2, 34, 1473.322143554688
0, 2, 35, 1469.976440429688
0, 2, 36, 1525.302001953125
0, 2, 37, 1545.694213867188
0, 2, 38, 1505.7314453125
0, 2, 39, 1459.669067382812
0, 2, 40, 1500.358032226562
0, 2, 41, 1520.356567382812
0, 2, 42, 1510.02392578125
0, 2, 43, 1552.39892578125
0, 2, 44, 1460.6708984375
0, 2, 45, 1479.752197265625
0, 2, 46, 1424.042724609375
0, 2, 47, 1444.205444335938
0, 2, 48, 1394.569091796875
0, 2, 49, 1457.336669921875
0, 2, 50, 1441.995727539062
0, 2, 51, 1445.17724609375
0, 2, 52, 1491.837036132812
0, 2, 53, 1522.932495117188
0, 2, 54, 1529.544677734375
0, 2, 55, 1494.49462890625
0, 2, 56, 1462.21630859375
0, 2, 57, 1412.08935546875
0, 2, 58, 1454.098266601562
0, 2, 59, 1454.521240234375
0, 2, 60, 1470.814331054688
0, 2, 61, 1447.619995117188
0, 2, 62, 1469.648193359375
0, 2, 63, 1512.305541992188
0, 2, 64, 1458.162475585938
0, 2, 65, 1430.5380859375
0, 2, 66, 1485.223876953125
0, 2, 67, 1503.409790039062
0, 2, 68, 1544.470703125
0, 2, 69, 1538.747436523438
0, 2, 70, 1508.645751953125
0, 2, 71, 1462.976196289062
0, 2, 72, 1517.925537109375
0, 2, 73, 1523.255737304688
0, 2, 74, 1491.487670898438
0, 2, 75, 1500.477416992188
0, 2, 76, 1455.43017578125
0, 2, 77, 1505.485229492188
0, 2, 78, 1434.279663085938
0, 2, 79, 1543.14892578125
0, 2, 80, 1478.63818359375
0, 2, 81, 1466.729858398438
0, 2, 82, 1560.042724609375
0, 2, 83, 1522.265014648438
0, 2, 84, 1489.75634765625
0, 2, 85, 1517.001342773438
0, 2, 86, 1542.059204101562
0, 2, 87, 1491.015502929688
0, 2, 88, 1536.221557617188
0, 2, 89, 1460.4599609375
0, 2, 90, 1429.225341796875
0, 2, 91, 1407.557983398438
0, 2, 92, 1478.161987304688
0, 2, 93, 1493.54638671875
0, 2, 94, 1452.759521484375
0, 2, 95, 1543.75634765625
0, 2, 96, 1515.621337890625
0, 2, 97, 1450.025756835938
0, 2, 98, 1464.693115234375
0, 2, 99, 1402.751708984375
0, 2, 100, 1466.585205078125
0, 2, 101, 1480.103759765625
0, 2, 102, 1460.42578125
0, 2, 103, 1385.07763671875
0, 2, 104, 1406.189575195312
0, 2, 105, 1390.784545898438
0, 2, 106, 1457.654296875
0, 2, 107, 1271.965087890625
0, 2, 108, 621.2742309570312
0, 2, 109, 169.6259613037109
0, 2, 110, 66.19324493408203
0, 2, 111, 63.81045913696289
0, 2, 112, 51.28970718383789
0, 2, 113, 43.56083297729492
0, 2, 114, 36.22455596923828
0, 2, 115, 46.41226959228516
0, 2, 116, 32.19754028320312
0, 2, 117, 37.5092887878418
0, 2, 118, 34.70602416992188
0, 2, 119, 29.70230674743652
0, 2, 120, 35.25825881958008
0, 2, 121, 27.64718627929688
0, 2, 122, 27.2380542755127
0, 2, 123, 20.71570205688477
0, 2, 124, 21.23171424865723
0, 2, 125, 28.17187118530273
0, 2, 126, 16.20901489257812
0, 2, 127, 22.40941429138184
0, 3, 0, 15.52546691894531
0, 3, 1, 19.47943305969238
0, 3, 2, 25.95354080200195
0, 3, 3, 18.37798309326172
0, 3, 4, 23.14972496032715
0, 3, 5, 29.18231010437012
0, 3, 6, 35.34380340576172
0, 3, 7, 28.16227149963379
0, 3, 8, 31.20865249633789
0, 3, 9, 32.78978729248047
0, 3, 10, 35.11521148681641
0, 3, 11, 38.29055404663086
0, 3, 12, 48.63130187988281
0, 3, 13, 50.56806945800781
0, 3, 14, 58.47885513305664
0, 3, 15, 54.91379928588867
0, 3, 16, 69.20645141601562
0, 3, 17, 88.52536773681641
0, 3, 18, 243.7617340087891
0, 3, 19, 876.5012817382812
0, 3, 20, 1387.756469726562
0, 3, 21, 1504.417602539062
0, 3, 22, 1461.540649414062
0, 3, 23, 1447.429443359375
0, 3, 24, 1434.784423828125
0, 3, 25, 1466.51806640625
0, 3, 26, 1492.8720703125
0, 3, 27, 1465.668579101562
0, 3, 28, 1484.291259765625
0, 3, 29, 1542.097045898438
0, 3, 30, 1569.546997070312
0, 3, 31, 1509.577392578125
0, 3, 32, 1548.456787109375
0, 3, 33, 1536.136596679688
0, 3, 34, 1488.475708007812
0, 3, 35, 1467.907348632812
0, 3, 36, 1447.095825195312
0, 3, 37, 1515.008056640625
0, 3, 38, 1518.839111328125
0, 3, 39, 1441.026733398438
0, 3, 40, 1442.93310546875
0, 3, 41, 1562.25390625
0, 3, 42, 1459.29638671875
0, 3, 43, 1457.829345703125
0, 3, 44, 1449.699584960938
0, 3, 45, 1504.425170898438
0, 3, 46, 1506.356567382812
0, 3, 47, 1443.482421875
0, 3, 48, 1507.694580078125
0, 3, 49, 1451.908447265625
0, 3, 50, 1495.23095703125
0, 3, 51, 1537.760009765625
0, 3, 52, 1535.5869140625
0, 3, 53, 1465.508422851562
0, 3, 54, 1535.671020507812
0, 3, 55, 1505.477661132812
0, 3, 56, 1434.143676757812
0, 3, 57, 1503.19873046875
0, 3, 58, 1516.841430664062
0, 3, 59, 1509.897216796875
0, 3, 60, 1533.538330078125
0, 3, 61, 1484.7255859375
0, 3, 62, 1491.972778320312
0, 3, 63, 1490.490844726562
0, 3, 64, 1497.628173828125
0, 3, 65, 1515.792236328125
0, 3, 66, 1559.748779296875
0, 3, 67, 1547.715087890625
0, 3, 68, 1450.60107421875
0, 3, 69, 1461.3974609375
0, 3, 70, 1387.209228515625
0, 3, 71, 1464.888061523438
0, 3, 72, 1547.965087890625
0, 3, 73, 1503.619873046875
0, 3, 74, 1464.981079101562
0, 3, 75, 1456.510986328125
0, 3, 76, 1573.675170898438
0, 3, 77, 1539.68701171875
0, 3, 78, 1424.150268554688
0, 3, 79, 1490.445190429688
0, 3, 80, 1461.33349609375
0, 3, 81, 1472.123046875
0, 3, 82, 1554.453125
0, 3, 83, 1519.00244140625
0, 3, 84, 1560.760986328125
0, 3, 85, 1480.304077148438
0, 3, 86, 1526.820556640625
0, 3, 87, 1538.736328125
0, 3, 88, 1457.851928710938
0, 3, 89, 1449.007080078125
0, 3, 90, 1450.720703125
0, 3, 91, 1421.375122070312
0, 3, 92, 1511.219848632812
0, 3, 93, 1498.4501953125
0, 3, 94, 1513.145263671875
0, 3, 95, 1540.904907226562
0, 3, 96, 1511.6953125
0, 3, 97, 1471.072021484375
0, 3, 98, 1435.733276367188
0, 3, 99, 1468.437377929688
0, 3, 100, 1467.348876953125
0, 3, 101, 1476.879638671875
0, 3, 102, 1520.214599609375
0, 3, 103, 1554.654052734375
0, 3, 104, 1496.612060546875
0, 3, 105, 1512.205322265625
0, 3, 106, 1483.472290039062
0, 3, 107, 1341.466064453125
0, 3, 108, 873.98095703125
0, 3, 109, 265.3927001953125
0, 3, 110, 104.5759582519531
0, 3, 111, 66.21360015869141
0, 3, 112, 59.50270843505859
0, 3, 113, 48.60276794433594
0, 3, 114, 46.53537750244141
0, 3, 115, 51.24003982543945
0, 3, 116, 36.55064392089844
0, 3, 117, 38.01494216918945
0, 3, 118, 40.80422973632812
0, 3, 119, 29.56371116638184
0, 3, 120, 29.96643447875977
0, 3, 121, 17.50915336608887
0, 3, 122, 22.35939407348633
0, 3, 123, 24.53308868408203
0, 3, 124, 25.48952674865723
0, 3, 125, 31.06737899780273
0, 3, 126, 26.00491714477539
0, 3, 127, 17.1723518371582
0, 4, 0, 18.44754028320312
0, 4, 1, 23.9411735534668
0, 4, 2, 24.02177429199219
0, 4, 3, 19.57093048095703
0, 4, 4, 22.1301212310791
0, 4, 5, 26.88801193237305
0, 4, 6, 25.25978660583496
0, 4, 7, 30.45713996887207
0, 4, 8, 33.18145751953125
0, 4, 9, 35.25322341918945
0, 4, 10, 33.43528366088867
0, 4, 11, 41.05191040039062
0, 4, 12, 48.30936050415039
0, 4, 13, 52.11708068847656
0, 4, 14, 50.12768936157227
0, 4, 15, 58.59856414794922
0, 4, 16, 70.98764801025391
0, 4, 17, 113.0255813598633
0, 4, 18, 443.9723815917969
0, 4, 19, 1180.036499023438
0, 4, 20, 1447.3671875
0, 4, 21, 1420.683959960938
0, 4, 22, 1435.009765625
0, 4, 23, 1451.924194335938
0, 4, 24, 1472.47412109375
0, 4, 25, 1409.108764648438
0, 4, 26, 1536.796020507812
0, 4, 27, 1545.955932617188
0, 4, 28, 1509.073974609375
0, 4, 29, 1518.8994140625
0, 4, 30, 1525.983642578125
0, 4, 31, 1576.064208984375
0, 4, 32, 1518.187622070312
0, 4, 33, 1497.6474609375
0, 4, 34, 1471.29833984375
0, 4, 35, 1562.806396484375
0, 4, 36, 1505.324951171875
0, 4, 37, 1513.668823242188
0, 4, 38, 1537.657958984375
0, 4, 39, 1470.794189453125
0, 4, 40, 1511.849365234375
0, 4, 41, 1586.185546875
0, 4, 42, 1562.753295898438
0, 4, 43, 1475.453125
0, 4, 44, 1498.111450195312
0, 4, 45, 1517.017333984375
0, 4, 46, 1467.484252929688
0, 4, 47, 1504.533325195312
0, 4, 48, 1527.508178710938
0, 4, 49, 1473.708862304688
0, 4, 50, 1518.610229492188
0, 4, 51, 1492.275756835938
0, 4, 52, 1492.49658203125
0, 4, 53, 1457.791381835938
0, 4, 54, 1448.158813476562
0, 4, 55, 1523.419067382812
0, 4, 56, 1451.589721679688
0, 4, 57, 1498.537475585938
0, 4, 58, 1462.208740234375
0, 4, 59, 1463.461791992188
0, 4, 60, 1522.351440429688
0, 4, 61, 1504.81103515625
0, 4, 62, 1505.240478515625
0, 4, 63, 1546.585327148438
0, 4, 64, 1591.943115234375
0, 4, 65, 1422.042846679688
0, 4, 66, 1516.327514648438
0, 4, 67, 1522.013305664062
0, 4, 68, 1493.980712890625
0, 4, 69, 1466.413330078125
0, 4, 70, 1543.50537109375
0, 4, 71, 1516.94580078125
0, 4, 72, 1525.967895507812
0, 4, 73, 1489.537231445312
0, 4, 74, 1487.170166015625
0, 4, 75, 1537.17529296875
0, 4, 76, 1484.349487304688
0, 4, 77, 1502.5576171875
0, 4, 78, 1503.209350585938
0, 4, 79, 1484.739013671875
0, 4, 80, 1514.668212890625
0, 4, 81, 1524.336547851562
0, 4, 82, 1568.319702148438
0, 4, 83, 1507.439208984375
0, 4, 84, 1534.487426757812
0, 4, 85, 1549.016723632812
0, 4, 86, 1521.836669921875
0, 4, 87, 1499.47900390625
0, 4, 88, 1517.437377929688
0, 4, 89, 1484.428833007812
0, 4, 90, 1545.984619140625
0, 4, 91, 1554.3642578125
0, 4, 92, 1496.073608398438
0, 4, 93, 1513.141845703125
0, 4, 94, 1481.55859375
0, 4, 95, 1504.630615234375
0, 4, 96, 1451.939697265625
0, 4, 97, 1410.968505859375
0, 4, 98, 1556.61279296875
0, 4, 99, 1512.21337890625
0, 4, 100, 1493.452270507812
0, 4, 101, 1448.271118164062
0, 4, 102, 1441.947875976562
0, 4, 103, 1515.404907226562
0, 4, 104, 1515.14111328125
0, 4, 105, 1554.646606445312
0, 4, 106, 1474.09228515625
0, 4, 107, 1457.247436523438
0, 4, 108, 1120.005981445312
0, 4, 109, 432.13671875
0, 4, 110, 96.3895263671875
0, 4, 111, 69.86864471435547
0, 4, 112, 59.75583267211914
0, 4, 113, 49.89251327514648
0, 4, 114, 48.93964767456055
0, 4, 115, 46.53534698486328
0, 4, 116, 37.29090881347656
0, 4, 117, 43.63626861572266
0, 4, 118, 41.26541137695312
0, 4, 119, 35.92475128173828
0, 4, 120, 42.20431518554688
0, 4, 121, 32.00806427001953
0, 4, 122, 29.36219787597656
0, 4, 123, 30.39983940124512
0, 4, 124, 27.0194034576416
0, 4, 125, 30.55992317199707
0, 4, 126, 22.93998336791992
0, 4, 127, 18.21912956237793
0, 5, 0, 21.12225914001465
0, 5, 1, 20.84977149963379
0, 5, 2, 28.82946586608887
0, 5, 3, 26.60759162902832
0, 5, 4, 23.81382942199707
0, 5, 5, 35.85682678222656
0, 5, 6, 26.54801750183105
0, 5, 7, 29.95323944091797
0, 5, 8, 30.79946327209473
0, 5, 9, 28.07666969299316
0, 5, 10, 31.39078330993652
0, 5, 11, 40.23899078369141
0, 5, 12, 38.4298210144043
0, 5, 13, 43.98612594604492
0, 5, 14, 61.44010162353516
0, 5, 15, 75.66000366210938
0, 5, 16, 81.62590789794922
0, 5, 17, 157.5973968505859
0, 5, 18, 675.4161987304688
0, 5, 19, 1341.6943359375
0, 5, 20, 1524.988159179688
0, 5, 21, 1496.38427734375
0, 5, 22, 1496.913696289062
0, 5, 23, 1527.867553710938
0, 5, 24, 1464.342163085938
0, 5, 25, 1426.97314453125
0, 5, 26, 1522.208129882812
0, 5, 27, 1538.560913085938
0, 5, 28, 1486.849853515625
0, 5, 29, 1519.671752929688
0, 5, 30, 1493.973999023438
0, 5, 31, 1498.240844726562
0, 5, 32, 1598.130249023438
0, 5, 33, 1498.668579101562
0, 5, 34, 1487.58349609375
0, 5, 35, 1509.861938476562
0, 5, 36, 1441.956909179688
0, 5, 37, 1533.16748046875
0, 5, 38, 1549.301879882812
0, 5, 39, 1543.5283203125
0, 5, 40, 1502.944091796875
0, 5, 41, 1476.573364257812
0, 5, 42, 1540.804565429688
0, 5, 43, 1525.256591796875
0, 5, 44, 1543.43603515625
0, 5, 45, 1510.886108398438
0, 5, 46, 1493.492065429688
0, 5, 47, 1484.076538085938
0, 5, 48, 1504.033325195312
0, 5, 49, 1526.384399414062
0, 5, 50, 1510.234619140625
0, 5, 51, 1518.79443359375
0, 5, 52, 1427.525146484375
0, 5, 53, 1530.107055664062
0, 5, 54, 1517.714965820312
0, 5, 55, 1524.129638671875
0, 5, 56, 1492.21337890625
0, 5, 57, 1542.743408203125
0, 5, 58, 1509.189086914062
0, 5, 59, 1489.620727539062
0, 5, 60, 1537.110961914062
0, 5, 61, 1455.25537109375
0, 5, 62, 1583.675537109375
0, 5, 63, 1428.005249023438
0, 5, 64, 1486.556884765625
0, 5, 65, 1465.657592773438
0, 5, 66, 1527.699584960938
0, 5, 67, 1560.97412109375
0, 5, 68, 1461.933837890625
0, 5, 69, 1481.084594726562
0, 5, 70, 1487.32763671875
0, 5, 71, 1472.993530273438
0, 5, 72, 1538.339477539062
0, 5, 73, 1461.140502929688
0, 5, 74, 1494.400390625
0, 5, 75, 1492.420532226562
0, 5, 76, 1476.536499023438
0, 5, 77, 1516.220092773438
0, 5, 78, 1523.06591796875
0, 5, 79, 1514.075561523438
0, 5, 80, 1525.329467773438
0, 5, 81, 1592.50830078125
0, 5, 82, 1526.3984375
0, 5, 83, 1490.958374023438
0, 5, 84, 1530.409423828125
0, 5, 85, 1511.639770507812
0, 5, 86, 1560.623046875
0, 5, 87, 1473.34033203125
0, 5, 88, 1498.820678710938
0, 5, 89, 1482.386840820312
0, 5, 90, 1478.706298828125
0, 5, 91, 1551.875122070312
0, 5, 92, 1481.371459960938
0, 5, 93, 1562.412963867188
0, 5, 94, 1509.744995117188
0, 5, 95, 1563.355224609375
0, 5, 96, 1497.898071289062
0, 5, 97, 1507.317016601562
0, 5, 98, 1506.711669921875
0, 5, 99, 1545.1220703125
0, 5, 100, 1434.253784179688
0, 5, 101, 1428.4814453125
0, 5, 102, 1508.698120117188
0, 5, 103, 1473.973876953125
0, 5, 104, 1458.09326171875
0, 5, 105, 1492.222778320312
0, 5, 106, 1461.778076171875
0, 5, 107, 1404.299682617188
0, 5, 108, 1291.100463867188
0, 5, 109, 723.4783935546875
0, 5, 110, 194.7033538818359
0, 5, 111, 89.76963806152344
0, 5, 112, 84.81230163574219
0, 5, 113, 63.93556976318359
0, 5, 114, 59.58477401733398
0, 5, 115, 53.81190490722656
0, 5, 116, 38.85239791870117
0, 5, 117, 34.38044738769531
0, 5, 118, 41.47348022460938
0, 5, 119, 31.38263511657715
0, 5, 120, 37.34633636474609
0, 5, 121, 29.71701622009277
0, 5, 122, 28.54000473022461
0, 5, 123, 25.40700340270996
0, 5, 124, 25.83876419067383
0, 5, 125, 20.91187477111816
0, 5, 126, 21.24220085144043
0, 5, 127, 20.11923027038574
0, 6, 0, 19.92595100402832
0, 6, 1, 27.74492835998535
0, 6, 2, 27.70462036132812
0, 6, 3, 26.94470596313477
0, 6, 4, 26.30235290527344
0, 6, 5, 35.92566680908203
0, 6, 6, 33.15668106079102
0, 6, 7, 33.14274215698242
0, 6, 8, 36.81498718261719
0, 6, 9, 34.47251892089844
0, 6, 10, 37.16230010986328
0, 6, 11, 34.55021286010742
0, 6, 12, 37.91549301147461
0, 6, 13, 55.71734237670898
0, 6, 14, 61.87337493896484
0, 6, 15, 79.5380859375
0, 6, 16, 108.7989120483398
0, 6, 17, 296.7689514160156
0, 6, 18, 896.467041015625
0, 6, 19, 1374.9345703125
0, 6, 20, 1437.880981445312
0, 6, 21, 1530.127563476562
0, 6, 22, 1499.55029296875
0, 6, 23, 1527.889404296875
0, 6, 24, 1480.144287109375
0, 6, 25, 1535.337158203125
0, 6, 26, 1521.19482421875
0, 6, 27, 1525.240112304688
0, 6, 28, 1549.631958007812
0, 6, 29, 1567.013305664062
0, 6, 30, 1519.797729492188
0, 6, 31, 1496.606811523438
0, 6, 32, 1526.176025390625
0, 6, 33, 1494.307983398438
0, 6, 34, 1558.034545898438
0, 6, 35, 1503.30712890625
0, 6, 36, 1441.151977539062
0, 6, 37, 1541.021362304688
0, 6, 38, 1529.12060546875
0, 6, 39, 1522.275634765625
0, 6, 40, 1459.788696289062
0, 6, 41, 1439.966064453125
0, 6, 42, 1517.943725585938
0, 6, 43, 1486.909790039062
0, 6, 44, 1435.86279296875
0, 6, 45, 1544.963989257812
0, 6, 46, 1555.5830078125
0, 6, 47, 1494.315185546875
0, 6, 48, 1522.559448242188
0, 6, 49, 1510.215454101562
0, 6, 50, 1574.952270507812
0, 6, 51, 1503.899291992188
0, 6, 52, 1561.3828125
0, 6, 53, 1476.475463867188
0, 6, 54, 1498.629760742188
0, 6, 55, 1572.094360351562
0, 6, 56, 1528.066650390625
0, 6, 57, 1507.296752929688
0, 6, 58, 1469.137573242188
0, 6, 59, 1522.941650390625
0, 6, 60, 1470.377563476562
0, 6, 61, 1570.985961914062
0, 6, 62, 1548.928100585938
0, 6, 63, 1494.439208984375
0, 6, 64, 1412.991821289062
0, 6, 65, 1492.13232421875
0, 6, 66, 1511.797729492188
0, 6, 67, 1510.151733398438
0, 6, 68, 1547.013793945312
0, 6, 69, 1483.9453125
0, 6, 70, 1525.89111328125
0, 6, 71, 1471.95947265625
0, 6, 72, 1599.02685546875
0, 6, 73, 1487.743041992188
0, 6, 74, 1556.338623046875
0, 6, 75, 1536.11083984375
0, 6, 76, 1561.960083007812
0, 6, 77, 1505.189331054688
0, 6, 78, 1446.816162109375
0, 6, 79, 1557.237915039062
0, 6, 80, 1483.116455078125
0, 6, 81, 1483.331787109375
0, 6, 82, 1503.725830078125
0, 6, 83, 1527.864624023438
0, 6, 84, 1520.900756835938
0, 6, 85, 1533.605834960938
0, 6, 86, 1541.4267578125
0, 6, 87, 1571.475708007812
0, 6, 88, 1480.739501953125
0, 6, 89, 1564.966430664062
0, 6, 90, 1490.529907226562
0, 6, 91, 1541.255126953125
0, 6, 92, 1492.396850585938
0, 6, 93, 1498.3447265625
0, 6, 94, 1473.1376953125
0, 6, 95, 1507.913330078125
0, 6, 96, 1520.033081054688
0, 6, 97, 1511.701538085938
0, 6, 98, 1496.4482421875
0, 6, 99, 1481.233642578125
0, 6, 100, 1525.859741210938
0, 6, 101, 1514.166259765625
0, 6, 102, 1536.154663085938
0, 6, 103, 1496.578491210938
0, 6, 104, 1469.301513671875
0, 6, 105, 1485.824951171875
0, 6, 106, 1497.3427734375
0, 6, 107, 1504.508544921875
0, 6, 108, 1407.202270507812
0, 6, 109, 920.371826171875
0, 6, 110, 280.2977294921875
0, 6, 111, 94.75131225585938
0, 6, 112, 81.21865081787109
0, 6, 113, 64.92082977294922
0, 6, 114, 52.38602066040039
0, 6, 115, 49.06425094604492
0, 6, 116, 34.85861587524414
0, 6, 117, 38.9759407043457
0, 6, 118, 41.86767959594727
0, 6, 119, 35.06002044677734
0, 6, 120, 32.63137054443359
0, 6, 121, 29.54608535766602
0, 6, 122, 31.34890174865723
0, 6, 123, 22.98336791992188
0, 6, 124, 30.62854194641113
0, 6, 125, 33.62923431396484
0, 6, 126, 18.70707702636719
0, 6, 127, 26.21642684936523
0, 7, 0, 19.9980525970459
0, 7, 1, 34.88734817504883
0, 7, 2, 22.45536231994629
0, 7, 3, 23.40593147277832
0, 7, 4, 28.69891357421875
0, 7, 5, 38.2164306640625
0, 7, 6, 33.76025009155273
0, 7, 7, 41.61605834960938
0, 7, 8, 34.29697036743164
0, 7, 9, 34.51920318603516
0, 7, 10, 48.04289245605469
0, 7, 11, 53.93569183349609
0, 7, 12, 45.92378616333008
0, 7, 13, 49.77044296264648
0, 7, 14, 62.46795272827148
0, 7, 15, 79.83908843994141
0, 7, 16, 130.4061126708984
0, 7, 17, 461.6641540527344
0, 7, 18, 1102.156982421875
0, 7, 19, 1505.399291992188
0, 7, 20, 1483.94287109375
0, 7, 21, 1364.610229492188
0, 7, 22, 1483.7265625
0, 7, 23, 1456.006713867188
0, 7, 24, 1509.940795898438
0, 7, 25, 1595.331787109375
0, 7, 26, 1520.64599609375
0, 7, 27, 1510.51318359375
0, 7, 28, 1550.19580078125
0, 7, 29, 1571.527954101562
0, 7, 30, 1550.494262695312
0, 7, 31, 1435.420654296875
0, 7, 32, 1540.92333984375
0, 7, 33, 1489.4560546875
0, 7, 34, 1476.413696289062
0, 7, 35, 1522.90283203125
0, 7, 36, 1475.116943359375
0, 7, 37, 1600.271606445312
0, 7, 38, 1506.582275390625
0, 7, 39, 1492.8955078125
0, 7, 40, 1551.293701171875
0, 7, 41, 1464.37060546875
0, 7, 42, 1489.949584960938
0, 7, 43, 1445.1337890625
0, 7, 44, 1490.572265625
0, 7, 45, 1472.5029296875
0, 7, 46, 1513.784423828125
0, 7, 47, 1566.468872070312
0, 7, 48, 1523.8408203125
0, 7, 49, 1539.219360351562
0, 7, 50, 1513.329833984375
0, 7, 51, 1496.263427734375
0, 7, 52, 1515.280883789062
0, 7, 53, 1493.6005859375
0, 7, 54, 1585.7099609375
0, 7, 55, 1475.76953125
0, 7, 56, 1552.59765625
0, 7, 57, 1515.28955078125
0, 7, 58, 1552.255004882812
0, 7, 59, 1539.176147460938
0, 7, 60, 1550.132690429688
0, 7, 61, 1489.1591796875
0, 7, 62, 1436.380615234375
0, 7, 63, 1516.4072265625
0, 7, 64, 1554.320190429688
0, 7, 65, 1530.430541992188
0, 7, 66, 1537.351318359375
0, 7, 67, 1578.39208984375
0, 7, 68, 1534.259033203125
0, 7, 69, 1512.035522460938
0, 7, 70, 1493.787353515625
0, 7, 71, 1523.818237304688
0, 7, 72, 1527.241577148438
0, 7, 73, 1518.678588867188
0, 7, 74, 1576.913208007812
0, 7, 75, 1534.795288085938
0, 7, 76, 1557.6376953125
0, 7, 77, 1511.840087890625
0, 7, 78, 1504.368041992188
0, 7, 79, 1425.08935546875
0, 7, 80, 1491.0068359375
0, 7, 81, 1495.7626953125
0, 7, 82, 1532.43212890625
0, 7, 83, 1540.460693359375
0, 7, 84, 1585.883178710938
0, 7, 85, 1479.455200195312
0, 7, 86, 1504.2939453125
0, 7, 87, 1507.645629882812
0, 7, 88, 1499.924682617188
0, 7, 89, 1555.111083984375
0, 7, 90, 1525.437866210938
0, 7, 91, 1559.905639648438
0, 7, 92, 1528.594360351562
0, 7, 93, 1555.717651367188
0, 7, 94, 1533.676147460938
0, 7, 95, 1504.06884765625
0, 7, 96, 1504.31005859375
0, 7, 97, 1434.404174804688
0, 7, 98, 1483.1015625
0, 7, 99, 1529.528686523438
0, 7, 100, 1418.521118164062
0, 7, 101, 1469.0693359375
0, 7, 102, 1451.213012695312
0, 7, 103, 1433.958618164062
0, 7, 104, 1495.348266601562
0, 7, 105, 1523.651123046875
0, 7, 106, 1570.376586914062
0, 7, 107, 1481.97607421875
0, 7, 108, 1407.57861328125
0, 7, 109, 1149.092163085938
0, 7, 110, 472.5371704101562
0, 7, 111, 127.3874893188477
0, 7, 112, 80.91934967041016
0, 7, 113, 68.73977661132812
0, 7, 114, 58.10992050170898
0, 7, 115, 53.50334167480469
0, 7, 116, 51.10261917114258
0, 7, 117, 44.84353637695312
0, 7, 118, 39.75362014770508
0, 7, 119, 33.26419830322266
0, 7, 120, 23.2066822052002
0, 7, 121, 26.22088623046875
0, 7, 122, 33.77713394165039
0, 7, 123, 32.68423080444336
0, 7, 124, 27.85943031311035
0, 7, 125, 25.91510772705078
0, 7, 126, 28.16270637512207
0, 7, 127, 26.59386444091797
0, 8, 0, 19.99600791931152
0, 8, 1, 19.70252799987793
0, 8, 2, 21.42096519470215
0, 8, 3, 24.5775146484375
0, 8, 4, 23.24522590637207
0, 8, 5, 36.45933151245117
0, 8, 6, 29.92441368103027
0, 8, 7, 25.86067390441895
0, 8, 8, 36.17551040649414
0, 8, 9, 45.39159393310547
0, 8, 10, 46.78990936279297
0, 8, 11, 36.84349822998047
0, 8, 12, 55.08130264282227
0, 8, 13, 68.79038238525391
0, 8, 14, 74.31060791015625
0, 8, 15, 87.28936004638672
0, 8, 16, 166.2542419433594
0, 8, 17, 672.8929443359375
0, 8, 18, 1279.312866210938
0, 8, 19, 1452.345581054688
0, 8, 20, 1420.972900390625
0, 8, 21, 1409.766967773438
0, 8, 22, 1484.967529296875
0, 8, 23, 1479.758056640625
0, 8, 24, 1438.05517578125
0, 8, 25, 1457.224365234375
0, 8, 26, 1508.726684570312
0, 8, 27, 1520.241577148438
0, 8, 28, 1476.85205078125
0, 8, 29, 1510.055908203125
0, 8, 30, 1489.952026367188
0, 8, 31, 1532.871948242188
0, 8, 32, 1507.237670898438
0, 8, 33, 1478.222045898438
0, 8, 34, 1531.82421875
0, 8, 35, 1441.309326171875
0, 8, 36, 1494.644165039062
0, 8, 37, 1553.524536132812
0, 8, 38, 1551.031494140625
0, 8, 39, 1494.548828125
0, 8, 40, 1530.976806640625
0, 8, 41, 1484.005859375
0, 8, 42, 1538.103149414062
0, 8, 43, 1434.022827148438
0, 8, 44, 1543.84765625
0, 8, 45, 1508.635620117188
0, 8, 46, 1597.98193359375
