# TOPAS Version: 3.1.p3
# Parameter File: batch_inserts_336.txt
# Results for scorer Readout_Adipose
# Scored in component: MyBox
# X in 1 bin  of 0.75 cm
# Y in 512 bins of 0.0783984 cm
# Z in 128 bins of 0.078125 cm
# EnergyDeposit ( MeV ) : Sum   
0, 0, 0, 3.303843259811401
0, 0, 1, 2.196820974349976
0, 0, 2, 3.715096235275269
0, 0, 3, 1.56058669090271
0, 0, 4, 3.325977087020874
0, 0, 5, 2.866702318191528
0, 0, 6, 7.236232757568359
0, 0, 7, 9.418779373168945
0, 0, 8, 3.883092880249023
0, 0, 9, 5.167503833770752
0, 0, 10, 8.823714256286621
0, 0, 11, 4.635509490966797
0, 0, 12, 3.903469085693359
0, 0, 13, 5.602049827575684
0, 0, 14, 6.937884330749512
0, 0, 15, 10.44535255432129
0, 0, 16, 9.947759628295898
0, 0, 17, 9.481198310852051
0, 0, 18, 13.58488273620605
0, 0, 19, 42.39022064208984
0, 0, 20, 140.4019012451172
0, 0, 21, 225.0368804931641
0, 0, 22, 250.0521240234375
0, 0, 23, 257.4726257324219
0, 0, 24, 250.7679290771484
0, 0, 25, 259.7640075683594
0, 0, 26, 235.5581207275391
0, 0, 27, 240.1982269287109
0, 0, 28, 273.3775634765625
0, 0, 29, 251.99365234375
0, 0, 30, 234.4132232666016
0, 0, 31, 244.6533813476562
0, 0, 32, 263.3918762207031
0, 0, 33, 260.9077453613281
0, 0, 34, 289.0176696777344
0, 0, 35, 266.3769226074219
0, 0, 36, 246.8730010986328
0, 0, 37, 253.1061401367188
0, 0, 38, 270.0547790527344
0, 0, 39, 230.9698181152344
0, 0, 40, 243.594970703125
0, 0, 41, 265.0116577148438
0, 0, 42, 229.6973724365234
0, 0, 43, 261.3168029785156
0, 0, 44, 250.9199829101562
0, 0, 45, 253.6696166992188
0, 0, 46, 245.5998229980469
0, 0, 47, 252.7258605957031
0, 0, 48, 266.8787231445312
0, 0, 49, 274.4700012207031
0, 0, 50, 251.6541900634766
0, 0, 51, 253.1709136962891
0, 0, 52, 272.1900329589844
0, 0, 53, 290.691650390625
0, 0, 54, 243.0859069824219
0, 0, 55, 239.8962554931641
0, 0, 56, 278.5327453613281
0, 0, 57, 262.9480285644531
0, 0, 58, 246.4568939208984
0, 0, 59, 272.2835998535156
0, 0, 60, 233.4492492675781
0, 0, 61, 244.2734527587891
0, 0, 62, 258.0515747070312
0, 0, 63, 267.5455627441406
0, 0, 64, 257.9019470214844
0, 0, 65, 261.0854797363281
0, 0, 66, 276.6894226074219
0, 0, 67, 247.0142059326172
0, 0, 68, 259.1979064941406
0, 0, 69, 263.1378479003906
0, 0, 70, 273.8169555664062
0, 0, 71, 237.1672668457031
0, 0, 72, 250.8889007568359
0, 0, 73, 259.3766479492188
0, 0, 74, 251.1281890869141
0, 0, 75, 239.9201354980469
0, 0, 76, 228.2814788818359
0, 0, 77, 262.4751892089844
0, 0, 78, 256.2239685058594
0, 0, 79, 277.3043518066406
0, 0, 80, 216.4442138671875
0, 0, 81, 266.7623901367188
0, 0, 82, 256.9960632324219
0, 0, 83, 248.5311126708984
0, 0, 84, 270.0971984863281
0, 0, 85, 232.0522155761719
0, 0, 86, 253.6857299804688
0, 0, 87, 251.0733337402344
0, 0, 88, 260.9501647949219
0, 0, 89, 283.6410827636719
0, 0, 90, 244.8600463867188
0, 0, 91, 280.2495422363281
0, 0, 92, 251.8551940917969
0, 0, 93, 249.5644683837891
0, 0, 94, 249.0506744384766
0, 0, 95, 248.5769500732422
0, 0, 96, 273.8590698242188
0, 0, 97, 272.5429077148438
0, 0, 98, 273.6781311035156
0, 0, 99, 258.1776123046875
0, 0, 100, 259.0921020507812
0, 0, 101, 225.9843444824219
0, 0, 102, 230.8158874511719
0, 0, 103, 271.3956298828125
0, 0, 104, 255.9023284912109
0, 0, 105, 251.5011749267578
0, 0, 106, 246.3567810058594
0, 0, 107, 151.5226135253906
0, 0, 108, 38.34735870361328
0, 0, 109, 13.89170742034912
0, 0, 110, 12.37615489959717
0, 0, 111, 8.85394287109375
0, 0, 112, 7.827280521392822
0, 0, 113, 5.793923854827881
0, 0, 114, 6.1609206199646
0, 0, 115, 4.773030757904053
0, 0, 116, 5.109028339385986
0, 0, 117, 8.601516723632812
0, 0, 118, 6.452550411224365
0, 0, 119, 2.781244277954102
0, 0, 120, 5.4574294090271
0, 0, 121, 3.833220958709717
0, 0, 122, 3.852500915527344
0, 0, 123, 5.957321166992188
0, 0, 124, 3.313787698745728
0, 0, 125, 3.30463171005249
0, 0, 126, 3.541277647018433
0, 0, 127, 5.666627883911133
0, 1, 0, 8.560085296630859
0, 1, 1, 3.578000783920288
0, 1, 2, 4.77534818649292
0, 1, 3, 2.684562206268311
0, 1, 4, 3.510242700576782
0, 1, 5, 2.004702806472778
0, 1, 6, 3.11759614944458
0, 1, 7, 2.231736183166504
0, 1, 8, 6.703526020050049
0, 1, 9, 3.872690677642822
0, 1, 10, 8.497250556945801
0, 1, 11, 10.77392387390137
0, 1, 12, 9.429999351501465
0, 1, 13, 11.08643054962158
0, 1, 14, 7.614714622497559
0, 1, 15, 8.098752021789551
0, 1, 16, 11.67315196990967
0, 1, 17, 11.5662088394165
0, 1, 18, 22.01102828979492
0, 1, 19, 68.56465911865234
0, 1, 20, 197.5776062011719
0, 1, 21, 255.8126220703125
0, 1, 22, 295.7470397949219
0, 1, 23, 282.0488586425781
0, 1, 24, 276.7577514648438
0, 1, 25, 288.1705017089844
0, 1, 26, 268.7584228515625
0, 1, 27, 305.8096008300781
0, 1, 28, 299.52197265625
0, 1, 29, 295.9672241210938
0, 1, 30, 279.6416931152344
0, 1, 31, 290.8603515625
0, 1, 32, 291.5816345214844
0, 1, 33, 296.6736145019531
0, 1, 34, 292.6959838867188
0, 1, 35, 280.4942321777344
0, 1, 36, 307.8281860351562
0, 1, 37, 295.0992736816406
0, 1, 38, 283.9064636230469
0, 1, 39, 294.9078674316406
0, 1, 40, 266.7473754882812
0, 1, 41, 287.4007568359375
0, 1, 42, 290.5703125
0, 1, 43, 332.1888732910156
0, 1, 44, 278.0390930175781
0, 1, 45, 294.0557861328125
0, 1, 46, 259.1599731445312
0, 1, 47, 310.6437683105469
0, 1, 48, 284.4792785644531
0, 1, 49, 302.6124877929688
0, 1, 50, 261.7558288574219
0, 1, 51, 271.0555725097656
0, 1, 52, 295.2182006835938
0, 1, 53, 307.2053527832031
0, 1, 54, 276.785400390625
0, 1, 55, 294.0719909667969
0, 1, 56, 278.3937072753906
0, 1, 57, 296.3380737304688
0, 1, 58, 309.4113464355469
0, 1, 59, 292.7616271972656
0, 1, 60, 296.8298034667969
0, 1, 61, 274.8337707519531
0, 1, 62, 307.316650390625
0, 1, 63, 288.4068298339844
0, 1, 64, 290.2804260253906
0, 1, 65, 295.8568725585938
0, 1, 66, 292.6288452148438
0, 1, 67, 292.6553649902344
0, 1, 68, 278.6606140136719
0, 1, 69, 281.5552978515625
0, 1, 70, 272.7751770019531
0, 1, 71, 274.904541015625
0, 1, 72, 286.8749694824219
0, 1, 73, 304.5023498535156
0, 1, 74, 302.2770690917969
0, 1, 75, 293.0429382324219
0, 1, 76, 285.1676940917969
0, 1, 77, 289.5883178710938
0, 1, 78, 295.3624572753906
0, 1, 79, 300.7413330078125
0, 1, 80, 295.2800903320312
0, 1, 81, 300.4869384765625
0, 1, 82, 282.9641723632812
0, 1, 83, 331.1929321289062
0, 1, 84, 308.283447265625
0, 1, 85, 252.6181793212891
0, 1, 86, 293.1059875488281
0, 1, 87, 289.8886108398438
0, 1, 88, 299.0725708007812
0, 1, 89, 288.6588745117188
0, 1, 90, 269.2485961914062
0, 1, 91, 318.3130493164062
0, 1, 92, 291.5352783203125
0, 1, 93, 286.0710754394531
0, 1, 94, 304.4823303222656
0, 1, 95, 283.6204223632812
0, 1, 96, 284.0691528320312
0, 1, 97, 301.0987854003906
0, 1, 98, 276.8179626464844
0, 1, 99, 267.1807556152344
0, 1, 100, 276.6644897460938
0, 1, 101, 282.4374389648438
0, 1, 102, 278.3302612304688
0, 1, 103, 282.0824890136719
0, 1, 104, 306.5181884765625
0, 1, 105, 298.5122680664062
0, 1, 106, 261.2188415527344
0, 1, 107, 192.5895385742188
0, 1, 108, 82.68451690673828
0, 1, 109, 24.66918754577637
0, 1, 110, 10.81496810913086
0, 1, 111, 9.094264984130859
0, 1, 112, 12.94554042816162
0, 1, 113, 5.403922557830811
0, 1, 114, 6.762064456939697
0, 1, 115, 7.275720596313477
0, 1, 116, 13.43833255767822
0, 1, 117, 7.148252010345459
0, 1, 118, 5.74156665802002
0, 1, 119, 6.569435596466064
0, 1, 120, 6.616399765014648
0, 1, 121, 6.47787618637085
0, 1, 122, 2.574060678482056
0, 1, 123, 8.177990913391113
0, 1, 124, 8.920487403869629
0, 1, 125, 4.348764419555664
0, 1, 126, 3.788147211074829
0, 1, 127, 1.251494407653809
0, 2, 0, 7.655239105224609
0, 2, 1, 2.540116548538208
0, 2, 2, 3.605426788330078
0, 2, 3, 4.818707942962646
0, 2, 4, 3.629316568374634
0, 2, 5, 1.567109704017639
0, 2, 6, 2.508810043334961
0, 2, 7, 4.144372463226318
0, 2, 8, 5.817769050598145
0, 2, 9, 6.300300598144531
0, 2, 10, 6.787072658538818
0, 2, 11, 5.737963676452637
0, 2, 12, 7.419899463653564
0, 2, 13, 9.17365550994873
0, 2, 14, 10.2145299911499
0, 2, 15, 8.523263931274414
0, 2, 16, 8.080368995666504
0, 2, 17, 17.25728988647461
0, 2, 18, 29.494140625
0, 2, 19, 116.6363372802734
0, 2, 20, 244.5773162841797
0, 2, 21, 270.2630920410156
0, 2, 22, 314.1871337890625
0, 2, 23, 300.5444641113281
0, 2, 24, 287.6124267578125
0, 2, 25, 301.8812561035156
0, 2, 26, 292.1079711914062
0, 2, 27, 274.9517517089844
0, 2, 28, 272.8436279296875
0, 2, 29, 274.73095703125
0, 2, 30, 292.9431762695312
0, 2, 31, 278.4346313476562
0, 2, 32, 293.9096984863281
0, 2, 33, 281.7772827148438
0, 2, 34, 335.4557189941406
0, 2, 35, 287.9844665527344
0, 2, 36, 302.1585998535156
0, 2, 37, 316.8621520996094
0, 2, 38, 310.3773193359375
0, 2, 39, 266.2732543945312
0, 2, 40, 305.6231079101562
0, 2, 41, 291.3334655761719
0, 2, 42, 304.4223022460938
0, 2, 43, 312.1181945800781
0, 2, 44, 313.5980224609375
0, 2, 45, 325.145263671875
0, 2, 46, 286.5541381835938
0, 2, 47, 303.9138793945312
0, 2, 48, 280.577392578125
0, 2, 49, 277.2667236328125
0, 2, 50, 295.156982421875
0, 2, 51, 285.1050720214844
0, 2, 52, 272.9740905761719
0, 2, 53, 288.7247924804688
0, 2, 54, 279.8504333496094
0, 2, 55, 276.5473937988281
0, 2, 56, 301.8384094238281
0, 2, 57, 293.0692138671875
0, 2, 58, 302.9837951660156
0, 2, 59, 288.9214172363281
0, 2, 60, 318.7826843261719
0, 2, 61, 301.4646606445312
0, 2, 62, 314.9856872558594
0, 2, 63, 300.1989440917969
0, 2, 64, 295.8822021484375
0, 2, 65, 315.7290344238281
0, 2, 66, 280.02734375
0, 2, 67, 290.7251586914062
0, 2, 68, 296.4030456542969
0, 2, 69, 312.7995910644531
0, 2, 70, 334.9572143554688
0, 2, 71, 283.9705200195312
0, 2, 72, 300.9205932617188
0, 2, 73, 309.5738220214844
0, 2, 74, 287.2226257324219
0, 2, 75, 309.4892883300781
0, 2, 76, 286.7900695800781
0, 2, 77, 298.0735473632812
0, 2, 78, 318.2212524414062
0, 2, 79, 309.6982421875
0, 2, 80, 297.0040283203125
0, 2, 81, 283.6324462890625
0, 2, 82, 317.9411315917969
0, 2, 83, 313.98779296875
0, 2, 84, 288.3207397460938
0, 2, 85, 283.6539001464844
0, 2, 86, 324.6893310546875
0, 2, 87, 287.1619873046875
0, 2, 88, 279.6499633789062
0, 2, 89, 294.53271484375
0, 2, 90, 294.3331298828125
0, 2, 91, 276.2598876953125
0, 2, 92, 307.0270690917969
0, 2, 93, 315.5503234863281
0, 2, 94, 291.3001098632812
0, 2, 95, 315.0357360839844
0, 2, 96, 314.9254455566406
0, 2, 97, 293.2611389160156
0, 2, 98, 293.1554870605469
0, 2, 99, 273.0957946777344
0, 2, 100, 304.90966796875
0, 2, 101, 300.6897583007812
0, 2, 102, 297.1230163574219
0, 2, 103, 294.7431335449219
0, 2, 104, 295.7366638183594
0, 2, 105, 274.7111206054688
0, 2, 106, 297.0661010742188
0, 2, 107, 267.3276672363281
0, 2, 108, 115.9783020019531
0, 2, 109, 33.80525970458984
0, 2, 110, 9.202255249023438
0, 2, 111, 11.36977863311768
0, 2, 112, 9.050868034362793
0, 2, 113, 9.284060478210449
0, 2, 114, 10.75922775268555
0, 2, 115, 9.002485275268555
0, 2, 116, 10.32841014862061
0, 2, 117, 7.553853034973145
0, 2, 118, 4.952683448791504
0, 2, 119, 5.459728717803955
0, 2, 120, 6.326022624969482
0, 2, 121, 1.492997169494629
0, 2, 122, 5.623575687408447
0, 2, 123, 4.031821250915527
0, 2, 124, 3.423219919204712
0, 2, 125, 4.217238903045654
0, 2, 126, 3.884236335754395
0, 2, 127, 5.601968288421631
0, 3, 0, 3.652896404266357
0, 3, 1, 3.204287052154541
0, 3, 2, 2.575582504272461
0, 3, 3, 1.261599898338318
0, 3, 4, 4.017019748687744
0, 3, 5, 7.361848831176758
0, 3, 6, 7.385964393615723
0, 3, 7, 4.653975486755371
0, 3, 8, 5.31590747833252
0, 3, 9, 5.127541542053223
0, 3, 10, 6.410569190979004
0, 3, 11, 5.215254306793213
0, 3, 12, 9.022942543029785
0, 3, 13, 16.52168655395508
0, 3, 14, 10.89724254608154
0, 3, 15, 12.52780723571777
0, 3, 16, 11.41438388824463
0, 3, 17, 17.94899940490723
0, 3, 18, 52.93552017211914
0, 3, 19, 174.9497222900391
0, 3, 20, 270.2691955566406
0, 3, 21, 272.0781555175781
0, 3, 22, 282.2812805175781
0, 3, 23, 286.0643310546875
0, 3, 24, 287.1449584960938
0, 3, 25, 271.6914672851562
0, 3, 26, 304.6775512695312
0, 3, 27, 291.5631713867188
0, 3, 28, 279.1031799316406
0, 3, 29, 337.1645202636719
0, 3, 30, 315.2479553222656
0, 3, 31, 284.7861328125
0, 3, 32, 306.9164733886719
0, 3, 33, 312.8677062988281
0, 3, 34, 323.7322387695312
0, 3, 35, 307.0862121582031
0, 3, 36, 269.0756530761719
0, 3, 37, 314.7304992675781
0, 3, 38, 305.4386901855469
0, 3, 39, 288.1566772460938
0, 3, 40, 267.2933044433594
0, 3, 41, 301.1412048339844
0, 3, 42, 285.82958984375
0, 3, 43, 305.4939270019531
0, 3, 44, 314.3202209472656
0, 3, 45, 290.4292602539062
0, 3, 46, 329.15576171875
0, 3, 47, 299.1090393066406
0, 3, 48, 304.0175476074219
0, 3, 49, 275.6167602539062
0, 3, 50, 290.2055969238281
0, 3, 51, 278.1666870117188
0, 3, 52, 316.364990234375
0, 3, 53, 287.1141662597656
0, 3, 54, 283.5442199707031
0, 3, 55, 284.4915466308594
0, 3, 56, 297.7831420898438
0, 3, 57, 289.08056640625
0, 3, 58, 306.0893249511719
0, 3, 59, 296.2430114746094
0, 3, 60, 297.7573852539062
0, 3, 61, 263.7340087890625
0, 3, 62, 287.7890319824219
0, 3, 63, 308.22900390625
0, 3, 64, 317.3517761230469
0, 3, 65, 304.9824829101562
0, 3, 66, 313.5214538574219
0, 3, 67, 317.5010070800781
0, 3, 68, 278.8197631835938
0, 3, 69, 282.2551574707031
0, 3, 70, 290.8186645507812
0, 3, 71, 297.7389221191406
0, 3, 72, 269.7814025878906
0, 3, 73, 307.6110229492188
0, 3, 74, 293.0564880371094
0, 3, 75, 291.8900756835938
0, 3, 76, 306.970458984375
0, 3, 77, 313.5823669433594
0, 3, 78, 307.6614379882812
0, 3, 79, 283.4418640136719
0, 3, 80, 291.0090637207031
0, 3, 81, 311.7591857910156
0, 3, 82, 315.8102416992188
0, 3, 83, 302.6620178222656
0, 3, 84, 310.7185974121094
0, 3, 85, 294.0744323730469
0, 3, 86, 303.8378601074219
0, 3, 87, 300.2142028808594
0, 3, 88, 298.7403259277344
0, 3, 89, 298.3349914550781
0, 3, 90, 277.0972595214844
0, 3, 91, 284.8804321289062
0, 3, 92, 304.9733581542969
0, 3, 93, 312.8049926757812
0, 3, 94, 298.0285339355469
0, 3, 95, 335.2242736816406
0, 3, 96, 289.7024230957031
0, 3, 97, 280.8542175292969
0, 3, 98, 280.4022521972656
0, 3, 99, 262.48828125
0, 3, 100, 283.9850158691406
0, 3, 101, 295.7394104003906
0, 3, 102, 274.5765380859375
0, 3, 103, 319.2436828613281
0, 3, 104, 307.6002197265625
0, 3, 105, 289.728515625
0, 3, 106, 300.9328308105469
0, 3, 107, 282.7687377929688
0, 3, 108, 167.0589752197266
0, 3, 109, 60.1022834777832
0, 3, 110, 19.39400863647461
0, 3, 111, 11.72685527801514
0, 3, 112, 12.64419269561768
0, 3, 113, 5.452375888824463
0, 3, 114, 12.30909538269043
0, 3, 115, 9.70382022857666
0, 3, 116, 7.117582321166992
0, 3, 117, 6.993419647216797
0, 3, 118, 5.689957141876221
0, 3, 119, 6.043657302856445
0, 3, 120, 4.110172748565674
0, 3, 121, 1.96039891242981
0, 3, 122, 3.699575662612915
0, 3, 123, 4.690128326416016
0, 3, 124, 2.943195343017578
0, 3, 125, 5.817782878875732
0, 3, 126, 4.11374044418335
0, 3, 127, 4.426922798156738
0, 4, 0, 3.060119390487671
0, 4, 1, 6.926380157470703
0, 4, 2, 4.125835418701172
0, 4, 3, 2.572134256362915
0, 4, 4, 7.041943073272705
0, 4, 5, 9.564099311828613
0, 4, 6, 5.992708206176758
0, 4, 7, 3.811862945556641
0, 4, 8, 4.424188613891602
0, 4, 9, 7.123486042022705
0, 4, 10, 5.955550670623779
0, 4, 11, 7.340550422668457
0, 4, 12, 6.499223232269287
0, 4, 13, 7.653587818145752
0, 4, 14, 10.83128833770752
0, 4, 15, 11.34850406646729
0, 4, 16, 13.00136756896973
0, 4, 17, 17.58087539672852
0, 4, 18, 93.37302398681641
0, 4, 19, 221.6465301513672
0, 4, 20, 283.6895751953125
0, 4, 21, 272.2476806640625
0, 4, 22, 306.3479919433594
0, 4, 23, 266.6388854980469
0, 4, 24, 290.1546936035156
0, 4, 25, 272.4784851074219
0, 4, 26, 296.2541809082031
0, 4, 27, 283.0437927246094
0, 4, 28, 306.5508422851562
0, 4, 29, 322.9873046875
0, 4, 30, 309.89697265625
0, 4, 31, 304.2664794921875
0, 4, 32, 282.0946960449219
0, 4, 33, 295.0263977050781
0, 4, 34, 295.9456787109375
0, 4, 35, 312.1596984863281
0, 4, 36, 291.4794921875
0, 4, 37, 285.1503601074219
0, 4, 38, 302.0760498046875
0, 4, 39, 296.1268920898438
0, 4, 40, 303.2544860839844
0, 4, 41, 311.324462890625
0, 4, 42, 332.5919799804688
0, 4, 43, 296.2395935058594
0, 4, 44, 320.0673828125
0, 4, 45, 322.8385620117188
0, 4, 46, 306.1578063964844
0, 4, 47, 293.5367126464844
0, 4, 48, 295.1454467773438
0, 4, 49, 278.9910888671875
0, 4, 50, 297.2305603027344
0, 4, 51, 315.7956237792969
0, 4, 52, 328.051025390625
0, 4, 53, 303.7676391601562
0, 4, 54, 287.2048645019531
0, 4, 55, 316.6327514648438
0, 4, 56, 289.2245788574219
0, 4, 57, 310.2687377929688
0, 4, 58, 296.7054748535156
0, 4, 59, 308.0157470703125
0, 4, 60, 304.2946472167969
0, 4, 61, 316.3932189941406
0, 4, 62, 307.1933898925781
0, 4, 63, 300.452880859375
0, 4, 64, 330.2095031738281
0, 4, 65, 315.3228149414062
0, 4, 66, 293.8451232910156
0, 4, 67, 283.6582946777344
0, 4, 68, 311.8990173339844
0, 4, 69, 276.2298889160156
0, 4, 70, 298.5553588867188
0, 4, 71, 323.0472412109375
0, 4, 72, 334.4061279296875
0, 4, 73, 299.8238830566406
0, 4, 74, 293.7413635253906
0, 4, 75, 289.6278686523438
0, 4, 76, 277.2557678222656
0, 4, 77, 277.8891296386719
0, 4, 78, 308.118896484375
0, 4, 79, 319.3687133789062
0, 4, 80, 314.7724609375
0, 4, 81, 312.5925598144531
0, 4, 82, 297.7254943847656
0, 4, 83, 299.2920837402344
0, 4, 84, 292.4784240722656
0, 4, 85, 293.6515808105469
0, 4, 86, 298.3443908691406
0, 4, 87, 284.8683471679688
0, 4, 88, 307.0428771972656
0, 4, 89, 294.06298828125
0, 4, 90, 332.2963256835938
0, 4, 91, 301.6910705566406
0, 4, 92, 289.8302612304688
0, 4, 93, 296.8674011230469
0, 4, 94, 294.177001953125
0, 4, 95, 292.2103881835938
0, 4, 96, 321.561279296875
0, 4, 97, 274.7332153320312
0, 4, 98, 327.6286315917969
0, 4, 99, 314.9071655273438
0, 4, 100, 302.2645263671875
0, 4, 101, 258.9153747558594
0, 4, 102, 296.9139709472656
0, 4, 103, 317.6510620117188
0, 4, 104, 280.9734802246094
0, 4, 105, 309.8139038085938
0, 4, 106, 286.4993896484375
0, 4, 107, 297.0378723144531
0, 4, 108, 227.7815856933594
0, 4, 109, 80.32084655761719
0, 4, 110, 16.97929000854492
0, 4, 111, 13.32591247558594
0, 4, 112, 10.47189044952393
0, 4, 113, 12.02493953704834
0, 4, 114, 7.195632457733154
0, 4, 115, 12.13207912445068
0, 4, 116, 10.30513191223145
0, 4, 117, 6.185641765594482
0, 4, 118, 8.572579383850098
0, 4, 119, 9.433252334594727
0, 4, 120, 6.138888835906982
0, 4, 121, 6.220944404602051
0, 4, 122, 3.926890134811401
0, 4, 123, 7.006705760955811
0, 4, 124, 5.910225391387939
0, 4, 125, 8.233685493469238
0, 4, 126, 3.844779253005981
0, 4, 127, 3.7518150806427
0, 5, 0, 3.395657062530518
0, 5, 1, 2.649231910705566
0, 5, 2, 6.335059642791748
0, 5, 3, 5.44138240814209
0, 5, 4, 6.546462535858154
0, 5, 5, 5.002189636230469
0, 5, 6, 8.569705963134766
0, 5, 7, 4.13330602645874
0, 5, 8, 3.653423309326172
0, 5, 9, 5.868688106536865
0, 5, 10, 7.660094261169434
0, 5, 11, 7.202739715576172
0, 5, 12, 9.325216293334961
0, 5, 13, 6.585707187652588
0, 5, 14, 12.79478931427002
0, 5, 15, 15.50162696838379
0, 5, 16, 17.64403343200684
0, 5, 17, 31.07204437255859
0, 5, 18, 140.5858001708984
0, 5, 19, 288.295166015625
0, 5, 20, 307.8460998535156
0, 5, 21, 317.0569763183594
0, 5, 22, 275.4627990722656
0, 5, 23, 311.5140380859375
0, 5, 24, 301.6476745605469
0, 5, 25, 289.6257934570312
0, 5, 26, 294.3791809082031
0, 5, 27, 321.3507690429688
0, 5, 28, 301.9882507324219
0, 5, 29, 299.9661254882812
0, 5, 30, 326.3624267578125
0, 5, 31, 291.8939819335938
0, 5, 32, 306.2069396972656
0, 5, 33, 304.1951599121094
0, 5, 34, 299.9601745605469
0, 5, 35, 310.0348205566406
0, 5, 36, 269.7630615234375
0, 5, 37, 283.6814575195312
0, 5, 38, 294.3492431640625
0, 5, 39, 311.6713256835938
0, 5, 40, 307.6918640136719
0, 5, 41, 272.3072814941406
0, 5, 42, 305.3088989257812
0, 5, 43, 317.5654907226562
0, 5, 44, 291.8900756835938
0, 5, 45, 304.6570434570312
0, 5, 46, 267.0401611328125
0, 5, 47, 279.8296508789062
0, 5, 48, 292.7332153320312
0, 5, 49, 286.1192932128906
0, 5, 50, 292.4735717773438
0, 5, 51, 277.5554809570312
0, 5, 52, 268.2731323242188
0, 5, 53, 284.9609069824219
0, 5, 54, 291.7932739257812
0, 5, 55, 345.0755004882812
0, 5, 56, 307.2649230957031
0, 5, 57, 309.3100280761719
0, 5, 58, 311.0715637207031
0, 5, 59, 301.2631225585938
0, 5, 60, 307.0443420410156
0, 5, 61, 282.8729858398438
0, 5, 62, 328.7485046386719
0, 5, 63, 288.1579895019531
0, 5, 64, 323.6124267578125
0, 5, 65, 306.7331237792969
0, 5, 66, 327.8752746582031
0, 5, 67, 312.8877563476562
0, 5, 68, 306.6749267578125
0, 5, 69, 310.5615539550781
0, 5, 70, 301.0414123535156
0, 5, 71, 272.7676391601562
0, 5, 72, 308.183349609375
0, 5, 73, 302.8984375
0, 5, 74, 295.6595153808594
0, 5, 75, 294.1666564941406
0, 5, 76, 285.2180480957031
0, 5, 77, 296.7884521484375
0, 5, 78, 313.4850158691406
0, 5, 79, 307.0755920410156
0, 5, 80, 296.2471618652344
0, 5, 81, 324.8337097167969
0, 5, 82, 323.1870727539062
0, 5, 83, 283.7535400390625
0, 5, 84, 301.4374084472656
0, 5, 85, 271.1815185546875
0, 5, 86, 325.1279296875
0, 5, 87, 282.7090148925781
0, 5, 88, 312.6653137207031
0, 5, 89, 304.9182739257812
0, 5, 90, 317.9336853027344
0, 5, 91, 312.1564331054688
0, 5, 92, 297.6575317382812
0, 5, 93, 323.0601196289062
0, 5, 94, 309.0664978027344
0, 5, 95, 296.1558837890625
0, 5, 96, 296.2232971191406
0, 5, 97, 297.7893676757812
0, 5, 98, 318.6725158691406
0, 5, 99, 302.4715576171875
0, 5, 100, 290.5470581054688
0, 5, 101, 305.7488708496094
0, 5, 102, 292.4546813964844
0, 5, 103, 314.02490234375
0, 5, 104, 302.329345703125
0, 5, 105, 292.5681762695312
0, 5, 106, 281.6088256835938
0, 5, 107, 292.1790466308594
0, 5, 108, 266.277587890625
0, 5, 109, 158.2140960693359
0, 5, 110, 40.26848220825195
0, 5, 111, 20.34075546264648
0, 5, 112, 15.35655784606934
0, 5, 113, 13.36936569213867
0, 5, 114, 12.1317663192749
0, 5, 115, 6.749186992645264
0, 5, 116, 7.60136890411377
0, 5, 117, 9.19902229309082
0, 5, 118, 16.93811416625977
0, 5, 119, 5.965068817138672
0, 5, 120, 6.267904281616211
0, 5, 121, 6.00540018081665
0, 5, 122, 6.244967937469482
0, 5, 123, 4.385213851928711
0, 5, 124, 3.825567007064819
0, 5, 125, 4.92310905456543
0, 5, 126, 5.662261009216309
0, 5, 127, 3.683720827102661
0, 6, 0, 3.749385118484497
0, 6, 1, 3.665568113327026
0, 6, 2, 4.92911958694458
0, 6, 3, 6.412356376647949
0, 6, 4, 2.343661308288574
0, 6, 5, 5.85125207901001
0, 6, 6, 9.031430244445801
0, 6, 7, 6.675780773162842
0, 6, 8, 10.06907653808594
0, 6, 9, 7.733704090118408
0, 6, 10, 6.539639472961426
0, 6, 11, 6.322285652160645
0, 6, 12, 11.8748025894165
0, 6, 13, 13.01721668243408
0, 6, 14, 7.595691204071045
0, 6, 15, 15.33005237579346
0, 6, 16, 28.40149307250977
0, 6, 17, 56.80102157592773
0, 6, 18, 174.3023223876953
0, 6, 19, 276.6288146972656
0, 6, 20, 290.7441101074219
0, 6, 21, 314.4171447753906
0, 6, 22, 320.4006042480469
0, 6, 23, 303.1585388183594
0, 6, 24, 318.2887878417969
0, 6, 25, 316.3540344238281
0, 6, 26, 318.4999694824219
0, 6, 27, 330.6447143554688
0, 6, 28, 300.5693359375
0, 6, 29, 333.341552734375
0, 6, 30, 283.555908203125
0, 6, 31, 285.7075805664062
0, 6, 32, 339.6036987304688
0, 6, 33, 299.4289855957031
0, 6, 34, 341.5260314941406
0, 6, 35, 319.7093505859375
0, 6, 36, 275.3075561523438
0, 6, 37, 288.99267578125
0, 6, 38, 310.4049377441406
0, 6, 39, 300.9195556640625
0, 6, 40, 284.73779296875
0, 6, 41, 294.7345886230469
0, 6, 42, 303.7348022460938
0, 6, 43, 287.5669860839844
0, 6, 44, 280.3007507324219
0, 6, 45, 319.245361328125
0, 6, 46, 300.8047180175781
0, 6, 47, 332.2194519042969
0, 6, 48, 296.9960021972656
0, 6, 49, 311.1968383789062
0, 6, 50, 329.3268432617188
0, 6, 51, 309.6376342773438
0, 6, 52, 320.3398132324219
0, 6, 53, 326.4913635253906
0, 6, 54, 305.0437622070312
0, 6, 55, 304.2144165039062
0, 6, 56, 294.3317260742188
0, 6, 57, 312.0843505859375
0, 6, 58, 261.0867919921875
0, 6, 59, 304.4995422363281
0, 6, 60, 313.0243225097656
0, 6, 61, 272.6052856445312
0, 6, 62, 335.194580078125
0, 6, 63, 322.6357421875
0, 6, 64, 291.7943725585938
0, 6, 65, 283.6157836914062
0, 6, 66, 305.4787902832031
0, 6, 67, 312.1356811523438
0, 6, 68, 293.3639831542969
0, 6, 69, 279.3061828613281
0, 6, 70, 274.6795654296875
0, 6, 71, 288.57275390625
0, 6, 72, 310.3301391601562
0, 6, 73, 293.4517822265625
0, 6, 74, 332.1141052246094
0, 6, 75, 344.6647033691406
0, 6, 76, 297.2878112792969
0, 6, 77, 285.1423034667969
0, 6, 78, 277.7281188964844
0, 6, 79, 292.9510498046875
0, 6, 80, 298.2246398925781
0, 6, 81, 314.0852355957031
0, 6, 82, 318.7002563476562
0, 6, 83, 318.4530639648438
0, 6, 84, 297.4072265625
0, 6, 85, 301.6659240722656
0, 6, 86, 329.853759765625
0, 6, 87, 291.2205200195312
0, 6, 88, 307.0080261230469
0, 6, 89, 305.0096740722656
0, 6, 90, 300.3798522949219
0, 6, 91, 312.433349609375
0, 6, 92, 282.7705078125
0, 6, 93, 297.6892700195312
0, 6, 94, 271.895751953125
0, 6, 95, 300.2969970703125
0, 6, 96, 345.7710266113281
0, 6, 97, 307.2231750488281
0, 6, 98, 300.7791442871094
0, 6, 99, 271.5063171386719
0, 6, 100, 308.8498840332031
0, 6, 101, 292.8547668457031
0, 6, 102, 308.4851379394531
0, 6, 103, 307.8816528320312
0, 6, 104, 290.4816589355469
0, 6, 105, 302.2944030761719
0, 6, 106, 306.4377746582031
0, 6, 107, 305.6800842285156
0, 6, 108, 265.3203735351562
0, 6, 109, 185.9268951416016
0, 6, 110, 54.74885177612305
0, 6, 111, 22.46305656433105
0, 6, 112, 12.09995269775391
0, 6, 113, 11.00599479675293
0, 6, 114, 12.96908760070801
0, 6, 115, 11.37975311279297
0, 6, 116, 9.2655029296875
0, 6, 117, 5.560085773468018
0, 6, 118, 8.504727363586426
0, 6, 119, 6.946523666381836
0, 6, 120, 5.392289161682129
0, 6, 121, 7.613467216491699
0, 6, 122, 6.59235143661499
0, 6, 123, 4.993461608886719
0, 6, 124, 7.834311962127686
0, 6, 125, 7.234813690185547
0, 6, 126, 4.935825824737549
0, 6, 127, 5.309292316436768
0, 7, 0, 3.690101861953735
0, 7, 1, 4.348788261413574
0, 7, 2, 4.834412097930908
0, 7, 3, 5.660397529602051
0, 7, 4, 4.93841552734375
0, 7, 5, 6.00429105758667
0, 7, 6, 6.719255924224854
0, 7, 7, 4.953433990478516
0, 7, 8, 5.012894153594971
0, 7, 9, 5.695775985717773
0, 7, 10, 12.19490432739258
0, 7, 11, 11.92614555358887
0, 7, 12, 9.202592849731445
0, 7, 13, 10.89307594299316
0, 7, 14, 9.441805839538574
0, 7, 15, 19.39180946350098
0, 7, 16, 26.08488273620605
0, 7, 17, 96.18547821044922
0, 7, 18, 218.6749420166016
0, 7, 19, 292.4445190429688
0, 7, 20, 299.2564086914062
0, 7, 21, 276.8284301757812
0, 7, 22, 300.5384521484375
0, 7, 23, 290.3919372558594
0, 7, 24, 314.5556030273438
0, 7, 25, 324.0374755859375
0, 7, 26, 279.2004089355469
0, 7, 27, 297.3598937988281
0, 7, 28, 324.44677734375
0, 7, 29, 316.3924560546875
0, 7, 30, 299.978759765625
0, 7, 31, 276.6317443847656
0, 7, 32, 305.2431640625
0, 7, 33, 262.9903564453125
0, 7, 34, 296.8702392578125
0, 7, 35, 319.1323547363281
0, 7, 36, 329.8612060546875
0, 7, 37, 321.8670959472656
0, 7, 38, 295.3550720214844
0, 7, 39, 306.515869140625
0, 7, 40, 290.3513488769531
0, 7, 41, 272.2258911132812
0, 7, 42, 299.6341247558594
0, 7, 43, 272.7200317382812
0, 7, 44, 302.5260009765625
0, 7, 45, 295.6938781738281
0, 7, 46, 282.89599609375
0, 7, 47, 328.8439636230469
0, 7, 48, 286.2500610351562
0, 7, 49, 301.1065979003906
0, 7, 50, 321.7124633789062
0, 7, 51, 299.1170654296875
0, 7, 52, 328.0337219238281
0, 7, 53, 312.5578918457031
0, 7, 54, 322.7288208007812
0, 7, 55, 307.8709411621094
0, 7, 56, 279.1832580566406
0, 7, 57, 284.4130249023438
0, 7, 58, 296.4974365234375
0, 7, 59, 297.7018127441406
0, 7, 60, 324.3460083007812
0, 7, 61, 276.7701110839844
0, 7, 62, 298.2925720214844
0, 7, 63, 292.7381286621094
0, 7, 64, 308.8971862792969
0, 7, 65, 329.6588439941406
0, 7, 66, 320.0672912597656
0, 7, 67, 301.8493041992188
0, 7, 68, 281.0511779785156
0, 7, 69, 294.7917785644531
0, 7, 70, 301.2074279785156
0, 7, 71, 310.3540649414062
0, 7, 72, 284.9992370605469
0, 7, 73, 298.9190063476562
0, 7, 74, 346.03515625
0, 7, 75, 318.0632019042969
0, 7, 76, 320.9145812988281
0, 7, 77, 280.8743286132812
0, 7, 78, 304.3140258789062
0, 7, 79, 296.1295471191406
0, 7, 80, 316.1810913085938
0, 7, 81, 319.6148376464844
0, 7, 82, 331.1208190917969
0, 7, 83, 316.835205078125
0, 7, 84, 309.1829833984375
0, 7, 85, 271.9346008300781
0, 7, 86, 310.3264465332031
0, 7, 87, 310.2378845214844
0, 7, 88, 308.0280151367188
0, 7, 89, 292.7348327636719
0, 7, 90, 306.8740844726562
0, 7, 91, 316.2674255371094
0, 7, 92, 287.2272644042969
0, 7, 93, 307.1962585449219
0, 7, 94, 272.3744506835938
0, 7, 95, 294.8951416015625
0, 7, 96, 332.9423217773438
0, 7, 97, 293.9007568359375
0, 7, 98, 291.2708740234375
0, 7, 99, 310.6328430175781
0, 7, 100, 282.5623779296875
0, 7, 101, 276.0016784667969
0, 7, 102, 292.8655090332031
0, 7, 103, 291.2793884277344
0, 7, 104, 277.1351928710938
0, 7, 105, 306.4191284179688
0, 7, 106, 317.22412109375
0, 7, 107, 297.3435363769531
0, 7, 108, 275.5716857910156
0, 7, 109, 233.7867431640625
0, 7, 110, 96.93679046630859
0, 7, 111, 26.8389892578125
0, 7, 112, 16.55491256713867
0, 7, 113, 15.60458850860596
0, 7, 114, 16.30023002624512
0, 7, 115, 11.8532018661499
0, 7, 116, 8.811260223388672
0, 7, 117, 5.109395027160645
0, 7, 118, 8.142147064208984
0, 7, 119, 6.331360816955566
0, 7, 120, 4.864785671234131
0, 7, 121, 7.742749691009521
0, 7, 122, 7.907638549804688
0, 7, 123, 5.394972801208496
0, 7, 124, 3.641474723815918
0, 7, 125, 5.71003532409668
0, 7, 126, 8.939908981323242
0, 7, 127, 4.337639808654785
0, 8, 0, 4.896728515625
0, 8, 1, 4.541278839111328
0, 8, 2, 5.612675666809082
0, 8, 3, 4.249001026153564
0, 8, 4, 4.930843830108643
0, 8, 5, 3.612088203430176
0, 8, 6, 4.400260448455811
0, 8, 7, 5.768373012542725
0, 8, 8, 9.054963111877441
0, 8, 9, 6.29763650894165
0, 8, 10, 11.80673599243164
0, 8, 11, 12.36354732513428
0, 8, 12, 12.87272834777832
0, 8, 13, 15.8821964263916
0, 8, 14, 14.83933925628662
0, 8, 15, 18.0677318572998
0, 8, 16, 32.82868194580078
0, 8, 17, 130.3560943603516
0, 8, 18, 243.1092376708984
0, 8, 19, 294.1819763183594
0, 8, 20, 285.2389831542969
0, 8, 21, 307.8206481933594
0, 8, 22, 294.7149353027344
0, 8, 23, 275.2261047363281
0, 8, 24, 269.9191589355469
0, 8, 25, 275.610595703125
0, 8, 26, 305.5321044921875
0, 8, 27, 310.267333984375
0, 8, 28, 303.0419616699219
0, 8, 29, 321.495849609375
0, 8, 30, 314.1187744140625
0, 8, 31, 304.13818359375
0, 8, 32, 279.3578796386719
0, 8, 33, 295.42626953125
0, 8, 34, 291.7149963378906
0, 8, 35, 278.4284057617188
0, 8, 36, 314.9926452636719
0, 8, 37, 340.1441040039062
0, 8, 38, 333.3423156738281
0, 8, 39, 279.5965881347656
