# TOPAS Version: 3.1.p3
# Parameter File: batch_inserts_266.txt
# Results for scorer Readout_Adipose
# Scored in component: MyBox
# X in 1 bin  of 0.75 cm
# Y in 512 bins of 0.0783984 cm
# Z in 128 bins of 0.078125 cm
# EnergyDeposit ( MeV ) : Sum   
0, 0, 0, 4.18004322052002
0, 0, 1, 2.06730318069458
0, 0, 2, 2.773645162582397
0, 0, 3, 1.839681506156921
0, 0, 4, 3.492762088775635
0, 0, 5, 3.473387241363525
0, 0, 6, 5.696771144866943
0, 0, 7, 11.19816589355469
0, 0, 8, 2.47503924369812
0, 0, 9, 3.669531583786011
0, 0, 10, 6.625838279724121
0, 0, 11, 4.393586158752441
0, 0, 12, 4.098006248474121
0, 0, 13, 5.787382125854492
0, 0, 14, 7.190911769866943
0, 0, 15, 8.867944717407227
0, 0, 16, 8.079005241394043
0, 0, 17, 8.709498405456543
0, 0, 18, 13.94020843505859
0, 0, 19, 45.95389556884766
0, 0, 20, 140.6661682128906
0, 0, 21, 223.3884124755859
0, 0, 22, 250.1870880126953
0, 0, 23, 256.0221862792969
0, 0, 24, 250.8274383544922
0, 0, 25, 258.94677734375
0, 0, 26, 233.6992340087891
0, 0, 27, 237.1856842041016
0, 0, 28, 271.9428100585938
0, 0, 29, 252.100830078125
0, 0, 30, 232.0315856933594
0, 0, 31, 242.9427032470703
0, 0, 32, 263.5219421386719
0, 0, 33, 260.4330749511719
0, 0, 34, 289.666748046875
0, 0, 35, 266.8496398925781
0, 0, 36, 245.4756927490234
0, 0, 37, 252.4169006347656
0, 0, 38, 268.0700378417969
0, 0, 39, 231.7749786376953
0, 0, 40, 241.9421081542969
0, 0, 41, 266.6465148925781
0, 0, 42, 230.1132659912109
0, 0, 43, 259.7632141113281
0, 0, 44, 254.0339202880859
0, 0, 45, 253.8560180664062
0, 0, 46, 245.2447662353516
0, 0, 47, 253.9196472167969
0, 0, 48, 267.26416015625
0, 0, 49, 274.5538330078125
0, 0, 50, 250.5221252441406
0, 0, 51, 254.3050994873047
0, 0, 52, 272.1692810058594
0, 0, 53, 291.4808959960938
0, 0, 54, 243.6257934570312
0, 0, 55, 239.9317169189453
0, 0, 56, 277.93798828125
0, 0, 57, 264.7842407226562
0, 0, 58, 248.2701873779297
0, 0, 59, 271.2169494628906
0, 0, 60, 233.7142791748047
0, 0, 61, 247.4258422851562
0, 0, 62, 256.8370971679688
0, 0, 63, 267.3081665039062
0, 0, 64, 254.8859558105469
0, 0, 65, 262.2783813476562
0, 0, 66, 275.8861389160156
0, 0, 67, 249.1315460205078
0, 0, 68, 258.2806091308594
0, 0, 69, 260.5202026367188
0, 0, 70, 271.9591064453125
0, 0, 71, 237.1615447998047
0, 0, 72, 249.641845703125
0, 0, 73, 258.6854553222656
0, 0, 74, 252.5944213867188
0, 0, 75, 239.7913360595703
0, 0, 76, 228.7473754882812
0, 0, 77, 260.096435546875
0, 0, 78, 256.9904174804688
0, 0, 79, 279.5977478027344
0, 0, 80, 218.1409759521484
0, 0, 81, 267.4402770996094
0, 0, 82, 257.4888305664062
0, 0, 83, 245.261474609375
0, 0, 84, 271.0945129394531
0, 0, 85, 230.9291076660156
0, 0, 86, 252.7635498046875
0, 0, 87, 250.709228515625
0, 0, 88, 260.0001831054688
0, 0, 89, 281.21875
0, 0, 90, 246.4041900634766
0, 0, 91, 282.7514038085938
0, 0, 92, 253.0832061767578
0, 0, 93, 249.0590362548828
0, 0, 94, 247.3980865478516
0, 0, 95, 247.9383087158203
0, 0, 96, 276.140625
0, 0, 97, 271.8394470214844
0, 0, 98, 272.6884460449219
0, 0, 99, 257.3988647460938
0, 0, 100, 258.1471862792969
0, 0, 101, 227.0583648681641
0, 0, 102, 232.9630432128906
0, 0, 103, 269.0853271484375
0, 0, 104, 253.780517578125
0, 0, 105, 251.0247497558594
0, 0, 106, 243.9160614013672
0, 0, 107, 151.6240234375
0, 0, 108, 38.09340286254883
0, 0, 109, 12.39485168457031
0, 0, 110, 12.58191776275635
0, 0, 111, 10.92153263092041
0, 0, 112, 7.323550224304199
0, 0, 113, 6.427381992340088
0, 0, 114, 6.443188667297363
0, 0, 115, 5.590693473815918
0, 0, 116, 5.010928630828857
0, 0, 117, 5.888322830200195
0, 0, 118, 7.104824066162109
0, 0, 119, 5.19605827331543
0, 0, 120, 3.001049518585205
0, 0, 121, 5.75358247756958
0, 0, 122, 4.721385478973389
0, 0, 123, 2.917594194412231
0, 0, 124, 6.203246116638184
0, 0, 125, 5.228115558624268
0, 0, 126, 3.929899215698242
0, 0, 127, 4.926173686981201
0, 1, 0, 9.376818656921387
0, 1, 1, 3.418034076690674
0, 1, 2, 4.61677885055542
0, 1, 3, 3.081395149230957
0, 1, 4, 5.697361469268799
0, 1, 5, 4.264799118041992
0, 1, 6, 3.751906871795654
0, 1, 7, 4.4827880859375
0, 1, 8, 7.151697158813477
0, 1, 9, 5.515434265136719
0, 1, 10, 6.933870792388916
0, 1, 11, 12.37253665924072
0, 1, 12, 8.680924415588379
0, 1, 13, 10.89784908294678
0, 1, 14, 7.403798580169678
0, 1, 15, 7.353307723999023
0, 1, 16, 11.14122867584229
0, 1, 17, 10.54403209686279
0, 1, 18, 21.49290657043457
0, 1, 19, 67.75893402099609
0, 1, 20, 202.393798828125
0, 1, 21, 255.9923095703125
0, 1, 22, 294.8363037109375
0, 1, 23, 283.7129516601562
0, 1, 24, 276.3842468261719
0, 1, 25, 288.3188171386719
0, 1, 26, 269.2806091308594
0, 1, 27, 305.8482666015625
0, 1, 28, 300.1892395019531
0, 1, 29, 296.9521789550781
0, 1, 30, 282.0928344726562
0, 1, 31, 291.3295288085938
0, 1, 32, 291.4178771972656
0, 1, 33, 295.9700927734375
0, 1, 34, 291.8620300292969
0, 1, 35, 279.3072509765625
0, 1, 36, 306.1767883300781
0, 1, 37, 296.2537841796875
0, 1, 38, 282.4456176757812
0, 1, 39, 296.6359252929688
0, 1, 40, 264.9989013671875
0, 1, 41, 286.2929077148438
0, 1, 42, 289.3638916015625
0, 1, 43, 333.7047729492188
0, 1, 44, 278.3114624023438
0, 1, 45, 292.6031494140625
0, 1, 46, 258.2646484375
0, 1, 47, 311.3488159179688
0, 1, 48, 282.5354309082031
0, 1, 49, 303.5653991699219
0, 1, 50, 262.6957092285156
0, 1, 51, 271.5643920898438
0, 1, 52, 296.7225952148438
0, 1, 53, 304.4737243652344
0, 1, 54, 277.1954345703125
0, 1, 55, 294.7819213867188
0, 1, 56, 276.9616088867188
0, 1, 57, 300.7913818359375
0, 1, 58, 310.6755065917969
0, 1, 59, 291.0741271972656
0, 1, 60, 297.8630065917969
0, 1, 61, 274.5553283691406
0, 1, 62, 306.8113403320312
0, 1, 63, 286.4098815917969
0, 1, 64, 289.5608825683594
0, 1, 65, 297.2657470703125
0, 1, 66, 291.9027404785156
0, 1, 67, 290.9202575683594
0, 1, 68, 277.1384887695312
0, 1, 69, 281.0867919921875
0, 1, 70, 269.8623657226562
0, 1, 71, 273.9041442871094
0, 1, 72, 284.9143676757812
0, 1, 73, 306.4370422363281
0, 1, 74, 304.3504638671875
0, 1, 75, 290.8205261230469
0, 1, 76, 285.6683959960938
0, 1, 77, 289.0986022949219
0, 1, 78, 298.6674194335938
0, 1, 79, 300.8678283691406
0, 1, 80, 293.9697570800781
0, 1, 81, 300.7884521484375
0, 1, 82, 286.1269226074219
0, 1, 83, 333.3282775878906
0, 1, 84, 308.9824523925781
0, 1, 85, 252.7553253173828
0, 1, 86, 294.607666015625
0, 1, 87, 290.5342102050781
0, 1, 88, 296.95654296875
0, 1, 89, 291.3973999023438
0, 1, 90, 269.0151062011719
0, 1, 91, 317.7729187011719
0, 1, 92, 291.821044921875
0, 1, 93, 286.1564331054688
0, 1, 94, 303.540771484375
0, 1, 95, 284.5415649414062
0, 1, 96, 282.1621704101562
0, 1, 97, 300.0787658691406
0, 1, 98, 278.0207824707031
0, 1, 99, 266.5254821777344
0, 1, 100, 277.5665588378906
0, 1, 101, 282.3326721191406
0, 1, 102, 277.8628540039062
0, 1, 103, 282.3468627929688
0, 1, 104, 308.0677185058594
0, 1, 105, 297.9247741699219
0, 1, 106, 262.9509887695312
0, 1, 107, 193.7098999023438
0, 1, 108, 80.59632873535156
0, 1, 109, 23.54730606079102
0, 1, 110, 11.94978523254395
0, 1, 111, 8.871594429016113
0, 1, 112, 10.34254550933838
0, 1, 113, 4.740817546844482
0, 1, 114, 6.205602169036865
0, 1, 115, 7.079735279083252
0, 1, 116, 12.68640232086182
0, 1, 117, 7.885139942169189
0, 1, 118, 4.582095623016357
0, 1, 119, 7.466137409210205
0, 1, 120, 6.26831579208374
0, 1, 121, 5.797114849090576
0, 1, 122, 3.459438323974609
0, 1, 123, 5.422892570495605
0, 1, 124, 7.323128223419189
0, 1, 125, 3.360015869140625
0, 1, 126, 3.796648979187012
0, 1, 127, 2.455351114273071
0, 2, 0, 4.708490371704102
0, 2, 1, 2.378068685531616
0, 2, 2, 4.921058177947998
0, 2, 3, 3.152818918228149
0, 2, 4, 2.459535360336304
0, 2, 5, 1.442500114440918
0, 2, 6, 2.299306392669678
0, 2, 7, 2.851919889450073
0, 2, 8, 5.158587455749512
0, 2, 9, 7.720120906829834
0, 2, 10, 7.454474925994873
0, 2, 11, 6.848194122314453
0, 2, 12, 6.405289649963379
0, 2, 13, 12.81749725341797
0, 2, 14, 9.979280471801758
0, 2, 15, 7.429933071136475
0, 2, 16, 9.344778060913086
0, 2, 17, 18.20731735229492
0, 2, 18, 32.36732864379883
0, 2, 19, 116.2731781005859
0, 2, 20, 245.7023162841797
0, 2, 21, 270.5156555175781
0, 2, 22, 315.1762084960938
0, 2, 23, 299.9385986328125
0, 2, 24, 287.6326904296875
0, 2, 25, 302.9302978515625
0, 2, 26, 293.644287109375
0, 2, 27, 276.6208801269531
0, 2, 28, 274.4957275390625
0, 2, 29, 273.18408203125
0, 2, 30, 292.5043029785156
0, 2, 31, 281.0908813476562
0, 2, 32, 293.3440551757812
0, 2, 33, 284.486328125
0, 2, 34, 332.9411010742188
0, 2, 35, 289.2756958007812
0, 2, 36, 302.9977722167969
0, 2, 37, 315.227783203125
0, 2, 38, 309.6805114746094
0, 2, 39, 265.5606384277344
0, 2, 40, 307.6496887207031
0, 2, 41, 293.1116943359375
0, 2, 42, 304.3704223632812
0, 2, 43, 311.8951110839844
0, 2, 44, 312.1723022460938
0, 2, 45, 324.1446838378906
0, 2, 46, 287.771240234375
0, 2, 47, 304.0576477050781
0, 2, 48, 281.3354797363281
0, 2, 49, 278.1466979980469
0, 2, 50, 295.6919860839844
0, 2, 51, 284.5659790039062
0, 2, 52, 271.5254211425781
0, 2, 53, 288.1585388183594
0, 2, 54, 279.8211975097656
0, 2, 55, 275.8251647949219
0, 2, 56, 301.5804748535156
0, 2, 57, 290.6441345214844
0, 2, 58, 301.3690490722656
0, 2, 59, 291.1897277832031
0, 2, 60, 319.7940673828125
0, 2, 61, 301.9223022460938
0, 2, 62, 313.1375122070312
0, 2, 63, 302.9548034667969
0, 2, 64, 296.4519348144531
0, 2, 65, 314.7819519042969
0, 2, 66, 280.6017150878906
0, 2, 67, 290.8182373046875
0, 2, 68, 295.8672485351562
0, 2, 69, 313.5480346679688
0, 2, 70, 337.6972961425781
0, 2, 71, 283.7070922851562
0, 2, 72, 304.7380676269531
0, 2, 73, 311.1317443847656
0, 2, 74, 284.6829223632812
0, 2, 75, 306.1911926269531
0, 2, 76, 286.4259948730469
0, 2, 77, 301.0792541503906
0, 2, 78, 314.8443603515625
0, 2, 79, 308.8392028808594
0, 2, 80, 296.8526611328125
0, 2, 81, 282.0693664550781
0, 2, 82, 317.02587890625
0, 2, 83, 312.9649658203125
0, 2, 84, 288.0838623046875
0, 2, 85, 283.8708190917969
0, 2, 86, 325.143798828125
0, 2, 87, 287.5046691894531
0, 2, 88, 280.32763671875
0, 2, 89, 297.1221313476562
0, 2, 90, 296.1165771484375
0, 2, 91, 276.5663757324219
0, 2, 92, 305.3134155273438
0, 2, 93, 316.688232421875
0, 2, 94, 291.3341979980469
0, 2, 95, 314.9560241699219
0, 2, 96, 314.2576904296875
0, 2, 97, 290.80908203125
0, 2, 98, 294.8742065429688
0, 2, 99, 274.2454528808594
0, 2, 100, 306.1364440917969
0, 2, 101, 300.4104919433594
0, 2, 102, 298.5358581542969
0, 2, 103, 291.08447265625
0, 2, 104, 292.5003356933594
0, 2, 105, 276.0848693847656
0, 2, 106, 297.292724609375
0, 2, 107, 271.4418029785156
0, 2, 108, 116.9432525634766
0, 2, 109, 34.85380172729492
0, 2, 110, 9.915651321411133
0, 2, 111, 13.70011806488037
0, 2, 112, 7.991857528686523
0, 2, 113, 9.646956443786621
0, 2, 114, 10.76414585113525
0, 2, 115, 8.224641799926758
0, 2, 116, 7.849761962890625
0, 2, 117, 6.516417026519775
0, 2, 118, 2.926802396774292
0, 2, 119, 4.511100769042969
0, 2, 120, 7.146975994110107
0, 2, 121, 1.298491358757019
0, 2, 122, 4.346224784851074
0, 2, 123, 4.223724365234375
0, 2, 124, 1.937123775482178
0, 2, 125, 4.855698585510254
0, 2, 126, 3.774755954742432
0, 2, 127, 4.802902221679688
0, 3, 0, 4.34581995010376
0, 3, 1, 2.838542461395264
0, 3, 2, 4.206357479095459
0, 3, 3, 2.969620227813721
0, 3, 4, 4.3065185546875
0, 3, 5, 5.864386081695557
0, 3, 6, 7.287174224853516
0, 3, 7, 4.450987815856934
0, 3, 8, 5.626950740814209
0, 3, 9, 4.652273654937744
0, 3, 10, 7.150131702423096
0, 3, 11, 5.112785339355469
0, 3, 12, 6.01507568359375
0, 3, 13, 14.99430656433105
0, 3, 14, 12.14159679412842
0, 3, 15, 17.95513343811035
0, 3, 16, 10.75498294830322
0, 3, 17, 19.41785621643066
0, 3, 18, 55.30972290039062
0, 3, 19, 178.9776763916016
0, 3, 20, 272.0425720214844
0, 3, 21, 272.4801940917969
0, 3, 22, 281.833251953125
0, 3, 23, 288.9868469238281
0, 3, 24, 287.798583984375
0, 3, 25, 270.5127258300781
0, 3, 26, 303.2893371582031
0, 3, 27, 295.949462890625
0, 3, 28, 280.6597900390625
0, 3, 29, 340.8807373046875
0, 3, 30, 320.4612121582031
0, 3, 31, 286.361572265625
0, 3, 32, 306.2880554199219
0, 3, 33, 314.7431030273438
0, 3, 34, 323.6737670898438
0, 3, 35, 306.8275756835938
0, 3, 36, 269.4341125488281
0, 3, 37, 317.9972229003906
0, 3, 38, 303.7482299804688
0, 3, 39, 291.8140258789062
0, 3, 40, 267.8923034667969
0, 3, 41, 298.1068420410156
0, 3, 42, 285.5858764648438
0, 3, 43, 309.1225280761719
0, 3, 44, 309.6648254394531
0, 3, 45, 290.5940246582031
0, 3, 46, 329.4450378417969
0, 3, 47, 299.7869873046875
0, 3, 48, 301.4518737792969
0, 3, 49, 275.3755187988281
0, 3, 50, 290.1775207519531
0, 3, 51, 276.9698181152344
0, 3, 52, 315.6337585449219
0, 3, 53, 287.2479858398438
0, 3, 54, 284.77978515625
0, 3, 55, 281.3807678222656
0, 3, 56, 298.5838928222656
0, 3, 57, 287.8592529296875
0, 3, 58, 306.4540710449219
0, 3, 59, 296.5124816894531
0, 3, 60, 297.7125549316406
0, 3, 61, 264.8081359863281
0, 3, 62, 283.7278442382812
0, 3, 63, 307.1575622558594
0, 3, 64, 316.2658081054688
0, 3, 65, 304.3854675292969
0, 3, 66, 316.8932189941406
0, 3, 67, 318.1184997558594
0, 3, 68, 279.1284790039062
0, 3, 69, 283.0639343261719
0, 3, 70, 288.5624084472656
0, 3, 71, 298.5154724121094
0, 3, 72, 273.4293823242188
0, 3, 73, 308.1976928710938
0, 3, 74, 292.1716003417969
0, 3, 75, 288.6809387207031
0, 3, 76, 309.6707153320312
0, 3, 77, 313.6753234863281
0, 3, 78, 301.7262573242188
0, 3, 79, 283.1455688476562
0, 3, 80, 290.5049743652344
0, 3, 81, 309.5221252441406
0, 3, 82, 315.8275451660156
0, 3, 83, 300.6150512695312
0, 3, 84, 312.2725524902344
0, 3, 85, 293.4149169921875
0, 3, 86, 301.7163391113281
0, 3, 87, 299.0972290039062
0, 3, 88, 298.178466796875
0, 3, 89, 294.734619140625
0, 3, 90, 275.9659423828125
0, 3, 91, 283.1671447753906
0, 3, 92, 304.59130859375
0, 3, 93, 312.6300964355469
0, 3, 94, 298.8074645996094
0, 3, 95, 336.0725708007812
0, 3, 96, 293.1866455078125
0, 3, 97, 286.2229614257812
0, 3, 98, 277.5736389160156
0, 3, 99, 264.3781127929688
0, 3, 100, 284.262451171875
0, 3, 101, 296.9383544921875
0, 3, 102, 276.4618225097656
0, 3, 103, 320.7391967773438
0, 3, 104, 308.1651306152344
0, 3, 105, 289.4744567871094
0, 3, 106, 302.7531433105469
0, 3, 107, 282.4618530273438
0, 3, 108, 169.7540893554688
0, 3, 109, 56.0070686340332
0, 3, 110, 17.81593322753906
0, 3, 111, 12.61346244812012
0, 3, 112, 11.59916019439697
0, 3, 113, 5.992751121520996
0, 3, 114, 9.304512977600098
0, 3, 115, 7.457376480102539
0, 3, 116, 7.628867149353027
0, 3, 117, 7.025377750396729
0, 3, 118, 4.722747325897217
0, 3, 119, 5.972546100616455
0, 3, 120, 5.35088586807251
0, 3, 121, 2.12354040145874
0, 3, 122, 3.35799765586853
0, 3, 123, 6.134774208068848
0, 3, 124, 3.793121099472046
0, 3, 125, 6.096720218658447
0, 3, 126, 5.769618988037109
0, 3, 127, 3.118395566940308
0, 4, 0, 3.888300180435181
0, 4, 1, 4.464577198028564
0, 4, 2, 2.460125684738159
0, 4, 3, 1.866235375404358
0, 4, 4, 6.469196319580078
0, 4, 5, 9.662716865539551
0, 4, 6, 6.528183937072754
0, 4, 7, 5.024922847747803
0, 4, 8, 3.699297189712524
0, 4, 9, 5.067396640777588
0, 4, 10, 5.683503150939941
0, 4, 11, 7.081489562988281
0, 4, 12, 8.168299674987793
0, 4, 13, 8.693730354309082
0, 4, 14, 11.98372077941895
0, 4, 15, 9.557108879089355
0, 4, 16, 13.72541904449463
0, 4, 17, 20.21476554870605
0, 4, 18, 93.98643493652344
0, 4, 19, 222.6631011962891
0, 4, 20, 283.1003112792969
0, 4, 21, 272.4173889160156
0, 4, 22, 304.9957580566406
0, 4, 23, 266.0903015136719
0, 4, 24, 288.3377380371094
0, 4, 25, 275.5415344238281
0, 4, 26, 295.8865966796875
0, 4, 27, 283.4892272949219
0, 4, 28, 304.7679748535156
0, 4, 29, 323.0149841308594
0, 4, 30, 309.5101623535156
0, 4, 31, 303.9227294921875
0, 4, 32, 281.5594787597656
0, 4, 33, 296.3084716796875
0, 4, 34, 298.4353942871094
0, 4, 35, 313.8094787597656
0, 4, 36, 296.791015625
0, 4, 37, 287.3692626953125
0, 4, 38, 297.2733459472656
0, 4, 39, 292.1194458007812
0, 4, 40, 303.5928039550781
0, 4, 41, 313.427490234375
0, 4, 42, 333.6996154785156
0, 4, 43, 297.0672912597656
0, 4, 44, 320.3094482421875
0, 4, 45, 324.7666625976562
0, 4, 46, 305.5996704101562
0, 4, 47, 291.8916625976562
0, 4, 48, 297.5617065429688
0, 4, 49, 280.7297058105469
0, 4, 50, 296.4735717773438
0, 4, 51, 321.2248840332031
0, 4, 52, 328.7381286621094
0, 4, 53, 303.5980224609375
0, 4, 54, 285.9279174804688
0, 4, 55, 316.23095703125
0, 4, 56, 285.4696350097656
0, 4, 57, 309.9501342773438
0, 4, 58, 298.248046875
0, 4, 59, 306.6772155761719
0, 4, 60, 302.1990966796875
0, 4, 61, 315.3865966796875
0, 4, 62, 308.7218933105469
0, 4, 63, 299.107421875
0, 4, 64, 329.1329650878906
0, 4, 65, 314.5143432617188
0, 4, 66, 295.3993530273438
0, 4, 67, 284.1555480957031
0, 4, 68, 313.2625732421875
0, 4, 69, 274.8031921386719
0, 4, 70, 299.0074462890625
0, 4, 71, 321.6947631835938
0, 4, 72, 333.1524963378906
0, 4, 73, 299.1465148925781
0, 4, 74, 294.4931030273438
0, 4, 75, 290.3126525878906
0, 4, 76, 275.1627502441406
0, 4, 77, 279.7936706542969
0, 4, 78, 308.9503479003906
0, 4, 79, 317.6358947753906
0, 4, 80, 316.3765563964844
0, 4, 81, 313.1842651367188
0, 4, 82, 299.6758422851562
0, 4, 83, 298.92431640625
0, 4, 84, 291.7502746582031
0, 4, 85, 294.9905395507812
0, 4, 86, 299.4756469726562
0, 4, 87, 284.4642028808594
0, 4, 88, 306.7327880859375
0, 4, 89, 293.4201049804688
0, 4, 90, 335.6077270507812
0, 4, 91, 301.4214782714844
0, 4, 92, 288.5728149414062
0, 4, 93, 297.5752563476562
0, 4, 94, 292.8002624511719
0, 4, 95, 288.29052734375
0, 4, 96, 326.6717834472656
0, 4, 97, 275.4141540527344
0, 4, 98, 328.2271728515625
0, 4, 99, 313.8200073242188
0, 4, 100, 299.3244018554688
0, 4, 101, 256.1464233398438
0, 4, 102, 297.125732421875
0, 4, 103, 316.7251281738281
0, 4, 104, 280.7565002441406
0, 4, 105, 309.400390625
0, 4, 106, 286.6063232421875
0, 4, 107, 294.5970153808594
0, 4, 108, 226.27197265625
0, 4, 109, 79.15848541259766
0, 4, 110, 16.26555442810059
0, 4, 111, 14.75759887695312
0, 4, 112, 9.489556312561035
0, 4, 113, 11.84460163116455
0, 4, 114, 9.53031063079834
0, 4, 115, 8.867441177368164
0, 4, 116, 10.0387077331543
0, 4, 117, 10.12550354003906
0, 4, 118, 9.90941333770752
0, 4, 119, 8.400144577026367
0, 4, 120, 7.080331802368164
0, 4, 121, 3.919654607772827
0, 4, 122, 4.663639068603516
0, 4, 123, 6.800464630126953
0, 4, 124, 4.425435543060303
0, 4, 125, 10.0449800491333
0, 4, 126, 6.335823535919189
0, 4, 127, 2.296090602874756
0, 5, 0, 3.029105663299561
0, 5, 1, 3.5315842628479
0, 5, 2, 3.805968284606934
0, 5, 3, 5.404323577880859
0, 5, 4, 4.938143730163574
0, 5, 5, 6.028510093688965
0, 5, 6, 8.213546752929688
0, 5, 7, 6.87693977355957
0, 5, 8, 6.198975563049316
0, 5, 9, 5.066048622131348
0, 5, 10, 8.867513656616211
0, 5, 11, 8.694397926330566
0, 5, 12, 6.933576583862305
0, 5, 13, 5.420083999633789
0, 5, 14, 12.2489652633667
0, 5, 15, 15.08102416992188
0, 5, 16, 14.49874973297119
0, 5, 17, 28.2645149230957
0, 5, 18, 134.8979034423828
0, 5, 19, 285.5111694335938
0, 5, 20, 307.0518493652344
0, 5, 21, 317.8372192382812
0, 5, 22, 275.88134765625
0, 5, 23, 310.71875
0, 5, 24, 301.5752258300781
0, 5, 25, 289.3663024902344
0, 5, 26, 294.4830322265625
0, 5, 27, 321.5003662109375
0, 5, 28, 303.5513000488281
0, 5, 29, 302.0194091796875
0, 5, 30, 323.4790954589844
0, 5, 31, 288.460205078125
0, 5, 32, 301.6856384277344
0, 5, 33, 303.2913208007812
0, 5, 34, 296.177734375
0, 5, 35, 311.1564331054688
0, 5, 36, 268.1948852539062
0, 5, 37, 283.1405639648438
0, 5, 38, 292.3962707519531
0, 5, 39, 311.4588928222656
0, 5, 40, 308.3307495117188
0, 5, 41, 273.8352966308594
0, 5, 42, 304.23486328125
0, 5, 43, 313.5857238769531
0, 5, 44, 291.9907531738281
0, 5, 45, 299.5118408203125
0, 5, 46, 264.0916748046875
0, 5, 47, 282.27001953125
0, 5, 48, 293.3660888671875
0, 5, 49, 287.0032043457031
0, 5, 50, 293.1692504882812
0, 5, 51, 280.8473815917969
0, 5, 52, 269.1846618652344
0, 5, 53, 283.2512817382812
0, 5, 54, 291.8300476074219
0, 5, 55, 346.6170043945312
0, 5, 56, 305.1076354980469
0, 5, 57, 306.3595886230469
0, 5, 58, 310.3802185058594
0, 5, 59, 301.6491088867188
0, 5, 60, 308.8051452636719
0, 5, 61, 280.3500671386719
0, 5, 62, 327.427001953125
0, 5, 63, 292.0704956054688
0, 5, 64, 323.4747924804688
0, 5, 65, 306.8760375976562
0, 5, 66, 327.5319519042969
0, 5, 67, 315.3144836425781
0, 5, 68, 306.4750671386719
0, 5, 69, 311.03466796875
0, 5, 70, 301.8974914550781
0, 5, 71, 273.16748046875
0, 5, 72, 313.8552856445312
0, 5, 73, 303.859375
0, 5, 74, 295.3291625976562
0, 5, 75, 294.9696350097656
0, 5, 76, 285.6097717285156
0, 5, 77, 298.8556518554688
0, 5, 78, 316.8121948242188
0, 5, 79, 307.2615356445312
0, 5, 80, 296.0442810058594
0, 5, 81, 327.2606201171875
0, 5, 82, 323.4376831054688
0, 5, 83, 281.8642272949219
0, 5, 84, 300.3727722167969
0, 5, 85, 271.0999450683594
0, 5, 86, 324.0957336425781
0, 5, 87, 285.4459838867188
0, 5, 88, 313.5111389160156
0, 5, 89, 304.4098205566406
0, 5, 90, 315.9046325683594
0, 5, 91, 313.8948059082031
0, 5, 92, 295.2078857421875
0, 5, 93, 324.2750854492188
0, 5, 94, 308.6490173339844
0, 5, 95, 296.9058532714844
0, 5, 96, 300.3253173828125
0, 5, 97, 297.4973449707031
0, 5, 98, 316.7860107421875
0, 5, 99, 302.3793334960938
0, 5, 100, 289.9677124023438
0, 5, 101, 304.8199462890625
0, 5, 102, 294.0169372558594
0, 5, 103, 314.4925842285156
0, 5, 104, 303.6572875976562
0, 5, 105, 290.5657653808594
0, 5, 106, 281.463134765625
0, 5, 107, 294.4870910644531
0, 5, 108, 264.5840148925781
0, 5, 109, 155.6661376953125
0, 5, 110, 42.61873245239258
0, 5, 111, 22.16385269165039
0, 5, 112, 17.1364688873291
0, 5, 113, 16.56506538391113
0, 5, 114, 11.70800018310547
0, 5, 115, 8.465594291687012
0, 5, 116, 8.03761100769043
0, 5, 117, 6.855564117431641
0, 5, 118, 13.17045497894287
0, 5, 119, 4.841891288757324
0, 5, 120, 5.486204147338867
0, 5, 121, 7.603360176086426
0, 5, 122, 8.205037117004395
0, 5, 123, 5.252479553222656
0, 5, 124, 6.445843696594238
0, 5, 125, 3.111157417297363
0, 5, 126, 4.117516994476318
0, 5, 127, 4.223535537719727
0, 6, 0, 5.939643383026123
0, 6, 1, 3.178850412368774
0, 6, 2, 5.750679016113281
0, 6, 3, 4.48408317565918
0, 6, 4, 4.003505229949951
0, 6, 5, 5.148457050323486
0, 6, 6, 7.686225414276123
0, 6, 7, 6.934798240661621
0, 6, 8, 8.710514068603516
0, 6, 9, 5.473627090454102
0, 6, 10, 7.76118803024292
0, 6, 11, 6.613905906677246
0, 6, 12, 8.805322647094727
0, 6, 13, 12.33927917480469
0, 6, 14, 9.83262825012207
0, 6, 15, 16.44729232788086
0, 6, 16, 29.29092597961426
0, 6, 17, 53.53866577148438
0, 6, 18, 173.6748962402344
0, 6, 19, 275.3974914550781
0, 6, 20, 294.2942199707031
0, 6, 21, 313.3331298828125
0, 6, 22, 320.3373413085938
0, 6, 23, 305.8591613769531
0, 6, 24, 316.9170532226562
0, 6, 25, 315.5248413085938
0, 6, 26, 319.7807312011719
0, 6, 27, 330.3724975585938
0, 6, 28, 296.0682067871094
0, 6, 29, 329.2283630371094
0, 6, 30, 281.9153442382812
0, 6, 31, 287.5234985351562
0, 6, 32, 340.2537231445312
0, 6, 33, 299.2904052734375
0, 6, 34, 339.090087890625
0, 6, 35, 320.0003051757812
0, 6, 36, 273.7734680175781
0, 6, 37, 288.6675415039062
0, 6, 38, 311.9857482910156
0, 6, 39, 298.5025024414062
0, 6, 40, 285.5675048828125
0, 6, 41, 294.8253784179688
0, 6, 42, 302.7419128417969
0, 6, 43, 290.0631103515625
0, 6, 44, 281.7364501953125
0, 6, 45, 319.9566955566406
0, 6, 46, 301.1627197265625
0, 6, 47, 332.447509765625
0, 6, 48, 291.4794311523438
0, 6, 49, 311.1762084960938
0, 6, 50, 329.8199157714844
0, 6, 51, 310.2634582519531
0, 6, 52, 321.042724609375
0, 6, 53, 328.3313293457031
0, 6, 54, 304.8906860351562
0, 6, 55, 303.0813293457031
0, 6, 56, 296.3009643554688
0, 6, 57, 312.5447082519531
0, 6, 58, 261.1463928222656
0, 6, 59, 303.0145874023438
0, 6, 60, 312.9952392578125
0, 6, 61, 271.0506591796875
0, 6, 62, 340.3661804199219
0, 6, 63, 322.9697570800781
0, 6, 64, 292.3722839355469
0, 6, 65, 284.2867126464844
0, 6, 66, 303.7309265136719
0, 6, 67, 309.5587463378906
0, 6, 68, 294.1993103027344
0, 6, 69, 279.891845703125
0, 6, 70, 274.8202819824219
0, 6, 71, 289.152587890625
0, 6, 72, 309.8108825683594
0, 6, 73, 292.2124328613281
0, 6, 74, 330.2081909179688
0, 6, 75, 342.2684631347656
0, 6, 76, 297.5860595703125
0, 6, 77, 287.5354919433594
0, 6, 78, 279.4642028808594
0, 6, 79, 292.2964782714844
0, 6, 80, 299.4315795898438
0, 6, 81, 314.9827270507812
0, 6, 82, 319.37353515625
0, 6, 83, 323.0103149414062
0, 6, 84, 297.1643371582031
0, 6, 85, 300.8466796875
0, 6, 86, 330.298583984375
0, 6, 87, 290.48974609375
0, 6, 88, 307.8188781738281
0, 6, 89, 304.2339782714844
0, 6, 90, 298.5631103515625
0, 6, 91, 313.2554931640625
0, 6, 92, 287.0726318359375
0, 6, 93, 295.9833679199219
0, 6, 94, 274.5380249023438
0, 6, 95, 300.3686218261719
0, 6, 96, 347.5234985351562
0, 6, 97, 308.8406982421875
0, 6, 98, 301.5517578125
0, 6, 99, 271.0400695800781
0, 6, 100, 309.2805786132812
0, 6, 101, 294.4925231933594
0, 6, 102, 306.4646911621094
0, 6, 103, 309.0227661132812
0, 6, 104, 293.8067626953125
0, 6, 105, 300.7574157714844
0, 6, 106, 306.7861022949219
0, 6, 107, 306.9655456542969
0, 6, 108, 265.621826171875
0, 6, 109, 188.2449340820312
0, 6, 110, 54.74393463134766
0, 6, 111, 24.56542015075684
0, 6, 112, 17.08800506591797
0, 6, 113, 11.21827220916748
0, 6, 114, 11.385666847229
0, 6, 115, 11.31853008270264
0, 6, 116, 10.12980461120605
0, 6, 117, 6.141666412353516
0, 6, 118, 11.13617324829102
0, 6, 119, 7.776740074157715
0, 6, 120, 5.411970138549805
0, 6, 121, 7.468452453613281
0, 6, 122, 6.26368236541748
0, 6, 123, 7.238761901855469
0, 6, 124, 7.808798313140869
0, 6, 125, 6.533558368682861
0, 6, 126, 4.914035320281982
0, 6, 127, 5.794192314147949
0, 7, 0, 9.787829399108887
0, 7, 1, 4.052036762237549
0, 7, 2, 6.868538379669189
0, 7, 3, 4.136394023895264
0, 7, 4, 4.025993347167969
0, 7, 5, 7.32540225982666
0, 7, 6, 6.004401206970215
0, 7, 7, 6.525454521179199
0, 7, 8, 5.535955905914307
0, 7, 9, 5.387052059173584
0, 7, 10, 8.513678550720215
0, 7, 11, 12.30930137634277
0, 7, 12, 12.31274032592773
0, 7, 13, 11.7486400604248
0, 7, 14, 9.658308029174805
0, 7, 15, 17.88494491577148
0, 7, 16, 26.48908996582031
0, 7, 17, 97.89630126953125
0, 7, 18, 218.8999633789062
0, 7, 19, 290.7381591796875
0, 7, 20, 297.9443054199219
0, 7, 21, 275.9829711914062
0, 7, 22, 299.5575866699219
0, 7, 23, 290.1524658203125
0, 7, 24, 313.2033081054688
0, 7, 25, 324.1416931152344
0, 7, 26, 278.2755126953125
0, 7, 27, 297.2105712890625
0, 7, 28, 327.2850646972656
0, 7, 29, 318.0978088378906
0, 7, 30, 300.78955078125
0, 7, 31, 276.6939392089844
0, 7, 32, 304.2833251953125
0, 7, 33, 265.0917663574219
0, 7, 34, 296.4725646972656
0, 7, 35, 319.4702758789062
0, 7, 36, 331.2612915039062
0, 7, 37, 325.7388000488281
0, 7, 38, 296.9517822265625
0, 7, 39, 309.6896362304688
0, 7, 40, 290.7898254394531
0, 7, 41, 276.3497619628906
0, 7, 42, 302.8242492675781
0, 7, 43, 275.3856506347656
0, 7, 44, 303.5198364257812
0, 7, 45, 295.4416809082031
0, 7, 46, 284.0755615234375
0, 7, 47, 327.5773315429688
0, 7, 48, 284.9894714355469
0, 7, 49, 300.8239440917969
0, 7, 50, 321.023681640625
0, 7, 51, 298.8854064941406
0, 7, 52, 327.7384948730469
0, 7, 53, 313.1201782226562
0, 7, 54, 323.6883544921875
0, 7, 55, 306.986572265625
0, 7, 56, 279.3410034179688
0, 7, 57, 284.1531677246094
0, 7, 58, 295.2748413085938
0, 7, 59, 294.4181823730469
0, 7, 60, 322.6728210449219
0, 7, 61, 280.126953125
0, 7, 62, 295.73583984375
0, 7, 63, 292.5709228515625
0, 7, 64, 306.2926025390625
0, 7, 65, 332.5871276855469
0, 7, 66, 318.7275085449219
0, 7, 67, 300.9385986328125
0, 7, 68, 280.862060546875
0, 7, 69, 293.3161010742188
0, 7, 70, 304.1233825683594
0, 7, 71, 308.2776184082031
0, 7, 72, 285.5850830078125
0, 7, 73, 295.9266357421875
0, 7, 74, 343.9662475585938
0, 7, 75, 319.5717163085938
0, 7, 76, 322.6904296875
0, 7, 77, 278.4641418457031
0, 7, 78, 301.7238159179688
0, 7, 79, 298.9081115722656
0, 7, 80, 313.3512573242188
0, 7, 81, 319.631591796875
0, 7, 82, 329.2998046875
0, 7, 83, 316.767333984375
0, 7, 84, 309.2248229980469
0, 7, 85, 271.6234130859375
0, 7, 86, 312.3713989257812
0, 7, 87, 308.9516296386719
0, 7, 88, 309.0231628417969
0, 7, 89, 292.7983093261719
0, 7, 90, 307.0157775878906
0, 7, 91, 316.5634765625
0, 7, 92, 290.1503295898438
0, 7, 93, 307.2509460449219
0, 7, 94, 273.2843627929688
0, 7, 95, 294.9255065917969
0, 7, 96, 330.2214660644531
0, 7, 97, 295.2001342773438
0, 7, 98, 290.6963195800781
0, 7, 99, 312.4005737304688
0, 7, 100, 281.2742919921875
0, 7, 101, 277.5554809570312
0, 7, 102, 289.9036560058594
0, 7, 103, 291.6325073242188
0, 7, 104, 277.37939453125
0, 7, 105, 307.9963684082031
0, 7, 106, 318.1507568359375
0, 7, 107, 295.6448669433594
0, 7, 108, 272.7823181152344
0, 7, 109, 234.5887451171875
0, 7, 110, 96.14628601074219
0, 7, 111, 24.32765007019043
0, 7, 112, 13.96560955047607
0, 7, 113, 13.59451007843018
0, 7, 114, 12.8622350692749
0, 7, 115, 11.5728816986084
0, 7, 116, 9.59898567199707
0, 7, 117, 7.845714092254639
0, 7, 118, 8.350990295410156
0, 7, 119, 9.389432907104492
0, 7, 120, 3.993886232376099
0, 7, 121, 7.028416633605957
0, 7, 122, 7.367424488067627
0, 7, 123, 4.468332767486572
0, 7, 124, 5.504991054534912
0, 7, 125, 6.105552673339844
0, 7, 126, 9.146992683410645
0, 7, 127, 1.312365293502808
0, 8, 0, 3.049949407577515
0, 8, 1, 5.427666187286377
0, 8, 2, 4.019203662872314
0, 8, 3, 2.761921644210815
0, 8, 4, 4.006756782531738
0, 8, 5, 4.557666301727295
0, 8, 6, 4.671839237213135
0, 8, 7, 5.278739452362061
0, 8, 8, 7.797638893127441
0, 8, 9, 6.122556209564209
0, 8, 10, 9.166600227355957
0, 8, 11, 11.92117404937744
0, 8, 12, 12.64720249176025
0, 8, 13, 15.75267219543457
0, 8, 14, 13.09158706665039
0, 8, 15, 18.94672012329102
0, 8, 16, 33.35601806640625
0, 8, 17, 129.2618713378906
0, 8, 18, 245.8466339111328
0, 8, 19, 295.2683410644531
0, 8, 20, 286.2593688964844
0, 8, 21, 306.2882690429688
0, 8, 22, 296.599853515625
0, 8, 23, 275.7030639648438
0, 8, 24, 267.579833984375
0, 8, 25, 275.8422546386719
0, 8, 26, 307.3939208984375
0, 8, 27, 307.11962890625
0, 8, 28, 304.7828674316406
0, 8, 29, 318.8243408203125
0, 8, 30, 315.7274169921875
0, 8, 31, 304.2987976074219
0, 8, 32, 280.7884216308594
0, 8, 33, 293.9255981445312
0, 8, 34, 290.2816467285156
0, 8, 35, 279.5316467285156
0, 8, 36, 316.29833984375
0, 8, 37, 338.9186706542969
0, 8, 38, 331.3080444335938
0, 8, 39, 280.338134765625
0, 8, 40, 303.8619384765625
