# TOPAS Version: 3.1.p3
# Parameter File: batch_inserts_212.txt
# Results for scorer Readout_Adipose
# Scored in component: MyBox
# X in 1 bin  of 0.75 cm
# Y in 512 bins of 0.0783984 cm
# Z in 128 bins of 0.078125 cm
# EnergyDeposit ( MeV ) : Sum   
0, 0, 0, 20.07998085021973
0, 0, 1, 21.20277214050293
0, 0, 2, 27.03178024291992
0, 0, 3, 25.14750289916992
0, 0, 4, 26.50869750976562
0, 0, 5, 24.33894729614258
0, 0, 6, 24.52153205871582
0, 0, 7, 38.77694702148438
0, 0, 8, 20.59869766235352
0, 0, 9, 21.47628784179688
0, 0, 10, 24.68962860107422
0, 0, 11, 28.85069274902344
0, 0, 12, 34.33948516845703
0, 0, 13, 29.78999519348145
0, 0, 14, 34.13766098022461
0, 0, 15, 47.46057891845703
0, 0, 16, 41.04220199584961
0, 0, 17, 48.00185394287109
0, 0, 18, 74.54343414306641
0, 0, 19, 186.3299255371094
0, 0, 20, 699.9529418945312
0, 0, 21, 1191.0830078125
0, 0, 22, 1243.05322265625
0, 0, 23, 1275.711181640625
0, 0, 24, 1278.555786132812
0, 0, 25, 1356.95556640625
0, 0, 26, 1272.943359375
0, 0, 27, 1280.09521484375
0, 0, 28, 1323.432983398438
0, 0, 29, 1271.950805664062
0, 0, 30, 1261.406616210938
0, 0, 31, 1276.627685546875
0, 0, 32, 1262.774780273438
0, 0, 33, 1240.8525390625
0, 0, 34, 1319.74365234375
0, 0, 35, 1305.799438476562
0, 0, 36, 1249.167602539062
0, 0, 37, 1278.767333984375
0, 0, 38, 1247.60107421875
0, 0, 39, 1246.104614257812
0, 0, 40, 1222.413696289062
0, 0, 41, 1269.873413085938
0, 0, 42, 1254.49365234375
0, 0, 43, 1269.57763671875
0, 0, 44, 1226.965209960938
0, 0, 45, 1288.84814453125
0, 0, 46, 1263.931640625
0, 0, 47, 1239.026245117188
0, 0, 48, 1277.014770507812
0, 0, 49, 1285.113891601562
0, 0, 50, 1309.90234375
0, 0, 51, 1270.069091796875
0, 0, 52, 1357.884887695312
0, 0, 53, 1326.463745117188
0, 0, 54, 1297.304565429688
0, 0, 55, 1234.000244140625
0, 0, 56, 1316.772827148438
0, 0, 57, 1289.793212890625
0, 0, 58, 1252.822021484375
0, 0, 59, 1334.891357421875
0, 0, 60, 1330.59619140625
0, 0, 61, 1262.642211914062
0, 0, 62, 1240.288452148438
0, 0, 63, 1279.203735351562
0, 0, 64, 1330.90478515625
0, 0, 65, 1283.40625
0, 0, 66, 1321.349487304688
0, 0, 67, 1217.182373046875
0, 0, 68, 1310.78662109375
0, 0, 69, 1325.2265625
0, 0, 70, 1340.971801757812
0, 0, 71, 1286.53857421875
0, 0, 72, 1312.681030273438
0, 0, 73, 1235.110961914062
0, 0, 74, 1287.002563476562
0, 0, 75, 1297.69287109375
0, 0, 76, 1253.060791015625
0, 0, 77, 1285.9267578125
0, 0, 78, 1317.730346679688
0, 0, 79, 1323.715209960938
0, 0, 80, 1263.212036132812
0, 0, 81, 1319.400634765625
0, 0, 82, 1284.077392578125
0, 0, 83, 1291.188354492188
0, 0, 84, 1325.160034179688
0, 0, 85, 1233.540283203125
0, 0, 86, 1267.05615234375
0, 0, 87, 1251.6494140625
0, 0, 88, 1252.521118164062
0, 0, 89, 1335.872436523438
0, 0, 90, 1275.001586914062
0, 0, 91, 1353.315307617188
0, 0, 92, 1299.05126953125
0, 0, 93, 1272.577880859375
0, 0, 94, 1244.37060546875
0, 0, 95, 1325.484985351562
0, 0, 96, 1289.346923828125
0, 0, 97, 1324.080810546875
0, 0, 98, 1257.580322265625
0, 0, 99, 1250.152099609375
0, 0, 100, 1286.436279296875
0, 0, 101, 1314.44091796875
0, 0, 102, 1235.981811523438
0, 0, 103, 1320.67529296875
0, 0, 104, 1263.178588867188
0, 0, 105, 1266.39013671875
0, 0, 106, 1204.931762695312
0, 0, 107, 778.9495239257812
0, 0, 108, 193.5435485839844
0, 0, 109, 66.843505859375
0, 0, 110, 64.19142913818359
0, 0, 111, 43.2862548828125
0, 0, 112, 36.98377227783203
0, 0, 113, 33.13710021972656
0, 0, 114, 36.19303512573242
0, 0, 115, 32.44388198852539
0, 0, 116, 25.86148262023926
0, 0, 117, 30.19693183898926
0, 0, 118, 27.14352989196777
0, 0, 119, 19.11049270629883
0, 0, 120, 24.97587394714355
0, 0, 121, 28.65082168579102
0, 0, 122, 23.81557273864746
0, 0, 123, 20.84115791320801
0, 0, 124, 20.40279006958008
0, 0, 125, 20.2910213470459
0, 0, 126, 24.44706726074219
0, 0, 127, 16.29127883911133
0, 1, 0, 22.9356517791748
0, 1, 1, 22.0091609954834
0, 1, 2, 26.2347526550293
0, 1, 3, 24.13035011291504
0, 1, 4, 25.41736030578613
0, 1, 5, 29.07681846618652
0, 1, 6, 22.43081855773926
0, 1, 7, 31.70896339416504
0, 1, 8, 33.03816223144531
0, 1, 9, 30.62846374511719
0, 1, 10, 33.30877304077148
0, 1, 11, 41.1221923828125
0, 1, 12, 39.36502838134766
0, 1, 13, 43.35610961914062
0, 1, 14, 40.8864860534668
0, 1, 15, 45.99526214599609
0, 1, 16, 56.51863479614258
0, 1, 17, 61.50244903564453
0, 1, 18, 95.24440002441406
0, 1, 19, 406.3403625488281
0, 1, 20, 1049.011352539062
0, 1, 21, 1372.172119140625
0, 1, 22, 1478.920776367188
0, 1, 23, 1464.413696289062
0, 1, 24, 1447.911010742188
0, 1, 25, 1423.682983398438
0, 1, 26, 1473.987670898438
0, 1, 27, 1460.359375
0, 1, 28, 1487.0869140625
0, 1, 29, 1476.082397460938
0, 1, 30, 1505.236694335938
0, 1, 31, 1484.80078125
0, 1, 32, 1412.801879882812
0, 1, 33, 1499.12451171875
0, 1, 34, 1501.781372070312
0, 1, 35, 1461.538696289062
0, 1, 36, 1488.185546875
0, 1, 37, 1409.646606445312
0, 1, 38, 1392.690673828125
0, 1, 39, 1527.376831054688
0, 1, 40, 1461.407348632812
0, 1, 41, 1489.375122070312
0, 1, 42, 1493.673217773438
0, 1, 43, 1499.284057617188
0, 1, 44, 1446.76416015625
0, 1, 45, 1485.801025390625
0, 1, 46, 1426.603637695312
0, 1, 47, 1432.488037109375
0, 1, 48, 1433.536865234375
0, 1, 49, 1488.404418945312
0, 1, 50, 1443.09521484375
0, 1, 51, 1475.867431640625
0, 1, 52, 1475.75146484375
0, 1, 53, 1476.072509765625
0, 1, 54, 1506.4345703125
0, 1, 55, 1496.818115234375
0, 1, 56, 1469.14453125
0, 1, 57, 1453.532836914062
0, 1, 58, 1432.161987304688
0, 1, 59, 1481.920776367188
0, 1, 60, 1465.004638671875
0, 1, 61, 1451.303833007812
0, 1, 62, 1454.253295898438
0, 1, 63, 1412.982543945312
0, 1, 64, 1472.745727539062
0, 1, 65, 1419.475830078125
0, 1, 66, 1440.162475585938
0, 1, 67, 1452.660278320312
0, 1, 68, 1390.157348632812
0, 1, 69, 1464.029541015625
0, 1, 70, 1432.46728515625
0, 1, 71, 1495.076904296875
0, 1, 72, 1433.893310546875
0, 1, 73, 1487.944458007812
0, 1, 74, 1469.829345703125
0, 1, 75, 1479.095581054688
0, 1, 76, 1458.170166015625
0, 1, 77, 1462.186767578125
0, 1, 78, 1450.755981445312
0, 1, 79, 1499.866088867188
0, 1, 80, 1449.192260742188
0, 1, 81, 1421.424438476562
0, 1, 82, 1471.107543945312
0, 1, 83, 1462.87060546875
0, 1, 84, 1534.367065429688
0, 1, 85, 1448.47509765625
0, 1, 86, 1403.006103515625
0, 1, 87, 1419.04443359375
0, 1, 88, 1472.2685546875
0, 1, 89, 1470.489013671875
0, 1, 90, 1423.422973632812
0, 1, 91, 1463.885498046875
0, 1, 92, 1415.648193359375
0, 1, 93, 1460.489013671875
0, 1, 94, 1466.852172851562
0, 1, 95, 1419.8369140625
0, 1, 96, 1493.354370117188
0, 1, 97, 1515.136352539062
0, 1, 98, 1476.983642578125
0, 1, 99, 1419.685791015625
0, 1, 100, 1446.939453125
0, 1, 101, 1412.38916015625
0, 1, 102, 1439.223266601562
0, 1, 103, 1410.928466796875
0, 1, 104, 1408.470703125
0, 1, 105, 1461.16796875
0, 1, 106, 1366.370483398438
0, 1, 107, 1022.765930175781
0, 1, 108, 403.3784790039062
0, 1, 109, 90.71192169189453
0, 1, 110, 68.01013946533203
0, 1, 111, 56.52385330200195
0, 1, 112, 53.17860412597656
0, 1, 113, 38.29871368408203
0, 1, 114, 34.74720764160156
0, 1, 115, 39.63093566894531
0, 1, 116, 34.79813766479492
0, 1, 117, 35.25674819946289
0, 1, 118, 33.78149032592773
0, 1, 119, 29.24192428588867
0, 1, 120, 29.14634323120117
0, 1, 121, 32.47826385498047
0, 1, 122, 19.93526649475098
0, 1, 123, 26.06826972961426
0, 1, 124, 30.57108116149902
0, 1, 125, 19.08966827392578
0, 1, 126, 18.15737724304199
0, 1, 127, 20.83488082885742
0, 2, 0, 19.41370964050293
0, 2, 1, 21.93271827697754
0, 2, 2, 25.58188819885254
0, 2, 3, 25.80746078491211
0, 2, 4, 26.22820281982422
0, 2, 5, 27.55669021606445
0, 2, 6, 23.42641258239746
0, 2, 7, 23.34510231018066
0, 2, 8, 32.57468032836914
0, 2, 9, 27.75058364868164
0, 2, 10, 32.74122619628906
0, 2, 11, 37.94257736206055
0, 2, 12, 39.40995025634766
0, 2, 13, 46.37715530395508
0, 2, 14, 46.46411514282227
0, 2, 15, 48.36342239379883
0, 2, 16, 66.43409729003906
0, 2, 17, 75.29248046875
0, 2, 18, 145.0111999511719
0, 2, 19, 608.7156982421875
0, 2, 20, 1291.086181640625
0, 2, 21, 1438.789184570312
0, 2, 22, 1456.969604492188
0, 2, 23, 1408.451171875
0, 2, 24, 1445.148315429688
0, 2, 25, 1525.4072265625
0, 2, 26, 1557.1484375
0, 2, 27, 1457.523315429688
0, 2, 28, 1458.159912109375
0, 2, 29, 1463.91845703125
0, 2, 30, 1466.05419921875
0, 2, 31, 1541.050170898438
0, 2, 32, 1502.222412109375
0, 2, 33, 1441.094482421875
0, 2, 34, 1473.276977539062
0, 2, 35, 1475.06689453125
0, 2, 36, 1521.913208007812
0, 2, 37, 1544.076538085938
0, 2, 38, 1502.855224609375
0, 2, 39, 1461.955810546875
0, 2, 40, 1500.932373046875
0, 2, 41, 1519.834716796875
0, 2, 42, 1509.472412109375
0, 2, 43, 1547.371215820312
0, 2, 44, 1456.204956054688
0, 2, 45, 1483.907836914062
0, 2, 46, 1425.609985351562
0, 2, 47, 1443.482299804688
0, 2, 48, 1398.404663085938
0, 2, 49, 1461.293823242188
0, 2, 50, 1444.142333984375
0, 2, 51, 1439.86865234375
0, 2, 52, 1495.04052734375
0, 2, 53, 1521.450073242188
0, 2, 54, 1525.748291015625
0, 2, 55, 1493.14404296875
0, 2, 56, 1460.728393554688
0, 2, 57, 1413.46142578125
0, 2, 58, 1451.482666015625
0, 2, 59, 1451.614868164062
0, 2, 60, 1470.580444335938
0, 2, 61, 1446.92578125
0, 2, 62, 1474.057983398438
0, 2, 63, 1509.319213867188
0, 2, 64, 1458.909912109375
0, 2, 65, 1425.796264648438
0, 2, 66, 1490.936279296875
0, 2, 67, 1503.56591796875
0, 2, 68, 1545.88037109375
0, 2, 69, 1539.53564453125
0, 2, 70, 1504.103759765625
0, 2, 71, 1460.41796875
0, 2, 72, 1515.747436523438
0, 2, 73, 1521.38037109375
0, 2, 74, 1487.7333984375
0, 2, 75, 1506.263305664062
0, 2, 76, 1447.373168945312
0, 2, 77, 1503.831420898438
0, 2, 78, 1436.824096679688
0, 2, 79, 1542.662475585938
0, 2, 80, 1476.839233398438
0, 2, 81, 1460.420654296875
0, 2, 82, 1557.215942382812
0, 2, 83, 1520.569580078125
0, 2, 84, 1496.21826171875
0, 2, 85, 1515.775390625
0, 2, 86, 1537.398071289062
0, 2, 87, 1489.456176757812
0, 2, 88, 1541.646850585938
0, 2, 89, 1465.17578125
0, 2, 90, 1433.028930664062
0, 2, 91, 1404.423950195312
0, 2, 92, 1479.3828125
0, 2, 93, 1498.915893554688
0, 2, 94, 1453.044189453125
0, 2, 95, 1540.296630859375
0, 2, 96, 1515.650146484375
0, 2, 97, 1454.7177734375
0, 2, 98, 1463.447631835938
0, 2, 99, 1401.556884765625
0, 2, 100, 1473.746337890625
0, 2, 101, 1484.0947265625
0, 2, 102, 1461.415161132812
0, 2, 103, 1389.09814453125
0, 2, 104, 1407.317993164062
0, 2, 105, 1394.910888671875
0, 2, 106, 1457.3193359375
0, 2, 107, 1275.536499023438
0, 2, 108, 619.7266235351562
0, 2, 109, 168.3421325683594
0, 2, 110, 68.30181121826172
0, 2, 111, 67.48778533935547
0, 2, 112, 44.97476959228516
0, 2, 113, 42.13096618652344
0, 2, 114, 36.55977630615234
0, 2, 115, 39.45033264160156
0, 2, 116, 32.73635101318359
0, 2, 117, 36.7440071105957
0, 2, 118, 34.41678619384766
0, 2, 119, 36.39137649536133
0, 2, 120, 32.00303649902344
0, 2, 121, 19.11301231384277
0, 2, 122, 28.93831062316895
0, 2, 123, 22.17497825622559
0, 2, 124, 24.85285377502441
0, 2, 125, 30.88527870178223
0, 2, 126, 18.98632049560547
0, 2, 127, 26.908447265625
0, 3, 0, 16.19815444946289
0, 3, 1, 20.1379280090332
0, 3, 2, 27.4206371307373
0, 3, 3, 19.0299186706543
0, 3, 4, 17.08344459533691
0, 3, 5, 22.60029411315918
0, 3, 6, 31.3621940612793
0, 3, 7, 30.0724048614502
0, 3, 8, 27.53021240234375
0, 3, 9, 26.22409248352051
0, 3, 10, 36.03741836547852
0, 3, 11, 34.31640243530273
0, 3, 12, 42.22030258178711
0, 3, 13, 53.76181793212891
0, 3, 14, 58.49253082275391
0, 3, 15, 55.53377532958984
0, 3, 16, 67.21092987060547
0, 3, 17, 90.62174224853516
0, 3, 18, 241.7062530517578
0, 3, 19, 877.0062866210938
0, 3, 20, 1380.654418945312
0, 3, 21, 1506.682983398438
0, 3, 22, 1465.14453125
0, 3, 23, 1446.68017578125
0, 3, 24, 1440.059692382812
0, 3, 25, 1463.658447265625
0, 3, 26, 1492.6142578125
0, 3, 27, 1465.648559570312
0, 3, 28, 1491.9453125
0, 3, 29, 1541.60693359375
0, 3, 30, 1570.612060546875
0, 3, 31, 1516.786010742188
0, 3, 32, 1542.8837890625
0, 3, 33, 1545.787841796875
0, 3, 34, 1494.569458007812
0, 3, 35, 1461.362670898438
0, 3, 36, 1451.092407226562
0, 3, 37, 1512.919555664062
0, 3, 38, 1516.208374023438
0, 3, 39, 1436.423217773438
0, 3, 40, 1440.095581054688
0, 3, 41, 1562.360473632812
0, 3, 42, 1456.523803710938
0, 3, 43, 1458.21630859375
0, 3, 44, 1450.585205078125
0, 3, 45, 1509.724487304688
0, 3, 46, 1506.541259765625
0, 3, 47, 1441.290771484375
0, 3, 48, 1509.772705078125
0, 3, 49, 1449.835571289062
0, 3, 50, 1492.082153320312
0, 3, 51, 1537.073974609375
0, 3, 52, 1536.063842773438
0, 3, 53, 1468.411865234375
0, 3, 54, 1538.459838867188
0, 3, 55, 1504.801025390625
0, 3, 56, 1433.79150390625
0, 3, 57, 1501.660522460938
0, 3, 58, 1512.684936523438
0, 3, 59, 1507.024536132812
0, 3, 60, 1530.23046875
0, 3, 61, 1486.005493164062
0, 3, 62, 1492.178100585938
0, 3, 63, 1492.849731445312
0, 3, 64, 1503.781372070312
0, 3, 65, 1517.248779296875
0, 3, 66, 1556.350952148438
0, 3, 67, 1545.278076171875
0, 3, 68, 1447.381225585938
0, 3, 69, 1464.730224609375
0, 3, 70, 1388.861450195312
0, 3, 71, 1462.999145507812
0, 3, 72, 1547.001586914062
0, 3, 73, 1500.845581054688
0, 3, 74, 1472.267700195312
0, 3, 75, 1459.417114257812
0, 3, 76, 1575.618896484375
0, 3, 77, 1541.060302734375
0, 3, 78, 1433.64990234375
0, 3, 79, 1488.970825195312
0, 3, 80, 1463.9560546875
0, 3, 81, 1473.077758789062
0, 3, 82, 1555.586547851562
0, 3, 83, 1519.442504882812
0, 3, 84, 1559.278686523438
0, 3, 85, 1481.973388671875
0, 3, 86, 1525.438354492188
0, 3, 87, 1537.388549804688
0, 3, 88, 1458.753662109375
0, 3, 89, 1447.6025390625
0, 3, 90, 1448.923583984375
0, 3, 91, 1418.58056640625
0, 3, 92, 1515.581298828125
0, 3, 93, 1503.885864257812
0, 3, 94, 1514.539916992188
0, 3, 95, 1541.266723632812
0, 3, 96, 1512.085571289062
0, 3, 97, 1469.067504882812
0, 3, 98, 1436.631469726562
0, 3, 99, 1469.257568359375
0, 3, 100, 1465.584716796875
0, 3, 101, 1473.267578125
0, 3, 102, 1522.223388671875
0, 3, 103, 1557.861083984375
0, 3, 104, 1500.145874023438
0, 3, 105, 1513.790649414062
0, 3, 106, 1478.701538085938
0, 3, 107, 1343.2373046875
0, 3, 108, 870.221923828125
0, 3, 109, 262.8674621582031
0, 3, 110, 103.1091766357422
0, 3, 111, 64.84086608886719
0, 3, 112, 57.46405029296875
0, 3, 113, 47.42172241210938
0, 3, 114, 49.37015533447266
0, 3, 115, 50.21406555175781
0, 3, 116, 44.00123596191406
0, 3, 117, 38.79934310913086
0, 3, 118, 34.27515029907227
0, 3, 119, 29.99284172058105
0, 3, 120, 30.08046340942383
0, 3, 121, 20.47669410705566
0, 3, 122, 21.67557525634766
0, 3, 123, 26.12314987182617
0, 3, 124, 20.4018611907959
0, 3, 125, 30.3652172088623
0, 3, 126, 26.41671943664551
0, 3, 127, 15.87152099609375
0, 4, 0, 23.07714080810547
0, 4, 1, 21.62764549255371
0, 4, 2, 22.36132431030273
0, 4, 3, 21.49214744567871
0, 4, 4, 23.92659378051758
0, 4, 5, 27.52206611633301
0, 4, 6, 27.75986862182617
0, 4, 7, 29.97527122497559
0, 4, 8, 30.13509178161621
0, 4, 9, 36.70995712280273
0, 4, 10, 31.44531631469727
0, 4, 11, 36.04621124267578
0, 4, 12, 43.60937118530273
0, 4, 13, 54.63955307006836
0, 4, 14, 49.44894790649414
0, 4, 15, 58.70739364624023
0, 4, 16, 74.97128295898438
0, 4, 17, 109.8508605957031
0, 4, 18, 446.3958740234375
0, 4, 19, 1183.648559570312
0, 4, 20, 1442.714111328125
0, 4, 21, 1419.81396484375
0, 4, 22, 1433.56396484375
0, 4, 23, 1454.910034179688
0, 4, 24, 1474.699829101562
0, 4, 25, 1408.7265625
0, 4, 26, 1537.486572265625
0, 4, 27, 1544.417846679688
0, 4, 28, 1508.947998046875
0, 4, 29, 1514.825073242188
0, 4, 30, 1532.025756835938
0, 4, 31, 1577.55908203125
0, 4, 32, 1515.979370117188
0, 4, 33, 1494.999267578125
0, 4, 34, 1474.320556640625
0, 4, 35, 1558.45703125
0, 4, 36, 1504.591796875
0, 4, 37, 1510.312744140625
0, 4, 38, 1531.506713867188
0, 4, 39, 1470.53271484375
0, 4, 40, 1516.25146484375
0, 4, 41, 1584.712646484375
0, 4, 42, 1566.475952148438
0, 4, 43, 1474.224609375
0, 4, 44, 1497.819458007812
0, 4, 45, 1520.168090820312
0, 4, 46, 1470.321655273438
0, 4, 47, 1500.181884765625
0, 4, 48, 1525.47119140625
0, 4, 49, 1477.400024414062
0, 4, 50, 1517.0546875
0, 4, 51, 1491.883911132812
0, 4, 52, 1490.903076171875
0, 4, 53, 1458.302368164062
0, 4, 54, 1439.418334960938
0, 4, 55, 1531.682006835938
0, 4, 56, 1454.76025390625
0, 4, 57, 1495.612548828125
0, 4, 58, 1463.103881835938
0, 4, 59, 1464.758911132812
0, 4, 60, 1526.52783203125
0, 4, 61, 1501.964111328125
0, 4, 62, 1501.142944335938
0, 4, 63, 1543.546875
0, 4, 64, 1595.489501953125
0, 4, 65, 1426.394409179688
0, 4, 66, 1513.1650390625
0, 4, 67, 1519.7978515625
0, 4, 68, 1498.256591796875
0, 4, 69, 1467.708862304688
0, 4, 70, 1541.705322265625
0, 4, 71, 1516.107299804688
0, 4, 72, 1529.326538085938
0, 4, 73, 1491.485229492188
0, 4, 74, 1488.077392578125
0, 4, 75, 1536.827514648438
0, 4, 76, 1477.805053710938
0, 4, 77, 1500.760620117188
0, 4, 78, 1500.339599609375
0, 4, 79, 1482.197265625
0, 4, 80, 1513.273071289062
0, 4, 81, 1528.405029296875
0, 4, 82, 1564.98974609375
0, 4, 83, 1499.405517578125
0, 4, 84, 1536.194458007812
0, 4, 85, 1557.014770507812
0, 4, 86, 1525.912719726562
0, 4, 87, 1501.655151367188
0, 4, 88, 1514.383911132812
0, 4, 89, 1476.968627929688
0, 4, 90, 1543.48681640625
0, 4, 91, 1553.324096679688
0, 4, 92, 1491.99072265625
0, 4, 93, 1516.323364257812
0, 4, 94, 1482.808227539062
0, 4, 95, 1513.654174804688
0, 4, 96, 1441.36083984375
0, 4, 97, 1409.291137695312
0, 4, 98, 1552.033813476562
0, 4, 99, 1508.514282226562
0, 4, 100, 1491.6455078125
0, 4, 101, 1454.632446289062
0, 4, 102, 1442.220703125
0, 4, 103, 1513.7783203125
0, 4, 104, 1510.54638671875
0, 4, 105, 1554.435791015625
0, 4, 106, 1478.766845703125
0, 4, 107, 1456.389770507812
0, 4, 108, 1122.9873046875
0, 4, 109, 437.5648803710938
0, 4, 110, 98.16641998291016
0, 4, 111, 67.55039215087891
0, 4, 112, 59.20208358764648
0, 4, 113, 50.35127639770508
0, 4, 114, 54.97480010986328
0, 4, 115, 44.81390380859375
0, 4, 116, 32.25801086425781
0, 4, 117, 44.4238166809082
0, 4, 118, 40.19750213623047
0, 4, 119, 33.74246215820312
0, 4, 120, 33.5878791809082
0, 4, 121, 26.51526641845703
0, 4, 122, 30.69900131225586
0, 4, 123, 31.63160705566406
0, 4, 124, 21.61143684387207
0, 4, 125, 31.91951942443848
0, 4, 126, 22.59453582763672
0, 4, 127, 22.95070266723633
0, 5, 0, 20.6234130859375
0, 5, 1, 22.42427825927734
0, 5, 2, 36.74567413330078
0, 5, 3, 20.01354789733887
0, 5, 4, 19.32551574707031
0, 5, 5, 32.30667877197266
0, 5, 6, 26.02415466308594
0, 5, 7, 31.52437782287598
0, 5, 8, 33.37522506713867
0, 5, 9, 34.94823455810547
0, 5, 10, 34.15346145629883
0, 5, 11, 39.64725494384766
0, 5, 12, 40.8154182434082
0, 5, 13, 44.26963806152344
0, 5, 14, 60.67739105224609
0, 5, 15, 80.34678649902344
0, 5, 16, 80.83675384521484
0, 5, 17, 157.8510437011719
0, 5, 18, 675.6199340820312
0, 5, 19, 1339.886962890625
0, 5, 20, 1526.058349609375
0, 5, 21, 1491.684936523438
0, 5, 22, 1497.935424804688
0, 5, 23, 1527.558837890625
0, 5, 24, 1466.780517578125
0, 5, 25, 1426.515258789062
0, 5, 26, 1528.830444335938
0, 5, 27, 1538.265625
0, 5, 28, 1487.666381835938
0, 5, 29, 1521.149658203125
0, 5, 30, 1494.198974609375
0, 5, 31, 1495.885620117188
0, 5, 32, 1592.360229492188
0, 5, 33, 1503.0244140625
0, 5, 34, 1485.202514648438
0, 5, 35, 1513.819702148438
0, 5, 36, 1443.957763671875
0, 5, 37, 1534.28564453125
0, 5, 38, 1544.534545898438
0, 5, 39, 1550.181640625
0, 5, 40, 1501.672241210938
0, 5, 41, 1475.441772460938
0, 5, 42, 1540.468994140625
0, 5, 43, 1532.12548828125
0, 5, 44, 1541.322875976562
0, 5, 45, 1505.740356445312
0, 5, 46, 1491.571899414062
0, 5, 47, 1481.975463867188
0, 5, 48, 1501.135620117188
0, 5, 49, 1525.733154296875
0, 5, 50, 1505.497192382812
0, 5, 51, 1519.318237304688
0, 5, 52, 1431.707275390625
0, 5, 53, 1522.486206054688
0, 5, 54, 1519.493286132812
0, 5, 55, 1527.0390625
0, 5, 56, 1486.880615234375
0, 5, 57, 1540.579956054688
0, 5, 58, 1510.767700195312
0, 5, 59, 1488.406372070312
0, 5, 60, 1532.062744140625
0, 5, 61, 1448.948120117188
0, 5, 62, 1584.307373046875
0, 5, 63, 1432.038452148438
0, 5, 64, 1485.476684570312
0, 5, 65, 1467.533813476562
0, 5, 66, 1529.71630859375
0, 5, 67, 1559.266845703125
0, 5, 68, 1465.317626953125
0, 5, 69, 1477.589111328125
0, 5, 70, 1485.571411132812
0, 5, 71, 1470.441650390625
0, 5, 72, 1539.508544921875
0, 5, 73, 1460.247436523438
0, 5, 74, 1495.780883789062
0, 5, 75, 1491.414916992188
0, 5, 76, 1478.194580078125
0, 5, 77, 1513.95458984375
0, 5, 78, 1521.576416015625
0, 5, 79, 1510.654174804688
0, 5, 80, 1520.045043945312
0, 5, 81, 1593.942504882812
0, 5, 82, 1521.470458984375
0, 5, 83, 1487.709716796875
0, 5, 84, 1535.346435546875
0, 5, 85, 1515.693969726562
0, 5, 86, 1564.629150390625
0, 5, 87, 1474.690551757812
0, 5, 88, 1492.0693359375
0, 5, 89, 1483.390991210938
0, 5, 90, 1481.929809570312
0, 5, 91, 1549.849487304688
0, 5, 92, 1480.275146484375
0, 5, 93, 1561.012451171875
0, 5, 94, 1512.762939453125
0, 5, 95, 1566.419311523438
0, 5, 96, 1500.398681640625
0, 5, 97, 1506.270751953125
0, 5, 98, 1509.480590820312
0, 5, 99, 1542.045166015625
0, 5, 100, 1431.65283203125
0, 5, 101, 1431.938720703125
0, 5, 102, 1514.533813476562
0, 5, 103, 1474.8828125
0, 5, 104, 1458.55126953125
0, 5, 105, 1496.580078125
0, 5, 106, 1457.825073242188
0, 5, 107, 1399.795166015625
0, 5, 108, 1290.223754882812
0, 5, 109, 721.3131103515625
0, 5, 110, 189.8977508544922
0, 5, 111, 90.42364501953125
0, 5, 112, 78.894775390625
0, 5, 113, 63.77329254150391
0, 5, 114, 59.3482666015625
0, 5, 115, 53.2661247253418
0, 5, 116, 40.51087188720703
0, 5, 117, 35.74161148071289
0, 5, 118, 37.07327270507812
0, 5, 119, 32.04757690429688
0, 5, 120, 29.94847679138184
0, 5, 121, 26.87890625
0, 5, 122, 28.00153923034668
0, 5, 123, 28.16996383666992
0, 5, 124, 25.8833122253418
0, 5, 125, 22.80114364624023
0, 5, 126, 17.63413429260254
0, 5, 127, 25.09930419921875
0, 6, 0, 17.68579483032227
0, 6, 1, 32.97364044189453
0, 6, 2, 31.64248847961426
0, 6, 3, 24.32910537719727
0, 6, 4, 26.39945220947266
0, 6, 5, 36.4420280456543
0, 6, 6, 37.45751190185547
0, 6, 7, 36.79542541503906
0, 6, 8, 39.73956680297852
0, 6, 9, 37.39294052124023
0, 6, 10, 39.89498138427734
0, 6, 11, 36.08950805664062
0, 6, 12, 35.74581527709961
0, 6, 13, 57.54324340820312
0, 6, 14, 63.98345565795898
0, 6, 15, 82.30806732177734
0, 6, 16, 108.8381271362305
0, 6, 17, 298.5355224609375
0, 6, 18, 904.0363159179688
0, 6, 19, 1372.253662109375
0, 6, 20, 1440.100219726562
0, 6, 21, 1535.432861328125
0, 6, 22, 1502.29541015625
0, 6, 23, 1530.468872070312
0, 6, 24, 1476.207763671875
0, 6, 25, 1525.144775390625
0, 6, 26, 1523.646484375
0, 6, 27, 1524.510009765625
0, 6, 28, 1555.843017578125
0, 6, 29, 1571.957763671875
0, 6, 30, 1517.76123046875
0, 6, 31, 1492.29150390625
0, 6, 32, 1527.565795898438
0, 6, 33, 1492.547607421875
0, 6, 34, 1557.84765625
0, 6, 35, 1501.288696289062
0, 6, 36, 1440.12939453125
0, 6, 37, 1549.330932617188
0, 6, 38, 1524.9072265625
0, 6, 39, 1526.917358398438
0, 6, 40, 1458.858520507812
0, 6, 41, 1442.403686523438
0, 6, 42, 1520.320678710938
0, 6, 43, 1486.53271484375
0, 6, 44, 1431.608276367188
0, 6, 45, 1543.344848632812
0, 6, 46, 1551.3701171875
0, 6, 47, 1493.997680664062
0, 6, 48, 1522.2373046875
0, 6, 49, 1512.399658203125
0, 6, 50, 1576.332641601562
0, 6, 51, 1498.974853515625
0, 6, 52, 1560.727783203125
0, 6, 53, 1471.9599609375
0, 6, 54, 1500.01416015625
0, 6, 55, 1576.462036132812
0, 6, 56, 1520.556030273438
0, 6, 57, 1501.162963867188
0, 6, 58, 1463.363159179688
0, 6, 59, 1525.933227539062
0, 6, 60, 1475.839599609375
0, 6, 61, 1572.565185546875
0, 6, 62, 1545.716552734375
0, 6, 63, 1496.26220703125
0, 6, 64, 1412.8671875
0, 6, 65, 1493.591918945312
0, 6, 66, 1509.583251953125
0, 6, 67, 1513.421020507812
0, 6, 68, 1547.057983398438
0, 6, 69, 1489.765869140625
0, 6, 70, 1525.942260742188
0, 6, 71, 1466.471801757812
0, 6, 72, 1595.041015625
0, 6, 73, 1486.6044921875
0, 6, 74, 1556.760986328125
0, 6, 75, 1535.261840820312
0, 6, 76, 1562.132080078125
0, 6, 77, 1510.818359375
0, 6, 78, 1447.685668945312
0, 6, 79, 1552.694702148438
0, 6, 80, 1481.73583984375
0, 6, 81, 1485.69580078125
0, 6, 82, 1503.869873046875
0, 6, 83, 1525.065307617188
0, 6, 84, 1518.797729492188
0, 6, 85, 1538.229736328125
0, 6, 86, 1544.175170898438
0, 6, 87, 1569.279541015625
0, 6, 88, 1485.7470703125
0, 6, 89, 1557.866088867188
0, 6, 90, 1494.742797851562
0, 6, 91, 1540.432983398438
0, 6, 92, 1487.849487304688
0, 6, 93, 1497.359130859375
0, 6, 94, 1473.302490234375
0, 6, 95, 1508.784301757812
0, 6, 96, 1523.058349609375
0, 6, 97, 1505.152709960938
0, 6, 98, 1492.26708984375
0, 6, 99, 1483.06982421875
0, 6, 100, 1521.050659179688
0, 6, 101, 1514.267456054688
0, 6, 102, 1537.923706054688
0, 6, 103, 1501.501953125
0, 6, 104, 1465.503784179688
0, 6, 105, 1485.662231445312
0, 6, 106, 1501.27099609375
0, 6, 107, 1502.920776367188
0, 6, 108, 1406.723510742188
0, 6, 109, 921.5610961914062
0, 6, 110, 281.5817260742188
0, 6, 111, 95.03066253662109
0, 6, 112, 75.69338989257812
0, 6, 113, 60.52192306518555
0, 6, 114, 54.50933456420898
0, 6, 115, 43.55742645263672
0, 6, 116, 44.76673126220703
0, 6, 117, 43.20672225952148
0, 6, 118, 44.18112564086914
0, 6, 119, 35.58188247680664
0, 6, 120, 34.0433464050293
0, 6, 121, 29.5604305267334
0, 6, 122, 28.02227210998535
0, 6, 123, 25.28516578674316
0, 6, 124, 27.23729133605957
0, 6, 125, 34.54471206665039
0, 6, 126, 17.00189018249512
0, 6, 127, 25.31989669799805
0, 7, 0, 24.40937805175781
0, 7, 1, 29.94703674316406
0, 7, 2, 19.23614311218262
0, 7, 3, 24.2758846282959
0, 7, 4, 23.41884422302246
0, 7, 5, 38.04005813598633
0, 7, 6, 34.6261100769043
0, 7, 7, 32.60732650756836
0, 7, 8, 33.31100845336914
0, 7, 9, 35.70127487182617
0, 7, 10, 49.25627899169922
0, 7, 11, 46.48405075073242
0, 7, 12, 49.58501052856445
0, 7, 13, 56.8724365234375
0, 7, 14, 63.04914855957031
0, 7, 15, 74.98856353759766
0, 7, 16, 129.4456939697266
0, 7, 17, 460.8941955566406
0, 7, 18, 1103.342041015625
0, 7, 19, 1504.078125
0, 7, 20, 1489.89306640625
0, 7, 21, 1367.845825195312
0, 7, 22, 1487.099975585938
0, 7, 23, 1456.103515625
0, 7, 24, 1506.9619140625
0, 7, 25, 1595.963623046875
0, 7, 26, 1516.727172851562
0, 7, 27, 1509.963989257812
0, 7, 28, 1542.103271484375
0, 7, 29, 1577.964599609375
0, 7, 30, 1554.615600585938
0, 7, 31, 1433.258422851562
0, 7, 32, 1545.678833007812
0, 7, 33, 1493.5693359375
0, 7, 34, 1479.005859375
0, 7, 35, 1524.403686523438
0, 7, 36, 1473.286499023438
0, 7, 37, 1600.783081054688
0, 7, 38, 1503.982421875
0, 7, 39, 1489.594848632812
0, 7, 40, 1546.8388671875
0, 7, 41, 1466.871826171875
0, 7, 42, 1485.990234375
0, 7, 43, 1448.5625
0, 7, 44, 1493.955688476562
0, 7, 45, 1468.914428710938
0, 7, 46, 1518.513427734375
0, 7, 47, 1562.513305664062
0, 7, 48, 1524.008544921875
0, 7, 49, 1538.034912109375
0, 7, 50, 1516.599853515625
0, 7, 51, 1494.142944335938
0, 7, 52, 1518.298706054688
0, 7, 53, 1492.532104492188
0, 7, 54, 1584.9365234375
0, 7, 55, 1469.931884765625
0, 7, 56, 1549.439819335938
0, 7, 57, 1516.678955078125
0, 7, 58, 1548.499145507812
0, 7, 59, 1539.723510742188
0, 7, 60, 1554.162109375
0, 7, 61, 1491.274780273438
0, 7, 62, 1437.946533203125
0, 7, 63, 1511.186889648438
0, 7, 64, 1546.109008789062
0, 7, 65, 1527.373779296875
0, 7, 66, 1542.715209960938
0, 7, 67, 1579.156616210938
0, 7, 68, 1531.566650390625
0, 7, 69, 1519.186157226562
0, 7, 70, 1495.309448242188
0, 7, 71, 1530.474731445312
0, 7, 72, 1522.241577148438
0, 7, 73, 1520.197875976562
0, 7, 74, 1575.864868164062
0, 7, 75, 1540.733520507812
0, 7, 76, 1561.958618164062
0, 7, 77, 1509.714721679688
0, 7, 78, 1510.102661132812
0, 7, 79, 1427.335571289062
0, 7, 80, 1487.750366210938
0, 7, 81, 1493.233764648438
0, 7, 82, 1535.799438476562
0, 7, 83, 1544.837280273438
0, 7, 84, 1587.924194335938
0, 7, 85, 1477.171264648438
0, 7, 86, 1506.23876953125
0, 7, 87, 1511.55224609375
0, 7, 88, 1497.719360351562
0, 7, 89, 1550.717895507812
0, 7, 90, 1525.213012695312
0, 7, 91, 1563.218383789062
0, 7, 92, 1528.538452148438
0, 7, 93, 1550.928955078125
0, 7, 94, 1533.454711914062
0, 7, 95, 1506.434448242188
0, 7, 96, 1506.945190429688
0, 7, 97, 1433.758178710938
0, 7, 98, 1482.20458984375
0, 7, 99, 1523.279541015625
0, 7, 100, 1419.09423828125
0, 7, 101, 1465.053344726562
0, 7, 102, 1449.733032226562
0, 7, 103, 1434.091674804688
0, 7, 104, 1490.61767578125
0, 7, 105, 1526.2802734375
0, 7, 106, 1567.233032226562
0, 7, 107, 1480.154907226562
0, 7, 108, 1413.319702148438
0, 7, 109, 1152.14453125
0, 7, 110, 474.8579711914062
0, 7, 111, 127.4026412963867
0, 7, 112, 80.8642578125
0, 7, 113, 65.61769866943359
0, 7, 114, 58.09525299072266
0, 7, 115, 49.43229675292969
0, 7, 116, 46.65156936645508
0, 7, 117, 43.54032135009766
0, 7, 118, 33.65157318115234
0, 7, 119, 38.36555099487305
0, 7, 120, 20.09880256652832
0, 7, 121, 30.7257022857666
0, 7, 122, 32.64419174194336
0, 7, 123, 34.6994514465332
0, 7, 124, 30.50033187866211
0, 7, 125, 22.83585929870605
0, 7, 126, 25.94065856933594
0, 7, 127, 21.31254386901855
0, 8, 0, 18.22878265380859
0, 8, 1, 20.43301582336426
0, 8, 2, 22.87460708618164
0, 8, 3, 23.39515113830566
0, 8, 4, 23.72394752502441
0, 8, 5, 33.16953659057617
0, 8, 6, 34.95843505859375
0, 8, 7, 26.6123218536377
0, 8, 8, 34.2588005065918
0, 8, 9, 42.92559814453125
0, 8, 10, 40.2962646484375
0, 8, 11, 44.08685684204102
0, 8, 12, 54.27838897705078
0, 8, 13, 68.22885894775391
0, 8, 14, 71.53950500488281
0, 8, 15, 88.59933471679688
0, 8, 16, 174.9210357666016
0, 8, 17, 673.8950805664062
0, 8, 18, 1280.048095703125
0, 8, 19, 1448.167846679688
0, 8, 20, 1422.009765625
0, 8, 21, 1410.35595703125
0, 8, 22, 1488.435180664062
0, 8, 23, 1483.1455078125
0, 8, 24, 1442.379272460938
0, 8, 25, 1458.792602539062
0, 8, 26, 1518.035400390625
0, 8, 27, 1518.663452148438
0, 8, 28, 1477.3603515625
0, 8, 29, 1505.246704101562
0, 8, 30, 1485.723754882812
0, 8, 31, 1539.44287109375
0, 8, 32, 1510.883422851562
0, 8, 33, 1482.780151367188
0, 8, 34, 1534.5615234375
0, 8, 35, 1446.146484375
0, 8, 36, 1497.32421875
0, 8, 37, 1557.642456054688
0, 8, 38, 1555.420043945312
0, 8, 39, 1491.39697265625
0, 8, 40, 1531.548950195312
0, 8, 41, 1487.691650390625
0, 8, 42, 1543.751831054688
0, 8, 43, 1430.209594726562
0, 8, 44, 1536.44189453125
0, 8, 45, 1512.313354492188
0, 8, 46, 1604.122314453125
0, 8, 47, 1583.036376953125
0, 8, 48, 1545.56787109375
