# TOPAS Version: 3.1.p3
# Parameter File: batch_inserts_260.txt
# Results for scorer Readout_Adipose
# Scored in component: MyBox
# X in 1 bin  of 0.75 cm
# Y in 512 bins of 0.0783984 cm
# Z in 128 bins of 0.078125 cm
# EnergyDeposit ( MeV ) : Sum   
0, 0, 0, 6.640933036804199
0, 0, 1, 2.360701322555542
0, 0, 2, 2.861380100250244
0, 0, 3, 2.1256103515625
0, 0, 4, 3.792769432067871
0, 0, 5, 1.852443695068359
0, 0, 6, 8.418363571166992
0, 0, 7, 9.317115783691406
0, 0, 8, 2.380704164505005
0, 0, 9, 4.222432136535645
0, 0, 10, 6.377642631530762
0, 0, 11, 4.505595207214355
0, 0, 12, 6.29363489151001
0, 0, 13, 6.748311996459961
0, 0, 14, 6.728489875793457
0, 0, 15, 8.393388748168945
0, 0, 16, 9.384842872619629
0, 0, 17, 9.487467765808105
0, 0, 18, 13.74304962158203
0, 0, 19, 45.5865592956543
0, 0, 20, 140.6050872802734
0, 0, 21, 223.7548980712891
0, 0, 22, 250.5139312744141
0, 0, 23, 257.7511901855469
0, 0, 24, 251.4121704101562
0, 0, 25, 259.3389282226562
0, 0, 26, 234.0522003173828
0, 0, 27, 238.2111663818359
0, 0, 28, 271.4917602539062
0, 0, 29, 252.2458953857422
0, 0, 30, 231.3674011230469
0, 0, 31, 244.9635314941406
0, 0, 32, 263.6831970214844
0, 0, 33, 260.540771484375
0, 0, 34, 290.1569213867188
0, 0, 35, 267.3197326660156
0, 0, 36, 246.6985626220703
0, 0, 37, 253.2061004638672
0, 0, 38, 270.0616760253906
0, 0, 39, 230.1710205078125
0, 0, 40, 241.2166900634766
0, 0, 41, 267.5715637207031
0, 0, 42, 229.0090179443359
0, 0, 43, 260.8633117675781
0, 0, 44, 252.8243255615234
0, 0, 45, 253.1905212402344
0, 0, 46, 244.7540130615234
0, 0, 47, 253.1669464111328
0, 0, 48, 267.3033752441406
0, 0, 49, 274.456787109375
0, 0, 50, 251.7363586425781
0, 0, 51, 253.7254333496094
0, 0, 52, 273.010009765625
0, 0, 53, 290.3917236328125
0, 0, 54, 242.9663543701172
0, 0, 55, 239.6029663085938
0, 0, 56, 276.3771362304688
0, 0, 57, 263.3320617675781
0, 0, 58, 247.1227722167969
0, 0, 59, 271.3139953613281
0, 0, 60, 236.4539794921875
0, 0, 61, 245.8591461181641
0, 0, 62, 257.5638732910156
0, 0, 63, 265.9312133789062
0, 0, 64, 254.4362945556641
0, 0, 65, 262.8423156738281
0, 0, 66, 276.6100769042969
0, 0, 67, 250.8657073974609
0, 0, 68, 258.720947265625
0, 0, 69, 261.6144714355469
0, 0, 70, 271.2196350097656
0, 0, 71, 237.6872711181641
0, 0, 72, 249.7411193847656
0, 0, 73, 258.6411743164062
0, 0, 74, 252.5004119873047
0, 0, 75, 242.5589752197266
0, 0, 76, 227.8838195800781
0, 0, 77, 259.1766967773438
0, 0, 78, 256.7384338378906
0, 0, 79, 278.5018615722656
0, 0, 80, 216.0141296386719
0, 0, 81, 268.9194641113281
0, 0, 82, 255.7778472900391
0, 0, 83, 244.3738098144531
0, 0, 84, 269.837646484375
0, 0, 85, 231.2052459716797
0, 0, 86, 253.0434722900391
0, 0, 87, 251.8061370849609
0, 0, 88, 261.4212951660156
0, 0, 89, 281.9411315917969
0, 0, 90, 243.1727752685547
0, 0, 91, 280.145263671875
0, 0, 92, 253.4020843505859
0, 0, 93, 248.8702697753906
0, 0, 94, 249.2055511474609
0, 0, 95, 247.39306640625
0, 0, 96, 276.407958984375
0, 0, 97, 272.0702819824219
0, 0, 98, 272.5163269042969
0, 0, 99, 258.0499572753906
0, 0, 100, 257.8803100585938
0, 0, 101, 226.1878051757812
0, 0, 102, 232.4923553466797
0, 0, 103, 270.4358825683594
0, 0, 104, 253.8263854980469
0, 0, 105, 250.7991333007812
0, 0, 106, 245.9157409667969
0, 0, 107, 151.7413330078125
0, 0, 108, 38.42339706420898
0, 0, 109, 12.0341739654541
0, 0, 110, 13.71195030212402
0, 0, 111, 9.503719329833984
0, 0, 112, 8.141966819763184
0, 0, 113, 6.176239490509033
0, 0, 114, 7.068874835968018
0, 0, 115, 5.563340187072754
0, 0, 116, 6.479808330535889
0, 0, 117, 5.111356258392334
0, 0, 118, 6.27832555770874
0, 0, 119, 7.545391082763672
0, 0, 120, 4.194926261901855
0, 0, 121, 5.173679351806641
0, 0, 122, 4.398938655853271
0, 0, 123, 1.995243906974792
0, 0, 124, 3.372927665710449
0, 0, 125, 2.961302995681763
0, 0, 126, 3.315202951431274
0, 0, 127, 6.065114974975586
0, 1, 0, 6.92264461517334
0, 1, 1, 4.062901020050049
0, 1, 2, 4.521805763244629
0, 1, 3, 1.972981452941895
0, 1, 4, 3.966856002807617
0, 1, 5, 3.022377490997314
0, 1, 6, 3.167118787765503
0, 1, 7, 4.426233291625977
0, 1, 8, 7.768415451049805
0, 1, 9, 4.639206886291504
0, 1, 10, 8.47123908996582
0, 1, 11, 10.65714931488037
0, 1, 12, 9.32552433013916
0, 1, 13, 8.807649612426758
0, 1, 14, 7.101552963256836
0, 1, 15, 7.922111034393311
0, 1, 16, 11.25039958953857
0, 1, 17, 12.41248416900635
0, 1, 18, 20.42351341247559
0, 1, 19, 66.09377288818359
0, 1, 20, 198.4354400634766
0, 1, 21, 255.0175170898438
0, 1, 22, 296.4251403808594
0, 1, 23, 282.6181640625
0, 1, 24, 277.3455505371094
0, 1, 25, 287.9247131347656
0, 1, 26, 269.6908569335938
0, 1, 27, 307.724609375
0, 1, 28, 298.7876586914062
0, 1, 29, 295.9170532226562
0, 1, 30, 280.6265869140625
0, 1, 31, 289.86376953125
0, 1, 32, 289.6161499023438
0, 1, 33, 295.73876953125
0, 1, 34, 292.6365356445312
0, 1, 35, 278.2409973144531
0, 1, 36, 306.9904479980469
0, 1, 37, 295.460205078125
0, 1, 38, 280.7503662109375
0, 1, 39, 296.3984985351562
0, 1, 40, 265.6993103027344
0, 1, 41, 286.698486328125
0, 1, 42, 289.4819946289062
0, 1, 43, 332.9525451660156
0, 1, 44, 279.3308410644531
0, 1, 45, 293.3693237304688
0, 1, 46, 258.3957214355469
0, 1, 47, 313.3530578613281
0, 1, 48, 284.2319946289062
0, 1, 49, 301.9707641601562
0, 1, 50, 262.5632934570312
0, 1, 51, 274.4951171875
0, 1, 52, 294.8086547851562
0, 1, 53, 306.0291748046875
0, 1, 54, 274.8148803710938
0, 1, 55, 292.0833129882812
0, 1, 56, 277.4530029296875
0, 1, 57, 299.589111328125
0, 1, 58, 309.2433776855469
0, 1, 59, 293.8703308105469
0, 1, 60, 297.4902648925781
0, 1, 61, 274.4871215820312
0, 1, 62, 308.0671691894531
0, 1, 63, 287.7432250976562
0, 1, 64, 288.9053344726562
0, 1, 65, 295.4183959960938
0, 1, 66, 293.083984375
0, 1, 67, 292.6011352539062
0, 1, 68, 277.3486633300781
0, 1, 69, 280.5948486328125
0, 1, 70, 269.8435363769531
0, 1, 71, 273.2299194335938
0, 1, 72, 286.0604858398438
0, 1, 73, 303.8037414550781
0, 1, 74, 304.0464477539062
0, 1, 75, 292.5623779296875
0, 1, 76, 285.67578125
0, 1, 77, 291.2339782714844
0, 1, 78, 296.4537658691406
0, 1, 79, 301.5648498535156
0, 1, 80, 296.4642333984375
0, 1, 81, 299.3551025390625
0, 1, 82, 283.6770935058594
0, 1, 83, 332.0806884765625
0, 1, 84, 308.8629150390625
0, 1, 85, 252.4092559814453
0, 1, 86, 292.9642333984375
0, 1, 87, 290.0531616210938
0, 1, 88, 296.8071594238281
0, 1, 89, 291.1353454589844
0, 1, 90, 269.5830688476562
0, 1, 91, 317.6864013671875
0, 1, 92, 291.1112976074219
0, 1, 93, 285.5160522460938
0, 1, 94, 306.7237548828125
0, 1, 95, 283.4515991210938
0, 1, 96, 282.1666259765625
0, 1, 97, 300.1472473144531
0, 1, 98, 276.6242980957031
0, 1, 99, 266.0706481933594
0, 1, 100, 276.4283752441406
0, 1, 101, 284.0977172851562
0, 1, 102, 279.9061584472656
0, 1, 103, 280.3162841796875
0, 1, 104, 307.1619567871094
0, 1, 105, 297.7801208496094
0, 1, 106, 260.5675659179688
0, 1, 107, 191.9222259521484
0, 1, 108, 80.92514038085938
0, 1, 109, 24.20023918151855
0, 1, 110, 11.25388813018799
0, 1, 111, 7.93727445602417
0, 1, 112, 11.84384059906006
0, 1, 113, 5.781691074371338
0, 1, 114, 5.805377960205078
0, 1, 115, 7.3113112449646
0, 1, 116, 11.8323392868042
0, 1, 117, 6.44420051574707
0, 1, 118, 4.638317584991455
0, 1, 119, 4.701212406158447
0, 1, 120, 6.310815811157227
0, 1, 121, 3.764813184738159
0, 1, 122, 2.269126653671265
0, 1, 123, 2.216578006744385
0, 1, 124, 8.913991928100586
0, 1, 125, 3.920152902603149
0, 1, 126, 3.45764422416687
0, 1, 127, 2.016305446624756
0, 2, 0, 6.082276821136475
0, 2, 1, 2.370260238647461
0, 2, 2, 5.592835426330566
0, 2, 3, 5.524326324462891
0, 2, 4, 3.509897470474243
0, 2, 5, 2.01610279083252
0, 2, 6, 2.158413648605347
0, 2, 7, 3.577453374862671
0, 2, 8, 3.798421382904053
0, 2, 9, 6.463387966156006
0, 2, 10, 9.977478981018066
0, 2, 11, 7.673112869262695
0, 2, 12, 5.528496742248535
0, 2, 13, 9.04448413848877
0, 2, 14, 10.37830352783203
0, 2, 15, 7.568047523498535
0, 2, 16, 8.764559745788574
0, 2, 17, 16.8862361907959
0, 2, 18, 30.58626937866211
0, 2, 19, 114.3460159301758
0, 2, 20, 246.3931732177734
0, 2, 21, 271.4673156738281
0, 2, 22, 316.7747192382812
0, 2, 23, 299.7947387695312
0, 2, 24, 286.1827697753906
0, 2, 25, 302.0642700195312
0, 2, 26, 293.1257934570312
0, 2, 27, 276.1840515136719
0, 2, 28, 277.1076965332031
0, 2, 29, 274.4216613769531
0, 2, 30, 289.5975646972656
0, 2, 31, 280.1446838378906
0, 2, 32, 293.2462463378906
0, 2, 33, 283.2344360351562
0, 2, 34, 331.1786499023438
0, 2, 35, 291.4102478027344
0, 2, 36, 302.8167114257812
0, 2, 37, 315.905029296875
0, 2, 38, 311.9397277832031
0, 2, 39, 267.6091613769531
0, 2, 40, 307.3582763671875
0, 2, 41, 291.0157775878906
0, 2, 42, 304.5082702636719
0, 2, 43, 311.5995178222656
0, 2, 44, 312.3793029785156
0, 2, 45, 325.5743713378906
0, 2, 46, 287.1822204589844
0, 2, 47, 302.1826477050781
0, 2, 48, 279.3779907226562
0, 2, 49, 279.0232543945312
0, 2, 50, 295.4063415527344
0, 2, 51, 283.6344604492188
0, 2, 52, 272.6136474609375
0, 2, 53, 287.4738464355469
0, 2, 54, 282.6480102539062
0, 2, 55, 276.1026306152344
0, 2, 56, 302.1835327148438
0, 2, 57, 292.1200866699219
0, 2, 58, 302.60546875
0, 2, 59, 286.9189147949219
0, 2, 60, 320.5822143554688
0, 2, 61, 302.3261413574219
0, 2, 62, 313.3217163085938
0, 2, 63, 304.9073791503906
0, 2, 64, 296.4424133300781
0, 2, 65, 312.6739501953125
0, 2, 66, 281.1470947265625
0, 2, 67, 290.8408813476562
0, 2, 68, 295.7650451660156
0, 2, 69, 313.263427734375
0, 2, 70, 337.6632385253906
0, 2, 71, 283.0351867675781
0, 2, 72, 301.9650268554688
0, 2, 73, 310.0077209472656
0, 2, 74, 287.1645812988281
0, 2, 75, 302.9158325195312
0, 2, 76, 287.86083984375
0, 2, 77, 300.3735046386719
0, 2, 78, 312.7659912109375
0, 2, 79, 307.8103942871094
0, 2, 80, 297.382080078125
0, 2, 81, 281.1693115234375
0, 2, 82, 318.3865051269531
0, 2, 83, 312.7806701660156
0, 2, 84, 289.6290893554688
0, 2, 85, 282.6880187988281
0, 2, 86, 325.8079833984375
0, 2, 87, 286.560302734375
0, 2, 88, 279.6307067871094
0, 2, 89, 296.1286315917969
0, 2, 90, 295.9209594726562
0, 2, 91, 275.1449584960938
0, 2, 92, 306.6276550292969
0, 2, 93, 317.588623046875
0, 2, 94, 290.5618286132812
0, 2, 95, 314.3684692382812
0, 2, 96, 316.0804748535156
0, 2, 97, 292.1921691894531
0, 2, 98, 294.5850219726562
0, 2, 99, 274.643798828125
0, 2, 100, 305.51611328125
0, 2, 101, 300.8565368652344
0, 2, 102, 297.8955383300781
0, 2, 103, 292.0097045898438
0, 2, 104, 293.2924499511719
0, 2, 105, 274.9718933105469
0, 2, 106, 297.2199401855469
0, 2, 107, 269.3539733886719
0, 2, 108, 116.6150283813477
0, 2, 109, 31.86739540100098
0, 2, 110, 9.682937622070312
0, 2, 111, 12.32809734344482
0, 2, 112, 8.429726600646973
0, 2, 113, 10.13371086120605
0, 2, 114, 8.988691329956055
0, 2, 115, 8.918237686157227
0, 2, 116, 7.267787456512451
0, 2, 117, 7.954137325286865
0, 2, 118, 3.292739152908325
0, 2, 119, 4.056145668029785
0, 2, 120, 6.12044095993042
0, 2, 121, 2.793404817581177
0, 2, 122, 6.0594801902771
0, 2, 123, 5.170831203460693
0, 2, 124, 2.010120630264282
0, 2, 125, 7.434813499450684
0, 2, 126, 5.639567375183105
0, 2, 127, 6.119010448455811
0, 3, 0, 4.143636703491211
0, 3, 1, 2.720858812332153
0, 3, 2, 3.272109746932983
0, 3, 3, 2.152276039123535
0, 3, 4, 4.717447757720947
0, 3, 5, 7.140732765197754
0, 3, 6, 6.562663555145264
0, 3, 7, 5.596657276153564
0, 3, 8, 5.879029750823975
0, 3, 9, 6.513626575469971
0, 3, 10, 8.397226333618164
0, 3, 11, 4.816582202911377
0, 3, 12, 7.232140064239502
0, 3, 13, 15.81203460693359
0, 3, 14, 11.89840888977051
0, 3, 15, 15.91236400604248
0, 3, 16, 12.63111019134521
0, 3, 17, 19.29663467407227
0, 3, 18, 51.47966003417969
0, 3, 19, 178.5380859375
0, 3, 20, 271.358642578125
0, 3, 21, 270.8734436035156
0, 3, 22, 280.15185546875
0, 3, 23, 287.3707275390625
0, 3, 24, 286.31982421875
0, 3, 25, 272.0731201171875
0, 3, 26, 303.14697265625
0, 3, 27, 293.2094116210938
0, 3, 28, 283.6404113769531
0, 3, 29, 336.7686462402344
0, 3, 30, 316.6651000976562
0, 3, 31, 288.2714233398438
0, 3, 32, 308.8839416503906
0, 3, 33, 314.3169555664062
0, 3, 34, 326.5622863769531
0, 3, 35, 307.3328857421875
0, 3, 36, 269.1813354492188
0, 3, 37, 315.0114135742188
0, 3, 38, 303.5804443359375
0, 3, 39, 288.7467651367188
0, 3, 40, 266.1015014648438
0, 3, 41, 299.8551025390625
0, 3, 42, 286.2743225097656
0, 3, 43, 307.4059753417969
0, 3, 44, 310.5623474121094
0, 3, 45, 289.9697570800781
0, 3, 46, 327.8677062988281
0, 3, 47, 302.3230590820312
0, 3, 48, 304.249755859375
0, 3, 49, 276.3981018066406
0, 3, 50, 289.5234985351562
0, 3, 51, 275.2539978027344
0, 3, 52, 315.952392578125
0, 3, 53, 288.2216796875
0, 3, 54, 284.7303161621094
0, 3, 55, 285.2007751464844
0, 3, 56, 298.1980590820312
0, 3, 57, 289.2998046875
0, 3, 58, 306.0392150878906
0, 3, 59, 295.5915832519531
0, 3, 60, 297.5872497558594
0, 3, 61, 264.4293518066406
0, 3, 62, 283.985595703125
0, 3, 63, 308.2719421386719
0, 3, 64, 317.8105773925781
0, 3, 65, 304.6808471679688
0, 3, 66, 317.3150634765625
0, 3, 67, 317.6682434082031
0, 3, 68, 279.1703186035156
0, 3, 69, 285.8062438964844
0, 3, 70, 287.9208068847656
0, 3, 71, 299.0205078125
0, 3, 72, 269.9757385253906
0, 3, 73, 307.8181457519531
0, 3, 74, 293.548828125
0, 3, 75, 292.4932861328125
0, 3, 76, 306.3512573242188
0, 3, 77, 313.50146484375
0, 3, 78, 301.1649169921875
0, 3, 79, 284.5874633789062
0, 3, 80, 291.4281921386719
0, 3, 81, 309.8450317382812
0, 3, 82, 317.0347595214844
0, 3, 83, 300.2656555175781
0, 3, 84, 312.9526977539062
0, 3, 85, 293.9722290039062
0, 3, 86, 302.3837280273438
0, 3, 87, 298.3400573730469
0, 3, 88, 298.5580139160156
0, 3, 89, 297.1253051757812
0, 3, 90, 275.26171875
0, 3, 91, 284.5813903808594
0, 3, 92, 304.6878662109375
0, 3, 93, 312.7985534667969
0, 3, 94, 298.5882263183594
0, 3, 95, 334.1273803710938
0, 3, 96, 290.9660949707031
0, 3, 97, 282.7413330078125
0, 3, 98, 279.1140747070312
0, 3, 99, 263.9734802246094
0, 3, 100, 285.4591369628906
0, 3, 101, 298.4962463378906
0, 3, 102, 274.6325988769531
0, 3, 103, 320.5154418945312
0, 3, 104, 308.3612670898438
0, 3, 105, 289.1255798339844
0, 3, 106, 302.0423278808594
0, 3, 107, 282.3401489257812
0, 3, 108, 169.3088226318359
0, 3, 109, 57.56744766235352
0, 3, 110, 17.6255054473877
0, 3, 111, 13.66042232513428
0, 3, 112, 12.31668758392334
0, 3, 113, 5.526930809020996
0, 3, 114, 10.83428764343262
0, 3, 115, 7.336508750915527
0, 3, 116, 6.204505920410156
0, 3, 117, 5.977863788604736
0, 3, 118, 5.333718299865723
0, 3, 119, 6.196129322052002
0, 3, 120, 5.961117267608643
0, 3, 121, 2.665405750274658
0, 3, 122, 2.737985849380493
0, 3, 123, 6.094886302947998
0, 3, 124, 1.66339123249054
0, 3, 125, 6.114715099334717
0, 3, 126, 6.28752326965332
0, 3, 127, 3.500229597091675
0, 4, 0, 2.82769250869751
0, 4, 1, 5.995004653930664
0, 4, 2, 3.183636426925659
0, 4, 3, 1.436030626296997
0, 4, 4, 4.912800312042236
0, 4, 5, 8.004277229309082
0, 4, 6, 7.772487640380859
0, 4, 7, 6.89919376373291
0, 4, 8, 3.26269006729126
0, 4, 9, 4.918355941772461
0, 4, 10, 5.3064284324646
0, 4, 11, 6.900067329406738
0, 4, 12, 5.478971481323242
0, 4, 13, 7.613036632537842
0, 4, 14, 10.19487380981445
0, 4, 15, 8.571805000305176
0, 4, 16, 15.4016056060791
0, 4, 17, 17.69040489196777
0, 4, 18, 93.81344604492188
0, 4, 19, 223.2326812744141
0, 4, 20, 283.2281494140625
0, 4, 21, 272.8788757324219
0, 4, 22, 305.6653137207031
0, 4, 23, 265.768310546875
0, 4, 24, 289.2486572265625
0, 4, 25, 273.8047180175781
0, 4, 26, 294.7667846679688
0, 4, 27, 281.7871398925781
0, 4, 28, 306.1792602539062
0, 4, 29, 322.3656311035156
0, 4, 30, 308.7460021972656
0, 4, 31, 303.0045166015625
0, 4, 32, 280.2919616699219
0, 4, 33, 297.2410583496094
0, 4, 34, 295.0234680175781
0, 4, 35, 311.80029296875
0, 4, 36, 292.4537963867188
0, 4, 37, 287.1111145019531
0, 4, 38, 295.5142211914062
0, 4, 39, 292.8728332519531
0, 4, 40, 300.9817504882812
0, 4, 41, 311.9695434570312
0, 4, 42, 329.6636962890625
0, 4, 43, 298.2530212402344
0, 4, 44, 321.745849609375
0, 4, 45, 326.3330688476562
0, 4, 46, 305.0336303710938
0, 4, 47, 293.6533813476562
0, 4, 48, 297.2747497558594
0, 4, 49, 277.5631713867188
0, 4, 50, 296.4387512207031
0, 4, 51, 316.8628234863281
0, 4, 52, 328.6216735839844
0, 4, 53, 303.2552490234375
0, 4, 54, 286.9057006835938
0, 4, 55, 318.6199340820312
0, 4, 56, 288.2760925292969
0, 4, 57, 312.04833984375
0, 4, 58, 295.7617797851562
0, 4, 59, 308.1788024902344
0, 4, 60, 301.2322387695312
0, 4, 61, 316.4733276367188
0, 4, 62, 308.6158142089844
0, 4, 63, 298.6921691894531
0, 4, 64, 329.2531433105469
0, 4, 65, 315.5038757324219
0, 4, 66, 293.0088195800781
0, 4, 67, 284.7649230957031
0, 4, 68, 311.3972778320312
0, 4, 69, 277.7914428710938
0, 4, 70, 299.7204895019531
0, 4, 71, 320.663330078125
0, 4, 72, 334.727294921875
0, 4, 73, 299.4538269042969
0, 4, 74, 291.0625305175781
0, 4, 75, 288.3455810546875
0, 4, 76, 276.8439331054688
0, 4, 77, 279.2546691894531
0, 4, 78, 310.5256042480469
0, 4, 79, 320.3614501953125
0, 4, 80, 314.3558654785156
0, 4, 81, 312.3283996582031
0, 4, 82, 297.4914245605469
0, 4, 83, 301.4839782714844
0, 4, 84, 293.1794738769531
0, 4, 85, 294.6095275878906
0, 4, 86, 300.0560607910156
0, 4, 87, 284.283447265625
0, 4, 88, 306.4803466796875
0, 4, 89, 296.0940246582031
0, 4, 90, 332.7010803222656
0, 4, 91, 304.0518798828125
0, 4, 92, 289.0088806152344
0, 4, 93, 296.9668884277344
0, 4, 94, 291.7718505859375
0, 4, 95, 290.7254638671875
0, 4, 96, 322.0719604492188
0, 4, 97, 274.5419006347656
0, 4, 98, 326.6949768066406
0, 4, 99, 312.2061157226562
0, 4, 100, 302.7482604980469
0, 4, 101, 258.7177124023438
0, 4, 102, 298.7955932617188
0, 4, 103, 315.8155822753906
0, 4, 104, 280.4023132324219
0, 4, 105, 308.8392639160156
0, 4, 106, 286.8859558105469
0, 4, 107, 295.2321472167969
0, 4, 108, 226.6524505615234
0, 4, 109, 80.72632598876953
0, 4, 110, 16.99377059936523
0, 4, 111, 13.52041244506836
0, 4, 112, 8.009461402893066
0, 4, 113, 11.55674457550049
0, 4, 114, 8.614113807678223
0, 4, 115, 8.842201232910156
0, 4, 116, 8.971697807312012
0, 4, 117, 9.804439544677734
0, 4, 118, 9.699969291687012
0, 4, 119, 8.433305740356445
0, 4, 120, 6.069011688232422
0, 4, 121, 7.167262077331543
0, 4, 122, 3.807104110717773
0, 4, 123, 5.535834789276123
0, 4, 124, 4.330683708190918
0, 4, 125, 9.793190002441406
0, 4, 126, 5.548150062561035
0, 4, 127, 3.222590446472168
0, 5, 0, 3.632230520248413
0, 5, 1, 2.459486246109009
0, 5, 2, 3.970289707183838
0, 5, 3, 3.811995983123779
0, 5, 4, 5.480538845062256
0, 5, 5, 5.247035026550293
0, 5, 6, 10.95888519287109
0, 5, 7, 7.018196105957031
0, 5, 8, 4.81040620803833
0, 5, 9, 4.393118858337402
0, 5, 10, 9.415006637573242
0, 5, 11, 8.230399131774902
0, 5, 12, 9.437858581542969
0, 5, 13, 7.218252658843994
0, 5, 14, 13.03408432006836
0, 5, 15, 16.68343925476074
0, 5, 16, 14.2790699005127
0, 5, 17, 30.56120109558105
0, 5, 18, 137.530029296875
0, 5, 19, 285.9724426269531
0, 5, 20, 307.1433410644531
0, 5, 21, 317.4212036132812
0, 5, 22, 274.7943420410156
0, 5, 23, 311.8672485351562
0, 5, 24, 301.9658203125
0, 5, 25, 289.5729370117188
0, 5, 26, 294.4430541992188
0, 5, 27, 320.818115234375
0, 5, 28, 303.626220703125
0, 5, 29, 297.866943359375
0, 5, 30, 324.6909790039062
0, 5, 31, 288.1769409179688
0, 5, 32, 301.36474609375
0, 5, 33, 302.8920288085938
0, 5, 34, 298.4090576171875
0, 5, 35, 312.2064514160156
0, 5, 36, 268.9731140136719
0, 5, 37, 282.729736328125
0, 5, 38, 291.3556823730469
0, 5, 39, 311.0314025878906
0, 5, 40, 307.2010803222656
0, 5, 41, 273.4939575195312
0, 5, 42, 305.5496826171875
0, 5, 43, 314.5301818847656
0, 5, 44, 290.8018493652344
0, 5, 45, 300.8866882324219
0, 5, 46, 264.8574829101562
0, 5, 47, 280.26513671875
0, 5, 48, 293.8355712890625
0, 5, 49, 286.3276977539062
0, 5, 50, 293.9969177246094
0, 5, 51, 281.9769287109375
0, 5, 52, 269.1763305664062
0, 5, 53, 283.9569396972656
0, 5, 54, 292.0586547851562
0, 5, 55, 345.310546875
0, 5, 56, 305.9679870605469
0, 5, 57, 307.6784362792969
0, 5, 58, 313.6218566894531
0, 5, 59, 304.3710021972656
0, 5, 60, 308.385986328125
0, 5, 61, 282.8998413085938
0, 5, 62, 324.1796569824219
0, 5, 63, 292.9714965820312
0, 5, 64, 324.7736206054688
0, 5, 65, 307.0137939453125
0, 5, 66, 327.7716064453125
0, 5, 67, 313.6441040039062
0, 5, 68, 309.0708312988281
0, 5, 69, 309.8470764160156
0, 5, 70, 300.1692199707031
0, 5, 71, 273.0281066894531
0, 5, 72, 311.3874816894531
0, 5, 73, 304.5622253417969
0, 5, 74, 298.6690063476562
0, 5, 75, 293.8920593261719
0, 5, 76, 285.3002014160156
0, 5, 77, 299.4092712402344
0, 5, 78, 314.3371276855469
0, 5, 79, 306.6990966796875
0, 5, 80, 294.2720947265625
0, 5, 81, 324.6629943847656
0, 5, 82, 324.7907409667969
0, 5, 83, 283.3723754882812
0, 5, 84, 303.4012756347656
0, 5, 85, 269.9859008789062
0, 5, 86, 323.7955932617188
0, 5, 87, 282.3925170898438
0, 5, 88, 312.7052612304688
0, 5, 89, 305.774169921875
0, 5, 90, 315.7736206054688
0, 5, 91, 312.2776794433594
0, 5, 92, 296.1286315917969
0, 5, 93, 321.5781860351562
0, 5, 94, 310.611083984375
0, 5, 95, 297.2399291992188
0, 5, 96, 297.4465942382812
0, 5, 97, 294.9551086425781
0, 5, 98, 318.9042358398438
0, 5, 99, 302.9765014648438
0, 5, 100, 290.4494934082031
0, 5, 101, 306.4847106933594
0, 5, 102, 293.7467041015625
0, 5, 103, 313.387939453125
0, 5, 104, 304.5184020996094
0, 5, 105, 293.3841857910156
0, 5, 106, 280.9703674316406
0, 5, 107, 295.2604370117188
0, 5, 108, 264.5520629882812
0, 5, 109, 157.2297058105469
0, 5, 110, 40.94533538818359
0, 5, 111, 21.19832611083984
0, 5, 112, 15.91732311248779
0, 5, 113, 14.09343242645264
0, 5, 114, 11.99559783935547
0, 5, 115, 6.065056800842285
0, 5, 116, 8.429980278015137
0, 5, 117, 8.319799423217773
0, 5, 118, 13.21321392059326
0, 5, 119, 2.562366008758545
0, 5, 120, 6.349217414855957
0, 5, 121, 4.637617111206055
0, 5, 122, 6.889985084533691
0, 5, 123, 6.747175216674805
0, 5, 124, 5.600058555603027
0, 5, 125, 3.526920080184937
0, 5, 126, 5.856070518493652
0, 5, 127, 2.857528209686279
0, 6, 0, 4.432723999023438
0, 6, 1, 2.636553049087524
0, 6, 2, 5.277588844299316
0, 6, 3, 6.788397789001465
0, 6, 4, 4.698821067810059
0, 6, 5, 4.657465934753418
0, 6, 6, 7.671094417572021
0, 6, 7, 5.821125507354736
0, 6, 8, 7.288763046264648
0, 6, 9, 6.019803047180176
0, 6, 10, 6.595774173736572
0, 6, 11, 7.97507381439209
0, 6, 12, 8.816658020019531
0, 6, 13, 13.97715759277344
0, 6, 14, 9.754534721374512
0, 6, 15, 16.72452926635742
0, 6, 16, 30.47570419311523
0, 6, 17, 54.91013336181641
0, 6, 18, 173.5487213134766
0, 6, 19, 275.9852294921875
0, 6, 20, 290.0527648925781
0, 6, 21, 316.6494445800781
0, 6, 22, 319.4956665039062
0, 6, 23, 304.5608825683594
0, 6, 24, 316.4261169433594
0, 6, 25, 315.4171142578125
0, 6, 26, 321.3787231445312
0, 6, 27, 333.33349609375
0, 6, 28, 296.9289245605469
0, 6, 29, 332.6866149902344
0, 6, 30, 281.1024475097656
0, 6, 31, 288.9923706054688
0, 6, 32, 339.641357421875
0, 6, 33, 300.2000122070312
0, 6, 34, 341
0, 6, 35, 320.8100891113281
0, 6, 36, 272.7892761230469
0, 6, 37, 289.926025390625
0, 6, 38, 314.8117980957031
0, 6, 39, 299.9875793457031
0, 6, 40, 283.6753234863281
0, 6, 41, 296.8508911132812
0, 6, 42, 303.7137756347656
0, 6, 43, 290.4297180175781
0, 6, 44, 282.4176940917969
0, 6, 45, 318.7374267578125
0, 6, 46, 301.7478332519531
0, 6, 47, 334.199951171875
0, 6, 48, 292.224365234375
0, 6, 49, 311.8575744628906
0, 6, 50, 328.6975708007812
0, 6, 51, 310.140625
0, 6, 52, 321.5502014160156
0, 6, 53, 326.9148864746094
0, 6, 54, 302.8839111328125
0, 6, 55, 305.6543579101562
0, 6, 56, 293.4434204101562
0, 6, 57, 314.0462036132812
0, 6, 58, 261.3445739746094
0, 6, 59, 301.8825378417969
0, 6, 60, 314.4105834960938
0, 6, 61, 270.2996826171875
0, 6, 62, 338.5770568847656
0, 6, 63, 323.3229675292969
0, 6, 64, 294.2420654296875
0, 6, 65, 283.4049072265625
0, 6, 66, 302.6221618652344
0, 6, 67, 310.95947265625
0, 6, 68, 294.0322570800781
0, 6, 69, 284.9476013183594
0, 6, 70, 275.5511474609375
0, 6, 71, 290.0579833984375
0, 6, 72, 309.6648254394531
0, 6, 73, 291.0921020507812
0, 6, 74, 330.1470642089844
0, 6, 75, 343.1939697265625
0, 6, 76, 296.0804748535156
0, 6, 77, 287.751220703125
0, 6, 78, 277.6687927246094
0, 6, 79, 291.7786254882812
0, 6, 80, 298.3811645507812
0, 6, 81, 315.6976623535156
0, 6, 82, 319.4258117675781
0, 6, 83, 319.4195861816406
0, 6, 84, 295.1886291503906
0, 6, 85, 301.8652954101562
0, 6, 86, 329.9846801757812
0, 6, 87, 293.7718811035156
0, 6, 88, 305.7421875
0, 6, 89, 304.4425354003906
0, 6, 90, 299.2870483398438
0, 6, 91, 313.3060913085938
0, 6, 92, 283.2214660644531
0, 6, 93, 296.6605529785156
0, 6, 94, 273.2502746582031
0, 6, 95, 299.2393493652344
0, 6, 96, 346.6115417480469
0, 6, 97, 309.2774963378906
0, 6, 98, 301.2220458984375
0, 6, 99, 271.6117248535156
0, 6, 100, 310.3242797851562
0, 6, 101, 293.0885314941406
0, 6, 102, 307.5124206542969
0, 6, 103, 308.4906311035156
0, 6, 104, 291.7446899414062
0, 6, 105, 300.7359008789062
0, 6, 106, 308.1394653320312
0, 6, 107, 305.6025390625
0, 6, 108, 267.598876953125
0, 6, 109, 185.7516174316406
0, 6, 110, 54.83502578735352
0, 6, 111, 21.69086265563965
0, 6, 112, 13.98451709747314
0, 6, 113, 10.97042942047119
0, 6, 114, 11.65407180786133
0, 6, 115, 12.9961462020874
0, 6, 116, 11.92612266540527
0, 6, 117, 8.848690986633301
0, 6, 118, 12.2086763381958
0, 6, 119, 9.187026977539062
0, 6, 120, 10.08652114868164
0, 6, 121, 5.47860050201416
0, 6, 122, 8.671467781066895
0, 6, 123, 6.33369779586792
0, 6, 124, 7.40391731262207
0, 6, 125, 9.637641906738281
0, 6, 126, 4.543647289276123
0, 6, 127, 7.308101177215576
0, 7, 0, 4.930243015289307
0, 7, 1, 3.850008964538574
0, 7, 2, 7.589657306671143
0, 7, 3, 3.330900192260742
0, 7, 4, 4.523911476135254
0, 7, 5, 4.851274490356445
0, 7, 6, 8.754487991333008
0, 7, 7, 4.740158081054688
0, 7, 8, 5.904679298400879
0, 7, 9, 5.669319152832031
0, 7, 10, 8.808186531066895
0, 7, 11, 12.2642879486084
0, 7, 12, 10.27405452728271
0, 7, 13, 10.00151252746582
0, 7, 14, 15.85465335845947
0, 7, 15, 16.70890617370605
0, 7, 16, 25.30181884765625
0, 7, 17, 97.23829650878906
0, 7, 18, 219.3645172119141
0, 7, 19, 290.6996154785156
0, 7, 20, 298.486083984375
0, 7, 21, 278.1972045898438
0, 7, 22, 298.3939514160156
0, 7, 23, 289.0395812988281
0, 7, 24, 313.3146362304688
0, 7, 25, 324.8880004882812
0, 7, 26, 277.5194702148438
0, 7, 27, 297.6297607421875
0, 7, 28, 328.8345642089844
0, 7, 29, 319.00048828125
0, 7, 30, 302.2810363769531
0, 7, 31, 276.6304931640625
0, 7, 32, 303.5284729003906
0, 7, 33, 266.0797729492188
0, 7, 34, 297.0201416015625
0, 7, 35, 317.7934265136719
0, 7, 36, 331.8458557128906
0, 7, 37, 322.8179016113281
0, 7, 38, 296.42333984375
0, 7, 39, 306.1564636230469
0, 7, 40, 291.4383544921875
0, 7, 41, 272.4126281738281
0, 7, 42, 301.943603515625
0, 7, 43, 273.718994140625
0, 7, 44, 304.5354614257812
0, 7, 45, 298.8092956542969
0, 7, 46, 283.1988525390625
0, 7, 47, 329.3831481933594
0, 7, 48, 285.1400451660156
0, 7, 49, 301.35791015625
0, 7, 50, 321.564208984375
0, 7, 51, 298.4879150390625
0, 7, 52, 327.1722106933594
0, 7, 53, 311.0924987792969
0, 7, 54, 324.1509399414062
0, 7, 55, 306.6393127441406
0, 7, 56, 280.3865661621094
0, 7, 57, 282.7019958496094
0, 7, 58, 294.5003662109375
0, 7, 59, 294.5780334472656
0, 7, 60, 322.1929626464844
0, 7, 61, 277.5410766601562
0, 7, 62, 296.7023315429688
0, 7, 63, 292.9218139648438
0, 7, 64, 304.735107421875
0, 7, 65, 332.5893249511719
0, 7, 66, 320.0290222167969
0, 7, 67, 305.5081481933594
0, 7, 68, 280.966796875
0, 7, 69, 293.6180725097656
0, 7, 70, 301.3722229003906
0, 7, 71, 309.2926940917969
0, 7, 72, 286.4483947753906
0, 7, 73, 296.5218811035156
0, 7, 74, 345.2333374023438
0, 7, 75, 319.8096923828125
0, 7, 76, 323.8111267089844
0, 7, 77, 279.7511901855469
0, 7, 78, 302.1954650878906
0, 7, 79, 297.7798461914062
0, 7, 80, 313.5736694335938
0, 7, 81, 319.4762878417969
0, 7, 82, 329.5117492675781
0, 7, 83, 318.4226684570312
0, 7, 84, 308.4979553222656
0, 7, 85, 272.6863098144531
0, 7, 86, 311.0389709472656
0, 7, 87, 308.8975219726562
0, 7, 88, 310.4995422363281
0, 7, 89, 294.4183044433594
0, 7, 90, 307.8454284667969
0, 7, 91, 316.6358032226562
0, 7, 92, 289.5808715820312
0, 7, 93, 306.4617614746094
0, 7, 94, 273.3000183105469
0, 7, 95, 296.8232421875
0, 7, 96, 330.6385498046875
0, 7, 97, 295.0715026855469
0, 7, 98, 290.8842468261719
0, 7, 99, 311.6239624023438
0, 7, 100, 284.1770324707031
0, 7, 101, 275.0853881835938
0, 7, 102, 289.6938171386719
0, 7, 103, 292.8700866699219
0, 7, 104, 274.0980529785156
0, 7, 105, 306.8000793457031
0, 7, 106, 317.6151428222656
0, 7, 107, 295.1499938964844
0, 7, 108, 273.6155090332031
0, 7, 109, 237.9074249267578
0, 7, 110, 98.50367736816406
0, 7, 111, 23.33286285400391
0, 7, 112, 13.78493404388428
0, 7, 113, 13.25768089294434
0, 7, 114, 13.69142627716064
0, 7, 115, 11.82535743713379
0, 7, 116, 9.621039390563965
0, 7, 117, 7.070276260375977
0, 7, 118, 9.746789932250977
0, 7, 119, 5.364669322967529
0, 7, 120, 3.945369958877563
0, 7, 121, 5.082536220550537
0, 7, 122, 6.737453937530518
0, 7, 123, 6.132086277008057
0, 7, 124, 3.968218564987183
0, 7, 125, 6.829053401947021
0, 7, 126, 8.193495750427246
0, 7, 127, 2.627794742584229
0, 8, 0, 4.640094757080078
0, 8, 1, 4.629500865936279
0, 8, 2, 3.567870616912842
0, 8, 3, 3.478573322296143
0, 8, 4, 4.206596374511719
0, 8, 5, 4.493613719940186
0, 8, 6, 4.920164108276367
0, 8, 7, 4.819743156433105
0, 8, 8, 8.183370590209961
0, 8, 9, 5.18615198135376
0, 8, 10, 7.895907402038574
0, 8, 11, 11.10066318511963
0, 8, 12, 13.34854698181152
0, 8, 13, 17.21919631958008
0, 8, 14, 14.45148468017578
0, 8, 15, 20.41685485839844
0, 8, 16, 32.85549926757812
0, 8, 17, 130.3787536621094
0, 8, 18, 244.1581573486328
0, 8, 19, 295.5772094726562
0, 8, 20, 286.9335021972656
0, 8, 21, 307.7639770507812
0, 8, 22, 294.8472900390625
0, 8, 23, 274.8028869628906
0, 8, 24, 268.2781066894531
0, 8, 25, 276.0448608398438
0, 8, 26, 306.2490844726562
0, 8, 27, 308.7449951171875
0, 8, 28, 302.8421020507812
0, 8, 29, 320.2472229003906
0, 8, 30, 314.1224060058594
0, 8, 31, 303.9387512207031
0, 8, 32, 279.4913635253906
0, 8, 33, 294.5966186523438
0, 8, 34, 289.8740539550781
0, 8, 35, 282.0232238769531
0, 8, 36, 315.8457946777344
0, 8, 37, 338.0837707519531
0, 8, 38, 331.9378051757812
0, 8, 39, 280.4933776855469
0, 8, 40, 304.84619140625
