# TOPAS Version: 3.1.p3
# Parameter File: batch_inserts_76.txt
# Results for scorer Readout_Adipose
# Scored in component: MyBox
# X in 1 bin  of 0.75 cm
# Y in 512 bins of 0.0783984 cm
# Z in 128 bins of 0.078125 cm
# EnergyDeposit ( MeV ) : Sum   
0, 0, 0, 2.890811920166016
0, 0, 1, 2.497247934341431
0, 0, 2, 4.625976085662842
0, 0, 3, 2.967831611633301
0, 0, 4, 3.76810359954834
0, 0, 5, 2.932115077972412
0, 0, 6, 5.994441509246826
0, 0, 7, 9.820504188537598
0, 0, 8, 5.999086380004883
0, 0, 9, 4.848729133605957
0, 0, 10, 6.079642772674561
0, 0, 11, 5.392035484313965
0, 0, 12, 4.079830646514893
0, 0, 13, 5.487133026123047
0, 0, 14, 6.417432308197021
0, 0, 15, 10.27220249176025
0, 0, 16, 8.476996421813965
0, 0, 17, 9.424203872680664
0, 0, 18, 12.79224109649658
0, 0, 19, 42.68327331542969
0, 0, 20, 141.9579467773438
0, 0, 21, 223.3394927978516
0, 0, 22, 250.0626831054688
0, 0, 23, 256.3419799804688
0, 0, 24, 252.4601745605469
0, 0, 25, 258.5836791992188
0, 0, 26, 233.7251129150391
0, 0, 27, 238.0163116455078
0, 0, 28, 274.4306640625
0, 0, 29, 253.2783050537109
0, 0, 30, 230.4860687255859
0, 0, 31, 244.2080078125
0, 0, 32, 263.9760131835938
0, 0, 33, 261.3577880859375
0, 0, 34, 286.5909729003906
0, 0, 35, 267.2928771972656
0, 0, 36, 245.4476318359375
0, 0, 37, 251.2891845703125
0, 0, 38, 268.1965026855469
0, 0, 39, 229.3604278564453
0, 0, 40, 244.6208648681641
0, 0, 41, 264.7191162109375
0, 0, 42, 230.1445770263672
0, 0, 43, 261.0227355957031
0, 0, 44, 251.5035858154297
0, 0, 45, 252.0849151611328
0, 0, 46, 243.5906219482422
0, 0, 47, 251.8292541503906
0, 0, 48, 266.605712890625
0, 0, 49, 273.3641662597656
0, 0, 50, 251.4352874755859
0, 0, 51, 254.2221069335938
0, 0, 52, 276.0997924804688
0, 0, 53, 290.9252014160156
0, 0, 54, 241.9471740722656
0, 0, 55, 239.4101715087891
0, 0, 56, 276.7955932617188
0, 0, 57, 265.0597229003906
0, 0, 58, 244.7599639892578
0, 0, 59, 271.7038269042969
0, 0, 60, 234.5967254638672
0, 0, 61, 245.6802825927734
0, 0, 62, 258.0150756835938
0, 0, 63, 265.8388366699219
0, 0, 64, 255.8924865722656
0, 0, 65, 262.2015686035156
0, 0, 66, 276.3073425292969
0, 0, 67, 246.2479248046875
0, 0, 68, 257.6132202148438
0, 0, 69, 262.1192626953125
0, 0, 70, 272.6278686523438
0, 0, 71, 236.5899658203125
0, 0, 72, 250.7796630859375
0, 0, 73, 257.1591491699219
0, 0, 74, 250.2133178710938
0, 0, 75, 240.7707214355469
0, 0, 76, 228.6783142089844
0, 0, 77, 260.8250427246094
0, 0, 78, 254.2895965576172
0, 0, 79, 278.0375366210938
0, 0, 80, 218.4145965576172
0, 0, 81, 269.0249633789062
0, 0, 82, 256.6089172363281
0, 0, 83, 248.0045928955078
0, 0, 84, 270.4911499023438
0, 0, 85, 231.8668670654297
0, 0, 86, 253.3558502197266
0, 0, 87, 251.049072265625
0, 0, 88, 260.4166870117188
0, 0, 89, 286.3367004394531
0, 0, 90, 244.7143249511719
0, 0, 91, 281.0130920410156
0, 0, 92, 253.6260070800781
0, 0, 93, 248.6616668701172
0, 0, 94, 249.8717193603516
0, 0, 95, 247.2309265136719
0, 0, 96, 275.3505554199219
0, 0, 97, 272.7464599609375
0, 0, 98, 272.302001953125
0, 0, 99, 258.4671936035156
0, 0, 100, 257.6025390625
0, 0, 101, 225.3333435058594
0, 0, 102, 231.9223175048828
0, 0, 103, 270.4443054199219
0, 0, 104, 253.2487182617188
0, 0, 105, 252.6635131835938
0, 0, 106, 248.4672088623047
0, 0, 107, 155.1636810302734
0, 0, 108, 38.46271514892578
0, 0, 109, 12.71409225463867
0, 0, 110, 11.39682960510254
0, 0, 111, 9.86255931854248
0, 0, 112, 7.936442852020264
0, 0, 113, 4.27381706237793
0, 0, 114, 7.172457218170166
0, 0, 115, 4.759781837463379
0, 0, 116, 5.820854187011719
0, 0, 117, 8.959369659423828
0, 0, 118, 6.136613368988037
0, 0, 119, 3.208225250244141
0, 0, 120, 6.215539455413818
0, 0, 121, 3.207679033279419
0, 0, 122, 3.535457611083984
0, 0, 123, 2.007878303527832
0, 0, 124, 5.010677814483643
0, 0, 125, 2.515862464904785
0, 0, 126, 3.899856805801392
0, 0, 127, 4.427574634552002
0, 1, 0, 8.033547401428223
0, 1, 1, 2.254536151885986
0, 1, 2, 2.585626840591431
0, 1, 3, 3.650848388671875
0, 1, 4, 3.858510732650757
0, 1, 5, 4.707555770874023
0, 1, 6, 5.407855033874512
0, 1, 7, 1.625615358352661
0, 1, 8, 8.003064155578613
0, 1, 9, 5.065522193908691
0, 1, 10, 7.084745407104492
0, 1, 11, 13.99580764770508
0, 1, 12, 9.804241180419922
0, 1, 13, 10.0468807220459
0, 1, 14, 7.362100601196289
0, 1, 15, 7.556100845336914
0, 1, 16, 11.50535488128662
0, 1, 17, 10.87660121917725
0, 1, 18, 20.07162094116211
0, 1, 19, 67.06679534912109
0, 1, 20, 197.4490203857422
0, 1, 21, 253.7810363769531
0, 1, 22, 294.8409729003906
0, 1, 23, 284.1177062988281
0, 1, 24, 276.4842529296875
0, 1, 25, 287.98193359375
0, 1, 26, 268.3017578125
0, 1, 27, 307.0960388183594
0, 1, 28, 303.018798828125
0, 1, 29, 298.7167663574219
0, 1, 30, 280.46142578125
0, 1, 31, 291.2510070800781
0, 1, 32, 289.3785095214844
0, 1, 33, 294.8320007324219
0, 1, 34, 293.3547668457031
0, 1, 35, 279.8765258789062
0, 1, 36, 308.0572814941406
0, 1, 37, 295.3208618164062
0, 1, 38, 280.2972106933594
0, 1, 39, 296.2392578125
0, 1, 40, 266.9400329589844
0, 1, 41, 285.4893493652344
0, 1, 42, 291.1155090332031
0, 1, 43, 330.9153747558594
0, 1, 44, 277.08447265625
0, 1, 45, 294.1863098144531
0, 1, 46, 265.1232299804688
0, 1, 47, 312.1328735351562
0, 1, 48, 286.808349609375
0, 1, 49, 301.6644897460938
0, 1, 50, 264.8713989257812
0, 1, 51, 272.0350952148438
0, 1, 52, 295.6366577148438
0, 1, 53, 305.4171447753906
0, 1, 54, 275.6734924316406
0, 1, 55, 293.6247863769531
0, 1, 56, 278.1077880859375
0, 1, 57, 296.8121948242188
0, 1, 58, 310.3424987792969
0, 1, 59, 292.2638244628906
0, 1, 60, 297.7037658691406
0, 1, 61, 274.7756652832031
0, 1, 62, 307.5789794921875
0, 1, 63, 289.5619506835938
0, 1, 64, 288.885009765625
0, 1, 65, 294.2598876953125
0, 1, 66, 292.7239685058594
0, 1, 67, 291.3978271484375
0, 1, 68, 278.0292663574219
0, 1, 69, 281.476806640625
0, 1, 70, 268.9119873046875
0, 1, 71, 273.0969848632812
0, 1, 72, 286.794189453125
0, 1, 73, 305.5177612304688
0, 1, 74, 307.4983215332031
0, 1, 75, 291.6473693847656
0, 1, 76, 285.92919921875
0, 1, 77, 290.1935424804688
0, 1, 78, 298.9618530273438
0, 1, 79, 300.9842224121094
0, 1, 80, 295.8861389160156
0, 1, 81, 300.2142944335938
0, 1, 82, 284.0589599609375
0, 1, 83, 332.6761169433594
0, 1, 84, 310.3317260742188
0, 1, 85, 254.5503234863281
0, 1, 86, 293.1328430175781
0, 1, 87, 289.5355224609375
0, 1, 88, 297.4817199707031
0, 1, 89, 289.8750305175781
0, 1, 90, 270.9868469238281
0, 1, 91, 320.2792663574219
0, 1, 92, 290.1712341308594
0, 1, 93, 286.2595520019531
0, 1, 94, 304.0010070800781
0, 1, 95, 284.7540283203125
0, 1, 96, 283.4583740234375
0, 1, 97, 301.2633056640625
0, 1, 98, 277.2920532226562
0, 1, 99, 265.0026245117188
0, 1, 100, 276.685546875
0, 1, 101, 282.2852172851562
0, 1, 102, 277.8454895019531
0, 1, 103, 281.0546264648438
0, 1, 104, 308.7279968261719
0, 1, 105, 298.0771789550781
0, 1, 106, 261.5144348144531
0, 1, 107, 193.2083282470703
0, 1, 108, 86.35757446289062
0, 1, 109, 23.45123481750488
0, 1, 110, 11.39345264434814
0, 1, 111, 7.604143142700195
0, 1, 112, 12.73378753662109
0, 1, 113, 9.232206344604492
0, 1, 114, 7.646176338195801
0, 1, 115, 6.344339370727539
0, 1, 116, 10.42431163787842
0, 1, 117, 5.418669700622559
0, 1, 118, 4.050124168395996
0, 1, 119, 6.706994533538818
0, 1, 120, 4.605140686035156
0, 1, 121, 3.599442005157471
0, 1, 122, 4.340602397918701
0, 1, 123, 5.543985366821289
0, 1, 124, 8.01267147064209
0, 1, 125, 3.162875652313232
0, 1, 126, 1.871416807174683
0, 1, 127, 1.055584192276001
0, 2, 0, 6.189450263977051
0, 2, 1, 1.767743825912476
0, 2, 2, 6.277650833129883
0, 2, 3, 6.884644031524658
0, 2, 4, 2.613091945648193
0, 2, 5, 2.920919418334961
0, 2, 6, 1.854222893714905
0, 2, 7, 6.656943321228027
0, 2, 8, 5.066709518432617
0, 2, 9, 6.457481861114502
0, 2, 10, 7.844334602355957
0, 2, 11, 6.208226680755615
0, 2, 12, 7.579501152038574
0, 2, 13, 9.897107124328613
0, 2, 14, 9.508143424987793
0, 2, 15, 8.763029098510742
0, 2, 16, 8.644784927368164
0, 2, 17, 17.04454803466797
0, 2, 18, 29.68757629394531
0, 2, 19, 118.3037719726562
0, 2, 20, 245.1773681640625
0, 2, 21, 273.2349243164062
0, 2, 22, 317.3220825195312
0, 2, 23, 300.7152404785156
0, 2, 24, 285.84033203125
0, 2, 25, 305.6994018554688
0, 2, 26, 293.0109252929688
0, 2, 27, 275.4364013671875
0, 2, 28, 275.34033203125
0, 2, 29, 274.265380859375
0, 2, 30, 289.1946716308594
0, 2, 31, 281.0919494628906
0, 2, 32, 294.8515930175781
0, 2, 33, 281.8441467285156
0, 2, 34, 332.5825500488281
0, 2, 35, 287.8851318359375
0, 2, 36, 304.240478515625
0, 2, 37, 317.57177734375
0, 2, 38, 312.5741271972656
0, 2, 39, 266.5128479003906
0, 2, 40, 307.7238464355469
0, 2, 41, 290.1603393554688
0, 2, 42, 303.7322082519531
0, 2, 43, 314.0021362304688
0, 2, 44, 311.2927856445312
0, 2, 45, 325.3241882324219
0, 2, 46, 286.5806274414062
0, 2, 47, 304.3888244628906
0, 2, 48, 280.0119934082031
0, 2, 49, 278.8335571289062
0, 2, 50, 294.0564880371094
0, 2, 51, 282.3916320800781
0, 2, 52, 270.7974548339844
0, 2, 53, 287.1969299316406
0, 2, 54, 279.7461242675781
0, 2, 55, 272.6417846679688
0, 2, 56, 300.7942504882812
0, 2, 57, 291.5160827636719
0, 2, 58, 300.8370666503906
0, 2, 59, 289.53564453125
0, 2, 60, 318.2781982421875
0, 2, 61, 300.7387084960938
0, 2, 62, 314.2346801757812
0, 2, 63, 301.9202270507812
0, 2, 64, 296.0520935058594
0, 2, 65, 311.29150390625
0, 2, 66, 279.3986511230469
0, 2, 67, 292.1044616699219
0, 2, 68, 295.4757690429688
0, 2, 69, 311.4444580078125
0, 2, 70, 333.7344360351562
0, 2, 71, 284.1526489257812
0, 2, 72, 301.6034545898438
0, 2, 73, 312.4806823730469
0, 2, 74, 286.2650146484375
0, 2, 75, 306.4543151855469
0, 2, 76, 287.7058715820312
0, 2, 77, 299.2734985351562
0, 2, 78, 315.1004028320312
0, 2, 79, 310.2519836425781
0, 2, 80, 296.7288818359375
0, 2, 81, 282.9585571289062
0, 2, 82, 317.1144714355469
0, 2, 83, 311.4123840332031
0, 2, 84, 290.0226440429688
0, 2, 85, 281.1775207519531
0, 2, 86, 325.9288330078125
0, 2, 87, 287.7667236328125
0, 2, 88, 280.5620727539062
0, 2, 89, 294.5193481445312
0, 2, 90, 295.8110046386719
0, 2, 91, 276.9030151367188
0, 2, 92, 304.7281799316406
0, 2, 93, 318.3473205566406
0, 2, 94, 292.5492858886719
0, 2, 95, 315.6605224609375
0, 2, 96, 317.7501220703125
0, 2, 97, 293.0813293457031
0, 2, 98, 295.6201171875
0, 2, 99, 273.23779296875
0, 2, 100, 305.1012268066406
0, 2, 101, 301.2236022949219
0, 2, 102, 295.3574829101562
0, 2, 103, 294.4117736816406
0, 2, 104, 292.9687194824219
0, 2, 105, 272.927978515625
0, 2, 106, 297.3262634277344
0, 2, 107, 267.8875122070312
0, 2, 108, 117.7696990966797
0, 2, 109, 32.86134338378906
0, 2, 110, 9.76165771484375
0, 2, 111, 10.34748840332031
0, 2, 112, 9.214675903320312
0, 2, 113, 13.89796829223633
0, 2, 114, 10.6994514465332
0, 2, 115, 10.6570930480957
0, 2, 116, 8.627632141113281
0, 2, 117, 8.07729434967041
0, 2, 118, 4.294477939605713
0, 2, 119, 4.875838756561279
0, 2, 120, 6.874144077301025
0, 2, 121, 1.804817914962769
0, 2, 122, 3.409607887268066
0, 2, 123, 4.863401412963867
0, 2, 124, 3.822041034698486
0, 2, 125, 4.623368740081787
0, 2, 126, 3.956573963165283
0, 2, 127, 7.021332740783691
0, 3, 0, 1.654626607894897
0, 3, 1, 3.40116024017334
0, 3, 2, 2.948530912399292
0, 3, 3, 0.9469907283782959
0, 3, 4, 3.362169742584229
0, 3, 5, 6.978784561157227
0, 3, 6, 6.491204738616943
0, 3, 7, 4.796564102172852
0, 3, 8, 5.711013317108154
0, 3, 9, 5.163618087768555
0, 3, 10, 6.372538089752197
0, 3, 11, 4.360670566558838
0, 3, 12, 7.145517349243164
0, 3, 13, 15.56488800048828
0, 3, 14, 12.38442420959473
0, 3, 15, 13.06719303131104
0, 3, 16, 11.61583042144775
0, 3, 17, 19.72453880310059
0, 3, 18, 53.12517166137695
0, 3, 19, 177.9043884277344
0, 3, 20, 269.6185913085938
0, 3, 21, 269.8940124511719
0, 3, 22, 281.8038635253906
0, 3, 23, 287.918701171875
0, 3, 24, 285.0007019042969
0, 3, 25, 271.2394714355469
0, 3, 26, 304.9983825683594
0, 3, 27, 291.8671569824219
0, 3, 28, 278.6255493164062
0, 3, 29, 338.6121215820312
0, 3, 30, 316.1550598144531
0, 3, 31, 286.2261047363281
0, 3, 32, 307.0355834960938
0, 3, 33, 314.80419921875
0, 3, 34, 320.8658447265625
0, 3, 35, 307.0831604003906
0, 3, 36, 271.0382080078125
0, 3, 37, 314.65966796875
0, 3, 38, 304.9632568359375
0, 3, 39, 289.9626159667969
0, 3, 40, 266.5446472167969
0, 3, 41, 301.8406066894531
0, 3, 42, 284.5790405273438
0, 3, 43, 305.4007568359375
0, 3, 44, 309.9505004882812
0, 3, 45, 289.9131469726562
0, 3, 46, 329.1217956542969
0, 3, 47, 299.984619140625
0, 3, 48, 304.3575134277344
0, 3, 49, 275.7912902832031
0, 3, 50, 290.0599670410156
0, 3, 51, 275.4705810546875
0, 3, 52, 316.4728698730469
0, 3, 53, 290.8233032226562
0, 3, 54, 283.5032653808594
0, 3, 55, 285.4185485839844
0, 3, 56, 299.9399719238281
0, 3, 57, 287.400634765625
0, 3, 58, 304.8002014160156
0, 3, 59, 295.4214782714844
0, 3, 60, 298.0321044921875
0, 3, 61, 264.8120727539062
0, 3, 62, 286.3504638671875
0, 3, 63, 307.5800476074219
0, 3, 64, 316.5669555664062
0, 3, 65, 305.4019470214844
0, 3, 66, 315.5438232421875
0, 3, 67, 318.2894287109375
0, 3, 68, 278.7899169921875
0, 3, 69, 281.5771484375
0, 3, 70, 288.6215209960938
0, 3, 71, 301.3088989257812
0, 3, 72, 268.0128173828125
0, 3, 73, 308.9468383789062
0, 3, 74, 291.6141662597656
0, 3, 75, 292.6908874511719
0, 3, 76, 304.7428283691406
0, 3, 77, 313.1412048339844
0, 3, 78, 303.11376953125
0, 3, 79, 281.011474609375
0, 3, 80, 289.64306640625
0, 3, 81, 310.3615112304688
0, 3, 82, 316.1153869628906
0, 3, 83, 300.5048217773438
0, 3, 84, 312.5908203125
0, 3, 85, 291.959716796875
0, 3, 86, 303.0132141113281
0, 3, 87, 297.066162109375
0, 3, 88, 297.23876953125
0, 3, 89, 295.8363037109375
0, 3, 90, 275.3316650390625
0, 3, 91, 284.1910095214844
0, 3, 92, 303.2477416992188
0, 3, 93, 312.1092224121094
0, 3, 94, 297.7126159667969
0, 3, 95, 335.7043151855469
0, 3, 96, 291.0156860351562
0, 3, 97, 284.0057983398438
0, 3, 98, 276.7675476074219
0, 3, 99, 261.7239074707031
0, 3, 100, 283.4598693847656
0, 3, 101, 295.917236328125
0, 3, 102, 276.5790405273438
0, 3, 103, 323.654541015625
0, 3, 104, 308.0458374023438
0, 3, 105, 288.885498046875
0, 3, 106, 302.35498046875
0, 3, 107, 280.5623779296875
0, 3, 108, 164.9558410644531
0, 3, 109, 56.43400955200195
0, 3, 110, 18.0023021697998
0, 3, 111, 13.13162899017334
0, 3, 112, 14.94690036773682
0, 3, 113, 6.855423450469971
0, 3, 114, 11.38232040405273
0, 3, 115, 8.571497917175293
0, 3, 116, 7.400981426239014
0, 3, 117, 6.960592269897461
0, 3, 118, 8.096681594848633
0, 3, 119, 4.632639408111572
0, 3, 120, 5.962583541870117
0, 3, 121, 4.753001689910889
0, 3, 122, 4.936953544616699
0, 3, 123, 7.518084049224854
0, 3, 124, 3.931299448013306
0, 3, 125, 6.3536696434021
0, 3, 126, 4.751451969146729
0, 3, 127, 1.683212995529175
0, 4, 0, 3.073418140411377
0, 4, 1, 5.552804470062256
0, 4, 2, 2.987843751907349
0, 4, 3, 2.385568141937256
0, 4, 4, 6.682083129882812
0, 4, 5, 10.07179260253906
0, 4, 6, 6.909813404083252
0, 4, 7, 5.039667129516602
0, 4, 8, 6.210845947265625
0, 4, 9, 4.54875659942627
0, 4, 10, 8.258708953857422
0, 4, 11, 6.404206275939941
0, 4, 12, 6.076770305633545
0, 4, 13, 7.729202747344971
0, 4, 14, 9.804585456848145
0, 4, 15, 9.55768871307373
0, 4, 16, 15.28939247131348
0, 4, 17, 18.16921234130859
0, 4, 18, 92.74879455566406
0, 4, 19, 222.1669769287109
0, 4, 20, 283.4983520507812
0, 4, 21, 274.6282653808594
0, 4, 22, 305.1316223144531
0, 4, 23, 265.3105163574219
0, 4, 24, 288.2986450195312
0, 4, 25, 273.4956970214844
0, 4, 26, 294.5965881347656
0, 4, 27, 284.7832641601562
0, 4, 28, 309.1835327148438
0, 4, 29, 321.3065185546875
0, 4, 30, 310.771484375
0, 4, 31, 304.501220703125
0, 4, 32, 279.96240234375
0, 4, 33, 297.0582885742188
0, 4, 34, 297.3663024902344
0, 4, 35, 311.3543395996094
0, 4, 36, 291.3001098632812
0, 4, 37, 286.0308227539062
0, 4, 38, 295.5413818359375
0, 4, 39, 297.8533325195312
0, 4, 40, 303.784423828125
0, 4, 41, 310.7031860351562
0, 4, 42, 331.3720703125
0, 4, 43, 295.2215270996094
0, 4, 44, 320.4368286132812
0, 4, 45, 322.3199157714844
0, 4, 46, 305.6274108886719
0, 4, 47, 292.514892578125
0, 4, 48, 294.2723083496094
0, 4, 49, 278.5730285644531
0, 4, 50, 296.2615356445312
0, 4, 51, 313.9448547363281
0, 4, 52, 328.4225158691406
0, 4, 53, 305.0846862792969
0, 4, 54, 287.0025634765625
0, 4, 55, 316.4424438476562
0, 4, 56, 285.5960388183594
0, 4, 57, 308.1777648925781
0, 4, 58, 299.1049194335938
0, 4, 59, 308.8326721191406
0, 4, 60, 305.3699951171875
0, 4, 61, 315.0127868652344
0, 4, 62, 307.7898559570312
0, 4, 63, 297.983154296875
0, 4, 64, 331.3656311035156
0, 4, 65, 315.7993774414062
0, 4, 66, 295.1426696777344
0, 4, 67, 286.3320617675781
0, 4, 68, 316.7492065429688
0, 4, 69, 276.6432495117188
0, 4, 70, 298.9396057128906
0, 4, 71, 321.502685546875
0, 4, 72, 332.5453796386719
0, 4, 73, 299.4183959960938
0, 4, 74, 294.7768859863281
0, 4, 75, 289.7711486816406
0, 4, 76, 274.2986145019531
0, 4, 77, 277.9996948242188
0, 4, 78, 311.1912231445312
0, 4, 79, 319.0295104980469
0, 4, 80, 315.6845397949219
0, 4, 81, 313.2437438964844
0, 4, 82, 298.111328125
0, 4, 83, 302.3461303710938
0, 4, 84, 292.0038757324219
0, 4, 85, 293.3000183105469
0, 4, 86, 299.0652160644531
0, 4, 87, 285.8699035644531
0, 4, 88, 307.0558471679688
0, 4, 89, 297.8453063964844
0, 4, 90, 332.0883178710938
0, 4, 91, 301.23095703125
0, 4, 92, 291.9427490234375
0, 4, 93, 296.7296752929688
0, 4, 94, 294.5302429199219
0, 4, 95, 289.8492736816406
0, 4, 96, 321.8404846191406
0, 4, 97, 273.8531188964844
0, 4, 98, 328.2195129394531
0, 4, 99, 316.7122802734375
0, 4, 100, 300.9622497558594
0, 4, 101, 257.060546875
0, 4, 102, 295.0159301757812
0, 4, 103, 317.1483154296875
0, 4, 104, 281.8404846191406
0, 4, 105, 310.5967407226562
0, 4, 106, 285.928955078125
0, 4, 107, 297.2981262207031
0, 4, 108, 225.5824584960938
0, 4, 109, 81.27681732177734
0, 4, 110, 17.94939613342285
0, 4, 111, 15.27444171905518
0, 4, 112, 10.6737699508667
0, 4, 113, 10.94613456726074
0, 4, 114, 10.399094581604
0, 4, 115, 10.58131122589111
0, 4, 116, 8.82237434387207
0, 4, 117, 5.263880252838135
0, 4, 118, 7.617110729217529
0, 4, 119, 10.7955904006958
0, 4, 120, 6.062961101531982
0, 4, 121, 4.716749668121338
0, 4, 122, 4.054625988006592
0, 4, 123, 6.386043071746826
0, 4, 124, 7.208898067474365
0, 4, 125, 8.253301620483398
0, 4, 126, 4.58381986618042
0, 4, 127, 5.499893665313721
0, 5, 0, 4.751317977905273
0, 5, 1, 2.688782930374146
0, 5, 2, 5.063638687133789
0, 5, 3, 4.575942993164062
0, 5, 4, 4.754692077636719
0, 5, 5, 6.333928108215332
0, 5, 6, 5.191283226013184
0, 5, 7, 5.124391078948975
0, 5, 8, 4.352017402648926
0, 5, 9, 5.558814525604248
0, 5, 10, 4.965344905853271
0, 5, 11, 8.364870071411133
0, 5, 12, 6.827961921691895
0, 5, 13, 6.053128242492676
0, 5, 14, 12.4190559387207
0, 5, 15, 15.02919864654541
0, 5, 16, 14.30643463134766
0, 5, 17, 28.89736366271973
0, 5, 18, 135.9522552490234
0, 5, 19, 287.6696166992188
0, 5, 20, 308.6219177246094
0, 5, 21, 316.7904052734375
0, 5, 22, 275.5023803710938
0, 5, 23, 313.7848510742188
0, 5, 24, 302.0212707519531
0, 5, 25, 289.1286926269531
0, 5, 26, 293.5907897949219
0, 5, 27, 322.7083129882812
0, 5, 28, 303.0029296875
0, 5, 29, 298.7817993164062
0, 5, 30, 326.5889282226562
0, 5, 31, 288.3464050292969
0, 5, 32, 303.338623046875
0, 5, 33, 305.3656005859375
0, 5, 34, 295.3910827636719
0, 5, 35, 308.5339050292969
0, 5, 36, 270.221435546875
0, 5, 37, 282.0606079101562
0, 5, 38, 292.3731384277344
0, 5, 39, 314.931884765625
0, 5, 40, 313.7090759277344
0, 5, 41, 276.4971008300781
0, 5, 42, 304.8648986816406
0, 5, 43, 312.9689636230469
0, 5, 44, 294.3570861816406
0, 5, 45, 301.0288696289062
0, 5, 46, 265.3817138671875
0, 5, 47, 278.5701293945312
0, 5, 48, 295.3613586425781
0, 5, 49, 284.6493835449219
0, 5, 50, 295.3589172363281
0, 5, 51, 280.0579223632812
0, 5, 52, 269.3109436035156
0, 5, 53, 282.735107421875
0, 5, 54, 291.721435546875
0, 5, 55, 344.2448120117188
0, 5, 56, 305.477294921875
0, 5, 57, 306.3096313476562
0, 5, 58, 311.0901489257812
0, 5, 59, 303.5105285644531
0, 5, 60, 306.2123718261719
0, 5, 61, 282.9874572753906
0, 5, 62, 326.8933715820312
0, 5, 63, 291.62841796875
0, 5, 64, 323.1183776855469
0, 5, 65, 306.5977478027344
0, 5, 66, 326.8559265136719
0, 5, 67, 310.8261108398438
0, 5, 68, 307.6659240722656
0, 5, 69, 310.90087890625
0, 5, 70, 301.8277587890625
0, 5, 71, 273.9669189453125
0, 5, 72, 311.1537780761719
0, 5, 73, 300.8455505371094
0, 5, 74, 295.1270141601562
0, 5, 75, 294.3354797363281
0, 5, 76, 288.1390380859375
0, 5, 77, 298.2692565917969
0, 5, 78, 314.383056640625
0, 5, 79, 307.2499694824219
0, 5, 80, 295.0567626953125
0, 5, 81, 326.1947326660156
0, 5, 82, 324.4059448242188
0, 5, 83, 281.3863830566406
0, 5, 84, 305.4178771972656
0, 5, 85, 269.7965698242188
0, 5, 86, 325.7112731933594
0, 5, 87, 285.1141662597656
0, 5, 88, 314.0987548828125
0, 5, 89, 304.9081115722656
0, 5, 90, 315.69482421875
0, 5, 91, 313.6285095214844
0, 5, 92, 297.8760986328125
0, 5, 93, 322.7925720214844
0, 5, 94, 307.2787780761719
0, 5, 95, 295.4490966796875
0, 5, 96, 296.6923217773438
0, 5, 97, 296.4972534179688
0, 5, 98, 319.1965942382812
0, 5, 99, 301.6646728515625
0, 5, 100, 290.5938110351562
0, 5, 101, 305.3207092285156
0, 5, 102, 290.6985778808594
0, 5, 103, 312.8480224609375
0, 5, 104, 302.5765075683594
0, 5, 105, 294.6708984375
0, 5, 106, 282.203125
0, 5, 107, 292.3527221679688
0, 5, 108, 266.2119750976562
0, 5, 109, 156.6655578613281
0, 5, 110, 40.82306671142578
0, 5, 111, 19.74880027770996
0, 5, 112, 17.1612548828125
0, 5, 113, 12.49930286407471
0, 5, 114, 12.96863174438477
0, 5, 115, 7.529705047607422
0, 5, 116, 10.89056968688965
0, 5, 117, 6.524220943450928
0, 5, 118, 11.72627544403076
0, 5, 119, 4.2795729637146
0, 5, 120, 6.616011619567871
0, 5, 121, 5.984582901000977
0, 5, 122, 6.370561122894287
0, 5, 123, 7.283547878265381
0, 5, 124, 6.062400341033936
0, 5, 125, 3.335994958877563
0, 5, 126, 5.131868362426758
0, 5, 127, 3.537944555282593
0, 6, 0, 4.624575138092041
0, 6, 1, 4.144388675689697
0, 6, 2, 3.805688619613647
0, 6, 3, 6.354079723358154
0, 6, 4, 3.643149614334106
0, 6, 5, 5.55051851272583
0, 6, 6, 6.635253429412842
0, 6, 7, 5.547500610351562
0, 6, 8, 7.417289257049561
0, 6, 9, 6.164484024047852
0, 6, 10, 9.005121231079102
0, 6, 11, 8.63022518157959
0, 6, 12, 10.1528148651123
0, 6, 13, 15.54634666442871
0, 6, 14, 8.636772155761719
0, 6, 15, 16.64599227905273
0, 6, 16, 30.94237518310547
0, 6, 17, 57.38538360595703
0, 6, 18, 171.8175506591797
0, 6, 19, 278.0845947265625
0, 6, 20, 291.4005432128906
0, 6, 21, 313.1793212890625
0, 6, 22, 321.5909729003906
0, 6, 23, 307.5321960449219
0, 6, 24, 318.469482421875
0, 6, 25, 315.4815368652344
0, 6, 26, 320.810791015625
0, 6, 27, 330.9446411132812
0, 6, 28, 296.0805969238281
0, 6, 29, 329.1689147949219
0, 6, 30, 280.5579528808594
0, 6, 31, 287.0069274902344
0, 6, 32, 340.1873168945312
0, 6, 33, 299.6617736816406
0, 6, 34, 339.0284423828125
0, 6, 35, 321.4129333496094
0, 6, 36, 273.7286682128906
0, 6, 37, 292.6299133300781
0, 6, 38, 312.4356994628906
0, 6, 39, 298.1082458496094
0, 6, 40, 286.1592712402344
0, 6, 41, 294.3497924804688
0, 6, 42, 302.8349609375
0, 6, 43, 289.5327758789062
0, 6, 44, 280.5510559082031
0, 6, 45, 320.6181030273438
0, 6, 46, 305.8639526367188
0, 6, 47, 334.5702209472656
0, 6, 48, 293.1434631347656
0, 6, 49, 312.38330078125
0, 6, 50, 330.9860229492188
0, 6, 51, 311.5184020996094
0, 6, 52, 322.1936340332031
0, 6, 53, 325.7078247070312
0, 6, 54, 301.4124145507812
0, 6, 55, 304.32275390625
0, 6, 56, 292.9414367675781
0, 6, 57, 312.8673095703125
0, 6, 58, 264.8706665039062
0, 6, 59, 300.3310241699219
0, 6, 60, 315.3947448730469
0, 6, 61, 270.3648071289062
0, 6, 62, 335.8837280273438
0, 6, 63, 322.987060546875
0, 6, 64, 291.4981994628906
0, 6, 65, 284.2691040039062
0, 6, 66, 304.2580261230469
0, 6, 67, 309.0970153808594
0, 6, 68, 292.8656005859375
0, 6, 69, 277.5037536621094
0, 6, 70, 274.2602844238281
0, 6, 71, 288.7805480957031
0, 6, 72, 314.3340759277344
0, 6, 73, 293.7898254394531
0, 6, 74, 330.3553771972656
0, 6, 75, 343.3900146484375
0, 6, 76, 297.524169921875
0, 6, 77, 288.9396057128906
0, 6, 78, 277.4747924804688
0, 6, 79, 293.0106811523438
0, 6, 80, 301.5654907226562
0, 6, 81, 315.87255859375
0, 6, 82, 319.7261962890625
0, 6, 83, 318.48095703125
0, 6, 84, 294.8259582519531
0, 6, 85, 300.4685974121094
0, 6, 86, 329.3473510742188
0, 6, 87, 292.6197204589844
0, 6, 88, 304.1958618164062
0, 6, 89, 303.151123046875
0, 6, 90, 298.0162963867188
0, 6, 91, 312.9692077636719
0, 6, 92, 283.4284057617188
0, 6, 93, 294.2040405273438
0, 6, 94, 274.3618774414062
0, 6, 95, 303.1796569824219
0, 6, 96, 346.6347351074219
0, 6, 97, 308.7131652832031
0, 6, 98, 302.4822692871094
0, 6, 99, 271.7814331054688
0, 6, 100, 308.5403442382812
0, 6, 101, 294.3111572265625
0, 6, 102, 306.5151062011719
0, 6, 103, 307.7951049804688
0, 6, 104, 290.0774536132812
0, 6, 105, 301.5162658691406
0, 6, 106, 306.1935119628906
0, 6, 107, 307.57275390625
0, 6, 108, 265.4675598144531
0, 6, 109, 185.2077178955078
0, 6, 110, 55.83581924438477
0, 6, 111, 22.35039901733398
0, 6, 112, 14.67784976959229
0, 6, 113, 11.574294090271
0, 6, 114, 11.92282390594482
0, 6, 115, 11.20804786682129
0, 6, 116, 9.545711517333984
0, 6, 117, 9.739625930786133
0, 6, 118, 11.67653751373291
0, 6, 119, 8.336384773254395
0, 6, 120, 5.278832912445068
0, 6, 121, 5.799906253814697
0, 6, 122, 6.190110683441162
0, 6, 123, 5.033979892730713
0, 6, 124, 6.83220911026001
0, 6, 125, 6.861600399017334
0, 6, 126, 3.736077785491943
0, 6, 127, 7.301745414733887
0, 7, 0, 6.686066150665283
0, 7, 1, 3.324372053146362
0, 7, 2, 5.796537399291992
0, 7, 3, 3.989305973052979
0, 7, 4, 3.735743522644043
0, 7, 5, 5.492551803588867
0, 7, 6, 10.38276481628418
0, 7, 7, 4.888153553009033
0, 7, 8, 6.356467247009277
0, 7, 9, 5.104819297790527
0, 7, 10, 10.82658290863037
0, 7, 11, 11.68353652954102
0, 7, 12, 10.03103160858154
0, 7, 13, 12.69143199920654
0, 7, 14, 10.55214881896973
0, 7, 15, 16.69889068603516
0, 7, 16, 26.01489639282227
0, 7, 17, 98.73661041259766
0, 7, 18, 218.8994750976562
0, 7, 19, 289.2112121582031
0, 7, 20, 297.281494140625
0, 7, 21, 276.8649597167969
0, 7, 22, 300.2147521972656
0, 7, 23, 291.1611022949219
0, 7, 24, 313.12353515625
0, 7, 25, 323.3662414550781
0, 7, 26, 277.3601379394531
0, 7, 27, 297.0301818847656
0, 7, 28, 325.3350524902344
0, 7, 29, 318.4590759277344
0, 7, 30, 298.0567932128906
0, 7, 31, 276.9206237792969
0, 7, 32, 304.8877258300781
0, 7, 33, 264.3229370117188
0, 7, 34, 298.6267700195312
0, 7, 35, 324.0420837402344
0, 7, 36, 329.6945495605469
0, 7, 37, 323.010009765625
0, 7, 38, 294.6763916015625
0, 7, 39, 307.9951477050781
0, 7, 40, 289.7503051757812
0, 7, 41, 268.90380859375
0, 7, 42, 301.1474304199219
0, 7, 43, 275.6319580078125
0, 7, 44, 305.7563171386719
0, 7, 45, 295.4648132324219
0, 7, 46, 282.2681884765625
0, 7, 47, 329.2529296875
0, 7, 48, 289.0457153320312
0, 7, 49, 302.8236999511719
0, 7, 50, 321.8406066894531
0, 7, 51, 299.1523742675781
0, 7, 52, 327.0823059082031
0, 7, 53, 309.0360412597656
0, 7, 54, 323.2469482421875
0, 7, 55, 307.8432312011719
0, 7, 56, 280.8027038574219
0, 7, 57, 285.1996459960938
0, 7, 58, 298.1064758300781
0, 7, 59, 297.1711120605469
0, 7, 60, 324.2042846679688
0, 7, 61, 279.4488220214844
0, 7, 62, 296.7971496582031
0, 7, 63, 294.9878540039062
0, 7, 64, 307.2127685546875
0, 7, 65, 330.95361328125
0, 7, 66, 319.3893432617188
0, 7, 67, 303.911865234375
0, 7, 68, 281.9856567382812
0, 7, 69, 294.0465393066406
0, 7, 70, 301.9225158691406
0, 7, 71, 310.3377380371094
0, 7, 72, 288.0705261230469
0, 7, 73, 297.3396301269531
0, 7, 74, 344.0828247070312
0, 7, 75, 319.1613159179688
0, 7, 76, 322.3258361816406
0, 7, 77, 279.9861755371094
0, 7, 78, 299.5009155273438
0, 7, 79, 296.9942016601562
0, 7, 80, 315.5765075683594
0, 7, 81, 318.976806640625
0, 7, 82, 329.2054748535156
0, 7, 83, 315.5228271484375
0, 7, 84, 310.5396728515625
0, 7, 85, 271.6048278808594
0, 7, 86, 310.086669921875
0, 7, 87, 310.3822631835938
0, 7, 88, 307.1133422851562
0, 7, 89, 292.3023376464844
0, 7, 90, 305.8532409667969
0, 7, 91, 317.0965881347656
0, 7, 92, 285.6135559082031
0, 7, 93, 306.6379089355469
0, 7, 94, 274.4468078613281
0, 7, 95, 299.1276550292969
0, 7, 96, 333.6544189453125
0, 7, 97, 293.7121276855469
0, 7, 98, 290.337646484375
0, 7, 99, 311.3684387207031
0, 7, 100, 280.8426818847656
0, 7, 101, 275.6511535644531
0, 7, 102, 289.446533203125
0, 7, 103, 295.2294921875
0, 7, 104, 274.9248046875
0, 7, 105, 305.5402221679688
0, 7, 106, 318.7864990234375
0, 7, 107, 297.0196838378906
0, 7, 108, 274.0307312011719
0, 7, 109, 235.8555297851562
0, 7, 110, 95.21647644042969
0, 7, 111, 22.94823455810547
0, 7, 112, 12.76924991607666
0, 7, 113, 14.39218711853027
0, 7, 114, 14.19796276092529
0, 7, 115, 10.1514368057251
0, 7, 116, 13.4962272644043
0, 7, 117, 5.993886470794678
0, 7, 118, 7.331509590148926
0, 7, 119, 5.248513221740723
0, 7, 120, 4.5252366065979
0, 7, 121, 5.873790264129639
0, 7, 122, 9.005960464477539
0, 7, 123, 6.073014736175537
0, 7, 124, 3.739753484725952
0, 7, 125, 8.123306274414062
0, 7, 126, 6.910199165344238
0, 7, 127, 3.914583921432495
0, 8, 0, 3.678744554519653
0, 8, 1, 3.43917179107666
0, 8, 2, 2.647361278533936
0, 8, 3, 3.546706199645996
0, 8, 4, 4.138552188873291
0, 8, 5, 5.069676876068115
0, 8, 6, 6.99669075012207
0, 8, 7, 7.134238243103027
0, 8, 8, 9.664875030517578
0, 8, 9, 4.862645149230957
0, 8, 10, 7.831933498382568
0, 8, 11, 13.26230335235596
0, 8, 12, 12.23505115509033
0, 8, 13, 16.34104537963867
0, 8, 14, 12.1655158996582
0, 8, 15, 18.8902702331543
0, 8, 16, 33.80504608154297
0, 8, 17, 129.4578094482422
0, 8, 18, 242.5189514160156
0, 8, 19, 293.8002624511719
0, 8, 20, 284.5702209472656
0, 8, 21, 306.7485656738281
0, 8, 22, 297.5938720703125
0, 8, 23, 275.1003112792969
0, 8, 24, 268.1907653808594
0, 8, 25, 275.080078125
0, 8, 26, 307.6733703613281
0, 8, 27, 306.9906311035156
0, 8, 28, 302.4595642089844
0, 8, 29, 319.2411499023438
0, 8, 30, 315.7214965820312
0, 8, 31, 306.3708190917969
0, 8, 32, 280.9811706542969
0, 8, 33, 293.9649963378906
0, 8, 34, 288.99462890625
0, 8, 35, 279.9065856933594
0, 8, 36, 314.7837524414062
0, 8, 37, 338.8586730957031
0, 8, 38, 331.2285461425781
0, 8, 39, 283.0369567871094
0, 8, 40, 303.9697570800781
