# TOPAS Version: 3.1.p3
# Parameter File: batch_inserts_168.txt
# Results for scorer Readout_Adipose
# Scored in component: MyBox
# X in 1 bin  of 0.75 cm
# Y in 512 bins of 0.0783984 cm
# Z in 128 bins of 0.078125 cm
# EnergyDeposit ( MeV ) : Sum   
0, 0, 0, 4.253599166870117
0, 0, 1, 2.266884088516235
0, 0, 2, 4.135683536529541
0, 0, 3, 1.811560750007629
0, 0, 4, 3.302675485610962
0, 0, 5, 2.628481388092041
0, 0, 6, 8.478214263916016
0, 0, 7, 8.997044563293457
0, 0, 8, 2.885913848876953
0, 0, 9, 4.008418083190918
0, 0, 10, 6.404870986938477
0, 0, 11, 7.426424980163574
0, 0, 12, 6.201626300811768
0, 0, 13, 5.334757804870605
0, 0, 14, 7.432695388793945
0, 0, 15, 8.429176330566406
0, 0, 16, 8.497706413269043
0, 0, 17, 8.458425521850586
0, 0, 18, 13.39544582366943
0, 0, 19, 42.46365737915039
0, 0, 20, 137.77978515625
0, 0, 21, 222.5601806640625
0, 0, 22, 247.6788024902344
0, 0, 23, 256.5658264160156
0, 0, 24, 253.6382293701172
0, 0, 25, 259.7398681640625
0, 0, 26, 233.189453125
0, 0, 27, 237.9517974853516
0, 0, 28, 271.5597534179688
0, 0, 29, 251.6569976806641
0, 0, 30, 229.8742828369141
0, 0, 31, 243.0458068847656
0, 0, 32, 263.0665893554688
0, 0, 33, 259.9732971191406
0, 0, 34, 287.9219665527344
0, 0, 35, 268.7348327636719
0, 0, 36, 246.6351318359375
0, 0, 37, 252.1331024169922
0, 0, 38, 270.6084289550781
0, 0, 39, 229.0894012451172
0, 0, 40, 242.5395050048828
0, 0, 41, 265.32763671875
0, 0, 42, 229.4069976806641
0, 0, 43, 260.1770935058594
0, 0, 44, 253.7909698486328
0, 0, 45, 254.5206298828125
0, 0, 46, 244.3291320800781
0, 0, 47, 253.8409576416016
0, 0, 48, 267.0961303710938
0, 0, 49, 273.877197265625
0, 0, 50, 250.9952697753906
0, 0, 51, 255.0892639160156
0, 0, 52, 273.9454650878906
0, 0, 53, 291.5998229980469
0, 0, 54, 241.8281097412109
0, 0, 55, 241.1727294921875
0, 0, 56, 277.0868225097656
0, 0, 57, 264.0034790039062
0, 0, 58, 247.5760955810547
0, 0, 59, 270.3509216308594
0, 0, 60, 235.4956512451172
0, 0, 61, 245.7440032958984
0, 0, 62, 258.7202453613281
0, 0, 63, 266.418701171875
0, 0, 64, 254.479248046875
0, 0, 65, 260.7637023925781
0, 0, 66, 276.553955078125
0, 0, 67, 247.7628936767578
0, 0, 68, 258.3713073730469
0, 0, 69, 261.3055114746094
0, 0, 70, 271.5303649902344
0, 0, 71, 239.9226226806641
0, 0, 72, 250.9020233154297
0, 0, 73, 258.3780212402344
0, 0, 74, 251.2456665039062
0, 0, 75, 241.0739440917969
0, 0, 76, 230.7637023925781
0, 0, 77, 260.6552734375
0, 0, 78, 258.3678894042969
0, 0, 79, 280.0869140625
0, 0, 80, 214.7500457763672
0, 0, 81, 266.2702026367188
0, 0, 82, 256.2748107910156
0, 0, 83, 246.0201263427734
0, 0, 84, 269.9798278808594
0, 0, 85, 232.3702087402344
0, 0, 86, 253.6653442382812
0, 0, 87, 252.5144348144531
0, 0, 88, 259.2979125976562
0, 0, 89, 282.4061279296875
0, 0, 90, 242.6549224853516
0, 0, 91, 281.4354858398438
0, 0, 92, 251.8058776855469
0, 0, 93, 248.4711151123047
0, 0, 94, 249.302001953125
0, 0, 95, 248.2420654296875
0, 0, 96, 275.2480163574219
0, 0, 97, 272.9755859375
0, 0, 98, 272.5957336425781
0, 0, 99, 258.1574096679688
0, 0, 100, 257.1017456054688
0, 0, 101, 226.8059692382812
0, 0, 102, 232.5572204589844
0, 0, 103, 268.9337768554688
0, 0, 104, 254.1847076416016
0, 0, 105, 253.0635986328125
0, 0, 106, 245.7295989990234
0, 0, 107, 151.3556976318359
0, 0, 108, 37.76313400268555
0, 0, 109, 10.80536270141602
0, 0, 110, 12.67127323150635
0, 0, 111, 8.06800365447998
0, 0, 112, 6.577939987182617
0, 0, 113, 6.451669216156006
0, 0, 114, 7.958355903625488
0, 0, 115, 4.053904056549072
0, 0, 116, 5.381872177124023
0, 0, 117, 5.221267223358154
0, 0, 118, 5.530127048492432
0, 0, 119, 3.857096910476685
0, 0, 120, 4.730967998504639
0, 0, 121, 3.119324922561646
0, 0, 122, 5.971920013427734
0, 0, 123, 3.372051477432251
0, 0, 124, 4.333394527435303
0, 0, 125, 4.478752136230469
0, 0, 126, 4.442563056945801
0, 0, 127, 3.270910263061523
0, 1, 0, 7.377083778381348
0, 1, 1, 2.248151063919067
0, 1, 2, 5.064279079437256
0, 1, 3, 3.025413036346436
0, 1, 4, 2.203855991363525
0, 1, 5, 5.03285551071167
0, 1, 6, 7.379772186279297
0, 1, 7, 5.837868213653564
0, 1, 8, 7.746053695678711
0, 1, 9, 4.07603931427002
0, 1, 10, 6.62181568145752
0, 1, 11, 11.97595119476318
0, 1, 12, 9.397673606872559
0, 1, 13, 11.53835678100586
0, 1, 14, 6.958741664886475
0, 1, 15, 7.087531566619873
0, 1, 16, 12.70176029205322
0, 1, 17, 11.4426212310791
0, 1, 18, 20.53596305847168
0, 1, 19, 65.38912963867188
0, 1, 20, 201.8675537109375
0, 1, 21, 256.4230346679688
0, 1, 22, 297.8323364257812
0, 1, 23, 283.9859924316406
0, 1, 24, 275.2018432617188
0, 1, 25, 286.8642272949219
0, 1, 26, 270.4739990234375
0, 1, 27, 305.8961791992188
0, 1, 28, 301.4594421386719
0, 1, 29, 294.8262634277344
0, 1, 30, 280.6482849121094
0, 1, 31, 292.1755676269531
0, 1, 32, 290.4944763183594
0, 1, 33, 296.7613830566406
0, 1, 34, 292.3008728027344
0, 1, 35, 279.3858337402344
0, 1, 36, 307.5698852539062
0, 1, 37, 295.029052734375
0, 1, 38, 280.0155334472656
0, 1, 39, 296.3956909179688
0, 1, 40, 265.5359802246094
0, 1, 41, 287.7207946777344
0, 1, 42, 289.327880859375
0, 1, 43, 333.4696960449219
0, 1, 44, 278.9487915039062
0, 1, 45, 294.1520385742188
0, 1, 46, 259.4951782226562
0, 1, 47, 309.4345092773438
0, 1, 48, 284.1304016113281
0, 1, 49, 302.1161804199219
0, 1, 50, 263.7107849121094
0, 1, 51, 272.8860168457031
0, 1, 52, 296.2467956542969
0, 1, 53, 303.4686584472656
0, 1, 54, 275.0944213867188
0, 1, 55, 292.908935546875
0, 1, 56, 280.5841979980469
0, 1, 57, 297.9676818847656
0, 1, 58, 311.7849426269531
0, 1, 59, 292.6719970703125
0, 1, 60, 298.5169372558594
0, 1, 61, 275.0465087890625
0, 1, 62, 308.7921447753906
0, 1, 63, 289.3069763183594
0, 1, 64, 288.6434020996094
0, 1, 65, 296.7489929199219
0, 1, 66, 292.0814819335938
0, 1, 67, 291.1742248535156
0, 1, 68, 277.2697143554688
0, 1, 69, 281.0853576660156
0, 1, 70, 271.3578491210938
0, 1, 71, 272.3532104492188
0, 1, 72, 286.7538146972656
0, 1, 73, 303.5499572753906
0, 1, 74, 303.3500061035156
0, 1, 75, 294.9906921386719
0, 1, 76, 284.8463439941406
0, 1, 77, 288.4605712890625
0, 1, 78, 297.9814758300781
0, 1, 79, 300.8315124511719
0, 1, 80, 295.8419189453125
0, 1, 81, 301.7394714355469
0, 1, 82, 282.8749389648438
0, 1, 83, 332.5992431640625
0, 1, 84, 308.4629211425781
0, 1, 85, 252.4649200439453
0, 1, 86, 294.8607788085938
0, 1, 87, 292.1293334960938
0, 1, 88, 298.2189636230469
0, 1, 89, 290.9630126953125
0, 1, 90, 271.3985595703125
0, 1, 91, 319.3138427734375
0, 1, 92, 288.8979187011719
0, 1, 93, 286.3221130371094
0, 1, 94, 302.8810729980469
0, 1, 95, 284.4891052246094
0, 1, 96, 286.839111328125
0, 1, 97, 300.8898315429688
0, 1, 98, 278.0577087402344
0, 1, 99, 268.9965209960938
0, 1, 100, 276.2965698242188
0, 1, 101, 282.263427734375
0, 1, 102, 277.8195190429688
0, 1, 103, 281.2674255371094
0, 1, 104, 306.7220153808594
0, 1, 105, 297.0208740234375
0, 1, 106, 263.53759765625
0, 1, 107, 192.5267944335938
0, 1, 108, 80.62162780761719
0, 1, 109, 23.01070594787598
0, 1, 110, 11.12140464782715
0, 1, 111, 8.828706741333008
0, 1, 112, 11.66079711914062
0, 1, 113, 5.164663791656494
0, 1, 114, 7.740959167480469
0, 1, 115, 7.299713134765625
0, 1, 116, 10.73059844970703
0, 1, 117, 6.616424560546875
0, 1, 118, 6.91938591003418
0, 1, 119, 4.844174385070801
0, 1, 120, 5.363676071166992
0, 1, 121, 2.543567419052124
0, 1, 122, 2.040270566940308
0, 1, 123, 3.685102224349976
0, 1, 124, 6.184821605682373
0, 1, 125, 4.118165016174316
0, 1, 126, 4.72775936126709
0, 1, 127, 2.185363292694092
0, 2, 0, 3.787101268768311
0, 2, 1, 3.759362697601318
0, 2, 2, 3.199395179748535
0, 2, 3, 3.872510433197021
0, 2, 4, 3.757814407348633
0, 2, 5, 1.876608967781067
0, 2, 6, 3.021671533584595
0, 2, 7, 3.288490056991577
0, 2, 8, 6.114258766174316
0, 2, 9, 5.865622520446777
0, 2, 10, 8.178455352783203
0, 2, 11, 6.771710872650146
0, 2, 12, 6.637765884399414
0, 2, 13, 8.625816345214844
0, 2, 14, 10.31564426422119
0, 2, 15, 8.367833137512207
0, 2, 16, 10.1443452835083
0, 2, 17, 16.97009658813477
0, 2, 18, 31.03997230529785
0, 2, 19, 115.0607223510742
0, 2, 20, 245.7568054199219
0, 2, 21, 272.0108947753906
0, 2, 22, 315.6308898925781
0, 2, 23, 300.6884155273438
0, 2, 24, 286.4650573730469
0, 2, 25, 301.9038696289062
0, 2, 26, 293.7400207519531
0, 2, 27, 275.741943359375
0, 2, 28, 271.9274597167969
0, 2, 29, 274.5119934082031
0, 2, 30, 288.7476806640625
0, 2, 31, 277.5845642089844
0, 2, 32, 296.0194702148438
0, 2, 33, 282.5795593261719
0, 2, 34, 332.0889892578125
0, 2, 35, 288.2868347167969
0, 2, 36, 303.2400207519531
0, 2, 37, 314.2891540527344
0, 2, 38, 312.0751037597656
0, 2, 39, 265.295166015625
0, 2, 40, 310.5669555664062
0, 2, 41, 291.0722351074219
0, 2, 42, 302.972412109375
0, 2, 43, 311.8974304199219
0, 2, 44, 312.3072509765625
0, 2, 45, 324.8646850585938
0, 2, 46, 288.7051086425781
0, 2, 47, 302.8773498535156
0, 2, 48, 281.2401428222656
0, 2, 49, 279.33154296875
0, 2, 50, 294.2333984375
0, 2, 51, 284.6539916992188
0, 2, 52, 272.9271545410156
0, 2, 53, 286.7896118164062
0, 2, 54, 279.8305358886719
0, 2, 55, 277.9012451171875
0, 2, 56, 300.8230285644531
0, 2, 57, 291.7622680664062
0, 2, 58, 302.6157531738281
0, 2, 59, 291.4970397949219
0, 2, 60, 317.9325256347656
0, 2, 61, 301.8017883300781
0, 2, 62, 315.2848205566406
0, 2, 63, 305.8049011230469
0, 2, 64, 295.3913879394531
0, 2, 65, 312.4086303710938
0, 2, 66, 279.5586547851562
0, 2, 67, 291.3661804199219
0, 2, 68, 296.3475341796875
0, 2, 69, 309.593994140625
0, 2, 70, 333.8805541992188
0, 2, 71, 286.5802917480469
0, 2, 72, 300.1973571777344
0, 2, 73, 311.2091064453125
0, 2, 74, 287.2569580078125
0, 2, 75, 306.4990234375
0, 2, 76, 287.3733520507812
0, 2, 77, 299.2040710449219
0, 2, 78, 313.5250549316406
0, 2, 79, 306.5432739257812
0, 2, 80, 297.6312561035156
0, 2, 81, 282.7550354003906
0, 2, 82, 319.6739807128906
0, 2, 83, 313.2079162597656
0, 2, 84, 287.2511291503906
0, 2, 85, 283.1455383300781
0, 2, 86, 324.5667419433594
0, 2, 87, 286.37939453125
0, 2, 88, 280.5067749023438
0, 2, 89, 298.2734985351562
0, 2, 90, 295.8819274902344
0, 2, 91, 274.6966552734375
0, 2, 92, 305.205322265625
0, 2, 93, 317.0602416992188
0, 2, 94, 291.4553833007812
0, 2, 95, 314.4358825683594
0, 2, 96, 314.90576171875
0, 2, 97, 291.4906616210938
0, 2, 98, 294.4330444335938
0, 2, 99, 275.8173828125
0, 2, 100, 305.7032470703125
0, 2, 101, 302.4492797851562
0, 2, 102, 297.0008850097656
0, 2, 103, 292.7980346679688
0, 2, 104, 292.5724182128906
0, 2, 105, 273.1288757324219
0, 2, 106, 297.309814453125
0, 2, 107, 272.2079467773438
0, 2, 108, 117.4836807250977
0, 2, 109, 32.91228866577148
0, 2, 110, 10.47226333618164
0, 2, 111, 12.50870132446289
0, 2, 112, 10.60164451599121
0, 2, 113, 9.66112232208252
0, 2, 114, 10.28678512573242
0, 2, 115, 9.8182373046875
0, 2, 116, 9.299843788146973
0, 2, 117, 10.0260591506958
0, 2, 118, 4.021573543548584
0, 2, 119, 4.218169212341309
0, 2, 120, 7.445180416107178
0, 2, 121, 2.096883058547974
0, 2, 122, 3.481935024261475
0, 2, 123, 3.073020935058594
0, 2, 124, 4.023387432098389
0, 2, 125, 5.515392303466797
0, 2, 126, 3.658615589141846
0, 2, 127, 4.819137096405029
0, 3, 0, 2.62667989730835
0, 3, 1, 3.246209621429443
0, 3, 2, 4.305453777313232
0, 3, 3, 1.741200804710388
0, 3, 4, 2.913455486297607
0, 3, 5, 6.339218616485596
0, 3, 6, 6.571488857269287
0, 3, 7, 5.379080295562744
0, 3, 8, 5.576695442199707
0, 3, 9, 7.883500099182129
0, 3, 10, 5.822834491729736
0, 3, 11, 5.398926734924316
0, 3, 12, 9.079615592956543
0, 3, 13, 14.70219230651855
0, 3, 14, 11.23939037322998
0, 3, 15, 13.2963399887085
0, 3, 16, 11.28754234313965
0, 3, 17, 21.79335021972656
0, 3, 18, 53.41472244262695
0, 3, 19, 174.6737060546875
0, 3, 20, 269.9746398925781
0, 3, 21, 270.6499328613281
0, 3, 22, 282.8551940917969
0, 3, 23, 287.6596984863281
0, 3, 24, 286.0235900878906
0, 3, 25, 268.320556640625
0, 3, 26, 304.6640319824219
0, 3, 27, 293.3144836425781
0, 3, 28, 281.9555053710938
0, 3, 29, 337.9584655761719
0, 3, 30, 315.2020568847656
0, 3, 31, 285.5139465332031
0, 3, 32, 307.9582214355469
0, 3, 33, 313.5967102050781
0, 3, 34, 321.6300048828125
0, 3, 35, 307.2778625488281
0, 3, 36, 268.45654296875
0, 3, 37, 314.4661865234375
0, 3, 38, 305.1856384277344
0, 3, 39, 289.1534729003906
0, 3, 40, 266.5996704101562
0, 3, 41, 301.72216796875
0, 3, 42, 285.1295166015625
0, 3, 43, 308.3764343261719
0, 3, 44, 311.8860778808594
0, 3, 45, 290.2698974609375
0, 3, 46, 330.2791137695312
0, 3, 47, 300.5837707519531
0, 3, 48, 302.5242614746094
0, 3, 49, 276.5654907226562
0, 3, 50, 291.1248168945312
0, 3, 51, 276.0437927246094
0, 3, 52, 315.2367553710938
0, 3, 53, 286.9579467773438
0, 3, 54, 283.7918395996094
0, 3, 55, 283.9305419921875
0, 3, 56, 297.9534301757812
0, 3, 57, 292.0146484375
0, 3, 58, 307.04296875
0, 3, 59, 296.020263671875
0, 3, 60, 297.3570556640625
0, 3, 61, 266.7904357910156
0, 3, 62, 282.9493713378906
0, 3, 63, 305.3797302246094
0, 3, 64, 315.2005310058594
0, 3, 65, 305.7306518554688
0, 3, 66, 314.0497131347656
0, 3, 67, 317.48583984375
0, 3, 68, 279.5751037597656
0, 3, 69, 282.7807006835938
0, 3, 70, 287.587890625
0, 3, 71, 300.3051147460938
0, 3, 72, 270.9578247070312
0, 3, 73, 309.9799194335938
0, 3, 74, 293.4816284179688
0, 3, 75, 288.8788146972656
0, 3, 76, 304.9808959960938
0, 3, 77, 312.557373046875
0, 3, 78, 304.1291198730469
0, 3, 79, 282.77099609375
0, 3, 80, 290.6590576171875
0, 3, 81, 310.6920776367188
0, 3, 82, 314.6148071289062
0, 3, 83, 301.415771484375
0, 3, 84, 310.5597534179688
0, 3, 85, 292.5657653808594
0, 3, 86, 302.1393432617188
0, 3, 87, 298.6325378417969
0, 3, 88, 298.6501770019531
0, 3, 89, 296.5386047363281
0, 3, 90, 276.5896301269531
0, 3, 91, 282.9797668457031
0, 3, 92, 304.9638977050781
0, 3, 93, 312.3558044433594
0, 3, 94, 297.5431823730469
0, 3, 95, 332.8273315429688
0, 3, 96, 290.4207153320312
0, 3, 97, 288.4877014160156
0, 3, 98, 278.7012939453125
0, 3, 99, 260.5385437011719
0, 3, 100, 282.7810668945312
0, 3, 101, 297.5077819824219
0, 3, 102, 274.2238159179688
0, 3, 103, 321.0506591796875
0, 3, 104, 310.9984130859375
0, 3, 105, 287.6932373046875
0, 3, 106, 302.4278564453125
0, 3, 107, 284.0445861816406
0, 3, 108, 167.3706359863281
0, 3, 109, 55.48590087890625
0, 3, 110, 16.68086242675781
0, 3, 111, 13.80785274505615
0, 3, 112, 13.58927726745605
0, 3, 113, 6.209643840789795
0, 3, 114, 8.313516616821289
0, 3, 115, 6.847898960113525
0, 3, 116, 6.918564319610596
0, 3, 117, 9.203463554382324
0, 3, 118, 10.41526412963867
0, 3, 119, 4.5298752784729
0, 3, 120, 6.727864742279053
0, 3, 121, 3.47881293296814
0, 3, 122, 4.390070915222168
0, 3, 123, 5.274415016174316
0, 3, 124, 2.879483461380005
0, 3, 125, 4.950990200042725
0, 3, 126, 4.525865077972412
0, 3, 127, 2.713740348815918
0, 4, 0, 2.062257528305054
0, 4, 1, 4.690804958343506
0, 4, 2, 5.377110004425049
0, 4, 3, 1.937000036239624
0, 4, 4, 7.025917530059814
0, 4, 5, 8.275217056274414
0, 4, 6, 7.573677539825439
0, 4, 7, 5.791589260101318
0, 4, 8, 4.499119758605957
0, 4, 9, 5.981511116027832
0, 4, 10, 8.254663467407227
0, 4, 11, 6.387924671173096
0, 4, 12, 7.047832012176514
0, 4, 13, 9.736457824707031
0, 4, 14, 10.60687160491943
0, 4, 15, 11.69098854064941
0, 4, 16, 13.23788452148438
0, 4, 17, 19.29965400695801
0, 4, 18, 92.98830413818359
0, 4, 19, 224.1307067871094
0, 4, 20, 285.8551635742188
0, 4, 21, 271.5456848144531
0, 4, 22, 304.4493103027344
0, 4, 23, 266.2628173828125
0, 4, 24, 288.9371948242188
0, 4, 25, 272.7710571289062
0, 4, 26, 294.6727294921875
0, 4, 27, 283.4364318847656
0, 4, 28, 310.1901245117188
0, 4, 29, 324.9103088378906
0, 4, 30, 309.2601318359375
0, 4, 31, 303.3107604980469
0, 4, 32, 284.1063232421875
0, 4, 33, 297.3323364257812
0, 4, 34, 294.8031921386719
0, 4, 35, 311.5835571289062
0, 4, 36, 291.7770690917969
0, 4, 37, 289.6356811523438
0, 4, 38, 301.0564880371094
0, 4, 39, 294.2332763671875
0, 4, 40, 301.8434448242188
0, 4, 41, 310.1401977539062
0, 4, 42, 329.0570678710938
0, 4, 43, 295.7070007324219
0, 4, 44, 321.32275390625
0, 4, 45, 323.493896484375
0, 4, 46, 305.60595703125
0, 4, 47, 292.5555419921875
0, 4, 48, 295.7122192382812
0, 4, 49, 277.2633666992188
0, 4, 50, 297.6869812011719
0, 4, 51, 316.3302001953125
0, 4, 52, 326.4945678710938
0, 4, 53, 302.9782409667969
0, 4, 54, 288.5647277832031
0, 4, 55, 314.1310424804688
0, 4, 56, 286.9143981933594
0, 4, 57, 310.3949279785156
0, 4, 58, 295.4104614257812
0, 4, 59, 308.2173767089844
0, 4, 60, 301.0924682617188
0, 4, 61, 314.7374572753906
0, 4, 62, 310.7220764160156
0, 4, 63, 299.9034729003906
0, 4, 64, 329.7362365722656
0, 4, 65, 314.3489379882812
0, 4, 66, 292.4158630371094
0, 4, 67, 284.7129211425781
0, 4, 68, 312.1401062011719
0, 4, 69, 276.4688415527344
0, 4, 70, 299.6740112304688
0, 4, 71, 320.7019348144531
0, 4, 72, 331.8265686035156
0, 4, 73, 299.9383850097656
0, 4, 74, 291.3269653320312
0, 4, 75, 288.4834594726562
0, 4, 76, 274.9699096679688
0, 4, 77, 279.2530212402344
0, 4, 78, 310.9193420410156
0, 4, 79, 319.5714111328125
0, 4, 80, 315.3446655273438
0, 4, 81, 313.3543701171875
0, 4, 82, 298.5235290527344
0, 4, 83, 301.1561584472656
0, 4, 84, 291.6752014160156
0, 4, 85, 294.6941223144531
0, 4, 86, 296.6934814453125
0, 4, 87, 285.2837219238281
0, 4, 88, 305.4135437011719
0, 4, 89, 294.8178100585938
0, 4, 90, 333.4513244628906
0, 4, 91, 302.2561645507812
0, 4, 92, 289.8173217773438
0, 4, 93, 296.3182983398438
0, 4, 94, 291.3959045410156
0, 4, 95, 288.4497375488281
0, 4, 96, 324.4444274902344
0, 4, 97, 274.4908142089844
0, 4, 98, 327.8119201660156
0, 4, 99, 313.8075256347656
0, 4, 100, 300.6499633789062
0, 4, 101, 258.9094543457031
0, 4, 102, 296.1369323730469
0, 4, 103, 316.559814453125
0, 4, 104, 282.6952819824219
0, 4, 105, 309.4037475585938
0, 4, 106, 287.2850036621094
0, 4, 107, 294.9614562988281
0, 4, 108, 225.5499420166016
0, 4, 109, 78.47090148925781
0, 4, 110, 17.22430229187012
0, 4, 111, 13.74511623382568
0, 4, 112, 7.82689380645752
0, 4, 113, 11.23558902740479
0, 4, 114, 8.850886344909668
0, 4, 115, 11.3838357925415
0, 4, 116, 7.805961132049561
0, 4, 117, 6.488142967224121
0, 4, 118, 9.912209510803223
0, 4, 119, 8.791701316833496
0, 4, 120, 6.139885425567627
0, 4, 121, 6.975170135498047
0, 4, 122, 3.833579063415527
0, 4, 123, 7.674287796020508
0, 4, 124, 6.744839668273926
0, 4, 125, 9.454355239868164
0, 4, 126, 5.463667869567871
0, 4, 127, 4.120820999145508
0, 5, 0, 3.193460464477539
0, 5, 1, 3.240096807479858
0, 5, 2, 4.70899772644043
0, 5, 3, 4.878827571868896
0, 5, 4, 4.569409370422363
0, 5, 5, 9.649481773376465
0, 5, 6, 6.15669059753418
0, 5, 7, 5.035650730133057
0, 5, 8, 4.044063568115234
0, 5, 9, 5.888927936553955
0, 5, 10, 8.202569007873535
0, 5, 11, 8.740553855895996
0, 5, 12, 8.418943405151367
0, 5, 13, 5.757115364074707
0, 5, 14, 11.72909927368164
0, 5, 15, 16.90644454956055
0, 5, 16, 14.57400131225586
0, 5, 17, 29.47396087646484
0, 5, 18, 135.654541015625
0, 5, 19, 286.8819885253906
0, 5, 20, 308.0649108886719
0, 5, 21, 317.8667907714844
0, 5, 22, 275.7202453613281
0, 5, 23, 310.6097412109375
0, 5, 24, 301.9928894042969
0, 5, 25, 290.7999267578125
0, 5, 26, 294.5513305664062
0, 5, 27, 322.5289611816406
0, 5, 28, 304.8070678710938
0, 5, 29, 298.3676452636719
0, 5, 30, 323.1916198730469
0, 5, 31, 285.4338684082031
0, 5, 32, 304.1236572265625
0, 5, 33, 303.9475402832031
0, 5, 34, 296.3733825683594
0, 5, 35, 308.8051147460938
0, 5, 36, 271.5563659667969
0, 5, 37, 282.4434509277344
0, 5, 38, 292.1882019042969
0, 5, 39, 312.8563537597656
0, 5, 40, 307.1284790039062
0, 5, 41, 273.2413024902344
0, 5, 42, 304.75830078125
0, 5, 43, 313.4789733886719
0, 5, 44, 291.9789123535156
0, 5, 45, 302.3289489746094
0, 5, 46, 265.5591430664062
0, 5, 47, 280.1263122558594
0, 5, 48, 293.5869750976562
0, 5, 49, 285.8231201171875
0, 5, 50, 295.06005859375
0, 5, 51, 281.3863220214844
0, 5, 52, 268.9574890136719
0, 5, 53, 285.739990234375
0, 5, 54, 292.44580078125
0, 5, 55, 345.9701232910156
0, 5, 56, 307.7394409179688
0, 5, 57, 307.9374084472656
0, 5, 58, 312.5481567382812
0, 5, 59, 303.4113464355469
0, 5, 60, 308.1101684570312
0, 5, 61, 281.6076049804688
0, 5, 62, 326.6002197265625
0, 5, 63, 290.6431579589844
0, 5, 64, 323.6778259277344
0, 5, 65, 305.5635986328125
0, 5, 66, 327.2191772460938
0, 5, 67, 314.5401306152344
0, 5, 68, 311.0945739746094
0, 5, 69, 311.8330688476562
0, 5, 70, 303.1109313964844
0, 5, 71, 272.5438842773438
0, 5, 72, 311.2193298339844
0, 5, 73, 301.8785705566406
0, 5, 74, 295.955078125
0, 5, 75, 293.5167846679688
0, 5, 76, 287.3274841308594
0, 5, 77, 300.1510009765625
0, 5, 78, 315.61376953125
0, 5, 79, 308.1329040527344
0, 5, 80, 295.1236267089844
0, 5, 81, 324.7920227050781
0, 5, 82, 322.326171875
0, 5, 83, 278.8766784667969
0, 5, 84, 300.5997619628906
0, 5, 85, 272.7673645019531
0, 5, 86, 326.8012084960938
0, 5, 87, 285.9125671386719
0, 5, 88, 314.1856384277344
0, 5, 89, 304.9913940429688
0, 5, 90, 316.4245300292969
0, 5, 91, 314.0122375488281
0, 5, 92, 296.6308288574219
0, 5, 93, 322.7403564453125
0, 5, 94, 307.3781127929688
0, 5, 95, 295.7279663085938
0, 5, 96, 297.1629638671875
0, 5, 97, 296.0223999023438
0, 5, 98, 318.0951843261719
0, 5, 99, 301.9680786132812
0, 5, 100, 290.0122985839844
0, 5, 101, 306.7493896484375
0, 5, 102, 291.3847045898438
0, 5, 103, 313.9020690917969
0, 5, 104, 302.5020446777344
0, 5, 105, 293.2819213867188
0, 5, 106, 281.3052978515625
0, 5, 107, 293.4205017089844
0, 5, 108, 267.3450012207031
0, 5, 109, 157.81103515625
0, 5, 110, 39.79611206054688
0, 5, 111, 21.0197868347168
0, 5, 112, 15.71132850646973
0, 5, 113, 14.05578899383545
0, 5, 114, 13.44370651245117
0, 5, 115, 7.674208641052246
0, 5, 116, 6.871094703674316
0, 5, 117, 6.783953666687012
0, 5, 118, 12.99910545349121
0, 5, 119, 4.163735389709473
0, 5, 120, 6.479801654815674
0, 5, 121, 4.879232883453369
0, 5, 122, 7.741715431213379
0, 5, 123, 4.395881652832031
0, 5, 124, 5.415726661682129
0, 5, 125, 3.323416471481323
0, 5, 126, 8.157986640930176
0, 5, 127, 4.187042236328125
0, 6, 0, 4.145357131958008
0, 6, 1, 2.997648954391479
0, 6, 2, 5.102746963500977
0, 6, 3, 5.291074275970459
0, 6, 4, 6.216450214385986
0, 6, 5, 5.296909809112549
0, 6, 6, 6.555548667907715
0, 6, 7, 4.428927421569824
0, 6, 8, 9.050740242004395
0, 6, 9, 8.601387023925781
0, 6, 10, 8.139487266540527
0, 6, 11, 7.279464244842529
0, 6, 12, 9.741176605224609
0, 6, 13, 14.17701816558838
0, 6, 14, 9.734057426452637
0, 6, 15, 15.96450424194336
0, 6, 16, 29.14829444885254
0, 6, 17, 54.97134017944336
0, 6, 18, 172.0721740722656
0, 6, 19, 274.7199401855469
0, 6, 20, 290.4878845214844
0, 6, 21, 313.8251342773438
0, 6, 22, 319.5829162597656
0, 6, 23, 308.853271484375
0, 6, 24, 316.27294921875
0, 6, 25, 315.219482421875
0, 6, 26, 322.6533813476562
0, 6, 27, 332.7991943359375
0, 6, 28, 296.0565795898438
0, 6, 29, 329.4542236328125
0, 6, 30, 280.901611328125
0, 6, 31, 285.5050354003906
0, 6, 32, 339.7037353515625
0, 6, 33, 300.9327087402344
0, 6, 34, 342.10205078125
0, 6, 35, 320.9066772460938
0, 6, 36, 274.3474731445312
0, 6, 37, 289.6235046386719
0, 6, 38, 315.5913391113281
0, 6, 39, 296.9878845214844
0, 6, 40, 283.8474426269531
0, 6, 41, 296.4614562988281
0, 6, 42, 304.838623046875
0, 6, 43, 288.0027770996094
0, 6, 44, 281.7486572265625
0, 6, 45, 318.3827819824219
0, 6, 46, 300.2271118164062
0, 6, 47, 332.1861267089844
0, 6, 48, 292.6389770507812
0, 6, 49, 313.4471740722656
0, 6, 50, 328.8479919433594
0, 6, 51, 310.4669189453125
0, 6, 52, 320.984375
0, 6, 53, 326.5732727050781
0, 6, 54, 303.3216857910156
0, 6, 55, 306.7043762207031
0, 6, 56, 292.6708984375
0, 6, 57, 314.0593566894531
0, 6, 58, 262.0459594726562
0, 6, 59, 304.2252502441406
0, 6, 60, 311.9021911621094
0, 6, 61, 271.2593383789062
0, 6, 62, 334.1900329589844
0, 6, 63, 322.1198120117188
0, 6, 64, 291.37744140625
0, 6, 65, 282.8008422851562
0, 6, 66, 302.5567932128906
0, 6, 67, 310.3924255371094
0, 6, 68, 293.7727355957031
0, 6, 69, 278.0691833496094
0, 6, 70, 274.0209655761719
0, 6, 71, 291.9168395996094
0, 6, 72, 310.9317321777344
0, 6, 73, 293.3551940917969
0, 6, 74, 330.464111328125
0, 6, 75, 343.0396118164062
0, 6, 76, 297.3778381347656
0, 6, 77, 286.0464477539062
0, 6, 78, 278.9285583496094
0, 6, 79, 293.5766296386719
0, 6, 80, 297.9947509765625
0, 6, 81, 314.09814453125
0, 6, 82, 319.7629089355469
0, 6, 83, 320.5354614257812
0, 6, 84, 295.6290283203125
0, 6, 85, 301.082763671875
0, 6, 86, 330.8573608398438
0, 6, 87, 293.1777038574219
0, 6, 88, 306.5571594238281
0, 6, 89, 304.0934143066406
0, 6, 90, 298.6602783203125
0, 6, 91, 310.9744262695312
0, 6, 92, 286.1763000488281
0, 6, 93, 295.280029296875
0, 6, 94, 271.194091796875
0, 6, 95, 299.8656921386719
0, 6, 96, 347.0290222167969
0, 6, 97, 310.930419921875
0, 6, 98, 302.2449951171875
0, 6, 99, 271.6722106933594
0, 6, 100, 308.6741027832031
0, 6, 101, 293.4270935058594
0, 6, 102, 306.6679992675781
0, 6, 103, 306.6884460449219
0, 6, 104, 291.78271484375
0, 6, 105, 299.5892639160156
0, 6, 106, 307.6014099121094
0, 6, 107, 305.1263427734375
0, 6, 108, 267.3376159667969
0, 6, 109, 186.8795166015625
0, 6, 110, 55.28617858886719
0, 6, 111, 22.02661323547363
0, 6, 112, 12.42321586608887
0, 6, 113, 10.62838363647461
0, 6, 114, 12.40307998657227
0, 6, 115, 12.00487232208252
0, 6, 116, 8.990573883056641
0, 6, 117, 9.891380310058594
0, 6, 118, 12.77391529083252
0, 6, 119, 12.43246841430664
0, 6, 120, 8.170419692993164
0, 6, 121, 7.374594688415527
0, 6, 122, 7.232892036437988
0, 6, 123, 5.062203407287598
0, 6, 124, 5.566287040710449
0, 6, 125, 5.875669956207275
0, 6, 126, 3.846719026565552
0, 6, 127, 6.644050598144531
0, 7, 0, 6.114463806152344
0, 7, 1, 2.885924339294434
0, 7, 2, 4.912015438079834
0, 7, 3, 5.659993648529053
0, 7, 4, 4.007102012634277
0, 7, 5, 4.040050983428955
0, 7, 6, 6.517957210540771
0, 7, 7, 4.96587085723877
0, 7, 8, 5.814797401428223
0, 7, 9, 7.723512649536133
0, 7, 10, 11.37215614318848
0, 7, 11, 11.64627265930176
0, 7, 12, 10.40563297271729
0, 7, 13, 11.35943794250488
0, 7, 14, 10.74079513549805
0, 7, 15, 16.52031135559082
0, 7, 16, 26.26367568969727
0, 7, 17, 99.27288055419922
0, 7, 18, 218.8958435058594
0, 7, 19, 289.1548156738281
0, 7, 20, 297.6229248046875
0, 7, 21, 276.0955810546875
0, 7, 22, 298.4578857421875
0, 7, 23, 289.1584167480469
0, 7, 24, 314.2850036621094
0, 7, 25, 324.7893981933594
0, 7, 26, 277.6141967773438
0, 7, 27, 298.6327209472656
0, 7, 28, 329.3861389160156
0, 7, 29, 320.4430541992188
0, 7, 30, 301.6920776367188
0, 7, 31, 276.4678649902344
0, 7, 32, 305.087646484375
0, 7, 33, 258.2650756835938
0, 7, 34, 299.07177734375
0, 7, 35, 319.2118225097656
0, 7, 36, 331.5231018066406
0, 7, 37, 325.109375
0, 7, 38, 298.30859375
0, 7, 39, 307.3587036132812
0, 7, 40, 289.412353515625
0, 7, 41, 271.5853881835938
0, 7, 42, 301.1142883300781
0, 7, 43, 276.3867797851562
0, 7, 44, 302.9922485351562
0, 7, 45, 293.8364562988281
0, 7, 46, 280.0067443847656
0, 7, 47, 328.681396484375
0, 7, 48, 287.7571105957031
0, 7, 49, 300.5543212890625
0, 7, 50, 321.5842590332031
0, 7, 51, 299.2157592773438
0, 7, 52, 328.8766784667969
0, 7, 53, 311.36865234375
0, 7, 54, 323.2523498535156
0, 7, 55, 307.0093688964844
0, 7, 56, 281.8116760253906
0, 7, 57, 280.2168579101562
0, 7, 58, 296.3402709960938
0, 7, 59, 292.747802734375
0, 7, 60, 321.8146667480469
0, 7, 61, 277.2178344726562
0, 7, 62, 299.7710571289062
0, 7, 63, 292.5694274902344
0, 7, 64, 306.3294982910156
0, 7, 65, 331.2299194335938
0, 7, 66, 324.2407531738281
0, 7, 67, 301.234619140625
0, 7, 68, 278.5430908203125
0, 7, 69, 294.6196899414062
0, 7, 70, 301.3702392578125
0, 7, 71, 310.9567565917969
0, 7, 72, 284.6339416503906
0, 7, 73, 294.3955078125
0, 7, 74, 345.0162963867188
0, 7, 75, 318.6727905273438
0, 7, 76, 322.0436401367188
0, 7, 77, 282.5962524414062
0, 7, 78, 300.9394836425781
0, 7, 79, 297.8529357910156
0, 7, 80, 311.1619262695312
0, 7, 81, 322.3461303710938
0, 7, 82, 330.0727844238281
0, 7, 83, 317.5011901855469
0, 7, 84, 311.13818359375
0, 7, 85, 271.3616638183594
0, 7, 86, 311.6623229980469
0, 7, 87, 308.9572143554688
0, 7, 88, 306.462646484375
0, 7, 89, 294.3150329589844
0, 7, 90, 308.9861145019531
0, 7, 91, 313.6323547363281
0, 7, 92, 288.9939575195312
0, 7, 93, 308.67919921875
0, 7, 94, 273.2949829101562
0, 7, 95, 299.4122619628906
0, 7, 96, 330.7061767578125
0, 7, 97, 295.4324340820312
0, 7, 98, 290.962646484375
0, 7, 99, 313.1861572265625
0, 7, 100, 282.2582702636719
0, 7, 101, 274.105224609375
0, 7, 102, 289.6865539550781
0, 7, 103, 291.93310546875
0, 7, 104, 275.3943481445312
0, 7, 105, 306.0049743652344
0, 7, 106, 318.722412109375
0, 7, 107, 297.3611145019531
0, 7, 108, 272.9495239257812
0, 7, 109, 236.6476898193359
0, 7, 110, 95.38859558105469
0, 7, 111, 23.27988052368164
0, 7, 112, 14.19631099700928
0, 7, 113, 14.63395404815674
0, 7, 114, 13.34712219238281
0, 7, 115, 12.17031574249268
0, 7, 116, 10.59428691864014
0, 7, 117, 7.236307144165039
0, 7, 118, 9.206096649169922
0, 7, 119, 8.35283374786377
0, 7, 120, 4.74654483795166
0, 7, 121, 6.012043952941895
0, 7, 122, 7.538729667663574
0, 7, 123, 6.772605419158936
0, 7, 124, 3.583812236785889
0, 7, 125, 7.051350593566895
0, 7, 126, 8.298802375793457
0, 7, 127, 3.755112648010254
0, 8, 0, 5.87794017791748
0, 8, 1, 2.972819328308105
0, 8, 2, 3.389990329742432
0, 8, 3, 3.778615474700928
0, 8, 4, 4.582929611206055
0, 8, 5, 5.95222806930542
0, 8, 6, 5.309797763824463
0, 8, 7, 5.184155941009521
0, 8, 8, 8.545121192932129
0, 8, 9, 4.935754299163818
0, 8, 10, 7.955559253692627
0, 8, 11, 14.14337635040283
0, 8, 12, 15.29022693634033
0, 8, 13, 15.79769134521484
0, 8, 14, 11.93892002105713
0, 8, 15, 18.27721786499023
0, 8, 16, 32.2568473815918
0, 8, 17, 130.6330718994141
0, 8, 18, 243.3473968505859
0, 8, 19, 297.7716064453125
0, 8, 20, 286.7279663085938
0, 8, 21, 306.2135009765625
0, 8, 22, 295.1909484863281
0, 8, 23, 276.1163635253906
0, 8, 24, 267.9203186035156
0, 8, 25, 274.4778442382812
0, 8, 26, 306.8421936035156
0, 8, 27, 307.5645141601562
0, 8, 28, 306.9478149414062
0, 8, 29, 320.5084533691406
0, 8, 30, 313.8780517578125
0, 8, 31, 306.1948547363281
0, 8, 32, 282.5539855957031
0, 8, 33, 298.9502563476562
0, 8, 34, 288.0775146484375
0, 8, 35, 280.6191101074219
0, 8, 36, 314.8273315429688
0, 8, 37, 339.1010437011719
0, 8, 38, 330.4982604980469
0, 8, 39, 280.024169921875
