# TOPAS Version: 3.1.p3
# Parameter File: batch_inserts_100.txt
# Results for scorer Readout_Adipose
# Scored in component: MyBox
# X in 1 bin  of 0.75 cm
# Y in 512 bins of 0.0783984 cm
# Z in 128 bins of 0.078125 cm
# EnergyDeposit ( MeV ) : Sum   
0, 0, 0, 4.360611915588379
0, 0, 1, 2.844778776168823
0, 0, 2, 2.55150842666626
0, 0, 3, 1.979331970214844
0, 0, 4, 2.946484804153442
0, 0, 5, 2.085164070129395
0, 0, 6, 4.605830669403076
0, 0, 7, 9.384567260742188
0, 0, 8, 2.43449878692627
0, 0, 9, 3.674304485321045
0, 0, 10, 9.247234344482422
0, 0, 11, 4.459720611572266
0, 0, 12, 3.792980432510376
0, 0, 13, 5.628936767578125
0, 0, 14, 7.602061748504639
0, 0, 15, 9.790943145751953
0, 0, 16, 10.11723613739014
0, 0, 17, 9.659619331359863
0, 0, 18, 12.62270545959473
0, 0, 19, 45.04021453857422
0, 0, 20, 138.8001251220703
0, 0, 21, 223.7839050292969
0, 0, 22, 248.3924407958984
0, 0, 23, 257.8277587890625
0, 0, 24, 251.2994689941406
0, 0, 25, 259.0233459472656
0, 0, 26, 233.6365814208984
0, 0, 27, 236.7425689697266
0, 0, 28, 270.2321472167969
0, 0, 29, 252.6226654052734
0, 0, 30, 229.6678924560547
0, 0, 31, 244.6711578369141
0, 0, 32, 264.1067810058594
0, 0, 33, 259.7610473632812
0, 0, 34, 286.5728149414062
0, 0, 35, 268.1419067382812
0, 0, 36, 246.4064636230469
0, 0, 37, 251.6841125488281
0, 0, 38, 268.9636535644531
0, 0, 39, 230.3296051025391
0, 0, 40, 240.5968780517578
0, 0, 41, 265.5097961425781
0, 0, 42, 228.5730285644531
0, 0, 43, 258.7213745117188
0, 0, 44, 251.2084197998047
0, 0, 45, 252.5899047851562
0, 0, 46, 243.4495544433594
0, 0, 47, 252.1613006591797
0, 0, 48, 266.0266723632812
0, 0, 49, 273.1419067382812
0, 0, 50, 253.8503112792969
0, 0, 51, 253.0931701660156
0, 0, 52, 276.8302001953125
0, 0, 53, 293.473388671875
0, 0, 54, 242.944091796875
0, 0, 55, 240.0580139160156
0, 0, 56, 279.0238037109375
0, 0, 57, 263.8628234863281
0, 0, 58, 245.5081329345703
0, 0, 59, 270.3922119140625
0, 0, 60, 234.9771575927734
0, 0, 61, 246.1798095703125
0, 0, 62, 258.7367248535156
0, 0, 63, 267.1089477539062
0, 0, 64, 257.2196044921875
0, 0, 65, 262.60986328125
0, 0, 66, 276.4959411621094
0, 0, 67, 247.6734008789062
0, 0, 68, 258.4415588378906
0, 0, 69, 262.7189331054688
0, 0, 70, 273.5513305664062
0, 0, 71, 237.1587677001953
0, 0, 72, 250.3361358642578
0, 0, 73, 257.9330139160156
0, 0, 74, 250.9372863769531
0, 0, 75, 239.9370269775391
0, 0, 76, 229.1477203369141
0, 0, 77, 260.7118530273438
0, 0, 78, 255.2751617431641
0, 0, 79, 278.7191162109375
0, 0, 80, 214.9513702392578
0, 0, 81, 266.7894592285156
0, 0, 82, 257.02783203125
0, 0, 83, 245.5400543212891
0, 0, 84, 272.4848022460938
0, 0, 85, 232.6757659912109
0, 0, 86, 253.6858520507812
0, 0, 87, 252.8246002197266
0, 0, 88, 260.3024291992188
0, 0, 89, 283.7680053710938
0, 0, 90, 245.5985717773438
0, 0, 91, 280.7047424316406
0, 0, 92, 254.1871948242188
0, 0, 93, 250.1589508056641
0, 0, 94, 248.8252258300781
0, 0, 95, 248.5271606445312
0, 0, 96, 274.1290893554688
0, 0, 97, 272.6221618652344
0, 0, 98, 273.8308410644531
0, 0, 99, 258.957763671875
0, 0, 100, 258.632080078125
0, 0, 101, 226.9339599609375
0, 0, 102, 232.9163208007812
0, 0, 103, 270.2216796875
0, 0, 104, 254.8575592041016
0, 0, 105, 251.3938598632812
0, 0, 106, 247.11962890625
0, 0, 107, 151.7583160400391
0, 0, 108, 38.11154556274414
0, 0, 109, 11.61239719390869
0, 0, 110, 12.27455425262451
0, 0, 111, 8.189827919006348
0, 0, 112, 7.544958114624023
0, 0, 113, 4.530520915985107
0, 0, 114, 7.219405651092529
0, 0, 115, 4.981446266174316
0, 0, 116, 4.875501155853271
0, 0, 117, 7.41496753692627
0, 0, 118, 6.807649612426758
0, 0, 119, 3.800041675567627
0, 0, 120, 3.004883766174316
0, 0, 121, 4.60077428817749
0, 0, 122, 4.983339786529541
0, 0, 123, 6.399194717407227
0, 0, 124, 5.612114906311035
0, 0, 125, 6.198846817016602
0, 0, 126, 5.589523315429688
0, 0, 127, 2.261381149291992
0, 1, 0, 8.876398086547852
0, 1, 1, 3.704979419708252
0, 1, 2, 5.102966785430908
0, 1, 3, 1.05911111831665
0, 1, 4, 3.023957014083862
0, 1, 5, 3.522731304168701
0, 1, 6, 4.585328578948975
0, 1, 7, 5.908163070678711
0, 1, 8, 9.623858451843262
0, 1, 9, 3.209905624389648
0, 1, 10, 6.847134113311768
0, 1, 11, 12.77797698974609
0, 1, 12, 8.534761428833008
0, 1, 13, 9.765962600708008
0, 1, 14, 9.442765235900879
0, 1, 15, 6.992480278015137
0, 1, 16, 11.06864261627197
0, 1, 17, 11.88042736053467
0, 1, 18, 21.22185134887695
0, 1, 19, 66.64226531982422
0, 1, 20, 197.1585083007812
0, 1, 21, 254.6509552001953
0, 1, 22, 295.5736083984375
0, 1, 23, 282.5106506347656
0, 1, 24, 275.5784301757812
0, 1, 25, 290.078125
0, 1, 26, 268.3416748046875
0, 1, 27, 306.5361022949219
0, 1, 28, 299.4120788574219
0, 1, 29, 296.4612731933594
0, 1, 30, 281.1875305175781
0, 1, 31, 289.4889221191406
0, 1, 32, 292.4363708496094
0, 1, 33, 298.1096801757812
0, 1, 34, 293.2099304199219
0, 1, 35, 278.8052062988281
0, 1, 36, 306.78125
0, 1, 37, 293.3711547851562
0, 1, 38, 277.4295043945312
0, 1, 39, 295.4611206054688
0, 1, 40, 266.6030883789062
0, 1, 41, 286.001220703125
0, 1, 42, 292.1061706542969
0, 1, 43, 333.5052795410156
0, 1, 44, 279.3068542480469
0, 1, 45, 293.8702697753906
0, 1, 46, 258.5435180664062
0, 1, 47, 310.5990295410156
0, 1, 48, 283.1961975097656
0, 1, 49, 304.2618103027344
0, 1, 50, 262.1431274414062
0, 1, 51, 275.21923828125
0, 1, 52, 296.4360961914062
0, 1, 53, 304.7363891601562
0, 1, 54, 275.2669067382812
0, 1, 55, 293.9906616210938
0, 1, 56, 276.5941772460938
0, 1, 57, 298.4893798828125
0, 1, 58, 310.9636840820312
0, 1, 59, 291.5126647949219
0, 1, 60, 297.2960510253906
0, 1, 61, 273.8355102539062
0, 1, 62, 307.4649353027344
0, 1, 63, 287.5435485839844
0, 1, 64, 289.7803344726562
0, 1, 65, 295.251953125
0, 1, 66, 292.952880859375
0, 1, 67, 290.6060485839844
0, 1, 68, 278.6304016113281
0, 1, 69, 280.0665588378906
0, 1, 70, 270.8471069335938
0, 1, 71, 273.6093139648438
0, 1, 72, 286.7764282226562
0, 1, 73, 303.8281555175781
0, 1, 74, 306.4513549804688
0, 1, 75, 292.4301452636719
0, 1, 76, 286.418701171875
0, 1, 77, 291.6377563476562
0, 1, 78, 297.5765380859375
0, 1, 79, 305.2404174804688
0, 1, 80, 295.1175231933594
0, 1, 81, 301.1533203125
0, 1, 82, 282.97802734375
0, 1, 83, 330.1351318359375
0, 1, 84, 308.1888427734375
0, 1, 85, 256.2252197265625
0, 1, 86, 294.85302734375
0, 1, 87, 289.7369995117188
0, 1, 88, 298.4795532226562
0, 1, 89, 290.3346862792969
0, 1, 90, 271.2917785644531
0, 1, 91, 317.7669677734375
0, 1, 92, 294.5331420898438
0, 1, 93, 285.8601379394531
0, 1, 94, 302.8047485351562
0, 1, 95, 284.4629516601562
0, 1, 96, 283.0376586914062
0, 1, 97, 301.9268188476562
0, 1, 98, 278.8779907226562
0, 1, 99, 266.1335144042969
0, 1, 100, 276.1615295410156
0, 1, 101, 281.4527282714844
0, 1, 102, 280.6911315917969
0, 1, 103, 282.8132019042969
0, 1, 104, 306.3308715820312
0, 1, 105, 295.9664916992188
0, 1, 106, 260.2317810058594
0, 1, 107, 191.7440643310547
0, 1, 108, 82.09844970703125
0, 1, 109, 25.81716346740723
0, 1, 110, 11.49771976470947
0, 1, 111, 9.005078315734863
0, 1, 112, 11.23571968078613
0, 1, 113, 5.774574756622314
0, 1, 114, 5.763618946075439
0, 1, 115, 7.335854530334473
0, 1, 116, 13.07610702514648
0, 1, 117, 7.512043476104736
0, 1, 118, 4.927283763885498
0, 1, 119, 7.70084810256958
0, 1, 120, 7.628069400787354
0, 1, 121, 5.744174003601074
0, 1, 122, 2.605767965316772
0, 1, 123, 4.103099822998047
0, 1, 124, 8.362592697143555
0, 1, 125, 3.798056840896606
0, 1, 126, 2.693732023239136
0, 1, 127, 1.470039486885071
0, 2, 0, 7.013885498046875
0, 2, 1, 1.648748993873596
0, 2, 2, 3.42509651184082
0, 2, 3, 5.522779941558838
0, 2, 4, 4.312256336212158
0, 2, 5, 1.741147994995117
0, 2, 6, 1.577301859855652
0, 2, 7, 5.580631732940674
0, 2, 8, 4.108459949493408
0, 2, 9, 6.122029781341553
0, 2, 10, 7.164415836334229
0, 2, 11, 5.427130699157715
0, 2, 12, 7.043428897857666
0, 2, 13, 9.94582462310791
0, 2, 14, 9.837058067321777
0, 2, 15, 6.795190334320068
0, 2, 16, 7.624035358428955
0, 2, 17, 16.62526512145996
0, 2, 18, 31.02433204650879
0, 2, 19, 115.8471374511719
0, 2, 20, 246.5267333984375
0, 2, 21, 272.2334594726562
0, 2, 22, 316.2561340332031
0, 2, 23, 301.1710510253906
0, 2, 24, 287.6158447265625
0, 2, 25, 303.121337890625
0, 2, 26, 293.3935241699219
0, 2, 27, 276.9379272460938
0, 2, 28, 275.2136535644531
0, 2, 29, 273.5021362304688
0, 2, 30, 292.1143188476562
0, 2, 31, 278.8381042480469
0, 2, 32, 292.9177551269531
0, 2, 33, 281.6693115234375
0, 2, 34, 334.0733337402344
0, 2, 35, 288.6108703613281
0, 2, 36, 302.1334838867188
0, 2, 37, 316.666015625
0, 2, 38, 310.186279296875
0, 2, 39, 267.67919921875
0, 2, 40, 308.0485229492188
0, 2, 41, 295.6335754394531
0, 2, 42, 303.6409301757812
0, 2, 43, 314.2736206054688
0, 2, 44, 311.655029296875
0, 2, 45, 326.6950073242188
0, 2, 46, 287.1012573242188
0, 2, 47, 301.6930236816406
0, 2, 48, 281.69677734375
0, 2, 49, 279.3705444335938
0, 2, 50, 296.026611328125
0, 2, 51, 282.6197204589844
0, 2, 52, 271.1262512207031
0, 2, 53, 286.7442932128906
0, 2, 54, 281.4452819824219
0, 2, 55, 276.9064331054688
0, 2, 56, 300.7615661621094
0, 2, 57, 291.3374633789062
0, 2, 58, 304.2067260742188
0, 2, 59, 288.48046875
0, 2, 60, 318.6510314941406
0, 2, 61, 300.854736328125
0, 2, 62, 316.3216857910156
0, 2, 63, 301.7167053222656
0, 2, 64, 297.9356994628906
0, 2, 65, 313.9168395996094
0, 2, 66, 280.9655456542969
0, 2, 67, 289.5712585449219
0, 2, 68, 295.4727478027344
0, 2, 69, 312.296630859375
0, 2, 70, 333.9082946777344
0, 2, 71, 284.4451599121094
0, 2, 72, 299.310302734375
0, 2, 73, 309.9974060058594
0, 2, 74, 285.4521484375
0, 2, 75, 303.7924499511719
0, 2, 76, 287.3075256347656
0, 2, 77, 299.3166198730469
0, 2, 78, 317.2772521972656
0, 2, 79, 308.1812744140625
0, 2, 80, 295.4161071777344
0, 2, 81, 282.3384704589844
0, 2, 82, 318.3138122558594
0, 2, 83, 312.3409729003906
0, 2, 84, 287.4862976074219
0, 2, 85, 282.0875854492188
0, 2, 86, 323.3279113769531
0, 2, 87, 286.5653076171875
0, 2, 88, 279.8935546875
0, 2, 89, 295.4105224609375
0, 2, 90, 295.4106140136719
0, 2, 91, 276.1156311035156
0, 2, 92, 304.2527770996094
0, 2, 93, 318.6303405761719
0, 2, 94, 292.16162109375
0, 2, 95, 316.2669372558594
0, 2, 96, 314.8701782226562
0, 2, 97, 291.715576171875
0, 2, 98, 293.8071899414062
0, 2, 99, 273.3890380859375
0, 2, 100, 307.6930236816406
0, 2, 101, 300.2786560058594
0, 2, 102, 299.0749816894531
0, 2, 103, 291.3091125488281
0, 2, 104, 292.9993286132812
0, 2, 105, 274.3003540039062
0, 2, 106, 299.1983337402344
0, 2, 107, 270.2849731445312
0, 2, 108, 117.0373992919922
0, 2, 109, 31.57163619995117
0, 2, 110, 10.25480365753174
0, 2, 111, 10.93732643127441
0, 2, 112, 6.950459957122803
0, 2, 113, 9.374923706054688
0, 2, 114, 10.20799827575684
0, 2, 115, 9.350518226623535
0, 2, 116, 8.475337028503418
0, 2, 117, 9.012608528137207
0, 2, 118, 5.358953475952148
0, 2, 119, 7.077945709228516
0, 2, 120, 4.651129722595215
0, 2, 121, 1.638342142105103
0, 2, 122, 2.89728045463562
0, 2, 123, 4.659083843231201
0, 2, 124, 3.661224842071533
0, 2, 125, 4.648509979248047
0, 2, 126, 3.793197393417358
0, 2, 127, 5.241413116455078
0, 3, 0, 2.592209577560425
0, 3, 1, 2.997864723205566
0, 3, 2, 3.656355857849121
0, 3, 3, 1.778881430625916
0, 3, 4, 3.813383340835571
0, 3, 5, 6.43910551071167
0, 3, 6, 8.561497688293457
0, 3, 7, 6.194836139678955
0, 3, 8, 6.26318883895874
0, 3, 9, 5.723141193389893
0, 3, 10, 5.522403240203857
0, 3, 11, 2.855163812637329
0, 3, 12, 7.633374691009521
0, 3, 13, 15.29269790649414
0, 3, 14, 10.93544006347656
0, 3, 15, 14.5627613067627
0, 3, 16, 11.02332973480225
0, 3, 17, 19.10028266906738
0, 3, 18, 54.5815315246582
0, 3, 19, 177.2084350585938
0, 3, 20, 270.1980590820312
0, 3, 21, 270.3636169433594
0, 3, 22, 280.6124267578125
0, 3, 23, 286.7270202636719
0, 3, 24, 285.5760192871094
0, 3, 25, 270.8054504394531
0, 3, 26, 303.3714904785156
0, 3, 27, 293.4741516113281
0, 3, 28, 283.5032043457031
0, 3, 29, 336.6843872070312
0, 3, 30, 315.9101867675781
0, 3, 31, 286.4996948242188
0, 3, 32, 306.6374816894531
0, 3, 33, 312.6608276367188
0, 3, 34, 319.8861389160156
0, 3, 35, 304.4523010253906
0, 3, 36, 270.4192810058594
0, 3, 37, 313.5923156738281
0, 3, 38, 309.1916198730469
0, 3, 39, 289.5962829589844
0, 3, 40, 270.7826232910156
0, 3, 41, 298.2240600585938
0, 3, 42, 284.4414672851562
0, 3, 43, 304.4951171875
0, 3, 44, 309.8428344726562
0, 3, 45, 289.5877990722656
0, 3, 46, 328.0544128417969
0, 3, 47, 299.3393859863281
0, 3, 48, 304.8110046386719
0, 3, 49, 275.7171325683594
0, 3, 50, 294.7279357910156
0, 3, 51, 275.4585266113281
0, 3, 52, 314.6200561523438
0, 3, 53, 287.1851196289062
0, 3, 54, 282.9385986328125
0, 3, 55, 283.2188415527344
0, 3, 56, 299.7649536132812
0, 3, 57, 288.0321655273438
0, 3, 58, 307.1793518066406
0, 3, 59, 293.3967895507812
0, 3, 60, 299.5236511230469
0, 3, 61, 264.1914672851562
0, 3, 62, 284.4966735839844
0, 3, 63, 307.773193359375
0, 3, 64, 316.4674682617188
0, 3, 65, 303.695068359375
0, 3, 66, 315.2897644042969
0, 3, 67, 318.376220703125
0, 3, 68, 285.5846862792969
0, 3, 69, 282.3775939941406
0, 3, 70, 287.9954833984375
0, 3, 71, 299.2508239746094
0, 3, 72, 269.2544860839844
0, 3, 73, 310.7985229492188
0, 3, 74, 293.4885559082031
0, 3, 75, 292.4412841796875
0, 3, 76, 305.29248046875
0, 3, 77, 312.9232788085938
0, 3, 78, 306.3888854980469
0, 3, 79, 281.0261535644531
0, 3, 80, 289.408203125
0, 3, 81, 310.2996215820312
0, 3, 82, 316.5484924316406
0, 3, 83, 300.0893859863281
0, 3, 84, 311.4296875
0, 3, 85, 293.0253601074219
0, 3, 86, 303.4981689453125
0, 3, 87, 299.2700500488281
0, 3, 88, 299.949462890625
0, 3, 89, 296.2660217285156
0, 3, 90, 274.9246826171875
0, 3, 91, 282.754150390625
0, 3, 92, 304.3511047363281
0, 3, 93, 314.3079528808594
0, 3, 94, 297.4900207519531
0, 3, 95, 334.2135314941406
0, 3, 96, 288.845947265625
0, 3, 97, 282.5668334960938
0, 3, 98, 277.1730346679688
0, 3, 99, 260.5909423828125
0, 3, 100, 284.9172058105469
0, 3, 101, 298.2144470214844
0, 3, 102, 274.3177795410156
0, 3, 103, 320.0161437988281
0, 3, 104, 305.8594665527344
0, 3, 105, 289.261962890625
0, 3, 106, 301.7878723144531
0, 3, 107, 281.8984375
0, 3, 108, 166.3253173828125
0, 3, 109, 56.74512481689453
0, 3, 110, 16.91744232177734
0, 3, 111, 12.49966526031494
0, 3, 112, 13.03554439544678
0, 3, 113, 10.33030891418457
0, 3, 114, 9.016908645629883
0, 3, 115, 6.336459159851074
0, 3, 116, 7.824951648712158
0, 3, 117, 5.244011878967285
0, 3, 118, 5.485704898834229
0, 3, 119, 6.927516937255859
0, 3, 120, 9.278762817382812
0, 3, 121, 2.691213130950928
0, 3, 122, 3.320957899093628
0, 3, 123, 6.06928014755249
0, 3, 124, 5.258240699768066
0, 3, 125, 8.061733245849609
0, 3, 126, 5.345197677612305
0, 3, 127, 3.560885429382324
0, 4, 0, 2.628778219223022
0, 4, 1, 5.093276977539062
0, 4, 2, 3.268892288208008
0, 4, 3, 2.735342264175415
0, 4, 4, 5.66051197052002
0, 4, 5, 9.11264705657959
0, 4, 6, 7.742181777954102
0, 4, 7, 3.696590423583984
0, 4, 8, 4.6725172996521
0, 4, 9, 7.143048286437988
0, 4, 10, 6.546139240264893
0, 4, 11, 6.163525581359863
0, 4, 12, 6.12876558303833
0, 4, 13, 8.340676307678223
0, 4, 14, 12.97353553771973
0, 4, 15, 9.832517623901367
0, 4, 16, 15.40770053863525
0, 4, 17, 19.63104629516602
0, 4, 18, 96.77016448974609
0, 4, 19, 223.5932159423828
0, 4, 20, 285.1463317871094
0, 4, 21, 272.0194396972656
0, 4, 22, 304.2630615234375
0, 4, 23, 269.0181579589844
0, 4, 24, 289.0487060546875
0, 4, 25, 271.9438171386719
0, 4, 26, 293.867919921875
0, 4, 27, 282.4867858886719
0, 4, 28, 307.6560668945312
0, 4, 29, 323.3109130859375
0, 4, 30, 309.108154296875
0, 4, 31, 303.0742492675781
0, 4, 32, 282.4070129394531
0, 4, 33, 296.3546752929688
0, 4, 34, 296.0466003417969
0, 4, 35, 312.27880859375
0, 4, 36, 291.7567138671875
0, 4, 37, 289.5992431640625
0, 4, 38, 298.663818359375
0, 4, 39, 294.4650268554688
0, 4, 40, 300.9506225585938
0, 4, 41, 310.2146606445312
0, 4, 42, 332.1903381347656
0, 4, 43, 298.9866638183594
0, 4, 44, 320.5599670410156
0, 4, 45, 323.1067199707031
0, 4, 46, 304.3011169433594
0, 4, 47, 293.5683288574219
0, 4, 48, 296.241455078125
0, 4, 49, 278.2860412597656
0, 4, 50, 296.3668518066406
0, 4, 51, 315.2044067382812
0, 4, 52, 326.8156127929688
0, 4, 53, 308.4794311523438
0, 4, 54, 289.8466491699219
0, 4, 55, 314.0119018554688
0, 4, 56, 286.7812805175781
0, 4, 57, 310.1295471191406
0, 4, 58, 294.3458557128906
0, 4, 59, 309.6209411621094
0, 4, 60, 301.3891296386719
0, 4, 61, 314.6690673828125
0, 4, 62, 309.9676208496094
0, 4, 63, 303.3335571289062
0, 4, 64, 331.1415100097656
0, 4, 65, 316.4597778320312
0, 4, 66, 294.2834777832031
0, 4, 67, 287.0034484863281
0, 4, 68, 312.7342529296875
0, 4, 69, 275.3441772460938
0, 4, 70, 299.6520385742188
0, 4, 71, 323.7157592773438
0, 4, 72, 334.0958251953125
0, 4, 73, 299.3487854003906
0, 4, 74, 292.9849548339844
0, 4, 75, 289.8826293945312
0, 4, 76, 274.9456481933594
0, 4, 77, 281.32666015625
0, 4, 78, 310.6008911132812
0, 4, 79, 320.8509521484375
0, 4, 80, 316.6521606445312
0, 4, 81, 311.5547180175781
0, 4, 82, 297.4643859863281
0, 4, 83, 300.7422790527344
0, 4, 84, 293.4224243164062
0, 4, 85, 295.4960021972656
0, 4, 86, 297.9225769042969
0, 4, 87, 285.3355102539062
0, 4, 88, 305.1561279296875
0, 4, 89, 293.4209594726562
0, 4, 90, 331.0682067871094
0, 4, 91, 300.9696350097656
0, 4, 92, 290.1701965332031
0, 4, 93, 297.8606872558594
0, 4, 94, 295.6576538085938
0, 4, 95, 288.2598571777344
0, 4, 96, 324.4720153808594
0, 4, 97, 274.8474426269531
0, 4, 98, 325.9658508300781
0, 4, 99, 313.6061706542969
0, 4, 100, 299.7523193359375
0, 4, 101, 259.1464233398438
0, 4, 102, 294.6415405273438
0, 4, 103, 317.2441711425781
0, 4, 104, 281.27978515625
0, 4, 105, 309.8453369140625
0, 4, 106, 287.7018432617188
0, 4, 107, 294.3261108398438
0, 4, 108, 224.3116760253906
0, 4, 109, 80.14181518554688
0, 4, 110, 15.71525382995605
0, 4, 111, 13.86838817596436
0, 4, 112, 9.815404891967773
0, 4, 113, 10.34025955200195
0, 4, 114, 7.840949058532715
0, 4, 115, 10.57644844055176
0, 4, 116, 6.953137397766113
0, 4, 117, 6.769839763641357
0, 4, 118, 9.517392158508301
0, 4, 119, 8.995431900024414
0, 4, 120, 4.71398401260376
0, 4, 121, 5.105081081390381
0, 4, 122, 3.459916353225708
0, 4, 123, 6.891191005706787
0, 4, 124, 5.744049549102783
0, 4, 125, 10.34054088592529
0, 4, 126, 5.586669445037842
0, 4, 127, 5.897617340087891
0, 5, 0, 4.422370910644531
0, 5, 1, 3.515372037887573
0, 5, 2, 4.44892692565918
0, 5, 3, 5.108317375183105
0, 5, 4, 4.14309024810791
0, 5, 5, 8.598726272583008
0, 5, 6, 6.495237350463867
0, 5, 7, 4.417385101318359
0, 5, 8, 4.068007469177246
0, 5, 9, 5.491033554077148
0, 5, 10, 8.910170555114746
0, 5, 11, 10.05745601654053
0, 5, 12, 7.89184045791626
0, 5, 13, 6.781592845916748
0, 5, 14, 12.03118896484375
0, 5, 15, 18.88595962524414
0, 5, 16, 15.51093769073486
0, 5, 17, 28.69755363464355
0, 5, 18, 135.5927276611328
0, 5, 19, 288.3643798828125
0, 5, 20, 307.1007080078125
0, 5, 21, 317.1286010742188
0, 5, 22, 275.8633728027344
0, 5, 23, 310.1051025390625
0, 5, 24, 303.305908203125
0, 5, 25, 290.5107421875
0, 5, 26, 293.8285217285156
0, 5, 27, 320.5205078125
0, 5, 28, 301.2718505859375
0, 5, 29, 297.4551391601562
0, 5, 30, 326.2533874511719
0, 5, 31, 287.151123046875
0, 5, 32, 303.5024108886719
0, 5, 33, 303.5660400390625
0, 5, 34, 297.5230407714844
0, 5, 35, 310.3967895507812
0, 5, 36, 272.0926208496094
0, 5, 37, 282.1774291992188
0, 5, 38, 291.6392211914062
0, 5, 39, 312.6636352539062
0, 5, 40, 311.0137939453125
0, 5, 41, 273.8763122558594
0, 5, 42, 305.7091674804688
0, 5, 43, 316.1830139160156
0, 5, 44, 291.8108825683594
0, 5, 45, 304.1454162597656
0, 5, 46, 264.7211608886719
0, 5, 47, 279.9069213867188
0, 5, 48, 293.5636596679688
0, 5, 49, 286.2787475585938
0, 5, 50, 294.9735107421875
0, 5, 51, 280.0092468261719
0, 5, 52, 270.6377258300781
0, 5, 53, 283.4717102050781
0, 5, 54, 290.5047607421875
0, 5, 55, 345.7206726074219
0, 5, 56, 304.6759338378906
0, 5, 57, 308.3193969726562
0, 5, 58, 313.0933837890625
0, 5, 59, 306.6007385253906
0, 5, 60, 306.9654846191406
0, 5, 61, 283.4577941894531
0, 5, 62, 326.2880859375
0, 5, 63, 293.123291015625
0, 5, 64, 322.7915344238281
0, 5, 65, 307.6714477539062
0, 5, 66, 327.5514526367188
0, 5, 67, 312.5697326660156
0, 5, 68, 306.1701049804688
0, 5, 69, 313.1290283203125
0, 5, 70, 299.01123046875
0, 5, 71, 272.3577270507812
0, 5, 72, 308.3522644042969
0, 5, 73, 303.1749877929688
0, 5, 74, 298.05419921875
0, 5, 75, 294.8785705566406
0, 5, 76, 284.6649475097656
0, 5, 77, 296.8521728515625
0, 5, 78, 313.3817749023438
0, 5, 79, 307.3789672851562
0, 5, 80, 297.6098022460938
0, 5, 81, 325.7953186035156
0, 5, 82, 322.7485046386719
0, 5, 83, 281.2544250488281
0, 5, 84, 301.9037170410156
0, 5, 85, 272.2675476074219
0, 5, 86, 325.1784973144531
0, 5, 87, 285.872802734375
0, 5, 88, 313.9747619628906
0, 5, 89, 304.4996337890625
0, 5, 90, 317.6297912597656
0, 5, 91, 313.43408203125
0, 5, 92, 296.8318786621094
0, 5, 93, 322.0691528320312
0, 5, 94, 308.7449951171875
0, 5, 95, 296.345703125
0, 5, 96, 300.9010314941406
0, 5, 97, 297.0078125
0, 5, 98, 317.482421875
0, 5, 99, 303.0007019042969
0, 5, 100, 289.3562927246094
0, 5, 101, 304.7943420410156
0, 5, 102, 291.2369689941406
0, 5, 103, 314.78369140625
0, 5, 104, 303.8939514160156
0, 5, 105, 290.97314453125
0, 5, 106, 281.6598815917969
0, 5, 107, 292.7773132324219
0, 5, 108, 265.3171691894531
0, 5, 109, 156.4158477783203
0, 5, 110, 41.25070953369141
0, 5, 111, 20.74840545654297
0, 5, 112, 17.87054252624512
0, 5, 113, 13.79971885681152
0, 5, 114, 14.16268539428711
0, 5, 115, 7.123252868652344
0, 5, 116, 7.402492046356201
0, 5, 117, 6.795814037322998
0, 5, 118, 15.97161865234375
0, 5, 119, 7.835418224334717
0, 5, 120, 5.354804515838623
0, 5, 121, 6.897436618804932
0, 5, 122, 5.565996646881104
0, 5, 123, 3.6986985206604
0, 5, 124, 6.973849296569824
0, 5, 125, 5.899876594543457
0, 5, 126, 4.672750949859619
0, 5, 127, 4.452437400817871
0, 6, 0, 6.028850555419922
0, 6, 1, 2.590086936950684
0, 6, 2, 4.680158138275146
0, 6, 3, 4.405171394348145
0, 6, 4, 2.968067169189453
0, 6, 5, 6.146110057830811
0, 6, 6, 6.845433235168457
0, 6, 7, 6.95970630645752
0, 6, 8, 7.660525798797607
0, 6, 9, 6.486565113067627
0, 6, 10, 6.496321201324463
0, 6, 11, 8.536693572998047
0, 6, 12, 9.823855400085449
0, 6, 13, 12.3279447555542
0, 6, 14, 8.786046981811523
0, 6, 15, 17.15717697143555
0, 6, 16, 28.05584907531738
0, 6, 17, 55.01161193847656
0, 6, 18, 174.4186553955078
0, 6, 19, 276.8050231933594
0, 6, 20, 290.0092163085938
0, 6, 21, 315.185791015625
0, 6, 22, 318.8700256347656
0, 6, 23, 304.5759887695312
0, 6, 24, 316.4261779785156
0, 6, 25, 317.7955322265625
0, 6, 26, 318.687255859375
0, 6, 27, 331.9808654785156
0, 6, 28, 296.0969848632812
0, 6, 29, 329.9108581542969
0, 6, 30, 282.5257568359375
0, 6, 31, 287.1160583496094
0, 6, 32, 340.7787475585938
0, 6, 33, 299.4979553222656
0, 6, 34, 342.4311828613281
0, 6, 35, 322.218505859375
0, 6, 36, 274.0064697265625
0, 6, 37, 293.7933044433594
0, 6, 38, 311.6045837402344
0, 6, 39, 299.0526123046875
0, 6, 40, 286.9149475097656
0, 6, 41, 293.7446899414062
0, 6, 42, 306.3104553222656
0, 6, 43, 287.9424133300781
0, 6, 44, 280.4412536621094
0, 6, 45, 319.4815368652344
0, 6, 46, 302.3300476074219
0, 6, 47, 336.0106506347656
0, 6, 48, 293.4090881347656
0, 6, 49, 311.1407775878906
0, 6, 50, 328.7662353515625
0, 6, 51, 310.7866821289062
0, 6, 52, 320.5654602050781
0, 6, 53, 330.4435119628906
0, 6, 54, 302.9685668945312
0, 6, 55, 304.7763977050781
0, 6, 56, 294.7526550292969
0, 6, 57, 313.0595092773438
0, 6, 58, 261.2396545410156
0, 6, 59, 299.8326416015625
0, 6, 60, 312.0436096191406
0, 6, 61, 272.5599365234375
0, 6, 62, 337.5820922851562
0, 6, 63, 322.7349548339844
0, 6, 64, 290.6448364257812
0, 6, 65, 283.6404724121094
0, 6, 66, 302.5149230957031
0, 6, 67, 312.4499816894531
0, 6, 68, 293.0839538574219
0, 6, 69, 280.1381530761719
0, 6, 70, 274.7503356933594
0, 6, 71, 288.84521484375
0, 6, 72, 311.6922912597656
0, 6, 73, 291.3233337402344
0, 6, 74, 330.3222961425781
0, 6, 75, 342.8566589355469
0, 6, 76, 296.5455627441406
0, 6, 77, 286.8750610351562
0, 6, 78, 277.8557434082031
0, 6, 79, 293.117431640625
0, 6, 80, 301.3634948730469
0, 6, 81, 316.7061462402344
0, 6, 82, 321.9573669433594
0, 6, 83, 320.6009826660156
0, 6, 84, 295.0249938964844
0, 6, 85, 300.5432739257812
0, 6, 86, 330.9856872558594
0, 6, 87, 288.2804565429688
0, 6, 88, 306.9529724121094
0, 6, 89, 305.3660583496094
0, 6, 90, 301.6454772949219
0, 6, 91, 313.1002197265625
0, 6, 92, 282.7415771484375
0, 6, 93, 296.4969177246094
0, 6, 94, 273.1198120117188
0, 6, 95, 299.2567443847656
0, 6, 96, 345.7337951660156
0, 6, 97, 307.5140075683594
0, 6, 98, 302.2518005371094
0, 6, 99, 271.9039306640625
0, 6, 100, 308.9688720703125
0, 6, 101, 291.9712219238281
0, 6, 102, 309.6547241210938
0, 6, 103, 310.124267578125
0, 6, 104, 293.5273742675781
0, 6, 105, 303.3770446777344
0, 6, 106, 307.0169067382812
0, 6, 107, 304.4981689453125
0, 6, 108, 265.9991455078125
0, 6, 109, 186.6268615722656
0, 6, 110, 55.16644668579102
0, 6, 111, 21.12244415283203
0, 6, 112, 13.9926643371582
0, 6, 113, 10.92308902740479
0, 6, 114, 13.71272563934326
0, 6, 115, 10.91783046722412
0, 6, 116, 12.5991678237915
0, 6, 117, 5.415523529052734
0, 6, 118, 8.559609413146973
0, 6, 119, 10.12129020690918
0, 6, 120, 6.375393867492676
0, 6, 121, 6.503740310668945
0, 6, 122, 8.064601898193359
0, 6, 123, 6.545650482177734
0, 6, 124, 5.853268623352051
0, 6, 125, 6.569815158843994
0, 6, 126, 2.835735321044922
0, 6, 127, 7.084410190582275
0, 7, 0, 5.758576393127441
0, 7, 1, 3.482579946517944
0, 7, 2, 5.993429183959961
0, 7, 3, 5.00010871887207
0, 7, 4, 3.745345115661621
0, 7, 5, 11.0108003616333
0, 7, 6, 5.306992530822754
0, 7, 7, 5.465678691864014
0, 7, 8, 4.856500625610352
0, 7, 9, 7.054187297821045
0, 7, 10, 7.892650127410889
0, 7, 11, 12.21768474578857
0, 7, 12, 10.29116916656494
0, 7, 13, 10.88685703277588
0, 7, 14, 9.653691291809082
0, 7, 15, 17.83748054504395
0, 7, 16, 26.16476058959961
0, 7, 17, 96.23406982421875
0, 7, 18, 218.5043334960938
0, 7, 19, 288.3410949707031
0, 7, 20, 296.6564025878906
0, 7, 21, 277.1576232910156
0, 7, 22, 299.2376098632812
0, 7, 23, 288.8974609375
0, 7, 24, 313.4996032714844
0, 7, 25, 324.5257568359375
0, 7, 26, 277.8450317382812
0, 7, 27, 297.7506713867188
0, 7, 28, 324.8815612792969
0, 7, 29, 321.4854736328125
0, 7, 30, 299.8788452148438
0, 7, 31, 276.0008850097656
0, 7, 32, 304.66455078125
0, 7, 33, 262.8159790039062
0, 7, 34, 299.4473571777344
0, 7, 35, 318.2419128417969
0, 7, 36, 331.2084350585938
0, 7, 37, 323.4023132324219
0, 7, 38, 296.9218444824219
0, 7, 39, 306.2525329589844
0, 7, 40, 290.1862182617188
0, 7, 41, 272.49658203125
0, 7, 42, 300.2742919921875
0, 7, 43, 272.4790649414062
0, 7, 44, 304.3919067382812
0, 7, 45, 295.1535339355469
0, 7, 46, 281.8358459472656
0, 7, 47, 328.8675537109375
0, 7, 48, 284.4387817382812
0, 7, 49, 304.1028747558594
0, 7, 50, 321.3318481445312
0, 7, 51, 299.2221069335938
0, 7, 52, 327.6120300292969
0, 7, 53, 310.4787902832031
0, 7, 54, 322.0533447265625
0, 7, 55, 306.5411376953125
0, 7, 56, 278.4707946777344
0, 7, 57, 283.2527770996094
0, 7, 58, 295.4637756347656
0, 7, 59, 295.637939453125
0, 7, 60, 323.1428527832031
0, 7, 61, 277.4515075683594
0, 7, 62, 298.284912109375
0, 7, 63, 293.0321655273438
0, 7, 64, 309.9628295898438
0, 7, 65, 330.335693359375
0, 7, 66, 317.2370300292969
0, 7, 67, 303.172119140625
0, 7, 68, 280.8940124511719
0, 7, 69, 295.0509033203125
0, 7, 70, 301.2439575195312
0, 7, 71, 308.6033630371094
0, 7, 72, 284.4252014160156
0, 7, 73, 295.822265625
0, 7, 74, 344.6001892089844
0, 7, 75, 319.8800964355469
0, 7, 76, 323.1473083496094
0, 7, 77, 283.7942199707031
0, 7, 78, 301.5924987792969
0, 7, 79, 298.0343933105469
0, 7, 80, 312.5368957519531
0, 7, 81, 318.7191162109375
0, 7, 82, 330.8821411132812
0, 7, 83, 317.1097106933594
0, 7, 84, 309.4708251953125
0, 7, 85, 271.8106079101562
0, 7, 86, 310.7544250488281
0, 7, 87, 311.0987854003906
0, 7, 88, 309.5840454101562
0, 7, 89, 293.6644287109375
0, 7, 90, 306.8918151855469
0, 7, 91, 314.272705078125
0, 7, 92, 286.6074523925781
0, 7, 93, 307.4922485351562
0, 7, 94, 273.3270568847656
0, 7, 95, 296.8009643554688
0, 7, 96, 331.4867248535156
0, 7, 97, 295.0820007324219
0, 7, 98, 292.2414245605469
0, 7, 99, 313.0875854492188
0, 7, 100, 281.4088439941406
0, 7, 101, 274.1985778808594
0, 7, 102, 290.3676452636719
0, 7, 103, 293.1953125
0, 7, 104, 273.87451171875
0, 7, 105, 307.740966796875
0, 7, 106, 317.4386901855469
0, 7, 107, 297.441162109375
0, 7, 108, 273.9066467285156
0, 7, 109, 235.1942291259766
0, 7, 110, 96.33696746826172
0, 7, 111, 24.53446769714355
0, 7, 112, 12.24051761627197
0, 7, 113, 14.15822410583496
0, 7, 114, 12.40641498565674
0, 7, 115, 12.23117733001709
0, 7, 116, 7.690896034240723
0, 7, 117, 4.563385963439941
0, 7, 118, 11.71194458007812
0, 7, 119, 5.080095767974854
0, 7, 120, 4.676024436950684
0, 7, 121, 8.134843826293945
0, 7, 122, 6.67744779586792
0, 7, 123, 4.453474998474121
0, 7, 124, 2.857276439666748
0, 7, 125, 5.730860233306885
0, 7, 126, 7.498786449432373
0, 7, 127, 3.75554633140564
0, 8, 0, 5.259172916412354
0, 8, 1, 3.796824932098389
0, 8, 2, 2.655576467514038
0, 8, 3, 4.67856502532959
0, 8, 4, 5.098236560821533
0, 8, 5, 4.315789222717285
0, 8, 6, 6.24317455291748
0, 8, 7, 5.966245651245117
0, 8, 8, 8.50859546661377
0, 8, 9, 5.945401668548584
0, 8, 10, 7.113089561462402
0, 8, 11, 9.328472137451172
0, 8, 12, 12.64200115203857
0, 8, 13, 16.50058364868164
0, 8, 14, 13.39972496032715
0, 8, 15, 17.76040649414062
0, 8, 16, 32.88282775878906
0, 8, 17, 132.765625
0, 8, 18, 243.5322875976562
0, 8, 19, 293.0261535644531
0, 8, 20, 284.3234252929688
0, 8, 21, 306.3297424316406
0, 8, 22, 295.9781799316406
0, 8, 23, 275.9674377441406
0, 8, 24, 270.1657409667969
0, 8, 25, 277.0064086914062
0, 8, 26, 306.8243713378906
0, 8, 27, 309.2232666015625
0, 8, 28, 304.1008605957031
0, 8, 29, 318.03076171875
0, 8, 30, 317.3520812988281
0, 8, 31, 304.4927673339844
0, 8, 32, 281.6595153808594
0, 8, 33, 295.7137451171875
0, 8, 34, 290.4175415039062
0, 8, 35, 278.8705139160156
0, 8, 36, 315.5233459472656
0, 8, 37, 337.1607666015625
0, 8, 38, 330.5453796386719
0, 8, 39, 281.1793212890625
0, 8, 40, 304.3454895019531
