# TOPAS Version: 3.1.p3
# Parameter File: batch_inserts_262.txt
# Results for scorer Readout_Adipose
# Scored in component: MyBox
# X in 1 bin  of 0.75 cm
# Y in 512 bins of 0.0783984 cm
# Z in 128 bins of 0.078125 cm
# EnergyDeposit ( MeV ) : Sum   
0, 0, 0, 21.4140796661377
0, 0, 1, 21.85120964050293
0, 0, 2, 26.2727165222168
0, 0, 3, 25.20112037658691
0, 0, 4, 19.58763885498047
0, 0, 5, 21.08915328979492
0, 0, 6, 26.69950675964355
0, 0, 7, 31.99548530578613
0, 0, 8, 22.02298927307129
0, 0, 9, 20.16523742675781
0, 0, 10, 23.71174240112305
0, 0, 11, 28.95156478881836
0, 0, 12, 33.74982833862305
0, 0, 13, 32.01587295532227
0, 0, 14, 41.5911979675293
0, 0, 15, 50.88714218139648
0, 0, 16, 43.65944671630859
0, 0, 17, 48.90509033203125
0, 0, 18, 76.97836303710938
0, 0, 19, 198.2071685791016
0, 0, 20, 701.3041381835938
0, 0, 21, 1191.53857421875
0, 0, 22, 1250.322631835938
0, 0, 23, 1275.291137695312
0, 0, 24, 1282.678588867188
0, 0, 25, 1361.37646484375
0, 0, 26, 1266.806762695312
0, 0, 27, 1275.92724609375
0, 0, 28, 1320.85107421875
0, 0, 29, 1267.349365234375
0, 0, 30, 1262.357543945312
0, 0, 31, 1280.85986328125
0, 0, 32, 1263.917602539062
0, 0, 33, 1244.724243164062
0, 0, 34, 1327.54248046875
0, 0, 35, 1302.707641601562
0, 0, 36, 1246.867065429688
0, 0, 37, 1281.8037109375
0, 0, 38, 1247.222290039062
0, 0, 39, 1246.026245117188
0, 0, 40, 1223.912353515625
0, 0, 41, 1269.724853515625
0, 0, 42, 1251.836791992188
0, 0, 43, 1270.754638671875
0, 0, 44, 1224.359741210938
0, 0, 45, 1289.587524414062
0, 0, 46, 1265.77880859375
0, 0, 47, 1240.2109375
0, 0, 48, 1282.861083984375
0, 0, 49, 1290.45166015625
0, 0, 50, 1311.670288085938
0, 0, 51, 1265.714599609375
0, 0, 52, 1359.348999023438
0, 0, 53, 1327.23291015625
0, 0, 54, 1296.74853515625
0, 0, 55, 1231.9609375
0, 0, 56, 1321.67822265625
0, 0, 57, 1292.5380859375
0, 0, 58, 1256.1171875
0, 0, 59, 1333.731689453125
0, 0, 60, 1327.911499023438
0, 0, 61, 1263.03125
0, 0, 62, 1244.948608398438
0, 0, 63, 1278.949951171875
0, 0, 64, 1333.168212890625
0, 0, 65, 1284.35302734375
0, 0, 66, 1319.296997070312
0, 0, 67, 1219.2255859375
0, 0, 68, 1312.59619140625
0, 0, 69, 1328.235107421875
0, 0, 70, 1343.394409179688
0, 0, 71, 1283.298950195312
0, 0, 72, 1308.697387695312
0, 0, 73, 1238.820556640625
0, 0, 74, 1291.347290039062
0, 0, 75, 1296.403076171875
0, 0, 76, 1257.027954101562
0, 0, 77, 1288.224853515625
0, 0, 78, 1318.367553710938
0, 0, 79, 1326.661254882812
0, 0, 80, 1262.36962890625
0, 0, 81, 1322.291381835938
0, 0, 82, 1287.096557617188
0, 0, 83, 1288.798706054688
0, 0, 84, 1332.870239257812
0, 0, 85, 1234.433471679688
0, 0, 86, 1269.12841796875
0, 0, 87, 1252.860229492188
0, 0, 88, 1255.841552734375
0, 0, 89, 1334.7041015625
0, 0, 90, 1278.429321289062
0, 0, 91, 1354
0, 0, 92, 1304.641845703125
0, 0, 93, 1276.831176757812
0, 0, 94, 1238.99462890625
0, 0, 95, 1332.200073242188
0, 0, 96, 1285.823974609375
0, 0, 97, 1327.586059570312
0, 0, 98, 1254.708374023438
0, 0, 99, 1249.3662109375
0, 0, 100, 1288.981689453125
0, 0, 101, 1312.101684570312
0, 0, 102, 1238.316040039062
0, 0, 103, 1322.656982421875
0, 0, 104, 1266.904296875
0, 0, 105, 1265.437866210938
0, 0, 106, 1209.774169921875
0, 0, 107, 782.9308471679688
0, 0, 108, 196.2822418212891
0, 0, 109, 72.40374755859375
0, 0, 110, 63.01206970214844
0, 0, 111, 39.61875915527344
0, 0, 112, 35.42280578613281
0, 0, 113, 32.98134613037109
0, 0, 114, 34.48168563842773
0, 0, 115, 31.28116035461426
0, 0, 116, 30.86809921264648
0, 0, 117, 31.59615707397461
0, 0, 118, 26.05228233337402
0, 0, 119, 27.40099334716797
0, 0, 120, 29.05961227416992
0, 0, 121, 27.33451080322266
0, 0, 122, 21.58500671386719
0, 0, 123, 16.47487640380859
0, 0, 124, 17.58954048156738
0, 0, 125, 22.82848930358887
0, 0, 126, 23.92203712463379
0, 0, 127, 18.47990036010742
0, 1, 0, 25.93951606750488
0, 1, 1, 21.46401023864746
0, 1, 2, 21.61332130432129
0, 1, 3, 20.51969718933105
0, 1, 4, 24.65280532836914
0, 1, 5, 23.1134147644043
0, 1, 6, 23.3906307220459
0, 1, 7, 29.35047912597656
0, 1, 8, 32.57157135009766
0, 1, 9, 30.09184074401855
0, 1, 10, 32.43125152587891
0, 1, 11, 42.12937545776367
0, 1, 12, 38.99759674072266
0, 1, 13, 46.34591293334961
0, 1, 14, 41.96355438232422
0, 1, 15, 51.86184692382812
0, 1, 16, 61.74382019042969
0, 1, 17, 58.64920806884766
0, 1, 18, 94.37890625
0, 1, 19, 394.415771484375
0, 1, 20, 1039.834716796875
0, 1, 21, 1371.514282226562
0, 1, 22, 1476.58740234375
0, 1, 23, 1463.273315429688
0, 1, 24, 1452.055297851562
0, 1, 25, 1418.229370117188
0, 1, 26, 1474.974365234375
0, 1, 27, 1464.806640625
0, 1, 28, 1487.694458007812
0, 1, 29, 1475.083129882812
0, 1, 30, 1508.356079101562
0, 1, 31, 1480.3564453125
0, 1, 32, 1410.244506835938
0, 1, 33, 1499.856323242188
0, 1, 34, 1495.720703125
0, 1, 35, 1459.852905273438
0, 1, 36, 1495.620971679688
0, 1, 37, 1413.552856445312
0, 1, 38, 1395.468627929688
0, 1, 39, 1527.492797851562
0, 1, 40, 1460.181884765625
0, 1, 41, 1486.065551757812
0, 1, 42, 1493.555786132812
0, 1, 43, 1502.33837890625
0, 1, 44, 1448.571411132812
0, 1, 45, 1488.5771484375
0, 1, 46, 1421.837158203125
0, 1, 47, 1433.932739257812
0, 1, 48, 1427.469970703125
0, 1, 49, 1489.36865234375
0, 1, 50, 1444.021606445312
0, 1, 51, 1471.372680664062
0, 1, 52, 1475.489013671875
0, 1, 53, 1473.380493164062
0, 1, 54, 1509.644287109375
0, 1, 55, 1497.189575195312
0, 1, 56, 1469.874267578125
0, 1, 57, 1458.807739257812
0, 1, 58, 1427.565063476562
0, 1, 59, 1486.3037109375
0, 1, 60, 1468.366577148438
0, 1, 61, 1451.235107421875
0, 1, 62, 1449.788208007812
0, 1, 63, 1411.426513671875
0, 1, 64, 1475.781494140625
0, 1, 65, 1420.092651367188
0, 1, 66, 1437.130981445312
0, 1, 67, 1457.145874023438
0, 1, 68, 1385.598388671875
0, 1, 69, 1465.118530273438
0, 1, 70, 1430.025756835938
0, 1, 71, 1499.403686523438
0, 1, 72, 1434.127319335938
0, 1, 73, 1492.21142578125
0, 1, 74, 1465.964111328125
0, 1, 75, 1481.143432617188
0, 1, 76, 1457.931884765625
0, 1, 77, 1463.643920898438
0, 1, 78, 1453.469604492188
0, 1, 79, 1505.567749023438
0, 1, 80, 1448.459106445312
0, 1, 81, 1423.220581054688
0, 1, 82, 1474.866333007812
0, 1, 83, 1461.728393554688
0, 1, 84, 1534.332275390625
0, 1, 85, 1448.772094726562
0, 1, 86, 1408.012939453125
0, 1, 87, 1420.33984375
0, 1, 88, 1472.080322265625
0, 1, 89, 1479.146728515625
0, 1, 90, 1422.615600585938
0, 1, 91, 1467.002197265625
0, 1, 92, 1408.771850585938
0, 1, 93, 1464.411254882812
0, 1, 94, 1472.142700195312
0, 1, 95, 1421.086059570312
0, 1, 96, 1495.916137695312
0, 1, 97, 1514.994873046875
0, 1, 98, 1476.510620117188
0, 1, 99, 1422.861083984375
0, 1, 100, 1447.813842773438
0, 1, 101, 1416.033569335938
0, 1, 102, 1441.48046875
0, 1, 103, 1416.359008789062
0, 1, 104, 1407.450805664062
0, 1, 105, 1463.2919921875
0, 1, 106, 1360.363159179688
0, 1, 107, 1020.236083984375
0, 1, 108, 402.6249389648438
0, 1, 109, 90.35056304931641
0, 1, 110, 57.44926071166992
0, 1, 111, 59.75209045410156
0, 1, 112, 47.19622039794922
0, 1, 113, 39.67416381835938
0, 1, 114, 39.99837112426758
0, 1, 115, 40.94955825805664
0, 1, 116, 40.25107192993164
0, 1, 117, 33.3104133605957
0, 1, 118, 37.10635375976562
0, 1, 119, 31.03702926635742
0, 1, 120, 29.38619232177734
0, 1, 121, 23.59056854248047
0, 1, 122, 23.97155570983887
0, 1, 123, 21.30905532836914
0, 1, 124, 34.21745300292969
0, 1, 125, 20.46865272521973
0, 1, 126, 19.9340934753418
0, 1, 127, 24.72914695739746
0, 2, 0, 20.87231636047363
0, 2, 1, 23.47986602783203
0, 2, 2, 30.30338478088379
0, 2, 3, 26.13862037658691
0, 2, 4, 23.99161529541016
0, 2, 5, 24.05068969726562
0, 2, 6, 22.23400688171387
0, 2, 7, 19.46642303466797
0, 2, 8, 28.43905067443848
0, 2, 9, 31.14663505554199
0, 2, 10, 29.23761177062988
0, 2, 11, 32.68283081054688
0, 2, 12, 40.53522109985352
0, 2, 13, 45.8714485168457
0, 2, 14, 46.19475173950195
0, 2, 15, 47.21960067749023
0, 2, 16, 60.60785675048828
0, 2, 17, 77.75876617431641
0, 2, 18, 146.1647033691406
0, 2, 19, 607.041015625
0, 2, 20, 1282.465942382812
0, 2, 21, 1437.071166992188
0, 2, 22, 1457.251220703125
0, 2, 23, 1403.239868164062
0, 2, 24, 1440.688110351562
0, 2, 25, 1521.88525390625
0, 2, 26, 1554.937744140625
0, 2, 27, 1455.950805664062
0, 2, 28, 1464.134887695312
0, 2, 29, 1461.01416015625
0, 2, 30, 1464.403930664062
0, 2, 31, 1537.751342773438
0, 2, 32, 1505.764526367188
0, 2, 33, 1446.726196289062
0, 2, 34, 1473.98828125
0, 2, 35, 1468.98388671875
0, 2, 36, 1529.736328125
0, 2, 37, 1538.608520507812
0, 2, 38, 1505.207763671875
0, 2, 39, 1463.60302734375
0, 2, 40, 1504.617065429688
0, 2, 41, 1516.37939453125
0, 2, 42, 1502.990966796875
0, 2, 43, 1550.59423828125
0, 2, 44, 1460.088989257812
0, 2, 45, 1480.827880859375
0, 2, 46, 1427.774536132812
0, 2, 47, 1443.523193359375
0, 2, 48, 1396.3671875
0, 2, 49, 1459.730224609375
0, 2, 50, 1441.651611328125
0, 2, 51, 1448.236206054688
0, 2, 52, 1494.059326171875
0, 2, 53, 1524.233520507812
0, 2, 54, 1527.510620117188
0, 2, 55, 1490.396240234375
0, 2, 56, 1464.2216796875
0, 2, 57, 1411.422729492188
0, 2, 58, 1451.910522460938
0, 2, 59, 1447.618286132812
0, 2, 60, 1470.497192382812
0, 2, 61, 1451.502563476562
0, 2, 62, 1474.0556640625
0, 2, 63, 1504.39453125
0, 2, 64, 1461.8642578125
0, 2, 65, 1425.127563476562
0, 2, 66, 1490.481689453125
0, 2, 67, 1502.533935546875
0, 2, 68, 1540.621948242188
0, 2, 69, 1543.555908203125
0, 2, 70, 1509.404052734375
0, 2, 71, 1461.406005859375
0, 2, 72, 1520.58544921875
0, 2, 73, 1520.003784179688
0, 2, 74, 1496.631591796875
0, 2, 75, 1501.13330078125
0, 2, 76, 1447.170043945312
0, 2, 77, 1502.86279296875
0, 2, 78, 1424.830932617188
0, 2, 79, 1538.248779296875
0, 2, 80, 1485.620727539062
0, 2, 81, 1466.6953125
0, 2, 82, 1557.2763671875
0, 2, 83, 1516.712158203125
0, 2, 84, 1497.051513671875
0, 2, 85, 1518.199829101562
0, 2, 86, 1540.544067382812
0, 2, 87, 1488.776489257812
0, 2, 88, 1540.075439453125
0, 2, 89, 1463.458374023438
0, 2, 90, 1431.436889648438
0, 2, 91, 1404.488525390625
0, 2, 92, 1476.282470703125
0, 2, 93, 1493.13037109375
0, 2, 94, 1451.055541992188
0, 2, 95, 1542.83544921875
0, 2, 96, 1514.654418945312
0, 2, 97, 1454.543334960938
0, 2, 98, 1465.423950195312
0, 2, 99, 1408.582885742188
0, 2, 100, 1471.207763671875
0, 2, 101, 1481.443725585938
0, 2, 102, 1465.390747070312
0, 2, 103, 1390.2080078125
0, 2, 104, 1407.990112304688
0, 2, 105, 1395.190551757812
0, 2, 106, 1460.138671875
0, 2, 107, 1277.27734375
0, 2, 108, 625.7565307617188
0, 2, 109, 169.8956909179688
0, 2, 110, 72.45170593261719
0, 2, 111, 61.8449592590332
0, 2, 112, 47.69427871704102
0, 2, 113, 48.58457946777344
0, 2, 114, 37.00289535522461
0, 2, 115, 42.7512321472168
0, 2, 116, 35.50191497802734
0, 2, 117, 36.68062591552734
0, 2, 118, 24.46321487426758
0, 2, 119, 32.41257476806641
0, 2, 120, 34.95925140380859
0, 2, 121, 18.34383392333984
0, 2, 122, 26.54667282104492
0, 2, 123, 23.7192268371582
0, 2, 124, 28.55060386657715
0, 2, 125, 33.41773986816406
0, 2, 126, 19.65627288818359
0, 2, 127, 22.92716217041016
0, 3, 0, 19.77907180786133
0, 3, 1, 23.17494201660156
0, 3, 2, 19.16281318664551
0, 3, 3, 24.61801719665527
0, 3, 4, 19.57696914672852
0, 3, 5, 24.85788345336914
0, 3, 6, 32.99291610717773
0, 3, 7, 27.51822662353516
0, 3, 8, 27.58117485046387
0, 3, 9, 30.17275428771973
0, 3, 10, 35.30759811401367
0, 3, 11, 31.35739707946777
0, 3, 12, 43.00429153442383
0, 3, 13, 51.80685806274414
0, 3, 14, 57.45910263061523
0, 3, 15, 61.75244522094727
0, 3, 16, 67.61878967285156
0, 3, 17, 98.16998291015625
0, 3, 18, 239.0974273681641
0, 3, 19, 881.7147827148438
0, 3, 20, 1387.4208984375
0, 3, 21, 1505.815673828125
0, 3, 22, 1459.099487304688
0, 3, 23, 1454.8623046875
0, 3, 24, 1439.668334960938
0, 3, 25, 1460.314453125
0, 3, 26, 1494.162963867188
0, 3, 27, 1464.8837890625
0, 3, 28, 1492.954833984375
0, 3, 29, 1545.182006835938
0, 3, 30, 1572.847045898438
0, 3, 31, 1512.908447265625
0, 3, 32, 1545.145141601562
0, 3, 33, 1539.782836914062
0, 3, 34, 1490.7919921875
0, 3, 35, 1464.864624023438
0, 3, 36, 1451.126098632812
0, 3, 37, 1513.362548828125
0, 3, 38, 1513.285278320312
0, 3, 39, 1436.465209960938
0, 3, 40, 1441.972778320312
0, 3, 41, 1559.531005859375
0, 3, 42, 1459.545166015625
0, 3, 43, 1454.2548828125
0, 3, 44, 1450.890258789062
0, 3, 45, 1503.4541015625
0, 3, 46, 1510.061401367188
0, 3, 47, 1440.2900390625
0, 3, 48, 1511.738525390625
0, 3, 49, 1455.311889648438
0, 3, 50, 1486.848266601562
0, 3, 51, 1540.94384765625
0, 3, 52, 1538.8583984375
0, 3, 53, 1466.14453125
0, 3, 54, 1536.401611328125
0, 3, 55, 1503.833862304688
0, 3, 56, 1440.34814453125
0, 3, 57, 1503.3623046875
0, 3, 58, 1516.31298828125
0, 3, 59, 1508.75
0, 3, 60, 1533.87939453125
0, 3, 61, 1482.194946289062
0, 3, 62, 1495.06787109375
0, 3, 63, 1493.86767578125
0, 3, 64, 1501.877319335938
0, 3, 65, 1513.3740234375
0, 3, 66, 1552.668212890625
0, 3, 67, 1546.087768554688
0, 3, 68, 1450.595947265625
0, 3, 69, 1465.917724609375
0, 3, 70, 1388.169555664062
0, 3, 71, 1464.947875976562
0, 3, 72, 1548.057006835938
0, 3, 73, 1497.62841796875
0, 3, 74, 1466.369262695312
0, 3, 75, 1462.0947265625
0, 3, 76, 1575.1142578125
0, 3, 77, 1544.528930664062
0, 3, 78, 1427.600463867188
0, 3, 79, 1498.698608398438
0, 3, 80, 1463.569580078125
0, 3, 81, 1472.026977539062
0, 3, 82, 1553.077270507812
0, 3, 83, 1509.6015625
0, 3, 84, 1561.8037109375
0, 3, 85, 1471.749877929688
0, 3, 86, 1529.990112304688
0, 3, 87, 1535.969848632812
0, 3, 88, 1459.878540039062
0, 3, 89, 1445.262939453125
0, 3, 90, 1453.271606445312
0, 3, 91, 1417.155517578125
0, 3, 92, 1512.541137695312
0, 3, 93, 1500.855712890625
0, 3, 94, 1516.28466796875
0, 3, 95, 1544.371459960938
0, 3, 96, 1514.158569335938
0, 3, 97, 1463.6591796875
0, 3, 98, 1431.146728515625
0, 3, 99, 1465.626586914062
0, 3, 100, 1472.267578125
0, 3, 101, 1477.49365234375
0, 3, 102, 1524.352294921875
0, 3, 103, 1553.17138671875
0, 3, 104, 1503.61669921875
0, 3, 105, 1513.680297851562
0, 3, 106, 1478.891967773438
0, 3, 107, 1340.9716796875
0, 3, 108, 876.3645629882812
0, 3, 109, 261.5847778320312
0, 3, 110, 102.3517837524414
0, 3, 111, 61.35377502441406
0, 3, 112, 56.16208648681641
0, 3, 113, 49.00709533691406
0, 3, 114, 48.47679901123047
0, 3, 115, 51.92367553710938
0, 3, 116, 34.76734161376953
0, 3, 117, 40.37045669555664
0, 3, 118, 34.86829376220703
0, 3, 119, 27.42013168334961
0, 3, 120, 29.603759765625
0, 3, 121, 20.69922828674316
0, 3, 122, 22.08937835693359
0, 3, 123, 24.05073738098145
0, 3, 124, 17.55195617675781
0, 3, 125, 26.54152297973633
0, 3, 126, 24.51989364624023
0, 3, 127, 13.65344333648682
0, 4, 0, 21.12969970703125
0, 4, 1, 25.35771179199219
0, 4, 2, 16.28093338012695
0, 4, 3, 23.70041275024414
0, 4, 4, 24.47299766540527
0, 4, 5, 26.34638023376465
0, 4, 6, 34.01290130615234
0, 4, 7, 35.54973983764648
0, 4, 8, 26.97534561157227
0, 4, 9, 34.29913330078125
0, 4, 10, 33.89785003662109
0, 4, 11, 39.93457794189453
0, 4, 12, 44.30686569213867
0, 4, 13, 58.59431076049805
0, 4, 14, 52.5470085144043
0, 4, 15, 64.37564849853516
0, 4, 16, 75.57540893554688
0, 4, 17, 115.2984237670898
0, 4, 18, 444.5313720703125
0, 4, 19, 1178.968017578125
0, 4, 20, 1442.766479492188
0, 4, 21, 1421.861450195312
0, 4, 22, 1433.288208007812
0, 4, 23, 1453.045532226562
0, 4, 24, 1474.4609375
0, 4, 25, 1408.484252929688
0, 4, 26, 1540.000366210938
0, 4, 27, 1547.09130859375
0, 4, 28, 1511.557983398438
0, 4, 29, 1513.899780273438
0, 4, 30, 1527.57177734375
0, 4, 31, 1573.457641601562
0, 4, 32, 1515.736083984375
0, 4, 33, 1496.901123046875
0, 4, 34, 1469.035278320312
0, 4, 35, 1563.819213867188
0, 4, 36, 1501.743774414062
0, 4, 37, 1508.02294921875
0, 4, 38, 1535.59912109375
0, 4, 39, 1472.216064453125
0, 4, 40, 1511.900634765625
0, 4, 41, 1586.728759765625
0, 4, 42, 1563.895141601562
0, 4, 43, 1470.22021484375
0, 4, 44, 1499.259033203125
0, 4, 45, 1518.18408203125
0, 4, 46, 1471.421508789062
0, 4, 47, 1503.325073242188
0, 4, 48, 1524.4580078125
0, 4, 49, 1470.685546875
0, 4, 50, 1521.9560546875
0, 4, 51, 1499.344360351562
0, 4, 52, 1494.330322265625
0, 4, 53, 1453.099853515625
0, 4, 54, 1439.2861328125
0, 4, 55, 1521.040161132812
0, 4, 56, 1451.592529296875
0, 4, 57, 1499.159545898438
0, 4, 58, 1467.000732421875
0, 4, 59, 1465.141479492188
0, 4, 60, 1524.0498046875
0, 4, 61, 1500.291015625
0, 4, 62, 1502.808227539062
0, 4, 63, 1542.452514648438
0, 4, 64, 1593.905639648438
0, 4, 65, 1424.072387695312
0, 4, 66, 1516.942504882812
0, 4, 67, 1517.4560546875
0, 4, 68, 1500.557495117188
0, 4, 69, 1466.7177734375
0, 4, 70, 1540.781005859375
0, 4, 71, 1525.685913085938
0, 4, 72, 1527.271850585938
0, 4, 73, 1494.596923828125
0, 4, 74, 1488.800537109375
0, 4, 75, 1533.6806640625
0, 4, 76, 1482.86328125
0, 4, 77, 1498.556030273438
0, 4, 78, 1499.806030273438
0, 4, 79, 1484.755859375
0, 4, 80, 1513.68798828125
0, 4, 81, 1526.276489257812
0, 4, 82, 1564.260986328125
0, 4, 83, 1501.238159179688
0, 4, 84, 1540.179321289062
0, 4, 85, 1550.8623046875
0, 4, 86, 1526.189208984375
0, 4, 87, 1491.160522460938
0, 4, 88, 1511.092651367188
0, 4, 89, 1481.017456054688
0, 4, 90, 1547.049072265625
0, 4, 91, 1555.854370117188
0, 4, 92, 1493.356689453125
0, 4, 93, 1517.8212890625
0, 4, 94, 1482.22314453125
0, 4, 95, 1511.025390625
0, 4, 96, 1440.4814453125
0, 4, 97, 1414.755249023438
0, 4, 98, 1552.788208007812
0, 4, 99, 1512.366943359375
0, 4, 100, 1482.18017578125
0, 4, 101, 1450.779296875
0, 4, 102, 1446.78662109375
0, 4, 103, 1515.415771484375
0, 4, 104, 1512.836181640625
0, 4, 105, 1551.288696289062
0, 4, 106, 1474.582397460938
0, 4, 107, 1452.02587890625
0, 4, 108, 1119.5517578125
0, 4, 109, 437.9796752929688
0, 4, 110, 99.07954406738281
0, 4, 111, 69.19621276855469
0, 4, 112, 59.0773811340332
0, 4, 113, 52.87596130371094
0, 4, 114, 52.69678115844727
0, 4, 115, 40.51301193237305
0, 4, 116, 37.72428131103516
0, 4, 117, 39.71970748901367
0, 4, 118, 40.58079147338867
0, 4, 119, 43.0369873046875
0, 4, 120, 32.31583023071289
0, 4, 121, 28.27187538146973
0, 4, 122, 30.8636302947998
0, 4, 123, 31.40190124511719
0, 4, 124, 23.78596305847168
0, 4, 125, 34.40168762207031
0, 4, 126, 25.1903247833252
0, 4, 127, 17.59073066711426
0, 5, 0, 20.54134941101074
0, 5, 1, 25.3184986114502
0, 5, 2, 29.82111358642578
0, 5, 3, 22.05502128601074
0, 5, 4, 20.09247970581055
0, 5, 5, 30.62529182434082
0, 5, 6, 34.37512588500977
0, 5, 7, 29.54319190979004
0, 5, 8, 31.73273277282715
0, 5, 9, 29.32456970214844
0, 5, 10, 34.22005081176758
0, 5, 11, 39.79928207397461
0, 5, 12, 41.05624771118164
0, 5, 13, 43.48581314086914
0, 5, 14, 63.20587921142578
0, 5, 15, 76.48322296142578
0, 5, 16, 77.70587921142578
0, 5, 17, 156.8268890380859
0, 5, 18, 672.3176879882812
0, 5, 19, 1346.07861328125
0, 5, 20, 1526.344848632812
0, 5, 21, 1493.729248046875
0, 5, 22, 1494.516845703125
0, 5, 23, 1528.343627929688
0, 5, 24, 1463.905395507812
0, 5, 25, 1428.722900390625
0, 5, 26, 1532.428344726562
0, 5, 27, 1542.013305664062
0, 5, 28, 1488.736694335938
0, 5, 29, 1520.642578125
0, 5, 30, 1494.072143554688
0, 5, 31, 1498.295288085938
0, 5, 32, 1591.46826171875
0, 5, 33, 1503.273559570312
0, 5, 34, 1487.840576171875
0, 5, 35, 1511.215087890625
0, 5, 36, 1440.528686523438
0, 5, 37, 1528.264038085938
0, 5, 38, 1547.286987304688
0, 5, 39, 1546.779418945312
0, 5, 40, 1499.39892578125
0, 5, 41, 1480.08935546875
0, 5, 42, 1540.14013671875
0, 5, 43, 1537.521118164062
0, 5, 44, 1545.725463867188
0, 5, 45, 1511.776733398438
0, 5, 46, 1486.891967773438
0, 5, 47, 1483.172119140625
0, 5, 48, 1497.704711914062
0, 5, 49, 1521.45556640625
0, 5, 50, 1504.787109375
0, 5, 51, 1518.655029296875
0, 5, 52, 1431.0009765625
0, 5, 53, 1522.889038085938
0, 5, 54, 1520.040893554688
0, 5, 55, 1524.493286132812
0, 5, 56, 1484.1162109375
0, 5, 57, 1538.325073242188
0, 5, 58, 1509.902954101562
0, 5, 59, 1488.703125
0, 5, 60, 1540.677978515625
0, 5, 61, 1452.249755859375
0, 5, 62, 1586.275390625
0, 5, 63, 1435.242919921875
0, 5, 64, 1490.346801757812
0, 5, 65, 1469.1845703125
0, 5, 66, 1526.298583984375
0, 5, 67, 1561.857543945312
0, 5, 68, 1460.847534179688
0, 5, 69, 1476.610229492188
0, 5, 70, 1488.626342773438
0, 5, 71, 1473.006225585938
0, 5, 72, 1538.049682617188
0, 5, 73, 1459.52685546875
0, 5, 74, 1490.421508789062
0, 5, 75, 1484.715087890625
0, 5, 76, 1477.972412109375
0, 5, 77, 1520.064819335938
0, 5, 78, 1525.041748046875
0, 5, 79, 1506.884643554688
0, 5, 80, 1520.820434570312
0, 5, 81, 1596.952514648438
0, 5, 82, 1525.172485351562
0, 5, 83, 1488.882690429688
0, 5, 84, 1534.290161132812
0, 5, 85, 1514.835327148438
0, 5, 86, 1552.648803710938
0, 5, 87, 1467.791137695312
0, 5, 88, 1498.605346679688
0, 5, 89, 1486.6640625
0, 5, 90, 1482.928955078125
0, 5, 91, 1554.390991210938
0, 5, 92, 1480.539428710938
0, 5, 93, 1559.63427734375
0, 5, 94, 1512.2861328125
0, 5, 95, 1566.068481445312
0, 5, 96, 1497.942260742188
0, 5, 97, 1512.2734375
0, 5, 98, 1509.3720703125
0, 5, 99, 1541.552978515625
0, 5, 100, 1432.625610351562
0, 5, 101, 1428.5986328125
0, 5, 102, 1515.93505859375
0, 5, 103, 1473.1298828125
0, 5, 104, 1456.229370117188
0, 5, 105, 1494.415161132812
0, 5, 106, 1457.852294921875
0, 5, 107, 1402.596557617188
0, 5, 108, 1287.864013671875
0, 5, 109, 719.0628662109375
0, 5, 110, 197.3419494628906
0, 5, 111, 90.59105682373047
0, 5, 112, 82.07822418212891
0, 5, 113, 65.93214416503906
0, 5, 114, 56.96365737915039
0, 5, 115, 52.50269317626953
0, 5, 116, 44.63017654418945
0, 5, 117, 35.33540725708008
0, 5, 118, 36.06198501586914
0, 5, 119, 24.40283393859863
0, 5, 120, 29.3915958404541
0, 5, 121, 23.27594757080078
0, 5, 122, 29.41571426391602
0, 5, 123, 25.73458480834961
0, 5, 124, 23.77682495117188
0, 5, 125, 27.02307319641113
0, 5, 126, 20.25079345703125
0, 5, 127, 24.91003799438477
0, 6, 0, 23.69758605957031
0, 6, 1, 28.56062126159668
0, 6, 2, 30.1117992401123
0, 6, 3, 29.36433410644531
0, 6, 4, 23.50673675537109
0, 6, 5, 33.43022537231445
0, 6, 6, 32.87285614013672
0, 6, 7, 31.69919204711914
0, 6, 8, 31.49636650085449
0, 6, 9, 32.76673126220703
0, 6, 10, 34.14934158325195
0, 6, 11, 36.81359100341797
0, 6, 12, 41.67544555664062
0, 6, 13, 59.12085342407227
0, 6, 14, 61.88092041015625
0, 6, 15, 84.19287109375
0, 6, 16, 113.1225280761719
0, 6, 17, 296.4288635253906
0, 6, 18, 901.1857299804688
0, 6, 19, 1375.859130859375
0, 6, 20, 1437.172241210938
0, 6, 21, 1535.767456054688
0, 6, 22, 1503.351928710938
0, 6, 23, 1531.266479492188
0, 6, 24, 1475.805786132812
0, 6, 25, 1530.100952148438
0, 6, 26, 1516.2119140625
0, 6, 27, 1517.110107421875
0, 6, 28, 1561.251953125
0, 6, 29, 1573.731567382812
0, 6, 30, 1513.438598632812
0, 6, 31, 1492.52392578125
0, 6, 32, 1529.789794921875
0, 6, 33, 1491.87646484375
0, 6, 34, 1560.413208007812
0, 6, 35, 1501.525146484375
0, 6, 36, 1440.472290039062
0, 6, 37, 1545.094482421875
0, 6, 38, 1522.717529296875
0, 6, 39, 1529.51708984375
0, 6, 40, 1456.910522460938
0, 6, 41, 1442.078979492188
0, 6, 42, 1517.048828125
0, 6, 43, 1490.957153320312
0, 6, 44, 1432.161499023438
0, 6, 45, 1541.831298828125
0, 6, 46, 1556.003173828125
0, 6, 47, 1492.559936523438
0, 6, 48, 1525.539672851562
0, 6, 49, 1509.092529296875
0, 6, 50, 1580.480346679688
0, 6, 51, 1501.21533203125
0, 6, 52, 1564.599243164062
0, 6, 53, 1473.456665039062
0, 6, 54, 1498.964233398438
0, 6, 55, 1573.145385742188
0, 6, 56, 1522.38720703125
0, 6, 57, 1502.300537109375
0, 6, 58, 1471.4208984375
0, 6, 59, 1520.678344726562
0, 6, 60, 1468.075805664062
0, 6, 61, 1573.293334960938
0, 6, 62, 1544.9130859375
0, 6, 63, 1496.168212890625
0, 6, 64, 1413.302856445312
0, 6, 65, 1490.0263671875
0, 6, 66, 1514.923583984375
0, 6, 67, 1506.641845703125
0, 6, 68, 1544.975341796875
0, 6, 69, 1489.73681640625
0, 6, 70, 1527.467041015625
0, 6, 71, 1467.768798828125
0, 6, 72, 1593.387939453125
0, 6, 73, 1492.383544921875
0, 6, 74, 1562.384521484375
0, 6, 75, 1538.41552734375
0, 6, 76, 1569.077270507812
0, 6, 77, 1503.520874023438
0, 6, 78, 1446.127563476562
0, 6, 79, 1558.397583007812
0, 6, 80, 1482.208740234375
0, 6, 81, 1482.30810546875
0, 6, 82, 1505.837890625
0, 6, 83, 1528.383178710938
0, 6, 84, 1525.562255859375
0, 6, 85, 1536.220703125
0, 6, 86, 1543.892578125
0, 6, 87, 1569.100341796875
0, 6, 88, 1483.62744140625
0, 6, 89, 1564.969604492188
0, 6, 90, 1497.857299804688
0, 6, 91, 1540.744506835938
0, 6, 92, 1485.51123046875
0, 6, 93, 1498.025024414062
0, 6, 94, 1471.908813476562
0, 6, 95, 1510.901000976562
0, 6, 96, 1518.382934570312
0, 6, 97, 1502.5146484375
0, 6, 98, 1494.794799804688
0, 6, 99, 1484.09716796875
0, 6, 100, 1524.398193359375
0, 6, 101, 1512.915771484375
0, 6, 102, 1537.568237304688
0, 6, 103, 1500.105224609375
0, 6, 104, 1460.593994140625
0, 6, 105, 1488.812133789062
0, 6, 106, 1499.650024414062
0, 6, 107, 1501.705688476562
0, 6, 108, 1409.38427734375
0, 6, 109, 921.6563720703125
0, 6, 110, 288.3532104492188
0, 6, 111, 97.90370178222656
0, 6, 112, 74.25187683105469
0, 6, 113, 54.58792495727539
0, 6, 114, 55.34556579589844
0, 6, 115, 42.96237182617188
0, 6, 116, 43.8363037109375
0, 6, 117, 40.60174560546875
0, 6, 118, 44.71711349487305
0, 6, 119, 34.36874008178711
0, 6, 120, 34.88652801513672
0, 6, 121, 28.8442497253418
0, 6, 122, 31.3861026763916
0, 6, 123, 25.97967720031738
0, 6, 124, 34.97814559936523
0, 6, 125, 34.32926559448242
0, 6, 126, 19.94406318664551
0, 6, 127, 23.34762382507324
0, 7, 0, 22.56464385986328
0, 7, 1, 26.18304634094238
0, 7, 2, 21.76224327087402
0, 7, 3, 24.51056098937988
0, 7, 4, 25.29475593566895
0, 7, 5, 34.60166168212891
0, 7, 6, 36.42387008666992
0, 7, 7, 34.18773651123047
0, 7, 8, 32.06882476806641
0, 7, 9, 32.07682800292969
0, 7, 10, 45.34098815917969
0, 7, 11, 43.78546142578125
0, 7, 12, 47.33352661132812
0, 7, 13, 54.96593475341797
0, 7, 14, 63.44091796875
0, 7, 15, 78.621826171875
0, 7, 16, 132.4273986816406
0, 7, 17, 461.8166198730469
0, 7, 18, 1099.336669921875
0, 7, 19, 1500.003295898438
0, 7, 20, 1485.922241210938
0, 7, 21, 1367.1845703125
0, 7, 22, 1490.802612304688
0, 7, 23, 1455.2333984375
0, 7, 24, 1508.986450195312
0, 7, 25, 1600.315063476562
0, 7, 26, 1516.894287109375
0, 7, 27, 1510.455200195312
0, 7, 28, 1549.559936523438
0, 7, 29, 1581.686401367188
0, 7, 30, 1552.40771484375
0, 7, 31, 1440.01806640625
0, 7, 32, 1541.622802734375
0, 7, 33, 1494.415161132812
0, 7, 34, 1477.978515625
0, 7, 35, 1523.595336914062
0, 7, 36, 1472.03466796875
0, 7, 37, 1602.1005859375
0, 7, 38, 1507.488037109375
0, 7, 39, 1490.04736328125
0, 7, 40, 1548.043823242188
0, 7, 41, 1469.5869140625
0, 7, 42, 1489.687744140625
0, 7, 43, 1440.659790039062
0, 7, 44, 1490.60546875
0, 7, 45, 1469.565307617188
0, 7, 46, 1510.391479492188
0, 7, 47, 1565.817749023438
0, 7, 48, 1523.209350585938
0, 7, 49, 1536.538330078125
0, 7, 50, 1512.07421875
0, 7, 51, 1496.462890625
0, 7, 52, 1520.159912109375
0, 7, 53, 1492.554565429688
0, 7, 54, 1586.908935546875
0, 7, 55, 1467.958618164062
0, 7, 56, 1551.218872070312
0, 7, 57, 1514.695922851562
0, 7, 58, 1549.928955078125
0, 7, 59, 1541.767211914062
0, 7, 60, 1552.794799804688
0, 7, 61, 1491.241333007812
0, 7, 62, 1436.9482421875
0, 7, 63, 1513.58056640625
0, 7, 64, 1550.794189453125
0, 7, 65, 1528.684692382812
0, 7, 66, 1535.248901367188
0, 7, 67, 1575.910766601562
0, 7, 68, 1531.475830078125
0, 7, 69, 1516.385986328125
0, 7, 70, 1497.037231445312
0, 7, 71, 1521.948974609375
0, 7, 72, 1528.208862304688
0, 7, 73, 1519.910278320312
0, 7, 74, 1578.176147460938
0, 7, 75, 1532.87890625
0, 7, 76, 1556.355346679688
0, 7, 77, 1514.798706054688
0, 7, 78, 1513.818481445312
0, 7, 79, 1421.505493164062
0, 7, 80, 1486.3017578125
0, 7, 81, 1493.382202148438
0, 7, 82, 1531.399536132812
0, 7, 83, 1546.334594726562
0, 7, 84, 1586.496337890625
0, 7, 85, 1478.77392578125
0, 7, 86, 1504.993286132812
0, 7, 87, 1505.611328125
0, 7, 88, 1505.270629882812
0, 7, 89, 1555.388916015625
0, 7, 90, 1522.598388671875
0, 7, 91, 1563.818603515625
0, 7, 92, 1528.997802734375
0, 7, 93, 1549.286499023438
0, 7, 94, 1533.782836914062
0, 7, 95, 1510.741821289062
0, 7, 96, 1506.438110351562
0, 7, 97, 1436.904541015625
0, 7, 98, 1484.6708984375
0, 7, 99, 1525.498901367188
0, 7, 100, 1417.832275390625
0, 7, 101, 1464.106201171875
0, 7, 102, 1446.37353515625
0, 7, 103, 1429.642700195312
0, 7, 104, 1493.87353515625
0, 7, 105, 1518.8662109375
0, 7, 106, 1567.14599609375
0, 7, 107, 1484.528564453125
0, 7, 108, 1411.929565429688
0, 7, 109, 1146.686157226562
0, 7, 110, 475.3819274902344
0, 7, 111, 123.0855941772461
0, 7, 112, 81.35993957519531
0, 7, 113, 67.52248382568359
0, 7, 114, 57.5654296875
0, 7, 115, 51.63310241699219
0, 7, 116, 47.62965393066406
0, 7, 117, 48.02856063842773
0, 7, 118, 39.75957870483398
0, 7, 119, 37.05672836303711
0, 7, 120, 25.23850440979004
0, 7, 121, 28.31299018859863
0, 7, 122, 31.62191963195801
0, 7, 123, 37.2138671875
0, 7, 124, 32.13008117675781
0, 7, 125, 23.89861679077148
0, 7, 126, 26.34881591796875
0, 7, 127, 23.49625778198242
0, 8, 0, 17.18320465087891
0, 8, 1, 22.22437477111816
0, 8, 2, 28.2890453338623
0, 8, 3, 25.56086921691895
0, 8, 4, 22.34177207946777
0, 8, 5, 33.34207916259766
0, 8, 6, 31.13149452209473
0, 8, 7, 32.23545837402344
0, 8, 8, 37.87959671020508
0, 8, 9, 45.57023620605469
0, 8, 10, 41.09252548217773
0, 8, 11, 45.70946884155273
0, 8, 12, 51.71979904174805
0, 8, 13, 68.35999298095703
0, 8, 14, 71.32920837402344
0, 8, 15, 86.74830627441406
0, 8, 16, 168.0917816162109
0, 8, 17, 671.8283081054688
0, 8, 18, 1279.26904296875
0, 8, 19, 1450.195678710938
0, 8, 20, 1422.818969726562
0, 8, 21, 1410.032836914062
0, 8, 22, 1487.015258789062
0, 8, 23, 1479.311645507812
0, 8, 24, 1435.8115234375
0, 8, 25, 1456.484252929688
0, 8, 26, 1517.53466796875
0, 8, 27, 1520.775024414062
0, 8, 28, 1477.660400390625
0, 8, 29, 1501.521362304688
0, 8, 30, 1481.048095703125
0, 8, 31, 1535.10693359375
0, 8, 32, 1505.419921875
0, 8, 33, 1477.965454101562
0, 8, 34, 1537.084594726562
0, 8, 35, 1445.227416992188
0, 8, 36, 1498.041015625
0, 8, 37, 1557.284057617188
0, 8, 38, 1554.857543945312
0, 8, 39, 1496.764404296875
0, 8, 40, 1527.6416015625
0, 8, 41, 1484.0703125
0, 8, 42, 1544.06689453125
0, 8, 43, 1435.25634765625
0, 8, 44, 1533.220092773438
0, 8, 45, 1511.278564453125
0, 8, 46, 1596.603759765625
0, 8, 47, 1583.686645507812
0, 8, 48, 1546.334838867188
0, 8, 49, 1564.771728515625
