# TOPAS Version: 3.1.p3
# Parameter File: batch_inserts_68.txt
# Results for scorer Readout_Adipose
# Scored in component: MyBox
# X in 1 bin  of 0.75 cm
# Y in 512 bins of 0.0783984 cm
# Z in 128 bins of 0.078125 cm
# EnergyDeposit ( MeV ) : Sum   
0, 0, 0, 23.36063003540039
0, 0, 1, 22.12790679931641
0, 0, 2, 28.69043922424316
0, 0, 3, 26.90107727050781
0, 0, 4, 19.27681922912598
0, 0, 5, 19.87157821655273
0, 0, 6, 23.31560516357422
0, 0, 7, 30.52689933776855
0, 0, 8, 25.02329063415527
0, 0, 9, 22.26785469055176
0, 0, 10, 24.42916488647461
0, 0, 11, 26.79654312133789
0, 0, 12, 36.56259918212891
0, 0, 13, 35.05668640136719
0, 0, 14, 42.60103988647461
0, 0, 15, 43.78573989868164
0, 0, 16, 42.18790054321289
0, 0, 17, 45.76396179199219
0, 0, 18, 71.84449005126953
0, 0, 19, 189.9503784179688
0, 0, 20, 698.3878173828125
0, 0, 21, 1190.145629882812
0, 0, 22, 1249.06494140625
0, 0, 23, 1276.410766601562
0, 0, 24, 1284.1953125
0, 0, 25, 1354.381469726562
0, 0, 26, 1271.985229492188
0, 0, 27, 1283.140014648438
0, 0, 28, 1321.357055664062
0, 0, 29, 1267.267456054688
0, 0, 30, 1264.058959960938
0, 0, 31, 1284.177734375
0, 0, 32, 1265.793579101562
0, 0, 33, 1243.525512695312
0, 0, 34, 1325.112548828125
0, 0, 35, 1298.006469726562
0, 0, 36, 1245.570068359375
0, 0, 37, 1283.510498046875
0, 0, 38, 1245.58251953125
0, 0, 39, 1245.51318359375
0, 0, 40, 1223.627197265625
0, 0, 41, 1269.389404296875
0, 0, 42, 1255.141479492188
0, 0, 43, 1268.949829101562
0, 0, 44, 1226.488525390625
0, 0, 45, 1288.567016601562
0, 0, 46, 1258.079467773438
0, 0, 47, 1240.1279296875
0, 0, 48, 1279.032836914062
0, 0, 49, 1283.157958984375
0, 0, 50, 1307.400512695312
0, 0, 51, 1259.757446289062
0, 0, 52, 1357.09619140625
0, 0, 53, 1322.361328125
0, 0, 54, 1294.15869140625
0, 0, 55, 1230.558471679688
0, 0, 56, 1315.824829101562
0, 0, 57, 1293.077880859375
0, 0, 58, 1259.74267578125
0, 0, 59, 1330.536865234375
0, 0, 60, 1326.063598632812
0, 0, 61, 1262.666870117188
0, 0, 62, 1241.980346679688
0, 0, 63, 1278.89453125
0, 0, 64, 1331.805053710938
0, 0, 65, 1289.019653320312
0, 0, 66, 1317.764892578125
0, 0, 67, 1220.408203125
0, 0, 68, 1311.89306640625
0, 0, 69, 1327.101196289062
0, 0, 70, 1345.266479492188
0, 0, 71, 1291.694458007812
0, 0, 72, 1314.37744140625
0, 0, 73, 1240.21630859375
0, 0, 74, 1289.382202148438
0, 0, 75, 1295.379272460938
0, 0, 76, 1255.278076171875
0, 0, 77, 1286.491455078125
0, 0, 78, 1317.195434570312
0, 0, 79, 1324.396606445312
0, 0, 80, 1259.808959960938
0, 0, 81, 1324.62890625
0, 0, 82, 1287.046142578125
0, 0, 83, 1293.185302734375
0, 0, 84, 1324.989013671875
0, 0, 85, 1238.899291992188
0, 0, 86, 1264.931762695312
0, 0, 87, 1250.657836914062
0, 0, 88, 1259.533325195312
0, 0, 89, 1332.348388671875
0, 0, 90, 1281.607543945312
0, 0, 91, 1356.571166992188
0, 0, 92, 1304.0400390625
0, 0, 93, 1273.445922851562
0, 0, 94, 1243.021850585938
0, 0, 95, 1326.63818359375
0, 0, 96, 1282.908325195312
0, 0, 97, 1327.315551757812
0, 0, 98, 1256.366577148438
0, 0, 99, 1250.233520507812
0, 0, 100, 1284.885498046875
0, 0, 101, 1314.574584960938
0, 0, 102, 1231.87548828125
0, 0, 103, 1320.631713867188
0, 0, 104, 1261.608032226562
0, 0, 105, 1269.761596679688
0, 0, 106, 1205.654663085938
0, 0, 107, 779.087158203125
0, 0, 108, 194.534423828125
0, 0, 109, 73.65218353271484
0, 0, 110, 66.25336456298828
0, 0, 111, 38.47977828979492
0, 0, 112, 37.34390258789062
0, 0, 113, 35.58652114868164
0, 0, 114, 32.48283004760742
0, 0, 115, 28.81985473632812
0, 0, 116, 27.86264610290527
0, 0, 117, 37.3603401184082
0, 0, 118, 29.26345252990723
0, 0, 119, 25.06181907653809
0, 0, 120, 25.42153549194336
0, 0, 121, 29.12424850463867
0, 0, 122, 20.39667701721191
0, 0, 123, 20.05772590637207
0, 0, 124, 22.31009101867676
0, 0, 125, 19.46291351318359
0, 0, 126, 24.93650245666504
0, 0, 127, 17.49961280822754
0, 1, 0, 26.89788055419922
0, 1, 1, 24.02149963378906
0, 1, 2, 23.72147750854492
0, 1, 3, 22.7520580291748
0, 1, 4, 28.16482162475586
0, 1, 5, 24.45393180847168
0, 1, 6, 25.71451950073242
0, 1, 7, 25.05572509765625
0, 1, 8, 31.80102348327637
0, 1, 9, 30.49431610107422
0, 1, 10, 36.22043228149414
0, 1, 11, 51.89584732055664
0, 1, 12, 41.98233032226562
0, 1, 13, 42.81209564208984
0, 1, 14, 39.70773315429688
0, 1, 15, 46.94493865966797
0, 1, 16, 60.83633422851562
0, 1, 17, 67.06999206542969
0, 1, 18, 102.4748077392578
0, 1, 19, 399.3146362304688
0, 1, 20, 1043.907592773438
0, 1, 21, 1373.811889648438
0, 1, 22, 1474.953369140625
0, 1, 23, 1469.577270507812
0, 1, 24, 1453.285034179688
0, 1, 25, 1425.744750976562
0, 1, 26, 1470.852905273438
0, 1, 27, 1462.9384765625
0, 1, 28, 1489.462036132812
0, 1, 29, 1480.944091796875
0, 1, 30, 1504.806396484375
0, 1, 31, 1481.8486328125
0, 1, 32, 1412.666259765625
0, 1, 33, 1506.712158203125
0, 1, 34, 1502.1357421875
0, 1, 35, 1460.044067382812
0, 1, 36, 1490.427001953125
0, 1, 37, 1410.62548828125
0, 1, 38, 1397.88916015625
0, 1, 39, 1522.195556640625
0, 1, 40, 1462.072998046875
0, 1, 41, 1488.240600585938
0, 1, 42, 1501.835815429688
0, 1, 43, 1504.858154296875
0, 1, 44, 1451.506591796875
0, 1, 45, 1480.675170898438
0, 1, 46, 1416.767333984375
0, 1, 47, 1436.256469726562
0, 1, 48, 1432.899169921875
0, 1, 49, 1484.425415039062
0, 1, 50, 1446.052001953125
0, 1, 51, 1472.036865234375
0, 1, 52, 1478.668090820312
0, 1, 53, 1472.1181640625
0, 1, 54, 1506.693115234375
0, 1, 55, 1498.97998046875
0, 1, 56, 1470.343017578125
0, 1, 57, 1457.26953125
0, 1, 58, 1430.881469726562
0, 1, 59, 1482.07470703125
0, 1, 60, 1462.58837890625
0, 1, 61, 1447.865356445312
0, 1, 62, 1452.380126953125
0, 1, 63, 1415.7724609375
0, 1, 64, 1474.160400390625
0, 1, 65, 1414.1337890625
0, 1, 66, 1437.419189453125
0, 1, 67, 1459.1650390625
0, 1, 68, 1387.776733398438
0, 1, 69, 1458.873779296875
0, 1, 70, 1430.96728515625
0, 1, 71, 1497.34228515625
0, 1, 72, 1430.70068359375
0, 1, 73, 1486.76806640625
0, 1, 74, 1469.055541992188
0, 1, 75, 1477.806030273438
0, 1, 76, 1449.942626953125
0, 1, 77, 1464.044555664062
0, 1, 78, 1451.510864257812
0, 1, 79, 1502.64794921875
0, 1, 80, 1451.000366210938
0, 1, 81, 1425.547973632812
0, 1, 82, 1473.845825195312
0, 1, 83, 1459.858154296875
0, 1, 84, 1536.801391601562
0, 1, 85, 1445.393310546875
0, 1, 86, 1402.167114257812
0, 1, 87, 1419.213623046875
0, 1, 88, 1469.61328125
0, 1, 89, 1477.717529296875
0, 1, 90, 1423.090576171875
0, 1, 91, 1460.850952148438
0, 1, 92, 1411.766235351562
0, 1, 93, 1461.68701171875
0, 1, 94, 1462.170166015625
0, 1, 95, 1419.995971679688
0, 1, 96, 1496.675170898438
0, 1, 97, 1520.933715820312
0, 1, 98, 1482.74169921875
0, 1, 99, 1418.867431640625
0, 1, 100, 1447.055419921875
0, 1, 101, 1417.097290039062
0, 1, 102, 1441.339721679688
0, 1, 103, 1411.057739257812
0, 1, 104, 1407.145874023438
0, 1, 105, 1461.527221679688
0, 1, 106, 1366.36474609375
0, 1, 107, 1017.484130859375
0, 1, 108, 403.6935119628906
0, 1, 109, 92.93447113037109
0, 1, 110, 65.37831115722656
0, 1, 111, 56.0725212097168
0, 1, 112, 54.60483551025391
0, 1, 113, 37.45265197753906
0, 1, 114, 41.58696365356445
0, 1, 115, 40.00483322143555
0, 1, 116, 33.17505645751953
0, 1, 117, 34.03567886352539
0, 1, 118, 31.17580413818359
0, 1, 119, 33.79016494750977
0, 1, 120, 23.06954956054688
0, 1, 121, 22.12994384765625
0, 1, 122, 19.70927429199219
0, 1, 123, 29.30134582519531
0, 1, 124, 29.00824928283691
0, 1, 125, 19.58073234558105
0, 1, 126, 14.43045043945312
0, 1, 127, 17.17509841918945
0, 2, 0, 15.83965682983398
0, 2, 1, 20.39048385620117
0, 2, 2, 22.90667343139648
0, 2, 3, 21.76852798461914
0, 2, 4, 26.78732299804688
0, 2, 5, 21.69223785400391
0, 2, 6, 22.54684448242188
0, 2, 7, 23.62906074523926
0, 2, 8, 24.29084396362305
0, 2, 9, 29.07794189453125
0, 2, 10, 28.87521743774414
0, 2, 11, 36.09803009033203
0, 2, 12, 44.19560241699219
0, 2, 13, 43.65012359619141
0, 2, 14, 49.2177848815918
0, 2, 15, 47.94184875488281
0, 2, 16, 64.58397674560547
0, 2, 17, 78.33085632324219
0, 2, 18, 142.5421447753906
0, 2, 19, 607.9720458984375
0, 2, 20, 1281.308959960938
0, 2, 21, 1433.15283203125
0, 2, 22, 1458.076416015625
0, 2, 23, 1404.6943359375
0, 2, 24, 1441.302856445312
0, 2, 25, 1523.108520507812
0, 2, 26, 1550.950927734375
0, 2, 27, 1453.938232421875
0, 2, 28, 1458.0849609375
0, 2, 29, 1462.076538085938
0, 2, 30, 1462.025268554688
0, 2, 31, 1535.619873046875
0, 2, 32, 1507.398681640625
0, 2, 33, 1442.640380859375
0, 2, 34, 1478.2939453125
0, 2, 35, 1471.672607421875
0, 2, 36, 1524.656860351562
0, 2, 37, 1550.001098632812
0, 2, 38, 1508.085083007812
0, 2, 39, 1466.254516601562
0, 2, 40, 1501.94580078125
0, 2, 41, 1523.084716796875
0, 2, 42, 1503.308471679688
0, 2, 43, 1547.372680664062
0, 2, 44, 1458.16259765625
0, 2, 45, 1482.091186523438
0, 2, 46, 1428.75439453125
0, 2, 47, 1448.503662109375
0, 2, 48, 1399.22705078125
0, 2, 49, 1466.195434570312
0, 2, 50, 1442.587158203125
0, 2, 51, 1443.802978515625
0, 2, 52, 1494.115966796875
0, 2, 53, 1524.21484375
0, 2, 54, 1529.7109375
0, 2, 55, 1492.404541015625
0, 2, 56, 1461.1591796875
0, 2, 57, 1419.32177734375
0, 2, 58, 1455.386352539062
0, 2, 59, 1453.0283203125
0, 2, 60, 1473.2578125
0, 2, 61, 1444.727172851562
0, 2, 62, 1468.86865234375
0, 2, 63, 1505.001098632812
0, 2, 64, 1459.472045898438
0, 2, 65, 1424.728881835938
0, 2, 66, 1484.549682617188
0, 2, 67, 1504.492553710938
0, 2, 68, 1537.74853515625
0, 2, 69, 1537.581420898438
0, 2, 70, 1500.843994140625
0, 2, 71, 1465.539794921875
0, 2, 72, 1512.505249023438
0, 2, 73, 1521.031860351562
0, 2, 74, 1486.736083984375
0, 2, 75, 1504.66748046875
0, 2, 76, 1449.196899414062
0, 2, 77, 1504.77978515625
0, 2, 78, 1429.228393554688
0, 2, 79, 1539.148803710938
0, 2, 80, 1486.453735351562
0, 2, 81, 1469.054321289062
0, 2, 82, 1554.812622070312
0, 2, 83, 1516.655639648438
0, 2, 84, 1491.5478515625
0, 2, 85, 1507.138549804688
0, 2, 86, 1542.735229492188
0, 2, 87, 1486.717041015625
0, 2, 88, 1541.786865234375
0, 2, 89, 1462.294189453125
0, 2, 90, 1433.286376953125
0, 2, 91, 1404.208251953125
0, 2, 92, 1476.269165039062
0, 2, 93, 1493.271850585938
0, 2, 94, 1449.902709960938
0, 2, 95, 1547.4365234375
0, 2, 96, 1514.09375
0, 2, 97, 1451.944946289062
0, 2, 98, 1464.173461914062
0, 2, 99, 1402.798828125
0, 2, 100, 1473.603271484375
0, 2, 101, 1478.351928710938
0, 2, 102, 1464.553100585938
0, 2, 103, 1386.694213867188
0, 2, 104, 1413.09423828125
0, 2, 105, 1392.650390625
0, 2, 106, 1454.502807617188
0, 2, 107, 1275.43408203125
0, 2, 108, 622.0447998046875
0, 2, 109, 175.5799407958984
0, 2, 110, 69.78090667724609
0, 2, 111, 62.02350997924805
0, 2, 112, 46.2479248046875
0, 2, 113, 48.27750396728516
0, 2, 114, 40.70644760131836
0, 2, 115, 42.20516204833984
0, 2, 116, 35.66892242431641
0, 2, 117, 33.84508514404297
0, 2, 118, 32.09900665283203
0, 2, 119, 30.79926109313965
0, 2, 120, 28.6407642364502
0, 2, 121, 19.37091064453125
0, 2, 122, 29.7938289642334
0, 2, 123, 23.78818702697754
0, 2, 124, 25.51473426818848
0, 2, 125, 31.79032516479492
0, 2, 126, 15.22000312805176
0, 2, 127, 19.10175323486328
0, 3, 0, 16.51640892028809
0, 3, 1, 26.69342994689941
0, 3, 2, 17.80060768127441
0, 3, 3, 19.53176307678223
0, 3, 4, 16.80763244628906
0, 3, 5, 23.34475135803223
0, 3, 6, 31.46453666687012
0, 3, 7, 32.93416213989258
0, 3, 8, 32.44213485717773
0, 3, 9, 29.6807804107666
0, 3, 10, 32.67414093017578
0, 3, 11, 33.57362747192383
0, 3, 12, 40.52953720092773
0, 3, 13, 49.62493515014648
0, 3, 14, 56.69367218017578
0, 3, 15, 55.76058959960938
0, 3, 16, 69.16819000244141
0, 3, 17, 86.42454528808594
0, 3, 18, 237.9010467529297
0, 3, 19, 880.9683837890625
0, 3, 20, 1388.784301757812
0, 3, 21, 1505.796875
0, 3, 22, 1463.524658203125
0, 3, 23, 1449.59375
0, 3, 24, 1437.615112304688
0, 3, 25, 1465.484741210938
0, 3, 26, 1495.48291015625
0, 3, 27, 1463.32177734375
0, 3, 28, 1489.7939453125
0, 3, 29, 1537.7138671875
0, 3, 30, 1570.427368164062
0, 3, 31, 1513.077392578125
0, 3, 32, 1544.0654296875
0, 3, 33, 1540.984497070312
0, 3, 34, 1485.94580078125
0, 3, 35, 1462.898803710938
0, 3, 36, 1451.324462890625
0, 3, 37, 1512.134399414062
0, 3, 38, 1515.97119140625
0, 3, 39, 1439.884155273438
0, 3, 40, 1448.110107421875
0, 3, 41, 1562.680053710938
0, 3, 42, 1463.2333984375
0, 3, 43, 1456.156372070312
0, 3, 44, 1461.600830078125
0, 3, 45, 1509.704467773438
0, 3, 46, 1507.933837890625
0, 3, 47, 1442.7802734375
0, 3, 48, 1510.3291015625
0, 3, 49, 1450.654541015625
0, 3, 50, 1488.017944335938
0, 3, 51, 1535.198364257812
0, 3, 52, 1539.716064453125
0, 3, 53, 1470.48193359375
0, 3, 54, 1529.5361328125
0, 3, 55, 1502.05712890625
0, 3, 56, 1435.929565429688
0, 3, 57, 1504.30517578125
0, 3, 58, 1513.386352539062
0, 3, 59, 1513.271850585938
0, 3, 60, 1533.99267578125
0, 3, 61, 1485.22509765625
0, 3, 62, 1494.41015625
0, 3, 63, 1493.878051757812
0, 3, 64, 1496.065795898438
0, 3, 65, 1518.610229492188
0, 3, 66, 1557.033813476562
0, 3, 67, 1546.70068359375
0, 3, 68, 1449.042846679688
0, 3, 69, 1464.793090820312
0, 3, 70, 1385.601440429688
0, 3, 71, 1459.073120117188
0, 3, 72, 1545.918334960938
0, 3, 73, 1499.440795898438
0, 3, 74, 1466.4375
0, 3, 75, 1457.6259765625
0, 3, 76, 1580.3232421875
0, 3, 77, 1541.337524414062
0, 3, 78, 1431.348510742188
0, 3, 79, 1492.265747070312
0, 3, 80, 1464.4560546875
0, 3, 81, 1472.591674804688
0, 3, 82, 1560.0185546875
0, 3, 83, 1508.737670898438
0, 3, 84, 1558.0986328125
0, 3, 85, 1482.49609375
0, 3, 86, 1525.650390625
0, 3, 87, 1535.9482421875
0, 3, 88, 1460.335083007812
0, 3, 89, 1450.041137695312
0, 3, 90, 1447.587890625
0, 3, 91, 1423.019409179688
0, 3, 92, 1512.481323242188
0, 3, 93, 1500.914916992188
0, 3, 94, 1517.420532226562
0, 3, 95, 1544.4619140625
0, 3, 96, 1509.31591796875
0, 3, 97, 1464.528198242188
0, 3, 98, 1435.049560546875
0, 3, 99, 1465.400146484375
0, 3, 100, 1472.355712890625
0, 3, 101, 1476.451538085938
0, 3, 102, 1523.342407226562
0, 3, 103, 1555.694213867188
0, 3, 104, 1500.951416015625
0, 3, 105, 1522.427490234375
0, 3, 106, 1475.904541015625
0, 3, 107, 1345.457641601562
0, 3, 108, 870.0086669921875
0, 3, 109, 264.3393859863281
0, 3, 110, 106.4705123901367
0, 3, 111, 64.15290069580078
0, 3, 112, 57.24956512451172
0, 3, 113, 57.99123382568359
0, 3, 114, 49.04396820068359
0, 3, 115, 49.70472717285156
0, 3, 116, 34.81008148193359
0, 3, 117, 38.43837356567383
0, 3, 118, 33.69882583618164
0, 3, 119, 27.5754280090332
0, 3, 120, 32.51249313354492
0, 3, 121, 20.88583183288574
0, 3, 122, 34.30924987792969
0, 3, 123, 26.59255981445312
0, 3, 124, 20.07757568359375
0, 3, 125, 26.48275947570801
0, 3, 126, 29.12332916259766
0, 3, 127, 15.97098636627197
0, 4, 0, 18.89647483825684
0, 4, 1, 25.24216270446777
0, 4, 2, 16.39965629577637
0, 4, 3, 21.41752433776855
0, 4, 4, 24.89846038818359
0, 4, 5, 30.75897216796875
0, 4, 6, 33.89523315429688
0, 4, 7, 37.27194213867188
0, 4, 8, 25.85960388183594
0, 4, 9, 38.58752822875977
0, 4, 10, 30.64602470397949
0, 4, 11, 45.37081527709961
0, 4, 12, 48.28096008300781
0, 4, 13, 52.94198608398438
0, 4, 14, 48.82382202148438
0, 4, 15, 62.20168304443359
0, 4, 16, 73.61283111572266
0, 4, 17, 109.0480651855469
0, 4, 18, 439.4094848632812
0, 4, 19, 1182.296020507812
0, 4, 20, 1443.571899414062
0, 4, 21, 1425.298583984375
0, 4, 22, 1434.102661132812
0, 4, 23, 1449.692260742188
0, 4, 24, 1474.131103515625
0, 4, 25, 1404.062622070312
0, 4, 26, 1535.031494140625
0, 4, 27, 1544.544799804688
0, 4, 28, 1503.580200195312
0, 4, 29, 1514.3466796875
0, 4, 30, 1528.217895507812
0, 4, 31, 1578.641235351562
0, 4, 32, 1513.836303710938
0, 4, 33, 1491.740478515625
0, 4, 34, 1471.184326171875
0, 4, 35, 1559.900634765625
0, 4, 36, 1506.417602539062
0, 4, 37, 1509.348266601562
0, 4, 38, 1533.673095703125
0, 4, 39, 1473.028686523438
0, 4, 40, 1510.889526367188
0, 4, 41, 1582.580688476562
0, 4, 42, 1561.825927734375
0, 4, 43, 1469.864990234375
0, 4, 44, 1497.992553710938
0, 4, 45, 1516.857543945312
0, 4, 46, 1470.560668945312
0, 4, 47, 1502.321899414062
0, 4, 48, 1527.224853515625
0, 4, 49, 1467.615356445312
0, 4, 50, 1524.743286132812
0, 4, 51, 1490.694213867188
0, 4, 52, 1489.46533203125
0, 4, 53, 1456.341918945312
0, 4, 54, 1439.3154296875
0, 4, 55, 1523.867065429688
0, 4, 56, 1454.3134765625
0, 4, 57, 1496.128051757812
0, 4, 58, 1460.558959960938
0, 4, 59, 1464.238525390625
0, 4, 60, 1524.220581054688
0, 4, 61, 1499.463012695312
0, 4, 62, 1505.56298828125
0, 4, 63, 1539.782470703125
0, 4, 64, 1593.289794921875
0, 4, 65, 1423.315185546875
0, 4, 66, 1512.813354492188
0, 4, 67, 1523.064575195312
0, 4, 68, 1500.67333984375
0, 4, 69, 1472.002075195312
0, 4, 70, 1547.270263671875
0, 4, 71, 1518.616943359375
0, 4, 72, 1537.024780273438
0, 4, 73, 1493.671630859375
0, 4, 74, 1487.59912109375
0, 4, 75, 1533.33544921875
0, 4, 76, 1481.434326171875
0, 4, 77, 1503.708129882812
0, 4, 78, 1501.921508789062
0, 4, 79, 1478.84130859375
0, 4, 80, 1513.263916015625
0, 4, 81, 1521.928833007812
0, 4, 82, 1566.44677734375
0, 4, 83, 1505.981689453125
0, 4, 84, 1536.982299804688
0, 4, 85, 1553.743896484375
0, 4, 86, 1525.150146484375
0, 4, 87, 1493.505493164062
0, 4, 88, 1513.783081054688
0, 4, 89, 1482.294555664062
0, 4, 90, 1547.655883789062
0, 4, 91, 1553.256958007812
0, 4, 92, 1489.797729492188
0, 4, 93, 1516.14697265625
0, 4, 94, 1484.909057617188
0, 4, 95, 1510.33544921875
0, 4, 96, 1447.00732421875
0, 4, 97, 1408.280517578125
0, 4, 98, 1552.10400390625
0, 4, 99, 1507.887939453125
0, 4, 100, 1488.995849609375
0, 4, 101, 1447.257934570312
0, 4, 102, 1446.97509765625
0, 4, 103, 1514.658203125
0, 4, 104, 1510.887573242188
0, 4, 105, 1559.365844726562
0, 4, 106, 1475.666259765625
0, 4, 107, 1451.123168945312
0, 4, 108, 1118.331665039062
0, 4, 109, 437.6814575195312
0, 4, 110, 101.4931716918945
0, 4, 111, 69.47897338867188
0, 4, 112, 63.58842468261719
0, 4, 113, 48.89676284790039
0, 4, 114, 50.50942230224609
0, 4, 115, 47.2837028503418
0, 4, 116, 37.02439498901367
0, 4, 117, 43.04463958740234
0, 4, 118, 49.4764404296875
0, 4, 119, 38.35851287841797
0, 4, 120, 37.17652130126953
0, 4, 121, 27.6853141784668
0, 4, 122, 31.86990165710449
0, 4, 123, 28.83145523071289
0, 4, 124, 21.34639167785645
0, 4, 125, 23.84515190124512
0, 4, 126, 24.02856254577637
0, 4, 127, 18.14202690124512
0, 5, 0, 18.1064395904541
0, 5, 1, 29.06702995300293
0, 5, 2, 28.34791946411133
0, 5, 3, 20.25620460510254
0, 5, 4, 24.85691261291504
0, 5, 5, 33.41305541992188
0, 5, 6, 30.17622566223145
0, 5, 7, 31.29016304016113
0, 5, 8, 33.87912368774414
0, 5, 9, 28.89941596984863
0, 5, 10, 40.42164611816406
0, 5, 11, 42.50726318359375
0, 5, 12, 41.75791168212891
0, 5, 13, 44.37092208862305
0, 5, 14, 61.34143829345703
0, 5, 15, 75.60904693603516
0, 5, 16, 80.55439758300781
0, 5, 17, 157.7380065917969
0, 5, 18, 676.777099609375
0, 5, 19, 1346.0615234375
0, 5, 20, 1526.509033203125
0, 5, 21, 1489.616455078125
0, 5, 22, 1492.810913085938
0, 5, 23, 1530.183959960938
0, 5, 24, 1461.461547851562
0, 5, 25, 1425.859008789062
0, 5, 26, 1524.495239257812
0, 5, 27, 1539.600219726562
0, 5, 28, 1488.572387695312
0, 5, 29, 1523.57275390625
0, 5, 30, 1492.657348632812
0, 5, 31, 1499.44482421875
0, 5, 32, 1594.665405273438
0, 5, 33, 1506.27880859375
0, 5, 34, 1484.698974609375
0, 5, 35, 1509.872924804688
0, 5, 36, 1441.298095703125
0, 5, 37, 1530.757934570312
0, 5, 38, 1541.742065429688
0, 5, 39, 1547.65283203125
0, 5, 40, 1497.12451171875
0, 5, 41, 1483.482055664062
0, 5, 42, 1542.283569335938
0, 5, 43, 1532.016357421875
0, 5, 44, 1543.449340820312
0, 5, 45, 1509.373901367188
0, 5, 46, 1485.635375976562
0, 5, 47, 1481.903442382812
0, 5, 48, 1502.953857421875
0, 5, 49, 1524.543090820312
0, 5, 50, 1503.40771484375
0, 5, 51, 1520.992919921875
0, 5, 52, 1430.933227539062
0, 5, 53, 1522.318603515625
0, 5, 54, 1523.06201171875
0, 5, 55, 1526.525146484375
0, 5, 56, 1488.96630859375
0, 5, 57, 1536.235107421875
0, 5, 58, 1510.923583984375
0, 5, 59, 1488.408325195312
0, 5, 60, 1540.769653320312
0, 5, 61, 1457.357055664062
0, 5, 62, 1587.332641601562
0, 5, 63, 1433.67919921875
0, 5, 64, 1487.293823242188
0, 5, 65, 1459.004028320312
0, 5, 66, 1530.511352539062
0, 5, 67, 1560.975708007812
0, 5, 68, 1465.236083984375
0, 5, 69, 1486.458618164062
0, 5, 70, 1489.367797851562
0, 5, 71, 1471.069702148438
0, 5, 72, 1540.658081054688
0, 5, 73, 1460.69140625
0, 5, 74, 1493.593139648438
0, 5, 75, 1485.551391601562
0, 5, 76, 1478.048828125
0, 5, 77, 1525.469604492188
0, 5, 78, 1529.798095703125
0, 5, 79, 1509.332763671875
0, 5, 80, 1517.8701171875
0, 5, 81, 1597.100219726562
0, 5, 82, 1529.971069335938
0, 5, 83, 1490.8427734375
0, 5, 84, 1532.526489257812
0, 5, 85, 1515.379638671875
0, 5, 86, 1556.463623046875
0, 5, 87, 1470.475830078125
0, 5, 88, 1496.847290039062
0, 5, 89, 1481.105102539062
0, 5, 90, 1478.966674804688
0, 5, 91, 1549.96630859375
0, 5, 92, 1484.183471679688
0, 5, 93, 1562.69384765625
0, 5, 94, 1514.546875
0, 5, 95, 1562.421875
0, 5, 96, 1503.31494140625
0, 5, 97, 1506.033935546875
0, 5, 98, 1511.218139648438
0, 5, 99, 1542.593627929688
0, 5, 100, 1434.287963867188
0, 5, 101, 1430.559814453125
0, 5, 102, 1514.092041015625
0, 5, 103, 1473.035888671875
0, 5, 104, 1457.346435546875
0, 5, 105, 1492.746948242188
0, 5, 106, 1459.243408203125
0, 5, 107, 1402.183349609375
0, 5, 108, 1287.481323242188
0, 5, 109, 721.6157836914062
0, 5, 110, 190.2540893554688
0, 5, 111, 85.61577606201172
0, 5, 112, 77.00286102294922
0, 5, 113, 60.07998657226562
0, 5, 114, 54.44316101074219
0, 5, 115, 53.86581039428711
0, 5, 116, 40.00421142578125
0, 5, 117, 42.02236557006836
0, 5, 118, 40.67448806762695
0, 5, 119, 25.77680206298828
0, 5, 120, 30.04801940917969
0, 5, 121, 30.57353591918945
0, 5, 122, 26.04426002502441
0, 5, 123, 27.23120307922363
0, 5, 124, 27.13401412963867
0, 5, 125, 24.92954254150391
0, 5, 126, 21.49882888793945
0, 5, 127, 21.1916618347168
0, 6, 0, 24.80128288269043
0, 6, 1, 27.62029266357422
0, 6, 2, 34.22550582885742
0, 6, 3, 28.94285774230957
0, 6, 4, 28.77563858032227
0, 6, 5, 36.5808219909668
0, 6, 6, 37.6330680847168
0, 6, 7, 33.32487869262695
0, 6, 8, 31.25564384460449
0, 6, 9, 31.89339447021484
0, 6, 10, 36.39368438720703
0, 6, 11, 42.90874862670898
0, 6, 12, 39.86296081542969
0, 6, 13, 63.06930541992188
0, 6, 14, 61.99929428100586
0, 6, 15, 81.76215362548828
0, 6, 16, 114.3711242675781
0, 6, 17, 299.5642395019531
0, 6, 18, 899.3401489257812
0, 6, 19, 1378.31982421875
0, 6, 20, 1438.412719726562
0, 6, 21, 1531.70703125
0, 6, 22, 1504.39990234375
0, 6, 23, 1530.05517578125
0, 6, 24, 1480.746337890625
0, 6, 25, 1527.95654296875
0, 6, 26, 1518.54296875
0, 6, 27, 1522.059326171875
0, 6, 28, 1550.154296875
0, 6, 29, 1580.010498046875
0, 6, 30, 1515.91455078125
0, 6, 31, 1494.520263671875
0, 6, 32, 1522.603759765625
0, 6, 33, 1493.103149414062
0, 6, 34, 1556.886596679688
0, 6, 35, 1504.30029296875
0, 6, 36, 1435.473754882812
0, 6, 37, 1545.430541992188
0, 6, 38, 1523.594604492188
0, 6, 39, 1530.4072265625
0, 6, 40, 1457.681762695312
0, 6, 41, 1438.051635742188
0, 6, 42, 1515.887329101562
0, 6, 43, 1482.756958007812
0, 6, 44, 1431.879028320312
0, 6, 45, 1549.186401367188
0, 6, 46, 1557.093505859375
0, 6, 47, 1499.420166015625
0, 6, 48, 1529.364379882812
0, 6, 49, 1513.141845703125
0, 6, 50, 1581.807373046875
0, 6, 51, 1501.183715820312
0, 6, 52, 1561.183227539062
0, 6, 53, 1471.889526367188
0, 6, 54, 1498.279296875
0, 6, 55, 1572.804321289062
0, 6, 56, 1522.406982421875
0, 6, 57, 1506.078002929688
0, 6, 58, 1466.57373046875
0, 6, 59, 1519.303466796875
0, 6, 60, 1469.877075195312
0, 6, 61, 1568.377807617188
0, 6, 62, 1540.114990234375
0, 6, 63, 1499.40673828125
0, 6, 64, 1404.765991210938
0, 6, 65, 1491.82861328125
0, 6, 66, 1506.3564453125
0, 6, 67, 1514.59619140625
0, 6, 68, 1547.130249023438
0, 6, 69, 1486.277465820312
0, 6, 70, 1522.519287109375
0, 6, 71, 1468.259155273438
0, 6, 72, 1597.93212890625
0, 6, 73, 1491.173095703125
0, 6, 74, 1560.490966796875
0, 6, 75, 1539.774658203125
0, 6, 76, 1564.202514648438
0, 6, 77, 1501.722778320312
0, 6, 78, 1443.817993164062
0, 6, 79, 1555.095092773438
0, 6, 80, 1483.302612304688
0, 6, 81, 1483.297973632812
0, 6, 82, 1498.547485351562
0, 6, 83, 1524.456298828125
0, 6, 84, 1520.389038085938
0, 6, 85, 1537.431274414062
0, 6, 86, 1541.767700195312
0, 6, 87, 1576.958251953125
0, 6, 88, 1477.793823242188
0, 6, 89, 1570.362548828125
0, 6, 90, 1491.672119140625
0, 6, 91, 1539.474609375
0, 6, 92, 1486.430053710938
0, 6, 93, 1495.016479492188
0, 6, 94, 1470.073852539062
0, 6, 95, 1508.581298828125
0, 6, 96, 1519.2783203125
0, 6, 97, 1505.644165039062
0, 6, 98, 1498.735595703125
0, 6, 99, 1478.883911132812
0, 6, 100, 1519.045654296875
0, 6, 101, 1519.361206054688
0, 6, 102, 1537.816772460938
0, 6, 103, 1498.356201171875
0, 6, 104, 1465.253540039062
0, 6, 105, 1487.522094726562
0, 6, 106, 1497.338745117188
0, 6, 107, 1502.565795898438
0, 6, 108, 1405.110717773438
0, 6, 109, 924.4224243164062
0, 6, 110, 282.9503173828125
0, 6, 111, 96.70534515380859
0, 6, 112, 80.65829467773438
0, 6, 113, 60.24036026000977
0, 6, 114, 59.80658721923828
0, 6, 115, 41.61540603637695
0, 6, 116, 41.04331207275391
0, 6, 117, 40.48435592651367
0, 6, 118, 36.21817398071289
0, 6, 119, 36.56750106811523
0, 6, 120, 30.21974182128906
0, 6, 121, 27.53927803039551
0, 6, 122, 30.14809799194336
0, 6, 123, 21.93473052978516
0, 6, 124, 34.01741790771484
0, 6, 125, 35.91373825073242
0, 6, 126, 21.43453788757324
0, 6, 127, 18.88882446289062
0, 7, 0, 22.34527206420898
0, 7, 1, 25.94920921325684
0, 7, 2, 19.18175888061523
0, 7, 3, 27.45033645629883
0, 7, 4, 26.33927726745605
0, 7, 5, 39.51327896118164
0, 7, 6, 34.18513107299805
0, 7, 7, 37.8229866027832
0, 7, 8, 30.26233863830566
0, 7, 9, 33.41393280029297
0, 7, 10, 46.41956329345703
0, 7, 11, 48.9598274230957
0, 7, 12, 45.61526489257812
0, 7, 13, 51.17136383056641
0, 7, 14, 63.94992828369141
0, 7, 15, 80.88375091552734
0, 7, 16, 131.6665954589844
0, 7, 17, 457.00146484375
0, 7, 18, 1097.288940429688
0, 7, 19, 1506.885131835938
0, 7, 20, 1482.179565429688
0, 7, 21, 1365.771850585938
0, 7, 22, 1488.39208984375
0, 7, 23, 1456.631713867188
0, 7, 24, 1507.842163085938
0, 7, 25, 1596.303466796875
0, 7, 26, 1518.194091796875
0, 7, 27, 1511.68798828125
0, 7, 28, 1548.709350585938
0, 7, 29, 1580.190795898438
0, 7, 30, 1545.942260742188
0, 7, 31, 1433.554809570312
0, 7, 32, 1541.358520507812
0, 7, 33, 1490.392333984375
0, 7, 34, 1482.08203125
0, 7, 35, 1520.457763671875
0, 7, 36, 1472.23583984375
0, 7, 37, 1596.92333984375
0, 7, 38, 1501.858032226562
0, 7, 39, 1496.532958984375
0, 7, 40, 1542.886596679688
0, 7, 41, 1464.889892578125
0, 7, 42, 1486.613159179688
0, 7, 43, 1447.301391601562
0, 7, 44, 1489.20751953125
0, 7, 45, 1472.849243164062
0, 7, 46, 1509.577758789062
0, 7, 47, 1569.149780273438
0, 7, 48, 1523.989379882812
0, 7, 49, 1541.219482421875
0, 7, 50, 1512.316284179688
0, 7, 51, 1495.470092773438
0, 7, 52, 1529.142333984375
0, 7, 53, 1495.33544921875
0, 7, 54, 1587.456665039062
0, 7, 55, 1471.351318359375
0, 7, 56, 1548.330322265625
0, 7, 57, 1510.846557617188
0, 7, 58, 1549.474731445312
0, 7, 59, 1540.183471679688
0, 7, 60, 1548.569213867188
0, 7, 61, 1494.92578125
0, 7, 62, 1437.175415039062
0, 7, 63, 1512.444458007812
0, 7, 64, 1545.823852539062
0, 7, 65, 1524.66015625
0, 7, 66, 1540.406494140625
0, 7, 67, 1572.517944335938
0, 7, 68, 1536.976928710938
0, 7, 69, 1511.473022460938
0, 7, 70, 1502.07275390625
0, 7, 71, 1517.409545898438
0, 7, 72, 1522.63720703125
0, 7, 73, 1511.781372070312
0, 7, 74, 1571.267822265625
0, 7, 75, 1537.445434570312
0, 7, 76, 1561.52490234375
0, 7, 77, 1513.836059570312
0, 7, 78, 1503.069580078125
0, 7, 79, 1422.545532226562
0, 7, 80, 1489.383544921875
0, 7, 81, 1494.468383789062
0, 7, 82, 1529.969482421875
0, 7, 83, 1547.744506835938
0, 7, 84, 1583.573608398438
0, 7, 85, 1472.83251953125
0, 7, 86, 1504.69287109375
0, 7, 87, 1511.134521484375
0, 7, 88, 1497.778564453125
0, 7, 89, 1552.421752929688
0, 7, 90, 1517.9140625
0, 7, 91, 1561.56494140625
0, 7, 92, 1530.939575195312
0, 7, 93, 1557.151000976562
0, 7, 94, 1538.744506835938
0, 7, 95, 1515.624877929688
0, 7, 96, 1506.072998046875
0, 7, 97, 1435.90478515625
0, 7, 98, 1485.129638671875
0, 7, 99, 1532.991333007812
0, 7, 100, 1418.513305664062
0, 7, 101, 1468.409912109375
0, 7, 102, 1450.345703125
0, 7, 103, 1430.083618164062
0, 7, 104, 1496.34375
0, 7, 105, 1520.76123046875
0, 7, 106, 1566.317749023438
0, 7, 107, 1478.315551757812
0, 7, 108, 1413.473754882812
0, 7, 109, 1142.56982421875
0, 7, 110, 468.8831787109375
0, 7, 111, 129.4144287109375
0, 7, 112, 76.40132141113281
0, 7, 113, 63.76304244995117
0, 7, 114, 57.06168746948242
0, 7, 115, 57.72456359863281
0, 7, 116, 49.76359939575195
0, 7, 117, 46.07530212402344
0, 7, 118, 34.9918327331543
0, 7, 119, 30.62811660766602
0, 7, 120, 27.6884822845459
0, 7, 121, 34.24148941040039
0, 7, 122, 35.35090255737305
0, 7, 123, 37.70729064941406
0, 7, 124, 30.84746742248535
0, 7, 125, 20.91455078125
0, 7, 126, 26.21726608276367
0, 7, 127, 20.75143432617188
0, 8, 0, 19.61167335510254
0, 8, 1, 21.53033447265625
0, 8, 2, 24.18385314941406
0, 8, 3, 25.96539306640625
0, 8, 4, 28.65368461608887
0, 8, 5, 32.64968872070312
0, 8, 6, 30.52063941955566
0, 8, 7, 29.91516494750977
0, 8, 8, 37.16312789916992
0, 8, 9, 45.98288726806641
0, 8, 10, 39.5262565612793
0, 8, 11, 38.00284576416016
0, 8, 12, 55.70156097412109
0, 8, 13, 71.98409271240234
0, 8, 14, 73.51886749267578
0, 8, 15, 84.10958099365234
0, 8, 16, 165.9176025390625
0, 8, 17, 676.081787109375
0, 8, 18, 1273.859741210938
0, 8, 19, 1444.567749023438
0, 8, 20, 1419.984008789062
0, 8, 21, 1410.307739257812
0, 8, 22, 1485.122192382812
0, 8, 23, 1479.354370117188
0, 8, 24, 1435.800903320312
0, 8, 25, 1456.533325195312
0, 8, 26, 1509.883911132812
0, 8, 27, 1524.42041015625
0, 8, 28, 1473.556518554688
0, 8, 29, 1501.45654296875
0, 8, 30, 1483.460083007812
0, 8, 31, 1534.248046875
0, 8, 32, 1516.0322265625
0, 8, 33, 1484.38134765625
0, 8, 34, 1536.618286132812
0, 8, 35, 1442.453491210938
0, 8, 36, 1498.40625
0, 8, 37, 1553.34375
0, 8, 38, 1555.6435546875
0, 8, 39, 1492.537231445312
0, 8, 40, 1527.863037109375
0, 8, 41, 1488.97265625
0, 8, 42, 1542.996215820312
0, 8, 43, 1430.045776367188
0, 8, 44, 1534.129150390625
0, 8, 45, 1512.624633789062
0, 8, 46, 1596.073852539062
