# TOPAS Version: 3.1.p3
# Parameter File: batch_inserts_24.txt
# Results for scorer Readout_Adipose
# Scored in component: MyBox
# X in 1 bin  of 0.75 cm
# Y in 512 bins of 0.0783984 cm
# Z in 128 bins of 0.078125 cm
# EnergyDeposit ( MeV ) : Sum   
0, 0, 0, 3.752755641937256
0, 0, 1, 1.683592319488525
0, 0, 2, 4.500703811645508
0, 0, 3, 1.751070857048035
0, 0, 4, 3.859634876251221
0, 0, 5, 2.610514402389526
0, 0, 6, 8.25539493560791
0, 0, 7, 9.130548477172852
0, 0, 8, 3.218071699142456
0, 0, 9, 3.217828035354614
0, 0, 10, 8.28631591796875
0, 0, 11, 4.428461074829102
0, 0, 12, 6.773752689361572
0, 0, 13, 6.486793518066406
0, 0, 14, 6.429558753967285
0, 0, 15, 9.867312431335449
0, 0, 16, 8.87250804901123
0, 0, 17, 10.84784984588623
0, 0, 18, 15.93762683868408
0, 0, 19, 44.46686935424805
0, 0, 20, 139.8004760742188
0, 0, 21, 224.4467010498047
0, 0, 22, 248.4541015625
0, 0, 23, 255.5565338134766
0, 0, 24, 251.5510406494141
0, 0, 25, 259.3803405761719
0, 0, 26, 233.3245849609375
0, 0, 27, 236.0980987548828
0, 0, 28, 273.9237670898438
0, 0, 29, 253.1349487304688
0, 0, 30, 228.9582672119141
0, 0, 31, 243.0185394287109
0, 0, 32, 263.3128356933594
0, 0, 33, 262.460205078125
0, 0, 34, 288.7447204589844
0, 0, 35, 266.703369140625
0, 0, 36, 245.9372711181641
0, 0, 37, 250.9318237304688
0, 0, 38, 268.0256042480469
0, 0, 39, 230.1145782470703
0, 0, 40, 242.1003265380859
0, 0, 41, 266.9069519042969
0, 0, 42, 230.1941680908203
0, 0, 43, 262.8551940917969
0, 0, 44, 251.8550262451172
0, 0, 45, 252.2690887451172
0, 0, 46, 243.9090270996094
0, 0, 47, 253.6045684814453
0, 0, 48, 267.9287719726562
0, 0, 49, 275.5747375488281
0, 0, 50, 250.9978179931641
0, 0, 51, 253.6497955322266
0, 0, 52, 271.7763977050781
0, 0, 53, 290.8715209960938
0, 0, 54, 242.1645355224609
0, 0, 55, 241.6976928710938
0, 0, 56, 278.2352600097656
0, 0, 57, 263.5653686523438
0, 0, 58, 245.1817932128906
0, 0, 59, 274.0851440429688
0, 0, 60, 233.2835235595703
0, 0, 61, 247.1163940429688
0, 0, 62, 259.5077209472656
0, 0, 63, 266.7251281738281
0, 0, 64, 256.6825256347656
0, 0, 65, 260.734619140625
0, 0, 66, 276.1087951660156
0, 0, 67, 246.5449676513672
0, 0, 68, 258.7829284667969
0, 0, 69, 261.6879577636719
0, 0, 70, 271.8401184082031
0, 0, 71, 239.2752380371094
0, 0, 72, 249.1488647460938
0, 0, 73, 259.6486511230469
0, 0, 74, 251.1663513183594
0, 0, 75, 240.4043121337891
0, 0, 76, 226.9855194091797
0, 0, 77, 258.9466247558594
0, 0, 78, 258.2120056152344
0, 0, 79, 280.754150390625
0, 0, 80, 217.8384399414062
0, 0, 81, 267.9878234863281
0, 0, 82, 255.7457580566406
0, 0, 83, 245.2862243652344
0, 0, 84, 270.6397705078125
0, 0, 85, 233.5673980712891
0, 0, 86, 253.2913970947266
0, 0, 87, 251.302978515625
0, 0, 88, 259.9526672363281
0, 0, 89, 283.0657653808594
0, 0, 90, 245.5106811523438
0, 0, 91, 281.0356750488281
0, 0, 92, 253.8551025390625
0, 0, 93, 249.9088592529297
0, 0, 94, 248.4889984130859
0, 0, 95, 248.9478454589844
0, 0, 96, 275.7370300292969
0, 0, 97, 271.8616333007812
0, 0, 98, 271.5725402832031
0, 0, 99, 258.1597595214844
0, 0, 100, 258.1331176757812
0, 0, 101, 225.3608551025391
0, 0, 102, 233.4936828613281
0, 0, 103, 270.6054382324219
0, 0, 104, 255.5894165039062
0, 0, 105, 252.7340545654297
0, 0, 106, 245.5792236328125
0, 0, 107, 151.9473266601562
0, 0, 108, 38.95986557006836
0, 0, 109, 13.33955574035645
0, 0, 110, 12.14103412628174
0, 0, 111, 9.195289611816406
0, 0, 112, 6.914767742156982
0, 0, 113, 7.80376148223877
0, 0, 114, 6.634870052337646
0, 0, 115, 3.977080106735229
0, 0, 116, 4.811933040618896
0, 0, 117, 5.474948883056641
0, 0, 118, 5.443474769592285
0, 0, 119, 7.267701625823975
0, 0, 120, 4.564440727233887
0, 0, 121, 4.956034183502197
0, 0, 122, 2.979405403137207
0, 0, 123, 3.74809193611145
0, 0, 124, 5.3821702003479
0, 0, 125, 4.301129341125488
0, 0, 126, 5.040925025939941
0, 0, 127, 2.853841781616211
0, 1, 0, 6.754260063171387
0, 1, 1, 3.685733556747437
0, 1, 2, 4.279449462890625
0, 1, 3, 2.491075038909912
0, 1, 4, 3.450982332229614
0, 1, 5, 2.872654676437378
0, 1, 6, 3.882292032241821
0, 1, 7, 7.687997341156006
0, 1, 8, 5.699734210968018
0, 1, 9, 5.793084144592285
0, 1, 10, 5.885588645935059
0, 1, 11, 11.3269100189209
0, 1, 12, 8.651013374328613
0, 1, 13, 9.629264831542969
0, 1, 14, 7.37569522857666
0, 1, 15, 9.554577827453613
0, 1, 16, 11.26381969451904
0, 1, 17, 10.25159645080566
0, 1, 18, 19.99032783508301
0, 1, 19, 65.41111755371094
0, 1, 20, 198.466552734375
0, 1, 21, 254.0926361083984
0, 1, 22, 297.3264465332031
0, 1, 23, 284.0620422363281
0, 1, 24, 276.1619262695312
0, 1, 25, 286.7929382324219
0, 1, 26, 268.0973510742188
0, 1, 27, 306.8096008300781
0, 1, 28, 303.5508117675781
0, 1, 29, 297.0933837890625
0, 1, 30, 279.8827819824219
0, 1, 31, 293.5248107910156
0, 1, 32, 290.3881225585938
0, 1, 33, 295.5447082519531
0, 1, 34, 291.0185546875
0, 1, 35, 280.3277282714844
0, 1, 36, 308.9397277832031
0, 1, 37, 295.4363403320312
0, 1, 38, 280.3889465332031
0, 1, 39, 295.5338134765625
0, 1, 40, 265.2228393554688
0, 1, 41, 286.7625732421875
0, 1, 42, 291.6647644042969
0, 1, 43, 332.8912048339844
0, 1, 44, 278.7758483886719
0, 1, 45, 292.5482177734375
0, 1, 46, 259.5
0, 1, 47, 310.0401306152344
0, 1, 48, 282.533447265625
0, 1, 49, 304.448486328125
0, 1, 50, 265.2712707519531
0, 1, 51, 273.3831176757812
0, 1, 52, 298.4844665527344
0, 1, 53, 304.9438781738281
0, 1, 54, 279.1298217773438
0, 1, 55, 295.5823364257812
0, 1, 56, 280.1300659179688
0, 1, 57, 298.24658203125
0, 1, 58, 309.0055847167969
0, 1, 59, 294.3736267089844
0, 1, 60, 298.0558471679688
0, 1, 61, 275.9016418457031
0, 1, 62, 310.0599670410156
0, 1, 63, 284.5871887207031
0, 1, 64, 293.6253967285156
0, 1, 65, 294.9102783203125
0, 1, 66, 293.254638671875
0, 1, 67, 293.1397399902344
0, 1, 68, 277.2135620117188
0, 1, 69, 278.9869995117188
0, 1, 70, 270.939697265625
0, 1, 71, 274.9797973632812
0, 1, 72, 286.9644165039062
0, 1, 73, 303.8482360839844
0, 1, 74, 304.8910217285156
0, 1, 75, 293.0260314941406
0, 1, 76, 285.3116455078125
0, 1, 77, 290.5417175292969
0, 1, 78, 297.8097534179688
0, 1, 79, 300.0150146484375
0, 1, 80, 299.177001953125
0, 1, 81, 299.7340087890625
0, 1, 82, 284.6135864257812
0, 1, 83, 331.6053771972656
0, 1, 84, 309.4178771972656
0, 1, 85, 252.238037109375
0, 1, 86, 293.7754516601562
0, 1, 87, 289.7985534667969
0, 1, 88, 299.4634094238281
0, 1, 89, 290.3142700195312
0, 1, 90, 269.2916564941406
0, 1, 91, 316.8352661132812
0, 1, 92, 290.9971923828125
0, 1, 93, 285.694091796875
0, 1, 94, 306.1650085449219
0, 1, 95, 284.1022644042969
0, 1, 96, 283.0975341796875
0, 1, 97, 302.2866821289062
0, 1, 98, 277.5923156738281
0, 1, 99, 265.8174438476562
0, 1, 100, 276.4096069335938
0, 1, 101, 281.1432495117188
0, 1, 102, 278.4241027832031
0, 1, 103, 280.2308349609375
0, 1, 104, 304.9327697753906
0, 1, 105, 296.5317687988281
0, 1, 106, 260.562255859375
0, 1, 107, 191.607177734375
0, 1, 108, 82.89928436279297
0, 1, 109, 23.19525718688965
0, 1, 110, 11.63584232330322
0, 1, 111, 9.060812950134277
0, 1, 112, 12.98829174041748
0, 1, 113, 4.620503425598145
0, 1, 114, 6.692331314086914
0, 1, 115, 8.954030990600586
0, 1, 116, 13.86226367950439
0, 1, 117, 7.243178367614746
0, 1, 118, 5.018381118774414
0, 1, 119, 5.530055522918701
0, 1, 120, 5.121594905853271
0, 1, 121, 3.157173156738281
0, 1, 122, 4.444479465484619
0, 1, 123, 3.152050733566284
0, 1, 124, 9.205463409423828
0, 1, 125, 4.078835487365723
0, 1, 126, 4.539567947387695
0, 1, 127, 1.527240753173828
0, 2, 0, 4.076677322387695
0, 2, 1, 3.15502405166626
0, 2, 2, 5.7336106300354
0, 2, 3, 4.06667947769165
0, 2, 4, 2.63248872756958
0, 2, 5, 1.385352969169617
0, 2, 6, 2.894203662872314
0, 2, 7, 2.930595636367798
0, 2, 8, 4.710771083831787
0, 2, 9, 6.930694103240967
0, 2, 10, 7.623579502105713
0, 2, 11, 6.378737926483154
0, 2, 12, 5.820288181304932
0, 2, 13, 11.08946895599365
0, 2, 14, 12.63147354125977
0, 2, 15, 9.024576187133789
0, 2, 16, 9.394735336303711
0, 2, 17, 18.08191108703613
0, 2, 18, 32.58506774902344
0, 2, 19, 115.7307891845703
0, 2, 20, 245.5370635986328
0, 2, 21, 271.9752502441406
0, 2, 22, 315.5067443847656
0, 2, 23, 302.7459106445312
0, 2, 24, 287.5760498046875
0, 2, 25, 301.7627563476562
0, 2, 26, 292.0628356933594
0, 2, 27, 276.2321166992188
0, 2, 28, 271.4038696289062
0, 2, 29, 275.2405395507812
0, 2, 30, 289.1318359375
0, 2, 31, 277.3116760253906
0, 2, 32, 294.5735778808594
0, 2, 33, 284.2998352050781
0, 2, 34, 333.9161682128906
0, 2, 35, 289.5869445800781
0, 2, 36, 301.3418884277344
0, 2, 37, 316.2330322265625
0, 2, 38, 312.4558410644531
0, 2, 39, 267.9652099609375
0, 2, 40, 306.8314208984375
0, 2, 41, 293.0555419921875
0, 2, 42, 303.7811889648438
0, 2, 43, 309.8140258789062
0, 2, 44, 309.9050598144531
0, 2, 45, 325.7453308105469
0, 2, 46, 289.0516052246094
0, 2, 47, 302.1131591796875
0, 2, 48, 283.0623474121094
0, 2, 49, 278.8749084472656
0, 2, 50, 293.4094543457031
0, 2, 51, 286.5350646972656
0, 2, 52, 271.9956970214844
0, 2, 53, 286.9583740234375
0, 2, 54, 281.53857421875
0, 2, 55, 274.4606323242188
0, 2, 56, 302.4211120605469
0, 2, 57, 292.0483093261719
0, 2, 58, 300.7720642089844
0, 2, 59, 289.8537292480469
0, 2, 60, 319.3926086425781
0, 2, 61, 301.0777893066406
0, 2, 62, 314.5543212890625
0, 2, 63, 303.2941589355469
0, 2, 64, 299.5003051757812
0, 2, 65, 315.3070068359375
0, 2, 66, 280.1336975097656
0, 2, 67, 293.2406311035156
0, 2, 68, 296.2116088867188
0, 2, 69, 311.0294494628906
0, 2, 70, 332.936279296875
0, 2, 71, 285.1058349609375
0, 2, 72, 307.5281677246094
0, 2, 73, 311.5392761230469
0, 2, 74, 286.097900390625
0, 2, 75, 302.8989868164062
0, 2, 76, 287.4634704589844
0, 2, 77, 298.4530944824219
0, 2, 78, 316.9269104003906
0, 2, 79, 309.1889953613281
0, 2, 80, 296.4183349609375
0, 2, 81, 282.2351379394531
0, 2, 82, 317.76953125
0, 2, 83, 312.499267578125
0, 2, 84, 290.9920654296875
0, 2, 85, 281.4472351074219
0, 2, 86, 323.281005859375
0, 2, 87, 286.2047424316406
0, 2, 88, 279.1256408691406
0, 2, 89, 299.4637451171875
0, 2, 90, 294.9942626953125
0, 2, 91, 275.3699035644531
0, 2, 92, 304.4900817871094
0, 2, 93, 315.88818359375
0, 2, 94, 291.7356872558594
0, 2, 95, 315.8088073730469
0, 2, 96, 314.3279113769531
0, 2, 97, 289.8045043945312
0, 2, 98, 294.6176147460938
0, 2, 99, 273.0267028808594
0, 2, 100, 305.2787475585938
0, 2, 101, 301.8508911132812
0, 2, 102, 296.8570251464844
0, 2, 103, 291.7607116699219
0, 2, 104, 293.6714782714844
0, 2, 105, 275.6402282714844
0, 2, 106, 296.3274230957031
0, 2, 107, 270.5763244628906
0, 2, 108, 116.0740051269531
0, 2, 109, 31.27876472473145
0, 2, 110, 10.03403949737549
0, 2, 111, 11.39609336853027
0, 2, 112, 8.898134231567383
0, 2, 113, 9.911715507507324
0, 2, 114, 10.7517032623291
0, 2, 115, 11.82237434387207
0, 2, 116, 8.708096504211426
0, 2, 117, 7.337874889373779
0, 2, 118, 1.850278854370117
0, 2, 119, 4.174460411071777
0, 2, 120, 6.882085800170898
0, 2, 121, 1.619530081748962
0, 2, 122, 2.735498189926147
0, 2, 123, 3.921619176864624
0, 2, 124, 2.565771579742432
0, 2, 125, 5.987314701080322
0, 2, 126, 3.492009401321411
0, 2, 127, 4.657428741455078
0, 3, 0, 3.798336029052734
0, 3, 1, 3.286410093307495
0, 3, 2, 4.922430992126465
0, 3, 3, 1.438794136047363
0, 3, 4, 2.865486621856689
0, 3, 5, 6.572004795074463
0, 3, 6, 6.604272365570068
0, 3, 7, 4.892515659332275
0, 3, 8, 6.195071697235107
0, 3, 9, 5.702342510223389
0, 3, 10, 9.919465065002441
0, 3, 11, 4.171140193939209
0, 3, 12, 7.482839107513428
0, 3, 13, 14.58626079559326
0, 3, 14, 12.82897663116455
0, 3, 15, 13.60299015045166
0, 3, 16, 11.21128463745117
0, 3, 17, 19.3454418182373
0, 3, 18, 52.0322380065918
0, 3, 19, 177.2597961425781
0, 3, 20, 272.45703125
0, 3, 21, 270.5967102050781
0, 3, 22, 280.1633605957031
0, 3, 23, 285.7870178222656
0, 3, 24, 285.9987182617188
0, 3, 25, 269.8424987792969
0, 3, 26, 303.1924438476562
0, 3, 27, 292.218017578125
0, 3, 28, 279.1622924804688
0, 3, 29, 336.8462829589844
0, 3, 30, 315.6232299804688
0, 3, 31, 288.3568115234375
0, 3, 32, 306.10400390625
0, 3, 33, 313.4219055175781
0, 3, 34, 322.0747375488281
0, 3, 35, 307.3346862792969
0, 3, 36, 267.9061279296875
0, 3, 37, 316.0447692871094
0, 3, 38, 304.8979187011719
0, 3, 39, 289.2537536621094
0, 3, 40, 265.5077514648438
0, 3, 41, 300.1182861328125
0, 3, 42, 289.3974914550781
0, 3, 43, 305.0148010253906
0, 3, 44, 311.4170227050781
0, 3, 45, 289.9845581054688
0, 3, 46, 329.3865051269531
0, 3, 47, 299.4046020507812
0, 3, 48, 302.8988952636719
0, 3, 49, 276.8697204589844
0, 3, 50, 289.4630126953125
0, 3, 51, 275.2035217285156
0, 3, 52, 316.4032897949219
0, 3, 53, 288.7825927734375
0, 3, 54, 288.3889465332031
0, 3, 55, 282.0263061523438
0, 3, 56, 298.6535034179688
0, 3, 57, 288.6119079589844
0, 3, 58, 306.3739318847656
0, 3, 59, 294.5
0, 3, 60, 298.7838134765625
0, 3, 61, 264.6369323730469
0, 3, 62, 286.0063781738281
0, 3, 63, 305.2742614746094
0, 3, 64, 316.5431518554688
0, 3, 65, 309.1728515625
0, 3, 66, 314.7511596679688
0, 3, 67, 317.9287414550781
0, 3, 68, 279.4489135742188
0, 3, 69, 283.2084045410156
0, 3, 70, 289.5552368164062
0, 3, 71, 297.7970275878906
0, 3, 72, 271.63720703125
0, 3, 73, 308.5550537109375
0, 3, 74, 291.5292358398438
0, 3, 75, 289.5978088378906
0, 3, 76, 307.6429748535156
0, 3, 77, 312.9490661621094
0, 3, 78, 305.76806640625
0, 3, 79, 282.4189453125
0, 3, 80, 292.1227722167969
0, 3, 81, 309.0561828613281
0, 3, 82, 314.7524719238281
0, 3, 83, 301.2664489746094
0, 3, 84, 312.5650634765625
0, 3, 85, 294.86279296875
0, 3, 86, 301.118408203125
0, 3, 87, 299.1033630371094
0, 3, 88, 298.9595336914062
0, 3, 89, 295.4546203613281
0, 3, 90, 278.3661804199219
0, 3, 91, 283.6336059570312
0, 3, 92, 306.0208435058594
0, 3, 93, 312.6937866210938
0, 3, 94, 297.3113708496094
0, 3, 95, 336.711669921875
0, 3, 96, 290.1677856445312
0, 3, 97, 284.5867919921875
0, 3, 98, 276.9027099609375
0, 3, 99, 261.9540405273438
0, 3, 100, 284.7905883789062
0, 3, 101, 298.1543579101562
0, 3, 102, 274.2976684570312
0, 3, 103, 320.8968505859375
0, 3, 104, 307.4113159179688
0, 3, 105, 288.8509521484375
0, 3, 106, 302.0096130371094
0, 3, 107, 280.5840454101562
0, 3, 108, 167.0202789306641
0, 3, 109, 56.76675033569336
0, 3, 110, 18.70502662658691
0, 3, 111, 15.18850135803223
0, 3, 112, 11.66413879394531
0, 3, 113, 6.598624229431152
0, 3, 114, 11.93383407592773
0, 3, 115, 9.567978858947754
0, 3, 116, 7.807672500610352
0, 3, 117, 9.284897804260254
0, 3, 118, 6.928171157836914
0, 3, 119, 5.470125675201416
0, 3, 120, 10.05025196075439
0, 3, 121, 2.274109363555908
0, 3, 122, 3.744537115097046
0, 3, 123, 6.082201480865479
0, 3, 124, 2.106256723403931
0, 3, 125, 6.120584487915039
0, 3, 126, 4.182361125946045
0, 3, 127, 3.733591556549072
0, 4, 0, 3.32092809677124
0, 4, 1, 6.000962257385254
0, 4, 2, 3.76196813583374
0, 4, 3, 2.285170316696167
0, 4, 4, 6.582712173461914
0, 4, 5, 8.960379600524902
0, 4, 6, 7.014392852783203
0, 4, 7, 4.709289073944092
0, 4, 8, 4.706069946289062
0, 4, 9, 11.00187969207764
0, 4, 10, 8.278300285339355
0, 4, 11, 5.075370788574219
0, 4, 12, 7.135248184204102
0, 4, 13, 7.427725791931152
0, 4, 14, 11.44940853118896
0, 4, 15, 12.15946960449219
0, 4, 16, 12.97564506530762
0, 4, 17, 17.86314582824707
0, 4, 18, 93.89939117431641
0, 4, 19, 223.6017150878906
0, 4, 20, 283.0938720703125
0, 4, 21, 273.9002380371094
0, 4, 22, 305.0168151855469
0, 4, 23, 268.3885803222656
0, 4, 24, 289.3412780761719
0, 4, 25, 273.3374938964844
0, 4, 26, 296.1689758300781
0, 4, 27, 282.2605895996094
0, 4, 28, 306.8663940429688
0, 4, 29, 321.9996337890625
0, 4, 30, 308.9336242675781
0, 4, 31, 304.9630432128906
0, 4, 32, 282.3887939453125
0, 4, 33, 295.3516540527344
0, 4, 34, 300.5727233886719
0, 4, 35, 315.8562316894531
0, 4, 36, 296.0621032714844
0, 4, 37, 286.7423706054688
0, 4, 38, 298.6722106933594
0, 4, 39, 294.3279418945312
0, 4, 40, 302.5268859863281
0, 4, 41, 312.4548950195312
0, 4, 42, 328.5752258300781
0, 4, 43, 296.7100219726562
0, 4, 44, 323.3208618164062
0, 4, 45, 326.4875793457031
0, 4, 46, 304.5929870605469
0, 4, 47, 293.3817749023438
0, 4, 48, 296.4091186523438
0, 4, 49, 278.9361877441406
0, 4, 50, 297.4707946777344
0, 4, 51, 319.6578674316406
0, 4, 52, 325.587158203125
0, 4, 53, 302.5227966308594
0, 4, 54, 288.1729736328125
0, 4, 55, 314.1800537109375
0, 4, 56, 285.4384155273438
0, 4, 57, 311.9449768066406
0, 4, 58, 297.6397705078125
0, 4, 59, 306.6864624023438
0, 4, 60, 301.1246948242188
0, 4, 61, 314.7265625
0, 4, 62, 308.3959655761719
0, 4, 63, 299.710693359375
0, 4, 64, 328.9581909179688
0, 4, 65, 314.8401184082031
0, 4, 66, 294.057373046875
0, 4, 67, 285.0693664550781
0, 4, 68, 312.0744018554688
0, 4, 69, 279.5337829589844
0, 4, 70, 301.0046081542969
0, 4, 71, 321.1452026367188
0, 4, 72, 331.6854858398438
0, 4, 73, 298.2112121582031
0, 4, 74, 291.9756774902344
0, 4, 75, 288.1713256835938
0, 4, 76, 275.4461059570312
0, 4, 77, 279.5981140136719
0, 4, 78, 307.1522521972656
0, 4, 79, 318.6322326660156
0, 4, 80, 316.0037841796875
0, 4, 81, 314.0958862304688
0, 4, 82, 298.1054382324219
0, 4, 83, 299.9070129394531
0, 4, 84, 292.3277893066406
0, 4, 85, 295.2177429199219
0, 4, 86, 300.3475341796875
0, 4, 87, 284.7201538085938
0, 4, 88, 303.9338989257812
0, 4, 89, 297.6868896484375
0, 4, 90, 332.0865173339844
0, 4, 91, 301.2266235351562
0, 4, 92, 290.0276184082031
0, 4, 93, 299.0469665527344
0, 4, 94, 291.4780883789062
0, 4, 95, 291.3858947753906
0, 4, 96, 324.6313171386719
0, 4, 97, 275.478271484375
0, 4, 98, 325.5137329101562
0, 4, 99, 313.7833557128906
0, 4, 100, 300.10546875
0, 4, 101, 258.7009582519531
0, 4, 102, 295.9163513183594
0, 4, 103, 317.712158203125
0, 4, 104, 281.98388671875
0, 4, 105, 311.845947265625
0, 4, 106, 286.4009094238281
0, 4, 107, 294.5567321777344
0, 4, 108, 225.7191467285156
0, 4, 109, 79.92197418212891
0, 4, 110, 17.24803352355957
0, 4, 111, 13.43988037109375
0, 4, 112, 9.77208137512207
0, 4, 113, 9.831491470336914
0, 4, 114, 9.557984352111816
0, 4, 115, 8.808515548706055
0, 4, 116, 9.27578067779541
0, 4, 117, 6.544549942016602
0, 4, 118, 8.955626487731934
0, 4, 119, 7.949717998504639
0, 4, 120, 7.101715087890625
0, 4, 121, 4.522957801818848
0, 4, 122, 4.013125896453857
0, 4, 123, 6.395040988922119
0, 4, 124, 4.516224384307861
0, 4, 125, 10.64593887329102
0, 4, 126, 5.796811103820801
0, 4, 127, 3.295084953308105
0, 5, 0, 3.699056625366211
0, 5, 1, 3.516369581222534
0, 5, 2, 4.079430103302002
0, 5, 3, 4.015848636627197
0, 5, 4, 4.547013759613037
0, 5, 5, 8.463617324829102
0, 5, 6, 9.80027961730957
0, 5, 7, 4.816941738128662
0, 5, 8, 7.331775665283203
0, 5, 9, 5.713181972503662
0, 5, 10, 7.029653549194336
0, 5, 11, 9.235918998718262
0, 5, 12, 6.848736763000488
0, 5, 13, 5.574874401092529
0, 5, 14, 10.65800189971924
0, 5, 15, 16.18061828613281
0, 5, 16, 14.02313709259033
0, 5, 17, 29.74142837524414
0, 5, 18, 139.5917358398438
0, 5, 19, 289.2592468261719
0, 5, 20, 307.0826110839844
0, 5, 21, 316.9658508300781
0, 5, 22, 274.6607360839844
0, 5, 23, 311.5762634277344
0, 5, 24, 301.5845031738281
0, 5, 25, 289.2560119628906
0, 5, 26, 295.6136779785156
0, 5, 27, 322.0196533203125
0, 5, 28, 302.5156860351562
0, 5, 29, 296.0790100097656
0, 5, 30, 326.6267700195312
0, 5, 31, 288.3225402832031
0, 5, 32, 302.1959838867188
0, 5, 33, 303.9548034667969
0, 5, 34, 296.4171142578125
0, 5, 35, 308.5137939453125
0, 5, 36, 267.5810546875
0, 5, 37, 281.6324768066406
0, 5, 38, 292.5332641601562
0, 5, 39, 310.8405151367188
0, 5, 40, 307.499755859375
0, 5, 41, 273.1918640136719
0, 5, 42, 305.0144958496094
0, 5, 43, 314.072509765625
0, 5, 44, 291.9719848632812
0, 5, 45, 302.030517578125
0, 5, 46, 265.4826965332031
0, 5, 47, 280.2773742675781
0, 5, 48, 293.2759399414062
0, 5, 49, 286.7423706054688
0, 5, 50, 293.7255859375
0, 5, 51, 279.12841796875
0, 5, 52, 268.1246337890625
0, 5, 53, 282.7886047363281
0, 5, 54, 291.7988586425781
0, 5, 55, 347.8837585449219
0, 5, 56, 305.83984375
0, 5, 57, 308.6533813476562
0, 5, 58, 311.7129821777344
0, 5, 59, 302.9565734863281
0, 5, 60, 306.5906066894531
0, 5, 61, 280.3895874023438
0, 5, 62, 325.5101623535156
0, 5, 63, 289.4798278808594
0, 5, 64, 322.2947692871094
0, 5, 65, 307.8847045898438
0, 5, 66, 327.7500305175781
0, 5, 67, 313.6526489257812
0, 5, 68, 307.1300659179688
0, 5, 69, 309.86083984375
0, 5, 70, 300.7371215820312
0, 5, 71, 273.1748657226562
0, 5, 72, 311.547607421875
0, 5, 73, 302.2487182617188
0, 5, 74, 296.8746643066406
0, 5, 75, 294.795654296875
0, 5, 76, 285.8695983886719
0, 5, 77, 299.1560668945312
0, 5, 78, 321.191162109375
0, 5, 79, 305.5366516113281
0, 5, 80, 294.8839416503906
0, 5, 81, 325.3322448730469
0, 5, 82, 325.0743408203125
0, 5, 83, 282.4507446289062
0, 5, 84, 300.7116088867188
0, 5, 85, 270.3377685546875
0, 5, 86, 325.1474609375
0, 5, 87, 284.9261169433594
0, 5, 88, 312.8080139160156
0, 5, 89, 304.4466857910156
0, 5, 90, 315.607421875
0, 5, 91, 313.5515441894531
0, 5, 92, 296.1354675292969
0, 5, 93, 326.3074951171875
0, 5, 94, 308.406005859375
0, 5, 95, 295.6167907714844
0, 5, 96, 301.4719848632812
0, 5, 97, 296.1377868652344
0, 5, 98, 317.7090148925781
0, 5, 99, 302.5427856445312
0, 5, 100, 290.765380859375
0, 5, 101, 304.7999267578125
0, 5, 102, 293.0763244628906
0, 5, 103, 313.2486877441406
0, 5, 104, 302.7369079589844
0, 5, 105, 292.1356506347656
0, 5, 106, 282.10009765625
0, 5, 107, 295.0134887695312
0, 5, 108, 264.0713195800781
0, 5, 109, 157.6855621337891
0, 5, 110, 42.8648796081543
0, 5, 111, 20.20884704589844
0, 5, 112, 16.03181266784668
0, 5, 113, 12.6241569519043
0, 5, 114, 12.89207363128662
0, 5, 115, 8.247221946716309
0, 5, 116, 8.905202865600586
0, 5, 117, 7.359318256378174
0, 5, 118, 13.68903350830078
0, 5, 119, 5.937633514404297
0, 5, 120, 5.949831962585449
0, 5, 121, 5.952664375305176
0, 5, 122, 8.070094108581543
0, 5, 123, 6.866291999816895
0, 5, 124, 5.37943696975708
0, 5, 125, 2.904526710510254
0, 5, 126, 5.455845355987549
0, 5, 127, 3.307292699813843
0, 6, 0, 4.024333477020264
0, 6, 1, 4.591157913208008
0, 6, 2, 6.562095165252686
0, 6, 3, 6.07399845123291
0, 6, 4, 3.161628007888794
0, 6, 5, 6.170004367828369
0, 6, 6, 9.85169792175293
0, 6, 7, 5.025112628936768
0, 6, 8, 8.128761291503906
0, 6, 9, 7.843329429626465
0, 6, 10, 7.017920970916748
0, 6, 11, 7.935693264007568
0, 6, 12, 8.379186630249023
0, 6, 13, 14.29775333404541
0, 6, 14, 10.19229316711426
0, 6, 15, 16.55106735229492
0, 6, 16, 29.43440437316895
0, 6, 17, 53.22962951660156
0, 6, 18, 171.7861785888672
0, 6, 19, 274.9375610351562
0, 6, 20, 291.4994506835938
0, 6, 21, 316.8298034667969
0, 6, 22, 321.1697692871094
0, 6, 23, 305.7476501464844
0, 6, 24, 315.3087768554688
0, 6, 25, 315.9029235839844
0, 6, 26, 318.451904296875
0, 6, 27, 331.6520385742188
0, 6, 28, 295.2333068847656
0, 6, 29, 334.1636657714844
0, 6, 30, 279.8251342773438
0, 6, 31, 287.3743286132812
0, 6, 32, 340.5003356933594
0, 6, 33, 299.1665649414062
0, 6, 34, 340.4407348632812
0, 6, 35, 323.2694091796875
0, 6, 36, 273.9577331542969
0, 6, 37, 287.1786193847656
0, 6, 38, 310.361328125
0, 6, 39, 299.0140991210938
0, 6, 40, 283.428466796875
0, 6, 41, 297.527587890625
0, 6, 42, 303.0040588378906
0, 6, 43, 289.2157287597656
0, 6, 44, 280.9895629882812
0, 6, 45, 321.2665405273438
0, 6, 46, 301.6209716796875
0, 6, 47, 335.4280700683594
0, 6, 48, 295.4316711425781
0, 6, 49, 310.2021179199219
0, 6, 50, 329.1281127929688
0, 6, 51, 311.3259582519531
0, 6, 52, 320.6483764648438
0, 6, 53, 328.8229370117188
0, 6, 54, 302.6812438964844
0, 6, 55, 305.2917785644531
0, 6, 56, 293.4989013671875
0, 6, 57, 311.4490051269531
0, 6, 58, 260.2654418945312
0, 6, 59, 302.4659729003906
0, 6, 60, 312.7738647460938
0, 6, 61, 272.2385559082031
0, 6, 62, 335.1692504882812
0, 6, 63, 325.9789428710938
0, 6, 64, 293.7041015625
0, 6, 65, 287.2706909179688
0, 6, 66, 304.03173828125
0, 6, 67, 308.8417053222656
0, 6, 68, 293.3504638671875
0, 6, 69, 279.7334289550781
0, 6, 70, 275.1813659667969
0, 6, 71, 292.3238220214844
0, 6, 72, 313.2280578613281
0, 6, 73, 289.9472045898438
0, 6, 74, 329.6806945800781
0, 6, 75, 345.1027221679688
0, 6, 76, 295.6719970703125
0, 6, 77, 284.7335510253906
0, 6, 78, 279.1099548339844
0, 6, 79, 291.7137451171875
0, 6, 80, 299.1832580566406
0, 6, 81, 314.0979309082031
0, 6, 82, 319.9230651855469
0, 6, 83, 320.8528747558594
0, 6, 84, 295.8984680175781
0, 6, 85, 301.7998352050781
0, 6, 86, 330.6744384765625
0, 6, 87, 291.1545104980469
0, 6, 88, 308.046142578125
0, 6, 89, 305.864990234375
0, 6, 90, 300.8905944824219
0, 6, 91, 311.1880187988281
0, 6, 92, 284.1306762695312
0, 6, 93, 294.6619873046875
0, 6, 94, 275.3985595703125
0, 6, 95, 301.7639770507812
0, 6, 96, 344.7799682617188
0, 6, 97, 309.3815612792969
0, 6, 98, 301.2198181152344
0, 6, 99, 272.1907043457031
0, 6, 100, 311.48388671875
0, 6, 101, 293.163330078125
0, 6, 102, 307.6088256835938
0, 6, 103, 310.8174133300781
0, 6, 104, 293.4478454589844
0, 6, 105, 301.2789611816406
0, 6, 106, 306.3415222167969
0, 6, 107, 305.4335021972656
0, 6, 108, 266.9182434082031
0, 6, 109, 187.5718078613281
0, 6, 110, 54.51840972900391
0, 6, 111, 20.73462867736816
0, 6, 112, 13.66365146636963
0, 6, 113, 13.10329341888428
0, 6, 114, 11.64632225036621
0, 6, 115, 10.40314292907715
0, 6, 116, 8.321759223937988
0, 6, 117, 12.627121925354
0, 6, 118, 9.649450302124023
0, 6, 119, 7.765634059906006
0, 6, 120, 6.150211334228516
0, 6, 121, 8.161562919616699
0, 6, 122, 11.26947689056396
0, 6, 123, 6.123617172241211
0, 6, 124, 7.575695991516113
0, 6, 125, 11.51894569396973
0, 6, 126, 4.741259574890137
0, 6, 127, 6.91867733001709
0, 7, 0, 4.823819160461426
0, 7, 1, 3.921103715896606
0, 7, 2, 6.478108406066895
0, 7, 3, 4.764914035797119
0, 7, 4, 5.373758792877197
0, 7, 5, 4.334563732147217
0, 7, 6, 4.99531364440918
0, 7, 7, 4.428744792938232
0, 7, 8, 4.256796360015869
0, 7, 9, 5.94473123550415
0, 7, 10, 8.350946426391602
0, 7, 11, 12.51525783538818
0, 7, 12, 12.12285614013672
0, 7, 13, 11.0368709564209
0, 7, 14, 12.28391742706299
0, 7, 15, 15.14027786254883
0, 7, 16, 26.63521194458008
0, 7, 17, 96.32669067382812
0, 7, 18, 221.1762847900391
0, 7, 19, 288.9190063476562
0, 7, 20, 296.3184814453125
0, 7, 21, 275.5357055664062
0, 7, 22, 298.3316955566406
0, 7, 23, 289.2514038085938
0, 7, 24, 314.1209411621094
0, 7, 25, 325.1017150878906
0, 7, 26, 277.2811279296875
0, 7, 27, 298.0413208007812
0, 7, 28, 327.8445739746094
0, 7, 29, 317.2020263671875
0, 7, 30, 301.2528686523438
0, 7, 31, 276.6990356445312
0, 7, 32, 303.0836181640625
0, 7, 33, 264.4563903808594
0, 7, 34, 297.23974609375
0, 7, 35, 319.5709228515625
0, 7, 36, 332.5433654785156
0, 7, 37, 322.8135070800781
0, 7, 38, 294.7153930664062
0, 7, 39, 306.0765075683594
0, 7, 40, 288.439697265625
0, 7, 41, 273.4471740722656
0, 7, 42, 301.193603515625
0, 7, 43, 274.2860717773438
0, 7, 44, 303.9230041503906
0, 7, 45, 295.1464233398438
0, 7, 46, 280.9234924316406
0, 7, 47, 330.9303894042969
0, 7, 48, 285.1232299804688
0, 7, 49, 303.3720703125
0, 7, 50, 321.6947021484375
0, 7, 51, 298.0497131347656
0, 7, 52, 326.4360961914062
0, 7, 53, 310.6403198242188
0, 7, 54, 323.8683776855469
0, 7, 55, 307.1870727539062
0, 7, 56, 280.26025390625
0, 7, 57, 281.6318969726562
0, 7, 58, 294.2385559082031
0, 7, 59, 291.7730407714844
0, 7, 60, 321.4723205566406
0, 7, 61, 277.0323486328125
0, 7, 62, 298.6711730957031
0, 7, 63, 292.6697998046875
0, 7, 64, 305.5792846679688
0, 7, 65, 329.1507873535156
0, 7, 66, 320.4526977539062
0, 7, 67, 302.4078063964844
0, 7, 68, 281.7467956542969
0, 7, 69, 294.5929565429688
0, 7, 70, 302.9448852539062
0, 7, 71, 311.4439697265625
0, 7, 72, 287.3068542480469
0, 7, 73, 294.6586608886719
0, 7, 74, 343.7729187011719
0, 7, 75, 321.0126953125
0, 7, 76, 322.4535522460938
0, 7, 77, 279.3069458007812
0, 7, 78, 301.6986694335938
0, 7, 79, 298.920654296875
0, 7, 80, 313.29541015625
0, 7, 81, 319.8687744140625
0, 7, 82, 328.8988342285156
0, 7, 83, 317.1614379882812
0, 7, 84, 310.3524780273438
0, 7, 85, 271.9133911132812
0, 7, 86, 311.8311462402344
0, 7, 87, 311.3181762695312
0, 7, 88, 307.7386169433594
0, 7, 89, 293.0132751464844
0, 7, 90, 304.9809875488281
0, 7, 91, 314.0321350097656
0, 7, 92, 287.560302734375
0, 7, 93, 307.623779296875
0, 7, 94, 272.1893615722656
0, 7, 95, 295.74560546875
0, 7, 96, 330.4510803222656
0, 7, 97, 295.1826782226562
0, 7, 98, 290.890380859375
0, 7, 99, 312.7216796875
0, 7, 100, 285.5773315429688
0, 7, 101, 274.3179016113281
0, 7, 102, 290.0182495117188
0, 7, 103, 292.2080993652344
0, 7, 104, 274.4076232910156
0, 7, 105, 304.5933837890625
0, 7, 106, 316.8413696289062
0, 7, 107, 298.9078979492188
0, 7, 108, 274.3897705078125
0, 7, 109, 237.0215911865234
0, 7, 110, 97.78956604003906
0, 7, 111, 24.72052192687988
0, 7, 112, 12.65241622924805
0, 7, 113, 13.62751770019531
0, 7, 114, 12.03569507598877
0, 7, 115, 12.43686389923096
0, 7, 116, 8.517738342285156
0, 7, 117, 10.24999618530273
0, 7, 118, 9.662277221679688
0, 7, 119, 7.120770931243896
0, 7, 120, 4.904293060302734
0, 7, 121, 8.272623062133789
0, 7, 122, 6.726312160491943
0, 7, 123, 5.992344379425049
0, 7, 124, 6.170027256011963
0, 7, 125, 6.171412944793701
0, 7, 126, 6.925793170928955
0, 7, 127, 1.078342914581299
0, 8, 0, 6.212636470794678
0, 8, 1, 3.930089473724365
0, 8, 2, 5.613901138305664
0, 8, 3, 2.694515228271484
0, 8, 4, 4.435111999511719
0, 8, 5, 6.314261436462402
0, 8, 6, 4.941827297210693
0, 8, 7, 5.261254787445068
0, 8, 8, 7.239984035491943
0, 8, 9, 7.019333839416504
0, 8, 10, 6.128054141998291
0, 8, 11, 11.10221290588379
0, 8, 12, 14.72658443450928
0, 8, 13, 16.98316383361816
0, 8, 14, 14.43006229400635
0, 8, 15, 20.49151802062988
0, 8, 16, 33.17473983764648
0, 8, 17, 132.4036712646484
0, 8, 18, 245.426025390625
0, 8, 19, 294.1693115234375
0, 8, 20, 286.0863342285156
0, 8, 21, 307.9959106445312
0, 8, 22, 294.229248046875
0, 8, 23, 274.56103515625
0, 8, 24, 270.4793395996094
0, 8, 25, 275.5558776855469
0, 8, 26, 305.5399169921875
0, 8, 27, 308.4891357421875
0, 8, 28, 305.1915588378906
0, 8, 29, 318.9544982910156
0, 8, 30, 319.6775512695312
0, 8, 31, 304.6265563964844
0, 8, 32, 280.4241943359375
0, 8, 33, 293.8529357910156
0, 8, 34, 289.7194213867188
0, 8, 35, 277.3375549316406
0, 8, 36, 314.9349365234375
0, 8, 37, 341.1719360351562
0, 8, 38, 332.2218627929688
0, 8, 39, 281.3588256835938
0, 8, 40, 302.641845703125
