# TOPAS Version: 3.1.p3
# Parameter File: batch_inserts_272.txt
# Results for scorer Readout_Adipose
# Scored in component: MyBox
# X in 1 bin  of 0.75 cm
# Y in 512 bins of 0.0783984 cm
# Z in 128 bins of 0.078125 cm
# EnergyDeposit ( MeV ) : Sum   
0, 0, 0, 3.933813571929932
0, 0, 1, 1.028529047966003
0, 0, 2, 3.002251863479614
0, 0, 3, 1.797009944915771
0, 0, 4, 3.988593101501465
0, 0, 5, 1.311250329017639
0, 0, 6, 6.302055358886719
0, 0, 7, 7.959431648254395
0, 0, 8, 2.611989736557007
0, 0, 9, 5.613540172576904
0, 0, 10, 6.290479183197021
0, 0, 11, 5.010373592376709
0, 0, 12, 4.149941921234131
0, 0, 13, 6.214060306549072
0, 0, 14, 6.549918651580811
0, 0, 15, 9.429985046386719
0, 0, 16, 8.754351615905762
0, 0, 17, 11.66252136230469
0, 0, 18, 14.03894710540771
0, 0, 19, 43.57162857055664
0, 0, 20, 141.0657348632812
0, 0, 21, 223.237548828125
0, 0, 22, 250.5210571289062
0, 0, 23, 256.7908325195312
0, 0, 24, 250.5935974121094
0, 0, 25, 258.8036499023438
0, 0, 26, 234.3340301513672
0, 0, 27, 235.7347412109375
0, 0, 28, 272.8444519042969
0, 0, 29, 253.9912109375
0, 0, 30, 229.9064636230469
0, 0, 31, 243.5122680664062
0, 0, 32, 263.8237609863281
0, 0, 33, 261.3311462402344
0, 0, 34, 287.5789489746094
0, 0, 35, 267.1764831542969
0, 0, 36, 245.7452545166016
0, 0, 37, 253.608154296875
0, 0, 38, 268.8575744628906
0, 0, 39, 229.4749450683594
0, 0, 40, 242.9074401855469
0, 0, 41, 266.5254211425781
0, 0, 42, 230.1069183349609
0, 0, 43, 261.6976318359375
0, 0, 44, 251.6300964355469
0, 0, 45, 254.1768493652344
0, 0, 46, 244.2646026611328
0, 0, 47, 252.9051666259766
0, 0, 48, 268.0761413574219
0, 0, 49, 273.6545104980469
0, 0, 50, 251.0255889892578
0, 0, 51, 252.3445129394531
0, 0, 52, 271.5216064453125
0, 0, 53, 291.5282287597656
0, 0, 54, 242.796630859375
0, 0, 55, 239.7367706298828
0, 0, 56, 279.4847412109375
0, 0, 57, 263.8067016601562
0, 0, 58, 248.7556610107422
0, 0, 59, 270.2448425292969
0, 0, 60, 235.4207611083984
0, 0, 61, 245.7972564697266
0, 0, 62, 256.5238952636719
0, 0, 63, 266.3334045410156
0, 0, 64, 257.9830322265625
0, 0, 65, 260.6727294921875
0, 0, 66, 275.9839172363281
0, 0, 67, 248.6874694824219
0, 0, 68, 259.0832824707031
0, 0, 69, 260.1915893554688
0, 0, 70, 272.8301086425781
0, 0, 71, 237.4121856689453
0, 0, 72, 250.1416625976562
0, 0, 73, 258.3848571777344
0, 0, 74, 251.6724395751953
0, 0, 75, 239.9814758300781
0, 0, 76, 228.6443939208984
0, 0, 77, 260.2479248046875
0, 0, 78, 257.481689453125
0, 0, 79, 277.7613830566406
0, 0, 80, 215.5181121826172
0, 0, 81, 265.9119262695312
0, 0, 82, 257.1744079589844
0, 0, 83, 244.0188598632812
0, 0, 84, 269.5807189941406
0, 0, 85, 232.0499420166016
0, 0, 86, 253.7910766601562
0, 0, 87, 250.8787841796875
0, 0, 88, 260.0847473144531
0, 0, 89, 281.4889526367188
0, 0, 90, 244.1799468994141
0, 0, 91, 280.5928955078125
0, 0, 92, 253.9495086669922
0, 0, 93, 249.700927734375
0, 0, 94, 247.3809967041016
0, 0, 95, 247.7190399169922
0, 0, 96, 278.0311889648438
0, 0, 97, 272.6913757324219
0, 0, 98, 275.05908203125
0, 0, 99, 258.4436645507812
0, 0, 100, 259.0448303222656
0, 0, 101, 227.6860656738281
0, 0, 102, 231.88818359375
0, 0, 103, 269.6473693847656
0, 0, 104, 254.5025329589844
0, 0, 105, 250.3713531494141
0, 0, 106, 246.8753356933594
0, 0, 107, 151.240234375
0, 0, 108, 37.52035140991211
0, 0, 109, 11.38359451293945
0, 0, 110, 13.05017757415771
0, 0, 111, 10.23263549804688
0, 0, 112, 6.463842868804932
0, 0, 113, 5.560150146484375
0, 0, 114, 7.212198734283447
0, 0, 115, 4.747589588165283
0, 0, 116, 5.784778118133545
0, 0, 117, 7.569539546966553
0, 0, 118, 5.485822677612305
0, 0, 119, 6.146144390106201
0, 0, 120, 4.43374490737915
0, 0, 121, 4.112913608551025
0, 0, 122, 4.89014196395874
0, 0, 123, 4.786017417907715
0, 0, 124, 4.590128898620605
0, 0, 125, 4.777758121490479
0, 0, 126, 3.893514633178711
0, 0, 127, 4.890601634979248
0, 1, 0, 8.324298858642578
0, 1, 1, 3.482921600341797
0, 1, 2, 5.446456432342529
0, 1, 3, 1.293347954750061
0, 1, 4, 3.977662324905396
0, 1, 5, 4.508174419403076
0, 1, 6, 5.903499126434326
0, 1, 7, 6.062714099884033
0, 1, 8, 7.46431827545166
0, 1, 9, 3.452996969223022
0, 1, 10, 7.007763862609863
0, 1, 11, 11.5317325592041
0, 1, 12, 8.521112442016602
0, 1, 13, 8.582608222961426
0, 1, 14, 8.054622650146484
0, 1, 15, 7.33497428894043
0, 1, 16, 14.05207633972168
0, 1, 17, 13.44974803924561
0, 1, 18, 20.13344764709473
0, 1, 19, 67.35482788085938
0, 1, 20, 200.9555358886719
0, 1, 21, 253.8791809082031
0, 1, 22, 296.5888977050781
0, 1, 23, 285.3197326660156
0, 1, 24, 276.0772094726562
0, 1, 25, 291.5660095214844
0, 1, 26, 266.8351440429688
0, 1, 27, 305.8819274902344
0, 1, 28, 301.9286804199219
0, 1, 29, 296.7989196777344
0, 1, 30, 280.7392578125
0, 1, 31, 292.7984313964844
0, 1, 32, 290.309326171875
0, 1, 33, 295.5758361816406
0, 1, 34, 292.1500244140625
0, 1, 35, 278.3038330078125
0, 1, 36, 307.5929260253906
0, 1, 37, 296.0251770019531
0, 1, 38, 280.953125
0, 1, 39, 294.8469543457031
0, 1, 40, 265.7030029296875
0, 1, 41, 285.078369140625
0, 1, 42, 291.1547241210938
0, 1, 43, 332.2092895507812
0, 1, 44, 278.9266967773438
0, 1, 45, 292.9688720703125
0, 1, 46, 259.1894836425781
0, 1, 47, 311.5283813476562
0, 1, 48, 285.2323303222656
0, 1, 49, 302.2770080566406
0, 1, 50, 264.3543090820312
0, 1, 51, 271.3743286132812
0, 1, 52, 297.5567321777344
0, 1, 53, 306.5978088378906
0, 1, 54, 276.037109375
0, 1, 55, 293.3372497558594
0, 1, 56, 278.3630676269531
0, 1, 57, 298.2995300292969
0, 1, 58, 309.2582702636719
0, 1, 59, 292.9862670898438
0, 1, 60, 298.2384643554688
0, 1, 61, 275.5882873535156
0, 1, 62, 306.6832885742188
0, 1, 63, 285.1730041503906
0, 1, 64, 288.139892578125
0, 1, 65, 294.0666809082031
0, 1, 66, 294.1502990722656
0, 1, 67, 292.0151062011719
0, 1, 68, 279.3527526855469
0, 1, 69, 281.9984741210938
0, 1, 70, 270.5631103515625
0, 1, 71, 272.9687805175781
0, 1, 72, 284.8868713378906
0, 1, 73, 303.6485595703125
0, 1, 74, 304.7404174804688
0, 1, 75, 293.4723815917969
0, 1, 76, 287.0054016113281
0, 1, 77, 289.2459411621094
0, 1, 78, 297.8280029296875
0, 1, 79, 304.0885009765625
0, 1, 80, 296.7069091796875
0, 1, 81, 299.3290405273438
0, 1, 82, 283.977783203125
0, 1, 83, 333.8924255371094
0, 1, 84, 308.7677917480469
0, 1, 85, 252.1121215820312
0, 1, 86, 296.4295654296875
0, 1, 87, 290.8526306152344
0, 1, 88, 297.4500427246094
0, 1, 89, 291.6410827636719
0, 1, 90, 269.0074768066406
0, 1, 91, 317.2290649414062
0, 1, 92, 291.8462219238281
0, 1, 93, 286.8128967285156
0, 1, 94, 303.1050415039062
0, 1, 95, 283.5470581054688
0, 1, 96, 284.1552734375
0, 1, 97, 300.5535583496094
0, 1, 98, 276.2340087890625
0, 1, 99, 267.2511596679688
0, 1, 100, 277.4219665527344
0, 1, 101, 281.8689270019531
0, 1, 102, 280.8059692382812
0, 1, 103, 279.8806762695312
0, 1, 104, 306.3233642578125
0, 1, 105, 297.9539184570312
0, 1, 106, 261.3974609375
0, 1, 107, 194.4191589355469
0, 1, 108, 80.44229888916016
0, 1, 109, 23.5002613067627
0, 1, 110, 10.66331195831299
0, 1, 111, 8.947159767150879
0, 1, 112, 13.31282806396484
0, 1, 113, 6.003946781158447
0, 1, 114, 5.534208297729492
0, 1, 115, 5.437848091125488
0, 1, 116, 10.68587207794189
0, 1, 117, 7.34995698928833
0, 1, 118, 6.074112415313721
0, 1, 119, 5.502039909362793
0, 1, 120, 6.029942989349365
0, 1, 121, 3.850023984909058
0, 1, 122, 3.195959091186523
0, 1, 123, 4.000198364257812
0, 1, 124, 10.59910869598389
0, 1, 125, 3.860699653625488
0, 1, 126, 4.899402618408203
0, 1, 127, 1.089983701705933
0, 2, 0, 5.577396869659424
0, 2, 1, 2.655267238616943
0, 2, 2, 4.797362327575684
0, 2, 3, 5.480777263641357
0, 2, 4, 2.078019380569458
0, 2, 5, 1.098235130310059
0, 2, 6, 2.032434701919556
0, 2, 7, 4.738469123840332
0, 2, 8, 5.183948993682861
0, 2, 9, 9.529899597167969
0, 2, 10, 8.939552307128906
0, 2, 11, 5.747335910797119
0, 2, 12, 6.164031028747559
0, 2, 13, 9.814639091491699
0, 2, 14, 10.86291694641113
0, 2, 15, 7.759451866149902
0, 2, 16, 8.7489013671875
0, 2, 17, 16.71068382263184
0, 2, 18, 31.12213516235352
0, 2, 19, 117.9240798950195
0, 2, 20, 247.9303436279297
0, 2, 21, 270.4442443847656
0, 2, 22, 315.9194030761719
0, 2, 23, 300.9457397460938
0, 2, 24, 287.8976440429688
0, 2, 25, 302.6968078613281
0, 2, 26, 294.4375915527344
0, 2, 27, 274.74755859375
0, 2, 28, 271.6239624023438
0, 2, 29, 274.4172058105469
0, 2, 30, 291.7149353027344
0, 2, 31, 278.343505859375
0, 2, 32, 292.8447875976562
0, 2, 33, 282.2788391113281
0, 2, 34, 331.8654174804688
0, 2, 35, 294.1109008789062
0, 2, 36, 303.4997253417969
0, 2, 37, 314.9347534179688
0, 2, 38, 312.5498046875
0, 2, 39, 268.3208618164062
0, 2, 40, 308.6530151367188
0, 2, 41, 292.2894897460938
0, 2, 42, 303.1528625488281
0, 2, 43, 312.1126098632812
0, 2, 44, 310.8609313964844
0, 2, 45, 325.0603637695312
0, 2, 46, 285.8625183105469
0, 2, 47, 303.0711669921875
0, 2, 48, 281.847412109375
0, 2, 49, 279.4955139160156
0, 2, 50, 293.5754699707031
0, 2, 51, 284.7557678222656
0, 2, 52, 272.05908203125
0, 2, 53, 287.286376953125
0, 2, 54, 282.4796447753906
0, 2, 55, 275.0696105957031
0, 2, 56, 301.1268615722656
0, 2, 57, 290.6395568847656
0, 2, 58, 300.23779296875
0, 2, 59, 286.8646545410156
0, 2, 60, 319.2693786621094
0, 2, 61, 303.4255981445312
0, 2, 62, 314.5857849121094
0, 2, 63, 303.1319274902344
0, 2, 64, 296.1089782714844
0, 2, 65, 313.4118957519531
0, 2, 66, 280.3973693847656
0, 2, 67, 291.2294616699219
0, 2, 68, 295.7107238769531
0, 2, 69, 312.5111389160156
0, 2, 70, 335.9654235839844
0, 2, 71, 284.6176452636719
0, 2, 72, 302.4819946289062
0, 2, 73, 310.9276123046875
0, 2, 74, 286.3775939941406
0, 2, 75, 304.328125
0, 2, 76, 287.549560546875
0, 2, 77, 302.2815856933594
0, 2, 78, 315.2956848144531
0, 2, 79, 309.5176086425781
0, 2, 80, 295.3729858398438
0, 2, 81, 282.5658264160156
0, 2, 82, 318.841552734375
0, 2, 83, 312.1250305175781
0, 2, 84, 289.9721984863281
0, 2, 85, 279.8650207519531
0, 2, 86, 324.3964538574219
0, 2, 87, 287.925537109375
0, 2, 88, 280.5653686523438
0, 2, 89, 297.0903015136719
0, 2, 90, 297.8646240234375
0, 2, 91, 276.3140258789062
0, 2, 92, 304.8115844726562
0, 2, 93, 315.5321960449219
0, 2, 94, 292.537353515625
0, 2, 95, 313.5289001464844
0, 2, 96, 316.8003234863281
0, 2, 97, 290.4441833496094
0, 2, 98, 293.1140441894531
0, 2, 99, 273.6183471679688
0, 2, 100, 306.1287536621094
0, 2, 101, 300.1909484863281
0, 2, 102, 296.3123779296875
0, 2, 103, 291.0998840332031
0, 2, 104, 292.7472839355469
0, 2, 105, 275.9986267089844
0, 2, 106, 299.206298828125
0, 2, 107, 268.096923828125
0, 2, 108, 117.3375244140625
0, 2, 109, 31.48942947387695
0, 2, 110, 9.31273365020752
0, 2, 111, 12.56878852844238
0, 2, 112, 9.573415756225586
0, 2, 113, 9.386028289794922
0, 2, 114, 11.26218223571777
0, 2, 115, 8.918174743652344
0, 2, 116, 9.103002548217773
0, 2, 117, 6.207596302032471
0, 2, 118, 2.548865795135498
0, 2, 119, 2.975529670715332
0, 2, 120, 6.234673500061035
0, 2, 121, 2.18030858039856
0, 2, 122, 4.947888374328613
0, 2, 123, 5.740251541137695
0, 2, 124, 2.967100858688354
0, 2, 125, 4.930060386657715
0, 2, 126, 3.252752542495728
0, 2, 127, 3.872989654541016
0, 3, 0, 4.347851276397705
0, 3, 1, 3.133305072784424
0, 3, 2, 3.254094839096069
0, 3, 3, 1.383345484733582
0, 3, 4, 4.220543384552002
0, 3, 5, 7.526987075805664
0, 3, 6, 9.242123603820801
0, 3, 7, 7.315305233001709
0, 3, 8, 4.275991439819336
0, 3, 9, 8.50330924987793
0, 3, 10, 7.642181873321533
0, 3, 11, 4.44078254699707
0, 3, 12, 5.466392040252686
0, 3, 13, 16.24726104736328
0, 3, 14, 12.12538528442383
0, 3, 15, 15.47867870330811
0, 3, 16, 10.57284832000732
0, 3, 17, 20.32045364379883
0, 3, 18, 52.53659820556641
0, 3, 19, 175.8431701660156
0, 3, 20, 271.4820251464844
0, 3, 21, 270.6242065429688
0, 3, 22, 282.9934997558594
0, 3, 23, 285.7340393066406
0, 3, 24, 288.3193969726562
0, 3, 25, 272.194580078125
0, 3, 26, 303.9075622558594
0, 3, 27, 292.0615234375
0, 3, 28, 283.1258850097656
0, 3, 29, 336.8489379882812
0, 3, 30, 315.7965698242188
0, 3, 31, 285.1084899902344
0, 3, 32, 306.4942321777344
0, 3, 33, 314.67626953125
0, 3, 34, 322.3067321777344
0, 3, 35, 305.8953857421875
0, 3, 36, 269.8582763671875
0, 3, 37, 315.3614807128906
0, 3, 38, 302.0870666503906
0, 3, 39, 290.2785034179688
0, 3, 40, 266.4136047363281
0, 3, 41, 300.1689758300781
0, 3, 42, 284.8314514160156
0, 3, 43, 305.485595703125
0, 3, 44, 312.4940490722656
0, 3, 45, 290.4971008300781
0, 3, 46, 330.4531555175781
0, 3, 47, 299.3782348632812
0, 3, 48, 304.6039733886719
0, 3, 49, 275.7069091796875
0, 3, 50, 290.8887329101562
0, 3, 51, 277.9037475585938
0, 3, 52, 315.0849914550781
0, 3, 53, 287.6081237792969
0, 3, 54, 284.2288208007812
0, 3, 55, 284.2604675292969
0, 3, 56, 299.2418823242188
0, 3, 57, 290.4613952636719
0, 3, 58, 310.5980224609375
0, 3, 59, 296.7607421875
0, 3, 60, 298.2822875976562
0, 3, 61, 264.2899169921875
0, 3, 62, 282.4273376464844
0, 3, 63, 306.3482971191406
0, 3, 64, 317.098876953125
0, 3, 65, 304.994873046875
0, 3, 66, 314.8471984863281
0, 3, 67, 317.796630859375
0, 3, 68, 279.2335815429688
0, 3, 69, 282.4660949707031
0, 3, 70, 288.1820983886719
0, 3, 71, 299.4949645996094
0, 3, 72, 271.2993774414062
0, 3, 73, 310.8475341796875
0, 3, 74, 292.1220397949219
0, 3, 75, 291.5341796875
0, 3, 76, 306.12646484375
0, 3, 77, 314.2516479492188
0, 3, 78, 303.8188781738281
0, 3, 79, 282.2494201660156
0, 3, 80, 291.2190246582031
0, 3, 81, 310.4954833984375
0, 3, 82, 316.080078125
0, 3, 83, 299.435791015625
0, 3, 84, 310.6735534667969
0, 3, 85, 295.27001953125
0, 3, 86, 301.2121887207031
0, 3, 87, 299.5043334960938
0, 3, 88, 298.6144104003906
0, 3, 89, 294.8244323730469
0, 3, 90, 277.7504272460938
0, 3, 91, 283.1750183105469
0, 3, 92, 303.8530578613281
0, 3, 93, 313.3811645507812
0, 3, 94, 298.4344787597656
0, 3, 95, 336.8501281738281
0, 3, 96, 288.9478454589844
0, 3, 97, 282.1489868164062
0, 3, 98, 277.6985473632812
0, 3, 99, 263.538330078125
0, 3, 100, 285.85693359375
0, 3, 101, 298.6293334960938
0, 3, 102, 277.8855285644531
0, 3, 103, 319.690185546875
0, 3, 104, 310.4068603515625
0, 3, 105, 286.9012145996094
0, 3, 106, 301.3503112792969
0, 3, 107, 283.6626586914062
0, 3, 108, 167.1360778808594
0, 3, 109, 57.77924346923828
0, 3, 110, 17.89819717407227
0, 3, 111, 12.04025459289551
0, 3, 112, 11.15717124938965
0, 3, 113, 5.547234058380127
0, 3, 114, 9.765089988708496
0, 3, 115, 8.03675651550293
0, 3, 116, 6.562499046325684
0, 3, 117, 6.664700508117676
0, 3, 118, 6.438552856445312
0, 3, 119, 4.374129295349121
0, 3, 120, 4.272586822509766
0, 3, 121, 2.274910926818848
0, 3, 122, 2.545939445495605
0, 3, 123, 5.156452655792236
0, 3, 124, 2.00933313369751
0, 3, 125, 6.902904033660889
0, 3, 126, 5.136917591094971
0, 3, 127, 2.616390228271484
0, 4, 0, 3.205844879150391
0, 4, 1, 5.742522239685059
0, 4, 2, 3.556564807891846
0, 4, 3, 3.734771966934204
0, 4, 4, 5.268825054168701
0, 4, 5, 7.678288459777832
0, 4, 6, 6.915133476257324
0, 4, 7, 6.06718921661377
0, 4, 8, 3.415284156799316
0, 4, 9, 6.135238170623779
0, 4, 10, 4.719095230102539
0, 4, 11, 7.837853908538818
0, 4, 12, 6.864611148834229
0, 4, 13, 8.010828971862793
0, 4, 14, 12.76252174377441
0, 4, 15, 9.792170524597168
0, 4, 16, 14.98373413085938
0, 4, 17, 17.65226364135742
0, 4, 18, 96.03606414794922
0, 4, 19, 222.952392578125
0, 4, 20, 283.7160949707031
0, 4, 21, 271.7511291503906
0, 4, 22, 304.46728515625
0, 4, 23, 267.6129760742188
0, 4, 24, 288.9011840820312
0, 4, 25, 274.2234802246094
0, 4, 26, 295.4201965332031
0, 4, 27, 281.7238464355469
0, 4, 28, 308.0784301757812
0, 4, 29, 322.5315246582031
0, 4, 30, 309.0586242675781
0, 4, 31, 302.9101867675781
0, 4, 32, 280.7931823730469
0, 4, 33, 297.0160217285156
0, 4, 34, 298.9232482910156
0, 4, 35, 311.4017028808594
0, 4, 36, 295.5896911621094
0, 4, 37, 287.6241149902344
0, 4, 38, 296.9853210449219
0, 4, 39, 293.8077087402344
0, 4, 40, 301.5370178222656
0, 4, 41, 312.541259765625
0, 4, 42, 330.4922180175781
0, 4, 43, 296.6375732421875
0, 4, 44, 321.5190734863281
0, 4, 45, 322.8084411621094
0, 4, 46, 307.7033996582031
0, 4, 47, 293.7797241210938
0, 4, 48, 295.15966796875
0, 4, 49, 277.8836364746094
0, 4, 50, 296.2008361816406
0, 4, 51, 316.5169372558594
0, 4, 52, 329.3468933105469
0, 4, 53, 303.1642150878906
0, 4, 54, 287.1394348144531
0, 4, 55, 316.683349609375
0, 4, 56, 289.4181518554688
0, 4, 57, 311.1713562011719
0, 4, 58, 296.1575012207031
0, 4, 59, 308.8989868164062
0, 4, 60, 301.5578002929688
0, 4, 61, 315.9187622070312
0, 4, 62, 308.8861999511719
0, 4, 63, 301.2026672363281
0, 4, 64, 330.0671691894531
0, 4, 65, 315.7569885253906
0, 4, 66, 293.5313415527344
0, 4, 67, 284.4271545410156
0, 4, 68, 311.7508544921875
0, 4, 69, 276.135009765625
0, 4, 70, 298.3768615722656
0, 4, 71, 320.1309204101562
0, 4, 72, 330.69482421875
0, 4, 73, 299.2839050292969
0, 4, 74, 292.689453125
0, 4, 75, 290.8127136230469
0, 4, 76, 275.888427734375
0, 4, 77, 278.2525024414062
0, 4, 78, 308.3282470703125
0, 4, 79, 319.6857299804688
0, 4, 80, 314.7818298339844
0, 4, 81, 312.9698181152344
0, 4, 82, 297.4292907714844
0, 4, 83, 300.9848327636719
0, 4, 84, 292.0797424316406
0, 4, 85, 295.7938842773438
0, 4, 86, 299.8373107910156
0, 4, 87, 284.87353515625
0, 4, 88, 306.1015319824219
0, 4, 89, 293.9764404296875
0, 4, 90, 332.1413879394531
0, 4, 91, 301.30859375
0, 4, 92, 289.54638671875
0, 4, 93, 296.4002380371094
0, 4, 94, 294.3505554199219
0, 4, 95, 290.8463134765625
0, 4, 96, 324.1572875976562
0, 4, 97, 274.8182067871094
0, 4, 98, 327.7745666503906
0, 4, 99, 314.1795654296875
0, 4, 100, 300.9355163574219
0, 4, 101, 256.5427551269531
0, 4, 102, 295.7580261230469
0, 4, 103, 317.8527526855469
0, 4, 104, 280.8799743652344
0, 4, 105, 310.3046875
0, 4, 106, 285.7583312988281
0, 4, 107, 294.1997680664062
0, 4, 108, 227.4248199462891
0, 4, 109, 80.08186340332031
0, 4, 110, 16.25032424926758
0, 4, 111, 13.52462291717529
0, 4, 112, 7.244266986846924
0, 4, 113, 11.67471981048584
0, 4, 114, 8.012991905212402
0, 4, 115, 9.053911209106445
0, 4, 116, 10.39528656005859
0, 4, 117, 8.304093360900879
0, 4, 118, 8.19639778137207
0, 4, 119, 11.34192085266113
0, 4, 120, 4.910386085510254
0, 4, 121, 6.03225564956665
0, 4, 122, 5.466655254364014
0, 4, 123, 7.622869968414307
0, 4, 124, 3.461728096008301
0, 4, 125, 10.6124324798584
0, 4, 126, 5.814731597900391
0, 4, 127, 2.785014629364014
0, 5, 0, 4.374083995819092
0, 5, 1, 5.313605785369873
0, 5, 2, 3.441887617111206
0, 5, 3, 4.187750816345215
0, 5, 4, 4.822403430938721
0, 5, 5, 6.733748912811279
0, 5, 6, 8.16109561920166
0, 5, 7, 6.541269302368164
0, 5, 8, 4.998904705047607
0, 5, 9, 4.634509086608887
0, 5, 10, 6.958999156951904
0, 5, 11, 9.574352264404297
0, 5, 12, 9.928009986877441
0, 5, 13, 6.057746410369873
0, 5, 14, 13.70781517028809
0, 5, 15, 14.38314533233643
0, 5, 16, 16.15745735168457
0, 5, 17, 29.42137336730957
0, 5, 18, 137.6189117431641
0, 5, 19, 286.0621643066406
0, 5, 20, 307.619384765625
0, 5, 21, 318.0413818359375
0, 5, 22, 276.7147827148438
0, 5, 23, 313.6112060546875
0, 5, 24, 303.3428039550781
0, 5, 25, 289.0710754394531
0, 5, 26, 294.4902648925781
0, 5, 27, 321.2125854492188
0, 5, 28, 303.7624816894531
0, 5, 29, 298.383056640625
0, 5, 30, 326.275390625
0, 5, 31, 289.4630126953125
0, 5, 32, 301.215576171875
0, 5, 33, 303.3651428222656
0, 5, 34, 295.3320007324219
0, 5, 35, 310.8494262695312
0, 5, 36, 270.0892028808594
0, 5, 37, 281.5703735351562
0, 5, 38, 292.7460327148438
0, 5, 39, 314.1564331054688
0, 5, 40, 309.1552734375
0, 5, 41, 275.5948791503906
0, 5, 42, 305.0231018066406
0, 5, 43, 315.3215637207031
0, 5, 44, 291.4296875
0, 5, 45, 299.8457336425781
0, 5, 46, 265.0157165527344
0, 5, 47, 281.96484375
0, 5, 48, 294.0431213378906
0, 5, 49, 285.3289489746094
0, 5, 50, 293.3524169921875
0, 5, 51, 279.2840270996094
0, 5, 52, 267.9475402832031
0, 5, 53, 283.6405029296875
0, 5, 54, 289.9544372558594
0, 5, 55, 347.2518310546875
0, 5, 56, 304.8533630371094
0, 5, 57, 307.446533203125
0, 5, 58, 311.2352905273438
0, 5, 59, 303.1698608398438
0, 5, 60, 308.0134582519531
0, 5, 61, 280.054931640625
0, 5, 62, 324.3336486816406
0, 5, 63, 289.9476318359375
0, 5, 64, 321.9326782226562
0, 5, 65, 306.1201477050781
0, 5, 66, 327.7215881347656
0, 5, 67, 311.6178894042969
0, 5, 68, 307.4634399414062
0, 5, 69, 311.0415344238281
0, 5, 70, 304.04443359375
0, 5, 71, 274.5850524902344
0, 5, 72, 310.5761108398438
0, 5, 73, 303.2908325195312
0, 5, 74, 296.08837890625
0, 5, 75, 294.4573059082031
0, 5, 76, 286.8411865234375
0, 5, 77, 298.4096374511719
0, 5, 78, 312.813232421875
0, 5, 79, 306.7646484375
0, 5, 80, 296.584716796875
0, 5, 81, 326.2015380859375
0, 5, 82, 325.9602355957031
0, 5, 83, 281.6484680175781
0, 5, 84, 302.4380187988281
0, 5, 85, 270.484619140625
0, 5, 86, 324.039794921875
0, 5, 87, 282.9102172851562
0, 5, 88, 313.5204162597656
0, 5, 89, 303.6339721679688
0, 5, 90, 316.5474853515625
0, 5, 91, 312.8325805664062
0, 5, 92, 295.8446960449219
0, 5, 93, 321.6920166015625
0, 5, 94, 311.6775817871094
0, 5, 95, 296.8921508789062
0, 5, 96, 297.777099609375
0, 5, 97, 296.7341918945312
0, 5, 98, 317.7337951660156
0, 5, 99, 300.2694396972656
0, 5, 100, 291.1401672363281
0, 5, 101, 305.718994140625
0, 5, 102, 293.0196533203125
0, 5, 103, 314.8553466796875
0, 5, 104, 300.9104919433594
0, 5, 105, 292.2603759765625
0, 5, 106, 280.8507690429688
0, 5, 107, 295.2294006347656
0, 5, 108, 265.8142395019531
0, 5, 109, 158.6238861083984
0, 5, 110, 39.94449615478516
0, 5, 111, 21.15328407287598
0, 5, 112, 16.80170822143555
0, 5, 113, 15.94483089447021
0, 5, 114, 12.52463531494141
0, 5, 115, 6.967004299163818
0, 5, 116, 6.985134601593018
0, 5, 117, 8.233554840087891
0, 5, 118, 16.32414054870605
0, 5, 119, 4.131759643554688
0, 5, 120, 5.880169868469238
0, 5, 121, 4.528501510620117
0, 5, 122, 5.094976425170898
0, 5, 123, 5.882736206054688
0, 5, 124, 5.210100650787354
0, 5, 125, 4.946670055389404
0, 5, 126, 5.831526279449463
0, 5, 127, 4.536150455474854
0, 6, 0, 3.056966066360474
0, 6, 1, 2.899593114852905
0, 6, 2, 6.090288639068604
0, 6, 3, 4.785029888153076
0, 6, 4, 3.676363468170166
0, 6, 5, 6.561058044433594
0, 6, 6, 7.851286888122559
0, 6, 7, 5.525065422058105
0, 6, 8, 10.79038524627686
0, 6, 9, 5.308272838592529
0, 6, 10, 6.739214420318604
0, 6, 11, 7.306029796600342
0, 6, 12, 9.434396743774414
0, 6, 13, 12.66108226776123
0, 6, 14, 9.482612609863281
0, 6, 15, 17.26173210144043
0, 6, 16, 28.87813568115234
0, 6, 17, 54.649658203125
0, 6, 18, 172.9522857666016
0, 6, 19, 275.1859741210938
0, 6, 20, 290.9502563476562
0, 6, 21, 314.8779602050781
0, 6, 22, 319.8861389160156
0, 6, 23, 305.871337890625
0, 6, 24, 316.0853881835938
0, 6, 25, 317.3484497070312
0, 6, 26, 319.8018493652344
0, 6, 27, 330.4510498046875
0, 6, 28, 298.5601196289062
0, 6, 29, 331.4403076171875
0, 6, 30, 283.1720275878906
0, 6, 31, 286.25439453125
0, 6, 32, 338.8263244628906
0, 6, 33, 299.3018798828125
0, 6, 34, 339.4486999511719
0, 6, 35, 319.963134765625
0, 6, 36, 272.6507873535156
0, 6, 37, 291.6453247070312
0, 6, 38, 312.1924438476562
0, 6, 39, 304.2259521484375
0, 6, 40, 284.3290710449219
0, 6, 41, 296.0050964355469
0, 6, 42, 303.7284851074219
0, 6, 43, 289.2407836914062
0, 6, 44, 281.7221374511719
0, 6, 45, 318.5072631835938
0, 6, 46, 301.0188598632812
0, 6, 47, 331.4739990234375
0, 6, 48, 293.9609069824219
0, 6, 49, 311.4210205078125
0, 6, 50, 329.1943664550781
0, 6, 51, 310.5285034179688
0, 6, 52, 321.4007873535156
0, 6, 53, 329.3333129882812
0, 6, 54, 306.3970336914062
0, 6, 55, 305.2626037597656
0, 6, 56, 293.5473022460938
0, 6, 57, 311.62353515625
0, 6, 58, 261.7149047851562
0, 6, 59, 302.6487426757812
0, 6, 60, 313.4491577148438
0, 6, 61, 272.6929626464844
0, 6, 62, 341.1630554199219
0, 6, 63, 323.9669799804688
0, 6, 64, 292.0054016113281
0, 6, 65, 284.1694946289062
0, 6, 66, 304.1083068847656
0, 6, 67, 309.6127319335938
0, 6, 68, 293.2436218261719
0, 6, 69, 281.6629638671875
0, 6, 70, 274.6311950683594
0, 6, 71, 290.1984558105469
0, 6, 72, 309.7874450683594
0, 6, 73, 292.13818359375
0, 6, 74, 331.0284118652344
0, 6, 75, 344.5916137695312
0, 6, 76, 298.4895935058594
0, 6, 77, 289.8071899414062
0, 6, 78, 280.3158874511719
0, 6, 79, 292.9631042480469
0, 6, 80, 298.8821411132812
0, 6, 81, 315.3062438964844
0, 6, 82, 319.043701171875
0, 6, 83, 320.525146484375
0, 6, 84, 296.2098999023438
0, 6, 85, 300.1537170410156
0, 6, 86, 330.0755004882812
0, 6, 87, 291.4970092773438
0, 6, 88, 305.6657104492188
0, 6, 89, 303.2640380859375
0, 6, 90, 299.3649597167969
0, 6, 91, 312.6610717773438
0, 6, 92, 285.0602111816406
0, 6, 93, 298.2929077148438
0, 6, 94, 273.1931762695312
0, 6, 95, 300.2462463378906
0, 6, 96, 348.4901123046875
0, 6, 97, 308.448486328125
0, 6, 98, 301.4843139648438
0, 6, 99, 271.9266662597656
0, 6, 100, 309.8286743164062
0, 6, 101, 292.9690856933594
0, 6, 102, 305.8807983398438
0, 6, 103, 308.0528564453125
0, 6, 104, 292.1490783691406
0, 6, 105, 300.1813659667969
0, 6, 106, 306.4874877929688
0, 6, 107, 306.6329650878906
0, 6, 108, 264.82958984375
0, 6, 109, 185.6046142578125
0, 6, 110, 55.81583023071289
0, 6, 111, 21.94099426269531
0, 6, 112, 12.39399719238281
0, 6, 113, 9.771059036254883
0, 6, 114, 12.48620796203613
0, 6, 115, 11.71742725372314
0, 6, 116, 10.40256786346436
0, 6, 117, 8.430675506591797
0, 6, 118, 11.29365825653076
0, 6, 119, 8.23982048034668
0, 6, 120, 5.553909301757812
0, 6, 121, 6.784063339233398
0, 6, 122, 8.574400901794434
0, 6, 123, 4.467145442962646
0, 6, 124, 6.432800769805908
0, 6, 125, 6.887178897857666
0, 6, 126, 4.894969940185547
0, 6, 127, 7.150053024291992
0, 7, 0, 6.923101425170898
0, 7, 1, 3.549367666244507
0, 7, 2, 5.495166301727295
0, 7, 3, 2.711542844772339
0, 7, 4, 5.293783664703369
0, 7, 5, 6.57994270324707
0, 7, 6, 7.215070724487305
0, 7, 7, 3.74401068687439
0, 7, 8, 4.846461772918701
0, 7, 9, 5.981281280517578
0, 7, 10, 9.125514984130859
0, 7, 11, 11.19894027709961
0, 7, 12, 12.10054874420166
0, 7, 13, 13.66811561584473
0, 7, 14, 10.02852153778076
0, 7, 15, 19.06210327148438
0, 7, 16, 25.02453804016113
0, 7, 17, 98.68289184570312
0, 7, 18, 221.2810821533203
0, 7, 19, 290.1290893554688
0, 7, 20, 299.4147644042969
0, 7, 21, 276.0096740722656
0, 7, 22, 298.7872619628906
0, 7, 23, 289.4132080078125
0, 7, 24, 311.9674377441406
0, 7, 25, 323.4249877929688
0, 7, 26, 278.6583557128906
0, 7, 27, 298.0130310058594
0, 7, 28, 329.135009765625
0, 7, 29, 319.3917541503906
0, 7, 30, 299.0734558105469
0, 7, 31, 276.7561340332031
0, 7, 32, 304.9772338867188
0, 7, 33, 263.2408752441406
0, 7, 34, 298.7246704101562
0, 7, 35, 317.8165893554688
0, 7, 36, 333.6103515625
0, 7, 37, 323.4559326171875
0, 7, 38, 296.4423828125
0, 7, 39, 307.0113220214844
0, 7, 40, 287.8792114257812
0, 7, 41, 274.1359252929688
0, 7, 42, 304.0296325683594
0, 7, 43, 275.1894836425781
0, 7, 44, 303.9057006835938
0, 7, 45, 296.0977478027344
0, 7, 46, 286.8110656738281
0, 7, 47, 331.1166076660156
0, 7, 48, 284.483154296875
0, 7, 49, 302.8730163574219
0, 7, 50, 320.4467163085938
0, 7, 51, 298.9318542480469
0, 7, 52, 330.2666625976562
0, 7, 53, 312.2984313964844
0, 7, 54, 322.3234558105469
0, 7, 55, 308.0332641601562
0, 7, 56, 281.1699829101562
0, 7, 57, 283.1959838867188
0, 7, 58, 294.5106201171875
0, 7, 59, 292.3546447753906
0, 7, 60, 323.3641052246094
0, 7, 61, 277.8046569824219
0, 7, 62, 295.9573364257812
0, 7, 63, 293.5149230957031
0, 7, 64, 305.2830200195312
0, 7, 65, 331.02783203125
0, 7, 66, 317.1222229003906
0, 7, 67, 301.0817260742188
0, 7, 68, 280.8929138183594
0, 7, 69, 293.2045593261719
0, 7, 70, 302.2474060058594
0, 7, 71, 308.4396362304688
0, 7, 72, 285.6590576171875
0, 7, 73, 295.4825439453125
0, 7, 74, 343.4071350097656
0, 7, 75, 318.8895263671875
0, 7, 76, 322.1112060546875
0, 7, 77, 279.2997436523438
0, 7, 78, 300.3938903808594
0, 7, 79, 296.8664245605469
0, 7, 80, 310.6251525878906
0, 7, 81, 320.6084594726562
0, 7, 82, 327.8950500488281
0, 7, 83, 316.4954833984375
0, 7, 84, 309.7200927734375
0, 7, 85, 274.0152893066406
0, 7, 86, 312.5725402832031
0, 7, 87, 310.9298706054688
0, 7, 88, 309.1677551269531
0, 7, 89, 293.8070983886719
0, 7, 90, 308.3747253417969
0, 7, 91, 316.1946716308594
0, 7, 92, 288.1122131347656
0, 7, 93, 305.7468872070312
0, 7, 94, 272.6260986328125
0, 7, 95, 298.6898193359375
0, 7, 96, 334.0081176757812
0, 7, 97, 295.8666076660156
0, 7, 98, 291.3580627441406
0, 7, 99, 312.4788818359375
0, 7, 100, 280.5213317871094
0, 7, 101, 274.8838500976562
0, 7, 102, 291.64013671875
0, 7, 103, 291.1870422363281
0, 7, 104, 274.5869750976562
0, 7, 105, 307.0912780761719
0, 7, 106, 318.8931274414062
0, 7, 107, 296.6732482910156
0, 7, 108, 272.3004455566406
0, 7, 109, 236.2706756591797
0, 7, 110, 96.63703918457031
0, 7, 111, 23.51228713989258
0, 7, 112, 13.70607471466064
0, 7, 113, 13.7600793838501
0, 7, 114, 14.05808258056641
0, 7, 115, 11.75420379638672
0, 7, 116, 6.386965274810791
0, 7, 117, 5.759313583374023
0, 7, 118, 9.855570793151855
0, 7, 119, 6.134604930877686
0, 7, 120, 4.212589740753174
0, 7, 121, 6.029447555541992
0, 7, 122, 7.395477771759033
0, 7, 123, 6.08410120010376
0, 7, 124, 3.202271223068237
0, 7, 125, 6.722500324249268
0, 7, 126, 8.081291198730469
0, 7, 127, 1.286951899528503
0, 8, 0, 7.826046943664551
0, 8, 1, 5.207796573638916
0, 8, 2, 3.727852821350098
0, 8, 3, 2.593051433563232
0, 8, 4, 4.191898345947266
0, 8, 5, 4.83830451965332
0, 8, 6, 5.059885025024414
0, 8, 7, 5.331995964050293
0, 8, 8, 11.07367706298828
0, 8, 9, 5.212426662445068
0, 8, 10, 8.790422439575195
0, 8, 11, 12.23295402526855
0, 8, 12, 12.61754703521729
0, 8, 13, 14.95015335083008
0, 8, 14, 13.04917526245117
0, 8, 15, 18.09719085693359
0, 8, 16, 32.47930908203125
0, 8, 17, 129.1640319824219
0, 8, 18, 244.4286956787109
0, 8, 19, 295.4607543945312
0, 8, 20, 285.6043090820312
0, 8, 21, 306.9078674316406
0, 8, 22, 294.4140930175781
0, 8, 23, 274.712158203125
0, 8, 24, 270.3394165039062
0, 8, 25, 276.2771301269531
0, 8, 26, 307.0796508789062
0, 8, 27, 306.6089172363281
0, 8, 28, 304.0106506347656
0, 8, 29, 318.6012878417969
0, 8, 30, 313.1223754882812
0, 8, 31, 303.8552856445312
0, 8, 32, 280.8967590332031
0, 8, 33, 294.6900634765625
0, 8, 34, 288.1671752929688
0, 8, 35, 283.9149780273438
0, 8, 36, 315.3096618652344
0, 8, 37, 341.1768188476562
0, 8, 38, 330.4474487304688
0, 8, 39, 280.6819763183594
0, 8, 40, 305.4791564941406
