# TOPAS Version: 3.1.p3
# Parameter File: batch_inserts_274.txt
# Results for scorer Readout_Adipose
# Scored in component: MyBox
# X in 1 bin  of 0.75 cm
# Y in 512 bins of 0.0783984 cm
# Z in 128 bins of 0.078125 cm
# EnergyDeposit ( MeV ) : Sum   
0, 0, 0, 3.883761644363403
0, 0, 1, 1.865597367286682
0, 0, 2, 2.62620997428894
0, 0, 3, 1.524443387985229
0, 0, 4, 2.80985689163208
0, 0, 5, 2.382755041122437
0, 0, 6, 7.904129981994629
0, 0, 7, 8.306891441345215
0, 0, 8, 2.543161392211914
0, 0, 9, 2.840715169906616
0, 0, 10, 7.240696907043457
0, 0, 11, 4.57891321182251
0, 0, 12, 5.396882057189941
0, 0, 13, 7.0963454246521
0, 0, 14, 6.641635894775391
0, 0, 15, 10.56747627258301
0, 0, 16, 9.624786376953125
0, 0, 17, 9.572060585021973
0, 0, 18, 15.96185398101807
0, 0, 19, 45.00022506713867
0, 0, 20, 139.0846557617188
0, 0, 21, 223.4350738525391
0, 0, 22, 250.6824951171875
0, 0, 23, 258.0487365722656
0, 0, 24, 250.8858947753906
0, 0, 25, 258.974853515625
0, 0, 26, 233.8144073486328
0, 0, 27, 236.4449157714844
0, 0, 28, 273.405029296875
0, 0, 29, 252.9624328613281
0, 0, 30, 231.6115112304688
0, 0, 31, 244.6973266601562
0, 0, 32, 263.0616455078125
0, 0, 33, 261.8845825195312
0, 0, 34, 288.430908203125
0, 0, 35, 266.5296325683594
0, 0, 36, 246.1851806640625
0, 0, 37, 253.1036224365234
0, 0, 38, 269.1134643554688
0, 0, 39, 228.7416076660156
0, 0, 40, 241.4733276367188
0, 0, 41, 266.5749206542969
0, 0, 42, 229.3500061035156
0, 0, 43, 261.54541015625
0, 0, 44, 251.7021179199219
0, 0, 45, 252.7880706787109
0, 0, 46, 243.3460235595703
0, 0, 47, 252.6972961425781
0, 0, 48, 268.6882934570312
0, 0, 49, 274.1444091796875
0, 0, 50, 250.2728118896484
0, 0, 51, 251.6253356933594
0, 0, 52, 271.8348083496094
0, 0, 53, 291.2257995605469
0, 0, 54, 242.6701812744141
0, 0, 55, 242.1805725097656
0, 0, 56, 276.8620910644531
0, 0, 57, 265.2565307617188
0, 0, 58, 247.9433746337891
0, 0, 59, 271.2311706542969
0, 0, 60, 235.1862640380859
0, 0, 61, 246.4142608642578
0, 0, 62, 257.014404296875
0, 0, 63, 266.3193359375
0, 0, 64, 254.8556976318359
0, 0, 65, 260.7433471679688
0, 0, 66, 275.8335876464844
0, 0, 67, 246.8678436279297
0, 0, 68, 259.3378601074219
0, 0, 69, 260.8566284179688
0, 0, 70, 274.6983032226562
0, 0, 71, 239.2264862060547
0, 0, 72, 249.4655456542969
0, 0, 73, 257.7789611816406
0, 0, 74, 252.2858276367188
0, 0, 75, 239.3215484619141
0, 0, 76, 229.6829833984375
0, 0, 77, 261.0133972167969
0, 0, 78, 255.7244415283203
0, 0, 79, 278.3829345703125
0, 0, 80, 216.0993347167969
0, 0, 81, 266.4203491210938
0, 0, 82, 257.1048889160156
0, 0, 83, 244.1743774414062
0, 0, 84, 269.2044372558594
0, 0, 85, 231.1562805175781
0, 0, 86, 253.3032073974609
0, 0, 87, 251.8760986328125
0, 0, 88, 260.2313537597656
0, 0, 89, 281.4132995605469
0, 0, 90, 244.4838714599609
0, 0, 91, 281.3488464355469
0, 0, 92, 252.3341522216797
0, 0, 93, 249.8243560791016
0, 0, 94, 248.1018371582031
0, 0, 95, 247.2412567138672
0, 0, 96, 275.1425476074219
0, 0, 97, 272.1863403320312
0, 0, 98, 273.5960693359375
0, 0, 99, 258.6316528320312
0, 0, 100, 259.1076354980469
0, 0, 101, 227.2372589111328
0, 0, 102, 233.2203063964844
0, 0, 103, 269.3920593261719
0, 0, 104, 254.6328125
0, 0, 105, 250.2478790283203
0, 0, 106, 245.0357666015625
0, 0, 107, 149.4958801269531
0, 0, 108, 38.43664932250977
0, 0, 109, 11.71903705596924
0, 0, 110, 12.31676483154297
0, 0, 111, 10.47310638427734
0, 0, 112, 6.785410404205322
0, 0, 113, 5.548978328704834
0, 0, 114, 7.345908164978027
0, 0, 115, 4.205982208251953
0, 0, 116, 5.557114601135254
0, 0, 117, 7.641524314880371
0, 0, 118, 6.299287796020508
0, 0, 119, 5.355947017669678
0, 0, 120, 5.180474281311035
0, 0, 121, 3.771683931350708
0, 0, 122, 4.273463249206543
0, 0, 123, 2.458563089370728
0, 0, 124, 5.312990188598633
0, 0, 125, 4.618735313415527
0, 0, 126, 4.047385215759277
0, 0, 127, 4.702340602874756
0, 1, 0, 5.932443141937256
0, 1, 1, 3.317922115325928
0, 1, 2, 4.342232227325439
0, 1, 3, 0.8928794860839844
0, 1, 4, 3.524118185043335
0, 1, 5, 3.734644651412964
0, 1, 6, 4.968350410461426
0, 1, 7, 6.445368766784668
0, 1, 8, 7.368598937988281
0, 1, 9, 4.106388568878174
0, 1, 10, 7.411049842834473
0, 1, 11, 10.83234691619873
0, 1, 12, 8.843085289001465
0, 1, 13, 9.525280952453613
0, 1, 14, 6.945642471313477
0, 1, 15, 9.650962829589844
0, 1, 16, 12.39868831634521
0, 1, 17, 11.64774513244629
0, 1, 18, 19.58434867858887
0, 1, 19, 66.57115173339844
0, 1, 20, 199.2409210205078
0, 1, 21, 255.0736846923828
0, 1, 22, 297.5634765625
0, 1, 23, 283.5640258789062
0, 1, 24, 275.0278625488281
0, 1, 25, 290.6697998046875
0, 1, 26, 267.7086486816406
0, 1, 27, 307.6891784667969
0, 1, 28, 299.3729248046875
0, 1, 29, 297.9158020019531
0, 1, 30, 283.2066345214844
0, 1, 31, 293.2360229492188
0, 1, 32, 290.2112121582031
0, 1, 33, 295.2897033691406
0, 1, 34, 292.5718994140625
0, 1, 35, 277.7367248535156
0, 1, 36, 305.8391418457031
0, 1, 37, 294.7520446777344
0, 1, 38, 284.6414794921875
0, 1, 39, 297.1017456054688
0, 1, 40, 265.6803894042969
0, 1, 41, 286.013916015625
0, 1, 42, 293.1837158203125
0, 1, 43, 331.3345031738281
0, 1, 44, 277.7078552246094
0, 1, 45, 293.8861083984375
0, 1, 46, 259.3035888671875
0, 1, 47, 312.1582336425781
0, 1, 48, 283.6474914550781
0, 1, 49, 302.4334411621094
0, 1, 50, 262.51953125
0, 1, 51, 273.3828735351562
0, 1, 52, 298.105712890625
0, 1, 53, 305.5733032226562
0, 1, 54, 275.9935302734375
0, 1, 55, 291.9147644042969
0, 1, 56, 279.2604064941406
0, 1, 57, 297.4263610839844
0, 1, 58, 309.8279418945312
0, 1, 59, 292.0771789550781
0, 1, 60, 298.4563293457031
0, 1, 61, 275.553466796875
0, 1, 62, 308.3975219726562
0, 1, 63, 284.6609497070312
0, 1, 64, 288.4348754882812
0, 1, 65, 293.4266052246094
0, 1, 66, 293.5964660644531
0, 1, 67, 291.813720703125
0, 1, 68, 277.1187744140625
0, 1, 69, 282.6697998046875
0, 1, 70, 269.9987182617188
0, 1, 71, 273.7218933105469
0, 1, 72, 288.9552001953125
0, 1, 73, 307.6741943359375
0, 1, 74, 304.9535522460938
0, 1, 75, 292.9945373535156
0, 1, 76, 286.1193542480469
0, 1, 77, 288.8743591308594
0, 1, 78, 296.751953125
0, 1, 79, 302.4552612304688
0, 1, 80, 293.4576721191406
0, 1, 81, 299.5918884277344
0, 1, 82, 287.4669494628906
0, 1, 83, 332.1278686523438
0, 1, 84, 309.7531127929688
0, 1, 85, 252.2021942138672
0, 1, 86, 293.3479614257812
0, 1, 87, 291.1894836425781
0, 1, 88, 297.3857727050781
0, 1, 89, 292.8166198730469
0, 1, 90, 269.1577453613281
0, 1, 91, 317.2788391113281
0, 1, 92, 291.0891723632812
0, 1, 93, 287.1570739746094
0, 1, 94, 303.0044250488281
0, 1, 95, 284.2273559570312
0, 1, 96, 282.8579711914062
0, 1, 97, 301.2394409179688
0, 1, 98, 278.4617614746094
0, 1, 99, 266.3876342773438
0, 1, 100, 278.0747375488281
0, 1, 101, 281.7017211914062
0, 1, 102, 279.39990234375
0, 1, 103, 281.0943298339844
0, 1, 104, 306.5918273925781
0, 1, 105, 298.13134765625
0, 1, 106, 262.0570068359375
0, 1, 107, 195.2098846435547
0, 1, 108, 80.12886047363281
0, 1, 109, 24.63261985778809
0, 1, 110, 10.76722240447998
0, 1, 111, 8.356801986694336
0, 1, 112, 11.17894649505615
0, 1, 113, 5.555417060852051
0, 1, 114, 5.482056617736816
0, 1, 115, 6.479639530181885
0, 1, 116, 11.31285953521729
0, 1, 117, 6.945419788360596
0, 1, 118, 5.913655757904053
0, 1, 119, 3.990588188171387
0, 1, 120, 4.656102657318115
0, 1, 121, 3.717193603515625
0, 1, 122, 3.614494323730469
0, 1, 123, 4.873478889465332
0, 1, 124, 6.781536102294922
0, 1, 125, 2.679373741149902
0, 1, 126, 5.5862717628479
0, 1, 127, 3.477124452590942
0, 2, 0, 8.103086471557617
0, 2, 1, 2.098697900772095
0, 2, 2, 5.672955513000488
0, 2, 3, 5.604573726654053
0, 2, 4, 2.983768939971924
0, 2, 5, 2.712316036224365
0, 2, 6, 3.349275827407837
0, 2, 7, 4.136296272277832
0, 2, 8, 4.6083083152771
0, 2, 9, 8.143115043640137
0, 2, 10, 9.012735366821289
0, 2, 11, 7.277842044830322
0, 2, 12, 5.448284149169922
0, 2, 13, 10.19058322906494
0, 2, 14, 11.09652137756348
0, 2, 15, 7.879227638244629
0, 2, 16, 10.29066181182861
0, 2, 17, 16.31244087219238
0, 2, 18, 30.05772018432617
0, 2, 19, 116.2484817504883
0, 2, 20, 245.9694671630859
0, 2, 21, 270.6631164550781
0, 2, 22, 315.2076110839844
0, 2, 23, 300.4503173828125
0, 2, 24, 290.6937255859375
0, 2, 25, 304.8701782226562
0, 2, 26, 292.5982666015625
0, 2, 27, 274.9884643554688
0, 2, 28, 273.4430236816406
0, 2, 29, 274.8692932128906
0, 2, 30, 292.0003051757812
0, 2, 31, 276.8094787597656
0, 2, 32, 292.9372253417969
0, 2, 33, 282.1361083984375
0, 2, 34, 332.2052307128906
0, 2, 35, 290.6776428222656
0, 2, 36, 304.8216552734375
0, 2, 37, 316.1841735839844
0, 2, 38, 311.824951171875
0, 2, 39, 266.8338928222656
0, 2, 40, 309.0337524414062
0, 2, 41, 291.0295104980469
0, 2, 42, 303.2503967285156
0, 2, 43, 312.6908569335938
0, 2, 44, 312.9703063964844
0, 2, 45, 324.5204772949219
0, 2, 46, 287.2861328125
0, 2, 47, 302.713134765625
0, 2, 48, 282.6854248046875
0, 2, 49, 279.5369567871094
0, 2, 50, 295.9820556640625
0, 2, 51, 284.0140686035156
0, 2, 52, 272.7960815429688
0, 2, 53, 288.0835876464844
0, 2, 54, 281.5908508300781
0, 2, 55, 275.013916015625
0, 2, 56, 300.9554443359375
0, 2, 57, 291.9989013671875
0, 2, 58, 301.0197143554688
0, 2, 59, 289.4914245605469
0, 2, 60, 320.0306396484375
0, 2, 61, 305.3553161621094
0, 2, 62, 312.986328125
0, 2, 63, 303.0353088378906
0, 2, 64, 295.7654724121094
0, 2, 65, 313.6681823730469
0, 2, 66, 278.6935729980469
0, 2, 67, 290.4337158203125
0, 2, 68, 295.5470275878906
0, 2, 69, 312.095703125
0, 2, 70, 334.4328002929688
0, 2, 71, 283.7827758789062
0, 2, 72, 303.0583190917969
0, 2, 73, 312.3677062988281
0, 2, 74, 285.2549133300781
0, 2, 75, 304.2772216796875
0, 2, 76, 286.7580261230469
0, 2, 77, 301.8302612304688
0, 2, 78, 312.6728820800781
0, 2, 79, 309.5477905273438
0, 2, 80, 298.215087890625
0, 2, 81, 281.6945190429688
0, 2, 82, 319.1185913085938
0, 2, 83, 312.0101928710938
0, 2, 84, 288.2923889160156
0, 2, 85, 283.5760803222656
0, 2, 86, 325.9172973632812
0, 2, 87, 286.2631225585938
0, 2, 88, 279.1608581542969
0, 2, 89, 295.6671447753906
0, 2, 90, 297.2721252441406
0, 2, 91, 275.3954467773438
0, 2, 92, 307.4569396972656
0, 2, 93, 315.6357116699219
0, 2, 94, 291.4491882324219
0, 2, 95, 313.7657470703125
0, 2, 96, 316.4250183105469
0, 2, 97, 293.7369079589844
0, 2, 98, 295.1619567871094
0, 2, 99, 273.8690795898438
0, 2, 100, 306.0225830078125
0, 2, 101, 300.3334045410156
0, 2, 102, 297.2180786132812
0, 2, 103, 291.3753662109375
0, 2, 104, 292.6318054199219
0, 2, 105, 275.3518981933594
0, 2, 106, 297.0321350097656
0, 2, 107, 271.4977111816406
0, 2, 108, 116.8390502929688
0, 2, 109, 32.75923156738281
0, 2, 110, 10.79791259765625
0, 2, 111, 11.40889263153076
0, 2, 112, 7.49452543258667
0, 2, 113, 10.21850204467773
0, 2, 114, 10.42047023773193
0, 2, 115, 8.823361396789551
0, 2, 116, 8.273397445678711
0, 2, 117, 5.341075897216797
0, 2, 118, 4.905765056610107
0, 2, 119, 4.378892421722412
0, 2, 120, 7.190090656280518
0, 2, 121, 4.086512088775635
0, 2, 122, 5.541374206542969
0, 2, 123, 4.310045719146729
0, 2, 124, 3.10384464263916
0, 2, 125, 4.578815460205078
0, 2, 126, 4.227542877197266
0, 2, 127, 4.480335235595703
0, 3, 0, 5.353387832641602
0, 3, 1, 3.502221822738647
0, 3, 2, 3.174663782119751
0, 3, 3, 2.083166360855103
0, 3, 4, 3.831377983093262
0, 3, 5, 6.558642864227295
0, 3, 6, 6.625406742095947
0, 3, 7, 6.826364994049072
0, 3, 8, 5.989120960235596
0, 3, 9, 7.092170238494873
0, 3, 10, 6.678742408752441
0, 3, 11, 4.551919460296631
0, 3, 12, 6.758621215820312
0, 3, 13, 15.32191848754883
0, 3, 14, 13.23657512664795
0, 3, 15, 14.55257606506348
0, 3, 16, 11.23925590515137
0, 3, 17, 19.16385078430176
0, 3, 18, 52.07968902587891
0, 3, 19, 178.1607971191406
0, 3, 20, 269.3421630859375
0, 3, 21, 271.4945373535156
0, 3, 22, 282.5877990722656
0, 3, 23, 286.1552429199219
0, 3, 24, 288.1216430664062
0, 3, 25, 273.3350219726562
0, 3, 26, 304.5599060058594
0, 3, 27, 291.7225646972656
0, 3, 28, 282.8421020507812
0, 3, 29, 337.4010314941406
0, 3, 30, 315.960205078125
0, 3, 31, 284.8742370605469
0, 3, 32, 306.1539916992188
0, 3, 33, 315.0233764648438
0, 3, 34, 323.8057861328125
0, 3, 35, 307.363525390625
0, 3, 36, 270.9674987792969
0, 3, 37, 314.1377868652344
0, 3, 38, 302.77880859375
0, 3, 39, 289.5329895019531
0, 3, 40, 267.1153259277344
0, 3, 41, 301.1197814941406
0, 3, 42, 286.4104309082031
0, 3, 43, 305.5871276855469
0, 3, 44, 311.3219604492188
0, 3, 45, 290.4008178710938
0, 3, 46, 327.3153991699219
0, 3, 47, 300.1310119628906
0, 3, 48, 303.1359558105469
0, 3, 49, 275.2403259277344
0, 3, 50, 290.4791564941406
0, 3, 51, 278.2829895019531
0, 3, 52, 314.9342651367188
0, 3, 53, 287.151611328125
0, 3, 54, 283.6635437011719
0, 3, 55, 284.4144287109375
0, 3, 56, 298.0303649902344
0, 3, 57, 288.4510803222656
0, 3, 58, 305.7685241699219
0, 3, 59, 295.7859191894531
0, 3, 60, 297.3966674804688
0, 3, 61, 263.7317504882812
0, 3, 62, 283.6674194335938
0, 3, 63, 307.7027893066406
0, 3, 64, 316.4327697753906
0, 3, 65, 303.7470703125
0, 3, 66, 317.6586303710938
0, 3, 67, 317.359619140625
0, 3, 68, 279.4339904785156
0, 3, 69, 281.6995849609375
0, 3, 70, 289.076171875
0, 3, 71, 300.0201416015625
0, 3, 72, 270.0115661621094
0, 3, 73, 309.4250793457031
0, 3, 74, 291.5986328125
0, 3, 75, 291.8024597167969
0, 3, 76, 306.8610534667969
0, 3, 77, 314.6685180664062
0, 3, 78, 302.5331420898438
0, 3, 79, 284.4435424804688
0, 3, 80, 290.2466125488281
0, 3, 81, 312.2193603515625
0, 3, 82, 314.99365234375
0, 3, 83, 299.4676818847656
0, 3, 84, 313.486328125
0, 3, 85, 296.7801208496094
0, 3, 86, 303.3567199707031
0, 3, 87, 299.5818176269531
0, 3, 88, 301.2428283691406
0, 3, 89, 295.8268737792969
0, 3, 90, 276.6509094238281
0, 3, 91, 283.9066467285156
0, 3, 92, 304.7633056640625
0, 3, 93, 313.2843933105469
0, 3, 94, 298.1574401855469
0, 3, 95, 336.1040649414062
0, 3, 96, 288.9622497558594
0, 3, 97, 282.8019104003906
0, 3, 98, 278.9335632324219
0, 3, 99, 262.7075500488281
0, 3, 100, 283.9739990234375
0, 3, 101, 297.5830993652344
0, 3, 102, 274.57470703125
0, 3, 103, 321.8933715820312
0, 3, 104, 311.344482421875
0, 3, 105, 288.375
0, 3, 106, 301.9559020996094
0, 3, 107, 283.3637390136719
0, 3, 108, 169.9689331054688
0, 3, 109, 57.69927597045898
0, 3, 110, 18.88268661499023
0, 3, 111, 13.23143005371094
0, 3, 112, 14.82871150970459
0, 3, 113, 7.646472930908203
0, 3, 114, 11.20341396331787
0, 3, 115, 8.105630874633789
0, 3, 116, 5.866119861602783
0, 3, 117, 6.99916410446167
0, 3, 118, 8.726945877075195
0, 3, 119, 4.741508007049561
0, 3, 120, 3.411847591400146
0, 3, 121, 3.392149925231934
0, 3, 122, 2.818228244781494
0, 3, 123, 6.779867649078369
0, 3, 124, 2.194372653961182
0, 3, 125, 7.208235740661621
0, 3, 126, 4.609667778015137
0, 3, 127, 1.935664296150208
0, 4, 0, 3.375149726867676
0, 4, 1, 5.813273906707764
0, 4, 2, 5.276309967041016
0, 4, 3, 3.574951171875
0, 4, 4, 5.532725811004639
0, 4, 5, 8.588858604431152
0, 4, 6, 6.109679698944092
0, 4, 7, 5.683657169342041
0, 4, 8, 3.430040121078491
0, 4, 9, 4.530152797698975
0, 4, 10, 7.605542659759521
0, 4, 11, 6.071397304534912
0, 4, 12, 6.57612133026123
0, 4, 13, 7.90128231048584
0, 4, 14, 12.77353572845459
0, 4, 15, 9.352540016174316
0, 4, 16, 14.86663818359375
0, 4, 17, 19.02698135375977
0, 4, 18, 94.56415557861328
0, 4, 19, 221.3369293212891
0, 4, 20, 283.8879699707031
0, 4, 21, 273.0584716796875
0, 4, 22, 303.6972351074219
0, 4, 23, 270.8458862304688
0, 4, 24, 289.4113159179688
0, 4, 25, 272.3472290039062
0, 4, 26, 294.2925109863281
0, 4, 27, 282.594970703125
0, 4, 28, 307.366455078125
0, 4, 29, 323.6254272460938
0, 4, 30, 308.5751342773438
0, 4, 31, 302.83203125
0, 4, 32, 281.6870422363281
0, 4, 33, 296.9771728515625
0, 4, 34, 296.4243774414062
0, 4, 35, 311.6102600097656
0, 4, 36, 293.1402587890625
0, 4, 37, 288.4649963378906
0, 4, 38, 296.6613464355469
0, 4, 39, 293.6446228027344
0, 4, 40, 302.3435668945312
0, 4, 41, 314.1662902832031
0, 4, 42, 332.5282592773438
0, 4, 43, 297.646728515625
0, 4, 44, 320.98828125
0, 4, 45, 324.3063659667969
0, 4, 46, 307.4328308105469
0, 4, 47, 291.9834289550781
0, 4, 48, 296.1900024414062
0, 4, 49, 277.2569274902344
0, 4, 50, 296.0610046386719
0, 4, 51, 316.7010192871094
0, 4, 52, 328.5942077636719
0, 4, 53, 303.9142150878906
0, 4, 54, 287.0439453125
0, 4, 55, 315.2851257324219
0, 4, 56, 288.8645629882812
0, 4, 57, 311.8978271484375
0, 4, 58, 296.4374694824219
0, 4, 59, 309.8424072265625
0, 4, 60, 301.1405944824219
0, 4, 61, 315.2126770019531
0, 4, 62, 307.4822082519531
0, 4, 63, 302.7444763183594
0, 4, 64, 329.9376831054688
0, 4, 65, 316.7635192871094
0, 4, 66, 295.8297729492188
0, 4, 67, 283.7864990234375
0, 4, 68, 312.0881042480469
0, 4, 69, 275.7470703125
0, 4, 70, 300.3275146484375
0, 4, 71, 320.6153259277344
0, 4, 72, 332.0390930175781
0, 4, 73, 299.6768188476562
0, 4, 74, 292.41162109375
0, 4, 75, 290.8656005859375
0, 4, 76, 276.3429870605469
0, 4, 77, 279.9691162109375
0, 4, 78, 310.2725219726562
0, 4, 79, 317.5017395019531
0, 4, 80, 314.1418151855469
0, 4, 81, 312.7268676757812
0, 4, 82, 300.1416015625
0, 4, 83, 300.7576904296875
0, 4, 84, 290.9179382324219
0, 4, 85, 294.2697448730469
0, 4, 86, 299.9267272949219
0, 4, 87, 285.0386962890625
0, 4, 88, 304.0406188964844
0, 4, 89, 293.8740844726562
0, 4, 90, 332.0804443359375
0, 4, 91, 303.5220642089844
0, 4, 92, 289.6149597167969
0, 4, 93, 298.1947937011719
0, 4, 94, 292.6949768066406
0, 4, 95, 289.1489562988281
0, 4, 96, 322.9713745117188
0, 4, 97, 274.0015869140625
0, 4, 98, 326.6744689941406
0, 4, 99, 314.3409729003906
0, 4, 100, 299.2603759765625
0, 4, 101, 257.4301452636719
0, 4, 102, 296.4360046386719
0, 4, 103, 316.683837890625
0, 4, 104, 279.7018737792969
0, 4, 105, 309.5966796875
0, 4, 106, 286.4556274414062
0, 4, 107, 296.3445739746094
0, 4, 108, 225.5332946777344
0, 4, 109, 79.53456115722656
0, 4, 110, 16.29508972167969
0, 4, 111, 14.03364658355713
0, 4, 112, 9.52396297454834
0, 4, 113, 11.96099376678467
0, 4, 114, 7.849815845489502
0, 4, 115, 8.436549186706543
0, 4, 116, 9.185539245605469
0, 4, 117, 7.841188430786133
0, 4, 118, 8.787291526794434
0, 4, 119, 10.07542133331299
0, 4, 120, 5.911014556884766
0, 4, 121, 6.19257926940918
0, 4, 122, 5.640393733978271
0, 4, 123, 6.159153938293457
0, 4, 124, 5.831191539764404
0, 4, 125, 9.388363838195801
0, 4, 126, 6.553697109222412
0, 4, 127, 3.912653684616089
0, 5, 0, 4.685250759124756
0, 5, 1, 2.570298194885254
0, 5, 2, 3.074771881103516
0, 5, 3, 2.970913887023926
0, 5, 4, 4.804733753204346
0, 5, 5, 5.441523551940918
0, 5, 6, 8.625746726989746
0, 5, 7, 6.72057580947876
0, 5, 8, 4.415718555450439
0, 5, 9, 4.811842441558838
0, 5, 10, 6.104522228240967
0, 5, 11, 7.697657585144043
0, 5, 12, 8.90245246887207
0, 5, 13, 6.337469100952148
0, 5, 14, 14.2243537902832
0, 5, 15, 15.7744722366333
0, 5, 16, 14.40745449066162
0, 5, 17, 28.82646751403809
0, 5, 18, 136.513671875
0, 5, 19, 286.9015808105469
0, 5, 20, 306.742431640625
0, 5, 21, 317.5214538574219
0, 5, 22, 275.5221252441406
0, 5, 23, 311.6944274902344
0, 5, 24, 304.1456909179688
0, 5, 25, 290.1180725097656
0, 5, 26, 294.5295715332031
0, 5, 27, 321.35498046875
0, 5, 28, 303.5220336914062
0, 5, 29, 297.5560913085938
0, 5, 30, 323.9889221191406
0, 5, 31, 287.958251953125
0, 5, 32, 300.9942932128906
0, 5, 33, 302.7796936035156
0, 5, 34, 296.6159973144531
0, 5, 35, 310.3801574707031
0, 5, 36, 268.9994812011719
0, 5, 37, 281.6957702636719
0, 5, 38, 294.3661804199219
0, 5, 39, 314.0350646972656
0, 5, 40, 307.8022766113281
0, 5, 41, 277.1995544433594
0, 5, 42, 307.5044555664062
0, 5, 43, 315.4818725585938
0, 5, 44, 291.7431945800781
0, 5, 45, 301.5844421386719
0, 5, 46, 264.9363098144531
0, 5, 47, 280.382568359375
0, 5, 48, 293.52001953125
0, 5, 49, 286.1537475585938
0, 5, 50, 292.742431640625
0, 5, 51, 279.7107543945312
0, 5, 52, 269.008544921875
0, 5, 53, 283.2558898925781
0, 5, 54, 290.5036315917969
0, 5, 55, 346.1446838378906
0, 5, 56, 304.7325744628906
0, 5, 57, 306.0279846191406
0, 5, 58, 311.3445129394531
0, 5, 59, 302.9749450683594
0, 5, 60, 310.2896118164062
0, 5, 61, 281.3056335449219
0, 5, 62, 325.0048828125
0, 5, 63, 289.4217834472656
0, 5, 64, 323.0209045410156
0, 5, 65, 307.3167724609375
0, 5, 66, 330.8416748046875
0, 5, 67, 312.7566833496094
0, 5, 68, 307.9194946289062
0, 5, 69, 310.6173400878906
0, 5, 70, 302.0713500976562
0, 5, 71, 273.4104614257812
0, 5, 72, 310.5573425292969
0, 5, 73, 304.5513305664062
0, 5, 74, 298.4483032226562
0, 5, 75, 295.2257080078125
0, 5, 76, 285.2577209472656
0, 5, 77, 300.825927734375
0, 5, 78, 313.9528198242188
0, 5, 79, 306.9192199707031
0, 5, 80, 295.3538208007812
0, 5, 81, 325.2724609375
0, 5, 82, 323.6823120117188
0, 5, 83, 281.9591369628906
0, 5, 84, 303.6130676269531
0, 5, 85, 270.8137817382812
0, 5, 86, 324.3025512695312
0, 5, 87, 282.765625
0, 5, 88, 314.9736022949219
0, 5, 89, 303.6989135742188
0, 5, 90, 317.0747680664062
0, 5, 91, 312.232421875
0, 5, 92, 295.8429565429688
0, 5, 93, 321.389404296875
0, 5, 94, 310.5930786132812
0, 5, 95, 297.9415588378906
0, 5, 96, 298.3129577636719
0, 5, 97, 297.6188354492188
0, 5, 98, 318.5890808105469
0, 5, 99, 300.6386413574219
0, 5, 100, 291.8232116699219
0, 5, 101, 306.5170288085938
0, 5, 102, 292.1111450195312
0, 5, 103, 313.991455078125
0, 5, 104, 302.2814636230469
0, 5, 105, 292.2666320800781
0, 5, 106, 280.912353515625
0, 5, 107, 294.6526489257812
0, 5, 108, 264.8888854980469
0, 5, 109, 159.3572692871094
0, 5, 110, 39.84875106811523
0, 5, 111, 21.19968223571777
0, 5, 112, 17.17577934265137
0, 5, 113, 15.92044353485107
0, 5, 114, 14.34035396575928
0, 5, 115, 7.900633335113525
0, 5, 116, 9.087180137634277
0, 5, 117, 10.66428089141846
0, 5, 118, 12.81138801574707
0, 5, 119, 4.674845695495605
0, 5, 120, 5.131675720214844
0, 5, 121, 5.39636754989624
0, 5, 122, 5.458342552185059
0, 5, 123, 6.793359279632568
0, 5, 124, 4.981059074401855
0, 5, 125, 6.059229850769043
0, 5, 126, 5.48000431060791
0, 5, 127, 3.699767827987671
0, 6, 0, 3.70849609375
0, 6, 1, 2.454145193099976
0, 6, 2, 5.867539882659912
0, 6, 3, 4.965514183044434
0, 6, 4, 2.601146697998047
0, 6, 5, 7.778615951538086
0, 6, 6, 6.828492164611816
0, 6, 7, 4.80010461807251
0, 6, 8, 9.385635375976562
0, 6, 9, 5.534182548522949
0, 6, 10, 6.936871528625488
0, 6, 11, 8.864797592163086
0, 6, 12, 12.51764678955078
0, 6, 13, 13.01864433288574
0, 6, 14, 8.669328689575195
0, 6, 15, 20.22786521911621
0, 6, 16, 27.9604434967041
0, 6, 17, 55.82572174072266
0, 6, 18, 174.9407653808594
0, 6, 19, 275.1210632324219
0, 6, 20, 291.229736328125
0, 6, 21, 314.0086669921875
0, 6, 22, 320.5315246582031
0, 6, 23, 305.234375
0, 6, 24, 315.9830627441406
0, 6, 25, 315.1279907226562
0, 6, 26, 319.0608825683594
0, 6, 27, 330.7802734375
0, 6, 28, 295.4974670410156
0, 6, 29, 331.4509582519531
0, 6, 30, 282.6239013671875
0, 6, 31, 285.3316345214844
0, 6, 32, 338.3607788085938
0, 6, 33, 299.1300354003906
0, 6, 34, 340.9779052734375
0, 6, 35, 319.3649597167969
0, 6, 36, 273.1517333984375
0, 6, 37, 290.9486083984375
0, 6, 38, 310.4206848144531
0, 6, 39, 299.3711547851562
0, 6, 40, 284.3877563476562
0, 6, 41, 295.2629699707031
0, 6, 42, 303.5892639160156
0, 6, 43, 288.65087890625
0, 6, 44, 281.4837341308594
0, 6, 45, 319.8804626464844
0, 6, 46, 301.4953308105469
0, 6, 47, 332.7506103515625
0, 6, 48, 293.1697082519531
0, 6, 49, 310.5850830078125
0, 6, 50, 330.2232360839844
0, 6, 51, 309.529541015625
0, 6, 52, 321.9028930664062
0, 6, 53, 326.6927795410156
0, 6, 54, 303.5130310058594
0, 6, 55, 305.5227355957031
0, 6, 56, 295.0080871582031
0, 6, 57, 312.9273376464844
0, 6, 58, 263.3744201660156
0, 6, 59, 301.3391418457031
0, 6, 60, 313.1119384765625
0, 6, 61, 271.4547729492188
0, 6, 62, 342.4825134277344
0, 6, 63, 324.1813659667969
0, 6, 64, 291.7492065429688
0, 6, 65, 284.419677734375
0, 6, 66, 304.3206481933594
0, 6, 67, 309.9563293457031
0, 6, 68, 293.3216857910156
0, 6, 69, 279.0318908691406
0, 6, 70, 274.7717590332031
0, 6, 71, 289.0698852539062
0, 6, 72, 313.1366577148438
0, 6, 73, 295.2347717285156
0, 6, 74, 331.6018981933594
0, 6, 75, 343.7228088378906
0, 6, 76, 296.546142578125
0, 6, 77, 288.6694030761719
0, 6, 78, 280.6018981933594
0, 6, 79, 292.6860961914062
0, 6, 80, 299.2302856445312
0, 6, 81, 314.705322265625
0, 6, 82, 319.5824890136719
0, 6, 83, 321.1648559570312
0, 6, 84, 296.3605651855469
0, 6, 85, 299.8005676269531
0, 6, 86, 329.68310546875
0, 6, 87, 294.2736206054688
0, 6, 88, 304.9272766113281
0, 6, 89, 303.7633972167969
0, 6, 90, 298.6674194335938
0, 6, 91, 313.0052490234375
0, 6, 92, 284.1393432617188
0, 6, 93, 296.8749084472656
0, 6, 94, 272.4274291992188
0, 6, 95, 299.0411682128906
0, 6, 96, 347.1535034179688
0, 6, 97, 308.8758544921875
0, 6, 98, 300.7518615722656
0, 6, 99, 272.6717834472656
0, 6, 100, 311.4007873535156
0, 6, 101, 292.0594787597656
0, 6, 102, 306.0194091796875
0, 6, 103, 308.8156127929688
0, 6, 104, 293.0665283203125
0, 6, 105, 300.5044860839844
0, 6, 106, 307.8335266113281
0, 6, 107, 306.4158325195312
0, 6, 108, 265.4172668457031
0, 6, 109, 187.2671813964844
0, 6, 110, 55.14543533325195
0, 6, 111, 22.35376930236816
0, 6, 112, 13.3598051071167
0, 6, 113, 9.773113250732422
0, 6, 114, 11.83085155487061
0, 6, 115, 10.52673149108887
0, 6, 116, 11.4145622253418
0, 6, 117, 6.887656211853027
0, 6, 118, 9.329809188842773
0, 6, 119, 7.414596557617188
0, 6, 120, 5.4764084815979
0, 6, 121, 8.788399696350098
0, 6, 122, 7.776915550231934
0, 6, 123, 4.516435623168945
0, 6, 124, 6.175205707550049
0, 6, 125, 7.526142597198486
0, 6, 126, 3.707695007324219
0, 6, 127, 5.906445980072021
0, 7, 0, 7.423827171325684
0, 7, 1, 3.427697658538818
0, 7, 2, 7.417710304260254
0, 7, 3, 2.478883028030396
0, 7, 4, 3.037172079086304
0, 7, 5, 5.17389440536499
0, 7, 6, 6.475807189941406
0, 7, 7, 4.783974647521973
0, 7, 8, 4.601383686065674
0, 7, 9, 5.536564350128174
0, 7, 10, 9.42110538482666
0, 7, 11, 12.30323886871338
0, 7, 12, 10.7125072479248
0, 7, 13, 11.63905143737793
0, 7, 14, 10.74356079101562
0, 7, 15, 17.31433868408203
0, 7, 16, 25.39215850830078
0, 7, 17, 97.21661376953125
0, 7, 18, 220.3511810302734
0, 7, 19, 288.9561462402344
0, 7, 20, 298.57177734375
0, 7, 21, 277.0416564941406
0, 7, 22, 298.54345703125
0, 7, 23, 288.9267883300781
0, 7, 24, 313.6566162109375
0, 7, 25, 324.8573913574219
0, 7, 26, 279.8533935546875
0, 7, 27, 297.8105773925781
0, 7, 28, 328.5531311035156
0, 7, 29, 319.662109375
0, 7, 30, 298.5883178710938
0, 7, 31, 277.2955627441406
0, 7, 32, 306.1886596679688
0, 7, 33, 265.1876525878906
0, 7, 34, 297.8443603515625
0, 7, 35, 319.90771484375
0, 7, 36, 331.8430480957031
0, 7, 37, 326.2369079589844
0, 7, 38, 295.2684631347656
0, 7, 39, 304.5945434570312
0, 7, 40, 292.0939331054688
0, 7, 41, 271.6819458007812
0, 7, 42, 301.5377502441406
0, 7, 43, 275.3937072753906
0, 7, 44, 304.4541625976562
0, 7, 45, 295.6883544921875
0, 7, 46, 290.0677185058594
0, 7, 47, 329.1585693359375
0, 7, 48, 285.9909362792969
0, 7, 49, 302.0950012207031
0, 7, 50, 321.2008361816406
0, 7, 51, 299.2999572753906
0, 7, 52, 327.6766357421875
0, 7, 53, 312.4519958496094
0, 7, 54, 323.1274108886719
0, 7, 55, 307.2298278808594
0, 7, 56, 278.8627014160156
0, 7, 57, 282.9546508789062
0, 7, 58, 294.7152709960938
0, 7, 59, 294.3872985839844
0, 7, 60, 322.0203247070312
0, 7, 61, 277.8285827636719
0, 7, 62, 300.2522888183594
0, 7, 63, 292.8304443359375
0, 7, 64, 306.7684326171875
0, 7, 65, 330.351806640625
0, 7, 66, 316.5127868652344
0, 7, 67, 300.7267150878906
0, 7, 68, 279.8227844238281
0, 7, 69, 292.1294860839844
0, 7, 70, 302.588623046875
0, 7, 71, 307.8399658203125
0, 7, 72, 284.7084045410156
0, 7, 73, 295.605712890625
0, 7, 74, 344.1632385253906
0, 7, 75, 318.934326171875
0, 7, 76, 324.4387512207031
0, 7, 77, 279.1749877929688
0, 7, 78, 302.9004516601562
0, 7, 79, 296.9808044433594
0, 7, 80, 313.5699462890625
0, 7, 81, 319.5011596679688
0, 7, 82, 328.1760559082031
0, 7, 83, 316.0989074707031
0, 7, 84, 309.1306762695312
0, 7, 85, 272.1166381835938
0, 7, 86, 311.0852966308594
0, 7, 87, 311.1767578125
0, 7, 88, 311.2533569335938
0, 7, 89, 293.0016479492188
0, 7, 90, 307.28466796875
0, 7, 91, 314.6722412109375
0, 7, 92, 289.2088012695312
0, 7, 93, 308.0231018066406
0, 7, 94, 273.1723937988281
0, 7, 95, 297.1621398925781
0, 7, 96, 331.3328857421875
0, 7, 97, 297.2168273925781
0, 7, 98, 291.2869567871094
0, 7, 99, 310.9050903320312
0, 7, 100, 280.7725524902344
0, 7, 101, 276.5096435546875
0, 7, 102, 290.5990600585938
0, 7, 103, 292.2948303222656
0, 7, 104, 274.3341979980469
0, 7, 105, 306.3709106445312
0, 7, 106, 317.5833435058594
0, 7, 107, 296.0357055664062
0, 7, 108, 274.8575134277344
0, 7, 109, 235.3444061279297
0, 7, 110, 97.61492919921875
0, 7, 111, 23.2645320892334
0, 7, 112, 13.64414978027344
0, 7, 113, 14.82028293609619
0, 7, 114, 14.31764793395996
0, 7, 115, 12.40329360961914
0, 7, 116, 6.825725555419922
0, 7, 117, 7.197925090789795
0, 7, 118, 6.209564208984375
0, 7, 119, 7.964493274688721
0, 7, 120, 5.5912766456604
0, 7, 121, 5.902437210083008
0, 7, 122, 7.433855533599854
0, 7, 123, 6.547060966491699
0, 7, 124, 3.236362218856812
0, 7, 125, 6.796704292297363
0, 7, 126, 8.830019950866699
0, 7, 127, 3.568791151046753
0, 8, 0, 5.312832832336426
0, 8, 1, 4.1209716796875
0, 8, 2, 3.119341850280762
0, 8, 3, 2.373539686203003
0, 8, 4, 5.565183639526367
0, 8, 5, 5.80908203125
0, 8, 6, 5.411124229431152
0, 8, 7, 5.372398853302002
0, 8, 8, 9.092272758483887
0, 8, 9, 4.981213092803955
0, 8, 10, 8.467656135559082
0, 8, 11, 10.79567050933838
0, 8, 12, 13.98315143585205
0, 8, 13, 14.50640201568604
0, 8, 14, 13.62803173065186
0, 8, 15, 19.18149375915527
0, 8, 16, 34.3632926940918
0, 8, 17, 130.4320678710938
0, 8, 18, 242.6398620605469
0, 8, 19, 293.68115234375
0, 8, 20, 284.9269714355469
0, 8, 21, 307.2492980957031
0, 8, 22, 296.5851745605469
0, 8, 23, 275.6456298828125
0, 8, 24, 269.4307861328125
0, 8, 25, 275.1763305664062
0, 8, 26, 306.9326782226562
0, 8, 27, 307.0074462890625
0, 8, 28, 302.0863647460938
0, 8, 29, 318.8098449707031
0, 8, 30, 313.1718139648438
0, 8, 31, 303.484375
0, 8, 32, 281.7222595214844
0, 8, 33, 293.3150329589844
0, 8, 34, 288.5111999511719
0, 8, 35, 280.4084167480469
0, 8, 36, 317.8802795410156
0, 8, 37, 338.2977600097656
0, 8, 38, 334.7450866699219
0, 8, 39, 281.4657592773438
0, 8, 40, 304.6980590820312
0, 8, 41, 292.5509948730469
