# TOPAS Version: 3.1.p3
# Parameter File: batch_inserts_98.txt
# Results for scorer Readout_Adipose
# Scored in component: MyBox
# X in 1 bin  of 0.75 cm
# Y in 512 bins of 0.0783984 cm
# Z in 128 bins of 0.078125 cm
# EnergyDeposit ( MeV ) : Sum   
0, 0, 0, 5.403134346008301
0, 0, 1, 2.025672912597656
0, 0, 2, 3.075350284576416
0, 0, 3, 1.71594762802124
0, 0, 4, 2.385537147521973
0, 0, 5, 1.926243662834167
0, 0, 6, 5.390275478363037
0, 0, 7, 8.83575439453125
0, 0, 8, 3.101992845535278
0, 0, 9, 4.661696434020996
0, 0, 10, 8.071074485778809
0, 0, 11, 3.679207324981689
0, 0, 12, 3.864969730377197
0, 0, 13, 5.714361190795898
0, 0, 14, 8.398427963256836
0, 0, 15, 8.930639266967773
0, 0, 16, 9.039457321166992
0, 0, 17, 10.85489559173584
0, 0, 18, 13.26414489746094
0, 0, 19, 44.25553131103516
0, 0, 20, 138.4005584716797
0, 0, 21, 224.9656219482422
0, 0, 22, 248.58935546875
0, 0, 23, 256.190673828125
0, 0, 24, 251.6085205078125
0, 0, 25, 258.2050170898438
0, 0, 26, 233.5227203369141
0, 0, 27, 237.0251922607422
0, 0, 28, 272.0151977539062
0, 0, 29, 253.6039276123047
0, 0, 30, 230.3571319580078
0, 0, 31, 245.6877593994141
0, 0, 32, 263.9957580566406
0, 0, 33, 260.0743408203125
0, 0, 34, 287.4445190429688
0, 0, 35, 266.7877197265625
0, 0, 36, 247.2247009277344
0, 0, 37, 251.6687774658203
0, 0, 38, 269.4403381347656
0, 0, 39, 229.2813873291016
0, 0, 40, 240.8426055908203
0, 0, 41, 265.13623046875
0, 0, 42, 230.890869140625
0, 0, 43, 259.621826171875
0, 0, 44, 251.3789520263672
0, 0, 45, 253.0850219726562
0, 0, 46, 243.6607513427734
0, 0, 47, 252.427490234375
0, 0, 48, 266.0682983398438
0, 0, 49, 274.0428771972656
0, 0, 50, 251.6866455078125
0, 0, 51, 253.8432159423828
0, 0, 52, 273.6737060546875
0, 0, 53, 292.0308837890625
0, 0, 54, 241.9197387695312
0, 0, 55, 239.3200531005859
0, 0, 56, 277.615478515625
0, 0, 57, 263.9394226074219
0, 0, 58, 245.0683746337891
0, 0, 59, 269.9667358398438
0, 0, 60, 234.5579376220703
0, 0, 61, 246.0133819580078
0, 0, 62, 256.4861755371094
0, 0, 63, 266.1070556640625
0, 0, 64, 257.3998413085938
0, 0, 65, 260.7221984863281
0, 0, 66, 274.6542053222656
0, 0, 67, 244.6181488037109
0, 0, 68, 259.5208129882812
0, 0, 69, 261.5716857910156
0, 0, 70, 272.5264892578125
0, 0, 71, 237.2990112304688
0, 0, 72, 250.0071105957031
0, 0, 73, 259.8991394042969
0, 0, 74, 251.0314025878906
0, 0, 75, 239.7725219726562
0, 0, 76, 227.7909088134766
0, 0, 77, 260.9654846191406
0, 0, 78, 257.0810241699219
0, 0, 79, 281.4879455566406
0, 0, 80, 218.16015625
0, 0, 81, 266.9169921875
0, 0, 82, 255.7001647949219
0, 0, 83, 246.3061370849609
0, 0, 84, 272.7596130371094
0, 0, 85, 231.1711883544922
0, 0, 86, 253.3534240722656
0, 0, 87, 251.0100555419922
0, 0, 88, 262.7549133300781
0, 0, 89, 282.3753662109375
0, 0, 90, 242.9261169433594
0, 0, 91, 281.5176391601562
0, 0, 92, 255.4993286132812
0, 0, 93, 248.3786315917969
0, 0, 94, 250.0528869628906
0, 0, 95, 249.3898620605469
0, 0, 96, 274.806884765625
0, 0, 97, 271.8399963378906
0, 0, 98, 273.1417236328125
0, 0, 99, 258.8291320800781
0, 0, 100, 257.844970703125
0, 0, 101, 224.9677276611328
0, 0, 102, 232.6240844726562
0, 0, 103, 270.2876281738281
0, 0, 104, 253.5334014892578
0, 0, 105, 252.2970123291016
0, 0, 106, 247.7454528808594
0, 0, 107, 152.2831420898438
0, 0, 108, 38.48193740844727
0, 0, 109, 12.26712608337402
0, 0, 110, 11.89568519592285
0, 0, 111, 8.545071601867676
0, 0, 112, 6.923074245452881
0, 0, 113, 5.15840482711792
0, 0, 114, 7.798035621643066
0, 0, 115, 4.896800994873047
0, 0, 116, 6.08054780960083
0, 0, 117, 8.119379997253418
0, 0, 118, 6.632124900817871
0, 0, 119, 3.493481397628784
0, 0, 120, 3.544141054153442
0, 0, 121, 4.62427806854248
0, 0, 122, 4.745522022247314
0, 0, 123, 5.326292991638184
0, 0, 124, 5.056323528289795
0, 0, 125, 5.329353332519531
0, 0, 126, 4.84745454788208
0, 0, 127, 3.054921627044678
0, 1, 0, 7.945645332336426
0, 1, 1, 4.325084686279297
0, 1, 2, 5.509185314178467
0, 1, 3, 1.239544034004211
0, 1, 4, 4.612302780151367
0, 1, 5, 3.529599905014038
0, 1, 6, 6.851250648498535
0, 1, 7, 4.564226150512695
0, 1, 8, 7.10902214050293
0, 1, 9, 4.473556041717529
0, 1, 10, 8.210965156555176
0, 1, 11, 12.26116943359375
0, 1, 12, 7.676720142364502
0, 1, 13, 9.24284553527832
0, 1, 14, 7.78169059753418
0, 1, 15, 7.324522495269775
0, 1, 16, 11.08669471740723
0, 1, 17, 10.74550914764404
0, 1, 18, 21.3127326965332
0, 1, 19, 66.53295135498047
0, 1, 20, 201.6369018554688
0, 1, 21, 255.1817016601562
0, 1, 22, 296.47021484375
0, 1, 23, 283.6936645507812
0, 1, 24, 276.7311401367188
0, 1, 25, 289.8126831054688
0, 1, 26, 268.7643737792969
0, 1, 27, 307.9116821289062
0, 1, 28, 298.5303344726562
0, 1, 29, 296.4417724609375
0, 1, 30, 280.6556091308594
0, 1, 31, 290.5280151367188
0, 1, 32, 290.8555908203125
0, 1, 33, 296.4663391113281
0, 1, 34, 296.7537231445312
0, 1, 35, 278.5476989746094
0, 1, 36, 308.3023681640625
0, 1, 37, 294.3526000976562
0, 1, 38, 278.4749755859375
0, 1, 39, 295.7489624023438
0, 1, 40, 267.6473083496094
0, 1, 41, 287.2379150390625
0, 1, 42, 289.4423828125
0, 1, 43, 332.5703430175781
0, 1, 44, 278.6129760742188
0, 1, 45, 291.9473876953125
0, 1, 46, 259.275390625
0, 1, 47, 309.5560913085938
0, 1, 48, 282.9843444824219
0, 1, 49, 302.3240051269531
0, 1, 50, 263.7362670898438
0, 1, 51, 271.483642578125
0, 1, 52, 295.359130859375
0, 1, 53, 304.9494323730469
0, 1, 54, 275.2610168457031
0, 1, 55, 294.6492004394531
0, 1, 56, 278.60498046875
0, 1, 57, 298.3857727050781
0, 1, 58, 310.8125
0, 1, 59, 292.9381408691406
0, 1, 60, 299.0364379882812
0, 1, 61, 275.3906860351562
0, 1, 62, 307.0287475585938
0, 1, 63, 285.6493225097656
0, 1, 64, 290.6583862304688
0, 1, 65, 295.2035522460938
0, 1, 66, 293.0777587890625
0, 1, 67, 291.7792358398438
0, 1, 68, 277.1639709472656
0, 1, 69, 280.0919799804688
0, 1, 70, 271.5903625488281
0, 1, 71, 272.7113952636719
0, 1, 72, 285.2242126464844
0, 1, 73, 306.0430908203125
0, 1, 74, 304.6400756835938
0, 1, 75, 291.4771423339844
0, 1, 76, 284.3729248046875
0, 1, 77, 290.4290771484375
0, 1, 78, 296.0871276855469
0, 1, 79, 301.8583984375
0, 1, 80, 297.22119140625
0, 1, 81, 302.3682556152344
0, 1, 82, 283.1460571289062
0, 1, 83, 331.2623901367188
0, 1, 84, 308.6625061035156
0, 1, 85, 254.2725982666016
0, 1, 86, 293.4917297363281
0, 1, 87, 290.181640625
0, 1, 88, 300.0379638671875
0, 1, 89, 290.2970886230469
0, 1, 90, 269.5182495117188
0, 1, 91, 317.40234375
0, 1, 92, 292.2542419433594
0, 1, 93, 285.074462890625
0, 1, 94, 304.7959594726562
0, 1, 95, 284.74658203125
0, 1, 96, 283.340576171875
0, 1, 97, 301.8070373535156
0, 1, 98, 281.2436218261719
0, 1, 99, 266.5892944335938
0, 1, 100, 275.5821228027344
0, 1, 101, 281.4598999023438
0, 1, 102, 279.862548828125
0, 1, 103, 282.4643859863281
0, 1, 104, 306.28271484375
0, 1, 105, 295.8638610839844
0, 1, 106, 260.2906188964844
0, 1, 107, 193.99755859375
0, 1, 108, 80.36372375488281
0, 1, 109, 25.90913772583008
0, 1, 110, 10.5261287689209
0, 1, 111, 8.475403785705566
0, 1, 112, 13.65190315246582
0, 1, 113, 7.781048774719238
0, 1, 114, 5.349339962005615
0, 1, 115, 6.087587356567383
0, 1, 116, 13.80999755859375
0, 1, 117, 6.412382125854492
0, 1, 118, 4.15110445022583
0, 1, 119, 8.39423656463623
0, 1, 120, 7.473260879516602
0, 1, 121, 3.63312029838562
0, 1, 122, 2.718072175979614
0, 1, 123, 4.539426803588867
0, 1, 124, 8.372825622558594
0, 1, 125, 4.228857517242432
0, 1, 126, 3.806079626083374
0, 1, 127, 1.555900096893311
0, 2, 0, 5.436783790588379
0, 2, 1, 2.204514265060425
0, 2, 2, 2.883023977279663
0, 2, 3, 5.191108703613281
0, 2, 4, 3.866082906723022
0, 2, 5, 2.632318735122681
0, 2, 6, 3.458487510681152
0, 2, 7, 4.450072288513184
0, 2, 8, 4.033829689025879
0, 2, 9, 6.607303619384766
0, 2, 10, 6.989899635314941
0, 2, 11, 5.323257923126221
0, 2, 12, 7.698430061340332
0, 2, 13, 11.98440742492676
0, 2, 14, 8.961824417114258
0, 2, 15, 9.677444458007812
0, 2, 16, 9.130673408508301
0, 2, 17, 18.37678527832031
0, 2, 18, 30.25256538391113
0, 2, 19, 116.3468780517578
0, 2, 20, 245.1569213867188
0, 2, 21, 270.6846923828125
0, 2, 22, 316.6694946289062
0, 2, 23, 304.9499816894531
0, 2, 24, 285.5740966796875
0, 2, 25, 302.7189331054688
0, 2, 26, 293.0103149414062
0, 2, 27, 275.2898559570312
0, 2, 28, 274.5856323242188
0, 2, 29, 274.2806701660156
0, 2, 30, 292.0136413574219
0, 2, 31, 278.2431640625
0, 2, 32, 292.9041137695312
0, 2, 33, 281.8917846679688
0, 2, 34, 332.3989562988281
0, 2, 35, 288.5335083007812
0, 2, 36, 302.4460754394531
0, 2, 37, 314.6038208007812
0, 2, 38, 311.7239990234375
0, 2, 39, 268.590576171875
0, 2, 40, 308.3827514648438
0, 2, 41, 293.3486328125
0, 2, 42, 304.8564758300781
0, 2, 43, 312.6965942382812
0, 2, 44, 312.721435546875
0, 2, 45, 325.4178771972656
0, 2, 46, 288.844482421875
0, 2, 47, 304.2266845703125
0, 2, 48, 282.6320495605469
0, 2, 49, 280.3631896972656
0, 2, 50, 297.0433349609375
0, 2, 51, 283.95556640625
0, 2, 52, 271.4954528808594
0, 2, 53, 288.7100524902344
0, 2, 54, 279.9902954101562
0, 2, 55, 275.9640808105469
0, 2, 56, 302.2177734375
0, 2, 57, 294.1631469726562
0, 2, 58, 302.7125549316406
0, 2, 59, 287.8778076171875
0, 2, 60, 319.0322570800781
0, 2, 61, 300.7750244140625
0, 2, 62, 313.8882446289062
0, 2, 63, 300.6583251953125
0, 2, 64, 296.0730895996094
0, 2, 65, 315.4519958496094
0, 2, 66, 280.2756958007812
0, 2, 67, 290.3437194824219
0, 2, 68, 295.367919921875
0, 2, 69, 311.1412963867188
0, 2, 70, 333.8760375976562
0, 2, 71, 284.2665710449219
0, 2, 72, 300.3494262695312
0, 2, 73, 313.0132751464844
0, 2, 74, 286.4700317382812
0, 2, 75, 304.1300964355469
0, 2, 76, 287.7840576171875
0, 2, 77, 298.8955993652344
0, 2, 78, 318.9417724609375
0, 2, 79, 309.3416748046875
0, 2, 80, 296.8371887207031
0, 2, 81, 284.4432373046875
0, 2, 82, 317.1140747070312
0, 2, 83, 312.9609375
0, 2, 84, 287.22216796875
0, 2, 85, 282.2021789550781
0, 2, 86, 324.0223083496094
0, 2, 87, 285.957275390625
0, 2, 88, 282.4055480957031
0, 2, 89, 297.2408447265625
0, 2, 90, 298.0620422363281
0, 2, 91, 276.1309814453125
0, 2, 92, 306.2009582519531
0, 2, 93, 317.048828125
0, 2, 94, 292.7300720214844
0, 2, 95, 314.9437866210938
0, 2, 96, 315.7759399414062
0, 2, 97, 292.6004028320312
0, 2, 98, 292.9368896484375
0, 2, 99, 272.8481750488281
0, 2, 100, 307.0511169433594
0, 2, 101, 300.2509460449219
0, 2, 102, 296.9829711914062
0, 2, 103, 292.7575378417969
0, 2, 104, 293.4158630371094
0, 2, 105, 274.8370971679688
0, 2, 106, 298.2715759277344
0, 2, 107, 267.5115051269531
0, 2, 108, 116.758918762207
0, 2, 109, 32.58431243896484
0, 2, 110, 11.21366786956787
0, 2, 111, 10.90350723266602
0, 2, 112, 6.526560306549072
0, 2, 113, 9.955728530883789
0, 2, 114, 9.715297698974609
0, 2, 115, 8.181919097900391
0, 2, 116, 8.223779678344727
0, 2, 117, 6.977332592010498
0, 2, 118, 4.467056274414062
0, 2, 119, 3.861549854278564
0, 2, 120, 4.632706165313721
0, 2, 121, 2.977116823196411
0, 2, 122, 3.919266700744629
0, 2, 123, 4.551306247711182
0, 2, 124, 4.507503032684326
0, 2, 125, 4.046426773071289
0, 2, 126, 3.471333026885986
0, 2, 127, 5.611039638519287
0, 3, 0, 4.248120307922363
0, 3, 1, 4.137075424194336
0, 3, 2, 4.067120552062988
0, 3, 3, 1.707953929901123
0, 3, 4, 4.044909000396729
0, 3, 5, 6.858695507049561
0, 3, 6, 8.048746109008789
0, 3, 7, 5.000519275665283
0, 3, 8, 6.363429546356201
0, 3, 9, 5.544031620025635
0, 3, 10, 5.467448711395264
0, 3, 11, 4.619390487670898
0, 3, 12, 7.92274808883667
0, 3, 13, 14.7709493637085
0, 3, 14, 10.72255039215088
0, 3, 15, 12.88988399505615
0, 3, 16, 11.09976291656494
0, 3, 17, 18.94053840637207
0, 3, 18, 53.14710998535156
0, 3, 19, 176.7853698730469
0, 3, 20, 270.5297546386719
0, 3, 21, 271.2963256835938
0, 3, 22, 281.095703125
0, 3, 23, 287.21044921875
0, 3, 24, 285.9798278808594
0, 3, 25, 270.0221862792969
0, 3, 26, 304.1867370605469
0, 3, 27, 292.6720581054688
0, 3, 28, 278.366943359375
0, 3, 29, 337.3525390625
0, 3, 30, 316.9947814941406
0, 3, 31, 287.2808227539062
0, 3, 32, 307.8199768066406
0, 3, 33, 313.2567138671875
0, 3, 34, 320.81298828125
0, 3, 35, 304.6414184570312
0, 3, 36, 268.5975036621094
0, 3, 37, 316.6637268066406
0, 3, 38, 304.4790649414062
0, 3, 39, 290.619873046875
0, 3, 40, 267.6701965332031
0, 3, 41, 298.979736328125
0, 3, 42, 286.1717224121094
0, 3, 43, 304.3409729003906
0, 3, 44, 311.4678649902344
0, 3, 45, 289.2251892089844
0, 3, 46, 327.9371643066406
0, 3, 47, 298.0831298828125
0, 3, 48, 303.6941833496094
0, 3, 49, 275.4022521972656
0, 3, 50, 292.2826538085938
0, 3, 51, 276.8984069824219
0, 3, 52, 314.6833190917969
0, 3, 53, 287.2973937988281
0, 3, 54, 283.4304504394531
0, 3, 55, 283.2125244140625
0, 3, 56, 297.8922424316406
0, 3, 57, 286.67138671875
0, 3, 58, 306.4783630371094
0, 3, 59, 294.8649291992188
0, 3, 60, 297.7741088867188
0, 3, 61, 263.9173889160156
0, 3, 62, 283.5148010253906
0, 3, 63, 307.9103088378906
0, 3, 64, 314.7914428710938
0, 3, 65, 304.8268432617188
0, 3, 66, 314.0220031738281
0, 3, 67, 316.9903259277344
0, 3, 68, 280.7033386230469
0, 3, 69, 283.4611206054688
0, 3, 70, 289.3434143066406
0, 3, 71, 298.4450988769531
0, 3, 72, 270.6776123046875
0, 3, 73, 307.719970703125
0, 3, 74, 292.1389465332031
0, 3, 75, 291.0709228515625
0, 3, 76, 306.1188354492188
0, 3, 77, 314.1246337890625
0, 3, 78, 303.0450134277344
0, 3, 79, 282.2386169433594
0, 3, 80, 289.50146484375
0, 3, 81, 309.4386596679688
0, 3, 82, 315.6175842285156
0, 3, 83, 301.01171875
0, 3, 84, 310.7302551269531
0, 3, 85, 293.9912109375
0, 3, 86, 301.8153381347656
0, 3, 87, 299.3632507324219
0, 3, 88, 297.8293151855469
0, 3, 89, 295.3807373046875
0, 3, 90, 275.0812683105469
0, 3, 91, 284.7269897460938
0, 3, 92, 302.7886047363281
0, 3, 93, 313.8422241210938
0, 3, 94, 298.9793395996094
0, 3, 95, 333.9004821777344
0, 3, 96, 289.8934936523438
0, 3, 97, 283.6121215820312
0, 3, 98, 277.9152526855469
0, 3, 99, 260.7920532226562
0, 3, 100, 283.7552490234375
0, 3, 101, 298.2884216308594
0, 3, 102, 273.6270446777344
0, 3, 103, 319.0643005371094
0, 3, 104, 308.4924011230469
0, 3, 105, 287.9316101074219
0, 3, 106, 302.2751770019531
0, 3, 107, 282.9657287597656
0, 3, 108, 166.7790069580078
0, 3, 109, 58.41526412963867
0, 3, 110, 17.35928535461426
0, 3, 111, 12.85167217254639
0, 3, 112, 13.33634853363037
0, 3, 113, 6.049428939819336
0, 3, 114, 10.53997325897217
0, 3, 115, 6.985432624816895
0, 3, 116, 9.574450492858887
0, 3, 117, 7.380959033966064
0, 3, 118, 6.723926544189453
0, 3, 119, 4.393430233001709
0, 3, 120, 9.291593551635742
0, 3, 121, 2.700162172317505
0, 3, 122, 2.261258840560913
0, 3, 123, 6.101913452148438
0, 3, 124, 2.032784223556519
0, 3, 125, 8.536584854125977
0, 3, 126, 6.259783744812012
0, 3, 127, 3.152120113372803
0, 4, 0, 2.995133876800537
0, 4, 1, 4.472880363464355
0, 4, 2, 5.293139457702637
0, 4, 3, 2.34374475479126
0, 4, 4, 5.288036823272705
0, 4, 5, 8.576003074645996
0, 4, 6, 7.456571578979492
0, 4, 7, 4.917709827423096
0, 4, 8, 5.747534275054932
0, 4, 9, 7.419260025024414
0, 4, 10, 7.419536113739014
0, 4, 11, 5.957837104797363
0, 4, 12, 4.750205516815186
0, 4, 13, 9.498290061950684
0, 4, 14, 10.05784606933594
0, 4, 15, 10.26011943817139
0, 4, 16, 14.08910846710205
0, 4, 17, 18.27900505065918
0, 4, 18, 94.34404754638672
0, 4, 19, 221.4679107666016
0, 4, 20, 284.32177734375
0, 4, 21, 273.3301391601562
0, 4, 22, 306.4862060546875
0, 4, 23, 265.3163452148438
0, 4, 24, 288.5220642089844
0, 4, 25, 272.6414184570312
0, 4, 26, 295.005126953125
0, 4, 27, 282.9007568359375
0, 4, 28, 306.7980651855469
0, 4, 29, 321.4636535644531
0, 4, 30, 309.3654174804688
0, 4, 31, 305.3961486816406
0, 4, 32, 281.3193664550781
0, 4, 33, 294.6143188476562
0, 4, 34, 294.8841857910156
0, 4, 35, 313.7106323242188
0, 4, 36, 290.4947204589844
0, 4, 37, 288.6195068359375
0, 4, 38, 299.06689453125
0, 4, 39, 294.5262451171875
0, 4, 40, 301.8779296875
0, 4, 41, 310.0820617675781
0, 4, 42, 334.1194152832031
0, 4, 43, 297.8742370605469
0, 4, 44, 320.1261291503906
0, 4, 45, 323.1891479492188
0, 4, 46, 304.8143005371094
0, 4, 47, 294.2727355957031
0, 4, 48, 296.0820617675781
0, 4, 49, 278.0616760253906
0, 4, 50, 298.2713928222656
0, 4, 51, 315.51904296875
0, 4, 52, 327.700439453125
0, 4, 53, 305.2487487792969
0, 4, 54, 286.9574584960938
0, 4, 55, 314.3182983398438
0, 4, 56, 287.8984375
0, 4, 57, 309.6390991210938
0, 4, 58, 295.2973937988281
0, 4, 59, 310.1661071777344
0, 4, 60, 302.7667236328125
0, 4, 61, 318.0186767578125
0, 4, 62, 308.4475708007812
0, 4, 63, 301.5322570800781
0, 4, 64, 330.5174560546875
0, 4, 65, 315.8665161132812
0, 4, 66, 295.5652770996094
0, 4, 67, 285.33447265625
0, 4, 68, 311.52490234375
0, 4, 69, 275.7297058105469
0, 4, 70, 299.3245849609375
0, 4, 71, 323.8447875976562
0, 4, 72, 331.3697509765625
0, 4, 73, 297.8533020019531
0, 4, 74, 294.4701232910156
0, 4, 75, 288.6006164550781
0, 4, 76, 274.1479187011719
0, 4, 77, 278.0302734375
0, 4, 78, 310.8220825195312
0, 4, 79, 319.5412292480469
0, 4, 80, 315.6699523925781
0, 4, 81, 313.4878845214844
0, 4, 82, 297.8117370605469
0, 4, 83, 301.7927856445312
0, 4, 84, 293.7920532226562
0, 4, 85, 294.9008178710938
0, 4, 86, 295.7323303222656
0, 4, 87, 286.0989074707031
0, 4, 88, 304.8063659667969
0, 4, 89, 293.70947265625
0, 4, 90, 331.4627990722656
0, 4, 91, 301.0562133789062
0, 4, 92, 290.3849182128906
0, 4, 93, 296.797119140625
0, 4, 94, 294.2340087890625
0, 4, 95, 289.8972778320312
0, 4, 96, 328.2496643066406
0, 4, 97, 274.77978515625
0, 4, 98, 326.9642639160156
0, 4, 99, 313.4953308105469
0, 4, 100, 299.8835144042969
0, 4, 101, 258.7821044921875
0, 4, 102, 296.1005249023438
0, 4, 103, 316.5527954101562
0, 4, 104, 281.4078674316406
0, 4, 105, 310.6757507324219
0, 4, 106, 285.9271240234375
0, 4, 107, 293.1326599121094
0, 4, 108, 224.5787048339844
0, 4, 109, 81.52489471435547
0, 4, 110, 17.40526580810547
0, 4, 111, 14.59164333343506
0, 4, 112, 10.97355556488037
0, 4, 113, 11.20941257476807
0, 4, 114, 7.698773384094238
0, 4, 115, 10.76597785949707
0, 4, 116, 6.680598258972168
0, 4, 117, 6.860494613647461
0, 4, 118, 9.028124809265137
0, 4, 119, 11.64556217193604
0, 4, 120, 7.618041515350342
0, 4, 121, 3.625511884689331
0, 4, 122, 4.204070091247559
0, 4, 123, 6.240639686584473
0, 4, 124, 7.221922397613525
0, 4, 125, 9.257942199707031
0, 4, 126, 4.646099090576172
0, 4, 127, 4.448930263519287
0, 5, 0, 4.803061485290527
0, 5, 1, 4.083487033843994
0, 5, 2, 4.351978778839111
0, 5, 3, 3.173725605010986
0, 5, 4, 5.396420001983643
0, 5, 5, 6.077244758605957
0, 5, 6, 6.080276966094971
0, 5, 7, 4.78429651260376
0, 5, 8, 3.300668001174927
0, 5, 9, 5.690369606018066
0, 5, 10, 7.863386631011963
0, 5, 11, 9.820029258728027
0, 5, 12, 9.001642227172852
0, 5, 13, 5.314099788665771
0, 5, 14, 14.30069160461426
0, 5, 15, 17.90914535522461
0, 5, 16, 15.87616348266602
0, 5, 17, 30.86795616149902
0, 5, 18, 136.9726409912109
0, 5, 19, 287.4708251953125
0, 5, 20, 307.9657592773438
0, 5, 21, 316.3232421875
0, 5, 22, 276.4194946289062
0, 5, 23, 309.5140380859375
0, 5, 24, 301.5841979980469
0, 5, 25, 291.0762023925781
0, 5, 26, 294.0299377441406
0, 5, 27, 323.2176513671875
0, 5, 28, 303.7954711914062
0, 5, 29, 300.6258239746094
0, 5, 30, 325.0946960449219
0, 5, 31, 286.8898315429688
0, 5, 32, 303.3462524414062
0, 5, 33, 303.8919067382812
0, 5, 34, 299.3189392089844
0, 5, 35, 312.3135070800781
0, 5, 36, 270.911376953125
0, 5, 37, 282.6708679199219
0, 5, 38, 292.8686218261719
0, 5, 39, 310.8189392089844
0, 5, 40, 310.7786254882812
0, 5, 41, 274.5840454101562
0, 5, 42, 306.2484130859375
0, 5, 43, 317.7264099121094
0, 5, 44, 292.0196838378906
0, 5, 45, 301.6870422363281
0, 5, 46, 265.619140625
0, 5, 47, 281.271240234375
0, 5, 48, 293.923095703125
0, 5, 49, 286.2762756347656
0, 5, 50, 295.7993469238281
0, 5, 51, 280.5889282226562
0, 5, 52, 267.8995056152344
0, 5, 53, 284.3790283203125
0, 5, 54, 291.3349914550781
0, 5, 55, 345.6267700195312
0, 5, 56, 305.8940124511719
0, 5, 57, 310.5945434570312
0, 5, 58, 312.408935546875
0, 5, 59, 304.6403503417969
0, 5, 60, 306.4538269042969
0, 5, 61, 282.808837890625
0, 5, 62, 326.1014099121094
0, 5, 63, 289.7383117675781
0, 5, 64, 323.481689453125
0, 5, 65, 308.9035949707031
0, 5, 66, 329.3281860351562
0, 5, 67, 311.615478515625
0, 5, 68, 307.3615417480469
0, 5, 69, 313.2872009277344
0, 5, 70, 300.5776062011719
0, 5, 71, 273.3045959472656
0, 5, 72, 311.1551513671875
0, 5, 73, 302.7432250976562
0, 5, 74, 297.0163879394531
0, 5, 75, 294.57861328125
0, 5, 76, 284.0961608886719
0, 5, 77, 298.52294921875
0, 5, 78, 316.3461608886719
0, 5, 79, 307.4255981445312
0, 5, 80, 295.1474914550781
0, 5, 81, 325.7433776855469
0, 5, 82, 322.61279296875
0, 5, 83, 284.2490539550781
0, 5, 84, 303.3404541015625
0, 5, 85, 272.2611999511719
0, 5, 86, 326.8477783203125
0, 5, 87, 282.9427490234375
0, 5, 88, 313.6762084960938
0, 5, 89, 305.0718688964844
0, 5, 90, 317.5128784179688
0, 5, 91, 317.3077392578125
0, 5, 92, 297.0753479003906
0, 5, 93, 320.75
0, 5, 94, 308.4148864746094
0, 5, 95, 296.3096923828125
0, 5, 96, 297.7603149414062
0, 5, 97, 296.9473571777344
0, 5, 98, 318.6276550292969
0, 5, 99, 302.2215881347656
0, 5, 100, 289.815185546875
0, 5, 101, 307.9606323242188
0, 5, 102, 291.8219604492188
0, 5, 103, 314.055908203125
0, 5, 104, 302.5187683105469
0, 5, 105, 290.3062744140625
0, 5, 106, 281.198486328125
0, 5, 107, 294.3306274414062
0, 5, 108, 266.5853881835938
0, 5, 109, 157.2047882080078
0, 5, 110, 41.86019897460938
0, 5, 111, 20.57878494262695
0, 5, 112, 17.20378303527832
0, 5, 113, 14.81569766998291
0, 5, 114, 12.78283596038818
0, 5, 115, 8.303923606872559
0, 5, 116, 10.05080699920654
0, 5, 117, 7.739974498748779
0, 5, 118, 15.39937305450439
0, 5, 119, 7.986039638519287
0, 5, 120, 6.685508728027344
0, 5, 121, 6.131577968597412
0, 5, 122, 4.694185256958008
0, 5, 123, 4.587442398071289
0, 5, 124, 5.617235660552979
0, 5, 125, 4.168594360351562
0, 5, 126, 7.669736862182617
0, 5, 127, 4.160264492034912
0, 6, 0, 5.26432466506958
0, 6, 1, 3.188261747360229
0, 6, 2, 3.740319490432739
0, 6, 3, 5.928154468536377
0, 6, 4, 5.017590045928955
0, 6, 5, 6.572245121002197
0, 6, 6, 7.754299640655518
0, 6, 7, 6.103983879089355
0, 6, 8, 10.13761138916016
0, 6, 9, 7.010140895843506
0, 6, 10, 9.878339767456055
0, 6, 11, 7.320603847503662
0, 6, 12, 10.99254703521729
0, 6, 13, 12.9594259262085
0, 6, 14, 7.509158611297607
0, 6, 15, 18.63004875183105
0, 6, 16, 28.12449073791504
0, 6, 17, 54.5240364074707
0, 6, 18, 173.1013946533203
0, 6, 19, 276.9645690917969
0, 6, 20, 290.9480590820312
0, 6, 21, 313.4942932128906
0, 6, 22, 318.7766723632812
0, 6, 23, 306.4773559570312
0, 6, 24, 316.7225036621094
0, 6, 25, 315.8213500976562
0, 6, 26, 319.0995178222656
0, 6, 27, 329.7075500488281
0, 6, 28, 296.9833374023438
0, 6, 29, 330.1859130859375
0, 6, 30, 280.6495361328125
0, 6, 31, 288.272705078125
0, 6, 32, 341.3262939453125
0, 6, 33, 299.5930480957031
0, 6, 34, 341.7441101074219
0, 6, 35, 321.8615417480469
0, 6, 36, 272.7994689941406
0, 6, 37, 292.1492614746094
0, 6, 38, 311.0848083496094
0, 6, 39, 301.5352783203125
0, 6, 40, 284.6402893066406
0, 6, 41, 295.3827514648438
0, 6, 42, 304.1881408691406
0, 6, 43, 290.0192565917969
0, 6, 44, 280.4890747070312
0, 6, 45, 320.1948852539062
0, 6, 46, 302.0355224609375
0, 6, 47, 333.902099609375
0, 6, 48, 293.0914001464844
0, 6, 49, 312.1351623535156
0, 6, 50, 328.3130187988281
0, 6, 51, 310.700439453125
0, 6, 52, 320.5011901855469
0, 6, 53, 328.2526245117188
0, 6, 54, 303.9804992675781
0, 6, 55, 305.6921997070312
0, 6, 56, 294.0572814941406
0, 6, 57, 314.8586120605469
0, 6, 58, 261.5879211425781
0, 6, 59, 300.9703063964844
0, 6, 60, 312.1509399414062
0, 6, 61, 272.2530822753906
0, 6, 62, 335.8521728515625
0, 6, 63, 322.6434326171875
0, 6, 64, 290.2376403808594
0, 6, 65, 286.93994140625
0, 6, 66, 302.4479064941406
0, 6, 67, 311.8344421386719
0, 6, 68, 294.053955078125
0, 6, 69, 278.0664367675781
0, 6, 70, 274.5623168945312
0, 6, 71, 289.0994567871094
0, 6, 72, 312.5398864746094
0, 6, 73, 294.6700744628906
0, 6, 74, 331.4033203125
0, 6, 75, 343.0223693847656
0, 6, 76, 296.6651611328125
0, 6, 77, 287.0002746582031
0, 6, 78, 277.4491271972656
0, 6, 79, 293.8442993164062
0, 6, 80, 302.8930358886719
0, 6, 81, 315.3751525878906
0, 6, 82, 321.8802185058594
0, 6, 83, 319.7038269042969
0, 6, 84, 295.00732421875
0, 6, 85, 300.7261962890625
0, 6, 86, 330.2706298828125
0, 6, 87, 293.5463562011719
0, 6, 88, 306.668212890625
0, 6, 89, 305.8332214355469
0, 6, 90, 302.3104248046875
0, 6, 91, 314.0239562988281
0, 6, 92, 282.6300048828125
0, 6, 93, 297.9671020507812
0, 6, 94, 273.8986206054688
0, 6, 95, 299.2479553222656
0, 6, 96, 348.9385681152344
0, 6, 97, 307.5685424804688
0, 6, 98, 301.8342590332031
0, 6, 99, 273.5106811523438
0, 6, 100, 312.0138549804688
0, 6, 101, 292.9120788574219
0, 6, 102, 308.4234619140625
0, 6, 103, 309.1668395996094
0, 6, 104, 292.8036193847656
0, 6, 105, 302.0682983398438
0, 6, 106, 305.7971801757812
0, 6, 107, 304.8096923828125
0, 6, 108, 265.5775756835938
0, 6, 109, 186.4290618896484
0, 6, 110, 53.43902969360352
0, 6, 111, 24.15172386169434
0, 6, 112, 14.10679626464844
0, 6, 113, 10.15986919403076
0, 6, 114, 12.24692440032959
0, 6, 115, 10.74565315246582
0, 6, 116, 9.684307098388672
0, 6, 117, 6.419517993927002
0, 6, 118, 8.512221336364746
0, 6, 119, 7.684908390045166
0, 6, 120, 4.854021549224854
0, 6, 121, 7.091269493103027
0, 6, 122, 8.043187141418457
0, 6, 123, 4.378104209899902
0, 6, 124, 6.908468723297119
0, 6, 125, 10.3061580657959
0, 6, 126, 4.710207939147949
0, 6, 127, 5.830912113189697
0, 7, 0, 6.577991962432861
0, 7, 1, 3.453836441040039
0, 7, 2, 5.696483612060547
0, 7, 3, 3.284706115722656
0, 7, 4, 4.969210624694824
0, 7, 5, 5.039333820343018
0, 7, 6, 6.762505054473877
0, 7, 7, 6.757975578308105
0, 7, 8, 5.03486967086792
0, 7, 9, 8.700349807739258
0, 7, 10, 8.910124778747559
0, 7, 11, 11.18163394927979
0, 7, 12, 9.270058631896973
0, 7, 13, 13.6135425567627
0, 7, 14, 9.300293922424316
0, 7, 15, 16.60776901245117
0, 7, 16, 25.41283798217773
0, 7, 17, 96.10363006591797
0, 7, 18, 219.5516967773438
0, 7, 19, 289.1636047363281
0, 7, 20, 297.4526672363281
0, 7, 21, 277.9633178710938
0, 7, 22, 299.9587097167969
0, 7, 23, 289.2955322265625
0, 7, 24, 313.6257019042969
0, 7, 25, 324.677978515625
0, 7, 26, 279.4135437011719
0, 7, 27, 296.6844787597656
0, 7, 28, 324.9074096679688
0, 7, 29, 319.3059692382812
0, 7, 30, 299.6952209472656
0, 7, 31, 277.1602172851562
0, 7, 32, 305.1138305664062
0, 7, 33, 262.6713256835938
0, 7, 34, 298.517822265625
0, 7, 35, 318.0497131347656
0, 7, 36, 330.9653015136719
0, 7, 37, 323.28955078125
0, 7, 38, 297.0236511230469
0, 7, 39, 306.4154968261719
0, 7, 40, 291.1955261230469
0, 7, 41, 270.6624145507812
0, 7, 42, 301.0127868652344
0, 7, 43, 273.0203552246094
0, 7, 44, 304.855224609375
0, 7, 45, 293.8799743652344
0, 7, 46, 281.4125366210938
0, 7, 47, 329.4407043457031
0, 7, 48, 285.1703491210938
0, 7, 49, 300.4833068847656
0, 7, 50, 322.9551391601562
0, 7, 51, 299.5744323730469
0, 7, 52, 326.5834045410156
0, 7, 53, 308.7296752929688
0, 7, 54, 322.1081237792969
0, 7, 55, 306.4931945800781
0, 7, 56, 279.0199584960938
0, 7, 57, 283.3331604003906
0, 7, 58, 295.0099487304688
0, 7, 59, 296.5797424316406
0, 7, 60, 322.8973999023438
0, 7, 61, 277.8682861328125
0, 7, 62, 297.1313781738281
0, 7, 63, 293.2428283691406
0, 7, 64, 311.7645568847656
0, 7, 65, 330.30224609375
0, 7, 66, 319.6576843261719
0, 7, 67, 302.7520751953125
0, 7, 68, 281.3890991210938
0, 7, 69, 294.7962341308594
0, 7, 70, 302.1712951660156
0, 7, 71, 308.8775634765625
0, 7, 72, 284.4508361816406
0, 7, 73, 294.2802124023438
0, 7, 74, 344.5458984375
0, 7, 75, 319.201171875
0, 7, 76, 325.2373352050781
0, 7, 77, 280.99560546875
0, 7, 78, 300.2474975585938
0, 7, 79, 296.9128723144531
0, 7, 80, 314.5628967285156
0, 7, 81, 319.3904113769531
0, 7, 82, 329.0040588378906
0, 7, 83, 318.3688049316406
0, 7, 84, 310.09033203125
0, 7, 85, 271.6214599609375
0, 7, 86, 310.1001892089844
0, 7, 87, 311.4901733398438
0, 7, 88, 306.7500610351562
0, 7, 89, 293.0496520996094
0, 7, 90, 306.1043090820312
0, 7, 91, 314.8218994140625
0, 7, 92, 288.074462890625
0, 7, 93, 306.5561218261719
0, 7, 94, 272.0874328613281
0, 7, 95, 297.5713500976562
0, 7, 96, 331.7219543457031
0, 7, 97, 295.1972961425781
0, 7, 98, 293.9295654296875
0, 7, 99, 312.9828796386719
0, 7, 100, 283.5474243164062
0, 7, 101, 274.640380859375
0, 7, 102, 288.869873046875
0, 7, 103, 291.9465942382812
0, 7, 104, 275.5540466308594
0, 7, 105, 309.90966796875
0, 7, 106, 317.1974182128906
0, 7, 107, 295.9347839355469
0, 7, 108, 273.3755187988281
0, 7, 109, 236.6912384033203
0, 7, 110, 97.92889404296875
0, 7, 111, 22.99609756469727
0, 7, 112, 11.87302494049072
0, 7, 113, 14.54410743713379
0, 7, 114, 14.31554508209229
0, 7, 115, 12.656005859375
0, 7, 116, 7.645893096923828
0, 7, 117, 4.941445827484131
0, 7, 118, 9.298090934753418
0, 7, 119, 4.008185863494873
0, 7, 120, 6.533936023712158
0, 7, 121, 7.545256614685059
0, 7, 122, 6.409417629241943
0, 7, 123, 4.875504016876221
0, 7, 124, 2.91450023651123
0, 7, 125, 6.25768518447876
0, 7, 126, 8.045177459716797
0, 7, 127, 4.109975337982178
0, 8, 0, 5.335357189178467
0, 8, 1, 3.579618453979492
0, 8, 2, 4.378323078155518
0, 8, 3, 3.658251285552979
0, 8, 4, 3.573309898376465
0, 8, 5, 4.875422954559326
0, 8, 6, 8.331685066223145
0, 8, 7, 4.197426795959473
0, 8, 8, 7.118111610412598
0, 8, 9, 4.69184398651123
0, 8, 10, 8.222540855407715
0, 8, 11, 10.68203926086426
0, 8, 12, 11.96869850158691
0, 8, 13, 16.78806686401367
0, 8, 14, 12.93710517883301
0, 8, 15, 18.85066795349121
0, 8, 16, 34.54848861694336
0, 8, 17, 130.2370910644531
0, 8, 18, 243.6195526123047
0, 8, 19, 293.4002990722656
0, 8, 20, 285.2954406738281
0, 8, 21, 307.7451477050781
0, 8, 22, 294.4733581542969
0, 8, 23, 274.0411376953125
0, 8, 24, 268.2356262207031
0, 8, 25, 275.7457275390625
0, 8, 26, 305.8218078613281
0, 8, 27, 308.0249938964844
0, 8, 28, 304.5442199707031
0, 8, 29, 319.7578125
0, 8, 30, 319.2368469238281
0, 8, 31, 303.5179748535156
0, 8, 32, 281.1868591308594
0, 8, 33, 293.7141418457031
0, 8, 34, 288.9236755371094
0, 8, 35, 281.6583557128906
0, 8, 36, 317.3959045410156
0, 8, 37, 337.5198974609375
0, 8, 38, 332.70361328125
0, 8, 39, 281.0454406738281
0, 8, 40, 304.8630065917969
0, 8, 41, 293.6919555664062
