# TOPAS Version: 3.1.p3
# Parameter File: batch_inserts_210.txt
# Results for scorer Readout_Adipose
# Scored in component: MyBox
# X in 1 bin  of 0.75 cm
# Y in 512 bins of 0.0783984 cm
# Z in 128 bins of 0.078125 cm
# EnergyDeposit ( MeV ) : Sum   
0, 0, 0, 4.720478057861328
0, 0, 1, 2.81890606880188
0, 0, 2, 4.834096431732178
0, 0, 3, 2.107322216033936
0, 0, 4, 4.622502326965332
0, 0, 5, 3.347155809402466
0, 0, 6, 7.970026016235352
0, 0, 7, 7.483466148376465
0, 0, 8, 1.912442326545715
0, 0, 9, 3.496035099029541
0, 0, 10, 9.261233329772949
0, 0, 11, 4.824753761291504
0, 0, 12, 5.092519760131836
0, 0, 13, 5.015045642852783
0, 0, 14, 8.41310977935791
0, 0, 15, 10.48632335662842
0, 0, 16, 9.21543025970459
0, 0, 17, 9.90151309967041
0, 0, 18, 14.06356525421143
0, 0, 19, 44.69199371337891
0, 0, 20, 139.3077850341797
0, 0, 21, 223.9562225341797
0, 0, 22, 247.9833068847656
0, 0, 23, 258.2160339355469
0, 0, 24, 249.8216552734375
0, 0, 25, 258.8311462402344
0, 0, 26, 235.8520660400391
0, 0, 27, 238.1379699707031
0, 0, 28, 272.0453491210938
0, 0, 29, 251.8729248046875
0, 0, 30, 229.2963104248047
0, 0, 31, 243.5351715087891
0, 0, 32, 263.6358947753906
0, 0, 33, 259.6257629394531
0, 0, 34, 285.8722839355469
0, 0, 35, 266.5127258300781
0, 0, 36, 246.2975769042969
0, 0, 37, 252.6451721191406
0, 0, 38, 267.4823303222656
0, 0, 39, 228.7565460205078
0, 0, 40, 241.6245422363281
0, 0, 41, 265.339111328125
0, 0, 42, 228.6679382324219
0, 0, 43, 261.34716796875
0, 0, 44, 253.6454467773438
0, 0, 45, 252.9340209960938
0, 0, 46, 244.6055908203125
0, 0, 47, 253.3962860107422
0, 0, 48, 266.3801574707031
0, 0, 49, 273.3574829101562
0, 0, 50, 251.4626159667969
0, 0, 51, 256.2279052734375
0, 0, 52, 273.170166015625
0, 0, 53, 291.7563781738281
0, 0, 54, 242.4927062988281
0, 0, 55, 239.5163879394531
0, 0, 56, 278.4725341796875
0, 0, 57, 263.4834899902344
0, 0, 58, 245.1009979248047
0, 0, 59, 272.3458251953125
0, 0, 60, 234.2580413818359
0, 0, 61, 244.2287750244141
0, 0, 62, 257.2228698730469
0, 0, 63, 267.4374084472656
0, 0, 64, 256.1315002441406
0, 0, 65, 260.3207397460938
0, 0, 66, 276.031494140625
0, 0, 67, 245.0318756103516
0, 0, 68, 259.1354675292969
0, 0, 69, 260.7117004394531
0, 0, 70, 271.1668090820312
0, 0, 71, 238.4182434082031
0, 0, 72, 249.4088134765625
0, 0, 73, 258.4898071289062
0, 0, 74, 251.3847503662109
0, 0, 75, 240.7624816894531
0, 0, 76, 228.9907989501953
0, 0, 77, 261.1899719238281
0, 0, 78, 259.7078857421875
0, 0, 79, 278.5092163085938
0, 0, 80, 216.626708984375
0, 0, 81, 269.3488159179688
0, 0, 82, 255.4374694824219
0, 0, 83, 244.6815490722656
0, 0, 84, 267.5909118652344
0, 0, 85, 230.7536315917969
0, 0, 86, 253.5115509033203
0, 0, 87, 251.002197265625
0, 0, 88, 259.5675354003906
0, 0, 89, 284.50927734375
0, 0, 90, 244.4819183349609
0, 0, 91, 281.2384643554688
0, 0, 92, 254.1122589111328
0, 0, 93, 248.5865936279297
0, 0, 94, 249.5179595947266
0, 0, 95, 247.7318115234375
0, 0, 96, 276.8060302734375
0, 0, 97, 272.6542663574219
0, 0, 98, 275.3629455566406
0, 0, 99, 258.0972595214844
0, 0, 100, 258.6143188476562
0, 0, 101, 227.0521545410156
0, 0, 102, 232.2009735107422
0, 0, 103, 268.6846008300781
0, 0, 104, 255.6156311035156
0, 0, 105, 250.3332672119141
0, 0, 106, 244.4521484375
0, 0, 107, 150.8046569824219
0, 0, 108, 37.28285598754883
0, 0, 109, 11.73329544067383
0, 0, 110, 13.03887939453125
0, 0, 111, 7.967227458953857
0, 0, 112, 6.503871917724609
0, 0, 113, 4.659229755401611
0, 0, 114, 6.726814270019531
0, 0, 115, 5.181262016296387
0, 0, 116, 4.352123737335205
0, 0, 117, 5.692813873291016
0, 0, 118, 7.144437789916992
0, 0, 119, 4.67620849609375
0, 0, 120, 3.919324159622192
0, 0, 121, 4.836956024169922
0, 0, 122, 3.235204696655273
0, 0, 123, 3.170866966247559
0, 0, 124, 4.631452560424805
0, 0, 125, 4.837610244750977
0, 0, 126, 5.767252922058105
0, 0, 127, 4.205890655517578
0, 1, 0, 7.455010890960693
0, 1, 1, 2.451290607452393
0, 1, 2, 5.45796537399292
0, 1, 3, 2.026877641677856
0, 1, 4, 3.793665409088135
0, 1, 5, 5.394917011260986
0, 1, 6, 5.043161869049072
0, 1, 7, 5.561941623687744
0, 1, 8, 8.727362632751465
0, 1, 9, 4.089221000671387
0, 1, 10, 7.039043426513672
0, 1, 11, 11.48968410491943
0, 1, 12, 7.79558277130127
0, 1, 13, 11.37943363189697
0, 1, 14, 7.678048133850098
0, 1, 15, 8.836938858032227
0, 1, 16, 11.94388961791992
0, 1, 17, 11.69000911712646
0, 1, 18, 20.2796573638916
0, 1, 19, 65.49209594726562
0, 1, 20, 198.3646697998047
0, 1, 21, 255.2926330566406
0, 1, 22, 299.4424438476562
0, 1, 23, 283.7669677734375
0, 1, 24, 275.0430603027344
0, 1, 25, 288.8716430664062
0, 1, 26, 268.615478515625
0, 1, 27, 306.4923706054688
0, 1, 28, 297.9616394042969
0, 1, 29, 296.3292541503906
0, 1, 30, 280.0816345214844
0, 1, 31, 292.2111511230469
0, 1, 32, 290.1526489257812
0, 1, 33, 295.1201477050781
0, 1, 34, 291.6134948730469
0, 1, 35, 278.050048828125
0, 1, 36, 306.2981262207031
0, 1, 37, 295.6483764648438
0, 1, 38, 280.1479187011719
0, 1, 39, 297.2809143066406
0, 1, 40, 265.5919799804688
0, 1, 41, 285.0662231445312
0, 1, 42, 288.6547546386719
0, 1, 43, 332.4748840332031
0, 1, 44, 278.6695556640625
0, 1, 45, 293.1966552734375
0, 1, 46, 259.892333984375
0, 1, 47, 310.3548889160156
0, 1, 48, 284.97265625
0, 1, 49, 301.6319885253906
0, 1, 50, 262.2868041992188
0, 1, 51, 272.6648254394531
0, 1, 52, 293.9710998535156
0, 1, 53, 303.2131652832031
0, 1, 54, 275.3406372070312
0, 1, 55, 292.4254150390625
0, 1, 56, 279.6772766113281
0, 1, 57, 297.0003967285156
0, 1, 58, 311.6912231445312
0, 1, 59, 293.6840209960938
0, 1, 60, 296.8302612304688
0, 1, 61, 274.2491760253906
0, 1, 62, 309.9259033203125
0, 1, 63, 289.2373046875
0, 1, 64, 288.9332275390625
0, 1, 65, 294.442138671875
0, 1, 66, 293.4396362304688
0, 1, 67, 293.3291625976562
0, 1, 68, 278.63916015625
0, 1, 69, 281.6868591308594
0, 1, 70, 271.1807861328125
0, 1, 71, 272.2763061523438
0, 1, 72, 285.7242126464844
0, 1, 73, 304.055908203125
0, 1, 74, 305.4613037109375
0, 1, 75, 295.5057067871094
0, 1, 76, 284.2496643066406
0, 1, 77, 288.8691101074219
0, 1, 78, 298.104248046875
0, 1, 79, 301.690185546875
0, 1, 80, 295.8481750488281
0, 1, 81, 300.0086364746094
0, 1, 82, 285.4039001464844
0, 1, 83, 331.3079528808594
0, 1, 84, 308.3786315917969
0, 1, 85, 253.7861022949219
0, 1, 86, 294.2964172363281
0, 1, 87, 289.3616027832031
0, 1, 88, 298.3978576660156
0, 1, 89, 288.8235168457031
0, 1, 90, 270.6547546386719
0, 1, 91, 317.7547912597656
0, 1, 92, 290.3031311035156
0, 1, 93, 287.8458557128906
0, 1, 94, 302.76025390625
0, 1, 95, 283.6026000976562
0, 1, 96, 282.6857604980469
0, 1, 97, 301.2339477539062
0, 1, 98, 276.9643859863281
0, 1, 99, 268.7845458984375
0, 1, 100, 276.7043151855469
0, 1, 101, 282.1258850097656
0, 1, 102, 278.21630859375
0, 1, 103, 281.0052185058594
0, 1, 104, 306.7268981933594
0, 1, 105, 298.21435546875
0, 1, 106, 263.6550903320312
0, 1, 107, 192.9579772949219
0, 1, 108, 80.61829376220703
0, 1, 109, 23.04617118835449
0, 1, 110, 11.68624305725098
0, 1, 111, 10.7574987411499
0, 1, 112, 11.19885635375977
0, 1, 113, 4.756393432617188
0, 1, 114, 6.674811363220215
0, 1, 115, 5.772168636322021
0, 1, 116, 10.60922050476074
0, 1, 117, 4.771105289459229
0, 1, 118, 3.994539737701416
0, 1, 119, 4.778640747070312
0, 1, 120, 4.938689231872559
0, 1, 121, 5.897493362426758
0, 1, 122, 2.011045455932617
0, 1, 123, 3.262099266052246
0, 1, 124, 7.957795143127441
0, 1, 125, 6.473780632019043
0, 1, 126, 2.100060224533081
0, 1, 127, 2.38258171081543
0, 2, 0, 4.247535705566406
0, 2, 1, 3.039311408996582
0, 2, 2, 4.346147060394287
0, 2, 3, 3.741827249526978
0, 2, 4, 2.315891742706299
0, 2, 5, 1.361269593238831
0, 2, 6, 3.502639055252075
0, 2, 7, 4.121033668518066
0, 2, 8, 4.332183837890625
0, 2, 9, 5.476725578308105
0, 2, 10, 6.955631256103516
0, 2, 11, 4.680164337158203
0, 2, 12, 5.80678129196167
0, 2, 13, 9.345773696899414
0, 2, 14, 9.774177551269531
0, 2, 15, 8.114866256713867
0, 2, 16, 11.10311222076416
0, 2, 17, 16.78542137145996
0, 2, 18, 28.42742156982422
0, 2, 19, 115.8078536987305
0, 2, 20, 249.8401641845703
0, 2, 21, 270.2590026855469
0, 2, 22, 315.5256042480469
0, 2, 23, 299.9579772949219
0, 2, 24, 285.2561645507812
0, 2, 25, 302.2538452148438
0, 2, 26, 293.3477478027344
0, 2, 27, 277.599609375
0, 2, 28, 272.1247863769531
0, 2, 29, 274.8701171875
0, 2, 30, 288.9561767578125
0, 2, 31, 276.3794555664062
0, 2, 32, 293.9601135253906
0, 2, 33, 281.7553405761719
0, 2, 34, 334.0367431640625
0, 2, 35, 288.8770446777344
0, 2, 36, 306.1748046875
0, 2, 37, 317.2018432617188
0, 2, 38, 309.6294860839844
0, 2, 39, 267.18798828125
0, 2, 40, 308.4502563476562
0, 2, 41, 294.2348937988281
0, 2, 42, 302.9746398925781
0, 2, 43, 311.380615234375
0, 2, 44, 310.8722229003906
0, 2, 45, 324.6120910644531
0, 2, 46, 286.1876831054688
0, 2, 47, 303.0154724121094
0, 2, 48, 279.9105224609375
0, 2, 49, 279.9911499023438
0, 2, 50, 293.8554992675781
0, 2, 51, 284.2431030273438
0, 2, 52, 272.5340576171875
0, 2, 53, 286.7833862304688
0, 2, 54, 280.7478332519531
0, 2, 55, 273.7603759765625
0, 2, 56, 303.2589416503906
0, 2, 57, 292.1274108886719
0, 2, 58, 302.9676208496094
0, 2, 59, 291.1009216308594
0, 2, 60, 319.9337158203125
0, 2, 61, 301.12353515625
0, 2, 62, 312.8256225585938
0, 2, 63, 302.5997009277344
0, 2, 64, 296.3809814453125
0, 2, 65, 313.0231018066406
0, 2, 66, 280.8019714355469
0, 2, 67, 290.7989807128906
0, 2, 68, 295.9728698730469
0, 2, 69, 309.2857971191406
0, 2, 70, 333.9860534667969
0, 2, 71, 284.1345520019531
0, 2, 72, 301.9624938964844
0, 2, 73, 311.9480895996094
0, 2, 74, 286.0391540527344
0, 2, 75, 303.4345703125
0, 2, 76, 286.538818359375
0, 2, 77, 299.5826110839844
0, 2, 78, 314.1619873046875
0, 2, 79, 308.0967712402344
0, 2, 80, 297.0828552246094
0, 2, 81, 282.3774719238281
0, 2, 82, 318.1357727050781
0, 2, 83, 314.1337585449219
0, 2, 84, 288.7170104980469
0, 2, 85, 283.0437316894531
0, 2, 86, 323.3902893066406
0, 2, 87, 285.57177734375
0, 2, 88, 281.3746643066406
0, 2, 89, 299.1950988769531
0, 2, 90, 294.5742797851562
0, 2, 91, 274.6710815429688
0, 2, 92, 307.1947021484375
0, 2, 93, 318.2155151367188
0, 2, 94, 291.6914978027344
0, 2, 95, 313.4879150390625
0, 2, 96, 315.840576171875
0, 2, 97, 290.2128601074219
0, 2, 98, 292.0658874511719
0, 2, 99, 273.4468688964844
0, 2, 100, 308.8865051269531
0, 2, 101, 301.3181762695312
0, 2, 102, 296.0242309570312
0, 2, 103, 293.115234375
0, 2, 104, 293.3941955566406
0, 2, 105, 273.4210815429688
0, 2, 106, 296.5912170410156
0, 2, 107, 272.1752624511719
0, 2, 108, 117.1596069335938
0, 2, 109, 32.92055130004883
0, 2, 110, 10.40150737762451
0, 2, 111, 13.53036499023438
0, 2, 112, 7.819239616394043
0, 2, 113, 9.336203575134277
0, 2, 114, 8.60591983795166
0, 2, 115, 9.968259811401367
0, 2, 116, 7.190629005432129
0, 2, 117, 8.227178573608398
0, 2, 118, 3.484900951385498
0, 2, 119, 2.83761739730835
0, 2, 120, 7.702258586883545
0, 2, 121, 1.939397215843201
0, 2, 122, 4.594940185546875
0, 2, 123, 4.09308385848999
0, 2, 124, 3.061042547225952
0, 2, 125, 5.91334056854248
0, 2, 126, 2.870234489440918
0, 2, 127, 5.008878231048584
0, 3, 0, 2.707241535186768
0, 3, 1, 3.335743427276611
0, 3, 2, 3.720471382141113
0, 3, 3, 2.335246086120605
0, 3, 4, 3.309133291244507
0, 3, 5, 5.841058254241943
0, 3, 6, 7.657977104187012
0, 3, 7, 5.181875228881836
0, 3, 8, 5.288246631622314
0, 3, 9, 6.301121711730957
0, 3, 10, 6.77480936050415
0, 3, 11, 5.828881740570068
0, 3, 12, 7.813708305358887
0, 3, 13, 14.7152271270752
0, 3, 14, 11.0395975112915
0, 3, 15, 12.93561458587646
0, 3, 16, 11.26596069335938
0, 3, 17, 20.45750045776367
0, 3, 18, 55.84975433349609
0, 3, 19, 176.90966796875
0, 3, 20, 268.5453491210938
0, 3, 21, 270.7423095703125
0, 3, 22, 282.5243835449219
0, 3, 23, 286.3005676269531
0, 3, 24, 289.2130737304688
0, 3, 25, 270.6573181152344
0, 3, 26, 304.2913208007812
0, 3, 27, 292.2679443359375
0, 3, 28, 281.4577941894531
0, 3, 29, 338.7369689941406
0, 3, 30, 315.9024658203125
0, 3, 31, 290.8718566894531
0, 3, 32, 306.5788879394531
0, 3, 33, 314.0513610839844
0, 3, 34, 322.0227661132812
0, 3, 35, 306.2756042480469
0, 3, 36, 270.5906066894531
0, 3, 37, 312.9496154785156
0, 3, 38, 304.3157043457031
0, 3, 39, 290.1469116210938
0, 3, 40, 267.2622375488281
0, 3, 41, 299.9403686523438
0, 3, 42, 283.8963317871094
0, 3, 43, 308.8548889160156
0, 3, 44, 310.5236511230469
0, 3, 45, 289.7652893066406
0, 3, 46, 329.4985961914062
0, 3, 47, 300.557373046875
0, 3, 48, 304.1644287109375
0, 3, 49, 276.7848205566406
0, 3, 50, 290.5285949707031
0, 3, 51, 275.3865661621094
0, 3, 52, 315.2241516113281
0, 3, 53, 287.7637329101562
0, 3, 54, 285.8156127929688
0, 3, 55, 283.0372924804688
0, 3, 56, 299.180908203125
0, 3, 57, 288.2091369628906
0, 3, 58, 304.2422485351562
0, 3, 59, 292.7536010742188
0, 3, 60, 297.3977661132812
0, 3, 61, 264.9439086914062
0, 3, 62, 283.8011474609375
0, 3, 63, 307.907470703125
0, 3, 64, 316.315185546875
0, 3, 65, 304.0159301757812
0, 3, 66, 316.1404418945312
0, 3, 67, 317.78564453125
0, 3, 68, 279.6755981445312
0, 3, 69, 284.2571716308594
0, 3, 70, 287.5305480957031
0, 3, 71, 299.3568725585938
0, 3, 72, 272.1744995117188
0, 3, 73, 310.817138671875
0, 3, 74, 296.8282775878906
0, 3, 75, 288.7814331054688
0, 3, 76, 305.1167602539062
0, 3, 77, 313.8742980957031
0, 3, 78, 305.5449829101562
0, 3, 79, 282.5705871582031
0, 3, 80, 290.3257446289062
0, 3, 81, 311.1897888183594
0, 3, 82, 315.386474609375
0, 3, 83, 300.5129089355469
0, 3, 84, 312.1311950683594
0, 3, 85, 292.3509521484375
0, 3, 86, 303.6706848144531
0, 3, 87, 297.7900085449219
0, 3, 88, 296.9154663085938
0, 3, 89, 296.2596130371094
0, 3, 90, 275.9358215332031
0, 3, 91, 285.9796447753906
0, 3, 92, 304.2406921386719
0, 3, 93, 312.5686645507812
0, 3, 94, 298.0322570800781
0, 3, 95, 334.1319274902344
0, 3, 96, 290.2978515625
0, 3, 97, 286.8172912597656
0, 3, 98, 279.4979858398438
0, 3, 99, 262.1546325683594
0, 3, 100, 283.3370361328125
0, 3, 101, 296.4443054199219
0, 3, 102, 274.25390625
0, 3, 103, 320.7940063476562
0, 3, 104, 309.7989807128906
0, 3, 105, 287.9356079101562
0, 3, 106, 303.7918090820312
0, 3, 107, 282.0206909179688
0, 3, 108, 166.9517517089844
0, 3, 109, 56.19928741455078
0, 3, 110, 17.98000144958496
0, 3, 111, 12.62908840179443
0, 3, 112, 13.38194942474365
0, 3, 113, 7.470297336578369
0, 3, 114, 9.086080551147461
0, 3, 115, 7.297689437866211
0, 3, 116, 9.05991268157959
0, 3, 117, 7.075016498565674
0, 3, 118, 8.502667427062988
0, 3, 119, 6.719088077545166
0, 3, 120, 6.924028396606445
0, 3, 121, 3.370286464691162
0, 3, 122, 3.139191627502441
0, 3, 123, 4.790019035339355
0, 3, 124, 5.409796714782715
0, 3, 125, 5.309776782989502
0, 3, 126, 4.30128288269043
0, 3, 127, 2.186137676239014
0, 4, 0, 2.993305444717407
0, 4, 1, 3.809077978134155
0, 4, 2, 3.812294721603394
0, 4, 3, 1.94062328338623
0, 4, 4, 6.145112991333008
0, 4, 5, 8.036283493041992
0, 4, 6, 7.536205291748047
0, 4, 7, 5.15809965133667
0, 4, 8, 4.648212909698486
0, 4, 9, 7.111640930175781
0, 4, 10, 6.476963043212891
0, 4, 11, 5.890949726104736
0, 4, 12, 6.442386627197266
0, 4, 13, 7.706422805786133
0, 4, 14, 10.72750568389893
0, 4, 15, 8.701491355895996
0, 4, 16, 13.49662208557129
0, 4, 17, 22.19955062866211
0, 4, 18, 93.54219818115234
0, 4, 19, 223.9000701904297
0, 4, 20, 285.8066101074219
0, 4, 21, 272.8687744140625
0, 4, 22, 304.6767272949219
0, 4, 23, 265.756103515625
0, 4, 24, 288.8673095703125
0, 4, 25, 271.8962097167969
0, 4, 26, 294.0101928710938
0, 4, 27, 282.7969970703125
0, 4, 28, 306.298583984375
0, 4, 29, 322.4130249023438
0, 4, 30, 309.2328186035156
0, 4, 31, 305.5115661621094
0, 4, 32, 279.9827880859375
0, 4, 33, 295.9330749511719
0, 4, 34, 296.6039428710938
0, 4, 35, 312.1275939941406
0, 4, 36, 293.6492919921875
0, 4, 37, 290.466552734375
0, 4, 38, 298.1811828613281
0, 4, 39, 295.7294616699219
0, 4, 40, 301.3370971679688
0, 4, 41, 310.4079895019531
0, 4, 42, 329.9741821289062
0, 4, 43, 298.6484680175781
0, 4, 44, 320.0637512207031
0, 4, 45, 322.4581604003906
0, 4, 46, 305.7373657226562
0, 4, 47, 292.2909545898438
0, 4, 48, 295.3252868652344
0, 4, 49, 278.2548828125
0, 4, 50, 296.9514770507812
0, 4, 51, 317.6890869140625
0, 4, 52, 325.7393798828125
0, 4, 53, 304.335205078125
0, 4, 54, 288.1131896972656
0, 4, 55, 314.6584777832031
0, 4, 56, 288.0233459472656
0, 4, 57, 311.3976745605469
0, 4, 58, 299.0584716796875
0, 4, 59, 308.5186462402344
0, 4, 60, 304.3796691894531
0, 4, 61, 315.7458190917969
0, 4, 62, 306.4747924804688
0, 4, 63, 298.4418029785156
0, 4, 64, 333.5934448242188
0, 4, 65, 315.9306030273438
0, 4, 66, 293.7471313476562
0, 4, 67, 284.8409423828125
0, 4, 68, 311.8507690429688
0, 4, 69, 274.6627807617188
0, 4, 70, 300.8914489746094
0, 4, 71, 322.4770812988281
0, 4, 72, 334.179931640625
0, 4, 73, 297.8292236328125
0, 4, 74, 293.0617980957031
0, 4, 75, 292.2683410644531
0, 4, 76, 275.234130859375
0, 4, 77, 280.0177307128906
0, 4, 78, 308.6415405273438
0, 4, 79, 321.7528991699219
0, 4, 80, 317.3501586914062
0, 4, 81, 312.1895446777344
0, 4, 82, 296.5286560058594
0, 4, 83, 300.8385314941406
0, 4, 84, 290.986328125
0, 4, 85, 295.8415222167969
0, 4, 86, 298.4902038574219
0, 4, 87, 285.3441162109375
0, 4, 88, 306.9594116210938
0, 4, 89, 294.4930114746094
0, 4, 90, 332.2593688964844
0, 4, 91, 302.0570373535156
0, 4, 92, 289.0903625488281
0, 4, 93, 296.0281982421875
0, 4, 94, 293.8234558105469
0, 4, 95, 289.4964294433594
0, 4, 96, 323.75634765625
0, 4, 97, 274.5895080566406
0, 4, 98, 329.085205078125
0, 4, 99, 314.0488891601562
0, 4, 100, 300.9328918457031
0, 4, 101, 257.4837341308594
0, 4, 102, 297.1202697753906
0, 4, 103, 317.0939636230469
0, 4, 104, 281.5587463378906
0, 4, 105, 310.0845336914062
0, 4, 106, 287.5917663574219
0, 4, 107, 295.5588073730469
0, 4, 108, 226.0354309082031
0, 4, 109, 80.15679168701172
0, 4, 110, 15.43621349334717
0, 4, 111, 13.54598999023438
0, 4, 112, 8.716958999633789
0, 4, 113, 10.27686500549316
0, 4, 114, 10.45388889312744
0, 4, 115, 10.60371780395508
0, 4, 116, 8.26494312286377
0, 4, 117, 6.345252990722656
0, 4, 118, 11.01601600646973
0, 4, 119, 9.318332672119141
0, 4, 120, 7.030107021331787
0, 4, 121, 5.785537242889404
0, 4, 122, 3.992395877838135
0, 4, 123, 7.596960544586182
0, 4, 124, 4.622438907623291
0, 4, 125, 8.375409126281738
0, 4, 126, 6.482656478881836
0, 4, 127, 4.395395755767822
0, 5, 0, 6.687958240509033
0, 5, 1, 4.200207710266113
0, 5, 2, 7.181844234466553
0, 5, 3, 3.468008279800415
0, 5, 4, 6.023083686828613
0, 5, 5, 6.499934673309326
0, 5, 6, 5.910647392272949
0, 5, 7, 6.218249320983887
0, 5, 8, 4.496400833129883
0, 5, 9, 4.172829627990723
0, 5, 10, 8.097380638122559
0, 5, 11, 8.037510871887207
0, 5, 12, 8.192272186279297
0, 5, 13, 7.444563388824463
0, 5, 14, 12.59177303314209
0, 5, 15, 19.92002487182617
0, 5, 16, 16.12695503234863
0, 5, 17, 29.02621841430664
0, 5, 18, 138.9319763183594
0, 5, 19, 286.1058044433594
0, 5, 20, 308.1491088867188
0, 5, 21, 316.2138977050781
0, 5, 22, 276.1006469726562
0, 5, 23, 309.8761596679688
0, 5, 24, 302.6449279785156
0, 5, 25, 289.9772033691406
0, 5, 26, 294.19482421875
0, 5, 27, 323.4789428710938
0, 5, 28, 304.7505798339844
0, 5, 29, 299.3033142089844
0, 5, 30, 322.781005859375
0, 5, 31, 286.4259948730469
0, 5, 32, 302.3220825195312
0, 5, 33, 304.3437805175781
0, 5, 34, 295.6550598144531
0, 5, 35, 310.8575134277344
0, 5, 36, 268.7581176757812
0, 5, 37, 281.0594177246094
0, 5, 38, 292.2493286132812
0, 5, 39, 311.3969421386719
0, 5, 40, 308.0518798828125
0, 5, 41, 272.0448913574219
0, 5, 42, 309.7932434082031
0, 5, 43, 314.361572265625
0, 5, 44, 293.5823669433594
0, 5, 45, 301.0993957519531
0, 5, 46, 266.0613403320312
0, 5, 47, 281.0019836425781
0, 5, 48, 294.4990539550781
0, 5, 49, 286.0066528320312
0, 5, 50, 298.2737426757812
0, 5, 51, 281.9434509277344
0, 5, 52, 268.3089599609375
0, 5, 53, 282.2826232910156
0, 5, 54, 291.3906860351562
0, 5, 55, 343.1605834960938
0, 5, 56, 305.7190246582031
0, 5, 57, 307.9842224121094
0, 5, 58, 313.6069641113281
0, 5, 59, 305.4688415527344
0, 5, 60, 306.3129272460938
0, 5, 61, 282.3216857910156
0, 5, 62, 325.6066284179688
0, 5, 63, 293.161376953125
0, 5, 64, 322.7330627441406
0, 5, 65, 307.1784057617188
0, 5, 66, 328.2529296875
0, 5, 67, 310.7624206542969
0, 5, 68, 311.1701049804688
0, 5, 69, 312.8481750488281
0, 5, 70, 302.5740051269531
0, 5, 71, 271.2478942871094
0, 5, 72, 309.9262084960938
0, 5, 73, 301.3347778320312
0, 5, 74, 294.7985229492188
0, 5, 75, 296.3492126464844
0, 5, 76, 286.4729919433594
0, 5, 77, 297.1507873535156
0, 5, 78, 313.7864074707031
0, 5, 79, 306.61962890625
0, 5, 80, 295.6875610351562
0, 5, 81, 325.507080078125
0, 5, 82, 322.9714050292969
0, 5, 83, 280.7917785644531
0, 5, 84, 301.0346374511719
0, 5, 85, 271.6454162597656
0, 5, 86, 326.7738647460938
0, 5, 87, 285.375
0, 5, 88, 313.9429321289062
0, 5, 89, 305.0672302246094
0, 5, 90, 315.3834533691406
0, 5, 91, 314.5661315917969
0, 5, 92, 295.7079772949219
0, 5, 93, 320.8216552734375
0, 5, 94, 308.6728820800781
0, 5, 95, 296.5226745605469
0, 5, 96, 298.9084167480469
0, 5, 97, 294.8132019042969
0, 5, 98, 318.485107421875
0, 5, 99, 301.2331237792969
0, 5, 100, 289.3377075195312
0, 5, 101, 304.3626708984375
0, 5, 102, 291.5718994140625
0, 5, 103, 313.8586730957031
0, 5, 104, 304.0409851074219
0, 5, 105, 291.4471130371094
0, 5, 106, 281.3790283203125
0, 5, 107, 296.0722351074219
0, 5, 108, 265.3754577636719
0, 5, 109, 156.859619140625
0, 5, 110, 39.05930709838867
0, 5, 111, 21.00276947021484
0, 5, 112, 19.56321907043457
0, 5, 113, 15.02276992797852
0, 5, 114, 13.34027576446533
0, 5, 115, 6.934299468994141
0, 5, 116, 7.697239875793457
0, 5, 117, 8.729084968566895
0, 5, 118, 12.42905044555664
0, 5, 119, 6.902257919311523
0, 5, 120, 7.118832588195801
0, 5, 121, 5.742422580718994
0, 5, 122, 6.500314235687256
0, 5, 123, 5.520167827606201
0, 5, 124, 6.129731178283691
0, 5, 125, 4.188987731933594
0, 5, 126, 7.497820854187012
0, 5, 127, 4.734321594238281
0, 6, 0, 4.289967060089111
0, 6, 1, 5.053292751312256
0, 6, 2, 4.593790531158447
0, 6, 3, 6.878281593322754
0, 6, 4, 4.109619617462158
0, 6, 5, 6.812777996063232
0, 6, 6, 7.473799705505371
0, 6, 7, 6.786384582519531
0, 6, 8, 7.036098957061768
0, 6, 9, 6.033828735351562
0, 6, 10, 9.865632057189941
0, 6, 11, 8.895867347717285
0, 6, 12, 9.290379524230957
0, 6, 13, 15.4296760559082
0, 6, 14, 9.910765647888184
0, 6, 15, 15.93213176727295
0, 6, 16, 32.0313720703125
0, 6, 17, 53.60626220703125
0, 6, 18, 174.7741394042969
0, 6, 19, 275.5362548828125
0, 6, 20, 290.3022766113281
0, 6, 21, 313.6726684570312
0, 6, 22, 319.9933471679688
0, 6, 23, 305.1268310546875
0, 6, 24, 316.3195495605469
0, 6, 25, 315.9078979492188
0, 6, 26, 321.4652099609375
0, 6, 27, 332.3613891601562
0, 6, 28, 296.7116394042969
0, 6, 29, 328.9866638183594
0, 6, 30, 279.9012451171875
0, 6, 31, 285.7772216796875
0, 6, 32, 340.4181518554688
0, 6, 33, 300.9459228515625
0, 6, 34, 340.6078796386719
0, 6, 35, 321.1766052246094
0, 6, 36, 274.49267578125
0, 6, 37, 288.9552307128906
0, 6, 38, 312.7940673828125
0, 6, 39, 300.0945434570312
0, 6, 40, 283.7784423828125
0, 6, 41, 293.5018310546875
0, 6, 42, 306.8076477050781
0, 6, 43, 288.7575378417969
0, 6, 44, 280.0355529785156
0, 6, 45, 319.0735778808594
0, 6, 46, 300.3659057617188
0, 6, 47, 331.7206420898438
0, 6, 48, 291.8333129882812
0, 6, 49, 311.3544006347656
0, 6, 50, 328.2908630371094
0, 6, 51, 310.9243469238281
0, 6, 52, 321.6575012207031
0, 6, 53, 329.8375854492188
0, 6, 54, 302.6424560546875
0, 6, 55, 307.5768737792969
0, 6, 56, 292.9400024414062
0, 6, 57, 312.459228515625
0, 6, 58, 264.1656494140625
0, 6, 59, 304.6078796386719
0, 6, 60, 313.3574523925781
0, 6, 61, 271.4958801269531
0, 6, 62, 339.0714111328125
0, 6, 63, 323.7042541503906
0, 6, 64, 291.5590515136719
0, 6, 65, 283.4580383300781
0, 6, 66, 304.0685729980469
0, 6, 67, 309.6755065917969
0, 6, 68, 293.3603210449219
0, 6, 69, 279.3038330078125
0, 6, 70, 273.2921142578125
0, 6, 71, 288.9917297363281
0, 6, 72, 309.6954650878906
0, 6, 73, 292.5388488769531
0, 6, 74, 330.8616027832031
0, 6, 75, 343.9329833984375
0, 6, 76, 296.9890747070312
0, 6, 77, 286.0697021484375
0, 6, 78, 278.6243591308594
0, 6, 79, 291.3410949707031
0, 6, 80, 298.7798461914062
0, 6, 81, 315.1073608398438
0, 6, 82, 319.6905517578125
0, 6, 83, 319.2301025390625
0, 6, 84, 296.522705078125
0, 6, 85, 301.4332275390625
0, 6, 86, 329.5215148925781
0, 6, 87, 290.0716247558594
0, 6, 88, 305.7626647949219
0, 6, 89, 303.714599609375
0, 6, 90, 299.7754821777344
0, 6, 91, 311.0024719238281
0, 6, 92, 287.485107421875
0, 6, 93, 295.4364013671875
0, 6, 94, 272.8449096679688
0, 6, 95, 298.8513793945312
0, 6, 96, 346.2057800292969
0, 6, 97, 309.4177551269531
0, 6, 98, 301.2139892578125
0, 6, 99, 271.6108093261719
0, 6, 100, 310.481689453125
0, 6, 101, 295.5147399902344
0, 6, 102, 310.5712890625
0, 6, 103, 308.2180480957031
0, 6, 104, 295.185302734375
0, 6, 105, 300.747802734375
0, 6, 106, 306.5867919921875
0, 6, 107, 306.0705261230469
0, 6, 108, 264.929931640625
0, 6, 109, 185.976318359375
0, 6, 110, 54.91067886352539
0, 6, 111, 22.55431175231934
0, 6, 112, 13.66850090026855
0, 6, 113, 10.12353706359863
0, 6, 114, 13.80917072296143
0, 6, 115, 13.74755573272705
0, 6, 116, 10.70678424835205
0, 6, 117, 7.90735912322998
0, 6, 118, 11.43320465087891
0, 6, 119, 8.678749084472656
0, 6, 120, 5.226009368896484
0, 6, 121, 6.96842622756958
0, 6, 122, 7.500844955444336
0, 6, 123, 5.355522632598877
0, 6, 124, 5.312245845794678
0, 6, 125, 5.841402530670166
0, 6, 126, 4.318295478820801
0, 6, 127, 7.482067584991455
0, 7, 0, 7.007391452789307
0, 7, 1, 3.327639818191528
0, 7, 2, 7.857096672058105
0, 7, 3, 4.81754207611084
0, 7, 4, 3.665014505386353
0, 7, 5, 5.610045433044434
0, 7, 6, 6.500019073486328
0, 7, 7, 5.035419464111328
0, 7, 8, 6.568862438201904
0, 7, 9, 11.7715950012207
0, 7, 10, 8.055637359619141
0, 7, 11, 11.49753952026367
0, 7, 12, 9.249326705932617
0, 7, 13, 10.57735347747803
0, 7, 14, 10.80514717102051
0, 7, 15, 16.26479911804199
0, 7, 16, 28.04731941223145
0, 7, 17, 99.60977172851562
0, 7, 18, 217.7855224609375
0, 7, 19, 289.7563171386719
0, 7, 20, 299.8651123046875
0, 7, 21, 277.5635986328125
0, 7, 22, 297.8050231933594
0, 7, 23, 288.9071960449219
0, 7, 24, 313.461181640625
0, 7, 25, 324.7668151855469
0, 7, 26, 277.5450134277344
0, 7, 27, 298.3078918457031
0, 7, 28, 327.3818054199219
0, 7, 29, 319.5225524902344
0, 7, 30, 307.1133728027344
0, 7, 31, 277.9526977539062
0, 7, 32, 305.7481079101562
0, 7, 33, 266.2742004394531
0, 7, 34, 297.3956604003906
0, 7, 35, 320.0442810058594
0, 7, 36, 329.4442138671875
0, 7, 37, 326.64013671875
0, 7, 38, 298.0421447753906
0, 7, 39, 306.2587280273438
0, 7, 40, 290.1002807617188
0, 7, 41, 274.5362548828125
0, 7, 42, 300.29248046875
0, 7, 43, 276.6329956054688
0, 7, 44, 304.3841857910156
0, 7, 45, 294.2688598632812
0, 7, 46, 286.4933471679688
0, 7, 47, 326.9553527832031
0, 7, 48, 287.591552734375
0, 7, 49, 300.4400024414062
0, 7, 50, 320.1839294433594
0, 7, 51, 298.1729125976562
0, 7, 52, 326.0787658691406
0, 7, 53, 308.9994506835938
0, 7, 54, 325.8408813476562
0, 7, 55, 307.4063720703125
0, 7, 56, 279.970703125
0, 7, 57, 283.5917663574219
0, 7, 58, 295.7327880859375
0, 7, 59, 294.0717163085938
0, 7, 60, 322.812255859375
0, 7, 61, 277.6397705078125
0, 7, 62, 298.6678466796875
0, 7, 63, 293.7121887207031
0, 7, 64, 305.0060424804688
0, 7, 65, 329.6150207519531
0, 7, 66, 320.1553649902344
0, 7, 67, 301.8977661132812
0, 7, 68, 279.5346374511719
0, 7, 69, 298.2600402832031
0, 7, 70, 304.0481872558594
0, 7, 71, 311.5153198242188
0, 7, 72, 284.6657104492188
0, 7, 73, 295.6873779296875
0, 7, 74, 342.9565124511719
0, 7, 75, 317.9775695800781
0, 7, 76, 324.4891967773438
0, 7, 77, 282.2412719726562
0, 7, 78, 303.1161499023438
0, 7, 79, 297.00244140625
0, 7, 80, 309.8572082519531
0, 7, 81, 321.1146850585938
0, 7, 82, 331.2457580566406
0, 7, 83, 317.965576171875
0, 7, 84, 309.6761474609375
0, 7, 85, 272.0308532714844
0, 7, 86, 311.4519348144531
0, 7, 87, 312.6464233398438
0, 7, 88, 307.2154541015625
0, 7, 89, 293.7278137207031
0, 7, 90, 307.3709411621094
0, 7, 91, 315.9705810546875
0, 7, 92, 289.1004333496094
0, 7, 93, 309.487548828125
0, 7, 94, 275.4295043945312
0, 7, 95, 295.4980773925781
0, 7, 96, 331.7997131347656
0, 7, 97, 295.78076171875
0, 7, 98, 290.0041809082031
0, 7, 99, 310.5860290527344
0, 7, 100, 279.55126953125
0, 7, 101, 274.9859619140625
0, 7, 102, 289.3155212402344
0, 7, 103, 291.6423950195312
0, 7, 104, 274.8675231933594
0, 7, 105, 305.6572875976562
0, 7, 106, 317.4609680175781
0, 7, 107, 296.9124755859375
0, 7, 108, 274.4779968261719
0, 7, 109, 238.9960327148438
0, 7, 110, 97.61867523193359
0, 7, 111, 24.86293983459473
0, 7, 112, 14.59934997558594
0, 7, 113, 15.71386337280273
0, 7, 114, 13.69735527038574
0, 7, 115, 15.4022970199585
0, 7, 116, 10.19091987609863
0, 7, 117, 5.414763450622559
0, 7, 118, 6.611344337463379
0, 7, 119, 6.839429378509521
0, 7, 120, 4.355489730834961
0, 7, 121, 6.9849853515625
0, 7, 122, 6.253974437713623
0, 7, 123, 7.072287559509277
0, 7, 124, 3.646665096282959
0, 7, 125, 6.675403594970703
0, 7, 126, 8.887743949890137
0, 7, 127, 3.767683744430542
0, 8, 0, 6.596733570098877
0, 8, 1, 6.33353328704834
0, 8, 2, 3.589836120605469
0, 8, 3, 2.36104416847229
0, 8, 4, 3.458114385604858
0, 8, 5, 3.933009147644043
0, 8, 6, 5.526318073272705
0, 8, 7, 5.229884624481201
0, 8, 8, 7.872885227203369
0, 8, 9, 6.534276485443115
0, 8, 10, 8.955582618713379
0, 8, 11, 12.12279415130615
0, 8, 12, 15.05490207672119
0, 8, 13, 16.72945976257324
0, 8, 14, 13.20049095153809
0, 8, 15, 21.14166450500488
0, 8, 16, 32.66577911376953
0, 8, 17, 130.0849914550781
0, 8, 18, 241.3126220703125
0, 8, 19, 296.2965698242188
0, 8, 20, 285.9468383789062
0, 8, 21, 307.5104675292969
0, 8, 22, 295.8698425292969
0, 8, 23, 275.037109375
0, 8, 24, 267.6868286132812
0, 8, 25, 274.1458129882812
0, 8, 26, 305.1726989746094
0, 8, 27, 307.0776977539062
0, 8, 28, 305.1841430664062
0, 8, 29, 318.5307922363281
0, 8, 30, 314.0596313476562
0, 8, 31, 305.0353698730469
0, 8, 32, 281.4924926757812
0, 8, 33, 295.9283142089844
0, 8, 34, 288.384033203125
0, 8, 35, 283.3119506835938
0, 8, 36, 314.8979797363281
0, 8, 37, 341.1293029785156
0, 8, 38, 330.6784973144531
0, 8, 39, 279.8761291503906
