# TOPAS Version: 3.1.p3
# Parameter File: batch_inserts_176.txt
# Results for scorer Readout_Adipose
# Scored in component: MyBox
# X in 1 bin  of 0.75 cm
# Y in 512 bins of 0.0783984 cm
# Z in 128 bins of 0.078125 cm
# EnergyDeposit ( MeV ) : Sum   
0, 0, 0, 5.4751296043396
0, 0, 1, 2.795386791229248
0, 0, 2, 4.188785552978516
0, 0, 3, 3.071671009063721
0, 0, 4, 2.408301115036011
0, 0, 5, 3.597044706344604
0, 0, 6, 7.602377414703369
0, 0, 7, 10.39675140380859
0, 0, 8, 1.974549889564514
0, 0, 9, 3.73066782951355
0, 0, 10, 6.70872688293457
0, 0, 11, 4.536736488342285
0, 0, 12, 5.330744743347168
0, 0, 13, 7.418888568878174
0, 0, 14, 8.477291107177734
0, 0, 15, 9.217109680175781
0, 0, 16, 8.313417434692383
0, 0, 17, 9.998848915100098
0, 0, 18, 13.50125312805176
0, 0, 19, 43.46485900878906
0, 0, 20, 137.8065643310547
0, 0, 21, 224.1244354248047
0, 0, 22, 247.9325866699219
0, 0, 23, 257.7186279296875
0, 0, 24, 253.1373138427734
0, 0, 25, 258.5988464355469
0, 0, 26, 237.2606964111328
0, 0, 27, 236.8345642089844
0, 0, 28, 272.8036193847656
0, 0, 29, 253.0771942138672
0, 0, 30, 230.351806640625
0, 0, 31, 243.1481628417969
0, 0, 32, 263.4556274414062
0, 0, 33, 262.306884765625
0, 0, 34, 287.6460266113281
0, 0, 35, 266.8441162109375
0, 0, 36, 247.1701507568359
0, 0, 37, 252.5490875244141
0, 0, 38, 268.8568725585938
0, 0, 39, 228.9419097900391
0, 0, 40, 241.6914672851562
0, 0, 41, 267.4107971191406
0, 0, 42, 228.6065063476562
0, 0, 43, 260.106201171875
0, 0, 44, 253.3387908935547
0, 0, 45, 251.9848022460938
0, 0, 46, 244.3880767822266
0, 0, 47, 253.2593231201172
0, 0, 48, 269.2252502441406
0, 0, 49, 273.6701354980469
0, 0, 50, 250.3153076171875
0, 0, 51, 256.7837524414062
0, 0, 52, 273.035400390625
0, 0, 53, 292.4559631347656
0, 0, 54, 241.9285430908203
0, 0, 55, 240.7145843505859
0, 0, 56, 277.0328979492188
0, 0, 57, 262.2200927734375
0, 0, 58, 244.7937469482422
0, 0, 59, 268.6351013183594
0, 0, 60, 233.804443359375
0, 0, 61, 246.0225677490234
0, 0, 62, 259.8909912109375
0, 0, 63, 268.0304870605469
0, 0, 64, 255.2724761962891
0, 0, 65, 263.7026672363281
0, 0, 66, 277.0872497558594
0, 0, 67, 248.6020202636719
0, 0, 68, 257.6040954589844
0, 0, 69, 261.158447265625
0, 0, 70, 271.2743835449219
0, 0, 71, 237.5453186035156
0, 0, 72, 249.9715881347656
0, 0, 73, 260.4861145019531
0, 0, 74, 249.1670684814453
0, 0, 75, 241.0096282958984
0, 0, 76, 228.2020874023438
0, 0, 77, 258.2414855957031
0, 0, 78, 260.0611267089844
0, 0, 79, 277.6937866210938
0, 0, 80, 214.8603363037109
0, 0, 81, 266.0780029296875
0, 0, 82, 256.8659362792969
0, 0, 83, 245.48291015625
0, 0, 84, 267.4138488769531
0, 0, 85, 232.8515167236328
0, 0, 86, 253.8728637695312
0, 0, 87, 251.2592315673828
0, 0, 88, 260.6229553222656
0, 0, 89, 282.2650756835938
0, 0, 90, 244.8393402099609
0, 0, 91, 283.2044982910156
0, 0, 92, 252.3476409912109
0, 0, 93, 249.2648315429688
0, 0, 94, 250.8865509033203
0, 0, 95, 248.735595703125
0, 0, 96, 274.5679931640625
0, 0, 97, 273.2745971679688
0, 0, 98, 273.6835632324219
0, 0, 99, 257.2413940429688
0, 0, 100, 260.0577697753906
0, 0, 101, 226.9614562988281
0, 0, 102, 233.3008422851562
0, 0, 103, 270.1199340820312
0, 0, 104, 254.7430114746094
0, 0, 105, 252.3612060546875
0, 0, 106, 245.4962921142578
0, 0, 107, 151.8434143066406
0, 0, 108, 37.48392868041992
0, 0, 109, 11.79260635375977
0, 0, 110, 12.3312816619873
0, 0, 111, 8.619950294494629
0, 0, 112, 7.099007606506348
0, 0, 113, 5.805386543273926
0, 0, 114, 8.863996505737305
0, 0, 115, 5.525357723236084
0, 0, 116, 4.882291793823242
0, 0, 117, 5.188436031341553
0, 0, 118, 6.112008571624756
0, 0, 119, 4.166500568389893
0, 0, 120, 2.290329456329346
0, 0, 121, 2.897470235824585
0, 0, 122, 3.022465467453003
0, 0, 123, 4.651936531066895
0, 0, 124, 6.267842292785645
0, 0, 125, 2.989479064941406
0, 0, 126, 4.674417972564697
0, 0, 127, 2.525213479995728
0, 1, 0, 6.926006317138672
0, 1, 1, 2.546188116073608
0, 1, 2, 3.930790424346924
0, 1, 3, 2.426725149154663
0, 1, 4, 3.771759033203125
0, 1, 5, 4.715065479278564
0, 1, 6, 7.08920955657959
0, 1, 7, 6.011559009552002
0, 1, 8, 7.898316860198975
0, 1, 9, 3.355672597885132
0, 1, 10, 6.509454250335693
0, 1, 11, 11.68591022491455
0, 1, 12, 7.406076908111572
0, 1, 13, 9.042580604553223
0, 1, 14, 7.982592105865479
0, 1, 15, 8.882168769836426
0, 1, 16, 11.16595077514648
0, 1, 17, 10.05528736114502
0, 1, 18, 21.35509872436523
0, 1, 19, 65.69256591796875
0, 1, 20, 200.8628845214844
0, 1, 21, 255.1320343017578
0, 1, 22, 296.5683898925781
0, 1, 23, 284.1464538574219
0, 1, 24, 275.7223815917969
0, 1, 25, 287.4710693359375
0, 1, 26, 270.0970764160156
0, 1, 27, 309.2371826171875
0, 1, 28, 297.9517517089844
0, 1, 29, 296.4863586425781
0, 1, 30, 280.9841003417969
0, 1, 31, 293.7283020019531
0, 1, 32, 290.4962768554688
0, 1, 33, 295.7691345214844
0, 1, 34, 291.968505859375
0, 1, 35, 278.023193359375
0, 1, 36, 307.1822204589844
0, 1, 37, 295.4796752929688
0, 1, 38, 279.6965942382812
0, 1, 39, 294.8662414550781
0, 1, 40, 266.7610473632812
0, 1, 41, 287.0678405761719
0, 1, 42, 290.5928344726562
0, 1, 43, 331.5410461425781
0, 1, 44, 278.0015869140625
0, 1, 45, 293.3310241699219
0, 1, 46, 260.7099914550781
0, 1, 47, 312.2172546386719
0, 1, 48, 284.8308410644531
0, 1, 49, 301.7544555664062
0, 1, 50, 265.0457458496094
0, 1, 51, 271.6744384765625
0, 1, 52, 296.0635375976562
0, 1, 53, 304.2262268066406
0, 1, 54, 274.3781127929688
0, 1, 55, 293.0103759765625
0, 1, 56, 278.2652282714844
0, 1, 57, 298.9873046875
0, 1, 58, 311.0003051757812
0, 1, 59, 291.957275390625
0, 1, 60, 297.6661682128906
0, 1, 61, 277.0197448730469
0, 1, 62, 308.59326171875
0, 1, 63, 288.1809997558594
0, 1, 64, 289.7939758300781
0, 1, 65, 294.0377502441406
0, 1, 66, 293.5767517089844
0, 1, 67, 291.4902648925781
0, 1, 68, 277.5271606445312
0, 1, 69, 280.6309509277344
0, 1, 70, 271.7187805175781
0, 1, 71, 274.0309143066406
0, 1, 72, 285.0724792480469
0, 1, 73, 302.13916015625
0, 1, 74, 304.8636779785156
0, 1, 75, 297.4940490722656
0, 1, 76, 286.5793762207031
0, 1, 77, 287.843994140625
0, 1, 78, 298.0580444335938
0, 1, 79, 300.9468688964844
0, 1, 80, 297.0677490234375
0, 1, 81, 301.7667541503906
0, 1, 82, 283.0699462890625
0, 1, 83, 331.1466674804688
0, 1, 84, 306.8492126464844
0, 1, 85, 252.4216918945312
0, 1, 86, 294.8945617675781
0, 1, 87, 289.0341186523438
0, 1, 88, 296.4769287109375
0, 1, 89, 294.3564758300781
0, 1, 90, 269.75634765625
0, 1, 91, 317.8224792480469
0, 1, 92, 290.2040100097656
0, 1, 93, 285.8007202148438
0, 1, 94, 303.4700622558594
0, 1, 95, 285.135009765625
0, 1, 96, 282.6817016601562
0, 1, 97, 301.8206481933594
0, 1, 98, 277.9705810546875
0, 1, 99, 266.2583618164062
0, 1, 100, 275.8808288574219
0, 1, 101, 281.8999633789062
0, 1, 102, 278.1929626464844
0, 1, 103, 280.5178833007812
0, 1, 104, 306.6596374511719
0, 1, 105, 296.4502563476562
0, 1, 106, 261.330322265625
0, 1, 107, 192.4654693603516
0, 1, 108, 81.44673156738281
0, 1, 109, 23.33833694458008
0, 1, 110, 11.09933662414551
0, 1, 111, 9.031911849975586
0, 1, 112, 10.7544059753418
0, 1, 113, 6.239648342132568
0, 1, 114, 7.055212020874023
0, 1, 115, 6.280948162078857
0, 1, 116, 9.462845802307129
0, 1, 117, 4.485696792602539
0, 1, 118, 5.61309814453125
0, 1, 119, 3.816531896591187
0, 1, 120, 4.923958778381348
0, 1, 121, 2.502577304840088
0, 1, 122, 2.489926338195801
0, 1, 123, 2.313064575195312
0, 1, 124, 8.261209487915039
0, 1, 125, 5.175372123718262
0, 1, 126, 3.777516841888428
0, 1, 127, 1.418383717536926
0, 2, 0, 6.474485874176025
0, 2, 1, 2.945166110992432
0, 2, 2, 4.769120216369629
0, 2, 3, 4.961842060089111
0, 2, 4, 2.155293226242065
0, 2, 5, 1.888140082359314
0, 2, 6, 3.67865252494812
0, 2, 7, 5.944596767425537
0, 2, 8, 4.608455657958984
0, 2, 9, 6.529991626739502
0, 2, 10, 7.338357448577881
0, 2, 11, 6.110523223876953
0, 2, 12, 5.871139049530029
0, 2, 13, 11.05432510375977
0, 2, 14, 10.6952953338623
0, 2, 15, 8.326929092407227
0, 2, 16, 9.699493408203125
0, 2, 17, 16.42371940612793
0, 2, 18, 30.1478328704834
0, 2, 19, 114.9725875854492
0, 2, 20, 248.0010681152344
0, 2, 21, 270.1083984375
0, 2, 22, 315.5130004882812
0, 2, 23, 302.1492309570312
0, 2, 24, 287.5258178710938
0, 2, 25, 301.8345031738281
0, 2, 26, 291.37060546875
0, 2, 27, 274.9482116699219
0, 2, 28, 273.0533142089844
0, 2, 29, 273.7886962890625
0, 2, 30, 288.1639099121094
0, 2, 31, 276.1344299316406
0, 2, 32, 293.4173889160156
0, 2, 33, 281.2625427246094
0, 2, 34, 330.3464050292969
0, 2, 35, 288.0390319824219
0, 2, 36, 303.7742614746094
0, 2, 37, 315.6310729980469
0, 2, 38, 311.9493408203125
0, 2, 39, 266.3924560546875
0, 2, 40, 307.7281799316406
0, 2, 41, 291.8929443359375
0, 2, 42, 304.3734741210938
0, 2, 43, 313.6009216308594
0, 2, 44, 311.5923156738281
0, 2, 45, 325.5501403808594
0, 2, 46, 288.0836791992188
0, 2, 47, 302.4181823730469
0, 2, 48, 280.3118286132812
0, 2, 49, 278.576416015625
0, 2, 50, 295.2620849609375
0, 2, 51, 283.8581237792969
0, 2, 52, 274.4524230957031
0, 2, 53, 287.6283569335938
0, 2, 54, 280.7311401367188
0, 2, 55, 274.4989318847656
0, 2, 56, 302.5277404785156
0, 2, 57, 293.7731628417969
0, 2, 58, 303.7104797363281
0, 2, 59, 292.5237426757812
0, 2, 60, 318.2103271484375
0, 2, 61, 301.6076965332031
0, 2, 62, 312.6549377441406
0, 2, 63, 303.1492614746094
0, 2, 64, 295.01806640625
0, 2, 65, 314.1891174316406
0, 2, 66, 279.1425170898438
0, 2, 67, 292.7933654785156
0, 2, 68, 298.43701171875
0, 2, 69, 310.44287109375
0, 2, 70, 334.5491638183594
0, 2, 71, 284.1559448242188
0, 2, 72, 302.1638793945312
0, 2, 73, 314.5918273925781
0, 2, 74, 290.338134765625
0, 2, 75, 304.439697265625
0, 2, 76, 288.8370971679688
0, 2, 77, 298.5845336914062
0, 2, 78, 313.1129150390625
0, 2, 79, 308.470458984375
0, 2, 80, 300.0369262695312
0, 2, 81, 280.6791076660156
0, 2, 82, 320.3037719726562
0, 2, 83, 313.8793640136719
0, 2, 84, 286.5633239746094
0, 2, 85, 280.4751892089844
0, 2, 86, 325.2113037109375
0, 2, 87, 285.7552490234375
0, 2, 88, 279.3555908203125
0, 2, 89, 294.9576110839844
0, 2, 90, 295.0627136230469
0, 2, 91, 275.7316284179688
0, 2, 92, 307.5557250976562
0, 2, 93, 315.7545776367188
0, 2, 94, 293.0062866210938
0, 2, 95, 315.2617797851562
0, 2, 96, 314.8275451660156
0, 2, 97, 290.3556518554688
0, 2, 98, 293.3795776367188
0, 2, 99, 272.7478942871094
0, 2, 100, 306.6617736816406
0, 2, 101, 303.785400390625
0, 2, 102, 296.7774963378906
0, 2, 103, 292.6846618652344
0, 2, 104, 293.90673828125
0, 2, 105, 273.396484375
0, 2, 106, 296.2913208007812
0, 2, 107, 271.5081481933594
0, 2, 108, 116.0876846313477
0, 2, 109, 32.12880706787109
0, 2, 110, 9.868955612182617
0, 2, 111, 12.21364688873291
0, 2, 112, 9.210077285766602
0, 2, 113, 9.297202110290527
0, 2, 114, 8.28415584564209
0, 2, 115, 9.541683197021484
0, 2, 116, 9.028005599975586
0, 2, 117, 9.369745254516602
0, 2, 118, 2.923392295837402
0, 2, 119, 3.963403463363647
0, 2, 120, 6.597233295440674
0, 2, 121, 2.456599473953247
0, 2, 122, 4.248788833618164
0, 2, 123, 4.322235107421875
0, 2, 124, 5.022971153259277
0, 2, 125, 6.327531337738037
0, 2, 126, 3.754947185516357
0, 2, 127, 4.904366016387939
0, 3, 0, 2.739947080612183
0, 3, 1, 4.541460037231445
0, 3, 2, 5.43742036819458
0, 3, 3, 3.417930126190186
0, 3, 4, 3.137022256851196
0, 3, 5, 8.687280654907227
0, 3, 6, 7.034317493438721
0, 3, 7, 4.771832466125488
0, 3, 8, 5.218498706817627
0, 3, 9, 8.469871520996094
0, 3, 10, 4.801670074462891
0, 3, 11, 4.330698490142822
0, 3, 12, 9.774839401245117
0, 3, 13, 16.7620849609375
0, 3, 14, 12.06992626190186
0, 3, 15, 12.8689022064209
0, 3, 16, 12.06387233734131
0, 3, 17, 20.81867980957031
0, 3, 18, 55.58078002929688
0, 3, 19, 175.5779113769531
0, 3, 20, 268.6573791503906
0, 3, 21, 271.0108642578125
0, 3, 22, 282.6591796875
0, 3, 23, 287.4119567871094
0, 3, 24, 286.198974609375
0, 3, 25, 270.36376953125
0, 3, 26, 305.0418395996094
0, 3, 27, 292.7669677734375
0, 3, 28, 281.6496276855469
0, 3, 29, 339.1363220214844
0, 3, 30, 318.5371398925781
0, 3, 31, 286.2704467773438
0, 3, 32, 309.2908935546875
0, 3, 33, 313.9319458007812
0, 3, 34, 323.7466125488281
0, 3, 35, 306.9378967285156
0, 3, 36, 270.2401733398438
0, 3, 37, 312.4524536132812
0, 3, 38, 305.138671875
0, 3, 39, 290.5448608398438
0, 3, 40, 266.4330444335938
0, 3, 41, 300.9050598144531
0, 3, 42, 285.2481079101562
0, 3, 43, 307.7936096191406
0, 3, 44, 310.3852844238281
0, 3, 45, 290.0866088867188
0, 3, 46, 329.4078369140625
0, 3, 47, 299.2586975097656
0, 3, 48, 301.1443786621094
0, 3, 49, 278.2997436523438
0, 3, 50, 289.0215148925781
0, 3, 51, 277.0032043457031
0, 3, 52, 316.0423583984375
0, 3, 53, 286.3117370605469
0, 3, 54, 283.7687683105469
0, 3, 55, 284.6077880859375
0, 3, 56, 297.8372192382812
0, 3, 57, 288.7538146972656
0, 3, 58, 306.5793151855469
0, 3, 59, 292.7984619140625
0, 3, 60, 298.5989379882812
0, 3, 61, 263.8539123535156
0, 3, 62, 283.7736206054688
0, 3, 63, 308.1835021972656
0, 3, 64, 316.1666564941406
0, 3, 65, 306.8240356445312
0, 3, 66, 314.6602478027344
0, 3, 67, 317.6451416015625
0, 3, 68, 279.4100341796875
0, 3, 69, 287.0046691894531
0, 3, 70, 289.9782104492188
0, 3, 71, 299.4286499023438
0, 3, 72, 267.7831115722656
0, 3, 73, 308.2435302734375
0, 3, 74, 291.3907470703125
0, 3, 75, 290.4063415527344
0, 3, 76, 306.9629211425781
0, 3, 77, 312.76611328125
0, 3, 78, 302.7494506835938
0, 3, 79, 281.4103698730469
0, 3, 80, 290.5489196777344
0, 3, 81, 311.5963439941406
0, 3, 82, 315.6866149902344
0, 3, 83, 300.6752624511719
0, 3, 84, 309.505859375
0, 3, 85, 294.6773376464844
0, 3, 86, 301.2910461425781
0, 3, 87, 299.9512939453125
0, 3, 88, 297.7494506835938
0, 3, 89, 298.1455078125
0, 3, 90, 275.5854797363281
0, 3, 91, 285.1323547363281
0, 3, 92, 303.2881164550781
0, 3, 93, 313.1040954589844
0, 3, 94, 297.8836059570312
0, 3, 95, 334.8785095214844
0, 3, 96, 290.9179992675781
0, 3, 97, 286.2138977050781
0, 3, 98, 278.6216430664062
0, 3, 99, 261.6448974609375
0, 3, 100, 284.3843078613281
0, 3, 101, 296.7386474609375
0, 3, 102, 273.8419799804688
0, 3, 103, 322.5503540039062
0, 3, 104, 309.0590209960938
0, 3, 105, 288.9751586914062
0, 3, 106, 301.2042236328125
0, 3, 107, 286.050048828125
0, 3, 108, 168.3055572509766
0, 3, 109, 55.304931640625
0, 3, 110, 17.41126823425293
0, 3, 111, 12.97279262542725
0, 3, 112, 12.73632049560547
0, 3, 113, 6.832719802856445
0, 3, 114, 9.99553108215332
0, 3, 115, 6.093071937561035
0, 3, 116, 7.656761169433594
0, 3, 117, 11.90592861175537
0, 3, 118, 10.42254829406738
0, 3, 119, 4.807612419128418
0, 3, 120, 7.753487110137939
0, 3, 121, 3.686627864837646
0, 3, 122, 2.623871326446533
0, 3, 123, 4.732161045074463
0, 3, 124, 3.455516576766968
0, 3, 125, 5.36380672454834
0, 3, 126, 4.19316291809082
0, 3, 127, 4.411642074584961
0, 4, 0, 2.133233547210693
0, 4, 1, 5.024911880493164
0, 4, 2, 3.288191556930542
0, 4, 3, 2.180347442626953
0, 4, 4, 7.341077327728271
0, 4, 5, 9.057820320129395
0, 4, 6, 6.912430286407471
0, 4, 7, 4.262636184692383
0, 4, 8, 4.357512474060059
0, 4, 9, 5.901688098907471
0, 4, 10, 7.857341766357422
0, 4, 11, 6.080897808074951
0, 4, 12, 5.121257781982422
0, 4, 13, 8.893972396850586
0, 4, 14, 12.542724609375
0, 4, 15, 9.715398788452148
0, 4, 16, 12.69800662994385
0, 4, 17, 18.97971343994141
0, 4, 18, 93.27675628662109
0, 4, 19, 224.3795623779297
0, 4, 20, 284.8063659667969
0, 4, 21, 271.71337890625
0, 4, 22, 305.3899230957031
0, 4, 23, 266.443603515625
0, 4, 24, 288.6729125976562
0, 4, 25, 272.3013916015625
0, 4, 26, 295.1582641601562
0, 4, 27, 282.9211120605469
0, 4, 28, 307.6862487792969
0, 4, 29, 323.7790222167969
0, 4, 30, 310.8424682617188
0, 4, 31, 304.5997009277344
0, 4, 32, 282.9736633300781
0, 4, 33, 299.2879333496094
0, 4, 34, 296.208251953125
0, 4, 35, 311.6344299316406
0, 4, 36, 294.7862548828125
0, 4, 37, 287.69287109375
0, 4, 38, 298.3089599609375
0, 4, 39, 292.5889892578125
0, 4, 40, 302.2299194335938
0, 4, 41, 311.5927734375
0, 4, 42, 328.206298828125
0, 4, 43, 295.6435546875
0, 4, 44, 320.1437377929688
0, 4, 45, 325.7273559570312
0, 4, 46, 305.2854309082031
0, 4, 47, 293.5347900390625
0, 4, 48, 295.6544189453125
0, 4, 49, 278.8636779785156
0, 4, 50, 296.0586853027344
0, 4, 51, 316.8474426269531
0, 4, 52, 327.9686279296875
0, 4, 53, 304.7552490234375
0, 4, 54, 287.2767944335938
0, 4, 55, 313.9772033691406
0, 4, 56, 286.8141479492188
0, 4, 57, 310.4141845703125
0, 4, 58, 296.2709655761719
0, 4, 59, 308.4150390625
0, 4, 60, 303.3991394042969
0, 4, 61, 315.2522888183594
0, 4, 62, 308.490234375
0, 4, 63, 299.9023132324219
0, 4, 64, 331.44677734375
0, 4, 65, 315.3229370117188
0, 4, 66, 293.5862121582031
0, 4, 67, 284.8466796875
0, 4, 68, 312.0011596679688
0, 4, 69, 277.78857421875
0, 4, 70, 299.2228393554688
0, 4, 71, 321.44189453125
0, 4, 72, 336.251708984375
0, 4, 73, 301.024169921875
0, 4, 74, 292.5525207519531
0, 4, 75, 288.6393127441406
0, 4, 76, 274.5552673339844
0, 4, 77, 278.8782653808594
0, 4, 78, 309.3757019042969
0, 4, 79, 317.5957946777344
0, 4, 80, 315.4792785644531
0, 4, 81, 313.0273742675781
0, 4, 82, 296.6974487304688
0, 4, 83, 301.07275390625
0, 4, 84, 290.9338989257812
0, 4, 85, 295.2793884277344
0, 4, 86, 298.9296875
0, 4, 87, 283.2059020996094
0, 4, 88, 305.8345336914062
0, 4, 89, 296.299072265625
0, 4, 90, 332.8881530761719
0, 4, 91, 302.8104248046875
0, 4, 92, 290.026123046875
0, 4, 93, 298.4828186035156
0, 4, 94, 292.5883178710938
0, 4, 95, 290.4530029296875
0, 4, 96, 325.2127990722656
0, 4, 97, 273.5932312011719
0, 4, 98, 326.6063232421875
0, 4, 99, 312.5559387207031
0, 4, 100, 301.1621398925781
0, 4, 101, 258.4320678710938
0, 4, 102, 297.448974609375
0, 4, 103, 317.9666442871094
0, 4, 104, 282.1217956542969
0, 4, 105, 310.5064086914062
0, 4, 106, 291.5546264648438
0, 4, 107, 295.7440185546875
0, 4, 108, 226.3603973388672
0, 4, 109, 80.41649627685547
0, 4, 110, 16.51812171936035
0, 4, 111, 14.32362651824951
0, 4, 112, 8.472926139831543
0, 4, 113, 10.2769718170166
0, 4, 114, 8.43657398223877
0, 4, 115, 11.30801200866699
0, 4, 116, 7.410714149475098
0, 4, 117, 5.958312034606934
0, 4, 118, 9.447603225708008
0, 4, 119, 10.38752269744873
0, 4, 120, 6.263313770294189
0, 4, 121, 5.430271625518799
0, 4, 122, 4.473148822784424
0, 4, 123, 7.305478572845459
0, 4, 124, 7.449436187744141
0, 4, 125, 8.654382705688477
0, 4, 126, 4.054727077484131
0, 4, 127, 3.603293180465698
0, 5, 0, 4.876367568969727
0, 5, 1, 3.752663135528564
0, 5, 2, 4.181288719177246
0, 5, 3, 3.986583948135376
0, 5, 4, 5.50931978225708
0, 5, 5, 6.644382953643799
0, 5, 6, 4.721598625183105
0, 5, 7, 5.743890762329102
0, 5, 8, 6.101778030395508
0, 5, 9, 7.363534927368164
0, 5, 10, 6.370232105255127
0, 5, 11, 8.142718315124512
0, 5, 12, 7.430885791778564
0, 5, 13, 5.579001426696777
0, 5, 14, 12.09912490844727
0, 5, 15, 18.04274749755859
0, 5, 16, 14.4849796295166
0, 5, 17, 29.52420997619629
0, 5, 18, 136.5176849365234
0, 5, 19, 289.5445251464844
0, 5, 20, 309.7181701660156
0, 5, 21, 317.9596557617188
0, 5, 22, 275.36181640625
0, 5, 23, 311.1154479980469
0, 5, 24, 301.6670532226562
0, 5, 25, 290.8963623046875
0, 5, 26, 293.6963806152344
0, 5, 27, 321.5009765625
0, 5, 28, 303.2462463378906
0, 5, 29, 299.771240234375
0, 5, 30, 322.2689819335938
0, 5, 31, 285.6841430664062
0, 5, 32, 301.9185791015625
0, 5, 33, 303.6265258789062
0, 5, 34, 295.541748046875
0, 5, 35, 309.5881652832031
0, 5, 36, 271.5471801757812
0, 5, 37, 281.6366271972656
0, 5, 38, 291.2760009765625
0, 5, 39, 312.3118591308594
0, 5, 40, 306.6036376953125
0, 5, 41, 273.2289733886719
0, 5, 42, 304.6255493164062
0, 5, 43, 311.4605407714844
0, 5, 44, 292.8738098144531
0, 5, 45, 300.2604064941406
0, 5, 46, 265.5381469726562
0, 5, 47, 280.1278381347656
0, 5, 48, 293.9500427246094
0, 5, 49, 285.0770263671875
0, 5, 50, 295.6584777832031
0, 5, 51, 279.76708984375
0, 5, 52, 268.4497680664062
0, 5, 53, 283.9930725097656
0, 5, 54, 291.6292724609375
0, 5, 55, 345.3127136230469
0, 5, 56, 306.0262451171875
0, 5, 57, 306.5528259277344
0, 5, 58, 312.3133544921875
0, 5, 59, 304.2518920898438
0, 5, 60, 305.967529296875
0, 5, 61, 280.5270080566406
0, 5, 62, 325.6900939941406
0, 5, 63, 290.6192932128906
0, 5, 64, 323.2583923339844
0, 5, 65, 306.6732177734375
0, 5, 66, 326.8363342285156
0, 5, 67, 311.5145263671875
0, 5, 68, 310.5916442871094
0, 5, 69, 311.2759094238281
0, 5, 70, 303.8684692382812
0, 5, 71, 272.6419677734375
0, 5, 72, 312.6512451171875
0, 5, 73, 303.06396484375
0, 5, 74, 294.6448059082031
0, 5, 75, 293.5339660644531
0, 5, 76, 284.9527893066406
0, 5, 77, 297.3530883789062
0, 5, 78, 316.9763793945312
0, 5, 79, 307.0758972167969
0, 5, 80, 296.0980224609375
0, 5, 81, 326.8529357910156
0, 5, 82, 324.0623168945312
0, 5, 83, 280.3509826660156
0, 5, 84, 301.2501831054688
0, 5, 85, 271.7391662597656
0, 5, 86, 327.367431640625
0, 5, 87, 284.3435363769531
0, 5, 88, 313.4619750976562
0, 5, 89, 303.7926635742188
0, 5, 90, 316.3182067871094
0, 5, 91, 312.7578125
0, 5, 92, 296.13623046875
0, 5, 93, 323.8699035644531
0, 5, 94, 307.0033874511719
0, 5, 95, 295.5014038085938
0, 5, 96, 296.81689453125
0, 5, 97, 295.7501525878906
0, 5, 98, 319.1233215332031
0, 5, 99, 303.0393371582031
0, 5, 100, 293.2547607421875
0, 5, 101, 304.2261657714844
0, 5, 102, 291.1278686523438
0, 5, 103, 313.7019348144531
0, 5, 104, 303.6236877441406
0, 5, 105, 290.39990234375
0, 5, 106, 282.6299438476562
0, 5, 107, 291.2960815429688
0, 5, 108, 266.9151916503906
0, 5, 109, 156.9429779052734
0, 5, 110, 40.08055877685547
0, 5, 111, 19.57002067565918
0, 5, 112, 18.05299758911133
0, 5, 113, 13.35409736633301
0, 5, 114, 14.49966335296631
0, 5, 115, 7.521628379821777
0, 5, 116, 6.881916046142578
0, 5, 117, 6.607391834259033
0, 5, 118, 11.75157642364502
0, 5, 119, 6.478798389434814
0, 5, 120, 5.776687145233154
0, 5, 121, 4.101430416107178
0, 5, 122, 6.145583629608154
0, 5, 123, 3.544490337371826
0, 5, 124, 8.020235061645508
0, 5, 125, 4.905278205871582
0, 5, 126, 5.775908946990967
0, 5, 127, 3.482064485549927
0, 6, 0, 5.741297245025635
0, 6, 1, 4.835693836212158
0, 6, 2, 4.477166175842285
0, 6, 3, 5.452265739440918
0, 6, 4, 4.322013854980469
0, 6, 5, 7.465601921081543
0, 6, 6, 7.268917560577393
0, 6, 7, 5.530391693115234
0, 6, 8, 6.445160865783691
0, 6, 9, 7.0556640625
0, 6, 10, 6.916020393371582
0, 6, 11, 7.386592864990234
0, 6, 12, 9.736576080322266
0, 6, 13, 13.31956672668457
0, 6, 14, 8.66502571105957
0, 6, 15, 15.28248310089111
0, 6, 16, 29.04888153076172
0, 6, 17, 54.39951324462891
0, 6, 18, 172.4553375244141
0, 6, 19, 276.6351013183594
0, 6, 20, 290.2908630371094
0, 6, 21, 314.1581420898438
0, 6, 22, 320.6568603515625
0, 6, 23, 304.9003601074219
0, 6, 24, 315.3140563964844
0, 6, 25, 315.6191711425781
0, 6, 26, 320.5916748046875
0, 6, 27, 330.8991394042969
0, 6, 28, 295.3298034667969
0, 6, 29, 329.6327819824219
0, 6, 30, 282.3439331054688
0, 6, 31, 287.7407531738281
0, 6, 32, 341.9569396972656
0, 6, 33, 300.7202758789062
0, 6, 34, 340.386962890625
0, 6, 35, 322.835693359375
0, 6, 36, 276.1451110839844
0, 6, 37, 291.0513916015625
0, 6, 38, 316.4166870117188
0, 6, 39, 299.5017700195312
0, 6, 40, 284.7250061035156
0, 6, 41, 299.2226867675781
0, 6, 42, 304.3190307617188
0, 6, 43, 287.4859313964844
0, 6, 44, 279.2153015136719
0, 6, 45, 320.0790710449219
0, 6, 46, 303.0215759277344
0, 6, 47, 333.2709350585938
0, 6, 48, 292.5336608886719
0, 6, 49, 312.9523620605469
0, 6, 50, 328.1542358398438
0, 6, 51, 311.5392150878906
0, 6, 52, 321.0286865234375
0, 6, 53, 330.4612426757812
0, 6, 54, 304.2369995117188
0, 6, 55, 304.6053466796875
0, 6, 56, 292.7909545898438
0, 6, 57, 313.3307189941406
0, 6, 58, 261.1495666503906
0, 6, 59, 303.8308410644531
0, 6, 60, 312.4020690917969
0, 6, 61, 270.1516418457031
0, 6, 62, 337.3184204101562
0, 6, 63, 322.5182800292969
0, 6, 64, 291.0231018066406
0, 6, 65, 285.0240783691406
0, 6, 66, 305.4748229980469
0, 6, 67, 311.392333984375
0, 6, 68, 295.1328125
0, 6, 69, 279.8374328613281
0, 6, 70, 274.0384521484375
0, 6, 71, 288.3442077636719
0, 6, 72, 308.7988891601562
0, 6, 73, 293.0518798828125
0, 6, 74, 331.8755493164062
0, 6, 75, 345.3587341308594
0, 6, 76, 296.8043823242188
0, 6, 77, 287.1548767089844
0, 6, 78, 278.2750549316406
0, 6, 79, 293.1030578613281
0, 6, 80, 299.0167846679688
0, 6, 81, 317.0130615234375
0, 6, 82, 319.1676940917969
0, 6, 83, 320.8538513183594
0, 6, 84, 295.4909973144531
0, 6, 85, 300.6216125488281
0, 6, 86, 330.2777404785156
0, 6, 87, 290.5747375488281
0, 6, 88, 305.4736022949219
0, 6, 89, 306.1375427246094
0, 6, 90, 299.3026123046875
0, 6, 91, 310.8900451660156
0, 6, 92, 285.4969787597656
0, 6, 93, 295.6410827636719
0, 6, 94, 271.4189147949219
0, 6, 95, 300.8333435058594
0, 6, 96, 346.7213134765625
0, 6, 97, 309.8657836914062
0, 6, 98, 300.8962097167969
0, 6, 99, 272.5956726074219
0, 6, 100, 308.108642578125
0, 6, 101, 292.92724609375
0, 6, 102, 308.3586120605469
0, 6, 103, 307.2872314453125
0, 6, 104, 292.0810241699219
0, 6, 105, 300.3258056640625
0, 6, 106, 307.331298828125
0, 6, 107, 305.20849609375
0, 6, 108, 265.7411499023438
0, 6, 109, 186.7720184326172
0, 6, 110, 56.23217010498047
0, 6, 111, 22.75250625610352
0, 6, 112, 13.97207546234131
0, 6, 113, 12.52376747131348
0, 6, 114, 13.56075763702393
0, 6, 115, 12.64628887176514
0, 6, 116, 8.947336196899414
0, 6, 117, 7.391416549682617
0, 6, 118, 10.05304145812988
0, 6, 119, 9.588099479675293
0, 6, 120, 7.188085079193115
0, 6, 121, 7.020780563354492
0, 6, 122, 6.436549663543701
0, 6, 123, 7.153445720672607
0, 6, 124, 7.174205780029297
0, 6, 125, 9.680395126342773
0, 6, 126, 2.202076196670532
0, 6, 127, 5.526974678039551
0, 7, 0, 5.354736804962158
0, 7, 1, 2.890859603881836
0, 7, 2, 5.782688140869141
0, 7, 3, 5.402084827423096
0, 7, 4, 3.427722454071045
0, 7, 5, 3.415908336639404
0, 7, 6, 6.032325744628906
0, 7, 7, 6.045157432556152
0, 7, 8, 6.203590869903564
0, 7, 9, 7.121751308441162
0, 7, 10, 8.341545104980469
0, 7, 11, 12.33625507354736
0, 7, 12, 10.27202796936035
0, 7, 13, 11.22579002380371
0, 7, 14, 12.41778659820557
0, 7, 15, 16.19492530822754
0, 7, 16, 26.8493537902832
0, 7, 17, 98.45176696777344
0, 7, 18, 217.7263488769531
0, 7, 19, 290.6875610351562
0, 7, 20, 300.3006286621094
0, 7, 21, 276.2542724609375
0, 7, 22, 298.7896118164062
0, 7, 23, 289.0014343261719
0, 7, 24, 314.6036071777344
0, 7, 25, 325.990966796875
0, 7, 26, 277.785888671875
0, 7, 27, 298.0645141601562
0, 7, 28, 329.3338317871094
0, 7, 29, 318.6753845214844
0, 7, 30, 304.9178466796875
0, 7, 31, 277.3436584472656
0, 7, 32, 304.4989318847656
0, 7, 33, 260.8243408203125
0, 7, 34, 296.5320739746094
0, 7, 35, 319.3904724121094
0, 7, 36, 333.7605285644531
0, 7, 37, 323.1139526367188
0, 7, 38, 298.50146484375
0, 7, 39, 304.8883056640625
0, 7, 40, 289.694580078125
0, 7, 41, 269.8643798828125
0, 7, 42, 302.1377258300781
0, 7, 43, 277.4040832519531
0, 7, 44, 305.5321350097656
0, 7, 45, 296.889892578125
0, 7, 46, 281.6528930664062
0, 7, 47, 330.0216064453125
0, 7, 48, 285.6430053710938
0, 7, 49, 300.8932495117188
0, 7, 50, 321.2026977539062
0, 7, 51, 298.4386596679688
0, 7, 52, 325.0887451171875
0, 7, 53, 308.2895812988281
0, 7, 54, 323.7549438476562
0, 7, 55, 306.7224426269531
0, 7, 56, 280.0210266113281
0, 7, 57, 283.0253295898438
0, 7, 58, 296.5536193847656
0, 7, 59, 294.4121704101562
0, 7, 60, 322.30029296875
0, 7, 61, 278.5761108398438
0, 7, 62, 297.8375244140625
0, 7, 63, 292.8166809082031
0, 7, 64, 307.235595703125
0, 7, 65, 331.3347778320312
0, 7, 66, 317.2750244140625
0, 7, 67, 300.8831481933594
0, 7, 68, 278.9929504394531
0, 7, 69, 296.0953979492188
0, 7, 70, 302.2477416992188
0, 7, 71, 309.0042419433594
0, 7, 72, 284.5610046386719
0, 7, 73, 293.8970336914062
0, 7, 74, 343.8728637695312
0, 7, 75, 319.2837219238281
0, 7, 76, 323.5332946777344
0, 7, 77, 280.8360595703125
0, 7, 78, 299.8709411621094
0, 7, 79, 297.3194885253906
0, 7, 80, 311.3982849121094
0, 7, 81, 319.5003662109375
0, 7, 82, 332.1043395996094
0, 7, 83, 318.1603698730469
0, 7, 84, 309.9896545410156
0, 7, 85, 271.3681640625
0, 7, 86, 310.2469177246094
0, 7, 87, 312.5863342285156
0, 7, 88, 306.8699035644531
0, 7, 89, 294.49462890625
0, 7, 90, 308.2001647949219
0, 7, 91, 314.8511657714844
0, 7, 92, 289.6648864746094
0, 7, 93, 309.5811157226562
0, 7, 94, 272.6269226074219
0, 7, 95, 297.6618041992188
0, 7, 96, 331.6227722167969
0, 7, 97, 295.568115234375
0, 7, 98, 290.0598754882812
0, 7, 99, 312.1077575683594
0, 7, 100, 285.3846435546875
0, 7, 101, 274.0509948730469
0, 7, 102, 289.8398742675781
0, 7, 103, 294.3846130371094
0, 7, 104, 274.136474609375
0, 7, 105, 305.2190551757812
0, 7, 106, 318.8128051757812
0, 7, 107, 298.3589782714844
0, 7, 108, 273.134033203125
0, 7, 109, 237.3582153320312
0, 7, 110, 96.32231903076172
0, 7, 111, 23.32766723632812
0, 7, 112, 12.75060653686523
0, 7, 113, 15.43590831756592
0, 7, 114, 11.85352230072021
0, 7, 115, 14.22481536865234
0, 7, 116, 10.59451866149902
0, 7, 117, 9.122143745422363
0, 7, 118, 7.470802783966064
0, 7, 119, 6.487556457519531
0, 7, 120, 4.021073341369629
0, 7, 121, 8.530667304992676
0, 7, 122, 6.670052528381348
0, 7, 123, 6.089627742767334
0, 7, 124, 2.663388729095459
0, 7, 125, 9.02913761138916
0, 7, 126, 9.993935585021973
0, 7, 127, 4.229818820953369
0, 8, 0, 6.678455352783203
0, 8, 1, 4.30227518081665
0, 8, 2, 3.674535274505615
0, 8, 3, 3.667920589447021
0, 8, 4, 3.867783308029175
0, 8, 5, 3.994141578674316
0, 8, 6, 5.626352310180664
0, 8, 7, 5.251736164093018
0, 8, 8, 8.270132064819336
0, 8, 9, 5.630245685577393
0, 8, 10, 8.99296760559082
0, 8, 11, 14.04356670379639
0, 8, 12, 13.05053234100342
0, 8, 13, 15.54369068145752
0, 8, 14, 12.62048053741455
0, 8, 15, 18.59820365905762
0, 8, 16, 32.46802139282227
0, 8, 17, 131.6281585693359
0, 8, 18, 242.0242767333984
0, 8, 19, 298.0310974121094
0, 8, 20, 285.4114379882812
0, 8, 21, 306.6849670410156
0, 8, 22, 295.4583435058594
0, 8, 23, 275.3416748046875
0, 8, 24, 268.2125244140625
0, 8, 25, 274.8829345703125
0, 8, 26, 306.9464111328125
0, 8, 27, 307.3789367675781
0, 8, 28, 305.6194152832031
0, 8, 29, 318.5770263671875
0, 8, 30, 314.2751159667969
0, 8, 31, 303.4021911621094
0, 8, 32, 279.4566650390625
0, 8, 33, 294.5099792480469
0, 8, 34, 288.3623657226562
0, 8, 35, 280.1780700683594
0, 8, 36, 314.4767456054688
0, 8, 37, 340.5088500976562
0, 8, 38, 331.3717346191406
0, 8, 39, 281.553466796875
